['beep', 0.0, 2630.196825289348, 0.0, 0.0, 0.0, 0.0, -958.8674853882177, 0.0]
['beep', 0.0, 2630.643860178454, 0.0, 0.0, 0.0, 0.0, -956.3193865203127, 0.0]
['beep', 0.0, 2631.6496886789428, 0.0, 0.0, 0.0, 0.0, -958.2416365434691, 0.0]
['beep', 0.0, 2632.074371823594, 0.0, 0.0, 0.0, 0.0, -957.7051946765417, 0.0]
['beep', 0.0, 2631.202653789837, 0.0, 0.0, 0.0, 0.0, -958.1298778211925, 0.0]
['beep', 0.0, 2632.387296245968, 0.0, 0.0, 0.0, 0.0, -958.4651539880222, 0.0]
['beep', 0.0, 2632.163778801415, 0.0, 0.0, 0.0, 0.0, -958.3310435212903, 0.0]
['beep', 0.0, 2632.767275901708, 0.0, 0.0, 0.0, 0.0, -960.4544592445445, 0.0]
['beep', 0.0, 2633.0578485796273, 0.0, 0.0, 0.0, 0.0, -961.5273429783992, 0.0]
['beep', 0.0, 2633.5272352131888, 0.0, 0.0, 0.0, 0.0, -960.4097557556339, 0.0]
['beep', 0.0, 2633.5272352131888, 0.0, 0.0, 0.0, 0.0, -960.3203487778127, 0.0]
['beep', 0.0, 2632.9460898573507, 0.0, 0.0, 0.0, 0.0, -961.5273429783992, 0.0]
['beep', 0.0, 2630.8897293674627, 0.0, 0.0, 0.0, 0.0, -958.2639882879243, 0.0]
['beep', 0.0, 2631.940261356862, 0.0, 0.0, 0.0, 0.0, -956.5429039648658, 0.0]
['beep', 0.0, 2631.2473572787476, 0.0, 0.0, 0.0, 0.0, -956.5876074537764, 0.0]
['beep', 0.0, 2631.068543323105, 0.0, 0.0, 0.0, 0.0, -957.794601654363, 0.0]
['beep', 0.0, 2631.135598556471, 0.0, 0.0, 0.0, 0.0, -960.3874040111785, 0.0]
['beep', 0.0, 2630.71091541182, 0.0, 0.0, 0.0, 0.0, -960.4321075000892, 0.0]
['beep', 0.0, 2632.90138636844, 0.0, 0.0, 0.0, 0.0, -958.4428022435668, 0.0]
['beep', 0.0, 2633.124903812993, 0.0, 0.0, 0.0, 0.0, -957.95106386555, 0.0]
['beep', 0.0, 2632.230834034781, 0.0, 0.0, 0.0, 0.0, -958.0404708433713, 0.0]
['beep', 0.0, 2633.102552068538, 0.0, 0.0, 0.0, 0.0, -958.6886714325752, 0.0]
['beep', 0.0, 2632.3649445015126, 0.0, 0.0, 0.0, 0.0, -958.9121888771283, 0.0]
['beep', 0.0, 2632.9237381128955, 0.0, 0.0, 0.0, 0.0, -957.4146219986227, 0.0]
['beep', 0.0, 2632.6555171794316, 0.0, 0.0, 0.0, 0.0, -956.6770144315976, 0.0]
['beep', 0.0, 2632.230834034781, 0.0, 0.0, 0.0, 0.0, -958.3310435212903, 0.0]
['beep', 0.0, 2633.5942904465546, 0.0, 0.0, 0.0, 0.0, -961.2814737893908, 0.0]
['beep', 0.0, 2635.5388922141665, 0.0, 0.0, 0.0, 0.0, -961.3261772783014, 0.0]
['beep', 0.0, 2633.549586957644, 0.0, 0.0, 0.0, 0.0, -959.5603894663323, 0.0]
['beep', 0.0, 2631.940261356862, 0.0, 0.0, 0.0, 0.0, -958.5545609658434, 0.0]
['beep', 0.0, 2632.431999734879, 0.0, 0.0, 0.0, 0.0, -958.1298778211925, 0.0]
['beep', 0.0, 2631.940261356862, 0.0, 0.0, 0.0, 0.0, -958.6439679436646, 0.0]
['beep', 0.0, 2631.6273369344876, 0.0, 0.0, 0.0, 0.0, -958.5769127102986, 0.0]
['beep', 0.0, 2633.5719387020995, 0.0, 0.0, 0.0, 0.0, -956.9005318761507, 0.0]
['beep', 0.0, 2633.907214868929, 0.0, 0.0, 0.0, 0.0, -957.2358080429802, 0.0]
['beep', 0.0, 2633.5272352131888, 0.0, 0.0, 0.0, 0.0, -958.599264454754, 0.0]
['beep', 0.0, 2633.124903812993, 0.0, 0.0, 0.0, 0.0, -959.8956656331618, 0.0]
['beep', 0.0, 2633.2813660241804, 0.0, 0.0, 0.0, 0.0, -959.180409810592, 0.0]
['beep', 0.0, 2633.169607301904, 0.0, 0.0, 0.0, 0.0, -960.4991627334551, 0.0]
['beep', 0.0, 2633.169607301904, 0.0, 0.0, 0.0, 0.0, -960.4991627334551, 0.0]
['beep', 0.0, 2632.454351479334, 0.0, 0.0, 0.0, 0.0, -959.4262789996004, 0.0]
['beep', 0.0, 2632.789627646164, 0.0, 0.0, 0.0, 0.0, -958.8674853882177, 0.0]
['beep', 0.0, 2633.3707730020014, 0.0, 0.0, 0.0, 0.0, -959.5603894663323, 0.0]
['beep', 0.0, 2634.9800986027835, 0.0, 0.0, 0.0, 0.0, -961.7061569340417, 0.0]
['beep', 0.0, 2634.488360224767, 0.0, 0.0, 0.0, 0.0, -963.2707790459132, 0.0]
['beep', 0.0, 2633.6389939354654, 0.0, 0.0, 0.0, 0.0, -961.5943982117651, 0.0]
['beep', 0.0, 2633.6166421910098, 0.0, 0.0, 0.0, 0.0, -961.214418556025, 0.0]
['beep', 0.0, 2633.035496835172, 0.0, 0.0, 0.0, 0.0, -961.1026598337484, 0.0]
['beep', 0.0, 2633.6166421910098, 0.0, 0.0, 0.0, 0.0, -961.2367703004802, 0.0]
['beep', 0.0, 2634.5777672025883, 0.0, 0.0, 0.0, 0.0, -964.0754418463042, 0.0]
['beep', 0.0, 2635.2483195362474, 0.0, 0.0, 0.0, 0.0, -964.567180224321, 0.0]
['beep', 0.0, 2636.5670724591105, 0.0, 0.0, 0.0, 0.0, -964.85775290224, 0.0]
['beep', 0.0, 2635.8965201254514, 0.0, 0.0, 0.0, 0.0, -966.2882645473796, 0.0]
['beep', 0.0, 2635.6059474475323, 0.0, 0.0, 0.0, 0.0, -964.9471598800612, 0.0]
['beep', 0.0, 2635.9188718699065, 0.0, 0.0, 0.0, 0.0, -965.8412296582735, 0.0]
['beep', 0.0, 2636.164741058915, 0.0, 0.0, 0.0, 0.0, -964.4107180131339, 0.0]
['beep', 0.0, 2636.2094445478256, 0.0, 0.0, 0.0, 0.0, -963.4272412571004, 0.0]
['beep', 0.0, 2637.416438748412, 0.0, 0.0, 0.0, 0.0, -965.0589186023377, 0.0]
['beep', 0.0, 2636.5000172257446, 0.0, 0.0, 0.0, 0.0, -964.7459941799634, 0.0]
['beep', 0.0, 2637.349383515046, 0.0, 0.0, 0.0, 0.0, -963.7178139350193, 0.0]
['beep', 0.0, 2637.014107348217, 0.0, 0.0, 0.0, 0.0, -963.9413313795724, 0.0]
['beep', 0.0, 2639.316337027113, 0.0, 0.0, 0.0, 0.0, -965.9082848916394, 0.0]
['beep', 0.0, 2638.7575434157307, 0.0, 0.0, 0.0, 0.0, -965.9306366360947, 0.0]
['beep', 0.0, 2640.165703316415, 0.0, 0.0, 0.0, 0.0, -965.1483255801589, 0.0]
['beep', 0.0, 2640.880959138985, 0.0, 0.0, 0.0, 0.0, -964.3436627797679, 0.0]
['beep', 0.0, 2637.349383515046, 0.0, 0.0, 0.0, 0.0, -962.7566889234411, 0.0]
['beep', 0.0, 2637.908177126429, 0.0, 0.0, 0.0, 0.0, -962.4214127566115, 0.0]
['beep', 0.0, 2638.8022469046414, 0.0, 0.0, 0.0, 0.0, -963.5166482349216, 0.0]
['beep', 0.0, 2639.4727992383005, 0.0, 0.0, 0.0, 0.0, -963.7848691683853, 0.0]
['beep', 0.0, 2641.0150696057167, 0.0, 0.0, 0.0, 0.0, -965.4612500025332, 0.0]
['beep', 0.0, 2642.199712061848, 0.0, 0.0, 0.0, 0.0, -965.2153808135249, 0.0]
['beep', 0.0, 2642.199712061848, 0.0, 0.0, 0.0, 0.0, -966.6905959475752, 0.0]
['beep', 0.0, 2643.7866859181745, 0.0, 0.0, 0.0, 0.0, -965.3271395358014, 0.0]
['beep', 0.0, 2643.227892306792, 0.0, 0.0, 0.0, 0.0, -960.6556249446422, 0.0]
['beep', 0.0, 2644.546645229655, 0.0, 0.0, 0.0, 0.0, -962.1084883342372, 0.0]
['beep', 0.0, 2643.6525754514428, 0.0, 0.0, 0.0, 0.0, -961.5720464673099, 0.0]
['beep', 0.0, 2640.992717861261, 0.0, 0.0, 0.0, 0.0, -959.6944999330641, 0.0]
['beep', 0.0, 2639.606909705032, 0.0, 0.0, 0.0, 0.0, -957.794601654363, 0.0]
['beep', 0.0, 2637.8634736375184, 0.0, 0.0, 0.0, 0.0, -959.6050929552429, 0.0]
['beep', 0.0, 2638.042287593161, 0.0, 0.0, 0.0, 0.0, -963.0025581124495, 0.0]
['beep', 0.0, 2637.103514326038, 0.0, 0.0, 0.0, 0.0, -963.8295726572959, 0.0]
['beep', 0.0, 2637.5058457262335, 0.0, 0.0, 0.0, 0.0, -962.2873022898797, 0.0]
['beep', 0.0, 2637.7964184041525, 0.0, 0.0, 0.0, 0.0, -962.3990610121562, 0.0]
['beep', 0.0, 2637.707011426331, 0.0, 0.0, 0.0, 0.0, -961.6167499562205, 0.0]
['beep', 0.0, 2638.645784693454, 0.0, 0.0, 0.0, 0.0, -961.6614534451311, 0.0]
['beep', 0.0, 2637.103514326038, 0.0, 0.0, 0.0, 0.0, -961.1026598337484, 0.0]
['beep', 0.0, 2636.768238159208, 0.0, 0.0, 0.0, 0.0, -961.7955639118629, 0.0]
['beep', 0.0, 2637.3717352595017, 0.0, 0.0, 0.0, 0.0, -962.9131511346283, 0.0]
['beep', 0.0, 2638.265805037714, 0.0, 0.0, 0.0, 0.0, -964.053090101849, 0.0]
['beep', 0.0, 2637.975232359795, 0.0, 0.0, 0.0, 0.0, -961.728508678497, 0.0]
['beep', 0.0, 2636.745886414753, 0.0, 0.0, 0.0, 0.0, -960.9909011114719, 0.0]
['beep', 0.0, 2636.7905899036637, 0.0, 0.0, 0.0, 0.0, -962.1531918231478, 0.0]
['beep', 0.0, 2636.8799968814847, 0.0, 0.0, 0.0, 0.0, -960.4991627334551, 0.0]
['beep', 0.0, 2637.2376247927696, 0.0, 0.0, 0.0, 0.0, -963.1590203236366, 0.0]
['beep', 0.0, 2637.908177126429, 0.0, 0.0, 0.0, 0.0, -964.0977935907596, 0.0]
['beep', 0.0, 2638.8693021380072, 0.0, 0.0, 0.0, 0.0, -963.3825377681898, 0.0]
['beep', 0.0, 2638.1763980598926, 0.0, 0.0, 0.0, 0.0, -965.0812703467931, 0.0]
['beep', 0.0, 2638.064639337616, 0.0, 0.0, 0.0, 0.0, -964.276607546402, 0.0]
['beep', 0.0, 2638.5563777156326, 0.0, 0.0, 0.0, 0.0, -964.5895319687763, 0.0]
['beep', 0.0, 2637.416438748412, 0.0, 0.0, 0.0, 0.0, -963.6954621905641, 0.0]
['beep', 0.0, 2639.0481160936497, 0.0, 0.0, 0.0, 0.0, -963.8519244017511, 0.0]
['beep', 0.0, 2638.042287593161, 0.0, 0.0, 0.0, 0.0, -963.0919650902707, 0.0]
['beep', 0.0, 2635.784761403175, 0.0, 0.0, 0.0, 0.0, -963.2260755570026, 0.0]
['beep', 0.0, 2637.259976537225, 0.0, 0.0, 0.0, 0.0, -963.5166482349216, 0.0]
['beep', 0.0, 2637.1482178149486, 0.0, 0.0, 0.0, 0.0, -964.7683459244188, 0.0]
['beep', 0.0, 2637.327031770591, 0.0, 0.0, 0.0, 0.0, -966.020043613916, 0.0]
['beep', 0.0, 2639.2492817937473, 0.0, 0.0, 0.0, 0.0, -965.0589186023377, 0.0]
['beep', 0.0, 2638.422267248901, 0.0, 0.0, 0.0, 0.0, -964.3883662686785, 0.0]
['beep', 0.0, 2638.71283992682, 0.0, 0.0, 0.0, 0.0, -964.567180224321, 0.0]
['beep', 0.0, 2638.4893224822667, 0.0, 0.0, 0.0, 0.0, -963.8519244017511, 0.0]
['beep', 0.0, 2637.5281974706886, 0.0, 0.0, 0.0, 0.0, -963.9636831240277, 0.0]
['beep', 0.0, 2639.651613193943, 0.0, 0.0, 0.0, 0.0, -964.7459941799634, 0.0]
['beep', 0.0, 2641.1491800724484, 0.0, 0.0, 0.0, 0.0, -965.2377325579802, 0.0]
['beep', 0.0, 2641.99854636175, 0.0, 0.0, 0.0, 0.0, -966.6011889697539, 0.0]
['beep', 0.0, 2641.9538428728397, 0.0, 0.0, 0.0, 0.0, -967.2493895589578, 0.0]
['beep', 0.0, 2641.707973683831, 0.0, 0.0, 0.0, 0.0, -968.6128459707315, 0.0]
['beep', 0.0, 2642.222063806303, 0.0, 0.0, 0.0, 0.0, -965.9753401250053, 0.0]
['beep', 0.0, 2641.4397527503675, 0.0, 0.0, 0.0, 0.0, -962.8907993901729, 0.0]
['beep', 0.0, 2642.266767295214, 0.0, 0.0, 0.0, 0.0, -963.4495930015556, 0.0]
['beep', 0.0, 2641.909139383929, 0.0, 0.0, 0.0, 0.0, -963.5837034682875, 0.0]
['beep', 0.0, 2642.512636484222, 0.0, 0.0, 0.0, 0.0, -965.0589186023377, 0.0]
['beep', 0.0, 2642.4008777619456, 0.0, 0.0, 0.0, 0.0, -966.5117819919327, 0.0]
['beep', 0.0, 2643.898444640451, 0.0, 0.0, 0.0, 0.0, -965.7071191915417, 0.0]
['beep', 0.0, 2643.898444640451, 0.0, 0.0, 0.0, 0.0, -965.0812703467931, 0.0]
['beep', 0.0, 2643.4067062624345, 0.0, 0.0, 0.0, 0.0, -964.053090101849, 0.0]
['beep', 0.0, 2643.898444640451, 0.0, 0.0, 0.0, 0.0, -965.9753401250053, 0.0]
['beep', 0.0, 2644.4125347629233, 0.0, 0.0, 0.0, 0.0, -965.0589186023377, 0.0]
['beep', 0.0, 2645.194845818859, 0.0, 0.0, 0.0, 0.0, -964.8801046466953, 0.0]
['beep', 0.0, 2644.166665573915, 0.0, 0.0, 0.0, 0.0, -964.6118837132316, 0.0]
['beep', 0.0, 2641.99854636175, 0.0, 0.0, 0.0, 0.0, -961.95202612305, 0.0]
['beep', 0.0, 2642.870264395507, 0.0, 0.0, 0.0, 0.0, -961.4155842561227, 0.0]
['beep', 0.0, 2645.6865841968756, 0.0, 0.0, 0.0, 0.0, -963.4495930015556, 0.0]
['beep', 0.0, 2643.6749271958984, 0.0, 0.0, 0.0, 0.0, -964.0083866129384, 0.0]
['beep', 0.0, 2644.6807556963868, 0.0, 0.0, 0.0, 0.0, -963.8072209128405, 0.0]
['beep', 0.0, 2648.6593662094315, 0.0, 0.0, 0.0, 0.0, -963.0472616013601, 0.0]
['beep', 0.0, 2650.4698575103116, 0.0, 0.0, 0.0, 0.0, -963.0472616013601, 0.0]
['beep', 0.0, 2647.2735580532026, 0.0, 0.0, 0.0, 0.0, -961.9743778675054, 0.0]
['beep', 0.0, 2645.7536394302415, 0.0, 0.0, 0.0, 0.0, -963.114316834726, 0.0]
['beep', 0.0, 2647.1170958420153, 0.0, 0.0, 0.0, 0.0, -964.5224767354104, 0.0]
['beep', 0.0, 2647.6088342200323, 0.0, 0.0, 0.0, 0.0, -964.9695116245165, 0.0]
['beep', 0.0, 2649.2181598208144, 0.0, 0.0, 0.0, 0.0, -964.4330697575891, 0.0]
['beep', 0.0, 2649.1734563319037, 0.0, 0.0, 0.0, 0.0, -962.8684476457177, 0.0]
['beep', 0.0, 2648.5252557426998, 0.0, 0.0, 0.0, 0.0, -961.2814737893908, 0.0]
['beep', 0.0, 2648.4358487648788, 0.0, 0.0, 0.0, 0.0, -961.5273429783992, 0.0]
['beep', 0.0, 2651.4980377552556, 0.0, 0.0, 0.0, 0.0, -963.4495930015556, 0.0]
['beep', 0.0, 2652.5709214891103, 0.0, 0.0, 0.0, 0.0, -962.823744156807, 0.0]
['beep', 0.0, 2653.62145347851, 0.0, 0.0, 0.0, 0.0, -962.600226712254, 0.0]
['beep', 0.0, 2652.660328466932, 0.0, 0.0, 0.0, 0.0, -961.5273429783992, 0.0]
['beep', 0.0, 2652.012127877728, 0.0, 0.0, 0.0, 0.0, -960.4991627334551, 0.0]
['beep', 0.0, 2653.1520668449484, 0.0, 0.0, 0.0, 0.0, -960.3650522667233, 0.0]
['beep', 0.0, 2651.319223799613, 0.0, 0.0, 0.0, 0.0, -960.6109214557316, 0.0]
['beep', 0.0, 2649.3075667986354, 0.0, 0.0, 0.0, 0.0, -959.4933342329663, 0.0]
['beep', 0.0, 2652.7944389336635, 0.0, 0.0, 0.0, 0.0, -959.7839069108853, 0.0]
['beep', 0.0, 2654.1802470898924, 0.0, 0.0, 0.0, 0.0, -961.6614534451311, 0.0]
['beep', 0.0, 2653.576749989599, 0.0, 0.0, 0.0, 0.0, -963.0472616013601, 0.0]
['beep', 0.0, 2652.90619765594, 0.0, 0.0, 0.0, 0.0, -963.5613517238322, 0.0]
['beep', 0.0, 2651.8333139220854, 0.0, 0.0, 0.0, 0.0, -964.276607546402, 0.0]
['beep', 0.0, 2651.1180580995156, 0.0, 0.0, 0.0, 0.0, -963.9413313795724, 0.0]
['beep', 0.0, 2650.5369127436775, 0.0, 0.0, 0.0, 0.0, -963.1366685791813, 0.0]
['beep', 0.0, 2652.7944389336635, 0.0, 0.0, 0.0, 0.0, -962.2873022898797, 0.0]
['beep', 0.0, 2654.7613924457305, 0.0, 0.0, 0.0, 0.0, -963.0919650902707, 0.0]
['beep', 0.0, 2655.3425378015686, 0.0, 0.0, 0.0, 0.0, -964.7683459244188, 0.0]
['beep', 0.0, 2654.515523256722, 0.0, 0.0, 0.0, 0.0, -963.7848691683853, 0.0]
['beep', 0.0, 2655.029613379194, 0.0, 0.0, 0.0, 0.0, -963.7625174239299, 0.0]
['beep', 0.0, 2656.281311068691, 0.0, 0.0, 0.0, 0.0, -964.3883662686785, 0.0]
['beep', 0.0, 2655.588406990577, 0.0, 0.0, 0.0, 0.0, -965.1259738357037, 0.0]
['beep', 0.0, 2655.320186057113, 0.0, 0.0, 0.0, 0.0, -967.5623139813322, 0.0]
['beep', 0.0, 2657.0636221246273, 0.0, 0.0, 0.0, 0.0, -966.6011889697539, 0.0]
['beep', 0.0, 2658.4717820253113, 0.0, 0.0, 0.0, 0.0, -967.405851770145, 0.0]
['beep', 0.0, 2658.3153198141245, 0.0, 0.0, 0.0, 0.0, -967.8752384037065, 0.0]
['beep', 0.0, 2657.1083256135375, 0.0, 0.0, 0.0, 0.0, -965.2377325579802, 0.0]
['beep', 0.0, 2659.3435000590684, 0.0, 0.0, 0.0, 0.0, -964.4777732464997, 0.0]
['beep', 0.0, 2659.678776225898, 0.0, 0.0, 0.0, 0.0, -964.6565872021422, 0.0]
['beep', 0.0, 2657.868284925018, 0.0, 0.0, 0.0, 0.0, -964.4554215020445, 0.0]
['beep', 0.0, 2658.136505858482, 0.0, 0.0, 0.0, 0.0, -965.0589186023377, 0.0]
['beep', 0.0, 2657.421250035912, 0.0, 0.0, 0.0, 0.0, -966.7352994364858, 0.0]
['beep', 0.0, 2657.2424360802697, 0.0, 0.0, 0.0, 0.0, -967.9646453815277, 0.0]
['beep', 0.0, 2657.577712247099, 0.0, 0.0, 0.0, 0.0, -967.2046860700472, 0.0]
['beep', 0.0, 2658.9188169144177, 0.0, 0.0, 0.0, 0.0, -964.567180224321, 0.0]
['beep', 0.0, 2660.19286634837, 0.0, 0.0, 0.0, 0.0, -965.1930290690696, 0.0]
['beep', 0.0, 2659.09763087006, 0.0, 0.0, 0.0, 0.0, -965.5059534914438, 0.0]
['beep', 0.0, 2659.3435000590684, 0.0, 0.0, 0.0, 0.0, -965.4836017469886, 0.0]
['beep', 0.0, 2659.0082238922387, 0.0, 0.0, 0.0, 0.0, -965.1259738357037, 0.0]
['beep', 0.0, 2659.8575901815407, 0.0, 0.0, 0.0, 0.0, -965.9753401250053, 0.0]
['beep', 0.0, 2660.1481628594593, 0.0, 0.0, 0.0, 0.0, -967.1376308366813, 0.0]
['beep', 0.0, 2659.254093081247, 0.0, 0.0, 0.0, 0.0, -967.3835000256897, 0.0]
['beep', 0.0, 2659.835238437085, 0.0, 0.0, 0.0, 0.0, -966.2882645473796, 0.0]
['beep', 0.0, 2659.9246454149065, 0.0, 0.0, 0.0, 0.0, -967.3611482812344, 0.0]
['beep', 0.0, 2659.2987965701577, 0.0, 0.0, 0.0, 0.0, -967.8528866592511, 0.0]
['beep', 0.0, 2659.6340727369875, 0.0, 0.0, 0.0, 0.0, -968.1434593371702, 0.0]
['beep', 0.0, 2660.751659959753, 0.0, 0.0, 0.0, 0.0, -970.3562820382455, 0.0]
['beep', 0.0, 2659.7011279703534, 0.0, 0.0, 0.0, 0.0, -968.6351977151869, 0.0]
['beep', 0.0, 2659.164686103426, 0.0, 0.0, 0.0, 0.0, -967.4505552590556, 0.0]
['beep', 0.0, 2659.455258781345, 0.0, 0.0, 0.0, 0.0, -967.0705756033153, 0.0]
['beep', 0.0, 2661.3104535711354, 0.0, 0.0, 0.0, 0.0, -966.6011889697539, 0.0]
['beep', 0.0, 2661.0422326376715, 0.0, 0.0, 0.0, 0.0, -968.5010872484551, 0.0]
['beep', 0.0, 2660.7293082152974, 0.0, 0.0, 0.0, 0.0, -967.8305349147959, 0.0]
['beep', 0.0, 2660.036404137183, 0.0, 0.0, 0.0, 0.0, -967.472907003511, 0.0]
['beep', 0.0, 2660.505790770744, 0.0, 0.0, 0.0, 0.0, -968.4787355039997, 0.0]
['beep', 0.0, 2660.0811076260934, 0.0, 0.0, 0.0, 0.0, -966.7800029253964, 0.0]
['beep', 0.0, 2661.109287871038, 0.0, 0.0, 0.0, 0.0, -965.7518226804523, 0.0]
['beep', 0.0, 2662.38333730499, 0.0, 0.0, 0.0, 0.0, -966.0870988472818, 0.0]
['beep', 0.0, 2660.3046250706466, 0.0, 0.0, 0.0, 0.0, -966.3553197807455, 0.0]
['beep', 0.0, 2658.0694506251157, 0.0, 0.0, 0.0, 0.0, -967.2270378145025, 0.0]
['beep', 0.0, 2658.0918023695713, 0.0, 0.0, 0.0, 0.0, -967.4952587479662, 0.0]
['beep', 0.0, 2658.4270785364006, 0.0, 0.0, 0.0, 0.0, -968.1434593371702, 0.0]
['beep', 0.0, 2657.644767480465, 0.0, 0.0, 0.0, 0.0, -968.5234389929103, 0.0]
['beep', 0.0, 2658.9858721477835, 0.0, 0.0, 0.0, 0.0, -968.5234389929103, 0.0]
['beep', 0.0, 2658.6952994698645, 0.0, 0.0, 0.0, 0.0, -968.277569803902, 0.0]
['beep', 0.0, 2656.7730494467082, 0.0, 0.0, 0.0, 0.0, -968.4340320150891, 0.0]
['beep', 0.0, 2658.292968069669, 0.0, 0.0, 0.0, 0.0, -970.2668750604242, 0.0]
['beep', 0.0, 2658.7176512143196, 0.0, 0.0, 0.0, 0.0, -970.2668750604242, 0.0]
['beep', 0.0, 2658.9188169144177, 0.0, 0.0, 0.0, 0.0, -969.9986541269606, 0.0]
['beep', 0.0, 2658.583540747588, 0.0, 0.0, 0.0, 0.0, -969.7527849379522, 0.0]
['beep', 0.0, 2658.9188169144177, 0.0, 0.0, 0.0, 0.0, -968.5234389929103, 0.0]
['beep', 0.0, 2658.0694506251157, 0.0, 0.0, 0.0, 0.0, -967.4282035146003, 0.0]
['beep', 0.0, 2657.488305269278, 0.0, 0.0, 0.0, 0.0, -968.5904942262763, 0.0]
['beep', 0.0, 2657.9800436472947, 0.0, 0.0, 0.0, 0.0, -968.3669767817232, 0.0]
['beep', 0.0, 2659.4999622702558, 0.0, 0.0, 0.0, 0.0, -969.6410262156757, 0.0]
['beep', 0.0, 2660.394032048468, 0.0, 0.0, 0.0, 0.0, -969.7527849379522, 0.0]
['beep', 0.0, 2657.421250035912, 0.0, 0.0, 0.0, 0.0, -969.0598808598377, 0.0]
['beep', 0.0, 2654.8955029124622, 0.0, 0.0, 0.0, 0.0, -970.7809651828964, 0.0]
['beep', 0.0, 2654.8507994235515, 0.0, 0.0, 0.0, 0.0, -971.3397587942791, 0.0]
['beep', 0.0, 2656.3483663020575, 0.0, 0.0, 0.0, 0.0, -971.1609448386365, 0.0]
['beep', 0.0, 2657.9800436472947, 0.0, 0.0, 0.0, 0.0, -972.1220698502148, 0.0]
['beep', 0.0, 2655.7225174573086, 0.0, 0.0, 0.0, 0.0, -970.7139099495304, 0.0]
['beep', 0.0, 2656.884808168985, 0.0, 0.0, 0.0, 0.0, -972.9490843950612, 0.0]
['beep', 0.0, 2657.868284925018, 0.0, 0.0, 0.0, 0.0, -974.8042791848516, 0.0]
['beep', 0.0, 2658.4047267919454, 0.0, 0.0, 0.0, 0.0, -973.8655059177287, 0.0]
['beep', 0.0, 2657.644767480465, 0.0, 0.0, 0.0, 0.0, -975.5865902407874, 0.0]
['beep', 0.0, 2656.3930697909677, 0.0, 0.0, 0.0, 0.0, -973.9325611510947, 0.0]
['beep', 0.0, 2656.4154215354233, 0.0, 0.0, 0.0, 0.0, -972.434994272589, 0.0]
['beep', 0.0, 2656.482476768789, 0.0, 0.0, 0.0, 0.0, -973.5302297508991, 0.0]
['beep', 0.0, 2658.3153198141245, 0.0, 0.0, 0.0, 0.0, -973.5525814953544, 0.0]
['beep', 0.0, 2658.4270785364006, 0.0, 0.0, 0.0, 0.0, -973.5302297508991, 0.0]
['beep', 0.0, 2658.0247471362054, 0.0, 0.0, 0.0, 0.0, -972.8820291616952, 0.0]
['beep', 0.0, 2657.4436017803673, 0.0, 0.0, 0.0, 0.0, -974.401947784656, 0.0]
['beep', 0.0, 2655.6331104794876, 0.0, 0.0, 0.0, 0.0, -973.3737675397119, 0.0]
['beep', 0.0, 2654.8955029124622, 0.0, 0.0, 0.0, 0.0, -974.5137065069326, 0.0]
['beep', 0.0, 2656.482476768789, 0.0, 0.0, 0.0, 0.0, -974.6478169736645, 0.0]
['beep', 0.0, 2657.354194802546, 0.0, 0.0, 0.0, 0.0, -974.5807617402985, 0.0]
['beep', 0.0, 2657.5330087581883, 0.0, 0.0, 0.0, 0.0, -975.340721051779, 0.0]
['beep', 0.0, 2656.974215146806, 0.0, 0.0, 0.0, 0.0, -974.2901890623796, 0.0]
['beep', 0.0, 2656.3036628131467, 0.0, 0.0, 0.0, 0.0, -974.7372239514857, 0.0]
['beep', 0.0, 2657.1083256135375, 0.0, 0.0, 0.0, 0.0, -975.631293729698, 0.0]
['beep', 0.0, 2657.421250035912, 0.0, 0.0, 0.0, 0.0, -975.2513140739578, 0.0]
['beep', 0.0, 2657.197732591359, 0.0, 0.0, 0.0, 0.0, -975.854811174251, 0.0]
['beep', 0.0, 2659.4776105258, 0.0, 0.0, 0.0, 0.0, -975.1842588405918, 0.0]
['beep', 0.0, 2662.472744282811, 0.0, 0.0, 0.0, 0.0, -976.7265292080081, 0.0]
['beep', 0.0, 2663.3444623165683, 0.0, 0.0, 0.0, 0.0, -975.1172036072259, 0.0]
['beep', 0.0, 2663.2997588276576, 0.0, 0.0, 0.0, 0.0, -974.469003018022, 0.0]
['beep', 0.0, 2662.8527239385517, 0.0, 0.0, 0.0, 0.0, -975.6089419852427, 0.0]
['beep', 0.0, 2660.4387355373783, 0.0, 0.0, 0.0, 0.0, -975.4971832629661, 0.0]
['beep', 0.0, 2658.494133769767, 0.0, 0.0, 0.0, 0.0, -975.3183693073237, 0.0]
['beep', 0.0, 2657.801229691652, 0.0, 0.0, 0.0, 0.0, -976.3689012967232, 0.0]
['beep', 0.0, 2657.3094913136356, 0.0, 0.0, 0.0, 0.0, -975.2289623295025, 0.0]
['beep', 0.0, 2654.582578490088, 0.0, 0.0, 0.0, 0.0, -975.7877559408852, 0.0]
['beep', 0.0, 2656.0130901352277, 0.0, 0.0, 0.0, 0.0, -976.3465495522678, 0.0]
['beep', 0.0, 2655.677813968398, 0.0, 0.0, 0.0, 0.0, -975.5642384963321, 0.0]
['beep', 0.0, 2655.677813968398, 0.0, 0.0, 0.0, 0.0, -975.8101076853404, 0.0]
['beep', 0.0, 2656.3930697909677, 0.0, 0.0, 0.0, 0.0, -976.0783286188041, 0.0]
['beep', 0.0, 2657.935340158384, 0.0, 0.0, 0.0, 0.0, -976.5700669968209, 0.0]
['beep', 0.0, 2657.3765465470015, 0.0, 0.0, 0.0, 0.0, -976.4583082745444, 0.0]
['beep', 0.0, 2656.2142558353253, 0.0, 0.0, 0.0, 0.0, -975.0725001183152, 0.0]
['beep', 0.0, 2654.1578953454373, 0.0, 0.0, 0.0, 0.0, -976.3912530411784, 0.0]
['beep', 0.0, 2655.588406990577, 0.0, 0.0, 0.0, 0.0, -975.9442181520723, 0.0]
['beep', 0.0, 2655.4095930349345, 0.0, 0.0, 0.0, 0.0, -975.9442181520723, 0.0]
['beep', 0.0, 2654.359061045535, 0.0, 0.0, 0.0, 0.0, -975.7430524519746, 0.0]
['beep', 0.0, 2654.1802470898924, 0.0, 0.0, 0.0, 0.0, -976.1900873410807, 0.0]
['beep', 0.0, 2653.576749989599, 0.0, 0.0, 0.0, 0.0, -976.7041774635527, 0.0]
['beep', 0.0, 2653.330880800591, 0.0, 0.0, 0.0, 0.0, -976.7935844413739, 0.0]
['beep', 0.0, 2654.4484680233563, 0.0, 0.0, 0.0, 0.0, -976.3912530411784, 0.0]
['beep', 0.0, 2654.962558145828, 0.0, 0.0, 0.0, 0.0, -976.0559768743489, 0.0]
['beep', 0.0, 2655.297834312658, 0.0, 0.0, 0.0, 0.0, -976.2794943189019, 0.0]
['beep', 0.0, 2654.9178546569174, 0.0, 0.0, 0.0, 0.0, -976.5477152523656, 0.0]
['beep', 0.0, 2655.3425378015686, 0.0, 0.0, 0.0, 0.0, -978.7605379534409, 0.0]
['beep', 0.0, 2655.7672209462194, 0.0, 0.0, 0.0, 0.0, -978.7381862089857, 0.0]
['beep', 0.0, 2656.236607579781, 0.0, 0.0, 0.0, 0.0, -977.307674563846, 0.0]
['beep', 0.0, 2656.4154215354233, 0.0, 0.0, 0.0, 0.0, -978.0005786419605, 0.0]
['beep', 0.0, 2654.38141278999, 0.0, 0.0, 0.0, 0.0, -980.1016426207594, 0.0]
['beep', 0.0, 2653.5320465006885, 0.0, 0.0, 0.0, 0.0, -982.4485757885666, 0.0]
['beep', 0.0, 2654.1131918565266, 0.0, 0.0, 0.0, 0.0, -980.3475118097678, 0.0]
['beep', 0.0, 2654.739040701275, 0.0, 0.0, 0.0, 0.0, -980.436918787589, 0.0]
['beep', 0.0, 2654.515523256722, 0.0, 0.0, 0.0, 0.0, -979.1852210980918, 0.0]
['beep', 0.0, 2655.007261634739, 0.0, 0.0, 0.0, 0.0, -976.7041774635527, 0.0]
['beep', 0.0, 2655.9236831574062, 0.0, 0.0, 0.0, 0.0, -978.0452821308711, 0.0]
['beep', 0.0, 2655.6331104794876, 0.0, 0.0, 0.0, 0.0, -978.2464478309689, 0.0]
['beep', 0.0, 2655.297834312658, 0.0, 0.0, 0.0, 0.0, -979.2969798203684, 0.0]
['beep', 0.0, 2655.454296523845, 0.0, 0.0, 0.0, 0.0, -978.6487792311644, 0.0]
['beep', 0.0, 2655.1413721014706, 0.0, 0.0, 0.0, 0.0, -978.5817239977985, 0.0]
['beep', 0.0, 2654.873151168007, 0.0, 0.0, 0.0, 0.0, -978.469965275522, 0.0]
['beep', 0.0, 2654.00143313425, 0.0, 0.0, 0.0, 0.0, -978.5146687644326, 0.0]
['beep', 0.0, 2654.515523256722, 0.0, 0.0, 0.0, 0.0, -980.0792908763041, 0.0]
['beep', 0.0, 2653.9567296453392, 0.0, 0.0, 0.0, 0.0, -980.14634610967, 0.0]
['beep', 0.0, 2652.8167906781187, 0.0, 0.0, 0.0, 0.0, -978.8052414423515, 0.0]
['beep', 0.0, 2653.062659867127, 0.0, 0.0, 0.0, 0.0, -978.984055397994, 0.0]
['beep', 0.0, 2652.1685900889147, 0.0, 0.0, 0.0, 0.0, -978.0229303864159, 0.0]
['beep', 0.0, 2653.8896744119734, 0.0, 0.0, 0.0, 0.0, -979.6993112205639, 0.0]
['beep', 0.0, 2653.66615696742, 0.0, 0.0, 0.0, 0.0, -981.3309885658012, 0.0]
['beep', 0.0, 2652.2356453222806, 0.0, 0.0, 0.0, 0.0, -979.3640350537343, 0.0]
['beep', 0.0, 2652.9285494003952, 0.0, 0.0, 0.0, 0.0, -979.3640350537343, 0.0]
['beep', 0.0, 2653.0179563782167, 0.0, 0.0, 0.0, 0.0, -980.5933809987762, 0.0]
['beep', 0.0, 2655.7001657128535, 0.0, 0.0, 0.0, 0.0, -980.2804565764019, 0.0]
['beep', 0.0, 2653.3755842895016, 0.0, 0.0, 0.0, 0.0, -977.888819919684, 0.0]
['beep', 0.0, 2652.414459277923, 0.0, 0.0, 0.0, 0.0, -977.7100059640416, 0.0]
['beep', 0.0, 2652.5932732335655, 0.0, 0.0, 0.0, 0.0, -980.14634610967, 0.0]
['beep', 0.0, 2652.7944389336635, 0.0, 0.0, 0.0, 0.0, -980.8392501877845, 0.0]
['beep', 0.0, 2652.2356453222806, 0.0, 0.0, 0.0, 0.0, -981.1298228657035, 0.0]
['beep', 0.0, 2652.2356453222806, 0.0, 0.0, 0.0, 0.0, -980.3698635542231, 0.0]
['beep', 0.0, 2654.359061045535, 0.0, 0.0, 0.0, 0.0, -979.8334216872958, 0.0]
['beep', 0.0, 2653.554398245144, 0.0, 0.0, 0.0, 0.0, -980.0569391318488, 0.0]
['beep', 0.0, 2652.749735444753, 0.0, 0.0, 0.0, 0.0, -981.8674304327286, 0.0]
['beep', 0.0, 2652.0791831110937, 0.0, 0.0, 0.0, 0.0, -978.7158344645303, 0.0]
['beep', 0.0, 2652.5262180001996, 0.0, 0.0, 0.0, 0.0, -978.4476135310666, 0.0]
['beep', 0.0, 2652.772087189208, 0.0, 0.0, 0.0, 0.0, -980.3251600653125, 0.0]
['beep', 0.0, 2653.129715100493, 0.0, 0.0, 0.0, 0.0, -979.6322559871979, 0.0]
['beep', 0.0, 2651.81096217763, 0.0, 0.0, 0.0, 0.0, -980.0792908763041, 0.0]
['beep', 0.0, 2652.302700555647, 0.0, 0.0, 0.0, 0.0, -979.1852210980918, 0.0]
['beep', 0.0, 2653.1073633560377, 0.0, 0.0, 0.0, 0.0, -979.6099042427427, 0.0]
['beep', 0.0, 2652.8838459114845, 0.0, 0.0, 0.0, 0.0, -979.6546077316533, 0.0]
['beep', 0.0, 2652.2356453222806, 0.0, 0.0, 0.0, 0.0, -978.0452821308711, 0.0]
['beep', 0.0, 2654.4037645344456, 0.0, 0.0, 0.0, 0.0, -978.4923170199772, 0.0]
['beep', 0.0, 2654.068488367616, 0.0, 0.0, 0.0, 0.0, -980.9957123989717, 0.0]
['beep', 0.0, 2652.9509011448504, 0.0, 0.0, 0.0, 0.0, -982.0685961328264, 0.0]
['beep', 0.0, 2652.1685900889147, 0.0, 0.0, 0.0, 0.0, -979.3863867981896, 0.0]
['beep', 0.0, 2651.3415755440683, 0.0, 0.0, 0.0, 0.0, -978.2017443420583, 0.0]
['beep', 0.0, 2650.2016365768477, 0.0, 0.0, 0.0, 0.0, -979.05111063136, 0.0]
['beep', 0.0, 2650.9839476327834, 0.0, 0.0, 0.0, 0.0, -979.1405176091812, 0.0]
['beep', 0.0, 2649.8663604100184, 0.0, 0.0, 0.0, 0.0, -979.4310902871002, 0.0]
['beep', 0.0, 2650.2016365768477, 0.0, 0.0, 0.0, 0.0, -980.503974020955, 0.0]
['beep', 0.0, 2648.9499388873505, 0.0, 0.0, 0.0, 0.0, -978.2464478309689, 0.0]
['beep', 0.0, 2650.4922092547667, 0.0, 0.0, 0.0, 0.0, -978.4476135310666, 0.0]
['beep', 0.0, 2650.5369127436775, 0.0, 0.0, 0.0, 0.0, -979.0958141202706, 0.0]
['beep', 0.0, 2650.3133952991243, 0.0, 0.0, 0.0, 0.0, -979.05111063136, 0.0]
['beep', 0.0, 2651.319223799613, 0.0, 0.0, 0.0, 0.0, -978.8946484201728, 0.0]
['beep', 0.0, 2649.9781191322945, 0.0, 0.0, 0.0, 0.0, -977.7547094529522, 0.0]
['beep', 0.0, 2649.2852150541803, 0.0, 0.0, 0.0, 0.0, -977.2629710749354, 0.0]
['beep', 0.0, 2651.2521685662473, 0.0, 0.0, 0.0, 0.0, -977.9782268975052, 0.0]
['beep', 0.0, 2651.073354610605, 0.0, 0.0, 0.0, 0.0, -978.984055397994, 0.0]
['beep', 0.0, 2651.2521685662473, 0.0, 0.0, 0.0, 0.0, -977.9111716641393, 0.0]
['beep', 0.0, 2651.2074650773366, 0.0, 0.0, 0.0, 0.0, -977.7994129418628, 0.0]
['beep', 0.0, 2651.5203894997107, 0.0, 0.0, 0.0, 0.0, -979.4981455204661, 0.0]
['beep', 0.0, 2650.156933087937, 0.0, 0.0, 0.0, 0.0, -978.4476135310666, 0.0]
['beep', 0.0, 2649.754601687742, 0.0, 0.0, 0.0, 0.0, -978.7605379534409, 0.0]
['beep', 0.0, 2651.7662586887195, 0.0, 0.0, 0.0, 0.0, -980.9957123989717, 0.0]
['beep', 0.0, 2653.5096947562333, 0.0, 0.0, 0.0, 0.0, -980.660436232142, 0.0]
['beep', 0.0, 2653.3979360339567, 0.0, 0.0, 0.0, 0.0, -979.274628075913, 0.0]
['beep', 0.0, 2653.8002674341524, 0.0, 0.0, 0.0, 0.0, -979.05111063136, 0.0]
['beep', 0.0, 2652.660328466932, 0.0, 0.0, 0.0, 0.0, -977.4194332861225, 0.0]
['beep', 0.0, 2651.654499966443, 0.0, 0.0, 0.0, 0.0, -978.4923170199772, 0.0]
['beep', 0.0, 2651.609796477532, 0.0, 0.0, 0.0, 0.0, -979.3863867981896, 0.0]
['beep', 0.0, 2650.5369127436775, 0.0, 0.0, 0.0, 0.0, -978.4252617866114, 0.0]
['beep', 0.0, 2651.1180580995156, 0.0, 0.0, 0.0, 0.0, -979.1181658647258, 0.0]
['beep', 0.0, 2650.6263197214985, 0.0, 0.0, 0.0, 0.0, -979.05111063136, 0.0]
['beep', 0.0, 2651.229816821792, 0.0, 0.0, 0.0, 0.0, -980.503974020955, 0.0]
['beep', 0.0, 2652.4591627668337, 0.0, 0.0, 0.0, 0.0, -980.6157327432314, 0.0]
['beep', 0.0, 2652.1909418333703, 0.0, 0.0, 0.0, 0.0, -979.3863867981896, 0.0]
['beep', 0.0, 2651.8556656665405, 0.0, 0.0, 0.0, 0.0, -978.5593722533432, 0.0]
['beep', 0.0, 2650.447505765856, 0.0, 0.0, 0.0, 0.0, -978.4923170199772, 0.0]
['beep', 0.0, 2651.453334266345, 0.0, 0.0, 0.0, 0.0, -980.5710292543208, 0.0]
['beep', 0.0, 2651.4756860108005, 0.0, 0.0, 0.0, 0.0, -981.8674304327286, 0.0]
['beep', 0.0, 2651.09570635506, 0.0, 0.0, 0.0, 0.0, -982.403872299656, 0.0]
['beep', 0.0, 2651.453334266345, 0.0, 0.0, 0.0, 0.0, -982.4262240441113, 0.0]
['beep', 0.0, 2650.4922092547667, 0.0, 0.0, 0.0, 0.0, -983.1638316111364, 0.0]
['beep', 0.0, 2649.061697609627, 0.0, 0.0, 0.0, 0.0, -983.2979420778684, 0.0]
['beep', 0.0, 2649.396973776457, 0.0, 0.0, 0.0, 0.0, -983.0520728888599, 0.0]
['beep', 0.0, 2649.2405115652696, 0.0, 0.0, 0.0, 0.0, -983.4544042890554, 0.0]
['beep', 0.0, 2648.391145275968, 0.0, 0.0, 0.0, 0.0, -981.6662647326309, 0.0]
['beep', 0.0, 2650.067526110116, 0.0, 0.0, 0.0, 0.0, -982.113299621737, 0.0]
['beep', 0.0, 2650.3357470435794, 0.0, 0.0, 0.0, 0.0, -982.8062036998515, 0.0]
['beep', 0.0, 2650.089877854571, 0.0, 0.0, 0.0, 0.0, -982.2474100884689, 0.0]
['beep', 0.0, 2649.6651947099203, 0.0, 0.0, 0.0, 0.0, -982.0462443883711, 0.0]
['beep', 0.0, 2648.9946423762613, 0.0, 0.0, 0.0, 0.0, -981.6886164770862, 0.0]
['beep', 0.0, 2649.2181598208144, 0.0, 0.0, 0.0, 0.0, -980.6827879765974, 0.0]
['beep', 0.0, 2649.195808076359, 0.0, 0.0, 0.0, 0.0, -981.1745263546142, 0.0]
['beep', 0.0, 2649.0169941207164, 0.0, 0.0, 0.0, 0.0, -982.5379827663878, 0.0]
['beep', 0.0, 2648.9499388873505, 0.0, 0.0, 0.0, 0.0, -981.6662647326309, 0.0]
['beep', 0.0, 2649.195808076359, 0.0, 0.0, 0.0, 0.0, -981.5992094992649, 0.0]
['beep', 0.0, 2648.9946423762613, 0.0, 0.0, 0.0, 0.0, -981.5545060103543, 0.0]
['beep', 0.0, 2646.938281886373, 0.0, 0.0, 0.0, 0.0, -981.0627676323376, 0.0]
['beep', 0.0, 2647.1841510753816, 0.0, 0.0, 0.0, 0.0, -980.9286571656057, 0.0]
['beep', 0.0, 2645.172494074404, 0.0, 0.0, 0.0, 0.0, -980.3922152986784, 0.0]
['beep', 0.0, 2649.754601687742, 0.0, 0.0, 0.0, 0.0, -980.2804565764019, 0.0]
['beep', 0.0, 2655.297834312658, 0.0, 0.0, 0.0, 0.0, -979.8334216872958, 0.0]
['beep', 0.0, 2653.5991017340543, 0.0, 0.0, 0.0, 0.0, -979.6546077316533, 0.0]
['beep', 0.0, 2651.2074650773366, 0.0, 0.0, 0.0, 0.0, -979.2522763314578, 0.0]
['beep', 0.0, 2651.162761588426, 0.0, 0.0, 0.0, 0.0, -978.4252617866114, 0.0]
['beep', 0.0, 2651.9003691554512, 0.0, 0.0, 0.0, 0.0, -980.7945466988739, 0.0]
['beep', 0.0, 2651.319223799613, 0.0, 0.0, 0.0, 0.0, -981.9344856660946, 0.0]
['beep', 0.0, 2650.7604301882307, 0.0, 0.0, 0.0, 0.0, -981.1298228657035, 0.0]
['beep', 0.0, 2651.229816821792, 0.0, 0.0, 0.0, 0.0, -982.6720932331197, 0.0]
['beep', 0.0, 2650.805133677141, 0.0, 0.0, 0.0, 0.0, -983.275590333413, 0.0]
['beep', 0.0, 2650.1122295990267, 0.0, 0.0, 0.0, 0.0, -981.8674304327286, 0.0]
['beep', 0.0, 2648.815828420619, 0.0, 0.0, 0.0, 0.0, -982.4262240441113, 0.0]
['beep', 0.0, 2651.09570635506, 0.0, 0.0, 0.0, 0.0, -981.6662647326309, 0.0]
['beep', 0.0, 2651.4756860108005, 0.0, 0.0, 0.0, 0.0, -982.8285554443069, 0.0]
['beep', 0.0, 2651.453334266345, 0.0, 0.0, 0.0, 0.0, -983.6779217336085, 0.0]
['beep', 0.0, 2650.8274854215965, 0.0, 0.0, 0.0, 0.0, -983.9684944115276, 0.0]
['beep', 0.0, 2650.6039679770433, 0.0, 0.0, 0.0, 0.0, -982.6050379997538, 0.0]
['beep', 0.0, 2649.2181598208144, 0.0, 0.0, 0.0, 0.0, -981.9344856660946, 0.0]
['beep', 0.0, 2649.2628633097247, 0.0, 0.0, 0.0, 0.0, -982.4932792774772, 0.0]
['beep', 0.0, 2649.776953432197, 0.0, 0.0, 0.0, 0.0, -981.4427472880778, 0.0]
['beep', 0.0, 2650.4922092547667, 0.0, 0.0, 0.0, 0.0, -981.6439129881755, 0.0]
['beep', 0.0, 2649.8216569211077, 0.0, 0.0, 0.0, 0.0, -982.627389744209, 0.0]
['beep', 0.0, 2651.7886104331747, 0.0, 0.0, 0.0, 0.0, -982.627389744209, 0.0]
['beep', 0.0, 2654.873151168007, 0.0, 0.0, 0.0, 0.0, -982.113299621737, 0.0]
['beep', 0.0, 2655.901331412951, 0.0, 0.0, 0.0, 0.0, -981.7109682215415, 0.0]
['beep', 0.0, 2656.3930697909677, 0.0, 0.0, 0.0, 0.0, -981.7780234549074, 0.0]
['beep', 0.0, 2656.974215146806, 0.0, 0.0, 0.0, 0.0, -981.8450786882734, 0.0]
['beep', 0.0, 2655.8342761795852, 0.0, 0.0, 0.0, 0.0, -982.5603345108432, 0.0]
['beep', 0.0, 2653.3755842895016, 0.0, 0.0, 0.0, 0.0, -981.6886164770862, 0.0]
['beep', 0.0, 2651.5427412441663, 0.0, 0.0, 0.0, 0.0, -982.0462443883711, 0.0]
['beep', 0.0, 2650.447505765856, 0.0, 0.0, 0.0, 0.0, -984.1249566227146, 0.0]
['beep', 0.0, 2649.195808076359, 0.0, 0.0, 0.0, 0.0, -982.985017655494, 0.0]
['beep', 0.0, 2649.8887121544735, 0.0, 0.0, 0.0, 0.0, -981.0404158878823, 0.0]
['beep', 0.0, 2651.09570635506, 0.0, 0.0, 0.0, 0.0, -980.9063054211505, 0.0]
['beep', 0.0, 2650.1122295990267, 0.0, 0.0, 0.0, 0.0, -980.7498432099633, 0.0]
['beep', 0.0, 2650.3357470435794, 0.0, 0.0, 0.0, 0.0, -982.0462443883711, 0.0]
['beep', 0.0, 2650.9839476327834, 0.0, 0.0, 0.0, 0.0, -982.113299621737, 0.0]
['beep', 0.0, 2651.676851710898, 0.0, 0.0, 0.0, 0.0, -982.2921135773795, 0.0]
['beep', 0.0, 2651.81096217763, 0.0, 0.0, 0.0, 0.0, -982.2921135773795, 0.0]
['beep', 0.0, 2651.319223799613, 0.0, 0.0, 0.0, 0.0, -983.1638316111364, 0.0]
['beep', 0.0, 2650.6039679770433, 0.0, 0.0, 0.0, 0.0, -981.7780234549074, 0.0]
['beep', 0.0, 2650.291043554669, 0.0, 0.0, 0.0, 0.0, -980.3698635542231, 0.0]
['beep', 0.0, 2650.6933749548643, 0.0, 0.0, 0.0, 0.0, -980.8168984433293, 0.0]
['beep', 0.0, 2650.6933749548643, 0.0, 0.0, 0.0, 0.0, -983.4544042890554, 0.0]
['beep', 0.0, 2651.1180580995156, 0.0, 0.0, 0.0, 0.0, -981.9121339216392, 0.0]
['beep', 0.0, 2651.162761588426, 0.0, 0.0, 0.0, 0.0, -980.503974020955, 0.0]
['beep', 0.0, 2650.0228226212053, 0.0, 0.0, 0.0, 0.0, -981.2192298435248, 0.0]
['beep', 0.0, 2651.028651121694, 0.0, 0.0, 0.0, 0.0, -981.9568374105498, 0.0]
['beep', 0.0, 2650.1792848323926, 0.0, 0.0, 0.0, 0.0, -982.0462443883711, 0.0]
['beep', 0.0, 2649.4640290098228, 0.0, 0.0, 0.0, 0.0, -982.7167967220303, 0.0]
['beep', 0.0, 2649.8887121544735, 0.0, 0.0, 0.0, 0.0, -982.8285554443069, 0.0]
['beep', 0.0, 2650.2686918102136, 0.0, 0.0, 0.0, 0.0, -983.4544042890554, 0.0]
['beep', 0.0, 2651.3415755440683, 0.0, 0.0, 0.0, 0.0, -984.0131979004382, 0.0]
['beep', 0.0, 2649.8663604100184, 0.0, 0.0, 0.0, 0.0, -983.0967763777705, 0.0]
['beep', 0.0, 2649.9781191322945, 0.0, 0.0, 0.0, 0.0, -984.661398489642, 0.0]
['beep', 0.0, 2649.642842965465, 0.0, 0.0, 0.0, 0.0, -984.5049362784549, 0.0]
['beep', 0.0, 2649.732249943286, 0.0, 0.0, 0.0, 0.0, -984.5049362784549, 0.0]
['beep', 0.0, 2651.073354610605, 0.0, 0.0, 0.0, 0.0, -987.276552590913, 0.0]
['beep', 0.0, 2651.7662586887195, 0.0, 0.0, 0.0, 0.0, -986.695407235075, 0.0]
['beep', 0.0, 2649.687546454376, 0.0, 0.0, 0.0, 0.0, -983.9908461559828, 0.0]
['beep', 0.0, 2649.9334156433843, 0.0, 0.0, 0.0, 0.0, -983.0744246333152, 0.0]
['beep', 0.0, 2651.4309825218897, 0.0, 0.0, 0.0, 0.0, -984.2367153449912, 0.0]
['beep', 0.0, 2651.2745203107024, 0.0, 0.0, 0.0, 0.0, -986.0025031569604, 0.0]
['beep', 0.0, 2649.0169941207164, 0.0, 0.0, 0.0, 0.0, -986.0248549014158, 0.0]
['beep', 0.0, 2649.486380754278, 0.0, 0.0, 0.0, 0.0, -984.728453723008, 0.0]
['beep', 0.0, 2650.648671465954, 0.0, 0.0, 0.0, 0.0, -985.3990060566672, 0.0]
['beep', 0.0, 2650.782781932686, 0.0, 0.0, 0.0, 0.0, -985.466061290033, 0.0]
['beep', 0.0, 2650.8274854215965, 0.0, 0.0, 0.0, 0.0, -984.080253133804, 0.0]
['beep', 0.0, 2650.5592644881326, 0.0, 0.0, 0.0, 0.0, -984.4602327895443, 0.0]
['beep', 0.0, 2651.3415755440683, 0.0, 0.0, 0.0, 0.0, -984.6166950007314, 0.0]
['beep', 0.0, 2650.671023210409, 0.0, 0.0, 0.0, 0.0, -983.9014391781616, 0.0]
['beep', 0.0, 2650.2016365768477, 0.0, 0.0, 0.0, 0.0, -985.1307851232035, 0.0]
['beep', 0.0, 2648.9946423762613, 0.0, 0.0, 0.0, 0.0, -984.951971167561, 0.0]
['beep', 0.0, 2649.329918543091, 0.0, 0.0, 0.0, 0.0, -984.6390467451868, 0.0]
['beep', 0.0, 2650.2239883213033, 0.0, 0.0, 0.0, 0.0, -984.2367153449912, 0.0]
['beep', 0.0, 2650.045174365661, 0.0, 0.0, 0.0, 0.0, -983.7226252225191, 0.0]
['beep', 0.0, 2650.045174365661, 0.0, 0.0, 0.0, 0.0, -985.8683926902286, 0.0]
['beep', 0.0, 2650.581616232588, 0.0, 0.0, 0.0, 0.0, -986.0248549014158, 0.0]
['beep', 0.0, 2651.09570635506, 0.0, 0.0, 0.0, 0.0, -985.7342822234967, 0.0]
['beep', 0.0, 2650.71572669932, 0.0, 0.0, 0.0, 0.0, -985.0860816342929, 0.0]
['beep', 0.0, 2651.229816821792, 0.0, 0.0, 0.0, 0.0, -984.6166950007314, 0.0]
['beep', 0.0, 2650.9839476327834, 0.0, 0.0, 0.0, 0.0, -984.7508054674632, 0.0]
['beep', 0.0, 2651.7886104331747, 0.0, 0.0, 0.0, 0.0, -985.7119304790415, 0.0]
['beep', 0.0, 2651.8780174109957, 0.0, 0.0, 0.0, 0.0, -986.4718897905219, 0.0]
['beep', 0.0, 2651.8333139220854, 0.0, 0.0, 0.0, 0.0, -986.4718897905219, 0.0]
['beep', 0.0, 2652.2132935778254, 0.0, 0.0, 0.0, 0.0, -985.1754886121141, 0.0]
['beep', 0.0, 2651.676851710898, 0.0, 0.0, 0.0, 0.0, -985.0190264009269, 0.0]
['beep', 0.0, 2651.028651121694, 0.0, 0.0, 0.0, 0.0, -985.2872473343906, 0.0]
['beep', 0.0, 2651.1180580995156, 0.0, 0.0, 0.0, 0.0, -986.2930758348795, 0.0]
['beep', 0.0, 2651.5650929886215, 0.0, 0.0, 0.0, 0.0, -988.4835467914995, 0.0]
['beep', 0.0, 2649.709898198831, 0.0, 0.0, 0.0, 0.0, -986.6730554906196, 0.0]
['beep', 0.0, 2649.2628633097247, 0.0, 0.0, 0.0, 0.0, -985.4437095455778, 0.0]
['beep', 0.0, 2649.8216569211077, 0.0, 0.0, 0.0, 0.0, -985.1084333787481, 0.0]
['beep', 0.0, 2651.453334266345, 0.0, 0.0, 0.0, 0.0, -984.3484740672677, 0.0]
['beep', 0.0, 2652.1462383444596, 0.0, 0.0, 0.0, 0.0, -985.309599078846, 0.0]
['beep', 0.0, 2651.81096217763, 0.0, 0.0, 0.0, 0.0, -985.1084333787481, 0.0]
['beep', 0.0, 2650.8945406549624, 0.0, 0.0, 0.0, 0.0, -986.0025031569604, 0.0]
['beep', 0.0, 2650.872188910507, 0.0, 0.0, 0.0, 0.0, -986.8742211907174, 0.0]
['beep', 0.0, 2651.162761588426, 0.0, 0.0, 0.0, 0.0, -987.6788839911085, 0.0]
['beep', 0.0, 2649.8216569211077, 0.0, 0.0, 0.0, 0.0, -988.1035671357594, 0.0]
['beep', 0.0, 2650.3133952991243, 0.0, 0.0, 0.0, 0.0, -988.2153258580358, 0.0]
['beep', 0.0, 2650.425154021401, 0.0, 0.0, 0.0, 0.0, -987.8576979467509, 0.0]
['beep', 0.0, 2650.4922092547667, 0.0, 0.0, 0.0, 0.0, -987.7459392244745, 0.0]
['beep', 0.0, 2651.1180580995156, 0.0, 0.0, 0.0, 0.0, -987.2318491020023, 0.0]
['beep', 0.0, 2650.6263197214985, 0.0, 0.0, 0.0, 0.0, -986.1813171126029, 0.0]
['beep', 0.0, 2650.447505765856, 0.0, 0.0, 0.0, 0.0, -987.4106630576448, 0.0]
['beep', 0.0, 2651.319223799613, 0.0, 0.0, 0.0, 0.0, -989.2211543585247, 0.0]
['beep', 0.0, 2650.5592644881326, 0.0, 0.0, 0.0, 0.0, -989.3776165697118, 0.0]
['beep', 0.0, 2650.5369127436775, 0.0, 0.0, 0.0, 0.0, -988.9976369139716, 0.0]
['beep', 0.0, 2650.045174365661, 0.0, 0.0, 0.0, 0.0, -989.1093956362481, 0.0]
['beep', 0.0, 2649.754601687742, 0.0, 0.0, 0.0, 0.0, -990.7634247259408, 0.0]
['beep', 0.0, 2651.4756860108005, 0.0, 0.0, 0.0, 0.0, -990.919886937128, 0.0]
['beep', 0.0, 2650.939244143873, 0.0, 0.0, 0.0, 0.0, -990.5399072813877, 0.0]
['beep', 0.0, 2650.71572669932, 0.0, 0.0, 0.0, 0.0, -989.4446718030778, 0.0]
['beep', 0.0, 2651.229816821792, 0.0, 0.0, 0.0, 0.0, -988.4835467914995, 0.0]
['beep', 0.0, 2650.648671465954, 0.0, 0.0, 0.0, 0.0, -988.081215391304, 0.0]
['beep', 0.0, 2649.441677265367, 0.0, 0.0, 0.0, 0.0, -989.1540991251587, 0.0]
['beep', 0.0, 2648.5923109760656, 0.0, 0.0, 0.0, 0.0, -990.3163898368347, 0.0]
['beep', 0.0, 2648.2123313203256, 0.0, 0.0, 0.0, 0.0, -988.5953055137761, 0.0]
['beep', 0.0, 2650.8274854215965, 0.0, 0.0, 0.0, 0.0, -987.8800496912063, 0.0]
['beep', 0.0, 2650.5592644881326, 0.0, 0.0, 0.0, 0.0, -988.5953055137761, 0.0]
['beep', 0.0, 2649.9110638989287, 0.0, 0.0, 0.0, 0.0, -988.4164915581337, 0.0]
['beep', 0.0, 2651.3415755440683, 0.0, 0.0, 0.0, 0.0, -988.5506020248655, 0.0]
['beep', 0.0, 2650.9615958883282, 0.0, 0.0, 0.0, 0.0, -991.6798462486084, 0.0]
['beep', 0.0, 2651.0510028661497, 0.0, 0.0, 0.0, 0.0, -991.9927706709827, 0.0]
['beep', 0.0, 2650.2463400657584, 0.0, 0.0, 0.0, 0.0, -990.0705206478264, 0.0]
['beep', 0.0, 2649.642842965465, 0.0, 0.0, 0.0, 0.0, -990.0034654144604, 0.0]
['beep', 0.0, 2649.5981394765545, 0.0, 0.0, 0.0, 0.0, -989.8470032032733, 0.0]
['beep', 0.0, 2650.3133952991243, 0.0, 0.0, 0.0, 0.0, -989.8470032032733, 0.0]
['beep', 0.0, 2649.642842965465, 0.0, 0.0, 0.0, 0.0, -989.7799479699073, 0.0]
['beep', 0.0, 2650.045174365661, 0.0, 0.0, 0.0, 0.0, -989.7575962254521, 0.0]
['beep', 0.0, 2650.581616232588, 0.0, 0.0, 0.0, 0.0, -991.6798462486084, 0.0]
['beep', 0.0, 2650.782781932686, 0.0, 0.0, 0.0, 0.0, -991.0987008927705, 0.0]
['beep', 0.0, 2651.0510028661497, 0.0, 0.0, 0.0, 0.0, -990.1822793701028, 0.0]
['beep', 0.0, 2649.776953432197, 0.0, 0.0, 0.0, 0.0, -991.0987008927705, 0.0]
['beep', 0.0, 2650.089877854571, 0.0, 0.0, 0.0, 0.0, -991.2998665928683, 0.0]
['beep', 0.0, 2650.3133952991243, 0.0, 0.0, 0.0, 0.0, -991.724549737519, 0.0]
['beep', 0.0, 2650.134581343482, 0.0, 0.0, 0.0, 0.0, -991.7692532264297, 0.0]
['beep', 0.0, 2651.1180580995156, 0.0, 0.0, 0.0, 0.0, -990.919886937128, 0.0]
['beep', 0.0, 2651.4309825218897, 0.0, 0.0, 0.0, 0.0, -992.2162881155358, 0.0]
['beep', 0.0, 2651.453334266345, 0.0, 0.0, 0.0, 0.0, -992.3280468378124, 0.0]
['beep', 0.0, 2651.386279032979, 0.0, 0.0, 0.0, 0.0, -991.1657561261364, 0.0]
['beep', 0.0, 2652.257997066736, 0.0, 0.0, 0.0, 0.0, -992.1715846266252, 0.0]
['beep', 0.0, 2652.615624978021, 0.0, 0.0, 0.0, 0.0, -991.8139567153403, 0.0]
['beep', 0.0, 2651.4309825218897, 0.0, 0.0, 0.0, 0.0, -991.0092939149492, 0.0]
['beep', 0.0, 2652.1238866000044, 0.0, 0.0, 0.0, 0.0, -990.9422386815833, 0.0]
['beep', 0.0, 2650.71572669932, 0.0, 0.0, 0.0, 0.0, -989.9364101810945, 0.0]
['beep', 0.0, 2650.156933087937, 0.0, 0.0, 0.0, 0.0, -991.2551631039577, 0.0]
['beep', 0.0, 2651.1180580995156, 0.0, 0.0, 0.0, 0.0, -991.7021979930638, 0.0]
['beep', 0.0, 2650.8274854215965, 0.0, 0.0, 0.0, 0.0, -992.1045293932593, 0.0]
['beep', 0.0, 2649.5981394765545, 0.0, 0.0, 0.0, 0.0, -991.4563288040554, 0.0]
['beep', 0.0, 2650.134581343482, 0.0, 0.0, 0.0, 0.0, -991.8363084597956, 0.0]
['beep', 0.0, 2651.229816821792, 0.0, 0.0, 0.0, 0.0, -993.8032619718626, 0.0]
['beep', 0.0, 2651.4756860108005, 0.0, 0.0, 0.0, 0.0, -992.4621573045442, 0.0]
['beep', 0.0, 2649.486380754278, 0.0, 0.0, 0.0, 0.0, -991.3222183373235, 0.0]
['beep', 0.0, 2647.3406132865684, 0.0, 0.0, 0.0, 0.0, -990.5622590258431, 0.0]
['beep', 0.0, 2648.5252557426998, 0.0, 0.0, 0.0, 0.0, -991.2775148484129, 0.0]
['beep', 0.0, 2649.8663604100184, 0.0, 0.0, 0.0, 0.0, -992.4621573045442, 0.0]
['beep', 0.0, 2649.0840493540823, 0.0, 0.0, 0.0, 0.0, -993.1327096382034, 0.0]
['beep', 0.0, 2649.8887121544735, 0.0, 0.0, 0.0, 0.0, -993.2444683604799, 0.0]
['beep', 0.0, 2650.5369127436775, 0.0, 0.0, 0.0, 0.0, -992.6856747490973, 0.0]
['beep', 0.0, 2649.5087324987335, 0.0, 0.0, 0.0, 0.0, -993.9373724385945, 0.0]
['beep', 0.0, 2648.9946423762613, 0.0, 0.0, 0.0, 0.0, -992.7750817269185, 0.0]
['beep', 0.0, 2648.748773187253, 0.0, 0.0, 0.0, 0.0, -992.6409712601867, 0.0]
['beep', 0.0, 2648.2570348092363, 0.0, 0.0, 0.0, 0.0, -993.5126892939436, 0.0]
['beep', 0.0, 2648.2346830647807, 0.0, 0.0, 0.0, 0.0, -992.8421369602844, 0.0]
['beep', 0.0, 2649.039345865172, 0.0, 0.0, 0.0, 0.0, -993.8703172052285, 0.0]
['beep', 0.0, 2649.9334156433843, 0.0, 0.0, 0.0, 0.0, -993.8926689496839, 0.0]
['beep', 0.0, 2650.8274854215965, 0.0, 0.0, 0.0, 0.0, -992.7974334713738, 0.0]
['beep', 0.0, 2650.3357470435794, 0.0, 0.0, 0.0, 0.0, -992.6409712601867, 0.0]
['beep', 0.0, 2648.9275871428954, 0.0, 0.0, 0.0, 0.0, -991.9927706709827, 0.0]
['beep', 0.0, 2649.5310842431886, 0.0, 0.0, 0.0, 0.0, -991.791604970885, 0.0]
['beep', 0.0, 2650.581616232588, 0.0, 0.0, 0.0, 0.0, -994.5185177944325, 0.0]
['beep', 0.0, 2649.419325520912, 0.0, 0.0, 0.0, 0.0, -995.2337736170023, 0.0]
['beep', 0.0, 2650.2239883213033, 0.0, 0.0, 0.0, 0.0, -993.8926689496839, 0.0]
['beep', 0.0, 2650.3133952991243, 0.0, 0.0, 0.0, 0.0, -991.9480671820721, 0.0]
['beep', 0.0, 2648.9499388873505, 0.0, 0.0, 0.0, 0.0, -992.2386398599912, 0.0]
['beep', 0.0, 2648.8828836539847, 0.0, 0.0, 0.0, 0.0, -992.2609916044464, 0.0]
['beep', 0.0, 2649.2405115652696, 0.0, 0.0, 0.0, 0.0, -992.5739160268207, 0.0]
['beep', 0.0, 2648.8828836539847, 0.0, 0.0, 0.0, 0.0, -992.2833433489018, 0.0]
['beep', 0.0, 2648.5029039982446, 0.0, 0.0, 0.0, 0.0, -993.467985805033, 0.0]
['beep', 0.0, 2648.324090042602, 0.0, 0.0, 0.0, 0.0, -994.5632212833431, 0.0]
['beep', 0.0, 2648.9946423762613, 0.0, 0.0, 0.0, 0.0, -992.7303782380079, 0.0]
['beep', 0.0, 2648.838180165074, 0.0, 0.0, 0.0, 0.0, -993.177413127114, 0.0]
['beep', 0.0, 2648.3687935315124, 0.0, 0.0, 0.0, 0.0, -992.2162881155358, 0.0]
['beep', 0.0, 2649.6651947099203, 0.0, 0.0, 0.0, 0.0, -992.5068607934548, 0.0]
['beep', 0.0, 2648.7264214427973, 0.0, 0.0, 0.0, 0.0, -991.1881078705917, 0.0]
['beep', 0.0, 2647.9664621313173, 0.0, 0.0, 0.0, 0.0, -991.501032292966, 0.0]
['beep', 0.0, 2650.9839476327834, 0.0, 0.0, 0.0, 0.0, -990.2493346034688, 0.0]
['beep', 0.0, 2650.5592644881326, 0.0, 0.0, 0.0, 0.0, -988.8188229583292, 0.0]
['beep', 0.0, 2649.396973776457, 0.0, 0.0, 0.0, 0.0, -989.0870438917929, 0.0]
['beep', 0.0, 2650.2016365768477, 0.0, 0.0, 0.0, 0.0, -988.8635264472398, 0.0]
['beep', 0.0, 2649.195808076359, 0.0, 0.0, 0.0, 0.0, -988.662360747142, 0.0]
['beep', 0.0, 2649.2405115652696, 0.0, 0.0, 0.0, 0.0, -989.2658578474353, 0.0]
['beep', 0.0, 2651.0510028661497, 0.0, 0.0, 0.0, 0.0, -989.0423404028822, 0.0]
['beep', 0.0, 2651.453334266345, 0.0, 0.0, 0.0, 0.0, -989.2211543585247, 0.0]
['beep', 0.0, 2652.8167906781187, 0.0, 0.0, 0.0, 0.0, -990.2716863479241, 0.0]
['beep', 0.0, 2653.4426395228675, 0.0, 0.0, 0.0, 0.0, -989.4223200586224, 0.0]
['beep', 0.0, 2654.515523256722, 0.0, 0.0, 0.0, 0.0, -989.8022997143627, 0.0]
['beep', 0.0, 2656.258959324236, 0.0, 0.0, 0.0, 0.0, -990.4728520480219, 0.0]
['beep', 0.0, 2657.264787824725, 0.0, 0.0, 0.0, 0.0, -987.4553665465554, 0.0]
['beep', 0.0, 2657.7118227138308, 0.0, 0.0, 0.0, 0.0, -986.5165932794325, 0.0]
['beep', 0.0, 2655.7895726906745, 0.0, 0.0, 0.0, 0.0, -987.9471049245722, 0.0]
['beep', 0.0, 2653.710860456331, 0.0, 0.0, 0.0, 0.0, -987.6341805021979, 0.0]
['beep', 0.0, 2652.1238866000044, 0.0, 0.0, 0.0, 0.0, -987.2094973575471, 0.0]
['beep', 0.0, 2652.1238866000044, 0.0, 0.0, 0.0, 0.0, -989.1317473807035, 0.0]
['beep', 0.0, 2651.2745203107024, 0.0, 0.0, 0.0, 0.0, -988.9976369139716, 0.0]
['beep', 0.0, 2652.3697557890127, 0.0, 0.0, 0.0, 0.0, -989.534078780899, 0.0]
['beep', 0.0, 2651.386279032979, 0.0, 0.0, 0.0, 0.0, -990.4281485591113, 0.0]
['beep', 0.0, 2651.229816821792, 0.0, 0.0, 0.0, 0.0, -990.2493346034688, 0.0]
['beep', 0.0, 2652.1909418333703, 0.0, 0.0, 0.0, 0.0, -990.4728520480219, 0.0]
['beep', 0.0, 2651.4309825218897, 0.0, 0.0, 0.0, 0.0, -991.3222183373235, 0.0]
['beep', 0.0, 2651.296872055158, 0.0, 0.0, 0.0, 0.0, -990.5622590258431, 0.0]
['beep', 0.0, 2651.743906944264, 0.0, 0.0, 0.0, 0.0, -991.0987008927705, 0.0]
['beep', 0.0, 2650.5369127436775, 0.0, 0.0, 0.0, 0.0, -992.6856747490973, 0.0]
['beep', 0.0, 2651.7662586887195, 0.0, 0.0, 0.0, 0.0, -990.8975351926726, 0.0]
['beep', 0.0, 2652.8391424225742, 0.0, 0.0, 0.0, 0.0, -990.8304799593068, 0.0]
['beep', 0.0, 2651.8780174109957, 0.0, 0.0, 0.0, 0.0, -992.372750326723, 0.0]
['beep', 0.0, 2651.073354610605, 0.0, 0.0, 0.0, 0.0, -990.8751834482174, 0.0]
['beep', 0.0, 2651.296872055158, 0.0, 0.0, 0.0, 0.0, -990.9422386815833, 0.0]
['beep', 0.0, 2651.5427412441663, 0.0, 0.0, 0.0, 0.0, -991.6127910152426, 0.0]
['beep', 0.0, 2652.012127877728, 0.0, 0.0, 0.0, 0.0, -991.0987008927705, 0.0]
['beep', 0.0, 2651.609796477532, 0.0, 0.0, 0.0, 0.0, -992.4621573045442, 0.0]
['beep', 0.0, 2651.967424388817, 0.0, 0.0, 0.0, 0.0, -994.3844073277006, 0.0]
['beep', 0.0, 2653.7332122007865, 0.0, 0.0, 0.0, 0.0, -994.0044276719603, 0.0]
['beep', 0.0, 2653.576749989599, 0.0, 0.0, 0.0, 0.0, -994.2055933720582, 0.0]
['beep', 0.0, 2653.3979360339567, 0.0, 0.0, 0.0, 0.0, -992.8197852158291, 0.0]
['beep', 0.0, 2653.66615696742, 0.0, 0.0, 0.0, 0.0, -991.2104596150471, 0.0]
['beep', 0.0, 2654.023784878705, 0.0, 0.0, 0.0, 0.0, -991.791604970885, 0.0]
['beep', 0.0, 2654.359061045535, 0.0, 0.0, 0.0, 0.0, -992.7974334713738, 0.0]
['beep', 0.0, 2652.90619765594, 0.0, 0.0, 0.0, 0.0, -991.1210526372257, 0.0]
['beep', 0.0, 2652.4815145112893, 0.0, 0.0, 0.0, 0.0, -990.5175555369325, 0.0]
['beep', 0.0, 2652.749735444753, 0.0, 0.0, 0.0, 0.0, -990.9869421704939, 0.0]
['beep', 0.0, 2653.8896744119734, 0.0, 0.0, 0.0, 0.0, -993.0880061492928, 0.0]
['beep', 0.0, 2652.548569744655, 0.0, 0.0, 0.0, 0.0, -993.0209509159268, 0.0]
['beep', 0.0, 2652.682680211387, 0.0, 0.0, 0.0, 0.0, -992.2162881155358, 0.0]
['beep', 0.0, 2653.3085290561353, 0.0, 0.0, 0.0, 0.0, -993.467985805033, 0.0]
['beep', 0.0, 2654.1578953454373, 0.0, 0.0, 0.0, 0.0, -994.3620555832453, 0.0]
['beep', 0.0, 2653.5096947562333, 0.0, 0.0, 0.0, 0.0, -993.0656544048375, 0.0]
['beep', 0.0, 2652.4591627668337, 0.0, 0.0, 0.0, 0.0, -992.6186195157313, 0.0]
['beep', 0.0, 2652.973252889306, 0.0, 0.0, 0.0, 0.0, -991.3892735706895, 0.0]
['beep', 0.0, 2652.5709214891103, 0.0, 0.0, 0.0, 0.0, -991.3445700817789, 0.0]
['beep', 0.0, 2651.8556656665405, 0.0, 0.0, 0.0, 0.0, -991.1210526372257, 0.0]
['beep', 0.0, 2651.676851710898, 0.0, 0.0, 0.0, 0.0, -991.8363084597956, 0.0]
['beep', 0.0, 2651.7886104331747, 0.0, 0.0, 0.0, 0.0, -991.8810119487063, 0.0]
['beep', 0.0, 2652.1462383444596, 0.0, 0.0, 0.0, 0.0, -991.1434043816811, 0.0]
['beep', 0.0, 2653.7555639452416, 0.0, 0.0, 0.0, 0.0, -990.7634247259408, 0.0]
['beep', 0.0, 2654.1355436009817, 0.0, 0.0, 0.0, 0.0, -990.2940380923794, 0.0]
['beep', 0.0, 2655.81192443513, 0.0, 0.0, 0.0, 0.0, -990.6516660036643, 0.0]
['beep', 0.0, 2656.236607579781, 0.0, 0.0, 0.0, 0.0, -991.0092939149492, 0.0]
['beep', 0.0, 2655.655462223943, 0.0, 0.0, 0.0, 0.0, -991.6574945041532, 0.0]
['beep', 0.0, 2655.946034901862, 0.0, 0.0, 0.0, 0.0, -990.4281485591113, 0.0]
['beep', 0.0, 2656.0801453685935, 0.0, 0.0, 0.0, 0.0, -989.9811136700051, 0.0]
['beep', 0.0, 2657.0636221246273, 0.0, 0.0, 0.0, 0.0, -989.8693549477285, 0.0]
['beep', 0.0, 2656.683642468887, 0.0, 0.0, 0.0, 0.0, -990.0928723922816, 0.0]
['beep', 0.0, 2655.387241290479, 0.0, 0.0, 0.0, 0.0, -989.9811136700051, 0.0]
['beep', 0.0, 2654.8507994235515, 0.0, 0.0, 0.0, 0.0, -990.048168903371, 0.0]
['beep', 0.0, 2655.968386646317, 0.0, 0.0, 0.0, 0.0, -991.0092939149492, 0.0]
['beep', 0.0, 2655.81192443513, 0.0, 0.0, 0.0, 0.0, -991.7692532264297, 0.0]
['beep', 0.0, 2655.3425378015686, 0.0, 0.0, 0.0, 0.0, -993.177413127114, 0.0]
['beep', 0.0, 2655.8566279240404, 0.0, 0.0, 0.0, 0.0, -993.4009305716671, 0.0]
['beep', 0.0, 2657.354194802546, 0.0, 0.0, 0.0, 0.0, -991.6574945041532, 0.0]
['beep', 0.0, 2657.354194802546, 0.0, 0.0, 0.0, 0.0, -992.6186195157313, 0.0]
['beep', 0.0, 2657.0412703801717, 0.0, 0.0, 0.0, 0.0, -993.3785788272118, 0.0]
['beep', 0.0, 2656.7954011911634, 0.0, 0.0, 0.0, 0.0, -991.1434043816811, 0.0]
['beep', 0.0, 2656.90715991344, 0.0, 0.0, 0.0, 0.0, -992.2386398599912, 0.0]
['beep', 0.0, 2656.6612907244316, 0.0, 0.0, 0.0, 0.0, -991.9927706709827, 0.0]
['beep', 0.0, 2656.0130901352277, 0.0, 0.0, 0.0, 0.0, -993.4456340605777, 0.0]
['beep', 0.0, 2656.1024971130487, 0.0, 0.0, 0.0, 0.0, -992.1715846266252, 0.0]
['beep', 0.0, 2656.2142558353253, 0.0, 0.0, 0.0, 0.0, -992.1045293932593, 0.0]
['beep', 0.0, 2656.3483663020575, 0.0, 0.0, 0.0, 0.0, -992.4621573045442, 0.0]
['beep', 0.0, 2657.0412703801717, 0.0, 0.0, 0.0, 0.0, -990.8975351926726, 0.0]
['beep', 0.0, 2657.801229691652, 0.0, 0.0, 0.0, 0.0, -992.2386398599912, 0.0]
['beep', 0.0, 2654.8060959346412, 0.0, 0.0, 0.0, 0.0, -991.1657561261364, 0.0]
['beep', 0.0, 2653.062659867127, 0.0, 0.0, 0.0, 0.0, -992.0151224154381, 0.0]
['beep', 0.0, 2656.0130901352277, 0.0, 0.0, 0.0, 0.0, -993.2668201049353, 0.0]
['beep', 0.0, 2656.7954011911634, 0.0, 0.0, 0.0, 0.0, -994.2279451165134, 0.0]
['beep', 0.0, 2656.8624564245292, 0.0, 0.0, 0.0, 0.0, -994.5185177944325, 0.0]
['beep', 0.0, 2657.421250035912, 0.0, 0.0, 0.0, 0.0, -994.8984974501726, 0.0]
['beep', 0.0, 2656.1248488575043, 0.0, 0.0, 0.0, 0.0, -996.2172503730358, 0.0]
['beep', 0.0, 2655.253130823747, 0.0, 0.0, 0.0, 0.0, -995.6361050171978, 0.0]
['beep', 0.0, 2656.8624564245292, 0.0, 0.0, 0.0, 0.0, -997.5136515514436, 0.0]
['beep', 0.0, 2656.594235491066, 0.0, 0.0, 0.0, 0.0, -998.5194800519324, 0.0]
['beep', 0.0, 2655.7672209462194, 0.0, 0.0, 0.0, 0.0, -998.1395003961921, 0.0]
['beep', 0.0, 2655.7225174573086, 0.0, 0.0, 0.0, 0.0, -997.8265759738179, 0.0]
['beep', 0.0, 2656.236607579781, 0.0, 0.0, 0.0, 0.0, -997.2677823624352, 0.0]
['beep', 0.0, 2655.9907383907725, 0.0, 0.0, 0.0, 0.0, -997.692465507086, 0.0]
['beep', 0.0, 2655.7672209462194, 0.0, 0.0, 0.0, 0.0, -998.2289073740134, 0.0]
['beep', 0.0, 2657.3318430580907, 0.0, 0.0, 0.0, 0.0, -997.3571893402565, 0.0]
['beep', 0.0, 2657.3988982914566, 0.0, 0.0, 0.0, 0.0, -997.1560236401587, 0.0]
['beep', 0.0, 2657.2424360802697, 0.0, 0.0, 0.0, 0.0, -997.5807067848095, 0.0]
['beep', 0.0, 2656.8624564245292, 0.0, 0.0, 0.0, 0.0, -996.9995614289716, 0.0]
['beep', 0.0, 2655.8342761795852, 0.0, 0.0, 0.0, 0.0, -997.2454306179799, 0.0]
['beep', 0.0, 2655.0519651236496, 0.0, 0.0, 0.0, 0.0, -998.6535905186643, 0.0]
['beep', 0.0, 2654.4708197678115, 0.0, 0.0, 0.0, 0.0, -998.2959626073794, 0.0]
['beep', 0.0, 2654.292005812169, 0.0, 0.0, 0.0, 0.0, -996.7536922399631, 0.0]
['beep', 0.0, 2655.4766482683003, 0.0, 0.0, 0.0, 0.0, -997.0666166623374, 0.0]
['beep', 0.0, 2656.3483663020575, 0.0, 0.0, 0.0, 0.0, -997.2677823624352, 0.0]
['beep', 0.0, 2656.0801453685935, 0.0, 0.0, 0.0, 0.0, -997.8265759738179, 0.0]
['beep', 0.0, 2655.901331412951, 0.0, 0.0, 0.0, 0.0, -997.9830381850051, 0.0]
['beep', 0.0, 2655.6331104794876, 0.0, 0.0, 0.0, 0.0, -996.4184160731336, 0.0]
['beep', 0.0, 2655.7895726906745, 0.0, 0.0, 0.0, 0.0, -997.468948062533, 0.0]
['beep', 0.0, 2654.9178546569174, 0.0, 0.0, 0.0, 0.0, -998.2959626073794, 0.0]
['beep', 0.0, 2654.1131918565266, 0.0, 0.0, 0.0, 0.0, -998.1395003961921, 0.0]
['beep', 0.0, 2655.677813968398, 0.0, 0.0, 0.0, 0.0, -998.9441631965832, 0.0]
['beep', 0.0, 2656.1248488575043, 0.0, 0.0, 0.0, 0.0, -998.497128307477, 0.0]
['beep', 0.0, 2655.387241290479, 0.0, 0.0, 0.0, 0.0, -997.0666166623374, 0.0]
['beep', 0.0, 2654.71668895682, 0.0, 0.0, 0.0, 0.0, -997.1560236401587, 0.0]
['beep', 0.0, 2656.7954011911634, 0.0, 0.0, 0.0, 0.0, -997.2677823624352, 0.0]
['beep', 0.0, 2655.9236831574062, 0.0, 0.0, 0.0, 0.0, -996.8654509622397, 0.0]
['beep', 0.0, 2654.627281978999, 0.0, 0.0, 0.0, 0.0, -998.5865352852983, 0.0]
['beep', 0.0, 2654.359061045535, 0.0, 0.0, 0.0, 0.0, -998.3183143518346, 0.0]
['beep', 0.0, 2655.7001657128535, 0.0, 0.0, 0.0, 0.0, -998.2959626073794, 0.0]
['beep', 0.0, 2656.236607579781, 0.0, 0.0, 0.0, 0.0, -998.4300730741112, 0.0]
['beep', 0.0, 2655.4095930349345, 0.0, 0.0, 0.0, 0.0, -998.3183143518346, 0.0]
['beep', 0.0, 2655.454296523845, 0.0, 0.0, 0.0, 0.0, -999.145328896681, 0.0]
['beep', 0.0, 2655.968386646317, 0.0, 0.0, 0.0, 0.0, -998.34066609629, 0.0]
['beep', 0.0, 2656.9518634023507, 0.0, 0.0, 0.0, 0.0, -997.4465963180777, 0.0]
['beep', 0.0, 2655.968386646317, 0.0, 0.0, 0.0, 0.0, -996.2619538619464, 0.0]
['beep', 0.0, 2657.0859738690824, 0.0, 0.0, 0.0, 0.0, -995.6361050171978, 0.0]
['beep', 0.0, 2656.974215146806, 0.0, 0.0, 0.0, 0.0, -995.0549596613598, 0.0]
['beep', 0.0, 2654.7837441901856, 0.0, 0.0, 0.0, 0.0, -993.467985805033, 0.0]
['beep', 0.0, 2655.297834312658, 0.0, 0.0, 0.0, 0.0, -994.0044276719603, 0.0]
['beep', 0.0, 2654.582578490088, 0.0, 0.0, 0.0, 0.0, -995.725511995019, 0.0]
['beep', 0.0, 2653.8449709230626, 0.0, 0.0, 0.0, 0.0, -995.144366639181, 0.0]
['beep', 0.0, 2653.0850116115826, 0.0, 0.0, 0.0, 0.0, -995.5243462949213, 0.0]
['beep', 0.0, 2653.28617731168, 0.0, 0.0, 0.0, 0.0, -996.3513608397676, 0.0]
['beep', 0.0, 2654.3367093010797, 0.0, 0.0, 0.0, 0.0, -996.9325061956056, 0.0]
['beep', 0.0, 2655.4095930349345, 0.0, 0.0, 0.0, 0.0, -996.7983957288737, 0.0]
['beep', 0.0, 2655.4095930349345, 0.0, 0.0, 0.0, 0.0, -998.1171486517369, 0.0]
['beep', 0.0, 2654.9178546569174, 0.0, 0.0, 0.0, 0.0, -997.2230788735246, 0.0]
['beep', 0.0, 2654.649633723454, 0.0, 0.0, 0.0, 0.0, -997.7148172515414, 0.0]
['beep', 0.0, 2655.7895726906745, 0.0, 0.0, 0.0, 0.0, -996.4854713064994, 0.0]
['beep', 0.0, 2656.3930697909677, 0.0, 0.0, 0.0, 0.0, -995.9713811840275, 0.0]
['beep', 0.0, 2656.8177529356185, 0.0, 0.0, 0.0, 0.0, -997.5807067848095, 0.0]
['beep', 0.0, 2658.2706163252137, 0.0, 0.0, 0.0, 0.0, -996.1948986285805, 0.0]
['beep', 0.0, 2657.9576919028395, 0.0, 0.0, 0.0, 0.0, -995.9043259506615, 0.0]
['beep', 0.0, 2657.0412703801717, 0.0, 0.0, 0.0, 0.0, -997.3571893402565, 0.0]
['beep', 0.0, 2656.482476768789, 0.0, 0.0, 0.0, 0.0, -996.2172503730358, 0.0]
['beep', 0.0, 2656.8177529356185, 0.0, 0.0, 0.0, 0.0, -995.3902358281895, 0.0]
['beep', 0.0, 2657.488305269278, 0.0, 0.0, 0.0, 0.0, -994.9655526835386, 0.0]
['beep', 0.0, 2657.354194802546, 0.0, 0.0, 0.0, 0.0, -995.0326079169045, 0.0]
['beep', 0.0, 2656.8624564245292, 0.0, 0.0, 0.0, 0.0, -995.1890701280917, 0.0]
['beep', 0.0, 2657.0859738690824, 0.0, 0.0, 0.0, 0.0, -995.9490294395721, 0.0]
['beep', 0.0, 2656.3483663020575, 0.0, 0.0, 0.0, 0.0, -995.5914015282872, 0.0]
['beep', 0.0, 2655.4095930349345, 0.0, 0.0, 0.0, 0.0, -994.5855730277983, 0.0]
['beep', 0.0, 2655.253130823747, 0.0, 0.0, 0.0, 0.0, -995.6361050171978, 0.0]
['beep', 0.0, 2656.549532002155, 0.0, 0.0, 0.0, 0.0, -993.8479654607733, 0.0]
['beep', 0.0, 2656.169552346415, 0.0, 0.0, 0.0, 0.0, -993.8032619718626, 0.0]
['beep', 0.0, 2655.8566279240404, 0.0, 0.0, 0.0, 0.0, -994.5632212833431, 0.0]
['beep', 0.0, 2655.9907383907725, 0.0, 0.0, 0.0, 0.0, -993.8479654607733, 0.0]
['beep', 0.0, 2656.7506977022526, 0.0, 0.0, 0.0, 0.0, -994.6302765167089, 0.0]
['beep', 0.0, 2656.549532002155, 0.0, 0.0, 0.0, 0.0, -995.7478637394744, 0.0]
['beep', 0.0, 2656.638938979976, 0.0, 0.0, 0.0, 0.0, -994.7196834945302, 0.0]
['beep', 0.0, 2658.3376715585796, 0.0, 0.0, 0.0, 0.0, -994.6749800056195, 0.0]
['beep', 0.0, 2657.890636669473, 0.0, 0.0, 0.0, 0.0, -995.3902358281895, 0.0]
['beep', 0.0, 2655.968386646317, 0.0, 0.0, 0.0, 0.0, -995.8149189728402, 0.0]
['beep', 0.0, 2656.3036628131467, 0.0, 0.0, 0.0, 0.0, -996.0831399063039, 0.0]
['beep', 0.0, 2656.594235491066, 0.0, 0.0, 0.0, 0.0, -997.468948062533, 0.0]
['beep', 0.0, 2657.778877947197, 0.0, 0.0, 0.0, 0.0, -997.0666166623374, 0.0]
['beep', 0.0, 2658.292968069669, 0.0, 0.0, 0.0, 0.0, -997.2007271290693, 0.0]
['beep', 0.0, 2657.421250035912, 0.0, 0.0, 0.0, 0.0, -995.9266776951168, 0.0]
['beep', 0.0, 2657.421250035912, 0.0, 0.0, 0.0, 0.0, -996.373712584223, 0.0]
['beep', 0.0, 2656.974215146806, 0.0, 0.0, 0.0, 0.0, -996.9325061956056, 0.0]
['beep', 0.0, 2657.3094913136356, 0.0, 0.0, 0.0, 0.0, -995.2784771059129, 0.0]
['beep', 0.0, 2658.6729477254094, 0.0, 0.0, 0.0, 0.0, -996.0160846729381, 0.0]
['beep', 0.0, 2659.0529273811494, 0.0, 0.0, 0.0, 0.0, -996.3513608397676, 0.0]
['beep', 0.0, 2658.4717820253113, 0.0, 0.0, 0.0, 0.0, -994.4738143055218, 0.0]
['beep', 0.0, 2659.5893692480768, 0.0, 0.0, 0.0, 0.0, -995.4572910615553, 0.0]
['beep', 0.0, 2659.3211483146133, 0.0, 0.0, 0.0, 0.0, -996.7089887510525, 0.0]
['beep', 0.0, 2660.394032048468, 0.0, 0.0, 0.0, 0.0, -996.7983957288737, 0.0]
['beep', 0.0, 2661.802191949152, 0.0, 0.0, 0.0, 0.0, -995.9937329284827, 0.0]
['beep', 0.0, 2662.740965216275, 0.0, 0.0, 0.0, 0.0, -994.5185177944325, 0.0]
['beep', 0.0, 2662.1821716048926, 0.0, 0.0, 0.0, 0.0, -994.1385381386922, 0.0]
['beep', 0.0, 2662.5621512606326, 0.0, 0.0, 0.0, 0.0, -994.2502968609688, 0.0]
['beep', 0.0, 2663.4785727833, 0.0, 0.0, 0.0, 0.0, -993.9820759275051, 0.0]
['beep', 0.0, 2664.126773372504, 0.0, 0.0, 0.0, 0.0, -993.3562270827565, 0.0]
['beep', 0.0, 2663.746793716764, 0.0, 0.0, 0.0, 0.0, -993.467985805033, 0.0]
['beep', 0.0, 2662.137468115982, 0.0, 0.0, 0.0, 0.0, -994.7867387278961, 0.0]
['beep', 0.0, 2659.902293670451, 0.0, 0.0, 0.0, 0.0, -994.5855730277983, 0.0]
['beep', 0.0, 2658.9858721477835, 0.0, 0.0, 0.0, 0.0, -993.9150206941391, 0.0]
['beep', 0.0, 2658.6505959809538, 0.0, 0.0, 0.0, 0.0, -994.3620555832453, 0.0]
['beep', 0.0, 2658.7623547032304, 0.0, 0.0, 0.0, 0.0, -996.0160846729381, 0.0]
['beep', 0.0, 2659.902293670451, 0.0, 0.0, 0.0, 0.0, -997.1560236401587, 0.0]
['beep', 0.0, 2659.388203547979, 0.0, 0.0, 0.0, 0.0, -996.6642852621419, 0.0]
['beep', 0.0, 2660.751659959753, 0.0, 0.0, 0.0, 0.0, -996.9101544511503, 0.0]
['beep', 0.0, 2660.9304739153954, 0.0, 0.0, 0.0, 0.0, -994.920849194628, 0.0]
['beep', 0.0, 2660.170514603915, 0.0, 0.0, 0.0, 0.0, -994.9655526835386, 0.0]
['beep', 0.0, 2659.4776105258, 0.0, 0.0, 0.0, 0.0, -994.9432009390832, 0.0]
['beep', 0.0, 2659.7234797148085, 0.0, 0.0, 0.0, 0.0, -992.886840449195, 0.0]
['beep', 0.0, 2659.7011279703534, 0.0, 0.0, 0.0, 0.0, -994.4067590721559, 0.0]
['beep', 0.0, 2660.394032048468, 0.0, 0.0, 0.0, 0.0, -995.2561253614576, 0.0]
['beep', 0.0, 2660.505790770744, 0.0, 0.0, 0.0, 0.0, -993.2444683604799, 0.0]
['beep', 0.0, 2659.768183203719, 0.0, 0.0, 0.0, 0.0, -993.467985805033, 0.0]
['beep', 0.0, 2659.231741336792, 0.0, 0.0, 0.0, 0.0, -995.8149189728402, 0.0]
['beep', 0.0, 2660.5281425151998, 0.0, 0.0, 0.0, 0.0, -995.6361050171978, 0.0]
['beep', 0.0, 2659.835238437085, 0.0, 0.0, 0.0, 0.0, -994.5855730277983, 0.0]
['beep', 0.0, 2657.868284925018, 0.0, 0.0, 0.0, 0.0, -996.2619538619464, 0.0]
['beep', 0.0, 2658.963520403328, 0.0, 0.0, 0.0, 0.0, -997.759520740452, 0.0]
['beep', 0.0, 2659.3658518035236, 0.0, 0.0, 0.0, 0.0, -996.8654509622397, 0.0]
['beep', 0.0, 2659.231741336792, 0.0, 0.0, 0.0, 0.0, -996.5301747954101, 0.0]
['beep', 0.0, 2659.4329070368894, 0.0, 0.0, 0.0, 0.0, -997.8265759738179, 0.0]
['beep', 0.0, 2659.0529273811494, 0.0, 0.0, 0.0, 0.0, -996.597230028776, 0.0]
['beep', 0.0, 2657.7565262027415, 0.0, 0.0, 0.0, 0.0, -994.1385381386922, 0.0]
['beep', 0.0, 2658.9188169144177, 0.0, 0.0, 0.0, 0.0, -995.3008288503682, 0.0]
['beep', 0.0, 2658.449430280856, 0.0, 0.0, 0.0, 0.0, -996.306657350857, 0.0]
['beep', 0.0, 2658.7176512143196, 0.0, 0.0, 0.0, 0.0, -995.4349393171001, 0.0]
['beep', 0.0, 2658.4717820253113, 0.0, 0.0, 0.0, 0.0, -997.468948062533, 0.0]
['beep', 0.0, 2658.2706163252137, 0.0, 0.0, 0.0, 0.0, -997.9606864405497, 0.0]
['beep', 0.0, 2658.7176512143196, 0.0, 0.0, 0.0, 0.0, -998.4747765630218, 0.0]
['beep', 0.0, 2659.835238437085, 0.0, 0.0, 0.0, 0.0, -998.5865352852983, 0.0]
['beep', 0.0, 2660.505790770744, 0.0, 0.0, 0.0, 0.0, -996.306657350857, 0.0]
['beep', 0.0, 2659.3435000590684, 0.0, 0.0, 0.0, 0.0, -996.1948986285805, 0.0]
['beep', 0.0, 2657.935340158384, 0.0, 0.0, 0.0, 0.0, -995.0102561724492, 0.0]
['beep', 0.0, 2659.835238437085, 0.0, 0.0, 0.0, 0.0, -996.2619538619464, 0.0]
['beep', 0.0, 2660.1481628594593, 0.0, 0.0, 0.0, 0.0, -996.373712584223, 0.0]
['beep', 0.0, 2660.2822733261914, 0.0, 0.0, 0.0, 0.0, -996.4407678175888, 0.0]
['beep', 0.0, 2661.064584382127, 0.0, 0.0, 0.0, 0.0, -995.5690497838319, 0.0]
['beep', 0.0, 2662.226875093803, 0.0, 0.0, 0.0, 0.0, -995.501994550466, 0.0]
['beep', 0.0, 2662.4950960272668, 0.0, 0.0, 0.0, 0.0, -997.178375384614, 0.0]
['beep', 0.0, 2661.198694848859, 0.0, 0.0, 0.0, 0.0, -997.4018928291671, 0.0]
['beep', 0.0, 2661.3328053155906, 0.0, 0.0, 0.0, 0.0, -998.5194800519324, 0.0]
['beep', 0.0, 2661.489267526778, 0.0, 0.0, 0.0, 0.0, -997.6477620181754, 0.0]
['beep', 0.0, 2662.71861347182, 0.0, 0.0, 0.0, 0.0, -995.4572910615553, 0.0]
['beep', 0.0, 2663.1880001053814, 0.0, 0.0, 0.0, 0.0, -996.4184160731336, 0.0]
['beep', 0.0, 2662.6515582384536, 0.0, 0.0, 0.0, 0.0, -997.3571893402565, 0.0]
['beep', 0.0, 2661.6010262490545, 0.0, 0.0, 0.0, 0.0, -997.0442649178822, 0.0]
['beep', 0.0, 2661.3328053155906, 0.0, 0.0, 0.0, 0.0, -997.4242445736223, 0.0]
['beep', 0.0, 2661.6904332268755, 0.0, 0.0, 0.0, 0.0, -996.306657350857, 0.0]
['beep', 0.0, 2662.0480611381604, 0.0, 0.0, 0.0, 0.0, -996.4631195620442, 0.0]
['beep', 0.0, 2661.2881018266803, 0.0, 0.0, 0.0, 0.0, -997.2007271290693, 0.0]
['beep', 0.0, 2663.009186149739, 0.0, 0.0, 0.0, 0.0, -998.0724451628263, 0.0]
['beep', 0.0, 2663.0538896386493, 0.0, 0.0, 0.0, 0.0, -997.4912998069883, 0.0]
['beep', 0.0, 2662.070412882616, 0.0, 0.0, 0.0, 0.0, -996.6866370065973, 0.0]
['beep', 0.0, 2662.00335764925, 0.0, 0.0, 0.0, 0.0, -997.5360032958989, 0.0]
['beep', 0.0, 2661.198694848859, 0.0, 0.0, 0.0, 0.0, -997.4912998069883, 0.0]
['beep', 0.0, 2661.064584382127, 0.0, 0.0, 0.0, 0.0, -996.9325061956056, 0.0]
['beep', 0.0, 2661.779840204697, 0.0, 0.0, 0.0, 0.0, -996.8207474733291, 0.0]
['beep', 0.0, 2661.6680814824203, 0.0, 0.0, 0.0, 0.0, -997.6477620181754, 0.0]
['beep', 0.0, 2663.009186149739, 0.0, 0.0, 0.0, 0.0, -995.9266776951168, 0.0]
['beep', 0.0, 2662.5397995161775, 0.0, 0.0, 0.0, 0.0, -996.5078230509548, 0.0]
['beep', 0.0, 2661.6233779935096, 0.0, 0.0, 0.0, 0.0, -997.178375384614, 0.0]
['beep', 0.0, 2661.3328053155906, 0.0, 0.0, 0.0, 0.0, -997.1336718957034, 0.0]
['beep', 0.0, 2661.064584382127, 0.0, 0.0, 0.0, 0.0, -996.7983957288737, 0.0]
['beep', 0.0, 2661.153991359948, 0.0, 0.0, 0.0, 0.0, -997.2454306179799, 0.0]
['beep', 0.0, 2660.4387355373783, 0.0, 0.0, 0.0, 0.0, -996.4631195620442, 0.0]
['beep', 0.0, 2660.3046250706466, 0.0, 0.0, 0.0, 0.0, -996.0160846729381, 0.0]
['beep', 0.0, 2659.0752791256045, 0.0, 0.0, 0.0, 0.0, -995.4349393171001, 0.0]
['beep', 0.0, 2659.164686103426, 0.0, 0.0, 0.0, 0.0, -996.5748782843207, 0.0]
['beep', 0.0, 2659.969348903817, 0.0, 0.0, 0.0, 0.0, -999.3241428523235, 0.0]
['beep', 0.0, 2661.2657500822247, 0.0, 0.0, 0.0, 0.0, -999.4359015746, 0.0]
['beep', 0.0, 2662.4056890494453, 0.0, 0.0, 0.0, 0.0, -998.8994597076726, 0.0]
['beep', 0.0, 2660.8857704264847, 0.0, 0.0, 0.0, 0.0, -997.5583550403542, 0.0]
['beep', 0.0, 2660.9528256598505, 0.0, 0.0, 0.0, 0.0, -997.759520740452, 0.0]
['beep', 0.0, 2660.9304739153954, 0.0, 0.0, 0.0, 0.0, -999.4582533190553, 0.0]
['beep', 0.0, 2660.3493285595573, 0.0, 0.0, 0.0, 0.0, -1000.3746748417229, 0.0]
['beep', 0.0, 2659.388203547979, 0.0, 0.0, 0.0, 0.0, -999.726474252519, 0.0]
['beep', 0.0, 2659.3435000590684, 0.0, 0.0, 0.0, 0.0, -1000.2405643749911, 0.0]
['beep', 0.0, 2660.125811115004, 0.0, 0.0, 0.0, 0.0, -999.5476602968765, 0.0]
['beep', 0.0, 2660.818715193119, 0.0, 0.0, 0.0, 0.0, -999.9946951859827, 0.0]
['beep', 0.0, 2660.9751774043057, 0.0, 0.0, 0.0, 0.0, -1000.6428957751866, 0.0]
['beep', 0.0, 2659.9469971593617, 0.0, 0.0, 0.0, 0.0, -1000.9111167086503, 0.0]
['beep', 0.0, 2660.0587558816383, 0.0, 0.0, 0.0, 0.0, -1000.1064539082593, 0.0]
['beep', 0.0, 2659.3211483146133, 0.0, 0.0, 0.0, 0.0, -1000.1511573971699, 0.0]
['beep', 0.0, 2659.4776105258, 0.0, 0.0, 0.0, 0.0, -999.726474252519, 0.0]
['beep', 0.0, 2659.3658518035236, 0.0, 0.0, 0.0, 0.0, -998.8324044743067, 0.0]
['beep', 0.0, 2659.2764448257026, 0.0, 0.0, 0.0, 0.0, -999.949991697072, 0.0]
['beep', 0.0, 2659.7011279703534, 0.0, 0.0, 0.0, 0.0, -1001.5593172978541, 0.0]
['beep', 0.0, 2657.935340158384, 0.0, 0.0, 0.0, 0.0, -1000.4193783306335, 0.0]
['beep', 0.0, 2656.8624564245292, 0.0, 0.0, 0.0, 0.0, -999.8829364637062, 0.0]
['beep', 0.0, 2657.510657013733, 0.0, 0.0, 0.0, 0.0, -1000.1064539082593, 0.0]
['beep', 0.0, 2658.0694506251157, 0.0, 0.0, 0.0, 0.0, -999.8382329747956, 0.0]
['beep', 0.0, 2658.3153198141245, 0.0, 0.0, 0.0, 0.0, -999.5476602968765, 0.0]
['beep', 0.0, 2657.801229691652, 0.0, 0.0, 0.0, 0.0, -1001.3357998533011, 0.0]
['beep', 0.0, 2656.8177529356185, 0.0, 0.0, 0.0, 0.0, -1000.7770062419185, 0.0]
['beep', 0.0, 2657.0859738690824, 0.0, 0.0, 0.0, 0.0, -999.8829364637062, 0.0]
['beep', 0.0, 2656.974215146806, 0.0, 0.0, 0.0, 0.0, -1001.0452271753821, 0.0]
['beep', 0.0, 2657.8235814361074, 0.0, 0.0, 0.0, 0.0, -1000.8217097308291, 0.0]
['beep', 0.0, 2657.868284925018, 0.0, 0.0, 0.0, 0.0, -999.8158812303402, 0.0]
['beep', 0.0, 2658.136505858482, 0.0, 0.0, 0.0, 0.0, -999.8158812303402, 0.0]
['beep', 0.0, 2658.7623547032304, 0.0, 0.0, 0.0, 0.0, -999.7711777414296, 0.0]
['beep', 0.0, 2659.7011279703534, 0.0, 0.0, 0.0, 0.0, -999.0112184299492, 0.0]
['beep', 0.0, 2659.0529273811494, 0.0, 0.0, 0.0, 0.0, -998.9218114521279, 0.0]
['beep', 0.0, 2659.254093081247, 0.0, 0.0, 0.0, 0.0, -1001.3581515977564, 0.0]
['beep', 0.0, 2660.9304739153954, 0.0, 0.0, 0.0, 0.0, -1002.2298696315133, 0.0]
['beep', 0.0, 2659.7011279703534, 0.0, 0.0, 0.0, 0.0, -1001.2240411310246, 0.0]
['beep', 0.0, 2659.4329070368894, 0.0, 0.0, 0.0, 0.0, -999.7488259969743, 0.0]
['beep', 0.0, 2661.2881018266803, 0.0, 0.0, 0.0, 0.0, -1000.307619608357, 0.0]
['beep', 0.0, 2660.259921581736, 0.0, 0.0, 0.0, 0.0, -999.6370672746978, 0.0]
['beep', 0.0, 2660.125811115004, 0.0, 0.0, 0.0, 0.0, -999.3688463412341, 0.0]
['beep', 0.0, 2660.3493285595573, 0.0, 0.0, 0.0, 0.0, -1000.3299713528123, 0.0]
['beep', 0.0, 2661.0198808932164, 0.0, 0.0, 0.0, 0.0, -1000.8887649641949, 0.0]
['beep', 0.0, 2661.4669157823228, 0.0, 0.0, 0.0, 0.0, -1000.8440614752843, 0.0]
['beep', 0.0, 2661.6233779935096, 0.0, 0.0, 0.0, 0.0, -1000.3970265861782, 0.0]
['beep', 0.0, 2661.735136715786, 0.0, 0.0, 0.0, 0.0, -1000.5534887973654, 0.0]
['beep', 0.0, 2661.153991359948, 0.0, 0.0, 0.0, 0.0, -1001.9616486980497, 0.0]
['beep', 0.0, 2660.8857704264847, 0.0, 0.0, 0.0, 0.0, -1001.6040207867647, 0.0]
['beep', 0.0, 2660.4387355373783, 0.0, 0.0, 0.0, 0.0, -1001.0452271753821, 0.0]
['beep', 0.0, 2660.6175494930208, 0.0, 0.0, 0.0, 0.0, -1001.3805033422117, 0.0]
['beep', 0.0, 2660.5728460041105, 0.0, 0.0, 0.0, 0.0, -1001.6263725312201, 0.0]
['beep', 0.0, 2659.8575901815407, 0.0, 0.0, 0.0, 0.0, -1001.6710760201307, 0.0]
['beep', 0.0, 2660.3046250706466, 0.0, 0.0, 0.0, 0.0, -1001.8722417202284, 0.0]
['beep', 0.0, 2659.879941925996, 0.0, 0.0, 0.0, 0.0, -1000.2182126305357, 0.0]
['beep', 0.0, 2659.902293670451, 0.0, 0.0, 0.0, 0.0, -1000.5087853084548, 0.0]
['beep', 0.0, 2659.254093081247, 0.0, 0.0, 0.0, 0.0, -1001.6710760201307, 0.0]
['beep', 0.0, 2659.5893692480768, 0.0, 0.0, 0.0, 0.0, -1001.179337642114, 0.0]
['beep', 0.0, 2659.4776105258, 0.0, 0.0, 0.0, 0.0, -1001.3805033422117, 0.0]
['beep', 0.0, 2658.4047267919454, 0.0, 0.0, 0.0, 0.0, -1000.8217097308291, 0.0]
['beep', 0.0, 2658.941168658873, 0.0, 0.0, 0.0, 0.0, -1001.0675789198374, 0.0]
['beep', 0.0, 2659.5670175036216, 0.0, 0.0, 0.0, 0.0, -1000.6652475196419, 0.0]
['beep', 0.0, 2659.835238437085, 0.0, 0.0, 0.0, 0.0, -1001.3805033422117, 0.0]
['beep', 0.0, 2660.2152180928256, 0.0, 0.0, 0.0, 0.0, -1002.0957591647815, 0.0]
['beep', 0.0, 2659.3658518035236, 0.0, 0.0, 0.0, 0.0, -1002.2969248648793, 0.0]
['beep', 0.0, 2659.4329070368894, 0.0, 0.0, 0.0, 0.0, -1002.0957591647815, 0.0]
['beep', 0.0, 2659.254093081247, 0.0, 0.0, 0.0, 0.0, -1001.8945934646838, 0.0]
['beep', 0.0, 2659.0305756366943, 0.0, 0.0, 0.0, 0.0, -1002.1628143981475, 0.0]
['beep', 0.0, 2658.896465169962, 0.0, 0.0, 0.0, 0.0, -1002.4310353316112, 0.0]
['beep', 0.0, 2660.2152180928256, 0.0, 0.0, 0.0, 0.0, -1003.8615469767508, 0.0]
['beep', 0.0, 2659.187037847881, 0.0, 0.0, 0.0, 0.0, -1004.1744713991251, 0.0]
['beep', 0.0, 2659.231741336792, 0.0, 0.0, 0.0, 0.0, -1004.6662097771418, 0.0]
['beep', 0.0, 2660.461087281834, 0.0, 0.0, 0.0, 0.0, -1004.1074161657592, 0.0]
['beep', 0.0, 2660.103459370549, 0.0, 0.0, 0.0, 0.0, -1002.3639800982452, 0.0]
['beep', 0.0, 2660.6175494930208, 0.0, 0.0, 0.0, 0.0, -1003.2580498764576, 0.0]
['beep', 0.0, 2660.036404137183, 0.0, 0.0, 0.0, 0.0, -1002.1181109092369, 0.0]
['beep', 0.0, 2658.248264580758, 0.0, 0.0, 0.0, 0.0, -1002.3192766093346, 0.0]
['beep', 0.0, 2658.292968069669, 0.0, 0.0, 0.0, 0.0, -1003.8615469767508, 0.0]
['beep', 0.0, 2657.3765465470015, 0.0, 0.0, 0.0, 0.0, -1003.5709742988319, 0.0]
['beep', 0.0, 2660.2152180928256, 0.0, 0.0, 0.0, 0.0, -1002.5204423094324, 0.0]
['beep', 0.0, 2660.706956470842, 0.0, 0.0, 0.0, 0.0, -1001.5593172978541, 0.0]
['beep', 0.0, 2659.7011279703534, 0.0, 0.0, 0.0, 0.0, -1000.5087853084548, 0.0]
['beep', 0.0, 2660.103459370549, 0.0, 0.0, 0.0, 0.0, -1001.8498899757732, 0.0]
['beep', 0.0, 2660.103459370549, 0.0, 0.0, 0.0, 0.0, -1001.2910963643905, 0.0]
['beep', 0.0, 2659.9469971593617, 0.0, 0.0, 0.0, 0.0, -1003.9956574434826, 0.0]
['beep', 0.0, 2660.416383792923, 0.0, 0.0, 0.0, 0.0, -1004.7332650105078, 0.0]
['beep', 0.0, 2659.6340727369875, 0.0, 0.0, 0.0, 0.0, -1002.6322010317089, 0.0]
['beep', 0.0, 2658.874113425507, 0.0, 0.0, 0.0, 0.0, -1002.7216080095301, 0.0]
['beep', 0.0, 2658.4717820253113, 0.0, 0.0, 0.0, 0.0, -1004.5768027993206, 0.0]
['beep', 0.0, 2658.4717820253113, 0.0, 0.0, 0.0, 0.0, -1003.2580498764576, 0.0]
['beep', 0.0, 2658.851761681052, 0.0, 0.0, 0.0, 0.0, -1002.4086835871558, 0.0]
['beep', 0.0, 2658.494133769767, 0.0, 0.0, 0.0, 0.0, -1002.9898289429938, 0.0]
['beep', 0.0, 2657.644767480465, 0.0, 0.0, 0.0, 0.0, -1004.1968231435804, 0.0]
['beep', 0.0, 2658.2706163252137, 0.0, 0.0, 0.0, 0.0, -1003.7721399989296, 0.0]
['beep', 0.0, 2659.254093081247, 0.0, 0.0, 0.0, 0.0, -1003.2580498764576, 0.0]
['beep', 0.0, 2659.0305756366943, 0.0, 0.0, 0.0, 0.0, -1004.0850644213039, 0.0]
['beep', 0.0, 2659.7234797148085, 0.0, 0.0, 0.0, 0.0, -1006.3649423557451, 0.0]
['beep', 0.0, 2657.8235814361074, 0.0, 0.0, 0.0, 0.0, -1006.2755353779239, 0.0]
['beep', 0.0, 2657.801229691652, 0.0, 0.0, 0.0, 0.0, -1004.0627126768486, 0.0]
['beep', 0.0, 2659.187037847881, 0.0, 0.0, 0.0, 0.0, -1004.2191748880357, 0.0]
['beep', 0.0, 2659.835238437085, 0.0, 0.0, 0.0, 0.0, -1005.1579481551586, 0.0]
['beep', 0.0, 2660.9528256598505, 0.0, 0.0, 0.0, 0.0, -1005.3144103663458, 0.0]
['beep', 0.0, 2662.2045233493477, 0.0, 0.0, 0.0, 0.0, -1004.4650440770441, 0.0]
['beep', 0.0, 2664.0150146502274, 0.0, 0.0, 0.0, 0.0, -1004.2415266324911, 0.0]
['beep', 0.0, 2665.132601872993, 0.0, 0.0, 0.0, 0.0, -1004.0627126768486, 0.0]
['beep', 0.0, 2665.0208431507162, 0.0, 0.0, 0.0, 0.0, -1004.0403609323932, 0.0]
['beep', 0.0, 2663.09859312756, 0.0, 0.0, 0.0, 0.0, -1003.4145120876447, 0.0]
['beep', 0.0, 2661.5339710156886, 0.0, 0.0, 0.0, 0.0, -1003.727436510019, 0.0]
['beep', 0.0, 2660.6175494930208, 0.0, 0.0, 0.0, 0.0, -1004.0850644213039, 0.0]
['beep', 0.0, 2659.2093895923367, 0.0, 0.0, 0.0, 0.0, -1004.9567824550609, 0.0]
['beep', 0.0, 2659.6340727369875, 0.0, 0.0, 0.0, 0.0, -1004.5768027993206, 0.0]
['beep', 0.0, 2659.7234797148085, 0.0, 0.0, 0.0, 0.0, -1003.3474568542788, 0.0]
['beep', 0.0, 2660.036404137183, 0.0, 0.0, 0.0, 0.0, -1004.822671988329, 0.0]
['beep', 0.0, 2659.4776105258, 0.0, 0.0, 0.0, 0.0, -1005.4261690886223, 0.0]
['beep', 0.0, 2659.2093895923367, 0.0, 0.0, 0.0, 0.0, -1005.0461894328821, 0.0]
['beep', 0.0, 2658.7847064476855, 0.0, 0.0, 0.0, 0.0, -1002.7886632428961, 0.0]
['beep', 0.0, 2659.142334358971, 0.0, 0.0, 0.0, 0.0, -1002.6322010317089, 0.0]
['beep', 0.0, 2659.4999622702558, 0.0, 0.0, 0.0, 0.0, -1003.1686428986363, 0.0]
['beep', 0.0, 2659.768183203719, 0.0, 0.0, 0.0, 0.0, -1004.3085818658569, 0.0]
['beep', 0.0, 2660.0587558816383, 0.0, 0.0, 0.0, 0.0, -1003.8838987212062, 0.0]
['beep', 0.0, 2660.4387355373783, 0.0, 0.0, 0.0, 0.0, -1002.1851661426027, 0.0]
['beep', 0.0, 2660.706956470842, 0.0, 0.0, 0.0, 0.0, -1003.3251051098234, 0.0]
['beep', 0.0, 2659.4999622702558, 0.0, 0.0, 0.0, 0.0, -1002.9898289429938, 0.0]
['beep', 0.0, 2658.0918023695713, 0.0, 0.0, 0.0, 0.0, -1001.0675789198374, 0.0]
['beep', 0.0, 2658.4270785364006, 0.0, 0.0, 0.0, 0.0, -1001.8945934646838, 0.0]
['beep', 0.0, 2657.6000639915546, 0.0, 0.0, 0.0, 0.0, -1001.4699103200329, 0.0]
['beep', 0.0, 2658.292968069669, 0.0, 0.0, 0.0, 0.0, -1002.0957591647815, 0.0]
['beep', 0.0, 2658.0470988806605, 0.0, 0.0, 0.0, 0.0, -1004.9120789661503, 0.0]
['beep', 0.0, 2659.142334358971, 0.0, 0.0, 0.0, 0.0, -1003.9956574434826, 0.0]
['beep', 0.0, 2659.6564244814426, 0.0, 0.0, 0.0, 0.0, -1001.9392969535944, 0.0]
['beep', 0.0, 2660.3269768151017, 0.0, 0.0, 0.0, 0.0, -1002.2522213759687, 0.0]
['beep', 0.0, 2659.611720992532, 0.0, 0.0, 0.0, 0.0, -1001.2016893865692, 0.0]
['beep', 0.0, 2659.1199826145153, 0.0, 0.0, 0.0, 0.0, -1001.8945934646838, 0.0]
['beep', 0.0, 2659.164686103426, 0.0, 0.0, 0.0, 0.0, -1002.6545527761642, 0.0]
['beep', 0.0, 2658.3376715585796, 0.0, 0.0, 0.0, 0.0, -1002.6098492872536, 0.0]
['beep', 0.0, 2658.829409936596, 0.0, 0.0, 0.0, 0.0, -1004.0627126768486, 0.0]
['beep', 0.0, 2658.9858721477835, 0.0, 0.0, 0.0, 0.0, -1004.2415266324911, 0.0]
['beep', 0.0, 2659.2093895923367, 0.0, 0.0, 0.0, 0.0, -1005.0685411773374, 0.0]
['beep', 0.0, 2658.494133769767, 0.0, 0.0, 0.0, 0.0, -1005.4708725775329, 0.0]
['beep', 0.0, 2659.4329070368894, 0.0, 0.0, 0.0, 0.0, -1005.2920586218904, 0.0]
['beep', 0.0, 2660.394032048468, 0.0, 0.0, 0.0, 0.0, -1005.6720382776307, 0.0]
['beep', 0.0, 2659.187037847881, 0.0, 0.0, 0.0, 0.0, -1005.2920586218904, 0.0]
['beep', 0.0, 2659.231741336792, 0.0, 0.0, 0.0, 0.0, -1004.5544510548654, 0.0]
['beep', 0.0, 2659.4329070368894, 0.0, 0.0, 0.0, 0.0, -1005.7390935109966, 0.0]
['beep', 0.0, 2660.6175494930208, 0.0, 0.0, 0.0, 0.0, -1005.3144103663458, 0.0]
['beep', 0.0, 2660.9751774043057, 0.0, 0.0, 0.0, 0.0, -1005.2026516440692, 0.0]
['beep', 0.0, 2659.9917006482724, 0.0, 0.0, 0.0, 0.0, -1006.9013842226725, 0.0]
['beep', 0.0, 2659.768183203719, 0.0, 0.0, 0.0, 0.0, -1006.8790324782173, 0.0]
['beep', 0.0, 2659.4999622702558, 0.0, 0.0, 0.0, 0.0, -1006.8566807337619, 0.0]
['beep', 0.0, 2659.0529273811494, 0.0, 0.0, 0.0, 0.0, -1006.5214045669323, 0.0]
['beep', 0.0, 2661.3998605489564, 0.0, 0.0, 0.0, 0.0, -1005.2473551329798, 0.0]
['beep', 0.0, 2660.3269768151017, 0.0, 0.0, 0.0, 0.0, -1006.6555150336642, 0.0]
['beep', 0.0, 2658.6505959809538, 0.0, 0.0, 0.0, 0.0, -1006.1637766556474, 0.0]
['beep', 0.0, 2660.5728460041105, 0.0, 0.0, 0.0, 0.0, -1006.6555150336642, 0.0]
['beep', 0.0, 2661.2881018266803, 0.0, 0.0, 0.0, 0.0, -1005.5826312998095, 0.0]
['beep', 0.0, 2660.5951977485656, 0.0, 0.0, 0.0, 0.0, -1005.0461894328821, 0.0]
['beep', 0.0, 2661.511619271233, 0.0, 0.0, 0.0, 0.0, -1006.1190731667368, 0.0]
['beep', 0.0, 2662.4056890494453, 0.0, 0.0, 0.0, 0.0, -1006.0296661889156, 0.0]
['beep', 0.0, 2662.450392538356, 0.0, 0.0, 0.0, 0.0, -1004.5097475659547, 0.0]
['beep', 0.0, 2661.3775088045013, 0.0, 0.0, 0.0, 0.0, -1005.4708725775329, 0.0]
['beep', 0.0, 2660.9304739153954, 0.0, 0.0, 0.0, 0.0, -1005.3814655997116, 0.0]
['beep', 0.0, 2660.2152180928256, 0.0, 0.0, 0.0, 0.0, -1005.0908929217927, 0.0]
['beep', 0.0, 2660.0587558816383, 0.0, 0.0, 0.0, 0.0, -1005.1802998996139, 0.0]
['beep', 0.0, 2659.9469971593617, 0.0, 0.0, 0.0, 0.0, -1004.2862301214017, 0.0]
['beep', 0.0, 2659.879941925996, 0.0, 0.0, 0.0, 0.0, -1004.1744713991251, 0.0]
['beep', 0.0, 2659.835238437085, 0.0, 0.0, 0.0, 0.0, -1005.2250033885246, 0.0]
['beep', 0.0, 2659.0305756366943, 0.0, 0.0, 0.0, 0.0, -1005.5826312998095, 0.0]
['beep', 0.0, 2659.768183203719, 0.0, 0.0, 0.0, 0.0, -1005.403817344167, 0.0]
['beep', 0.0, 2659.231741336792, 0.0, 0.0, 0.0, 0.0, -1005.6720382776307, 0.0]
['beep', 0.0, 2658.9858721477835, 0.0, 0.0, 0.0, 0.0, -1007.7954540008849, 0.0]
['beep', 0.0, 2658.829409936596, 0.0, 0.0, 0.0, 0.0, -1006.1414249111921, 0.0]
['beep', 0.0, 2658.583540747588, 0.0, 0.0, 0.0, 0.0, -1004.4650440770441, 0.0]
['beep', 0.0, 2659.81288669263, 0.0, 0.0, 0.0, 0.0, -1006.0296661889156, 0.0]
['beep', 0.0, 2659.9246454149065, 0.0, 0.0, 0.0, 0.0, -1007.1472534116809, 0.0]
['beep', 0.0, 2660.7293082152974, 0.0, 0.0, 0.0, 0.0, -1006.6331632892088, 0.0]
['beep', 0.0, 2661.153991359948, 0.0, 0.0, 0.0, 0.0, -1007.0578464338597, 0.0]
['beep', 0.0, 2660.4387355373783, 0.0, 0.0, 0.0, 0.0, -1004.5768027993206, 0.0]
['beep', 0.0, 2659.4776105258, 0.0, 0.0, 0.0, 0.0, -1004.7109132660524, 0.0]
['beep', 0.0, 2659.2764448257026, 0.0, 0.0, 0.0, 0.0, -1004.8673754772396, 0.0]
['beep', 0.0, 2659.5893692480768, 0.0, 0.0, 0.0, 0.0, -1004.9791341995161, 0.0]
['beep', 0.0, 2660.5728460041105, 0.0, 0.0, 0.0, 0.0, -1006.2978871223793, 0.0]
['beep', 0.0, 2660.9304739153954, 0.0, 0.0, 0.0, 0.0, -1006.2755353779239, 0.0]
['beep', 0.0, 2661.2881018266803, 0.0, 0.0, 0.0, 0.0, -1005.5155760664435, 0.0]
['beep', 0.0, 2661.3998605489564, 0.0, 0.0, 0.0, 0.0, -1004.599154543776, 0.0]
['beep', 0.0, 2661.8245436936077, 0.0, 0.0, 0.0, 0.0, -1003.8615469767508, 0.0]
['beep', 0.0, 2662.6292064939985, 0.0, 0.0, 0.0, 0.0, -1002.498090564977, 0.0]
['beep', 0.0, 2661.735136715786, 0.0, 0.0, 0.0, 0.0, -1005.8285004888178, 0.0]
['beep', 0.0, 2662.6068547495433, 0.0, 0.0, 0.0, 0.0, -1008.5554133123653, 0.0]
['beep', 0.0, 2663.679738483398, 0.0, 0.0, 0.0, 0.0, -1006.5214045669323, 0.0]
['beep', 0.0, 2663.1880001053814, 0.0, 0.0, 0.0, 0.0, -1005.0238376884267, 0.0]
['beep', 0.0, 2662.673909982909, 0.0, 0.0, 0.0, 0.0, -1005.8061487443625, 0.0]
['beep', 0.0, 2662.450392538356, 0.0, 0.0, 0.0, 0.0, -1005.3144103663458, 0.0]
['beep', 0.0, 2662.38333730499, 0.0, 0.0, 0.0, 0.0, -1006.1190731667368, 0.0]
['beep', 0.0, 2662.00335764925, 0.0, 0.0, 0.0, 0.0, -1006.0967214222815, 0.0]
['beep', 0.0, 2662.5621512606326, 0.0, 0.0, 0.0, 0.0, -1004.3532853547675, 0.0]
['beep', 0.0, 2662.4056890494453, 0.0, 0.0, 0.0, 0.0, -1005.7837969999072, 0.0]
['beep', 0.0, 2662.0480611381604, 0.0, 0.0, 0.0, 0.0, -1006.8790324782173, 0.0]
['beep', 0.0, 2662.517447771722, 0.0, 0.0, 0.0, 0.0, -1006.4543493335664, 0.0]
['beep', 0.0, 2662.159819860437, 0.0, 0.0, 0.0, 0.0, -1006.2531836334687, 0.0]
['beep', 0.0, 2662.0257093937053, 0.0, 0.0, 0.0, 0.0, -1006.4319975891111, 0.0]
['beep', 0.0, 2660.505790770744, 0.0, 0.0, 0.0, 0.0, -1005.0014859439715, 0.0]
['beep', 0.0, 2659.835238437085, 0.0, 0.0, 0.0, 0.0, -1006.789625500396, 0.0]
['beep', 0.0, 2659.2764448257026, 0.0, 0.0, 0.0, 0.0, -1007.0354946894043, 0.0]
['beep', 0.0, 2659.4999622702558, 0.0, 0.0, 0.0, 0.0, -1006.0073144444602, 0.0]
['beep', 0.0, 2660.394032048468, 0.0, 0.0, 0.0, 0.0, -1007.2590121339575, 0.0]
['beep', 0.0, 2659.4999622702558, 0.0, 0.0, 0.0, 0.0, -1005.4261690886223, 0.0]
['beep', 0.0, 2659.388203547979, 0.0, 0.0, 0.0, 0.0, -1005.5379278108989, 0.0]
['beep', 0.0, 2659.9246454149065, 0.0, 0.0, 0.0, 0.0, -1005.917907466639, 0.0]
['beep', 0.0, 2660.841066937574, 0.0, 0.0, 0.0, 0.0, -1006.9237359671279, 0.0]
['beep', 0.0, 2661.355157060046, 0.0, 0.0, 0.0, 0.0, -1007.8848609787061, 0.0]
['beep', 0.0, 2661.511619271233, 0.0, 0.0, 0.0, 0.0, -1008.4436545900887, 0.0]
['beep', 0.0, 2661.2657500822247, 0.0, 0.0, 0.0, 0.0, -1007.3484191117788, 0.0]
['beep', 0.0, 2660.103459370549, 0.0, 0.0, 0.0, 0.0, -1007.7731022564295, 0.0]
['beep', 0.0, 2660.6846047263866, 0.0, 0.0, 0.0, 0.0, -1007.951916212072, 0.0]
['beep', 0.0, 2661.3328053155906, 0.0, 0.0, 0.0, 0.0, -1007.0354946894043, 0.0]
['beep', 0.0, 2661.8245436936077, 0.0, 0.0, 0.0, 0.0, -1007.3931226006894, 0.0]
['beep', 0.0, 2661.712784971331, 0.0, 0.0, 0.0, 0.0, -1007.1696051561363, 0.0]
['beep', 0.0, 2660.5951977485656, 0.0, 0.0, 0.0, 0.0, -1008.3989511011781, 0.0]
['beep', 0.0, 2661.802191949152, 0.0, 0.0, 0.0, 0.0, -1007.6166400452424, 0.0]
['beep', 0.0, 2662.360985560535, 0.0, 0.0, 0.0, 0.0, -1007.4154743451446, 0.0]
['beep', 0.0, 2661.3328053155906, 0.0, 0.0, 0.0, 0.0, -1007.1025499227703, 0.0]
['beep', 0.0, 2661.712784971331, 0.0, 0.0, 0.0, 0.0, -1007.4601778340552, 0.0]
['beep', 0.0, 2661.064584382127, 0.0, 0.0, 0.0, 0.0, -1008.018971445438, 0.0]
['beep', 0.0, 2660.3493285595573, 0.0, 0.0, 0.0, 0.0, -1006.7002185225748, 0.0]
['beep', 0.0, 2660.818715193119, 0.0, 0.0, 0.0, 0.0, -1007.1919569005915, 0.0]
['beep', 0.0, 2661.2433983377696, 0.0, 0.0, 0.0, 0.0, -1009.0918551792927, 0.0]
['beep', 0.0, 2660.1481628594593, 0.0, 0.0, 0.0, 0.0, -1008.4883580789993, 0.0]
['beep', 0.0, 2660.2375698372807, 0.0, 0.0, 0.0, 0.0, -1009.7847592574071, 0.0]
['beep', 0.0, 2659.7011279703534, 0.0, 0.0, 0.0, 0.0, -1010.8799947357172, 0.0]
['beep', 0.0, 2660.103459370549, 0.0, 0.0, 0.0, 0.0, -1009.4941865794882, 0.0]
['beep', 0.0, 2660.0587558816383, 0.0, 0.0, 0.0, 0.0, -1010.5894220577982, 0.0]
['beep', 0.0, 2659.611720992532, 0.0, 0.0, 0.0, 0.0, -1009.9635732130496, 0.0]
['beep', 0.0, 2659.7011279703534, 0.0, 0.0, 0.0, 0.0, -1009.8294627463177, 0.0]
['beep', 0.0, 2658.874113425507, 0.0, 0.0, 0.0, 0.0, -1011.5505470693764, 0.0]
['beep', 0.0, 2659.5893692480768, 0.0, 0.0, 0.0, 0.0, -1011.5728988138318, 0.0]
['beep', 0.0, 2659.0529273811494, 0.0, 0.0, 0.0, 0.0, -1011.6176023027424, 0.0]
['beep', 0.0, 2657.577712247099, 0.0, 0.0, 0.0, 0.0, -1011.3493813692787, 0.0]
['beep', 0.0, 2657.264787824725, 0.0, 0.0, 0.0, 0.0, -1012.6904860365971, 0.0]
['beep', 0.0, 2657.6894709693756, 0.0, 0.0, 0.0, 0.0, -1011.5505470693764, 0.0]
['beep', 0.0, 2658.538837258677, 0.0, 0.0, 0.0, 0.0, -1010.7458842689854, 0.0]
['beep', 0.0, 2658.449430280856, 0.0, 0.0, 0.0, 0.0, -1011.2376226470021, 0.0]
['beep', 0.0, 2660.103459370549, 0.0, 0.0, 0.0, 0.0, -1009.985924957505, 0.0]
['beep', 0.0, 2661.5339710156886, 0.0, 0.0, 0.0, 0.0, -1008.6001168012759, 0.0]
['beep', 0.0, 2663.9032559279512, 0.0, 0.0, 0.0, 0.0, -1007.5272330674212, 0.0]
['beep', 0.0, 2663.970311161317, 0.0, 0.0, 0.0, 0.0, -1008.2201371455357, 0.0]
['beep', 0.0, 2663.3444623165683, 0.0, 0.0, 0.0, 0.0, -1008.3765993567229, 0.0]
['beep', 0.0, 2661.9586541603394, 0.0, 0.0, 0.0, 0.0, -1007.4825295785106, 0.0]
['beep', 0.0, 2662.38333730499, 0.0, 0.0, 0.0, 0.0, -1007.9966197009826, 0.0]
['beep', 0.0, 2661.489267526778, 0.0, 0.0, 0.0, 0.0, -1008.4436545900887, 0.0]
['beep', 0.0, 2659.6340727369875, 0.0, 0.0, 0.0, 0.0, -1009.1589104126585, 0.0]
['beep', 0.0, 2659.0752791256045, 0.0, 0.0, 0.0, 0.0, -1010.8799947357172, 0.0]
['beep', 0.0, 2660.2822733261914, 0.0, 0.0, 0.0, 0.0, -1012.0199337029379, 0.0]
['beep', 0.0, 2661.0869361265823, 0.0, 0.0, 0.0, 0.0, -1011.1035121802703, 0.0]
['beep', 0.0, 2660.3716803040124, 0.0, 0.0, 0.0, 0.0, -1010.2988493798792, 0.0]
['beep', 0.0, 2660.036404137183, 0.0, 0.0, 0.0, 0.0, -1010.209442402058, 0.0]
['beep', 0.0, 2660.706956470842, 0.0, 0.0, 0.0, 0.0, -1011.2152709025469, 0.0]
['beep', 0.0, 2660.259921581736, 0.0, 0.0, 0.0, 0.0, -1012.4222651031334, 0.0]
['beep', 0.0, 2659.9246454149065, 0.0, 0.0, 0.0, 0.0, -1012.0646371918485, 0.0]
['beep', 0.0, 2659.2093895923367, 0.0, 0.0, 0.0, 0.0, -1010.6117738022535, 0.0]
['beep', 0.0, 2660.0587558816383, 0.0, 0.0, 0.0, 0.0, -1011.7964162583849, 0.0]
['beep', 0.0, 2660.550494259655, 0.0, 0.0, 0.0, 0.0, -1011.8187680028401, 0.0]
['beep', 0.0, 2659.9469971593617, 0.0, 0.0, 0.0, 0.0, -1012.243451147491, 0.0]
['beep', 0.0, 2659.835238437085, 0.0, 0.0, 0.0, 0.0, -1013.5175005814434, 0.0]
['beep', 0.0, 2660.796363448663, 0.0, 0.0, 0.0, 0.0, -1012.5116720809547, 0.0]
['beep', 0.0, 2661.735136715786, 0.0, 0.0, 0.0, 0.0, -1013.0704656923373, 0.0]
['beep', 0.0, 2660.9528256598505, 0.0, 0.0, 0.0, 0.0, -1013.0034104589714, 0.0]
['beep', 0.0, 2662.00335764925, 0.0, 0.0, 0.0, 0.0, -1013.5175005814434, 0.0]
['beep', 0.0, 2662.6068547495433, 0.0, 0.0, 0.0, 0.0, -1013.338686625801, 0.0]
['beep', 0.0, 2661.6010262490545, 0.0, 0.0, 0.0, 0.0, -1011.6399540471976, 0.0]
['beep', 0.0, 2660.259921581736, 0.0, 0.0, 0.0, 0.0, -1011.9305267251167, 0.0]
['beep', 0.0, 2658.829409936596, 0.0, 0.0, 0.0, 0.0, -1011.1705674136363, 0.0]
['beep', 0.0, 2658.874113425507, 0.0, 0.0, 0.0, 0.0, -1010.3882563577005, 0.0]
['beep', 0.0, 2660.483439026289, 0.0, 0.0, 0.0, 0.0, -1009.8294627463177, 0.0]
['beep', 0.0, 2660.9528256598505, 0.0, 0.0, 0.0, 0.0, -1009.4941865794882, 0.0]
['beep', 0.0, 2661.6233779935096, 0.0, 0.0, 0.0, 0.0, -1010.3212011243345, 0.0]
['beep', 0.0, 2663.009186149739, 0.0, 0.0, 0.0, 0.0, -1011.1705674136363, 0.0]
['beep', 0.0, 2662.070412882616, 0.0, 0.0, 0.0, 0.0, -1010.0753319353262, 0.0]
['beep', 0.0, 2661.109287871038, 0.0, 0.0, 0.0, 0.0, -1010.9694017135384, 0.0]
['beep', 0.0, 2662.450392538356, 0.0, 0.0, 0.0, 0.0, -1010.8352912468066, 0.0]
['beep', 0.0, 2662.38333730499, 0.0, 0.0, 0.0, 0.0, -1010.7682360134406, 0.0]
['beep', 0.0, 2661.0422326376715, 0.0, 0.0, 0.0, 0.0, -1010.8576429912619, 0.0]
['beep', 0.0, 2661.3998605489564, 0.0, 0.0, 0.0, 0.0, -1012.0199337029379, 0.0]
['beep', 0.0, 2661.6010262490545, 0.0, 0.0, 0.0, 0.0, -1010.3659046132451, 0.0]
['beep', 0.0, 2662.6068547495433, 0.0, 0.0, 0.0, 0.0, -1009.3824278572116, 0.0]
['beep', 0.0, 2663.2997588276576, 0.0, 0.0, 0.0, 0.0, -1010.8352912468066, 0.0]
['beep', 0.0, 2661.422212293412, 0.0, 0.0, 0.0, 0.0, -1010.2764976354239, 0.0]
['beep', 0.0, 2660.841066937574, 0.0, 0.0, 0.0, 0.0, -1010.6341255467088, 0.0]
['beep', 0.0, 2661.0869361265823, 0.0, 0.0, 0.0, 0.0, -1009.8071110018625, 0.0]
['beep', 0.0, 2661.489267526778, 0.0, 0.0, 0.0, 0.0, -1009.8294627463177, 0.0]
['beep', 0.0, 2662.00335764925, 0.0, 0.0, 0.0, 0.0, -1010.1200354242368, 0.0]
['beep', 0.0, 2662.00335764925, 0.0, 0.0, 0.0, 0.0, -1011.0141052024491, 0.0]
['beep', 0.0, 2661.735136715786, 0.0, 0.0, 0.0, 0.0, -1010.6788290356194, 0.0]
['beep', 0.0, 2663.3444623165683, 0.0, 0.0, 0.0, 0.0, -1010.0529801908708, 0.0]
['beep', 0.0, 2663.6573867389425, 0.0, 0.0, 0.0, 0.0, -1009.4271313461222, 0.0]
['beep', 0.0, 2663.411517549934, 0.0, 0.0, 0.0, 0.0, -1009.8741662352284, 0.0]
['beep', 0.0, 2663.5009245277556, 0.0, 0.0, 0.0, 0.0, -1011.3270296248234, 0.0]
['beep', 0.0, 2663.724441972309, 0.0, 0.0, 0.0, 0.0, -1012.466968592044, 0.0]
['beep', 0.0, 2665.132601872993, 0.0, 0.0, 0.0, 0.0, -1011.595250558287, 0.0]
['beep', 0.0, 2664.774973961708, 0.0, 0.0, 0.0, 0.0, -1010.5223668244323, 0.0]
['beep', 0.0, 2665.937264673384, 0.0, 0.0, 0.0, 0.0, -1010.8352912468066, 0.0]
['beep', 0.0, 2663.4338692943898, 0.0, 0.0, 0.0, 0.0, -1010.8799947357172, 0.0]
['beep', 0.0, 2663.1432966164707, 0.0, 0.0, 0.0, 0.0, -1010.9917534579937, 0.0]
['beep', 0.0, 2663.2997588276576, 0.0, 0.0, 0.0, 0.0, -1010.1870906576027, 0.0]
['beep', 0.0, 2663.3444623165683, 0.0, 0.0, 0.0, 0.0, -1010.1200354242368, 0.0]
['beep', 0.0, 2662.9421309163727, 0.0, 0.0, 0.0, 0.0, -1010.8576429912619, 0.0]
['beep', 0.0, 2663.9479594168615, 0.0, 0.0, 0.0, 0.0, -1011.5728988138318, 0.0]
['beep', 0.0, 2663.3444623165683, 0.0, 0.0, 0.0, 0.0, -1011.8634714917507, 0.0]
['beep', 0.0, 2662.8527239385517, 0.0, 0.0, 0.0, 0.0, -1011.3046778803681, 0.0]
['beep', 0.0, 2664.5514565171547, 0.0, 0.0, 0.0, 0.0, -1011.5281953249212, 0.0]
['beep', 0.0, 2665.5349332731885, 0.0, 0.0, 0.0, 0.0, -1012.6904860365971, 0.0]
['beep', 0.0, 2665.2443605952694, 0.0, 0.0, 0.0, 0.0, -1012.3999133586781, 0.0]
['beep', 0.0, 2664.126773372504, 0.0, 0.0, 0.0, 0.0, -1012.7128377810524, 0.0]
['beep', 0.0, 2664.2832355836913, 0.0, 0.0, 0.0, 0.0, -1011.9975819584826, 0.0]
['beep', 0.0, 2663.2327035942917, 0.0, 0.0, 0.0, 0.0, -1010.0529801908708, 0.0]
['beep', 0.0, 2663.165648360926, 0.0, 0.0, 0.0, 0.0, -1010.5447185688876, 0.0]
['beep', 0.0, 2663.366814061024, 0.0, 0.0, 0.0, 0.0, -1010.8129395023512, 0.0]
['beep', 0.0, 2662.9644826608283, 0.0, 0.0, 0.0, 0.0, -1010.6564772911642, 0.0]
['beep', 0.0, 2663.389165805479, 0.0, 0.0, 0.0, 0.0, -1011.7740645139295, 0.0]
['beep', 0.0, 2663.322110572113, 0.0, 0.0, 0.0, 0.0, -1012.1987476585804, 0.0]
['beep', 0.0, 2662.2492268382584, 0.0, 0.0, 0.0, 0.0, -1011.3493813692787, 0.0]
['beep', 0.0, 2662.159819860437, 0.0, 0.0, 0.0, 0.0, -1011.8411197472955, 0.0]
['beep', 0.0, 2663.7914972056747, 0.0, 0.0, 0.0, 0.0, -1011.7293610250189, 0.0]
['beep', 0.0, 2663.8585524390405, 0.0, 0.0, 0.0, 0.0, -1011.8411197472955, 0.0]
['beep', 0.0, 2662.673909982909, 0.0, 0.0, 0.0, 0.0, -1012.0869889363038, 0.0]
['beep', 0.0, 2663.5009245277556, 0.0, 0.0, 0.0, 0.0, -1011.7070092805636, 0.0]
['beep', 0.0, 2662.673909982909, 0.0, 0.0, 0.0, 0.0, -1012.2210994030356, 0.0]
['beep', 0.0, 2662.2492268382584, 0.0, 0.0, 0.0, 0.0, -1012.243451147491, 0.0]
['beep', 0.0, 2663.389165805479, 0.0, 0.0, 0.0, 0.0, -1012.8916517366948, 0.0]
['beep', 0.0, 2662.2715785827136, 0.0, 0.0, 0.0, 0.0, -1012.7798930144183, 0.0]
['beep', 0.0, 2662.070412882616, 0.0, 0.0, 0.0, 0.0, -1013.1375209257033, 0.0]
['beep', 0.0, 2662.9868344052834, 0.0, 0.0, 0.0, 0.0, -1013.562204070354, 0.0]
['beep', 0.0, 2662.6068547495433, 0.0, 0.0, 0.0, 0.0, -1013.1375209257033, 0.0]
['beep', 0.0, 2662.4950960272668, 0.0, 0.0, 0.0, 0.0, -1012.2210994030356, 0.0]
['beep', 0.0, 2662.3386338160794, 0.0, 0.0, 0.0, 0.0, -1013.7857215149071, 0.0]
['beep', 0.0, 2661.869247182518, 0.0, 0.0, 0.0, 0.0, -1014.8586052487618, 0.0]
['beep', 0.0, 2662.159819860437, 0.0, 0.0, 0.0, 0.0, -1014.4562738485663, 0.0]
['beep', 0.0, 2661.2657500822247, 0.0, 0.0, 0.0, 0.0, -1013.9198319816389, 0.0]
['beep', 0.0, 2661.489267526778, 0.0, 0.0, 0.0, 0.0, -1014.3668668707451, 0.0]
['beep', 0.0, 2663.031537894194, 0.0, 0.0, 0.0, 0.0, -1015.2385849045021, 0.0]
['beep', 0.0, 2662.785668705186, 0.0, 0.0, 0.0, 0.0, -1014.6574395486641, 0.0]
['beep', 0.0, 2662.1151163715263, 0.0, 0.0, 0.0, 0.0, -1013.0928174367926, 0.0]
['beep', 0.0, 2661.489267526778, 0.0, 0.0, 0.0, 0.0, -1014.72449478203, 0.0]
['beep', 0.0, 2661.3998605489564, 0.0, 0.0, 0.0, 0.0, -1013.3833901147116, 0.0]
['beep', 0.0, 2661.936302415884, 0.0, 0.0, 0.0, 0.0, -1012.7798930144183, 0.0]
['beep', 0.0, 2661.0869361265823, 0.0, 0.0, 0.0, 0.0, -1012.3999133586781, 0.0]
['beep', 0.0, 2660.0140523927275, 0.0, 0.0, 0.0, 0.0, -1012.176395914125, 0.0]
['beep', 0.0, 2660.6622529819315, 0.0, 0.0, 0.0, 0.0, -1013.7410180259965, 0.0]
['beep', 0.0, 2660.550494259655, 0.0, 0.0, 0.0, 0.0, -1011.7964162583849, 0.0]
['beep', 0.0, 2661.6680814824203, 0.0, 0.0, 0.0, 0.0, -1011.4164366026446, 0.0]
['beep', 0.0, 2661.3328053155906, 0.0, 0.0, 0.0, 0.0, -1011.0141052024491, 0.0]
['beep', 0.0, 2661.779840204697, 0.0, 0.0, 0.0, 0.0, -1010.6564772911642, 0.0]
['beep', 0.0, 2662.8974274274624, 0.0, 0.0, 0.0, 0.0, -1011.6176023027424, 0.0]
['beep', 0.0, 2663.389165805479, 0.0, 0.0, 0.0, 0.0, -1011.5505470693764, 0.0]
['beep', 0.0, 2662.785668705186, 0.0, 0.0, 0.0, 0.0, -1012.466968592044, 0.0]
['beep', 0.0, 2662.1151163715263, 0.0, 0.0, 0.0, 0.0, -1012.0199337029379, 0.0]
['beep', 0.0, 2661.9586541603394, 0.0, 0.0, 0.0, 0.0, -1011.8634714917507, 0.0]
['beep', 0.0, 2662.137468115982, 0.0, 0.0, 0.0, 0.0, -1013.6739627926306, 0.0]
['beep', 0.0, 2661.8915989269735, 0.0, 0.0, 0.0, 0.0, -1013.2045761590691, 0.0]
['beep', 0.0, 2662.5621512606326, 0.0, 0.0, 0.0, 0.0, -1014.2998116373792, 0.0]
['beep', 0.0, 2663.366814061024, 0.0, 0.0, 0.0, 0.0, -1015.4173988601445, 0.0]
['beep', 0.0, 2662.808020449641, 0.0, 0.0, 0.0, 0.0, -1016.1326546827144, 0.0]
['beep', 0.0, 2661.153991359948, 0.0, 0.0, 0.0, 0.0, -1015.5515093268764, 0.0]
['beep', 0.0, 2661.5339710156886, 0.0, 0.0, 0.0, 0.0, -1013.0704656923373, 0.0]
['beep', 0.0, 2661.1763431044037, 0.0, 0.0, 0.0, 0.0, -1012.4446168475887, 0.0]
['beep', 0.0, 2660.9304739153954, 0.0, 0.0, 0.0, 0.0, -1012.0869889363038, 0.0]
['beep', 0.0, 2661.489267526778, 0.0, 0.0, 0.0, 0.0, -1012.8022447588736, 0.0]
['beep', 0.0, 2660.4387355373783, 0.0, 0.0, 0.0, 0.0, -1012.3105063808569, 0.0]
['beep', 0.0, 2660.9528256598505, 0.0, 0.0, 0.0, 0.0, -1011.7740645139295, 0.0]
['beep', 0.0, 2662.00335764925, 0.0, 0.0, 0.0, 0.0, -1013.3610383702563, 0.0]
['beep', 0.0, 2660.6622529819315, 0.0, 0.0, 0.0, 0.0, -1013.6963145370859, 0.0]
['beep', 0.0, 2661.2881018266803, 0.0, 0.0, 0.0, 0.0, -1012.7798930144183, 0.0]
['beep', 0.0, 2660.9304739153954, 0.0, 0.0, 0.0, 0.0, -1012.1540441696698, 0.0]
['beep', 0.0, 2660.818715193119, 0.0, 0.0, 0.0, 0.0, -1011.4834918360106, 0.0]
['beep', 0.0, 2662.2492268382584, 0.0, 0.0, 0.0, 0.0, -1011.5505470693764, 0.0]
['beep', 0.0, 2662.6068547495433, 0.0, 0.0, 0.0, 0.0, -1012.2210994030356, 0.0]
['beep', 0.0, 2662.360985560535, 0.0, 0.0, 0.0, 0.0, -1012.824596503329, 0.0]
['beep', 0.0, 2662.00335764925, 0.0, 0.0, 0.0, 0.0, -1012.5563755698653, 0.0]
['beep', 0.0, 2663.009186149739, 0.0, 0.0, 0.0, 0.0, -1012.3552098697675, 0.0]
['beep', 0.0, 2662.226875093803, 0.0, 0.0, 0.0, 0.0, -1011.9081749806613, 0.0]
['beep', 0.0, 2662.6292064939985, 0.0, 0.0, 0.0, 0.0, -1012.7798930144183, 0.0]
['beep', 0.0, 2662.6515582384536, 0.0, 0.0, 0.0, 0.0, -1012.7798930144183, 0.0]
['beep', 0.0, 2663.411517549934, 0.0, 0.0, 0.0, 0.0, -1012.1093406807591, 0.0]
['beep', 0.0, 2662.159819860437, 0.0, 0.0, 0.0, 0.0, -1010.7458842689854, 0.0]
['beep', 0.0, 2661.712784971331, 0.0, 0.0, 0.0, 0.0, -1012.3328581253122, 0.0]
['beep', 0.0, 2662.4056890494453, 0.0, 0.0, 0.0, 0.0, -1012.8469482477842, 0.0]
['beep', 0.0, 2663.5232762722108, 0.0, 0.0, 0.0, 0.0, -1011.662305791653, 0.0]
['beep', 0.0, 2663.8585524390405, 0.0, 0.0, 0.0, 0.0, -1012.3552098697675, 0.0]
['beep', 0.0, 2663.679738483398, 0.0, 0.0, 0.0, 0.0, -1012.9363552256054, 0.0]
['beep', 0.0, 2663.031537894194, 0.0, 0.0, 0.0, 0.0, -1011.9975819584826, 0.0]
['beep', 0.0, 2663.746793716764, 0.0, 0.0, 0.0, 0.0, -1009.8294627463177, 0.0]
['beep', 0.0, 2664.417346050423, 0.0, 0.0, 0.0, 0.0, -1010.7458842689854, 0.0]
['beep', 0.0, 2666.093726884571, 0.0, 0.0, 0.0, 0.0, -1011.9752302140273, 0.0]
['beep', 0.0, 2667.2113141073364, 0.0, 0.0, 0.0, 0.0, -1011.5058435804658, 0.0]
['beep', 0.0, 2666.8313344515964, 0.0, 0.0, 0.0, 0.0, -1010.5447185688876, 0.0]
['beep', 0.0, 2666.4737065403115, 0.0, 0.0, 0.0, 0.0, -1010.4329598466111, 0.0]
['beep', 0.0, 2665.9596164178392, 0.0, 0.0, 0.0, 0.0, -1011.081160435815, 0.0]
['beep', 0.0, 2665.4678780398226, 0.0, 0.0, 0.0, 0.0, -1010.0082767019602, 0.0]
['beep', 0.0, 2667.0548518961496, 0.0, 0.0, 0.0, 0.0, -1011.1482156691809, 0.0]
['beep', 0.0, 2666.585465262588, 0.0, 0.0, 0.0, 0.0, -1011.2823261359127, 0.0]
['beep', 0.0, 2665.7584507177417, 0.0, 0.0, 0.0, 0.0, -1010.3882563577005, 0.0]
['beep', 0.0, 2665.9596164178392, 0.0, 0.0, 0.0, 0.0, -1010.6117738022535, 0.0]
['beep', 0.0, 2665.691395484376, 0.0, 0.0, 0.0, 0.0, -1011.1482156691809, 0.0]
['beep', 0.0, 2664.976139661806, 0.0, 0.0, 0.0, 0.0, -1012.0199337029379, 0.0]
['beep', 0.0, 2664.9314361728952, 0.0, 0.0, 0.0, 0.0, -1013.0257622034267, 0.0]
['beep', 0.0, 2664.9314361728952, 0.0, 0.0, 0.0, 0.0, -1012.4446168475887, 0.0]
['beep', 0.0, 2664.394994305968, 0.0, 0.0, 0.0, 0.0, -1012.3105063808569, 0.0]
['beep', 0.0, 2663.5679797611215, 0.0, 0.0, 0.0, 0.0, -1011.5505470693764, 0.0]
['beep', 0.0, 2662.785668705186, 0.0, 0.0, 0.0, 0.0, -1012.5340238254099, 0.0]
['beep', 0.0, 2662.9197791719175, 0.0, 0.0, 0.0, 0.0, -1013.1151691812479, 0.0]
['beep', 0.0, 2663.076241383105, 0.0, 0.0, 0.0, 0.0, -1014.3445151262898, 0.0]
['beep', 0.0, 2663.2997588276576, 0.0, 0.0, 0.0, 0.0, -1014.1880529151026, 0.0]
['beep', 0.0, 2663.9926629057722, 0.0, 0.0, 0.0, 0.0, -1013.7186662815412, 0.0]
['beep', 0.0, 2663.009186149739, 0.0, 0.0, 0.0, 0.0, -1013.2939831368903, 0.0]
['beep', 0.0, 2662.0480611381604, 0.0, 0.0, 0.0, 0.0, -1015.082122693315, 0.0]
['beep', 0.0, 2661.8245436936077, 0.0, 0.0, 0.0, 0.0, -1012.8022447588736, 0.0]
['beep', 0.0, 2662.00335764925, 0.0, 0.0, 0.0, 0.0, -1012.6010790587759, 0.0]
['beep', 0.0, 2662.070412882616, 0.0, 0.0, 0.0, 0.0, -1014.791550015396, 0.0]
['beep', 0.0, 2661.735136715786, 0.0, 0.0, 0.0, 0.0, -1015.0374192044043, 0.0]
['beep', 0.0, 2663.5009245277556, 0.0, 0.0, 0.0, 0.0, -1013.6963145370859, 0.0]
['beep', 0.0, 2666.2725408402134, 0.0, 0.0, 0.0, 0.0, -1011.7740645139295, 0.0]
['beep', 0.0, 2667.8148112076296, 0.0, 0.0, 0.0, 0.0, -1011.0141052024491, 0.0]
['beep', 0.0, 2667.747755974264, 0.0, 0.0, 0.0, 0.0, -1010.4553115910663, 0.0]
['beep', 0.0, 2667.546590274166, 0.0, 0.0, 0.0, 0.0, -1009.4941865794882, 0.0]
['beep', 0.0, 2666.7642792182305, 0.0, 0.0, 0.0, 0.0, -1011.0364569469043, 0.0]
['beep', 0.0, 2665.736098973286, 0.0, 0.0, 0.0, 0.0, -1012.9587069700608, 0.0]
['beep', 0.0, 2664.0820698835937, 0.0, 0.0, 0.0, 0.0, -1012.2658028919462, 0.0]
['beep', 0.0, 2665.2443605952694, 0.0, 0.0, 0.0, 0.0, -1013.1822244146139, 0.0]
['beep', 0.0, 2665.9819681622944, 0.0, 0.0, 0.0, 0.0, -1013.6963145370859, 0.0]
['beep', 0.0, 2665.3114158286353, 0.0, 0.0, 0.0, 0.0, -1013.0034104589714, 0.0]
['beep', 0.0, 2665.1996571063587, 0.0, 0.0, 0.0, 0.0, -1013.6963145370859, 0.0]
['beep', 0.0, 2665.28906408418, 0.0, 0.0, 0.0, 0.0, -1013.1822244146139, 0.0]
['beep', 0.0, 2665.356119317546, 0.0, 0.0, 0.0, 0.0, -1014.5233290819323, 0.0]
['beep', 0.0, 2665.2667123397246, 0.0, 0.0, 0.0, 0.0, -1013.7410180259965, 0.0]
['beep', 0.0, 2668.0830321410936, 0.0, 0.0, 0.0, 0.0, -1013.7410180259965, 0.0]
['beep', 0.0, 2668.328901330102, 0.0, 0.0, 0.0, 0.0, -1014.7691982709406, 0.0]
['beep', 0.0, 2667.8595146965404, 0.0, 0.0, 0.0, 0.0, -1013.6069075592646, 0.0]
['beep', 0.0, 2668.038328652183, 0.0, 0.0, 0.0, 0.0, -1013.9421837260943, 0.0]
['beep', 0.0, 2667.680700740898, 0.0, 0.0, 0.0, 0.0, -1014.9256604821278, 0.0]
['beep', 0.0, 2667.703052485353, 0.0, 0.0, 0.0, 0.0, -1014.7468465264853, 0.0]
['beep', 0.0, 2667.4124798074345, 0.0, 0.0, 0.0, 0.0, -1015.1715296711362, 0.0]
['beep', 0.0, 2667.993625163272, 0.0, 0.0, 0.0, 0.0, -1015.015067459949, 0.0]
['beep', 0.0, 2667.09955538506, 0.0, 0.0, 0.0, 0.0, -1014.5903843152981, 0.0]
['beep', 0.0, 2666.093726884571, 0.0, 0.0, 0.0, 0.0, -1014.6797912931194, 0.0]
['beep', 0.0, 2667.300721085158, 0.0, 0.0, 0.0, 0.0, -1013.8527767482731, 0.0]
['beep', 0.0, 2668.1053838855487, 0.0, 0.0, 0.0, 0.0, -1014.9927157154937, 0.0]
['beep', 0.0, 2668.351253074557, 0.0, 0.0, 0.0, 0.0, -1014.6350878042088, 0.0]
['beep', 0.0, 2668.038328652183, 0.0, 0.0, 0.0, 0.0, -1015.7973785158848, 0.0]
['beep', 0.0, 2668.2394943522804, 0.0, 0.0, 0.0, 0.0, -1017.1161314387479, 0.0]
['beep', 0.0, 2669.4464885528673, 0.0, 0.0, 0.0, 0.0, -1015.1938814155915, 0.0]
['beep', 0.0, 2669.312378086135, 0.0, 0.0, 0.0, 0.0, -1015.1491779266809, 0.0]
['beep', 0.0, 2669.1112123860376, 0.0, 0.0, 0.0, 0.0, -1016.6690965496417, 0.0]
['beep', 0.0, 2668.641825752476, 0.0, 0.0, 0.0, 0.0, -1016.7361517830077, 0.0]
['beep', 0.0, 2667.0772036406047, 0.0, 0.0, 0.0, 0.0, -1016.3785238717228, 0.0]
['beep', 0.0, 2666.943093173873, 0.0, 0.0, 0.0, 0.0, -1016.0879511938037, 0.0]
['beep', 0.0, 2668.1053838855487, 0.0, 0.0, 0.0, 0.0, -1016.1326546827144, 0.0]
['beep', 0.0, 2668.485363541289, 0.0, 0.0, 0.0, 0.0, -1016.0879511938037, 0.0]
['beep', 0.0, 2667.971273418817, 0.0, 0.0, 0.0, 0.0, -1014.7468465264853, 0.0]
['beep', 0.0, 2667.9265699299062, 0.0, 0.0, 0.0, 0.0, -1014.5903843152981, 0.0]
['beep', 0.0, 2667.09955538506, 0.0, 0.0, 0.0, 0.0, -1015.7973785158848, 0.0]
['beep', 0.0, 2666.4737065403115, 0.0, 0.0, 0.0, 0.0, -1015.5515093268764, 0.0]
['beep', 0.0, 2666.5184100292217, 0.0, 0.0, 0.0, 0.0, -1014.6127360597535, 0.0]
['beep', 0.0, 2666.8313344515964, 0.0, 0.0, 0.0, 0.0, -1016.6020413162759, 0.0]
['beep', 0.0, 2666.1831338623924, 0.0, 0.0, 0.0, 0.0, -1015.886785493706, 0.0]
['beep', 0.0, 2665.8478576955627, 0.0, 0.0, 0.0, 0.0, -1015.4173988601445, 0.0]
['beep', 0.0, 2666.4737065403115, 0.0, 0.0, 0.0, 0.0, -1014.8139017598512, 0.0]
['beep', 0.0, 2667.300721085158, 0.0, 0.0, 0.0, 0.0, -1016.0879511938037, 0.0]
['beep', 0.0, 2667.8371629520852, 0.0, 0.0, 0.0, 0.0, -1016.3114686383568, 0.0]
['beep', 0.0, 2667.2113141073364, 0.0, 0.0, 0.0, 0.0, -1015.1268261822256, 0.0]
['beep', 0.0, 2666.652520495954, 0.0, 0.0, 0.0, 0.0, -1014.2551081484686, 0.0]
['beep', 0.0, 2667.635997251987, 0.0, 0.0, 0.0, 0.0, -1014.3892186152004, 0.0]
['beep', 0.0, 2669.312378086135, 0.0, 0.0, 0.0, 0.0, -1016.1326546827144, 0.0]
['beep', 0.0, 2668.932398430395, 0.0, 0.0, 0.0, 0.0, -1018.0996081947814, 0.0]
['beep', 0.0, 2668.3065495856467, 0.0, 0.0, 0.0, 0.0, -1016.1997099160803, 0.0]
['beep', 0.0, 2668.641825752476, 0.0, 0.0, 0.0, 0.0, -1015.7973785158848, 0.0]
['beep', 0.0, 2668.3065495856467, 0.0, 0.0, 0.0, 0.0, -1015.2162331600468, 0.0]
['beep', 0.0, 2668.708880985842, 0.0, 0.0, 0.0, 0.0, -1015.3503436267787, 0.0]
['beep', 0.0, 2668.999453663761, 0.0, 0.0, 0.0, 0.0, -1016.6690965496417, 0.0]
['beep', 0.0, 2668.1500873744594, 0.0, 0.0, 0.0, 0.0, -1016.0432477048931, 0.0]
['beep', 0.0, 2668.1500873744594, 0.0, 0.0, 0.0, 0.0, -1016.5796895718205, 0.0]
['beep', 0.0, 2668.1053838855487, 0.0, 0.0, 0.0, 0.0, -1016.4902825939993, 0.0]
['beep', 0.0, 2667.7701077187194, 0.0, 0.0, 0.0, 0.0, -1015.7973785158848, 0.0]
['beep', 0.0, 2667.591293763077, 0.0, 0.0, 0.0, 0.0, -1015.4844540935105, 0.0]
['beep', 0.0, 2667.9265699299062, 0.0, 0.0, 0.0, 0.0, -1014.3668668707451, 0.0]
['beep', 0.0, 2667.658348996443, 0.0, 0.0, 0.0, 0.0, -1013.9645354705495, 0.0]
['beep', 0.0, 2667.300721085158, 0.0, 0.0, 0.0, 0.0, -1014.2998116373792, 0.0]
['beep', 0.0, 2666.697223984864, 0.0, 0.0, 0.0, 0.0, -1015.2162331600468, 0.0]
['beep', 0.0, 2668.038328652183, 0.0, 0.0, 0.0, 0.0, -1016.0208959604379, 0.0]
['beep', 0.0, 2667.7701077187194, 0.0, 0.0, 0.0, 0.0, -1016.7138000385523, 0.0]
['beep', 0.0, 2667.4795350408003, 0.0, 0.0, 0.0, 0.0, -1018.2784221504238, 0.0]
['beep', 0.0, 2667.233665851792, 0.0, 0.0, 0.0, 0.0, -1018.8595675062618, 0.0]
['beep', 0.0, 2666.585465262588, 0.0, 0.0, 0.0, 0.0, -1017.8090355168624, 0.0]
['beep', 0.0, 2667.2113141073364, 0.0, 0.0, 0.0, 0.0, -1016.6914482940971, 0.0]
['beep', 0.0, 2667.658348996443, 0.0, 0.0, 0.0, 0.0, -1015.4621023490552, 0.0]
['beep', 0.0, 2666.697223984864, 0.0, 0.0, 0.0, 0.0, -1015.5291575824211, 0.0]
['beep', 0.0, 2667.1889623628813, 0.0, 0.0, 0.0, 0.0, -1017.1608349276585, 0.0]
['beep', 0.0, 2668.351253074557, 0.0, 0.0, 0.0, 0.0, -1017.5408145833987, 0.0]
['beep', 0.0, 2666.4290030514007, 0.0, 0.0, 0.0, 0.0, -1016.9596692275608, 0.0]
['beep', 0.0, 2666.4737065403115, 0.0, 0.0, 0.0, 0.0, -1016.7138000385523, 0.0]
['beep', 0.0, 2667.747755974264, 0.0, 0.0, 0.0, 0.0, -1017.4290558611222, 0.0]
['beep', 0.0, 2667.010148407239, 0.0, 0.0, 0.0, 0.0, -1016.758503527463, 0.0]
['beep', 0.0, 2667.3677763185237, 0.0, 0.0, 0.0, 0.0, -1016.177358171625, 0.0]
['beep', 0.0, 2667.8148112076296, 0.0, 0.0, 0.0, 0.0, -1016.8032070163736, 0.0]
['beep', 0.0, 2667.993625163272, 0.0, 0.0, 0.0, 0.0, -1017.1831866721138, 0.0]
['beep', 0.0, 2668.418308307923, 0.0, 0.0, 0.0, 0.0, -1016.3114686383568, 0.0]
['beep', 0.0, 2667.233665851792, 0.0, 0.0, 0.0, 0.0, -1016.0655994493485, 0.0]
['beep', 0.0, 2667.7701077187194, 0.0, 0.0, 0.0, 0.0, -1018.5466430838875, 0.0]
['beep', 0.0, 2667.8818664409955, 0.0, 0.0, 0.0, 0.0, -1018.5466430838875, 0.0]
['beep', 0.0, 2667.3677763185237, 0.0, 0.0, 0.0, 0.0, -1018.2560704059686, 0.0]
['beep', 0.0, 2666.7642792182305, 0.0, 0.0, 0.0, 0.0, -1017.2055384165691, 0.0]
['beep', 0.0, 2666.965444918328, 0.0, 0.0, 0.0, 0.0, -1017.6078698167646, 0.0]
['beep', 0.0, 2667.904218185451, 0.0, 0.0, 0.0, 0.0, -1017.1384831832032, 0.0]
['beep', 0.0, 2667.09955538506, 0.0, 0.0, 0.0, 0.0, -1016.6690965496417, 0.0]
['beep', 0.0, 2667.4348315518896, 0.0, 0.0, 0.0, 0.0, -1016.467930849544, 0.0]
['beep', 0.0, 2667.4348315518896, 0.0, 0.0, 0.0, 0.0, -1017.5855180723094, 0.0]
['beep', 0.0, 2669.1559158749483, 0.0, 0.0, 0.0, 0.0, -1018.3231256393344, 0.0]
['beep', 0.0, 2668.708880985842, 0.0, 0.0, 0.0, 0.0, -1018.6807535506193, 0.0]
['beep', 0.0, 2667.2783693407023, 0.0, 0.0, 0.0, 0.0, -1017.8313872613177, 0.0]
['beep', 0.0, 2667.7701077187194, 0.0, 0.0, 0.0, 0.0, -1017.9878494725049, 0.0]
['beep', 0.0, 2667.09955538506, 0.0, 0.0, 0.0, 0.0, -1017.4514076055775, 0.0]
['beep', 0.0, 2666.943093173873, 0.0, 0.0, 0.0, 0.0, -1016.0208959604379, 0.0]
['beep', 0.0, 2667.8371629520852, 0.0, 0.0, 0.0, 0.0, -1015.9761924715273, 0.0]
['beep', 0.0, 2668.19479086337, 0.0, 0.0, 0.0, 0.0, -1015.6856197936082, 0.0]
['beep', 0.0, 2668.1500873744594, 0.0, 0.0, 0.0, 0.0, -1015.7526750269742, 0.0]
['beep', 0.0, 2667.390128062979, 0.0, 0.0, 0.0, 0.0, -1017.0043727164714, 0.0]
['beep', 0.0, 2666.8983896849622, 0.0, 0.0, 0.0, 0.0, -1016.6690965496417, 0.0]
['beep', 0.0, 2667.3677763185237, 0.0, 0.0, 0.0, 0.0, -1015.1268261822256, 0.0]
['beep', 0.0, 2665.937264673384, 0.0, 0.0, 0.0, 0.0, -1014.2551081484686, 0.0]
['beep', 0.0, 2666.294892584669, 0.0, 0.0, 0.0, 0.0, -1014.3892186152004, 0.0]
['beep', 0.0, 2667.5242385297106, 0.0, 0.0, 0.0, 0.0, -1014.5903843152981, 0.0]
['beep', 0.0, 2667.613645507532, 0.0, 0.0, 0.0, 0.0, -1013.6739627926306, 0.0]
['beep', 0.0, 2667.323072829613, 0.0, 0.0, 0.0, 0.0, -1014.1209976817368, 0.0]
['beep', 0.0, 2668.7535844747526, 0.0, 0.0, 0.0, 0.0, -1014.2998116373792, 0.0]
['beep', 0.0, 2668.5300670301995, 0.0, 0.0, 0.0, 0.0, -1014.5680325708429, 0.0]
['beep', 0.0, 2668.485363541289, 0.0, 0.0, 0.0, 0.0, -1015.2609366489575, 0.0]
['beep', 0.0, 2668.261846096736, 0.0, 0.0, 0.0, 0.0, -1015.1044744377703, 0.0]
['beep', 0.0, 2669.8935234419732, 0.0, 0.0, 0.0, 0.0, -1014.3445151262898, 0.0]
['beep', 0.0, 2669.312378086135, 0.0, 0.0, 0.0, 0.0, -1014.143349426192, 0.0]
['beep', 0.0, 2669.1559158749483, 0.0, 0.0, 0.0, 0.0, -1013.4057418591669, 0.0]
['beep', 0.0, 2669.9829304197947, 0.0, 0.0, 0.0, 0.0, -1014.72449478203, 0.0]
['beep', 0.0, 2670.675834497909, 0.0, 0.0, 0.0, 0.0, -1014.0986459372814, 0.0]
['beep', 0.0, 2670.519372286722, 0.0, 0.0, 0.0, 0.0, -1014.4115703596557, 0.0]
['beep', 0.0, 2669.4017850639566, 0.0, 0.0, 0.0, 0.0, -1014.2327564040132, 0.0]
['beep', 0.0, 2670.0723373976157, 0.0, 0.0, 0.0, 0.0, -1013.8974802371837, 0.0]
['beep', 0.0, 2668.8653431970292, 0.0, 0.0, 0.0, 0.0, -1013.2492796479797, 0.0]
['beep', 0.0, 2668.9547501748502, 0.0, 0.0, 0.0, 0.0, -1013.3610383702563, 0.0]
['beep', 0.0, 2669.7594129752415, 0.0, 0.0, 0.0, 0.0, -1014.3668668707451, 0.0]
['beep', 0.0, 2669.6923577418756, 0.0, 0.0, 0.0, 0.0, -1013.5845558148094, 0.0]
['beep', 0.0, 2670.4076135644455, 0.0, 0.0, 0.0, 0.0, -1012.824596503329, 0.0]
['beep', 0.0, 2669.7594129752415, 0.0, 0.0, 0.0, 0.0, -1013.4504453480776, 0.0]
['beep', 0.0, 2669.4911920417776, 0.0, 0.0, 0.0, 0.0, -1013.62925930372, 0.0]
['beep', 0.0, 2670.9887589202835, 0.0, 0.0, 0.0, 0.0, -1014.0092389594602, 0.0]
['beep', 0.0, 2671.1452211314704, 0.0, 0.0, 0.0, 0.0, -1013.9198319816389, 0.0]
['beep', 0.0, 2670.8546484535514, 0.0, 0.0, 0.0, 0.0, -1013.6739627926306, 0.0]
['beep', 0.0, 2671.9498839318617, 0.0, 0.0, 0.0, 0.0, -1012.981058714516, 0.0]
['beep', 0.0, 2672.6204362655208, 0.0, 0.0, 0.0, 0.0, -1014.3668668707451, 0.0]
['beep', 0.0, 2672.128697887504, 0.0, 0.0, 0.0, 0.0, -1014.2327564040132, 0.0]
['beep', 0.0, 2672.3298635876017, 0.0, 0.0, 0.0, 0.0, -1016.1326546827144, 0.0]
['beep', 0.0, 2673.156878132448, 0.0, 0.0, 0.0, 0.0, -1015.4621023490552, 0.0]
['beep', 0.0, 2674.140354888482, 0.0, 0.0, 0.0, 0.0, -1015.2609366489575, 0.0]
['beep', 0.0, 2674.229761866303, 0.0, 0.0, 0.0, 0.0, -1015.1938814155915, 0.0]
['beep', 0.0, 2674.140354888482, 0.0, 0.0, 0.0, 0.0, -1014.8809569932172, 0.0]
['beep', 0.0, 2675.459107811345, 0.0, 0.0, 0.0, 0.0, -1016.244413404991, 0.0]
['beep', 0.0, 2675.7273287448083, 0.0, 0.0, 0.0, 0.0, -1015.9091372381613, 0.0]
['beep', 0.0, 2675.3026456001576, 0.0, 0.0, 0.0, 0.0, -1015.1715296711362, 0.0]
['beep', 0.0, 2675.704977000353, 0.0, 0.0, 0.0, 0.0, -1014.4562738485663, 0.0]
['beep', 0.0, 2675.9731979338167, 0.0, 0.0, 0.0, 0.0, -1014.7691982709406, 0.0]
['beep', 0.0, 2677.068433412127, 0.0, 0.0, 0.0, 0.0, -1015.3950471156893, 0.0]
['beep', 0.0, 2676.9566746898504, 0.0, 0.0, 0.0, 0.0, -1014.5233290819323, 0.0]
['beep', 0.0, 2677.761337490241, 0.0, 0.0, 0.0, 0.0, -1012.9587069700608, 0.0]
['beep', 0.0, 2678.38718633499, 0.0, 0.0, 0.0, 0.0, -1013.0257622034267, 0.0]
['beep', 0.0, 2679.7282910023087, 0.0, 0.0, 0.0, 0.0, -1014.2551081484686, 0.0]
['beep', 0.0, 2679.5271253022106, 0.0, 0.0, 0.0, 0.0, -1013.562204070354, 0.0]
['beep', 0.0, 2679.4824218133, 0.0, 0.0, 0.0, 0.0, -1013.8527767482731, 0.0]
['beep', 0.0, 2679.772994491219, 0.0, 0.0, 0.0, 0.0, -1013.9421837260943, 0.0]
['beep', 0.0, 2680.264732869236, 0.0, 0.0, 0.0, 0.0, -1013.4504453480776, 0.0]
['beep', 0.0, 2680.1529741469594, 0.0, 0.0, 0.0, 0.0, -1012.4446168475887, 0.0]
['beep', 0.0, 2679.1918491353813, 0.0, 0.0, 0.0, 0.0, -1010.0082767019602, 0.0]
['beep', 0.0, 2679.4600700688447, 0.0, 0.0, 0.0, 0.0, -1009.5612418128541, 0.0]
['beep', 0.0, 2679.393014835479, 0.0, 0.0, 0.0, 0.0, -1010.1647389131474, 0.0]
['beep', 0.0, 2679.996511935772, 0.0, 0.0, 0.0, 0.0, -1009.2706691349351, 0.0]
['beep', 0.0, 2680.4882503137887, 0.0, 0.0, 0.0, 0.0, -1010.0753319353262, 0.0]
['beep', 0.0, 2680.6000090360653, 0.0, 0.0, 0.0, 0.0, -1009.6730005351307, 0.0]
['beep', 0.0, 2679.974160191317, 0.0, 0.0, 0.0, 0.0, -1010.7682360134406, 0.0]
['beep', 0.0, 2679.4824218133, 0.0, 0.0, 0.0, 0.0, -1012.3999133586781, 0.0]
['beep', 0.0, 2680.063567169138, 0.0, 0.0, 0.0, 0.0, -1011.5058435804658, 0.0]
['beep', 0.0, 2680.2200293803253, 0.0, 0.0, 0.0, 0.0, -1011.1258639247256, 0.0]
['beep', 0.0, 2680.5106020582443, 0.0, 0.0, 0.0, 0.0, -1011.4834918360106, 0.0]
['beep', 0.0, 2682.1199276590264, 0.0, 0.0, 0.0, 0.0, -1011.4611400915552, 0.0]
['beep', 0.0, 2682.1646311479367, 0.0, 0.0, 0.0, 0.0, -1012.0199337029379, 0.0]
['beep', 0.0, 2682.0528724256606, 0.0, 0.0, 0.0, 0.0, -1011.5058435804658, 0.0]
['beep', 0.0, 2682.8798869705065, 0.0, 0.0, 0.0, 0.0, -1010.5670703133429, 0.0]
['beep', 0.0, 2681.8517067255625, 0.0, 0.0, 0.0, 0.0, -1011.1929191580915, 0.0]
['beep', 0.0, 2681.8293549811074, 0.0, 0.0, 0.0, 0.0, -1010.790587757896, 0.0]
['beep', 0.0, 2681.315264858635, 0.0, 0.0, 0.0, 0.0, -1009.8071110018625, 0.0]
['beep', 0.0, 2681.67289276992, 0.0, 0.0, 0.0, 0.0, -1008.5107098234547, 0.0]
['beep', 0.0, 2681.4046718364566, 0.0, 0.0, 0.0, 0.0, -1009.985924957505, 0.0]
['beep', 0.0, 2679.6612357689423, 0.0, 0.0, 0.0, 0.0, -1009.4494830905776, 0.0]
['beep', 0.0, 2679.5718287911213, 0.0, 0.0, 0.0, 0.0, -1007.4825295785106, 0.0]
['beep', 0.0, 2680.622360780521, 0.0, 0.0, 0.0, 0.0, -1007.9742679565273, 0.0]
['beep', 0.0, 2682.0528724256606, 0.0, 0.0, 0.0, 0.0, -1007.2143086450469, 0.0]
['beep', 0.0, 2683.2151631373363, 0.0, 0.0, 0.0, 0.0, -1005.8285004888178, 0.0]
['beep', 0.0, 2683.4610323263446, 0.0, 0.0, 0.0, 0.0, -1007.9966197009826, 0.0]
['beep', 0.0, 2685.9197242164287, 0.0, 0.0, 0.0, 0.0, -1006.8566807337619, 0.0]
['beep', 0.0, 2687.6855120283976, 0.0, 0.0, 0.0, 0.0, -1005.2026516440692, 0.0]
['beep', 0.0, 2686.880849228007, 0.0, 0.0, 0.0, 0.0, -1005.0014859439715, 0.0]
['beep', 0.0, 2685.0256544382164, 0.0, 0.0, 0.0, 0.0, -1004.018009187938, 0.0]
['beep', 0.0, 2682.9245904594172, 0.0, 0.0, 0.0, 0.0, -1004.4873958214994, 0.0]
['beep', 0.0, 2680.4882503137887, 0.0, 0.0, 0.0, 0.0, -1004.5097475659547, 0.0]
['beep', 0.0, 2681.382320092001, 0.0, 0.0, 0.0, 0.0, -1004.9791341995161, 0.0]
['beep', 0.0, 2681.4940788142776, 0.0, 0.0, 0.0, 0.0, -1004.5097475659547, 0.0]
['beep', 0.0, 2681.6281892810093, 0.0, 0.0, 0.0, 0.0, -1005.4485208330776, 0.0]
['beep', 0.0, 2681.5611340476435, 0.0, 0.0, 0.0, 0.0, -1005.7390935109966, 0.0]
['beep', 0.0, 2682.902238714962, 0.0, 0.0, 0.0, 0.0, -1005.4708725775329, 0.0]
['beep', 0.0, 2682.1199276590264, 0.0, 0.0, 0.0, 0.0, -1006.0967214222815, 0.0]
['beep', 0.0, 2682.544610803677, 0.0, 0.0, 0.0, 0.0, -1006.4767010780217, 0.0]
['beep', 0.0, 2682.8798869705065, 0.0, 0.0, 0.0, 0.0, -1006.9684394560385, 0.0]
['beep', 0.0, 2683.3045701151577, 0.0, 0.0, 0.0, 0.0, -1007.370770856234, 0.0]
['beep', 0.0, 2684.3327503601017, 0.0, 0.0, 0.0, 0.0, -1006.4767010780217, 0.0]
['beep', 0.0, 2684.869192227029, 0.0, 0.0, 0.0, 0.0, -1006.4096458446558, 0.0]
['beep', 0.0, 2685.249171882769, 0.0, 0.0, 0.0, 0.0, -1006.1414249111921, 0.0]
['beep', 0.0, 2684.4445090823783, 0.0, 0.0, 0.0, 0.0, -1006.4767010780217, 0.0]
['beep', 0.0, 2683.841011982085, 0.0, 0.0, 0.0, 0.0, -1005.8732039777284, 0.0]
['beep', 0.0, 2684.19863989337, 0.0, 0.0, 0.0, 0.0, -1005.2026516440692, 0.0]
['beep', 0.0, 2683.684549770898, 0.0, 0.0, 0.0, 0.0, -1004.7779684994184, 0.0]
['beep', 0.0, 2684.3998055934676, 0.0, 0.0, 0.0, 0.0, -1003.8168434878402, 0.0]
['beep', 0.0, 2684.7350817602974, 0.0, 0.0, 0.0, 0.0, -1004.1744713991251, 0.0]
['beep', 0.0, 2684.8244887381184, 0.0, 0.0, 0.0, 0.0, -1006.566108055843, 0.0]
['beep', 0.0, 2684.802136993663, 0.0, 0.0, 0.0, 0.0, -1006.499052822477, 0.0]
['beep', 0.0, 2684.131584660004, 0.0, 0.0, 0.0, 0.0, -1005.7390935109966, 0.0]
['beep', 0.0, 2684.645674782476, 0.0, 0.0, 0.0, 0.0, -1004.5544510548654, 0.0]
['beep', 0.0, 2685.3832823495013, 0.0, 0.0, 0.0, 0.0, -1004.2862301214017, 0.0]
['beep', 0.0, 2685.7856137496965, 0.0, 0.0, 0.0, 0.0, -1004.9120789661503, 0.0]
['beep', 0.0, 2685.6291515385096, 0.0, 0.0, 0.0, 0.0, -1005.5379278108989, 0.0]
['beep', 0.0, 2686.3667591055346, 0.0, 0.0, 0.0, 0.0, -1006.789625500396, 0.0]
['beep', 0.0, 2685.6291515385096, 0.0, 0.0, 0.0, 0.0, -1005.8732039777284, 0.0]
['beep', 0.0, 2685.159764904948, 0.0, 0.0, 0.0, 0.0, -1005.9626109555496, 0.0]
['beep', 0.0, 2684.7797852492076, 0.0, 0.0, 0.0, 0.0, -1007.2590121339575, 0.0]
['beep', 0.0, 2685.0256544382164, 0.0, 0.0, 0.0, 0.0, -1006.4543493335664, 0.0]
['beep', 0.0, 2685.3385788605906, 0.0, 0.0, 0.0, 0.0, -1006.6555150336642, 0.0]
['beep', 0.0, 2686.813793994641, 0.0, 0.0, 0.0, 0.0, -1007.5942883007871, 0.0]
['beep', 0.0, 2688.065491684138, 0.0, 0.0, 0.0, 0.0, -1008.1083784232592, 0.0]
['beep', 0.0, 2685.0927096715823, 0.0, 0.0, 0.0, 0.0, -1007.661343534153, 0.0]
['beep', 0.0, 2684.3103986156466, 0.0, 0.0, 0.0, 0.0, -1008.1083784232592, 0.0]
['beep', 0.0, 2684.600971293565, 0.0, 0.0, 0.0, 0.0, -1008.756579012463, 0.0]
['beep', 0.0, 2685.0256544382164, 0.0, 0.0, 0.0, 0.0, -1009.0695034348373, 0.0]
['beep', 0.0, 2684.4668608268335, 0.0, 0.0, 0.0, 0.0, -1008.5554133123653, 0.0]
['beep', 0.0, 2684.7350817602974, 0.0, 0.0, 0.0, 0.0, -1008.1530819121698, 0.0]
['beep', 0.0, 2685.0927096715823, 0.0, 0.0, 0.0, 0.0, -1007.661343534153, 0.0]
['beep', 0.0, 2684.4221573379227, 0.0, 0.0, 0.0, 0.0, -1006.7449220114854, 0.0]
['beep', 0.0, 2684.288046871191, 0.0, 0.0, 0.0, 0.0, -1007.1919569005915, 0.0]
['beep', 0.0, 2686.7467387612746, 0.0, 0.0, 0.0, 0.0, -1007.9295644676167, 0.0]
['beep', 0.0, 2687.551401561666, 0.0, 0.0, 0.0, 0.0, -1007.370770856234, 0.0]
['beep', 0.0, 2686.76909050573, 0.0, 0.0, 0.0, 0.0, -1008.1083784232592, 0.0]
['beep', 0.0, 2686.255000383258, 0.0, 0.0, 0.0, 0.0, -1007.7507505119743, 0.0]
['beep', 0.0, 2687.2384771392917, 0.0, 0.0, 0.0, 0.0, -1007.9966197009826, 0.0]
['beep', 0.0, 2686.9926079502834, 0.0, 0.0, 0.0, 0.0, -1008.2871923789016, 0.0]
['beep', 0.0, 2687.3725876060234, 0.0, 0.0, 0.0, 0.0, -1007.5495848118765, 0.0]
['beep', 0.0, 2687.3725876060234, 0.0, 0.0, 0.0, 0.0, -1006.9460877115831, 0.0]
['beep', 0.0, 2687.6184567950318, 0.0, 0.0, 0.0, 0.0, -1006.8119772448513, 0.0]
['beep', 0.0, 2687.1490701614703, 0.0, 0.0, 0.0, 0.0, -1006.4096458446558, 0.0]
['beep', 0.0, 2687.0820149281044, 0.0, 0.0, 0.0, 0.0, -1007.6389917896977, 0.0]
['beep', 0.0, 2687.2831806282024, 0.0, 0.0, 0.0, 0.0, -1008.1083784232592, 0.0]
['beep', 0.0, 2685.539744560688, 0.0, 0.0, 0.0, 0.0, -1008.1530819121698, 0.0]
['beep', 0.0, 2685.4726893273223, 0.0, 0.0, 0.0, 0.0, -1008.9800964570161, 0.0]
['beep', 0.0, 2685.7185585163306, 0.0, 0.0, 0.0, 0.0, -1008.3765993567229, 0.0]
['beep', 0.0, 2684.1539364044593, 0.0, 0.0, 0.0, 0.0, -1008.5554133123653, 0.0]
['beep', 0.0, 2684.802136993663, 0.0, 0.0, 0.0, 0.0, -1008.2648406344463, 0.0]
['beep', 0.0, 2684.846840482574, 0.0, 0.0, 0.0, 0.0, -1010.0529801908708, 0.0]
['beep', 0.0, 2686.2773521277136, 0.0, 0.0, 0.0, 0.0, -1010.9246982246278, 0.0]
['beep', 0.0, 2685.875020727518, 0.0, 0.0, 0.0, 0.0, -1010.5894220577982, 0.0]
['beep', 0.0, 2685.3609306050457, 0.0, 0.0, 0.0, 0.0, -1011.3046778803681, 0.0]
['beep', 0.0, 2684.4668608268335, 0.0, 0.0, 0.0, 0.0, -1011.5728988138318, 0.0]
['beep', 0.0, 2683.2151631373363, 0.0, 0.0, 0.0, 0.0, -1010.3882563577005, 0.0]
['beep', 0.0, 2682.902238714962, 0.0, 0.0, 0.0, 0.0, -1011.3493813692787, 0.0]
['beep', 0.0, 2683.0810526706045, 0.0, 0.0, 0.0, 0.0, -1013.2045761590691, 0.0]
['beep', 0.0, 2681.9858171922942, 0.0, 0.0, 0.0, 0.0, -1012.4446168475887, 0.0]
['beep', 0.0, 2682.343445103579, 0.0, 0.0, 0.0, 0.0, -1012.5340238254099, 0.0]
['beep', 0.0, 2683.3939770929787, 0.0, 0.0, 0.0, 0.0, -1014.0762941928261, 0.0]
['beep', 0.0, 2684.131584660004, 0.0, 0.0, 0.0, 0.0, -1014.0092389594602, 0.0]
['beep', 0.0, 2684.2433433822803, 0.0, 0.0, 0.0, 0.0, -1014.1657011706474, 0.0]
['beep', 0.0, 2683.930418959906, 0.0, 0.0, 0.0, 0.0, -1014.948012226583, 0.0]
['beep', 0.0, 2684.4668608268335, 0.0, 0.0, 0.0, 0.0, -1013.4727970925328, 0.0]
['beep', 0.0, 2684.3327503601017, 0.0, 0.0, 0.0, 0.0, -1012.5116720809547, 0.0]
['beep', 0.0, 2683.5280875597105, 0.0, 0.0, 0.0, 0.0, -1013.2716313924351, 0.0]
['beep', 0.0, 2682.4999073147665, 0.0, 0.0, 0.0, 0.0, -1014.210404659558, 0.0]
['beep', 0.0, 2683.0810526706045, 0.0, 0.0, 0.0, 0.0, -1015.9091372381613, 0.0]
['beep', 0.0, 2682.00816893675, 0.0, 0.0, 0.0, 0.0, -1016.4902825939993, 0.0]
['beep', 0.0, 2681.4940788142776, 0.0, 0.0, 0.0, 0.0, -1015.2385849045021, 0.0]
['beep', 0.0, 2682.38814859249, 0.0, 0.0, 0.0, 0.0, -1015.8420820047954, 0.0]
['beep', 0.0, 2682.4552038258557, 0.0, 0.0, 0.0, 0.0, -1015.0597709488596, 0.0]
['beep', 0.0, 2681.449375325367, 0.0, 0.0, 0.0, 0.0, -1015.6409163046976, 0.0]
['beep', 0.0, 2680.4435468248785, 0.0, 0.0, 0.0, 0.0, -1016.758503527463, 0.0]
