['beep', 0.0, -1782.68573077747, 0.0, 0.0, 0.0, 0.0, -440.0834965805408, 0.0]
['beep', 0.0, -1786.172602912498, 0.0, 0.0, 0.0, 0.0, -455.5509037436132, 0.0]
['beep', 0.0, -1791.8722977486013, 0.0, 0.0, 0.0, 0.0, -469.9677789172863, 0.0]
['beep', 0.0, -1796.9014402510454, 0.0, 0.0, 0.0, 0.0, -484.138784901951, 0.0]
['beep', 0.0, -1800.9024025085453, 0.0, 0.0, 0.0, 0.0, -495.7616920187107, 0.0]
['beep', 0.0, -1804.88101302159, 0.0, 0.0, 0.0, 0.0, -508.03279972467425, 0.0]
['beep', 0.0, -1808.4125886455286, 0.0, 0.0, 0.0, 0.0, -518.6945818298557, 0.0]
['beep', 0.0, -1814.1793387149978, 0.0, 0.0, 0.0, 0.0, -530.2057302243388, 0.0]
['beep', 0.0, -1819.521405639816, 0.0, 0.0, 0.0, 0.0, -541.1804367518946, 0.0]
['beep', 0.0, -1822.8741673081122, 0.0, 0.0, 0.0, 0.0, -552.0880880460844, 0.0]
['beep', 0.0, -1826.9421847989781, 0.0, 0.0, 0.0, 0.0, -562.5710561956234, 0.0]
['beep', 0.0, -1832.7983418462686, 0.0, 0.0, 0.0, 0.0, -572.7410999227882, 0.0]
['beep', 0.0, -1837.26869073733, 0.0, 0.0, 0.0, 0.0, -579.1560505814613, 0.0]
['beep', 0.0, -1841.2696529948298, 0.0, 0.0, 0.0, 0.0, -580.4077482709585, 0.0]
['beep', 0.0, -1842.3201849842294, 0.0, 0.0, 0.0, 0.0, -581.97237038283, 0.0]
['beep', 0.0, -1841.8284466062125, 0.0, 0.0, 0.0, 0.0, -587.3367890521037, 0.0]
['beep', 0.0, -1842.141371028587, 0.0, 0.0, 0.0, 0.0, -592.0306553877182, 0.0]
['beep', 0.0, -1842.0296123063104, 0.0, 0.0, 0.0, 0.0, -591.7177309653439, 0.0]
['beep', 0.0, -1841.4037634615618, 0.0, 0.0, 0.0, 0.0, -590.2425158312936, 0.0]
['beep', 0.0, -1840.040307049788, 0.0, 0.0, 0.0, 0.0, -590.3095710646595, 0.0]
['beep', 0.0, -1838.3415744711847, 0.0, 0.0, 0.0, 0.0, -590.8683646760422, 0.0]
['beep', 0.0, -1839.7720861163243, 0.0, 0.0, 0.0, 0.0, -590.130757109017, 0.0]
['beep', 0.0, -1840.8226181057237, 0.0, 0.0, 0.0, 0.0, -589.7284257088215, 0.0]
['beep', 0.0, -1841.2249495059193, 0.0, 0.0, 0.0, 0.0, -589.8625361755534, 0.0]
['beep', 0.0, -1840.7108593834473, 0.0, 0.0, 0.0, 0.0, -590.3989780424807, 0.0]
['beep', 0.0, -1840.5320454278049, 0.0, 0.0, 0.0, 0.0, -588.4320245304137, 0.0]
['beep', 0.0, -1840.3532314721624, 0.0, 0.0, 0.0, 0.0, -588.9461146528857, 0.0]
['beep', 0.0, -1839.682679138503, 0.0, 0.0, 0.0, 0.0, -588.2532105747713, 0.0]
['beep', 0.0, -1840.0850105386987, 0.0, 0.0, 0.0, 0.0, -587.7838239412098, 0.0]
['beep', 0.0, -1839.9509000719668, 0.0, 0.0, 0.0, 0.0, -587.3814925410143, 0.0]
['beep', 0.0, -1839.3474029716735, 0.0, 0.0, 0.0, 0.0, -588.8790594195199, 0.0]
['beep', 0.0, -1838.4533331934613, 0.0, 0.0, 0.0, 0.0, -587.7614721967545, 0.0]
['beep', 0.0, -1838.6768506380142, 0.0, 0.0, 0.0, 0.0, -587.0909198630953, 0.0]
['beep', 0.0, -1838.6992023824696, 0.0, 0.0, 0.0, 0.0, -586.3533122960702, 0.0]
['beep', 0.0, -1837.1792837595087, 0.0, 0.0, 0.0, 0.0, -582.7993849276763, 0.0]
['beep', 0.0, -1836.1511035145645, 0.0, 0.0, 0.0, 0.0, -583.1570128389612, 0.0]
['beep', 0.0, -1837.3580977151512, 0.0, 0.0, 0.0, 0.0, -583.872268661531, 0.0]
['beep', 0.0, -1837.8051326042573, 0.0, 0.0, 0.0, 0.0, -583.8499169170758, 0.0]
['beep', 0.0, -1836.6428418925814, 0.0, 0.0, 0.0, 0.0, -584.8780971620199, 0.0]
['beep', 0.0, -1836.106400025654, 0.0, 0.0, 0.0, 0.0, -582.8887919054976, 0.0]
['beep', 0.0, -1835.167626758531, 0.0, 0.0, 0.0, 0.0, -581.9500186383747, 0.0]
['beep', 0.0, -1835.7934756032796, 0.0, 0.0, 0.0, 0.0, -583.7381581947992, 0.0]
['beep', 0.0, -1836.0616965367433, 0.0, 0.0, 0.0, 0.0, -586.2192018293383, 0.0]
['beep', 0.0, -1836.7322488704026, 0.0, 0.0, 0.0, 0.0, -588.7896524416986, 0.0]
['beep', 0.0, -1835.815827347735, 0.0, 0.0, 0.0, 0.0, -591.1365856095059, 0.0]
['beep', 0.0, -1835.9275860700116, 0.0, 0.0, 0.0, 0.0, -583.9169721504417, 0.0]
['beep', 0.0, -1833.1783215020087, 0.0, 0.0, 0.0, 0.0, -580.8547831600646, 0.0]
['beep', 0.0, -1829.914966811534, 0.0, 0.0, 0.0, 0.0, -581.3688732825367, 0.0]
['beep', 0.0, -1827.948013299467, 0.0, 0.0, 0.0, 0.0, -583.8052134281652, 0.0]
['beep', 0.0, -1830.138484256087, 0.0, 0.0, 0.0, 0.0, -585.4145390289473, 0.0]
['beep', 0.0, -1833.6700598800255, 0.0, 0.0, 0.0, 0.0, -583.8946204059864, 0.0]
['beep', 0.0, -1837.0898767816875, 0.0, 0.0, 0.0, 0.0, -587.2250303298272, 0.0]
['beep', 0.0, -1838.4756849379164, 0.0, 0.0, 0.0, 0.0, -589.7507774532769, 0.0]
['beep', 0.0, -1837.26869073733, 0.0, 0.0, 0.0, 0.0, -589.6837222199109, 0.0]
['beep', 0.0, -1837.4698564374278, 0.0, 0.0, 0.0, 0.0, -589.8848879200087, 0.0]
['beep', 0.0, -1838.3862779600952, 0.0, 0.0, 0.0, 0.0, -592.4329867879137, 0.0]
['beep', 0.0, -1839.369754716129, 0.0, 0.0, 0.0, 0.0, -591.5165652652461, 0.0]
['beep', 0.0, -1839.0121268048438, 0.0, 0.0, 0.0, 0.0, -591.360103054059, 0.0]
['beep', 0.0, -1836.8663593371343, 0.0, 0.0, 0.0, 0.0, -592.2541728322713, 0.0]
['beep', 0.0, -1835.8828825811008, 0.0, 0.0, 0.0, 0.0, -590.197812342383, 0.0]
['beep', 0.0, -1836.106400025654, 0.0, 0.0, 0.0, 0.0, -589.1696320974389, 0.0]
['beep', 0.0, -1836.7993041037685, 0.0, 0.0, 0.0, 0.0, -591.2036408428718, 0.0]
['beep', 0.0, -1837.782780859802, 0.0, 0.0, 0.0, 0.0, -592.9694286548411, 0.0]
['beep', 0.0, -1837.7380773708915, 0.0, 0.0, 0.0, 0.0, -595.0481408891847, 0.0]
['beep', 0.0, -1838.4980366823718, 0.0, 0.0, 0.0, 0.0, -594.9363821669081, 0.0]
['beep', 0.0, -1840.17441751652, 0.0, 0.0, 0.0, 0.0, -594.779919955721, 0.0]
['beep', 0.0, -1839.8614930941455, 0.0, 0.0, 0.0, 0.0, -595.1598996114611, 0.0]
['beep', 0.0, -1840.5991006611707, 0.0, 0.0, 0.0, 0.0, -595.0928443780953, 0.0]
['beep', 0.0, -1839.2579959938523, 0.0, 0.0, 0.0, 0.0, -594.6681612334444, 0.0]
['beep', 0.0, -1839.4591616939501, 0.0, 0.0, 0.0, 0.0, -595.0257891447293, 0.0]
['beep', 0.0, -1840.8896733390898, 0.0, 0.0, 0.0, 0.0, -595.9645624118522, 0.0]
['beep', 0.0, -1841.64963265057, 0.0, 0.0, 0.0, 0.0, -600.4572630473689, 0.0]
['beep', 0.0, -1841.2473012503747, 0.0, 0.0, 0.0, 0.0, -597.4844810348131, 0.0]
['beep', 0.0, -1840.688507638992, 0.0, 0.0, 0.0, 0.0, -594.3105333221595, 0.0]
['beep', 0.0, -1840.4649901944388, 0.0, 0.0, 0.0, 0.0, -594.4222920444361, 0.0]
['beep', 0.0, -1841.7613913728467, 0.0, 0.0, 0.0, 0.0, -594.2658298332489, 0.0]
['beep', 0.0, -1841.6719843950254, 0.0, 0.0, 0.0, 0.0, -594.9587339113634, 0.0]
['beep', 0.0, -1841.0684872947322, 0.0, 0.0, 0.0, 0.0, -595.8081002006651, 0.0]
['beep', 0.0, -1839.3250512272182, 0.0, 0.0, 0.0, 0.0, -595.6963414783885, 0.0]
['beep', 0.0, -1839.883844838601, 0.0, 0.0, 0.0, 0.0, -595.4281205449248, 0.0]
['beep', 0.0, -1840.979080316911, 0.0, 0.0, 0.0, 0.0, -595.4504722893802, 0.0]
['beep', 0.0, -1841.6943361394808, 0.0, 0.0, 0.0, 0.0, -596.0316176452181, 0.0]
['beep', 0.0, -1838.74390587138, 0.0, 0.0, 0.0, 0.0, -595.8975071784863, 0.0]
['beep', 0.0, -1838.6768506380142, 0.0, 0.0, 0.0, 0.0, -596.1210246230394, 0.0]
['beep', 0.0, -1839.3474029716735, 0.0, 0.0, 0.0, 0.0, -596.3668938120477, 0.0]
['beep', 0.0, -1841.0237838058215, 0.0, 0.0, 0.0, 0.0, -595.7633967117545, 0.0]
['beep', 0.0, -1840.1520657720646, 0.0, 0.0, 0.0, 0.0, -596.3221903231371, 0.0]
['beep', 0.0, -1838.8109611047462, 0.0, 0.0, 0.0, 0.0, -596.7245217233326, 0.0]
['beep', 0.0, -1838.6768506380142, 0.0, 0.0, 0.0, 0.0, -596.389245556503, 0.0]
['beep', 0.0, -1838.5203884268271, 0.0, 0.0, 0.0, 0.0, -598.6020682575785, 0.0]
['beep', 0.0, -1840.0179553053326, 0.0, 0.0, 0.0, 0.0, -598.6020682575785, 0.0]
['beep', 0.0, -1839.816789605235, 0.0, 0.0, 0.0, 0.0, -597.6856467349108, 0.0]
['beep', 0.0, -1839.4591616939501, 0.0, 0.0, 0.0, 0.0, -597.1268531235282, 0.0]
['beep', 0.0, -1839.682679138503, 0.0, 0.0, 0.0, 0.0, -597.6409432460002, 0.0]
['beep', 0.0, -1839.8391413496902, 0.0, 0.0, 0.0, 0.0, -597.7303502238215, 0.0]
['beep', 0.0, -1839.7944378607797, 0.0, 0.0, 0.0, 0.0, -594.8693269335422, 0.0]
['beep', 0.0, -1839.0121268048438, 0.0, 0.0, 0.0, 0.0, -595.4504722893802, 0.0]
['beep', 0.0, -1838.945071571478, 0.0, 0.0, 0.0, 0.0, -596.2327833453159, 0.0]
['beep', 0.0, -1838.4086297045505, 0.0, 0.0, 0.0, 0.0, -596.2551350897712, 0.0]
['beep', 0.0, -1838.7662576158355, 0.0, 0.0, 0.0, 0.0, -594.8693269335422, 0.0]
['beep', 0.0, -1838.8109611047462, 0.0, 0.0, 0.0, 0.0, -594.9363821669081, 0.0]
['beep', 0.0, -1839.7050308829585, 0.0, 0.0, 0.0, 0.0, -594.7575682112656, 0.0]
['beep', 0.0, -1839.0568302937545, 0.0, 0.0, 0.0, 0.0, -595.5398792672014, 0.0]
['beep', 0.0, -1839.9732518164221, 0.0, 0.0, 0.0, 0.0, -595.9869141563075, 0.0]
['beep', 0.0, -1840.7108593834473, 0.0, 0.0, 0.0, 0.0, -595.3834170560142, 0.0]
['beep', 0.0, -1839.235644249397, 0.0, 0.0, 0.0, 0.0, -594.0199606442405, 0.0]
['beep', 0.0, -1837.7380773708915, 0.0, 0.0, 0.0, 0.0, -594.6905129778997, 0.0]
['beep', 0.0, -1838.9003680825674, 0.0, 0.0, 0.0, 0.0, -596.5010042787795, 0.0]
['beep', 0.0, -1839.9285483275114, 0.0, 0.0, 0.0, 0.0, -596.4786525343243, 0.0]
['beep', 0.0, -1839.4144582050394, 0.0, 0.0, 0.0, 0.0, -596.389245556503, 0.0]
['beep', 0.0, -1838.3415744711847, 0.0, 0.0, 0.0, 0.0, -596.6351147455114, 0.0]
['beep', 0.0, -1839.235644249397, 0.0, 0.0, 0.0, 0.0, -594.9140304224528, 0.0]
['beep', 0.0, -1838.3415744711847, 0.0, 0.0, 0.0, 0.0, -593.4164635439472, 0.0]
['beep', 0.0, -1839.8391413496902, 0.0, 0.0, 0.0, 0.0, -594.8022717001762, 0.0]
['beep', 0.0, -1839.682679138503, 0.0, 0.0, 0.0, 0.0, -594.0199606442405, 0.0]
['beep', 0.0, -1837.4028012040617, 0.0, 0.0, 0.0, 0.0, -593.8858501775087, 0.0]
['beep', 0.0, -1838.1180570266315, 0.0, 0.0, 0.0, 0.0, -593.3047048216707, 0.0]
['beep', 0.0, -1838.8556645936567, 0.0, 0.0, 0.0, 0.0, -595.294010078193, 0.0]
['beep', 0.0, -1837.782780859802, 0.0, 0.0, 0.0, 0.0, -591.4718617763355, 0.0]
['beep', 0.0, -1831.5466441567714, 0.0, 0.0, 0.0, 0.0, -578.2843325477044, 0.0]
['beep', 0.0, -1827.1880539879865, 0.0, 0.0, 0.0, 0.0, -566.6614254309446, 0.0]
['beep', 0.0, -1825.690487109481, 0.0, 0.0, 0.0, 0.0, -557.9218933489196, 0.0]
['beep', 0.0, -1823.1647399860312, 0.0, 0.0, 0.0, 0.0, -546.7907246101767, 0.0]
['beep', 0.0, -1822.0695045077211, 0.0, 0.0, 0.0, 0.0, -533.558491892635, 0.0]
['beep', 0.0, -1821.4436556629726, 0.0, 0.0, 0.0, 0.0, -523.8354830545763, 0.0]
['beep', 0.0, -1821.0189725183218, 0.0, 0.0, 0.0, 0.0, -511.1843956928725, 0.0]
['beep', 0.0, -1820.8625103071345, 0.0, 0.0, 0.0, 0.0, -495.67228504088945, 0.0]
['beep', 0.0, -1821.2201382184194, 0.0, 0.0, 0.0, 0.0, -486.1951453918392, 0.0]
['beep', 0.0, -1820.1919579734754, 0.0, 0.0, 0.0, 0.0, -480.80837497811024, 0.0]
['beep', 0.0, -1819.0296672617994, 0.0, 0.0, 0.0, 0.0, -476.8297644650656, 0.0]
['beep', 0.0, -1817.1297689830983, 0.0, 0.0, 0.0, 0.0, -475.28749409764936, 0.0]
['beep', 0.0, -1814.8275393042015, 0.0, 0.0, 0.0, 0.0, -475.8462877090321, 0.0]
['beep', 0.0, -1814.1569869705424, 0.0, 0.0, 0.0, 0.0, -475.62277026447896, 0.0]
['beep', 0.0, -1814.4252079040061, 0.0, 0.0, 0.0, 0.0, -477.70148249882254, 0.0]
['beep', 0.0, -1813.4193794035173, 0.0, 0.0, 0.0, 0.0, -478.68495925485604, 0.0]
['beep', 0.0, -1811.9665160139223, 0.0, 0.0, 0.0, 0.0, -481.79185173414373, 0.0]
['beep', 0.0, -1811.877109036101, 0.0, 0.0, 0.0, 0.0, -483.267066868194, 0.0]
['beep', 0.0, -1810.8712805356122, 0.0, 0.0, 0.0, 0.0, -483.98232269076385, 0.0]
['beep', 0.0, -1810.6701148355146, 0.0, 0.0, 0.0, 0.0, -485.68105526936716, 0.0]
['beep', 0.0, -1810.848928791157, 0.0, 0.0, 0.0, 0.0, -487.0668634255962, 0.0]
['beep', 0.0, -1810.2901351797743, 0.0, 0.0, 0.0, 0.0, -488.09504367054035, 0.0]
['beep', 0.0, -1809.8431002906682, 0.0, 0.0, 0.0, 0.0, -489.05616868211854, 0.0]
['beep', 0.0, -1809.463120634928, 0.0, 0.0, 0.0, 0.0, -488.5420785596465, 0.0]
['beep', 0.0, -1809.5301758682938, 0.0, 0.0, 0.0, 0.0, -488.69854077083363, 0.0]
['beep', 0.0, -1809.1948997014642, 0.0, 0.0, 0.0, 0.0, -487.58095354806824, 0.0]
['beep', 0.0, -1808.9043270235452, 0.0, 0.0, 0.0, 0.0, -487.0892151700515, 0.0]
['beep', 0.0, -1808.9266787680006, 0.0, 0.0, 0.0, 0.0, -488.2068023928169, 0.0]
['beep', 0.0, -1808.6808095789922, 0.0, 0.0, 0.0, 0.0, -488.653837281923, 0.0]
['beep', 0.0, -1808.8372717901793, 0.0, 0.0, 0.0, 0.0, -488.9667617042973, 0.0]
['beep', 0.0, -1807.7420363118692, 0.0, 0.0, 0.0, 0.0, -487.1339186589621, 0.0]
['beep', 0.0, -1806.266821177819, 0.0, 0.0, 0.0, 0.0, -487.29038087014925, 0.0]
['beep', 0.0, -1805.9986002443554, 0.0, 0.0, 0.0, 0.0, -486.4186628363923, 0.0]
['beep', 0.0, -1805.7750827998022, 0.0, 0.0, 0.0, 0.0, -486.28455236966045, 0.0]
['beep', 0.0, -1805.0598269772324, 0.0, 0.0, 0.0, 0.0, -486.7315872587666, 0.0]
['beep', 0.0, -1803.8975362655565, 0.0, 0.0, 0.0, 0.0, -487.29038087014925, 0.0]
['beep', 0.0, -1804.3892746435733, 0.0, 0.0, 0.0, 0.0, -487.9832849482638, 0.0]
['beep', 0.0, -1804.4339781324838, 0.0, 0.0, 0.0, 0.0, -488.2068023928169, 0.0]
['beep', 0.0, -1805.238640932875, 0.0, 0.0, 0.0, 0.0, -487.9162297148979, 0.0]
['beep', 0.0, -1806.490338622372, 0.0, 0.0, 0.0, 0.0, -486.1951453918392, 0.0]
['beep', 0.0, -1807.272649678308, 0.0, 0.0, 0.0, 0.0, -484.5634680466018, 0.0]
['beep', 0.0, -1806.3785799000955, 0.0, 0.0, 0.0, 0.0, -484.5411163021465, 0.0]
['beep', 0.0, -1806.7138560669252, 0.0, 0.0, 0.0, 0.0, -484.67522676887836, 0.0]
['beep', 0.0, -1808.5690508567156, 0.0, 0.0, 0.0, 0.0, -484.8093372356102, 0.0]
['beep', 0.0, -1808.8372717901793, 0.0, 0.0, 0.0, 0.0, -484.8093372356102, 0.0]
['beep', 0.0, -1808.457292134439, 0.0, 0.0, 0.0, 0.0, -482.7082732568113, 0.0]
['beep', 0.0, -1807.0491322337548, 0.0, 0.0, 0.0, 0.0, -483.71410175730017, 0.0]
['beep', 0.0, -1806.3785799000955, 0.0, 0.0, 0.0, 0.0, -486.1727936473839, 0.0]
['beep', 0.0, -1807.0714839782102, 0.0, 0.0, 0.0, 0.0, -488.13974715945096, 0.0]
['beep', 0.0, -1807.4514636339504, 0.0, 0.0, 0.0, 0.0, -485.5022413137247, 0.0]
['beep', 0.0, -1806.3562281556403, 0.0, 0.0, 0.0, 0.0, -486.1280901584733, 0.0]
['beep', 0.0, -1808.8596235346347, 0.0, 0.0, 0.0, 0.0, -485.0775581690739, 0.0]
['beep', 0.0, -1811.7653503138247, 0.0, 0.0, 0.0, 0.0, -486.7092355143113, 0.0]
['beep', 0.0, -1815.140463726576, 0.0, 0.0, 0.0, 0.0, -490.6654942829006, 0.0]
['beep', 0.0, -1816.5039201383497, 0.0, 0.0, 0.0, 0.0, -492.20776465031685, 0.0]
['beep', 0.0, -1816.6603823495368, 0.0, 0.0, 0.0, 0.0, -494.3535321180263, 0.0]
['beep', 0.0, -1814.5369666262827, 0.0, 0.0, 0.0, 0.0, -494.3758838624816, 0.0]
['beep', 0.0, -1814.0005247593554, 0.0, 0.0, 0.0, 0.0, -494.3982356069369, 0.0]
['beep', 0.0, -1814.8722427931123, 0.0, 0.0, 0.0, 0.0, -495.64993329643414, 0.0]
['beep', 0.0, -1816.459216649439, 0.0, 0.0, 0.0, 0.0, -494.1076629290179, 0.0]
['beep', 0.0, -1816.3474579271626, 0.0, 0.0, 0.0, 0.0, -494.55469781812405, 0.0]
['beep', 0.0, -1815.2075189599418, 0.0, 0.0, 0.0, 0.0, -495.67228504088945, 0.0]
['beep', 0.0, -1814.8722427931123, 0.0, 0.0, 0.0, 0.0, -494.7335117737665, 0.0]
['beep', 0.0, -1815.654553849048, 0.0, 0.0, 0.0, 0.0, -494.62175305149, 0.0]
['beep', 0.0, -1817.8450248056681, 0.0, 0.0, 0.0, 0.0, -494.24177339574976, 0.0]
['beep', 0.0, -1818.1355974835872, 0.0, 0.0, 0.0, 0.0, -494.6888082848559, 0.0]
['beep', 0.0, -1815.5427951267716, 0.0, 0.0, 0.0, 0.0, -494.3758838624816, 0.0]
['beep', 0.0, -1815.2075189599418, 0.0, 0.0, 0.0, 0.0, -493.88414548446485, 0.0]
['beep', 0.0, -1816.101588738154, 0.0, 0.0, 0.0, 0.0, -494.7782152626771, 0.0]
['beep', 0.0, -1817.4426934054725, 0.0, 0.0, 0.0, 0.0, -494.82291875158774, 0.0]
['beep', 0.0, -1817.107417238643, 0.0, 0.0, 0.0, 0.0, -495.0911396850514, 0.0]
['beep', 0.0, -1814.8945945375676, 0.0, 0.0, 0.0, 0.0, -495.4040641074257, 0.0]
['beep', 0.0, -1814.9392980264781, 0.0, 0.0, 0.0, 0.0, -495.426415851881, 0.0]
['beep', 0.0, -1815.8333678046904, 0.0, 0.0, 0.0, 0.0, -496.1193199299956, 0.0]
['beep', 0.0, -1816.5486236272602, 0.0, 0.0, 0.0, 0.0, -496.7451687747442, 0.0]
['beep', 0.0, -1816.5486236272602, 0.0, 0.0, 0.0, 0.0, -496.72281703028887, 0.0]
['beep', 0.0, -1816.5039201383497, 0.0, 0.0, 0.0, 0.0, -496.27578214118273, 0.0]
['beep', 0.0, -1816.0345335047882, 0.0, 0.0, 0.0, 0.0, -495.67228504088945, 0.0]
['beep', 0.0, -1816.235699204886, 0.0, 0.0, 0.0, 0.0, -495.49347108524694, 0.0]
['beep', 0.0, -1816.7721410718134, 0.0, 0.0, 0.0, 0.0, -497.2592588972162, 0.0]
['beep', 0.0, -1815.721609082414, 0.0, 0.0, 0.0, 0.0, -495.51582282970224, 0.0]
['beep', 0.0, -1815.4757398934055, 0.0, 0.0, 0.0, 0.0, -493.7053315288224, 0.0]
['beep', 0.0, -1814.335800926185, 0.0, 0.0, 0.0, 0.0, -494.48764258475813, 0.0]
['beep', 0.0, -1814.9392980264781, 0.0, 0.0, 0.0, 0.0, -495.0017327072302, 0.0]
['beep', 0.0, -1815.9227747825116, 0.0, 0.0, 0.0, 0.0, -495.5828780630682, 0.0]
['beep', 0.0, -1816.4368649049838, 0.0, 0.0, 0.0, 0.0, -496.0969681855403, 0.0]
['beep', 0.0, -1816.0121817603329, 0.0, 0.0, 0.0, 0.0, -496.36518911900396, 0.0]
['beep', 0.0, -1815.2075189599418, 0.0, 0.0, 0.0, 0.0, -494.62175305149, 0.0]
['beep', 0.0, -1815.7663125713245, 0.0, 0.0, 0.0, 0.0, -493.7276832732777, 0.0]
['beep', 0.0, -1815.3416294266738, 0.0, 0.0, 0.0, 0.0, -494.82291875158774, 0.0]
['beep', 0.0, -1815.274574193308, 0.0, 0.0, 0.0, 0.0, -494.88997398495366, 0.0]
['beep', 0.0, -1814.3805044150954, 0.0, 0.0, 0.0, 0.0, -493.3924071064481, 0.0]
['beep', 0.0, -1813.687600336981, 0.0, 0.0, 0.0, 0.0, -492.654799539423, 0.0]
['beep', 0.0, -1815.5427951267716, 0.0, 0.0, 0.0, 0.0, -492.83361349506544, 0.0]
['beep', 0.0, -1817.5097486388386, 0.0, 0.0, 0.0, 0.0, -494.50999432921344, 0.0]
['beep', 0.0, -1816.8391963051793, 0.0, 0.0, 0.0, 0.0, -493.7723867621883, 0.0]
['beep', 0.0, -1816.6827340939922, 0.0, 0.0, 0.0, 0.0, -492.7218547727889, 0.0]
['beep', 0.0, -1817.3532864276513, 0.0, 0.0, 0.0, 0.0, -493.92884897337547, 0.0]
['beep', 0.0, -1817.621507361115, 0.0, 0.0, 0.0, 0.0, -494.17471816238384, 0.0]
['beep', 0.0, -1817.3532864276513, 0.0, 0.0, 0.0, 0.0, -496.29813388563804, 0.0]
['beep', 0.0, -1816.235699204886, 0.0, 0.0, 0.0, 0.0, -496.7675205191995, 0.0]
['beep', 0.0, -1814.9840015153889, 0.0, 0.0, 0.0, 0.0, -496.27578214118273, 0.0]
['beep', 0.0, -1814.0452282482659, 0.0, 0.0, 0.0, 0.0, -494.24177339574976, 0.0]
['beep', 0.0, -1815.1181119821206, 0.0, 0.0, 0.0, 0.0, -494.7782152626771, 0.0]
['beep', 0.0, -1816.2804026937965, 0.0, 0.0, 0.0, 0.0, -493.3924071064481, 0.0]
['beep', 0.0, -1815.78866431578, 0.0, 0.0, 0.0, 0.0, -495.0464361961408, 0.0]
['beep', 0.0, -1816.459216649439, 0.0, 0.0, 0.0, 0.0, -495.49347108524694, 0.0]
['beep', 0.0, -1816.3251061827073, 0.0, 0.0, 0.0, 0.0, -494.50999432921344, 0.0]
['beep', 0.0, -1817.0627137497324, 0.0, 0.0, 0.0, 0.0, -496.40989260791457, 0.0]
['beep', 0.0, -1818.269707950319, 0.0, 0.0, 0.0, 0.0, -496.5663548191017, 0.0]
['beep', 0.0, -1816.9956585163663, 0.0, 0.0, 0.0, 0.0, -497.61688680850114, 0.0]
['beep', 0.0, -1815.3863329155843, 0.0, 0.0, 0.0, 0.0, -496.7451687747442, 0.0]
['beep', 0.0, -1815.274574193308, 0.0, 0.0, 0.0, 0.0, -496.94633447484193, 0.0]
['beep', 0.0, -1816.1239404826094, 0.0, 0.0, 0.0, 0.0, -496.38754086345926, 0.0]
['beep', 0.0, -1816.7721410718134, 0.0, 0.0, 0.0, 0.0, -496.70046528583356, 0.0]
['beep', 0.0, -1816.7721410718134, 0.0, 0.0, 0.0, 0.0, -497.72864553077767, 0.0]
['beep', 0.0, -1815.9227747825116, 0.0, 0.0, 0.0, 0.0, -498.1533286754285, 0.0]
['beep', 0.0, -1816.2804026937965, 0.0, 0.0, 0.0, 0.0, -498.9132879869089, 0.0]
['beep', 0.0, -1816.4815683938943, 0.0, 0.0, 0.0, 0.0, -499.82970950957656, 0.0]
['beep', 0.0, -1817.6662108500257, 0.0, 0.0, 0.0, 0.0, -498.98034322027485, 0.0]
['beep', 0.0, -1817.5768038722044, 0.0, 0.0, 0.0, 0.0, -500.47791009878046, 0.0]
['beep', 0.0, -1817.2862311942854, 0.0, 0.0, 0.0, 0.0, -500.6343723099676, 0.0]
['beep', 0.0, -1816.5709753717156, 0.0, 0.0, 0.0, 0.0, -499.9861717207637, 0.0]
['beep', 0.0, -1817.3085829387408, 0.0, 0.0, 0.0, 0.0, -499.136805431462, 0.0]
['beep', 0.0, -1818.426170161506, 0.0, 0.0, 0.0, 0.0, -500.3214478875933, 0.0]
['beep', 0.0, -1818.1132457391318, 0.0, 0.0, 0.0, 0.0, -498.4886048422581, 0.0]
['beep', 0.0, -1816.6603823495368, 0.0, 0.0, 0.0, 0.0, -496.63341005246764, 0.0]
['beep', 0.0, -1817.4203416610173, 0.0, 0.0, 0.0, 0.0, -496.8569274970207, 0.0]
['beep', 0.0, -1815.6098503601374, 0.0, 0.0, 0.0, 0.0, -497.63923855295644, 0.0]
['beep', 0.0, -1815.78866431578, 0.0, 0.0, 0.0, 0.0, -498.4886048422581, 0.0]
['beep', 0.0, -1817.3532864276513, 0.0, 0.0, 0.0, 0.0, -497.5051280862246, 0.0]
['beep', 0.0, -1817.621507361115, 0.0, 0.0, 0.0, 0.0, -497.5274798306799, 0.0]
['beep', 0.0, -1816.816844560724, 0.0, 0.0, 0.0, 0.0, -498.64506705344525, 0.0]
['beep', 0.0, -1816.6603823495368, 0.0, 0.0, 0.0, 0.0, -498.7791775201771, 0.0]
['beep', 0.0, -1816.88389979409, 0.0, 0.0, 0.0, 0.0, -498.71212228681117, 0.0]
['beep', 0.0, -1815.006353259844, 0.0, 0.0, 0.0, 0.0, -499.04739845364077, 0.0]
['beep', 0.0, -1816.9956585163663, 0.0, 0.0, 0.0, 0.0, -498.1756804198838, 0.0]
['beep', 0.0, -1725.465264971884, 0.0, 0.0, 0.0, 0.0, -400.69972285028973, 0.0]
['beep', 0.0, -1725.9346516054454, 0.0, 0.0, 0.0, 0.0, -402.15258623988467, 0.0]
['beep', 0.0, -1726.404038239007, 0.0, 0.0, 0.0, 0.0, -404.3207054520495, 0.0]
['beep', 0.0, -1727.3875149950404, 0.0, 0.0, 0.0, 0.0, -404.27600196313887, 0.0]
['beep', 0.0, -1726.6722591724706, 0.0, 0.0, 0.0, 0.0, -402.44315891780366, 0.0]
['beep', 0.0, -1725.5770236941605, 0.0, 0.0, 0.0, 0.0, -401.9961240286975, 0.0]
['beep', 0.0, -1726.694610916926, 0.0, 0.0, 0.0, 0.0, -401.70555135077853, 0.0]
['beep', 0.0, -1727.856901628602, 0.0, 0.0, 0.0, 0.0, -401.6161443729573, 0.0]
['beep', 0.0, -1727.72279116187, 0.0, 0.0, 0.0, 0.0, -403.47133916274777, 0.0]
['beep', 0.0, -1725.8005411387137, 0.0, 0.0, 0.0, 0.0, -403.1807664848288, 0.0]
['beep', 0.0, -1725.4205614829734, 0.0, 0.0, 0.0, 0.0, -401.9290687953316, 0.0]
['beep', 0.0, -1727.0969423171214, 0.0, 0.0, 0.0, 0.0, -402.08553100651875, 0.0]
['beep', 0.0, -1727.2534045283085, 0.0, 0.0, 0.0, 0.0, -402.04082751760814, 0.0]
['beep', 0.0, -1727.5886806951382, 0.0, 0.0, 0.0, 0.0, -402.2866967066165, 0.0]
['beep', 0.0, -1727.9463086064231, 0.0, 0.0, 0.0, 0.0, -401.3255716950383, 0.0]
['beep', 0.0, -1728.0357155842444, 0.0, 0.0, 0.0, 0.0, -401.2361647172171, 0.0]
['beep', 0.0, -1726.9628318503896, 0.0, 0.0, 0.0, 0.0, -401.303219950583, 0.0]
['beep', 0.0, -1727.208701039398, 0.0, 0.0, 0.0, 0.0, -403.11371125146286, 0.0]
['beep', 0.0, -1727.499273717317, 0.0, 0.0, 0.0, 0.0, -401.884365306421, 0.0]
['beep', 0.0, -1726.0911138166325, 0.0, 0.0, 0.0, 0.0, -400.3420949390048, 0.0]
['beep', 0.0, -1726.9851835948448, 0.0, 0.0, 0.0, 0.0, -401.37027518394893, 0.0]
['beep', 0.0, -1727.499273717317, 0.0, 0.0, 0.0, 0.0, -401.5714408840467, 0.0]
['beep', 0.0, -1728.2145295398868, 0.0, 0.0, 0.0, 0.0, -400.9008885503875, 0.0]
['beep', 0.0, -1729.108599318099, 0.0, 0.0, 0.0, 0.0, -401.012647272664, 0.0]
['beep', 0.0, -1728.4156952399846, 0.0, 0.0, 0.0, 0.0, -401.2361647172171, 0.0]
['beep', 0.0, -1727.4769219728616, 0.0, 0.0, 0.0, 0.0, -400.6773711058344, 0.0]
['beep', 0.0, -1728.5721574511717, 0.0, 0.0, 0.0, 0.0, -401.6831996063232, 0.0]
['beep', 0.0, -1730.7402766633365, 0.0, 0.0, 0.0, 0.0, -400.2973914500942, 0.0]
['beep', 0.0, -1731.3661255080851, 0.0, 0.0, 0.0, 0.0, -400.40915017237074, 0.0]
['beep', 0.0, -1730.1814830519538, 0.0, 0.0, 0.0, 0.0, -402.01847577315283, 0.0]
['beep', 0.0, -1730.2038347964092, 0.0, 0.0, 0.0, 0.0, -402.08553100651875, 0.0]
['beep', 0.0, -1730.2932417742304, 0.0, 0.0, 0.0, 0.0, -400.38679842791544, 0.0]
['beep', 0.0, -1730.2485382853197, 0.0, 0.0, 0.0, 0.0, -401.05735076157464, 0.0]
['beep', 0.0, -1731.5225877192722, 0.0, 0.0, 0.0, 0.0, -402.5549176400802, 0.0]
['beep', 0.0, -1730.8743871300683, 0.0, 0.0, 0.0, 0.0, -402.77843508463326, 0.0]
['beep', 0.0, -1729.6450411850265, 0.0, 0.0, 0.0, 0.0, -401.2585164616724, 0.0]
['beep', 0.0, -1730.270890029775, 0.0, 0.0, 0.0, 0.0, -401.6384961174126, 0.0]
['beep', 0.0, -1730.7179249188812, 0.0, 0.0, 0.0, 0.0, -402.37610368443774, 0.0]
['beep', 0.0, -1731.299070274719, 0.0, 0.0, 0.0, 0.0, -402.5102141511696, 0.0]
['beep', 0.0, -1730.1591313074985, 0.0, 0.0, 0.0, 0.0, -402.48786240671427, 0.0]
['beep', 0.0, -1728.7509714068142, 0.0, 0.0, 0.0, 0.0, -402.8231385735439, 0.0]
['beep', 0.0, -1729.6673929294818, 0.0, 0.0, 0.0, 0.0, -403.02430427364163, 0.0]
['beep', 0.0, -1731.276718530264, 0.0, 0.0, 0.0, 0.0, -401.5714408840467, 0.0]
['beep', 0.0, -1731.1649598079873, 0.0, 0.0, 0.0, 0.0, -401.012647272664, 0.0]
['beep', 0.0, -1730.6061661966046, 0.0, 0.0, 0.0, 0.0, -401.2361647172171, 0.0]
['beep', 0.0, -1730.2485382853197, 0.0, 0.0, 0.0, 0.0, -400.09622574999645, 0.0]
['beep', 0.0, -1730.0697243296772, 0.0, 0.0, 0.0, 0.0, -401.303219950583, 0.0]
['beep', 0.0, -1731.5002359748169, 0.0, 0.0, 0.0, 0.0, -401.9961240286975, 0.0]
['beep', 0.0, -1732.014326097289, 0.0, 0.0, 0.0, 0.0, -403.8736705629433, 0.0]
['beep', 0.0, -1729.7344481628477, 0.0, 0.0, 0.0, 0.0, -403.3148769515606, 0.0]
['beep', 0.0, -1729.9579656074006, 0.0, 0.0, 0.0, 0.0, -403.71720835175614, 0.0]
['beep', 0.0, -1731.0532010857107, 0.0, 0.0, 0.0, 0.0, -403.69485660730084, 0.0]
['beep', 0.0, -1731.4555324859064, 0.0, 0.0, 0.0, 0.0, -403.47133916274777, 0.0]
['beep', 0.0, -1732.1931400529315, 0.0, 0.0, 0.0, 0.0, -402.979600784731, 0.0]
['beep', 0.0, -1731.276718530264, 0.0, 0.0, 0.0, 0.0, -402.8678420624545, 0.0]
['beep', 0.0, -1730.852035385613, 0.0, 0.0, 0.0, 0.0, -401.9514205397869, 0.0]
['beep', 0.0, -1731.299070274719, 0.0, 0.0, 0.0, 0.0, -403.6054496294796, 0.0]
['beep', 0.0, -1732.4166574974845, 0.0, 0.0, 0.0, 0.0, -403.9183740518539, 0.0]
['beep', 0.0, -1733.2660237867863, 0.0, 0.0, 0.0, 0.0, -404.141891496407, 0.0]
['beep', 0.0, -1733.0648580866884, 0.0, 0.0, 0.0, 0.0, -404.0301327741305, 0.0]
['beep', 0.0, -1732.1931400529315, 0.0, 0.0, 0.0, 0.0, -403.27017346265, 0.0]
['beep', 0.0, -1731.8131603971913, 0.0, 0.0, 0.0, 0.0, -404.141891496407, 0.0]
['beep', 0.0, -1733.3777825090626, 0.0, 0.0, 0.0, 0.0, -404.6336298744238, 0.0]
['beep', 0.0, -1734.271852287275, 0.0, 0.0, 0.0, 0.0, -405.7735688416444, 0.0]
['beep', 0.0, -1733.8471691426241, 0.0, 0.0, 0.0, 0.0, -404.94655429679807, 0.0]
['beep', 0.0, -1733.6236516980712, 0.0, 0.0, 0.0, 0.0, -404.0748362630411, 0.0]
['beep', 0.0, -1732.9307476199565, 0.0, 0.0, 0.0, 0.0, -406.7123421087673, 0.0]
['beep', 0.0, -1734.0930383316324, 0.0, 0.0, 0.0, 0.0, -407.6287636314349, 0.0]
['beep', 0.0, -1733.91422437599, 0.0, 0.0, 0.0, 0.0, -408.63459213192374, 0.0]
['beep', 0.0, -1733.0648580866884, 0.0, 0.0, 0.0, 0.0, -407.47230142024773, 0.0]
['beep', 0.0, -1729.7344481628477, 0.0, 0.0, 0.0, 0.0, -405.84062407501034, 0.0]
['beep', 0.0, -1729.4438754849286, 0.0, 0.0, 0.0, 0.0, -406.3770659419377, 0.0]
['beep', 0.0, -1730.0697243296772, 0.0, 0.0, 0.0, 0.0, -405.93003105283157, 0.0]
['beep', 0.0, -1729.622689440571, 0.0, 0.0, 0.0, 0.0, -406.22060373075055, 0.0]
['beep', 0.0, -1729.6003376961157, 0.0, 0.0, 0.0, 0.0, -405.55005139709135, 0.0]
['beep', 0.0, -1729.9579656074006, 0.0, 0.0, 0.0, 0.0, -404.90185080788746, 0.0]
['beep', 0.0, -1732.1037330751103, 0.0, 0.0, 0.0, 0.0, -405.4382926748148, 0.0]
['beep', 0.0, -1733.556596464705, 0.0, 0.0, 0.0, 0.0, -404.90185080788746, 0.0]
['beep', 0.0, -1735.1882738099425, 0.0, 0.0, 0.0, 0.0, -404.85714731897684, 0.0]
['beep', 0.0, -1736.3282127771633, 0.0, 0.0, 0.0, 0.0, -404.81244383006623, 0.0]
['beep', 0.0, -1735.7023639324148, 0.0, 0.0, 0.0, 0.0, -405.3488856969936, 0.0]
['beep', 0.0, -1736.2164540548868, 0.0, 0.0, 0.0, 0.0, -406.0417897751081, 0.0]
['beep', 0.0, -1736.2388057993421, 0.0, 0.0, 0.0, 0.0, -405.7065136082785, 0.0]
['beep', 0.0, -1735.9705848658784, 0.0, 0.0, 0.0, 0.0, -406.19825198629525, 0.0]
['beep', 0.0, -1736.9317098774566, 0.0, 0.0, 0.0, 0.0, -404.90185080788746, 0.0]
['beep', 0.0, -1732.9530993644119, 0.0, 0.0, 0.0, 0.0, -403.8289670740327, 0.0]
['beep', 0.0, -1729.4438754849286, 0.0, 0.0, 0.0, 0.0, -403.09135950700755, 0.0]
['beep', 0.0, -1732.6848784309482, 0.0, 0.0, 0.0, 0.0, -401.45968216177016, 0.0]
['beep', 0.0, -1734.0036313538112, 0.0, 0.0, 0.0, 0.0, -399.91741179435394, 0.0]
['beep', 0.0, -1733.2213202978755, 0.0, 0.0, 0.0, 0.0, -397.36931292644897, 0.0]
['beep', 0.0, -1731.5225877192722, 0.0, 0.0, 0.0, 0.0, -395.6482286033903, 0.0]
['beep', 0.0, -1729.5109307182945, 0.0, 0.0, 0.0, 0.0, -397.1904989708065, 0.0]
['beep', 0.0, -1730.852035385613, 0.0, 0.0, 0.0, 0.0, -397.4587199042702, 0.0]
['beep', 0.0, -1731.4778842303615, 0.0, 0.0, 0.0, 0.0, -398.4421966603037, 0.0]
['beep', 0.0, -1731.6343464415488, 0.0, 0.0, 0.0, 0.0, -399.35861818297127, 0.0]
['beep', 0.0, -1729.175654551465, 0.0, 0.0, 0.0, 0.0, -400.47620540573666, 0.0]
['beep', 0.0, -1729.4438754849286, 0.0, 0.0, 0.0, 0.0, -400.5656123835579, 0.0]
['beep', 0.0, -1730.0250208407667, 0.0, 0.0, 0.0, 0.0, -399.89506004989863, 0.0]
['beep', 0.0, -1730.6061661966046, 0.0, 0.0, 0.0, 0.0, -398.8445280604992, 0.0]
['beep', 0.0, -1729.980317351856, 0.0, 0.0, 0.0, 0.0, -400.207984472273, 0.0]
['beep', 0.0, -1730.1591313074985, 0.0, 0.0, 0.0, 0.0, -400.5432606391026, 0.0]
['beep', 0.0, -1729.9356138629455, 0.0, 0.0, 0.0, 0.0, -401.2585164616724, 0.0]
['beep', 0.0, -1731.299070274719, 0.0, 0.0, 0.0, 0.0, -401.012647272664, 0.0]
['beep', 0.0, -1731.7461051638254, 0.0, 0.0, 0.0, 0.0, -400.72207459474504, 0.0]
['beep', 0.0, -1730.6732214299705, 0.0, 0.0, 0.0, 0.0, -400.8785368059322, 0.0]
['beep', 0.0, -1729.3544685071074, 0.0, 0.0, 0.0, 0.0, -399.2021559717841, 0.0]
['beep', 0.0, -1730.4050004965068, 0.0, 0.0, 0.0, 0.0, -400.0291705166305, 0.0]
['beep', 0.0, -1730.6732214299705, 0.0, 0.0, 0.0, 0.0, -399.3809699274266, 0.0]
['beep', 0.0, -1730.6508696855153, 0.0, 0.0, 0.0, 0.0, -399.24685946069474, 0.0]
['beep', 0.0, -1729.9356138629455, 0.0, 0.0, 0.0, 0.0, -401.12440599494056, 0.0]
['beep', 0.0, -1729.175654551465, 0.0, 0.0, 0.0, 0.0, -399.0680455050523, 0.0]
['beep', 0.0, -1729.8015033962135, 0.0, 0.0, 0.0, 0.0, -399.58213562752434, 0.0]
['beep', 0.0, -1731.6343464415488, 0.0, 0.0, 0.0, 0.0, -402.13023449542936, 0.0]
['beep', 0.0, -1732.304898775208, 0.0, 0.0, 0.0, 0.0, -400.6550193613791, 0.0]
['beep', 0.0, -1731.1202563190766, 0.0, 0.0, 0.0, 0.0, -400.05152226108584, 0.0]
['beep', 0.0, -1730.4050004965068, 0.0, 0.0, 0.0, 0.0, -401.75025483968915, 0.0]
['beep', 0.0, -1731.075552830166, 0.0, 0.0, 0.0, 0.0, -403.1584147403735, 0.0]
['beep', 0.0, -1731.2543667858085, 0.0, 0.0, 0.0, 0.0, -402.5325658956249, 0.0]
['beep', 0.0, -1731.6790499304593, 0.0, 0.0, 0.0, 0.0, -402.2419932177059, 0.0]
['beep', 0.0, -1730.270890029775, 0.0, 0.0, 0.0, 0.0, -402.13023449542936, 0.0]
['beep', 0.0, -1729.7791516517582, 0.0, 0.0, 0.0, 0.0, -403.13606299591817, 0.0]
['beep', 0.0, -1729.466227229384, 0.0, 0.0, 0.0, 0.0, -404.723036852245, 0.0]
['beep', 0.0, -1729.5332824627499, 0.0, 0.0, 0.0, 0.0, -405.93003105283157, 0.0]
['beep', 0.0, -1730.784980152247, 0.0, 0.0, 0.0, 0.0, -404.58892638551316, 0.0]
['beep', 0.0, -1729.7791516517582, 0.0, 0.0, 0.0, 0.0, -402.5102141511696, 0.0]
['beep', 0.0, -1728.6168609400822, 0.0, 0.0, 0.0, 0.0, -402.71137985126734, 0.0]
['beep', 0.0, -1729.7791516517582, 0.0, 0.0, 0.0, 0.0, -404.25365021868356, 0.0]
['beep', 0.0, -1730.9861458523449, 0.0, 0.0, 0.0, 0.0, -404.3654089409601, 0.0]
['beep', 0.0, -1730.2038347964092, 0.0, 0.0, 0.0, 0.0, -403.80661532957737, 0.0]
['beep', 0.0, -1729.309765018197, 0.0, 0.0, 0.0, 0.0, -403.47133916274777, 0.0]
['beep', 0.0, -1729.2874132737415, 0.0, 0.0, 0.0, 0.0, -403.0019525291863, 0.0]
['beep', 0.0, -1729.309765018197, 0.0, 0.0, 0.0, 0.0, -402.15258623988467, 0.0]
['beep', 0.0, -1730.784980152247, 0.0, 0.0, 0.0, 0.0, -401.1691094838512, 0.0]
['beep', 0.0, -1731.72375341937, 0.0, 0.0, 0.0, 0.0, -401.43733041731485, 0.0]
['beep', 0.0, -1730.62851794106, 0.0, 0.0, 0.0, 0.0, -402.8901938069098, 0.0]
['beep', 0.0, -1729.689744673937, 0.0, 0.0, 0.0, 0.0, -402.3090484510718, 0.0]
['beep', 0.0, -1729.5109307182945, 0.0, 0.0, 0.0, 0.0, -402.71137985126734, 0.0]
['beep', 0.0, -1729.689744673937, 0.0, 0.0, 0.0, 0.0, -403.09135950700755, 0.0]
['beep', 0.0, -1729.9132621184901, 0.0, 0.0, 0.0, 0.0, -402.2643449621612, 0.0]
['beep', 0.0, -1729.175654551465, 0.0, 0.0, 0.0, 0.0, -401.6384961174126, 0.0]
['beep', 0.0, -1729.0415440847332, 0.0, 0.0, 0.0, 0.0, -402.6219728734461, 0.0]
['beep', 0.0, -1728.5498057067164, 0.0, 0.0, 0.0, 0.0, -403.6054496294796, 0.0]
['beep', 0.0, -1729.823855140669, 0.0, 0.0, 0.0, 0.0, -403.47133916274777, 0.0]
['beep', 0.0, -1730.7402766633365, 0.0, 0.0, 0.0, 0.0, -402.8454903179992, 0.0]
['beep', 0.0, -1730.3155935186855, 0.0, 0.0, 0.0, 0.0, -404.3207054520495, 0.0]
['beep', 0.0, -1729.622689440571, 0.0, 0.0, 0.0, 0.0, -404.61127812996847, 0.0]
['beep', 0.0, -1729.4885789738394, 0.0, 0.0, 0.0, 0.0, -405.50534790818074, 0.0]
['beep', 0.0, -1730.8073318967024, 0.0, 0.0, 0.0, 0.0, -403.27017346265, 0.0]
['beep', 0.0, -1730.9414423634341, 0.0, 0.0, 0.0, 0.0, -403.35958044047123, 0.0]
['beep', 0.0, -1730.561462707694, 0.0, 0.0, 0.0, 0.0, -403.27017346265, 0.0]
['beep', 0.0, -1730.1591313074985, 0.0, 0.0, 0.0, 0.0, -404.83479557452154, 0.0]
['beep', 0.0, -1730.6732214299705, 0.0, 0.0, 0.0, 0.0, -405.4382926748148, 0.0]
['beep', 0.0, -1732.4613609863952, 0.0, 0.0, 0.0, 0.0, -406.26530721966117, 0.0]
['beep', 0.0, -1732.5060644753057, 0.0, 0.0, 0.0, 0.0, -407.2934874646053, 0.0]
['beep', 0.0, -1731.790808652736, 0.0, 0.0, 0.0, 0.0, -404.9912577857087, 0.0]
['beep', 0.0, -1731.5225877192722, 0.0, 0.0, 0.0, 0.0, -404.54422289660255, 0.0]
['beep', 0.0, -1731.1873115524427, 0.0, 0.0, 0.0, 0.0, -405.25947871917236, 0.0]
['beep', 0.0, -1731.0532010857107, 0.0, 0.0, 0.0, 0.0, -406.17590024183994, 0.0]
['beep', 0.0, -1730.7179249188812, 0.0, 0.0, 0.0, 0.0, -405.90767930837626, 0.0]
['beep', 0.0, -1730.6955731744258, 0.0, 0.0, 0.0, 0.0, -405.7959205860997, 0.0]
['beep', 0.0, -1730.2261865408643, 0.0, 0.0, 0.0, 0.0, -406.3547141974824, 0.0]
['beep', 0.0, -1730.2485382853197, 0.0, 0.0, 0.0, 0.0, -407.2934874646053, 0.0]
['beep', 0.0, -1730.9637941078895, 0.0, 0.0, 0.0, 0.0, -407.4499496757924, 0.0]
['beep', 0.0, -1730.9414423634341, 0.0, 0.0, 0.0, 0.0, -407.91933630935387, 0.0]
['beep', 0.0, -1729.0415440847332, 0.0, 0.0, 0.0, 0.0, -407.24878397569466, 0.0]
['beep', 0.0, -1728.8627301290908, 0.0, 0.0, 0.0, 0.0, -408.5228334096472, 0.0]
['beep', 0.0, -1730.0920760741326, 0.0, 0.0, 0.0, 0.0, -408.29931596509414, 0.0]
['beep', 0.0, -1729.8909103740348, 0.0, 0.0, 0.0, 0.0, -406.7346938532226, 0.0]
['beep', 0.0, -1730.4050004965068, 0.0, 0.0, 0.0, 0.0, -406.19825198629525, 0.0]
['beep', 0.0, -1729.8685586295794, 0.0, 0.0, 0.0, 0.0, -405.9523827972869, 0.0]
['beep', 0.0, -1728.8403783846354, 0.0, 0.0, 0.0, 0.0, -406.399417686393, 0.0]
['beep', 0.0, -1728.952137106912, 0.0, 0.0, 0.0, 0.0, -407.0699700200522, 0.0]
['beep', 0.0, -1729.8015033962135, 0.0, 0.0, 0.0, 0.0, -406.3547141974824, 0.0]
['beep', 0.0, -1729.7791516517582, 0.0, 0.0, 0.0, 0.0, -407.3828944424265, 0.0]
['beep', 0.0, -1729.466227229384, 0.0, 0.0, 0.0, 0.0, -407.0476182755969, 0.0]
['beep', 0.0, -1728.4603987288951, 0.0, 0.0, 0.0, 0.0, -406.980563042231, 0.0]
['beep', 0.0, -1730.3155935186855, 0.0, 0.0, 0.0, 0.0, -407.1146735089628, 0.0]
['beep', 0.0, -1731.0979045746215, 0.0, 0.0, 0.0, 0.0, -406.4217694308483, 0.0]
['beep', 0.0, -1731.1649598079873, 0.0, 0.0, 0.0, 0.0, -406.4441211753036, 0.0]
['beep', 0.0, -1730.6061661966046, 0.0, 0.0, 0.0, 0.0, -406.7123421087673, 0.0]
['beep', 0.0, -1730.8743871300683, 0.0, 0.0, 0.0, 0.0, -407.2934874646053, 0.0]
['beep', 0.0, -1731.299070274719, 0.0, 0.0, 0.0, 0.0, -405.84062407501034, 0.0]
['beep', 0.0, -1731.1873115524427, 0.0, 0.0, 0.0, 0.0, -405.7735688416444, 0.0]
['beep', 0.0, -1732.2825470307528, 0.0, 0.0, 0.0, 0.0, -406.26530721966117, 0.0]
['beep', 0.0, -1731.276718530264, 0.0, 0.0, 0.0, 0.0, -405.81827233055503, 0.0]
['beep', 0.0, -1730.784980152247, 0.0, 0.0, 0.0, 0.0, -404.9912577857087, 0.0]
['beep', 0.0, -1730.852035385613, 0.0, 0.0, 0.0, 0.0, -405.59475488600197, 0.0]
['beep', 0.0, -1730.4497039854175, 0.0, 0.0, 0.0, 0.0, -406.1311967529293, 0.0]
['beep', 0.0, -1731.6343464415488, 0.0, 0.0, 0.0, 0.0, -405.1030165079852, 0.0]
['beep', 0.0, -1731.790808652736, 0.0, 0.0, 0.0, 0.0, -404.58892638551316, 0.0]
['beep', 0.0, -1731.5002359748169, 0.0, 0.0, 0.0, 0.0, -404.9912577857087, 0.0]
['beep', 0.0, -1731.7461051638254, 0.0, 0.0, 0.0, 0.0, -404.25365021868356, 0.0]
['beep', 0.0, -1732.9083958755014, 0.0, 0.0, 0.0, 0.0, -403.3372286960159, 0.0]
['beep', 0.0, -1734.2942040317303, 0.0, 0.0, 0.0, 0.0, -402.5996211289908, 0.0]
['beep', 0.0, -1734.0706865871773, 0.0, 0.0, 0.0, 0.0, -403.27017346265, 0.0]
['beep', 0.0, -1734.204797053909, 0.0, 0.0, 0.0, 0.0, -405.81827233055503, 0.0]
['beep', 0.0, -1734.7412389208364, 0.0, 0.0, 0.0, 0.0, -405.0583130190746, 0.0]
['beep', 0.0, -1736.015288354789, 0.0, 0.0, 0.0, 0.0, -404.9689060412534, 0.0]
['beep', 0.0, -1736.1941023104314, 0.0, 0.0, 0.0, 0.0, -405.3488856969936, 0.0]
['beep', 0.0, -1735.076515087666, 0.0, 0.0, 0.0, 0.0, -404.0301327741305, 0.0]
['beep', 0.0, -1734.8977011320235, 0.0, 0.0, 0.0, 0.0, -402.15258623988467, 0.0]
['beep', 0.0, -1733.6012999536158, 0.0, 0.0, 0.0, 0.0, -403.02430427364163, 0.0]
['beep', 0.0, -1734.1153900760878, 0.0, 0.0, 0.0, 0.0, -405.1253682524405, 0.0]
['beep', 0.0, -1734.6518319430152, 0.0, 0.0, 0.0, 0.0, -406.0417897751081, 0.0]
['beep', 0.0, -1734.9200528764788, 0.0, 0.0, 0.0, 0.0, -403.27017346265, 0.0]
['beep', 0.0, -1734.4059627540069, 0.0, 0.0, 0.0, 0.0, -403.2031182292841, 0.0]
['beep', 0.0, -1734.6071284541047, 0.0, 0.0, 0.0, 0.0, -402.3090484510718, 0.0]
['beep', 0.0, -1735.0318115987554, 0.0, 0.0, 0.0, 0.0, -402.44315891780366, 0.0]
['beep', 0.0, -1736.2388057993421, 0.0, 0.0, 0.0, 0.0, -403.78426358512206, 0.0]
['beep', 0.0, -1736.6411371995375, 0.0, 0.0, 0.0, 0.0, -404.18659498531764, 0.0]
['beep', 0.0, -1735.3223842766745, 0.0, 0.0, 0.0, 0.0, -403.8289670740327, 0.0]
['beep', 0.0, -1734.8753493875683, 0.0, 0.0, 0.0, 0.0, -405.1030165079852, 0.0]
['beep', 0.0, -1735.501198232317, 0.0, 0.0, 0.0, 0.0, -403.9854292852198, 0.0]
['beep', 0.0, -1735.4341429989508, 0.0, 0.0, 0.0, 0.0, -401.48203390622547, 0.0]
['beep', 0.0, -1734.696535431926, 0.0, 0.0, 0.0, 0.0, -402.5996211289908, 0.0]
['beep', 0.0, -1733.8471691426241, 0.0, 0.0, 0.0, 0.0, -402.8231385735439, 0.0]
['beep', 0.0, -1734.0259830982666, 0.0, 0.0, 0.0, 0.0, -403.0019525291863, 0.0]
['beep', 0.0, -1735.076515087666, 0.0, 0.0, 0.0, 0.0, -403.8736705629433, 0.0]
['beep', 0.0, -1735.4117912544957, 0.0, 0.0, 0.0, 0.0, -404.141891496407, 0.0]
['beep', 0.0, -1734.7412389208364, 0.0, 0.0, 0.0, 0.0, -405.84062407501034, 0.0]
['beep', 0.0, -1734.0930383316324, 0.0, 0.0, 0.0, 0.0, -406.2876589641165, 0.0]
['beep', 0.0, -1734.0930383316324, 0.0, 0.0, 0.0, 0.0, -404.58892638551316, 0.0]
['beep', 0.0, -1733.6012999536158, 0.0, 0.0, 0.0, 0.0, -404.27600196313887, 0.0]
['beep', 0.0, -1733.757762164803, 0.0, 0.0, 0.0, 0.0, -404.81244383006623, 0.0]
['beep', 0.0, -1733.7801139092583, 0.0, 0.0, 0.0, 0.0, -403.9854292852198, 0.0]
['beep', 0.0, -1734.6741836874705, 0.0, 0.0, 0.0, 0.0, -405.6394583749126, 0.0]
['beep', 0.0, -1734.0259830982666, 0.0, 0.0, 0.0, 0.0, -406.22060373075055, 0.0]
['beep', 0.0, -1734.495369731828, 0.0, 0.0, 0.0, 0.0, -406.0641415195634, 0.0]
['beep', 0.0, -1735.7023639324148, 0.0, 0.0, 0.0, 0.0, -405.52769965263604, 0.0]
['beep', 0.0, -1736.015288354789, 0.0, 0.0, 0.0, 0.0, -406.0864932640187, 0.0]
['beep', 0.0, -1734.3612592650961, 0.0, 0.0, 0.0, 0.0, -406.2876589641165, 0.0]
['beep', 0.0, -1735.367087765585, 0.0, 0.0, 0.0, 0.0, -405.6618101193679, 0.0]
['beep', 0.0, -1736.7528959218141, 0.0, 0.0, 0.0, 0.0, -406.89115606440976, 0.0]
['beep', 0.0, -1737.3116895331968, 0.0, 0.0, 0.0, 0.0, -408.29931596509414, 0.0]
['beep', 0.0, -1736.7528959218141, 0.0, 0.0, 0.0, 0.0, -408.8581095764768, 0.0]
['beep', 0.0, -1735.7694191657806, 0.0, 0.0, 0.0, 0.0, -408.94751655429803, 0.0]
['beep', 0.0, -1735.5235499767723, 0.0, 0.0, 0.0, 0.0, -410.8027113440885, 0.0]
['beep', 0.0, -1736.4176197549846, 0.0, 0.0, 0.0, 0.0, -410.1321590104293, 0.0]
['beep', 0.0, -1736.1270470770655, 0.0, 0.0, 0.0, 0.0, -410.04275203260806, 0.0]
['beep', 0.0, -1734.6518319430152, 0.0, 0.0, 0.0, 0.0, -409.05927527657457, 0.0]
['beep', 0.0, -1733.0201545977777, 0.0, 0.0, 0.0, 0.0, -408.2322607317282, 0.0]
['beep', 0.0, -1732.8413406421353, 0.0, 0.0, 0.0, 0.0, -409.61806888795724, 0.0]
['beep', 0.0, -1733.757762164803, 0.0, 0.0, 0.0, 0.0, -409.4392549323148, 0.0]
['beep', 0.0, -1734.495369731828, 0.0, 0.0, 0.0, 0.0, -409.819234588055, 0.0]
['beep', 0.0, -1733.690706931437, 0.0, 0.0, 0.0, 0.0, -409.7968828435997, 0.0]
['beep', 0.0, -1733.3554307646075, 0.0, 0.0, 0.0, 0.0, -409.95334505478684, 0.0]
['beep', 0.0, -1734.048334842722, 0.0, 0.0, 0.0, 0.0, -409.5063101656807, 0.0]
['beep', 0.0, -1734.852997643113, 0.0, 0.0, 0.0, 0.0, -408.4557781762813, 0.0]
['beep', 0.0, -1735.4341429989508, 0.0, 0.0, 0.0, 0.0, -408.07579852054107, 0.0]
['beep', 0.0, -1734.6071284541047, 0.0, 0.0, 0.0, 0.0, -407.85228107598795, 0.0]
['beep', 0.0, -1733.8471691426241, 0.0, 0.0, 0.0, 0.0, -408.4557781762813, 0.0]
['beep', 0.0, -1733.981279609356, 0.0, 0.0, 0.0, 0.0, -408.05344677608576, 0.0]
['beep', 0.0, -1736.0823435881548, 0.0, 0.0, 0.0, 0.0, -408.2099089872729, 0.0]
['beep', 0.0, -1736.0376400992443, 0.0, 0.0, 0.0, 0.0, -408.9028130653874, 0.0]
['beep', 0.0, -1735.2776807877638, 0.0, 0.0, 0.0, 0.0, -406.4217694308483, 0.0]
['beep', 0.0, -1732.886044131046, 0.0, 0.0, 0.0, 0.0, -406.48882466421423, 0.0]
['beep', 0.0, -1732.4166574974845, 0.0, 0.0, 0.0, 0.0, -405.7735688416444, 0.0]
['beep', 0.0, -1733.8695208870795, 0.0, 0.0, 0.0, 0.0, -405.50534790818074, 0.0]
['beep', 0.0, -1736.2835092882526, 0.0, 0.0, 0.0, 0.0, -406.7793973421332, 0.0]
['beep', 0.0, -1736.3729162660738, 0.0, 0.0, 0.0, 0.0, -406.15354849738463, 0.0]
['beep', 0.0, -1736.1941023104314, 0.0, 0.0, 0.0, 0.0, -406.7346938532226, 0.0]
['beep', 0.0, -1736.596433710627, 0.0, 0.0, 0.0, 0.0, -406.4441211753036, 0.0]
['beep', 0.0, -1736.015288354789, 0.0, 0.0, 0.0, 0.0, -406.17590024183994, 0.0]
['beep', 0.0, -1737.177579066465, 0.0, 0.0, 0.0, 0.0, -407.89698456489856, 0.0]
['beep', 0.0, -1737.2893377887415, 0.0, 0.0, 0.0, 0.0, -407.58406014252427, 0.0]
['beep', 0.0, -1735.8364743991465, 0.0, 0.0, 0.0, 0.0, -405.48299616372543, 0.0]
['beep', 0.0, -1736.2388057993421, 0.0, 0.0, 0.0, 0.0, -405.50534790818074, 0.0]
['beep', 0.0, -1737.6469657000264, 0.0, 0.0, 0.0, 0.0, -405.48299616372543, 0.0]
['beep', 0.0, -1738.1163523335879, 0.0, 0.0, 0.0, 0.0, -406.48882466421423, 0.0]
['beep', 0.0, -1737.0434685997332, 0.0, 0.0, 0.0, 0.0, -406.48882466421423, 0.0]
['beep', 0.0, -1737.468151744384, 0.0, 0.0, 0.0, 0.0, -405.6171066304573, 0.0]
['beep', 0.0, -1738.3175180336855, 0.0, 0.0, 0.0, 0.0, -405.93003105283157, 0.0]
['beep', 0.0, -1739.0104221118002, 0.0, 0.0, 0.0, 0.0, -405.304182208083, 0.0]
['beep', 0.0, -1740.3291750346632, 0.0, 0.0, 0.0, 0.0, -404.81244383006623, 0.0]
['beep', 0.0, -1740.5750442236715, 0.0, 0.0, 0.0, 0.0, -404.2983537075942, 0.0]
['beep', 0.0, -1740.9997273683225, 0.0, 0.0, 0.0, 0.0, -404.83479557452154, 0.0]
['beep', 0.0, -1741.2232448128755, 0.0, 0.0, 0.0, 0.0, -405.59475488600197, 0.0]
['beep', 0.0, -1740.8432651571352, 0.0, 0.0, 0.0, 0.0, -406.22060373075055, 0.0]
['beep', 0.0, -1739.4127535119956, 0.0, 0.0, 0.0, 0.0, -404.6559816188791, 0.0]
['beep', 0.0, -1738.0940005891325, 0.0, 0.0, 0.0, 0.0, -404.141891496407, 0.0]
['beep', 0.0, -1735.210625554398, 0.0, 0.0, 0.0, 0.0, -404.141891496407, 0.0]
['beep', 0.0, -1733.400134253518, 0.0, 0.0, 0.0, 0.0, -401.9067170508763, 0.0]
['beep', 0.0, -1734.048334842722, 0.0, 0.0, 0.0, 0.0, -402.3314001955271, 0.0]
['beep', 0.0, -1735.8811778880572, 0.0, 0.0, 0.0, 0.0, -401.5267373951361, 0.0]
['beep', 0.0, -1737.9375383779454, 0.0, 0.0, 0.0, 0.0, -402.9125455513651, 0.0]
['beep', 0.0, -1739.1445325785319, 0.0, 0.0, 0.0, 0.0, -404.0524845185858, 0.0]
['beep', 0.0, -1738.1163523335879, 0.0, 0.0, 0.0, 0.0, -402.35375193998243, 0.0]
['beep', 0.0, -1739.7033261899146, 0.0, 0.0, 0.0, 0.0, -403.2478217181947, 0.0]
['beep', 0.0, -1741.1114860905989, 0.0, 0.0, 0.0, 0.0, -404.58892638551316, 0.0]
['beep', 0.0, -1739.3904017675402, 0.0, 0.0, 0.0, 0.0, -405.90767930837626, 0.0]
['beep', 0.0, -1737.3787447665627, 0.0, 0.0, 0.0, 0.0, -404.1195397519517, 0.0]
['beep', 0.0, -1737.4905034888393, 0.0, 0.0, 0.0, 0.0, -403.27017346265, 0.0]
['beep', 0.0, -1738.786904667247, 0.0, 0.0, 0.0, 0.0, -404.27600196313887, 0.0]
['beep', 0.0, -1738.6304424560599, 0.0, 0.0, 0.0, 0.0, -405.4606444192701, 0.0]
['beep', 0.0, -1737.8704831445793, 0.0, 0.0, 0.0, 0.0, -404.83479557452154, 0.0]
['beep', 0.0, -1737.266986044286, 0.0, 0.0, 0.0, 0.0, -404.9689060412534, 0.0]
['beep', 0.0, -1737.6693174444817, 0.0, 0.0, 0.0, 0.0, -404.6336298744238, 0.0]
['beep', 0.0, -1739.0327738562553, 0.0, 0.0, 0.0, 0.0, -404.20894672977295, 0.0]
['beep', 0.0, -1740.0609541011995, 0.0, 0.0, 0.0, 0.0, -405.0806647635299, 0.0]
['beep', 0.0, -1740.6644512014927, 0.0, 0.0, 0.0, 0.0, -407.785225842622, 0.0]
['beep', 0.0, -1741.983204124356, 0.0, 0.0, 0.0, 0.0, -406.60058338649077, 0.0]
['beep', 0.0, -1737.758724422303, 0.0, 0.0, 0.0, 0.0, -404.3207054520495, 0.0]
['beep', 0.0, -1733.91422437599, 0.0, 0.0, 0.0, 0.0, -405.9970862861975, 0.0]
['beep', 0.0, -1734.0930383316324, 0.0, 0.0, 0.0, 0.0, -411.36150495547116, 0.0]
['beep', 0.0, -1736.3505645216185, 0.0, 0.0, 0.0, 0.0, -413.14964451189576, 0.0]
['beep', 0.0, -1737.0881720886437, 0.0, 0.0, 0.0, 0.0, -414.3566387124823, 0.0]
['beep', 0.0, -1736.3952680105292, 0.0, 0.0, 0.0, 0.0, -414.5801561570354, 0.0]
['beep', 0.0, -1735.076515087666, 0.0, 0.0, 0.0, 0.0, -414.2225282457505, 0.0]
['beep', 0.0, -1734.6294801985598, 0.0, 0.0, 0.0, 0.0, -415.38481895742643, 0.0]
['beep', 0.0, -1735.4788464878616, 0.0, 0.0, 0.0, 0.0, -414.624859645946, 0.0]
['beep', 0.0, -1736.9093581330012, 0.0, 0.0, 0.0, 0.0, -415.5412811686136, 0.0]
['beep', 0.0, -1735.9929366103336, 0.0, 0.0, 0.0, 0.0, -415.83185384653257, 0.0]
['beep', 0.0, -1735.8588261436018, 0.0, 0.0, 0.0, 0.0, -414.6919148793119, 0.0]
['beep', 0.0, -1735.657660443504, 0.0, 0.0, 0.0, 0.0, -413.77549335664435, 0.0]
['beep', 0.0, -1736.4846749883504, 0.0, 0.0, 0.0, 0.0, -414.80367360158846, 0.0]
['beep', 0.0, -1737.3116895331968, 0.0, 0.0, 0.0, 0.0, -415.3401154685158, 0.0]
['beep', 0.0, -1736.8423028996353, 0.0, 0.0, 0.0, 0.0, -415.6083364019795, 0.0]
['beep', 0.0, -1735.9258813769677, 0.0, 0.0, 0.0, 0.0, -416.3459439690047, 0.0]
['beep', 0.0, -1734.852997643113, 0.0, 0.0, 0.0, 0.0, -415.6083364019795, 0.0]
['beep', 0.0, -1734.562424965194, 0.0, 0.0, 0.0, 0.0, -415.9436125688091, 0.0]
['beep', 0.0, -1736.171750565976, 0.0, 0.0, 0.0, 0.0, -414.49074917921416, 0.0]
['beep', 0.0, -1736.8646546440907, 0.0, 0.0, 0.0, 0.0, -414.6025079014907, 0.0]
['beep', 0.0, -1735.3223842766745, 0.0, 0.0, 0.0, 0.0, -415.6977433798007, 0.0]
['beep', 0.0, -1734.204797053909, 0.0, 0.0, 0.0, 0.0, -416.25653699118345, 0.0]
['beep', 0.0, -1733.8471691426241, 0.0, 0.0, 0.0, 0.0, -414.80367360158846, 0.0]
['beep', 0.0, -1735.3000325322191, 0.0, 0.0, 0.0, 0.0, -414.49074917921416, 0.0]
['beep', 0.0, -1734.8082941542023, 0.0, 0.0, 0.0, 0.0, -414.8930805794097, 0.0]
['beep', 0.0, -1734.696535431926, 0.0, 0.0, 0.0, 0.0, -414.71426662376723, 0.0]
['beep', 0.0, -1733.7354104203475, 0.0, 0.0, 0.0, 0.0, -414.49074917921416, 0.0]
['beep', 0.0, -1733.176616808965, 0.0, 0.0, 0.0, 0.0, -415.5636329130689, 0.0]
['beep', 0.0, -1735.076515087666, 0.0, 0.0, 0.0, 0.0, -415.8989090798985, 0.0]
['beep', 0.0, -1736.3505645216185, 0.0, 0.0, 0.0, 0.0, -414.75897011267784, 0.0]
['beep', 0.0, -1734.9647563653896, 0.0, 0.0, 0.0, 0.0, -414.42369394584824, 0.0]
['beep', 0.0, -1734.2271487983644, 0.0, 0.0, 0.0, 0.0, -414.8707288349544, 0.0]
['beep', 0.0, -1735.6353086990487, 0.0, 0.0, 0.0, 0.0, -414.49074917921416, 0.0]
['beep', 0.0, -1736.6411371995375, 0.0, 0.0, 0.0, 0.0, -414.2001765012952, 0.0]
['beep', 0.0, -1735.8364743991465, 0.0, 0.0, 0.0, 0.0, -414.6025079014907, 0.0]
['beep', 0.0, -1734.6294801985598, 0.0, 0.0, 0.0, 0.0, -415.07189453505214, 0.0]
['beep', 0.0, -1734.2271487983644, 0.0, 0.0, 0.0, 0.0, -413.75314161218904, 0.0]
['beep', 0.0, -1733.3330790201521, 0.0, 0.0, 0.0, 0.0, -412.5908509005131, 0.0]
['beep', 0.0, -1734.3612592650961, 0.0, 0.0, 0.0, 0.0, -415.0271910461415, 0.0]
['beep', 0.0, -1734.0706865871773, 0.0, 0.0, 0.0, 0.0, -414.15547301238456, 0.0]
['beep', 0.0, -1734.204797053909, 0.0, 0.0, 0.0, 0.0, -413.6413828899125, 0.0]
['beep', 0.0, -1733.6236516980712, 0.0, 0.0, 0.0, 0.0, -412.52379566714717, 0.0]
['beep', 0.0, -1733.1319133200543, 0.0, 0.0, 0.0, 0.0, -412.9708305562533, 0.0]
['beep', 0.0, -1735.0988668321213, 0.0, 0.0, 0.0, 0.0, -414.2001765012952, 0.0]
['beep', 0.0, -1734.8753493875683, 0.0, 0.0, 0.0, 0.0, -412.18851950031757, 0.0]
['beep', 0.0, -1734.4283144984622, 0.0, 0.0, 0.0, 0.0, -412.2108712447729, 0.0]
['beep', 0.0, -1734.0259830982666, 0.0, 0.0, 0.0, 0.0, -412.5461474116025, 0.0]
['beep', 0.0, -1735.5906052101382, 0.0, 0.0, 0.0, 0.0, -413.2166997452617, 0.0]
['beep', 0.0, -1736.3282127771633, 0.0, 0.0, 0.0, 0.0, -413.9543073122868, 0.0]
['beep', 0.0, -1735.5906052101382, 0.0, 0.0, 0.0, 0.0, -413.9990108011974, 0.0]
['beep', 0.0, -1735.0094598543, 0.0, 0.0, 0.0, 0.0, -414.71426662376723, 0.0]
['beep', 0.0, -1734.8082941542023, 0.0, 0.0, 0.0, 0.0, -413.7084381232784, 0.0]
['beep', 0.0, -1734.562424965194, 0.0, 0.0, 0.0, 0.0, -414.15547301238456, 0.0]
['beep', 0.0, -1735.501198232317, 0.0, 0.0, 0.0, 0.0, -415.8989090798985, 0.0]
['beep', 0.0, -1734.8082941542023, 0.0, 0.0, 0.0, 0.0, -414.71426662376723, 0.0]
['beep', 0.0, -1735.1659220654872, 0.0, 0.0, 0.0, 0.0, -414.9377840683203, 0.0]
['beep', 0.0, -1736.4846749883504, 0.0, 0.0, 0.0, 0.0, -416.4129992023706, 0.0]
['beep', 0.0, -1736.0823435881548, 0.0, 0.0, 0.0, 0.0, -416.61416490246836, 0.0]
['beep', 0.0, -1735.6129569545935, 0.0, 0.0, 0.0, 0.0, -416.21183350227284, 0.0]
['beep', 0.0, -1734.9647563653896, 0.0, 0.0, 0.0, 0.0, -416.25653699118345, 0.0]
['beep', 0.0, -1735.6800121879594, 0.0, 0.0, 0.0, 0.0, -416.63651664692367, 0.0]
['beep', 0.0, -1735.8811778880572, 0.0, 0.0, 0.0, 0.0, -415.47422593524766, 0.0]
['beep', 0.0, -1735.076515087666, 0.0, 0.0, 0.0, 0.0, -414.6025079014907, 0.0]
['beep', 0.0, -1735.210625554398, 0.0, 0.0, 0.0, 0.0, -413.10494102298514, 0.0]
['beep', 0.0, -1734.9871081098447, 0.0, 0.0, 0.0, 0.0, -412.41203694487064, 0.0]
['beep', 0.0, -1736.0823435881548, 0.0, 0.0, 0.0, 0.0, -413.5519759120913, 0.0]
['beep', 0.0, -1736.1046953326102, 0.0, 0.0, 0.0, 0.0, -414.6695631348566, 0.0]
['beep', 0.0, -1735.2553290433084, 0.0, 0.0, 0.0, 0.0, -416.5024061801918, 0.0]
['beep', 0.0, -1734.2495005428198, 0.0, 0.0, 0.0, 0.0, -414.3119352235717, 0.0]
['beep', 0.0, -1734.2942040317303, 0.0, 0.0, 0.0, 0.0, -415.38481895742643, 0.0]
['beep', 0.0, -1735.367087765585, 0.0, 0.0, 0.0, 0.0, -416.27888873563876, 0.0]
['beep', 0.0, -1735.8588261436018, 0.0, 0.0, 0.0, 0.0, -415.83185384653257, 0.0]
['beep', 0.0, -1734.1377418205432, 0.0, 0.0, 0.0, 0.0, -415.3177637240605, 0.0]
['beep', 0.0, -1733.690706931437, 0.0, 0.0, 0.0, 0.0, -417.26236549167226, 0.0]
['beep', 0.0, -1733.7801139092583, 0.0, 0.0, 0.0, 0.0, -418.0223248031527, 0.0]
['beep', 0.0, -1734.3612592650961, 0.0, 0.0, 0.0, 0.0, -419.4081329593817, 0.0]
['beep', 0.0, -1735.948233121423, 0.0, 0.0, 0.0, 0.0, -420.32455448204934, 0.0]
['beep', 0.0, -1737.0211168552778, 0.0, 0.0, 0.0, 0.0, -419.29637423710517, 0.0]
['beep', 0.0, -1735.4117912544957, 0.0, 0.0, 0.0, 0.0, -419.29637423710517, 0.0]
['beep', 0.0, -1735.076515087666, 0.0, 0.0, 0.0, 0.0, -420.36925797095995, 0.0]
['beep', 0.0, -1736.6411371995375, 0.0, 0.0, 0.0, 0.0, -421.03981030461915, 0.0]
['beep', 0.0, -1736.529378477261, 0.0, 0.0, 0.0, 0.0, -422.09034229401857, 0.0]
['beep', 0.0, -1735.9705848658784, 0.0, 0.0, 0.0, 0.0, -420.36925797095995, 0.0]
['beep', 0.0, -1733.6460034425263, 0.0, 0.0, 0.0, 0.0, -418.93874632582026, 0.0]
['beep', 0.0, -1733.981279609356, 0.0, 0.0, 0.0, 0.0, -418.3576009699823, 0.0]
['beep', 0.0, -1735.9258813769677, 0.0, 0.0, 0.0, 0.0, -418.3128974810717, 0.0]
['beep', 0.0, -1738.1163523335879, 0.0, 0.0, 0.0, 0.0, -417.9999730586974, 0.0]
['beep', 0.0, -1739.0998290896214, 0.0, 0.0, 0.0, 0.0, -413.6413828899125, 0.0]
['beep', 0.0, -1738.3845732670516, 0.0, 0.0, 0.0, 0.0, -411.71913286675607, 0.0]
['beep', 0.0, -1736.663488943993, 0.0, 0.0, 0.0, 0.0, -413.79784510109965, 0.0]
['beep', 0.0, -1737.982241866856, 0.0, 0.0, 0.0, 0.0, -412.85907183397677, 0.0]
['beep', 0.0, -1739.5021604898168, 0.0, 0.0, 0.0, 0.0, -413.3061067230829, 0.0]
['beep', 0.0, -1739.4127535119956, 0.0, 0.0, 0.0, 0.0, -414.6695631348566, 0.0]
['beep', 0.0, -1738.4069250115067, 0.0, 0.0, 0.0, 0.0, -415.3177637240605, 0.0]
['beep', 0.0, -1739.0327738562553, 0.0, 0.0, 0.0, 0.0, -416.86003409147673, 0.0]
['beep', 0.0, -1739.6139192120934, 0.0, 0.0, 0.0, 0.0, -416.4129992023706, 0.0]
['beep', 0.0, -1739.5021604898168, 0.0, 0.0, 0.0, 0.0, -414.2001765012952, 0.0]
['beep', 0.0, -1739.0327738562553, 0.0, 0.0, 0.0, 0.0, -412.43438868932594, 0.0]
['beep', 0.0, -1738.6751459449704, 0.0, 0.0, 0.0, 0.0, -412.18851950031757, 0.0]
['beep', 0.0, -1739.0998290896214, 0.0, 0.0, 0.0, 0.0, -414.11076952347395, 0.0]
['beep', 0.0, -1740.0609541011995, 0.0, 0.0, 0.0, 0.0, -413.6413828899125, 0.0]
['beep', 0.0, -1741.625576213071, 0.0, 0.0, 0.0, 0.0, -414.6472113904013, 0.0]
['beep', 0.0, -1739.72567793437, 0.0, 0.0, 0.0, 0.0, -414.6695631348566, 0.0]
['beep', 0.0, -1738.943366878434, 0.0, 0.0, 0.0, 0.0, -415.3624672129711, 0.0]
['beep', 0.0, -1738.2281110558642, 0.0, 0.0, 0.0, 0.0, -414.624859645946, 0.0]
['beep', 0.0, -1738.8092564117023, 0.0, 0.0, 0.0, 0.0, -413.2166997452617, 0.0]
['beep', 0.0, -1739.882140145557, 0.0, 0.0, 0.0, 0.0, -412.41203694487064, 0.0]
['beep', 0.0, -1739.5692157231829, 0.0, 0.0, 0.0, 0.0, -411.65207763339015, 0.0]
['beep', 0.0, -1739.1445325785319, 0.0, 0.0, 0.0, 0.0, -411.4062084443818, 0.0]
['beep', 0.0, -1738.0940005891325, 0.0, 0.0, 0.0, 0.0, -413.3061067230829, 0.0]
['beep', 0.0, -1739.3904017675402, 0.0, 0.0, 0.0, 0.0, -414.5578044125801, 0.0]
['beep', 0.0, -1741.5808727241604, 0.0, 0.0, 0.0, 0.0, -414.6695631348566, 0.0]
['beep', 0.0, -1741.2455965573308, 0.0, 0.0, 0.0, 0.0, -413.46256893427005, 0.0]
['beep', 0.0, -1740.2174163123866, 0.0, 0.0, 0.0, 0.0, -413.239051489717, 0.0]
['beep', 0.0, -1740.1503610790207, 0.0, 0.0, 0.0, 0.0, -413.8872520789209, 0.0]
['beep', 0.0, -1740.5973959681269, 0.0, 0.0, 0.0, 0.0, -414.17782475683987, 0.0]
['beep', 0.0, -1741.558520979705, 0.0, 0.0, 0.0, 0.0, -413.9543073122868, 0.0]
['beep', 0.0, -1740.0609541011995, 0.0, 0.0, 0.0, 0.0, -413.9990108011974, 0.0]
['beep', 0.0, -1739.3233465341743, 0.0, 0.0, 0.0, 0.0, -413.0378857896192, 0.0]
['beep', 0.0, -1739.0104221118002, 0.0, 0.0, 0.0, 0.0, -412.81436834506616, 0.0]
['beep', 0.0, -1739.7927331677358, 0.0, 0.0, 0.0, 0.0, -412.83672008952146, 0.0]
['beep', 0.0, -1741.4914657463391, 0.0, 0.0, 0.0, 0.0, -413.48492067872536, 0.0]
['beep', 0.0, -1740.373878523574, 0.0, 0.0, 0.0, 0.0, -414.42369394584824, 0.0]
['beep', 0.0, -1739.6362709565487, 0.0, 0.0, 0.0, 0.0, -415.5189294241583, 0.0]
['beep', 0.0, -1740.6644512014927, 0.0, 0.0, 0.0, 0.0, -415.78715035762195, 0.0]
['beep', 0.0, -1741.8714454020794, 0.0, 0.0, 0.0, 0.0, -415.78715035762195, 0.0]
['beep', 0.0, -1743.2572535583083, 0.0, 0.0, 0.0, 0.0, -415.206005001784, 0.0]
['beep', 0.0, -1743.167846580487, 0.0, 0.0, 0.0, 0.0, -415.2283567462393, 0.0]
['beep', 0.0, -1741.625576213071, 0.0, 0.0, 0.0, 0.0, -413.9766590567421, 0.0]
['beep', 0.0, -1741.402058768518, 0.0, 0.0, 0.0, 0.0, -413.1943480008064, 0.0]
['beep', 0.0, -1742.4078872690068, 0.0, 0.0, 0.0, 0.0, -413.239051489717, 0.0]
['beep', 0.0, -1743.793695425236, 0.0, 0.0, 0.0, 0.0, -412.9931823007086, 0.0]
['beep', 0.0, -1743.9278058919676, 0.0, 0.0, 0.0, 0.0, -413.82019684555496, 0.0]
['beep', 0.0, -1741.4691140018838, 0.0, 0.0, 0.0, 0.0, -414.6472113904013, 0.0]
['beep', 0.0, -1740.396230268029, 0.0, 0.0, 0.0, 0.0, -413.10494102298514, 0.0]
['beep', 0.0, -1740.887968646046, 0.0, 0.0, 0.0, 0.0, -412.18851950031757, 0.0]
['beep', 0.0, -1741.4691140018838, 0.0, 0.0, 0.0, 0.0, -412.41203694487064, 0.0]
['beep', 0.0, -1741.5138174907945, 0.0, 0.0, 0.0, 0.0, -412.14381601140695, 0.0]
['beep', 0.0, -1740.7985616682247, 0.0, 0.0, 0.0, 0.0, -411.4285601888371, 0.0]
['beep', 0.0, -1740.753858179314, 0.0, 0.0, 0.0, 0.0, -411.94265031130914, 0.0]
['beep', 0.0, -1740.6420994570376, 0.0, 0.0, 0.0, 0.0, -412.83672008952146, 0.0]
['beep', 0.0, -1741.4467622574286, 0.0, 0.0, 0.0, 0.0, -413.9766590567421, 0.0]
['beep', 0.0, -1740.7985616682247, 0.0, 0.0, 0.0, 0.0, -413.82019684555496, 0.0]
['beep', 0.0, -1739.9268436344678, 0.0, 0.0, 0.0, 0.0, -413.17199625635106, 0.0]
['beep', 0.0, -1739.0327738562553, 0.0, 0.0, 0.0, 0.0, -413.3061067230829, 0.0]
['beep', 0.0, -1740.7315064348588, 0.0, 0.0, 0.0, 0.0, -412.5684991560578, 0.0]
['beep', 0.0, -1741.2232448128755, 0.0, 0.0, 0.0, 0.0, -412.657906133879, 0.0]
['beep', 0.0, -1742.5196459912834, 0.0, 0.0, 0.0, 0.0, -412.76966485615554, 0.0]
['beep', 0.0, -1741.8937971465348, 0.0, 0.0, 0.0, 0.0, -413.529624167636, 0.0]
['beep', 0.0, -1742.497294246828, 0.0, 0.0, 0.0, 0.0, -413.529624167636, 0.0]
['beep', 0.0, -1743.1231430915766, 0.0, 0.0, 0.0, 0.0, -413.75314161218904, 0.0]
['beep', 0.0, -1743.950157636423, 0.0, 0.0, 0.0, 0.0, -415.40717070188174, 0.0]
['beep', 0.0, -1743.3466605361295, 0.0, 0.0, 0.0, 0.0, -414.043714290108, 0.0]
['beep', 0.0, -1742.0279076132665, 0.0, 0.0, 0.0, 0.0, -413.14964451189576, 0.0]
['beep', 0.0, -1741.625576213071, 0.0, 0.0, 0.0, 0.0, -414.8930805794097, 0.0]
['beep', 0.0, -1742.4302390134621, 0.0, 0.0, 0.0, 0.0, -413.9319555678315, 0.0]
['beep', 0.0, -1742.4749425023726, 0.0, 0.0, 0.0, 0.0, -415.206005001784, 0.0]
['beep', 0.0, -1742.0726111021772, 0.0, 0.0, 0.0, 0.0, -415.42952244633705, 0.0]
['beep', 0.0, -1739.3904017675402, 0.0, 0.0, 0.0, 0.0, -413.6860863788231, 0.0]
['beep', 0.0, -1739.0998290896214, 0.0, 0.0, 0.0, 0.0, -413.1943480008064, 0.0]
['beep', 0.0, -1738.8763116450682, 0.0, 0.0, 0.0, 0.0, -414.51310092366947, 0.0]
['beep', 0.0, -1740.6197477125822, 0.0, 0.0, 0.0, 0.0, -414.71426662376723, 0.0]
['beep', 0.0, -1741.2232448128755, 0.0, 0.0, 0.0, 0.0, -413.9319555678315, 0.0]
['beep', 0.0, -1741.0891343461437, 0.0, 0.0, 0.0, 0.0, -414.78132185713315, 0.0]
['beep', 0.0, -1742.0502593577219, 0.0, 0.0, 0.0, 0.0, -413.75314161218904, 0.0]
['beep', 0.0, -1743.6372332140486, 0.0, 0.0, 0.0, 0.0, -413.10494102298514, 0.0]
['beep', 0.0, -1743.369012280585, 0.0, 0.0, 0.0, 0.0, -414.3566387124823, 0.0]
['beep', 0.0, -1743.592529725138, 0.0, 0.0, 0.0, 0.0, -413.0378857896192, 0.0]
['beep', 0.0, -1741.558520979705, 0.0, 0.0, 0.0, 0.0, -413.84254859001027, 0.0]
['beep', 0.0, -1741.6702797019816, 0.0, 0.0, 0.0, 0.0, -414.78132185713315, 0.0]
['beep', 0.0, -1743.7042884474147, 0.0, 0.0, 0.0, 0.0, -415.5189294241583, 0.0]
['beep', 0.0, -1743.9948611253335, 0.0, 0.0, 0.0, 0.0, -413.9766590567421, 0.0]
['beep', 0.0, -1743.369012280585, 0.0, 0.0, 0.0, 0.0, -412.38968520041533, 0.0]
['beep', 0.0, -1743.3913640250403, 0.0, 0.0, 0.0, 0.0, -412.79201660061085, 0.0]
['beep', 0.0, -1741.8714454020794, 0.0, 0.0, 0.0, 0.0, -413.1943480008064, 0.0]
['beep', 0.0, -1742.0726111021772, 0.0, 0.0, 0.0, 0.0, -414.2225282457505, 0.0]
['beep', 0.0, -1743.7042884474147, 0.0, 0.0, 0.0, 0.0, -414.49074917921416, 0.0]
['beep', 0.0, -1743.793695425236, 0.0, 0.0, 0.0, 0.0, -414.6472113904013, 0.0]
['beep', 0.0, -1741.4244105129733, 0.0, 0.0, 0.0, 0.0, -414.9377840683203, 0.0]
['beep', 0.0, -1741.558520979705, 0.0, 0.0, 0.0, 0.0, -414.80367360158846, 0.0]
['beep', 0.0, -1741.7596866798028, 0.0, 0.0, 0.0, 0.0, -414.78132185713315, 0.0]
['beep', 0.0, -1741.6479279575262, 0.0, 0.0, 0.0, 0.0, -415.5189294241583, 0.0]
['beep', 0.0, -1742.0055558688111, 0.0, 0.0, 0.0, 0.0, -415.2730602351499, 0.0]
['beep', 0.0, -1742.1843698244536, 0.0, 0.0, 0.0, 0.0, -414.8707288349544, 0.0]
['beep', 0.0, -1741.2679483017862, 0.0, 0.0, 0.0, 0.0, -415.3177637240605, 0.0]
['beep', 0.0, -1740.5750442236715, 0.0, 0.0, 0.0, 0.0, -416.27888873563876, 0.0]
['beep', 0.0, -1741.8937971465348, 0.0, 0.0, 0.0, 0.0, -416.56946141355775, 0.0]
['beep', 0.0, -1739.6139192120934, 0.0, 0.0, 0.0, 0.0, -414.84837709049907, 0.0]
['beep', 0.0, -1737.781076166758, 0.0, 0.0, 0.0, 0.0, -415.0048393016862, 0.0]
['beep', 0.0, -1736.3282127771633, 0.0, 0.0, 0.0, 0.0, -414.6025079014907, 0.0]
['beep', 0.0, -1737.266986044286, 0.0, 0.0, 0.0, 0.0, -414.13312126792925, 0.0]
['beep', 0.0, -1740.2174163123866, 0.0, 0.0, 0.0, 0.0, -412.76966485615554, 0.0]
['beep', 0.0, -1742.8325704136575, 0.0, 0.0, 0.0, 0.0, -413.5966794010019, 0.0]
['beep', 0.0, -1743.659584958504, 0.0, 0.0, 0.0, 0.0, -412.5908509005131, 0.0]
['beep', 0.0, -1744.5536547367162, 0.0, 0.0, 0.0, 0.0, -412.72496136724493, 0.0]
['beep', 0.0, -1745.0900966036436, 0.0, 0.0, 0.0, 0.0, -414.13312126792925, 0.0]
['beep', 0.0, -1746.0288698707666, 0.0, 0.0, 0.0, 0.0, -414.2895834791164, 0.0]
['beep', 0.0, -1746.1629803374983, 0.0, 0.0, 0.0, 0.0, -413.8872520789209, 0.0]
['beep', 0.0, -1745.9841663818559, 0.0, 0.0, 0.0, 0.0, -413.82019684555496, 0.0]
['beep', 0.0, -1744.3971925255291, 0.0, 0.0, 0.0, 0.0, -414.6919148793119, 0.0]
['beep', 0.0, -1745.2018553259202, 0.0, 0.0, 0.0, 0.0, -415.98831605771977, 0.0]
['beep', 0.0, -1745.9394628929454, 0.0, 0.0, 0.0, 0.0, -415.2954119796052, 0.0]
['beep', 0.0, -1746.274739059775, 0.0, 0.0, 0.0, 0.0, -415.16130151287337, 0.0]
['beep', 0.0, -1745.8500559151241, 0.0, 0.0, 0.0, 0.0, -415.5636329130689, 0.0]
['beep', 0.0, -1746.4982565043279, 0.0, 0.0, 0.0, 0.0, -414.49074917921416, 0.0]
['beep', 0.0, -1747.8393611716465, 0.0, 0.0, 0.0, 0.0, -415.76479861316665, 0.0]
['beep', 0.0, -1748.1522855940207, 0.0, 0.0, 0.0, 0.0, -415.8989090798985, 0.0]
['beep', 0.0, -1748.82283792768, 0.0, 0.0, 0.0, 0.0, -415.8765573354432, 0.0]
['beep', 0.0, -1747.72760244937, 0.0, 0.0, 0.0, 0.0, -415.2283567462393, 0.0]
['beep', 0.0, -1746.565311737694, 0.0, 0.0, 0.0, 0.0, -413.8649003344656, 0.0]
['beep', 0.0, -1747.4817332603616, 0.0, 0.0, 0.0, 0.0, -415.42952244633705, 0.0]
['beep', 0.0, -1748.0628786161994, 0.0, 0.0, 0.0, 0.0, -416.21183350227284, 0.0]
['beep', 0.0, -1747.6828989604592, 0.0, 0.0, 0.0, 0.0, -415.8765573354432, 0.0]
['beep', 0.0, -1746.7664774377915, 0.0, 0.0, 0.0, 0.0, -415.2507084906946, 0.0]
['beep', 0.0, -1745.6712419594817, 0.0, 0.0, 0.0, 0.0, -417.0611997915745, 0.0]
['beep', 0.0, -1747.8170094271911, 0.0, 0.0, 0.0, 0.0, -417.64234514741247, 0.0]
['beep', 0.0, -1748.82283792768, 0.0, 0.0, 0.0, 0.0, -417.55293816959124, 0.0]
['beep', 0.0, -1749.180465838965, 0.0, 0.0, 0.0, 0.0, -416.52475792464713, 0.0]
['beep', 0.0, -1747.4370297714509, 0.0, 0.0, 0.0, 0.0, -417.57528991404655, 0.0]
['beep', 0.0, -1747.4817332603616, 0.0, 0.0, 0.0, 0.0, -418.8046358590884, 0.0]
['beep', 0.0, -1748.4428582719397, 0.0, 0.0, 0.0, 0.0, -419.25167074819456, 0.0]
['beep', 0.0, -1749.1357623500542, 0.0, 0.0, 0.0, 0.0, -418.58111841453535, 0.0]
['beep', 0.0, -1747.5711402381828, 0.0, 0.0, 0.0, 0.0, -417.9999730586974, 0.0]
['beep', 0.0, -1746.6547187155152, 0.0, 0.0, 0.0, 0.0, -418.4470079478035, 0.0]
['beep', 0.0, -1747.0346983712552, 0.0, 0.0, 0.0, 0.0, -418.96109807027557, 0.0]
['beep', 0.0, -1746.8782361600681, 0.0, 0.0, 0.0, 0.0, -418.17878701433983, 0.0]
['beep', 0.0, -1747.7723059382804, 0.0, 0.0, 0.0, 0.0, -418.7375806257225, 0.0]
['beep', 0.0, -1748.3087478052078, 0.0, 0.0, 0.0, 0.0, -419.6987056373007, 0.0]
['beep', 0.0, -1746.8335326711576, 0.0, 0.0, 0.0, 0.0, -419.89987133739845, 0.0]
['beep', 0.0, -1746.7664774377915, 0.0, 0.0, 0.0, 0.0, -419.20696725928394, 0.0]
['beep', 0.0, -1747.7052507049145, 0.0, 0.0, 0.0, 0.0, -418.1564352698845, 0.0]
['beep', 0.0, -1749.0687071166883, 0.0, 0.0, 0.0, 0.0, -417.6870486363231, 0.0]
['beep', 0.0, -1749.2475210723308, 0.0, 0.0, 0.0, 0.0, -417.46353119177, 0.0]
['beep', 0.0, -1748.1522855940207, 0.0, 0.0, 0.0, 0.0, -418.91639458136495, 0.0]
['beep', 0.0, -1749.5380937502498, 0.0, 0.0, 0.0, 0.0, -419.4528364482923, 0.0]
['beep', 0.0, -1750.5662739951938, 0.0, 0.0, 0.0, 0.0, -419.25167074819456, 0.0]
['beep', 0.0, -1751.169771095487, 0.0, 0.0, 0.0, 0.0, -419.27402249264986, 0.0]
['beep', 0.0, -1750.8791984175682, 0.0, 0.0, 0.0, 0.0, -420.01163005967504, 0.0]
['beep', 0.0, -1749.180465838965, 0.0, 0.0, 0.0, 0.0, -419.7881126151219, 0.0]
['beep', 0.0, -1748.82283792768, 0.0, 0.0, 0.0, 0.0, -419.0058015591862, 0.0]
['beep', 0.0, -1748.8451896721351, 0.0, 0.0, 0.0, 0.0, -420.43631320432587, 0.0]
['beep', 0.0, -1749.0910588611437, 0.0, 0.0, 0.0, 0.0, -421.2409760047169, 0.0]
['beep', 0.0, -1748.9122449055012, 0.0, 0.0, 0.0, 0.0, -420.8386446045214, 0.0]
['beep', 0.0, -1748.465210016395, 0.0, 0.0, 0.0, 0.0, -420.07868529304096, 0.0]
['beep', 0.0, -1748.174637338476, 0.0, 0.0, 0.0, 0.0, -420.05633354858566, 0.0]
['beep', 0.0, -1747.5040850048167, 0.0, 0.0, 0.0, 0.0, -419.8104643595772, 0.0]
['beep', 0.0, -1749.560445494705, 0.0, 0.0, 0.0, 0.0, -419.7434091262113, 0.0]
['beep', 0.0, -1749.2251693278754, 0.0, 0.0, 0.0, 0.0, -417.3964759584041, 0.0]
['beep', 0.0, -1747.2135123268977, 0.0, 0.0, 0.0, 0.0, -416.7482753692002, 0.0]
['beep', 0.0, -1747.5040850048167, 0.0, 0.0, 0.0, 0.0, -416.61416490246836, 0.0]
['beep', 0.0, -1748.4428582719397, 0.0, 0.0, 0.0, 0.0, -416.56946141355775, 0.0]
['beep', 0.0, -1748.7110792054034, 0.0, 0.0, 0.0, 0.0, -418.53641492562474, 0.0]
['beep', 0.0, -1749.5380937502498, 0.0, 0.0, 0.0, 0.0, -418.58111841453535, 0.0]
['beep', 0.0, -1748.688727460948, 0.0, 0.0, 0.0, 0.0, -417.4411794473147, 0.0]
['beep', 0.0, -1748.2863960607526, 0.0, 0.0, 0.0, 0.0, -418.8269876035437, 0.0]
['beep', 0.0, -1749.4039832835178, 0.0, 0.0, 0.0, 0.0, -418.53641492562474, 0.0]
['beep', 0.0, -1749.8286664281686, 0.0, 0.0, 0.0, 0.0, -420.1233887819516, 0.0]
['beep', 0.0, -1751.0803641176658, 0.0, 0.0, 0.0, 0.0, -419.0505050480968, 0.0]
['beep', 0.0, -1749.2475210723308, 0.0, 0.0, 0.0, 0.0, -416.56946141355775, 0.0]
['beep', 0.0, -1749.6051489836157, 0.0, 0.0, 0.0, 0.0, -417.8211591030549, 0.0]
['beep', 0.0, -1751.6615094735039, 0.0, 0.0, 0.0, 0.0, -417.6646968918678, 0.0]
['beep', 0.0, -1751.1921228399424, 0.0, 0.0, 0.0, 0.0, -417.7988073585996, 0.0]
['beep', 0.0, -1751.2144745843977, 0.0, 0.0, 0.0, 0.0, -417.17295851385103, 0.0]
['beep', 0.0, -1751.5050472623168, 0.0, 0.0, 0.0, 0.0, -417.3294207250382, 0.0]
['beep', 0.0, -1750.1639425949984, 0.0, 0.0, 0.0, 0.0, -417.3964759584041, 0.0]
['beep', 0.0, -1750.946253650934, 0.0, 0.0, 0.0, 0.0, -417.86586259196554, 0.0]
['beep', 0.0, -1751.9073786625122, 0.0, 0.0, 0.0, 0.0, -418.58111841453535, 0.0]
['beep', 0.0, -1750.9015501620233, 0.0, 0.0, 0.0, 0.0, -417.95526956978676, 0.0]
['beep', 0.0, -1750.5886257396492, 0.0, 0.0, 0.0, 0.0, -418.20113875879514, 0.0]
['beep', 0.0, -1749.7839629392581, 0.0, 0.0, 0.0, 0.0, -417.8211591030549, 0.0]
['beep', 0.0, -1750.722736206381, 0.0, 0.0, 0.0, 0.0, -418.7152288812672, 0.0]
['beep', 0.0, -1752.4214687849844, 0.0, 0.0, 0.0, 0.0, -419.18461551482864, 0.0]
['beep', 0.0, -1752.242654829342, 0.0, 0.0, 0.0, 0.0, -419.4528364482923, 0.0]
['beep', 0.0, -1750.7450879508363, 0.0, 0.0, 0.0, 0.0, -419.0058015591862, 0.0]
['beep', 0.0, -1750.5439222507384, 0.0, 0.0, 0.0, 0.0, -420.2127957597728, 0.0]
['beep', 0.0, -1752.1308961070654, 0.0, 0.0, 0.0, 0.0, -420.2127957597728, 0.0]
['beep', 0.0, -1753.1367246075542, 0.0, 0.0, 0.0, 0.0, -419.54224342611354, 0.0]
['beep', 0.0, -1753.2931868187413, 0.0, 0.0, 0.0, 0.0, -420.1457405264069, 0.0]
['beep', 0.0, -1753.0249658852777, 0.0, 0.0, 0.0, 0.0, -420.4810166932365, 0.0]
['beep', 0.0, -1752.0861926181547, 0.0, 0.0, 0.0, 0.0, -421.46449344927, 0.0]
['beep', 0.0, -1751.9073786625122, 0.0, 0.0, 0.0, 0.0, -422.1350457829292, 0.0]
['beep', 0.0, -1751.9073786625122, 0.0, 0.0, 0.0, 0.0, -422.2021010162951, 0.0]
['beep', 0.0, -1750.6109774841045, 0.0, 0.0, 0.0, 0.0, -421.4868451937253, 0.0]
['beep', 0.0, -1748.174637338476, 0.0, 0.0, 0.0, 0.0, -420.8162928600661, 0.0]
['beep', 0.0, -1747.72760244937, 0.0, 0.0, 0.0, 0.0, -420.39160971541526, 0.0]
['beep', 0.0, -1748.040526871744, 0.0, 0.0, 0.0, 0.0, -419.63165040393477, 0.0]
['beep', 0.0, -1750.007480383811, 0.0, 0.0, 0.0, 0.0, -421.1068655379851, 0.0]
['beep', 0.0, -1750.2980530617301, 0.0, 0.0, 0.0, 0.0, -421.2633277491722, 0.0]
['beep', 0.0, -1749.9180734059898, 0.0, 0.0, 0.0, 0.0, -420.30220273759403, 0.0]
['beep', 0.0, -1750.3204048061855, 0.0, 0.0, 0.0, 0.0, -420.5704236710577, 0.0]
['beep', 0.0, -1750.722736206381, 0.0, 0.0, 0.0, 0.0, -421.30803123808283, 0.0]
['beep', 0.0, -1751.9073786625122, 0.0, 0.0, 0.0, 0.0, -421.64330740491243, 0.0]
['beep', 0.0, -1752.1979513404312, 0.0, 0.0, 0.0, 0.0, -421.5762521715465, 0.0]
['beep', 0.0, -1751.1250676065765, 0.0, 0.0, 0.0, 0.0, -422.6044324164906, 0.0]
['beep', 0.0, -1750.789791439747, 0.0, 0.0, 0.0, 0.0, -421.9338800828314, 0.0]
['beep', 0.0, -1750.4768670173726, 0.0, 0.0, 0.0, 0.0, -420.07868529304096, 0.0]
['beep', 0.0, -1751.9967856403334, 0.0, 0.0, 0.0, 0.0, -422.29150799411633, 0.0]
['beep', 0.0, -1753.9637391524004, 0.0, 0.0, 0.0, 0.0, -421.9115283383761, 0.0]
['beep', 0.0, -1753.4720007743838, 0.0, 0.0, 0.0, 0.0, -420.7939411156108, 0.0]
['beep', 0.0, -1751.8626751736017, 0.0, 0.0, 0.0, 0.0, -420.5033684376918, 0.0]
['beep', 0.0, -1752.6673379739927, 0.0, 0.0, 0.0, 0.0, -422.00093531619734, 0.0]
['beep', 0.0, -1753.2261315853755, 0.0, 0.0, 0.0, 0.0, -423.0961707945074, 0.0]
['beep', 0.0, -1751.7956199402358, 0.0, 0.0, 0.0, 0.0, -422.4926736942141, 0.0]
['beep', 0.0, -1751.3932885400402, 0.0, 0.0, 0.0, 0.0, -423.05146730559676, 0.0]
['beep', 0.0, -1750.208646083909, 0.0, 0.0, 0.0, 0.0, -422.69383939431185, 0.0]
['beep', 0.0, -1750.1639425949984, 0.0, 0.0, 0.0, 0.0, -421.30803123808283, 0.0]
['beep', 0.0, -1751.6838612179592, 0.0, 0.0, 0.0, 0.0, -419.94457482630906, 0.0]
['beep', 0.0, -1750.9686053953894, 0.0, 0.0, 0.0, 0.0, -420.97275507125323, 0.0]
['beep', 0.0, -1750.007480383811, 0.0, 0.0, 0.0, 0.0, -421.41978996035937, 0.0]
['beep', 0.0, -1750.208646083909, 0.0, 0.0, 0.0, 0.0, -421.46449344927, 0.0]
['beep', 0.0, -1750.3427565506408, 0.0, 0.0, 0.0, 0.0, -421.1515690268957, 0.0]
['beep', 0.0, -1750.5662739951938, 0.0, 0.0, 0.0, 0.0, -421.9115283383761, 0.0]
['beep', 0.0, -1751.3262333066743, 0.0, 0.0, 0.0, 0.0, -421.5315486826359, 0.0]
['beep', 0.0, -1751.0580123732107, 0.0, 0.0, 0.0, 0.0, -420.36925797095995, 0.0]
['beep', 0.0, -1749.8286664281686, 0.0, 0.0, 0.0, 0.0, -421.1962725158063, 0.0]
['beep', 0.0, -1750.141590850543, 0.0, 0.0, 0.0, 0.0, -421.37508647144875, 0.0]
['beep', 0.0, -1750.789791439747, 0.0, 0.0, 0.0, 0.0, -420.5257201821471, 0.0]
['beep', 0.0, -1749.7839629392581, 0.0, 0.0, 0.0, 0.0, -421.03981030461915, 0.0]
['beep', 0.0, -1749.4486867724286, 0.0, 0.0, 0.0, 0.0, -420.97275507125323, 0.0]
['beep', 0.0, -1748.3534512941185, 0.0, 0.0, 0.0, 0.0, -420.5704236710577, 0.0]
['beep', 0.0, -1748.6440239720375, 0.0, 0.0, 0.0, 0.0, -421.5539004270912, 0.0]
['beep', 0.0, -1749.5827972391603, 0.0, 0.0, 0.0, 0.0, -421.5315486826359, 0.0]
['beep', 0.0, -1749.8286664281686, 0.0, 0.0, 0.0, 0.0, -421.8891765939208, 0.0]
['beep', 0.0, -1749.336928050152, 0.0, 0.0, 0.0, 0.0, -421.73271438273366, 0.0]
['beep', 0.0, -1749.1357623500542, 0.0, 0.0, 0.0, 0.0, -422.35856322748225, 0.0]
['beep', 0.0, -1749.3592797946073, 0.0, 0.0, 0.0, 0.0, -422.6044324164906, 0.0]
['beep', 0.0, -1749.6722042169815, 0.0, 0.0, 0.0, 0.0, -423.5432056836135, 0.0]
['beep', 0.0, -1751.5273990067722, 0.0, 0.0, 0.0, 0.0, -423.36439172797105, 0.0]
['beep', 0.0, -1749.6722042169815, 0.0, 0.0, 0.0, 0.0, -422.42561846084817, 0.0]
['beep', 0.0, -1749.3145763056966, 0.0, 0.0, 0.0, 0.0, -423.36439172797105, 0.0]
['beep', 0.0, -1750.6780327174704, 0.0, 0.0, 0.0, 0.0, -422.5373771831247, 0.0]
['beep', 0.0, -1751.9744338958783, 0.0, 0.0, 0.0, 0.0, -421.7997696160996, 0.0]
['beep', 0.0, -1751.8626751736017, 0.0, 0.0, 0.0, 0.0, -421.4421417048147, 0.0]
['beep', 0.0, -1751.9744338958783, 0.0, 0.0, 0.0, 0.0, -421.46449344927, 0.0]
['beep', 0.0, -1751.0133088843, 0.0, 0.0, 0.0, 0.0, -421.75506612718897, 0.0]
['beep', 0.0, -1750.0521838727218, 0.0, 0.0, 0.0, 0.0, -422.31385973857164, 0.0]
['beep', 0.0, -1750.499218761828, 0.0, 0.0, 0.0, 0.0, -422.8279498610437, 0.0]
['beep', 0.0, -1750.9015501620233, 0.0, 0.0, 0.0, 0.0, -424.012592317175, 0.0]
['beep', 0.0, -1750.5662739951938, 0.0, 0.0, 0.0, 0.0, -423.31968823906044, 0.0]
['beep', 0.0, -1750.9686053953894, 0.0, 0.0, 0.0, 0.0, -423.5432056836135, 0.0]
['beep', 0.0, -1751.6391577290485, 0.0, 0.0, 0.0, 0.0, -423.72201963925596, 0.0]
['beep', 0.0, -1751.952082151423, 0.0, 0.0, 0.0, 0.0, -423.7667231281666, 0.0]
['beep', 0.0, -1752.2873583182525, 0.0, 0.0, 0.0, 0.0, -422.69383939431185, 0.0]
['beep', 0.0, -1751.0803641176658, 0.0, 0.0, 0.0, 0.0, -422.31385973857164, 0.0]
['beep', 0.0, -1750.8344949286575, 0.0, 0.0, 0.0, 0.0, -422.8055981165884, 0.0]
['beep', 0.0, -1751.2815298177636, 0.0, 0.0, 0.0, 0.0, -423.0961707945074, 0.0]
['beep', 0.0, -1752.1979513404312, 0.0, 0.0, 0.0, 0.0, -423.72201963925596, 0.0]
['beep', 0.0, -1752.0638408736995, 0.0, 0.0, 0.0, 0.0, -424.3702202284599, 0.0]
['beep', 0.0, -1751.169771095487, 0.0, 0.0, 0.0, 0.0, -424.10199929499623, 0.0]
['beep', 0.0, -1750.0521838727218, 0.0, 0.0, 0.0, 0.0, -424.83960686202136, 0.0]
['beep', 0.0, -1751.236826328853, 0.0, 0.0, 0.0, 0.0, -424.81725511756605, 0.0]
['beep', 0.0, -1751.3262333066743, 0.0, 0.0, 0.0, 0.0, -422.98441207223084, 0.0]
['beep', 0.0, -1751.7285647068697, 0.0, 0.0, 0.0, 0.0, -423.05146730559676, 0.0]
['beep', 0.0, -1750.789791439747, 0.0, 0.0, 0.0, 0.0, -422.06799054956326, 0.0]
['beep', 0.0, -1749.493390261339, 0.0, 0.0, 0.0, 0.0, -423.40909521688167, 0.0]
['beep', 0.0, -1750.2309978283643, 0.0, 0.0, 0.0, 0.0, -424.5713859285577, 0.0]
['beep', 0.0, -1751.0133088843, 0.0, 0.0, 0.0, 0.0, -424.593737673013, 0.0]
['beep', 0.0, -1751.0133088843, 0.0, 0.0, 0.0, 0.0, -424.81725511756605, 0.0]
['beep', 0.0, -1750.0745356171772, 0.0, 0.0, 0.0, 0.0, -424.6160894174683, 0.0]
['beep', 0.0, -1749.8957216615347, 0.0, 0.0, 0.0, 0.0, -425.5995661735018, 0.0]
['beep', 0.0, -1750.7450879508363, 0.0, 0.0, 0.0, 0.0, -424.14670278390685, 0.0]
['beep', 0.0, -1751.3932885400402, 0.0, 0.0, 0.0, 0.0, -423.5432056836135, 0.0]
['beep', 0.0, -1751.4379920289507, 0.0, 0.0, 0.0, 0.0, -423.38674347242636, 0.0]
['beep', 0.0, -1750.8568466731128, 0.0, 0.0, 0.0, 0.0, -424.10199929499623, 0.0]
['beep', 0.0, -1750.2757013172748, 0.0, 0.0, 0.0, 0.0, -424.593737673013, 0.0]
['beep', 0.0, -1750.789791439747, 0.0, 0.0, 0.0, 0.0, -424.50433069519175, 0.0]
['beep', 0.0, -1752.0861926181547, 0.0, 0.0, 0.0, 0.0, -425.17488302885096, 0.0]
['beep', 0.0, -1751.5273990067722, 0.0, 0.0, 0.0, 0.0, -425.21958651776157, 0.0]
['beep', 0.0, -1749.5380937502498, 0.0, 0.0, 0.0, 0.0, -424.6384411619236, 0.0]
['beep', 0.0, -1748.7110792054034, 0.0, 0.0, 0.0, 0.0, -423.8337783615325, 0.0]
['beep', 0.0, -1749.694555961437, 0.0, 0.0, 0.0, 0.0, -424.2808132506387, 0.0]
['beep', 0.0, -1751.0580123732107, 0.0, 0.0, 0.0, 0.0, -423.40909521688167, 0.0]
['beep', 0.0, -1751.952082151423, 0.0, 0.0, 0.0, 0.0, -423.4985021947029, 0.0]
['beep', 0.0, -1751.2591780733082, 0.0, 0.0, 0.0, 0.0, -423.6102609169794, 0.0]
['beep', 0.0, -1751.169771095487, 0.0, 0.0, 0.0, 0.0, -423.9678888282644, 0.0]
['beep', 0.0, -1751.7956199402358, 0.0, 0.0, 0.0, 0.0, -424.6831446508342, 0.0]
['beep', 0.0, -1752.242654829342, 0.0, 0.0, 0.0, 0.0, -423.7667231281666, 0.0]
['beep', 0.0, -1752.3544135516183, 0.0, 0.0, 0.0, 0.0, -423.2526330056945, 0.0]
['beep', 0.0, -1752.0638408736995, 0.0, 0.0, 0.0, 0.0, -422.2244527607504, 0.0]
['beep', 0.0, -1751.3709367955848, 0.0, 0.0, 0.0, 0.0, -421.35273472699345, 0.0]
['beep', 0.0, -1751.5050472623168, 0.0, 0.0, 0.0, 0.0, -422.31385973857164, 0.0]
['beep', 0.0, -1751.952082151423, 0.0, 0.0, 0.0, 0.0, -423.8784818504431, 0.0]
['beep', 0.0, -1751.7956199402358, 0.0, 0.0, 0.0, 0.0, -424.593737673013, 0.0]
['beep', 0.0, -1751.7062129624146, 0.0, 0.0, 0.0, 0.0, -425.3536969844934, 0.0]
['beep', 0.0, -1752.8014484407245, 0.0, 0.0, 0.0, 0.0, -425.21958651776157, 0.0]
['beep', 0.0, -1752.7343932073586, 0.0, 0.0, 0.0, 0.0, -424.54903418410237, 0.0]
['beep', 0.0, -1752.242654829342, 0.0, 0.0, 0.0, 0.0, -424.593737673013, 0.0]
['beep', 0.0, -1752.2203030848866, 0.0, 0.0, 0.0, 0.0, -424.593737673013, 0.0]
['beep', 0.0, -1751.4826955178614, 0.0, 0.0, 0.0, 0.0, -424.9066620953873, 0.0]
['beep', 0.0, -1749.985128639356, 0.0, 0.0, 0.0, 0.0, -424.9290138398426, 0.0]
['beep', 0.0, -1750.7450879508363, 0.0, 0.0, 0.0, 0.0, -424.3255167395493, 0.0]
['beep', 0.0, -1751.9073786625122, 0.0, 0.0, 0.0, 0.0, -425.0631243065744, 0.0]
['beep', 0.0, -1753.3602420521072, 0.0, 0.0, 0.0, 0.0, -425.13017953994034, 0.0]
['beep', 0.0, -1752.2873583182525, 0.0, 0.0, 0.0, 0.0, -425.42075221785933, 0.0]
['beep', 0.0, -1750.499218761828, 0.0, 0.0, 0.0, 0.0, -423.65496440589004, 0.0]
['beep', 0.0, -1750.5215705062833, 0.0, 0.0, 0.0, 0.0, -423.5879091725241, 0.0]
['beep', 0.0, -1750.6109774841045, 0.0, 0.0, 0.0, 0.0, -423.2526330056945, 0.0]
['beep', 0.0, -1749.627500728071, 0.0, 0.0, 0.0, 0.0, -422.269156249661, 0.0]
['beep', 0.0, -1746.945291393434, 0.0, 0.0, 0.0, 0.0, -422.1350457829292, 0.0]
['beep', 0.0, -1746.073573359677, 0.0, 0.0, 0.0, 0.0, -421.5986039160018, 0.0]
['beep', 0.0, -1747.1688088379872, 0.0, 0.0, 0.0, 0.0, -420.07868529304096, 0.0]
['beep', 0.0, -1749.5157420057944, 0.0, 0.0, 0.0, 0.0, -420.68218239333424, 0.0]
['beep', 0.0, -1750.3874600395513, 0.0, 0.0, 0.0, 0.0, -421.01745856016385, 0.0]
['beep', 0.0, -1750.9686053953894, 0.0, 0.0, 0.0, 0.0, -419.89987133739845, 0.0]
['beep', 0.0, -1750.8344949286575, 0.0, 0.0, 0.0, 0.0, -419.6763538928454, 0.0]
['beep', 0.0, -1751.9744338958783, 0.0, 0.0, 0.0, 0.0, -420.74923762670016, 0.0]
['beep', 0.0, -1752.9355589074564, 0.0, 0.0, 0.0, 0.0, -421.8221213605549, 0.0]
['beep', 0.0, -1754.0978496191324, 0.0, 0.0, 0.0, 0.0, -421.37508647144875, 0.0]
['beep', 0.0, -1752.9579106519118, 0.0, 0.0, 0.0, 0.0, -421.5091969381806, 0.0]
['beep', 0.0, -1751.750916451325, 0.0, 0.0, 0.0, 0.0, -422.40326671639286, 0.0]
['beep', 0.0, -1751.5050472623168, 0.0, 0.0, 0.0, 0.0, -422.6044324164906, 0.0]
['beep', 0.0, -1752.4214687849844, 0.0, 0.0, 0.0, 0.0, -422.6044324164906, 0.0]
['beep', 0.0, -1752.1755995959759, 0.0, 0.0, 0.0, 0.0, -424.0349440616303, 0.0]
['beep', 0.0, -1752.7343932073586, 0.0, 0.0, 0.0, 0.0, -423.8337783615325, 0.0]
['beep', 0.0, -1751.7062129624146, 0.0, 0.0, 0.0, 0.0, -424.43727546182583, 0.0]
['beep', 0.0, -1751.3262333066743, 0.0, 0.0, 0.0, 0.0, -424.9290138398426, 0.0]
['beep', 0.0, -1752.1532478515207, 0.0, 0.0, 0.0, 0.0, -425.08547605102973, 0.0]
['beep', 0.0, -1752.0191373847888, 0.0, 0.0, 0.0, 0.0, -426.4042289738928, 0.0]
['beep', 0.0, -1871.265694053852, 0.0, 0.0, 0.0, 0.0, -648.5582171151897, 0.0]
['beep', 0.0, -1869.7457754308912, 0.0, 0.0, 0.0, 0.0, -647.9994235038071, 0.0]
['beep', 0.0, -1870.818659164746, 0.0, 0.0, 0.0, 0.0, -646.0995252251059, 0.0]
['beep', 0.0, -1872.8973713990895, 0.0, 0.0, 0.0, 0.0, -646.323042669659, 0.0]
['beep', 0.0, -1872.718557443447, 0.0, 0.0, 0.0, 0.0, -647.6641473369774, 0.0]
['beep', 0.0, -1871.2209905649413, 0.0, 0.0, 0.0, 0.0, -648.4688101373685, 0.0]
['beep', 0.0, -1871.6009702206816, 0.0, 0.0, 0.0, 0.0, -648.2452926928154, 0.0]
['beep', 0.0, -1873.7243859439357, 0.0, 0.0, 0.0, 0.0, -648.9605485153853, 0.0]
['beep', 0.0, -1875.1325458446202, 0.0, 0.0, 0.0, 0.0, -649.6981560824104, 0.0]
['beep', 0.0, -1874.1937725774972, 0.0, 0.0, 0.0, 0.0, -650.1451909715165, 0.0]
['beep', 0.0, -1872.7409091879022, 0.0, 0.0, 0.0, 0.0, -648.3346996706366, 0.0]
['beep', 0.0, -1872.4950399988938, 0.0, 0.0, 0.0, 0.0, -647.8653130370752, 0.0]
['beep', 0.0, -1872.0480051097877, 0.0, 0.0, 0.0, 0.0, -648.1782374594495, 0.0]
['beep', 0.0, -1872.5620952322597, 0.0, 0.0, 0.0, 0.0, -647.7982578037092, 0.0]
['beep', 0.0, -1872.8303161657234, 0.0, 0.0, 0.0, 0.0, -650.7933915607205, 0.0]
['beep', 0.0, -1871.9809498764218, 0.0, 0.0, 0.0, 0.0, -652.6709380949662, 0.0]
['beep', 0.0, -1872.0927085986984, 0.0, 0.0, 0.0, 0.0, -651.3745369165584, 0.0]
['beep', 0.0, -1873.5008684993827, 0.0, 0.0, 0.0, 0.0, -647.7982578037092, 0.0]
['beep', 0.0, -1873.6796824550252, 0.0, 0.0, 0.0, 0.0, -646.323042669659, 0.0]
['beep', 0.0, -1872.942074888, 0.0, 0.0, 0.0, 0.0, -647.7312025703434, 0.0]
['beep', 0.0, -1872.6738539545363, 0.0, 0.0, 0.0, 0.0, -647.6864990814328, 0.0]
['beep', 0.0, -1873.0314818658212, 0.0, 0.0, 0.0, 0.0, -648.8487897931087, 0.0]
['beep', 0.0, -1872.7632609323575, 0.0, 0.0, 0.0, 0.0, -648.0664787371729, 0.0]
['beep', 0.0, -1872.6738539545363, 0.0, 0.0, 0.0, 0.0, -648.0664787371729, 0.0]
['beep', 0.0, -1872.9867783769107, 0.0, 0.0, 0.0, 0.0, -647.5747403591562, 0.0]
['beep', 0.0, -1873.5455719882932, 0.0, 0.0, 0.0, 0.0, -648.8934932820193, 0.0]
['beep', 0.0, -1874.1267173441313, 0.0, 0.0, 0.0, 0.0, -647.4182781479691, 0.0]
['beep', 0.0, -1873.7020341994805, 0.0, 0.0, 0.0, 0.0, -645.8313042916423, 0.0]
['beep', 0.0, -1873.2102958214637, 0.0, 0.0, 0.0, 0.0, -647.7535543147986, 0.0]
['beep', 0.0, -1873.076185354732, 0.0, 0.0, 0.0, 0.0, -650.6369293495333, 0.0]
['beep', 0.0, -1874.909028400067, 0.0, 0.0, 0.0, 0.0, -648.6923275819215, 0.0]
['beep', 0.0, -1875.557228989271, 0.0, 0.0, 0.0, 0.0, -647.1724089589607, 0.0]
['beep', 0.0, -1874.2831795553184, 0.0, 0.0, 0.0, 0.0, -647.9323682704411, 0.0]
['beep', 0.0, -1872.070356854243, 0.0, 0.0, 0.0, 0.0, -648.3346996706366, 0.0]
['beep', 0.0, -1872.3832812766173, 0.0, 0.0, 0.0, 0.0, -649.0052520042959, 0.0]
['beep', 0.0, -1873.7914411773017, 0.0, 0.0, 0.0, 0.0, -650.1898944604271, 0.0]
['beep', 0.0, -1874.1937725774972, 0.0, 0.0, 0.0, 0.0, -648.6252723485557, 0.0]
['beep', 0.0, -1873.6573307105698, 0.0, 0.0, 0.0, 0.0, -647.708850825888, 0.0]
['beep', 0.0, -1872.4950399988938, 0.0, 0.0, 0.0, 0.0, -647.2841676812372, 0.0]
['beep', 0.0, -1872.651502210081, 0.0, 0.0, 0.0, 0.0, -646.1218769695613, 0.0]
['beep', 0.0, -1873.299702799285, 0.0, 0.0, 0.0, 0.0, -646.5465601142121, 0.0]
['beep', 0.0, -1873.8137929217569, 0.0, 0.0, 0.0, 0.0, -647.3288711701479, 0.0]
['beep', 0.0, -1874.1490690885867, 0.0, 0.0, 0.0, 0.0, -647.9323682704411, 0.0]
['beep', 0.0, -1873.3891097771061, 0.0, 0.0, 0.0, 0.0, -648.0888304816283, 0.0]
['beep', 0.0, -1873.9479033884888, 0.0, 0.0, 0.0, 0.0, -646.5018566253015, 0.0]
['beep', 0.0, -1874.8866766556118, 0.0, 0.0, 0.0, 0.0, -646.1442287140165, 0.0]
['beep', 0.0, -1874.4172900220503, 0.0, 0.0, 0.0, 0.0, -647.5076851257903, 0.0]
['beep', 0.0, -1874.9537318889777, 0.0, 0.0, 0.0, 0.0, -647.6194438480668, 0.0]
['beep', 0.0, -1876.5854092342151, 0.0, 0.0, 0.0, 0.0, -647.0159467477736, 0.0]
['beep', 0.0, -1877.5912377347038, 0.0, 0.0, 0.0, 0.0, -646.3006909252038, 0.0]
['beep', 0.0, -1881.1898685920082, 0.0, 0.0, 0.0, 0.0, -646.2559874362931, 0.0]
['beep', 0.0, -1882.7321389594244, 0.0, 0.0, 0.0, 0.0, -646.904188025497, 0.0]
['beep', 0.0, -1870.3492725311844, 0.0, 0.0, 0.0, 0.0, -638.0528972211954, 0.0]
['beep', 0.0, -1860.4474497374833, 0.0, 0.0, 0.0, 0.0, -624.3289261256368, 0.0]
['beep', 0.0, -1862.6155689496482, 0.0, 0.0, 0.0, 0.0, -607.5427660397013, 0.0]
['beep', 0.0, -1860.067470081743, 0.0, 0.0, 0.0, 0.0, -591.0695303761399, 0.0]
['beep', 0.0, -1856.4017839910728, 0.0, 0.0, 0.0, 0.0, -572.003492355763, 0.0]
['beep', 0.0, -1851.5514554442711, 0.0, 0.0, 0.0, 0.0, -551.909274090442, 0.0]
['beep', 0.0, -1848.332804242707, 0.0, 0.0, 0.0, 0.0, -530.4068959244366, 0.0]
['beep', 0.0, -1845.3376704856958, 0.0, 0.0, 0.0, 0.0, -510.62560208148983, 0.0]
['beep', 0.0, -1842.8342751067014, 0.0, 0.0, 0.0, 0.0, -491.6713227833895, 0.0]
['beep', 0.0, -1838.9674233159333, 0.0, 0.0, 0.0, 0.0, -472.3817673184595, 0.0]
['beep', 0.0, -1832.977155801911, 0.0, 0.0, 0.0, 0.0, -453.2263223202613, 0.0]
['beep', 0.0, -1825.5116731538385, 0.0, 0.0, 0.0, 0.0, -436.3507552565045, 0.0]
['beep', 0.0, -1822.4718359079166, 0.0, 0.0, 0.0, 0.0, -423.74437138371127, 0.0]
['beep', 0.0, -1821.26484170733, 0.0, 0.0, 0.0, 0.0, -408.7463508542003, 0.0]
['beep', 0.0, -1816.6156788606263, 0.0, 0.0, 0.0, 0.0, -396.60935361496854, 0.0]
['beep', 0.0, -1811.3183154247185, 0.0, 0.0, 0.0, 0.0, -382.9300860083206, 0.0]
['beep', 0.0, -1805.5739170997044, 0.0, 0.0, 0.0, 0.0, -372.93885623679836, 0.0]
['beep', 0.0, -1800.2542019193415, 0.0, 0.0, 0.0, 0.0, -367.95441722326484, 0.0]
['beep', 0.0, -1798.1531379405426, 0.0, 0.0, 0.0, 0.0, -364.95928346625374, 0.0]
['beep', 0.0, -1794.4427483609616, 0.0, 0.0, 0.0, 0.0, -361.58417005350236, 0.0]
['beep', 0.0, -1788.9889227138667, 0.0, 0.0, 0.0, 0.0, -353.64930077186835, 0.0]
['beep', 0.0, -1783.5350970667719, 0.0, 0.0, 0.0, 0.0, -354.92335020582084, 0.0]
['beep', 0.0, -1781.9928266993556, 0.0, 0.0, 0.0, 0.0, -354.63277752790185, 0.0]
['beep', 0.0, -1777.3883673415623, 0.0, 0.0, 0.0, 0.0, -354.00692868315326, 0.0]
['beep', 0.0, -1773.3203498506964, 0.0, 0.0, 0.0, 0.0, -356.3091583620499, 0.0]
['beep', 0.0, -1769.1629253820092, 0.0, 0.0, 0.0, 0.0, -358.6560915298571, 0.0]
['beep', 0.0, -1764.6478730020374, 0.0, 0.0, 0.0, 0.0, -362.92527472082077, 0.0]
['beep', 0.0, -1763.8655619461015, 0.0, 0.0, 0.0, 0.0, -368.6026178124688, 0.0]
['beep', 0.0, -1760.624559000082, 0.0, 0.0, 0.0, 0.0, -372.62593181442406, 0.0]
['beep', 0.0, -1756.2659688312972, 0.0, 0.0, 0.0, 0.0, -376.4927836051922, 0.0]
['beep', 0.0, -1754.656643230515, 0.0, 0.0, 0.0, 0.0, -381.3431121519938, 0.0]
['beep', 0.0, -1752.7343932073586, 0.0, 0.0, 0.0, 0.0, -384.58411509801334, 0.0]
['beep', 0.0, -1753.6955182189367, 0.0, 0.0, 0.0, 0.0, -388.6074290999686, 0.0]
['beep', 0.0, -1755.3495473086296, 0.0, 0.0, 0.0, 0.0, -394.86591754745456, 0.0]
['beep', 0.0, -1757.4729630318836, 0.0, 0.0, 0.0, 0.0, -400.11857749445176, 0.0]
['beep', 0.0, -1757.785887454258, 0.0, 0.0, 0.0, 0.0, -402.8901938069098, 0.0]
['beep', 0.0, -1756.467134531395, 0.0, 0.0, 0.0, 0.0, -407.15937699787344, 0.0]
['beep', 0.0, -1757.1823903539648, 0.0, 0.0, 0.0, 0.0, -411.1156357664628, 0.0]
['beep', 0.0, -1757.5847217541602, 0.0, 0.0, 0.0, 0.0, -416.6812201358343, 0.0]
['beep', 0.0, -1758.6352537435596, 0.0, 0.0, 0.0, 0.0, -421.68801089382305, 0.0]
['beep', 0.0, -1757.7188322208922, 0.0, 0.0, 0.0, 0.0, -422.09034229401857, 0.0]
['beep', 0.0, -1756.6459484870375, 0.0, 0.0, 0.0, 0.0, -425.82308361805485, 0.0]
['beep', 0.0, -1756.2883205757526, 0.0, 0.0, 0.0, 0.0, -429.4217144753593, 0.0]
['beep', 0.0, -1755.5507130087274, 0.0, 0.0, 0.0, 0.0, -429.64523191991236, 0.0]
['beep', 0.0, -1757.0035763983224, 0.0, 0.0, 0.0, 0.0, -431.5004267097028, 0.0]
['beep', 0.0, -1757.0259281427775, 0.0, 0.0, 0.0, 0.0, -433.1991592883062, 0.0]
['beep', 0.0, -1756.0871548756547, 0.0, 0.0, 0.0, 0.0, -435.2331680337391, 0.0]
['beep', 0.0, -1756.6459484870375, 0.0, 0.0, 0.0, 0.0, -439.7035169248005, 0.0]
['beep', 0.0, -1758.5681985101937, 0.0, 0.0, 0.0, 0.0, -441.02226984766367, 0.0]
['beep', 0.0, -1758.9034746770233, 0.0, 0.0, 0.0, 0.0, -441.29049078112735, 0.0]
['beep', 0.0, -1758.0541083877217, 0.0, 0.0, 0.0, 0.0, -442.92216812636474, 0.0]
['beep', 0.0, -1757.3612043096073, 0.0, 0.0, 0.0, 0.0, -443.7715344156664, 0.0]
['beep', 0.0, -1757.495314776339, 0.0, 0.0, 0.0, 0.0, -443.0562785930966, 0.0]
['beep', 0.0, -1756.8694659315904, 0.0, 0.0, 0.0, 0.0, -443.9056448823983, 0.0]
['beep', 0.0, -1758.076460132177, 0.0, 0.0, 0.0, 0.0, -446.14081932792897, 0.0]
['beep', 0.0, -1756.6012449981267, 0.0, 0.0, 0.0, 0.0, -447.5713309730686, 0.0]
['beep', 0.0, -1755.0366228862551, 0.0, 0.0, 0.0, 0.0, -448.51010424019154, 0.0]
['beep', 0.0, -1755.170733352987, 0.0, 0.0, 0.0, 0.0, -448.86773215147645, 0.0]
['beep', 0.0, -1756.2659688312972, 0.0, 0.0, 0.0, 0.0, -450.92409264136467, 0.0]
['beep', 0.0, -1756.7353554648587, 0.0, 0.0, 0.0, 0.0, -451.1252583414624, 0.0]
['beep', 0.0, -1756.5118380203055, 0.0, 0.0, 0.0, 0.0, -452.5110664976915, 0.0]
['beep', 0.0, -1755.9977478978335, 0.0, 0.0, 0.0, 0.0, -452.2651973086831, 0.0]
['beep', 0.0, -1755.662471731004, 0.0, 0.0, 0.0, 0.0, -452.66752870887865, 0.0]
['beep', 0.0, -1756.1989135979313, 0.0, 0.0, 0.0, 0.0, -452.7792874311552, 0.0]
['beep', 0.0, -1756.2659688312972, 0.0, 0.0, 0.0, 0.0, -453.00280487570825, 0.0]
['beep', 0.0, -1755.237788586353, 0.0, 0.0, 0.0, 0.0, -454.05333686510767, 0.0]
['beep', 0.0, -1753.6284629855709, 0.0, 0.0, 0.0, 0.0, -454.4556682653032, 0.0]
['beep', 0.0, -1754.0307943857665, 0.0, 0.0, 0.0, 0.0, -455.9979386327194, 0.0]
['beep', 0.0, -1754.3213670636853, 0.0, 0.0, 0.0, 0.0, -454.67918570985626, 0.0]
['beep', 0.0, -1754.2990153192302, 0.0, 0.0, 0.0, 0.0, -454.5003717542138, 0.0]
['beep', 0.0, -1754.947215908434, 0.0, 0.0, 0.0, 0.0, -454.99211013223055, 0.0]
['beep', 0.0, -1754.0307943857665, 0.0, 0.0, 0.0, 0.0, -455.5285519991579, 0.0]
['beep', 0.0, -1754.0531461302216, 0.0, 0.0, 0.0, 0.0, -456.75789794419984, 0.0]
['beep', 0.0, -1755.0366228862551, 0.0, 0.0, 0.0, 0.0, -456.6684909663786, 0.0]
['beep', 0.0, -1754.6342914860597, 0.0, 0.0, 0.0, 0.0, -456.13204909945125, 0.0]
['beep', 0.0, -1754.4107740415066, 0.0, 0.0, 0.0, 0.0, -457.51785725568027, 0.0]
['beep', 0.0, -1753.427297285473, 0.0, 0.0, 0.0, 0.0, -457.80842993359926, 0.0]
['beep', 0.0, -1754.3437188081407, 0.0, 0.0, 0.0, 0.0, -457.2943398111272, 0.0]
['beep', 0.0, -1755.7518787088252, 0.0, 0.0, 0.0, 0.0, -456.5567322441021, 0.0]
['beep', 0.0, -1755.8636374311016, 0.0, 0.0, 0.0, 0.0, -456.46732526628085, 0.0]
['beep', 0.0, -1754.1872565969536, 0.0, 0.0, 0.0, 0.0, -455.26033106569423, 0.0]
['beep', 0.0, -1754.209608341409, 0.0, 0.0, 0.0, 0.0, -454.4556682653032, 0.0]
['beep', 0.0, -1754.1425531080429, 0.0, 0.0, 0.0, 0.0, -458.300168311616, 0.0]
['beep', 0.0, -1754.0307943857665, 0.0, 0.0, 0.0, 0.0, -458.74720320072214, 0.0]
['beep', 0.0, -1754.2543118303195, 0.0, 0.0, 0.0, 0.0, -456.914360155387, 0.0]
['beep', 0.0, -1754.1649048524982, 0.0, 0.0, 0.0, 0.0, -456.51202875519147, 0.0]
['beep', 0.0, -1752.980262396367, 0.0, 0.0, 0.0, 0.0, -457.5402090001356, 0.0]
['beep', 0.0, -1752.7343932073586, 0.0, 0.0, 0.0, 0.0, -458.18840958933947, 0.0]
['beep', 0.0, -1753.1814280964647, 0.0, 0.0, 0.0, 0.0, -459.2389415787389, 0.0]
['beep', 0.0, -1753.7625734523028, 0.0, 0.0, 0.0, 0.0, -460.8259154350657, 0.0]
['beep', 0.0, -1753.427297285473, 0.0, 0.0, 0.0, 0.0, -459.97654914576407, 0.0]
['beep', 0.0, -1752.5332275072608, 0.0, 0.0, 0.0, 0.0, -458.9260171563646, 0.0]
['beep', 0.0, -1752.1755995959759, 0.0, 0.0, 0.0, 0.0, -459.86479042348753, 0.0]
['beep', 0.0, -1753.4943525188392, 0.0, 0.0, 0.0, 0.0, -461.0047293907082, 0.0]
['beep', 0.0, -1755.0813263751659, 0.0, 0.0, 0.0, 0.0, -460.64710147942327, 0.0]
['beep', 0.0, -1755.4166025419954, 0.0, 0.0, 0.0, 0.0, -458.7024997118115, 0.0]
['beep', 0.0, -1754.0978496191324, 0.0, 0.0, 0.0, 0.0, -457.45080202231435, 0.0]
['beep', 0.0, -1755.3495473086296, 0.0, 0.0, 0.0, 0.0, -458.6801479673562, 0.0]
['beep', 0.0, -1757.20474209842, 0.0, 0.0, 0.0, 0.0, -458.2331130782501, 0.0]
['beep', 0.0, -1760.7363177223585, 0.0, 0.0, 0.0, 0.0, -455.64031072143445, 0.0]
['beep', 0.0, -1754.9695676528893, 0.0, 0.0, 0.0, 0.0, -451.97462463076414, 0.0]
['beep', 0.0, -1748.8451896721351, 0.0, 0.0, 0.0, 0.0, -447.01253736168593, 0.0]
['beep', 0.0, -1747.4593815159062, 0.0, 0.0, 0.0, 0.0, -438.6306331909458, 0.0]
['beep', 0.0, -1748.8451896721351, 0.0, 0.0, 0.0, 0.0, -435.12140931146257, 0.0]
['beep', 0.0, -1749.6722042169815, 0.0, 0.0, 0.0, 0.0, -434.40615348889276, 0.0]
['beep', 0.0, -1748.1522855940207, 0.0, 0.0, 0.0, 0.0, -430.00285983119727, 0.0]
['beep', 0.0, -1745.3806692815626, 0.0, 0.0, 0.0, 0.0, -427.6335749189347, 0.0]
['beep', 0.0, -1747.3476227936296, 0.0, 0.0, 0.0, 0.0, -427.6335749189347, 0.0]
['beep', 0.0, -1749.2922245612413, 0.0, 0.0, 0.0, 0.0, -429.7569906421889, 0.0]
['beep', 0.0, -1750.4098117840067, 0.0, 0.0, 0.0, 0.0, -432.5509586991023, 0.0]
['beep', 0.0, -1749.6722042169815, 0.0, 0.0, 0.0, 0.0, -432.1486272989068, 0.0]
['beep', 0.0, -1748.8898931610458, 0.0, 0.0, 0.0, 0.0, -433.44502847731457, 0.0]
['beep', 0.0, -1748.6216722275822, 0.0, 0.0, 0.0, 0.0, -434.8978918669095, 0.0]
['beep', 0.0, -1748.8898931610458, 0.0, 0.0, 0.0, 0.0, -435.2778715226497, 0.0]
['beep', 0.0, -1749.9627768949006, 0.0, 0.0, 0.0, 0.0, -437.624804690457, 0.0]
['beep', 0.0, -1748.8004861832246, 0.0, 0.0, 0.0, 0.0, -437.53539771263576, 0.0]
['beep', 0.0, -1748.8451896721351, 0.0, 0.0, 0.0, 0.0, -437.58010120154637, 0.0]
['beep', 0.0, -1749.2922245612413, 0.0, 0.0, 0.0, 0.0, -438.16124655738435, 0.0]
['beep', 0.0, -1749.3145763056966, 0.0, 0.0, 0.0, 0.0, -438.0494878351078, 0.0]
['beep', 0.0, -1749.7392594503474, 0.0, 0.0, 0.0, 0.0, -437.51304596818045, 0.0]
['beep', 0.0, -1748.5993204831268, 0.0, 0.0, 0.0, 0.0, -436.9989558457084, 0.0]
['beep', 0.0, -1747.660547216004, 0.0, 0.0, 0.0, 0.0, -436.88719712343186, 0.0]
['beep', 0.0, -1747.7052507049145, 0.0, 0.0, 0.0, 0.0, -437.4012872459039, 0.0]
['beep', 0.0, -1749.0240036277776, 0.0, 0.0, 0.0, 0.0, -437.6918599238229, 0.0]
['beep', 0.0, -1749.9627768949006, 0.0, 0.0, 0.0, 0.0, -437.91537736837597, 0.0]
['beep', 0.0, -1749.694555961437, 0.0, 0.0, 0.0, 0.0, -438.3400605130268, 0.0]
['beep', 0.0, -1747.9287681494677, 0.0, 0.0, 0.0, 0.0, -437.6024529460017, 0.0]
['beep', 0.0, -1746.8558844156128, 0.0, 0.0, 0.0, 0.0, -437.49069422372514, 0.0]
['beep', 0.0, -1749.0016518833224, 0.0, 0.0, 0.0, 0.0, -438.51887446866925, 0.0]
['beep', 0.0, -1748.7334309498588, 0.0, 0.0, 0.0, 0.0, -438.45181923530333, 0.0]
['beep', 0.0, -1748.3310995496631, 0.0, 0.0, 0.0, 0.0, -438.85415063549885, 0.0]
['beep', 0.0, -1747.9958233828336, 0.0, 0.0, 0.0, 0.0, -439.79292390262174, 0.0]
['beep', 0.0, -1748.018175127289, 0.0, 0.0, 0.0, 0.0, -437.89302562392066, 0.0]
['beep', 0.0, -1747.9287681494677, 0.0, 0.0, 0.0, 0.0, -437.4236389903592, 0.0]
['beep', 0.0, -1748.1299338495653, 0.0, 0.0, 0.0, 0.0, -439.0776680800519, 0.0]
['beep', 0.0, -1746.8558844156128, 0.0, 0.0, 0.0, 0.0, -439.97173785826425, 0.0]
['beep', 0.0, -1746.140628593043, 0.0, 0.0, 0.0, 0.0, -440.30701402509385, 0.0]
['beep', 0.0, -1746.0288698707666, 0.0, 0.0, 0.0, 0.0, -442.0728018370631, 0.0]
['beep', 0.0, -1745.9394628929454, 0.0, 0.0, 0.0, 0.0, -441.64811869241225, 0.0]
['beep', 0.0, -1746.0512216152217, 0.0, 0.0, 0.0, 0.0, -440.28466228063854, 0.0]
['beep', 0.0, -1745.4700762593839, 0.0, 0.0, 0.0, 0.0, -440.8881593809318, 0.0]
['beep', 0.0, -1745.760648937303, 0.0, 0.0, 0.0, 0.0, -440.35171751400446, 0.0]
['beep', 0.0, -1745.1571518370095, 0.0, 0.0, 0.0, 0.0, -439.591758202524, 0.0]
['beep', 0.0, -1746.3864977820515, 0.0, 0.0, 0.0, 0.0, -441.31284252558265, 0.0]
['beep', 0.0, -1746.3864977820515, 0.0, 0.0, 0.0, 0.0, -441.4022495034039, 0.0]
['beep', 0.0, -1746.6547187155152, 0.0, 0.0, 0.0, 0.0, -439.7035169248005, 0.0]
['beep', 0.0, -1745.5818349816604, 0.0, 0.0, 0.0, 0.0, -439.4129442468815, 0.0]
['beep', 0.0, -1745.783000681758, 0.0, 0.0, 0.0, 0.0, -438.18359830183965, 0.0]
['beep', 0.0, -1747.4593815159062, 0.0, 0.0, 0.0, 0.0, -438.45181923530333, 0.0]
['beep', 0.0, -1747.2135123268977, 0.0, 0.0, 0.0, 0.0, -439.010612846686, 0.0]
['beep', 0.0, -1747.2582158158084, 0.0, 0.0, 0.0, 0.0, -438.18359830183965, 0.0]
['beep', 0.0, -1746.3194425486854, 0.0, 0.0, 0.0, 0.0, -438.4071157463927, 0.0]
['beep', 0.0, -1745.2242070703755, 0.0, 0.0, 0.0, 0.0, -439.18942680232846, 0.0]
['beep', 0.0, -1745.4253727704731, 0.0, 0.0, 0.0, 0.0, -440.1952553028173, 0.0]
['beep', 0.0, -1745.91711114849, 0.0, 0.0, 0.0, 0.0, -440.2176070472726, 0.0]
['beep', 0.0, -1745.0230413702777, 0.0, 0.0, 0.0, 0.0, -439.7035169248005, 0.0]
['beep', 0.0, -1745.2242070703755, 0.0, 0.0, 0.0, 0.0, -440.59758670301284, 0.0]
['beep', 0.0, -1745.4700762593839, 0.0, 0.0, 0.0, 0.0, -439.52470296915806, 0.0]
['beep', 0.0, -1745.8947594040346, 0.0, 0.0, 0.0, 0.0, -440.28466228063854, 0.0]
['beep', 0.0, -1746.6323669710598, 0.0, 0.0, 0.0, 0.0, -441.1340285699402, 0.0]
['beep', 0.0, -1745.0230413702777, 0.0, 0.0, 0.0, 0.0, -440.23995879172793, 0.0]
['beep', 0.0, -1744.10661984761, 0.0, 0.0, 0.0, 0.0, -439.0553163355966, 0.0]
['beep', 0.0, -1743.793695425236, 0.0, 0.0, 0.0, 0.0, -439.45764773579214, 0.0]
['beep', 0.0, -1744.3971925255291, 0.0, 0.0, 0.0, 0.0, -439.7258686692558, 0.0]
['beep', 0.0, -1744.6430617145375, 0.0, 0.0, 0.0, 0.0, -440.1505518139067, 0.0]
['beep', 0.0, -1744.7101169479033, 0.0, 0.0, 0.0, 0.0, -439.92703436935363, 0.0]
['beep', 0.0, -1744.0619163586996, 0.0, 0.0, 0.0, 0.0, -439.92703436935363, 0.0]
['beep', 0.0, -1744.0842681031547, 0.0, 0.0, 0.0, 0.0, -441.64811869241225, 0.0]
['beep', 0.0, -1744.6430617145375, 0.0, 0.0, 0.0, 0.0, -443.1009820820072, 0.0]
['beep', 0.0, -1744.5536547367162, 0.0, 0.0, 0.0, 0.0, -442.3857262594374, 0.0]
['beep', 0.0, -1744.6877652034482, 0.0, 0.0, 0.0, 0.0, -441.24578729221673, 0.0]
['beep', 0.0, -1744.82187567018, 0.0, 0.0, 0.0, 0.0, -440.23995879172793, 0.0]
['beep', 0.0, -1744.1960268254313, 0.0, 0.0, 0.0, 0.0, -442.0728018370631, 0.0]
['beep', 0.0, -1744.754820436814, 0.0, 0.0, 0.0, 0.0, -442.92216812636474, 0.0]
['beep', 0.0, -1745.0230413702777, 0.0, 0.0, 0.0, 0.0, -442.8327611485435, 0.0]
['beep', 0.0, -1744.1960268254313, 0.0, 0.0, 0.0, 0.0, -443.3692030154709, 0.0]
['beep', 0.0, -1744.2630820587972, 0.0, 0.0, 0.0, 0.0, -441.91633962587593, 0.0]
['beep', 0.0, -1744.9559861369119, 0.0, 0.0, 0.0, 0.0, -442.22926404825023, 0.0]
['beep', 0.0, -1745.5818349816604, 0.0, 0.0, 0.0, 0.0, -442.3857262594374, 0.0]
['beep', 0.0, -1745.7382971928475, 0.0, 0.0, 0.0, 0.0, -443.0339268486413, 0.0]
['beep', 0.0, -1745.2912623037414, 0.0, 0.0, 0.0, 0.0, -443.1009820820072, 0.0]
['beep', 0.0, -1744.7101169479033, 0.0, 0.0, 0.0, 0.0, -442.31867102607146, 0.0]
['beep', 0.0, -1743.950157636423, 0.0, 0.0, 0.0, 0.0, -442.58689195953514, 0.0]
['beep', 0.0, -1743.0337361137554, 0.0, 0.0, 0.0, 0.0, -443.1233338264625, 0.0]
['beep', 0.0, -1744.1513233365208, 0.0, 0.0, 0.0, 0.0, -445.1796943163508, 0.0]
['beep', 0.0, -1743.6372332140486, 0.0, 0.0, 0.0, 0.0, -445.5149704831804, 0.0]
['beep', 0.0, -1743.2572535583083, 0.0, 0.0, 0.0, 0.0, -444.73265942724464, 0.0]
['beep', 0.0, -1743.0337361137554, 0.0, 0.0, 0.0, 0.0, -443.0786303375519, 0.0]
['beep', 0.0, -1743.2572535583083, 0.0, 0.0, 0.0, 0.0, -442.98922335973066, 0.0]
['beep', 0.0, -1744.598358225627, 0.0, 0.0, 0.0, 0.0, -443.7715344156664, 0.0]
['beep', 0.0, -1744.7324686923587, 0.0, 0.0, 0.0, 0.0, -443.1456855709178, 0.0]
['beep', 0.0, -1743.5254744917722, 0.0, 0.0, 0.0, 0.0, -442.65394719290106, 0.0]
['beep', 0.0, -1743.592529725138, 0.0, 0.0, 0.0, 0.0, -442.0951535815184, 0.0]
['beep', 0.0, -1744.6654134589928, 0.0, 0.0, 0.0, 0.0, -444.48679023823627, 0.0]
['beep', 0.0, -1745.6712419594817, 0.0, 0.0, 0.0, 0.0, -444.82206640506587, 0.0]
['beep', 0.0, -1745.4253727704731, 0.0, 0.0, 0.0, 0.0, -444.8667698939765, 0.0]
['beep', 0.0, -1745.6488902150263, 0.0, 0.0, 0.0, 0.0, -443.7715344156664, 0.0]
['beep', 0.0, -1744.5089512478057, 0.0, 0.0, 0.0, 0.0, -440.70934542528937, 0.0]
['beep', 0.0, -1745.3583175371073, 0.0, 0.0, 0.0, 0.0, -442.27396753716084, 0.0]
['beep', 0.0, -1746.3864977820515, 0.0, 0.0, 0.0, 0.0, -444.15151407140667, 0.0]
['beep', 0.0, -1746.8782361600681, 0.0, 0.0, 0.0, 0.0, -444.79971466061056, 0.0]
['beep', 0.0, -1745.5818349816604, 0.0, 0.0, 0.0, 0.0, -445.269101294172, 0.0]
['beep', 0.0, -1745.5371314927497, 0.0, 0.0, 0.0, 0.0, -447.86190365098764, 0.0]
['beep', 0.0, -1746.5206082487832, 0.0, 0.0, 0.0, 0.0, -448.1301245844513, 0.0]
['beep', 0.0, -1746.8111809267023, 0.0, 0.0, 0.0, 0.0, -444.75501117169995, 0.0]
['beep', 0.0, -1745.5147797482944, 0.0, 0.0, 0.0, 0.0, -443.59272046002394, 0.0]
['beep', 0.0, -1745.0006896258224, 0.0, 0.0, 0.0, 0.0, -444.39738326041504, 0.0]
['beep', 0.0, -1745.045393114733, 0.0, 0.0, 0.0, 0.0, -447.07959259505185, 0.0]
['beep', 0.0, -1745.8500559151241, 0.0, 0.0, 0.0, 0.0, -448.4654007512809, 0.0]
['beep', 0.0, -1746.3641460375961, 0.0, 0.0, 0.0, 0.0, -447.75014492871105, 0.0]
['beep', 0.0, -1745.91711114849, 0.0, 0.0, 0.0, 0.0, -446.81137166158817, 0.0]
['beep', 0.0, -1744.8665791590906, 0.0, 0.0, 0.0, 0.0, -445.49261873872507, 0.0]
['beep', 0.0, -1745.0677448591882, 0.0, 0.0, 0.0, 0.0, -446.8560751504988, 0.0]
['beep', 0.0, -1745.8947594040346, 0.0, 0.0, 0.0, 0.0, -446.2302263057502, 0.0]
['beep', 0.0, -1745.6488902150263, 0.0, 0.0, 0.0, 0.0, -445.49261873872507, 0.0]
['beep', 0.0, -1744.6654134589928, 0.0, 0.0, 0.0, 0.0, -445.40321176090384, 0.0]
['beep', 0.0, -1743.2349018138532, 0.0, 0.0, 0.0, 0.0, -444.8444181495212, 0.0]
['beep', 0.0, -1744.0842681031547, 0.0, 0.0, 0.0, 0.0, -445.11263908298486, 0.0]
['beep', 0.0, -1744.82187567018, 0.0, 0.0, 0.0, 0.0, -445.6714326943675, 0.0]
['beep', 0.0, -1744.6654134589928, 0.0, 0.0, 0.0, 0.0, -444.82206640506587, 0.0]
['beep', 0.0, -1744.3971925255291, 0.0, 0.0, 0.0, 0.0, -444.5761972160575, 0.0]
['beep', 0.0, -1744.82187567018, 0.0, 0.0, 0.0, 0.0, -444.46443849378096, 0.0]
['beep', 0.0, -1744.464247758895, 0.0, 0.0, 0.0, 0.0, -443.0562785930966, 0.0]
['beep', 0.0, -1744.2183785698867, 0.0, 0.0, 0.0, 0.0, -443.1903890598284, 0.0]
['beep', 0.0, -1745.8277041706688, 0.0, 0.0, 0.0, 0.0, -445.9396536278312, 0.0]
['beep', 0.0, -1745.2912623037414, 0.0, 0.0, 0.0, 0.0, -444.37503151595973, 0.0]
['beep', 0.0, -1745.3583175371073, 0.0, 0.0, 0.0, 0.0, -443.61507220447925, 0.0]
['beep', 0.0, -1745.0230413702777, 0.0, 0.0, 0.0, 0.0, -444.6656041938787, 0.0]
['beep', 0.0, -1746.9229396489789, 0.0, 0.0, 0.0, 0.0, -445.2243978052614, 0.0]
['beep', 0.0, -1748.2193408273865, 0.0, 0.0, 0.0, 0.0, -446.654909450401, 0.0]
['beep', 0.0, -1747.2805675602638, 0.0, 0.0, 0.0, 0.0, -446.40904026139265, 0.0]
['beep', 0.0, -1744.8665791590906, 0.0, 0.0, 0.0, 0.0, -445.11263908298486, 0.0]
['beep', 0.0, -1745.268910559286, 0.0, 0.0, 0.0, 0.0, -444.6432524494234, 0.0]
['beep', 0.0, -1746.6323669710598, 0.0, 0.0, 0.0, 0.0, -443.61507220447925, 0.0]
['beep', 0.0, -1746.565311737694, 0.0, 0.0, 0.0, 0.0, -443.883293137943, 0.0]
['beep', 0.0, -1745.5371314927497, 0.0, 0.0, 0.0, 0.0, -443.7715344156664, 0.0]
['beep', 0.0, -1745.8724076595793, 0.0, 0.0, 0.0, 0.0, -443.816237904577, 0.0]
['beep', 0.0, -1745.4477245149285, 0.0, 0.0, 0.0, 0.0, -445.15734257189547, 0.0]
['beep', 0.0, -1746.274739059775, 0.0, 0.0, 0.0, 0.0, -442.60924370399044, 0.0]
['beep', 0.0, -1748.3534512941185, 0.0, 0.0, 0.0, 0.0, -443.34685127101557, 0.0]
['beep', 0.0, -1748.174637338476, 0.0, 0.0, 0.0, 0.0, -443.4362582488368, 0.0]
['beep', 0.0, -1748.0628786161994, 0.0, 0.0, 0.0, 0.0, -443.4139065043815, 0.0]
['beep', 0.0, -1748.9569483944117, 0.0, 0.0, 0.0, 0.0, -443.63742394893455, 0.0]
['beep', 0.0, -1750.3874600395513, 0.0, 0.0, 0.0, 0.0, -444.10681058249605, 0.0]
['beep', 0.0, -1751.5050472623168, 0.0, 0.0, 0.0, 0.0, -445.9396536278312, 0.0]
['beep', 0.0, -1751.0580123732107, 0.0, 0.0, 0.0, 0.0, -446.5207989836692, 0.0]
['beep', 0.0, -1748.6663757164927, 0.0, 0.0, 0.0, 0.0, -445.80554316109937, 0.0]
['beep', 0.0, -1747.5487884937274, 0.0, 0.0, 0.0, 0.0, -444.03975534913013, 0.0]
['beep', 0.0, -1745.8947594040346, 0.0, 0.0, 0.0, 0.0, -444.6209007049681, 0.0]
['beep', 0.0, -1744.754820436814, 0.0, 0.0, 0.0, 0.0, -444.77736291615525, 0.0]
['beep', 0.0, -1743.0113843693, 0.0, 0.0, 0.0, 0.0, -444.9561768717977, 0.0]
['beep', 0.0, -1741.1114860905989, 0.0, 0.0, 0.0, 0.0, -444.44208674932565, 0.0]
['beep', 0.0, -1741.8267419131687, 0.0, 0.0, 0.0, 0.0, -444.10681058249605, 0.0]
['beep', 0.0, -1743.5701779806827, 0.0, 0.0, 0.0, 0.0, -443.883293137943, 0.0]
['beep', 0.0, -1746.207683826409, 0.0, 0.0, 0.0, 0.0, -444.08445883804075, 0.0]
['beep', 0.0, -1748.5099135053056, 0.0, 0.0, 0.0, 0.0, -443.9950518602195, 0.0]
['beep', 0.0, -1748.6663757164927, 0.0, 0.0, 0.0, 0.0, -445.6043774610016, 0.0]
['beep', 0.0, -1747.5040850048167, 0.0, 0.0, 0.0, 0.0, -445.3361565275379, 0.0]
['beep', 0.0, -1748.398154783029, 0.0, 0.0, 0.0, 0.0, -445.6043774610016, 0.0]
['beep', 0.0, -1748.6216722275822, 0.0, 0.0, 0.0, 0.0, -445.71613618327814, 0.0]
['beep', 0.0, -1747.6828989604592, 0.0, 0.0, 0.0, 0.0, -444.9114733828871, 0.0]
['beep', 0.0, -1746.431201270962, 0.0, 0.0, 0.0, 0.0, -445.6714326943675, 0.0]
['beep', 0.0, -1745.3136140481968, 0.0, 0.0, 0.0, 0.0, -446.3419850280267, 0.0]
['beep', 0.0, -1745.5818349816604, 0.0, 0.0, 0.0, 0.0, -446.654909450401, 0.0]
['beep', 0.0, -1746.073573359677, 0.0, 0.0, 0.0, 0.0, -446.2302263057502, 0.0]
['beep', 0.0, -1744.9336343924565, 0.0, 0.0, 0.0, 0.0, -446.47609549475857, 0.0]
['beep', 0.0, -1744.307785547708, 0.0, 0.0, 0.0, 0.0, -445.71613618327814, 0.0]
['beep', 0.0, -1744.5760064811716, 0.0, 0.0, 0.0, 0.0, -444.6209007049681, 0.0]
['beep', 0.0, -1745.2465588148307, 0.0, 0.0, 0.0, 0.0, -445.6714326943675, 0.0]
['beep', 0.0, -1746.0288698707666, 0.0, 0.0, 0.0, 0.0, -445.3361565275379, 0.0]
['beep', 0.0, -1745.626538470571, 0.0, 0.0, 0.0, 0.0, -445.6043774610016, 0.0]
['beep', 0.0, -1744.5536547367162, 0.0, 0.0, 0.0, 0.0, -444.6432524494234, 0.0]
['beep', 0.0, -1744.3748407810738, 0.0, 0.0, 0.0, 0.0, -445.2243978052614, 0.0]
['beep', 0.0, -1745.0230413702777, 0.0, 0.0, 0.0, 0.0, -446.78901991713286, 0.0]
['beep', 0.0, -1746.2970908042303, 0.0, 0.0, 0.0, 0.0, -447.39251701742614, 0.0]
['beep', 0.0, -1746.0288698707666, 0.0, 0.0, 0.0, 0.0, -445.44791524981446, 0.0]
['beep', 0.0, -1745.2465588148307, 0.0, 0.0, 0.0, 0.0, -444.2856245381385, 0.0]
['beep', 0.0, -1744.6654134589928, 0.0, 0.0, 0.0, 0.0, -445.6267292054569, 0.0]
['beep', 0.0, -1745.8277041706688, 0.0, 0.0, 0.0, 0.0, -447.12429608396246, 0.0]
['beep', 0.0, -1746.2523873153195, 0.0, 0.0, 0.0, 0.0, -447.6160344619792, 0.0]
['beep', 0.0, -1746.2523873153195, 0.0, 0.0, 0.0, 0.0, -447.77249667316636, 0.0]
['beep', 0.0, -1746.2300355708642, 0.0, 0.0, 0.0, 0.0, -447.12429608396246, 0.0]
['beep', 0.0, -1746.0512216152217, 0.0, 0.0, 0.0, 0.0, -447.41486876188145, 0.0]
['beep', 0.0, -1747.0570501157106, 0.0, 0.0, 0.0, 0.0, -447.05724085059654, 0.0]
['beep', 0.0, -1748.1075821051102, 0.0, 0.0, 0.0, 0.0, -446.5655024725798, 0.0]
['beep', 0.0, -1747.660547216004, 0.0, 0.0, 0.0, 0.0, -447.6383862064345, 0.0]
['beep', 0.0, -1746.945291393434, 0.0, 0.0, 0.0, 0.0, -447.6383862064345, 0.0]
['beep', 0.0, -1747.1464570935318, 0.0, 0.0, 0.0, 0.0, -449.3818222739485, 0.0]
['beep', 0.0, -1746.7441256933364, 0.0, 0.0, 0.0, 0.0, -449.4712292517697, 0.0]
['beep', 0.0, -1746.207683826409, 0.0, 0.0, 0.0, 0.0, -450.27589205216077, 0.0]
['beep', 0.0, -1746.7441256933364, 0.0, 0.0, 0.0, 0.0, -449.7170984407781, 0.0]
['beep', 0.0, -1746.565311737694, 0.0, 0.0, 0.0, 0.0, -448.57715947355746, 0.0]
['beep', 0.0, -1746.6994222044257, 0.0, 0.0, 0.0, 0.0, -448.89008389593175, 0.0]
['beep', 0.0, -1748.6663757164927, 0.0, 0.0, 0.0, 0.0, -448.21953156227255, 0.0]
['beep', 0.0, -1749.1581140945095, 0.0, 0.0, 0.0, 0.0, -449.1359530849401, 0.0]
['beep', 0.0, -1749.6051489836157, 0.0, 0.0, 0.0, 0.0, -449.91826414087586, 0.0]
['beep', 0.0, -1749.4486867724286, 0.0, 0.0, 0.0, 0.0, -448.688918195834, 0.0]
['beep', 0.0, -1748.6440239720375, 0.0, 0.0, 0.0, 0.0, -450.52176124116914, 0.0]
['beep', 0.0, -1748.7334309498588, 0.0, 0.0, 0.0, 0.0, -451.818162419577, 0.0]
['beep', 0.0, -1748.040526871744, 0.0, 0.0, 0.0, 0.0, -450.85703740799875, 0.0]
['beep', 0.0, -1747.1464570935318, 0.0, 0.0, 0.0, 0.0, -449.58298797404626, 0.0]
['beep', 0.0, -1746.0512216152217, 0.0, 0.0, 0.0, 0.0, -448.0854210955407, 0.0]
['beep', 0.0, -1745.2912623037414, 0.0, 0.0, 0.0, 0.0, -449.0018426182083, 0.0]
['beep', 0.0, -1745.3136140481968, 0.0, 0.0, 0.0, 0.0, -449.91826414087586, 0.0]
['beep', 0.0, -1746.9229396489789, 0.0, 0.0, 0.0, 0.0, -450.56646473007976, 0.0]
['beep', 0.0, -1747.4817332603616, 0.0, 0.0, 0.0, 0.0, -449.4265257628591, 0.0]
['beep', 0.0, -1747.2582158158084, 0.0, 0.0, 0.0, 0.0, -450.365299029982, 0.0]
['beep', 0.0, -1747.2805675602638, 0.0, 0.0, 0.0, 0.0, -451.2817205526496, 0.0]
['beep', 0.0, -1747.8393611716465, 0.0, 0.0, 0.0, 0.0, -451.54994148611325, 0.0]
['beep', 0.0, -1747.884064660557, 0.0, 0.0, 0.0, 0.0, -451.19231357482835, 0.0]
['beep', 0.0, -1747.9287681494677, 0.0, 0.0, 0.0, 0.0, -449.4265257628591, 0.0]
['beep', 0.0, -1746.7441256933364, 0.0, 0.0, 0.0, 0.0, -448.4206972623703, 0.0]
['beep', 0.0, -1747.3252710491743, 0.0, 0.0, 0.0, 0.0, -449.4041740184038, 0.0]
['beep', 0.0, -1747.4817332603616, 0.0, 0.0, 0.0, 0.0, -450.18648507433954, 0.0]
['beep', 0.0, -1748.4205065274843, 0.0, 0.0, 0.0, 0.0, -449.27006355167197, 0.0]
['beep', 0.0, -1748.0628786161994, 0.0, 0.0, 0.0, 0.0, -447.05724085059654, 0.0]
['beep', 0.0, -1748.5769687386714, 0.0, 0.0, 0.0, 0.0, -447.88425539544295, 0.0]
['beep', 0.0, -1748.0852303606548, 0.0, 0.0, 0.0, 0.0, -449.80650541859933, 0.0]
['beep', 0.0, -1747.8393611716465, 0.0, 0.0, 0.0, 0.0, -449.18065657385074, 0.0]
['beep', 0.0, -1748.9569483944117, 0.0, 0.0, 0.0, 0.0, -448.86773215147645, 0.0]
['beep', 0.0, -1749.4486867724286, 0.0, 0.0, 0.0, 0.0, -448.688918195834, 0.0]
['beep', 0.0, -1748.6216722275822, 0.0, 0.0, 0.0, 0.0, -448.3312902845491, 0.0]
['beep', 0.0, -1749.6498524725262, 0.0, 0.0, 0.0, 0.0, -448.91243564038706, 0.0]
['beep', 0.0, -1749.6051489836157, 0.0, 0.0, 0.0, 0.0, -449.4712292517697, 0.0]
['beep', 0.0, -1750.0745356171772, 0.0, 0.0, 0.0, 0.0, -449.15830482939543, 0.0]
['beep', 0.0, -1749.851018172624, 0.0, 0.0, 0.0, 0.0, -448.9571391292977, 0.0]
['beep', 0.0, -1748.3758030385738, 0.0, 0.0, 0.0, 0.0, -449.18065657385074, 0.0]
['beep', 0.0, -1747.1688088379872, 0.0, 0.0, 0.0, 0.0, -449.4712292517697, 0.0]
['beep', 0.0, -1747.9511198939229, 0.0, 0.0, 0.0, 0.0, -449.3594705294932, 0.0]
['beep', 0.0, -1748.755782694314, 0.0, 0.0, 0.0, 0.0, -449.6500432074122, 0.0]
['beep', 0.0, -1748.82283792768, 0.0, 0.0, 0.0, 0.0, -450.47705775225853, 0.0]
['beep', 0.0, -1747.1464570935318, 0.0, 0.0, 0.0, 0.0, -449.7394501852334, 0.0]
['beep', 0.0, -1746.945291393434, 0.0, 0.0, 0.0, 0.0, -449.1359530849401, 0.0]
['beep', 0.0, -1747.5487884937274, 0.0, 0.0, 0.0, 0.0, -450.58881647453507, 0.0]
['beep', 0.0, -1748.465210016395, 0.0, 0.0, 0.0, 0.0, -450.58881647453507, 0.0]
['beep', 0.0, -1747.235864071353, 0.0, 0.0, 0.0, 0.0, -451.50523799720264, 0.0]
['beep', 0.0, -1746.073573359677, 0.0, 0.0, 0.0, 0.0, -450.365299029982, 0.0]
['beep', 0.0, -1746.0288698707666, 0.0, 0.0, 0.0, 0.0, -450.2982437966161, 0.0]
['beep', 0.0, -1745.6935937039368, 0.0, 0.0, 0.0, 0.0, -450.18648507433954, 0.0]
['beep', 0.0, -1746.6100152266044, 0.0, 0.0, 0.0, 0.0, -450.3429472855267, 0.0]
['beep', 0.0, -1746.6100152266044, 0.0, 0.0, 0.0, 0.0, -450.87938915245405, 0.0]
['beep', 0.0, -1746.2523873153195, 0.0, 0.0, 0.0, 0.0, -450.87938915245405, 0.0]
['beep', 0.0, -1745.6935937039368, 0.0, 0.0, 0.0, 0.0, -451.0805548525518, 0.0]
['beep', 0.0, -1745.91711114849, 0.0, 0.0, 0.0, 0.0, -451.59464497502387, 0.0]
['beep', 0.0, -1746.8782361600681, 0.0, 0.0, 0.0, 0.0, -452.4440112643256, 0.0]
['beep', 0.0, -1746.5429599932386, 0.0, 0.0, 0.0, 0.0, -451.751107186211, 0.0]
['beep', 0.0, -1744.9559861369119, 0.0, 0.0, 0.0, 0.0, -453.1145635979848, 0.0]
['beep', 0.0, -1744.5313029922609, 0.0, 0.0, 0.0, 0.0, -452.73458394224457, 0.0]
['beep', 0.0, -1745.5371314927497, 0.0, 0.0, 0.0, 0.0, -453.7404124427334, 0.0]
['beep', 0.0, -1745.9841663818559, 0.0, 0.0, 0.0, 0.0, -454.0980403540183, 0.0]
['beep', 0.0, -1746.8558844156128, 0.0, 0.0, 0.0, 0.0, -452.93574964234233, 0.0]
['beep', 0.0, -1747.1464570935318, 0.0, 0.0, 0.0, 0.0, -452.5781217310574, 0.0]
['beep', 0.0, -1747.2135123268977, 0.0, 0.0, 0.0, 0.0, -452.30990079759374, 0.0]
['beep', 0.0, -1748.5546169942163, 0.0, 0.0, 0.0, 0.0, -451.8405141640323, 0.0]
['beep', 0.0, -1749.046355372233, 0.0, 0.0, 0.0, 0.0, -452.35460428650435, 0.0]
['beep', 0.0, -1748.8898931610458, 0.0, 0.0, 0.0, 0.0, -450.6335199634457, 0.0]
['beep', 0.0, -1748.3758030385738, 0.0, 0.0, 0.0, 0.0, -451.4158310193814, 0.0]
['beep', 0.0, -1748.979300138867, 0.0, 0.0, 0.0, 0.0, -451.57229323056856, 0.0]
['beep', 0.0, -1747.9511198939229, 0.0, 0.0, 0.0, 0.0, -452.4440112643256, 0.0]
['beep', 0.0, -1746.9676431378894, 0.0, 0.0, 0.0, 0.0, -452.93574964234233, 0.0]
['beep', 0.0, -1746.1629803374983, 0.0, 0.0, 0.0, 0.0, -453.65100546491215, 0.0]
['beep', 0.0, -1746.6770704599703, 0.0, 0.0, 0.0, 0.0, -452.1310868419513, 0.0]
['beep', 0.0, -1749.1357623500542, 0.0, 0.0, 0.0, 0.0, -450.52176124116914, 0.0]
['beep', 0.0, -1751.1250676065765, 0.0, 0.0, 0.0, 0.0, -449.2924152961273, 0.0]
['beep', 0.0, -1752.4438205294396, 0.0, 0.0, 0.0, 0.0, -447.6383862064345, 0.0]
['beep', 0.0, -1751.5721024956827, 0.0, 0.0, 0.0, 0.0, -448.107772839996, 0.0]
['beep', 0.0, -1748.2193408273865, 0.0, 0.0, 0.0, 0.0, -447.95131062880887, 0.0]
['beep', 0.0, -1747.3923262825401, 0.0, 0.0, 0.0, 0.0, -446.3419850280267, 0.0]
['beep', 0.0, -1749.8063146837135, 0.0, 0.0, 0.0, 0.0, -446.2525780502055, 0.0]
['beep', 0.0, -1750.2309978283643, 0.0, 0.0, 0.0, 0.0, -447.2584065506943, 0.0]
['beep', 0.0, -1748.9569483944117, 0.0, 0.0, 0.0, 0.0, -446.72196468376694, 0.0]
['beep', 0.0, -1749.1357623500542, 0.0, 0.0, 0.0, 0.0, -446.36433677248203, 0.0]
['beep', 0.0, -1748.5099135053056, 0.0, 0.0, 0.0, 0.0, -447.39251701742614, 0.0]
['beep', 0.0, -1749.627500728071, 0.0, 0.0, 0.0, 0.0, -448.17482807336194, 0.0]
['beep', 0.0, -1750.2309978283643, 0.0, 0.0, 0.0, 0.0, -447.6160344619792, 0.0]
['beep', 0.0, -1750.5662739951938, 0.0, 0.0, 0.0, 0.0, -449.0241943626636, 0.0]
['beep', 0.0, -1749.6498524725262, 0.0, 0.0, 0.0, 0.0, -449.1136013404848, 0.0]
['beep', 0.0, -1749.9627768949006, 0.0, 0.0, 0.0, 0.0, -450.365299029982, 0.0]
['beep', 0.0, -1750.1192391060877, 0.0, 0.0, 0.0, 0.0, -451.25936880819427, 0.0]
['beep', 0.0, -1751.0580123732107, 0.0, 0.0, 0.0, 0.0, -448.28658679563847, 0.0]
['beep', 0.0, -1750.1862943394535, 0.0, 0.0, 0.0, 0.0, -446.14081932792897, 0.0]
['beep', 0.0, -1749.0687071166883, 0.0, 0.0, 0.0, 0.0, -446.5655024725798, 0.0]
['beep', 0.0, -1748.5993204831268, 0.0, 0.0, 0.0, 0.0, -447.3031100396049, 0.0]
['beep', 0.0, -1749.1357623500542, 0.0, 0.0, 0.0, 0.0, -447.81720016207703, 0.0]
['beep', 0.0, -1750.6333292285597, 0.0, 0.0, 0.0, 0.0, -447.34781352851553, 0.0]
['beep', 0.0, -1749.6051489836157, 0.0, 0.0, 0.0, 0.0, -447.43722050633676, 0.0]
['beep', 0.0, -1749.1581140945095, 0.0, 0.0, 0.0, 0.0, -448.17482807336194, 0.0]
['beep', 0.0, -1748.7334309498588, 0.0, 0.0, 0.0, 0.0, -447.03488910614124, 0.0]
['beep', 0.0, -1749.694555961437, 0.0, 0.0, 0.0, 0.0, -447.07959259505185, 0.0]
['beep', 0.0, -1750.1862943394535, 0.0, 0.0, 0.0, 0.0, -448.19717981781724, 0.0]
['beep', 0.0, -1750.432163528462, 0.0, 0.0, 0.0, 0.0, -448.48775249573623, 0.0]
['beep', 0.0, -1748.5099135053056, 0.0, 0.0, 0.0, 0.0, -446.74431642822225, 0.0]
['beep', 0.0, -1748.1969890829314, 0.0, 0.0, 0.0, 0.0, -447.5042757397027, 0.0]
['beep', 0.0, -1748.8898931610458, 0.0, 0.0, 0.0, 0.0, -446.94548212832, 0.0]
['beep', 0.0, -1750.2757013172748, 0.0, 0.0, 0.0, 0.0, -448.0630693510854, 0.0]
['beep', 0.0, -1749.7839629392581, 0.0, 0.0, 0.0, 0.0, -449.87356065196525, 0.0]
['beep', 0.0, -1749.4486867724286, 0.0, 0.0, 0.0, 0.0, -449.6500432074122, 0.0]
['beep', 0.0, -1748.9345966499563, 0.0, 0.0, 0.0, 0.0, -448.4654007512809, 0.0]
['beep', 0.0, -1748.8451896721351, 0.0, 0.0, 0.0, 0.0, -449.3147670405826, 0.0]
['beep', 0.0, -1749.2922245612413, 0.0, 0.0, 0.0, 0.0, -448.688918195834, 0.0]
['beep', 0.0, -1749.046355372233, 0.0, 0.0, 0.0, 0.0, -447.2807582951496, 0.0]
['beep', 0.0, -1748.6663757164927, 0.0, 0.0, 0.0, 0.0, -448.0854210955407, 0.0]
['beep', 0.0, -1749.180465838965, 0.0, 0.0, 0.0, 0.0, -446.8337234060435, 0.0]
['beep', 0.0, -1750.0968873616323, 0.0, 0.0, 0.0, 0.0, -448.28658679563847, 0.0]
['beep', 0.0, -1751.1921228399424, 0.0, 0.0, 0.0, 0.0, -448.91243564038706, 0.0]
['beep', 0.0, -1750.8121431842021, 0.0, 0.0, 0.0, 0.0, -448.398345517915, 0.0]
['beep', 0.0, -1750.6109774841045, 0.0, 0.0, 0.0, 0.0, -448.3536420290044, 0.0]
['beep', 0.0, -1750.365108295096, 0.0, 0.0, 0.0, 0.0, -448.6442147069234, 0.0]
['beep', 0.0, -1750.9686053953894, 0.0, 0.0, 0.0, 0.0, -449.0241943626636, 0.0]
['beep', 0.0, -1752.7120414629032, 0.0, 0.0, 0.0, 0.0, -450.81233391908813, 0.0]
['beep', 0.0, -1752.3544135516183, 0.0, 0.0, 0.0, 0.0, -450.3876507744373, 0.0]
['beep', 0.0, -1752.265006573797, 0.0, 0.0, 0.0, 0.0, -450.4547060078032, 0.0]
['beep', 0.0, -1752.3767652960737, 0.0, 0.0, 0.0, 0.0, -450.0970780965183, 0.0]
['beep', 0.0, -1752.3097100627078, 0.0, 0.0, 0.0, 0.0, -451.4158310193814, 0.0]
['beep', 0.0, -1752.5332275072608, 0.0, 0.0, 0.0, 0.0, -451.6393484639345, 0.0]
['beep', 0.0, -1751.9744338958783, 0.0, 0.0, 0.0, 0.0, -450.14178158542893, 0.0]
['beep', 0.0, -1750.6333292285597, 0.0, 0.0, 0.0, 0.0, -449.2924152961273, 0.0]
['beep', 0.0, -1750.9686053953894, 0.0, 0.0, 0.0, 0.0, -449.7170984407781, 0.0]
['beep', 0.0, -1751.9297304069676, 0.0, 0.0, 0.0, 0.0, -450.365299029982, 0.0]
['beep', 0.0, -1752.0861926181547, 0.0, 0.0, 0.0, 0.0, -450.18648507433954, 0.0]
['beep', 0.0, -1753.1367246075542, 0.0, 0.0, 0.0, 0.0, -451.0805548525518, 0.0]
['beep', 0.0, -1752.3097100627078, 0.0, 0.0, 0.0, 0.0, -451.14761008591773, 0.0]
['beep', 0.0, -1751.7285647068697, 0.0, 0.0, 0.0, 0.0, -451.3264240415602, 0.0]
['beep', 0.0, -1752.2203030848866, 0.0, 0.0, 0.0, 0.0, -451.7064036973004, 0.0]
['beep', 0.0, -1753.0026141408223, 0.0, 0.0, 0.0, 0.0, -449.7170984407781, 0.0]
['beep', 0.0, -1752.7343932073586, 0.0, 0.0, 0.0, 0.0, -447.2807582951496, 0.0]
['beep', 0.0, -1750.4098117840067, 0.0, 0.0, 0.0, 0.0, -447.75014492871105, 0.0]
['beep', 0.0, -1749.7392594503474, 0.0, 0.0, 0.0, 0.0, -448.55480772910215, 0.0]
['beep', 0.0, -1749.8286664281686, 0.0, 0.0, 0.0, 0.0, -448.979490873753, 0.0]
['beep', 0.0, -1750.0521838727218, 0.0, 0.0, 0.0, 0.0, -449.9853193742418, 0.0]
['beep', 0.0, -1751.4156402844956, 0.0, 0.0, 0.0, 0.0, -450.14178158542893, 0.0]
['beep', 0.0, -1750.6333292285597, 0.0, 0.0, 0.0, 0.0, -450.25354030770546, 0.0]
['beep', 0.0, -1751.6391577290485, 0.0, 0.0, 0.0, 0.0, -452.7792874311552, 0.0]
['beep', 0.0, -1751.7956199402358, 0.0, 0.0, 0.0, 0.0, -451.1029065970071, 0.0]
['beep', 0.0, -1751.8403234291463, 0.0, 0.0, 0.0, 0.0, -451.25936880819427, 0.0]
['beep', 0.0, -1751.6838612179592, 0.0, 0.0, 0.0, 0.0, -451.25936880819427, 0.0]
['beep', 0.0, -1750.722736206381, 0.0, 0.0, 0.0, 0.0, -451.7958106751217, 0.0]
['beep', 0.0, -1751.0803641176658, 0.0, 0.0, 0.0, 0.0, -451.54994148611325, 0.0]
['beep', 0.0, -1751.236826328853, 0.0, 0.0, 0.0, 0.0, -452.1534385864066, 0.0]
['beep', 0.0, -1752.10854436261, 0.0, 0.0, 0.0, 0.0, -452.5557699866021, 0.0]
['beep', 0.0, -1752.8461519296352, 0.0, 0.0, 0.0, 0.0, -452.35460428650435, 0.0]
['beep', 0.0, -1751.0133088843, 0.0, 0.0, 0.0, 0.0, -452.73458394224457, 0.0]
['beep', 0.0, -1749.851018172624, 0.0, 0.0, 0.0, 0.0, -451.95227288630883, 0.0]
['beep', 0.0, -1750.6780327174704, 0.0, 0.0, 0.0, 0.0, -450.85703740799875, 0.0]
['beep', 0.0, -1751.1474193510319, 0.0, 0.0, 0.0, 0.0, -452.01932811967475, 0.0]
['beep', 0.0, -1750.3874600395513, 0.0, 0.0, 0.0, 0.0, -452.2651973086831, 0.0]
['beep', 0.0, -1750.007480383811, 0.0, 0.0, 0.0, 0.0, -451.48288625274733, 0.0]
['beep', 0.0, -1750.2533495728196, 0.0, 0.0, 0.0, 0.0, -452.37695603095966, 0.0]
['beep', 0.0, -1751.460343773406, 0.0, 0.0, 0.0, 0.0, -453.1145635979848, 0.0]
['beep', 0.0, -1752.0861926181547, 0.0, 0.0, 0.0, 0.0, -453.5615984870909, 0.0]
['beep', 0.0, -1751.7956199402358, 0.0, 0.0, 0.0, 0.0, -452.68988045333396, 0.0]
['beep', 0.0, -1751.5050472623168, 0.0, 0.0, 0.0, 0.0, -452.8239909200658, 0.0]
['beep', 0.0, -1751.303881562219, 0.0, 0.0, 0.0, 0.0, -451.7958106751217, 0.0]
['beep', 0.0, -1751.5721024956827, 0.0, 0.0, 0.0, 0.0, -452.8910461534317, 0.0]
['beep', 0.0, -1752.3097100627078, 0.0, 0.0, 0.0, 0.0, -454.5450752431244, 0.0]
['beep', 0.0, -1752.2873583182525, 0.0, 0.0, 0.0, 0.0, -453.27102580917193, 0.0]
['beep', 0.0, -1751.9073786625122, 0.0, 0.0, 0.0, 0.0, -452.37695603095966, 0.0]
['beep', 0.0, -1751.3932885400402, 0.0, 0.0, 0.0, 0.0, -453.5392467426356, 0.0]
['beep', 0.0, -1751.9073786625122, 0.0, 0.0, 0.0, 0.0, -453.60630197600153, 0.0]
['beep', 0.0, -1752.3097100627078, 0.0, 0.0, 0.0, 0.0, -453.0922118535295, 0.0]
['beep', 0.0, -1752.399117040529, 0.0, 0.0, 0.0, 0.0, -455.03681362114116, 0.0]
['beep', 0.0, -1750.8344949286575, 0.0, 0.0, 0.0, 0.0, -453.38278453144846, 0.0]
['beep', 0.0, -1749.5827972391603, 0.0, 0.0, 0.0, 0.0, -454.94740664331994, 0.0]
['beep', 0.0, -1749.7839629392581, 0.0, 0.0, 0.0, 0.0, -456.44497352182555, 0.0]
['beep', 0.0, -1751.7732681957805, 0.0, 0.0, 0.0, 0.0, -454.8356479210434, 0.0]
['beep', 0.0, -1751.6838612179592, 0.0, 0.0, 0.0, 0.0, -454.8579996654987, 0.0]
['beep', 0.0, -1750.1862943394535, 0.0, 0.0, 0.0, 0.0, -455.03681362114116, 0.0]
['beep', 0.0, -1750.2980530617301, 0.0, 0.0, 0.0, 0.0, -455.4838485102473, 0.0]
['beep', 0.0, -1751.7285647068697, 0.0, 0.0, 0.0, 0.0, -455.8861799104429, 0.0]
['beep', 0.0, -1753.1367246075542, 0.0, 0.0, 0.0, 0.0, -455.2379793212389, 0.0]
