['beep', 0.0, -3594.2946188801075, 0.0, 0.0, 0.0, 0.0, -333.2198063397177, 0.0]
['beep', 0.0, -3594.115804924465, 0.0, 0.0, 0.0, 0.0, -334.02446914010875, 0.0]
['beep', 0.0, -3594.384025857929, 0.0, 0.0, 0.0, 0.0, -333.5103790176367, 0.0]
['beep', 0.0, -3593.735825268725, 0.0, 0.0, 0.0, 0.0, -332.9292336617987, 0.0]
['beep', 0.0, -3593.6911217798142, 0.0, 0.0, 0.0, 0.0, -331.1410941053741, 0.0]
['beep', 0.0, -3593.8475839910016, 0.0, 0.0, 0.0, 0.0, -333.242158084173, 0.0]
['beep', 0.0, -3594.339322369018, 0.0, 0.0, 0.0, 0.0, -335.03029764059755, 0.0]
['beep', 0.0, -3595.2110404027753, 0.0, 0.0, 0.0, 0.0, -333.97976565119814, 0.0]
['beep', 0.0, -3595.1663369138646, 0.0, 0.0, 0.0, 0.0, -333.823303440011, 0.0]
['beep', 0.0, -3593.311142124074, 0.0, 0.0, 0.0, 0.0, -334.1585796068406, 0.0]
['beep', 0.0, -3592.3947206014063, 0.0, 0.0, 0.0, 0.0, -333.35391680644955, 0.0]
['beep', 0.0, -3593.1993834017976, 0.0, 0.0, 0.0, 0.0, -333.4656755287261, 0.0]
['beep', 0.0, -3593.802880502091, 0.0, 0.0, 0.0, 0.0, -334.73972496267857, 0.0]
['beep', 0.0, -3593.3558456129845, 0.0, 0.0, 0.0, 0.0, -335.03029764059755, 0.0]
['beep', 0.0, -3592.528831068138, 0.0, 0.0, 0.0, 0.0, -334.8291319404998, 0.0]
['beep', 0.0, -3594.8757642359456, 0.0, 0.0, 0.0, 0.0, -334.4491522847596, 0.0]
['beep', 0.0, -3595.792185758613, 0.0, 0.0, 0.0, 0.0, -334.918538918321, 0.0]
['beep', 0.0, -3594.987522958222, 0.0, 0.0, 0.0, 0.0, -335.03029764059755, 0.0]
['beep', 0.0, -3595.7474822697027, 0.0, 0.0, 0.0, 0.0, -332.9068819173434, 0.0]
['beep', 0.0, -3593.445252590806, 0.0, 0.0, 0.0, 0.0, -332.951585406254, 0.0]
['beep', 0.0, -3593.4229008463503, 0.0, 0.0, 0.0, 0.0, -331.90105341685455, 0.0]
['beep', 0.0, -3592.864107234968, 0.0, 0.0, 0.0, 0.0, -331.7445912056674, 0.0]
['beep', 0.0, -3592.729996768236, 0.0, 0.0, 0.0, 0.0, -333.1303993618965, 0.0]
['beep', 0.0, -3592.6629415348702, 0.0, 0.0, 0.0, 0.0, -333.08569587298587, 0.0]
['beep', 0.0, -3591.701816523292, 0.0, 0.0, 0.0, 0.0, -331.83399818348863, 0.0]
['beep', 0.0, -3591.768871756658, 0.0, 0.0, 0.0, 0.0, -331.7222394612121, 0.0]
['beep', 0.0, -3593.2887903796186, 0.0, 0.0, 0.0, 0.0, -332.5269022616032, 0.0]
['beep', 0.0, -3593.802880502091, 0.0, 0.0, 0.0, 0.0, -332.6163092394244, 0.0]
['beep', 0.0, -3592.797052001602, 0.0, 0.0, 0.0, 0.0, -331.789294694578, 0.0]
['beep', 0.0, -3593.154679912887, 0.0, 0.0, 0.0, 0.0, -330.96228014973167, 0.0]
['beep', 0.0, -3592.9535142127893, 0.0, 0.0, 0.0, 0.0, -330.0682103715194, 0.0]
['beep', 0.0, -3592.729996768236, 0.0, 0.0, 0.0, 0.0, -330.1352656048853, 0.0]
['beep', 0.0, -3593.6240665464484, 0.0, 0.0, 0.0, 0.0, -330.24702432716185, 0.0]
['beep', 0.0, -3594.2052119022865, 0.0, 0.0, 0.0, 0.0, -330.55994874953615, 0.0]
['beep', 0.0, -3593.467604335261, 0.0, 0.0, 0.0, 0.0, -330.85052142745513, 0.0]
['beep', 0.0, -3593.6911217798142, 0.0, 0.0, 0.0, 0.0, -330.6717074718127, 0.0]
['beep', 0.0, -3593.9146392243674, 0.0, 0.0, 0.0, 0.0, -332.7951231950669, 0.0]
['beep', 0.0, -3593.802880502091, 0.0, 0.0, 0.0, 0.0, -332.0128121391311, 0.0]
['beep', 0.0, -3593.9816944577333, 0.0, 0.0, 0.0, 0.0, -330.60465223844676, 0.0]
['beep', 0.0, -3593.177031657342, 0.0, 0.0, 0.0, 0.0, -329.822341182511, 0.0]
['beep', 0.0, -3592.081796179032, 0.0, 0.0, 0.0, 0.0, -329.17414059330713, 0.0]
['beep', 0.0, -3591.9029822233897, 0.0, 0.0, 0.0, 0.0, -330.53759700508084, 0.0]
['beep', 0.0, -3592.8417554905127, 0.0, 0.0, 0.0, 0.0, -330.0682103715194, 0.0]
['beep', 0.0, -3593.802880502091, 0.0, 0.0, 0.0, 0.0, -331.18579759428474, 0.0]
['beep', 0.0, -3593.75817701318, 0.0, 0.0, 0.0, 0.0, -331.3422598054719, 0.0]
['beep', 0.0, -3594.741653769214, 0.0, 0.0, 0.0, 0.0, -331.0740388720082, 0.0]
['beep', 0.0, -3595.2557438916856, 0.0, 0.0, 0.0, 0.0, -331.52107376111434, 0.0]
['beep', 0.0, -3596.1945171588086, 0.0, 0.0, 0.0, 0.0, -331.27520457210596, 0.0]
['beep', 0.0, -3596.2168689032637, 0.0, 0.0, 0.0, 0.0, -330.3140795605278, 0.0]
['beep', 0.0, -3597.088586937021, 0.0, 0.0, 0.0, 0.0, -330.984631894187, 0.0]
['beep', 0.0, -3597.5579735705824, 0.0, 0.0, 0.0, 0.0, -331.83399818348863, 0.0]
['beep', 0.0, -3597.625028803948, 0.0, 0.0, 0.0, 0.0, -331.0293353830976, 0.0]
['beep', 0.0, -3596.507441581183, 0.0, 0.0, 0.0, 0.0, -332.3480883059607, 0.0]
['beep', 0.0, -3595.2110404027753, 0.0, 0.0, 0.0, 0.0, -332.5269022616032, 0.0]
['beep', 0.0, -3593.512307824172, 0.0, 0.0, 0.0, 0.0, -331.54342550556964, 0.0]
['beep', 0.0, -3591.7241682677472, 0.0, 0.0, 0.0, 0.0, -332.1245708614076, 0.0]
['beep', 0.0, -3591.2324298897306, 0.0, 0.0, 0.0, 0.0, -331.7445912056674, 0.0]
['beep', 0.0, -3591.768871756658, 0.0, 0.0, 0.0, 0.0, -330.24702432716185, 0.0]
['beep', 0.0, -3593.311142124074, 0.0, 0.0, 0.0, 0.0, -329.28589931558366, 0.0]
['beep', 0.0, -3593.825232246546, 0.0, 0.0, 0.0, 0.0, -329.7329342046898, 0.0]
['beep', 0.0, -3596.1721654143535, 0.0, 0.0, 0.0, 0.0, -330.3140795605278, 0.0]
['beep', 0.0, -3597.04388344811, 0.0, 0.0, 0.0, 0.0, -331.20814933874004, 0.0]
['beep', 0.0, -3597.75913927068, 0.0, 0.0, 0.0, 0.0, -331.85634992794394, 0.0]
['beep', 0.0, -3598.0050084596883, 0.0, 0.0, 0.0, 0.0, -331.789294694578, 0.0]
['beep', 0.0, -3596.9991799592, 0.0, 0.0, 0.0, 0.0, -331.54342550556964, 0.0]
['beep', 0.0, -3597.1556421703867, 0.0, 0.0, 0.0, 0.0, -333.4880272731814, 0.0]
['beep', 0.0, -3597.602677059493, 0.0, 0.0, 0.0, 0.0, -332.3480883059607, 0.0]
['beep', 0.0, -3597.602677059493, 0.0, 0.0, 0.0, 0.0, -331.4093150388378, 0.0]
['beep', 0.0, -3598.7426160267137, 0.0, 0.0, 0.0, 0.0, -331.52107376111434, 0.0]
['beep', 0.0, -3598.0050084596883, 0.0, 0.0, 0.0, 0.0, -330.3811347938937, 0.0]
['beep', 0.0, -3597.3568078704848, 0.0, 0.0, 0.0, 0.0, -330.7611144496339, 0.0]
['beep', 0.0, -3597.9156014818673, 0.0, 0.0, 0.0, 0.0, -332.63866098387973, 0.0]
['beep', 0.0, -3598.4520433487946, 0.0, 0.0, 0.0, 0.0, -332.16927435031823, 0.0]
['beep', 0.0, -3597.7814910151355, 0.0, 0.0, 0.0, 0.0, -331.90105341685455, 0.0]
['beep', 0.0, -3597.021531703655, 0.0, 0.0, 0.0, 0.0, -332.8621784284328, 0.0]
['beep', 0.0, -3597.2897526371185, 0.0, 0.0, 0.0, 0.0, -332.63866098387973, 0.0]
['beep', 0.0, -3597.37915961494, 0.0, 0.0, 0.0, 0.0, -330.93992840527636, 0.0]
['beep', 0.0, -3598.2285259042415, 0.0, 0.0, 0.0, 0.0, -331.94575690576517, 0.0]
['beep', 0.0, -3597.535621826127, 0.0, 0.0, 0.0, 0.0, -333.1974545952624, 0.0]
['beep', 0.0, -3596.9097729813784, 0.0, 0.0, 0.0, 0.0, -333.1303993618965, 0.0]
['beep', 0.0, -3595.4569095917836, 0.0, 0.0, 0.0, 0.0, -333.5997859954579, 0.0]
['beep', 0.0, -3595.6133718029705, 0.0, 0.0, 0.0, 0.0, -333.7785999511004, 0.0]
['beep', 0.0, -3594.987522958222, 0.0, 0.0, 0.0, 0.0, -334.1809313512959, 0.0]
['beep', 0.0, -3595.367502613962, 0.0, 0.0, 0.0, 0.0, -334.11387611793, 0.0]
['beep', 0.0, -3596.2615723921745, 0.0, 0.0, 0.0, 0.0, -334.8961871738657, 0.0]
['beep', 0.0, -3594.8981159804007, 0.0, 0.0, 0.0, 0.0, -334.62796624040203, 0.0]
['beep', 0.0, -3595.3227991250515, 0.0, 0.0, 0.0, 0.0, -335.5220360186143, 0.0]
['beep', 0.0, -3596.6192003034594, 0.0, 0.0, 0.0, 0.0, -334.918538918321, 0.0]
['beep', 0.0, -3597.088586937021, 0.0, 0.0, 0.0, 0.0, -334.09152437347467, 0.0]
['beep', 0.0, -3594.6075433024816, 0.0, 0.0, 0.0, 0.0, -335.07500112950817, 0.0]
['beep', 0.0, -3594.2499153911967, 0.0, 0.0, 0.0, 0.0, -334.5162075181255, 0.0]
['beep', 0.0, -3594.0711014355543, 0.0, 0.0, 0.0, 0.0, -333.39862029536016, 0.0]
['beep', 0.0, -3594.6522467913924, 0.0, 0.0, 0.0, 0.0, -334.35974530693835, 0.0]
['beep', 0.0, -3594.696950280303, 0.0, 0.0, 0.0, 0.0, -334.8514836849551, 0.0]
['beep', 0.0, -3593.6911217798142, 0.0, 0.0, 0.0, 0.0, -334.02446914010875, 0.0]
['beep', 0.0, -3594.2052119022865, 0.0, 0.0, 0.0, 0.0, -333.39862029536016, 0.0]
['beep', 0.0, -3594.3169706245626, 0.0, 0.0, 0.0, 0.0, -333.42097203981547, 0.0]
['beep', 0.0, -3595.1663369138646, 0.0, 0.0, 0.0, 0.0, -334.11387611793, 0.0]
['beep', 0.0, -3594.2946188801075, 0.0, 0.0, 0.0, 0.0, -333.8680069289216, 0.0]
['beep', 0.0, -3594.540488069116, 0.0, 0.0, 0.0, 0.0, -333.1751028508071, 0.0]
['beep', 0.0, -3594.6298950469372, 0.0, 0.0, 0.0, 0.0, -334.5162075181255, 0.0]
['beep', 0.0, -3595.054578191588, 0.0, 0.0, 0.0, 0.0, -334.62796624040203, 0.0]
['beep', 0.0, -3594.115804924465, 0.0, 0.0, 0.0, 0.0, -333.64448948436853, 0.0]
['beep', 0.0, -3593.5570113130825, 0.0, 0.0, 0.0, 0.0, -332.9068819173434, 0.0]
['beep', 0.0, -3592.9311624683337, 0.0, 0.0, 0.0, 0.0, -333.5550825065473, 0.0]
['beep', 0.0, -3593.6240665464484, 0.0, 0.0, 0.0, 0.0, -333.8009516955557, 0.0]
['beep', 0.0, -3594.9651712137666, 0.0, 0.0, 0.0, 0.0, -331.9681086502205, 0.0]
['beep', 0.0, -3595.9709997142554, 0.0, 0.0, 0.0, 0.0, -332.1469226058629, 0.0]
['beep', 0.0, -3593.1323281684317, 0.0, 0.0, 0.0, 0.0, -330.53759700508084, 0.0]
['beep', 0.0, -3587.0973571654986, 0.0, 0.0, 0.0, 0.0, -328.5035882596479, 0.0]
['beep', 0.0, -3588.66197927737, 0.0, 0.0, 0.0, 0.0, -329.4423615267708, 0.0]
['beep', 0.0, -3591.2547816341857, 0.0, 0.0, 0.0, 0.0, -328.39182953737134, 0.0]
['beep', 0.0, -3591.634761289926, 0.0, 0.0, 0.0, 0.0, -327.43070452579315, 0.0]
['beep', 0.0, -3591.3888921009175, 0.0, 0.0, 0.0, 0.0, -327.05072487005293, 0.0]
['beep', 0.0, -3590.606581044982, 0.0, 0.0, 0.0, 0.0, -326.13430334738536, 0.0]
['beep', 0.0, -3590.494822322705, 0.0, 0.0, 0.0, 0.0, -325.9107859028323, 0.0]
['beep', 0.0, -3591.411243845373, 0.0, 0.0, 0.0, 0.0, -328.0342016260864, 0.0]
['beep', 0.0, -3592.081796179032, 0.0, 0.0, 0.0, 0.0, -327.78833243707805, 0.0]
['beep', 0.0, -3591.858278734479, 0.0, 0.0, 0.0, 0.0, -327.38600103688253, 0.0]
['beep', 0.0, -3591.6571130343814, 0.0, 0.0, 0.0, 0.0, -329.1070853599412, 0.0]
['beep', 0.0, -3591.433595589828, 0.0, 0.0, 0.0, 0.0, -328.0342016260864, 0.0]
['beep', 0.0, -3592.148851412398, 0.0, 0.0, 0.0, 0.0, -327.6989254592568, 0.0]
['beep', 0.0, -3592.9088107238786, 0.0, 0.0, 0.0, 0.0, -329.24119582667305, 0.0]
['beep', 0.0, -3593.534659568627, 0.0, 0.0, 0.0, 0.0, -328.61534698192446, 0.0]
['beep', 0.0, -3591.7465200122024, 0.0, 0.0, 0.0, 0.0, -328.14596034836296, 0.0]
['beep', 0.0, -3590.7853950006242, 0.0, 0.0, 0.0, 0.0, -327.9894981371758, 0.0]
['beep', 0.0, -3592.1935549013087, 0.0, 0.0, 0.0, 0.0, -328.2130155817289, 0.0]
['beep', 0.0, -3592.5958863015044, 0.0, 0.0, 0.0, 0.0, -328.8388644264775, 0.0]
['beep', 0.0, -3591.3888921009175, 0.0, 0.0, 0.0, 0.0, -327.74362894816744, 0.0]
['beep', 0.0, -3591.634761289926, 0.0, 0.0, 0.0, 0.0, -327.8777394148993, 0.0]
['beep', 0.0, -3591.545354312105, 0.0, 0.0, 0.0, 0.0, -328.54829174855854, 0.0]
['beep', 0.0, -3591.791223501113, 0.0, 0.0, 0.0, 0.0, -327.855387670444, 0.0]
['beep', 0.0, -3591.701816523292, 0.0, 0.0, 0.0, 0.0, -328.2800708150948, 0.0]
['beep', 0.0, -3592.3053136235853, 0.0, 0.0, 0.0, 0.0, -329.3753062934049, 0.0]
['beep', 0.0, -3592.6405897904147, 0.0, 0.0, 0.0, 0.0, -327.9671463927205, 0.0]
['beep', 0.0, -3592.081796179032, 0.0, 0.0, 0.0, 0.0, -327.05072487005293, 0.0]
['beep', 0.0, -3593.109976423976, 0.0, 0.0, 0.0, 0.0, -327.8777394148993, 0.0]
['beep', 0.0, -3594.384025857929, 0.0, 0.0, 0.0, 0.0, -328.6824022152904, 0.0]
['beep', 0.0, -3592.864107234968, 0.0, 0.0, 0.0, 0.0, -329.21884408221774, 0.0]
['beep', 0.0, -3592.439424090317, 0.0, 0.0, 0.0, 0.0, -328.7494574486563, 0.0]
['beep', 0.0, -3592.8417554905127, 0.0, 0.0, 0.0, 0.0, -328.8388644264775, 0.0]
['beep', 0.0, -3592.3947206014063, 0.0, 0.0, 0.0, 0.0, -328.97297489320937, 0.0]
['beep', 0.0, -3592.9758659572444, 0.0, 0.0, 0.0, 0.0, -329.3753062934049, 0.0]
['beep', 0.0, -3593.6911217798142, 0.0, 0.0, 0.0, 0.0, -330.0458586270641, 0.0]
['beep', 0.0, -3592.573534557049, 0.0, 0.0, 0.0, 0.0, -329.822341182511, 0.0]
['beep', 0.0, -3592.417072345862, 0.0, 0.0, 0.0, 0.0, -329.21884408221774, 0.0]
['beep', 0.0, -3593.4229008463503, 0.0, 0.0, 0.0, 0.0, -328.0342016260864, 0.0]
['beep', 0.0, -3594.5181363246606, 0.0, 0.0, 0.0, 0.0, -328.52594000410323, 0.0]
['beep', 0.0, -3594.13815666892, 0.0, 0.0, 0.0, 0.0, -329.4200097823155, 0.0]
['beep', 0.0, -3593.087624679521, 0.0, 0.0, 0.0, 0.0, -327.9447946482652, 0.0]
['beep', 0.0, -3593.154679912887, 0.0, 0.0, 0.0, 0.0, -327.6095184814356, 0.0]
['beep', 0.0, -3592.9982177016996, 0.0, 0.0, 0.0, 0.0, -328.436533026282, 0.0]
['beep', 0.0, -3593.5793630575376, 0.0, 0.0, 0.0, 0.0, -328.95062314875406, 0.0]
['beep', 0.0, -3593.2664386351635, 0.0, 0.0, 0.0, 0.0, -328.9953266376647, 0.0]
['beep', 0.0, -3591.1653746563647, 0.0, 0.0, 0.0, 0.0, -328.14596034836296, 0.0]
['beep', 0.0, -3590.7183397672584, 0.0, 0.0, 0.0, 0.0, -327.8777394148993, 0.0]
['beep', 0.0, -3590.85245023399, 0.0, 0.0, 0.0, 0.0, -327.9671463927205, 0.0]
['beep', 0.0, -3591.9476857123004, 0.0, 0.0, 0.0, 0.0, -327.40835278133784, 0.0]
['beep', 0.0, -3591.9700374567556, 0.0, 0.0, 0.0, 0.0, -327.47540801470376, 0.0]
['beep', 0.0, -3591.0089124451774, 0.0, 0.0, 0.0, 0.0, -328.05655337054174, 0.0]
['beep', 0.0, -3591.5900578010155, 0.0, 0.0, 0.0, 0.0, -326.8942626588658, 0.0]
['beep', 0.0, -3590.4501188337945, 0.0, 0.0, 0.0, 0.0, -327.274242314606, 0.0]
['beep', 0.0, -3590.181897900331, 0.0, 0.0, 0.0, 0.0, -328.10125685945235, 0.0]
['beep', 0.0, -3591.0759676785433, 0.0, 0.0, 0.0, 0.0, -327.43070452579315, 0.0]
['beep', 0.0, -3590.80774674508, 0.0, 0.0, 0.0, 0.0, -327.5871667369803, 0.0]
['beep', 0.0, -3590.7183397672584, 0.0, 0.0, 0.0, 0.0, -327.0283731255976, 0.0]
['beep', 0.0, -3591.2324298897306, 0.0, 0.0, 0.0, 0.0, -328.0118498816311, 0.0]
['beep', 0.0, -3591.2324298897306, 0.0, 0.0, 0.0, 0.0, -328.2353673261842, 0.0]
['beep', 0.0, -3590.539525811616, 0.0, 0.0, 0.0, 0.0, -327.6989254592568, 0.0]
['beep', 0.0, -3590.763043256169, 0.0, 0.0, 0.0, 0.0, -328.8165126820222, 0.0]
['beep', 0.0, -3591.143022911909, 0.0, 0.0, 0.0, 0.0, -328.88356791538814, 0.0]
['beep', 0.0, -3591.053615934088, 0.0, 0.0, 0.0, 0.0, -328.7494574486563, 0.0]
['beep', 0.0, -3591.120671167454, 0.0, 0.0, 0.0, 0.0, -328.63769872637977, 0.0]
['beep', 0.0, -3592.215906645764, 0.0, 0.0, 0.0, 0.0, -328.10125685945235, 0.0]
['beep', 0.0, -3591.411243845373, 0.0, 0.0, 0.0, 0.0, -328.436533026282, 0.0]
['beep', 0.0, -3590.561877556071, 0.0, 0.0, 0.0, 0.0, -329.7776376936004, 0.0]
['beep', 0.0, -3591.120671167454, 0.0, 0.0, 0.0, 0.0, -330.1576173493406, 0.0]
['beep', 0.0, -3592.3053136235853, 0.0, 0.0, 0.0, 0.0, -331.7445912056674, 0.0]
['beep', 0.0, -3593.1993834017976, 0.0, 0.0, 0.0, 0.0, -330.26937607161716, 0.0]
['beep', 0.0, -3592.886458979423, 0.0, 0.0, 0.0, 0.0, -329.24119582667305, 0.0]
['beep', 0.0, -3592.081796179032, 0.0, 0.0, 0.0, 0.0, -330.0011551381535, 0.0]
['beep', 0.0, -3592.8417554905127, 0.0, 0.0, 0.0, 0.0, -330.55994874953615, 0.0]
['beep', 0.0, -3593.6240665464484, 0.0, 0.0, 0.0, 0.0, -329.1517888488518, 0.0]
['beep', 0.0, -3593.75817701318, 0.0, 0.0, 0.0, 0.0, -328.727105704201, 0.0]
['beep', 0.0, -3592.9982177016996, 0.0, 0.0, 0.0, 0.0, -329.86704467142164, 0.0]
['beep', 0.0, -3591.500650823194, 0.0, 0.0, 0.0, 0.0, -329.53176850459204, 0.0]
['beep', 0.0, -3591.18772640082, 0.0, 0.0, 0.0, 0.0, -330.96228014973167, 0.0]
['beep', 0.0, -3592.9758659572444, 0.0, 0.0, 0.0, 0.0, -330.403486538349, 0.0]
['beep', 0.0, -3594.2946188801075, 0.0, 0.0, 0.0, 0.0, -328.6600504708351, 0.0]
['beep', 0.0, -3593.0652729350654, 0.0, 0.0, 0.0, 0.0, -329.55412024904734, 0.0]
['beep', 0.0, -3592.215906645764, 0.0, 0.0, 0.0, 0.0, -330.85052142745513, 0.0]
['beep', 0.0, -3591.545354312105, 0.0, 0.0, 0.0, 0.0, -330.0011551381535, 0.0]
['beep', 0.0, -3592.5511828125937, 0.0, 0.0, 0.0, 0.0, -328.4812365151926, 0.0]
['beep', 0.0, -3592.573534557049, 0.0, 0.0, 0.0, 0.0, -328.2130155817289, 0.0]
['beep', 0.0, -3592.506479323683, 0.0, 0.0, 0.0, 0.0, -329.1070853599412, 0.0]
['beep', 0.0, -3592.0147409456663, 0.0, 0.0, 0.0, 0.0, -329.28589931558366, 0.0]
['beep', 0.0, -3593.177031657342, 0.0, 0.0, 0.0, 0.0, -329.55412024904734, 0.0]
['beep', 0.0, -3594.741653769214, 0.0, 0.0, 0.0, 0.0, -330.3811347938937, 0.0]
['beep', 0.0, -3593.9816944577333, 0.0, 0.0, 0.0, 0.0, -329.3753062934049, 0.0]
['beep', 0.0, -3592.729996768236, 0.0, 0.0, 0.0, 0.0, -328.92827140429875, 0.0]
['beep', 0.0, -3593.2217351462527, 0.0, 0.0, 0.0, 0.0, -328.4141812818267, 0.0]
['beep', 0.0, -3592.6405897904147, 0.0, 0.0, 0.0, 0.0, -327.9447946482652, 0.0]
['beep', 0.0, -3592.9311624683337, 0.0, 0.0, 0.0, 0.0, -329.6658789713239, 0.0]
['beep', 0.0, -3594.026397946644, 0.0, 0.0, 0.0, 0.0, -330.0458586270641, 0.0]
['beep', 0.0, -3593.5793630575376, 0.0, 0.0, 0.0, 0.0, -329.93409990478756, 0.0]
['beep', 0.0, -3592.439424090317, 0.0, 0.0, 0.0, 0.0, -330.22467258270655, 0.0]
['beep', 0.0, -3592.528831068138, 0.0, 0.0, 0.0, 0.0, -331.25285282765066, 0.0]
['beep', 0.0, -3594.182860157831, 0.0, 0.0, 0.0, 0.0, -330.4481900272596, 0.0]
['beep', 0.0, -3594.09345318001, 0.0, 0.0, 0.0, 0.0, -331.29755631656127, 0.0]
['beep', 0.0, -3593.154679912887, 0.0, 0.0, 0.0, 0.0, -330.403486538349, 0.0]
['beep', 0.0, -3593.3558456129845, 0.0, 0.0, 0.0, 0.0, -330.17996909379593, 0.0]
['beep', 0.0, -3594.6522467913924, 0.0, 0.0, 0.0, 0.0, -330.96228014973167, 0.0]
['beep', 0.0, -3593.400549101895, 0.0, 0.0, 0.0, 0.0, -331.0963906164635, 0.0]
['beep', 0.0, -3592.6852932793254, 0.0, 0.0, 0.0, 0.0, -330.91757666082106, 0.0]
['beep', 0.0, -3592.864107234968, 0.0, 0.0, 0.0, 0.0, -331.7669429501227, 0.0]
['beep', 0.0, -3592.2829618791297, 0.0, 0.0, 0.0, 0.0, -331.3422598054719, 0.0]
['beep', 0.0, -3592.461775834772, 0.0, 0.0, 0.0, 0.0, -332.19162609477354, 0.0]
['beep', 0.0, -3593.177031657342, 0.0, 0.0, 0.0, 0.0, -332.4598470282373, 0.0]
['beep', 0.0, -3593.2887903796186, 0.0, 0.0, 0.0, 0.0, -331.52107376111434, 0.0]
['beep', 0.0, -3592.215906645764, 0.0, 0.0, 0.0, 0.0, -331.3199080610166, 0.0]
['beep', 0.0, -3592.2829618791297, 0.0, 0.0, 0.0, 0.0, -332.21397783922885, 0.0]
['beep', 0.0, -3592.9982177016996, 0.0, 0.0, 0.0, 0.0, -331.23050108319535, 0.0]
['beep', 0.0, -3592.417072345862, 0.0, 0.0, 0.0, 0.0, -330.93992840527636, 0.0]
['beep', 0.0, -3592.2382583902195, 0.0, 0.0, 0.0, 0.0, -331.27520457210596, 0.0]
['beep', 0.0, -3592.573534557049, 0.0, 0.0, 0.0, 0.0, -331.9904603946758, 0.0]
['beep', 0.0, -3590.517174067161, 0.0, 0.0, 0.0, 0.0, -331.54342550556964, 0.0]
['beep', 0.0, -3592.215906645764, 0.0, 0.0, 0.0, 0.0, -331.94575690576517, 0.0]
['beep', 0.0, -3593.177031657342, 0.0, 0.0, 0.0, 0.0, -331.90105341685455, 0.0]
['beep', 0.0, -3591.9029822233897, 0.0, 0.0, 0.0, 0.0, -330.694059216268, 0.0]
['beep', 0.0, -3591.858278734479, 0.0, 0.0, 0.0, 0.0, -329.59882373795796, 0.0]
['beep', 0.0, -3591.56770605656, 0.0, 0.0, 0.0, 0.0, -330.0682103715194, 0.0]
['beep', 0.0, -3592.3500171124956, 0.0, 0.0, 0.0, 0.0, -330.403486538349, 0.0]
['beep', 0.0, -3592.6405897904147, 0.0, 0.0, 0.0, 0.0, -330.3140795605278, 0.0]
['beep', 0.0, -3591.4559473342833, 0.0, 0.0, 0.0, 0.0, -328.9953266376647, 0.0]
['beep', 0.0, -3591.2547816341857, 0.0, 0.0, 0.0, 0.0, -329.84469292696633, 0.0]
['beep', 0.0, -3590.9642089562667, 0.0, 0.0, 0.0, 0.0, -330.87287317191044, 0.0]
['beep', 0.0, -3589.533697311127, 0.0, 0.0, 0.0, 0.0, -331.0516871275529, 0.0]
['beep', 0.0, -3587.0303019321327, 0.0, 0.0, 0.0, 0.0, -329.9788033936982, 0.0]
['beep', 0.0, -3585.7562524981804, 0.0, 0.0, 0.0, 0.0, -328.9953266376647, 0.0]
['beep', 0.0, -3583.8116507305685, 0.0, 0.0, 0.0, 0.0, -328.54829174855854, 0.0]
['beep', 0.0, -3583.2081536302753, 0.0, 0.0, 0.0, 0.0, -328.57064349301385, 0.0]
['beep', 0.0, -3585.644493775904, 0.0, 0.0, 0.0, 0.0, -329.1070853599412, 0.0]
['beep', 0.0, -3587.8796682214343, 0.0, 0.0, 0.0, 0.0, -328.2800708150948, 0.0]
['beep', 0.0, -3588.863144977468, 0.0, 0.0, 0.0, 0.0, -329.17414059330713, 0.0]
['beep', 0.0, -3590.3830636004286, 0.0, 0.0, 0.0, 0.0, -329.7552859491451, 0.0]
['beep', 0.0, -3590.2936566226076, 0.0, 0.0, 0.0, 0.0, -329.28589931558366, 0.0]
['beep', 0.0, -3590.271304878152, 0.0, 0.0, 0.0, 0.0, -330.0235068826088, 0.0]
['beep', 0.0, -3590.6736362783477, 0.0, 0.0, 0.0, 0.0, -330.58230049399145, 0.0]
['beep', 0.0, -3590.494822322705, 0.0, 0.0, 0.0, 0.0, -330.3587830494384, 0.0]
['beep', 0.0, -3590.9418572118116, 0.0, 0.0, 0.0, 0.0, -330.62700398290207, 0.0]
['beep', 0.0, -3591.3888921009175, 0.0, 0.0, 0.0, 0.0, -330.85052142745513, 0.0]
['beep', 0.0, -3592.573534557049, 0.0, 0.0, 0.0, 0.0, -331.6775359723015, 0.0]
['beep', 0.0, -3593.445252590806, 0.0, 0.0, 0.0, 0.0, -330.17996909379593, 0.0]
['beep', 0.0, -3594.09345318001, 0.0, 0.0, 0.0, 0.0, -328.90591965984345, 0.0]
['beep', 0.0, -3593.4899560797166, 0.0, 0.0, 0.0, 0.0, -329.86704467142164, 0.0]
['beep', 0.0, -3592.3276653680405, 0.0, 0.0, 0.0, 0.0, -330.22467258270655, 0.0]
['beep', 0.0, -3592.417072345862, 0.0, 0.0, 0.0, 0.0, -331.52107376111434, 0.0]
['beep', 0.0, -3592.461775834772, 0.0, 0.0, 0.0, 0.0, -331.61048073893556, 0.0]
['beep', 0.0, -3585.979769942733, 0.0, 0.0, 0.0, 0.0, -329.7999894380557, 0.0]
['beep', 0.0, -3585.1974588867974, 0.0, 0.0, 0.0, 0.0, -329.3306028044943, 0.0]
['beep', 0.0, -3584.593961786504, 0.0, 0.0, 0.0, 0.0, -329.59882373795796, 0.0]
['beep', 0.0, -3584.7727757421467, 0.0, 0.0, 0.0, 0.0, -329.93409990478756, 0.0]
['beep', 0.0, -3584.862182719968, 0.0, 0.0, 0.0, 0.0, -330.51524526062553, 0.0]
['beep', 0.0, -3582.403490829884, 0.0, 0.0, 0.0, 0.0, -331.0963906164635, 0.0]
['beep', 0.0, -3580.704758251281, 0.0, 0.0, 0.0, 0.0, -329.3306028044943, 0.0]
['beep', 0.0, -3589.466642077761, 0.0, 0.0, 0.0, 0.0, -335.07500112950817, 0.0]
['beep', 0.0, -3593.7805287576352, 0.0, 0.0, 0.0, 0.0, -345.3121000900388, 0.0]
['beep', 0.0, -3597.2003456592975, 0.0, 0.0, 0.0, 0.0, -356.1526961508627, 0.0]
['beep', 0.0, -3600.3966451164065, 0.0, 0.0, 0.0, 0.0, -364.467545088237, 0.0]
['beep', 0.0, -3604.375255629451, 0.0, 0.0, 0.0, 0.0, -373.96703648174247, 0.0]
['beep', 0.0, -3610.410226632384, 0.0, 0.0, 0.0, 0.0, -383.0194929861418, 0.0]
['beep', 0.0, -3616.4899011242273, 0.0, 0.0, 0.0, 0.0, -392.07194949054116, 0.0]
['beep', 0.0, -3621.563747115582, 0.0, 0.0, 0.0, 0.0, -401.07970250602995, 0.0]
['beep', 0.0, -3626.727000084758, 0.0, 0.0, 0.0, 0.0, -408.2322607317282, 0.0]
['beep', 0.0, -3630.280927453152, 0.0, 0.0, 0.0, 0.0, -414.49074917921416, 0.0]
['beep', 0.0, -3635.8688635669787, 0.0, 0.0, 0.0, 0.0, -422.6044324164906, 0.0]
['beep', 0.0, -3640.562729902593, 0.0, 0.0, 0.0, 0.0, -431.32161275406037, 0.0]
['beep', 0.0, -3646.3294799720625, 0.0, 0.0, 0.0, 0.0, -438.80944714658824, 0.0]
['beep', 0.0, -3650.3304422295623, 0.0, 0.0, 0.0, 0.0, -445.6714326943675, 0.0]
['beep', 0.0, -3654.7113841428027, 0.0, 0.0, 0.0, 0.0, -452.39930777541497, 0.0]
['beep', 0.0, -3657.7735731331795, 0.0, 0.0, 0.0, 0.0, -458.79190668963275, 0.0]
['beep', 0.0, -3663.205047035819, 0.0, 0.0, 0.0, 0.0, -465.7880027041439, 0.0]
['beep', 0.0, -3668.077727327076, 0.0, 0.0, 0.0, 0.0, -471.89002894044273, 0.0]
['beep', 0.0, -3671.4304889953723, 0.0, 0.0, 0.0, 0.0, -477.8132412210991, 0.0]
['beep', 0.0, -3673.866829141001, 0.0, 0.0, 0.0, 0.0, -484.1164331574957, 0.0]
['beep', 0.0, -3676.9960733647436, 0.0, 0.0, 0.0, 0.0, -489.3020378711269, 0.0]
['beep', 0.0, -3680.2370763107633, 0.0, 0.0, 0.0, 0.0, -494.4429390958475, 0.0]
['beep', 0.0, -3683.3886722789616, 0.0, 0.0, 0.0, 0.0, -499.427378109381, 0.0]
['beep', 0.0, -3686.7861374361682, 0.0, 0.0, 0.0, 0.0, -504.63533456746757, 0.0]
['beep', 0.0, -3690.183602593375, 0.0, 0.0, 0.0, 0.0, -508.2563171692273, 0.0]
['beep', 0.0, -3692.3293700610843, 0.0, 0.0, 0.0, 0.0, -510.4467881258474, 0.0]
['beep', 0.0, -3695.63742824047, 0.0, 0.0, 0.0, 0.0, -512.6819625713781, 0.0]
['beep', 0.0, -3698.7890242086683, 0.0, 0.0, 0.0, 0.0, -515.3418201615597, 0.0]
['beep', 0.0, -3700.621867254003, 0.0, 0.0, 0.0, 0.0, -516.4817591287803, 0.0]
['beep', 0.0, -3700.912439931922, 0.0, 0.0, 0.0, 0.0, -519.5215963747021, 0.0]
['beep', 0.0, -3700.8006812096455, 0.0, 0.0, 0.0, 0.0, -519.4321893968809, 0.0]
['beep', 0.0, -3700.7559777207352, 0.0, 0.0, 0.0, 0.0, -516.8393870400652, 0.0]
['beep', 0.0, -3699.2584108422293, 0.0, 0.0, 0.0, 0.0, -514.9171370169088, 0.0]
['beep', 0.0, -3698.6772654863917, 0.0, 0.0, 0.0, 0.0, -515.4088753949255, 0.0]
['beep', 0.0, -3699.8172044536122, 0.0, 0.0, 0.0, 0.0, -514.6265643389899, 0.0]
['beep', 0.0, -3700.3759980649947, 0.0, 0.0, 0.0, 0.0, -515.0288957391854, 0.0]
['beep', 0.0, -3701.2924195876626, 0.0, 0.0, 0.0, 0.0, -515.7441515617552, 0.0]
['beep', 0.0, -3700.8677364430114, 0.0, 0.0, 0.0, 0.0, -515.9229655173976, 0.0]
['beep', 0.0, -3699.7054457313357, 0.0, 0.0, 0.0, 0.0, -515.4088753949255, 0.0]
['beep', 0.0, -3699.1243003754976, 0.0, 0.0, 0.0, 0.0, -515.3865236504703, 0.0]
['beep', 0.0, -3696.956181163333, 0.0, 0.0, 0.0, 0.0, -514.2465846832496, 0.0]
['beep', 0.0, -3697.269105585707, 0.0, 0.0, 0.0, 0.0, -513.7101428163222, 0.0]
['beep', 0.0, -3697.8726026860004, 0.0, 0.0, 0.0, 0.0, -514.8500817835429, 0.0]
['beep', 0.0, -3698.4090445529278, 0.0, 0.0, 0.0, 0.0, -515.1630062059172, 0.0]
['beep', 0.0, -3697.8502509415453, 0.0, 0.0, 0.0, 0.0, -513.8889567719647, 0.0]
['beep', 0.0, -3697.1349951189754, 0.0, 0.0, 0.0, 0.0, -513.3525149050373, 0.0]
['beep', 0.0, -3698.632561997481, 0.0, 0.0, 0.0, 0.0, -513.3748666494926, 0.0]
['beep', 0.0, -3701.046550398654, 0.0, 0.0, 0.0, 0.0, -512.1902241933614, 0.0]
['beep', 0.0, -3699.727797475791, 0.0, 0.0, 0.0, 0.0, -512.4137416379144, 0.0]
['beep', 0.0, -3698.7890242086683, 0.0, 0.0, 0.0, 0.0, -512.5702038491015, 0.0]
['beep', 0.0, -3698.945486419855, 0.0, 0.0, 0.0, 0.0, -512.3466864045484, 0.0]
['beep', 0.0, -3698.699617230847, 0.0, 0.0, 0.0, 0.0, -511.944355004353, 0.0]
['beep', 0.0, -3698.8337276975785, 0.0, 0.0, 0.0, 0.0, -513.5089771162245, 0.0]
['beep', 0.0, -3698.252582341741, 0.0, 0.0, 0.0, 0.0, -512.5702038491015, 0.0]
['beep', 0.0, -3698.8337276975785, 0.0, 0.0, 0.0, 0.0, -510.1338637034731, 0.0]
['beep', 0.0, -3698.0737683860984, 0.0, 0.0, 0.0, 0.0, -509.37390439199265, 0.0]
['beep', 0.0, -3699.236059097774, 0.0, 0.0, 0.0, 0.0, -510.4691398703027, 0.0]
['beep', 0.0, -3698.8784311864893, 0.0, 0.0, 0.0, 0.0, -512.6149073380121, 0.0]
['beep', 0.0, -3698.5208032752043, 0.0, 0.0, 0.0, 0.0, -513.1513492049395, 0.0]
['beep', 0.0, -3697.7831957081794, 0.0, 0.0, 0.0, 0.0, -513.3078114161267, 0.0]
['beep', 0.0, -3697.023236396699, 0.0, 0.0, 0.0, 0.0, -512.4360933823697, 0.0]
['beep', 0.0, -3695.950352662844, 0.0, 0.0, 0.0, 0.0, -516.8840905289758, 0.0]
['beep', 0.0, -3697.4702712858048, 0.0, 0.0, 0.0, 0.0, -515.0288957391854, 0.0]
['beep', 0.0, -3696.01740789621, 0.0, 0.0, 0.0, 0.0, -509.1503869474396, 0.0]
['beep', 0.0, -3697.1796986078857, 0.0, 0.0, 0.0, 0.0, -510.37973289248146, 0.0]
['beep', 0.0, -3700.1524806204416, 0.0, 0.0, 0.0, 0.0, -512.2796311711826, 0.0]
['beep', 0.0, -3702.9240969329, 0.0, 0.0, 0.0, 0.0, -514.0007154942413, 0.0]
['beep', 0.0, -3705.6733615009025, 0.0, 0.0, 0.0, 0.0, -515.9676690063083, 0.0]
['beep', 0.0, -3705.203974867341, 0.0, 0.0, 0.0, 0.0, -516.973497506797, 0.0]
['beep', 0.0, -3703.438187055372, 0.0, 0.0, 0.0, 0.0, -516.5711661066015, 0.0]
['beep', 0.0, -3702.0523788991427, 0.0, 0.0, 0.0, 0.0, -516.3029451731378, 0.0]
['beep', 0.0, -3702.857041699534, 0.0, 0.0, 0.0, 0.0, -516.8393870400652, 0.0]
['beep', 0.0, -3703.9969806667546, 0.0, 0.0, 0.0, 0.0, -517.2864219291713, 0.0]
['beep', 0.0, -3703.7064079888355, 0.0, 0.0, 0.0, 0.0, -516.5711661066015, 0.0]
['beep', 0.0, -3703.7734632222014, 0.0, 0.0, 0.0, 0.0, -517.1299597179842, 0.0]
['beep', 0.0, -3703.7064079888355, 0.0, 0.0, 0.0, 0.0, -517.8005120516434, 0.0]
['beep', 0.0, -3703.9299254333887, 0.0, 0.0, 0.0, 0.0, -516.2582416842272, 0.0]
['beep', 0.0, -3704.4216638114053, 0.0, 0.0, 0.0, 0.0, -516.973497506797, 0.0]
['beep', 0.0, -3705.405140567439, 0.0, 0.0, 0.0, 0.0, -520.6615353419227, 0.0]
['beep', 0.0, -3703.728759733291, 0.0, 0.0, 0.0, 0.0, -516.7052765733333, 0.0]
['beep', 0.0, -3704.488719044771, 0.0, 0.0, 0.0, 0.0, -513.8442532830541, 0.0]
['beep', 0.0, -3705.5168992897156, 0.0, 0.0, 0.0, 0.0, -515.4088753949255, 0.0]
['beep', 0.0, -3705.561602778626, 0.0, 0.0, 0.0, 0.0, -515.9229655173976, 0.0]
['beep', 0.0, -3705.49454754526, 0.0, 0.0, 0.0, 0.0, -515.2300614392831, 0.0]
['beep', 0.0, -3705.181623122886, 0.0, 0.0, 0.0, 0.0, -515.2747649281937, 0.0]
['beep', 0.0, -3705.6733615009025, 0.0, 0.0, 0.0, 0.0, -515.9006137729423, 0.0]
['beep', 0.0, -3705.785120223179, 0.0, 0.0, 0.0, 0.0, -517.6440498404563, 0.0]
['beep', 0.0, -3706.6344865124806, 0.0, 0.0, 0.0, 0.0, -518.9851545077747, 0.0]
['beep', 0.0, -3705.49454754526, 0.0, 0.0, 0.0, 0.0, -516.8840905289758, 0.0]
['beep', 0.0, -3704.2875533446736, 0.0, 0.0, 0.0, 0.0, -517.2417184402607, 0.0]
['beep', 0.0, -3704.891050444967, 0.0, 0.0, 0.0, 0.0, -518.6498783409451, 0.0]
['beep', 0.0, -3705.1592713784307, 0.0, 0.0, 0.0, 0.0, -517.5322911181797, 0.0]
['beep', 0.0, -3705.762768478724, 0.0, 0.0, 0.0, 0.0, -517.8899190294646, 0.0]
['beep', 0.0, -3705.9415824343664, 0.0, 0.0, 0.0, 0.0, -518.0910847295625, 0.0]
['beep', 0.0, -3705.1592713784307, 0.0, 0.0, 0.0, 0.0, -517.3311254180819, 0.0]
['beep', 0.0, -3704.153442877942, 0.0, 0.0, 0.0, 0.0, -517.5769946070903, 0.0]
['beep', 0.0, -3704.3769603224946, 0.0, 0.0, 0.0, 0.0, -517.3311254180819, 0.0]
['beep', 0.0, -3705.11456788952, 0.0, 0.0, 0.0, 0.0, -517.1523114624395, 0.0]
['beep', 0.0, -3704.8686987005117, 0.0, 0.0, 0.0, 0.0, -516.7052765733333, 0.0]
['beep', 0.0, -3704.175794622397, 0.0, 0.0, 0.0, 0.0, -516.7499800622439, 0.0]
['beep', 0.0, -3704.0416841556653, 0.0, 0.0, 0.0, 0.0, -516.5488143621462, 0.0]
['beep', 0.0, -3704.511070789227, 0.0, 0.0, 0.0, 0.0, -517.0182009957076, 0.0]
['beep', 0.0, -3706.0086376677323, 0.0, 0.0, 0.0, 0.0, -516.3476486620484, 0.0]
['beep', 0.0, -3706.2768586011957, 0.0, 0.0, 0.0, 0.0, -517.7781603071882, 0.0]
['beep', 0.0, -3705.6063062675366, 0.0, 0.0, 0.0, 0.0, -517.4652358848138, 0.0]
['beep', 0.0, -3705.6063062675366, 0.0, 0.0, 0.0, 0.0, -517.4652358848138, 0.0]
['beep', 0.0, -3706.9474109348553, 0.0, 0.0, 0.0, 0.0, -518.2028434518389, 0.0]
['beep', 0.0, -3706.1650998789196, 0.0, 0.0, 0.0, 0.0, -516.973497506797, 0.0]
['beep', 0.0, -3706.1874516233747, 0.0, 0.0, 0.0, 0.0, -515.9229655173976, 0.0]
['beep', 0.0, -3705.6063062675366, 0.0, 0.0, 0.0, 0.0, -515.9006137729423, 0.0]
['beep', 0.0, -3705.338085334073, 0.0, 0.0, 0.0, 0.0, -516.0570759841295, 0.0]
['beep', 0.0, -3706.3215620901065, 0.0, 0.0, 0.0, 0.0, -517.0182009957076, 0.0]
['beep', 0.0, -3707.5509080351485, 0.0, 0.0, 0.0, 0.0, -518.6275265964898, 0.0]
['beep', 0.0, -3707.7744254797017, 0.0, 0.0, 0.0, 0.0, -517.6887533293669, 0.0]
['beep', 0.0, -3706.9474109348553, 0.0, 0.0, 0.0, 0.0, -517.3087736736267, 0.0]
['beep', 0.0, -3704.7122364893244, 0.0, 0.0, 0.0, 0.0, -517.7558085627328, 0.0]
['beep', 0.0, -3704.6675330004136, 0.0, 0.0, 0.0, 0.0, -519.1416167189618, 0.0]
['beep', 0.0, -3703.527594033193, 0.0, 0.0, 0.0, 0.0, -518.8957475299535, 0.0]
['beep', 0.0, -3701.471233543305, 0.0, 0.0, 0.0, 0.0, -518.0687329851071, 0.0]
['beep', 0.0, -3699.280762586685, 0.0, 0.0, 0.0, 0.0, -516.5041108732356, 0.0]
['beep', 0.0, -3699.0348933976766, 0.0, 0.0, 0.0, 0.0, -517.040552740163, 0.0]
['beep', 0.0, -3700.1524806204416, 0.0, 0.0, 0.0, 0.0, -516.973497506797, 0.0]
['beep', 0.0, -3701.471233543305, 0.0, 0.0, 0.0, 0.0, -515.9229655173976, 0.0]
['beep', 0.0, -3702.477062043794, 0.0, 0.0, 0.0, 0.0, -514.8947852724535, 0.0]
['beep', 0.0, -3703.728759733291, 0.0, 0.0, 0.0, 0.0, -514.3359916610708, 0.0]
['beep', 0.0, -3704.444015555861, 0.0, 0.0, 0.0, 0.0, -514.7159713168111, 0.0]
['beep', 0.0, -3705.7404167342684, 0.0, 0.0, 0.0, 0.0, -515.0959509725512, 0.0]
['beep', 0.0, -3710.143710391964, 0.0, 0.0, 0.0, 0.0, -516.0123724952189, 0.0]
['beep', 0.0, -3711.1271871479976, 0.0, 0.0, 0.0, 0.0, -516.0347242396741, 0.0]
['beep', 0.0, -3699.7054457313357, 0.0, 0.0, 0.0, 0.0, -508.32337240259324, 0.0]
['beep', 0.0, -3689.8706781710007, 0.0, 0.0, 0.0, 0.0, -494.6888082848559, 0.0]
['beep', 0.0, -3688.4178147814055, 0.0, 0.0, 0.0, 0.0, -480.80837497811024, 0.0]
['beep', 0.0, -3689.8706781710007, 0.0, 0.0, 0.0, 0.0, -467.1961626048282, 0.0]
['beep', 0.0, -3684.5509629906373, 0.0, 0.0, 0.0, 0.0, -450.7899821746328, 0.0]
['beep', 0.0, -3678.6724541988915, 0.0, 0.0, 0.0, 0.0, -434.02617383315254, 0.0]
['beep', 0.0, -3675.476154741783, 0.0, 0.0, 0.0, 0.0, -416.4577026912812, 0.0]
['beep', 0.0, -3672.7715936626905, 0.0, 0.0, 0.0, 0.0, -401.5714408840467, 0.0]
['beep', 0.0, -3669.4411837388498, 0.0, 0.0, 0.0, 0.0, -383.51123136415856, 0.0]
['beep', 0.0, -3668.6141691940034, 0.0, 0.0, 0.0, 0.0, -367.95441722326484, 0.0]
['beep', 0.0, -3662.9815295912663, 0.0, 0.0, 0.0, 0.0, -349.0448414140751, 0.0]
['beep', 0.0, -3658.0641458110986, 0.0, 0.0, 0.0, 0.0, -331.87870167239925, 0.0]
['beep', 0.0, -3654.733735887258, 0.0, 0.0, 0.0, 0.0, -315.47252124220387, 0.0]
['beep', 0.0, -3650.6210149074814, 0.0, 0.0, 0.0, 0.0, -302.2179367802068, 0.0]
['beep', 0.0, -3645.7036311273137, 0.0, 0.0, 0.0, 0.0, -289.566849418503, 0.0]
['beep', 0.0, -3640.249805480219, 0.0, 0.0, 0.0, 0.0, -277.07222426798637, 0.0]
['beep', 0.0, -3637.2993752121183, 0.0, 0.0, 0.0, 0.0, -267.0809944964641, 0.0]
['beep', 0.0, -3635.1312559999537, 0.0, 0.0, 0.0, 0.0, -253.98287224565416, 0.0]
['beep', 0.0, -3632.180825731853, 0.0, 0.0, 0.0, 0.0, -240.43771510573808, 0.0]
['beep', 0.0, -3627.5540146296044, 0.0, 0.0, 0.0, 0.0, -234.2015784027074, 0.0]
['beep', 0.0, -3623.2848314386406, 0.0, 0.0, 0.0, 0.0, -225.9090812097885, 0.0]
['beep', 0.0, -3620.6473255929145, 0.0, 0.0, 0.0, 0.0, -221.05875266298685, 0.0]
['beep', 0.0, -3617.9427645138226, 0.0, 0.0, 0.0, 0.0, -219.58353752893657, 0.0]
['beep', 0.0, -3615.662886579381, 0.0, 0.0, 0.0, 0.0, -214.2638223485735, 0.0]
['beep', 0.0, -3612.8465667780124, 0.0, 0.0, 0.0, 0.0, -212.76625547006793, 0.0]
['beep', 0.0, -3607.817424275568, 0.0, 0.0, 0.0, 0.0, -213.43680780372713, 0.0]
['beep', 0.0, -3604.084682951532, 0.0, 0.0, 0.0, 0.0, -217.8177497169673, 0.0]
['beep', 0.0, -3599.1002439379986, 0.0, 0.0, 0.0, 0.0, -219.20355787319636, 0.0]
['beep', 0.0, -3597.334456126029, 0.0, 0.0, 0.0, 0.0, -224.3221073534617, 0.0]
['beep', 0.0, -3593.0652729350654, 0.0, 0.0, 0.0, 0.0, -227.02666843255383, 0.0]
['beep', 0.0, -3592.3500171124956, 0.0, 0.0, 0.0, 0.0, -233.3075086244951, 0.0]
['beep', 0.0, -3588.3714065994513, 0.0, 0.0, 0.0, 0.0, -238.38135461584983, 0.0]
['beep', 0.0, -3587.700854265792, 0.0, 0.0, 0.0, 0.0, -244.55043608551458, 0.0]
['beep', 0.0, -3585.689197264814, 0.0, 0.0, 0.0, 0.0, -246.67385180876875, 0.0]
['beep', 0.0, -3583.0069879301773, 0.0, 0.0, 0.0, 0.0, -247.85849426490003, 0.0]
['beep', 0.0, -3581.352958840485, 0.0, 0.0, 0.0, 0.0, -255.56984610198094, 0.0]
['beep', 0.0, -3580.637703017915, 0.0, 0.0, 0.0, 0.0, -262.14125897184124, 0.0]
['beep', 0.0, -3581.397662329395, 0.0, 0.0, 0.0, 0.0, -265.4046136623161, 0.0]
['beep', 0.0, -3580.727109995736, 0.0, 0.0, 0.0, 0.0, -272.9595032882099, 0.0]
['beep', 0.0, -3580.727109995736, 0.0, 0.0, 0.0, 0.0, -276.8710585678886, 0.0]
['beep', 0.0, -3580.0118541731663, 0.0, 0.0, 0.0, 0.0, -280.76026210311204, 0.0]
['beep', 0.0, -3579.0060256726774, 0.0, 0.0, 0.0, 0.0, -280.73791035865673, 0.0]
['beep', 0.0, -3578.827211717035, 0.0, 0.0, 0.0, 0.0, -281.8778493258774, 0.0]
['beep', 0.0, -3578.827211717035, 0.0, 0.0, 0.0, 0.0, -286.7952331060449, 0.0]
['beep', 0.0, -3578.670749505848, 0.0, 0.0, 0.0, 0.0, -292.7184453867013, 0.0]
['beep', 0.0, -3577.7766797276354, 0.0, 0.0, 0.0, 0.0, -293.79132912055604, 0.0]
['beep', 0.0, -3577.0167204161553, 0.0, 0.0, 0.0, 0.0, -294.21601226520687, 0.0]
['beep', 0.0, -3576.837906460513, 0.0, 0.0, 0.0, 0.0, -298.26167801161745, 0.0]
['beep', 0.0, -3578.111955894465, 0.0, 0.0, 0.0, 0.0, -301.39092223536045, 0.0]
['beep', 0.0, -3578.760156483669, 0.0, 0.0, 0.0, 0.0, -301.9050123578325, 0.0]
['beep', 0.0, -3578.5813425280267, 0.0, 0.0, 0.0, 0.0, -302.8214338805001, 0.0]
['beep', 0.0, -3577.0614239050656, 0.0, 0.0, 0.0, 0.0, -304.2295937811844, 0.0]
['beep', 0.0, -3577.1955343717977, 0.0, 0.0, 0.0, 0.0, -305.81656763751124, 0.0]
['beep', 0.0, -3576.6590925048704, 0.0, 0.0, 0.0, 0.0, -308.565832205514, 0.0]
['beep', 0.0, -3576.3908715714065, 0.0, 0.0, 0.0, 0.0, -310.0633990840196, 0.0]
['beep', 0.0, -3576.3014645935855, 0.0, 0.0, 0.0, 0.0, -310.7339514176788, 0.0]
['beep', 0.0, -3576.547333782594, 0.0, 0.0, 0.0, 0.0, -310.89041362886593, 0.0]
['beep', 0.0, -3575.854429704479, 0.0, 0.0, 0.0, 0.0, -313.03618109657543, 0.0]
['beep', 0.0, -3576.524982038138, 0.0, 0.0, 0.0, 0.0, -315.36076251992733, 0.0]
['beep', 0.0, -3576.860258204968, 0.0, 0.0, 0.0, 0.0, -316.88068114288825, 0.0]
['beep', 0.0, -3577.0167204161553, 0.0, 0.0, 0.0, 0.0, -316.00896310913123, 0.0]
['beep', 0.0, -3576.927313438334, 0.0, 0.0, 0.0, 0.0, -316.9700881207095, 0.0]
['beep', 0.0, -3576.122650637943, 0.0, 0.0, 0.0, 0.0, -319.0040968661424, 0.0]
['beep', 0.0, -3577.128479138432, 0.0, 0.0, 0.0, 0.0, -319.47348349970383, 0.0]
['beep', 0.0, -3578.179011127831, 0.0, 0.0, 0.0, 0.0, -320.2781463000949, 0.0]
['beep', 0.0, -3578.447232061295, 0.0, 0.0, 0.0, 0.0, -320.23344281118426, 0.0]
['beep', 0.0, -3578.6931012503032, 0.0, 0.0, 0.0, 0.0, -319.9875736221759, 0.0]
['beep', 0.0, -3578.46958380575, 0.0, 0.0, 0.0, 0.0, -319.0935038439636, 0.0]
['beep', 0.0, -3577.7766797276354, 0.0, 0.0, 0.0, 0.0, -319.83111141098874, 0.0]
['beep', 0.0, -3577.888438449912, 0.0, 0.0, 0.0, 0.0, -321.01575386712005, 0.0]
['beep', 0.0, -3577.821383216546, 0.0, 0.0, 0.0, 0.0, -321.30632654503904, 0.0]
['beep', 0.0, -3577.240237860708, 0.0, 0.0, 0.0, 0.0, -321.61925096741334, 0.0]
['beep', 0.0, -3577.3967000718953, 0.0, 0.0, 0.0, 0.0, -319.22761431069546, 0.0]
['beep', 0.0, -3578.246066361197, 0.0, 0.0, 0.0, 0.0, -319.18291082178484, 0.0]
['beep', 0.0, -3578.5813425280267, 0.0, 0.0, 0.0, 0.0, -318.7805794215893, 0.0]
['beep', 0.0, -3577.37434832744, 0.0, 0.0, 0.0, 0.0, -319.7640561776228, 0.0]
['beep', 0.0, -3577.7543279831802, 0.0, 0.0, 0.0, 0.0, -320.94869863375413, 0.0]
['beep', 0.0, -3577.821383216546, 0.0, 0.0, 0.0, 0.0, -321.35103003394966, 0.0]
['beep', 0.0, -3577.5531622830827, 0.0, 0.0, 0.0, 0.0, -321.73100968968987, 0.0]
['beep', 0.0, -3576.9720169272446, 0.0, 0.0, 0.0, 0.0, -322.5133207456256, 0.0]
['beep', 0.0, -3577.888438449912, 0.0, 0.0, 0.0, 0.0, -323.854425412944, 0.0]
['beep', 0.0, -3576.6590925048704, 0.0, 0.0, 0.0, 0.0, -324.1226463464077, 0.0]
['beep', 0.0, -3576.189705871309, 0.0, 0.0, 0.0, 0.0, -323.69796320175686, 0.0]
['beep', 0.0, -3577.7543279831802, 0.0, 0.0, 0.0, 0.0, -324.79319868006695, 0.0]
['beep', 0.0, -3578.2684181056525, 0.0, 0.0, 0.0, 0.0, -323.65325971284625, 0.0]
['beep', 0.0, -3577.6425692609037, 0.0, 0.0, 0.0, 0.0, -322.62507946790214, 0.0]
['beep', 0.0, -3577.2625896051636, 0.0, 0.0, 0.0, 0.0, -323.1838730792848, 0.0]
['beep', 0.0, -3578.2237146167417, 0.0, 0.0, 0.0, 0.0, -325.48610275818146, 0.0]
['beep', 0.0, -3578.7154529947584, 0.0, 0.0, 0.0, 0.0, -326.3131173030278, 0.0]
['beep', 0.0, -3578.2684181056525, 0.0, 0.0, 0.0, 0.0, -323.1391695903742, 0.0]
['beep', 0.0, -3577.7766797276354, 0.0, 0.0, 0.0, 0.0, -322.62507946790214, 0.0]
['beep', 0.0, -3576.3238163380406, 0.0, 0.0, 0.0, 0.0, -323.38503877938257, 0.0]
['beep', 0.0, -3575.988540171211, 0.0, 0.0, 0.0, 0.0, -324.03323936858646, 0.0]
['beep', 0.0, -3576.9720169272446, 0.0, 0.0, 0.0, 0.0, -323.94383239076524, 0.0]
['beep', 0.0, -3577.530810538627, 0.0, 0.0, 0.0, 0.0, -323.5191492461144, 0.0]
['beep', 0.0, -3576.435575060317, 0.0, 0.0, 0.0, 0.0, -323.7873701795781, 0.0]
['beep', 0.0, -3576.0779471490323, 0.0, 0.0, 0.0, 0.0, -324.1226463464077, 0.0]
['beep', 0.0, -3576.2344093602196, 0.0, 0.0, 0.0, 0.0, -323.4967975016591, 0.0]
['beep', 0.0, -3577.597865771993, 0.0, 0.0, 0.0, 0.0, -323.27328005710604, 0.0]
['beep', 0.0, -3577.7096244942695, 0.0, 0.0, 0.0, 0.0, -323.36268703492726, 0.0]
['beep', 0.0, -3577.3072930940743, 0.0, 0.0, 0.0, 0.0, -323.63090796839094, 0.0]
['beep', 0.0, -3576.480278549228, 0.0, 0.0, 0.0, 0.0, -321.2169195672178, 0.0]
['beep', 0.0, -3576.7261477382363, 0.0, 0.0, 0.0, 0.0, -320.7698846781117, 0.0]
['beep', 0.0, -3577.1061273939763, 0.0, 0.0, 0.0, 0.0, -322.4909690011703, 0.0]
['beep', 0.0, -3576.5920372715045, 0.0, 0.0, 0.0, 0.0, -321.1722160783072, 0.0]
['beep', 0.0, -3576.189705871309, 0.0, 0.0, 0.0, 0.0, -320.94869863375413, 0.0]
['beep', 0.0, -3575.407394815373, 0.0, 0.0, 0.0, 0.0, -319.83111141098874, 0.0]
['beep', 0.0, -3575.51915353765, 0.0, 0.0, 0.0, 0.0, -320.792236422567, 0.0]
['beep', 0.0, -3576.502630293683, 0.0, 0.0, 0.0, 0.0, -322.4909690011703, 0.0]
['beep', 0.0, -3576.9049616938787, 0.0, 0.0, 0.0, 0.0, -321.2169195672178, 0.0]
['beep', 0.0, -3575.407394815373, 0.0, 0.0, 0.0, 0.0, -319.92051838880997, 0.0]
['beep', 0.0, -3575.6756157488367, 0.0, 0.0, 0.0, 0.0, -321.06045735603067, 0.0]
['beep', 0.0, -3576.122650637943, 0.0, 0.0, 0.0, 0.0, -322.8038934235446, 0.0]
['beep', 0.0, -3576.3461680824958, 0.0, 0.0, 0.0, 0.0, -322.8709486569105, 0.0]
['beep', 0.0, -3576.3014645935855, 0.0, 0.0, 0.0, 0.0, -323.02741086809766, 0.0]
['beep', 0.0, -3576.6590925048704, 0.0, 0.0, 0.0, 0.0, -322.4015620233491, 0.0]
['beep', 0.0, -3576.2567611046748, 0.0, 0.0, 0.0, 0.0, -322.28980330107254, 0.0]
['beep', 0.0, -3576.7484994826914, 0.0, 0.0, 0.0, 0.0, -321.4851405006815, 0.0]
['beep', 0.0, -3578.0001971721886, 0.0, 0.0, 0.0, 0.0, -322.7815416790893, 0.0]
['beep', 0.0, -3577.575514027538, 0.0, 0.0, 0.0, 0.0, -322.02158236760886, 0.0]
['beep', 0.0, -3576.3014645935855, 0.0, 0.0, 0.0, 0.0, -320.94869863375413, 0.0]
['beep', 0.0, -3576.5920372715045, 0.0, 0.0, 0.0, 0.0, -321.99923062315355, 0.0]
['beep', 0.0, -3576.9720169272446, 0.0, 0.0, 0.0, 0.0, -321.9098236453323, 0.0]
['beep', 0.0, -3578.156659383376, 0.0, 0.0, 0.0, 0.0, -322.1333410898854, 0.0]
['beep', 0.0, -3578.6483977613925, 0.0, 0.0, 0.0, 0.0, -321.8427684119664, 0.0]
['beep', 0.0, -3578.46958380575, 0.0, 0.0, 0.0, 0.0, -322.5580242345362, 0.0]
['beep', 0.0, -3577.597865771993, 0.0, 0.0, 0.0, 0.0, -322.98270737918705, 0.0]
['beep', 0.0, -3578.1343076389203, 0.0, 0.0, 0.0, 0.0, -322.5133207456256, 0.0]
['beep', 0.0, -3579.0730809060433, 0.0, 0.0, 0.0, 0.0, -321.9098236453323, 0.0]
['beep', 0.0, -3579.2295431172306, 0.0, 0.0, 0.0, 0.0, -322.33450678998315, 0.0]
['beep', 0.0, -3578.380176827929, 0.0, 0.0, 0.0, 0.0, -322.62507946790214, 0.0]
['beep', 0.0, -3578.603694272482, 0.0, 0.0, 0.0, 0.0, -321.59689922295803, 0.0]
['beep', 0.0, -3578.3354733390183, 0.0, 0.0, 0.0, 0.0, -320.5910707224692, 0.0]
['beep', 0.0, -3579.2295431172306, 0.0, 0.0, 0.0, 0.0, -322.1333410898854, 0.0]
['beep', 0.0, -3579.8777437064346, 0.0, 0.0, 0.0, 0.0, -322.2227480677066, 0.0]
['beep', 0.0, -3580.213019873264, 0.0, 0.0, 0.0, 0.0, -321.4627887562262, 0.0]
['beep', 0.0, -3580.28007510663, 0.0, 0.0, 0.0, 0.0, -321.1722160783072, 0.0]
['beep', 0.0, -3580.8165169735576, 0.0, 0.0, 0.0, 0.0, -322.2450998121619, 0.0]
['beep', 0.0, -3580.436537317817, 0.0, 0.0, 0.0, 0.0, -322.8485969124552, 0.0]
['beep', 0.0, -3579.6765780063365, 0.0, 0.0, 0.0, 0.0, -321.01575386712005, 0.0]
['beep', 0.0, -3578.894266950401, 0.0, 0.0, 0.0, 0.0, -320.7698846781117, 0.0]
['beep', 0.0, -3578.491935550205, 0.0, 0.0, 0.0, 0.0, -320.0546288555418, 0.0]
['beep', 0.0, -3578.9613221837667, 0.0, 0.0, 0.0, 0.0, -320.0993323444524, 0.0]
['beep', 0.0, -3580.213019873264, 0.0, 0.0, 0.0, 0.0, -320.94869863375413, 0.0]
['beep', 0.0, -3579.7212814952472, 0.0, 0.0, 0.0, 0.0, -321.35103003394966, 0.0]
['beep', 0.0, -3579.6095227729706, 0.0, 0.0, 0.0, 0.0, -321.8427684119664, 0.0]
['beep', 0.0, -3581.151793140387, 0.0, 0.0, 0.0, 0.0, -321.37338177840496, 0.0]
['beep', 0.0, -3579.8777437064346, 0.0, 0.0, 0.0, 0.0, -320.5687189780139, 0.0]
['beep', 0.0, -3580.6600547623702, 0.0, 0.0, 0.0, 0.0, -320.4122567668267, 0.0]
['beep', 0.0, -3580.7494617401912, 0.0, 0.0, 0.0, 0.0, -319.1158555884189, 0.0]
['beep', 0.0, -3579.2071913727755, 0.0, 0.0, 0.0, 0.0, -319.13820733287423, 0.0]
['beep', 0.0, -3579.2295431172306, 0.0, 0.0, 0.0, 0.0, -319.22761431069546, 0.0]
['beep', 0.0, -3578.7825082281242, 0.0, 0.0, 0.0, 0.0, -317.9759166211983, 0.0]
['beep', 0.0, -3577.7766797276354, 0.0, 0.0, 0.0, 0.0, -319.49583524415914, 0.0]
['beep', 0.0, -3578.179011127831, 0.0, 0.0, 0.0, 0.0, -318.91468988832116, 0.0]
['beep', 0.0, -3576.7484994826914, 0.0, 0.0, 0.0, 0.0, -319.0264486105977, 0.0]
['beep', 0.0, -3577.3296448385295, 0.0, 0.0, 0.0, 0.0, -318.0206201101089, 0.0]
['beep', 0.0, -3578.827211717035, 0.0, 0.0, 0.0, 0.0, -316.6795154427905, 0.0]
['beep', 0.0, -3578.2684181056525, 0.0, 0.0, 0.0, 0.0, -318.22178581020665, 0.0]
['beep', 0.0, -3578.7154529947584, 0.0, 0.0, 0.0, 0.0, -318.7135241882234, 0.0]
['beep', 0.0, -3578.0001971721886, 0.0, 0.0, 0.0, 0.0, -318.86998639941055, 0.0]
['beep', 0.0, -3577.217886116253, 0.0, 0.0, 0.0, 0.0, -316.85832939843294, 0.0]
['beep', 0.0, -3576.5920372715045, 0.0, 0.0, 0.0, 0.0, -315.76309392012286, 0.0]
['beep', 0.0, -3574.915656437356, 0.0, 0.0, 0.0, 0.0, -315.47252124220387, 0.0]
['beep', 0.0, -3580.5259442956385, 0.0, 0.0, 0.0, 0.0, -314.8466723974553, 0.0]
['beep', 0.0, -3584.795127486602, 0.0, 0.0, 0.0, 0.0, -315.07018984200835, 0.0]
['beep', 0.0, -3588.1031856659874, 0.0, 0.0, 0.0, 0.0, -314.9584311197318, 0.0]
['beep', 0.0, -3588.28199962163, 0.0, 0.0, 0.0, 0.0, -312.70090492974583, 0.0]
['beep', 0.0, -3587.253819376686, 0.0, 0.0, 0.0, 0.0, -312.32092527400556, 0.0]
['beep', 0.0, -3587.1644123988644, 0.0, 0.0, 0.0, 0.0, -312.4103322518268, 0.0]
['beep', 0.0, -3587.0079501876776, 0.0, 0.0, 0.0, 0.0, -311.67272468480166, 0.0]
['beep', 0.0, -3587.5220403101494, 0.0, 0.0, 0.0, 0.0, -312.1868148072737, 0.0]
['beep', 0.0, -3588.28199962163, 0.0, 0.0, 0.0, 0.0, -312.857367140933, 0.0]
['beep', 0.0, -3588.952551955289, 0.0, 0.0, 0.0, 0.0, -312.1644630628184, 0.0]
['beep', 0.0, -3587.834964732524, 0.0, 0.0, 0.0, 0.0, -312.1644630628184, 0.0]
['beep', 0.0, -3587.3208746100518, 0.0, 0.0, 0.0, 0.0, -311.56096596252513, 0.0]
['beep', 0.0, -3585.8009559870907, 0.0, 0.0, 0.0, 0.0, -310.7563031621341, 0.0]
['beep', 0.0, -3586.4938600652054, 0.0, 0.0, 0.0, 0.0, -311.5162624736145, 0.0]
['beep', 0.0, -3586.605618787482, 0.0, 0.0, 0.0, 0.0, -311.5162624736145, 0.0]
['beep', 0.0, -3586.8738397209454, 0.0, 0.0, 0.0, 0.0, -309.5046054726369, 0.0]
['beep', 0.0, -3585.957418198278, 0.0, 0.0, 0.0, 0.0, -309.1693293058073, 0.0]
['beep', 0.0, -3585.1974588867974, 0.0, 0.0, 0.0, 0.0, -308.8340531389777, 0.0]
['beep', 0.0, -3585.8009559870907, 0.0, 0.0, 0.0, 0.0, -309.7728264061006, 0.0]
['beep', 0.0, -3587.7902612436133, 0.0, 0.0, 0.0, 0.0, -310.0857508284749, 0.0]
['beep', 0.0, -3588.3267031105406, 0.0, 0.0, 0.0, 0.0, -307.89527987185477, 0.0]
['beep', 0.0, -3587.052653676588, 0.0, 0.0, 0.0, 0.0, -306.7329891601788, 0.0]
['beep', 0.0, -3587.7455577547025, 0.0, 0.0, 0.0, 0.0, -308.7893496500671, 0.0]
['beep', 0.0, -3588.527868810638, 0.0, 0.0, 0.0, 0.0, -307.9399833607654, 0.0]
['beep', 0.0, -3589.0419589331104, 0.0, 0.0, 0.0, 0.0, -306.2636025266174, 0.0]
['beep', 0.0, -3589.444290333306, 0.0, 0.0, 0.0, 0.0, -305.90597461533247, 0.0]
['beep', 0.0, -3589.220772888753, 0.0, 0.0, 0.0, 0.0, -306.48711997117044, 0.0]
['beep', 0.0, -3588.7513862551914, 0.0, 0.0, 0.0, 0.0, -306.308306015528, 0.0]
['beep', 0.0, -3588.2596478771748, 0.0, 0.0, 0.0, 0.0, -307.3811897493827, 0.0]
['beep', 0.0, -3589.019607188655, 0.0, 0.0, 0.0, 0.0, -307.3141345160168, 0.0]
['beep', 0.0, -3588.952551955289, 0.0, 0.0, 0.0, 0.0, -306.48711997117044, 0.0]
['beep', 0.0, -3588.2596478771748, 0.0, 0.0, 0.0, 0.0, -304.43075948128217, 0.0]
['beep', 0.0, -3587.9467234548, 0.0, 0.0, 0.0, 0.0, -304.2519455256397, 0.0]
['beep', 0.0, -3588.28199962163, 0.0, 0.0, 0.0, 0.0, -305.4142362373157, 0.0]
['beep', 0.0, -3588.930200210834, 0.0, 0.0, 0.0, 0.0, -304.81073913702244, 0.0]
['beep', 0.0, -3589.667807777859, 0.0, 0.0, 0.0, 0.0, -305.2801257705839, 0.0]
['beep', 0.0, -3589.176069399842, 0.0, 0.0, 0.0, 0.0, -304.2072420367291, 0.0]
['beep', 0.0, -3589.1090141664763, 0.0, 0.0, 0.0, 0.0, -303.5590414475252, 0.0]
['beep', 0.0, -3588.3267031105406, 0.0, 0.0, 0.0, 0.0, -304.2295937811844, 0.0]
['beep', 0.0, -3589.891325222412, 0.0, 0.0, 0.0, 0.0, -304.05077982554195, 0.0]
['beep', 0.0, -3590.47247057825, 0.0, 0.0, 0.0, 0.0, -303.42493098079336, 0.0]
['beep', 0.0, -3589.667807777859, 0.0, 0.0, 0.0, 0.0, -302.597916435947, 0.0]
['beep', 0.0, -3589.3325316110295, 0.0, 0.0, 0.0, 0.0, -303.40257923633806, 0.0]
['beep', 0.0, -3589.913676966867, 0.0, 0.0, 0.0, 0.0, -302.9555443472319, 0.0]
['beep', 0.0, -3590.8748019784457, 0.0, 0.0, 0.0, 0.0, -302.4638059692152, 0.0]
['beep', 0.0, -3589.176069399842, 0.0, 0.0, 0.0, 0.0, -302.75437864713416, 0.0]
['beep', 0.0, -3588.192592643809, 0.0, 0.0, 0.0, 0.0, -302.06147456901965, 0.0]
['beep', 0.0, -3588.237296132719, 0.0, 0.0, 0.0, 0.0, -301.5473844465476, 0.0]
['beep', 0.0, -3589.1090141664763, 0.0, 0.0, 0.0, 0.0, -301.12270130189677, 0.0]
['beep', 0.0, -3588.639627532915, 0.0, 0.0, 0.0, 0.0, -300.69801815724594, 0.0]
['beep', 0.0, -3590.4277670893393, 0.0, 0.0, 0.0, 0.0, -300.8097768795225, 0.0]
['beep', 0.0, -3589.6901595223144, 0.0, 0.0, 0.0, 0.0, -300.049817568042, 0.0]
['beep', 0.0, -3588.885496721923, 0.0, 0.0, 0.0, 0.0, -300.1168728014079, 0.0]
['beep', 0.0, -3590.271304878152, 0.0, 0.0, 0.0, 0.0, -301.36857049090514, 0.0]
['beep', 0.0, -3590.80774674508, 0.0, 0.0, 0.0, 0.0, -301.6144396799135, 0.0]
['beep', 0.0, -3591.411243845373, 0.0, 0.0, 0.0, 0.0, -300.9885908351649, 0.0]
['beep', 0.0, -3591.3665403564623, 0.0, 0.0, 0.0, 0.0, -301.01094257962023, 0.0]
['beep', 0.0, -3591.1653746563647, 0.0, 0.0, 0.0, 0.0, -301.32386700199453, 0.0]
['beep', 0.0, -3590.7183397672584, 0.0, 0.0, 0.0, 0.0, -300.72036990170125, 0.0]
['beep', 0.0, -3590.6289327894374, 0.0, 0.0, 0.0, 0.0, -301.1450530463521, 0.0]
['beep', 0.0, -3590.9865607007223, 0.0, 0.0, 0.0, 0.0, -301.43562572427106, 0.0]
['beep', 0.0, -3591.6571130343814, 0.0, 0.0, 0.0, 0.0, -301.79325363555597, 0.0]
['beep', 0.0, -3591.7241682677472, 0.0, 0.0, 0.0, 0.0, -300.5415559460588, 0.0]
['beep', 0.0, -3592.9088107238786, 0.0, 0.0, 0.0, 0.0, -300.6533146683353, 0.0]
['beep', 0.0, -3592.573534557049, 0.0, 0.0, 0.0, 0.0, -301.68149491327944, 0.0]
['beep', 0.0, -3592.573534557049, 0.0, 0.0, 0.0, 0.0, -301.5920879354582, 0.0]
['beep', 0.0, -3591.835926990024, 0.0, 0.0, 0.0, 0.0, -300.72036990170125, 0.0]
['beep', 0.0, -3591.6794647788365, 0.0, 0.0, 0.0, 0.0, -299.22280302319564, 0.0]
['beep', 0.0, -3591.835926990024, 0.0, 0.0, 0.0, 0.0, -298.0158088226091, 0.0]
['beep', 0.0, -3592.3947206014063, 0.0, 0.0, 0.0, 0.0, -298.4404919672599, 0.0]
['beep', 0.0, -3593.1993834017976, 0.0, 0.0, 0.0, 0.0, -298.64165766735766, 0.0]
['beep', 0.0, -3592.729996768236, 0.0, 0.0, 0.0, 0.0, -297.8593466114219, 0.0]
['beep', 0.0, -3592.0370926901214, 0.0, 0.0, 0.0, 0.0, -298.66400941181297, 0.0]
['beep', 0.0, -3591.9700374567556, 0.0, 0.0, 0.0, 0.0, -297.99345707815377, 0.0]
['beep', 0.0, -3591.7241682677472, 0.0, 0.0, 0.0, 0.0, -297.501718700137, 0.0]
['beep', 0.0, -3590.606581044982, 0.0, 0.0, 0.0, 0.0, -297.59112567795825, 0.0]
['beep', 0.0, -3588.66197927737, 0.0, 0.0, 0.0, 0.0, -297.1887942777627, 0.0]
['beep', 0.0, -3586.2926943651078, 0.0, 0.0, 0.0, 0.0, -297.0770355554862, 0.0]
['beep', 0.0, -3584.705720508781, 0.0, 0.0, 0.0, 0.0, -295.6241721658912, 0.0]
['beep', 0.0, -3585.4656798202614, 0.0, 0.0, 0.0, 0.0, -294.48423319867055, 0.0]
['beep', 0.0, -3586.3821013429288, 0.0, 0.0, 0.0, 0.0, -294.41717796530463, 0.0]
['beep', 0.0, -3588.0584821770767, 0.0, 0.0, 0.0, 0.0, -293.0537215535309, 0.0]
['beep', 0.0, -3589.220772888753, 0.0, 0.0, 0.0, 0.0, -293.7242738871901, 0.0]
['beep', 0.0, -3590.539525811616, 0.0, 0.0, 0.0, 0.0, -295.9594483327208, 0.0]
['beep', 0.0, -3592.461775834772, 0.0, 0.0, 0.0, 0.0, -297.0770355554862, 0.0]
['beep', 0.0, -3592.3500171124956, 0.0, 0.0, 0.0, 0.0, -296.16061403281856, 0.0]
['beep', 0.0, -3592.171203156853, 0.0, 0.0, 0.0, 0.0, -295.6241721658912, 0.0]
['beep', 0.0, -3591.2994851230965, 0.0, 0.0, 0.0, 0.0, -295.0653785545085, 0.0]
['beep', 0.0, -3591.634761289926, 0.0, 0.0, 0.0, 0.0, -295.6465239103465, 0.0]
['beep', 0.0, -3591.7241682677472, 0.0, 0.0, 0.0, 0.0, -297.0993872999415, 0.0]
['beep', 0.0, -3591.6571130343814, 0.0, 0.0, 0.0, 0.0, -296.58529717746944, 0.0]
['beep', 0.0, -3590.830098489535, 0.0, 0.0, 0.0, 0.0, -295.6912273992571, 0.0]
['beep', 0.0, -3590.6289327894374, 0.0, 0.0, 0.0, 0.0, -294.5736401764918, 0.0]
['beep', 0.0, -3591.634761289926, 0.0, 0.0, 0.0, 0.0, -294.08190179847503, 0.0]
['beep', 0.0, -3592.573534557049, 0.0, 0.0, 0.0, 0.0, -295.46770995470405, 0.0]
['beep', 0.0, -3592.774700257147, 0.0, 0.0, 0.0, 0.0, -294.75245413213423, 0.0]
['beep', 0.0, -3592.372368856951, 0.0, 0.0, 0.0, 0.0, -293.0537215535309, 0.0]
['beep', 0.0, -3592.5958863015044, 0.0, 0.0, 0.0, 0.0, -292.9643145757097, 0.0]
['beep', 0.0, -3593.154679912887, 0.0, 0.0, 0.0, 0.0, -292.986666320165, 0.0]
['beep', 0.0, -3592.0370926901214, 0.0, 0.0, 0.0, 0.0, -293.4113494648158, 0.0]
['beep', 0.0, -3592.506479323683, 0.0, 0.0, 0.0, 0.0, -294.12660528738564, 0.0]
['beep', 0.0, -3591.9923892012107, 0.0, 0.0, 0.0, 0.0, -293.0090180646203, 0.0]
['beep', 0.0, -3592.215906645764, 0.0, 0.0, 0.0, 0.0, -292.38316921987166, 0.0]
['beep', 0.0, -3593.512307824172, 0.0, 0.0, 0.0, 0.0, -292.85255585343316, 0.0]
['beep', 0.0, -3592.864107234968, 0.0, 0.0, 0.0, 0.0, -293.50075644263705, 0.0]
['beep', 0.0, -3593.3558456129845, 0.0, 0.0, 0.0, 0.0, -293.2325355091734, 0.0]
['beep', 0.0, -3590.80774674508, 0.0, 0.0, 0.0, 0.0, -291.1538232748298, 0.0]
['beep', 0.0, -3590.85245023399, 0.0, 0.0, 0.0, 0.0, -290.70678838572366, 0.0]
['beep', 0.0, -3592.059444434577, 0.0, 0.0, 0.0, 0.0, -291.98083781967614, 0.0]
['beep', 0.0, -3592.9088107238786, 0.0, 0.0, 0.0, 0.0, -292.5619831755141, 0.0]
['beep', 0.0, -3593.311142124074, 0.0, 0.0, 0.0, 0.0, -293.2995907425393, 0.0]
['beep', 0.0, -3592.6629415348702, 0.0, 0.0, 0.0, 0.0, -294.9759715766873, 0.0]
['beep', 0.0, -3591.433595589828, 0.0, 0.0, 0.0, 0.0, -293.81368086501135, 0.0]
['beep', 0.0, -3591.2994851230965, 0.0, 0.0, 0.0, 0.0, -293.50075644263705, 0.0]
['beep', 0.0, -3592.5958863015044, 0.0, 0.0, 0.0, 0.0, -294.0148465651091, 0.0]
['beep', 0.0, -3592.461775834772, 0.0, 0.0, 0.0, 0.0, -294.3501227319387, 0.0]
['beep', 0.0, -3591.120671167454, 0.0, 0.0, 0.0, 0.0, -293.6348669093689, 0.0]
['beep', 0.0, -3591.4559473342833, 0.0, 0.0, 0.0, 0.0, -292.8972593423438, 0.0]
['beep', 0.0, -3591.2547816341857, 0.0, 0.0, 0.0, 0.0, -294.17130877629626, 0.0]
['beep', 0.0, -3593.467604335261, 0.0, 0.0, 0.0, 0.0, -292.6513901533354, 0.0]
['beep', 0.0, -3593.020569446155, 0.0, 0.0, 0.0, 0.0, -291.8914308418549, 0.0]
['beep', 0.0, -3592.171203156853, 0.0, 0.0, 0.0, 0.0, -292.7184453867013, 0.0]
['beep', 0.0, -3592.1041479234873, 0.0, 0.0, 0.0, 0.0, -293.18783202026276, 0.0]
['beep', 0.0, -3592.797052001602, 0.0, 0.0, 0.0, 0.0, -292.1820035197739, 0.0]
['beep', 0.0, -3593.735825268725, 0.0, 0.0, 0.0, 0.0, -291.98083781967614, 0.0]
['beep', 0.0, -3593.020569446155, 0.0, 0.0, 0.0, 0.0, -291.5561546750253, 0.0]
['beep', 0.0, -3591.8806304789346, 0.0, 0.0, 0.0, 0.0, -291.39969246383816, 0.0]
['beep', 0.0, -3591.9029822233897, 0.0, 0.0, 0.0, 0.0, -292.36081747541635, 0.0]
['beep', 0.0, -3591.120671167454, 0.0, 0.0, 0.0, 0.0, -290.9303058302767, 0.0]
['beep', 0.0, -3592.864107234968, 0.0, 0.0, 0.0, 0.0, -290.6173814079024, 0.0]
['beep', 0.0, -3592.3500171124956, 0.0, 0.0, 0.0, 0.0, -289.8797738408773, 0.0]
['beep', 0.0, -3591.6124095454707, 0.0, 0.0, 0.0, 0.0, -289.34333197394994, 0.0]
['beep', 0.0, -3591.6571130343814, 0.0, 0.0, 0.0, 0.0, -289.9468290742432, 0.0]
['beep', 0.0, -3592.2829618791297, 0.0, 0.0, 0.0, 0.0, -291.4890994416594, 0.0]
['beep', 0.0, -3593.400549101895, 0.0, 0.0, 0.0, 0.0, -291.2208785081957, 0.0]
['beep', 0.0, -3593.445252590806, 0.0, 0.0, 0.0, 0.0, -291.1538232748298, 0.0]
['beep', 0.0, -3592.1935549013087, 0.0, 0.0, 0.0, 0.0, -289.4774424406818, 0.0]
['beep', 0.0, -3592.372368856951, 0.0, 0.0, 0.0, 0.0, -288.8515935959332, 0.0]
['beep', 0.0, -3593.2664386351635, 0.0, 0.0, 0.0, 0.0, -289.09746278494157, 0.0]
['beep', 0.0, -3594.3616741134733, 0.0, 0.0, 0.0, 0.0, -289.857422096422, 0.0]
['beep', 0.0, -3595.4569095917836, 0.0, 0.0, 0.0, 0.0, -287.9798755621762, 0.0]
['beep', 0.0, -3594.8757642359456, 0.0, 0.0, 0.0, 0.0, -286.7952331060449, 0.0]
['beep', 0.0, -3592.729996768236, 0.0, 0.0, 0.0, 0.0, -285.8117563500114, 0.0]
['beep', 0.0, -3592.417072345862, 0.0, 0.0, 0.0, 0.0, -286.86228833941084, 0.0]
['beep', 0.0, -3593.0429211906103, 0.0, 0.0, 0.0, 0.0, -287.3540267174276, 0.0]
['beep', 0.0, -3593.601714801993, 0.0, 0.0, 0.0, 0.0, -285.6552941388243, 0.0]
['beep', 0.0, -3593.5793630575376, 0.0, 0.0, 0.0, 0.0, -285.34236971645, 0.0]
['beep', 0.0, -3592.9088107238786, 0.0, 0.0, 0.0, 0.0, -284.5600586605142, 0.0]
['beep', 0.0, -3593.534659568627, 0.0, 0.0, 0.0, 0.0, -285.92351507228796, 0.0]
['beep', 0.0, -3594.987522958222, 0.0, 0.0, 0.0, 0.0, -285.92351507228796, 0.0]
['beep', 0.0, -3594.5851915580265, 0.0, 0.0, 0.0, 0.0, -285.4317766942712, 0.0]
['beep', 0.0, -3593.601714801993, 0.0, 0.0, 0.0, 0.0, -284.7165208717014, 0.0]
['beep', 0.0, -3594.182860157831, 0.0, 0.0, 0.0, 0.0, -284.47065168269296, 0.0]
['beep', 0.0, -3594.2275636467416, 0.0, 0.0, 0.0, 0.0, -283.77774760457845, 0.0]
['beep', 0.0, -3595.8368892475237, 0.0, 0.0, 0.0, 0.0, -282.72721561517903, 0.0]
['beep', 0.0, -3596.306275881085, 0.0, 0.0, 0.0, 0.0, -282.05666328151983, 0.0]
['beep', 0.0, -3595.479261336239, 0.0, 0.0, 0.0, 0.0, -282.7048638707237, 0.0]
['beep', 0.0, -3595.076929936043, 0.0, 0.0, 0.0, 0.0, -283.2413057376511, 0.0]
['beep', 0.0, -3595.054578191588, 0.0, 0.0, 0.0, 0.0, -283.06249178200864, 0.0]
['beep', 0.0, -3595.7474822697027, 0.0, 0.0, 0.0, 0.0, -282.77191910408965, 0.0]
['beep', 0.0, -3596.7756625146467, 0.0, 0.0, 0.0, 0.0, -283.017788293098, 0.0]
['beep', 0.0, -3595.9486479698003, 0.0, 0.0, 0.0, 0.0, -283.2636574821064, 0.0]
['beep', 0.0, -3595.479261336239, 0.0, 0.0, 0.0, 0.0, -282.8836778263662, 0.0]
['beep', 0.0, -3596.1945171588086, 0.0, 0.0, 0.0, 0.0, -281.9672563036986, 0.0]
['beep', 0.0, -3597.37915961494, 0.0, 0.0, 0.0, 0.0, -283.017788293098, 0.0]
['beep', 0.0, -3598.049711948599, 0.0, 0.0, 0.0, 0.0, -283.5542301600254, 0.0]
['beep', 0.0, -3597.5803253150375, 0.0, 0.0, 0.0, 0.0, -283.39776794883824, 0.0]
['beep', 0.0, -3598.4296916043395, 0.0, 0.0, 0.0, 0.0, -282.77191910408965, 0.0]
['beep', 0.0, -3598.921429982356, 0.0, 0.0, 0.0, 0.0, -282.1907737482517, 0.0]
['beep', 0.0, -3599.5249270826494, 0.0, 0.0, 0.0, 0.0, -283.15189875982986, 0.0]
['beep', 0.0, -3599.659037549381, 0.0, 0.0, 0.0, 0.0, -281.2072969922182, 0.0]
['beep', 0.0, -3599.994313716211, 0.0, 0.0, 0.0, 0.0, -281.2296487366735, 0.0]
['beep', 0.0, -3600.3966451164065, 0.0, 0.0, 0.0, 0.0, -281.6766836257796, 0.0]
['beep', 0.0, -3601.223659661253, 0.0, 0.0, 0.0, 0.0, -282.05666328151983, 0.0]
['beep', 0.0, -3601.961267228278, 0.0, 0.0, 0.0, 0.0, -282.9507330597321, 0.0]
['beep', 0.0, -3602.2965433951076, 0.0, 0.0, 0.0, 0.0, -282.9507330597321, 0.0]
['beep', 0.0, -3601.894211994912, 0.0, 0.0, 0.0, 0.0, -282.0343115370645, 0.0]
['beep', 0.0, -3601.4024736168953, 0.0, 0.0, 0.0, 0.0, -282.39193944834943, 0.0]
['beep', 0.0, -3600.3519416274958, 0.0, 0.0, 0.0, 0.0, -281.78844234805615, 0.0]
['beep', 0.0, -3601.246011405708, 0.0, 0.0, 0.0, 0.0, -281.050834781031, 0.0]
['beep', 0.0, -3601.4024736168953, 0.0, 0.0, 0.0, 0.0, -281.631980136869, 0.0]
['beep', 0.0, -3600.6872177943255, 0.0, 0.0, 0.0, 0.0, -281.09553826994164, 0.0]
['beep', 0.0, -3600.5531073275934, 0.0, 0.0, 0.0, 0.0, -280.6485033808355, 0.0]
['beep', 0.0, -3600.620162560959, 0.0, 0.0, 0.0, 0.0, -281.050834781031, 0.0]
['beep', 0.0, -3601.0001422166997, 0.0, 0.0, 0.0, 0.0, -281.85549758142207, 0.0]
['beep', 0.0, -3601.9389154838227, 0.0, 0.0, 0.0, 0.0, -280.6932068697461, 0.0]
['beep', 0.0, -3600.866031749968, 0.0, 0.0, 0.0, 0.0, -280.6708551252908, 0.0]
['beep', 0.0, -3600.3519416274958, 0.0, 0.0, 0.0, 0.0, -280.0673580249975, 0.0]
['beep', 0.0, -3600.28488639413, 0.0, 0.0, 0.0, 0.0, -279.2403434801511, 0.0]
['beep', 0.0, -3601.8495085060013, 0.0, 0.0, 0.0, 0.0, -279.66502662480195, 0.0]
['beep', 0.0, -3602.0283224616437, 0.0, 0.0, 0.0, 0.0, -280.8720208253886, 0.0]
['beep', 0.0, -3601.223659661253, 0.0, 0.0, 0.0, 0.0, -281.43081443677124, 0.0]
['beep', 0.0, -3601.0671974500656, 0.0, 0.0, 0.0, 0.0, -278.7486051021344, 0.0]
['beep', 0.0, -3600.1954794163084, 0.0, 0.0, 0.0, 0.0, -278.0780527684752, 0.0]
['beep', 0.0, -3601.916563739367, 0.0, 0.0, 0.0, 0.0, -278.8380120799556, 0.0]
['beep', 0.0, -3602.698874795303, 0.0, 0.0, 0.0, 0.0, -279.70973011371257, 0.0]
['beep', 0.0, -3602.050674206099, 0.0, 0.0, 0.0, 0.0, -280.5143929141036, 0.0]
['beep', 0.0, -3601.558935828082, 0.0, 0.0, 0.0, 0.0, -280.31322721400585, 0.0]
['beep', 0.0, -3601.693046294814, 0.0, 0.0, 0.0, 0.0, -280.60379989192484, 0.0]
['beep', 0.0, -3601.3801218724398, 0.0, 0.0, 0.0, 0.0, -280.84966908093327, 0.0]
['beep', 0.0, -3601.178956172342, 0.0, 0.0, 0.0, 0.0, -279.59797139143603, 0.0]
['beep', 0.0, -3599.6813892938367, 0.0, 0.0, 0.0, 0.0, -278.94977080223214, 0.0]
['beep', 0.0, -3598.921429982356, 0.0, 0.0, 0.0, 0.0, -279.26269522460643, 0.0]
['beep', 0.0, -3600.016665460666, 0.0, 0.0, 0.0, 0.0, -279.2403434801511, 0.0]
['beep', 0.0, -3599.8825549939343, 0.0, 0.0, 0.0, 0.0, -279.26269522460643, 0.0]
['beep', 0.0, -3600.217831160764, 0.0, 0.0, 0.0, 0.0, -278.793308591045, 0.0]
['beep', 0.0, -3600.1731276718533, 0.0, 0.0, 0.0, 0.0, -279.2403434801511, 0.0]
['beep', 0.0, -3599.994313716211, 0.0, 0.0, 0.0, 0.0, -278.7486051021344, 0.0]
['beep', 0.0, -3599.4355201048284, 0.0, 0.0, 0.0, 0.0, -278.8827155688662, 0.0]
['beep', 0.0, -3601.1119009389763, 0.0, 0.0, 0.0, 0.0, -278.4133289353048, 0.0]
['beep', 0.0, -3601.335418383529, 0.0, 0.0, 0.0, 0.0, -276.9157620567992, 0.0]
['beep', 0.0, -3600.5531073275934, 0.0, 0.0, 0.0, 0.0, -277.4745556681819, 0.0]
['beep', 0.0, -3600.3966451164065, 0.0, 0.0, 0.0, 0.0, -277.96629404619864, 0.0]
['beep', 0.0, -3600.0390172051216, 0.0, 0.0, 0.0, 0.0, -278.5250876575813, 0.0]
['beep', 0.0, -3601.246011405708, 0.0, 0.0, 0.0, 0.0, -278.99447429114275, 0.0]
['beep', 0.0, -3601.581287572538, 0.0, 0.0, 0.0, 0.0, -279.1062330134193, 0.0]
['beep', 0.0, -3600.3519416274958, 0.0, 0.0, 0.0, 0.0, -278.32392195748355, 0.0]
['beep', 0.0, -3600.66486604987, 0.0, 0.0, 0.0, 0.0, -277.5863143904584, 0.0]
['beep', 0.0, -3602.0730259505544, 0.0, 0.0, 0.0, 0.0, -278.7709568465897, 0.0]
['beep', 0.0, -3602.0730259505544, 0.0, 0.0, 0.0, 0.0, -278.8603638244109, 0.0]
['beep', 0.0, -3602.117729439465, 0.0, 0.0, 0.0, 0.0, -277.8098318350115, 0.0]
['beep', 0.0, -3602.47535735075, 0.0, 0.0, 0.0, 0.0, -276.98281729016514, 0.0]
['beep', 0.0, -3601.4918805947163, 0.0, 0.0, 0.0, 0.0, -277.36279694590536, 0.0]
['beep', 0.0, -3603.123557939954, 0.0, 0.0, 0.0, 0.0, -278.8827155688662, 0.0]
['beep', 0.0, -3603.7047032957917, 0.0, 0.0, 0.0, 0.0, -278.8603638244109, 0.0]
['beep', 0.0, -3604.084682951532, 0.0, 0.0, 0.0, 0.0, -278.0780527684752, 0.0]
['beep', 0.0, -3604.6881800518254, 0.0, 0.0, 0.0, 0.0, -277.8321835794668, 0.0]
['beep', 0.0, -3604.4199591183615, 0.0, 0.0, 0.0, 0.0, -279.1956399912405, 0.0]
['beep', 0.0, -3603.3917788734175, 0.0, 0.0, 0.0, 0.0, -279.4191574357936, 0.0]
['beep', 0.0, -3603.23531666223, 0.0, 0.0, 0.0, 0.0, -279.083881268964, 0.0]
['beep', 0.0, -3603.3694271289623, 0.0, 0.0, 0.0, 0.0, -279.1956399912405, 0.0]
['beep', 0.0, -3602.922392239856, 0.0, 0.0, 0.0, 0.0, -277.96629404619864, 0.0]
['beep', 0.0, -3602.989447473222, 0.0, 0.0, 0.0, 0.0, -278.4356806797601, 0.0]
['beep', 0.0, -3603.123557939954, 0.0, 0.0, 0.0, 0.0, -277.8768870683774, 0.0]
['beep', 0.0, -3604.1293864404424, 0.0, 0.0, 0.0, 0.0, -278.8603638244109, 0.0]
['beep', 0.0, -3604.576421329549, 0.0, 0.0, 0.0, 0.0, -278.34627370193886, 0.0]
['beep', 0.0, -3603.838813762524, 0.0, 0.0, 0.0, 0.0, -277.7651283461009, 0.0]
['beep', 0.0, -3604.308200396085, 0.0, 0.0, 0.0, 0.0, -278.1451080018411, 0.0]
['beep', 0.0, -3605.604601574493, 0.0, 0.0, 0.0, 0.0, -278.4803841686707, 0.0]
['beep', 0.0, -3606.0292847191436, 0.0, 0.0, 0.0, 0.0, -278.01099753510925, 0.0]
['beep', 0.0, -3606.3198573970626, 0.0, 0.0, 0.0, 0.0, -276.51343065660365, 0.0]
['beep', 0.0, -3606.185746930331, 0.0, 0.0, 0.0, 0.0, -277.31809345699475, 0.0]
['beep', 0.0, -3605.1352149409313, 0.0, 0.0, 0.0, 0.0, -278.212163235207, 0.0]
['beep', 0.0, -3605.3140288965737, 0.0, 0.0, 0.0, 0.0, -277.98864579065395, 0.0]
['beep', 0.0, -3606.0292847191436, 0.0, 0.0, 0.0, 0.0, -276.96046554570984, 0.0]
['beep', 0.0, -3605.515194596672, 0.0, 0.0, 0.0, 0.0, -276.9157620567992, 0.0]
['beep', 0.0, -3605.3363806410293, 0.0, 0.0, 0.0, 0.0, -277.07222426798637, 0.0]
['beep', 0.0, -3605.0681597075654, 0.0, 0.0, 0.0, 0.0, -276.3122649565059, 0.0]
['beep', 0.0, -3605.8728225079567, 0.0, 0.0, 0.0, 0.0, -276.826355078978, 0.0]
['beep', 0.0, -3606.990409730722, 0.0, 0.0, 0.0, 0.0, -276.9157620567992, 0.0]
['beep', 0.0, -3607.9068312533896, 0.0, 0.0, 0.0, 0.0, -276.73694810115677, 0.0]
['beep', 0.0, -3606.208098674786, 0.0, 0.0, 0.0, 0.0, -276.98281729016514, 0.0]
['beep', 0.0, -3605.3363806410293, 0.0, 0.0, 0.0, 0.0, -277.69807311273496, 0.0]
['beep', 0.0, -3605.9845812302333, 0.0, 0.0, 0.0, 0.0, -277.07222426798637, 0.0]
['beep', 0.0, -3607.862127764479, 0.0, 0.0, 0.0, 0.0, -276.22285797868466, 0.0]
['beep', 0.0, -3607.7503690422022, 0.0, 0.0, 0.0, 0.0, -275.7311196006679, 0.0]
['beep', 0.0, -3606.0739882080543, 0.0, 0.0, 0.0, 0.0, -276.0663957674975, 0.0]
['beep', 0.0, -3605.9622294857777, 0.0, 0.0, 0.0, 0.0, -276.58048588996957, 0.0]
['beep', 0.0, -3606.923354497356, 0.0, 0.0, 0.0, 0.0, -276.6475411233355, 0.0]
['beep', 0.0, -3608.3538661424955, 0.0, 0.0, 0.0, 0.0, -277.4745556681819, 0.0]
['beep', 0.0, -3608.5550318425935, 0.0, 0.0, 0.0, 0.0, -277.7427766016456, 0.0]
['beep', 0.0, -3608.152700442398, 0.0, 0.0, 0.0, 0.0, -278.502735913126, 0.0]
['beep', 0.0, -3607.437444619828, 0.0, 0.0, 0.0, 0.0, -278.72625335767907, 0.0]
['beep', 0.0, -3607.6386103199256, 0.0, 0.0, 0.0, 0.0, -276.826355078978, 0.0]
['beep', 0.0, -3607.6162585754705, 0.0, 0.0, 0.0, 0.0, -276.8487068234333, 0.0]
['beep', 0.0, -3607.8397760200237, 0.0, 0.0, 0.0, 0.0, -276.4240236787824, 0.0]
['beep', 0.0, -3607.772720786658, 0.0, 0.0, 0.0, 0.0, -276.20050623422935, 0.0]
['beep', 0.0, -3606.9457062418114, 0.0, 0.0, 0.0, 0.0, -276.53578240105895, 0.0]
['beep', 0.0, -3607.862127764479, 0.0, 0.0, 0.0, 0.0, -276.7592998456121, 0.0]
['beep', 0.0, -3608.1974039313086, 0.0, 0.0, 0.0, 0.0, -276.7592998456121, 0.0]
['beep', 0.0, -3609.0691219650653, 0.0, 0.0, 0.0, 0.0, -276.51343065660365, 0.0]
['beep', 0.0, -3608.175052186853, 0.0, 0.0, 0.0, 0.0, -276.98281729016514, 0.0]
['beep', 0.0, -3607.5492033421046, 0.0, 0.0, 0.0, 0.0, -278.05570102401987, 0.0]
['beep', 0.0, -3607.9291829978447, 0.0, 0.0, 0.0, 0.0, -277.72042485719027, 0.0]
['beep', 0.0, -3608.800901031602, 0.0, 0.0, 0.0, 0.0, -276.4016719343271, 0.0]
['beep', 0.0, -3607.415092875373, 0.0, 0.0, 0.0, 0.0, -276.0216922785869, 0.0]
['beep', 0.0, -3606.565726586071, 0.0, 0.0, 0.0, 0.0, -276.3569684454165, 0.0]
['beep', 0.0, -3607.1692236863646, 0.0, 0.0, 0.0, 0.0, -276.7592998456121, 0.0]
['beep', 0.0, -3606.923354497356, 0.0, 0.0, 0.0, 0.0, -277.7427766016456, 0.0]
['beep', 0.0, -3607.1021684529983, 0.0, 0.0, 0.0, 0.0, -278.03334927956456, 0.0]
['beep', 0.0, -3606.051636463599, 0.0, 0.0, 0.0, 0.0, -277.4969074126372, 0.0]
['beep', 0.0, -3605.537546341127, 0.0, 0.0, 0.0, 0.0, -278.36862544639416, 0.0]
['beep', 0.0, -3604.866994007468, 0.0, 0.0, 0.0, 0.0, -279.03917778005336, 0.0]
['beep', 0.0, -3605.6493050634035, 0.0, 0.0, 0.0, 0.0, -278.01099753510925, 0.0]
['beep', 0.0, -3605.3587323854845, 0.0, 0.0, 0.0, 0.0, -278.1227562573858, 0.0]
['beep', 0.0, -3606.2975056526075, 0.0, 0.0, 0.0, 0.0, -278.34627370193886, 0.0]
['beep', 0.0, -3605.9398777413226, 0.0, 0.0, 0.0, 0.0, -279.2179917356958, 0.0]
['beep', 0.0, -3605.6716568078587, 0.0, 0.0, 0.0, 0.0, -279.06152952450867, 0.0]
['beep', 0.0, -3606.543374841616, 0.0, 0.0, 0.0, 0.0, -278.8827155688662, 0.0]
['beep', 0.0, -3606.7221887972582, 0.0, 0.0, 0.0, 0.0, -278.97212254668744, 0.0]
['beep', 0.0, -3607.772720786658, 0.0, 0.0, 0.0, 0.0, -279.3968056913383, 0.0]
['beep', 0.0, -3607.146871941909, 0.0, 0.0, 0.0, 0.0, -279.9108958138103, 0.0]
['beep', 0.0, -3605.828119019046, 0.0, 0.0, 0.0, 0.0, -279.1509365023299, 0.0]
['beep', 0.0, -3606.5880783305265, 0.0, 0.0, 0.0, 0.0, -280.4920411696483, 0.0]
['beep', 0.0, -3607.0127614751773, 0.0, 0.0, 0.0, 0.0, -280.2014684917293, 0.0]
['beep', 0.0, -3606.85629926399, 0.0, 0.0, 0.0, 0.0, -280.4920411696483, 0.0]
['beep', 0.0, -3605.9845812302333, 0.0, 0.0, 0.0, 0.0, -280.33557895846116, 0.0]
['beep', 0.0, -3605.179918429842, 0.0, 0.0, 0.0, 0.0, -279.7320818581679, 0.0]
['beep', 0.0, -3606.208098674786, 0.0, 0.0, 0.0, 0.0, -280.2014684917293, 0.0]
['beep', 0.0, -3607.2362789197305, 0.0, 0.0, 0.0, 0.0, -281.3190557144947, 0.0]
['beep', 0.0, -3606.7445405417134, 0.0, 0.0, 0.0, 0.0, -281.6766836257796, 0.0]
['beep', 0.0, -3606.3869126304285, 0.0, 0.0, 0.0, 0.0, -280.8720208253886, 0.0]
['beep', 0.0, -3607.504499853194, 0.0, 0.0, 0.0, 0.0, -281.3190557144947, 0.0]
['beep', 0.0, -3606.8115957750797, 0.0, 0.0, 0.0, 0.0, -281.6543318813243, 0.0]
['beep', 0.0, -3606.0069329746884, 0.0, 0.0, 0.0, 0.0, -282.5931051484472, 0.0]
['beep', 0.0, -3607.2809824086407, 0.0, 0.0, 0.0, 0.0, -281.85549758142207, 0.0]
['beep', 0.0, -3606.3198573970626, 0.0, 0.0, 0.0, 0.0, -280.33557895846116, 0.0]
['beep', 0.0, -3605.2916771521186, 0.0, 0.0, 0.0, 0.0, -281.34140745895, 0.0]
['beep', 0.0, -3604.799938774102, 0.0, 0.0, 0.0, 0.0, -282.48134642617066, 0.0]
['beep', 0.0, -3604.3305521405405, 0.0, 0.0, 0.0, 0.0, -281.16259350330756, 0.0]
['beep', 0.0, -3603.1682614288643, 0.0, 0.0, 0.0, 0.0, -280.9390760587545, 0.0]
['beep', 0.0, -3601.0448457056104, 0.0, 0.0, 0.0, 0.0, -279.7991370915338, 0.0]
['beep', 0.0, -3599.010836960177, 0.0, 0.0, 0.0, 0.0, -280.4920411696483, 0.0]
['beep', 0.0, -3599.726092782747, 0.0, 0.0, 0.0, 0.0, -279.03917778005336, 0.0]
['beep', 0.0, -3600.7989765166017, 0.0, 0.0, 0.0, 0.0, -277.4522039237266, 0.0]
['beep', 0.0, -3603.57059282906, 0.0, 0.0, 0.0, 0.0, -277.7874800905562, 0.0]
['beep', 0.0, -3604.6434765629147, 0.0, 0.0, 0.0, 0.0, -277.69807311273496, 0.0]
['beep', 0.0, -3605.6493050634035, 0.0, 0.0, 0.0, 0.0, -277.7651283461009, 0.0]
['beep', 0.0, -3606.9457062418114, 0.0, 0.0, 0.0, 0.0, -278.63684637985784, 0.0]
['beep', 0.0, -3608.152700442398, 0.0, 0.0, 0.0, 0.0, -280.04500628054217, 0.0]
['beep', 0.0, -3608.510328353683, 0.0, 0.0, 0.0, 0.0, -279.1509365023299, 0.0]
['beep', 0.0, -3608.443273120317, 0.0, 0.0, 0.0, 0.0, -277.63101787936904, 0.0]
['beep', 0.0, -3607.728017297747, 0.0, 0.0, 0.0, 0.0, -278.25686672411763, 0.0]
['beep', 0.0, -3607.370389386462, 0.0, 0.0, 0.0, 0.0, -278.4803841686707, 0.0]
['beep', 0.0, -3608.823252776057, 0.0, 0.0, 0.0, 0.0, -279.2403434801511, 0.0]
['beep', 0.0, -3609.6055638319926, 0.0, 0.0, 0.0, 0.0, -279.7767853470785, 0.0]
['beep', 0.0, -3608.175052186853, 0.0, 0.0, 0.0, 0.0, -279.37445394688297, 0.0]
['beep', 0.0, -3607.8844795089344, 0.0, 0.0, 0.0, 0.0, -279.64267488034665, 0.0]
['beep', 0.0, -3608.66679056487, 0.0, 0.0, 0.0, 0.0, -279.2179917356958, 0.0]
['beep', 0.0, -3607.9291829978447, 0.0, 0.0, 0.0, 0.0, -279.28504696906174, 0.0]
['beep', 0.0, -3608.107996953487, 0.0, 0.0, 0.0, 0.0, -278.1674597462964, 0.0]
['beep', 0.0, -3607.8844795089344, 0.0, 0.0, 0.0, 0.0, -277.7651283461009, 0.0]
['beep', 0.0, -3607.8397760200237, 0.0, 0.0, 0.0, 0.0, -279.3968056913383, 0.0]
['beep', 0.0, -3607.817424275568, 0.0, 0.0, 0.0, 0.0, -279.06152952450867, 0.0]
['beep', 0.0, -3608.2197556757637, 0.0, 0.0, 0.0, 0.0, -278.65919812431315, 0.0]
['beep', 0.0, -3608.756197542691, 0.0, 0.0, 0.0, 0.0, -280.2238202361846, 0.0]
['beep', 0.0, -3608.9350114983336, 0.0, 0.0, 0.0, 0.0, -279.62032313589134, 0.0]
['beep', 0.0, -3608.2197556757637, 0.0, 0.0, 0.0, 0.0, -278.65919812431315, 0.0]
['beep', 0.0, -3609.6279155764482, 0.0, 0.0, 0.0, 0.0, -279.59797139143603, 0.0]
['beep', 0.0, -3610.2314126767415, 0.0, 0.0, 0.0, 0.0, -279.4862126691595, 0.0]
['beep', 0.0, -3610.2984679101073, 0.0, 0.0, 0.0, 0.0, -279.37445394688297, 0.0]
['beep', 0.0, -3610.47728186575, 0.0, 0.0, 0.0, 0.0, -280.6932068697461, 0.0]
['beep', 0.0, -3609.1361771984316, 0.0, 0.0, 0.0, 0.0, -281.0061312921204, 0.0]
['beep', 0.0, -3609.672619065359, 0.0, 0.0, 0.0, 0.0, -279.4191574357936, 0.0]
['beep', 0.0, -3610.6560958213922, 0.0, 0.0, 0.0, 0.0, -280.1344132583634, 0.0]
['beep', 0.0, -3609.784377787635, 0.0, 0.0, 0.0, 0.0, -280.00030279163155, 0.0]
['beep', 0.0, -3609.2702876651633, 0.0, 0.0, 0.0, 0.0, -280.2014684917293, 0.0]
['beep', 0.0, -3608.756197542691, 0.0, 0.0, 0.0, 0.0, -280.5367446585589, 0.0]
['beep', 0.0, -3608.957363242789, 0.0, 0.0, 0.0, 0.0, -281.2072969922182, 0.0]
['beep', 0.0, -3609.04677022061, 0.0, 0.0, 0.0, 0.0, -281.78844234805615, 0.0]
['beep', 0.0, -3608.9350114983336, 0.0, 0.0, 0.0, 0.0, -281.9896080481539, 0.0]
['beep', 0.0, -3608.800901031602, 0.0, 0.0, 0.0, 0.0, -280.6485033808355, 0.0]
['beep', 0.0, -3608.6220870759594, 0.0, 0.0, 0.0, 0.0, -280.7155586142014, 0.0]
['beep', 0.0, -3608.2197556757637, 0.0, 0.0, 0.0, 0.0, -280.60379989192484, 0.0]
['beep', 0.0, -3607.9515347423003, 0.0, 0.0, 0.0, 0.0, -281.52022141459247, 0.0]
['beep', 0.0, -3608.66679056487, 0.0, 0.0, 0.0, 0.0, -281.6766836257796, 0.0]
['beep', 0.0, -3608.152700442398, 0.0, 0.0, 0.0, 0.0, -280.179116747274, 0.0]
['beep', 0.0, -3608.085645209032, 0.0, 0.0, 0.0, 0.0, -279.64267488034665, 0.0]
['beep', 0.0, -3608.152700442398, 0.0, 0.0, 0.0, 0.0, -279.4415091802489, 0.0]
['beep', 0.0, -3608.175052186853, 0.0, 0.0, 0.0, 0.0, -280.76026210311204, 0.0]
['beep', 0.0, -3608.9350114983336, 0.0, 0.0, 0.0, 0.0, -280.0897097694528, 0.0]
['beep', 0.0, -3608.376217886951, 0.0, 0.0, 0.0, 0.0, -279.30739871351705, 0.0]
['beep', 0.0, -3609.024418476155, 0.0, 0.0, 0.0, 0.0, -278.97212254668744, 0.0]
['beep', 0.0, -3609.2926394096185, 0.0, 0.0, 0.0, 0.0, -279.93324755826563, 0.0]
['beep', 0.0, -3609.6055638319926, 0.0, 0.0, 0.0, 0.0, -280.8943725698439, 0.0]
['beep', 0.0, -3611.4607586217835, 0.0, 0.0, 0.0, 0.0, -278.7486051021344, 0.0]
['beep', 0.0, -3611.058427221588, 0.0, 0.0, 0.0, 0.0, -278.99447429114275, 0.0]
['beep', 0.0, -3610.343171399018, 0.0, 0.0, 0.0, 0.0, -279.5532679025254, 0.0]
['beep', 0.0, -3610.343171399018, 0.0, 0.0, 0.0, 0.0, -281.0061312921204, 0.0]
['beep', 0.0, -3610.678447565848, 0.0, 0.0, 0.0, 0.0, -280.8720208253886, 0.0]
['beep', 0.0, -3610.343171399018, 0.0, 0.0, 0.0, 0.0, -279.26269522460643, 0.0]
['beep', 0.0, -3610.14200569892, 0.0, 0.0, 0.0, 0.0, -279.03917778005336, 0.0]
['beep', 0.0, -3609.1361771984316, 0.0, 0.0, 0.0, 0.0, -278.99447429114275, 0.0]
['beep', 0.0, -3610.365523143473, 0.0, 0.0, 0.0, 0.0, -279.1062330134193, 0.0]
['beep', 0.0, -3610.5666888435712, 0.0, 0.0, 0.0, 0.0, -279.083881268964, 0.0]
['beep', 0.0, -3611.1031307104986, 0.0, 0.0, 0.0, 0.0, -278.32392195748355, 0.0]
['beep', 0.0, -3610.0078952321883, 0.0, 0.0, 0.0, 0.0, -278.5474394020366, 0.0]
['beep', 0.0, -3608.800901031602, 0.0, 0.0, 0.0, 0.0, -279.083881268964, 0.0]
['beep', 0.0, -3609.8514330210014, 0.0, 0.0, 0.0, 0.0, -279.9108958138103, 0.0]
['beep', 0.0, -3611.684276066336, 0.0, 0.0, 0.0, 0.0, -280.82731733647796, 0.0]
['beep', 0.0, -3612.8242150335573, 0.0, 0.0, 0.0, 0.0, -280.80496559202265, 0.0]
['beep', 0.0, -3613.315953411574, 0.0, 0.0, 0.0, 0.0, -279.8214888359891, 0.0]
['beep', 0.0, -3608.398569631406, 0.0, 0.0, 0.0, 0.0, -278.99447429114275, 0.0]
['beep', 0.0, -3603.9058689958897, 0.0, 0.0, 0.0, 0.0, -278.72625335767907, 0.0]
['beep', 0.0, -3606.1633951858757, 0.0, 0.0, 0.0, 0.0, -279.70973011371257, 0.0]
['beep', 0.0, -3607.5492033421046, 0.0, 0.0, 0.0, 0.0, -279.7544336026232, 0.0]
['beep', 0.0, -3607.728017297747, 0.0, 0.0, 0.0, 0.0, -279.1062330134193, 0.0]
['beep', 0.0, -3608.823252776057, 0.0, 0.0, 0.0, 0.0, -280.24617198063993, 0.0]
['beep', 0.0, -3608.8456045205126, 0.0, 0.0, 0.0, 0.0, -281.050834781031, 0.0]
['beep', 0.0, -3610.4996336102054, 0.0, 0.0, 0.0, 0.0, -282.3248842149835, 0.0]
['beep', 0.0, -3611.281944666141, 0.0, 0.0, 0.0, 0.0, -283.08484352646394, 0.0]
['beep', 0.0, -3610.9466684993113, 0.0, 0.0, 0.0, 0.0, -282.50369817062597, 0.0]
['beep', 0.0, -3609.9631917432775, 0.0, 0.0, 0.0, 0.0, -283.10719527091925, 0.0]
['beep', 0.0, -3609.9408399988224, 0.0, 0.0, 0.0, 0.0, -282.5707534039919, 0.0]
['beep', 0.0, -3610.5219853546605, 0.0, 0.0, 0.0, 0.0, -283.12954701537456, 0.0]
['beep', 0.0, -3611.013723732677, 0.0, 0.0, 0.0, 0.0, -283.12954701537456, 0.0]
['beep', 0.0, -3610.2984679101073, 0.0, 0.0, 0.0, 0.0, -283.37541620438293, 0.0]
['beep', 0.0, -3609.829081276546, 0.0, 0.0, 0.0, 0.0, -283.6883406267572, 0.0]
['beep', 0.0, -3608.957363242789, 0.0, 0.0, 0.0, 0.0, -284.38124470487173, 0.0]
['beep', 0.0, -3610.1643574433756, 0.0, 0.0, 0.0, 0.0, -284.38124470487173, 0.0]
['beep', 0.0, -3609.9631917432775, 0.0, 0.0, 0.0, 0.0, -283.2189539931958, 0.0]
['beep', 0.0, -3610.074950465554, 0.0, 0.0, 0.0, 0.0, -284.2471342381399, 0.0]
['beep', 0.0, -3609.739674298725, 0.0, 0.0, 0.0, 0.0, -284.15772726031867, 0.0]
['beep', 0.0, -3608.443273120317, 0.0, 0.0, 0.0, 0.0, -284.42594819378235, 0.0]
['beep', 0.0, -3608.5550318425935, 0.0, 0.0, 0.0, 0.0, -284.44829993823765, 0.0]
['beep', 0.0, -3610.343171399018, 0.0, 0.0, 0.0, 0.0, -284.0012650491315, 0.0]
['beep', 0.0, -3610.276116165652, 0.0, 0.0, 0.0, 0.0, -285.56588716100305, 0.0]
['beep', 0.0, -3609.180880687342, 0.0, 0.0, 0.0, 0.0, -285.9905703056539, 0.0]
['beep', 0.0, -3608.7785492871467, 0.0, 0.0, 0.0, 0.0, -284.0236167935868, 0.0]
['beep', 0.0, -3609.2255841762526, 0.0, 0.0, 0.0, 0.0, -283.6212853933913, 0.0]
['beep', 0.0, -3609.5608603430824, 0.0, 0.0, 0.0, 0.0, -284.180079004774, 0.0]
['beep', 0.0, -3610.052598721099, 0.0, 0.0, 0.0, 0.0, -284.47065168269296, 0.0]
['beep', 0.0, -3609.7173225542692, 0.0, 0.0, 0.0, 0.0, -283.42011969329354, 0.0]
['beep', 0.0, -3609.672619065359, 0.0, 0.0, 0.0, 0.0, -285.3647214609053, 0.0]
['beep', 0.0, -3610.4549301212946, 0.0, 0.0, 0.0, 0.0, -285.58823890545835, 0.0]
['beep', 0.0, -3610.0973022100097, 0.0, 0.0, 0.0, 0.0, -285.6776458832796, 0.0]
['beep', 0.0, -3609.5832120875375, 0.0, 0.0, 0.0, 0.0, -284.15772726031867, 0.0]
['beep', 0.0, -3610.5666888435712, 0.0, 0.0, 0.0, 0.0, -284.2918377270505, 0.0]
['beep', 0.0, -3611.348999899507, 0.0, 0.0, 0.0, 0.0, -284.5824104049695, 0.0]
['beep', 0.0, -3609.784377787635, 0.0, 0.0, 0.0, 0.0, -286.4599569392153, 0.0]
['beep', 0.0, -3610.2090609322863, 0.0, 0.0, 0.0, 0.0, -288.0916342844527, 0.0]
['beep', 0.0, -3605.0011044741996, 0.0, 0.0, 0.0, 0.0, -318.0429718545642, 0.0]
['beep', 0.0, -3605.604601574493, 0.0, 0.0, 0.0, 0.0, -317.7523991766452, 0.0]
['beep', 0.0, -3606.2975056526075, 0.0, 0.0, 0.0, 0.0, -318.55706197703626, 0.0]
['beep', 0.0, -3605.805767274591, 0.0, 0.0, 0.0, 0.0, -317.7747509211005, 0.0]
['beep', 0.0, -3606.1633951858757, 0.0, 0.0, 0.0, 0.0, -317.7971026655558, 0.0]
['beep', 0.0, -3605.537546341127, 0.0, 0.0, 0.0, 0.0, -317.6406404543687, 0.0]
['beep', 0.0, -3606.051636463599, 0.0, 0.0, 0.0, 0.0, -317.3277160319944, 0.0]
['beep', 0.0, -3606.990409730722, 0.0, 0.0, 0.0, 0.0, -316.3218875315055, 0.0]
['beep', 0.0, -3606.699837052803, 0.0, 0.0, 0.0, 0.0, -316.85832939843294, 0.0]
['beep', 0.0, -3606.699837052803, 0.0, 0.0, 0.0, 0.0, -317.3053642875391, 0.0]
['beep', 0.0, -3606.453967863795, 0.0, 0.0, 0.0, 0.0, -316.81362590952233, 0.0]
['beep', 0.0, -3607.5268515976495, 0.0, 0.0, 0.0, 0.0, -317.4171230098156, 0.0]
['beep', 0.0, -3608.398569631406, 0.0, 0.0, 0.0, 0.0, -317.3053642875391, 0.0]
['beep', 0.0, -3606.6774853083475, 0.0, 0.0, 0.0, 0.0, -317.93121313228767, 0.0]
['beep', 0.0, -3606.118691696965, 0.0, 0.0, 0.0, 0.0, -317.88650964337705, 0.0]
['beep', 0.0, -3606.275153908152, 0.0, 0.0, 0.0, 0.0, -317.19360556526254, 0.0]
['beep', 0.0, -3606.543374841616, 0.0, 0.0, 0.0, 0.0, -317.953564876743, 0.0]
['beep', 0.0, -3606.8115957750797, 0.0, 0.0, 0.0, 0.0, -318.0876753434748, 0.0]
['beep', 0.0, -3605.828119019046, 0.0, 0.0, 0.0, 0.0, -317.6406404543687, 0.0]
['beep', 0.0, -3604.464662607272, 0.0, 0.0, 0.0, 0.0, -317.6406404543687, 0.0]
['beep', 0.0, -3604.866994007468, 0.0, 0.0, 0.0, 0.0, -317.081846842986, 0.0]
['beep', 0.0, -3605.202270174297, 0.0, 0.0, 0.0, 0.0, -317.3053642875391, 0.0]
['beep', 0.0, -3606.5880783305265, 0.0, 0.0, 0.0, 0.0, -317.6406404543687, 0.0]
['beep', 0.0, -3605.805767274591, 0.0, 0.0, 0.0, 0.0, -318.17708232129604, 0.0]
['beep', 0.0, -3604.1964416738087, 0.0, 0.0, 0.0, 0.0, -318.0429718545642, 0.0]
['beep', 0.0, -3602.3635986284735, 0.0, 0.0, 0.0, 0.0, -316.81362590952233, 0.0]
['beep', 0.0, -3600.977790472244, 0.0, 0.0, 0.0, 0.0, -316.4559979982374, 0.0]
['beep', 0.0, -3600.7095695387807, 0.0, 0.0, 0.0, 0.0, -316.2548322981396, 0.0]
['beep', 0.0, -3599.502575338194, 0.0, 0.0, 0.0, 0.0, -315.9642596202206, 0.0]
['beep', 0.0, -3599.8154997605684, 0.0, 0.0, 0.0, 0.0, -314.15376831934077, 0.0]
['beep', 0.0, -3600.7766247721465, 0.0, 0.0, 0.0, 0.0, -313.9973061081536, 0.0]
['beep', 0.0, -3602.4530056062945, 0.0, 0.0, 0.0, 0.0, -314.824320653, 0.0]
['beep', 0.0, -3604.9340492408337, 0.0, 0.0, 0.0, 0.0, -313.6173264524134, 0.0]
['beep', 0.0, -3605.9398777413226, 0.0, 0.0, 0.0, 0.0, -314.1984718082514, 0.0]
['beep', 0.0, -3605.3810841299396, 0.0, 0.0, 0.0, 0.0, -314.44434099725976, 0.0]
['beep', 0.0, -3604.889345751923, 0.0, 0.0, 0.0, 0.0, -316.07601834249715, 0.0]
['beep', 0.0, -3604.7105317962805, 0.0, 0.0, 0.0, 0.0, -316.1877770647737, 0.0]
['beep', 0.0, -3604.8446422630122, 0.0, 0.0, 0.0, 0.0, -316.7242189317011, 0.0]
['beep', 0.0, -3605.0011044741996, 0.0, 0.0, 0.0, 0.0, -316.36659102041614, 0.0]
['beep', 0.0, -3604.464662607272, 0.0, 0.0, 0.0, 0.0, -317.372419520905, 0.0]
['beep', 0.0, -3604.822290518557, 0.0, 0.0, 0.0, 0.0, -318.6241172104022, 0.0]
['beep', 0.0, -3605.9622294857777, 0.0, 0.0, 0.0, 0.0, -318.758227677134, 0.0]
['beep', 0.0, -3605.604601574493, 0.0, 0.0, 0.0, 0.0, -317.55123347654745, 0.0]
['beep', 0.0, -3604.576421329549, 0.0, 0.0, 0.0, 0.0, -318.19943406575135, 0.0]
['beep', 0.0, -3605.090511452021, 0.0, 0.0, 0.0, 0.0, -317.372419520905, 0.0]
['beep', 0.0, -3604.7552352851912, 0.0, 0.0, 0.0, 0.0, -318.22178581020665, 0.0]
['beep', 0.0, -3605.3587323854845, 0.0, 0.0, 0.0, 0.0, -318.0429718545642, 0.0]
['beep', 0.0, -3605.202270174297, 0.0, 0.0, 0.0, 0.0, -317.3053642875391, 0.0]
['beep', 0.0, -3604.9340492408337, 0.0, 0.0, 0.0, 0.0, -317.52888173209215, 0.0]
['beep', 0.0, -3604.4870143517273, 0.0, 0.0, 0.0, 0.0, -317.9982683656536, 0.0]
['beep', 0.0, -3604.3305521405405, 0.0, 0.0, 0.0, 0.0, -318.7805794215893, 0.0]
['beep', 0.0, -3606.118691696965, 0.0, 0.0, 0.0, 0.0, -319.9428701332653, 0.0]
['beep', 0.0, -3606.6104300749817, 0.0, 0.0, 0.0, 0.0, -320.501663744648, 0.0]
['beep', 0.0, -3604.799938774102, 0.0, 0.0, 0.0, 0.0, -321.03810561157536, 0.0]
['beep', 0.0, -3604.2858486516297, 0.0, 0.0, 0.0, 0.0, -321.8427684119664, 0.0]
['beep', 0.0, -3604.732883540736, 0.0, 0.0, 0.0, 0.0, -322.02158236760886, 0.0]
['beep', 0.0, -3604.4199591183615, 0.0, 0.0, 0.0, 0.0, -321.1051608449413, 0.0]
['beep', 0.0, -3603.9058689958897, 0.0, 0.0, 0.0, 0.0, -320.2781463000949, 0.0]
['beep', 0.0, -3604.174089929353, 0.0, 0.0, 0.0, 0.0, -320.0546288555418, 0.0]
['beep', 0.0, -3604.241145162719, 0.0, 0.0, 0.0, 0.0, -319.89816664435466, 0.0]
['beep', 0.0, -3604.531717840638, 0.0, 0.0, 0.0, 0.0, -320.3452015334608, 0.0]
['beep', 0.0, -3603.7270550402473, 0.0, 0.0, 0.0, 0.0, -320.3228497890055, 0.0]
['beep', 0.0, -3604.7775870296464, 0.0, 0.0, 0.0, 0.0, -320.61342246692453, 0.0]
['beep', 0.0, -3604.9340492408337, 0.0, 0.0, 0.0, 0.0, -320.1216840889077, 0.0]
['beep', 0.0, -3604.0399794626214, 0.0, 0.0, 0.0, 0.0, -318.89233814386586, 0.0]
['beep', 0.0, -3603.503537595694, 0.0, 0.0, 0.0, 0.0, -319.87581489989935, 0.0]
['beep', 0.0, -3605.515194596672, 0.0, 0.0, 0.0, 0.0, -319.9428701332653, 0.0]
['beep', 0.0, -3604.9340492408337, 0.0, 0.0, 0.0, 0.0, -319.7640561776228, 0.0]
['beep', 0.0, -3604.464662607272, 0.0, 0.0, 0.0, 0.0, -321.2616230561284, 0.0]
['beep', 0.0, -3605.0458079631103, 0.0, 0.0, 0.0, 0.0, -320.434608511282, 0.0]
['beep', 0.0, -3605.492842852216, 0.0, 0.0, 0.0, 0.0, -320.0769805999971, 0.0]
['beep', 0.0, -3607.0127614751773, 0.0, 0.0, 0.0, 0.0, -320.8816434003882, 0.0]
['beep', 0.0, -3605.537546341127, 0.0, 0.0, 0.0, 0.0, -320.434608511282, 0.0]
['beep', 0.0, -3605.9398777413226, 0.0, 0.0, 0.0, 0.0, -320.72518118920107, 0.0]
['beep', 0.0, -3606.3645608859733, 0.0, 0.0, 0.0, 0.0, -321.64160271186864, 0.0]
['beep', 0.0, -3606.498671352705, 0.0, 0.0, 0.0, 0.0, -321.95452713424294, 0.0]
['beep', 0.0, -3606.5880783305265, 0.0, 0.0, 0.0, 0.0, -322.5803759789915, 0.0]
['beep', 0.0, -3606.6551335638924, 0.0, 0.0, 0.0, 0.0, -323.27328005710604, 0.0]
['beep', 0.0, -3605.0234562186547, 0.0, 0.0, 0.0, 0.0, -322.178044578796, 0.0]
['beep', 0.0, -3604.3529038849956, 0.0, 0.0, 0.0, 0.0, -322.5580242345362, 0.0]
['beep', 0.0, -3605.1352149409313, 0.0, 0.0, 0.0, 0.0, -323.65325971284625, 0.0]
['beep', 0.0, -3605.828119019046, 0.0, 0.0, 0.0, 0.0, -321.7980649230558, 0.0]
['beep', 0.0, -3604.822290518557, 0.0, 0.0, 0.0, 0.0, -321.01575386712005, 0.0]
['beep', 0.0, -3603.9952759737107, 0.0, 0.0, 0.0, 0.0, -321.4180852673156, 0.0]
['beep', 0.0, -3603.6152963179707, 0.0, 0.0, 0.0, 0.0, -322.2003963232513, 0.0]
['beep', 0.0, -3603.9505724848, 0.0, 0.0, 0.0, 0.0, -321.37338177840496, 0.0]
['beep', 0.0, -3603.3023718955965, 0.0, 0.0, 0.0, 0.0, -321.95452713424294, 0.0]
['beep', 0.0, -3603.145909684409, 0.0, 0.0, 0.0, 0.0, -321.2169195672178, 0.0]
['beep', 0.0, -3602.6765230508477, 0.0, 0.0, 0.0, 0.0, -321.2169195672178, 0.0]
['beep', 0.0, -3602.631819561937, 0.0, 0.0, 0.0, 0.0, -321.66395445632395, 0.0]
['beep', 0.0, -3602.631819561937, 0.0, 0.0, 0.0, 0.0, -321.1051608449413, 0.0]
['beep', 0.0, -3603.145909684409, 0.0, 0.0, 0.0, 0.0, -321.7757131786005, 0.0]
['beep', 0.0, -3603.9058689958897, 0.0, 0.0, 0.0, 0.0, -322.96035563473174, 0.0]
['beep', 0.0, -3603.212964917775, 0.0, 0.0, 0.0, 0.0, -321.2169195672178, 0.0]
['beep', 0.0, -3602.900040495401, 0.0, 0.0, 0.0, 0.0, -321.4627887562262, 0.0]
['beep', 0.0, -3603.4141306178726, 0.0, 0.0, 0.0, 0.0, -321.4404370117709, 0.0]
['beep', 0.0, -3604.66582830737, 0.0, 0.0, 0.0, 0.0, -320.18873932227365, 0.0]
['beep', 0.0, -3604.9340492408337, 0.0, 0.0, 0.0, 0.0, -319.4287800107932, 0.0]
['beep', 0.0, -3604.151738184898, 0.0, 0.0, 0.0, 0.0, -318.86998639941055, 0.0]
['beep', 0.0, -3605.112863196476, 0.0, 0.0, 0.0, 0.0, -318.82528291049994, 0.0]
['beep', 0.0, -3606.833947519535, 0.0, 0.0, 0.0, 0.0, -318.26648929911727, 0.0]
['beep', 0.0, -3608.152700442398, 0.0, 0.0, 0.0, 0.0, -318.46765499921503, 0.0]
['beep', 0.0, -3607.348037642007, 0.0, 0.0, 0.0, 0.0, -318.0429718545642, 0.0]
['beep', 0.0, -3607.1021684529983, 0.0, 0.0, 0.0, 0.0, -316.9924398651648, 0.0]
['beep', 0.0, -3607.146871941909, 0.0, 0.0, 0.0, 0.0, -314.1984718082514, 0.0]
['beep', 0.0, -3607.482148108739, 0.0, 0.0, 0.0, 0.0, -312.6114979519246, 0.0]
['beep', 0.0, -3608.152700442398, 0.0, 0.0, 0.0, 0.0, -310.30926827302795, 0.0]
['beep', 0.0, -3609.6279155764482, 0.0, 0.0, 0.0, 0.0, -305.7048089152347, 0.0]
['beep', 0.0, -3610.8125580325795, 0.0, 0.0, 0.0, 0.0, -300.1615762903185, 0.0]
['beep', 0.0, -3605.9845812302333, 0.0, 0.0, 0.0, 0.0, -295.3783029768828, 0.0]
['beep', 0.0, -3601.7824532726354, 0.0, 0.0, 0.0, 0.0, -290.2374017521622, 0.0]
['beep', 0.0, -3602.7212265397584, 0.0, 0.0, 0.0, 0.0, -286.30349472802817, 0.0]
['beep', 0.0, -3604.464662607272, 0.0, 0.0, 0.0, 0.0, -280.60379989192484, 0.0]
['beep', 0.0, -3604.9116974963786, 0.0, 0.0, 0.0, 0.0, -276.24520972313996, 0.0]
['beep', 0.0, -3604.4199591183615, 0.0, 0.0, 0.0, 0.0, -272.1771922322741, 0.0]
['beep', 0.0, -3604.151738184898, 0.0, 0.0, 0.0, 0.0, -268.24328520814004, 0.0]
['beep', 0.0, -3602.564764328571, 0.0, 0.0, 0.0, 0.0, -264.7340613286569, 0.0]
['beep', 0.0, -3603.4141306178726, 0.0, 0.0, 0.0, 0.0, -260.06254673749766, 0.0]
['beep', 0.0, -3605.0011044741996, 0.0, 0.0, 0.0, 0.0, -255.16751470178542, 0.0]
['beep', 0.0, -3603.19061317332, 0.0, 0.0, 0.0, 0.0, -251.47947686665975, 0.0]
['beep', 0.0, -3602.0730259505544, 0.0, 0.0, 0.0, 0.0, -247.92554949826595, 0.0]
['beep', 0.0, -3603.592944573515, 0.0, 0.0, 0.0, 0.0, -243.67871805175758, 0.0]
['beep', 0.0, -3604.66582830737, 0.0, 0.0, 0.0, 0.0, -240.23654940564032, 0.0]
['beep', 0.0, -3605.1352149409313, 0.0, 0.0, 0.0, 0.0, -239.99068021663194, 0.0]
['beep', 0.0, -3602.0283224616437, 0.0, 0.0, 0.0, 0.0, -235.90031098131075, 0.0]
['beep', 0.0, -3599.3237613825518, 0.0, 0.0, 0.0, 0.0, -230.87116847886665, 0.0]
['beep', 0.0, -3598.1614706708756, 0.0, 0.0, 0.0, 0.0, -227.2054823881963, 0.0]
['beep', 0.0, -3595.8145375030685, 0.0, 0.0, 0.0, 0.0, -223.33863059742816, 0.0]
['beep', 0.0, -3598.362636370973, 0.0, 0.0, 0.0, 0.0, -218.95768868418799, 0.0]
['beep', 0.0, -3602.922392239856, 0.0, 0.0, 0.0, 0.0, -215.04613340450925, 0.0]
['beep', 0.0, -3599.1225956824537, 0.0, 0.0, 0.0, 0.0, -212.3192205809618, 0.0]
['beep', 0.0, -3596.060406692077, 0.0, 0.0, 0.0, 0.0, -209.97228741315453, 0.0]
['beep', 0.0, -3596.8874212369233, 0.0, 0.0, 0.0, 0.0, -203.64674373230264, 0.0]
['beep', 0.0, -3599.4355201048284, 0.0, 0.0, 0.0, 0.0, -198.79641518550102, 0.0]
['beep', 0.0, -3599.2343544047303, 0.0, 0.0, 0.0, 0.0, -197.2094413291742, 0.0]
['beep', 0.0, -3597.625028803948, 0.0, 0.0, 0.0, 0.0, -196.58359248442562, 0.0]
['beep', 0.0, -3597.8485462485014, 0.0, 0.0, 0.0, 0.0, -193.49905174959324, 0.0]
['beep', 0.0, -3594.3616741134733, 0.0, 0.0, 0.0, 0.0, -188.17933656923017, 0.0]
['beep', 0.0, -3595.6580752918812, 0.0, 0.0, 0.0, 0.0, -186.7041214351799, 0.0]
['beep', 0.0, -3601.223659661253, 0.0, 0.0, 0.0, 0.0, -186.7264731796352, 0.0]
['beep', 0.0, -3599.659037549381, 0.0, 0.0, 0.0, 0.0, -184.20072605618552, 0.0]
['beep', 0.0, -3600.3295898830406, 0.0, 0.0, 0.0, 0.0, -183.5972289558922, 0.0]
['beep', 0.0, -3599.8378515050235, 0.0, 0.0, 0.0, 0.0, -182.09966207738663, 0.0]
['beep', 0.0, -3597.4238631038506, 0.0, 0.0, 0.0, 0.0, -180.51268822105985, 0.0]
['beep', 0.0, -3597.826194504046, 0.0, 0.0, 0.0, 0.0, -180.4009294987833, 0.0]
['beep', 0.0, -3600.888383494423, 0.0, 0.0, 0.0, 0.0, -181.76438591055702, 0.0]
['beep', 0.0, -3603.1012061954984, 0.0, 0.0, 0.0, 0.0, -182.77021441104586, 0.0]
['beep', 0.0, -3600.888383494423, 0.0, 0.0, 0.0, 0.0, -184.96068536766595, 0.0]
['beep', 0.0, -3600.4860520942275, 0.0, 0.0, 0.0, 0.0, -186.19003131270784, 0.0]
['beep', 0.0, -3600.0613689495767, 0.0, 0.0, 0.0, 0.0, -189.14046158080836, 0.0]
['beep', 0.0, -3600.7542730276914, 0.0, 0.0, 0.0, 0.0, -190.1462900812972, 0.0]
['beep', 0.0, -3599.8378515050235, 0.0, 0.0, 0.0, 0.0, -192.98496162712118, 0.0]
['beep', 0.0, -3600.1731276718533, 0.0, 0.0, 0.0, 0.0, -196.44948201769378, 0.0]
['beep', 0.0, -3600.6872177943255, 0.0, 0.0, 0.0, 0.0, -198.84111867441163, 0.0]
['beep', 0.0, -3599.1672991713644, 0.0, 0.0, 0.0, 0.0, -201.18805184221887, 0.0]
['beep', 0.0, -3599.7931480161133, 0.0, 0.0, 0.0, 0.0, -205.16666235526353, 0.0]
['beep', 0.0, -3602.631819561937, 0.0, 0.0, 0.0, 0.0, -210.24050834661824, 0.0]
['beep', 0.0, -3604.2634969071746, 0.0, 0.0, 0.0, 0.0, -214.82261595995618, 0.0]
['beep', 0.0, -3603.3247236400516, 0.0, 0.0, 0.0, 0.0, -217.52717703904833, 0.0]
['beep', 0.0, -3603.123557939954, 0.0, 0.0, 0.0, 0.0, -221.68460150773544, 0.0]
['beep', 0.0, -3603.928220740345, 0.0, 0.0, 0.0, 0.0, -227.2501858771069, 0.0]
['beep', 0.0, -3604.9116974963786, 0.0, 0.0, 0.0, 0.0, -231.27349987906217, 0.0]
['beep', 0.0, -3606.990409730722, 0.0, 0.0, 0.0, 0.0, -235.69914528121296, 0.0]
['beep', 0.0, -3608.2644591646745, 0.0, 0.0, 0.0, 0.0, -239.96832847217664, 0.0]
['beep', 0.0, -3607.057464964088, 0.0, 0.0, 0.0, 0.0, -244.05869770749783, 0.0]
['beep', 0.0, -3605.7163602967694, 0.0, 0.0, 0.0, 0.0, -249.31135765449497, 0.0]
['beep', 0.0, -3605.246973663208, 0.0, 0.0, 0.0, 0.0, -254.16168620129662, 0.0]
['beep', 0.0, -3605.850470763501, 0.0, 0.0, 0.0, 0.0, -256.26275018009545, 0.0]
['beep', 0.0, -3605.157566685387, 0.0, 0.0, 0.0, 0.0, -259.1908287037407, 0.0]
['beep', 0.0, -3605.0011044741996, 0.0, 0.0, 0.0, 0.0, -262.4318316497602, 0.0]
['beep', 0.0, -3604.151738184898, 0.0, 0.0, 0.0, 0.0, -265.69518634023507, 0.0]
['beep', 0.0, -3603.3917788734175, 0.0, 0.0, 0.0, 0.0, -267.99741601913166, 0.0]
['beep', 0.0, -3602.631819561937, 0.0, 0.0, 0.0, 0.0, -270.74668058713445, 0.0]
['beep', 0.0, -3602.7882817731243, 0.0, 0.0, 0.0, 0.0, -272.93715154375457, 0.0]
['beep', 0.0, -3602.5200608396603, 0.0, 0.0, 0.0, 0.0, -274.9488085447322, 0.0]
['beep', 0.0, -3601.4248253613505, 0.0, 0.0, 0.0, 0.0, -278.4580324242154, 0.0]
['beep', 0.0, -3602.0059707171886, 0.0, 0.0, 0.0, 0.0, -280.8943725698439, 0.0]
['beep', 0.0, -3603.3470753845068, 0.0, 0.0, 0.0, 0.0, -282.3248842149835, 0.0]
['beep', 0.0, -3602.2294881617413, 0.0, 0.0, 0.0, 0.0, -284.0012650491315, 0.0]
['beep', 0.0, -3601.983618972733, 0.0, 0.0, 0.0, 0.0, -285.8117563500114, 0.0]
['beep', 0.0, -3601.916563739367, 0.0, 0.0, 0.0, 0.0, -286.6834743837684, 0.0]
['beep', 0.0, -3602.117729439465, 0.0, 0.0, 0.0, 0.0, -287.3316749729723, 0.0]
['beep', 0.0, -3601.0001422166997, 0.0, 0.0, 0.0, 0.0, -288.20339300672924, 0.0]
['beep', 0.0, -3600.731921283236, 0.0, 0.0, 0.0, 0.0, -288.8962970848438, 0.0]
['beep', 0.0, -3602.47535735075, 0.0, 0.0, 0.0, 0.0, -288.98570406266504, 0.0]
['beep', 0.0, -3601.469528850261, 0.0, 0.0, 0.0, 0.0, -290.5279744300812, 0.0]
['beep', 0.0, -3603.592944573515, 0.0, 0.0, 0.0, 0.0, -292.29376224205043, 0.0]
['beep', 0.0, -3604.2634969071746, 0.0, 0.0, 0.0, 0.0, -291.824375608489, 0.0]
['beep', 0.0, -3602.765930028669, 0.0, 0.0, 0.0, 0.0, -291.8690790973996, 0.0]
['beep', 0.0, -3604.0176277181663, 0.0, 0.0, 0.0, 0.0, -292.5843349199695, 0.0]
['beep', 0.0, -3603.145909684409, 0.0, 0.0, 0.0, 0.0, -293.0090180646203, 0.0]
['beep', 0.0, -3604.0623312070766, 0.0, 0.0, 0.0, 0.0, -293.9924948206538, 0.0]
['beep', 0.0, -3604.375255629451, 0.0, 0.0, 0.0, 0.0, -294.46188145421524, 0.0]
['beep', 0.0, -3602.564764328571, 0.0, 0.0, 0.0, 0.0, -294.9312680877767, 0.0]
['beep', 0.0, -3602.2965433951076, 0.0, 0.0, 0.0, 0.0, -295.3112477435169, 0.0]
['beep', 0.0, -3602.5200608396603, 0.0, 0.0, 0.0, 0.0, -295.6465239103465, 0.0]
['beep', 0.0, -3602.7212265397584, 0.0, 0.0, 0.0, 0.0, -296.3617797329163, 0.0]
['beep', 0.0, -3602.8106335175794, 0.0, 0.0, 0.0, 0.0, -296.697055899746, 0.0]
['beep', 0.0, -3601.3577701279846, 0.0, 0.0, 0.0, 0.0, -296.92057334429904, 0.0]
['beep', 0.0, -3600.508403838683, 0.0, 0.0, 0.0, 0.0, -296.7194076442013, 0.0]
['beep', 0.0, -3601.1566044278866, 0.0, 0.0, 0.0, 0.0, -297.88169835587723, 0.0]
['beep', 0.0, -3600.620162560959, 0.0, 0.0, 0.0, 0.0, -298.373436733894, 0.0]
['beep', 0.0, -3601.178956172342, 0.0, 0.0, 0.0, 0.0, -298.21697452270683, 0.0]
['beep', 0.0, -3601.4024736168953, 0.0, 0.0, 0.0, 0.0, -297.99345707815377, 0.0]
['beep', 0.0, -3599.8154997605684, 0.0, 0.0, 0.0, 0.0, -298.4181402228046, 0.0]
['beep', 0.0, -3599.7707962716577, 0.0, 0.0, 0.0, 0.0, -298.373436733894, 0.0]
['beep', 0.0, -3601.894211994912, 0.0, 0.0, 0.0, 0.0, -298.32873324498337, 0.0]
['beep', 0.0, -3601.9389154838227, 0.0, 0.0, 0.0, 0.0, -297.97110533369846, 0.0]
['beep', 0.0, -3600.1060724384874, 0.0, 0.0, 0.0, 0.0, -296.8311663664778, 0.0]
['beep', 0.0, -3599.8378515050235, 0.0, 0.0, 0.0, 0.0, -297.54642218904763, 0.0]
['beep', 0.0, -3601.0001422166997, 0.0, 0.0, 0.0, 0.0, -298.1946227782515, 0.0]
['beep', 0.0, -3602.0283224616437, 0.0, 0.0, 0.0, 0.0, -297.3676082334052, 0.0]
['beep', 0.0, -3602.3635986284735, 0.0, 0.0, 0.0, 0.0, -297.94875358924315, 0.0]
['beep', 0.0, -3601.4248253613505, 0.0, 0.0, 0.0, 0.0, -298.4851954561705, 0.0]
['beep', 0.0, -3600.597810816504, 0.0, 0.0, 0.0, 0.0, -297.21114602221803, 0.0]
['beep', 0.0, -3601.223659661253, 0.0, 0.0, 0.0, 0.0, -297.97110533369846, 0.0]
['beep', 0.0, -3601.1342526834314, 0.0, 0.0, 0.0, 0.0, -299.22280302319564, 0.0]
['beep', 0.0, -3601.3577701279846, 0.0, 0.0, 0.0, 0.0, -298.99928557864257, 0.0]
['beep', 0.0, -3601.0001422166997, 0.0, 0.0, 0.0, 0.0, -300.3850937348716, 0.0]
['beep', 0.0, -3600.7766247721465, 0.0, 0.0, 0.0, 0.0, -302.1732332912962, 0.0]
['beep', 0.0, -3601.7824532726354, 0.0, 0.0, 0.0, 0.0, -301.77090189110066, 0.0]
['beep', 0.0, -3603.1682614288643, 0.0, 0.0, 0.0, 0.0, -301.34621874644984, 0.0]
['beep', 0.0, -3604.218793418264, 0.0, 0.0, 0.0, 0.0, -301.8379571244666, 0.0]
['beep', 0.0, -3603.123557939954, 0.0, 0.0, 0.0, 0.0, -302.4861577136705, 0.0]
['beep', 0.0, -3601.558935828082, 0.0, 0.0, 0.0, 0.0, -302.5755646914917, 0.0]
['beep', 0.0, -3601.3577701279846, 0.0, 0.0, 0.0, 0.0, -302.597916435947, 0.0]
['beep', 0.0, -3603.637648062426, 0.0, 0.0, 0.0, 0.0, -303.71550365871235, 0.0]
['beep', 0.0, -3603.3470753845068, 0.0, 0.0, 0.0, 0.0, -303.08965481396376, 0.0]
['beep', 0.0, -3601.7153980392695, 0.0, 0.0, 0.0, 0.0, -302.68732341376824, 0.0]
['beep', 0.0, -3601.1119009389763, 0.0, 0.0, 0.0, 0.0, -303.9390211032654, 0.0]
['beep', 0.0, -3601.8495085060013, 0.0, 0.0, 0.0, 0.0, -304.02842808108664, 0.0]
['beep', 0.0, -3602.4530056062945, 0.0, 0.0, 0.0, 0.0, -304.2295937811844, 0.0]
['beep', 0.0, -3602.47535735075, 0.0, 0.0, 0.0, 0.0, -305.19071879276265, 0.0]
['beep', 0.0, -3602.2294881617413, 0.0, 0.0, 0.0, 0.0, -305.48129147068164, 0.0]
['beep', 0.0, -3600.888383494423, 0.0, 0.0, 0.0, 0.0, -305.6154019374135, 0.0]
['beep', 0.0, -3600.5531073275934, 0.0, 0.0, 0.0, 0.0, -306.308306015528, 0.0]
['beep', 0.0, -3601.5142323391715, 0.0, 0.0, 0.0, 0.0, -305.19071879276265, 0.0]
['beep', 0.0, -3602.47535735075, 0.0, 0.0, 0.0, 0.0, -305.23542228167327, 0.0]
['beep', 0.0, -3603.212964917775, 0.0, 0.0, 0.0, 0.0, -307.0235618380978, 0.0]
['beep', 0.0, -3601.9389154838227, 0.0, 0.0, 0.0, 0.0, -307.4258932382933, 0.0]
['beep', 0.0, -3601.961267228278, 0.0, 0.0, 0.0, 0.0, -306.9341548602766, 0.0]
['beep', 0.0, -3602.47535735075, 0.0, 0.0, 0.0, 0.0, -306.57652694899167, 0.0]
['beep', 0.0, -3603.9729242292556, 0.0, 0.0, 0.0, 0.0, -307.11296881591903, 0.0]
['beep', 0.0, -3604.151738184898, 0.0, 0.0, 0.0, 0.0, -307.15767230482965, 0.0]
['beep', 0.0, -3603.0117992176774, 0.0, 0.0, 0.0, 0.0, -307.0906170714637, 0.0]
['beep', 0.0, -3603.123557939954, 0.0, 0.0, 0.0, 0.0, -307.11296881591903, 0.0]
['beep', 0.0, -3602.0283224616437, 0.0, 0.0, 0.0, 0.0, -306.55417520453636, 0.0]
['beep', 0.0, -3600.374293371951, 0.0, 0.0, 0.0, 0.0, -305.3471810039498, 0.0]
['beep', 0.0, -3598.4967468377054, 0.0, 0.0, 0.0, 0.0, -304.4531112257375, 0.0]
['beep', 0.0, -3595.479261336239, 0.0, 0.0, 0.0, 0.0, -303.2014135362403, 0.0]
['beep', 0.0, -3594.987522958222, 0.0, 0.0, 0.0, 0.0, -303.11200655841907, 0.0]
['beep', 0.0, -3595.367502613962, 0.0, 0.0, 0.0, 0.0, -303.8943176143548, 0.0]
['beep', 0.0, -3596.8203660035574, 0.0, 0.0, 0.0, 0.0, -302.7990821360448, 0.0]
['beep', 0.0, -3599.5472788271045, 0.0, 0.0, 0.0, 0.0, -303.469634469704, 0.0]
['beep', 0.0, -3600.8436800055124, 0.0, 0.0, 0.0, 0.0, -302.68732341376824, 0.0]
['beep', 0.0, -3601.5142323391715, 0.0, 0.0, 0.0, 0.0, -303.8496141254442, 0.0]
['beep', 0.0, -3604.2634969071746, 0.0, 0.0, 0.0, 0.0, -306.17419554879615, 0.0]
['beep', 0.0, -3604.6881800518254, 0.0, 0.0, 0.0, 0.0, -306.2636025266174, 0.0]
['beep', 0.0, -3604.084682951532, 0.0, 0.0, 0.0, 0.0, -305.79421589305593, 0.0]
['beep', 0.0, -3603.6823515513365, 0.0, 0.0, 0.0, 0.0, -306.3753612488939, 0.0]
['beep', 0.0, -3603.1012061954984, 0.0, 0.0, 0.0, 0.0, -306.80004439354474, 0.0]
['beep', 0.0, -3603.0341509621326, 0.0, 0.0, 0.0, 0.0, -306.9118031158213, 0.0]
['beep', 0.0, -3603.19061317332, 0.0, 0.0, 0.0, 0.0, -306.17419554879615, 0.0]
['beep', 0.0, -3603.0565027065877, 0.0, 0.0, 0.0, 0.0, -305.48129147068164, 0.0]
['beep', 0.0, -3602.3635986284735, 0.0, 0.0, 0.0, 0.0, -306.017733337609, 0.0]
['beep', 0.0, -3603.0341509621326, 0.0, 0.0, 0.0, 0.0, -306.7106374157235, 0.0]
['beep', 0.0, -3603.3694271289623, 0.0, 0.0, 0.0, 0.0, -306.6435821823576, 0.0]
['beep', 0.0, -3603.4141306178726, 0.0, 0.0, 0.0, 0.0, -307.3364862604721, 0.0]
['beep', 0.0, -3602.7882817731243, 0.0, 0.0, 0.0, 0.0, -307.49294847165925, 0.0]
['beep', 0.0, -3601.7824532726354, 0.0, 0.0, 0.0, 0.0, -306.4200647378045, 0.0]
['beep', 0.0, -3601.670694550359, 0.0, 0.0, 0.0, 0.0, -307.2917827715615, 0.0]
['beep', 0.0, -3601.469528850261, 0.0, 0.0, 0.0, 0.0, -308.23055603868437, 0.0]
['beep', 0.0, -3601.0671974500656, 0.0, 0.0, 0.0, 0.0, -307.7164659162123, 0.0]
['beep', 0.0, -3601.223659661253, 0.0, 0.0, 0.0, 0.0, -307.0906170714637, 0.0]
['beep', 0.0, -3599.9049067383894, 0.0, 0.0, 0.0, 0.0, -307.984686849676, 0.0]
['beep', 0.0, -3600.3519416274958, 0.0, 0.0, 0.0, 0.0, -309.5269572170922, 0.0]
['beep', 0.0, -3600.8436800055124, 0.0, 0.0, 0.0, 0.0, -308.856404883433, 0.0]
['beep', 0.0, -3600.4860520942275, 0.0, 0.0, 0.0, 0.0, -308.5434804610587, 0.0]
['beep', 0.0, -3599.56963057156, 0.0, 0.0, 0.0, 0.0, -310.01869559510897, 0.0]
['beep', 0.0, -3599.346113127007, 0.0, 0.0, 0.0, 0.0, -309.5269572170922, 0.0]
['beep', 0.0, -3599.591982316015, 0.0, 0.0, 0.0, 0.0, -309.5269572170922, 0.0]
['beep', 0.0, -3600.731921283236, 0.0, 0.0, 0.0, 0.0, -309.1916810502626, 0.0]
['beep', 0.0, -3600.888383494423, 0.0, 0.0, 0.0, 0.0, -307.694114171757, 0.0]
['beep', 0.0, -3601.1342526834314, 0.0, 0.0, 0.0, 0.0, -307.9399833607654, 0.0]
['beep', 0.0, -3600.7542730276914, 0.0, 0.0, 0.0, 0.0, -307.47059672720394, 0.0]
['beep', 0.0, -3599.1449474269093, 0.0, 0.0, 0.0, 0.0, -307.3588380049274, 0.0]
['beep', 0.0, -3599.055540449088, 0.0, 0.0, 0.0, 0.0, -307.694114171757, 0.0]
['beep', 0.0, -3600.3966451164065, 0.0, 0.0, 0.0, 0.0, -308.3870182498715, 0.0]
['beep', 0.0, -3600.0613689495767, 0.0, 0.0, 0.0, 0.0, -308.3646665054162, 0.0]
['beep', 0.0, -3598.340284626518, 0.0, 0.0, 0.0, 0.0, -307.51530021611455, 0.0]
['beep', 0.0, -3599.3908166159176, 0.0, 0.0, 0.0, 0.0, -307.13532056037434, 0.0]
['beep', 0.0, -3600.8436800055124, 0.0, 0.0, 0.0, 0.0, -307.22472753819557, 0.0]
['beep', 0.0, -3600.2625346496743, 0.0, 0.0, 0.0, 0.0, -308.18585254977376, 0.0]
['beep', 0.0, -3599.6813892938367, 0.0, 0.0, 0.0, 0.0, -307.53765196056986, 0.0]
['beep', 0.0, -3599.279057893641, 0.0, 0.0, 0.0, 0.0, -307.78352114957823, 0.0]
['beep', 0.0, -3599.4802235937386, 0.0, 0.0, 0.0, 0.0, -308.45407348323744, 0.0]
['beep', 0.0, -3599.726092782747, 0.0, 0.0, 0.0, 0.0, -309.25873628362854, 0.0]
['beep', 0.0, -3600.4637003497724, 0.0, 0.0, 0.0, 0.0, -309.8398816394665, 0.0]
['beep', 0.0, -3599.1896509158196, 0.0, 0.0, 0.0, 0.0, -308.5434804610587, 0.0]
['beep', 0.0, -3598.9437817268113, 0.0, 0.0, 0.0, 0.0, -307.9399833607654, 0.0]
['beep', 0.0, -3599.5472788271045, 0.0, 0.0, 0.0, 0.0, -309.03521883907547, 0.0]
['beep', 0.0, -3599.860203249479, 0.0, 0.0, 0.0, 0.0, -309.72812291719, 0.0]
['beep', 0.0, -3599.9496102273, 0.0, 0.0, 0.0, 0.0, -310.0633990840196, 0.0]
['beep', 0.0, -3600.083720694032, 0.0, 0.0, 0.0, 0.0, -309.61636419491344, 0.0]
['beep', 0.0, -3598.988485215722, 0.0, 0.0, 0.0, 0.0, -310.0410473395643, 0.0]
['beep', 0.0, -3598.653209048892, 0.0, 0.0, 0.0, 0.0, -309.8845851283771, 0.0]
['beep', 0.0, -3599.860203249479, 0.0, 0.0, 0.0, 0.0, -309.2140327947179, 0.0]
['beep', 0.0, -3599.8378515050235, 0.0, 0.0, 0.0, 0.0, -308.47642522769274, 0.0]
['beep', 0.0, -3598.8320230045347, 0.0, 0.0, 0.0, 0.0, -308.90110837234363, 0.0]
['beep', 0.0, -3598.7873195156244, 0.0, 0.0, 0.0, 0.0, -308.2529077831397, 0.0]
['beep', 0.0, -3599.010836960177, 0.0, 0.0, 0.0, 0.0, -308.16350080531845, 0.0]
['beep', 0.0, -3600.4189968608616, 0.0, 0.0, 0.0, 0.0, -309.0575705835308, 0.0]
['beep', 0.0, -3600.3519416274958, 0.0, 0.0, 0.0, 0.0, -309.1246258168967, 0.0]
['beep', 0.0, -3599.659037549381, 0.0, 0.0, 0.0, 0.0, -309.37049500590507, 0.0]
['beep', 0.0, -3599.2343544047303, 0.0, 0.0, 0.0, 0.0, -309.7728264061006, 0.0]
['beep', 0.0, -3599.8154997605684, 0.0, 0.0, 0.0, 0.0, -309.1022740724414, 0.0]
['beep', 0.0, -3599.7484445272025, 0.0, 0.0, 0.0, 0.0, -310.1528060618408, 0.0]
['beep', 0.0, -3599.4578718492835, 0.0, 0.0, 0.0, 0.0, -309.57166070600283, 0.0]
['beep', 0.0, -3599.1225956824537, 0.0, 0.0, 0.0, 0.0, -309.28108802808384, 0.0]
['beep', 0.0, -3599.1225956824537, 0.0, 0.0, 0.0, 0.0, -309.99634385065366, 0.0]
['beep', 0.0, -3599.346113127007, 0.0, 0.0, 0.0, 0.0, -310.5104339731257, 0.0]
['beep', 0.0, -3599.8825549939343, 0.0, 0.0, 0.0, 0.0, -310.3986752508492, 0.0]
['beep', 0.0, -3600.3295898830406, 0.0, 0.0, 0.0, 0.0, -309.8622333839218, 0.0]
['beep', 0.0, -3600.0390172051216, 0.0, 0.0, 0.0, 0.0, -309.8398816394665, 0.0]
['beep', 0.0, -3599.4578718492835, 0.0, 0.0, 0.0, 0.0, -309.7951781505559, 0.0]
['beep', 0.0, -3599.279057893641, 0.0, 0.0, 0.0, 0.0, -310.7115996732235, 0.0]
['beep', 0.0, -3599.346113127007, 0.0, 0.0, 0.0, 0.0, -311.5386142180698, 0.0]
['beep', 0.0, -3601.4024736168953, 0.0, 0.0, 0.0, 0.0, -311.4939107291592, 0.0]
['beep', 0.0, -3601.0448457056104, 0.0, 0.0, 0.0, 0.0, -311.0468758400531, 0.0]
['beep', 0.0, -3599.1896509158196, 0.0, 0.0, 0.0, 0.0, -310.1081025729302, 0.0]
['beep', 0.0, -3599.4578718492835, 0.0, 0.0, 0.0, 0.0, -310.1975095507514, 0.0]
['beep', 0.0, -3600.1954794163084, 0.0, 0.0, 0.0, 0.0, -309.30343977253915, 0.0]
['beep', 0.0, -3600.4637003497724, 0.0, 0.0, 0.0, 0.0, -309.8175298950112, 0.0]
['beep', 0.0, -3598.988485215722, 0.0, 0.0, 0.0, 0.0, -310.0633990840196, 0.0]
['beep', 0.0, -3599.0331887046327, 0.0, 0.0, 0.0, 0.0, -308.94581186125424, 0.0]
['beep', 0.0, -3598.675560793348, 0.0, 0.0, 0.0, 0.0, -309.32579151699446, 0.0]
['beep', 0.0, -3599.1896509158196, 0.0, 0.0, 0.0, 0.0, -310.59984095094694, 0.0]
['beep', 0.0, -3598.9437817268113, 0.0, 0.0, 0.0, 0.0, -309.28108802808384, 0.0]
['beep', 0.0, -3598.899078237901, 0.0, 0.0, 0.0, 0.0, -309.32579151699446, 0.0]
['beep', 0.0, -3598.8320230045347, 0.0, 0.0, 0.0, 0.0, -308.8117013945224, 0.0]
['beep', 0.0, -3598.541450326616, 0.0, 0.0, 0.0, 0.0, -310.0410473395643, 0.0]
['beep', 0.0, -3599.346113127007, 0.0, 0.0, 0.0, 0.0, -309.95164036174305, 0.0]
['beep', 0.0, -3598.4743950932498, 0.0, 0.0, 0.0, 0.0, -309.37049500590507, 0.0]
['beep', 0.0, -3598.4296916043395, 0.0, 0.0, 0.0, 0.0, -311.00217235114246, 0.0]
['beep', 0.0, -3598.675560793348, 0.0, 0.0, 0.0, 0.0, -311.8738903848994, 0.0]
['beep', 0.0, -3598.541450326616, 0.0, 0.0, 0.0, 0.0, -310.8010066510447, 0.0]
['beep', 0.0, -3598.7426160267137, 0.0, 0.0, 0.0, 0.0, -309.7951781505559, 0.0]
['beep', 0.0, -3599.4355201048284, 0.0, 0.0, 0.0, 0.0, -310.62219269540225, 0.0]
['beep', 0.0, -3598.3849881154288, 0.0, 0.0, 0.0, 0.0, -309.28108802808384, 0.0]
['beep', 0.0, -3597.4462148483058, 0.0, 0.0, 0.0, 0.0, -308.58818394996933, 0.0]
['beep', 0.0, -3597.2226974037526, 0.0, 0.0, 0.0, 0.0, -309.7728264061006, 0.0]
['beep', 0.0, -3597.9379532263224, 0.0, 0.0, 0.0, 0.0, -311.0692275845084, 0.0]
['beep', 0.0, -3598.4520433487946, 0.0, 0.0, 0.0, 0.0, -311.404503751338, 0.0]
['beep', 0.0, -3598.7873195156244, 0.0, 0.0, 0.0, 0.0, -310.3763235063939, 0.0]
['beep', 0.0, -3598.4296916043395, 0.0, 0.0, 0.0, 0.0, -309.1916810502626, 0.0]
['beep', 0.0, -3598.340284626518, 0.0, 0.0, 0.0, 0.0, -310.4210269953045, 0.0]
['beep', 0.0, -3598.8320230045347, 0.0, 0.0, 0.0, 0.0, -310.8233583955, 0.0]
['beep', 0.0, -3598.049711948599, 0.0, 0.0, 0.0, 0.0, -310.8457101399553, 0.0]
['beep', 0.0, -3598.9437817268113, 0.0, 0.0, 0.0, 0.0, -309.66106768382406, 0.0]
['beep', 0.0, -3598.608505559982, 0.0, 0.0, 0.0, 0.0, -311.00217235114246, 0.0]
['beep', 0.0, -3598.8320230045347, 0.0, 0.0, 0.0, 0.0, -308.3646665054162, 0.0]
['beep', 0.0, -3599.4578718492835, 0.0, 0.0, 0.0, 0.0, -308.69994267224587, 0.0]
['beep', 0.0, -3598.1838224153307, 0.0, 0.0, 0.0, 0.0, -310.24221303966203, 0.0]
['beep', 0.0, -3598.049711948599, 0.0, 0.0, 0.0, 0.0, -308.94581186125424, 0.0]
['beep', 0.0, -3596.9768282147443, 0.0, 0.0, 0.0, 0.0, -306.80004439354474, 0.0]
['beep', 0.0, -3598.1614706708756, 0.0, 0.0, 0.0, 0.0, -308.47642522769274, 0.0]
['beep', 0.0, -3599.1225956824537, 0.0, 0.0, 0.0, 0.0, -309.8398816394665, 0.0]
['beep', 0.0, -3600.1060724384874, 0.0, 0.0, 0.0, 0.0, -309.2140327947179, 0.0]
['beep', 0.0, -3600.0613689495767, 0.0, 0.0, 0.0, 0.0, -309.4599019837263, 0.0]
['beep', 0.0, -3599.4802235937386, 0.0, 0.0, 0.0, 0.0, -308.3646665054162, 0.0]
['beep', 0.0, -3598.988485215722, 0.0, 0.0, 0.0, 0.0, -308.69994267224587, 0.0]
['beep', 0.0, -3599.4578718492835, 0.0, 0.0, 0.0, 0.0, -307.87292812739946, 0.0]
['beep', 0.0, -3598.899078237901, 0.0, 0.0, 0.0, 0.0, -306.88945137136596, 0.0]
['beep', 0.0, -3599.502575338194, 0.0, 0.0, 0.0, 0.0, -308.0293903385866, 0.0]
['beep', 0.0, -3597.7814910151355, 0.0, 0.0, 0.0, 0.0, -307.7611694051229, 0.0]
['beep', 0.0, -3596.7756625146467, 0.0, 0.0, 0.0, 0.0, -308.8340531389777, 0.0]
['beep', 0.0, -3596.8203660035574, 0.0, 0.0, 0.0, 0.0, -308.20820429422906, 0.0]
['beep', 0.0, -3596.708607281281, 0.0, 0.0, 0.0, 0.0, -308.43172173878213, 0.0]
['beep', 0.0, -3596.440386347817, 0.0, 0.0, 0.0, 0.0, -311.65037294034636, 0.0]
['beep', 0.0, -3597.088586937021, 0.0, 0.0, 0.0, 0.0, -306.9341548602766, 0.0]
['beep', 0.0, -3597.04388344811, 0.0, 0.0, 0.0, 0.0, -308.0070385941313, 0.0]
['beep', 0.0, -3596.9991799592, 0.0, 0.0, 0.0, 0.0, -308.14114906086314, 0.0]
['beep', 0.0, -3598.273229393152, 0.0, 0.0, 0.0, 0.0, -306.6435821823576, 0.0]
['beep', 0.0, -3598.1838224153307, 0.0, 0.0, 0.0, 0.0, -305.9730298486984, 0.0]
['beep', 0.0, -3598.1614706708756, 0.0, 0.0, 0.0, 0.0, -307.2694310271062, 0.0]
['beep', 0.0, -3597.6473805484034, 0.0, 0.0, 0.0, 0.0, -307.44824498274863, 0.0]
['beep', 0.0, -3599.3908166159176, 0.0, 0.0, 0.0, 0.0, -306.88945137136596, 0.0]
['beep', 0.0, -3600.307238138585, 0.0, 0.0, 0.0, 0.0, -305.6377536818688, 0.0]
['beep', 0.0, -3598.7873195156244, 0.0, 0.0, 0.0, 0.0, -306.2636025266174, 0.0]
['beep', 0.0, -3597.9379532263224, 0.0, 0.0, 0.0, 0.0, -307.49294847165925, 0.0]
['beep', 0.0, -3598.116767181965, 0.0, 0.0, 0.0, 0.0, -307.3811897493827, 0.0]
['beep', 0.0, -3597.826194504046, 0.0, 0.0, 0.0, 0.0, -307.5823554494805, 0.0]
['beep', 0.0, -3598.3849881154288, 0.0, 0.0, 0.0, 0.0, -306.6435821823576, 0.0]
['beep', 0.0, -3597.8708979929565, 0.0, 0.0, 0.0, 0.0, -306.7553409046341, 0.0]
['beep', 0.0, -3597.37915961494, 0.0, 0.0, 0.0, 0.0, -307.3141345160168, 0.0]
['beep', 0.0, -3597.4909183372165, 0.0, 0.0, 0.0, 0.0, -306.24125078216207, 0.0]
['beep', 0.0, -3598.273229393152, 0.0, 0.0, 0.0, 0.0, -306.3977129933492, 0.0]
['beep', 0.0, -3598.1391189264205, 0.0, 0.0, 0.0, 0.0, -306.10714031543023, 0.0]
['beep', 0.0, -3598.1614706708756, 0.0, 0.0, 0.0, 0.0, -305.5930501929582, 0.0]
['beep', 0.0, -3598.0050084596883, 0.0, 0.0, 0.0, 0.0, -304.7436839036565, 0.0]
['beep', 0.0, -3597.37915961494, 0.0, 0.0, 0.0, 0.0, -306.80004439354474, 0.0]
['beep', 0.0, -3599.1896509158196, 0.0, 0.0, 0.0, 0.0, -306.9788583491872, 0.0]
['beep', 0.0, -3600.0613689495767, 0.0, 0.0, 0.0, 0.0, -306.598878693447, 0.0]
['beep', 0.0, -3599.4578718492835, 0.0, 0.0, 0.0, 0.0, -305.0119048371202, 0.0]
['beep', 0.0, -3599.5472788271045, 0.0, 0.0, 0.0, 0.0, -306.6435821823576, 0.0]
['beep', 0.0, -3600.2625346496743, 0.0, 0.0, 0.0, 0.0, -306.7553409046341, 0.0]
['beep', 0.0, -3599.9049067383894, 0.0, 0.0, 0.0, 0.0, -305.23542228167327, 0.0]
['beep', 0.0, -3600.240182905219, 0.0, 0.0, 0.0, 0.0, -305.0342565815755, 0.0]
['beep', 0.0, -3599.9049067383894, 0.0, 0.0, 0.0, 0.0, -305.9730298486984, 0.0]
['beep', 0.0, -3598.764967771169, 0.0, 0.0, 0.0, 0.0, -305.50364321513695, 0.0]
['beep', 0.0, -3598.899078237901, 0.0, 0.0, 0.0, 0.0, -303.44728272524867, 0.0]
['beep', 0.0, -3601.335418383529, 0.0, 0.0, 0.0, 0.0, -303.73785540316766, 0.0]
['beep', 0.0, -3601.3577701279846, 0.0, 0.0, 0.0, 0.0, -304.52016645910345, 0.0]
['beep', 0.0, -3601.558935828082, 0.0, 0.0, 0.0, 0.0, -303.42493098079336, 0.0]
['beep', 0.0, -3599.6813892938367, 0.0, 0.0, 0.0, 0.0, -303.8049106365336, 0.0]
['beep', 0.0, -3595.434557847328, 0.0, 0.0, 0.0, 0.0, -306.9565066047319, 0.0]
['beep', 0.0, -3599.4802235937386, 0.0, 0.0, 0.0, 0.0, -304.87779437038836, 0.0]
['beep', 0.0, -3607.437444619828, 0.0, 0.0, 0.0, 0.0, -306.0400850820643, 0.0]
['beep', 0.0, -3608.6220870759594, 0.0, 0.0, 0.0, 0.0, -307.51530021611455, 0.0]
['beep', 0.0, -3608.510328353683, 0.0, 0.0, 0.0, 0.0, -307.15767230482965, 0.0]
['beep', 0.0, -3607.437444619828, 0.0, 0.0, 0.0, 0.0, -304.6766286702906, 0.0]
['beep', 0.0, -3607.124520197454, 0.0, 0.0, 0.0, 0.0, -305.6601054263241, 0.0]
['beep', 0.0, -3606.431616119339, 0.0, 0.0, 0.0, 0.0, -305.9730298486984, 0.0]
['beep', 0.0, -3604.375255629451, 0.0, 0.0, 0.0, 0.0, -305.0566083260308, 0.0]
['beep', 0.0, -3602.9670957287667, 0.0, 0.0, 0.0, 0.0, -305.3918844928604, 0.0]
['beep', 0.0, -3602.631819561937, 0.0, 0.0, 0.0, 0.0, -306.77769264908943, 0.0]
['beep', 0.0, -3604.464662607272, 0.0, 0.0, 0.0, 0.0, -305.4142362373157, 0.0]
['beep', 0.0, -3604.0399794626214, 0.0, 0.0, 0.0, 0.0, -305.86127112642185, 0.0]
['beep', 0.0, -3602.922392239856, 0.0, 0.0, 0.0, 0.0, -305.0789600704861, 0.0]
['beep', 0.0, -3601.558935828082, 0.0, 0.0, 0.0, 0.0, -306.12949205988554, 0.0]
['beep', 0.0, -3602.408302117384, 0.0, 0.0, 0.0, 0.0, -305.52599495959225, 0.0]
['beep', 0.0, -3602.47535735075, 0.0, 0.0, 0.0, 0.0, -304.54251820355876, 0.0]
['beep', 0.0, -3601.8495085060013, 0.0, 0.0, 0.0, 0.0, -306.0847885709749, 0.0]
['beep', 0.0, -3602.408302117384, 0.0, 0.0, 0.0, 0.0, -306.50947171562575, 0.0]
['beep', 0.0, -3601.983618972733, 0.0, 0.0, 0.0, 0.0, -306.77769264908943, 0.0]
['beep', 0.0, -3601.916563739367, 0.0, 0.0, 0.0, 0.0, -306.9565066047319, 0.0]
['beep', 0.0, -3602.7435782842135, 0.0, 0.0, 0.0, 0.0, -306.53182346008106, 0.0]
['beep', 0.0, -3602.542412584116, 0.0, 0.0, 0.0, 0.0, -305.7048089152347, 0.0]
['beep', 0.0, -3603.57059282906, 0.0, 0.0, 0.0, 0.0, -306.0847885709749, 0.0]
['beep', 0.0, -3603.436482362328, 0.0, 0.0, 0.0, 0.0, -306.84474788245535, 0.0]
['beep', 0.0, -3604.0176277181663, 0.0, 0.0, 0.0, 0.0, -305.1013118149414, 0.0]
['beep', 0.0, -3603.57059282906, 0.0, 0.0, 0.0, 0.0, -306.15184380434084, 0.0]
['beep', 0.0, -3603.123557939954, 0.0, 0.0, 0.0, 0.0, -307.44824498274863, 0.0]
['beep', 0.0, -3604.241145162719, 0.0, 0.0, 0.0, 0.0, -307.85057638294415, 0.0]
['beep', 0.0, -3603.23531666223, 0.0, 0.0, 0.0, 0.0, -307.6494106828464, 0.0]
['beep', 0.0, -3602.765930028669, 0.0, 0.0, 0.0, 0.0, -309.34814326144976, 0.0]
['beep', 0.0, -3602.6765230508477, 0.0, 0.0, 0.0, 0.0, -308.45407348323744, 0.0]
['beep', 0.0, -3602.2294881617413, 0.0, 0.0, 0.0, 0.0, -308.20820429422906, 0.0]
['beep', 0.0, -3601.670694550359, 0.0, 0.0, 0.0, 0.0, -308.2529077831397, 0.0]
['beep', 0.0, -3601.827156761546, 0.0, 0.0, 0.0, 0.0, -308.2529077831397, 0.0]
['beep', 0.0, -3601.7153980392695, 0.0, 0.0, 0.0, 0.0, -310.26456478411734, 0.0]
['beep', 0.0, -3602.3635986284735, 0.0, 0.0, 0.0, 0.0, -308.4987769721481, 0.0]
['beep', 0.0, -3602.922392239856, 0.0, 0.0, 0.0, 0.0, -307.44824498274863, 0.0]
['beep', 0.0, -3601.7377497837247, 0.0, 0.0, 0.0, 0.0, -309.95164036174305, 0.0]
['beep', 0.0, -3600.4413486053168, 0.0, 0.0, 0.0, 0.0, -311.22568979569553, 0.0]
['beep', 0.0, -3600.866031749968, 0.0, 0.0, 0.0, 0.0, -310.3986752508492, 0.0]
['beep', 0.0, -3600.3966451164065, 0.0, 0.0, 0.0, 0.0, -310.4657304842151, 0.0]
['beep', 0.0, -3599.346113127007, 0.0, 0.0, 0.0, 0.0, -310.532785717581, 0.0]
['beep', 0.0, -3597.9379532263224, 0.0, 0.0, 0.0, 0.0, -310.8457101399553, 0.0]
['beep', 0.0, -3596.395682858906, 0.0, 0.0, 0.0, 0.0, -310.4880822286704, 0.0]
['beep', 0.0, -3596.306275881085, 0.0, 0.0, 0.0, 0.0, -310.8457101399553, 0.0]
['beep', 0.0, -3598.675560793348, 0.0, 0.0, 0.0, 0.0, -307.49294847165925, 0.0]
['beep', 0.0, -3600.888383494423, 0.0, 0.0, 0.0, 0.0, -308.0293903385866, 0.0]
['beep', 0.0, -3601.2907148946188, 0.0, 0.0, 0.0, 0.0, -308.7669979056118, 0.0]
['beep', 0.0, -3602.2294881617413, 0.0, 0.0, 0.0, 0.0, -309.95164036174305, 0.0]
['beep', 0.0, -3603.481185851239, 0.0, 0.0, 0.0, 0.0, -310.01869559510897, 0.0]
['beep', 0.0, -3604.084682951532, 0.0, 0.0, 0.0, 0.0, -310.26456478411734, 0.0]
['beep', 0.0, -3603.794110273613, 0.0, 0.0, 0.0, 0.0, -311.27039328460614, 0.0]
['beep', 0.0, -3602.184784672831, 0.0, 0.0, 0.0, 0.0, -312.9467741187542, 0.0]
['beep', 0.0, -3602.117729439465, 0.0, 0.0, 0.0, 0.0, -311.98564910717596, 0.0]
['beep', 0.0, -3601.5142323391715, 0.0, 0.0, 0.0, 0.0, -313.2820502855838, 0.0]
['beep', 0.0, -3601.983618972733, 0.0, 0.0, 0.0, 0.0, -312.6562014408352, 0.0]
['beep', 0.0, -3602.6541713063925, 0.0, 0.0, 0.0, 0.0, -311.24804154015084, 0.0]
['beep', 0.0, -3601.4024736168953, 0.0, 0.0, 0.0, 0.0, -310.8680618844106, 0.0]
['beep', 0.0, -3601.469528850261, 0.0, 0.0, 0.0, 0.0, -311.67272468480166, 0.0]
['beep', 0.0, -3601.8718602504564, 0.0, 0.0, 0.0, 0.0, -312.32092527400556, 0.0]
['beep', 0.0, -3602.1400811839203, 0.0, 0.0, 0.0, 0.0, -312.4550357407374, 0.0]
['beep', 0.0, -3603.4141306178726, 0.0, 0.0, 0.0, 0.0, -312.29857352955025, 0.0]
['beep', 0.0, -3602.2965433951076, 0.0, 0.0, 0.0, 0.0, -311.98564910717596, 0.0]
['beep', 0.0, -3601.7377497837247, 0.0, 0.0, 0.0, 0.0, -312.27622178509495, 0.0]
['beep', 0.0, -3600.28488639413, 0.0, 0.0, 0.0, 0.0, -313.5055677301369, 0.0]
['beep', 0.0, -3600.66486604987, 0.0, 0.0, 0.0, 0.0, -312.74560841865645, 0.0]
['beep', 0.0, -3601.4248253613505, 0.0, 0.0, 0.0, 0.0, -312.23151829618433, 0.0]
['beep', 0.0, -3600.1284241829426, 0.0, 0.0, 0.0, 0.0, -312.72325667420114, 0.0]
['beep', 0.0, -3598.764967771169, 0.0, 0.0, 0.0, 0.0, -313.2596985411285, 0.0]
['beep', 0.0, -3598.5861538155264, 0.0, 0.0, 0.0, 0.0, -313.5279194745922, 0.0]
['beep', 0.0, -3600.620162560959, 0.0, 0.0, 0.0, 0.0, -311.3821520068827, 0.0]
['beep', 0.0, -3600.1060724384874, 0.0, 0.0, 0.0, 0.0, -311.4492072402486, 0.0]
['beep', 0.0, -3598.608505559982, 0.0, 0.0, 0.0, 0.0, -313.1702915633073, 0.0]
['beep', 0.0, -3598.675560793348, 0.0, 0.0, 0.0, 0.0, -312.74560841865645, 0.0]
['beep', 0.0, -3598.4520433487946, 0.0, 0.0, 0.0, 0.0, -312.34327701846087, 0.0]
['beep', 0.0, -3599.0331887046327, 0.0, 0.0, 0.0, 0.0, -313.1926433077626, 0.0]
['beep', 0.0, -3599.4802235937386, 0.0, 0.0, 0.0, 0.0, -313.08088458548605, 0.0]
['beep', 0.0, -3599.7931480161133, 0.0, 0.0, 0.0, 0.0, -314.01965785260893, 0.0]
['beep', 0.0, -3600.1731276718533, 0.0, 0.0, 0.0, 0.0, -313.39380900786034, 0.0]
['beep', 0.0, -3599.2343544047303, 0.0, 0.0, 0.0, 0.0, -313.46086424122626, 0.0]
['beep', 0.0, -3599.994313716211, 0.0, 0.0, 0.0, 0.0, -313.9302508747877, 0.0]
['beep', 0.0, -3599.726092782747, 0.0, 0.0, 0.0, 0.0, -314.6231549529022, 0.0]
['beep', 0.0, -3598.4967468377054, 0.0, 0.0, 0.0, 0.0, -318.3111927880279, 0.0]
['beep', 0.0, -3598.4520433487946, 0.0, 0.0, 0.0, 0.0, -313.41616075231565, 0.0]
['beep', 0.0, -3598.4520433487946, 0.0, 0.0, 0.0, 0.0, -311.4492072402486, 0.0]
['beep', 0.0, -3598.653209048892, 0.0, 0.0, 0.0, 0.0, -312.9691258632095, 0.0]
['beep', 0.0, -3598.7202642822585, 0.0, 0.0, 0.0, 0.0, -312.34327701846087, 0.0]
['beep', 0.0, -3598.273229393152, 0.0, 0.0, 0.0, 0.0, -311.8291868959888, 0.0]
['beep', 0.0, -3597.110938681476, 0.0, 0.0, 0.0, 0.0, -311.31509677351676, 0.0]
['beep', 0.0, -3596.641552047915, 0.0, 0.0, 0.0, 0.0, -312.1421113183631, 0.0]
['beep', 0.0, -3597.2674008926633, 0.0, 0.0, 0.0, 0.0, -311.67272468480166, 0.0]
['beep', 0.0, -3596.7756625146467, 0.0, 0.0, 0.0, 0.0, -313.3044020300391, 0.0]
['beep', 0.0, -3595.7474822697027, 0.0, 0.0, 0.0, 0.0, -312.5220909741034, 0.0]
['beep', 0.0, -3596.060406692077, 0.0, 0.0, 0.0, 0.0, -309.7728264061006, 0.0]
['beep', 0.0, -3595.9709997142554, 0.0, 0.0, 0.0, 0.0, -311.62802119589105, 0.0]
['beep', 0.0, -3596.1051101809876, 0.0, 0.0, 0.0, 0.0, -311.62802119589105, 0.0]
['beep', 0.0, -3595.8815927364344, 0.0, 0.0, 0.0, 0.0, -311.29274502906145, 0.0]
['beep', 0.0, -3595.8368892475237, 0.0, 0.0, 0.0, 0.0, -310.8680618844106, 0.0]
['beep', 0.0, -3595.479261336239, 0.0, 0.0, 0.0, 0.0, -310.68924792876817, 0.0]
['beep', 0.0, -3594.47343283575, 0.0, 0.0, 0.0, 0.0, -311.35980026242737, 0.0]
['beep', 0.0, -3595.5239648251495, 0.0, 0.0, 0.0, 0.0, -312.1868148072737, 0.0]
['beep', 0.0, -3595.2333921472305, 0.0, 0.0, 0.0, 0.0, -311.96329736272065, 0.0]
['beep', 0.0, -3595.6580752918812, 0.0, 0.0, 0.0, 0.0, -311.60566945143574, 0.0]
['beep', 0.0, -3595.0992816804987, 0.0, 0.0, 0.0, 0.0, -311.89624212935473, 0.0]
['beep', 0.0, -3594.6298950469372, 0.0, 0.0, 0.0, 0.0, -312.79031190756706, 0.0]
['beep', 0.0, -3595.792185758613, 0.0, 0.0, 0.0, 0.0, -313.48321598568157, 0.0]
['beep', 0.0, -3596.5968485590042, 0.0, 0.0, 0.0, 0.0, -311.33744851797206, 0.0]
