['beep', 0.0, -3057.338661830266, 0.0, 0.0, 0.0, 0.0, -318.7805794215893, 0.0]
['beep', 0.0, -3059.015042664414, 0.0, 0.0, 0.0, 0.0, -319.4064282663379, 0.0]
['beep', 0.0, -3058.500952541942, 0.0, 0.0, 0.0, 0.0, -319.20526256624015, 0.0]
['beep', 0.0, -3057.2492548524447, 0.0, 0.0, 0.0, 0.0, -319.22761431069546, 0.0]
['beep', 0.0, -3056.9586821745256, 0.0, 0.0, 0.0, 0.0, -320.3452015334608, 0.0]
['beep', 0.0, -3056.757516474428, 0.0, 0.0, 0.0, 0.0, -322.35685853443846, 0.0]
['beep', 0.0, -3056.8022199633388, 0.0, 0.0, 0.0, 0.0, -321.35103003394966, 0.0]
['beep', 0.0, -3058.36684207521, 0.0, 0.0, 0.0, 0.0, -321.2169195672178, 0.0]
['beep', 0.0, -3058.9926909199585, 0.0, 0.0, 0.0, 0.0, -320.97105037820944, 0.0]
['beep', 0.0, -3057.696289741551, 0.0, 0.0, 0.0, 0.0, -323.4744457572038, 0.0]
['beep', 0.0, -3056.6010542632407, 0.0, 0.0, 0.0, 0.0, -323.34033529047196, 0.0]
['beep', 0.0, -3057.2939583413554, 0.0, 0.0, 0.0, 0.0, -322.31215504552785, 0.0]
['beep', 0.0, -3056.779868218883, 0.0, 0.0, 0.0, 0.0, -320.501663744648, 0.0]
['beep', 0.0, -3054.231769350978, 0.0, 0.0, 0.0, 0.0, -319.80875966653343, 0.0]
['beep', 0.0, -3054.589397262263, 0.0, 0.0, 0.0, 0.0, -320.21109106672895, 0.0]
['beep', 0.0, -3054.6117490067186, 0.0, 0.0, 0.0, 0.0, -320.7698846781117, 0.0]
['beep', 0.0, -3056.690461241062, 0.0, 0.0, 0.0, 0.0, -320.99340212266475, 0.0]
['beep', 0.0, -3059.08209789778, 0.0, 0.0, 0.0, 0.0, -321.887471900877, 0.0]
['beep', 0.0, -3057.9645106750145, 0.0, 0.0, 0.0, 0.0, -323.563852735025, 0.0]
['beep', 0.0, -3057.137496130168, 0.0, 0.0, 0.0, 0.0, -325.0390678690753, 0.0]
['beep', 0.0, -3057.338661830266, 0.0, 0.0, 0.0, 0.0, -324.4132190243267, 0.0]
['beep', 0.0, -3057.405717063632, 0.0, 0.0, 0.0, 0.0, -322.69213470126806, 0.0]
['beep', 0.0, -3058.813876964316, 0.0, 0.0, 0.0, 0.0, -323.1391695903742, 0.0]
['beep', 0.0, -3057.8080484638276, 0.0, 0.0, 0.0, 0.0, -322.1333410898854, 0.0]
['beep', 0.0, -3055.6846327405733, 0.0, 0.0, 0.0, 0.0, -322.4239137678044, 0.0]
['beep', 0.0, -3055.304653084833, 0.0, 0.0, 0.0, 0.0, -324.86025391343287, 0.0]
['beep', 0.0, -3056.399888563143, 0.0, 0.0, 0.0, 0.0, -325.73197194718983, 0.0]
['beep', 0.0, -3055.5728740182967, 0.0, 0.0, 0.0, 0.0, -324.34616379096076, 0.0]
['beep', 0.0, -3054.9693769180035, 0.0, 0.0, 0.0, 0.0, -322.5133207456256, 0.0]
['beep', 0.0, -3055.0587838958245, 0.0, 0.0, 0.0, 0.0, -322.2003963232513, 0.0]
['beep', 0.0, -3056.6457577521514, 0.0, 0.0, 0.0, 0.0, -323.36268703492726, 0.0]
['beep', 0.0, -3058.2327316084784, 0.0, 0.0, 0.0, 0.0, -324.144998090863, 0.0]
['beep', 0.0, -3057.629234508185, 0.0, 0.0, 0.0, 0.0, -325.17317833580717, 0.0]
['beep', 0.0, -3055.885798440671, 0.0, 0.0, 0.0, 0.0, -324.1897015797736, 0.0]
['beep', 0.0, -3055.1258391291904, 0.0, 0.0, 0.0, 0.0, -324.36851553541607, 0.0]
['beep', 0.0, -3053.874141439693, 0.0, 0.0, 0.0, 0.0, -323.5415009905697, 0.0]
['beep', 0.0, -3053.203589106034, 0.0, 0.0, 0.0, 0.0, -322.4015620233491, 0.0]
['beep', 0.0, -3053.0247751503916, 0.0, 0.0, 0.0, 0.0, -322.2003963232513, 0.0]
['beep', 0.0, -3052.0412983943584, 0.0, 0.0, 0.0, 0.0, -320.792236422567, 0.0]
['beep', 0.0, -3053.0024234059365, 0.0, 0.0, 0.0, 0.0, -321.06045735603067, 0.0]
['beep', 0.0, -3054.6117490067186, 0.0, 0.0, 0.0, 0.0, -322.8933004013658, 0.0]
['beep', 0.0, -3057.070440896802, 0.0, 0.0, 0.0, 0.0, -322.8485969124552, 0.0]
['beep', 0.0, -3057.5174757859086, 0.0, 0.0, 0.0, 0.0, -320.7698846781117, 0.0]
['beep', 0.0, -3056.243426351956, 0.0, 0.0, 0.0, 0.0, -320.8816434003882, 0.0]
['beep', 0.0, -3058.456249053031, 0.0, 0.0, 0.0, 0.0, -321.7533614341452, 0.0]
['beep', 0.0, -3059.7750019758946, 0.0, 0.0, 0.0, 0.0, -321.68630620077926, 0.0]
['beep', 0.0, -3059.171504875601, 0.0, 0.0, 0.0, 0.0, -321.5074922451368, 0.0]
['beep', 0.0, -3058.8585804532268, 0.0, 0.0, 0.0, 0.0, -322.4015620233491, 0.0]
['beep', 0.0, -3058.076269397291, 0.0, 0.0, 0.0, 0.0, -321.66395445632395, 0.0]
['beep', 0.0, -3058.456249053031, 0.0, 0.0, 0.0, 0.0, -320.16638757781834, 0.0]
['beep', 0.0, -3059.08209789778, 0.0, 0.0, 0.0, 0.0, -321.61925096741334, 0.0]
['beep', 0.0, -3056.6234060076963, 0.0, 0.0, 0.0, 0.0, -317.7076956877346, 0.0]
['beep', 0.0, -3053.9411966730595, 0.0, 0.0, 0.0, 0.0, -310.33162001748326, 0.0]
['beep', 0.0, -3056.3104815853217, 0.0, 0.0, 0.0, 0.0, -310.4880822286704, 0.0]
['beep', 0.0, -3055.9528536740368, 0.0, 0.0, 0.0, 0.0, -306.82239613800004, 0.0]
['beep', 0.0, -3055.5505222738416, 0.0, 0.0, 0.0, 0.0, -308.90110837234363, 0.0]
['beep', 0.0, -3056.779868218883, 0.0, 0.0, 0.0, 0.0, -308.47642522769274, 0.0]
['beep', 0.0, -3056.7351647299724, 0.0, 0.0, 0.0, 0.0, -305.7048089152347, 0.0]
['beep', 0.0, -3054.3435280732547, 0.0, 0.0, 0.0, 0.0, -308.8340531389777, 0.0]
['beep', 0.0, -3055.6622809961177, 0.0, 0.0, 0.0, 0.0, -309.1916810502626, 0.0]
['beep', 0.0, -3056.399888563143, 0.0, 0.0, 0.0, 0.0, -307.7164659162123, 0.0]
['beep', 0.0, -3056.444592052054, 0.0, 0.0, 0.0, 0.0, -308.90110837234363, 0.0]
['beep', 0.0, -3057.3610135747213, 0.0, 0.0, 0.0, 0.0, -310.28691652857265, 0.0]
['beep', 0.0, -3055.6399292516626, 0.0, 0.0, 0.0, 0.0, -311.113931073419, 0.0]
['beep', 0.0, -3056.757516474428, 0.0, 0.0, 0.0, 0.0, -309.66106768382406, 0.0]
['beep', 0.0, -3056.489295540964, 0.0, 0.0, 0.0, 0.0, -307.7164659162123, 0.0]
['beep', 0.0, -3056.8692751967046, 0.0, 0.0, 0.0, 0.0, -307.78352114957823, 0.0]
['beep', 0.0, -3056.243426351956, 0.0, 0.0, 0.0, 0.0, -307.2694310271062, 0.0]
['beep', 0.0, -3054.6341007511737, 0.0, 0.0, 0.0, 0.0, -306.15184380434084, 0.0]
['beep', 0.0, -3054.7682112179054, 0.0, 0.0, 0.0, 0.0, -305.90597461533247, 0.0]
['beep', 0.0, -3054.7458594734503, 0.0, 0.0, 0.0, 0.0, -308.92346011679894, 0.0]
['beep', 0.0, -3055.6399292516626, 0.0, 0.0, 0.0, 0.0, -308.8117013945224, 0.0]
['beep', 0.0, -3055.2823013403777, 0.0, 0.0, 0.0, 0.0, -307.0906170714637, 0.0]
['beep', 0.0, -3056.198722863045, 0.0, 0.0, 0.0, 0.0, -308.4093699943268, 0.0]
['beep', 0.0, -3055.3940600626543, 0.0, 0.0, 0.0, 0.0, -307.49294847165925, 0.0]
['beep', 0.0, -3055.9528536740368, 0.0, 0.0, 0.0, 0.0, -307.47059672720394, 0.0]
['beep', 0.0, -3057.092792641258, 0.0, 0.0, 0.0, 0.0, -309.2140327947179, 0.0]
['beep', 0.0, -3058.3891938196653, 0.0, 0.0, 0.0, 0.0, -308.275259527595, 0.0]
['beep', 0.0, -3057.9645106750145, 0.0, 0.0, 0.0, 0.0, -305.90597461533247, 0.0]
['beep', 0.0, -3055.818743207305, 0.0, 0.0, 0.0, 0.0, -305.9283263597878, 0.0]
['beep', 0.0, -3055.0587838958245, 0.0, 0.0, 0.0, 0.0, -304.81073913702244, 0.0]
['beep', 0.0, -3055.751687973939, 0.0, 0.0, 0.0, 0.0, -306.86709962691066, 0.0]
['beep', 0.0, -3056.17637111859, 0.0, 0.0, 0.0, 0.0, -307.3364862604721, 0.0]
['beep', 0.0, -3056.533999029875, 0.0, 0.0, 0.0, 0.0, -305.52599495959225, 0.0]
['beep', 0.0, -3055.46111529602, 0.0, 0.0, 0.0, 0.0, -303.6260966808911, 0.0]
['beep', 0.0, -3055.505818784931, 0.0, 0.0, 0.0, 0.0, -304.92249785929897, 0.0]
['beep', 0.0, -3056.131667629679, 0.0, 0.0, 0.0, 0.0, -306.6882856712682, 0.0]
['beep', 0.0, -3055.237597851467, 0.0, 0.0, 0.0, 0.0, -305.86127112642185, 0.0]
['beep', 0.0, -3055.9528536740368, 0.0, 0.0, 0.0, 0.0, -304.56486994801406, 0.0]
['beep', 0.0, -3055.0364321513694, 0.0, 0.0, 0.0, 0.0, -303.5366897030699, 0.0]
['beep', 0.0, -3055.148190873646, 0.0, 0.0, 0.0, 0.0, -304.92249785929897, 0.0]
['beep', 0.0, -3055.237597851467, 0.0, 0.0, 0.0, 0.0, -304.2072420367291, 0.0]
['beep', 0.0, -3055.1258391291904, 0.0, 0.0, 0.0, 0.0, -305.3695327484051, 0.0]
['beep', 0.0, -3053.829437950783, 0.0, 0.0, 0.0, 0.0, -304.00607633663134, 0.0]
['beep', 0.0, -3052.8683129392043, 0.0, 0.0, 0.0, 0.0, -305.3695327484051, 0.0]
['beep', 0.0, -3053.404754806132, 0.0, 0.0, 0.0, 0.0, -305.3248292594945, 0.0]
['beep', 0.0, -3051.147228616146, 0.0, 0.0, 0.0, 0.0, -302.8661373694107, 0.0]
['beep', 0.0, -3052.1530571166345, 0.0, 0.0, 0.0, 0.0, -304.7436839036565, 0.0]
['beep', 0.0, -3052.823609450294, 0.0, 0.0, 0.0, 0.0, -305.0566083260308, 0.0]
['beep', 0.0, -3051.3260425717885, 0.0, 0.0, 0.0, 0.0, -305.23542228167327, 0.0]
['beep', 0.0, -3051.817780949805, 0.0, 0.0, 0.0, 0.0, -305.436587981771, 0.0]
['beep', 0.0, -3051.504856527431, 0.0, 0.0, 0.0, 0.0, -306.44241648225983, 0.0]
['beep', 0.0, -3051.1695803606012, 0.0, 0.0, 0.0, 0.0, -306.7106374157235, 0.0]
['beep', 0.0, -3051.1025251272354, 0.0, 0.0, 0.0, 0.0, -305.5930501929582, 0.0]
['beep', 0.0, -3050.3202140712997, 0.0, 0.0, 0.0, 0.0, -305.19071879276265, 0.0]
['beep', 0.0, -3049.8731791821933, 0.0, 0.0, 0.0, 0.0, -306.84474788245535, 0.0]
['beep', 0.0, -3051.0578216383246, 0.0, 0.0, 0.0, 0.0, -308.2976112720503, 0.0]
['beep', 0.0, -3052.1530571166345, 0.0, 0.0, 0.0, 0.0, -307.47059672720394, 0.0]
['beep', 0.0, -3051.6389669941627, 0.0, 0.0, 0.0, 0.0, -307.7611694051229, 0.0]
['beep', 0.0, -3051.3260425717885, 0.0, 0.0, 0.0, 0.0, -307.2694310271062, 0.0]
['beep', 0.0, -3050.655490238129, 0.0, 0.0, 0.0, 0.0, -308.8117013945224, 0.0]
['beep', 0.0, -3050.946062916048, 0.0, 0.0, 0.0, 0.0, -309.90693687283243, 0.0]
['beep', 0.0, -3052.1083536277242, 0.0, 0.0, 0.0, 0.0, -308.3870182498715, 0.0]
['beep', 0.0, -3052.4883332834643, 0.0, 0.0, 0.0, 0.0, -307.0235618380978, 0.0]
['beep', 0.0, -3053.0471268948468, 0.0, 0.0, 0.0, 0.0, -306.57652694899167, 0.0]
['beep', 0.0, -3053.337699572766, 0.0, 0.0, 0.0, 0.0, -308.16350080531845, 0.0]
['beep', 0.0, -3053.4494582950424, 0.0, 0.0, 0.0, 0.0, -308.23055603868437, 0.0]
['beep', 0.0, -3053.404754806132, 0.0, 0.0, 0.0, 0.0, -305.88362287087716, 0.0]
['beep', 0.0, -3052.6671472391067, 0.0, 0.0, 0.0, 0.0, -306.6659339268129, 0.0]
['beep', 0.0, -3051.4825047829754, 0.0, 0.0, 0.0, 0.0, -307.403541493838, 0.0]
['beep', 0.0, -3051.594263505252, 0.0, 0.0, 0.0, 0.0, -306.7106374157235, 0.0]
['beep', 0.0, -3053.829437950783, 0.0, 0.0, 0.0, 0.0, -306.21889903770676, 0.0]
['beep', 0.0, -3054.231769350978, 0.0, 0.0, 0.0, 0.0, -307.0235618380978, 0.0]
['beep', 0.0, -3052.4883332834643, 0.0, 0.0, 0.0, 0.0, -307.51530021611455, 0.0]
['beep', 0.0, -3053.1588856171234, 0.0, 0.0, 0.0, 0.0, -304.6766286702906, 0.0]
['beep', 0.0, -3053.8964931841488, 0.0, 0.0, 0.0, 0.0, -304.58722169246937, 0.0]
['beep', 0.0, -3054.0082519064254, 0.0, 0.0, 0.0, 0.0, -305.81656763751124, 0.0]
['beep', 0.0, -3054.3882315621654, 0.0, 0.0, 0.0, 0.0, -306.3530095044386, 0.0]
['beep', 0.0, -3053.628272250685, 0.0, 0.0, 0.0, 0.0, -305.7718641486006, 0.0]
['beep', 0.0, -3053.337699572766, 0.0, 0.0, 0.0, 0.0, -306.12949205988554, 0.0]
['beep', 0.0, -3053.0694786393024, 0.0, 0.0, 0.0, 0.0, -305.19071879276265, 0.0]
['beep', 0.0, -3055.5728740182967, 0.0, 0.0, 0.0, 0.0, -305.86127112642185, 0.0]
['beep', 0.0, -3055.729336229484, 0.0, 0.0, 0.0, 0.0, -305.3024775150392, 0.0]
['beep', 0.0, -3053.829437950783, 0.0, 0.0, 0.0, 0.0, -304.02842808108664, 0.0]
['beep', 0.0, -3053.851789695238, 0.0, 0.0, 0.0, 0.0, -302.2179367802068, 0.0]
['beep', 0.0, -3054.0082519064254, 0.0, 0.0, 0.0, 0.0, -302.1732332912962, 0.0]
['beep', 0.0, -3054.9693769180035, 0.0, 0.0, 0.0, 0.0, -301.4803292131817, 0.0]
['beep', 0.0, -3056.4222403075983, 0.0, 0.0, 0.0, 0.0, -302.2402885246621, 0.0]
['beep', 0.0, -3055.9752054184924, 0.0, 0.0, 0.0, 0.0, -300.8768321128884, 0.0]
['beep', 0.0, -3055.4164118071094, 0.0, 0.0, 0.0, 0.0, -300.1615762903185, 0.0]
['beep', 0.0, -3055.215246107012, 0.0, 0.0, 0.0, 0.0, -302.2626402691174, 0.0]
['beep', 0.0, -3054.8352664512718, 0.0, 0.0, 0.0, 0.0, -300.1168728014079, 0.0]
['beep', 0.0, -3056.042260651858, 0.0, 0.0, 0.0, 0.0, -301.05564606853085, 0.0]
['beep', 0.0, -3054.947025173548, 0.0, 0.0, 0.0, 0.0, -300.4521489682375, 0.0]
['beep', 0.0, -3053.6729757395956, 0.0, 0.0, 0.0, 0.0, -300.5639076905141, 0.0]
['beep', 0.0, -3053.404754806132, 0.0, 0.0, 0.0, 0.0, -300.4297972237822, 0.0]
['beep', 0.0, -3053.3824030616765, 0.0, 0.0, 0.0, 0.0, -299.53572744556993, 0.0]
['beep', 0.0, -3053.404754806132, 0.0, 0.0, 0.0, 0.0, -300.3627419904163, 0.0]
['beep', 0.0, -3053.2929960838555, 0.0, 0.0, 0.0, 0.0, -299.4239687232934, 0.0]
['beep', 0.0, -3053.538865272864, 0.0, 0.0, 0.0, 0.0, -298.7087129007236, 0.0]
['beep', 0.0, -3053.136533872668, 0.0, 0.0, 0.0, 0.0, -298.7534163896342, 0.0]
['beep', 0.0, -3052.7789059613833, 0.0, 0.0, 0.0, 0.0, -298.7310646451789, 0.0]
['beep', 0.0, -3054.499990284442, 0.0, 0.0, 0.0, 0.0, -299.22280302319564, 0.0]
['beep', 0.0, -3053.9411966730595, 0.0, 0.0, 0.0, 0.0, -299.0216373230979, 0.0]
['beep', 0.0, -3053.9635484175146, 0.0, 0.0, 0.0, 0.0, -297.32290474449456, 0.0]
['beep', 0.0, -3054.0082519064254, 0.0, 0.0, 0.0, 0.0, -296.7641111331119, 0.0]
['beep', 0.0, -3053.9859001619698, 0.0, 0.0, 0.0, 0.0, -297.59112567795825, 0.0]
['beep', 0.0, -3054.3435280732547, 0.0, 0.0, 0.0, 0.0, -295.87004135489957, 0.0]
['beep', 0.0, -3054.3882315621654, 0.0, 0.0, 0.0, 0.0, -294.5959919209471, 0.0]
['beep', 0.0, -3053.0024234059365, 0.0, 0.0, 0.0, 0.0, -295.2218407656957, 0.0]
['beep', 0.0, -3050.7672489604056, 0.0, 0.0, 0.0, 0.0, -296.2500210106398, 0.0]
['beep', 0.0, -3051.1025251272354, 0.0, 0.0, 0.0, 0.0, -296.3170762440057, 0.0]
['beep', 0.0, -3051.4825047829754, 0.0, 0.0, 0.0, 0.0, -294.5736401764918, 0.0]
['beep', 0.0, -3052.1083536277242, 0.0, 0.0, 0.0, 0.0, -294.0595500540197, 0.0]
['beep', 0.0, -3052.0636501388135, 0.0, 0.0, 0.0, 0.0, -294.86421285441077, 0.0]
['beep', 0.0, -3052.6671472391067, 0.0, 0.0, 0.0, 0.0, -293.79132912055604, 0.0]
['beep', 0.0, -3052.6671472391067, 0.0, 0.0, 0.0, 0.0, -293.4113494648158, 0.0]
['beep', 0.0, -3053.3824030616765, 0.0, 0.0, 0.0, 0.0, -293.9477913317432, 0.0]
['beep', 0.0, -3053.7400309729614, 0.0, 0.0, 0.0, 0.0, -293.85838435392196, 0.0]
['beep', 0.0, -3052.4883332834643, 0.0, 0.0, 0.0, 0.0, -292.114948286408, 0.0]
['beep', 0.0, -3052.9353681725706, 0.0, 0.0, 0.0, 0.0, -291.4890994416594, 0.0]
['beep', 0.0, -3052.7342024724726, 0.0, 0.0, 0.0, 0.0, -290.5950296634471, 0.0]
['beep', 0.0, -3052.4212780500984, 0.0, 0.0, 0.0, 0.0, -291.8467273529443, 0.0]
['beep', 0.0, -3051.661318738618, 0.0, 0.0, 0.0, 0.0, -292.07024479749737, 0.0]
['beep', 0.0, -3050.7001937270397, 0.0, 0.0, 0.0, 0.0, -291.31028548601694, 0.0]
['beep', 0.0, -3051.370746060699, 0.0, 0.0, 0.0, 0.0, -291.824375608489, 0.0]
['beep', 0.0, -3052.220112350001, 0.0, 0.0, 0.0, 0.0, -293.18783202026276, 0.0]
['beep', 0.0, -3052.242464094456, 0.0, 0.0, 0.0, 0.0, -293.3219424869946, 0.0]
['beep', 0.0, -3051.884836183171, 0.0, 0.0, 0.0, 0.0, -292.1820035197739, 0.0]
['beep', 0.0, -3051.0354698938695, 0.0, 0.0, 0.0, 0.0, -292.04789305304206, 0.0]
['beep', 0.0, -3051.616615249707, 0.0, 0.0, 0.0, 0.0, -290.63973315235773, 0.0]
['beep', 0.0, -3052.5777402612857, 0.0, 0.0, 0.0, 0.0, -289.9021255853326, 0.0]
['beep', 0.0, -3052.913016428115, 0.0, 0.0, 0.0, 0.0, -289.34333197394994, 0.0]
['beep', 0.0, -3052.17540886109, 0.0, 0.0, 0.0, 0.0, -289.65625639632424, 0.0]
['beep', 0.0, -3051.929539672082, 0.0, 0.0, 0.0, 0.0, -290.41621570780467, 0.0]
['beep', 0.0, -3052.980071661481, 0.0, 0.0, 0.0, 0.0, -290.2821052410728, 0.0]
['beep', 0.0, -3052.17540886109, 0.0, 0.0, 0.0, 0.0, -288.3822069623717, 0.0]
['beep', 0.0, -3049.3590890597216, 0.0, 0.0, 0.0, 0.0, -287.0858057839639, 0.0]
['beep', 0.0, -3049.7837722043723, 0.0, 0.0, 0.0, 0.0, -288.96335231820973, 0.0]
['beep', 0.0, -3050.8119524493163, 0.0, 0.0, 0.0, 0.0, -292.5843349199695, 0.0]
['beep', 0.0, -3050.588435004763, 0.0, 0.0, 0.0, 0.0, -293.3889977203605, 0.0]
['beep', 0.0, -3050.2308070934782, 0.0, 0.0, 0.0, 0.0, -293.9701430761985, 0.0]
['beep', 0.0, -3050.9013594271373, 0.0, 0.0, 0.0, 0.0, -291.73496863066777, 0.0]
['beep', 0.0, -3049.247330337445, 0.0, 0.0, 0.0, 0.0, -291.37734071938286, 0.0]
['beep', 0.0, -3049.8731791821933, 0.0, 0.0, 0.0, 0.0, -293.18783202026276, 0.0]
['beep', 0.0, -3050.007289648925, 0.0, 0.0, 0.0, 0.0, -292.5172796866035, 0.0]
['beep', 0.0, -3050.856655938227, 0.0, 0.0, 0.0, 0.0, -291.8020238640337, 0.0]
['beep', 0.0, -3050.588435004763, 0.0, 0.0, 0.0, 0.0, -293.3442942314499, 0.0]
['beep', 0.0, -3048.688536726062, 0.0, 0.0, 0.0, 0.0, -292.1373000308633, 0.0]
['beep', 0.0, -3047.9062256701263, 0.0, 0.0, 0.0, 0.0, -290.4832709411706, 0.0]
['beep', 0.0, -3049.7167169710065, 0.0, 0.0, 0.0, 0.0, -292.114948286408, 0.0]
['beep', 0.0, -3050.7448972159505, 0.0, 0.0, 0.0, 0.0, -292.4725761976929, 0.0]
['beep', 0.0, -3049.314385570811, 0.0, 0.0, 0.0, 0.0, -291.5114511861147, 0.0]
['beep', 0.0, -3050.342565815755, 0.0, 0.0, 0.0, 0.0, -290.7738436190896, 0.0]
['beep', 0.0, -3050.4766762824866, 0.0, 0.0, 0.0, 0.0, -292.1596517753186, 0.0]
['beep', 0.0, -3049.8731791821933, 0.0, 0.0, 0.0, 0.0, -292.1820035197739, 0.0]
['beep', 0.0, -3050.856655938227, 0.0, 0.0, 0.0, 0.0, -288.24809649563986, 0.0]
['beep', 0.0, -3051.1025251272354, 0.0, 0.0, 0.0, 0.0, -287.6445993953466, 0.0]
['beep', 0.0, -3052.3989263056433, 0.0, 0.0, 0.0, 0.0, -287.3540267174276, 0.0]
['beep', 0.0, -3050.946062916048, 0.0, 0.0, 0.0, 0.0, -287.0411022950533, 0.0]
['beep', 0.0, -3050.923711171593, 0.0, 0.0, 0.0, 0.0, -285.4541284387265, 0.0]
['beep', 0.0, -3053.494161783953, 0.0, 0.0, 0.0, 0.0, -286.9740470616874, 0.0]
['beep', 0.0, -3053.4271065505873, 0.0, 0.0, 0.0, 0.0, -288.0916342844527, 0.0]
['beep', 0.0, -3051.8401326942603, 0.0, 0.0, 0.0, 0.0, -287.4657854397041, 0.0]
['beep', 0.0, -3052.0636501388135, 0.0, 0.0, 0.0, 0.0, -285.58823890545835, 0.0]
['beep', 0.0, -3051.4378012940647, 0.0, 0.0, 0.0, 0.0, -284.5600586605142, 0.0]
['beep', 0.0, -3052.0636501388135, 0.0, 0.0, 0.0, 0.0, -285.90116332783265, 0.0]
['beep', 0.0, -3051.2589873384222, 0.0, 0.0, 0.0, 0.0, -285.7447011166455, 0.0]
['beep', 0.0, -3050.990766404959, 0.0, 0.0, 0.0, 0.0, -286.4599569392153, 0.0]
['beep', 0.0, -3050.6107867492187, 0.0, 0.0, 0.0, 0.0, -285.4764801831818, 0.0]
['beep', 0.0, -3049.4261442930874, 0.0, 0.0, 0.0, 0.0, -283.9789133046762, 0.0]
['beep', 0.0, -3049.7614204599167, 0.0, 0.0, 0.0, 0.0, -283.3530644599276, 0.0]
['beep', 0.0, -3049.2026268485342, 0.0, 0.0, 0.0, 0.0, -284.11302377140805, 0.0]
['beep', 0.0, -3049.560254759819, 0.0, 0.0, 0.0, 0.0, -283.6436371378466, 0.0]
['beep', 0.0, -3048.599129748241, 0.0, 0.0, 0.0, 0.0, -282.43664293726005, 0.0]
['beep', 0.0, -3048.1297431146795, 0.0, 0.0, 0.0, 0.0, -281.2072969922182, 0.0]
['beep', 0.0, -3048.5544262593303, 0.0, 0.0, 0.0, 0.0, -282.14607025934106, 0.0]
['beep', 0.0, -3049.4484960375426, 0.0, 0.0, 0.0, 0.0, -282.2801807260729, 0.0]
['beep', 0.0, -3045.9616239025145, 0.0, 0.0, 0.0, 0.0, -282.43664293726005, 0.0]
['beep', 0.0, -3047.2580250809224, 0.0, 0.0, 0.0, 0.0, -282.213125492707, 0.0]
['beep', 0.0, -3047.1239146141907, 0.0, 0.0, 0.0, 0.0, -281.9002010703327, 0.0]
['beep', 0.0, -3045.1346093576685, 0.0, 0.0, 0.0, 0.0, -280.9390760587545, 0.0]
['beep', 0.0, -3047.012155891914, 0.0, 0.0, 0.0, 0.0, -279.70973011371257, 0.0]
['beep', 0.0, -3045.5592925023193, 0.0, 0.0, 0.0, 0.0, -279.59797139143603, 0.0]
['beep', 0.0, -3045.112257613213, 0.0, 0.0, 0.0, 0.0, -279.5532679025254, 0.0]
['beep', 0.0, -3046.1627896026125, 0.0, 0.0, 0.0, 0.0, -279.8661923248997, 0.0]
['beep', 0.0, -3045.671051224596, 0.0, 0.0, 0.0, 0.0, -279.5532679025254, 0.0]
['beep', 0.0, -3046.654527980629, 0.0, 0.0, 0.0, 0.0, -281.14024175885226, 0.0]
['beep', 0.0, -3045.693402969051, 0.0, 0.0, 0.0, 0.0, -282.0119597926092, 0.0]
['beep', 0.0, -3044.5981674907407, 0.0, 0.0, 0.0, 0.0, -281.9002010703327, 0.0]
['beep', 0.0, -3044.017022134903, 0.0, 0.0, 0.0, 0.0, -279.64267488034665, 0.0]
['beep', 0.0, -3044.687574468562, 0.0, 0.0, 0.0, 0.0, -278.5697911464919, 0.0]
['beep', 0.0, -3044.3522983017324, 0.0, 0.0, 0.0, 0.0, -279.66502662480195, 0.0]
['beep', 0.0, -3044.397001790643, 0.0, 0.0, 0.0, 0.0, -279.97795104717625, 0.0]
['beep', 0.0, -3043.502932012431, 0.0, 0.0, 0.0, 0.0, -279.1509365023299, 0.0]
['beep', 0.0, -3044.441705279554, 0.0, 0.0, 0.0, 0.0, -278.9050673133215, 0.0]
['beep', 0.0, -3044.5087605129197, 0.0, 0.0, 0.0, 0.0, -279.7544336026232, 0.0]
['beep', 0.0, -3044.464057024009, 0.0, 0.0, 0.0, 0.0, -279.8214888359891, 0.0]
['beep', 0.0, -3044.240539579456, 0.0, 0.0, 0.0, 0.0, -279.4862126691595, 0.0]
['beep', 0.0, -3044.4193535350983, 0.0, 0.0, 0.0, 0.0, -279.68737836925726, 0.0]
['beep', 0.0, -3044.3299465572773, 0.0, 0.0, 0.0, 0.0, -279.1732882467852, 0.0]
['beep', 0.0, -3044.464057024009, 0.0, 0.0, 0.0, 0.0, -280.04500628054217, 0.0]
['beep', 0.0, -3044.2852430683665, 0.0, 0.0, 0.0, 0.0, -278.8156603355003, 0.0]
['beep', 0.0, -3044.240539579456, 0.0, 0.0, 0.0, 0.0, -278.1898114907517, 0.0]
['beep', 0.0, -3044.039373879358, 0.0, 0.0, 0.0, 0.0, -277.8098318350115, 0.0]
['beep', 0.0, -3043.525283756886, 0.0, 0.0, 0.0, 0.0, -278.0780527684752, 0.0]
['beep', 0.0, -3033.623460963185, 0.0, 0.0, 0.0, 0.0, -46.33516625585154, 0.0]
['beep', 0.0, -3041.044240122347, 0.0, 0.0, 0.0, 0.0, -45.374041244273336, 0.0]
['beep', 0.0, -3039.501969754931, 0.0, 0.0, 0.0, 0.0, -43.720012154580616, 0.0]
['beep', 0.0, -3033.0646673518027, 0.0, 0.0, 0.0, 0.0, -40.88134060875662, 0.0]
['beep', 0.0, -3032.371763273688, 0.0, 0.0, 0.0, 0.0, -38.33324174085161, 0.0]
['beep', 0.0, -3031.947080129037, 0.0, 0.0, 0.0, 0.0, -36.09806729532091, 0.0]
['beep', 0.0, -3032.595280718241, 0.0, 0.0, 0.0, 0.0, -33.84054110533489, 0.0]
['beep', 0.0, -3032.684687696062, 0.0, 0.0, 0.0, 0.0, -31.895939337723178, 0.0]
['beep', 0.0, -3032.6176324626963, 0.0, 0.0, 0.0, 0.0, -29.191378258631023, 0.0]
['beep', 0.0, -3030.5389202283527, 0.0, 0.0, 0.0, 0.0, -27.91732882467852, 0.0]
['beep', 0.0, -3029.019001605392, 0.0, 0.0, 0.0, 0.0, -25.525692167960667, 0.0]
['beep', 0.0, -3029.533091727864, 0.0, 0.0, 0.0, 0.0, -24.229290989552855, 0.0]
['beep', 0.0, -3032.081190595769, 0.0, 0.0, 0.0, 0.0, -23.335221211340574, 0.0]
['beep', 0.0, -3031.5671004732967, 0.0, 0.0, 0.0, 0.0, -22.84348283332382, 0.0]
['beep', 0.0, -3029.3542777722214, 0.0, 0.0, 0.0, 0.0, -20.585956643337806, 0.0]
['beep', 0.0, -3028.1919870605457, 0.0, 0.0, 0.0, 0.0, -20.653011876703726, 0.0]
['beep', 0.0, -3027.521434726886, 0.0, 0.0, 0.0, 0.0, -21.815302588379694, 0.0]
['beep', 0.0, -3029.2201673054897, 0.0, 0.0, 0.0, 0.0, -20.09421826532105, 0.0]
['beep', 0.0, -3027.141455071146, 0.0, 0.0, 0.0, 0.0, -18.730761853547317, 0.0]
['beep', 0.0, -3026.0238678483806, 0.0, 0.0, 0.0, 0.0, -19.513072909483064, 0.0]
['beep', 0.0, -3026.783827159861, 0.0, 0.0, 0.0, 0.0, -16.629697874748455, 0.0]
['beep', 0.0, -3026.0238678483806, 0.0, 0.0, 0.0, 0.0, -14.752151340502662, 0.0]
['beep', 0.0, -3023.1181410691906, 0.0, 0.0, 0.0, 0.0, -14.61804087377082, 0.0]
['beep', 0.0, -3020.5253387123753, 0.0, 0.0, 0.0, 0.0, -12.874604806256869, 0.0]
['beep', 0.0, -3023.1181410691906, 0.0, 0.0, 0.0, 0.0, -12.718142595069718, 0.0]
['beep', 0.0, -3028.9519463720258, 0.0, 0.0, 0.0, 0.0, -13.031067017444018, 0.0]
['beep', 0.0, -3027.2532137934227, 0.0, 0.0, 0.0, 0.0, -9.43243616013958, 0.0]
['beep', 0.0, -3026.4261992485763, 0.0, 0.0, 0.0, 0.0, -10.304154193896556, 0.0]
['beep', 0.0, -3028.750780671928, 0.0, 0.0, 0.0, 0.0, -10.035933260432872, 0.0]
['beep', 0.0, -3029.4883882389536, 0.0, 0.0, 0.0, 0.0, -9.633601860237343, 0.0]
['beep', 0.0, -3027.2532137934227, 0.0, 0.0, 0.0, 0.0, -8.82893905984629, 0.0]
['beep', 0.0, -3024.50394922542, 0.0, 0.0, 0.0, 0.0, -7.4207791591619445, 0.0]
['beep', 0.0, -3024.3921905031434, 0.0, 0.0, 0.0, 0.0, -8.247793704008306, 0.0]
['beep', 0.0, -3028.2813940383667, 0.0, 0.0, 0.0, 0.0, -7.30902043688541, 0.0]
['beep', 0.0, -3030.2036440615234, 0.0, 0.0, 0.0, 0.0, -6.280840191941285, 0.0]
['beep', 0.0, -3030.494216739442, 0.0, 0.0, 0.0, 0.0, -8.381904170740148, 0.0]
['beep', 0.0, -3031.8129696623055, 0.0, 0.0, 0.0, 0.0, -9.05245650439936, 0.0]
['beep', 0.0, -3032.5505772293304, 0.0, 0.0, 0.0, 0.0, -7.510186136983173, 0.0]
['beep', 0.0, -3030.1589405726127, 0.0, 0.0, 0.0, 0.0, -9.633601860237343, 0.0]
['beep', 0.0, -3027.566138215797, 0.0, 0.0, 0.0, 0.0, -9.58889837132673, 0.0]
['beep', 0.0, -3029.8907196391488, 0.0, 0.0, 0.0, 0.0, -9.298325693407739, 0.0]
['beep', 0.0, -3030.3601062727103, 0.0, 0.0, 0.0, 0.0, -10.751189083002696, 0.0]
['beep', 0.0, -3027.7002486825286, 0.0, 0.0, 0.0, 0.0, -9.298325693407739, 0.0]
['beep', 0.0, -3025.9568126150148, 0.0, 0.0, 0.0, 0.0, -9.678305349147958, 0.0]
['beep', 0.0, -3030.9412516285483, 0.0, 0.0, 0.0, 0.0, -10.035933260432872, 0.0]
['beep', 0.0, -3033.1540743296237, 0.0, 0.0, 0.0, 0.0, -9.924174538156336, 0.0]
['beep', 0.0, -3032.729391184973, 0.0, 0.0, 0.0, 0.0, -9.767712326969187, 0.0]
['beep', 0.0, -3032.2153010625007, 0.0, 0.0, 0.0, 0.0, -8.06897974836585, 0.0]
['beep', 0.0, -3032.88585339616, 0.0, 0.0, 0.0, 0.0, -7.979572770544621, 0.0]
['beep', 0.0, -3034.7410481859506, 0.0, 0.0, 0.0, 0.0, -6.929040781145189, 0.0]
['beep', 0.0, -3032.975260373981, 0.0, 0.0, 0.0, 0.0, -5.789101813924529, 0.0]
['beep', 0.0, -3029.9354231280595, 0.0, 0.0, 0.0, 0.0, -5.431473902639616, 0.0]
['beep', 0.0, -3031.365934773199, 0.0, 0.0, 0.0, 0.0, -3.442168646117288, 0.0]
['beep', 0.0, -3030.8741963951825, 0.0, 0.0, 0.0, 0.0, -1.765787811969258, 0.0]
['beep', 0.0, -3029.823664405783, 0.0, 0.0, 0.0, 0.0, -0.08940697782122825, 0.0]
['beep', 0.0, -3032.1929493180455, 0.0, 0.0, 0.0, 0.0, -0.5811453558379837, 0.0]
['beep', 0.0, -3034.852806908227, 0.0, 0.0, 0.0, 0.0, 0.20116570009776358, 0.0]
['beep', 0.0, -3035.7021731975287, 0.0, 0.0, 0.0, 0.0, 2.0340087454329425, 0.0]
['beep', 0.0, -3034.852806908227, 0.0, 0.0, 0.0, 0.0, 1.8998982787011003, 0.0]
['beep', 0.0, -3033.7799231743725, 0.0, 0.0, 0.0, 0.0, 2.481043634539084, 0.0]
['beep', 0.0, -3031.8353214067606, 0.0, 0.0, 0.0, 0.0, 2.145767467709478, 0.0]
['beep', 0.0, -3033.176426074079, 0.0, 0.0, 0.0, 0.0, 1.072883733854739, 0.0]
['beep', 0.0, -3035.7021731975287, 0.0, 0.0, 0.0, 0.0, 3.263354690474831, 0.0]
['beep', 0.0, -3033.176426074079, 0.0, 0.0, 0.0, 0.0, 4.135072724231806, 0.0]
['beep', 0.0, -3029.041353349847, 0.0, 0.0, 0.0, 0.0, 3.263354690474831, 0.0]
['beep', 0.0, -3030.8071411618166, 0.0, 0.0, 0.0, 0.0, 3.3527616682960595, 0.0]
['beep', 0.0, -3035.4116005196097, 0.0, 0.0, 0.0, 0.0, 3.442168646117288, 0.0]
['beep', 0.0, -3035.7021731975287, 0.0, 0.0, 0.0, 0.0, 4.492700635516719, 0.0]
['beep', 0.0, -3031.79061791785, 0.0, 0.0, 0.0, 0.0, 4.000962257499964, 0.0]
['beep', 0.0, -3033.8246266632827, 0.0, 0.0, 0.0, 0.0, 4.023314001955272, 0.0]
['beep', 0.0, -3037.5797197317747, 0.0, 0.0, 0.0, 0.0, 4.246831446508342, 0.0]
['beep', 0.0, -3035.1433795861462, 0.0, 0.0, 0.0, 0.0, 5.431473902639616, 0.0]
['beep', 0.0, -3029.8683678946936, 0.0, 0.0, 0.0, 0.0, 6.258488447485978, 0.0]
['beep', 0.0, -3030.024830105881, 0.0, 0.0, 0.0, 0.0, 5.677343091647994, 0.0]
['beep', 0.0, -3035.2327865639672, 0.0, 0.0, 0.0, 0.0, 6.4373024031284345, 0.0]
['beep', 0.0, -3037.5797197317747, 0.0, 0.0, 0.0, 0.0, 5.789101813924529, 0.0]
['beep', 0.0, -3033.087019096258, 0.0, 0.0, 0.0, 0.0, 5.230308202541853, 0.0]
['beep', 0.0, -3031.8129696623055, 0.0, 0.0, 0.0, 0.0, 7.107854736787646, 0.0]
['beep', 0.0, -3031.9247283845816, 0.0, 0.0, 0.0, 0.0, 7.018447758966418, 0.0]
['beep', 0.0, -3031.947080129037, 0.0, 0.0, 0.0, 0.0, 9.186566971131203, 0.0]
['beep', 0.0, -3033.3552400297217, 0.0, 0.0, 0.0, 0.0, 7.9125175371787, 0.0]
['beep', 0.0, -3031.3882865176543, 0.0, 0.0, 0.0, 0.0, 10.818244316368618, 0.0]
['beep', 0.0, -3028.370801016188, 0.0, 0.0, 0.0, 0.0, 12.136997239231736, 0.0]
['beep', 0.0, -3027.521434726886, 0.0, 0.0, 0.0, 0.0, 12.315811194874192, 0.0]
['beep', 0.0, -3028.2590422939115, 0.0, 0.0, 0.0, 0.0, 11.86877630576805, 0.0]
['beep', 0.0, -3029.443684750043, 0.0, 0.0, 0.0, 0.0, 12.539328639427263, 0.0]
['beep', 0.0, -3035.009269119414, 0.0, 0.0, 0.0, 0.0, 13.053418761899325, 0.0]
['beep', 0.0, -3037.020926120392, 0.0, 0.0, 0.0, 0.0, 12.24875596150827, 0.0]
['beep', 0.0, -3034.271661552389, 0.0, 0.0, 0.0, 0.0, 12.382866428240114, 0.0]
['beep', 0.0, -3033.690516196551, 0.0, 0.0, 0.0, 0.0, 12.78519782843564, 0.0]
['beep', 0.0, -3032.9976121184363, 0.0, 0.0, 0.0, 0.0, 11.48879665002783, 0.0]
['beep', 0.0, -3032.952908629526, 0.0, 0.0, 0.0, 0.0, 11.10881699428761, 0.0]
['beep', 0.0, -3032.1705975735904, 0.0, 0.0, 0.0, 0.0, 11.779369327946823, 0.0]
['beep', 0.0, -3029.6448504501404, 0.0, 0.0, 0.0, 0.0, 10.751189083002696, 0.0]
['beep', 0.0, -3030.494216739442, 0.0, 0.0, 0.0, 0.0, 10.840596060823925, 0.0]
['beep', 0.0, -3033.7128679410066, 0.0, 0.0, 0.0, 0.0, 11.980535028044585, 0.0]
['beep', 0.0, -3036.7527051869283, 0.0, 0.0, 0.0, 0.0, 10.930003038645154, 0.0]
['beep', 0.0, -3033.2881847963554, 0.0, 0.0, 0.0, 0.0, 10.259450704985941, 0.0]
['beep', 0.0, -3028.0578765938135, 0.0, 0.0, 0.0, 0.0, 11.086465249832303, 0.0]
['beep', 0.0, -3027.141455071146, 0.0, 0.0, 0.0, 0.0, 12.47227340606134, 0.0]
['beep', 0.0, -3031.0306586063693, 0.0, 0.0, 0.0, 0.0, 11.600555372304365, 0.0]
['beep', 0.0, -3035.344545286244, 0.0, 0.0, 0.0, 0.0, 11.444093161117216, 0.0]
['beep', 0.0, -3032.2823562958665, 0.0, 0.0, 0.0, 0.0, 14.014543773477529, 0.0]
['beep', 0.0, -3027.40967600461, 0.0, 0.0, 0.0, 0.0, 14.372171684762442, 0.0]
['beep', 0.0, -3030.091885339247, 0.0, 0.0, 0.0, 0.0, 12.0252385169552, 0.0]
['beep', 0.0, -3036.3503737867327, 0.0, 0.0, 0.0, 0.0, 12.338162939329498, 0.0]
['beep', 0.0, -3037.2667953094, 0.0, 0.0, 0.0, 0.0, 12.718142595069718, 0.0]
['beep', 0.0, -3031.1647690731015, 0.0, 0.0, 0.0, 0.0, 11.33233443884068, 0.0]
['beep', 0.0, -3028.9072428831155, 0.0, 0.0, 0.0, 0.0, 11.287630949930067, 0.0]
['beep', 0.0, -3033.4222952630876, 0.0, 0.0, 0.0, 0.0, 11.980535028044585, 0.0]
['beep', 0.0, -3037.758533687417, 0.0, 0.0, 0.0, 0.0, 12.919308295167482, 0.0]
['beep', 0.0, -3033.7352196854617, 0.0, 0.0, 0.0, 0.0, 10.639430360726163, 0.0]
['beep', 0.0, -3030.6506789506293, 0.0, 0.0, 0.0, 0.0, 8.471311148561377, 0.0]
['beep', 0.0, -3032.7070394405177, 0.0, 0.0, 0.0, 0.0, 9.477139649050194, 0.0]
['beep', 0.0, -3034.7633999304057, 0.0, 0.0, 0.0, 0.0, 8.560718126382605, 0.0]
['beep', 0.0, -3032.2823562958665, 0.0, 0.0, 0.0, 0.0, 5.09619773581001, 0.0]
['beep', 0.0, -3032.4164667625987, 0.0, 0.0, 0.0, 0.0, 3.129244223742989, 0.0]
['beep', 0.0, -3033.042315607347, 0.0, 0.0, 0.0, 0.0, 2.2575261899860135, 0.0]
['beep', 0.0, -3032.952908629526, 0.0, 0.0, 0.0, 0.0, 0.06705523336592119, 0.0]
['beep', 0.0, -3031.5223969843864, 0.0, 0.0, 0.0, 0.0, -1.2516976894971954, 0.0]
['beep', 0.0, -3030.091885339247, 0.0, 0.0, 0.0, 0.0, -2.9951337570111463, 0.0]
['beep', 0.0, -3033.4893504964534, 0.0, 0.0, 0.0, 0.0, -4.157424468687114, 0.0]
['beep', 0.0, -3035.724524941984, 0.0, 0.0, 0.0, 0.0, -4.470348891061413, 0.0]
['beep', 0.0, -3033.7352196854617, 0.0, 0.0, 0.0, 0.0, -4.984439013533475, 0.0]
['beep', 0.0, -3031.209472562012, 0.0, 0.0, 0.0, 0.0, -5.453825647094924, 0.0]
['beep', 0.0, -3031.053010350825, 0.0, 0.0, 0.0, 0.0, -4.805625057891018, 0.0]
['beep', 0.0, -3030.985955117459, 0.0, 0.0, 0.0, 0.0, -4.895032035712247, 0.0]
['beep', 0.0, -3030.024830105881, 0.0, 0.0, 0.0, 0.0, -4.537404124427334, 0.0]
['beep', 0.0, -3029.019001605392, 0.0, 0.0, 0.0, 0.0, -3.1515959681982957, 0.0]
['beep', 0.0, -3029.108408583213, 0.0, 0.0, 0.0, 0.0, -2.3245814233519346, 0.0]
['beep', 0.0, -3028.7060771830174, 0.0, 0.0, 0.0, 0.0, -2.190470956620092, 0.0]
['beep', 0.0, -3026.4485509930314, 0.0, 0.0, 0.0, 0.0, -2.6598575901815407, 0.0]
['beep', 0.0, -3030.2483475504337, 0.0, 0.0, 0.0, 0.0, -2.9504302681005323, 0.0]
['beep', 0.0, -3031.209472562012, 0.0, 0.0, 0.0, 0.0, -3.0845407348323746, 0.0]
['beep', 0.0, -3027.141455071146, 0.0, 0.0, 0.0, 0.0, -2.6598575901815407, 0.0]
['beep', 0.0, -3025.2862602813557, 0.0, 0.0, 0.0, 0.0, -2.101063978798864, 0.0]
['beep', 0.0, -3028.12493182718, 0.0, 0.0, 0.0, 0.0, -1.5422703674161873, 0.0]
['beep', 0.0, -3033.8246266632827, 0.0, 0.0, 0.0, 0.0, -0.11175872227653531, 0.0]
['beep', 0.0, -3029.2648707944004, 0.0, 0.0, 0.0, 0.0, -0.15646221118714942, 0.0]
['beep', 0.0, -3026.0015161039255, 0.0, 0.0, 0.0, 0.0, -0.044703488910614125, 0.0]
['beep', 0.0, -3027.40967600461, 0.0, 0.0, 0.0, 0.0, -0.8717180337569754, 0.0]
['beep', 0.0, -3029.6224987056853, 0.0, 0.0, 0.0, 0.0, 0.3799796557402201, 0.0]
['beep', 0.0, -3027.0073446044144, 0.0, 0.0, 0.0, 0.0, 0.49173837801675535, 0.0]
['beep', 0.0, -3025.509777725909, 0.0, 0.0, 0.0, 0.0, -0.6034971002932907, 0.0]
['beep', 0.0, -3024.906280625615, 0.0, 0.0, 0.0, 0.0, -0.5811453558379837, 0.0]
['beep', 0.0, -3028.527263227375, 0.0, 0.0, 0.0, 0.0, -1.9222500231564075, 0.0]
['beep', 0.0, -3030.8741963951825, 0.0, 0.0, 0.0, 0.0, -1.3411046673184237, 0.0]
['beep', 0.0, -3027.5437864713417, 0.0, 0.0, 0.0, 0.0, -0.7823110559357472, 0.0]
['beep', 0.0, -3025.845053892738, 0.0, 0.0, 0.0, 0.0, -1.9446017676117144, 0.0]
['beep', 0.0, -3025.3756672591767, 0.0, 0.0, 0.0, 0.0, -0.49173837801675535, 0.0]
['beep', 0.0, -3024.9286323700708, 0.0, 0.0, 0.0, 0.0, -0.5364418669273695, 0.0]
['beep', 0.0, -3027.119103326691, 0.0, 0.0, 0.0, 0.0, -1.095235478310046, 0.0]
['beep', 0.0, -3027.9684696159925, 0.0, 0.0, 0.0, 0.0, -0.40233140019552716, 0.0]
['beep', 0.0, -3023.0063823469145, 0.0, 0.0, 0.0, 0.0, 0.8493662893016684, 0.0]
['beep', 0.0, -3022.536995713353, 0.0, 0.0, 0.0, 0.0, 0.8270145448463613, 0.0]
['beep', 0.0, -3029.0637050943023, 0.0, 0.0, 0.0, 0.0, 1.363456411773731, 0.0]
['beep', 0.0, -3030.985955117459, 0.0, 0.0, 0.0, 0.0, 1.2964011784078096, 0.0]
['beep', 0.0, -3027.5884899602524, 0.0, 0.0, 0.0, 0.0, 0.3352761668296059, 0.0]
['beep', 0.0, -3024.6157079476966, 0.0, 0.0, 0.0, 0.0, 0.11175872227653531, 0.0]
['beep', 0.0, -3024.7274666699727, 0.0, 0.0, 0.0, 0.0, 0.29057267791899183, 0.0]
['beep', 0.0, -3027.78965566035, 0.0, 0.0, 0.0, 0.0, 0.26822093346368475, 0.0]
['beep', 0.0, -3028.5719667162857, 0.0, 0.0, 0.0, 0.0, 0.31292442237429885, 0.0]
['beep', 0.0, -3027.163806815601, 0.0, 0.0, 0.0, 0.0, 1.2293459450418884, 0.0]
['beep', 0.0, -3025.8674056371938, 0.0, 0.0, 0.0, 0.0, 0.8717180337569754, 0.0]
['beep', 0.0, -3028.4155045050984, 0.0, 0.0, 0.0, 0.0, 1.095235478310046, 0.0]
['beep', 0.0, -3029.2201673054897, 0.0, 0.0, 0.0, 0.0, 1.765787811969258, 0.0]
['beep', 0.0, -3029.6001469612297, 0.0, 0.0, 0.0, 0.0, 1.6093256007821086, 0.0]
['beep', 0.0, -3029.4213330055873, 0.0, 0.0, 0.0, 0.0, 3.0398372459217606, 0.0]
['beep', 0.0, -3027.5437864713417, 0.0, 0.0, 0.0, 0.0, 3.844500046312815, 0.0]
['beep', 0.0, -3029.4883882389536, 0.0, 0.0, 0.0, 0.0, 2.6598575901815407, 0.0]
['beep', 0.0, -3032.1705975735904, 0.0, 0.0, 0.0, 0.0, 3.1515959681982957, 0.0]
['beep', 0.0, -3028.9295946275706, 0.0, 0.0, 0.0, 0.0, 3.4868721350279017, 0.0]
['beep', 0.0, -3026.2250335484787, 0.0, 0.0, 0.0, 0.0, 3.2857064349301384, 0.0]
['beep', 0.0, -3025.4203707480874, 0.0, 0.0, 0.0, 0.0, 4.425645402150798, 0.0]
['beep', 0.0, -3027.052048093325, 0.0, 0.0, 0.0, 0.0, 4.984439013533475, 0.0]
['beep', 0.0, -3030.047181850336, 0.0, 0.0, 0.0, 0.0, 2.905726779189918, 0.0]
['beep', 0.0, -3030.2483475504337, 0.0, 0.0, 0.0, 0.0, 3.8668517907681217, 0.0]
['beep', 0.0, -3029.2201673054897, 0.0, 0.0, 0.0, 0.0, 4.671514591159176, 0.0]
['beep', 0.0, -3027.5437864713417, 0.0, 0.0, 0.0, 0.0, 5.654991347192687, 0.0]
['beep', 0.0, -3027.141455071146, 0.0, 0.0, 0.0, 0.0, 5.677343091647994, 0.0]
['beep', 0.0, -3028.2590422939115, 0.0, 0.0, 0.0, 0.0, 4.1797762131424205, 0.0]
['beep', 0.0, -3031.120065584191, 0.0, 0.0, 0.0, 0.0, 2.145767467709478, 0.0]
['beep', 0.0, -3035.3221935417887, 0.0, 0.0, 0.0, 0.0, 2.190470956620092, 0.0]
['beep', 0.0, -3034.8975103971375, 0.0, 0.0, 0.0, 0.0, 4.649162846703869, 0.0]
['beep', 0.0, -3029.667202194596, 0.0, 0.0, 0.0, 0.0, 4.604459357793255, 0.0]
['beep', 0.0, -3027.052048093325, 0.0, 0.0, 0.0, 0.0, 1.5869738563268014, 0.0]
['beep', 0.0, -3028.013173104903, 0.0, 0.0, 0.0, 0.0, 1.4975668785055731, 0.0]
['beep', 0.0, -3031.656507451118, 0.0, 0.0, 0.0, 0.0, 2.2351744455307063, 0.0]
['beep', 0.0, -3033.60110921873, 0.0, 0.0, 0.0, 0.0, 2.3245814233519346, 0.0]
['beep', 0.0, -3031.4776934954757, 0.0, 0.0, 0.0, 0.0, 3.531575623938516, 0.0]
['beep', 0.0, -3028.527263227375, 0.0, 0.0, 0.0, 0.0, 3.1515959681982957, 0.0]
['beep', 0.0, -3027.767303915895, 0.0, 0.0, 0.0, 0.0, 2.3022296788966274, 0.0]
['beep', 0.0, -3033.399943518632, 0.0, 0.0, 0.0, 0.0, 1.9669535120670214, 0.0]
['beep', 0.0, -3036.3503737867327, 0.0, 0.0, 0.0, 0.0, 2.905726779189918, 0.0]
['beep', 0.0, -3032.684687696062, 0.0, 0.0, 0.0, 0.0, 3.0398372459217606, 0.0]
['beep', 0.0, -3027.3426207712437, 0.0, 0.0, 0.0, 0.0, 2.3692849122625486, 0.0]
['beep', 0.0, -3026.403847504121, 0.0, 0.0, 0.0, 0.0, 3.129244223742989, 0.0]
['beep', 0.0, -3031.991783617948, 0.0, 0.0, 0.0, 0.0, 1.430511645139652, 0.0]
['beep', 0.0, -3035.8139319198053, 0.0, 0.0, 0.0, 0.0, -1.1622907116759673, 0.0]
['beep', 0.0, -3033.4222952630876, 0.0, 0.0, 0.0, 0.0, -1.1622907116759673, 0.0]
['beep', 0.0, -3029.8013126613278, 0.0, 0.0, 0.0, 0.0, 0.31292442237429885, 0.0]
['beep', 0.0, -3029.823664405783, 0.0, 0.0, 0.0, 0.0, -0.15646221118714942, 0.0]
['beep', 0.0, -3031.276527795378, 0.0, 0.0, 0.0, 0.0, -0.6929040781145189, 0.0]
['beep', 0.0, -3034.3834202746657, 0.0, 0.0, 0.0, 0.0, -0.5811453558379837, 0.0]
['beep', 0.0, -3034.2269580634784, 0.0, 0.0, 0.0, 0.0, 1.1846424561312743, 0.0]
['beep', 0.0, -3032.036487106858, 0.0, 0.0, 0.0, 0.0, 1.050531989399432, 0.0]
['beep', 0.0, -3030.047181850336, 0.0, 0.0, 0.0, 0.0, 0.3352761668296059, 0.0]
['beep', 0.0, -3027.521434726886, 0.0, 0.0, 0.0, 0.0, 0.9387732671228967, 0.0]
['beep', 0.0, -3028.3037457828223, 0.0, 0.0, 0.0, 0.0, 2.078712234343557, 0.0]
['beep', 0.0, -3032.3270597847772, 0.0, 0.0, 0.0, 0.0, 3.0398372459217606, 0.0]
['beep', 0.0, -3035.1657313306014, 0.0, 0.0, 0.0, 0.0, 3.598630857304437, 0.0]
['beep', 0.0, -3036.283318553367, 0.0, 0.0, 0.0, 0.0, 4.649162846703869, 0.0]
['beep', 0.0, -3032.2376528069562, 0.0, 0.0, 0.0, 0.0, 4.9397355246228605, 0.0]
['beep', 0.0, -3029.376629516677, 0.0, 0.0, 0.0, 0.0, 4.224479702053035, 0.0]
['beep', 0.0, -3028.2590422939115, 0.0, 0.0, 0.0, 0.0, 5.453825647094924, 0.0]
['beep', 0.0, -3029.1978155610345, 0.0, 0.0, 0.0, 0.0, 6.39259891421782, 0.0]
['beep', 0.0, -3032.1705975735904, 0.0, 0.0, 0.0, 0.0, 7.040799503421725, 0.0]
['beep', 0.0, -3034.338716785755, 0.0, 0.0, 0.0, 0.0, 7.957221026089314, 0.0]
['beep', 0.0, -3032.5058737404197, 0.0, 0.0, 0.0, 0.0, 7.845462303812779, 0.0]
['beep', 0.0, -3031.41063826211, 0.0, 0.0, 0.0, 0.0, 6.034971002932907, 0.0]
['beep', 0.0, -3030.1589405726127, 0.0, 0.0, 0.0, 0.0, 8.583069870837912, 0.0]
['beep', 0.0, -3029.041353349847, 0.0, 0.0, 0.0, 0.0, 7.867814048268086, 0.0]
['beep', 0.0, -3029.2201673054897, 0.0, 0.0, 0.0, 0.0, 6.504357636494356, 0.0]
['beep', 0.0, -3032.662335951607, 0.0, 0.0, 0.0, 0.0, 6.929040781145189, 0.0]
['beep', 0.0, -3034.6739929525847, 0.0, 0.0, 0.0, 0.0, 8.806587315390983, 0.0]
['beep', 0.0, -3034.7633999304057, 0.0, 0.0, 0.0, 0.0, 7.666648348170322, 0.0]
['beep', 0.0, -3032.595280718241, 0.0, 0.0, 0.0, 0.0, 7.890165792723393, 0.0]
['beep', 0.0, -3031.4776934954757, 0.0, 0.0, 0.0, 0.0, 8.717180337569754, 0.0]
['beep', 0.0, -3033.377591774177, 0.0, 0.0, 0.0, 0.0, 9.857119304790414, 0.0]
['beep', 0.0, -3035.344545286244, 0.0, 0.0, 0.0, 0.0, 9.499491393505501, 0.0]
['beep', 0.0, -3033.1317225851685, 0.0, 0.0, 0.0, 0.0, 9.410084415684274, 0.0]
['beep', 0.0, -3031.701210940029, 0.0, 0.0, 0.0, 0.0, 7.68900009262563, 0.0]
['beep', 0.0, -3033.332888285266, 0.0, 0.0, 0.0, 0.0, 8.158386726187079, 0.0]
['beep', 0.0, -3036.305670297822, 0.0, 0.0, 0.0, 0.0, 10.460616405083705, 0.0]
['beep', 0.0, -3035.2327865639672, 0.0, 0.0, 0.0, 0.0, 9.387732671228965, 0.0]
['beep', 0.0, -3032.103542340224, 0.0, 0.0, 0.0, 0.0, 10.34885768280717, 0.0]
['beep', 0.0, -3030.1589405726127, 0.0, 0.0, 0.0, 0.0, 12.159348983687043, 0.0]
['beep', 0.0, -3032.9976121184363, 0.0, 0.0, 0.0, 0.0, 13.54515713991608, 0.0]
['beep', 0.0, -3034.919862141593, 0.0, 0.0, 0.0, 0.0, 12.40521817269542, 0.0]
['beep', 0.0, -3036.2609668089112, 0.0, 0.0, 0.0, 0.0, 12.136997239231736, 0.0]
['beep', 0.0, -3033.7799231743725, 0.0, 0.0, 0.0, 0.0, 11.86877630576805, 0.0]
['beep', 0.0, -3030.3154027837995, 0.0, 0.0, 0.0, 0.0, 11.48879665002783, 0.0]
['beep', 0.0, -3029.175463816579, 0.0, 0.0, 0.0, 0.0, 13.23223271754178, 0.0]
['beep', 0.0, -3030.382458017166, 0.0, 0.0, 0.0, 0.0, 14.372171684762442, 0.0]
['beep', 0.0, -3031.500045239931, 0.0, 0.0, 0.0, 0.0, 13.54515713991608, 0.0]
['beep', 0.0, -3031.053010350825, 0.0, 0.0, 0.0, 0.0, 13.031067017444018, 0.0]
['beep', 0.0, -3030.024830105881, 0.0, 0.0, 0.0, 0.0, 11.399389672206603, 0.0]
['beep', 0.0, -3029.9130713836043, 0.0, 0.0, 0.0, 0.0, 14.953317040600425, 0.0]
['beep', 0.0, -3030.047181850336, 0.0, 0.0, 0.0, 0.0, 16.540290896927225, 0.0]
['beep', 0.0, -3033.534053985364, 0.0, 0.0, 0.0, 0.0, 14.238061218030598, 0.0]
['beep', 0.0, -3033.7799231743725, 0.0, 0.0, 0.0, 0.0, 14.774503084957969, 0.0]
['beep', 0.0, -3034.606937719219, 0.0, 0.0, 0.0, 0.0, 15.333296696340645, 0.0]
['beep', 0.0, -3036.1045045977244, 0.0, 0.0, 0.0, 0.0, 14.416875173673056, 0.0]
['beep', 0.0, -3034.942213886048, 0.0, 0.0, 0.0, 0.0, 15.847386818812707, 0.0]
['beep', 0.0, -3031.209472562012, 0.0, 0.0, 0.0, 0.0, 15.735628096536171, 0.0]
['beep', 0.0, -3030.2706992948893, 0.0, 0.0, 0.0, 0.0, 12.56168038388257, 0.0]
['beep', 0.0, -3032.1705975735904, 0.0, 0.0, 0.0, 0.0, 11.689962350125594, 0.0]
['beep', 0.0, -3036.4621325090093, 0.0, 0.0, 0.0, 0.0, 12.24875596150827, 0.0]
['beep', 0.0, -3036.1939115755454, 0.0, 0.0, 0.0, 0.0, 12.651087361703798, 0.0]
['beep', 0.0, -3033.042315607347, 0.0, 0.0, 0.0, 0.0, 12.360514683784805, 0.0]
['beep', 0.0, -3030.985955117459, 0.0, 0.0, 0.0, 0.0, 12.628735617248491, 0.0]
['beep', 0.0, -3033.332888285266, 0.0, 0.0, 0.0, 0.0, 14.193357729119985, 0.0]
['beep', 0.0, -3032.2823562958665, 0.0, 0.0, 0.0, 0.0, 14.059247262388142, 0.0]
['beep', 0.0, -3033.2881847963554, 0.0, 0.0, 0.0, 0.0, 13.768674584469151, 0.0]
['beep', 0.0, -3032.2823562958665, 0.0, 0.0, 0.0, 0.0, 13.23223271754178, 0.0]
['beep', 0.0, -3029.3542777722214, 0.0, 0.0, 0.0, 0.0, 11.309982694385374, 0.0]
['beep', 0.0, -3030.024830105881, 0.0, 0.0, 0.0, 0.0, 11.019410016466383, 0.0]
['beep', 0.0, -3031.343583028744, 0.0, 0.0, 0.0, 0.0, 12.986363528533403, 0.0]
['beep', 0.0, -3032.2600045514114, 0.0, 0.0, 0.0, 0.0, 10.706485594092083, 0.0]
['beep', 0.0, -3033.2211295629895, 0.0, 0.0, 0.0, 0.0, 8.851290804301597, 0.0]
['beep', 0.0, -3031.6118039622074, 0.0, 0.0, 0.0, 0.0, 9.343029182318352, 0.0]
['beep', 0.0, -3031.3882865176543, 0.0, 0.0, 0.0, 0.0, 6.727875081047426, 0.0]
['beep', 0.0, -3030.3601062727103, 0.0, 0.0, 0.0, 0.0, 7.554889625893787, 0.0]
['beep', 0.0, -3029.734257427962, 0.0, 0.0, 0.0, 0.0, 6.839633803323961, 0.0]
['beep', 0.0, -3031.500045239931, 0.0, 0.0, 0.0, 0.0, 7.487834392527866, 0.0]
['beep', 0.0, -3033.5564057298193, 0.0, 0.0, 0.0, 0.0, 5.275011691452467, 0.0]
['beep', 0.0, -3034.2940132968442, 0.0, 0.0, 0.0, 0.0, 2.7716163124580757, 0.0]
['beep', 0.0, -3033.7128679410066, 0.0, 0.0, 0.0, 0.0, 1.7434360675139509, 0.0]
['beep', 0.0, -3033.7352196854617, 0.0, 0.0, 0.0, 0.0, 1.2964011784078096, 0.0]
['beep', 0.0, -3031.947080129037, 0.0, 0.0, 0.0, 0.0, 0.357627911284913, 0.0]
['beep', 0.0, -3031.142417328646, 0.0, 0.0, 0.0, 0.0, -1.050531989399432, 0.0]
['beep', 0.0, -3034.3163650413, 0.0, 0.0, 0.0, 0.0, -0.8046628003910543, 0.0]
['beep', 0.0, -3034.2940132968442, 0.0, 0.0, 0.0, 0.0, -1.9893052565223286, 0.0]
['beep', 0.0, -3032.6176324626963, 0.0, 0.0, 0.0, 0.0, -1.810491300879872, 0.0]
['beep', 0.0, -3034.3834202746657, 0.0, 0.0, 0.0, 0.0, -0.3352761668296059, 0.0]
['beep', 0.0, -3035.1657313306014, 0.0, 0.0, 0.0, 0.0, -0.022351744455307063, 0.0]
['beep', 0.0, -3035.1657313306014, 0.0, 0.0, 0.0, 0.0, -1.1399389672206601, 0.0]
['beep', 0.0, -3036.082152853269, 0.0, 0.0, 0.0, 0.0, -0.49173837801675535, 0.0]
['beep', 0.0, -3035.880987153171, 0.0, 0.0, 0.0, 0.0, 0.31292442237429885, 0.0]
['beep', 0.0, -3035.6127662197073, 0.0, 0.0, 0.0, 0.0, 0.31292442237429885, 0.0]
['beep', 0.0, -3036.7974086758386, 0.0, 0.0, 0.0, 0.0, -0.7376075670251331, 0.0]
['beep', 0.0, -3036.953870887026, 0.0, 0.0, 0.0, 0.0, -1.2516976894971954, 0.0]
['beep', 0.0, -3036.1715598310902, 0.0, 0.0, 0.0, 0.0, -0.40233140019552716, 0.0]
['beep', 0.0, -3032.595280718241, 0.0, 0.0, 0.0, 0.0, -0.6929040781145189, 0.0]
['beep', 0.0, -3031.723562684484, 0.0, 0.0, 0.0, 0.0, -1.8551947897904861, 0.0]
['beep', 0.0, -3031.0977138397357, 0.0, 0.0, 0.0, 0.0, -0.8493662893016684, 0.0]
['beep', 0.0, -3030.3601062727103, 0.0, 0.0, 0.0, 0.0, -1.050531989399432, 0.0]
['beep', 0.0, -3029.4883882389536, 0.0, 0.0, 0.0, 0.0, -0.46938663356144833, 0.0]
['beep', 0.0, -3028.460207994009, 0.0, 0.0, 0.0, 0.0, -0.26822093346368475, 0.0]
['beep', 0.0, -3031.0306586063693, 0.0, 0.0, 0.0, 0.0, -2.0340087454329425, 0.0]
['beep', 0.0, -3033.2211295629895, 0.0, 0.0, 0.0, 0.0, -3.553927368393823, 0.0]
['beep', 0.0, -3034.919862141593, 0.0, 0.0, 0.0, 0.0, -4.671514591159176, 0.0]
['beep', 0.0, -3034.7633999304057, 0.0, 0.0, 0.0, 0.0, -5.85615704729045, 0.0]
['beep', 0.0, -3034.3163650413, 0.0, 0.0, 0.0, 0.0, -8.001924514999928, 0.0]
['beep', 0.0, -3033.087019096258, 0.0, 0.0, 0.0, 0.0, -10.102988493798792, 0.0]
['beep', 0.0, -3033.891681896649, 0.0, 0.0, 0.0, 0.0, -12.539328639427263, 0.0]
['beep', 0.0, -3035.009269119414, 0.0, 0.0, 0.0, 0.0, -14.841558318323889, 0.0]
['beep', 0.0, -3034.1375510856574, 0.0, 0.0, 0.0, 0.0, -15.288593207430031, 0.0]
['beep', 0.0, -3034.8304551637716, 0.0, 0.0, 0.0, 0.0, -17.412008930684202, 0.0]
['beep', 0.0, -3031.701210940029, 0.0, 0.0, 0.0, 0.0, -20.831825832346183, 0.0]
['beep', 0.0, -3028.527263227375, 0.0, 0.0, 0.0, 0.0, -23.96107005608917, 0.0]
['beep', 0.0, -3037.333850542766, 0.0, 0.0, 0.0, 0.0, -27.000907302010933, 0.0]
['beep', 0.0, -3043.100600612235, 0.0, 0.0, 0.0, 0.0, -31.962994571089098, 0.0]
['beep', 0.0, -3047.638004736663, 0.0, 0.0, 0.0, 0.0, -37.640337662737096, 0.0]
['beep', 0.0, -3049.917882671104, 0.0, 0.0, 0.0, 0.0, -42.15539004270912, 0.0]
['beep', 0.0, -3053.3600513172214, 0.0, 0.0, 0.0, 0.0, -47.51980871198282, 0.0]
['beep', 0.0, -3054.0082519064254, 0.0, 0.0, 0.0, 0.0, -52.95128261462243, 0.0]
['beep', 0.0, -3052.0636501388135, 0.0, 0.0, 0.0, 0.0, -58.76273617300227, 0.0]
['beep', 0.0, -3050.297862326844, 0.0, 0.0, 0.0, 0.0, -62.674291452681004, 0.0]
['beep', 0.0, -3049.917882671104, 0.0, 0.0, 0.0, 0.0, -67.45756476611672, 0.0]
['beep', 0.0, -3048.7108884705176, 0.0, 0.0, 0.0, 0.0, -71.5032305125273, 0.0]
['beep', 0.0, -3047.638004736663, 0.0, 0.0, 0.0, 0.0, -77.04646313744344, 0.0]
['beep', 0.0, -3049.4708477819977, 0.0, 0.0, 0.0, 0.0, -81.60621900632609, 0.0]
['beep', 0.0, -3050.1190483712016, 0.0, 0.0, 0.0, 0.0, -86.25538185302996, 0.0]
['beep', 0.0, -3049.5826065042743, 0.0, 0.0, 0.0, 0.0, -92.44681506715001, 0.0]
['beep', 0.0, -3049.314385570811, 0.0, 0.0, 0.0, 0.0, -96.96186744712203, 0.0]
['beep', 0.0, -3048.5097227704196, 0.0, 0.0, 0.0, 0.0, -101.45456808263876, 0.0]
['beep', 0.0, -3048.599129748241, 0.0, 0.0, 0.0, 0.0, -105.88021348478955, 0.0]
['beep', 0.0, -3048.1297431146795, 0.0, 0.0, 0.0, 0.0, -110.1046931868426, 0.0]
['beep', 0.0, -3048.085039625769, 0.0, 0.0, 0.0, 0.0, -113.14453043276436, 0.0]
['beep', 0.0, -3048.1297431146795, 0.0, 0.0, 0.0, 0.0, -117.59252757937045, 0.0]
['beep', 0.0, -3048.979109403981, 0.0, 0.0, 0.0, 0.0, -121.8617107703341, 0.0]
['beep', 0.0, -3049.4708477819977, 0.0, 0.0, 0.0, 0.0, -123.1134084598313, 0.0]
['beep', 0.0, -3048.1297431146795, 0.0, 0.0, 0.0, 0.0, -125.08036197189833, 0.0]
['beep', 0.0, -3048.532074514875, 0.0, 0.0, 0.0, 0.0, -127.94138526217763, 0.0]
['beep', 0.0, -3049.0685163818025, 0.0, 0.0, 0.0, 0.0, -131.2941469304737, 0.0]
['beep', 0.0, -3049.023812892892, 0.0, 0.0, 0.0, 0.0, -133.14934172026418, 0.0]
['beep', 0.0, -3049.0908681262576, 0.0, 0.0, 0.0, 0.0, -134.84807429886752, 0.0]
['beep', 0.0, -3048.5097227704196, 0.0, 0.0, 0.0, 0.0, -135.94330977717755, 0.0]
['beep', 0.0, -3048.2638535814112, 0.0, 0.0, 0.0, 0.0, -136.7256208331133, 0.0]
['beep', 0.0, -3049.247330337445, 0.0, 0.0, 0.0, 0.0, -137.0385452554876, 0.0]
['beep', 0.0, -3049.940234415559, 0.0, 0.0, 0.0, 0.0, -139.38547842329484, 0.0]
['beep', 0.0, -3050.4319727935763, 0.0, 0.0, 0.0, 0.0, -139.65369935675852, 0.0]
['beep', 0.0, -3049.046164637347, 0.0, 0.0, 0.0, 0.0, -139.65369935675852, 0.0]
['beep', 0.0, -3046.8556936807267, 0.0, 0.0, 0.0, 0.0, -140.57012087942613, 0.0]
['beep', 0.0, -3046.006327391425, 0.0, 0.0, 0.0, 0.0, -138.9384435341887, 0.0]
['beep', 0.0, -3047.2133215920117, 0.0, 0.0, 0.0, 0.0, -139.72075459012444, 0.0]
['beep', 0.0, -3047.392135547654, 0.0, 0.0, 0.0, 0.0, -138.960795278644, 0.0]
['beep', 0.0, -3046.028679135881, 0.0, 0.0, 0.0, 0.0, -138.9384435341887, 0.0]
['beep', 0.0, -3045.067554124302, 0.0, 0.0, 0.0, 0.0, -139.67605110121383, 0.0]
['beep', 0.0, -3043.9052634126265, 0.0, 0.0, 0.0, 0.0, -140.10073424586466, 0.0]
['beep', 0.0, -3043.8605599237158, 0.0, 0.0, 0.0, 0.0, -141.1065627463535, 0.0]
['beep', 0.0, -3042.5418070008527, 0.0, 0.0, 0.0, 0.0, -142.84999881386744, 0.0]
['beep', 0.0, -3040.88777791116, 0.0, 0.0, 0.0, 0.0, -142.87235055832275, 0.0]
['beep', 0.0, -3040.4854465109643, 0.0, 0.0, 0.0, 0.0, -143.3640889363395, 0.0]
['beep', 0.0, -3040.7760191888833, 0.0, 0.0, 0.0, 0.0, -143.20762672515235, 0.0]
['beep', 0.0, -3041.4242197780873, 0.0, 0.0, 0.0, 0.0, -143.52055114752665, 0.0]
['beep', 0.0, -3041.3124610558107, 0.0, 0.0, 0.0, 0.0, -143.78877208099033, 0.0]
['beep', 0.0, -3040.530149999875, 0.0, 0.0, 0.0, 0.0, -145.21928372613, 0.0]
['beep', 0.0, -3039.949004644037, 0.0, 0.0, 0.0, 0.0, -146.00159478206572, 0.0]
['beep', 0.0, -3040.217225577501, 0.0, 0.0, 0.0, 0.0, -146.69449886018026, 0.0]
['beep', 0.0, -3040.083115110769, 0.0, 0.0, 0.0, 0.0, -146.64979537126965, 0.0]
['beep', 0.0, -3040.530149999875, 0.0, 0.0, 0.0, 0.0, -147.05212677146517, 0.0]
['beep', 0.0, -3040.9995366334365, 0.0, 0.0, 0.0, 0.0, -147.54386514948192, 0.0]
['beep', 0.0, -3041.2677575669004, 0.0, 0.0, 0.0, 0.0, -147.87914131631152, 0.0]
['beep', 0.0, -3042.6759174675844, 0.0, 0.0, 0.0, 0.0, -149.33200470590648, 0.0]
['beep', 0.0, -3044.039373879358, 0.0, 0.0, 0.0, 0.0, -151.3213099624288, 0.0]
['beep', 0.0, -3044.2181878350007, 0.0, 0.0, 0.0, 0.0, -150.606054139859, 0.0]
['beep', 0.0, -3044.2852430683665, 0.0, 0.0, 0.0, 0.0, -149.3543564503618, 0.0]
['beep', 0.0, -3043.6146907347074, 0.0, 0.0, 0.0, 0.0, -150.42724018421654, 0.0]
['beep', 0.0, -3043.8382081792606, 0.0, 0.0, 0.0, 0.0, -150.6507576287696, 0.0]
['beep', 0.0, -3045.7381064579617, 0.0, 0.0, 0.0, 0.0, -153.06474602994277, 0.0]
['beep', 0.0, -3045.5145890134086, 0.0, 0.0, 0.0, 0.0, -153.5341326635042, 0.0]
['beep', 0.0, -3045.425182035587, 0.0, 0.0, 0.0, 0.0, -152.863580329845, 0.0]
['beep', 0.0, -3045.2016645910344, 0.0, 0.0, 0.0, 0.0, -153.66824313023605, 0.0]
['beep', 0.0, -3046.6768797250843, 0.0, 0.0, 0.0, 0.0, -154.04822278597626, 0.0]
['beep', 0.0, -3047.146266358646, 0.0, 0.0, 0.0, 0.0, -153.26591173004053, 0.0]
['beep', 0.0, -3046.9674524030033, 0.0, 0.0, 0.0, 0.0, -153.98116755261034, 0.0]
['beep', 0.0, -3046.073382624791, 0.0, 0.0, 0.0, 0.0, -153.4894291745936, 0.0]
['beep', 0.0, -3045.715754713506, 0.0, 0.0, 0.0, 0.0, -154.7634786085461, 0.0]
['beep', 0.0, -3045.3581268022212, 0.0, 0.0, 0.0, 0.0, -157.669205387736, 0.0]
['beep', 0.0, -3046.028679135881, 0.0, 0.0, 0.0, 0.0, -154.7411268640908, 0.0]
['beep', 0.0, -3047.5262460143863, 0.0, 0.0, 0.0, 0.0, -153.8247053414232, 0.0]
['beep', 0.0, -3045.671051224596, 0.0, 0.0, 0.0, 0.0, -154.1599815082528, 0.0]
['beep', 0.0, -3043.882911668171, 0.0, 0.0, 0.0, 0.0, -154.4282024417165, 0.0]
['beep', 0.0, -3045.782809946872, 0.0, 0.0, 0.0, 0.0, -156.3281007204176, 0.0]
['beep', 0.0, -3047.07921112528, 0.0, 0.0, 0.0, 0.0, -157.22217049862988, 0.0]
['beep', 0.0, -3046.5427692583526, 0.0, 0.0, 0.0, 0.0, -155.83636234240083, 0.0]
['beep', 0.0, -3046.0957343692467, 0.0, 0.0, 0.0, 0.0, -156.0151762980433, 0.0]
['beep', 0.0, -3045.8722169246935, 0.0, 0.0, 0.0, 0.0, -157.37863270981703, 0.0]
['beep', 0.0, -3046.6768797250843, 0.0, 0.0, 0.0, 0.0, -157.37863270981703, 0.0]
['beep', 0.0, -3047.146266358646, 0.0, 0.0, 0.0, 0.0, -157.9374263211997, 0.0]
['beep', 0.0, -3047.2580250809224, 0.0, 0.0, 0.0, 0.0, -157.9821298101103, 0.0]
['beep', 0.0, -3045.782809946872, 0.0, 0.0, 0.0, 0.0, -159.41264145524997, 0.0]
['beep', 0.0, -3045.626347735685, 0.0, 0.0, 0.0, 0.0, -160.1949525111857, 0.0]
['beep', 0.0, -3046.565121002808, 0.0, 0.0, 0.0, 0.0, -160.08319378890917, 0.0]
['beep', 0.0, -3046.922748914093, 0.0, 0.0, 0.0, 0.0, -159.25617924406282, 0.0]
['beep', 0.0, -3047.280376825378, 0.0, 0.0, 0.0, 0.0, -157.71390887664663, 0.0]
['beep', 0.0, -3046.006327391425, 0.0, 0.0, 0.0, 0.0, -157.9374263211997, 0.0]
['beep', 0.0, -3045.782809946872, 0.0, 0.0, 0.0, 0.0, -159.41264145524997, 0.0]
['beep', 0.0, -3046.2521965804335, 0.0, 0.0, 0.0, 0.0, -159.72556587762426, 0.0]
['beep', 0.0, -3046.073382624791, 0.0, 0.0, 0.0, 0.0, -159.61380715534773, 0.0]
['beep', 0.0, -3045.98397564697, 0.0, 0.0, 0.0, 0.0, -160.86550484484493, 0.0]
['beep', 0.0, -3046.2521965804335, 0.0, 0.0, 0.0, 0.0, -161.20078101167454, 0.0]
['beep', 0.0, -3044.106429112724, 0.0, 0.0, 0.0, 0.0, -160.61963565583656, 0.0]
['beep', 0.0, -3043.8382081792606, 0.0, 0.0, 0.0, 0.0, -161.62546415632536, 0.0]
['beep', 0.0, -3044.978147146481, 0.0, 0.0, 0.0, 0.0, -161.20078101167454, 0.0]
['beep', 0.0, -3044.0617256238133, 0.0, 0.0, 0.0, 0.0, -161.29018798949576, 0.0]
['beep', 0.0, -3044.665222724107, 0.0, 0.0, 0.0, 0.0, -159.72556587762426, 0.0]
['beep', 0.0, -3045.626347735685, 0.0, 0.0, 0.0, 0.0, -159.23382749960751, 0.0]
['beep', 0.0, -3048.308557070322, 0.0, 0.0, 0.0, 0.0, -158.45151644367178, 0.0]
['beep', 0.0, -3044.017022134903, 0.0, 0.0, 0.0, 0.0, -158.94325482168853, 0.0]
['beep', 0.0, -3039.07728661028, 0.0, 0.0, 0.0, 0.0, -155.00934779755448, 0.0]
['beep', 0.0, -3036.0374493643585, 0.0, 0.0, 0.0, 0.0, -154.4282024417165, 0.0]
['beep', 0.0, -3035.366897030699, 0.0, 0.0, 0.0, 0.0, -152.46124892964949, 0.0]
['beep', 0.0, -3036.7527051869283, 0.0, 0.0, 0.0, 0.0, -152.05891752945394, 0.0]
['beep', 0.0, -3035.8362836642605, 0.0, 0.0, 0.0, 0.0, -152.19302799618578, 0.0]
['beep', 0.0, -3036.216263320001, 0.0, 0.0, 0.0, 0.0, -150.9189785622333, 0.0]
['beep', 0.0, -3035.970394130992, 0.0, 0.0, 0.0, 0.0, -151.47777217361596, 0.0]
['beep', 0.0, -3036.2609668089112, 0.0, 0.0, 0.0, 0.0, -153.42237394122768, 0.0]
['beep', 0.0, -3036.596242975741, 0.0, 0.0, 0.0, 0.0, -151.03073728450983, 0.0]
['beep', 0.0, -3036.663298209107, 0.0, 0.0, 0.0, 0.0, -151.67893787371372, 0.0]
['beep', 0.0, -3036.4174290200986, 0.0, 0.0, 0.0, 0.0, -151.9695105516327, 0.0]
['beep', 0.0, -3035.9033388976263, 0.0, 0.0, 0.0, 0.0, -151.76834485153495, 0.0]
['beep', 0.0, -3035.8139319198053, 0.0, 0.0, 0.0, 0.0, -152.43889718519418, 0.0]
['beep', 0.0, -3036.1492080866346, 0.0, 0.0, 0.0, 0.0, -153.98116755261034, 0.0]
['beep', 0.0, -3036.238615064456, 0.0, 0.0, 0.0, 0.0, -154.24938848607405, 0.0]
['beep', 0.0, -3034.942213886048, 0.0, 0.0, 0.0, 0.0, -153.28826347449584, 0.0]
['beep', 0.0, -3034.942213886048, 0.0, 0.0, 0.0, 0.0, -151.99186229608802, 0.0]
['beep', 0.0, -3036.4621325090093, 0.0, 0.0, 0.0, 0.0, -152.32713846291765, 0.0]
['beep', 0.0, -3036.3950772756434, 0.0, 0.0, 0.0, 0.0, -154.85288558636734, 0.0]
['beep', 0.0, -3036.082152853269, 0.0, 0.0, 0.0, 0.0, -154.4282024417165, 0.0]
['beep', 0.0, -3035.948042386537, 0.0, 0.0, 0.0, 0.0, -154.51760941953773, 0.0]
['beep', 0.0, -3036.305670297822, 0.0, 0.0, 0.0, 0.0, -154.24938848607405, 0.0]
['beep', 0.0, -3036.305670297822, 0.0, 0.0, 0.0, 0.0, -155.16581000874163, 0.0]
['beep', 0.0, -3035.2327865639672, 0.0, 0.0, 0.0, 0.0, -154.3834989528059, 0.0]
['beep', 0.0, -3035.1657313306014, 0.0, 0.0, 0.0, 0.0, -152.97533905212154, 0.0]
['beep', 0.0, -3034.562234230308, 0.0, 0.0, 0.0, 0.0, -152.12597276281986, 0.0]
['beep', 0.0, -3033.7128679410066, 0.0, 0.0, 0.0, 0.0, -151.50012391807127, 0.0]
['beep', 0.0, -3034.1375510856574, 0.0, 0.0, 0.0, 0.0, -150.87427507332268, 0.0]
['beep', 0.0, -3034.3834202746657, 0.0, 0.0, 0.0, 0.0, -152.14832450727516, 0.0]
['beep', 0.0, -3034.5175307413974, 0.0, 0.0, 0.0, 0.0, -152.30478671846234, 0.0]
['beep', 0.0, -3034.003440618925, 0.0, 0.0, 0.0, 0.0, -153.75765010805728, 0.0]
['beep', 0.0, -3034.7857516748613, 0.0, 0.0, 0.0, 0.0, -153.02004254103215, 0.0]
['beep', 0.0, -3033.7799231743725, 0.0, 0.0, 0.0, 0.0, -151.67893787371372, 0.0]
['beep', 0.0, -3033.109370840713, 0.0, 0.0, 0.0, 0.0, -152.99769079657685, 0.0]
['beep', 0.0, -3034.4504755080316, 0.0, 0.0, 0.0, 0.0, -152.8859320743003, 0.0]
['beep', 0.0, -3034.69634469704, 0.0, 0.0, 0.0, 0.0, -152.28243497400703, 0.0]
['beep', 0.0, -3034.3834202746657, 0.0, 0.0, 0.0, 0.0, -152.26008322955173, 0.0]
['beep', 0.0, -3034.651641208129, 0.0, 0.0, 0.0, 0.0, -152.14832450727516, 0.0]
['beep', 0.0, -3035.635117964163, 0.0, 0.0, 0.0, 0.0, -152.21537974064108, 0.0]
['beep', 0.0, -3033.668164452096, 0.0, 0.0, 0.0, 0.0, -152.8188768409344, 0.0]
['beep', 0.0, -3033.914033641104, 0.0, 0.0, 0.0, 0.0, -152.39419369628357, 0.0]
['beep', 0.0, -3034.249309807934, 0.0, 0.0, 0.0, 0.0, -152.64006288529194, 0.0]
['beep', 0.0, -3032.88585339616, 0.0, 0.0, 0.0, 0.0, -151.81304834044556, 0.0]
['beep', 0.0, -3033.8469784077383, 0.0, 0.0, 0.0, 0.0, -152.21537974064108, 0.0]
['beep', 0.0, -3034.651641208129, 0.0, 0.0, 0.0, 0.0, -151.14249600678636, 0.0]
['beep', 0.0, -3034.338716785755, 0.0, 0.0, 0.0, 0.0, -152.12597276281986, 0.0]
['beep', 0.0, -3035.5457109863414, 0.0, 0.0, 0.0, 0.0, -151.5895308958925, 0.0]
['beep', 0.0, -3034.2940132968442, 0.0, 0.0, 0.0, 0.0, -151.83540008490087, 0.0]
['beep', 0.0, -3034.3834202746657, 0.0, 0.0, 0.0, 0.0, -152.64006288529194, 0.0]
['beep', 0.0, -3035.8362836642605, 0.0, 0.0, 0.0, 0.0, -152.64006288529194, 0.0]
['beep', 0.0, -3036.7080016980176, 0.0, 0.0, 0.0, 0.0, -152.7965250964791, 0.0]
['beep', 0.0, -3034.8081034193165, 0.0, 0.0, 0.0, 0.0, -154.11527801934218, 0.0]
['beep', 0.0, -3034.2940132968442, 0.0, 0.0, 0.0, 0.0, -153.1765047522193, 0.0]
['beep', 0.0, -3035.277490052878, 0.0, 0.0, 0.0, 0.0, -153.8694088303338, 0.0]
['beep', 0.0, -3035.6127662197073, 0.0, 0.0, 0.0, 0.0, -154.04822278597626, 0.0]
['beep', 0.0, -3035.5457109863414, 0.0, 0.0, 0.0, 0.0, -153.4670774301383, 0.0]
['beep', 0.0, -3034.36106853021, 0.0, 0.0, 0.0, 0.0, -154.49525767508243, 0.0]
['beep', 0.0, -3033.399943518632, 0.0, 0.0, 0.0, 0.0, -153.04239428548746, 0.0]
['beep', 0.0, -3032.461170251509, 0.0, 0.0, 0.0, 0.0, -153.69059487469136, 0.0]
['beep', 0.0, -3033.8469784077383, 0.0, 0.0, 0.0, 0.0, -154.85288558636734, 0.0]
['beep', 0.0, -3034.405772019121, 0.0, 0.0, 0.0, 0.0, -154.33879546389528, 0.0]
['beep', 0.0, -3032.6399842071514, 0.0, 0.0, 0.0, 0.0, -154.4282024417165, 0.0]
['beep', 0.0, -3033.2658330519002, 0.0, 0.0, 0.0, 0.0, -154.24938848607405, 0.0]
['beep', 0.0, -3033.109370840713, 0.0, 0.0, 0.0, 0.0, -153.8023535969679, 0.0]
['beep', 0.0, -3033.042315607347, 0.0, 0.0, 0.0, 0.0, -153.55648440795952, 0.0]
['beep', 0.0, -3033.5117022409086, 0.0, 0.0, 0.0, 0.0, -152.03656578499863, 0.0]
['beep', 0.0, -3032.751742929428, 0.0, 0.0, 0.0, 0.0, -153.10944951885338, 0.0]
['beep', 0.0, -3031.701210940029, 0.0, 0.0, 0.0, 0.0, -153.24355998558522, 0.0]
['beep', 0.0, -3031.8129696623055, 0.0, 0.0, 0.0, 0.0, -153.1988564966746, 0.0]
['beep', 0.0, -3032.9976121184363, 0.0, 0.0, 0.0, 0.0, -155.0316995420098, 0.0]
['beep', 0.0, -3033.98108887447, 0.0, 0.0, 0.0, 0.0, -153.64589138578074, 0.0]
['beep', 0.0, -3033.5564057298193, 0.0, 0.0, 0.0, 0.0, -153.42237394122768, 0.0]
['beep', 0.0, -3034.1599028301125, 0.0, 0.0, 0.0, 0.0, -152.14832450727516, 0.0]
['beep', 0.0, -3033.8469784077383, 0.0, 0.0, 0.0, 0.0, -150.67310937322492, 0.0]
['beep', 0.0, -3034.4504755080316, 0.0, 0.0, 0.0, 0.0, -152.70711811865786, 0.0]
['beep', 0.0, -3034.3834202746657, 0.0, 0.0, 0.0, 0.0, -152.21537974064108, 0.0]
['beep', 0.0, -3033.5787574742744, 0.0, 0.0, 0.0, 0.0, -151.5671791514372, 0.0]
['beep', 0.0, -3033.466998751998, 0.0, 0.0, 0.0, 0.0, -151.12014426233105, 0.0]
['beep', 0.0, -3035.299841797333, 0.0, 0.0, 0.0, 0.0, -150.51664716203777, 0.0]
['beep', 0.0, -3035.2551383084224, 0.0, 0.0, 0.0, 0.0, -151.14249600678636, 0.0]
['beep', 0.0, -3035.6127662197073, 0.0, 0.0, 0.0, 0.0, -152.72946986311317, 0.0]
['beep', 0.0, -3035.657469708618, 0.0, 0.0, 0.0, 0.0, -152.5283041630154, 0.0]
['beep', 0.0, -3034.562234230308, 0.0, 0.0, 0.0, 0.0, -151.5671791514372, 0.0]
['beep', 0.0, -3034.7410481859506, 0.0, 0.0, 0.0, 0.0, -152.32713846291765, 0.0]
['beep', 0.0, -3035.590414475252, 0.0, 0.0, 0.0, 0.0, -152.14832450727516, 0.0]
['beep', 0.0, -3036.7527051869283, 0.0, 0.0, 0.0, 0.0, -152.12597276281986, 0.0]
['beep', 0.0, -3036.082152853269, 0.0, 0.0, 0.0, 0.0, -152.19302799618578, 0.0]
['beep', 0.0, -3034.606937719219, 0.0, 0.0, 0.0, 0.0, -152.8188768409344, 0.0]
['beep', 0.0, -3033.914033641104, 0.0, 0.0, 0.0, 0.0, -154.80818209745672, 0.0]
['beep', 0.0, -3033.5564057298193, 0.0, 0.0, 0.0, 0.0, -153.8247053414232, 0.0]
['beep', 0.0, -3030.762437672906, 0.0, 0.0, 0.0, 0.0, -153.98116755261034, 0.0]
['beep', 0.0, -3029.8907196391488, 0.0, 0.0, 0.0, 0.0, -151.5895308958925, 0.0]
['beep', 0.0, -3028.4825597384647, 0.0, 0.0, 0.0, 0.0, -151.20955124015228, 0.0]
['beep', 0.0, -3029.2872225388555, 0.0, 0.0, 0.0, 0.0, -151.14249600678636, 0.0]
['beep', 0.0, -3031.5447487288416, 0.0, 0.0, 0.0, 0.0, -149.55552215045955, 0.0]
['beep', 0.0, -3033.757571429917, 0.0, 0.0, 0.0, 0.0, -150.82957158441207, 0.0]
['beep', 0.0, -3033.668164452096, 0.0, 0.0, 0.0, 0.0, -152.2377314850964, 0.0]
['beep', 0.0, -3033.958737130015, 0.0, 0.0, 0.0, 0.0, -151.2989582179735, 0.0]
['beep', 0.0, -3034.6739929525847, 0.0, 0.0, 0.0, 0.0, -150.42724018421654, 0.0]
['beep', 0.0, -3035.568062730797, 0.0, 0.0, 0.0, 0.0, -150.89662681777799, 0.0]
['beep', 0.0, -3034.629289463674, 0.0, 0.0, 0.0, 0.0, -152.72946986311317, 0.0]
['beep', 0.0, -3034.7410481859506, 0.0, 0.0, 0.0, 0.0, -151.81304834044556, 0.0]
['beep', 0.0, -3034.3834202746657, 0.0, 0.0, 0.0, 0.0, -150.9413303066886, 0.0]
['beep', 0.0, -3034.0704958522915, 0.0, 0.0, 0.0, 0.0, -151.36601345133943, 0.0]
['beep', 0.0, -3036.238615064456, 0.0, 0.0, 0.0, 0.0, -152.5059524185601, 0.0]
['beep', 0.0, -3035.5457109863414, 0.0, 0.0, 0.0, 0.0, -151.65658612925841, 0.0]
['beep', 0.0, -3035.6798214530736, 0.0, 0.0, 0.0, 0.0, -152.19302799618578, 0.0]
['beep', 0.0, -3035.590414475252, 0.0, 0.0, 0.0, 0.0, -151.2989582179735, 0.0]
['beep', 0.0, -3035.1880830750565, 0.0, 0.0, 0.0, 0.0, -151.67893787371372, 0.0]
['beep', 0.0, -3036.6409464646517, 0.0, 0.0, 0.0, 0.0, -151.85775182935618, 0.0]
['beep', 0.0, -3037.4232575205874, 0.0, 0.0, 0.0, 0.0, -152.19302799618578, 0.0]
['beep', 0.0, -3036.5068359979196, 0.0, 0.0, 0.0, 0.0, -152.10362101836455, 0.0]
['beep', 0.0, -3035.4563040085204, 0.0, 0.0, 0.0, 0.0, -152.5283041630154, 0.0]
['beep', 0.0, -3036.1715598310902, 0.0, 0.0, 0.0, 0.0, -153.4670774301383, 0.0]
['beep', 0.0, -3036.4844842534644, 0.0, 0.0, 0.0, 0.0, -154.1376297637975, 0.0]
['beep', 0.0, -3036.5068359979196, 0.0, 0.0, 0.0, 0.0, -153.71294661914666, 0.0]
['beep', 0.0, -3036.529187742375, 0.0, 0.0, 0.0, 0.0, -152.7965250964791, 0.0]
['beep', 0.0, -3036.283318553367, 0.0, 0.0, 0.0, 0.0, -151.2542547290629, 0.0]
['beep', 0.0, -3036.3503737867327, 0.0, 0.0, 0.0, 0.0, -151.43306868470535, 0.0]
['beep', 0.0, -3036.283318553367, 0.0, 0.0, 0.0, 0.0, -152.01421404054332, 0.0]
['beep', 0.0, -3035.299841797333, 0.0, 0.0, 0.0, 0.0, -152.39419369628357, 0.0]
['beep', 0.0, -3033.8022749188276, 0.0, 0.0, 0.0, 0.0, -151.2989582179735, 0.0]
['beep', 0.0, -3033.042315607347, 0.0, 0.0, 0.0, 0.0, -150.31548146194, 0.0]
['beep', 0.0, -3033.8469784077383, 0.0, 0.0, 0.0, 0.0, -149.6896326171914, 0.0]
['beep', 0.0, -3036.7527051869283, 0.0, 0.0, 0.0, 0.0, -149.3990599392724, 0.0]
['beep', 0.0, -3037.6691267095957, 0.0, 0.0, 0.0, 0.0, -149.33200470590648, 0.0]
['beep', 0.0, -3036.529187742375, 0.0, 0.0, 0.0, 0.0, -147.92384480522213, 0.0]
['beep', 0.0, -3036.305670297822, 0.0, 0.0, 0.0, 0.0, -147.40975468275008, 0.0]
['beep', 0.0, -3033.8469784077383, 0.0, 0.0, 0.0, 0.0, -147.34269944938416, 0.0]
['beep', 0.0, -3034.1599028301125, 0.0, 0.0, 0.0, 0.0, -149.6896326171914, 0.0]
['beep', 0.0, -3035.299841797333, 0.0, 0.0, 0.0, 0.0, -147.76738259403498, 0.0]
['beep', 0.0, -3034.6739929525847, 0.0, 0.0, 0.0, 0.0, -147.476809916116, 0.0]
['beep', 0.0, -3033.98108887447, 0.0, 0.0, 0.0, 0.0, -146.87331281582271, 0.0]
['beep', 0.0, -3033.8246266632827, 0.0, 0.0, 0.0, 0.0, -146.60509188235903, 0.0]
['beep', 0.0, -3035.7692284308946, 0.0, 0.0, 0.0, 0.0, -146.98507153809925, 0.0]
['beep', 0.0, -3034.003440618925, 0.0, 0.0, 0.0, 0.0, -147.72267910512437, 0.0]
['beep', 0.0, -3033.109370840713, 0.0, 0.0, 0.0, 0.0, -146.60509188235903, 0.0]
['beep', 0.0, -3033.2211295629895, 0.0, 0.0, 0.0, 0.0, -144.32521394791772, 0.0]
['beep', 0.0, -3032.148245829135, 0.0, 0.0, 0.0, 0.0, -146.42627792671658, 0.0]
['beep', 0.0, -3032.461170251509, 0.0, 0.0, 0.0, 0.0, -147.20858898265232, 0.0]
['beep', 0.0, -3032.1258940846797, 0.0, 0.0, 0.0, 0.0, -146.5156849045378, 0.0]
['beep', 0.0, -3032.7740946738836, 0.0, 0.0, 0.0, 0.0, -146.02394652652103, 0.0]
['beep', 0.0, -3032.7070394405177, 0.0, 0.0, 0.0, 0.0, -146.2698157155294, 0.0]
['beep', 0.0, -3031.9023766401265, 0.0, 0.0, 0.0, 0.0, -147.23094072710762, 0.0]
['beep', 0.0, -3034.4504755080316, 0.0, 0.0, 0.0, 0.0, -147.38740293829477, 0.0]
['beep', 0.0, -3033.690516196551, 0.0, 0.0, 0.0, 0.0, -147.8567895718562, 0.0]
['beep', 0.0, -3032.729391184973, 0.0, 0.0, 0.0, 0.0, -146.89566456027802, 0.0]
['beep', 0.0, -3032.7070394405177, 0.0, 0.0, 0.0, 0.0, -146.94036804918863, 0.0]
['beep', 0.0, -3032.2376528069562, 0.0, 0.0, 0.0, 0.0, -145.48750465959367, 0.0]
['beep', 0.0, -3031.8353214067606, 0.0, 0.0, 0.0, 0.0, -144.638138370292, 0.0]
['beep', 0.0, -3031.9247283845816, 0.0, 0.0, 0.0, 0.0, -145.75572559305735, 0.0]
['beep', 0.0, -3031.947080129037, 0.0, 0.0, 0.0, 0.0, -145.42044942622775, 0.0]
['beep', 0.0, -3031.745914428939, 0.0, 0.0, 0.0, 0.0, -146.15805699325287, 0.0]
['beep', 0.0, -3030.8965481396376, 0.0, 0.0, 0.0, 0.0, -146.76155409354618, 0.0]
['beep', 0.0, -3031.5894522177523, 0.0, 0.0, 0.0, 0.0, -147.34269944938416, 0.0]
['beep', 0.0, -3031.9023766401265, 0.0, 0.0, 0.0, 0.0, -144.70519360365793, 0.0]
['beep', 0.0, -3031.3882865176543, 0.0, 0.0, 0.0, 0.0, -145.08517325939815, 0.0]
['beep', 0.0, -3032.058838851314, 0.0, 0.0, 0.0, 0.0, -145.21928372613, 0.0]
['beep', 0.0, -3031.5894522177523, 0.0, 0.0, 0.0, 0.0, -145.10752500385345, 0.0]
['beep', 0.0, -3033.4222952630876, 0.0, 0.0, 0.0, 0.0, -146.8509610713674, 0.0]
['beep', 0.0, -3033.4222952630876, 0.0, 0.0, 0.0, 0.0, -146.64979537126965, 0.0]
['beep', 0.0, -3032.751742929428, 0.0, 0.0, 0.0, 0.0, -143.6993651031691, 0.0]
['beep', 0.0, -3031.343583028744, 0.0, 0.0, 0.0, 0.0, -141.59830112437024, 0.0]
['beep', 0.0, -3031.1647690731015, 0.0, 0.0, 0.0, 0.0, -143.6770133587138, 0.0]
['beep', 0.0, -3032.304708040322, 0.0, 0.0, 0.0, 0.0, -145.48750465959367, 0.0]
['beep', 0.0, -3031.723562684484, 0.0, 0.0, 0.0, 0.0, -143.87817905881155, 0.0]
['beep', 0.0, -3030.6506789506293, 0.0, 0.0, 0.0, 0.0, -144.9510627926663, 0.0]
['beep', 0.0, -3031.3212312842884, 0.0, 0.0, 0.0, 0.0, -146.00159478206572, 0.0]
['beep', 0.0, -3032.9305568850705, 0.0, 0.0, 0.0, 0.0, -146.8286093269121, 0.0]
['beep', 0.0, -3034.2046063190232, 0.0, 0.0, 0.0, 0.0, -146.2698157155294, 0.0]
['beep', 0.0, -3033.109370840713, 0.0, 0.0, 0.0, 0.0, -146.06865001543164, 0.0]
['beep', 0.0, -3032.2600045514114, 0.0, 0.0, 0.0, 0.0, -145.42044942622775, 0.0]
['beep', 0.0, -3031.6118039622074, 0.0, 0.0, 0.0, 0.0, -144.5934348813814, 0.0]
['beep', 0.0, -3032.9305568850705, 0.0, 0.0, 0.0, 0.0, -145.37574593731713, 0.0]
['beep', 0.0, -3035.299841797333, 0.0, 0.0, 0.0, 0.0, -145.82278082642327, 0.0]
['beep', 0.0, -3034.629289463674, 0.0, 0.0, 0.0, 0.0, -145.64396687078082, 0.0]
['beep', 0.0, -3032.818798162794, 0.0, 0.0, 0.0, 0.0, -144.21345522564116, 0.0]
['beep', 0.0, -3033.2881847963554, 0.0, 0.0, 0.0, 0.0, -145.66631861523612, 0.0]
['beep', 0.0, -3034.1599028301125, 0.0, 0.0, 0.0, 0.0, -147.61092038284784, 0.0]
['beep', 0.0, -3035.2327865639672, 0.0, 0.0, 0.0, 0.0, -147.00742328255456, 0.0]
['beep', 0.0, -3035.07632435278, 0.0, 0.0, 0.0, 0.0, -147.1191820048311, 0.0]
['beep', 0.0, -3034.36106853021, 0.0, 0.0, 0.0, 0.0, -148.08030701640928, 0.0]
['beep', 0.0, -3034.003440618925, 0.0, 0.0, 0.0, 0.0, -147.25329247156293, 0.0]
['beep', 0.0, -3034.986917374959, 0.0, 0.0, 0.0, 0.0, -147.23094072710762, 0.0]
['beep', 0.0, -3035.635117964163, 0.0, 0.0, 0.0, 0.0, -147.61092038284784, 0.0]
['beep', 0.0, -3035.1657313306014, 0.0, 0.0, 0.0, 0.0, -147.7897343384903, 0.0]
['beep', 0.0, -3035.3892487751546, 0.0, 0.0, 0.0, 0.0, -147.1191820048311, 0.0]
['beep', 0.0, -3034.2940132968442, 0.0, 0.0, 0.0, 0.0, -146.64979537126965, 0.0]
['beep', 0.0, -3033.9363853855593, 0.0, 0.0, 0.0, 0.0, -146.87331281582271, 0.0]
['beep', 0.0, -3035.07632435278, 0.0, 0.0, 0.0, 0.0, -146.89566456027802, 0.0]
['beep', 0.0, -3034.942213886048, 0.0, 0.0, 0.0, 0.0, -148.1250105053199, 0.0]
['beep', 0.0, -3034.003440618925, 0.0, 0.0, 0.0, 0.0, -148.03560352749867, 0.0]
['beep', 0.0, -3033.7128679410066, 0.0, 0.0, 0.0, 0.0, -147.56621689393722, 0.0]
['beep', 0.0, -3034.629289463674, 0.0, 0.0, 0.0, 0.0, -148.32617620541768, 0.0]
['beep', 0.0, -3035.0316208638696, 0.0, 0.0, 0.0, 0.0, -149.734336106102, 0.0]
['beep', 0.0, -3034.5175307413974, 0.0, 0.0, 0.0, 0.0, -149.44376342818302, 0.0]
['beep', 0.0, -3033.8693301521935, 0.0, 0.0, 0.0, 0.0, -149.91315006174446, 0.0]
['beep', 0.0, -3033.399943518632, 0.0, 0.0, 0.0, 0.0, -147.4991616605713, 0.0]
['beep', 0.0, -3033.087019096258, 0.0, 0.0, 0.0, 0.0, -147.56621689393722, 0.0]
['beep', 0.0, -3033.757571429917, 0.0, 0.0, 0.0, 0.0, -147.72267910512437, 0.0]
['beep', 0.0, -3034.2940132968442, 0.0, 0.0, 0.0, 0.0, -146.11335350434226, 0.0]
['beep', 0.0, -3034.2269580634784, 0.0, 0.0, 0.0, 0.0, -145.21928372613, 0.0]
['beep', 0.0, -3033.7799231743725, 0.0, 0.0, 0.0, 0.0, -146.18040873770818, 0.0]
['beep', 0.0, -3035.3892487751546, 0.0, 0.0, 0.0, 0.0, -145.9345395486998, 0.0]
['beep', 0.0, -3035.568062730797, 0.0, 0.0, 0.0, 0.0, -145.48750465959367, 0.0]
['beep', 0.0, -3035.344545286244, 0.0, 0.0, 0.0, 0.0, -146.4486296711719, 0.0]
['beep', 0.0, -3034.6739929525847, 0.0, 0.0, 0.0, 0.0, -146.5156849045378, 0.0]
['beep', 0.0, -3034.964565630504, 0.0, 0.0, 0.0, 0.0, -143.6770133587138, 0.0]
['beep', 0.0, -3035.366897030699, 0.0, 0.0, 0.0, 0.0, -143.9899377810881, 0.0]
['beep', 0.0, -3036.4621325090093, 0.0, 0.0, 0.0, 0.0, -146.94036804918863, 0.0]
['beep', 0.0, -3036.082152853269, 0.0, 0.0, 0.0, 0.0, -145.82278082642327, 0.0]
['beep', 0.0, -3035.9033388976263, 0.0, 0.0, 0.0, 0.0, -145.66631861523612, 0.0]
['beep', 0.0, -3035.2327865639672, 0.0, 0.0, 0.0, 0.0, -147.8567895718562, 0.0]
['beep', 0.0, -3035.3221935417887, 0.0, 0.0, 0.0, 0.0, -147.4991616605713, 0.0]
['beep', 0.0, -3036.7080016980176, 0.0, 0.0, 0.0, 0.0, -146.8286093269121, 0.0]
['beep', 0.0, -3035.4116005196097, 0.0, 0.0, 0.0, 0.0, -146.64979537126965, 0.0]
['beep', 0.0, -3034.718696441495, 0.0, 0.0, 0.0, 0.0, -146.20276048216348, 0.0]
['beep', 0.0, -3034.986917374959, 0.0, 0.0, 0.0, 0.0, -147.76738259403498, 0.0]
['beep', 0.0, -3035.9033388976263, 0.0, 0.0, 0.0, 0.0, -147.38740293829477, 0.0]
['beep', 0.0, -3034.629289463674, 0.0, 0.0, 0.0, 0.0, -145.86748431533388, 0.0]
['beep', 0.0, -3033.668164452096, 0.0, 0.0, 0.0, 0.0, -146.2251122266188, 0.0]
['beep', 0.0, -3033.690516196551, 0.0, 0.0, 0.0, 0.0, -145.82278082642327, 0.0]
['beep', 0.0, -3033.1317225851685, 0.0, 0.0, 0.0, 0.0, -147.05212677146517, 0.0]
['beep', 0.0, -3033.377591774177, 0.0, 0.0, 0.0, 0.0, -148.63910062779198, 0.0]
['beep', 0.0, -3034.1599028301125, 0.0, 0.0, 0.0, 0.0, -147.8344378274009, 0.0]
['beep', 0.0, -3033.377591774177, 0.0, 0.0, 0.0, 0.0, -146.67214711572495, 0.0]
['beep', 0.0, -3031.5447487288416, 0.0, 0.0, 0.0, 0.0, -146.4709814156272, 0.0]
['beep', 0.0, -3032.461170251509, 0.0, 0.0, 0.0, 0.0, -147.38740293829477, 0.0]
['beep', 0.0, -3033.1540743296237, 0.0, 0.0, 0.0, 0.0, -148.50499016106014, 0.0]
['beep', 0.0, -3035.1210278416906, 0.0, 0.0, 0.0, 0.0, -149.6672808727361, 0.0]
['beep', 0.0, -3034.8975103971375, 0.0, 0.0, 0.0, 0.0, -147.67797561621376, 0.0]
['beep', 0.0, -3034.5398824858526, 0.0, 0.0, 0.0, 0.0, -147.23094072710762, 0.0]
['beep', 0.0, -3033.757571429917, 0.0, 0.0, 0.0, 0.0, -147.58856863839253, 0.0]
['beep', 0.0, -3032.751742929428, 0.0, 0.0, 0.0, 0.0, -146.98507153809925, 0.0]
['beep', 0.0, -3033.668164452096, 0.0, 0.0, 0.0, 0.0, -147.4544581716607, 0.0]
['beep', 0.0, -3034.3163650413, 0.0, 0.0, 0.0, 0.0, -148.4155831832389, 0.0]
['beep', 0.0, -3034.5175307413974, 0.0, 0.0, 0.0, 0.0, -148.77321109452382, 0.0]
['beep', 0.0, -3033.60110921873, 0.0, 0.0, 0.0, 0.0, -148.66145237224728, 0.0]
['beep', 0.0, -3033.310536540811, 0.0, 0.0, 0.0, 0.0, -147.1191820048311, 0.0]
['beep', 0.0, -3033.7799231743725, 0.0, 0.0, 0.0, 0.0, -146.94036804918863, 0.0]
['beep', 0.0, -3033.4446470075427, 0.0, 0.0, 0.0, 0.0, -146.5380366489931, 0.0]
['beep', 0.0, -3033.1540743296237, 0.0, 0.0, 0.0, 0.0, -146.33687094889535, 0.0]
['beep', 0.0, -3032.2153010625007, 0.0, 0.0, 0.0, 0.0, -148.05795527195397, 0.0]
['beep', 0.0, -3031.723562684484, 0.0, 0.0, 0.0, 0.0, -146.98507153809925, 0.0]
['beep', 0.0, -3032.729391184973, 0.0, 0.0, 0.0, 0.0, -146.00159478206572, 0.0]
['beep', 0.0, -3031.9247283845816, 0.0, 0.0, 0.0, 0.0, -145.8898360597892, 0.0]
['beep', 0.0, -3031.209472562012, 0.0, 0.0, 0.0, 0.0, -146.42627792671658, 0.0]
['beep', 0.0, -3032.88585339616, 0.0, 0.0, 0.0, 0.0, -145.9568912931551, 0.0]
['beep', 0.0, -3032.684687696062, 0.0, 0.0, 0.0, 0.0, -147.4991616605713, 0.0]
['beep', 0.0, -3032.5729289737856, 0.0, 0.0, 0.0, 0.0, -146.5156849045378, 0.0]
['beep', 0.0, -3032.103542340224, 0.0, 0.0, 0.0, 0.0, -144.19110348118585, 0.0]
['beep', 0.0, -3030.851844650727, 0.0, 0.0, 0.0, 0.0, -145.9345395486998, 0.0]
['beep', 0.0, -3031.209472562012, 0.0, 0.0, 0.0, 0.0, -145.2639872150406, 0.0]
['beep', 0.0, -3031.365934773199, 0.0, 0.0, 0.0, 0.0, -145.42044942622775, 0.0]
['beep', 0.0, -3031.8353214067606, 0.0, 0.0, 0.0, 0.0, -144.70519360365793, 0.0]
['beep', 0.0, -3032.2823562958665, 0.0, 0.0, 0.0, 0.0, -145.19693198167468, 0.0]
['beep', 0.0, -3032.729391184973, 0.0, 0.0, 0.0, 0.0, -146.5380366489931, 0.0]
['beep', 0.0, -3031.701210940029, 0.0, 0.0, 0.0, 0.0, -146.40392618226127, 0.0]
['beep', 0.0, -3032.371763273688, 0.0, 0.0, 0.0, 0.0, -146.4933331600825, 0.0]
['beep', 0.0, -3032.3270597847772, 0.0, 0.0, 0.0, 0.0, -146.56038839344842, 0.0]
['beep', 0.0, -3032.1705975735904, 0.0, 0.0, 0.0, 0.0, -147.38740293829477, 0.0]
['beep', 0.0, -3033.1987778185344, 0.0, 0.0, 0.0, 0.0, -145.8898360597892, 0.0]
['beep', 0.0, -3033.0646673518027, 0.0, 0.0, 0.0, 0.0, -144.21345522564116, 0.0]
['beep', 0.0, -3031.991783617948, 0.0, 0.0, 0.0, 0.0, -144.21345522564116, 0.0]
['beep', 0.0, -3032.8411499072495, 0.0, 0.0, 0.0, 0.0, -144.54873139247078, 0.0]
['beep', 0.0, -3031.5447487288416, 0.0, 0.0, 0.0, 0.0, -143.92288254772217, 0.0]
['beep', 0.0, -3030.8294929062718, 0.0, 0.0, 0.0, 0.0, -145.01811802603223, 0.0]
['beep', 0.0, -3031.0977138397357, 0.0, 0.0, 0.0, 0.0, -145.04046977048753, 0.0]
['beep', 0.0, -3029.98012661697, 0.0, 0.0, 0.0, 0.0, -142.6935366026803, 0.0]
['beep', 0.0, -3030.6059754617186, 0.0, 0.0, 0.0, 0.0, -142.02298426902107, 0.0]
['beep', 0.0, -3030.6059754617186, 0.0, 0.0, 0.0, 0.0, -144.28051045900708, 0.0]
['beep', 0.0, -3031.365934773199, 0.0, 0.0, 0.0, 0.0, -143.52055114752665, 0.0]
['beep', 0.0, -3032.751742929428, 0.0, 0.0, 0.0, 0.0, -144.74989709256855, 0.0]
['beep', 0.0, -3033.2658330519002, 0.0, 0.0, 0.0, 0.0, -146.76155409354618, 0.0]
['beep', 0.0, -3035.6127662197073, 0.0, 0.0, 0.0, 0.0, -146.71685060463557, 0.0]
['beep', 0.0, -3034.7410481859506, 0.0, 0.0, 0.0, 0.0, -144.19110348118585, 0.0]
['beep', 0.0, -3033.9363853855593, 0.0, 0.0, 0.0, 0.0, -144.32521394791772, 0.0]
['beep', 0.0, -3033.0646673518027, 0.0, 0.0, 0.0, 0.0, -142.91705404723336, 0.0]
['beep', 0.0, -3033.7352196854617, 0.0, 0.0, 0.0, 0.0, -142.1794464802082, 0.0]
['beep', 0.0, -3034.115199341202, 0.0, 0.0, 0.0, 0.0, -144.0122895255434, 0.0]
['beep', 0.0, -3035.009269119414, 0.0, 0.0, 0.0, 0.0, -142.76059183604622, 0.0]
['beep', 0.0, -3034.2269580634784, 0.0, 0.0, 0.0, 0.0, -141.41948716872778, 0.0]
['beep', 0.0, -3032.5505772293304, 0.0, 0.0, 0.0, 0.0, -140.90539704625573, 0.0]
['beep', 0.0, -3033.4446470075427, 0.0, 0.0, 0.0, 0.0, -142.80529532495683, 0.0]
['beep', 0.0, -3034.852806908227, 0.0, 0.0, 0.0, 0.0, -142.49237090258254, 0.0]
['beep', 0.0, -3035.366897030699, 0.0, 0.0, 0.0, 0.0, -143.0735162584205, 0.0]
['beep', 0.0, -3035.07632435278, 0.0, 0.0, 0.0, 0.0, -143.6993651031691, 0.0]
['beep', 0.0, -3035.7021731975287, 0.0, 0.0, 0.0, 0.0, -145.08517325939815, 0.0]
['beep', 0.0, -3033.377591774177, 0.0, 0.0, 0.0, 0.0, -144.45932441464956, 0.0]
['beep', 0.0, -3032.595280718241, 0.0, 0.0, 0.0, 0.0, -142.84999881386744, 0.0]
['beep', 0.0, -3030.2036440615234, 0.0, 0.0, 0.0, 0.0, -141.97828078011045, 0.0]
['beep', 0.0, -3028.9295946275706, 0.0, 0.0, 0.0, 0.0, -141.53124589100432, 0.0]
['beep', 0.0, -3028.5719667162857, 0.0, 0.0, 0.0, 0.0, -140.7936383239792, 0.0]
['beep', 0.0, -3028.527263227375, 0.0, 0.0, 0.0, 0.0, -140.7936383239792, 0.0]
['beep', 0.0, -3030.494216739442, 0.0, 0.0, 0.0, 0.0, -140.86069355734512, 0.0]
['beep', 0.0, -3033.668164452096, 0.0, 0.0, 0.0, 0.0, -140.92774879071104, 0.0]
['beep', 0.0, -3035.366897030699, 0.0, 0.0, 0.0, 0.0, -141.28537670199594, 0.0]
['beep', 0.0, -3034.7410481859506, 0.0, 0.0, 0.0, 0.0, -143.4087924252501, 0.0]
['beep', 0.0, -3035.366897030699, 0.0, 0.0, 0.0, 0.0, -141.68770810219146, 0.0]
['beep', 0.0, -3036.3503737867327, 0.0, 0.0, 0.0, 0.0, -140.2348447125965, 0.0]
['beep', 0.0, -3037.4009057761323, 0.0, 0.0, 0.0, 0.0, -141.799466824468, 0.0]
['beep', 0.0, -3037.2667953094, 0.0, 0.0, 0.0, 0.0, -142.51472264703784, 0.0]
['beep', 0.0, -3035.3892487751546, 0.0, 0.0, 0.0, 0.0, -141.68770810219146, 0.0]
['beep', 0.0, -3034.5845859747633, 0.0, 0.0, 0.0, 0.0, -142.20179822466352, 0.0]
['beep', 0.0, -3035.3892487751546, 0.0, 0.0, 0.0, 0.0, -141.68770810219146, 0.0]
['beep', 0.0, -3036.3503737867327, 0.0, 0.0, 0.0, 0.0, -143.14057149178643, 0.0]
['beep', 0.0, -3036.4621325090093, 0.0, 0.0, 0.0, 0.0, -142.31355694694008, 0.0]
['beep', 0.0, -3034.4728272524867, 0.0, 0.0, 0.0, 0.0, -141.57594937991493, 0.0]
['beep', 0.0, -3022.6487544356296, 0.0, 0.0, 0.0, 0.0, -146.42627792671658, 0.0]
['beep', 0.0, -3022.961678858004, 0.0, 0.0, 0.0, 0.0, -146.4933331600825, 0.0]
['beep', 0.0, -3023.542824213842, 0.0, 0.0, 0.0, 0.0, -145.97924303761042, 0.0]
['beep', 0.0, -3023.3863620026546, 0.0, 0.0, 0.0, 0.0, -145.42044942622775, 0.0]
['beep', 0.0, -3023.1181410691906, 0.0, 0.0, 0.0, 0.0, -146.11335350434226, 0.0]
['beep', 0.0, -3023.4310654915653, 0.0, 0.0, 0.0, 0.0, -145.5992633818702, 0.0]
['beep', 0.0, -3024.280431780867, 0.0, 0.0, 0.0, 0.0, -145.37574593731713, 0.0]
['beep', 0.0, -3023.0957893247355, 0.0, 0.0, 0.0, 0.0, -146.4486296711719, 0.0]
['beep', 0.0, -3023.207548047012, 0.0, 0.0, 0.0, 0.0, -146.71685060463557, 0.0]
['beep', 0.0, -3023.1628445581014, 0.0, 0.0, 0.0, 0.0, -144.8840075593004, 0.0]
['beep', 0.0, -3021.620574190685, 0.0, 0.0, 0.0, 0.0, -147.05212677146517, 0.0]
['beep', 0.0, -3023.1181410691906, 0.0, 0.0, 0.0, 0.0, -146.04629827097634, 0.0]
['beep', 0.0, -3022.984030602459, 0.0, 0.0, 0.0, 0.0, -144.9734145371216, 0.0]
['beep', 0.0, -3022.536995713353, 0.0, 0.0, 0.0, 0.0, -144.638138370292, 0.0]
['beep', 0.0, -3020.927670112571, 0.0, 0.0, 0.0, 0.0, -144.5934348813814, 0.0]
['beep', 0.0, -3020.7935596458387, 0.0, 0.0, 0.0, 0.0, -146.33687094889535, 0.0]
['beep', 0.0, -3021.93349861306, 0.0, 0.0, 0.0, 0.0, -145.8898360597892, 0.0]
['beep', 0.0, -3022.827568391272, 0.0, 0.0, 0.0, 0.0, -147.34269944938416, 0.0]
['beep', 0.0, -3023.6098794472077, 0.0, 0.0, 0.0, 0.0, -146.94036804918863, 0.0]
['beep', 0.0, -3022.0676090797915, 0.0, 0.0, 0.0, 0.0, -146.13570524879756, 0.0]
['beep', 0.0, -3022.559347457808, 0.0, 0.0, 0.0, 0.0, -147.61092038284784, 0.0]
['beep', 0.0, -3023.0063823469145, 0.0, 0.0, 0.0, 0.0, -146.04629827097634, 0.0]
['beep', 0.0, -3022.8052166468165, 0.0, 0.0, 0.0, 0.0, -145.2639872150406, 0.0]
['beep', 0.0, -3021.93349861306, 0.0, 0.0, 0.0, 0.0, -145.97924303761042, 0.0]
['beep', 0.0, -3021.3523532572217, 0.0, 0.0, 0.0, 0.0, -144.72754534811324, 0.0]
['beep', 0.0, -3020.7712079013836, 0.0, 0.0, 0.0, 0.0, -145.15222849276407, 0.0]
['beep', 0.0, -3022.0005538464256, 0.0, 0.0, 0.0, 0.0, -145.80042908196796, 0.0]
['beep', 0.0, -3020.994725345937, 0.0, 0.0, 0.0, 0.0, -145.2639872150406, 0.0]
['beep', 0.0, -3021.821739890783, 0.0, 0.0, 0.0, 0.0, -146.31451920444005, 0.0]
['beep', 0.0, -3021.4194084905876, 0.0, 0.0, 0.0, 0.0, -145.82278082642327, 0.0]
['beep', 0.0, -3021.1958910460344, 0.0, 0.0, 0.0, 0.0, -145.50985640404897, 0.0]
['beep', 0.0, -3022.2240712909784, 0.0, 0.0, 0.0, 0.0, -146.15805699325287, 0.0]
['beep', 0.0, -3022.894623624638, 0.0, 0.0, 0.0, 0.0, -146.2251122266188, 0.0]
['beep', 0.0, -3023.922803869582, 0.0, 0.0, 0.0, 0.0, -145.35339419286183, 0.0]
['beep', 0.0, -3023.0957893247355, 0.0, 0.0, 0.0, 0.0, -143.22997846960766, 0.0]
['beep', 0.0, -3021.7993881463276, 0.0, 0.0, 0.0, 0.0, -143.47584765861603, 0.0]
['beep', 0.0, -3021.4864637239534, 0.0, 0.0, 0.0, 0.0, -145.5992633818702, 0.0]
['beep', 0.0, -3021.59822244623, 0.0, 0.0, 0.0, 0.0, -144.9510627926663, 0.0]
['beep', 0.0, -3022.3134782688, 0.0, 0.0, 0.0, 0.0, -145.53220814850428, 0.0]
['beep', 0.0, -3022.4252369910764, 0.0, 0.0, 0.0, 0.0, -144.25815871455177, 0.0]
['beep', 0.0, -3022.536995713353, 0.0, 0.0, 0.0, 0.0, -144.10169650336462, 0.0]
['beep', 0.0, -3022.849920135727, 0.0, 0.0, 0.0, 0.0, -146.06865001543164, 0.0]
['beep', 0.0, -3023.565175958297, 0.0, 0.0, 0.0, 0.0, -145.17458023721937, 0.0]
['beep', 0.0, -3023.8333968917605, 0.0, 0.0, 0.0, 0.0, -146.33687094889535, 0.0]
['beep', 0.0, -3023.0957893247355, 0.0, 0.0, 0.0, 0.0, -148.28147271650707, 0.0]
['beep', 0.0, -3023.7439899139395, 0.0, 0.0, 0.0, 0.0, -147.58856863839253, 0.0]
['beep', 0.0, -3023.989859102948, 0.0, 0.0, 0.0, 0.0, -147.43210642720538, 0.0]
['beep', 0.0, -3024.235728291956, 0.0, 0.0, 0.0, 0.0, -147.56621689393722, 0.0]
['beep', 0.0, -3023.498120724931, 0.0, 0.0, 0.0, 0.0, -146.87331281582271, 0.0]
['beep', 0.0, -3023.341658513744, 0.0, 0.0, 0.0, 0.0, -147.1191820048311, 0.0]
['beep', 0.0, -3023.1181410691906, 0.0, 0.0, 0.0, 0.0, -147.7897343384903, 0.0]
['beep', 0.0, -3021.4641119794983, 0.0, 0.0, 0.0, 0.0, -147.58856863839253, 0.0]
['beep', 0.0, -3023.3640102581994, 0.0, 0.0, 0.0, 0.0, -146.4709814156272, 0.0]
['beep', 0.0, -3023.6769346805736, 0.0, 0.0, 0.0, 0.0, -146.89566456027802, 0.0]
['beep', 0.0, -3024.1016178252244, 0.0, 0.0, 0.0, 0.0, -146.8509610713674, 0.0]
['beep', 0.0, -3023.7439899139395, 0.0, 0.0, 0.0, 0.0, -147.32034770492885, 0.0]
['beep', 0.0, -3023.2298997914672, 0.0, 0.0, 0.0, 0.0, -147.76738259403498, 0.0]
['beep', 0.0, -3023.341658513744, 0.0, 0.0, 0.0, 0.0, -146.98507153809925, 0.0]
['beep', 0.0, -3023.989859102948, 0.0, 0.0, 0.0, 0.0, -146.64979537126965, 0.0]
['beep', 0.0, -3022.7605131579057, 0.0, 0.0, 0.0, 0.0, -144.928711048211, 0.0]
['beep', 0.0, -3022.0005538464256, 0.0, 0.0, 0.0, 0.0, -144.928711048211, 0.0]
['beep', 0.0, -3022.4475887355316, 0.0, 0.0, 0.0, 0.0, -146.89566456027802, 0.0]
['beep', 0.0, -3022.4252369910764, 0.0, 0.0, 0.0, 0.0, -147.05212677146517, 0.0]
['beep', 0.0, -3020.8606148792046, 0.0, 0.0, 0.0, 0.0, -146.2251122266188, 0.0]
['beep', 0.0, -3021.6429259351407, 0.0, 0.0, 0.0, 0.0, -145.80042908196796, 0.0]
['beep', 0.0, -3021.307649768311, 0.0, 0.0, 0.0, 0.0, -145.3086907039512, 0.0]
['beep', 0.0, -3022.3581817577106, 0.0, 0.0, 0.0, 0.0, -147.7897343384903, 0.0]
['beep', 0.0, -3023.2298997914672, 0.0, 0.0, 0.0, 0.0, -146.58274013790373, 0.0]
['beep', 0.0, -3022.536995713353, 0.0, 0.0, 0.0, 0.0, -146.91801630473333, 0.0]
['beep', 0.0, -3023.3863620026546, 0.0, 0.0, 0.0, 0.0, -147.1191820048311, 0.0]
['beep', 0.0, -3022.939327113548, 0.0, 0.0, 0.0, 0.0, -147.38740293829477, 0.0]
['beep', 0.0, -3023.78869340285, 0.0, 0.0, 0.0, 0.0, -146.98507153809925, 0.0]
['beep', 0.0, -3024.794521903339, 0.0, 0.0, 0.0, 0.0, -147.38740293829477, 0.0]
['beep', 0.0, -3023.654582936118, 0.0, 0.0, 0.0, 0.0, -145.84513257087858, 0.0]
['beep', 0.0, -3023.1628445581014, 0.0, 0.0, 0.0, 0.0, -145.2416354705853, 0.0]
['beep', 0.0, -3022.827568391272, 0.0, 0.0, 0.0, 0.0, -146.15805699325287, 0.0]
['beep', 0.0, -3023.900452125127, 0.0, 0.0, 0.0, 0.0, -146.20276048216348, 0.0]
['beep', 0.0, -3022.7828649023613, 0.0, 0.0, 0.0, 0.0, -146.7839058380015, 0.0]
['beep', 0.0, -3022.179367802068, 0.0, 0.0, 0.0, 0.0, -146.11335350434226, 0.0]
['beep', 0.0, -3022.5146439688974, 0.0, 0.0, 0.0, 0.0, -144.10169650336462, 0.0]
['beep', 0.0, -3021.5088154684086, 0.0, 0.0, 0.0, 0.0, -144.9734145371216, 0.0]
['beep', 0.0, -3022.1570160576125, 0.0, 0.0, 0.0, 0.0, -145.68867035969143, 0.0]
['beep', 0.0, -3022.7158096689955, 0.0, 0.0, 0.0, 0.0, -144.928711048211, 0.0]
['beep', 0.0, -3021.821739890783, 0.0, 0.0, 0.0, 0.0, -145.17458023721937, 0.0]
['beep', 0.0, -3021.3970567461324, 0.0, 0.0, 0.0, 0.0, -143.6770133587138, 0.0]
['beep', 0.0, -3021.7546846574173, 0.0, 0.0, 0.0, 0.0, -143.43114416970542, 0.0]
['beep', 0.0, -3023.274603280378, 0.0, 0.0, 0.0, 0.0, -142.98410928059928, 0.0]
['beep', 0.0, -3022.939327113548, 0.0, 0.0, 0.0, 0.0, -142.29120520248475, 0.0]
['beep', 0.0, -3022.939327113548, 0.0, 0.0, 0.0, 0.0, -143.60995812534787, 0.0]
['beep', 0.0, -3021.4194084905876, 0.0, 0.0, 0.0, 0.0, -145.44280117068305, 0.0]
['beep', 0.0, -3020.7041526680177, 0.0, 0.0, 0.0, 0.0, -145.71102210414674, 0.0]
['beep', 0.0, -3020.5476904568304, 0.0, 0.0, 0.0, 0.0, -145.48750465959367, 0.0]
['beep', 0.0, -3022.604050946719, 0.0, 0.0, 0.0, 0.0, -145.12987674830876, 0.0]
['beep', 0.0, -3022.2017195465232, 0.0, 0.0, 0.0, 0.0, -145.35339419286183, 0.0]
['beep', 0.0, -3021.4194084905876, 0.0, 0.0, 0.0, 0.0, -146.00159478206572, 0.0]
['beep', 0.0, -3021.7546846574173, 0.0, 0.0, 0.0, 0.0, -144.54873139247078, 0.0]
['beep', 0.0, -3021.97820210197, 0.0, 0.0, 0.0, 0.0, -143.29703370297358, 0.0]
['beep', 0.0, -3021.955850357515, 0.0, 0.0, 0.0, 0.0, -144.77224883702385, 0.0]
['beep', 0.0, -3022.045257335336, 0.0, 0.0, 0.0, 0.0, -145.10752500385345, 0.0]
['beep', 0.0, -3021.531167212864, 0.0, 0.0, 0.0, 0.0, -144.77224883702385, 0.0]
['beep', 0.0, -3022.827568391272, 0.0, 0.0, 0.0, 0.0, -144.86165581484508, 0.0]
['beep', 0.0, -3024.5486527143303, 0.0, 0.0, 0.0, 0.0, -144.74989709256855, 0.0]
['beep', 0.0, -3025.241556792445, 0.0, 0.0, 0.0, 0.0, -145.2416354705853, 0.0]
['beep', 0.0, -3023.945155614037, 0.0, 0.0, 0.0, 0.0, -146.2251122266188, 0.0]
['beep', 0.0, -3021.6429259351407, 0.0, 0.0, 0.0, 0.0, -145.12987674830876, 0.0]
['beep', 0.0, -3020.0336003343587, 0.0, 0.0, 0.0, 0.0, -145.42044942622775, 0.0]
['beep', 0.0, -3020.1230073121797, 0.0, 0.0, 0.0, 0.0, -145.44280117068305, 0.0]
['beep', 0.0, -3019.9665451009923, 0.0, 0.0, 0.0, 0.0, -146.09100175988695, 0.0]
['beep', 0.0, -3020.368876501188, 0.0, 0.0, 0.0, 0.0, -144.19110348118585, 0.0]
['beep', 0.0, -3020.3241730122772, 0.0, 0.0, 0.0, 0.0, -142.98410928059928, 0.0]
['beep', 0.0, -3021.2182427904895, 0.0, 0.0, 0.0, 0.0, -144.32521394791772, 0.0]
['beep', 0.0, -3022.3805335021657, 0.0, 0.0, 0.0, 0.0, -145.21928372613, 0.0]
['beep', 0.0, -3023.3640102581994, 0.0, 0.0, 0.0, 0.0, -145.9345395486998, 0.0]
['beep', 0.0, -3024.3921905031434, 0.0, 0.0, 0.0, 0.0, -146.64979537126965, 0.0]
['beep', 0.0, -3023.3193067692887, 0.0, 0.0, 0.0, 0.0, -145.50985640404897, 0.0]
['beep', 0.0, -3023.900452125127, 0.0, 0.0, 0.0, 0.0, -145.8898360597892, 0.0]
['beep', 0.0, -3024.7274666699727, 0.0, 0.0, 0.0, 0.0, -147.05212677146517, 0.0]
['beep', 0.0, -3024.3474870142327, 0.0, 0.0, 0.0, 0.0, -146.13570524879756, 0.0]
['beep', 0.0, -3024.526300969875, 0.0, 0.0, 0.0, 0.0, -145.64396687078082, 0.0]
['beep', 0.0, -3023.78869340285, 0.0, 0.0, 0.0, 0.0, -145.86748431533388, 0.0]
['beep', 0.0, -3023.4087137471097, 0.0, 0.0, 0.0, 0.0, -145.10752500385345, 0.0]
['beep', 0.0, -3023.78869340285, 0.0, 0.0, 0.0, 0.0, -145.33104244840652, 0.0]
['beep', 0.0, -3024.6157079476966, 0.0, 0.0, 0.0, 0.0, -145.66631861523612, 0.0]
['beep', 0.0, -3022.8722718801823, 0.0, 0.0, 0.0, 0.0, -147.54386514948192, 0.0]
['beep', 0.0, -3022.7381614134506, 0.0, 0.0, 0.0, 0.0, -146.00159478206572, 0.0]
['beep', 0.0, -3023.4757689804756, 0.0, 0.0, 0.0, 0.0, -146.7839058380015, 0.0]
['beep', 0.0, -3023.341658513744, 0.0, 0.0, 0.0, 0.0, -147.96854829413275, 0.0]
['beep', 0.0, -3023.341658513744, 0.0, 0.0, 0.0, 0.0, -148.25912097205173, 0.0]
['beep', 0.0, -3023.6769346805736, 0.0, 0.0, 0.0, 0.0, -148.1697139942305, 0.0]
['beep', 0.0, -3023.8110451473053, 0.0, 0.0, 0.0, 0.0, -148.05795527195397, 0.0]
['beep', 0.0, -3024.1016178252244, 0.0, 0.0, 0.0, 0.0, -146.8062575824568, 0.0]
['beep', 0.0, -3023.989859102948, 0.0, 0.0, 0.0, 0.0, -146.64979537126965, 0.0]
['beep', 0.0, -3024.50394922542, 0.0, 0.0, 0.0, 0.0, -147.4991616605713, 0.0]
['beep', 0.0, -3023.989859102948, 0.0, 0.0, 0.0, 0.0, -148.1920657386858, 0.0]
['beep', 0.0, -3023.6992864250287, 0.0, 0.0, 0.0, 0.0, -146.2698157155294, 0.0]
['beep', 0.0, -3022.1346643131574, 0.0, 0.0, 0.0, 0.0, -147.32034770492885, 0.0]
['beep', 0.0, -3022.268774779889, 0.0, 0.0, 0.0, 0.0, -148.77321109452382, 0.0]
['beep', 0.0, -3023.1628445581014, 0.0, 0.0, 0.0, 0.0, -147.61092038284784, 0.0]
['beep', 0.0, -3024.816873647794, 0.0, 0.0, 0.0, 0.0, -145.5545598929596, 0.0]
['beep', 0.0, -3023.4534172360204, 0.0, 0.0, 0.0, 0.0, -147.27564421601824, 0.0]
['beep', 0.0, -3022.849920135727, 0.0, 0.0, 0.0, 0.0, -147.8120860829456, 0.0]
['beep', 0.0, -3023.252251535923, 0.0, 0.0, 0.0, 0.0, -146.98507153809925, 0.0]
['beep', 0.0, -3023.0063823469145, 0.0, 0.0, 0.0, 0.0, -146.60509188235903, 0.0]
['beep', 0.0, -3024.5486527143303, 0.0, 0.0, 0.0, 0.0, -146.31451920444005, 0.0]
['beep', 0.0, -3025.6662399370957, 0.0, 0.0, 0.0, 0.0, -146.94036804918863, 0.0]
['beep', 0.0, -3021.93349861306, 0.0, 0.0, 0.0, 0.0, -146.06865001543164, 0.0]
['beep', 0.0, -3016.412617732599, 0.0, 0.0, 0.0, 0.0, -147.05212677146517, 0.0]
['beep', 0.0, -3016.010286332403, 0.0, 0.0, 0.0, 0.0, -150.89662681777799, 0.0]
['beep', 0.0, -3017.7984258888278, 0.0, 0.0, 0.0, 0.0, -151.9248070627221, 0.0]
['beep', 0.0, -3018.960716600504, 0.0, 0.0, 0.0, 0.0, -152.2377314850964, 0.0]
['beep', 0.0, -3018.714847411495, 0.0, 0.0, 0.0, 0.0, -154.31644371943997, 0.0]
['beep', 0.0, -3018.983068344959, 0.0, 0.0, 0.0, 0.0, -154.91994081973326, 0.0]
['beep', 0.0, -3017.686667166551, 0.0, 0.0, 0.0, 0.0, -153.08709777439807, 0.0]
['beep', 0.0, -3017.6196119331853, 0.0, 0.0, 0.0, 0.0, -154.02587104152096, 0.0]
['beep', 0.0, -3016.725542154973, 0.0, 0.0, 0.0, 0.0, -153.8247053414232, 0.0]
['beep', 0.0, -3015.8761758656715, 0.0, 0.0, 0.0, 0.0, -152.26008322955173, 0.0]
['beep', 0.0, -3016.6808386660623, 0.0, 0.0, 0.0, 0.0, -152.68476637420255, 0.0]
['beep', 0.0, -3016.457321221509, 0.0, 0.0, 0.0, 0.0, -153.26591173004053, 0.0]
['beep', 0.0, -3015.78676888785, 0.0, 0.0, 0.0, 0.0, -151.2989582179735, 0.0]
['beep', 0.0, -3015.3173822542885, 0.0, 0.0, 0.0, 0.0, -151.2319029846076, 0.0]
['beep', 0.0, -3014.043332820336, 0.0, 0.0, 0.0, 0.0, -151.9024553182668, 0.0]
['beep', 0.0, -3015.6526584211183, 0.0, 0.0, 0.0, 0.0, -152.70711811865786, 0.0]
['beep', 0.0, -3015.8091206323056, 0.0, 0.0, 0.0, 0.0, -153.60118789687013, 0.0]
['beep', 0.0, -3016.077341565769, 0.0, 0.0, 0.0, 0.0, -151.9248070627221, 0.0]
['beep', 0.0, -3014.825643876272, 0.0, 0.0, 0.0, 0.0, -153.71294661914666, 0.0]
['beep', 0.0, -3014.490367709442, 0.0, 0.0, 0.0, 0.0, -155.59049315339246, 0.0]
['beep', 0.0, -3014.5574229428084, 0.0, 0.0, 0.0, 0.0, -153.93646406369973, 0.0]
['beep', 0.0, -3014.847995620727, 0.0, 0.0, 0.0, 0.0, -152.43889718519418, 0.0]
['beep', 0.0, -3014.9150508540934, 0.0, 0.0, 0.0, 0.0, -153.154153007764, 0.0]
['beep', 0.0, -3012.5457659418307, 0.0, 0.0, 0.0, 0.0, -153.64589138578074, 0.0]
['beep', 0.0, -3013.3280769977664, 0.0, 0.0, 0.0, 0.0, -154.02587104152096, 0.0]
['beep', 0.0, -3013.9986293314255, 0.0, 0.0, 0.0, 0.0, -154.96464430864387, 0.0]
['beep', 0.0, -3014.177443287068, 0.0, 0.0, 0.0, 0.0, -155.18816175319694, 0.0]
['beep', 0.0, -3013.9092223536045, 0.0, 0.0, 0.0, 0.0, -154.80818209745672, 0.0]
['beep', 0.0, -3012.7469316419283, 0.0, 0.0, 0.0, 0.0, -153.5341326635042, 0.0]
['beep', 0.0, -3013.2833735088557, 0.0, 0.0, 0.0, 0.0, -153.5341326635042, 0.0]
['beep', 0.0, -3014.6021264317187, 0.0, 0.0, 0.0, 0.0, -154.7411268640908, 0.0]
['beep', 0.0, -3014.110388053702, 0.0, 0.0, 0.0, 0.0, -155.61284489784776, 0.0]
['beep', 0.0, -3014.780940387361, 0.0, 0.0, 0.0, 0.0, -154.4282024417165, 0.0]
['beep', 0.0, -3015.093864809736, 0.0, 0.0, 0.0, 0.0, -154.3611472083506, 0.0]
['beep', 0.0, -3015.2279752764675, 0.0, 0.0, 0.0, 0.0, -155.18816175319694, 0.0]
['beep', 0.0, -3016.8373008772496, 0.0, 0.0, 0.0, 0.0, -154.04822278597626, 0.0]
['beep', 0.0, -3016.6361351771516, 0.0, 0.0, 0.0, 0.0, -154.27174023052936, 0.0]
['beep', 0.0, -3017.440797977543, 0.0, 0.0, 0.0, 0.0, -154.47290593062712, 0.0]
['beep', 0.0, -3017.5078532109087, 0.0, 0.0, 0.0, 0.0, -153.4894291745936, 0.0]
['beep', 0.0, -3016.7702456438838, 0.0, 0.0, 0.0, 0.0, -153.10944951885338, 0.0]
['beep', 0.0, -3016.099693310224, 0.0, 0.0, 0.0, 0.0, -153.42237394122768, 0.0]
['beep', 0.0, -3017.016114832892, 0.0, 0.0, 0.0, 0.0, -152.863580329845, 0.0]
['beep', 0.0, -3015.8761758656715, 0.0, 0.0, 0.0, 0.0, -153.78000185251258, 0.0]
['beep', 0.0, -3015.3620857431993, 0.0, 0.0, 0.0, 0.0, -153.8694088303338, 0.0]
['beep', 0.0, -3015.630306676663, 0.0, 0.0, 0.0, 0.0, -154.3834989528059, 0.0]
['beep', 0.0, -3015.429140976565, 0.0, 0.0, 0.0, 0.0, -152.64006288529194, 0.0]
['beep', 0.0, -3014.6021264317187, 0.0, 0.0, 0.0, 0.0, -152.863580329845, 0.0]
['beep', 0.0, -3015.4514927210207, 0.0, 0.0, 0.0, 0.0, -152.77417335202378, 0.0]
['beep', 0.0, -3014.69153340954, 0.0, 0.0, 0.0, 0.0, -152.4836006741048, 0.0]
['beep', 0.0, -3014.490367709442, 0.0, 0.0, 0.0, 0.0, -152.46124892964949, 0.0]
['beep', 0.0, -3014.110388053702, 0.0, 0.0, 0.0, 0.0, -154.09292627488688, 0.0]
['beep', 0.0, -3014.445664220532, 0.0, 0.0, 0.0, 0.0, -155.32227221992878, 0.0]
['beep', 0.0, -3015.183271787557, 0.0, 0.0, 0.0, 0.0, -154.24938848607405, 0.0]
['beep', 0.0, -3014.2892020093445, 0.0, 0.0, 0.0, 0.0, -152.7965250964791, 0.0]
['beep', 0.0, -3016.054989821314, 0.0, 0.0, 0.0, 0.0, -152.32713846291765, 0.0]
['beep', 0.0, -3016.12204505468, 0.0, 0.0, 0.0, 0.0, -152.77417335202378, 0.0]
['beep', 0.0, -3017.5302049553643, 0.0, 0.0, 0.0, 0.0, -154.27174023052936, 0.0]
['beep', 0.0, -3017.5078532109087, 0.0, 0.0, 0.0, 0.0, -154.96464430864387, 0.0]
['beep', 0.0, -3018.3125160113, 0.0, 0.0, 0.0, 0.0, -154.78583035300142, 0.0]
['beep', 0.0, -3018.7371991559507, 0.0, 0.0, 0.0, 0.0, -155.0316995420098, 0.0]
['beep', 0.0, -3018.625440433674, 0.0, 0.0, 0.0, 0.0, -155.7469553645796, 0.0]
['beep', 0.0, -3017.7984258888278, 0.0, 0.0, 0.0, 0.0, -156.17163850923043, 0.0]
['beep', 0.0, -3018.5360334558527, 0.0, 0.0, 0.0, 0.0, -155.16581000874163, 0.0]
['beep', 0.0, -3017.5749084442746, 0.0, 0.0, 0.0, 0.0, -155.32227221992878, 0.0]
['beep', 0.0, -3017.373742744177, 0.0, 0.0, 0.0, 0.0, -154.31644371943997, 0.0]
['beep', 0.0, -3017.6196119331853, 0.0, 0.0, 0.0, 0.0, -154.96464430864387, 0.0]
['beep', 0.0, -3018.2007572890234, 0.0, 0.0, 0.0, 0.0, -156.37280420932822, 0.0]
['beep', 0.0, -3019.1842340450567, 0.0, 0.0, 0.0, 0.0, -155.59049315339246, 0.0]
['beep', 0.0, -3018.468978222487, 0.0, 0.0, 0.0, 0.0, -155.0540512864651, 0.0]
['beep', 0.0, -3018.1337020556575, 0.0, 0.0, 0.0, 0.0, -155.0987547753757, 0.0]
['beep', 0.0, -3017.373742744177, 0.0, 0.0, 0.0, 0.0, -155.7246036201243, 0.0]
['beep', 0.0, -3018.178405544568, 0.0, 0.0, 0.0, 0.0, -155.45638268666062, 0.0]
['beep', 0.0, -3018.7819026448615, 0.0, 0.0, 0.0, 0.0, -155.59049315339246, 0.0]
['beep', 0.0, -3017.083170066258, 0.0, 0.0, 0.0, 0.0, -154.22703674161872, 0.0]
['beep', 0.0, -3016.3008590103223, 0.0, 0.0, 0.0, 0.0, -155.61284489784776, 0.0]
['beep', 0.0, -3017.2619840219004, 0.0, 0.0, 0.0, 0.0, -156.0151762980433, 0.0]
['beep', 0.0, -3018.8042543893166, 0.0, 0.0, 0.0, 0.0, -155.59049315339246, 0.0]
['beep', 0.0, -3018.5360334558527, 0.0, 0.0, 0.0, 0.0, -156.37280420932822, 0.0]
['beep', 0.0, -3016.9714113439813, 0.0, 0.0, 0.0, 0.0, -155.92576932022206, 0.0]
['beep', 0.0, -3016.412617732599, 0.0, 0.0, 0.0, 0.0, -156.0598797869539, 0.0]
['beep', 0.0, -3015.764417143395, 0.0, 0.0, 0.0, 0.0, -156.21634199814105, 0.0]
['beep', 0.0, -3017.8431293777385, 0.0, 0.0, 0.0, 0.0, -155.99282455358798, 0.0]
['beep', 0.0, -3017.2396322774453, 0.0, 0.0, 0.0, 0.0, -154.67407163072488, 0.0]
['beep', 0.0, -3016.12204505468, 0.0, 0.0, 0.0, 0.0, -154.78583035300142, 0.0]
['beep', 0.0, -3017.2843357663555, 0.0, 0.0, 0.0, 0.0, -155.81401059794553, 0.0]
['beep', 0.0, -3018.088998566747, 0.0, 0.0, 0.0, 0.0, -155.81401059794553, 0.0]
['beep', 0.0, -3018.5807369447634, 0.0, 0.0, 0.0, 0.0, -156.75278386506844, 0.0]
['beep', 0.0, -3018.6477921781293, 0.0, 0.0, 0.0, 0.0, -156.9986530540768, 0.0]
['beep', 0.0, -3017.6419636776404, 0.0, 0.0, 0.0, 0.0, -154.3611472083506, 0.0]
['beep', 0.0, -3017.3290392552663, 0.0, 0.0, 0.0, 0.0, -154.78583035300142, 0.0]
['beep', 0.0, -3018.7371991559507, 0.0, 0.0, 0.0, 0.0, -153.33296696340645, 0.0]
['beep', 0.0, -3019.4748067229757, 0.0, 0.0, 0.0, 0.0, -153.93646406369973, 0.0]
['beep', 0.0, -3018.5360334558527, 0.0, 0.0, 0.0, 0.0, -154.45055418617181, 0.0]
['beep', 0.0, -3019.117178811691, 0.0, 0.0, 0.0, 0.0, -154.58466465290365, 0.0]
['beep', 0.0, -3018.3125160113, 0.0, 0.0, 0.0, 0.0, -154.22703674161872, 0.0]
['beep', 0.0, -3017.954888100015, 0.0, 0.0, 0.0, 0.0, -152.72946986311317, 0.0]
['beep', 0.0, -3018.178405544568, 0.0, 0.0, 0.0, 0.0, -153.57883615241482, 0.0]
['beep', 0.0, -3018.7371991559507, 0.0, 0.0, 0.0, 0.0, -152.5506559074707, 0.0]
['beep', 0.0, -3018.625440433674, 0.0, 0.0, 0.0, 0.0, -153.04239428548746, 0.0]
['beep', 0.0, -3017.6196119331853, 0.0, 0.0, 0.0, 0.0, -152.26008322955173, 0.0]
['beep', 0.0, -3016.9714113439813, 0.0, 0.0, 0.0, 0.0, -151.99186229608802, 0.0]
['beep', 0.0, -3017.8431293777385, 0.0, 0.0, 0.0, 0.0, -152.5283041630154, 0.0]
['beep', 0.0, -3017.7090189110068, 0.0, 0.0, 0.0, 0.0, -152.97533905212154, 0.0]
['beep', 0.0, -3017.1278735551687, 0.0, 0.0, 0.0, 0.0, -152.14832450727516, 0.0]
['beep', 0.0, -3017.2396322774453, 0.0, 0.0, 0.0, 0.0, -151.5895308958925, 0.0]
['beep', 0.0, -3017.2843357663555, 0.0, 0.0, 0.0, 0.0, -151.6342343848031, 0.0]
['beep', 0.0, -3017.3290392552663, 0.0, 0.0, 0.0, 0.0, -152.57300765192602, 0.0]
['beep', 0.0, -3017.016114832892, 0.0, 0.0, 0.0, 0.0, -152.10362101836455, 0.0]
['beep', 0.0, -3016.747893899428, 0.0, 0.0, 0.0, 0.0, -152.4836006741048, 0.0]
['beep', 0.0, -3016.949059599526, 0.0, 0.0, 0.0, 0.0, -153.71294661914666, 0.0]
['beep', 0.0, -3017.373742744177, 0.0, 0.0, 0.0, 0.0, -154.29409197498467, 0.0]
['beep', 0.0, -3017.753722399917, 0.0, 0.0, 0.0, 0.0, -154.60701639735896, 0.0]
['beep', 0.0, -3018.379571244666, 0.0, 0.0, 0.0, 0.0, -154.3834989528059, 0.0]
['beep', 0.0, -3017.3290392552663, 0.0, 0.0, 0.0, 0.0, -151.88010357381148, 0.0]
['beep', 0.0, -3016.725542154973, 0.0, 0.0, 0.0, 0.0, -150.9860337955992, 0.0]
['beep', 0.0, -3016.814949132794, 0.0, 0.0, 0.0, 0.0, -152.37184195182826, 0.0]
['beep', 0.0, -3016.9267078550706, 0.0, 0.0, 0.0, 0.0, -152.8188768409344, 0.0]
['beep', 0.0, -3017.5525566998194, 0.0, 0.0, 0.0, 0.0, -153.35531870786176, 0.0]
['beep', 0.0, -3017.5525566998194, 0.0, 0.0, 0.0, 0.0, -154.3834989528059, 0.0]
['beep', 0.0, -3016.5914316882413, 0.0, 0.0, 0.0, 0.0, -154.31644371943997, 0.0]
['beep', 0.0, -3016.3232107547774, 0.0, 0.0, 0.0, 0.0, -153.60118789687013, 0.0]
['beep', 0.0, -3015.9655828434925, 0.0, 0.0, 0.0, 0.0, -152.68476637420255, 0.0]
['beep', 0.0, -3014.69153340954, 0.0, 0.0, 0.0, 0.0, -150.9413303066886, 0.0]
['beep', 0.0, -3015.2279752764675, 0.0, 0.0, 0.0, 0.0, -151.45542042916065, 0.0]
['beep', 0.0, -3013.8421671202386, 0.0, 0.0, 0.0, 0.0, -149.80139133946793, 0.0]
['beep', 0.0, -3014.825643876272, 0.0, 0.0, 0.0, 0.0, -151.2319029846076, 0.0]
['beep', 0.0, -3016.50202471042, 0.0, 0.0, 0.0, 0.0, -152.01421404054332, 0.0]
['beep', 0.0, -3014.9374025985485, 0.0, 0.0, 0.0, 0.0, -152.30478671846234, 0.0]
['beep', 0.0, -3015.3173822542885, 0.0, 0.0, 0.0, 0.0, -151.07544077342044, 0.0]
['beep', 0.0, -3014.110388053702, 0.0, 0.0, 0.0, 0.0, -148.46028667214952, 0.0]
['beep', 0.0, -3013.9986293314255, 0.0, 0.0, 0.0, 0.0, -149.46611517263833, 0.0]
['beep', 0.0, -3015.6526584211183, 0.0, 0.0, 0.0, 0.0, -149.0190802835322, 0.0]
['beep', 0.0, -3015.0268095763695, 0.0, 0.0, 0.0, 0.0, -149.98020529511038, 0.0]
['beep', 0.0, -3014.378608987166, 0.0, 0.0, 0.0, 0.0, -150.18137099520814, 0.0]
['beep', 0.0, -3015.205623532012, 0.0, 0.0, 0.0, 0.0, -148.79556283897912, 0.0]
['beep', 0.0, -3015.40678923211, 0.0, 0.0, 0.0, 0.0, -150.78486809550145, 0.0]
['beep', 0.0, -3016.6808386660623, 0.0, 0.0, 0.0, 0.0, -151.9248070627221, 0.0]
['beep', 0.0, -3016.3902659881433, 0.0, 0.0, 0.0, 0.0, -149.0190802835322, 0.0]
['beep', 0.0, -3016.6137834326964, 0.0, 0.0, 0.0, 0.0, -147.54386514948192, 0.0]
['beep', 0.0, -3016.3008590103223, 0.0, 0.0, 0.0, 0.0, -148.84026632788974, 0.0]
['beep', 0.0, -3015.719713654484, 0.0, 0.0, 0.0, 0.0, -148.88496981680035, 0.0]
['beep', 0.0, -3015.5185479543866, 0.0, 0.0, 0.0, 0.0, -150.024908784021, 0.0]
['beep', 0.0, -3014.847995620727, 0.0, 0.0, 0.0, 0.0, -150.9189785622333, 0.0]
['beep', 0.0, -3015.8985276101266, 0.0, 0.0, 0.0, 0.0, -150.9413303066886, 0.0]
['beep', 0.0, -3015.630306676663, 0.0, 0.0, 0.0, 0.0, -150.56135065094838, 0.0]
['beep', 0.0, -3016.5467281993306, 0.0, 0.0, 0.0, 0.0, -150.22607448411875, 0.0]
['beep', 0.0, -3016.50202471042, 0.0, 0.0, 0.0, 0.0, -149.77903959501262, 0.0]
['beep', 0.0, -3016.077341565769, 0.0, 0.0, 0.0, 0.0, -150.44959192867185, 0.0]
['beep', 0.0, -3015.8985276101266, 0.0, 0.0, 0.0, 0.0, -150.024908784021, 0.0]
['beep', 0.0, -3015.1609200431017, 0.0, 0.0, 0.0, 0.0, -150.0025570395657, 0.0]
['beep', 0.0, -3015.78676888785, 0.0, 0.0, 0.0, 0.0, -149.3543564503618, 0.0]
['beep', 0.0, -3016.5690799437857, 0.0, 0.0, 0.0, 0.0, -150.87427507332268, 0.0]
['beep', 0.0, -3015.853824121216, 0.0, 0.0, 0.0, 0.0, -151.5671791514372, 0.0]
['beep', 0.0, -3015.719713654484, 0.0, 0.0, 0.0, 0.0, -150.33783320639532, 0.0]
['beep', 0.0, -3015.8314723767608, 0.0, 0.0, 0.0, 0.0, -149.22024598362995, 0.0]
['beep', 0.0, -3015.8761758656715, 0.0, 0.0, 0.0, 0.0, -149.91315006174446, 0.0]
['beep', 0.0, -3016.2785072658667, 0.0, 0.0, 0.0, 0.0, -150.2931297174847, 0.0]
['beep', 0.0, -3014.736236898451, 0.0, 0.0, 0.0, 0.0, -151.9248070627221, 0.0]
['beep', 0.0, -3014.9374025985485, 0.0, 0.0, 0.0, 0.0, -150.42724018421654, 0.0]
['beep', 0.0, -3016.703190410518, 0.0, 0.0, 0.0, 0.0, -149.53317040600425, 0.0]
['beep', 0.0, -3017.172577044079, 0.0, 0.0, 0.0, 0.0, -151.2319029846076, 0.0]
['beep', 0.0, -3017.9325363555595, 0.0, 0.0, 0.0, 0.0, -151.9248070627221, 0.0]
['beep', 0.0, -3017.5302049553643, 0.0, 0.0, 0.0, 0.0, -152.5283041630154, 0.0]
['beep', 0.0, -3017.1949287885345, 0.0, 0.0, 0.0, 0.0, -150.0025570395657, 0.0]
['beep', 0.0, -3016.792597388339, 0.0, 0.0, 0.0, 0.0, -149.95785355065507, 0.0]
['beep', 0.0, -3017.351390999722, 0.0, 0.0, 0.0, 0.0, -151.14249600678636, 0.0]
['beep', 0.0, -3017.150225299624, 0.0, 0.0, 0.0, 0.0, -151.81304834044556, 0.0]
['beep', 0.0, -3017.016114832892, 0.0, 0.0, 0.0, 0.0, -152.70711811865786, 0.0]
['beep', 0.0, -3016.725542154973, 0.0, 0.0, 0.0, 0.0, -152.14832450727516, 0.0]
['beep', 0.0, -3016.1667485435905, 0.0, 0.0, 0.0, 0.0, -150.5837023954037, 0.0]
['beep', 0.0, -3017.038466577347, 0.0, 0.0, 0.0, 0.0, -151.2542547290629, 0.0]
['beep', 0.0, -3016.792597388339, 0.0, 0.0, 0.0, 0.0, -151.9024553182668, 0.0]
['beep', 0.0, -3016.9714113439813, 0.0, 0.0, 0.0, 0.0, -152.03656578499863, 0.0]
['beep', 0.0, -3016.5243764548754, 0.0, 0.0, 0.0, 0.0, -151.99186229608802, 0.0]
['beep', 0.0, -3016.010286332403, 0.0, 0.0, 0.0, 0.0, -151.85775182935618, 0.0]
['beep', 0.0, -3017.2172805329897, 0.0, 0.0, 0.0, 0.0, -152.5059524185601, 0.0]
['beep', 0.0, -3019.050123578325, 0.0, 0.0, 0.0, 0.0, -153.26591173004053, 0.0]
['beep', 0.0, -3019.4971584674313, 0.0, 0.0, 0.0, 0.0, -153.24355998558522, 0.0]
['beep', 0.0, -3018.916013111593, 0.0, 0.0, 0.0, 0.0, -153.4894291745936, 0.0]
['beep', 0.0, -3018.2007572890234, 0.0, 0.0, 0.0, 0.0, -153.1318012633087, 0.0]
['beep', 0.0, -3016.5914316882413, 0.0, 0.0, 0.0, 0.0, -152.90828381875562, 0.0]
['beep', 0.0, -3016.077341565769, 0.0, 0.0, 0.0, 0.0, -152.7965250964791, 0.0]
['beep', 0.0, -3015.339733998744, 0.0, 0.0, 0.0, 0.0, -152.21537974064108, 0.0]
['beep', 0.0, -3012.9257455975708, 0.0, 0.0, 0.0, 0.0, -152.28243497400703, 0.0]
['beep', 0.0, -3011.4281787190653, 0.0, 0.0, 0.0, 0.0, -152.12597276281986, 0.0]
['beep', 0.0, -3013.1939665310347, 0.0, 0.0, 0.0, 0.0, -153.66824313023605, 0.0]
['beep', 0.0, -3015.6750101655734, 0.0, 0.0, 0.0, 0.0, -152.97533905212154, 0.0]
['beep', 0.0, -3016.8373008772496, 0.0, 0.0, 0.0, 0.0, -150.9189785622333, 0.0]
['beep', 0.0, -3017.1278735551687, 0.0, 0.0, 0.0, 0.0, -150.44959192867185, 0.0]
['beep', 0.0, -3017.306687510811, 0.0, 0.0, 0.0, 0.0, -151.2989582179735, 0.0]
['beep', 0.0, -3018.5807369447634, 0.0, 0.0, 0.0, 0.0, -152.08126927390924, 0.0]
['beep', 0.0, -3018.714847411495, 0.0, 0.0, 0.0, 0.0, -152.70711811865786, 0.0]
['beep', 0.0, -3018.5807369447634, 0.0, 0.0, 0.0, 0.0, -152.75182160756847, 0.0]
['beep', 0.0, -3018.044295077836, 0.0, 0.0, 0.0, 0.0, -152.12597276281986, 0.0]
['beep', 0.0, -3017.172577044079, 0.0, 0.0, 0.0, 0.0, -150.11431576184222, 0.0]
['beep', 0.0, -3017.8431293777385, 0.0, 0.0, 0.0, 0.0, -150.56135065094838, 0.0]
['beep', 0.0, -3019.1395305561464, 0.0, 0.0, 0.0, 0.0, -150.69546111768022, 0.0]
['beep', 0.0, -3019.2289375339674, 0.0, 0.0, 0.0, 0.0, -152.34949020737295, 0.0]
['beep', 0.0, -3018.3572195002102, 0.0, 0.0, 0.0, 0.0, -152.41654544073887, 0.0]
['beep', 0.0, -3017.016114832892, 0.0, 0.0, 0.0, 0.0, -150.76251635104614, 0.0]
['beep', 0.0, -3017.351390999722, 0.0, 0.0, 0.0, 0.0, -150.5837023954037, 0.0]
['beep', 0.0, -3018.088998566747, 0.0, 0.0, 0.0, 0.0, -150.47194367312716, 0.0]
['beep', 0.0, -3018.401922989121, 0.0, 0.0, 0.0, 0.0, -151.07544077342044, 0.0]
['beep', 0.0, -3017.4184462330877, 0.0, 0.0, 0.0, 0.0, -151.36601345133943, 0.0]
['beep', 0.0, -3018.3125160113, 0.0, 0.0, 0.0, 0.0, -150.15901925075283, 0.0]
['beep', 0.0, -3019.430103234065, 0.0, 0.0, 0.0, 0.0, -152.863580329845, 0.0]
['beep', 0.0, -3020.212414290001, 0.0, 0.0, 0.0, 0.0, -153.06474602994277, 0.0]
['beep', 0.0, -3019.4748067229757, 0.0, 0.0, 0.0, 0.0, -153.1318012633087, 0.0]
['beep', 0.0, -3018.983068344959, 0.0, 0.0, 0.0, 0.0, -152.8859320743003, 0.0]
['beep', 0.0, -3018.088998566747, 0.0, 0.0, 0.0, 0.0, -153.69059487469136, 0.0]
['beep', 0.0, -3017.172577044079, 0.0, 0.0, 0.0, 0.0, -154.49525767508243, 0.0]
['beep', 0.0, -3018.960716600504, 0.0, 0.0, 0.0, 0.0, -154.4058506972612, 0.0]
['beep', 0.0, -3018.916013111593, 0.0, 0.0, 0.0, 0.0, -153.8023535969679, 0.0]
['beep', 0.0, -3016.949059599526, 0.0, 0.0, 0.0, 0.0, -154.04822278597626, 0.0]
['beep', 0.0, -3017.463149721998, 0.0, 0.0, 0.0, 0.0, -154.22703674161872, 0.0]
['beep', 0.0, -3019.653620678618, 0.0, 0.0, 0.0, 0.0, -154.67407163072488, 0.0]
['beep', 0.0, -3019.430103234065, 0.0, 0.0, 0.0, 0.0, -154.87523733082264, 0.0]
['beep', 0.0, -3018.2231090334785, 0.0, 0.0, 0.0, 0.0, -153.93646406369973, 0.0]
['beep', 0.0, -3017.440797977543, 0.0, 0.0, 0.0, 0.0, -153.98116755261034, 0.0]
['beep', 0.0, -3016.5690799437857, 0.0, 0.0, 0.0, 0.0, -152.97533905212154, 0.0]
['beep', 0.0, -3013.4845392089537, 0.0, 0.0, 0.0, 0.0, -152.41654544073887, 0.0]
['beep', 0.0, -3014.177443287068, 0.0, 0.0, 0.0, 0.0, -154.07057453043157, 0.0]
['beep', 0.0, -3021.084132323758, 0.0, 0.0, 0.0, 0.0, -153.22120824112991, 0.0]
['beep', 0.0, -3024.012210847403, 0.0, 0.0, 0.0, 0.0, -151.47777217361596, 0.0]
['beep', 0.0, -3023.7216381694843, 0.0, 0.0, 0.0, 0.0, -148.28147271650707, 0.0]
['beep', 0.0, -3021.4417602350427, 0.0, 0.0, 0.0, 0.0, -147.58856863839253, 0.0]
['beep', 0.0, -3021.97820210197, 0.0, 0.0, 0.0, 0.0, -148.7285076056132, 0.0]
['beep', 0.0, -3022.022905590881, 0.0, 0.0, 0.0, 0.0, -147.7897343384903, 0.0]
['beep', 0.0, -3021.039428834847, 0.0, 0.0, 0.0, 0.0, -146.04629827097634, 0.0]
['beep', 0.0, -3020.5253387123753, 0.0, 0.0, 0.0, 0.0, -148.3708796943283, 0.0]
['beep', 0.0, -3021.97820210197, 0.0, 0.0, 0.0, 0.0, -146.60509188235903, 0.0]
['beep', 0.0, -3021.374705001677, 0.0, 0.0, 0.0, 0.0, -147.90149306076682, 0.0]
['beep', 0.0, -3022.246423035434, 0.0, 0.0, 0.0, 0.0, -149.55552215045955, 0.0]
['beep', 0.0, -3021.4194084905876, 0.0, 0.0, 0.0, 0.0, -145.80042908196796, 0.0]
['beep', 0.0, -3021.955850357515, 0.0, 0.0, 0.0, 0.0, -145.46515291513836, 0.0]
['beep', 0.0, -3022.335830013255, 0.0, 0.0, 0.0, 0.0, -147.32034770492885, 0.0]
['beep', 0.0, -3023.0063823469145, 0.0, 0.0, 0.0, 0.0, -147.61092038284784, 0.0]
['beep', 0.0, -3022.4475887355316, 0.0, 0.0, 0.0, 0.0, -146.89566456027802, 0.0]
['beep', 0.0, -3021.7323329129617, 0.0, 0.0, 0.0, 0.0, -146.00159478206572, 0.0]
['beep', 0.0, -3021.7546846574173, 0.0, 0.0, 0.0, 0.0, -147.4991616605713, 0.0]
['beep', 0.0, -3021.0617805793026, 0.0, 0.0, 0.0, 0.0, -147.32034770492885, 0.0]
['beep', 0.0, -3021.911146868604, 0.0, 0.0, 0.0, 0.0, -148.08030701640928, 0.0]
['beep', 0.0, -3022.827568391272, 0.0, 0.0, 0.0, 0.0, -148.61674888333667, 0.0]
['beep', 0.0, -3021.7323329129617, 0.0, 0.0, 0.0, 0.0, -147.00742328255456, 0.0]
['beep', 0.0, -3021.7546846574173, 0.0, 0.0, 0.0, 0.0, -148.54969364997075, 0.0]
['beep', 0.0, -3022.0005538464256, 0.0, 0.0, 0.0, 0.0, -147.72267910512437, 0.0]
['beep', 0.0, -3020.659449179107, 0.0, 0.0, 0.0, 0.0, -147.4991616605713, 0.0]
['beep', 0.0, -3020.726504412473, 0.0, 0.0, 0.0, 0.0, -148.95202505016627, 0.0]
['beep', 0.0, -3019.1395305561464, 0.0, 0.0, 0.0, 0.0, -147.90149306076682, 0.0]
['beep', 0.0, -3020.7935596458387, 0.0, 0.0, 0.0, 0.0, -148.28147271650707, 0.0]
['beep', 0.0, -3021.1511875571236, 0.0, 0.0, 0.0, 0.0, -148.79556283897912, 0.0]
['beep', 0.0, -3021.2182427904895, 0.0, 0.0, 0.0, 0.0, -148.95202505016627, 0.0]
['beep', 0.0, -3020.681800923562, 0.0, 0.0, 0.0, 0.0, -149.84609482837854, 0.0]
['beep', 0.0, -3020.0336003343587, 0.0, 0.0, 0.0, 0.0, -147.65562387175845, 0.0]
['beep', 0.0, -3020.2571177789114, 0.0, 0.0, 0.0, 0.0, -148.01325178304336, 0.0]
['beep', 0.0, -3021.5535189573193, 0.0, 0.0, 0.0, 0.0, -148.10265876086459, 0.0]
['beep', 0.0, -3021.665277679596, 0.0, 0.0, 0.0, 0.0, -148.90732156125566, 0.0]
['beep', 0.0, -3022.045257335336, 0.0, 0.0, 0.0, 0.0, -148.97437679462158, 0.0]
['beep', 0.0, -3021.665277679596, 0.0, 0.0, 0.0, 0.0, -148.95202505016627, 0.0]
['beep', 0.0, -3021.93349861306, 0.0, 0.0, 0.0, 0.0, -150.0919640173869, 0.0]
['beep', 0.0, -3022.7605131579057, 0.0, 0.0, 0.0, 0.0, -150.6507576287696, 0.0]
['beep', 0.0, -3022.0676090797915, 0.0, 0.0, 0.0, 0.0, -150.5837023954037, 0.0]
['beep', 0.0, -3023.341658513744, 0.0, 0.0, 0.0, 0.0, -150.36018495085062, 0.0]
['beep', 0.0, -3022.6487544356296, 0.0, 0.0, 0.0, 0.0, -149.91315006174446, 0.0]
['beep', 0.0, -3022.179367802068, 0.0, 0.0, 0.0, 0.0, -150.0919640173869, 0.0]
['beep', 0.0, -3022.559347457808, 0.0, 0.0, 0.0, 0.0, -149.89079831728915, 0.0]
['beep', 0.0, -3023.542824213842, 0.0, 0.0, 0.0, 0.0, -150.9189785622333, 0.0]
['beep', 0.0, -3023.4310654915653, 0.0, 0.0, 0.0, 0.0, -151.34366170688412, 0.0]
['beep', 0.0, -3022.7381614134506, 0.0, 0.0, 0.0, 0.0, -152.19302799618578, 0.0]
['beep', 0.0, -3022.2017195465232, 0.0, 0.0, 0.0, 0.0, -152.21537974064108, 0.0]
['beep', 0.0, -3022.939327113548, 0.0, 0.0, 0.0, 0.0, -151.3213099624288, 0.0]
['beep', 0.0, -3023.274603280378, 0.0, 0.0, 0.0, 0.0, -152.19302799618578, 0.0]
['beep', 0.0, -3023.78869340285, 0.0, 0.0, 0.0, 0.0, -152.70711811865786, 0.0]
['beep', 0.0, -3023.587527702752, 0.0, 0.0, 0.0, 0.0, -151.45542042916065, 0.0]
['beep', 0.0, -3021.59822244623, 0.0, 0.0, 0.0, 0.0, -152.14832450727516, 0.0]
['beep', 0.0, -3022.8722718801823, 0.0, 0.0, 0.0, 0.0, -152.8859320743003, 0.0]
['beep', 0.0, -3022.0005538464256, 0.0, 0.0, 0.0, 0.0, -151.83540008490087, 0.0]
['beep', 0.0, -3022.268774779889, 0.0, 0.0, 0.0, 0.0, -152.26008322955173, 0.0]
['beep', 0.0, -3023.274603280378, 0.0, 0.0, 0.0, 0.0, -151.5895308958925, 0.0]
['beep', 0.0, -3023.0957893247355, 0.0, 0.0, 0.0, 0.0, -151.99186229608802, 0.0]
['beep', 0.0, -3023.1628445581014, 0.0, 0.0, 0.0, 0.0, -151.81304834044556, 0.0]
['beep', 0.0, -3024.3921905031434, 0.0, 0.0, 0.0, 0.0, -152.03656578499863, 0.0]
['beep', 0.0, -3023.945155614037, 0.0, 0.0, 0.0, 0.0, -151.5671791514372, 0.0]
['beep', 0.0, -3023.1181410691906, 0.0, 0.0, 0.0, 0.0, -152.4836006741048, 0.0]
['beep', 0.0, -3022.894623624638, 0.0, 0.0, 0.0, 0.0, -153.02004254103215, 0.0]
['beep', 0.0, -3024.0345625918585, 0.0, 0.0, 0.0, 0.0, -153.24355998558522, 0.0]
['beep', 0.0, -3022.3134782688, 0.0, 0.0, 0.0, 0.0, -152.7965250964791, 0.0]
['beep', 0.0, -3021.7546846574173, 0.0, 0.0, 0.0, 0.0, -154.6964233751802, 0.0]
['beep', 0.0, -3022.536995713353, 0.0, 0.0, 0.0, 0.0, -152.64006288529194, 0.0]
['beep', 0.0, -3021.4417602350427, 0.0, 0.0, 0.0, 0.0, -151.74599310707964, 0.0]
['beep', 0.0, -3022.6711061800847, 0.0, 0.0, 0.0, 0.0, -153.4670774301383, 0.0]
['beep', 0.0, -3024.012210847403, 0.0, 0.0, 0.0, 0.0, -153.71294661914666, 0.0]
['beep', 0.0, -3024.9733358589815, 0.0, 0.0, 0.0, 0.0, -154.1376297637975, 0.0]
['beep', 0.0, -3023.8110451473053, 0.0, 0.0, 0.0, 0.0, -154.07057453043157, 0.0]
['beep', 0.0, -3024.436893992054, 0.0, 0.0, 0.0, 0.0, -153.75765010805728, 0.0]
['beep', 0.0, -3025.0627428368025, 0.0, 0.0, 0.0, 0.0, -153.98116755261034, 0.0]
['beep', 0.0, -3024.3251352697775, 0.0, 0.0, 0.0, 0.0, -153.1318012633087, 0.0]
['beep', 0.0, -3024.213376547501, 0.0, 0.0, 0.0, 0.0, -153.71294661914666, 0.0]
['beep', 0.0, -3023.3863620026546, 0.0, 0.0, 0.0, 0.0, -153.95881580815504, 0.0]
['beep', 0.0, -3022.604050946719, 0.0, 0.0, 0.0, 0.0, -152.26008322955173, 0.0]
['beep', 0.0, -3023.4087137471097, 0.0, 0.0, 0.0, 0.0, -152.37184195182826, 0.0]
['beep', 0.0, -3023.542824213842, 0.0, 0.0, 0.0, 0.0, -153.5341326635042, 0.0]
['beep', 0.0, -3023.1628445581014, 0.0, 0.0, 0.0, 0.0, -153.8470570858785, 0.0]
['beep', 0.0, -3023.3193067692887, 0.0, 0.0, 0.0, 0.0, -152.97533905212154, 0.0]
['beep', 0.0, -3022.827568391272, 0.0, 0.0, 0.0, 0.0, -152.14832450727516, 0.0]
['beep', 0.0, -3022.402885246621, 0.0, 0.0, 0.0, 0.0, -151.9024553182668, 0.0]
['beep', 0.0, -3021.017077090392, 0.0, 0.0, 0.0, 0.0, -151.07544077342044, 0.0]
['beep', 0.0, -3021.2629462794002, 0.0, 0.0, 0.0, 0.0, -151.18719949569697, 0.0]
['beep', 0.0, -3020.6147456901963, 0.0, 0.0, 0.0, 0.0, -150.82957158441207, 0.0]
['beep', 0.0, -3020.592393945741, 0.0, 0.0, 0.0, 0.0, -152.2377314850964, 0.0]
['beep', 0.0, -3020.055952078814, 0.0, 0.0, 0.0, 0.0, -152.8188768409344, 0.0]
['beep', 0.0, -3021.8440916352383, 0.0, 0.0, 0.0, 0.0, -152.19302799618578, 0.0]
['beep', 0.0, -3022.1346643131574, 0.0, 0.0, 0.0, 0.0, -152.03656578499863, 0.0]
['beep', 0.0, -3021.8440916352383, 0.0, 0.0, 0.0, 0.0, -153.37767045231706, 0.0]
['beep', 0.0, -3020.011248589903, 0.0, 0.0, 0.0, 0.0, -152.26008322955173, 0.0]
['beep', 0.0, -3020.1006555677245, 0.0, 0.0, 0.0, 0.0, -153.06474602994277, 0.0]
['beep', 0.0, -3020.7488561569285, 0.0, 0.0, 0.0, 0.0, -153.69059487469136, 0.0]
['beep', 0.0, -3020.8606148792046, 0.0, 0.0, 0.0, 0.0, -152.8412285853897, 0.0]
['beep', 0.0, -3019.988896845448, 0.0, 0.0, 0.0, 0.0, -153.02004254103215, 0.0]
['beep', 0.0, -3020.5476904568304, 0.0, 0.0, 0.0, 0.0, -154.2046849971634, 0.0]
['beep', 0.0, -3022.179367802068, 0.0, 0.0, 0.0, 0.0, -153.75765010805728, 0.0]
['beep', 0.0, -3023.0063823469145, 0.0, 0.0, 0.0, 0.0, -153.4670774301383, 0.0]
['beep', 0.0, -3023.0287340913696, 0.0, 0.0, 0.0, 0.0, -154.00351929706565, 0.0]
['beep', 0.0, -3023.3640102581994, 0.0, 0.0, 0.0, 0.0, -155.59049315339246, 0.0]
['beep', 0.0, -3023.654582936118, 0.0, 0.0, 0.0, 0.0, -156.19399025368574, 0.0]
['beep', 0.0, -3023.8333968917605, 0.0, 0.0, 0.0, 0.0, -156.86454258734497, 0.0]
['beep', 0.0, -3025.0627428368025, 0.0, 0.0, 0.0, 0.0, -156.0598797869539, 0.0]
['beep', 0.0, -3025.0180393478918, 0.0, 0.0, 0.0, 0.0, -154.27174023052936, 0.0]
['beep', 0.0, -3024.369838758688, 0.0, 0.0, 0.0, 0.0, -153.57883615241482, 0.0]
['beep', 0.0, -3023.7439899139395, 0.0, 0.0, 0.0, 0.0, -154.62936814181427, 0.0]
['beep', 0.0, -3022.6711061800847, 0.0, 0.0, 0.0, 0.0, -156.0375280424986, 0.0]
['beep', 0.0, -3024.6157079476966, 0.0, 0.0, 0.0, 0.0, -156.3057489759623, 0.0]
['beep', 0.0, -3023.4757689804756, 0.0, 0.0, 0.0, 0.0, -156.21634199814105, 0.0]
['beep', 0.0, -3021.7099811685066, 0.0, 0.0, 0.0, 0.0, -155.21051349765224, 0.0]
['beep', 0.0, -3022.7381614134506, 0.0, 0.0, 0.0, 0.0, -155.7693071090349, 0.0]
['beep', 0.0, -3024.4592457365093, 0.0, 0.0, 0.0, 0.0, -154.07057453043157, 0.0]
['beep', 0.0, -3024.526300969875, 0.0, 0.0, 0.0, 0.0, -154.65171988626957, 0.0]
['beep', 0.0, -3024.436893992054, 0.0, 0.0, 0.0, 0.0, -155.3669757088394, 0.0]
['beep', 0.0, -3023.542824213842, 0.0, 0.0, 0.0, 0.0, -155.0540512864651, 0.0]
['beep', 0.0, -3024.88392888116, 0.0, 0.0, 0.0, 0.0, -155.56814140893715, 0.0]
['beep', 0.0, -3025.152149814624, 0.0, 0.0, 0.0, 0.0, -157.6021501543701, 0.0]
['beep', 0.0, -3026.180330059568, 0.0, 0.0, 0.0, 0.0, -157.87037108783377, 0.0]
['beep', 0.0, -3026.0909230817465, 0.0, 0.0, 0.0, 0.0, -156.81983909843436, 0.0]
['beep', 0.0, -3024.1910248030454, 0.0, 0.0, 0.0, 0.0, -156.9539495651662, 0.0]
['beep', 0.0, -3023.274603280378, 0.0, 0.0, 0.0, 0.0, -156.55161816497068, 0.0]
['beep', 0.0, -3023.900452125127, 0.0, 0.0, 0.0, 0.0, -155.99282455358798, 0.0]
['beep', 0.0, -3023.587527702752, 0.0, 0.0, 0.0, 0.0, -157.71390887664663, 0.0]
['beep', 0.0, -3025.2862602813557, 0.0, 0.0, 0.0, 0.0, -158.40681295476116, 0.0]
['beep', 0.0, -3024.571004458786, 0.0, 0.0, 0.0, 0.0, -157.73626062110193, 0.0]
['beep', 0.0, -3023.4087137471097, 0.0, 0.0, 0.0, 0.0, -158.67503388822485, 0.0]
['beep', 0.0, -3023.0287340913696, 0.0, 0.0, 0.0, 0.0, -158.540923421493, 0.0]
['beep', 0.0, -3023.0957893247355, 0.0, 0.0, 0.0, 0.0, -157.78096411001255, 0.0]
['beep', 0.0, -3023.8110451473053, 0.0, 0.0, 0.0, 0.0, -156.2610454870517, 0.0]
['beep', 0.0, -3022.7381614134506, 0.0, 0.0, 0.0, 0.0, -155.56814140893715, 0.0]
['beep', 0.0, -3022.402885246621, 0.0, 0.0, 0.0, 0.0, -156.68572863170252, 0.0]
['beep', 0.0, -3021.2629462794002, 0.0, 0.0, 0.0, 0.0, -156.9539495651662, 0.0]
['beep', 0.0, -3022.1123125687022, 0.0, 0.0, 0.0, 0.0, -157.37863270981703, 0.0]
['beep', 0.0, -3022.4475887355316, 0.0, 0.0, 0.0, 0.0, -157.78096411001255, 0.0]
['beep', 0.0, -3022.335830013255, 0.0, 0.0, 0.0, 0.0, -156.37280420932822, 0.0]
['beep', 0.0, -3022.179367802068, 0.0, 0.0, 0.0, 0.0, -155.21051349765224, 0.0]
['beep', 0.0, -3022.8722718801823, 0.0, 0.0, 0.0, 0.0, -156.0598797869539, 0.0]
['beep', 0.0, -3023.855748636216, 0.0, 0.0, 0.0, 0.0, -156.35045246487292, 0.0]
['beep', 0.0, -3025.509777725909, 0.0, 0.0, 0.0, 0.0, -155.29992047547347, 0.0]
['beep', 0.0, -3025.0180393478918, 0.0, 0.0, 0.0, 0.0, -155.32227221992878, 0.0]
['beep', 0.0, -3024.50394922542, 0.0, 0.0, 0.0, 0.0, -156.0375280424986, 0.0]
['beep', 0.0, -3024.436893992054, 0.0, 0.0, 0.0, 0.0, -156.43985944269414, 0.0]
['beep', 0.0, -3026.0015161039255, 0.0, 0.0, 0.0, 0.0, -156.48456293160476, 0.0]
['beep', 0.0, -3026.7391236709504, 0.0, 0.0, 0.0, 0.0, -154.7411268640908, 0.0]
['beep', 0.0, -3026.8955858821378, 0.0, 0.0, 0.0, 0.0, -154.89758907527795, 0.0]
['beep', 0.0, -3026.917937626593, 0.0, 0.0, 0.0, 0.0, -154.96464430864387, 0.0]
['beep', 0.0, -3026.917937626593, 0.0, 0.0, 0.0, 0.0, -156.37280420932822, 0.0]
['beep', 0.0, -3025.9791643594704, 0.0, 0.0, 0.0, 0.0, -156.48456293160476, 0.0]
['beep', 0.0, -3026.403847504121, 0.0, 0.0, 0.0, 0.0, -157.08806003189804, 0.0]
['beep', 0.0, -3025.21920504799, 0.0, 0.0, 0.0, 0.0, -157.06570828744273, 0.0]
['beep', 0.0, -3025.9344608705596, 0.0, 0.0, 0.0, 0.0, -155.81401059794553, 0.0]
['beep', 0.0, -3026.0685713372914, 0.0, 0.0, 0.0, 0.0, -156.39515595378353, 0.0]
['beep', 0.0, -3025.3980190036323, 0.0, 0.0, 0.0, 0.0, -156.50691467606006, 0.0]
['beep', 0.0, -3024.213376547501, 0.0, 0.0, 0.0, 0.0, -157.2892257319958, 0.0]
