['beep', 0.0, 49.21854129058615, 0.0, 0.0, 0.0, 0.0, -97.38655059177287, 0.0]
['beep', 0.0, 49.35265175731799, 0.0, 0.0, 0.0, 0.0, -98.30297211444046, 0.0]
['beep', 0.0, 48.346823256829175, 0.0, 0.0, 0.0, 0.0, -99.55466980393766, 0.0]
['beep', 0.0, 47.58686394534874, 0.0, 0.0, 0.0, 0.0, -99.28644887047398, 0.0]
['beep', 0.0, 48.19036104564203, 0.0, 0.0, 0.0, 0.0, -99.0182279370103, 0.0]
['beep', 0.0, 48.59269244583756, 0.0, 0.0, 0.0, 0.0, -99.48761457057174, 0.0]
['beep', 0.0, 48.525637212471636, 0.0, 0.0, 0.0, 0.0, -98.21356513661924, 0.0]
['beep', 0.0, 49.665576179692295, 0.0, 0.0, 0.0, 0.0, -96.33601860237344, 0.0]
['beep', 0.0, 49.39735524622861, 0.0, 0.0, 0.0, 0.0, -95.53135580198239, 0.0]
['beep', 0.0, 50.67140468018111, 0.0, 0.0, 0.0, 0.0, -96.8724604693008, 0.0]
['beep', 0.0, 50.917273869189486, 0.0, 0.0, 0.0, 0.0, -97.76653024751309, 0.0]
['beep', 0.0, 51.36430875829563, 0.0, 0.0, 0.0, 0.0, -98.05710292543209, 0.0]
['beep', 0.0, 50.80551514691295, 0.0, 0.0, 0.0, 0.0, -98.14650990325332, 0.0]
['beep', 0.0, 50.716108169091726, 0.0, 0.0, 0.0, 0.0, -100.47109132660525, 0.0]
['beep', 0.0, 50.917273869189486, 0.0, 0.0, 0.0, 0.0, -100.71696051561362, 0.0]
['beep', 0.0, 50.850218635823566, 0.0, 0.0, 0.0, 0.0, -98.414730836717, 0.0]
['beep', 0.0, 51.16314305819787, 0.0, 0.0, 0.0, 0.0, -96.91716395821142, 0.0]
['beep', 0.0, 50.850218635823566, 0.0, 0.0, 0.0, 0.0, -96.5371843024712, 0.0]
['beep', 0.0, 50.716108169091726, 0.0, 0.0, 0.0, 0.0, -97.29714361395165, 0.0]
['beep', 0.0, 50.3137767688962, 0.0, 0.0, 0.0, 0.0, -98.28062036998516, 0.0]
['beep', 0.0, 50.917273869189486, 0.0, 0.0, 0.0, 0.0, -99.06293142592091, 0.0]
['beep', 0.0, 51.47606748057216, 0.0, 0.0, 0.0, 0.0, -100.22522213759687, 0.0]
['beep', 0.0, 51.20784654710848, 0.0, 0.0, 0.0, 0.0, -100.00170469304379, 0.0]
['beep', 0.0, 50.98432910255541, 0.0, 0.0, 0.0, 0.0, -99.73348375958011, 0.0]
['beep', 0.0, 50.93962561364479, 0.0, 0.0, 0.0, 0.0, -98.81706223691252, 0.0]
['beep', 0.0, 50.44788723562804, 0.0, 0.0, 0.0, 0.0, -99.44291108166112, 0.0]
['beep', 0.0, 50.470238980083344, 0.0, 0.0, 0.0, 0.0, -98.12415815879801, 0.0]
['beep', 0.0, 50.514942468993965, 0.0, 0.0, 0.0, 0.0, -97.8112337364237, 0.0]
['beep', 0.0, 50.02320409097721, 0.0, 0.0, 0.0, 0.0, -99.46526282611643, 0.0]
['beep', 0.0, 49.41970699068391, 0.0, 0.0, 0.0, 0.0, -100.22522213759687, 0.0]
['beep', 0.0, 49.129134312764926, 0.0, 0.0, 0.0, 0.0, -100.04640818195442, 0.0]
['beep', 0.0, 50.55964595790458, 0.0, 0.0, 0.0, 0.0, -97.31949535840695, 0.0]
['beep', 0.0, 49.75498315751352, 0.0, 0.0, 0.0, 0.0, -98.86176572582313, 0.0]
['beep', 0.0, 50.000852346521896, 0.0, 0.0, 0.0, 0.0, -99.24174538156336, 0.0]
['beep', 0.0, 49.30794826840738, 0.0, 0.0, 0.0, 0.0, -99.3758558482952, 0.0]
['beep', 0.0, 48.950320357122465, 0.0, 0.0, 0.0, 0.0, -98.50413781453823, 0.0]
['beep', 0.0, 49.15148605722023, 0.0, 0.0, 0.0, 0.0, -97.65477152523655, 0.0]
['beep', 0.0, 49.35265175731799, 0.0, 0.0, 0.0, 0.0, -98.14650990325332, 0.0]
['beep', 0.0, 47.89978836772303, 0.0, 0.0, 0.0, 0.0, -102.01336169402144, 0.0]
['beep', 0.0, 48.39152674573979, 0.0, 0.0, 0.0, 0.0, -100.11346341532034, 0.0]
['beep', 0.0, 48.145657556731415, 0.0, 0.0, 0.0, 0.0, -98.90646921473375, 0.0]
['beep', 0.0, 48.279768023463255, 0.0, 0.0, 0.0, 0.0, -101.45456808263876, 0.0]
['beep', 0.0, 49.95614885761128, 0.0, 0.0, 0.0, 0.0, -103.01919019451026, 0.0]
['beep', 0.0, 50.13496281325374, 0.0, 0.0, 0.0, 0.0, -101.00753319353262, 0.0]
['beep', 0.0, 49.196189546130846, 0.0, 0.0, 0.0, 0.0, -98.7500070035466, 0.0]
['beep', 0.0, 48.30211976791856, 0.0, 0.0, 0.0, 0.0, -99.24174538156336, 0.0]
['beep', 0.0, 48.45858197910571, 0.0, 0.0, 0.0, 0.0, -100.91812621571138, 0.0]
['beep', 0.0, 47.363346500795664, 0.0, 0.0, 0.0, 0.0, -103.84620473935661, 0.0]
['beep', 0.0, 46.961015100600136, 0.0, 0.0, 0.0, 0.0, -102.30393437194043, 0.0]
['beep', 0.0, 46.71514591159176, 0.0, 0.0, 0.0, 0.0, -99.80053899294603, 0.0]
['beep', 0.0, 48.12330581227611, 0.0, 0.0, 0.0, 0.0, -99.88994597076726, 0.0]
['beep', 0.0, 48.01154708999957, 0.0, 0.0, 0.0, 0.0, -100.2922773709628, 0.0]
['beep', 0.0, 48.01154708999957, 0.0, 0.0, 0.0, 0.0, -100.51579481551586, 0.0]
['beep', 0.0, 48.32447151237387, 0.0, 0.0, 0.0, 0.0, -99.3535041038399, 0.0]
['beep', 0.0, 47.296291267429744, 0.0, 0.0, 0.0, 0.0, -99.3758558482952, 0.0]
['beep', 0.0, 46.558683700404615, 0.0, 0.0, 0.0, 0.0, -100.11346341532034, 0.0]
['beep', 0.0, 48.19036104564203, 0.0, 0.0, 0.0, 0.0, -99.28644887047398, 0.0]
['beep', 0.0, 47.58686394534874, 0.0, 0.0, 0.0, 0.0, -99.42055933720582, 0.0]
['beep', 0.0, 46.71514591159176, 0.0, 0.0, 0.0, 0.0, -100.69460877115831, 0.0]
['beep', 0.0, 45.105820310809655, 0.0, 0.0, 0.0, 0.0, -100.82871923789016, 0.0]
['beep', 0.0, 46.826904633868295, 0.0, 0.0, 0.0, 0.0, -100.11346341532034, 0.0]
['beep', 0.0, 48.45858197910571, 0.0, 0.0, 0.0, 0.0, -98.39237909226169, 0.0]
['beep', 0.0, 49.062079079399005, 0.0, 0.0, 0.0, 0.0, -98.61589653681476, 0.0]
['beep', 0.0, 47.34099475634036, 0.0, 0.0, 0.0, 0.0, -101.00753319353262, 0.0]
['beep', 0.0, 47.20688428960852, 0.0, 0.0, 0.0, 0.0, -100.2922773709628, 0.0]
['beep', 0.0, 47.89978836772303, 0.0, 0.0, 0.0, 0.0, -99.48761457057174, 0.0]
['beep', 0.0, 48.19036104564203, 0.0, 0.0, 0.0, 0.0, -100.2922773709628, 0.0]
['beep', 0.0, 48.212712790097335, 0.0, 0.0, 0.0, 0.0, -101.36516110481753, 0.0]
['beep', 0.0, 46.33516625585154, 0.0, 0.0, 0.0, 0.0, -100.49344307106055, 0.0]
['beep', 0.0, 45.68696566664764, 0.0, 0.0, 0.0, 0.0, -100.80636749343485, 0.0]
['beep', 0.0, 45.105820310809655, 0.0, 0.0, 0.0, 0.0, -102.46039658312758, 0.0]
['beep', 0.0, 47.676270923169966, 0.0, 0.0, 0.0, 0.0, -102.01336169402144, 0.0]
['beep', 0.0, 48.01154708999957, 0.0, 0.0, 0.0, 0.0, -103.39916985025047, 0.0]
['beep', 0.0, 46.513980211493994, 0.0, 0.0, 0.0, 0.0, -103.8238529949013, 0.0]
['beep', 0.0, 46.87160812277891, 0.0, 0.0, 0.0, 0.0, -101.96865820511081, 0.0]
['beep', 0.0, 45.79872438892417, 0.0, 0.0, 0.0, 0.0, -100.44873958214994, 0.0]
['beep', 0.0, 47.34099475634036, 0.0, 0.0, 0.0, 0.0, -100.82871923789016, 0.0]
['beep', 0.0, 48.145657556731415, 0.0, 0.0, 0.0, 0.0, -102.79567274995718, 0.0]
['beep', 0.0, 47.11747731178729, 0.0, 0.0, 0.0, 0.0, -104.18148090618622, 0.0]
['beep', 0.0, 47.20688428960852, 0.0, 0.0, 0.0, 0.0, -104.38264660628398, 0.0]
['beep', 0.0, 47.02807033396606, 0.0, 0.0, 0.0, 0.0, -103.84620473935661, 0.0]
['beep', 0.0, 46.80455288941299, 0.0, 0.0, 0.0, 0.0, -105.45553034013872, 0.0]
['beep', 0.0, 47.25158777851913, 0.0, 0.0, 0.0, 0.0, -107.71305653012473, 0.0]
['beep', 0.0, 46.78220114495768, 0.0, 0.0, 0.0, 0.0, -106.23784139607447, 0.0]
['beep', 0.0, 45.99989008902193, 0.0, 0.0, 0.0, 0.0, -104.7849780064795, 0.0]
['beep', 0.0, 46.692794167136455, 0.0, 0.0, 0.0, 0.0, -104.00266695054377, 0.0]
['beep', 0.0, 45.575206944371104, 0.0, 0.0, 0.0, 0.0, -102.50510007203819, 0.0]
['beep', 0.0, 44.23410227705268, 0.0, 0.0, 0.0, 0.0, -103.68974252816946, 0.0]
['beep', 0.0, 44.256454021507984, 0.0, 0.0, 0.0, 0.0, -103.84620473935661, 0.0]
['beep', 0.0, 44.122343554776144, 0.0, 0.0, 0.0, 0.0, -104.22618439509684, 0.0]
['beep', 0.0, 44.636433677248206, 0.0, 0.0, 0.0, 0.0, -104.49440532856052, 0.0]
['beep', 0.0, 45.79872438892417, 0.0, 0.0, 0.0, 0.0, -105.00849545103259, 0.0]
['beep', 0.0, 47.65391917871466, 0.0, 0.0, 0.0, 0.0, -105.3661233623175, 0.0]
['beep', 0.0, 48.59269244583756, 0.0, 0.0, 0.0, 0.0, -104.20383265064153, 0.0]
['beep', 0.0, 50.02320409097721, 0.0, 0.0, 0.0, 0.0, -103.801501250446, 0.0]
['beep', 0.0, 51.94545411413361, 0.0, 0.0, 0.0, 0.0, -103.95796346163314, 0.0]
['beep', 0.0, 50.42553549117273, 0.0, 0.0, 0.0, 0.0, -101.85689948283428, 0.0]
['beep', 0.0, 48.346823256829175, 0.0, 0.0, 0.0, 0.0, -101.52162331600468, 0.0]
['beep', 0.0, 46.67044242268115, 0.0, 0.0, 0.0, 0.0, -102.12512041629797, 0.0]
['beep', 0.0, 46.58103544485992, 0.0, 0.0, 0.0, 0.0, -102.72861751659126, 0.0]
['beep', 0.0, 46.35751800030685, 0.0, 0.0, 0.0, 0.0, -103.4885768280717, 0.0]
['beep', 0.0, 46.11164881129847, 0.0, 0.0, 0.0, 0.0, -103.26505938351863, 0.0]
['beep', 0.0, 45.306986010907416, 0.0, 0.0, 0.0, 0.0, -103.64503903925885, 0.0]
['beep', 0.0, 45.32933775536272, 0.0, 0.0, 0.0, 0.0, -103.510928572527, 0.0]
['beep', 0.0, 45.19522728863088, 0.0, 0.0, 0.0, 0.0, -102.79567274995718, 0.0]
['beep', 0.0, 46.04459357793255, 0.0, 0.0, 0.0, 0.0, -103.73444601708007, 0.0]
['beep', 0.0, 47.69862266762527, 0.0, 0.0, 0.0, 0.0, -103.10859717233149, 0.0]
['beep', 0.0, 47.497456967527505, 0.0, 0.0, 0.0, 0.0, -103.55563206143762, 0.0]
['beep', 0.0, 46.71514591159176, 0.0, 0.0, 0.0, 0.0, -103.24270763906333, 0.0]
['beep', 0.0, 46.223407533575006, 0.0, 0.0, 0.0, 0.0, -101.5886785493706, 0.0]
['beep', 0.0, 46.06694532238786, 0.0, 0.0, 0.0, 0.0, -102.25923088302982, 0.0]
['beep', 0.0, 46.71514591159176, 0.0, 0.0, 0.0, 0.0, -101.34280936036222, 0.0]
['beep', 0.0, 46.692794167136455, 0.0, 0.0, 0.0, 0.0, -103.01919019451026, 0.0]
['beep', 0.0, 46.24575927803031, 0.0, 0.0, 0.0, 0.0, -103.95796346163314, 0.0]
['beep', 0.0, 44.50232321051636, 0.0, 0.0, 0.0, 0.0, -103.64503903925885, 0.0]
['beep', 0.0, 45.239930777541495, 0.0, 0.0, 0.0, 0.0, -104.7849780064795, 0.0]
['beep', 0.0, 45.239930777541495, 0.0, 0.0, 0.0, 0.0, -103.84620473935661, 0.0]
['beep', 0.0, 44.457619721605745, 0.0, 0.0, 0.0, 0.0, -102.05806518293205, 0.0]
['beep', 0.0, 45.038765077443735, 0.0, 0.0, 0.0, 0.0, -102.05806518293205, 0.0]
['beep', 0.0, 44.0105848324996, 0.0, 0.0, 0.0, 0.0, -102.68391402768064, 0.0]
['beep', 0.0, 44.16704704368676, 0.0, 0.0, 0.0, 0.0, -104.53910881747113, 0.0]
['beep', 0.0, 44.14469529923145, 0.0, 0.0, 0.0, 0.0, -104.85203323984543, 0.0]
['beep', 0.0, 45.59755868882641, 0.0, 0.0, 0.0, 0.0, -103.510928572527, 0.0]
['beep', 0.0, 45.79872438892417, 0.0, 0.0, 0.0, 0.0, -103.801501250446, 0.0]
['beep', 0.0, 44.457619721605745, 0.0, 0.0, 0.0, 0.0, -105.14260591776443, 0.0]
['beep', 0.0, 44.83759937734597, 0.0, 0.0, 0.0, 0.0, -102.25923088302982, 0.0]
['beep', 0.0, 47.18453254515321, 0.0, 0.0, 0.0, 0.0, -102.8627279833231, 0.0]
['beep', 0.0, 47.51980871198282, 0.0, 0.0, 0.0, 0.0, -102.5274518164935, 0.0]
['beep', 0.0, 46.49162846703869, 0.0, 0.0, 0.0, 0.0, -103.04154193896557, 0.0]
['beep', 0.0, 47.45275347861689, 0.0, 0.0, 0.0, 0.0, -103.28741112797394, 0.0]
['beep', 0.0, 47.1398290562426, 0.0, 0.0, 0.0, 0.0, -104.7626262620242, 0.0]
['beep', 0.0, 47.363346500795664, 0.0, 0.0, 0.0, 0.0, -105.41082685122811, 0.0]
['beep', 0.0, 46.67044242268115, 0.0, 0.0, 0.0, 0.0, -105.09790242885381, 0.0]
['beep', 0.0, 46.8492563783236, 0.0, 0.0, 0.0, 0.0, -104.98614370657727, 0.0]
['beep', 0.0, 46.71514591159176, 0.0, 0.0, 0.0, 0.0, -103.35446636133986, 0.0]
['beep', 0.0, 44.457619721605745, 0.0, 0.0, 0.0, 0.0, -104.24853613955214, 0.0]
['beep', 0.0, 45.575206944371104, 0.0, 0.0, 0.0, 0.0, -103.801501250446, 0.0]
['beep', 0.0, 46.089297066843166, 0.0, 0.0, 0.0, 0.0, -103.30976287242925, 0.0]
['beep', 0.0, 45.32933775536272, 0.0, 0.0, 0.0, 0.0, -104.06972218390969, 0.0]
['beep', 0.0, 43.87647436576776, 0.0, 0.0, 0.0, 0.0, -103.39916985025047, 0.0]
['beep', 0.0, 45.59755868882641, 0.0, 0.0, 0.0, 0.0, -104.06972218390969, 0.0]
['beep', 0.0, 47.497456967527505, 0.0, 0.0, 0.0, 0.0, -105.14260591776443, 0.0]
['beep', 0.0, 46.58103544485992, 0.0, 0.0, 0.0, 0.0, -105.96962046261078, 0.0]
['beep', 0.0, 45.8881313667454, 0.0, 0.0, 0.0, 0.0, -105.9919722070661, 0.0]
['beep', 0.0, 47.11747731178729, 0.0, 0.0, 0.0, 0.0, -104.56146056192644, 0.0]
['beep', 0.0, 46.73749765604707, 0.0, 0.0, 0.0, 0.0, -104.62851579529236, 0.0]
['beep', 0.0, 47.20688428960852, 0.0, 0.0, 0.0, 0.0, -102.84037623886779, 0.0]
['beep', 0.0, 49.0397273349437, 0.0, 0.0, 0.0, 0.0, -103.66739078371415, 0.0]
['beep', 0.0, 48.19036104564203, 0.0, 0.0, 0.0, 0.0, -103.1756524056974, 0.0]
['beep', 0.0, 49.0397273349437, 0.0, 0.0, 0.0, 0.0, -103.42152159470578, 0.0]
['beep', 0.0, 48.77150640148001, 0.0, 0.0, 0.0, 0.0, -104.58381230638174, 0.0]
['beep', 0.0, 48.61504419029286, 0.0, 0.0, 0.0, 0.0, -104.40499835073929, 0.0]
['beep', 0.0, 48.413878490195096, 0.0, 0.0, 0.0, 0.0, -104.87438498430073, 0.0]
['beep', 0.0, 49.82203839087944, 0.0, 0.0, 0.0, 0.0, -106.17078616270855, 0.0]
['beep', 0.0, 48.749154657024704, 0.0, 0.0, 0.0, 0.0, -105.23201289558565, 0.0]
['beep', 0.0, 49.50911396850515, 0.0, 0.0, 0.0, 0.0, -102.46039658312758, 0.0]
['beep', 0.0, 49.71027966860291, 0.0, 0.0, 0.0, 0.0, -101.67808552719183, 0.0]
['beep', 0.0, 48.816209890390624, 0.0, 0.0, 0.0, 0.0, -101.85689948283428, 0.0]
['beep', 0.0, 48.23506453455264, 0.0, 0.0, 0.0, 0.0, -103.13094891678679, 0.0]
['beep', 0.0, 47.966843601088954, 0.0, 0.0, 0.0, 0.0, -104.36029486182868, 0.0]
['beep', 0.0, 47.00571858951075, 0.0, 0.0, 0.0, 0.0, -105.7013995291471, 0.0]
['beep', 0.0, 47.09512556733198, 0.0, 0.0, 0.0, 0.0, -104.53910881747113, 0.0]
['beep', 0.0, 47.743326156535886, 0.0, 0.0, 0.0, 0.0, -103.35446636133986, 0.0]
['beep', 0.0, 46.58103544485992, 0.0, 0.0, 0.0, 0.0, -102.43804483867227, 0.0]
['beep', 0.0, 47.229236034063824, 0.0, 0.0, 0.0, 0.0, -102.79567274995718, 0.0]
['beep', 0.0, 45.95518660011132, 0.0, 0.0, 0.0, 0.0, -103.33211461688455, 0.0]
['beep', 0.0, 46.961015100600136, 0.0, 0.0, 0.0, 0.0, -102.57215530540411, 0.0]
['beep', 0.0, 47.58686394534874, 0.0, 0.0, 0.0, 0.0, -100.47109132660525, 0.0]
['beep', 0.0, 46.29046276694093, 0.0, 0.0, 0.0, 0.0, -100.18051864868626, 0.0]
['beep', 0.0, 47.11747731178729, 0.0, 0.0, 0.0, 0.0, -102.57215530540411, 0.0]
['beep', 0.0, 46.93866335614483, 0.0, 0.0, 0.0, 0.0, -104.33794311737337, 0.0]
['beep', 0.0, 45.99989008902193, 0.0, 0.0, 0.0, 0.0, -104.7626262620242, 0.0]
['beep', 0.0, 47.430401734161585, 0.0, 0.0, 0.0, 0.0, -102.14747216075328, 0.0]
['beep', 0.0, 47.38569824525097, 0.0, 0.0, 0.0, 0.0, -101.16399540471977, 0.0]
['beep', 0.0, 46.06694532238786, 0.0, 0.0, 0.0, 0.0, -101.85689948283428, 0.0]
['beep', 0.0, 47.363346500795664, 0.0, 0.0, 0.0, 0.0, -104.20383265064153, 0.0]
['beep', 0.0, 46.33516625585154, 0.0, 0.0, 0.0, 0.0, -104.15912916173092, 0.0]
['beep', 0.0, 45.843427877834785, 0.0, 0.0, 0.0, 0.0, -103.66739078371415, 0.0]
['beep', 0.0, 45.306986010907416, 0.0, 0.0, 0.0, 0.0, -102.41569309421696, 0.0]
['beep', 0.0, 45.32933775536272, 0.0, 0.0, 0.0, 0.0, -102.10276867184267, 0.0]
['beep', 0.0, 44.68113716615882, 0.0, 0.0, 0.0, 0.0, -102.63921053877003, 0.0]
['beep', 0.0, 45.46344822209456, 0.0, 0.0, 0.0, 0.0, -102.1921756496639, 0.0]
['beep', 0.0, 46.02224183347724, 0.0, 0.0, 0.0, 0.0, -100.73931226006893, 0.0]
['beep', 0.0, 46.11164881129847, 0.0, 0.0, 0.0, 0.0, -101.96865820511081, 0.0]
['beep', 0.0, 45.99989008902193, 0.0, 0.0, 0.0, 0.0, -102.25923088302982, 0.0]
['beep', 0.0, 45.35168949981803, 0.0, 0.0, 0.0, 0.0, -101.52162331600468, 0.0]
['beep', 0.0, 47.02807033396606, 0.0, 0.0, 0.0, 0.0, -103.60033555034823, 0.0]
['beep', 0.0, 47.56451220089343, 0.0, 0.0, 0.0, 0.0, -103.55563206143762, 0.0]
['beep', 0.0, 45.99989008902193, 0.0, 0.0, 0.0, 0.0, -101.29810587145161, 0.0]
['beep', 0.0, 46.06694532238786, 0.0, 0.0, 0.0, 0.0, -101.5886785493706, 0.0]
['beep', 0.0, 46.33516625585154, 0.0, 0.0, 0.0, 0.0, -101.81219599392367, 0.0]
['beep', 0.0, 47.51980871198282, 0.0, 0.0, 0.0, 0.0, -100.06875992640973, 0.0]
['beep', 0.0, 48.36917500128448, 0.0, 0.0, 0.0, 0.0, -102.10276867184267, 0.0]
['beep', 0.0, 46.98336684505544, 0.0, 0.0, 0.0, 0.0, -100.962829704622, 0.0]
['beep', 0.0, 47.05042207842137, 0.0, 0.0, 0.0, 0.0, -100.87342272680077, 0.0]
['beep', 0.0, 47.1398290562426, 0.0, 0.0, 0.0, 0.0, -100.6275535377924, 0.0]
['beep', 0.0, 47.542160456438125, 0.0, 0.0, 0.0, 0.0, -100.78401574897954, 0.0]
['beep', 0.0, 48.078602323365494, 0.0, 0.0, 0.0, 0.0, -100.20287039314157, 0.0]
['beep', 0.0, 47.56451220089343, 0.0, 0.0, 0.0, 0.0, -100.53814655997117, 0.0]
['beep', 0.0, 47.09512556733198, 0.0, 0.0, 0.0, 0.0, -99.95700120413318, 0.0]
['beep', 0.0, 47.45275347861689, 0.0, 0.0, 0.0, 0.0, -100.42638783769463, 0.0]
['beep', 0.0, 47.09512556733198, 0.0, 0.0, 0.0, 0.0, -100.53814655997117, 0.0]
['beep', 0.0, 47.27393952297444, 0.0, 0.0, 0.0, 0.0, -100.94047796016669, 0.0]
['beep', 0.0, 48.59269244583756, 0.0, 0.0, 0.0, 0.0, -99.88994597076726, 0.0]
['beep', 0.0, 47.05042207842137, 0.0, 0.0, 0.0, 0.0, -101.72278901610244, 0.0]
['beep', 0.0, 46.35751800030685, 0.0, 0.0, 0.0, 0.0, -100.49344307106055, 0.0]
['beep', 0.0, 46.26811102248562, 0.0, 0.0, 0.0, 0.0, -100.60520179333709, 0.0]
['beep', 0.0, 46.893959867234216, 0.0, 0.0, 0.0, 0.0, -101.00753319353262, 0.0]
['beep', 0.0, 46.826904633868295, 0.0, 0.0, 0.0, 0.0, -96.80540523593488, 0.0]
['beep', 0.0, 47.85508487881242, 0.0, 0.0, 0.0, 0.0, -97.09597791385389, 0.0]
['beep', 0.0, 47.69862266762527, 0.0, 0.0, 0.0, 0.0, -98.92882095918905, 0.0]
['beep', 0.0, 48.413878490195096, 0.0, 0.0, 0.0, 0.0, -98.66060002572537, 0.0]
['beep', 0.0, 47.65391917871466, 0.0, 0.0, 0.0, 0.0, -98.90646921473375, 0.0]
['beep', 0.0, 48.90561686821185, 0.0, 0.0, 0.0, 0.0, -99.28644887047398, 0.0]
['beep', 0.0, 48.90561686821185, 0.0, 0.0, 0.0, 0.0, -100.15816690423095, 0.0]
['beep', 0.0, 47.56451220089343, 0.0, 0.0, 0.0, 0.0, -100.06875992640973, 0.0]
['beep', 0.0, 49.531465712960454, 0.0, 0.0, 0.0, 0.0, -98.83941398136783, 0.0]
['beep', 0.0, 48.32447151237387, 0.0, 0.0, 0.0, 0.0, -98.32532385889577, 0.0]
['beep', 0.0, 48.54798895692694, 0.0, 0.0, 0.0, 0.0, -97.99004769206616, 0.0]
['beep', 0.0, 48.145657556731415, 0.0, 0.0, 0.0, 0.0, -99.64407678175888, 0.0]
['beep', 0.0, 47.676270923169966, 0.0, 0.0, 0.0, 0.0, -101.34280936036222, 0.0]
['beep', 0.0, 47.72097441208058, 0.0, 0.0, 0.0, 0.0, -100.87342272680077, 0.0]
['beep', 0.0, 47.363346500795664, 0.0, 0.0, 0.0, 0.0, -98.03475118097678, 0.0]
['beep', 0.0, 47.65391917871466, 0.0, 0.0, 0.0, 0.0, -96.1795563911863, 0.0]
['beep', 0.0, 49.10678256830962, 0.0, 0.0, 0.0, 0.0, -97.4759575695941, 0.0]
['beep', 0.0, 47.02807033396606, 0.0, 0.0, 0.0, 0.0, -99.21939363710806, 0.0]
['beep', 0.0, 46.73749765604707, 0.0, 0.0, 0.0, 0.0, -100.51579481551586, 0.0]
['beep', 0.0, 47.85508487881242, 0.0, 0.0, 0.0, 0.0, -100.15816690423095, 0.0]
['beep', 0.0, 46.8492563783236, 0.0, 0.0, 0.0, 0.0, -98.99587619255497, 0.0]
['beep', 0.0, 45.5528551999158, 0.0, 0.0, 0.0, 0.0, -98.414730836717, 0.0]
['beep', 0.0, 46.513980211493994, 0.0, 0.0, 0.0, 0.0, -98.21356513661924, 0.0]
['beep', 0.0, 46.156352300209086, 0.0, 0.0, 0.0, 0.0, -97.56536454741533, 0.0]
['beep', 0.0, 46.78220114495768, 0.0, 0.0, 0.0, 0.0, -98.21356513661924, 0.0]
['beep', 0.0, 47.76567790099119, 0.0, 0.0, 0.0, 0.0, -96.62659128029243, 0.0]
['beep', 0.0, 46.26811102248562, 0.0, 0.0, 0.0, 0.0, -96.69364651365835, 0.0]
['beep', 0.0, 46.73749765604707, 0.0, 0.0, 0.0, 0.0, -98.61589653681476, 0.0]
['beep', 0.0, 48.30211976791856, 0.0, 0.0, 0.0, 0.0, -101.18634714917508, 0.0]
['beep', 0.0, 46.558683700404615, 0.0, 0.0, 0.0, 0.0, -97.72182675860248, 0.0]
['beep', 0.0, 47.02807033396606, 0.0, 0.0, 0.0, 0.0, -97.90064071424493, 0.0]
['beep', 0.0, 46.06694532238786, 0.0, 0.0, 0.0, 0.0, -97.4759575695941, 0.0]
['beep', 0.0, 45.99989008902193, 0.0, 0.0, 0.0, 0.0, -97.02892268048797, 0.0]
['beep', 0.0, 47.76567790099119, 0.0, 0.0, 0.0, 0.0, -98.57119304790415, 0.0]
['beep', 0.0, 47.20688428960852, 0.0, 0.0, 0.0, 0.0, -99.21939363710806, 0.0]
['beep', 0.0, 47.810381389901806, 0.0, 0.0, 0.0, 0.0, -99.46526282611643, 0.0]
['beep', 0.0, 47.4751052230722, 0.0, 0.0, 0.0, 0.0, -98.70530351463599, 0.0]
['beep', 0.0, 46.49162846703869, 0.0, 0.0, 0.0, 0.0, -99.82289073740134, 0.0]
['beep', 0.0, 47.76567790099119, 0.0, 0.0, 0.0, 0.0, -99.88994597076726, 0.0]
['beep', 0.0, 48.346823256829175, 0.0, 0.0, 0.0, 0.0, -98.66060002572537, 0.0]
['beep', 0.0, 47.92214011217834, 0.0, 0.0, 0.0, 0.0, -99.10763491483152, 0.0]
['beep', 0.0, 47.09512556733198, 0.0, 0.0, 0.0, 0.0, -98.48178607008292, 0.0]
['beep', 0.0, 46.17870404466439, 0.0, 0.0, 0.0, 0.0, -100.51579481551586, 0.0]
['beep', 0.0, 47.34099475634036, 0.0, 0.0, 0.0, 0.0, -100.82871923789016, 0.0]
['beep', 0.0, 48.83856163484593, 0.0, 0.0, 0.0, 0.0, -100.94047796016669, 0.0]
['beep', 0.0, 48.32447151237387, 0.0, 0.0, 0.0, 0.0, -100.73931226006893, 0.0]
['beep', 0.0, 47.51980871198282, 0.0, 0.0, 0.0, 0.0, -99.66642852621419, 0.0]
['beep', 0.0, 48.61504419029286, 0.0, 0.0, 0.0, 0.0, -98.61589653681476, 0.0]
['beep', 0.0, 48.480933723561016, 0.0, 0.0, 0.0, 0.0, -106.79663500745714, 0.0]
['beep', 0.0, 49.39735524622861, 0.0, 0.0, 0.0, 0.0, -104.58381230638174, 0.0]
['beep', 0.0, 48.54798895692694, 0.0, 0.0, 0.0, 0.0, -105.29906812895157, 0.0]
['beep', 0.0, 48.70445116811409, 0.0, 0.0, 0.0, 0.0, -104.7626262620242, 0.0]
['beep', 0.0, 48.30211976791856, 0.0, 0.0, 0.0, 0.0, -104.31559137291806, 0.0]
['beep', 0.0, 47.98919534554426, 0.0, 0.0, 0.0, 0.0, -106.21548965161917, 0.0]
['beep', 0.0, 49.46441047959453, 0.0, 0.0, 0.0, 0.0, -107.44483559666105, 0.0]
['beep', 0.0, 50.045555835432516, 0.0, 0.0, 0.0, 0.0, -106.59546930735938, 0.0]
['beep', 0.0, 49.24089303504146, 0.0, 0.0, 0.0, 0.0, -106.64017279627, 0.0]
['beep', 0.0, 49.799686646424135, 0.0, 0.0, 0.0, 0.0, -106.14843441825325, 0.0]
['beep', 0.0, 49.263244779496766, 0.0, 0.0, 0.0, 0.0, -105.29906812895157, 0.0]
['beep', 0.0, 49.08443082385431, 0.0, 0.0, 0.0, 0.0, -104.24853613955214, 0.0]
['beep', 0.0, 49.77733490196883, 0.0, 0.0, 0.0, 0.0, -105.18730940667504, 0.0]
['beep', 0.0, 50.82786689136826, 0.0, 0.0, 0.0, 0.0, -106.10373092934263, 0.0]
['beep', 0.0, 49.39735524622861, 0.0, 0.0, 0.0, 0.0, -104.85203323984543, 0.0]
['beep', 0.0, 49.35265175731799, 0.0, 0.0, 0.0, 0.0, -106.68487628518061, 0.0]
['beep', 0.0, 49.64322443523699, 0.0, 0.0, 0.0, 0.0, -107.9365739746778, 0.0]
['beep', 0.0, 50.02320409097721, 0.0, 0.0, 0.0, 0.0, -106.21548965161917, 0.0]
['beep', 0.0, 47.31864301188505, 0.0, 0.0, 0.0, 0.0, -105.0531989399432, 0.0]
['beep', 0.0, 48.145657556731415, 0.0, 0.0, 0.0, 0.0, -107.44483559666105, 0.0]
['beep', 0.0, 49.196189546130846, 0.0, 0.0, 0.0, 0.0, -105.58964080687056, 0.0]
['beep', 0.0, 49.97850060206659, 0.0, 0.0, 0.0, 0.0, -106.46135884062754, 0.0]
['beep', 0.0, 48.65974767920348, 0.0, 0.0, 0.0, 0.0, -109.09886468635378, 0.0]
['beep', 0.0, 48.90561686821185, 0.0, 0.0, 0.0, 0.0, -108.38360886378395, 0.0]
['beep', 0.0, 49.933797113155975, 0.0, 0.0, 0.0, 0.0, -104.53910881747113, 0.0]
['beep', 0.0, 49.665576179692295, 0.0, 0.0, 0.0, 0.0, -104.62851579529236, 0.0]
['beep', 0.0, 51.051384335921334, 0.0, 0.0, 0.0, 0.0, -105.96962046261078, 0.0]
['beep', 0.0, 50.581997702359885, 0.0, 0.0, 0.0, 0.0, -106.70722802963591, 0.0]
['beep', 0.0, 49.933797113155975, 0.0, 0.0, 0.0, 0.0, -104.13677741727561, 0.0]
['beep', 0.0, 50.20201804661966, 0.0, 0.0, 0.0, 0.0, -105.65669604023648, 0.0]
['beep', 0.0, 49.196189546130846, 0.0, 0.0, 0.0, 0.0, -106.3272483738957, 0.0]
['beep', 0.0, 50.60434944681519, 0.0, 0.0, 0.0, 0.0, -108.40596060823925, 0.0]
['beep', 0.0, 50.53729421344927, 0.0, 0.0, 0.0, 0.0, -109.23297515308562, 0.0]
['beep', 0.0, 49.0397273349437, 0.0, 0.0, 0.0, 0.0, -107.24366989656329, 0.0]
['beep', 0.0, 49.91144536870067, 0.0, 0.0, 0.0, 0.0, -106.349600118351, 0.0]
['beep', 0.0, 50.11261106879844, 0.0, 0.0, 0.0, 0.0, -104.49440532856052, 0.0]
['beep', 0.0, 50.24672153553028, 0.0, 0.0, 0.0, 0.0, -104.7626262620242, 0.0]
['beep', 0.0, 51.252550036019095, 0.0, 0.0, 0.0, 0.0, -106.41665535171693, 0.0]
['beep', 0.0, 48.346823256829175, 0.0, 0.0, 0.0, 0.0, -106.10373092934263, 0.0]
['beep', 0.0, 47.966843601088954, 0.0, 0.0, 0.0, 0.0, -106.08137918488733, 0.0]
['beep', 0.0, 49.75498315751352, 0.0, 0.0, 0.0, 0.0, -106.68487628518061, 0.0]
['beep', 0.0, 49.933797113155975, 0.0, 0.0, 0.0, 0.0, -105.76845476251302, 0.0]
['beep', 0.0, 49.50911396850515, 0.0, 0.0, 0.0, 0.0, -106.26019314052978, 0.0]
['beep', 0.0, 48.32447151237387, 0.0, 0.0, 0.0, 0.0, -104.98614370657727, 0.0]
['beep', 0.0, 49.41970699068391, 0.0, 0.0, 0.0, 0.0, -104.02501869499908, 0.0]
['beep', 0.0, 49.35265175731799, 0.0, 0.0, 0.0, 0.0, -104.1144256728203, 0.0]
['beep', 0.0, 49.46441047959453, 0.0, 0.0, 0.0, 0.0, -105.85786174033424, 0.0]
['beep', 0.0, 50.3137767688962, 0.0, 0.0, 0.0, 0.0, -106.72957977409122, 0.0]
['beep', 0.0, 49.91144536870067, 0.0, 0.0, 0.0, 0.0, -107.53424257448228, 0.0]
['beep', 0.0, 48.25741627900795, 0.0, 0.0, 0.0, 0.0, -107.35542861883982, 0.0]
['beep', 0.0, 48.86091337930124, 0.0, 0.0, 0.0, 0.0, -106.77428326300183, 0.0]
['beep', 0.0, 49.15148605722023, 0.0, 0.0, 0.0, 0.0, -105.18730940667504, 0.0]
['beep', 0.0, 49.10678256830962, 0.0, 0.0, 0.0, 0.0, -107.69070478566942, 0.0]
['beep', 0.0, 48.23506453455264, 0.0, 0.0, 0.0, 0.0, -106.55076581844877, 0.0]
['beep', 0.0, 48.480933723561016, 0.0, 0.0, 0.0, 0.0, -105.09790242885381, 0.0]
['beep', 0.0, 48.480933723561016, 0.0, 0.0, 0.0, 0.0, -107.17661466319737, 0.0]
['beep', 0.0, 50.9619773581001, 0.0, 0.0, 0.0, 0.0, -109.47884434209399, 0.0]
['beep', 0.0, 49.71027966860291, 0.0, 0.0, 0.0, 0.0, -106.90839372973367, 0.0]
['beep', 0.0, 49.732631413058215, 0.0, 0.0, 0.0, 0.0, -106.46135884062754, 0.0]
['beep', 0.0, 50.917273869189486, 0.0, 0.0, 0.0, 0.0, -104.24853613955214, 0.0]
['beep', 0.0, 51.09608782483195, 0.0, 0.0, 0.0, 0.0, -105.65669604023648, 0.0]
['beep', 0.0, 50.850218635823566, 0.0, 0.0, 0.0, 0.0, -105.18730940667504, 0.0]
['beep', 0.0, 50.06790757988782, 0.0, 0.0, 0.0, 0.0, -103.89090822826722, 0.0]
['beep', 0.0, 49.91144536870067, 0.0, 0.0, 0.0, 0.0, -105.96962046261078, 0.0]
['beep', 0.0, 49.866741879790055, 0.0, 0.0, 0.0, 0.0, -107.2883733854739, 0.0]
['beep', 0.0, 49.598520946326374, 0.0, 0.0, 0.0, 0.0, -109.21062340863031, 0.0]
['beep', 0.0, 49.17383780167554, 0.0, 0.0, 0.0, 0.0, -109.14356817526439, 0.0]
['beep', 0.0, 48.92796861266716, 0.0, 0.0, 0.0, 0.0, -107.75776001903535, 0.0]
['beep', 0.0, 48.682099423658784, 0.0, 0.0, 0.0, 0.0, -105.41082685122811, 0.0]
['beep', 0.0, 49.46441047959453, 0.0, 0.0, 0.0, 0.0, -107.82481525240127, 0.0]
['beep', 0.0, 50.06790757988782, 0.0, 0.0, 0.0, 0.0, -107.91422223022249, 0.0]
['beep', 0.0, 50.53729421344927, 0.0, 0.0, 0.0, 0.0, -106.59546930735938, 0.0]
['beep', 0.0, 48.59269244583756, 0.0, 0.0, 0.0, 0.0, -106.48371058508285, 0.0]
['beep', 0.0, 48.25741627900795, 0.0, 0.0, 0.0, 0.0, -105.74610301805771, 0.0]
['beep', 0.0, 48.19036104564203, 0.0, 0.0, 0.0, 0.0, -108.80829200843478, 0.0]
['beep', 0.0, 47.92214011217834, 0.0, 0.0, 0.0, 0.0, -108.00362920804373, 0.0]
['beep', 0.0, 48.70445116811409, 0.0, 0.0, 0.0, 0.0, -108.11538793032027, 0.0]
['beep', 0.0, 47.38569824525097, 0.0, 0.0, 0.0, 0.0, -108.00362920804373, 0.0]
['beep', 0.0, 46.87160812277891, 0.0, 0.0, 0.0, 0.0, -109.43414085318338, 0.0]
['beep', 0.0, 46.87160812277891, 0.0, 0.0, 0.0, 0.0, -110.81994900941241, 0.0]
['beep', 0.0, 48.03389883445488, 0.0, 0.0, 0.0, 0.0, -106.19313790716386, 0.0]
['beep', 0.0, 49.6879279241476, 0.0, 0.0, 0.0, 0.0, -106.41665535171693, 0.0]
['beep', 0.0, 49.598520946326374, 0.0, 0.0, 0.0, 0.0, -107.22131815210798, 0.0]
['beep', 0.0, 48.480933723561016, 0.0, 0.0, 0.0, 0.0, -107.69070478566942, 0.0]
['beep', 0.0, 48.45858197910571, 0.0, 0.0, 0.0, 0.0, -107.48953908557166, 0.0]
['beep', 0.0, 49.598520946326374, 0.0, 0.0, 0.0, 0.0, -107.89187048576719, 0.0]
['beep', 0.0, 49.39735524622861, 0.0, 0.0, 0.0, 0.0, -108.00362920804373, 0.0]
['beep', 0.0, 49.6879279241476, 0.0, 0.0, 0.0, 0.0, -107.64600129675881, 0.0]
['beep', 0.0, 49.21854129058615, 0.0, 0.0, 0.0, 0.0, -106.79663500745714, 0.0]
['beep', 0.0, 48.950320357122465, 0.0, 0.0, 0.0, 0.0, -106.23784139607447, 0.0]
['beep', 0.0, 48.45858197910571, 0.0, 0.0, 0.0, 0.0, -107.13191117428676, 0.0]
['beep', 0.0, 49.933797113155975, 0.0, 0.0, 0.0, 0.0, -106.50606232953815, 0.0]
['beep', 0.0, 50.269073279985584, 0.0, 0.0, 0.0, 0.0, -105.63434429578118, 0.0]
['beep', 0.0, 49.866741879790055, 0.0, 0.0, 0.0, 0.0, -107.22131815210798, 0.0]
['beep', 0.0, 49.41970699068391, 0.0, 0.0, 0.0, 0.0, -108.16009141923088, 0.0]
['beep', 0.0, 50.38083200226212, 0.0, 0.0, 0.0, 0.0, -107.53424257448228, 0.0]
['beep', 0.0, 51.00668084701072, 0.0, 0.0, 0.0, 0.0, -106.99780070755492, 0.0]
['beep', 0.0, 51.319605269385015, 0.0, 0.0, 0.0, 0.0, -106.28254488498509, 0.0]
['beep', 0.0, 50.60434944681519, 0.0, 0.0, 0.0, 0.0, -106.88604198527837, 0.0]
['beep', 0.0, 50.20201804661966, 0.0, 0.0, 0.0, 0.0, -106.64017279627, 0.0]
['beep', 0.0, 49.71027966860291, 0.0, 0.0, 0.0, 0.0, -107.89187048576719, 0.0]
['beep', 0.0, 49.531465712960454, 0.0, 0.0, 0.0, 0.0, -109.47884434209399, 0.0]
['beep', 0.0, 49.46441047959453, 0.0, 0.0, 0.0, 0.0, -110.19410016466382, 0.0]
['beep', 0.0, 49.01737559048839, 0.0, 0.0, 0.0, 0.0, -106.26019314052978, 0.0]
['beep', 0.0, 50.44788723562804, 0.0, 0.0, 0.0, 0.0, -105.63434429578118, 0.0]
['beep', 0.0, 50.93962561364479, 0.0, 0.0, 0.0, 0.0, -107.80246350794596, 0.0]
['beep', 0.0, 51.61017794730401, 0.0, 0.0, 0.0, 0.0, -106.93074547418898, 0.0]
['beep', 0.0, 51.118439569287254, 0.0, 0.0, 0.0, 0.0, -107.15426291874206, 0.0]
['beep', 0.0, 50.80551514691295, 0.0, 0.0, 0.0, 0.0, -108.78594026397947, 0.0]
['beep', 0.0, 50.581997702359885, 0.0, 0.0, 0.0, 0.0, -107.37778036329513, 0.0]
['beep', 0.0, 51.54312271393809, 0.0, 0.0, 0.0, 0.0, -106.86369024082306, 0.0]
['beep', 0.0, 51.07373608037664, 0.0, 0.0, 0.0, 0.0, -107.17661466319737, 0.0]
['beep', 0.0, 50.60434944681519, 0.0, 0.0, 0.0, 0.0, -109.38943736427277, 0.0]
['beep', 0.0, 50.38083200226212, 0.0, 0.0, 0.0, 0.0, -108.71888503061355, 0.0]
['beep', 0.0, 49.55381745741576, 0.0, 0.0, 0.0, 0.0, -105.3661233623175, 0.0]
['beep', 0.0, 50.403183746717424, 0.0, 0.0, 0.0, 0.0, -104.80732975093481, 0.0]
['beep', 0.0, 49.6879279241476, 0.0, 0.0, 0.0, 0.0, -105.0531989399432, 0.0]
['beep', 0.0, 49.799686646424135, 0.0, 0.0, 0.0, 0.0, -104.20383265064153, 0.0]
['beep', 0.0, 51.34195701384032, 0.0, 0.0, 0.0, 0.0, -103.801501250446, 0.0]
['beep', 0.0, 50.13496281325374, 0.0, 0.0, 0.0, 0.0, -105.63434429578118, 0.0]
['beep', 0.0, 50.9619773581001, 0.0, 0.0, 0.0, 0.0, -106.81898675191245, 0.0]
['beep', 0.0, 51.16314305819787, 0.0, 0.0, 0.0, 0.0, -106.84133849636775, 0.0]
['beep', 0.0, 49.866741879790055, 0.0, 0.0, 0.0, 0.0, -106.81898675191245, 0.0]
['beep', 0.0, 50.3137767688962, 0.0, 0.0, 0.0, 0.0, -105.14260591776443, 0.0]
['beep', 0.0, 49.91144536870067, 0.0, 0.0, 0.0, 0.0, -105.20966115113035, 0.0]
['beep', 0.0, 50.24672153553028, 0.0, 0.0, 0.0, 0.0, -104.62851579529236, 0.0]
['beep', 0.0, 50.17966630216436, 0.0, 0.0, 0.0, 0.0, -102.97448670559963, 0.0]
['beep', 0.0, 49.39735524622861, 0.0, 0.0, 0.0, 0.0, -102.8627279833231, 0.0]
['beep', 0.0, 48.57034070138225, 0.0, 0.0, 0.0, 0.0, -105.43317859568342, 0.0]
['beep', 0.0, 49.3750035017733, 0.0, 0.0, 0.0, 0.0, -105.9919722070661, 0.0]
['beep', 0.0, 48.97267210157777, 0.0, 0.0, 0.0, 0.0, -106.46135884062754, 0.0]
['beep', 0.0, 48.346823256829175, 0.0, 0.0, 0.0, 0.0, -107.2883733854739, 0.0]
['beep', 0.0, 49.263244779496766, 0.0, 0.0, 0.0, 0.0, -106.81898675191245, 0.0]
['beep', 0.0, 49.17383780167554, 0.0, 0.0, 0.0, 0.0, -105.16495766221973, 0.0]
['beep', 0.0, 47.63156743425935, 0.0, 0.0, 0.0, 0.0, -105.65669604023648, 0.0]
['beep', 0.0, 47.65391917871466, 0.0, 0.0, 0.0, 0.0, -106.75193151854653, 0.0]
['beep', 0.0, 48.97267210157777, 0.0, 0.0, 0.0, 0.0, -105.0308471954879, 0.0]
['beep', 0.0, 48.97267210157777, 0.0, 0.0, 0.0, 0.0, -105.90256522924486, 0.0]
['beep', 0.0, 48.816209890390624, 0.0, 0.0, 0.0, 0.0, -105.43317859568342, 0.0]
['beep', 0.0, 48.19036104564203, 0.0, 0.0, 0.0, 0.0, -105.3884751067728, 0.0]
['beep', 0.0, 47.609215689804046, 0.0, 0.0, 0.0, 0.0, -103.86855648381191, 0.0]
['beep', 0.0, 48.23506453455264, 0.0, 0.0, 0.0, 0.0, -104.15912916173092, 0.0]
['beep', 0.0, 48.70445116811409, 0.0, 0.0, 0.0, 0.0, -105.85786174033424, 0.0]
['beep', 0.0, 45.99989008902193, 0.0, 0.0, 0.0, 0.0, -107.2883733854739, 0.0]
['beep', 0.0, 46.893959867234216, 0.0, 0.0, 0.0, 0.0, -106.48371058508285, 0.0]
['beep', 0.0, 47.45275347861689, 0.0, 0.0, 0.0, 0.0, -107.06485594092084, 0.0]
['beep', 0.0, 48.92796861266716, 0.0, 0.0, 0.0, 0.0, -105.9919722070661, 0.0]
['beep', 0.0, 50.716108169091726, 0.0, 0.0, 0.0, 0.0, -105.25436464004096, 0.0]
['beep', 0.0, 51.83369539185708, 0.0, 0.0, 0.0, 0.0, -103.75679776153538, 0.0]
['beep', 0.0, 52.39248900323975, 0.0, 0.0, 0.0, 0.0, -102.95213496114432, 0.0]
['beep', 0.0, 52.8618756368012, 0.0, 0.0, 0.0, 0.0, -102.99683845005495, 0.0]
['beep', 0.0, 52.168971558686685, 0.0, 0.0, 0.0, 0.0, -103.01919019451026, 0.0]
['beep', 0.0, 49.62087269078168, 0.0, 0.0, 0.0, 0.0, -103.19800415015271, 0.0]
['beep', 0.0, 47.00571858951075, 0.0, 0.0, 0.0, 0.0, -104.13677741727561, 0.0]
['beep', 0.0, 45.93283485565601, 0.0, 0.0, 0.0, 0.0, -104.87438498430073, 0.0]
['beep', 0.0, 46.29046276694093, 0.0, 0.0, 0.0, 0.0, -106.39430360726162, 0.0]
['beep', 0.0, 46.558683700404615, 0.0, 0.0, 0.0, 0.0, -107.08720768537614, 0.0]
['beep', 0.0, 46.93866335614483, 0.0, 0.0, 0.0, 0.0, -104.87438498430073, 0.0]
['beep', 0.0, 45.776372644468864, 0.0, 0.0, 0.0, 0.0, -104.13677741727561, 0.0]
['beep', 0.0, 45.575206944371104, 0.0, 0.0, 0.0, 0.0, -106.75193151854653, 0.0]
['beep', 0.0, 47.18453254515321, 0.0, 0.0, 0.0, 0.0, -109.00945770853255, 0.0]
['beep', 0.0, 48.86091337930124, 0.0, 0.0, 0.0, 0.0, -104.53910881747113, 0.0]
['beep', 0.0, 47.51980871198282, 0.0, 0.0, 0.0, 0.0, -104.69557102865828, 0.0]
['beep', 0.0, 46.67044242268115, 0.0, 0.0, 0.0, 0.0, -106.08137918488733, 0.0]
['beep', 0.0, 47.25158777851913, 0.0, 0.0, 0.0, 0.0, -105.52258557350464, 0.0]
['beep', 0.0, 47.02807033396606, 0.0, 0.0, 0.0, 0.0, -104.69557102865828, 0.0]
['beep', 0.0, 46.67044242268115, 0.0, 0.0, 0.0, 0.0, -104.98614370657727, 0.0]
['beep', 0.0, 46.24575927803031, 0.0, 0.0, 0.0, 0.0, -106.14843441825325, 0.0]
['beep', 0.0, 46.91631161168952, 0.0, 0.0, 0.0, 0.0, -107.06485594092084, 0.0]
['beep', 0.0, 46.73749765604707, 0.0, 0.0, 0.0, 0.0, -106.86369024082306, 0.0]
['beep', 0.0, 47.20688428960852, 0.0, 0.0, 0.0, 0.0, -106.77428326300183, 0.0]
['beep', 0.0, 48.23506453455264, 0.0, 0.0, 0.0, 0.0, -107.19896640765268, 0.0]
['beep', 0.0, 47.542160456438125, 0.0, 0.0, 0.0, 0.0, -107.6012978078482, 0.0]
['beep', 0.0, 46.961015100600136, 0.0, 0.0, 0.0, 0.0, -109.65765829773645, 0.0]
['beep', 0.0, 47.76567790099119, 0.0, 0.0, 0.0, 0.0, -107.48953908557166, 0.0]
['beep', 0.0, 48.212712790097335, 0.0, 0.0, 0.0, 0.0, -104.40499835073929, 0.0]
['beep', 0.0, 48.57034070138225, 0.0, 0.0, 0.0, 0.0, -105.34377161786219, 0.0]
['beep', 0.0, 49.08443082385431, 0.0, 0.0, 0.0, 0.0, -108.33890537487333, 0.0]
['beep', 0.0, 48.63739593474817, 0.0, 0.0, 0.0, 0.0, -108.62947805279232, 0.0]
['beep', 0.0, 48.1009540678208, 0.0, 0.0, 0.0, 0.0, -106.70722802963591, 0.0]
['beep', 0.0, 48.078602323365494, 0.0, 0.0, 0.0, 0.0, -107.57894606339289, 0.0]
['beep', 0.0, 49.21854129058615, 0.0, 0.0, 0.0, 0.0, -107.57894606339289, 0.0]
['beep', 0.0, 48.413878490195096, 0.0, 0.0, 0.0, 0.0, -107.22131815210798, 0.0]
['beep', 0.0, 47.00571858951075, 0.0, 0.0, 0.0, 0.0, -108.09303618586496, 0.0]
['beep', 0.0, 47.1398290562426, 0.0, 0.0, 0.0, 0.0, -107.6236495523035, 0.0]
['beep', 0.0, 47.69862266762527, 0.0, 0.0, 0.0, 0.0, -107.80246350794596, 0.0]
['beep', 0.0, 48.86091337930124, 0.0, 0.0, 0.0, 0.0, -107.89187048576719, 0.0]
['beep', 0.0, 48.078602323365494, 0.0, 0.0, 0.0, 0.0, -108.2047949081415, 0.0]
['beep', 0.0, 46.73749765604707, 0.0, 0.0, 0.0, 0.0, -108.71888503061355, 0.0]
['beep', 0.0, 46.73749765604707, 0.0, 0.0, 0.0, 0.0, -108.27185014150741, 0.0]
['beep', 0.0, 47.56451220089343, 0.0, 0.0, 0.0, 0.0, -109.27767864199623, 0.0]
['beep', 0.0, 47.58686394534874, 0.0, 0.0, 0.0, 0.0, -109.23297515308562, 0.0]
['beep', 0.0, 47.65391917871466, 0.0, 0.0, 0.0, 0.0, -109.09886468635378, 0.0]
['beep', 0.0, 46.93866335614483, 0.0, 0.0, 0.0, 0.0, -110.35056237585097, 0.0]
['beep', 0.0, 45.5528551999158, 0.0, 0.0, 0.0, 0.0, -109.23297515308562, 0.0]
['beep', 0.0, 46.692794167136455, 0.0, 0.0, 0.0, 0.0, -108.49536758606048, 0.0]
['beep', 0.0, 46.91631161168952, 0.0, 0.0, 0.0, 0.0, -108.00362920804373, 0.0]
['beep', 0.0, 46.46927672258338, 0.0, 0.0, 0.0, 0.0, -111.49050134307163, 0.0]
['beep', 0.0, 47.45275347861689, 0.0, 0.0, 0.0, 0.0, -109.72471353110237, 0.0]
['beep', 0.0, 46.223407533575006, 0.0, 0.0, 0.0, 0.0, -108.2271466525968, 0.0]
['beep', 0.0, 45.95518660011132, 0.0, 0.0, 0.0, 0.0, -106.81898675191245, 0.0]
['beep', 0.0, 47.58686394534874, 0.0, 0.0, 0.0, 0.0, -108.74123677506886, 0.0]
['beep', 0.0, 46.49162846703869, 0.0, 0.0, 0.0, 0.0, -110.4623210981275, 0.0]
['beep', 0.0, 45.99989008902193, 0.0, 0.0, 0.0, 0.0, -108.45066409714987, 0.0]
['beep', 0.0, 47.676270923169966, 0.0, 0.0, 0.0, 0.0, -108.94240247516662, 0.0]
['beep', 0.0, 49.88909362424536, 0.0, 0.0, 0.0, 0.0, -110.05998969793198, 0.0]
['beep', 0.0, 50.09025932434313, 0.0, 0.0, 0.0, 0.0, -110.4399693536722, 0.0]
['beep', 0.0, 48.816209890390624, 0.0, 0.0, 0.0, 0.0, -108.00362920804373, 0.0]
['beep', 0.0, 48.36917500128448, 0.0, 0.0, 0.0, 0.0, -107.89187048576719, 0.0]
['beep', 0.0, 48.682099423658784, 0.0, 0.0, 0.0, 0.0, -109.59060306437053, 0.0]
['beep', 0.0, 48.63739593474817, 0.0, 0.0, 0.0, 0.0, -108.76358851952416, 0.0]
['beep', 0.0, 48.97267210157777, 0.0, 0.0, 0.0, 0.0, -108.74123677506886, 0.0]
['beep', 0.0, 49.17383780167554, 0.0, 0.0, 0.0, 0.0, -109.14356817526439, 0.0]
['beep', 0.0, 48.816209890390624, 0.0, 0.0, 0.0, 0.0, -107.55659431893758, 0.0]
['beep', 0.0, 47.87743662326773, 0.0, 0.0, 0.0, 0.0, -109.54589957545991, 0.0]
['beep', 0.0, 48.45858197910571, 0.0, 0.0, 0.0, 0.0, -108.2047949081415, 0.0]
['beep', 0.0, 47.63156743425935, 0.0, 0.0, 0.0, 0.0, -105.9919722070661, 0.0]
['beep', 0.0, 47.743326156535886, 0.0, 0.0, 0.0, 0.0, -106.55076581844877, 0.0]
['beep', 0.0, 47.40804998970628, 0.0, 0.0, 0.0, 0.0, -107.69070478566942, 0.0]
['beep', 0.0, 47.229236034063824, 0.0, 0.0, 0.0, 0.0, -107.84716699685657, 0.0]
['beep', 0.0, 47.743326156535886, 0.0, 0.0, 0.0, 0.0, -108.67418154170294, 0.0]
['beep', 0.0, 46.73749765604707, 0.0, 0.0, 0.0, 0.0, -109.188271664175, 0.0]
['beep', 0.0, 47.296291267429744, 0.0, 0.0, 0.0, 0.0, -109.63530655328114, 0.0]
['beep', 0.0, 46.558683700404615, 0.0, 0.0, 0.0, 0.0, -108.60712630833702, 0.0]
['beep', 0.0, 46.26811102248562, 0.0, 0.0, 0.0, 0.0, -107.44483559666105, 0.0]
['beep', 0.0, 45.95518660011132, 0.0, 0.0, 0.0, 0.0, -107.02015245201022, 0.0]
['beep', 0.0, 46.58103544485992, 0.0, 0.0, 0.0, 0.0, -106.84133849636775, 0.0]
['beep', 0.0, 46.446924978128074, 0.0, 0.0, 0.0, 0.0, -107.19896640765268, 0.0]
['beep', 0.0, 45.709317411102944, 0.0, 0.0, 0.0, 0.0, -105.85786174033424, 0.0]
['beep', 0.0, 43.38473598775101, 0.0, 0.0, 0.0, 0.0, -106.6625245407253, 0.0]
['beep', 0.0, 43.22827377656386, 0.0, 0.0, 0.0, 0.0, -106.41665535171693, 0.0]
['beep', 0.0, 43.89882611022307, 0.0, 0.0, 0.0, 0.0, -106.50606232953815, 0.0]
['beep', 0.0, 44.81524763289066, 0.0, 0.0, 0.0, 0.0, -107.2883733854739, 0.0]
['beep', 0.0, 43.585901687848775, 0.0, 0.0, 0.0, 0.0, -108.98710596407724, 0.0]
['beep', 0.0, 43.20592203210855, 0.0, 0.0, 0.0, 0.0, -108.71888503061355, 0.0]
['beep', 0.0, 44.524674954971665, 0.0, 0.0, 0.0, 0.0, -105.74610301805771, 0.0]
['beep', 0.0, 45.8881313667454, 0.0, 0.0, 0.0, 0.0, -103.95796346163314, 0.0]
['beep', 0.0, 47.09512556733198, 0.0, 0.0, 0.0, 0.0, -104.38264660628398, 0.0]
['beep', 0.0, 46.893959867234216, 0.0, 0.0, 0.0, 0.0, -106.6625245407253, 0.0]
['beep', 0.0, 46.223407533575006, 0.0, 0.0, 0.0, 0.0, -104.89673672875604, 0.0]
['beep', 0.0, 47.63156743425935, 0.0, 0.0, 0.0, 0.0, -104.71792277311359, 0.0]
['beep', 0.0, 48.19036104564203, 0.0, 0.0, 0.0, 0.0, -105.14260591776443, 0.0]
['beep', 0.0, 47.296291267429744, 0.0, 0.0, 0.0, 0.0, -105.3661233623175, 0.0]
['beep', 0.0, 47.89978836772303, 0.0, 0.0, 0.0, 0.0, -105.74610301805771, 0.0]
['beep', 0.0, 48.57034070138225, 0.0, 0.0, 0.0, 0.0, -105.20966115113035, 0.0]
['beep', 0.0, 47.94449185663365, 0.0, 0.0, 0.0, 0.0, -105.41082685122811, 0.0]
['beep', 0.0, 48.79385814593532, 0.0, 0.0, 0.0, 0.0, -107.2660216410186, 0.0]
['beep', 0.0, 47.85508487881242, 0.0, 0.0, 0.0, 0.0, -107.48953908557166, 0.0]
['beep', 0.0, 48.16800930118672, 0.0, 0.0, 0.0, 0.0, -107.91422223022249, 0.0]
['beep', 0.0, 48.01154708999957, 0.0, 0.0, 0.0, 0.0, -106.75193151854653, 0.0]
['beep', 0.0, 47.743326156535886, 0.0, 0.0, 0.0, 0.0, -105.81315825142363, 0.0]
['beep', 0.0, 48.480933723561016, 0.0, 0.0, 0.0, 0.0, -105.92491697370016, 0.0]
['beep', 0.0, 48.682099423658784, 0.0, 0.0, 0.0, 0.0, -108.00362920804373, 0.0]
['beep', 0.0, 47.676270923169966, 0.0, 0.0, 0.0, 0.0, -106.84133849636775, 0.0]
['beep', 0.0, 47.51980871198282, 0.0, 0.0, 0.0, 0.0, -104.87438498430073, 0.0]
['beep', 0.0, 48.36917500128448, 0.0, 0.0, 0.0, 0.0, -107.33307687438452, 0.0]
['beep', 0.0, 47.40804998970628, 0.0, 0.0, 0.0, 0.0, -107.15426291874206, 0.0]
['beep', 0.0, 47.20688428960852, 0.0, 0.0, 0.0, 0.0, -105.83550999587894, 0.0]
['beep', 0.0, 45.68696566664764, 0.0, 0.0, 0.0, 0.0, -106.57311756290407, 0.0]
['beep', 0.0, 45.8881313667454, 0.0, 0.0, 0.0, 0.0, -106.6625245407253, 0.0]
['beep', 0.0, 46.02224183347724, 0.0, 0.0, 0.0, 0.0, -107.75776001903535, 0.0]
['beep', 0.0, 46.29046276694093, 0.0, 0.0, 0.0, 0.0, -108.60712630833702, 0.0]
['beep', 0.0, 47.65391917871466, 0.0, 0.0, 0.0, 0.0, -108.31655363041803, 0.0]
['beep', 0.0, 48.12330581227611, 0.0, 0.0, 0.0, 0.0, -108.13773967477557, 0.0]
['beep', 0.0, 47.34099475634036, 0.0, 0.0, 0.0, 0.0, -106.3272483738957, 0.0]
['beep', 0.0, 47.94449185663365, 0.0, 0.0, 0.0, 0.0, -104.04737043945438, 0.0]
['beep', 0.0, 47.05042207842137, 0.0, 0.0, 0.0, 0.0, -105.29906812895157, 0.0]
['beep', 0.0, 46.513980211493994, 0.0, 0.0, 0.0, 0.0, -106.349600118351, 0.0]
['beep', 0.0, 45.01641333298842, 0.0, 0.0, 0.0, 0.0, -107.75776001903535, 0.0]
['beep', 0.0, 44.77054414398005, 0.0, 0.0, 0.0, 0.0, -108.71888503061355, 0.0]
['beep', 0.0, 45.41874473318395, 0.0, 0.0, 0.0, 0.0, -109.56825131991522, 0.0]
['beep', 0.0, 45.68696566664764, 0.0, 0.0, 0.0, 0.0, -108.78594026397947, 0.0]
['beep', 0.0, 44.23410227705268, 0.0, 0.0, 0.0, 0.0, -106.77428326300183, 0.0]
['beep', 0.0, 44.34586099932921, 0.0, 0.0, 0.0, 0.0, -106.17078616270855, 0.0]
['beep', 0.0, 44.27880576596329, 0.0, 0.0, 0.0, 0.0, -106.52841407399346, 0.0]
['beep', 0.0, 44.65878542170351, 0.0, 0.0, 0.0, 0.0, -107.46718734111636, 0.0]
['beep', 0.0, 45.01641333298842, 0.0, 0.0, 0.0, 0.0, -107.04250419646553, 0.0]
['beep', 0.0, 45.105820310809655, 0.0, 0.0, 0.0, 0.0, -106.93074547418898, 0.0]
['beep', 0.0, 43.22827377656386, 0.0, 0.0, 0.0, 0.0, -108.60712630833702, 0.0]
['beep', 0.0, 42.15539004270912, 0.0, 0.0, 0.0, 0.0, -107.89187048576719, 0.0]
['beep', 0.0, 44.457619721605745, 0.0, 0.0, 0.0, 0.0, -108.5624228194264, 0.0]
['beep', 0.0, 43.94352959913368, 0.0, 0.0, 0.0, 0.0, -106.39430360726162, 0.0]
['beep', 0.0, 44.88230286625658, 0.0, 0.0, 0.0, 0.0, -103.68974252816946, 0.0]
['beep', 0.0, 43.94352959913368, 0.0, 0.0, 0.0, 0.0, -104.36029486182868, 0.0]
['beep', 0.0, 43.27297726547447, 0.0, 0.0, 0.0, 0.0, -105.76845476251302, 0.0]
['beep', 0.0, 44.189398788142064, 0.0, 0.0, 0.0, 0.0, -106.79663500745714, 0.0]
['beep', 0.0, 44.524674954971665, 0.0, 0.0, 0.0, 0.0, -108.13773967477557, 0.0]
['beep', 0.0, 45.82107613337948, 0.0, 0.0, 0.0, 0.0, -108.5400710749711, 0.0]
['beep', 0.0, 45.12817205526496, 0.0, 0.0, 0.0, 0.0, -107.37778036329513, 0.0]
['beep', 0.0, 43.49649471002754, 0.0, 0.0, 0.0, 0.0, -106.43900709617223, 0.0]
['beep', 0.0, 43.83177087685715, 0.0, 0.0, 0.0, 0.0, -105.3661233623175, 0.0]
['beep', 0.0, 44.3011575104186, 0.0, 0.0, 0.0, 0.0, -105.12025417330912, 0.0]
['beep', 0.0, 43.720012154580616, 0.0, 0.0, 0.0, 0.0, -105.3884751067728, 0.0]
['beep', 0.0, 41.30602375340745, 0.0, 0.0, 0.0, 0.0, -104.56146056192644, 0.0]
['beep', 0.0, 41.52954119796052, 0.0, 0.0, 0.0, 0.0, -104.36029486182868, 0.0]
['beep', 0.0, 43.004756332010786, 0.0, 0.0, 0.0, 0.0, -103.91325997272253, 0.0]
['beep', 0.0, 42.35655574280688, 0.0, 0.0, 0.0, 0.0, -102.95213496114432, 0.0]
['beep', 0.0, 42.200093531619736, 0.0, 0.0, 0.0, 0.0, -102.95213496114432, 0.0]
['beep', 0.0, 41.93187259815605, 0.0, 0.0, 0.0, 0.0, -103.06389368342087, 0.0]
['beep', 0.0, 42.49066620953872, 0.0, 0.0, 0.0, 0.0, -99.10763491483152, 0.0]
['beep', 0.0, 43.004756332010786, 0.0, 0.0, 0.0, 0.0, -96.26896336900752, 0.0]
['beep', 0.0, 43.94352959913368, 0.0, 0.0, 0.0, 0.0, -92.51387030051593, 0.0]
['beep', 0.0, 43.54119819893816, 0.0, 0.0, 0.0, 0.0, -88.33409408737351, 0.0]
['beep', 0.0, 43.25062552101917, 0.0, 0.0, 0.0, 0.0, -83.14848937374228, 0.0]
['beep', 0.0, 42.46831446508342, 0.0, 0.0, 0.0, 0.0, -78.54403001594902, 0.0]
['beep', 0.0, 42.35655574280688, 0.0, 0.0, 0.0, 0.0, -73.80546019142392, 0.0]
['beep', 0.0, 43.988233088044296, 0.0, 0.0, 0.0, 0.0, -66.49643975453851, 0.0]
['beep', 0.0, 46.17870404466439, 0.0, 0.0, 0.0, 0.0, -61.4002420187285, 0.0]
['beep', 0.0, 47.229236034063824, 0.0, 0.0, 0.0, 0.0, -55.45467799361682, 0.0]
['beep', 0.0, 44.23410227705268, 0.0, 0.0, 0.0, 0.0, -50.6267011912705, 0.0]
['beep', 0.0, 40.94839584212254, 0.0, 0.0, 0.0, 0.0, -45.105820310809655, 0.0]
['beep', 0.0, 43.16121854319794, 0.0, 0.0, 0.0, 0.0, -40.09902955282087, 0.0]
['beep', 0.0, 48.078602323365494, 0.0, 0.0, 0.0, 0.0, -36.32158473987398, 0.0]
['beep', 0.0, 47.4751052230722, 0.0, 0.0, 0.0, 0.0, -29.191378258631023, 0.0]
['beep', 0.0, 47.05042207842137, 0.0, 0.0, 0.0, 0.0, -24.408104945195312, 0.0]
['beep', 0.0, 46.71514591159176, 0.0, 0.0, 0.0, 0.0, -17.277898463952358, 0.0]
['beep', 0.0, 48.77150640148001, 0.0, 0.0, 0.0, 0.0, -12.695790850614411, 0.0]
['beep', 0.0, 48.525637212471636, 0.0, 0.0, 0.0, 0.0, -6.861985547779268, 0.0]
['beep', 0.0, 49.15148605722023, 0.0, 0.0, 0.0, 0.0, 3.129244223742989, 0.0]
['beep', 0.0, 47.676270923169966, 0.0, 0.0, 0.0, 0.0, 7.778407070446858, 0.0]
['beep', 0.0, 46.893959867234216, 0.0, 0.0, 0.0, 0.0, 11.466444905572523, 0.0]
['beep', 0.0, 49.6879279241476, 0.0, 0.0, 0.0, 0.0, 19.066038020376926, 0.0]
['beep', 0.0, 50.000852346521896, 0.0, 0.0, 0.0, 0.0, 26.46446543508356, 0.0]
['beep', 0.0, 48.99502384603308, 0.0, 0.0, 0.0, 0.0, 31.87358759326787, 0.0]
['beep', 0.0, 49.75498315751352, 0.0, 0.0, 0.0, 0.0, 35.673384150670074, 0.0]
['beep', 0.0, 49.6879279241476, 0.0, 0.0, 0.0, 0.0, 37.394468473728715, 0.0]
['beep', 0.0, 51.02903259146603, 0.0, 0.0, 0.0, 0.0, 40.90369235321192, 0.0]
['beep', 0.0, 49.196189546130846, 0.0, 0.0, 0.0, 0.0, 42.62477667627057, 0.0]
['beep', 0.0, 47.92214011217834, 0.0, 0.0, 0.0, 0.0, 41.84246562033482, 0.0]
['beep', 0.0, 49.866741879790055, 0.0, 0.0, 0.0, 0.0, 41.350727242318065, 0.0]
['beep', 0.0, 49.77733490196883, 0.0, 0.0, 0.0, 0.0, 39.227311519063896, 0.0]
['beep', 0.0, 46.625738933770535, 0.0, 0.0, 0.0, 0.0, 36.05336380641029, 0.0]
['beep', 0.0, 46.06694532238786, 0.0, 0.0, 0.0, 0.0, 31.985346315544408, 0.0]
['beep', 0.0, 46.893959867234216, 0.0, 0.0, 0.0, 0.0, 29.169026514175716, 0.0]
['beep', 0.0, 45.99989008902193, 0.0, 0.0, 0.0, 0.0, 23.156407255698117, 0.0]
['beep', 0.0, 45.977538344566625, 0.0, 0.0, 0.0, 0.0, 17.903747308700957, 0.0]
['beep', 0.0, 45.39639298872864, 0.0, 0.0, 0.0, 0.0, 13.969840284566914, 0.0]
['beep', 0.0, 44.457619721605745, 0.0, 0.0, 0.0, 0.0, 4.202127957597728, 0.0]
['beep', 0.0, 45.508151711005176, 0.0, 0.0, 0.0, 0.0, -0.24586918900837768, 0.0]
['beep', 0.0, 44.6140819327929, 0.0, 0.0, 0.0, 0.0, -3.2186512015642172, 0.0]
['beep', 0.0, 44.256454021507984, 0.0, 0.0, 0.0, 0.0, -10.550023382904934, 0.0]
['beep', 0.0, 45.46344822209456, 0.0, 0.0, 0.0, 0.0, -16.853215319301526, 0.0]
['beep', 0.0, 45.172875544175575, 0.0, 0.0, 0.0, 0.0, -23.581090400348952, 0.0]
['beep', 0.0, 44.457619721605745, 0.0, 0.0, 0.0, 0.0, -29.23608174754164, 0.0]
['beep', 0.0, 44.65878542170351, 0.0, 0.0, 0.0, 0.0, -33.12528528276507, 0.0]
['beep', 0.0, 44.50232321051636, 0.0, 0.0, 0.0, 0.0, -39.36142198579574, 0.0]
['beep', 0.0, 45.06111682189904, 0.0, 0.0, 0.0, 0.0, -43.38473598775101, 0.0]
['beep', 0.0, 44.43526797715044, 0.0, 0.0, 0.0, 0.0, -46.71514591159176, 0.0]
['beep', 0.0, 42.98240458755548, 0.0, 0.0, 0.0, 0.0, -48.19036104564203, 0.0]
['beep', 0.0, 43.16121854319794, 0.0, 0.0, 0.0, 0.0, -52.32543376987383, 0.0]
['beep', 0.0, 43.80941913240184, 0.0, 0.0, 0.0, 0.0, -56.527561727471564, 0.0]
['beep', 0.0, 43.116515054287326, 0.0, 0.0, 0.0, 0.0, -60.372061773784374, 0.0]
['beep', 0.0, 44.50232321051636, 0.0, 0.0, 0.0, 0.0, -62.58488447485978, 0.0]
['beep', 0.0, 43.94352959913368, 0.0, 0.0, 0.0, 0.0, -64.75300368702456, 0.0]
['beep', 0.0, 43.720012154580616, 0.0, 0.0, 0.0, 0.0, -67.30110255492957, 0.0]
['beep', 0.0, 43.116515054287326, 0.0, 0.0, 0.0, 0.0, -70.78797468995747, 0.0]
['beep', 0.0, 43.407087732206314, 0.0, 0.0, 0.0, 0.0, -73.02314913548817, 0.0]
['beep', 0.0, 44.122343554776144, 0.0, 0.0, 0.0, 0.0, -73.17961134667533, 0.0]
['beep', 0.0, 43.76471564349123, 0.0, 0.0, 0.0, 0.0, -72.57611424638203, 0.0]
['beep', 0.0, 42.133038298253815, 0.0, 0.0, 0.0, 0.0, -72.4643555241055, 0.0]
['beep', 0.0, 43.76471564349123, 0.0, 0.0, 0.0, 0.0, -75.86182068131217, 0.0]
['beep', 0.0, 43.94352959913368, 0.0, 0.0, 0.0, 0.0, -76.46531778160546, 0.0]
['beep', 0.0, 45.68696566664764, 0.0, 0.0, 0.0, 0.0, -78.65578873822555, 0.0]
['beep', 0.0, 45.75402090001356, 0.0, 0.0, 0.0, 0.0, -80.19805910564175, 0.0]
['beep', 0.0, 47.58686394534874, 0.0, 0.0, 0.0, 0.0, -78.34286431585126, 0.0]
['beep', 0.0, 49.64322443523699, 0.0, 0.0, 0.0, 0.0, -79.03576839396577, 0.0]
['beep', 0.0, 51.07373608037664, 0.0, 0.0, 0.0, 0.0, -79.34869281634008, 0.0]
['beep', 0.0, 52.370137258784446, 0.0, 0.0, 0.0, 0.0, -79.4380997941613, 0.0]
['beep', 0.0, 50.49259072453865, 0.0, 0.0, 0.0, 0.0, -82.20971610661938, 0.0]
['beep', 0.0, 47.18453254515321, 0.0, 0.0, 0.0, 0.0, -82.52264052899368, 0.0]
['beep', 0.0, 46.26811102248562, 0.0, 0.0, 0.0, 0.0, -81.42740505068363, 0.0]
['beep', 0.0, 45.21757903308619, 0.0, 0.0, 0.0, 0.0, -83.84139345185679, 0.0]
['beep', 0.0, 45.15052379972027, 0.0, 0.0, 0.0, 0.0, -83.97550391858863, 0.0]
['beep', 0.0, 44.36821274378452, 0.0, 0.0, 0.0, 0.0, -84.80251846343499, 0.0]
['beep', 0.0, 43.049459820921406, 0.0, 0.0, 0.0, 0.0, -86.7247684865914, 0.0]
['beep', 0.0, 43.45179122111693, 0.0, 0.0, 0.0, 0.0, -84.8248702078903, 0.0]
['beep', 0.0, 45.306986010907416, 0.0, 0.0, 0.0, 0.0, -84.8248702078903, 0.0]
['beep', 0.0, 45.01641333298842, 0.0, 0.0, 0.0, 0.0, -86.56830627540425, 0.0]
['beep', 0.0, 43.13886679874263, 0.0, 0.0, 0.0, 0.0, -87.82000396490145, 0.0]
['beep', 0.0, 43.004756332010786, 0.0, 0.0, 0.0, 0.0, -88.53525978747128, 0.0]
['beep', 0.0, 43.38473598775101, 0.0, 0.0, 0.0, 0.0, -87.3282655868847, 0.0]
['beep', 0.0, 43.652956921214695, 0.0, 0.0, 0.0, 0.0, -88.42350106519474, 0.0]
['beep', 0.0, 44.41291623269513, 0.0, 0.0, 0.0, 0.0, -88.55761153192658, 0.0]
['beep', 0.0, 44.927006355167194, 0.0, 0.0, 0.0, 0.0, -88.37879757628413, 0.0]
['beep', 0.0, 44.6140819327929, 0.0, 0.0, 0.0, 0.0, -88.22233536509698, 0.0]
['beep', 0.0, 45.93283485565601, 0.0, 0.0, 0.0, 0.0, -87.59648652034838, 0.0]
['beep', 0.0, 45.68696566664764, 0.0, 0.0, 0.0, 0.0, -89.38462607677295, 0.0]
['beep', 0.0, 47.02807033396606, 0.0, 0.0, 0.0, 0.0, -89.80930922142377, 0.0]
['beep', 0.0, 45.441096477639256, 0.0, 0.0, 0.0, 0.0, -88.35644583182882, 0.0]
['beep', 0.0, 45.2622825219968, 0.0, 0.0, 0.0, 0.0, -89.69755049914724, 0.0]
['beep', 0.0, 46.11164881129847, 0.0, 0.0, 0.0, 0.0, -91.23982086656343, 0.0]
['beep', 0.0, 44.83759937734597, 0.0, 0.0, 0.0, 0.0, -90.63632376627014, 0.0]
['beep', 0.0, 44.21175053259737, 0.0, 0.0, 0.0, 0.0, -90.189288877164, 0.0]
['beep', 0.0, 43.56354994339347, 0.0, 0.0, 0.0, 0.0, -91.06100691092098, 0.0]
['beep', 0.0, 44.50232321051636, 0.0, 0.0, 0.0, 0.0, -93.07266391189862, 0.0]
['beep', 0.0, 43.787067387946536, 0.0, 0.0, 0.0, 0.0, -90.45750981062768, 0.0]
['beep', 0.0, 43.720012154580616, 0.0, 0.0, 0.0, 0.0, -90.99395167755505, 0.0]
['beep', 0.0, 43.56354994339347, 0.0, 0.0, 0.0, 0.0, -92.4021115782394, 0.0]
['beep', 0.0, 43.67530866567, 0.0, 0.0, 0.0, 0.0, -92.37975983378409, 0.0]
['beep', 0.0, 42.49066620953872, 0.0, 0.0, 0.0, 0.0, -90.90454469973382, 0.0]
['beep', 0.0, 42.22244527607504, 0.0, 0.0, 0.0, 0.0, -89.5410882879601, 0.0]
['beep', 0.0, 43.31768075438509, 0.0, 0.0, 0.0, 0.0, -91.73155924458018, 0.0]
['beep', 0.0, 43.25062552101917, 0.0, 0.0, 0.0, 0.0, -93.09501565635392, 0.0]
['beep', 0.0, 42.75888714300241, 0.0, 0.0, 0.0, 0.0, -92.89384995625615, 0.0]
['beep', 0.0, 43.76471564349123, 0.0, 0.0, 0.0, 0.0, -93.58675403437067, 0.0]
['beep', 0.0, 42.44596272062811, 0.0, 0.0, 0.0, 0.0, -93.02796042298799, 0.0]
['beep', 0.0, 42.870645865278945, 0.0, 0.0, 0.0, 0.0, -93.6761610121919, 0.0]
['beep', 0.0, 42.98240458755548, 0.0, 0.0, 0.0, 0.0, -93.96673369011089, 0.0]
['beep', 0.0, 43.720012154580616, 0.0, 0.0, 0.0, 0.0, -95.28548661297401, 0.0]
['beep', 0.0, 44.07764006586553, 0.0, 0.0, 0.0, 0.0, -94.54787904594887, 0.0]
['beep', 0.0, 44.055288321410224, 0.0, 0.0, 0.0, 0.0, -94.52552730149357, 0.0]
['beep', 0.0, 44.97170984407781, 0.0, 0.0, 0.0, 0.0, -96.06779766890976, 0.0]
['beep', 0.0, 44.0105848324996, 0.0, 0.0, 0.0, 0.0, -96.5148325580159, 0.0]
['beep', 0.0, 44.21175053259737, 0.0, 0.0, 0.0, 0.0, -95.01726567951032, 0.0]
['beep', 0.0, 45.35168949981803, 0.0, 0.0, 0.0, 0.0, -94.14554764575335, 0.0]
['beep', 0.0, 45.35168949981803, 0.0, 0.0, 0.0, 0.0, -93.6985127566472, 0.0]
['beep', 0.0, 47.34099475634036, 0.0, 0.0, 0.0, 0.0, -93.58675403437067, 0.0]
['beep', 0.0, 45.68696566664764, 0.0, 0.0, 0.0, 0.0, -96.02309417999913, 0.0]
['beep', 0.0, 44.0105848324996, 0.0, 0.0, 0.0, 0.0, -95.46430056861647, 0.0]
['beep', 0.0, 44.390564488239825, 0.0, 0.0, 0.0, 0.0, -96.02309417999913, 0.0]
['beep', 0.0, 45.46344822209456, 0.0, 0.0, 0.0, 0.0, -97.36419884731757, 0.0]
['beep', 0.0, 45.441096477639256, 0.0, 0.0, 0.0, 0.0, -96.76070174702427, 0.0]
['beep', 0.0, 46.06694532238786, 0.0, 0.0, 0.0, 0.0, -96.2019081356416, 0.0]
['beep', 0.0, 44.65878542170351, 0.0, 0.0, 0.0, 0.0, -93.02796042298799, 0.0]
['beep', 0.0, 45.12817205526496, 0.0, 0.0, 0.0, 0.0, -96.5148325580159, 0.0]
['beep', 0.0, 45.306986010907416, 0.0, 0.0, 0.0, 0.0, -97.69947501414717, 0.0]
['beep', 0.0, 45.105820310809655, 0.0, 0.0, 0.0, 0.0, -97.25244012504103, 0.0]
['beep', 0.0, 45.46344822209456, 0.0, 0.0, 0.0, 0.0, -96.13485290227568, 0.0]
['beep', 0.0, 44.83759937734597, 0.0, 0.0, 0.0, 0.0, -96.09014941336507, 0.0]
['beep', 0.0, 43.89882611022307, 0.0, 0.0, 0.0, 0.0, -97.4759575695941, 0.0]
['beep', 0.0, 43.116515054287326, 0.0, 0.0, 0.0, 0.0, -97.31949535840695, 0.0]
['beep', 0.0, 44.055288321410224, 0.0, 0.0, 0.0, 0.0, -97.4759575695941, 0.0]
['beep', 0.0, 43.87647436576776, 0.0, 0.0, 0.0, 0.0, -97.8112337364237, 0.0]
['beep', 0.0, 43.67530866567, 0.0, 0.0, 0.0, 0.0, -97.65477152523655, 0.0]
['beep', 0.0, 43.407087732206314, 0.0, 0.0, 0.0, 0.0, -97.38655059177287, 0.0]
['beep', 0.0, 43.988233088044296, 0.0, 0.0, 0.0, 0.0, -97.7888819919684, 0.0]
['beep', 0.0, 43.27297726547447, 0.0, 0.0, 0.0, 0.0, -97.76653024751309, 0.0]
['beep', 0.0, 43.38473598775101, 0.0, 0.0, 0.0, 0.0, -96.91716395821142, 0.0]
['beep', 0.0, 41.7754103869689, 0.0, 0.0, 0.0, 0.0, -97.69947501414717, 0.0]
['beep', 0.0, 42.22244527607504, 0.0, 0.0, 0.0, 0.0, -99.66642852621419, 0.0]
['beep', 0.0, 41.64129992023706, 0.0, 0.0, 0.0, 0.0, -99.17469014819744, 0.0]
['beep', 0.0, 40.85898886430131, 0.0, 0.0, 0.0, 0.0, -98.32532385889577, 0.0]
['beep', 0.0, 40.434305719650474, 0.0, 0.0, 0.0, 0.0, -98.95117270364436, 0.0]
['beep', 0.0, 40.14373304173149, 0.0, 0.0, 0.0, 0.0, -101.45456808263876, 0.0]
['beep', 0.0, 40.09902955282087, 0.0, 0.0, 0.0, 0.0, -102.23687913857451, 0.0]
['beep', 0.0, 40.14373304173149, 0.0, 0.0, 0.0, 0.0, -99.55466980393766, 0.0]
['beep', 0.0, 40.47900920856109, 0.0, 0.0, 0.0, 0.0, -97.83358548087901, 0.0]
['beep', 0.0, 40.97074758657784, 0.0, 0.0, 0.0, 0.0, -95.97839069108852, 0.0]
['beep', 0.0, 41.39543073122868, 0.0, 0.0, 0.0, 0.0, -95.50900405752708, 0.0]
['beep', 0.0, 41.61894817578175, 0.0, 0.0, 0.0, 0.0, -95.41959707970585, 0.0]
['beep', 0.0, 42.82594237636833, 0.0, 0.0, 0.0, 0.0, -96.49248081356059, 0.0]
['beep', 0.0, 42.17774178716443, 0.0, 0.0, 0.0, 0.0, -97.56536454741533, 0.0]
['beep', 0.0, 42.53536969844934, 0.0, 0.0, 0.0, 0.0, -98.23591688107454, 0.0]
['beep', 0.0, 40.5237126974717, 0.0, 0.0, 0.0, 0.0, -97.1630331472198, 0.0]
['beep', 0.0, 40.25549176400802, 0.0, 0.0, 0.0, 0.0, -96.49248081356059, 0.0]
['beep', 0.0, 40.25549176400802, 0.0, 0.0, 0.0, 0.0, -96.58188779138182, 0.0]
['beep', 0.0, 40.300195252918634, 0.0, 0.0, 0.0, 0.0, -95.64311452425892, 0.0]
['beep', 0.0, 40.45665746410578, 0.0, 0.0, 0.0, 0.0, -98.0794546698874, 0.0]
['beep', 0.0, 40.07667780836557, 0.0, 0.0, 0.0, 0.0, -98.14650990325332, 0.0]
['beep', 0.0, 39.897863852723106, 0.0, 0.0, 0.0, 0.0, -96.40307383573936, 0.0]
['beep', 0.0, 41.216616775586225, 0.0, 0.0, 0.0, 0.0, -97.94534420315554, 0.0]
['beep', 0.0, 40.5237126974717, 0.0, 0.0, 0.0, 0.0, -99.93464945967787, 0.0]
['beep', 0.0, 41.484837709049906, 0.0, 0.0, 0.0, 0.0, -99.12998665928683, 0.0]
['beep', 0.0, 41.93187259815605, 0.0, 0.0, 0.0, 0.0, -96.78305349147958, 0.0]
['beep', 0.0, 40.680174908658856, 0.0, 0.0, 0.0, 0.0, -96.8501087248455, 0.0]
['beep', 0.0, 40.747230142024776, 0.0, 0.0, 0.0, 0.0, -97.8112337364237, 0.0]
['beep', 0.0, 40.27784350846333, 0.0, 0.0, 0.0, 0.0, -99.44291108166112, 0.0]
['beep', 0.0, 39.54023594143819, 0.0, 0.0, 0.0, 0.0, -99.12998665928683, 0.0]
['beep', 0.0, 39.40612547470635, 0.0, 0.0, 0.0, 0.0, -99.28644887047398, 0.0]
['beep', 0.0, 39.94256734163372, 0.0, 0.0, 0.0, 0.0, -100.22522213759687, 0.0]
['beep', 0.0, 39.964919086089026, 0.0, 0.0, 0.0, 0.0, -101.14164366026446, 0.0]
['beep', 0.0, 40.45665746410578, 0.0, 0.0, 0.0, 0.0, -99.15233840374214, 0.0]
['beep', 0.0, 40.54606444192701, 0.0, 0.0, 0.0, 0.0, -97.54301280296002, 0.0]
['beep', 0.0, 40.367250486284554, 0.0, 0.0, 0.0, 0.0, -96.60423953583712, 0.0]
['beep', 0.0, 41.26132026449684, 0.0, 0.0, 0.0, 0.0, -95.9113354577226, 0.0]
['beep', 0.0, 41.283672008952145, 0.0, 0.0, 0.0, 0.0, -95.5984110353483, 0.0]
['beep', 0.0, 40.41195397519517, 0.0, 0.0, 0.0, 0.0, -97.31949535840695, 0.0]
['beep', 0.0, 40.25549176400802, 0.0, 0.0, 0.0, 0.0, -96.5148325580159, 0.0]
['beep', 0.0, 39.629642919259425, 0.0, 0.0, 0.0, 0.0, -96.35837034682875, 0.0]
['beep', 0.0, 41.10485805330969, 0.0, 0.0, 0.0, 0.0, -99.39820759275051, 0.0]
['beep', 0.0, 42.55772144290465, 0.0, 0.0, 0.0, 0.0, -99.95700120413318, 0.0]
['beep', 0.0, 36.23217776205275, 0.0, 0.0, 0.0, 0.0, -98.03475118097678, 0.0]
['beep', 0.0, 31.94064282663379, 0.0, 0.0, 0.0, 0.0, -99.33115235938459, 0.0]
['beep', 0.0, 32.47708469356116, 0.0, 0.0, 0.0, 0.0, -99.3758558482952, 0.0]
['beep', 0.0, 33.885244594245506, 0.0, 0.0, 0.0, 0.0, -100.71696051561362, 0.0]
['beep', 0.0, 34.93577658364494, 0.0, 0.0, 0.0, 0.0, -102.30393437194043, 0.0]
['beep', 0.0, 36.74626788452481, 0.0, 0.0, 0.0, 0.0, -103.64503903925885, 0.0]
['beep', 0.0, 34.98048007255555, 0.0, 0.0, 0.0, 0.0, -105.14260591776443, 0.0]
['beep', 0.0, 35.203997517108625, 0.0, 0.0, 0.0, 0.0, -103.60033555034823, 0.0]
['beep', 0.0, 35.53927368393823, 0.0, 0.0, 0.0, 0.0, -103.64503903925885, 0.0]
['beep', 0.0, 35.18164577265332, 0.0, 0.0, 0.0, 0.0, -106.75193151854653, 0.0]
['beep', 0.0, 35.338107983840466, 0.0, 0.0, 0.0, 0.0, -104.51675707301582, 0.0]
['beep', 0.0, 35.338107983840466, 0.0, 0.0, 0.0, 0.0, -102.68391402768064, 0.0]
['beep', 0.0, 35.15929402819801, 0.0, 0.0, 0.0, 0.0, -104.15912916173092, 0.0]
['beep', 0.0, 34.287575994441035, 0.0, 0.0, 0.0, 0.0, -104.31559137291806, 0.0]
['beep', 0.0, 34.220520761075115, 0.0, 0.0, 0.0, 0.0, -103.57798380589293, 0.0]
['beep', 0.0, 35.09223879483209, 0.0, 0.0, 0.0, 0.0, -103.53328031698231, 0.0]
['beep', 0.0, 35.56162542839353, 0.0, 0.0, 0.0, 0.0, -106.41665535171693, 0.0]
['beep', 0.0, 34.10876203879858, 0.0, 0.0, 0.0, 0.0, -105.14260591776443, 0.0]
['beep', 0.0, 33.59467191632652, 0.0, 0.0, 0.0, 0.0, -102.8627279833231, 0.0]
['beep', 0.0, 33.617023660781825, 0.0, 0.0, 0.0, 0.0, -101.72278901610244, 0.0]
['beep', 0.0, 33.08058179385445, 0.0, 0.0, 0.0, 0.0, -101.76749250501305, 0.0]
['beep', 0.0, 33.16998877167568, 0.0, 0.0, 0.0, 0.0, -102.72861751659126, 0.0]
['beep', 0.0, 32.20886376009748, 0.0, 0.0, 0.0, 0.0, -102.81802449441248, 0.0]
['beep', 0.0, 30.018392803477386, 0.0, 0.0, 0.0, 0.0, -103.62268729480354, 0.0]
['beep', 0.0, 31.538311426438266, 0.0, 0.0, 0.0, 0.0, -104.092073928365, 0.0]
['beep', 0.0, 32.65589864920362, 0.0, 0.0, 0.0, 0.0, -103.26505938351863, 0.0]
['beep', 0.0, 33.438209705139364, 0.0, 0.0, 0.0, 0.0, -102.97448670559963, 0.0]
['beep', 0.0, 33.10293353830976, 0.0, 0.0, 0.0, 0.0, -103.73444601708007, 0.0]
['beep', 0.0, 33.48291319404998, 0.0, 0.0, 0.0, 0.0, -104.7626262620242, 0.0]
['beep', 0.0, 34.220520761075115, 0.0, 0.0, 0.0, 0.0, -104.47205358410521, 0.0]
['beep', 0.0, 34.91342483918963, 0.0, 0.0, 0.0, 0.0, -102.95213496114432, 0.0]
['beep', 0.0, 34.30992773889634, 0.0, 0.0, 0.0, 0.0, -104.29323962846276, 0.0]
['beep', 0.0, 33.237044005041604, 0.0, 0.0, 0.0, 0.0, -104.96379196212196, 0.0]
['beep', 0.0, 33.66172714969244, 0.0, 0.0, 0.0, 0.0, -104.67321928420297, 0.0]
['beep', 0.0, 34.93577658364494, 0.0, 0.0, 0.0, 0.0, -104.87438498430073, 0.0]
['beep', 0.0, 34.13111378325389, 0.0, 0.0, 0.0, 0.0, -104.98614370657727, 0.0]
['beep', 0.0, 34.24287250553042, 0.0, 0.0, 0.0, 0.0, -104.7849780064795, 0.0]
['beep', 0.0, 33.79583761642428, 0.0, 0.0, 0.0, 0.0, -103.91325997272253, 0.0]
['beep', 0.0, 32.9241195826673, 0.0, 0.0, 0.0, 0.0, -102.1921756496639, 0.0]
['beep', 0.0, 33.617023660781825, 0.0, 0.0, 0.0, 0.0, -102.63921053877003, 0.0]
['beep', 0.0, 34.37698297226226, 0.0, 0.0, 0.0, 0.0, -102.77332100550187, 0.0]
['beep', 0.0, 34.53344518344941, 0.0, 0.0, 0.0, 0.0, -103.75679776153538, 0.0]
['beep', 0.0, 33.10293353830976, 0.0, 0.0, 0.0, 0.0, -106.0143239515214, 0.0]
['beep', 0.0, 32.79000911593546, 0.0, 0.0, 0.0, 0.0, -105.52258557350464, 0.0]
['beep', 0.0, 34.06405854988796, 0.0, 0.0, 0.0, 0.0, -106.70722802963591, 0.0]
['beep', 0.0, 33.304099238407524, 0.0, 0.0, 0.0, 0.0, -105.65669604023648, 0.0]
['beep', 0.0, 33.2146922605863, 0.0, 0.0, 0.0, 0.0, -104.31559137291806, 0.0]
['beep', 0.0, 32.56649167138239, 0.0, 0.0, 0.0, 0.0, -103.37681810579517, 0.0]
['beep', 0.0, 32.81236086039077, 0.0, 0.0, 0.0, 0.0, -102.5274518164935, 0.0]
['beep', 0.0, 32.164160271186866, 0.0, 0.0, 0.0, 0.0, -103.24270763906333, 0.0]
['beep', 0.0, 32.45473294910585, 0.0, 0.0, 0.0, 0.0, -103.73444601708007, 0.0]
['beep', 0.0, 32.700602138114235, 0.0, 0.0, 0.0, 0.0, -106.19313790716386, 0.0]
['beep', 0.0, 31.314793981885195, 0.0, 0.0, 0.0, 0.0, -105.58964080687056, 0.0]
['beep', 0.0, 32.052401548910325, 0.0, 0.0, 0.0, 0.0, -103.8238529949013, 0.0]
['beep', 0.0, 30.97951781505559, 0.0, 0.0, 0.0, 0.0, -103.66739078371415, 0.0]
['beep', 0.0, 32.49943643801647, 0.0, 0.0, 0.0, 0.0, -104.24853613955214, 0.0]
['beep', 0.0, 32.052401548910325, 0.0, 0.0, 0.0, 0.0, -105.43317859568342, 0.0]
['beep', 0.0, 32.03004980445502, 0.0, 0.0, 0.0, 0.0, -106.12608267379794, 0.0]
['beep', 0.0, 31.761828870991337, 0.0, 0.0, 0.0, 0.0, -105.96962046261078, 0.0]
['beep', 0.0, 31.605366659804186, 0.0, 0.0, 0.0, 0.0, -106.41665535171693, 0.0]
['beep', 0.0, 32.298270737918706, 0.0, 0.0, 0.0, 0.0, -105.3661233623175, 0.0]
['beep', 0.0, 32.14180852673156, 0.0, 0.0, 0.0, 0.0, -105.20966115113035, 0.0]
['beep', 0.0, 31.784180615446644, 0.0, 0.0, 0.0, 0.0, -107.2660216410186, 0.0]
['beep', 0.0, 31.493607937527653, 0.0, 0.0, 0.0, 0.0, -106.19313790716386, 0.0]
['beep', 0.0, 31.314793981885195, 0.0, 0.0, 0.0, 0.0, -104.20383265064153, 0.0]
['beep', 0.0, 31.895939337723178, 0.0, 0.0, 0.0, 0.0, -105.34377161786219, 0.0]
['beep', 0.0, 30.97951781505559, 0.0, 0.0, 0.0, 0.0, -107.73540827458004, 0.0]
['beep', 0.0, 30.040744547932693, 0.0, 0.0, 0.0, 0.0, -109.5235478310046, 0.0]
['beep', 0.0, 29.951337570111463, 0.0, 0.0, 0.0, 0.0, -107.86951874131188, 0.0]
['beep', 0.0, 30.867759092779053, 0.0, 0.0, 0.0, 0.0, -105.14260591776443, 0.0]
['beep', 0.0, 30.577186414860062, 0.0, 0.0, 0.0, 0.0, -104.62851579529236, 0.0]
['beep', 0.0, 30.331317225851684, 0.0, 0.0, 0.0, 0.0, -103.37681810579517, 0.0]
['beep', 0.0, 30.711296881591903, 0.0, 0.0, 0.0, 0.0, -103.84620473935661, 0.0]
['beep', 0.0, 30.97951781505559, 0.0, 0.0, 0.0, 0.0, -105.25436464004096, 0.0]
['beep', 0.0, 30.867759092779053, 0.0, 0.0, 0.0, 0.0, -105.18730940667504, 0.0]
['beep', 0.0, 31.381849215251115, 0.0, 0.0, 0.0, 0.0, -105.23201289558565, 0.0]
['beep', 0.0, 31.314793981885195, 0.0, 0.0, 0.0, 0.0, -106.37195186280631, 0.0]
['beep', 0.0, 31.068924792876818, 0.0, 0.0, 0.0, 0.0, -105.25436464004096, 0.0]
['beep', 0.0, 29.97368931456677, 0.0, 0.0, 0.0, 0.0, -106.64017279627, 0.0]
['beep', 0.0, 31.024221303966204, 0.0, 0.0, 0.0, 0.0, -107.04250419646553, 0.0]
['beep', 0.0, 31.58301491534888, 0.0, 0.0, 0.0, 0.0, -106.52841407399346, 0.0]
['beep', 0.0, 30.89011083723436, 0.0, 0.0, 0.0, 0.0, -107.89187048576719, 0.0]
['beep', 0.0, 30.241910248030457, 0.0, 0.0, 0.0, 0.0, -107.6236495523035, 0.0]
['beep', 0.0, 31.51595968198296, 0.0, 0.0, 0.0, 0.0, -107.89187048576719, 0.0]
['beep', 0.0, 31.94064282663379, 0.0, 0.0, 0.0, 0.0, -107.10955942983145, 0.0]
['beep', 0.0, 31.828884104357257, 0.0, 0.0, 0.0, 0.0, -106.59546930735938, 0.0]
['beep', 0.0, 32.767657371480155, 0.0, 0.0, 0.0, 0.0, -108.24949839705211, 0.0]
['beep', 0.0, 31.895939337723178, 0.0, 0.0, 0.0, 0.0, -108.78594026397947, 0.0]
['beep', 0.0, 32.052401548910325, 0.0, 0.0, 0.0, 0.0, -107.42248385220574, 0.0]
['beep', 0.0, 31.672421893170107, 0.0, 0.0, 0.0, 0.0, -106.3272483738957, 0.0]
['beep', 0.0, 31.493607937527653, 0.0, 0.0, 0.0, 0.0, -106.50606232953815, 0.0]
['beep', 0.0, 33.438209705139364, 0.0, 0.0, 0.0, 0.0, -107.64600129675881, 0.0]
['beep', 0.0, 32.81236086039077, 0.0, 0.0, 0.0, 0.0, -108.94240247516662, 0.0]
['beep', 0.0, 31.024221303966204, 0.0, 0.0, 0.0, 0.0, -108.74123677506886, 0.0]
['beep', 0.0, 31.29244223742989, 0.0, 0.0, 0.0, 0.0, -106.9754489630996, 0.0]
['beep', 0.0, 30.264261992485764, 0.0, 0.0, 0.0, 0.0, -106.41665535171693, 0.0]
['beep', 0.0, 31.493607937527653, 0.0, 0.0, 0.0, 0.0, -106.39430360726162, 0.0]
['beep', 0.0, 32.097105037820945, 0.0, 0.0, 0.0, 0.0, -107.44483559666105, 0.0]
['beep', 0.0, 33.08058179385445, 0.0, 0.0, 0.0, 0.0, -110.50702458703812, 0.0]
['beep', 0.0, 33.617023660781825, 0.0, 0.0, 0.0, 0.0, -109.09886468635378, 0.0]
['beep', 0.0, 35.69573589512538, 0.0, 0.0, 0.0, 0.0, -105.34377161786219, 0.0]
['beep', 0.0, 37.126247540265034, 0.0, 0.0, 0.0, 0.0, -105.0308471954879, 0.0]
['beep', 0.0, 36.20982601759744, 0.0, 0.0, 0.0, 0.0, -105.47788208459403, 0.0]
['beep', 0.0, 35.1145905392874, 0.0, 0.0, 0.0, 0.0, -104.36029486182868, 0.0]
['beep', 0.0, 32.25356724900809, 0.0, 0.0, 0.0, 0.0, -103.64503903925885, 0.0]
['beep', 0.0, 31.35949747079581, 0.0, 0.0, 0.0, 0.0, -104.67321928420297, 0.0]
['beep', 0.0, 30.89011083723436, 0.0, 0.0, 0.0, 0.0, -104.7626262620242, 0.0]
['beep', 0.0, 30.040744547932693, 0.0, 0.0, 0.0, 0.0, -106.03667569597671, 0.0]
['beep', 0.0, 28.67728813615896, 0.0, 0.0, 0.0, 0.0, -106.88604198527837, 0.0]
['beep', 0.0, 29.705468381103085, 0.0, 0.0, 0.0, 0.0, -105.18730940667504, 0.0]
['beep', 0.0, 29.90663408120085, 0.0, 0.0, 0.0, 0.0, -105.90256522924486, 0.0]
['beep', 0.0, 30.040744547932693, 0.0, 0.0, 0.0, 0.0, -106.12608267379794, 0.0]
['beep', 0.0, 29.794875358924315, 0.0, 0.0, 0.0, 0.0, -106.19313790716386, 0.0]
['beep', 0.0, 28.25260499150813, 0.0, 0.0, 0.0, 0.0, -107.37778036329513, 0.0]
['beep', 0.0, 28.364363713784662, 0.0, 0.0, 0.0, 0.0, -106.79663500745714, 0.0]
['beep', 0.0, 29.504302681005324, 0.0, 0.0, 0.0, 0.0, -108.02598095249904, 0.0]
['beep', 0.0, 29.191378258631023, 0.0, 0.0, 0.0, 0.0, -105.85786174033424, 0.0]
['beep', 0.0, 29.347840469818173, 0.0, 0.0, 0.0, 0.0, -106.08137918488733, 0.0]
['beep', 0.0, 29.414895703184094, 0.0, 0.0, 0.0, 0.0, -106.19313790716386, 0.0]
['beep', 0.0, 29.191378258631023, 0.0, 0.0, 0.0, 0.0, -106.77428326300183, 0.0]
['beep', 0.0, 30.398372459217605, 0.0, 0.0, 0.0, 0.0, -107.42248385220574, 0.0]
['beep', 0.0, 30.465427692583525, 0.0, 0.0, 0.0, 0.0, -108.33890537487333, 0.0]
['beep', 0.0, 29.191378258631023, 0.0, 0.0, 0.0, 0.0, -106.43900709617223, 0.0]
['beep', 0.0, 28.789046858435498, 0.0, 0.0, 0.0, 0.0, -107.06485594092084, 0.0]
['beep', 0.0, 28.90080558071203, 0.0, 0.0, 0.0, 0.0, -108.29420188596272, 0.0]
['beep', 0.0, 28.789046858435498, 0.0, 0.0, 0.0, 0.0, -108.71888503061355, 0.0]
['beep', 0.0, 30.040744547932693, 0.0, 0.0, 0.0, 0.0, -109.79176876446829, 0.0]
['beep', 0.0, 29.52665442546063, 0.0, 0.0, 0.0, 0.0, -109.12121643080908, 0.0]
['beep', 0.0, 28.878453836256725, 0.0, 0.0, 0.0, 0.0, -107.31072512992921, 0.0]
['beep', 0.0, 29.481950936550017, 0.0, 0.0, 0.0, 0.0, -109.07651294189847, 0.0]
['beep', 0.0, 29.571357914371244, 0.0, 0.0, 0.0, 0.0, -110.19410016466382, 0.0]
['beep', 0.0, 30.398372459217605, 0.0, 0.0, 0.0, 0.0, -109.12121643080908, 0.0]
['beep', 0.0, 29.14667476972041, 0.0, 0.0, 0.0, 0.0, -109.8141205089236, 0.0]
['beep', 0.0, 29.37019221427348, 0.0, 0.0, 0.0, 0.0, -109.97058272011076, 0.0]
['beep', 0.0, 28.90080558071203, 0.0, 0.0, 0.0, 0.0, -109.94823097565543, 0.0]
['beep', 0.0, 29.21373000308633, 0.0, 0.0, 0.0, 0.0, -110.08234144238729, 0.0]
['beep', 0.0, 28.45377069160589, 0.0, 0.0, 0.0, 0.0, -108.5624228194264, 0.0]
['beep', 0.0, 29.928985825656156, 0.0, 0.0, 0.0, 0.0, -108.69653328615824, 0.0]
['beep', 0.0, 28.431418947150583, 0.0, 0.0, 0.0, 0.0, -109.79176876446829, 0.0]
['beep', 0.0, 27.336183468840538, 0.0, 0.0, 0.0, 0.0, -111.87048099881184, 0.0]
['beep', 0.0, 27.62675614675953, 0.0, 0.0, 0.0, 0.0, -112.63044031029229, 0.0]
['beep', 0.0, 29.30313698090756, 0.0, 0.0, 0.0, 0.0, -110.1046931868426, 0.0]
['beep', 0.0, 30.063096292388, 0.0, 0.0, 0.0, 0.0, -109.38943736427277, 0.0]
['beep', 0.0, 29.83957884783493, 0.0, 0.0, 0.0, 0.0, -109.36708561981746, 0.0]
['beep', 0.0, 30.331317225851684, 0.0, 0.0, 0.0, 0.0, -109.12121643080908, 0.0]
['beep', 0.0, 30.688945137136596, 0.0, 0.0, 0.0, 0.0, -107.6236495523035, 0.0]
['beep', 0.0, 31.35949747079581, 0.0, 0.0, 0.0, 0.0, -107.10955942983145, 0.0]
['beep', 0.0, 30.42072420367291, 0.0, 0.0, 0.0, 0.0, -108.16009141923088, 0.0]
['beep', 0.0, 30.59953815931537, 0.0, 0.0, 0.0, 0.0, -109.5011960865493, 0.0]
['beep', 0.0, 30.107799781298613, 0.0, 0.0, 0.0, 0.0, -108.76358851952416, 0.0]
['beep', 0.0, 31.024221303966204, 0.0, 0.0, 0.0, 0.0, -109.56825131991522, 0.0]
['beep', 0.0, 30.644241648225982, 0.0, 0.0, 0.0, 0.0, -110.1270449312979, 0.0]
['beep', 0.0, 30.487779437038835, 0.0, 0.0, 0.0, 0.0, -108.897698986256, 0.0]
['beep', 0.0, 30.085448036843307, 0.0, 0.0, 0.0, 0.0, -107.44483559666105, 0.0]
['beep', 0.0, 29.683116636647778, 0.0, 0.0, 0.0, 0.0, -107.80246350794596, 0.0]
['beep', 0.0, 30.35366897030699, 0.0, 0.0, 0.0, 0.0, -108.16009141923088, 0.0]
['beep', 0.0, 31.158331770698044, 0.0, 0.0, 0.0, 0.0, -108.67418154170294, 0.0]
['beep', 0.0, 30.42072420367291, 0.0, 0.0, 0.0, 0.0, -109.188271664175, 0.0]
['beep', 0.0, 31.18068351515335, 0.0, 0.0, 0.0, 0.0, -110.90935598723364, 0.0]
['beep', 0.0, 30.845407348323747, 0.0, 0.0, 0.0, 0.0, -110.03763795347668, 0.0]
['beep', 0.0, 31.024221303966204, 0.0, 0.0, 0.0, 0.0, -107.6012978078482, 0.0]
['beep', 0.0, 32.097105037820945, 0.0, 0.0, 0.0, 0.0, -107.46718734111636, 0.0]
['beep', 0.0, 31.761828870991337, 0.0, 0.0, 0.0, 0.0, -107.04250419646553, 0.0]
['beep', 0.0, 30.018392803477386, 0.0, 0.0, 0.0, 0.0, -106.52841407399346, 0.0]
['beep', 0.0, 30.75600037050252, 0.0, 0.0, 0.0, 0.0, -107.66835304121412, 0.0]
['beep', 0.0, 30.800703859413133, 0.0, 0.0, 0.0, 0.0, -109.68001004219175, 0.0]
['beep', 0.0, 29.794875358924315, 0.0, 0.0, 0.0, 0.0, -108.69653328615824, 0.0]
['beep', 0.0, 30.376020714762298, 0.0, 0.0, 0.0, 0.0, -109.03180945298786, 0.0]
['beep', 0.0, 29.66076489219247, 0.0, 0.0, 0.0, 0.0, -107.84716699685657, 0.0]
['beep', 0.0, 30.040744547932693, 0.0, 0.0, 0.0, 0.0, -107.2660216410186, 0.0]
['beep', 0.0, 31.024221303966204, 0.0, 0.0, 0.0, 0.0, -106.9754489630996, 0.0]
['beep', 0.0, 30.95716607060028, 0.0, 0.0, 0.0, 0.0, -106.55076581844877, 0.0]
['beep', 0.0, 29.01256430298857, 0.0, 0.0, 0.0, 0.0, -107.86951874131188, 0.0]
['beep', 0.0, 30.510131181494142, 0.0, 0.0, 0.0, 0.0, -108.85299549734539, 0.0]
['beep', 0.0, 31.024221303966204, 0.0, 0.0, 0.0, 0.0, -109.72471353110237, 0.0]
['beep', 0.0, 31.694773637625413, 0.0, 0.0, 0.0, 0.0, -108.60712630833702, 0.0]
['beep', 0.0, 32.20886376009748, 0.0, 0.0, 0.0, 0.0, -107.2883733854739, 0.0]
['beep', 0.0, 30.152503270209227, 0.0, 0.0, 0.0, 0.0, -107.33307687438452, 0.0]
['beep', 0.0, 29.705468381103085, 0.0, 0.0, 0.0, 0.0, -108.8753472418007, 0.0]
['beep', 0.0, 30.577186414860062, 0.0, 0.0, 0.0, 0.0, -108.27185014150741, 0.0]
['beep', 0.0, 29.750171870013702, 0.0, 0.0, 0.0, 0.0, -105.65669604023648, 0.0]
['beep', 0.0, 30.174855014664534, 0.0, 0.0, 0.0, 0.0, -106.10373092934263, 0.0]
['beep', 0.0, 29.30313698090756, 0.0, 0.0, 0.0, 0.0, -107.82481525240127, 0.0]
['beep', 0.0, 30.219558503575147, 0.0, 0.0, 0.0, 0.0, -108.98710596407724, 0.0]
['beep', 0.0, 29.683116636647778, 0.0, 0.0, 0.0, 0.0, -111.60226006534816, 0.0]
['beep', 0.0, 29.683116636647778, 0.0, 0.0, 0.0, 0.0, -110.05998969793198, 0.0]
['beep', 0.0, 29.638413147737165, 0.0, 0.0, 0.0, 0.0, -108.42831235269456, 0.0]
['beep', 0.0, 28.520825924971813, 0.0, 0.0, 0.0, 0.0, -109.74706527555767, 0.0]
['beep', 0.0, 27.112666024287467, 0.0, 0.0, 0.0, 0.0, -109.8364722533789, 0.0]
['beep', 0.0, 28.23025324705282, 0.0, 0.0, 0.0, 0.0, -108.58477456388171, 0.0]
['beep', 0.0, 29.347840469818173, 0.0, 0.0, 0.0, 0.0, -109.61295480882583, 0.0]
['beep', 0.0, 28.744343369524884, 0.0, 0.0, 0.0, 0.0, -110.35056237585097, 0.0]
['beep', 0.0, 27.112666024287467, 0.0, 0.0, 0.0, 0.0, -109.32238213090685, 0.0]
['beep', 0.0, 26.39741020171764, 0.0, 0.0, 0.0, 0.0, -110.73054203159118, 0.0]
['beep', 0.0, 27.31383172438523, 0.0, 0.0, 0.0, 0.0, -111.46814959861632, 0.0]
['beep', 0.0, 28.409067202695276, 0.0, 0.0, 0.0, 0.0, -110.08234144238729, 0.0]
['beep', 0.0, 27.962032313589134, 0.0, 0.0, 0.0, 0.0, -110.26115539802974, 0.0]
['beep', 0.0, 27.78321835794668, 0.0, 0.0, 0.0, 0.0, -108.2047949081415, 0.0]
['beep', 0.0, 27.067962535376854, 0.0, 0.0, 0.0, 0.0, -108.2047949081415, 0.0]
['beep', 0.0, 28.409067202695276, 0.0, 0.0, 0.0, 0.0, -108.67418154170294, 0.0]
['beep', 0.0, 28.07379103586567, 0.0, 0.0, 0.0, 0.0, -109.94823097565543, 0.0]
['beep', 0.0, 28.409067202695276, 0.0, 0.0, 0.0, 0.0, -109.12121643080908, 0.0]
['beep', 0.0, 28.31966022487405, 0.0, 0.0, 0.0, 0.0, -108.83064375289008, 0.0]
['beep', 0.0, 28.409067202695276, 0.0, 0.0, 0.0, 0.0, -109.05416119744316, 0.0]
['beep', 0.0, 28.1631980136869, 0.0, 0.0, 0.0, 0.0, -109.8141205089236, 0.0]
['beep', 0.0, 29.23608174754164, 0.0, 0.0, 0.0, 0.0, -109.188271664175, 0.0]
['beep', 0.0, 30.152503270209227, 0.0, 0.0, 0.0, 0.0, -108.2047949081415, 0.0]
['beep', 0.0, 30.018392803477386, 0.0, 0.0, 0.0, 0.0, -108.2047949081415, 0.0]
['beep', 0.0, 28.409067202695276, 0.0, 0.0, 0.0, 0.0, -108.45066409714987, 0.0]
['beep', 0.0, 29.034916047443875, 0.0, 0.0, 0.0, 0.0, -109.68001004219175, 0.0]
['beep', 0.0, 29.21373000308633, 0.0, 0.0, 0.0, 0.0, -110.17174842020852, 0.0]
['beep', 0.0, 29.034916047443875, 0.0, 0.0, 0.0, 0.0, -108.07068444140965, 0.0]
['beep', 0.0, 27.62675614675953, 0.0, 0.0, 0.0, 0.0, -108.5624228194264, 0.0]
['beep', 0.0, 27.55970091339361, 0.0, 0.0, 0.0, 0.0, -112.22810891009676, 0.0]
['beep', 0.0, 27.336183468840538, 0.0, 0.0, 0.0, 0.0, -112.56338507692637, 0.0]
['beep', 0.0, 28.00673580249975, 0.0, 0.0, 0.0, 0.0, -111.17757692069733, 0.0]
['beep', 0.0, 28.565529413882427, 0.0, 0.0, 0.0, 0.0, -109.85882399783421, 0.0]
['beep', 0.0, 29.77252361446901, 0.0, 0.0, 0.0, 0.0, -108.78594026397947, 0.0]
['beep', 0.0, 28.274956735963436, 0.0, 0.0, 0.0, 0.0, -108.85299549734539, 0.0]
['beep', 0.0, 26.375058457262334, 0.0, 0.0, 0.0, 0.0, -110.4623210981275, 0.0]
['beep', 0.0, 28.744343369524884, 0.0, 0.0, 0.0, 0.0, -109.94823097565543, 0.0]
['beep', 0.0, 28.990212558533262, 0.0, 0.0, 0.0, 0.0, -110.68583854268057, 0.0]
['beep', 0.0, 29.459599192094707, 0.0, 0.0, 0.0, 0.0, -110.1270449312979, 0.0]
['beep', 0.0, 29.23608174754164, 0.0, 0.0, 0.0, 0.0, -109.90352748674482, 0.0]
['beep', 0.0, 30.97951781505559, 0.0, 0.0, 0.0, 0.0, -111.17757692069733, 0.0]
['beep', 0.0, 31.135980026242738, 0.0, 0.0, 0.0, 0.0, -111.17757692069733, 0.0]
['beep', 0.0, 28.83375034734611, 0.0, 0.0, 0.0, 0.0, -109.65765829773645, 0.0]
['beep', 0.0, 29.30313698090756, 0.0, 0.0, 0.0, 0.0, -109.30003038645154, 0.0]
['beep', 0.0, 28.878453836256725, 0.0, 0.0, 0.0, 0.0, -110.4399693536722, 0.0]
['beep', 0.0, 29.571357914371244, 0.0, 0.0, 0.0, 0.0, -111.13287343178672, 0.0]
['beep', 0.0, 30.241910248030457, 0.0, 0.0, 0.0, 0.0, -113.23393741058558, 0.0]
['beep', 0.0, 28.96786081407795, 0.0, 0.0, 0.0, 0.0, -112.74219903256882, 0.0]
['beep', 0.0, 28.31966022487405, 0.0, 0.0, 0.0, 0.0, -111.46814959861632, 0.0]
['beep', 0.0, 28.632584647248347, 0.0, 0.0, 0.0, 0.0, -112.38457112128391, 0.0]
['beep', 0.0, 28.00673580249975, 0.0, 0.0, 0.0, 0.0, -112.11635018782023, 0.0]
['beep', 0.0, 28.945509069622645, 0.0, 0.0, 0.0, 0.0, -110.41761760921689, 0.0]
['beep', 0.0, 30.174855014664534, 0.0, 0.0, 0.0, 0.0, -109.99293446456606, 0.0]
['beep', 0.0, 28.25260499150813, 0.0, 0.0, 0.0, 0.0, -109.88117574228951, 0.0]
['beep', 0.0, 28.476122436061196, 0.0, 0.0, 0.0, 0.0, -110.55172807594873, 0.0]
['beep', 0.0, 24.58691890083777, 0.0, 0.0, 0.0, 0.0, -110.26115539802974, 0.0]
['beep', 0.0, 23.938718311633863, 0.0, 0.0, 0.0, 0.0, -110.01528620902137, 0.0]
['beep', 0.0, 24.832788089846147, 0.0, 0.0, 0.0, 0.0, -108.8753472418007, 0.0]
['beep', 0.0, 24.922195067667374, 0.0, 0.0, 0.0, 0.0, -108.78594026397947, 0.0]
['beep', 0.0, 24.966898556577988, 0.0, 0.0, 0.0, 0.0, -109.63530655328114, 0.0]
['beep', 0.0, 25.592747401326587, 0.0, 0.0, 0.0, 0.0, -109.68001004219175, 0.0]
['beep', 0.0, 24.743381112024917, 0.0, 0.0, 0.0, 0.0, -110.01528620902137, 0.0]
['beep', 0.0, 25.838616590334965, 0.0, 0.0, 0.0, 0.0, -110.08234144238729, 0.0]
['beep', 0.0, 26.822093346368476, 0.0, 0.0, 0.0, 0.0, -109.68001004219175, 0.0]
['beep', 0.0, 26.03978229043273, 0.0, 0.0, 0.0, 0.0, -110.37291412030628, 0.0]
['beep', 0.0, 24.765732856480227, 0.0, 0.0, 0.0, 0.0, -110.14939667575321, 0.0]
['beep', 0.0, 24.922195067667374, 0.0, 0.0, 0.0, 0.0, -111.17757692069733, 0.0]
['beep', 0.0, 25.212767745586365, 0.0, 0.0, 0.0, 0.0, -111.49050134307163, 0.0]
['beep', 0.0, 24.87749157875676, 0.0, 0.0, 0.0, 0.0, -109.43414085318338, 0.0]
['beep', 0.0, 26.17389275716457, 0.0, 0.0, 0.0, 0.0, -108.65182979724763, 0.0]
['beep', 0.0, 26.129189268253956, 0.0, 0.0, 0.0, 0.0, -109.38943736427277, 0.0]
['beep', 0.0, 26.46446543508356, 0.0, 0.0, 0.0, 0.0, -111.22228040960795, 0.0]
['beep', 0.0, 26.665631135181325, 0.0, 0.0, 0.0, 0.0, -112.58573682138167, 0.0]
['beep', 0.0, 26.39741020171764, 0.0, 0.0, 0.0, 0.0, -112.89866124375597, 0.0]
['beep', 0.0, 26.531520668449485, 0.0, 0.0, 0.0, 0.0, -111.55755657643755, 0.0]
['beep', 0.0, 25.615099145781894, 0.0, 0.0, 0.0, 0.0, -110.48467284258281, 0.0]
['beep', 0.0, 25.749209612513738, 0.0, 0.0, 0.0, 0.0, -109.85882399783421, 0.0]
['beep', 0.0, 27.24677649101931, 0.0, 0.0, 0.0, 0.0, -111.73637053208, 0.0]
['beep', 0.0, 26.79974160191317, 0.0, 0.0, 0.0, 0.0, -110.99876296505488, 0.0]
['beep', 0.0, 26.79974160191317, 0.0, 0.0, 0.0, 0.0, -111.0434664539655, 0.0]
['beep', 0.0, 26.062134034888036, 0.0, 0.0, 0.0, 0.0, -111.57990832089286, 0.0]
['beep', 0.0, 26.39741020171764, 0.0, 0.0, 0.0, 0.0, -111.49050134307163, 0.0]
['beep', 0.0, 27.760866613491373, 0.0, 0.0, 0.0, 0.0, -111.69166704316939, 0.0]
['beep', 0.0, 28.297308480418742, 0.0, 0.0, 0.0, 0.0, -111.13287343178672, 0.0]
['beep', 0.0, 29.034916047443875, 0.0, 0.0, 0.0, 0.0, -110.50702458703812, 0.0]
['beep', 0.0, 28.789046858435498, 0.0, 0.0, 0.0, 0.0, -111.13287343178672, 0.0]
['beep', 0.0, 28.878453836256725, 0.0, 0.0, 0.0, 0.0, -110.97641122059957, 0.0]
['beep', 0.0, 28.90080558071203, 0.0, 0.0, 0.0, 0.0, -111.28933564297387, 0.0]
['beep', 0.0, 28.789046858435498, 0.0, 0.0, 0.0, 0.0, -110.81994900941241, 0.0]
['beep', 0.0, 29.258433491996946, 0.0, 0.0, 0.0, 0.0, -112.56338507692637, 0.0]
['beep', 0.0, 28.297308480418742, 0.0, 0.0, 0.0, 0.0, -113.14453043276436, 0.0]
['beep', 0.0, 29.280785236452253, 0.0, 0.0, 0.0, 0.0, -111.02111470951019, 0.0]
['beep', 0.0, 29.459599192094707, 0.0, 0.0, 0.0, 0.0, -110.19410016466382, 0.0]
['beep', 0.0, 30.75600037050252, 0.0, 0.0, 0.0, 0.0, -109.14356817526439, 0.0]
['beep', 0.0, 30.174855014664534, 0.0, 0.0, 0.0, 0.0, -110.05998969793198, 0.0]
['beep', 0.0, 28.45377069160589, 0.0, 0.0, 0.0, 0.0, -110.73054203159118, 0.0]
['beep', 0.0, 28.364363713784662, 0.0, 0.0, 0.0, 0.0, -111.62461180980347, 0.0]
['beep', 0.0, 30.040744547932693, 0.0, 0.0, 0.0, 0.0, -111.78107402099062, 0.0]
['beep', 0.0, 30.085448036843307, 0.0, 0.0, 0.0, 0.0, -111.4010943652504, 0.0]
['beep', 0.0, 28.923157325167338, 0.0, 0.0, 0.0, 0.0, -111.91518448772246, 0.0]
['beep', 0.0, 27.98438405804444, 0.0, 0.0, 0.0, 0.0, -112.18340542118615, 0.0]
['beep', 0.0, 27.179721257653387, 0.0, 0.0, 0.0, 0.0, -112.27281239900738, 0.0]
['beep', 0.0, 27.939680569133827, 0.0, 0.0, 0.0, 0.0, -111.55755657643755, 0.0]
['beep', 0.0, 27.514997424482996, 0.0, 0.0, 0.0, 0.0, -111.69166704316939, 0.0]
['beep', 0.0, 27.760866613491373, 0.0, 0.0, 0.0, 0.0, -112.3398676323733, 0.0]
['beep', 0.0, 27.224424746564, 0.0, 0.0, 0.0, 0.0, -113.74802753305764, 0.0]
['beep', 0.0, 27.47029393557238, 0.0, 0.0, 0.0, 0.0, -112.47397809910514, 0.0]
['beep', 0.0, 27.224424746564, 0.0, 0.0, 0.0, 0.0, -110.39526586476158, 0.0]
['beep', 0.0, 27.805570102401987, 0.0, 0.0, 0.0, 0.0, -110.26115539802974, 0.0]
['beep', 0.0, 28.67728813615896, 0.0, 0.0, 0.0, 0.0, -111.24463215406325, 0.0]
['beep', 0.0, 27.358535213295845, 0.0, 0.0, 0.0, 0.0, -111.22228040960795, 0.0]
['beep', 0.0, 27.91732882467852, 0.0, 0.0, 0.0, 0.0, -111.75872227653531, 0.0]
['beep', 0.0, 28.498474180516506, 0.0, 0.0, 0.0, 0.0, -111.60226006534816, 0.0]
['beep', 0.0, 29.034916047443875, 0.0, 0.0, 0.0, 0.0, -111.75872227653531, 0.0]
['beep', 0.0, 28.07379103586567, 0.0, 0.0, 0.0, 0.0, -112.11635018782023, 0.0]
['beep', 0.0, 27.135017768742774, 0.0, 0.0, 0.0, 0.0, -111.57990832089286, 0.0]
['beep', 0.0, 27.604404402304223, 0.0, 0.0, 0.0, 0.0, -112.3398676323733, 0.0]
['beep', 0.0, 28.83375034734611, 0.0, 0.0, 0.0, 0.0, -111.78107402099062, 0.0]
['beep', 0.0, 30.063096292388, 0.0, 0.0, 0.0, 0.0, -112.07164669890962, 0.0]
['beep', 0.0, 29.52665442546063, 0.0, 0.0, 0.0, 0.0, -112.47397809910514, 0.0]
['beep', 0.0, 28.744343369524884, 0.0, 0.0, 0.0, 0.0, -113.92684148870009, 0.0]
['beep', 0.0, 29.638413147737165, 0.0, 0.0, 0.0, 0.0, -112.71984728811351, 0.0]
['beep', 0.0, 29.21373000308633, 0.0, 0.0, 0.0, 0.0, -111.13287343178672, 0.0]
['beep', 0.0, 29.30313698090756, 0.0, 0.0, 0.0, 0.0, -111.84812925435654, 0.0]
['beep', 0.0, 28.25260499150813, 0.0, 0.0, 0.0, 0.0, -112.3398676323733, 0.0]
['beep', 0.0, 27.91732882467852, 0.0, 0.0, 0.0, 0.0, -112.0045914655437, 0.0]
['beep', 0.0, 27.69381138012545, 0.0, 0.0, 0.0, 0.0, -113.74802753305764, 0.0]
['beep', 0.0, 26.03978229043273, 0.0, 0.0, 0.0, 0.0, -113.43510311068334, 0.0]
['beep', 0.0, 25.592747401326587, 0.0, 0.0, 0.0, 0.0, -113.25628915504089, 0.0]
['beep', 0.0, 25.324526467862903, 0.0, 0.0, 0.0, 0.0, -114.19506242216379, 0.0]
['beep', 0.0, 25.50334042350536, 0.0, 0.0, 0.0, 0.0, -115.24559441156322, 0.0]
['beep', 0.0, 25.436285190139436, 0.0, 0.0, 0.0, 0.0, -113.92684148870009, 0.0]
['beep', 0.0, 27.671459635670143, 0.0, 0.0, 0.0, 0.0, -113.68097229969172, 0.0]
['beep', 0.0, 27.067962535376854, 0.0, 0.0, 0.0, 0.0, -112.6974955436582, 0.0]
['beep', 0.0, 26.285651479441107, 0.0, 0.0, 0.0, 0.0, -112.85395775484535, 0.0]
['beep', 0.0, 26.442113690628254, 0.0, 0.0, 0.0, 0.0, -113.50215834404926, 0.0]
['beep', 0.0, 25.458636934594743, 0.0, 0.0, 0.0, 0.0, -112.80925426593474, 0.0]
['beep', 0.0, 25.458636934594743, 0.0, 0.0, 0.0, 0.0, -113.41275136622804, 0.0]
['beep', 0.0, 28.1631980136869, 0.0, 0.0, 0.0, 0.0, -114.12800718879787, 0.0]
['beep', 0.0, 28.07379103586567, 0.0, 0.0, 0.0, 0.0, -112.20575716564146, 0.0]
['beep', 0.0, 27.40323870220646, 0.0, 0.0, 0.0, 0.0, -111.15522517624203, 0.0]
['beep', 0.0, 28.118494524776285, 0.0, 0.0, 0.0, 0.0, -112.22810891009676, 0.0]
['beep', 0.0, 28.45377069160589, 0.0, 0.0, 0.0, 0.0, -114.30682114444032, 0.0]
['beep', 0.0, 27.962032313589134, 0.0, 0.0, 0.0, 0.0, -113.97154497761072, 0.0]
['beep', 0.0, 28.23025324705282, 0.0, 0.0, 0.0, 0.0, -113.92684148870009, 0.0]
['beep', 0.0, 28.364363713784662, 0.0, 0.0, 0.0, 0.0, -112.47397809910514, 0.0]
['beep', 0.0, 27.447942191117072, 0.0, 0.0, 0.0, 0.0, -112.40692286573922, 0.0]
['beep', 0.0, 28.118494524776285, 0.0, 0.0, 0.0, 0.0, -113.6362688107811, 0.0]
['beep', 0.0, 28.654936391703654, 0.0, 0.0, 0.0, 0.0, -114.30682114444032, 0.0]
['beep', 0.0, 26.46446543508356, 0.0, 0.0, 0.0, 0.0, -113.36804787731742, 0.0]
['beep', 0.0, 26.151541012709263, 0.0, 0.0, 0.0, 0.0, -113.18923392167497, 0.0]
['beep', 0.0, 26.03978229043273, 0.0, 0.0, 0.0, 0.0, -115.24559441156322, 0.0]
['beep', 0.0, 25.928023568156192, 0.0, 0.0, 0.0, 0.0, -114.8879665002783, 0.0]
['beep', 0.0, 28.096142780320978, 0.0, 0.0, 0.0, 0.0, -113.85978625533417, 0.0]
['beep', 0.0, 27.514997424482996, 0.0, 0.0, 0.0, 0.0, -112.98806822157721, 0.0]
['beep', 0.0, 26.352706712807027, 0.0, 0.0, 0.0, 0.0, -113.23393741058558, 0.0]
['beep', 0.0, 25.995078801522112, 0.0, 0.0, 0.0, 0.0, -113.85978625533417, 0.0]
['beep', 0.0, 27.62675614675953, 0.0, 0.0, 0.0, 0.0, -114.53033858899339, 0.0]
['beep', 0.0, 27.49264568002769, 0.0, 0.0, 0.0, 0.0, -116.38553337878388, 0.0]
['beep', 0.0, 26.062134034888036, 0.0, 0.0, 0.0, 0.0, -114.19506242216379, 0.0]
['beep', 0.0, 25.995078801522112, 0.0, 0.0, 0.0, 0.0, -113.6139170663258, 0.0]
['beep', 0.0, 26.687982879636632, 0.0, 0.0, 0.0, 0.0, -114.46328335562747, 0.0]
['beep', 0.0, 26.687982879636632, 0.0, 0.0, 0.0, 0.0, -114.15035893325317, 0.0]
['beep', 0.0, 27.179721257653387, 0.0, 0.0, 0.0, 0.0, -113.36804787731742, 0.0]
['beep', 0.0, 25.995078801522112, 0.0, 0.0, 0.0, 0.0, -113.25628915504089, 0.0]
['beep', 0.0, 26.777389857457862, 0.0, 0.0, 0.0, 0.0, -115.49146360057159, 0.0]
['beep', 0.0, 26.844445090823783, 0.0, 0.0, 0.0, 0.0, -116.09496070086489, 0.0]
['beep', 0.0, 26.442113690628254, 0.0, 0.0, 0.0, 0.0, -115.60322232284813, 0.0]
['beep', 0.0, 27.15736951319808, 0.0, 0.0, 0.0, 0.0, -114.53033858899339, 0.0]
['beep', 0.0, 26.844445090823783, 0.0, 0.0, 0.0, 0.0, -114.59739382235931, 0.0]
['beep', 0.0, 27.805570102401987, 0.0, 0.0, 0.0, 0.0, -114.2174141666191, 0.0]
['beep', 0.0, 26.844445090823783, 0.0, 0.0, 0.0, 0.0, -114.70915254463584, 0.0]
['beep', 0.0, 27.62675614675953, 0.0, 0.0, 0.0, 0.0, -114.82091126691238, 0.0]
['beep', 0.0, 29.07961953635449, 0.0, 0.0, 0.0, 0.0, -114.97737347809954, 0.0]
['beep', 0.0, 27.8502735913126, 0.0, 0.0, 0.0, 0.0, -113.81508276642356, 0.0]
['beep', 0.0, 25.48098867905005, 0.0, 0.0, 0.0, 0.0, -114.37387637780624, 0.0]
['beep', 0.0, 26.03978229043273, 0.0, 0.0, 0.0, 0.0, -114.41857986671685, 0.0]
['beep', 0.0, 29.124323025265102, 0.0, 0.0, 0.0, 0.0, -113.85978625533417, 0.0]
['beep', 0.0, 27.8502735913126, 0.0, 0.0, 0.0, 0.0, -114.53033858899339, 0.0]
['beep', 0.0, 27.000907302010933, 0.0, 0.0, 0.0, 0.0, -115.08913220037607, 0.0]
['beep', 0.0, 27.47029393557238, 0.0, 0.0, 0.0, 0.0, -114.48563510008277, 0.0]
['beep', 0.0, 27.649107891214836, 0.0, 0.0, 0.0, 0.0, -115.04442871146546, 0.0]
['beep', 0.0, 27.447942191117072, 0.0, 0.0, 0.0, 0.0, -115.69262930066935, 0.0]
['beep', 0.0, 28.54317766942712, 0.0, 0.0, 0.0, 0.0, -116.27377465650734, 0.0]
['beep', 0.0, 27.98438405804444, 0.0, 0.0, 0.0, 0.0, -115.8714432563118, 0.0]
['beep', 0.0, 27.55970091339361, 0.0, 0.0, 0.0, 0.0, -116.09496070086489, 0.0]
['beep', 0.0, 25.995078801522112, 0.0, 0.0, 0.0, 0.0, -115.71498104512466, 0.0]
['beep', 0.0, 23.916366567178557, 0.0, 0.0, 0.0, 0.0, -114.99972522255484, 0.0]
['beep', 0.0, 25.03395378994391, 0.0, 0.0, 0.0, 0.0, -115.40205662275037, 0.0]
['beep', 0.0, 26.017430545977422, 0.0, 0.0, 0.0, 0.0, -115.35735313383975, 0.0]
['beep', 0.0, 26.218596246075183, 0.0, 0.0, 0.0, 0.0, -115.8714432563118, 0.0]
['beep', 0.0, 25.302174723407596, 0.0, 0.0, 0.0, 0.0, -114.97737347809954, 0.0]
['beep', 0.0, 26.956203813100316, 0.0, 0.0, 0.0, 0.0, -114.575042077904, 0.0]
['beep', 0.0, 27.000907302010933, 0.0, 0.0, 0.0, 0.0, -115.8714432563118, 0.0]
['beep', 0.0, 24.765732856480227, 0.0, 0.0, 0.0, 0.0, -114.79855952245707, 0.0]
['beep', 0.0, 25.05630553439922, 0.0, 0.0, 0.0, 0.0, -113.03277171048782, 0.0]
['beep', 0.0, 25.03395378994391, 0.0, 0.0, 0.0, 0.0, -114.95502173364423, 0.0]
['beep', 0.0, 26.084485779343343, 0.0, 0.0, 0.0, 0.0, -115.29029790047383, 0.0]
['beep', 0.0, 26.2632997349858, 0.0, 0.0, 0.0, 0.0, -112.89866124375597, 0.0]
['beep', 0.0, 24.51986366747185, 0.0, 0.0, 0.0, 0.0, -112.40692286573922, 0.0]
['beep', 0.0, 23.67049737817018, 0.0, 0.0, 0.0, 0.0, -113.90448974424478, 0.0]
['beep', 0.0, 23.871663078267943, 0.0, 0.0, 0.0, 0.0, -114.15035893325317, 0.0]
['beep', 0.0, 23.53638691143834, 0.0, 0.0, 0.0, 0.0, -113.18923392167497, 0.0]
['beep', 0.0, 23.268165977974654, 0.0, 0.0, 0.0, 0.0, -113.12217868830905, 0.0]
['beep', 0.0, 24.58691890083777, 0.0, 0.0, 0.0, 0.0, -113.59156532187049, 0.0]
['beep', 0.0, 26.218596246075183, 0.0, 0.0, 0.0, 0.0, -113.18923392167497, 0.0]
['beep', 0.0, 25.48098867905005, 0.0, 0.0, 0.0, 0.0, -114.37387637780624, 0.0]
['beep', 0.0, 24.855139834301454, 0.0, 0.0, 0.0, 0.0, -114.64209731126992, 0.0]
['beep', 0.0, 23.89401482272325, 0.0, 0.0, 0.0, 0.0, -111.33403913188448, 0.0]
['beep', 0.0, 24.609270645293076, 0.0, 0.0, 0.0, 0.0, -113.45745485513865, 0.0]
['beep', 0.0, 24.743381112024917, 0.0, 0.0, 0.0, 0.0, -115.02207696701015, 0.0]
['beep', 0.0, 23.648145633714872, 0.0, 0.0, 0.0, 0.0, -112.76455077702413, 0.0]
['beep', 0.0, 24.51986366747185, 0.0, 0.0, 0.0, 0.0, -112.58573682138167, 0.0]
['beep', 0.0, 24.564567156382463, 0.0, 0.0, 0.0, 0.0, -112.80925426593474, 0.0]
['beep', 0.0, 23.804607844902023, 0.0, 0.0, 0.0, 0.0, -113.2786408994962, 0.0]
['beep', 0.0, 23.446979933617108, 0.0, 0.0, 0.0, 0.0, -112.6974955436582, 0.0]
['beep', 0.0, 23.49168342252772, 0.0, 0.0, 0.0, 0.0, -113.18923392167497, 0.0]
['beep', 0.0, 24.81043634539084, 0.0, 0.0, 0.0, 0.0, -112.47397809910514, 0.0]
['beep', 0.0, 24.229290989552855, 0.0, 0.0, 0.0, 0.0, -111.42344610970571, 0.0]
['beep', 0.0, 23.648145633714872, 0.0, 0.0, 0.0, 0.0, -110.99876296505488, 0.0]
['beep', 0.0, 25.03395378994391, 0.0, 0.0, 0.0, 0.0, -113.52451008850457, 0.0]
['beep', 0.0, 23.446979933617108, 0.0, 0.0, 0.0, 0.0, -112.29516414346269, 0.0]
['beep', 0.0, 23.29051772242996, 0.0, 0.0, 0.0, 0.0, -110.97641122059957, 0.0]
['beep', 0.0, 24.51986366747185, 0.0, 0.0, 0.0, 0.0, -112.3622193768286, 0.0]
['beep', 0.0, 25.168064256675752, 0.0, 0.0, 0.0, 0.0, -113.6139170663258, 0.0]
['beep', 0.0, 23.67049737817018, 0.0, 0.0, 0.0, 0.0, -111.31168738742917, 0.0]
['beep', 0.0, 22.1505787552093, 0.0, 0.0, 0.0, 0.0, -111.42344610970571, 0.0]
['beep', 0.0, 22.7764275999579, 0.0, 0.0, 0.0, 0.0, -112.45162635464983, 0.0]
['beep', 0.0, 23.20111074460873, 0.0, 0.0, 0.0, 0.0, -115.67027755621405, 0.0]
['beep', 0.0, 22.73172411104728, 0.0, 0.0, 0.0, 0.0, -116.54199558997102, 0.0]
['beep', 0.0, 23.469331678072415, 0.0, 0.0, 0.0, 0.0, -111.44579785416101, 0.0]
['beep', 0.0, 23.156407255698117, 0.0, 0.0, 0.0, 0.0, -110.73054203159118, 0.0]
['beep', 0.0, 23.82695958935733, 0.0, 0.0, 0.0, 0.0, -110.19410016466382, 0.0]
['beep', 0.0, 24.005773544999784, 0.0, 0.0, 0.0, 0.0, -112.6751437992029, 0.0]
['beep', 0.0, 24.005773544999784, 0.0, 0.0, 0.0, 0.0, -112.11635018782023, 0.0]
['beep', 0.0, 24.0504770339104, 0.0, 0.0, 0.0, 0.0, -111.62461180980347, 0.0]
['beep', 0.0, 23.51403516698303, 0.0, 0.0, 0.0, 0.0, -112.25046065455207, 0.0]
['beep', 0.0, 23.871663078267943, 0.0, 0.0, 0.0, 0.0, -112.0045914655437, 0.0]
['beep', 0.0, 22.105875266298685, 0.0, 0.0, 0.0, 0.0, -112.80925426593474, 0.0]
['beep', 0.0, 21.23415723254171, 0.0, 0.0, 0.0, 0.0, -113.01041996603252, 0.0]
['beep', 0.0, 21.837654332835, 0.0, 0.0, 0.0, 0.0, -113.54686183295988, 0.0]
['beep', 0.0, 22.44115143312829, 0.0, 0.0, 0.0, 0.0, -114.46328335562747, 0.0]
['beep', 0.0, 23.469331678072415, 0.0, 0.0, 0.0, 0.0, -112.92101298821127, 0.0]
['beep', 0.0, 25.12336076776514, 0.0, 0.0, 0.0, 0.0, -112.31751588791799, 0.0]
['beep', 0.0, 28.945509069622645, 0.0, 0.0, 0.0, 0.0, -110.84230075386772, 0.0]
['beep', 0.0, 28.789046858435498, 0.0, 0.0, 0.0, 0.0, -110.7975972649571, 0.0]
['beep', 0.0, 30.28661373694107, 0.0, 0.0, 0.0, 0.0, -111.78107402099062, 0.0]
['beep', 0.0, 28.945509069622645, 0.0, 0.0, 0.0, 0.0, -110.64113505376996, 0.0]
['beep', 0.0, 27.447942191117072, 0.0, 0.0, 0.0, 0.0, -110.48467284258281, 0.0]
['beep', 0.0, 24.989250301033294, 0.0, 0.0, 0.0, 0.0, -111.64696355425878, 0.0]
['beep', 0.0, 22.642317133226054, 0.0, 0.0, 0.0, 0.0, -112.58573682138167, 0.0]
['beep', 0.0, 21.77059909946908, 0.0, 0.0, 0.0, 0.0, -113.6362688107811, 0.0]
['beep', 0.0, 21.77059909946908, 0.0, 0.0, 0.0, 0.0, -114.39622812226155, 0.0]
['beep', 0.0, 22.44115143312829, 0.0, 0.0, 0.0, 0.0, -115.33500138938444, 0.0]
['beep', 0.0, 23.268165977974654, 0.0, 0.0, 0.0, 0.0, -115.5361670894822, 0.0]
['beep', 0.0, 22.37409619976237, 0.0, 0.0, 0.0, 0.0, -115.44676011166098, 0.0]
['beep', 0.0, 22.865834577779125, 0.0, 0.0, 0.0, 0.0, -116.36318163432857, 0.0]
['beep', 0.0, 22.642317133226054, 0.0, 0.0, 0.0, 0.0, -116.94432699016656, 0.0]
['beep', 0.0, 22.262337477485833, 0.0, 0.0, 0.0, 0.0, -117.65958281273637, 0.0]
['beep', 0.0, 22.418799688672983, 0.0, 0.0, 0.0, 0.0, -117.7489897905576, 0.0]
['beep', 0.0, 21.994116544022148, 0.0, 0.0, 0.0, 0.0, -117.16784443471963, 0.0]
['beep', 0.0, 21.74824735501377, 0.0, 0.0, 0.0, 0.0, -117.99485897956599, 0.0]
['beep', 0.0, 22.619965388770748, 0.0, 0.0, 0.0, 0.0, -116.4749403566051, 0.0]
['beep', 0.0, 22.44115143312829, 0.0, 0.0, 0.0, 0.0, -118.26307991302967, 0.0]
['beep', 0.0, 23.558738655893645, 0.0, 0.0, 0.0, 0.0, -117.99485897956599, 0.0]
['beep', 0.0, 24.028125289455094, 0.0, 0.0, 0.0, 0.0, -116.96667873462187, 0.0]
['beep', 0.0, 24.028125289455094, 0.0, 0.0, 0.0, 0.0, -119.85005376935646, 0.0]
['beep', 0.0, 22.821131088868512, 0.0, 0.0, 0.0, 0.0, -119.44772236916094, 0.0]
['beep', 0.0, 24.743381112024917, 0.0, 0.0, 0.0, 0.0, -118.88892875777826, 0.0]
['beep', 0.0, 25.03395378994391, 0.0, 0.0, 0.0, 0.0, -117.36901013481739, 0.0]
['beep', 0.0, 23.82695958935733, 0.0, 0.0, 0.0, 0.0, -117.4360653681833, 0.0]
['beep', 0.0, 24.11753226727632, 0.0, 0.0, 0.0, 0.0, -119.98416423608832, 0.0]
['beep', 0.0, 24.94454681212268, 0.0, 0.0, 0.0, 0.0, -117.68193455719168, 0.0]
['beep', 0.0, 25.235119490041672, 0.0, 0.0, 0.0, 0.0, -116.96667873462187, 0.0]
['beep', 0.0, 25.391581701228823, 0.0, 0.0, 0.0, 0.0, -119.3136119024291, 0.0]
['beep', 0.0, 25.928023568156192, 0.0, 0.0, 0.0, 0.0, -122.06287647043187, 0.0]
['beep', 0.0, 25.12336076776514, 0.0, 0.0, 0.0, 0.0, -120.54295784747099, 0.0]
['beep', 0.0, 25.436285190139436, 0.0, 0.0, 0.0, 0.0, -119.04539096896542, 0.0]
['beep', 0.0, 25.369229956773516, 0.0, 0.0, 0.0, 0.0, -121.83935902587879, 0.0]
['beep', 0.0, 24.631622389748383, 0.0, 0.0, 0.0, 0.0, -124.3651061493285, 0.0]
['beep', 0.0, 24.341049711829392, 0.0, 0.0, 0.0, 0.0, -122.21933868161902, 0.0]
['beep', 0.0, 23.96107005608917, 0.0, 0.0, 0.0, 0.0, -118.15132119075314, 0.0]
['beep', 0.0, 26.129189268253956, 0.0, 0.0, 0.0, 0.0, -120.87823401430059, 0.0]
['beep', 0.0, 26.129189268253956, 0.0, 0.0, 0.0, 0.0, -122.19698693716371, 0.0]
['beep', 0.0, 25.168064256675752, 0.0, 0.0, 0.0, 0.0, -119.78299853599054, 0.0]
['beep', 0.0, 26.844445090823783, 0.0, 0.0, 0.0, 0.0, -120.78882703647936, 0.0]
['beep', 0.0, 27.269128235474618, 0.0, 0.0, 0.0, 0.0, -119.98416423608832, 0.0]
['beep', 0.0, 26.419761946172947, 0.0, 0.0, 0.0, 0.0, -120.83353052538997, 0.0]
['beep', 0.0, 26.017430545977422, 0.0, 0.0, 0.0, 0.0, -123.62749858230336, 0.0]
['beep', 0.0, 26.956203813100316, 0.0, 0.0, 0.0, 0.0, -121.97346949261065, 0.0]
['beep', 0.0, 24.765732856480227, 0.0, 0.0, 0.0, 0.0, -123.22516718210784, 0.0]
['beep', 0.0, 24.028125289455094, 0.0, 0.0, 0.0, 0.0, -122.39815263726148, 0.0]
['beep', 0.0, 25.905671823700885, 0.0, 0.0, 0.0, 0.0, -121.2135101811302, 0.0]
['beep', 0.0, 27.336183468840538, 0.0, 0.0, 0.0, 0.0, -124.9909549940771, 0.0]
['beep', 0.0, 26.79974160191317, 0.0, 0.0, 0.0, 0.0, -121.28056541449612, 0.0]
['beep', 0.0, 25.145712512220445, 0.0, 0.0, 0.0, 0.0, -119.87240551381177, 0.0]
['beep', 0.0, 26.79974160191317, 0.0, 0.0, 0.0, 0.0, -122.10757995934249, 0.0]
['beep', 0.0, 27.067962535376854, 0.0, 0.0, 0.0, 0.0, -123.091056715376, 0.0]
['beep', 0.0, 27.738514869036063, 0.0, 0.0, 0.0, 0.0, -123.94042300467767, 0.0]
['beep', 0.0, 27.537349168938302, 0.0, 0.0, 0.0, 0.0, -123.06870497092069, 0.0]
['beep', 0.0, 25.27982297895229, 0.0, 0.0, 0.0, 0.0, -121.99582123706595, 0.0]
['beep', 0.0, 27.112666024287467, 0.0, 0.0, 0.0, 0.0, -123.64985032675867, 0.0]
['beep', 0.0, 27.805570102401987, 0.0, 0.0, 0.0, 0.0, -123.1134084598313, 0.0]
['beep', 0.0, 26.889148579734396, 0.0, 0.0, 0.0, 0.0, -122.17463519270841, 0.0]
['beep', 0.0, 27.358535213295845, 0.0, 0.0, 0.0, 0.0, -122.91224275973354, 0.0]
['beep', 0.0, 27.872625335767907, 0.0, 0.0, 0.0, 0.0, -126.37676315030613, 0.0]
['beep', 0.0, 26.531520668449485, 0.0, 0.0, 0.0, 0.0, -124.0521817269542, 0.0]
['beep', 0.0, 27.336183468840538, 0.0, 0.0, 0.0, 0.0, -124.3651061493285, 0.0]
['beep', 0.0, 26.509168923994178, 0.0, 0.0, 0.0, 0.0, -126.37676315030613, 0.0]
['beep', 0.0, 25.436285190139436, 0.0, 0.0, 0.0, 0.0, -125.3038794164514, 0.0]
['beep', 0.0, 25.816264845879658, 0.0, 0.0, 0.0, 0.0, -124.20864393814135, 0.0]
['beep', 0.0, 27.91732882467852, 0.0, 0.0, 0.0, 0.0, -122.73342880409108, 0.0]
['beep', 0.0, 27.716163124580756, 0.0, 0.0, 0.0, 0.0, -124.07453347140951, 0.0]
['beep', 0.0, 26.218596246075183, 0.0, 0.0, 0.0, 0.0, -121.43702762568327, 0.0]
['beep', 0.0, 26.39741020171764, 0.0, 0.0, 0.0, 0.0, -123.69455381566928, 0.0]
['beep', 0.0, 23.692849122625486, 0.0, 0.0, 0.0, 0.0, -123.85101602685643, 0.0]
['beep', 0.0, 24.3634014562847, 0.0, 0.0, 0.0, 0.0, -121.81700728142349, 0.0]
['beep', 0.0, 26.33035496835172, 0.0, 0.0, 0.0, 0.0, -124.20864393814135, 0.0]
['beep', 0.0, 27.98438405804444, 0.0, 0.0, 0.0, 0.0, -123.38162939329499, 0.0]
['beep', 0.0, 25.391581701228823, 0.0, 0.0, 0.0, 0.0, -124.47686487160503, 0.0]
['beep', 0.0, 23.49168342252772, 0.0, 0.0, 0.0, 0.0, -126.04148698347653, 0.0]
['beep', 0.0, 25.257471234496983, 0.0, 0.0, 0.0, 0.0, -126.6002805948592, 0.0]
['beep', 0.0, 24.29634622291878, 0.0, 0.0, 0.0, 0.0, -125.39328639427262, 0.0]
['beep', 0.0, 24.922195067667374, 0.0, 0.0, 0.0, 0.0, -122.57696659290393, 0.0]
['beep', 0.0, 25.05630553439922, 0.0, 0.0, 0.0, 0.0, -122.08522821488718, 0.0]
['beep', 0.0, 25.12336076776514, 0.0, 0.0, 0.0, 0.0, -122.64402182626985, 0.0]
['beep', 0.0, 26.062134034888036, 0.0, 0.0, 0.0, 0.0, -124.74508580506871, 0.0]
['beep', 0.0, 27.962032313589134, 0.0, 0.0, 0.0, 0.0, -123.80631253794581, 0.0]
['beep', 0.0, 27.55970091339361, 0.0, 0.0, 0.0, 0.0, -121.63819332578103, 0.0]
['beep', 0.0, 27.582052657848916, 0.0, 0.0, 0.0, 0.0, -122.4652078706274, 0.0]
['beep', 0.0, 27.514997424482996, 0.0, 0.0, 0.0, 0.0, -121.07939971439836, 0.0]
['beep', 0.0, 24.542215411927156, 0.0, 0.0, 0.0, 0.0, -121.5264346035045, 0.0]
['beep', 0.0, 25.235119490041672, 0.0, 0.0, 0.0, 0.0, -123.29222241547376, 0.0]
['beep', 0.0, 28.744343369524884, 0.0, 0.0, 0.0, 0.0, -126.08619047238714, 0.0]
['beep', 0.0, 26.665631135181325, 0.0, 0.0, 0.0, 0.0, -123.7616090490352, 0.0]
['beep', 0.0, 26.777389857457862, 0.0, 0.0, 0.0, 0.0, -121.45937937013858, 0.0]
['beep', 0.0, 25.011602045488605, 0.0, 0.0, 0.0, 0.0, -118.82187352441234, 0.0]
['beep', 0.0, 24.341049711829392, 0.0, 0.0, 0.0, 0.0, -119.82770202490116, 0.0]
['beep', 0.0, 29.280785236452253, 0.0, 0.0, 0.0, 0.0, -123.29222241547376, 0.0]
['beep', 0.0, 33.66172714969244, 0.0, 0.0, 0.0, 0.0, -121.2135101811302, 0.0]
['beep', 0.0, 33.617023660781825, 0.0, 0.0, 0.0, 0.0, -121.72760030360226, 0.0]
['beep', 0.0, 31.895939337723178, 0.0, 0.0, 0.0, 0.0, -120.52060610301568, 0.0]
['beep', 0.0, 31.314793981885195, 0.0, 0.0, 0.0, 0.0, -121.61584158132572, 0.0]
['beep', 0.0, 31.135980026242738, 0.0, 0.0, 0.0, 0.0, -122.77813229300169, 0.0]
['beep', 0.0, 30.800703859413133, 0.0, 0.0, 0.0, 0.0, -123.06870497092069, 0.0]
['beep', 0.0, 29.571357914371244, 0.0, 0.0, 0.0, 0.0, -123.87336777131173, 0.0]
['beep', 0.0, 28.20790150259751, 0.0, 0.0, 0.0, 0.0, -123.31457415992907, 0.0]
['beep', 0.0, 29.414895703184094, 0.0, 0.0, 0.0, 0.0, -125.75091430555753, 0.0]
['beep', 0.0, 31.493607937527653, 0.0, 0.0, 0.0, 0.0, -126.33205966139552, 0.0]
['beep', 0.0, 30.66659339268129, 0.0, 0.0, 0.0, 0.0, -125.19212069417486, 0.0]
['beep', 0.0, 29.928985825656156, 0.0, 0.0, 0.0, 0.0, -122.50991135953801, 0.0]
['beep', 0.0, 29.59370965882655, 0.0, 0.0, 0.0, 0.0, -122.17463519270841, 0.0]
['beep', 0.0, 28.1631980136869, 0.0, 0.0, 0.0, 0.0, -123.67220207121397, 0.0]
['beep', 0.0, 31.73947712653603, 0.0, 0.0, 0.0, 0.0, -125.46034162763854, 0.0]
['beep', 0.0, 29.504302681005324, 0.0, 0.0, 0.0, 0.0, -124.81214103843463, 0.0]
['beep', 0.0, 27.760866613491373, 0.0, 0.0, 0.0, 0.0, -124.47686487160503, 0.0]
['beep', 0.0, 29.77252361446901, 0.0, 0.0, 0.0, 0.0, -125.43798988318323, 0.0]
['beep', 0.0, 30.644241648225982, 0.0, 0.0, 0.0, 0.0, -125.3262311609067, 0.0]
['beep', 0.0, 31.471256193072342, 0.0, 0.0, 0.0, 0.0, -124.76743754952402, 0.0]
['beep', 0.0, 28.1631980136869, 0.0, 0.0, 0.0, 0.0, -125.50504511654916, 0.0]
['beep', 0.0, 27.24677649101931, 0.0, 0.0, 0.0, 0.0, -127.44964688416087, 0.0]
['beep', 0.0, 26.531520668449485, 0.0, 0.0, 0.0, 0.0, -124.14158870477543, 0.0]
['beep', 0.0, 28.431418947150583, 0.0, 0.0, 0.0, 0.0, -123.47103637111621, 0.0]
['beep', 0.0, 27.135017768742774, 0.0, 0.0, 0.0, 0.0, -126.17559745020837, 0.0]
['beep', 0.0, 27.425590446661765, 0.0, 0.0, 0.0, 0.0, -127.76257130653516, 0.0]
['beep', 0.0, 25.905671823700885, 0.0, 0.0, 0.0, 0.0, -126.71203931713573, 0.0]
['beep', 0.0, 25.302174723407596, 0.0, 0.0, 0.0, 0.0, -126.6002805948592, 0.0]
['beep', 0.0, 25.659802634692507, 0.0, 0.0, 0.0, 0.0, -125.88502477228937, 0.0]
['beep', 0.0, 25.235119490041672, 0.0, 0.0, 0.0, 0.0, -125.05801022744302, 0.0]
['beep', 0.0, 25.548043912415974, 0.0, 0.0, 0.0, 0.0, -129.05897248494298, 0.0]
['beep', 0.0, 24.43045668965062, 0.0, 0.0, 0.0, 0.0, -128.61193759583685, 0.0]
['beep', 0.0, 25.57039565687128, 0.0, 0.0, 0.0, 0.0, -126.75674280604635, 0.0]
['beep', 0.0, 26.62092764627071, 0.0, 0.0, 0.0, 0.0, -126.98026025059943, 0.0]
['beep', 0.0, 27.939680569133827, 0.0, 0.0, 0.0, 0.0, -129.23778644058544, 0.0]
['beep', 0.0, 28.364363713784662, 0.0, 0.0, 0.0, 0.0, -130.24361494107424, 0.0]
['beep', 0.0, 27.045610790921547, 0.0, 0.0, 0.0, 0.0, -128.67899282920277, 0.0]
['beep', 0.0, 30.711296881591903, 0.0, 0.0, 0.0, 0.0, -126.82379803941227, 0.0]
['beep', 0.0, 29.90663408120085, 0.0, 0.0, 0.0, 0.0, -128.14255096227538, 0.0]
['beep', 0.0, 27.827921846857294, 0.0, 0.0, 0.0, 0.0, -128.38842015128378, 0.0]
['beep', 0.0, 29.549006169915938, 0.0, 0.0, 0.0, 0.0, -126.91320501723351, 0.0]
['beep', 0.0, 28.520825924971813, 0.0, 0.0, 0.0, 0.0, -128.2319579400966, 0.0]
['beep', 0.0, 28.00673580249975, 0.0, 0.0, 0.0, 0.0, -129.7965800519681, 0.0]
['beep', 0.0, 30.465427692583525, 0.0, 0.0, 0.0, 0.0, -130.0648009854318, 0.0]
['beep', 0.0, 29.884282336745542, 0.0, 0.0, 0.0, 0.0, -130.15420796325301, 0.0]
['beep', 0.0, 29.83957884783493, 0.0, 0.0, 0.0, 0.0, -131.6964783306692, 0.0]
['beep', 0.0, 29.481950936550017, 0.0, 0.0, 0.0, 0.0, -133.68578358719154, 0.0]
['beep', 0.0, 27.805570102401987, 0.0, 0.0, 0.0, 0.0, -131.13768471928654, 0.0]
['beep', 0.0, 30.554834670404755, 0.0, 0.0, 0.0, 0.0, -131.18238820819715, 0.0]
['beep', 0.0, 29.459599192094707, 0.0, 0.0, 0.0, 0.0, -128.70134457365808, 0.0]
['beep', 0.0, 28.744343369524884, 0.0, 0.0, 0.0, 0.0, -128.2096061956413, 0.0]
['beep', 0.0, 28.297308480418742, 0.0, 0.0, 0.0, 0.0, -131.13768471928654, 0.0]
['beep', 0.0, 28.00673580249975, 0.0, 0.0, 0.0, 0.0, -130.17655970770832, 0.0]
['beep', 0.0, 28.14084626923159, 0.0, 0.0, 0.0, 0.0, -130.04244924097648, 0.0]
['beep', 0.0, 28.274956735963436, 0.0, 0.0, 0.0, 0.0, -130.28831842998486, 0.0]
['beep', 0.0, 29.325488725362867, 0.0, 0.0, 0.0, 0.0, -131.49531263057145, 0.0]
['beep', 0.0, 29.258433491996946, 0.0, 0.0, 0.0, 0.0, -131.56236786393737, 0.0]
['beep', 0.0, 26.576224157360098, 0.0, 0.0, 0.0, 0.0, -127.5614056064374, 0.0]
['beep', 0.0, 26.71033462409194, 0.0, 0.0, 0.0, 0.0, -127.00261199505474, 0.0]
['beep', 0.0, 27.224424746564, 0.0, 0.0, 0.0, 0.0, -129.28248992949605, 0.0]
['beep', 0.0, 28.31966022487405, 0.0, 0.0, 0.0, 0.0, -131.74118181957982, 0.0]
['beep', 0.0, 27.514997424482996, 0.0, 0.0, 0.0, 0.0, -130.40007715226142, 0.0]
['beep', 0.0, 25.235119490041672, 0.0, 0.0, 0.0, 0.0, -128.92486201821114, 0.0]
['beep', 0.0, 26.687982879636632, 0.0, 0.0, 0.0, 0.0, -129.64011784078096, 0.0]
['beep', 0.0, 26.844445090823783, 0.0, 0.0, 0.0, 0.0, -129.4389521406832, 0.0]
['beep', 0.0, 27.179721257653387, 0.0, 0.0, 0.0, 0.0, -130.02009749652117, 0.0]
['beep', 0.0, 26.956203813100316, 0.0, 0.0, 0.0, 0.0, -129.55071086295973, 0.0]
['beep', 0.0, 26.419761946172947, 0.0, 0.0, 0.0, 0.0, -129.88598702978933, 0.0]
['beep', 0.0, 27.91732882467852, 0.0, 0.0, 0.0, 0.0, -128.00844049554354, 0.0]
['beep', 0.0, 28.00673580249975, 0.0, 0.0, 0.0, 0.0, -128.99191725157706, 0.0]
['beep', 0.0, 27.135017768742774, 0.0, 0.0, 0.0, 0.0, -129.01426899603237, 0.0]
['beep', 0.0, 27.38088695775115, 0.0, 0.0, 0.0, 0.0, -128.4554753846497, 0.0]
['beep', 0.0, 27.269128235474618, 0.0, 0.0, 0.0, 0.0, -128.67899282920277, 0.0]
['beep', 0.0, 28.923157325167338, 0.0, 0.0, 0.0, 0.0, -125.86267302783406, 0.0]
['beep', 0.0, 29.750171870013702, 0.0, 0.0, 0.0, 0.0, -126.71203931713573, 0.0]
['beep', 0.0, 29.750171870013702, 0.0, 0.0, 0.0, 0.0, -127.60610909534802, 0.0]
['beep', 0.0, 30.59953815931537, 0.0, 0.0, 0.0, 0.0, -128.92486201821114, 0.0]
['beep', 0.0, 30.97951781505559, 0.0, 0.0, 0.0, 0.0, -128.94721376266645, 0.0]
['beep', 0.0, 31.73947712653603, 0.0, 0.0, 0.0, 0.0, -129.26013818504074, 0.0]
['beep', 0.0, 33.39350621622875, 0.0, 0.0, 0.0, 0.0, -130.1095044743424, 0.0]
['beep', 0.0, 32.9241195826673, 0.0, 0.0, 0.0, 0.0, -126.93555676168882, 0.0]
['beep', 0.0, 31.068924792876818, 0.0, 0.0, 0.0, 0.0, -125.43798988318323, 0.0]
['beep', 0.0, 30.644241648225982, 0.0, 0.0, 0.0, 0.0, -125.25917592754078, 0.0]
['beep', 0.0, 32.61119516029301, 0.0, 0.0, 0.0, 0.0, -128.03079223999885, 0.0]
['beep', 0.0, 31.001869559510897, 0.0, 0.0, 0.0, 0.0, -127.38259165079495, 0.0]
['beep', 0.0, 30.398372459217605, 0.0, 0.0, 0.0, 0.0, -127.78492305099047, 0.0]
['beep', 0.0, 30.018392803477386, 0.0, 0.0, 0.0, 0.0, -127.44964688416087, 0.0]
['beep', 0.0, 31.247738748519275, 0.0, 0.0, 0.0, 0.0, -127.5614056064374, 0.0]
['beep', 0.0, 33.505264938505285, 0.0, 0.0, 0.0, 0.0, -128.12019921782007, 0.0]
['beep', 0.0, 36.008660317499675, 0.0, 0.0, 0.0, 0.0, -127.80727479544578, 0.0]
['beep', 0.0, 39.8755121082678, 0.0, 0.0, 0.0, 0.0, -127.5614056064374, 0.0]
['beep', 0.0, 42.11068655379851, 0.0, 0.0, 0.0, 0.0, -129.95304226315525, 0.0]
['beep', 0.0, 40.21078827509741, 0.0, 0.0, 0.0, 0.0, -127.98608875108825, 0.0]
['beep', 0.0, 41.350727242318065, 0.0, 0.0, 0.0, 0.0, -127.78492305099047, 0.0]
['beep', 0.0, 42.44596272062811, 0.0, 0.0, 0.0, 0.0, -129.7965800519681, 0.0]
['beep', 0.0, 44.68113716615882, 0.0, 0.0, 0.0, 0.0, -131.74118181957982, 0.0]
['beep', 0.0, 39.2496632635192, 0.0, 0.0, 0.0, 0.0, -128.54488236247093, 0.0]
['beep', 0.0, 32.54413992692708, 0.0, 0.0, 0.0, 0.0, -125.90737651674469, 0.0]
['beep', 0.0, 34.287575994441035, 0.0, 0.0, 0.0, 0.0, -127.67316432871394, 0.0]
['beep', 0.0, 29.884282336745542, 0.0, 0.0, 0.0, 0.0, -127.42729513970556, 0.0]
['beep', 0.0, 28.342011969329356, 0.0, 0.0, 0.0, 0.0, -125.59445209437038, 0.0]
['beep', 0.0, 32.25356724900809, 0.0, 0.0, 0.0, 0.0, -125.21447243863017, 0.0]
['beep', 0.0, 39.02614581896613, 0.0, 0.0, 0.0, 0.0, -129.23778644058544, 0.0]
['beep', 0.0, 35.29340449492985, 0.0, 0.0, 0.0, 0.0, -128.7907515514793, 0.0]
['beep', 0.0, 30.912462581689667, 0.0, 0.0, 0.0, 0.0, -128.96956550712176, 0.0]
['beep', 0.0, 30.89011083723436, 0.0, 0.0, 0.0, 0.0, -128.27666142900722, 0.0]
['beep', 0.0, 30.085448036843307, 0.0, 0.0, 0.0, 0.0, -128.90251027375584, 0.0]
['beep', 0.0, 27.336183468840538, 0.0, 0.0, 0.0, 0.0, -128.38842015128378, 0.0]
['beep', 0.0, 29.124323025265102, 0.0, 0.0, 0.0, 0.0, -130.22126319661893, 0.0]
['beep', 0.0, 32.81236086039077, 0.0, 0.0, 0.0, 0.0, -130.6459463412698, 0.0]
['beep', 0.0, 33.97465157206673, 0.0, 0.0, 0.0, 0.0, -128.63428934029216, 0.0]
['beep', 0.0, 34.39933471671757, 0.0, 0.0, 0.0, 0.0, -128.09784747336477, 0.0]
['beep', 0.0, 35.874549850767835, 0.0, 0.0, 0.0, 0.0, -126.82379803941227, 0.0]
['beep', 0.0, 37.28270975145218, 0.0, 0.0, 0.0, 0.0, -127.04731548396535, 0.0]
['beep', 0.0, 36.05336380641029, 0.0, 0.0, 0.0, 0.0, -127.62846083980332, 0.0]
['beep', 0.0, 35.606328917304154, 0.0, 0.0, 0.0, 0.0, -127.06966722842066, 0.0]
['beep', 0.0, 36.29923299541867, 0.0, 0.0, 0.0, 0.0, -125.39328639427262, 0.0]
['beep', 0.0, 32.61119516029301, 0.0, 0.0, 0.0, 0.0, -125.08036197189833, 0.0]
['beep', 0.0, 33.10293353830976, 0.0, 0.0, 0.0, 0.0, -127.85197828435639, 0.0]
['beep', 0.0, 31.80653235990195, 0.0, 0.0, 0.0, 0.0, -128.34371666237314, 0.0]
['beep', 0.0, 30.510131181494142, 0.0, 0.0, 0.0, 0.0, -126.2650044280296, 0.0]
['beep', 0.0, 28.923157325167338, 0.0, 0.0, 0.0, 0.0, -126.53322536149328, 0.0]
['beep', 0.0, 29.4372474476394, 0.0, 0.0, 0.0, 0.0, -126.5779288504039, 0.0]
['beep', 0.0, 31.71712538208072, 0.0, 0.0, 0.0, 0.0, -126.82379803941227, 0.0]
['beep', 0.0, 31.448904448617036, 0.0, 0.0, 0.0, 0.0, -129.66246958523627, 0.0]
['beep', 0.0, 33.438209705139364, 0.0, 0.0, 0.0, 0.0, -127.27083292851842, 0.0]
['beep', 0.0, 33.684078894147746, 0.0, 0.0, 0.0, 0.0, -125.39328639427262, 0.0]
['beep', 0.0, 32.81236086039077, 0.0, 0.0, 0.0, 0.0, -124.32040266041788, 0.0]
['beep', 0.0, 32.767657371480155, 0.0, 0.0, 0.0, 0.0, -124.29805091596258, 0.0]
['beep', 0.0, 32.81236086039077, 0.0, 0.0, 0.0, 0.0, -124.76743754952402, 0.0]
['beep', 0.0, 34.488741694538795, 0.0, 0.0, 0.0, 0.0, -123.31457415992907, 0.0]
['beep', 0.0, 37.394468473728715, 0.0, 0.0, 0.0, 0.0, -122.35344914835086, 0.0]
['beep', 0.0, 34.68990739463656, 0.0, 0.0, 0.0, 0.0, -121.81700728142349, 0.0]
['beep', 0.0, 30.152503270209227, 0.0, 0.0, 0.0, 0.0, -121.36997239231735, 0.0]
['beep', 0.0, 31.11362828178743, 0.0, 0.0, 0.0, 0.0, -121.72760030360226, 0.0]
['beep', 0.0, 30.82305560386844, 0.0, 0.0, 0.0, 0.0, -120.94528924766652, 0.0]
['beep', 0.0, 29.99604105902208, 0.0, 0.0, 0.0, 0.0, -121.8840625147894, 0.0]
['beep', 0.0, 32.14180852673156, 0.0, 0.0, 0.0, 0.0, -123.98512649358828, 0.0]
['beep', 0.0, 35.53927368393823, 0.0, 0.0, 0.0, 0.0, -123.53809160448213, 0.0]
['beep', 0.0, 33.59467191632652, 0.0, 0.0, 0.0, 0.0, -120.83353052538997, 0.0]
['beep', 0.0, 31.6500701487148, 0.0, 0.0, 0.0, 0.0, -120.67706831420283, 0.0]
['beep', 0.0, 28.342011969329356, 0.0, 0.0, 0.0, 0.0, -122.53226310399332, 0.0]
['beep', 0.0, 28.856102091801418, 0.0, 0.0, 0.0, 0.0, -121.61584158132572, 0.0]
['beep', 0.0, 32.18651201564217, 0.0, 0.0, 0.0, 0.0, -119.78299853599054, 0.0]
['beep', 0.0, 32.65589864920362, 0.0, 0.0, 0.0, 0.0, -120.38649563628384, 0.0]
['beep', 0.0, 31.73947712653603, 0.0, 0.0, 0.0, 0.0, -120.96764099212183, 0.0]
['beep', 0.0, 31.314793981885195, 0.0, 0.0, 0.0, 0.0, -118.44189386867212, 0.0]
['beep', 0.0, 32.231215504552786, 0.0, 0.0, 0.0, 0.0, -120.5653095919263, 0.0]
['beep', 0.0, 33.10293353830976, 0.0, 0.0, 0.0, 0.0, -120.78882703647936, 0.0]
['beep', 0.0, 30.800703859413133, 0.0, 0.0, 0.0, 0.0, -119.26890841351849, 0.0]
['beep', 0.0, 30.376020714762298, 0.0, 0.0, 0.0, 0.0, -118.48659735758274, 0.0]
['beep', 0.0, 32.20886376009748, 0.0, 0.0, 0.0, 0.0, -119.2912601579738, 0.0]
['beep', 0.0, 31.024221303966204, 0.0, 0.0, 0.0, 0.0, -121.34762064786204, 0.0]
['beep', 0.0, 31.001869559510897, 0.0, 0.0, 0.0, 0.0, -121.79465553696818, 0.0]
['beep', 0.0, 31.58301491534888, 0.0, 0.0, 0.0, 0.0, -119.6265363248034, 0.0]
['beep', 0.0, 32.49943643801647, 0.0, 0.0, 0.0, 0.0, -119.38066713579502, 0.0]
['beep', 0.0, 29.347840469818173, 0.0, 0.0, 0.0, 0.0, -119.9394607471777, 0.0]
['beep', 0.0, 31.627718404259493, 0.0, 0.0, 0.0, 0.0, -119.98416423608832, 0.0]
['beep', 0.0, 30.778352114957826, 0.0, 0.0, 0.0, 0.0, -119.00068748005481, 0.0]
['beep', 0.0, 31.985346315544408, 0.0, 0.0, 0.0, 0.0, -120.23003342509669, 0.0]
['beep', 0.0, 29.705468381103085, 0.0, 0.0, 0.0, 0.0, -119.87240551381177, 0.0]
['beep', 0.0, 29.325488725362867, 0.0, 0.0, 0.0, 0.0, -118.28543165748498, 0.0]
['beep', 0.0, 30.085448036843307, 0.0, 0.0, 0.0, 0.0, -118.53130084649335, 0.0]
['beep', 0.0, 31.381849215251115, 0.0, 0.0, 0.0, 0.0, -118.7101148021358, 0.0]
['beep', 0.0, 31.761828870991337, 0.0, 0.0, 0.0, 0.0, -119.2912601579738, 0.0]
['beep', 0.0, 30.465427692583525, 0.0, 0.0, 0.0, 0.0, -118.46424561312743, 0.0]
['beep', 0.0, 33.2146922605863, 0.0, 0.0, 0.0, 0.0, -116.25142291205204, 0.0]
['beep', 0.0, 32.81236086039077, 0.0, 0.0, 0.0, 0.0, -116.07260895640958, 0.0]
['beep', 0.0, 31.605366659804186, 0.0, 0.0, 0.0, 0.0, -116.92197524571124, 0.0]
['beep', 0.0, 29.52665442546063, 0.0, 0.0, 0.0, 0.0, -117.1007892013537, 0.0]
['beep', 0.0, 31.35949747079581, 0.0, 0.0, 0.0, 0.0, -115.60322232284813, 0.0]
['beep', 0.0, 30.308965481396378, 0.0, 0.0, 0.0, 0.0, -113.03277171048782, 0.0]
['beep', 0.0, 29.459599192094707, 0.0, 0.0, 0.0, 0.0, -114.93266998918891, 0.0]
['beep', 0.0, 27.69381138012545, 0.0, 0.0, 0.0, 0.0, -115.37970487829506, 0.0]
['beep', 0.0, 27.336183468840538, 0.0, 0.0, 0.0, 0.0, -114.64209731126992, 0.0]
['beep', 0.0, 29.66076489219247, 0.0, 0.0, 0.0, 0.0, -115.75968453403527, 0.0]
['beep', 0.0, 28.90080558071203, 0.0, 0.0, 0.0, 0.0, -116.43023686769449, 0.0]
['beep', 0.0, 27.24677649101931, 0.0, 0.0, 0.0, 0.0, -117.45841711263861, 0.0]
['beep', 0.0, 30.107799781298613, 0.0, 0.0, 0.0, 0.0, -116.43023686769449, 0.0]
['beep', 0.0, 29.481950936550017, 0.0, 0.0, 0.0, 0.0, -115.55851883393751, 0.0]
['beep', 0.0, 29.481950936550017, 0.0, 0.0, 0.0, 0.0, -114.41857986671685, 0.0]
['beep', 0.0, 26.64327939072602, 0.0, 0.0, 0.0, 0.0, -114.61974556681461, 0.0]
['beep', 0.0, 27.09031427983216, 0.0, 0.0, 0.0, 0.0, -116.87727175680062, 0.0]
['beep', 0.0, 29.59370965882655, 0.0, 0.0, 0.0, 0.0, -115.8714432563118, 0.0]
['beep', 0.0, 28.476122436061196, 0.0, 0.0, 0.0, 0.0, -116.72080954561348, 0.0]
['beep', 0.0, 29.52665442546063, 0.0, 0.0, 0.0, 0.0, -117.03373396798779, 0.0]
['beep', 0.0, 29.928985825656156, 0.0, 0.0, 0.0, 0.0, -119.3136119024291, 0.0]
['beep', 0.0, 31.068924792876818, 0.0, 0.0, 0.0, 0.0, -119.2912601579738, 0.0]
['beep', 0.0, 30.085448036843307, 0.0, 0.0, 0.0, 0.0, -117.50312060154923, 0.0]
['beep', 0.0, 28.342011969329356, 0.0, 0.0, 0.0, 0.0, -115.58087057839282, 0.0]
['beep', 0.0, 26.531520668449485, 0.0, 0.0, 0.0, 0.0, -116.94432699016656, 0.0]
['beep', 0.0, 27.91732882467852, 0.0, 0.0, 0.0, 0.0, -117.25725141254085, 0.0]
['beep', 0.0, 31.04657304842151, 0.0, 0.0, 0.0, 0.0, -114.37387637780624, 0.0]
['beep', 0.0, 30.688945137136596, 0.0, 0.0, 0.0, 0.0, -115.78203627849058, 0.0]
['beep', 0.0, 28.498474180516506, 0.0, 0.0, 0.0, 0.0, -117.88310025728944, 0.0]
['beep', 0.0, 28.811398602890804, 0.0, 0.0, 0.0, 0.0, -116.40788512323918, 0.0]
['beep', 0.0, 30.59953815931537, 0.0, 0.0, 0.0, 0.0, -116.65375431224756, 0.0]
['beep', 0.0, 30.376020714762298, 0.0, 0.0, 0.0, 0.0, -115.8267397674012, 0.0]
['beep', 0.0, 29.14667476972041, 0.0, 0.0, 0.0, 0.0, -114.53033858899339, 0.0]
['beep', 0.0, 30.376020714762298, 0.0, 0.0, 0.0, 0.0, -115.80438802294589, 0.0]
['beep', 0.0, 31.29244223742989, 0.0, 0.0, 0.0, 0.0, -116.36318163432857, 0.0]
['beep', 0.0, 31.001869559510897, 0.0, 0.0, 0.0, 0.0, -115.29029790047383, 0.0]
['beep', 0.0, 31.80653235990195, 0.0, 0.0, 0.0, 0.0, -114.97737347809954, 0.0]
['beep', 0.0, 34.26522424998573, 0.0, 0.0, 0.0, 0.0, -114.37387637780624, 0.0]
['beep', 0.0, 29.59370965882655, 0.0, 0.0, 0.0, 0.0, -114.44093161117216, 0.0]
['beep', 0.0, 28.07379103586567, 0.0, 0.0, 0.0, 0.0, -113.90448974424478, 0.0]
['beep', 0.0, 30.465427692583525, 0.0, 0.0, 0.0, 0.0, -117.36901013481739, 0.0]
['beep', 0.0, 30.487779437038835, 0.0, 0.0, 0.0, 0.0, -115.1785391781973, 0.0]
['beep', 0.0, 31.605366659804186, 0.0, 0.0, 0.0, 0.0, -115.89379500076711, 0.0]
['beep', 0.0, 30.018392803477386, 0.0, 0.0, 0.0, 0.0, -115.42440836720567, 0.0]
['beep', 0.0, 29.347840469818173, 0.0, 0.0, 0.0, 0.0, -115.98320197858835, 0.0]
['beep', 0.0, 27.827921846857294, 0.0, 0.0, 0.0, 0.0, -114.75385603354646, 0.0]
['beep', 0.0, 27.112666024287467, 0.0, 0.0, 0.0, 0.0, -115.06678045592076, 0.0]
['beep', 0.0, 27.291479979929925, 0.0, 0.0, 0.0, 0.0, -115.35735313383975, 0.0]
['beep', 0.0, 26.844445090823783, 0.0, 0.0, 0.0, 0.0, -114.48563510008277, 0.0]
['beep', 0.0, 29.191378258631023, 0.0, 0.0, 0.0, 0.0, -113.6139170663258, 0.0]
['beep', 0.0, 28.83375034734611, 0.0, 0.0, 0.0, 0.0, -115.02207696701015, 0.0]
['beep', 0.0, 25.838616590334965, 0.0, 0.0, 0.0, 0.0, -114.03860021097664, 0.0]
['beep', 0.0, 25.86096833479027, 0.0, 0.0, 0.0, 0.0, -111.93753623217776, 0.0]
['beep', 0.0, 25.615099145781894, 0.0, 0.0, 0.0, 0.0, -112.78690252147943, 0.0]
['beep', 0.0, 26.956203813100316, 0.0, 0.0, 0.0, 0.0, -113.34569613286212, 0.0]
['beep', 0.0, 25.79391310142435, 0.0, 0.0, 0.0, 0.0, -114.12800718879787, 0.0]
['beep', 0.0, 23.178759000153423, 0.0, 0.0, 0.0, 0.0, -113.94919323315541, 0.0]
['beep', 0.0, 24.095180522821014, 0.0, 0.0, 0.0, 0.0, -112.47397809910514, 0.0]
['beep', 0.0, 24.0504770339104, 0.0, 0.0, 0.0, 0.0, -112.87630949930066, 0.0]
['beep', 0.0, 25.726857868058428, 0.0, 0.0, 0.0, 0.0, -111.82577750990123, 0.0]
['beep', 0.0, 24.989250301033294, 0.0, 0.0, 0.0, 0.0, -113.90448974424478, 0.0]
['beep', 0.0, 25.615099145781894, 0.0, 0.0, 0.0, 0.0, -113.45745485513865, 0.0]
['beep', 0.0, 27.805570102401987, 0.0, 0.0, 0.0, 0.0, -112.58573682138167, 0.0]
['beep', 0.0, 25.816264845879658, 0.0, 0.0, 0.0, 0.0, -114.12800718879787, 0.0]
['beep', 0.0, 26.308003223896414, 0.0, 0.0, 0.0, 0.0, -113.12217868830905, 0.0]
['beep', 0.0, 25.48098867905005, 0.0, 0.0, 0.0, 0.0, -113.16688217721966, 0.0]
['beep', 0.0, 25.212767745586365, 0.0, 0.0, 0.0, 0.0, -114.48563510008277, 0.0]
['beep', 0.0, 24.341049711829392, 0.0, 0.0, 0.0, 0.0, -114.19506242216379, 0.0]
['beep', 0.0, 25.235119490041672, 0.0, 0.0, 0.0, 0.0, -113.81508276642356, 0.0]
['beep', 0.0, 24.028125289455094, 0.0, 0.0, 0.0, 0.0, -114.35152463335093, 0.0]
['beep', 0.0, 26.129189268253956, 0.0, 0.0, 0.0, 0.0, -114.41857986671685, 0.0]
['beep', 0.0, 25.369229956773516, 0.0, 0.0, 0.0, 0.0, -116.85492001234532, 0.0]
['beep', 0.0, 22.619965388770748, 0.0, 0.0, 0.0, 0.0, -118.46424561312743, 0.0]
['beep', 0.0, 24.385753200740005, 0.0, 0.0, 0.0, 0.0, -114.575042077904, 0.0]
['beep', 0.0, 24.475160178561232, 0.0, 0.0, 0.0, 0.0, -114.79855952245707, 0.0]
['beep', 0.0, 25.659802634692507, 0.0, 0.0, 0.0, 0.0, -115.75968453403527, 0.0]
['beep', 0.0, 27.24677649101931, 0.0, 0.0, 0.0, 0.0, -115.60322232284813, 0.0]
['beep', 0.0, 25.88332007924558, 0.0, 0.0, 0.0, 0.0, -116.87727175680062, 0.0]
['beep', 0.0, 24.832788089846147, 0.0, 0.0, 0.0, 0.0, -116.02790546749897, 0.0]
['beep', 0.0, 25.771561356969045, 0.0, 0.0, 0.0, 0.0, -117.65958281273637, 0.0]
['beep', 0.0, 24.609270645293076, 0.0, 0.0, 0.0, 0.0, -119.11244620233134, 0.0]
['beep', 0.0, 25.19041600113106, 0.0, 0.0, 0.0, 0.0, -121.61584158132572, 0.0]
['beep', 0.0, 25.905671823700885, 0.0, 0.0, 0.0, 0.0, -121.23586192558551, 0.0]
['beep', 0.0, 26.352706712807027, 0.0, 0.0, 0.0, 0.0, -118.33013514639559, 0.0]
['beep', 0.0, 25.257471234496983, 0.0, 0.0, 0.0, 0.0, -119.26890841351849, 0.0]
['beep', 0.0, 26.24094799053049, 0.0, 0.0, 0.0, 0.0, -119.00068748005481, 0.0]
['beep', 0.0, 30.219558503575147, 0.0, 0.0, 0.0, 0.0, -120.40884738073915, 0.0]
['beep', 0.0, 28.45377069160589, 0.0, 0.0, 0.0, 0.0, -119.6265363248034, 0.0]
['beep', 0.0, 27.894977080223214, 0.0, 0.0, 0.0, 0.0, -119.42537062470564, 0.0]
['beep', 0.0, 27.336183468840538, 0.0, 0.0, 0.0, 0.0, -117.65958281273637, 0.0]
['beep', 0.0, 25.9503753126115, 0.0, 0.0, 0.0, 0.0, -117.65958281273637, 0.0]
