['beep', 0.0, -1702.174747249454, 0.0, 0.0, 0.0, 0.0, -149.0861355168981, 0.0]
['beep', 0.0, -1700.3195524596636, 0.0, 0.0, 0.0, 0.0, -153.69059487469136, 0.0]
['beep', 0.0, -1699.7160553593703, 0.0, 0.0, 0.0, 0.0, -161.0443188004874, 0.0]
['beep', 0.0, -1699.8948693150128, 0.0, 0.0, 0.0, 0.0, -169.15800203776385, 0.0]
['beep', 0.0, -1700.341904204119, 0.0, 0.0, 0.0, 0.0, -175.3047317629733, 0.0]
['beep', 0.0, -1699.4254826814513, 0.0, 0.0, 0.0, 0.0, -180.80326089897883, 0.0]
['beep', 0.0, -1700.2301454818423, 0.0, 0.0, 0.0, 0.0, -187.46408074666033, 0.0]
['beep', 0.0, -1699.4478344259066, 0.0, 0.0, 0.0, 0.0, -192.80614767147873, 0.0]
['beep', 0.0, -1699.4478344259066, 0.0, 0.0, 0.0, 0.0, -198.17056634075243, 0.0]
['beep', 0.0, -1698.5984681366049, 0.0, 0.0, 0.0, 0.0, -203.892612921311, 0.0]
['beep', 0.0, -1697.9726192918563, 0.0, 0.0, 0.0, 0.0, -208.58647925692551, 0.0]
['beep', 0.0, -1697.5479361472055, 0.0, 0.0, 0.0, 0.0, -214.46498804867127, 0.0]
['beep', 0.0, -1696.407997179985, 0.0, 0.0, 0.0, 0.0, -217.30365959449526, 0.0]
['beep', 0.0, -1696.8103285801803, 0.0, 0.0, 0.0, 0.0, -221.46108406318237, 0.0]
['beep', 0.0, -1695.33511344613, 0.0, 0.0, 0.0, 0.0, -226.17730214325218, 0.0]
['beep', 0.0, -1695.2010029793983, 0.0, 0.0, 0.0, 0.0, -228.25601437759573, 0.0]
['beep', 0.0, -1695.8492035686022, 0.0, 0.0, 0.0, 0.0, -230.11120916738622, 0.0]
['beep', 0.0, -1694.95513379039, 0.0, 0.0, 0.0, 0.0, -232.07816267945324, 0.0]
['beep', 0.0, -1695.111596001577, 0.0, 0.0, 0.0, 0.0, -233.6204330468694, 0.0]
['beep', 0.0, -1696.273886713253, 0.0, 0.0, 0.0, 0.0, -236.50380808160403, 0.0]
['beep', 0.0, -1695.625686124049, 0.0, 0.0, 0.0, 0.0, -239.36483137188333, 0.0]
['beep', 0.0, -1695.0445407682112, 0.0, 0.0, 0.0, 0.0, -242.22585466216265, 0.0]
['beep', 0.0, -1695.0892442571217, 0.0, 0.0, 0.0, 0.0, -243.27638665156206, 0.0]
['beep', 0.0, -1694.016360523267, 0.0, 0.0, 0.0, 0.0, -244.57278782996988, 0.0]
['beep', 0.0, -1693.5246221452503, 0.0, 0.0, 0.0, 0.0, -247.38910763133856, 0.0]
['beep', 0.0, -1693.3011047006971, 0.0, 0.0, 0.0, 0.0, -247.81379077598942, 0.0]
['beep', 0.0, -1694.664561112471, 0.0, 0.0, 0.0, 0.0, -247.74673554262347, 0.0]
['beep', 0.0, -1696.1844797354318, 0.0, 0.0, 0.0, 0.0, -247.70203205371286, 0.0]
['beep', 0.0, -1694.95513379039, 0.0, 0.0, 0.0, 0.0, -247.97025298717656, 0.0]
['beep', 0.0, -1693.5693256341608, 0.0, 0.0, 0.0, 0.0, -250.2724826660732, 0.0]
['beep', 0.0, -1693.792843078714, 0.0, 0.0, 0.0, 0.0, -251.6582908223022, 0.0]
['beep', 0.0, -1694.5528023901943, 0.0, 0.0, 0.0, 0.0, -251.25595942210668, 0.0]
['beep', 0.0, -1694.7316163458368, 0.0, 0.0, 0.0, 0.0, -251.92651175576592, 0.0]
['beep', 0.0, -1694.3292849456413, 0.0, 0.0, 0.0, 0.0, -253.8040582900117, 0.0]
['beep', 0.0, -1694.1951744789094, 0.0, 0.0, 0.0, 0.0, -253.98287224565416, 0.0]
['beep', 0.0, -1694.5751541346497, 0.0, 0.0, 0.0, 0.0, -254.02757573456478, 0.0]
['beep', 0.0, -1695.2010029793983, 0.0, 0.0, 0.0, 0.0, -254.0946309679307, 0.0]
['beep', 0.0, -1695.4468721684066, 0.0, 0.0, 0.0, 0.0, -253.245264678629, 0.0]
['beep', 0.0, -1696.4750524133508, 0.0, 0.0, 0.0, 0.0, -255.56984610198094, 0.0]
['beep', 0.0, -1696.855032069091, 0.0, 0.0, 0.0, 0.0, -254.7875350460452, 0.0]
['beep', 0.0, -1695.9609622908788, 0.0, 0.0, 0.0, 0.0, -254.7204798126793, 0.0]
['beep', 0.0, -1697.0561977691887, 0.0, 0.0, 0.0, 0.0, -254.67577632376867, 0.0]
['beep', 0.0, -1698.4643576698732, 0.0, 0.0, 0.0, 0.0, -255.9498257577212, 0.0]
['beep', 0.0, -1697.078549513644, 0.0, 0.0, 0.0, 0.0, -257.1344682138525, 0.0]
['beep', 0.0, -1697.212659980376, 0.0, 0.0, 0.0, 0.0, -256.53097111355913, 0.0]
['beep', 0.0, -1697.1903082359206, 0.0, 0.0, 0.0, 0.0, -256.5086193691038, 0.0]
['beep', 0.0, -1696.6985698579037, 0.0, 0.0, 0.0, 0.0, -257.40268914731615, 0.0]
['beep', 0.0, -1697.0338460247335, 0.0, 0.0, 0.0, 0.0, -257.536799614048, 0.0]
['beep', 0.0, -1697.7043983583926, 0.0, 0.0, 0.0, 0.0, -257.4697443806821, 0.0]
['beep', 0.0, -1696.2515349687976, 0.0, 0.0, 0.0, 0.0, -258.4755728811709, 0.0]
['beep', 0.0, -1696.1621279909764, 0.0, 0.0, 0.0, 0.0, -257.9167792697882, 0.0]
['beep', 0.0, -1696.1397762465213, 0.0, 0.0, 0.0, 0.0, -258.1850002032519, 0.0]
['beep', 0.0, -1695.9609622908788, 0.0, 0.0, 0.0, 0.0, -258.922607770277, 0.0]
['beep', 0.0, -1697.950267547401, 0.0, 0.0, 0.0, 0.0, -257.8720757808776, 0.0]
['beep', 0.0, -1696.2515349687976, 0.0, 0.0, 0.0, 0.0, -259.4590496372044, 0.0]
['beep', 0.0, -1695.9386105464234, 0.0, 0.0, 0.0, 0.0, -259.9060845263105, 0.0]
['beep', 0.0, -1697.4138256804736, 0.0, 0.0, 0.0, 0.0, -259.5931601039362, 0.0]
['beep', 0.0, -1698.3525989475966, 0.0, 0.0, 0.0, 0.0, -260.6213403488803, 0.0]
['beep', 0.0, -1698.4420059254178, 0.0, 0.0, 0.0, 0.0, -260.7554508156122, 0.0]
['beep', 0.0, -1697.7043983583926, 0.0, 0.0, 0.0, 0.0, -260.2860641820507, 0.0]
['beep', 0.0, -1697.4138256804736, 0.0, 0.0, 0.0, 0.0, -261.11307872689713, 0.0]
['beep', 0.0, -1698.754930347792, 0.0, 0.0, 0.0, 0.0, -259.8613810373999, 0.0]
['beep', 0.0, -1700.207793737387, 0.0, 0.0, 0.0, 0.0, -261.2918926825396, 0.0]
['beep', 0.0, -1699.827814081647, 0.0, 0.0, 0.0, 0.0, -260.9789682601653, 0.0]
['beep', 0.0, -1699.0007995368005, 0.0, 0.0, 0.0, 0.0, -261.3365961714502, 0.0]
['beep', 0.0, -1700.0960350151106, 0.0, 0.0, 0.0, 0.0, -261.3142444269949, 0.0]
['beep', 0.0, -1699.8948693150128, 0.0, 0.0, 0.0, 0.0, -261.49305838263734, 0.0]
['beep', 0.0, -1699.7831105927362, 0.0, 0.0, 0.0, 0.0, -261.0907269824418, 0.0]
['beep', 0.0, -1698.7102268588815, 0.0, 0.0, 0.0, 0.0, -261.11307872689713, 0.0]
['beep', 0.0, -1699.0007995368005, 0.0, 0.0, 0.0, 0.0, -260.68839558224624, 0.0]
['beep', 0.0, -1699.4254826814513, 0.0, 0.0, 0.0, 0.0, -260.1519537153189, 0.0]
['beep', 0.0, -1699.0007995368005, 0.0, 0.0, 0.0, 0.0, -259.5931601039362, 0.0]
['beep', 0.0, -1697.8161570806692, 0.0, 0.0, 0.0, 0.0, -259.43669789274907, 0.0]
['beep', 0.0, -1697.726750102848, 0.0, 0.0, 0.0, 0.0, -259.6155118483915, 0.0]
['beep', 0.0, -1697.659694869482, 0.0, 0.0, 0.0, 0.0, -259.99549150413173, 0.0]
['beep', 0.0, -1697.5702878916609, 0.0, 0.0, 0.0, 0.0, -260.84485779343345, 0.0]
['beep', 0.0, -1697.0338460247335, 0.0, 0.0, 0.0, 0.0, -262.78945956104513, 0.0]
['beep', 0.0, -1698.173784991954, 0.0, 0.0, 0.0, 0.0, -262.7447560721345, 0.0]
['beep', 0.0, -1697.9949710363117, 0.0, 0.0, 0.0, 0.0, -261.80598280501164, 0.0]
['beep', 0.0, -1697.3914739360184, 0.0, 0.0, 0.0, 0.0, -261.11307872689713, 0.0]
['beep', 0.0, -1697.7043983583926, 0.0, 0.0, 0.0, 0.0, -260.95661651571, 0.0]
['beep', 0.0, -1698.0620262696775, 0.0, 0.0, 0.0, 0.0, -261.49305838263734, 0.0]
['beep', 0.0, -1697.9055640584904, 0.0, 0.0, 0.0, 0.0, -260.91191302679937, 0.0]
['beep', 0.0, -1697.9949710363117, 0.0, 0.0, 0.0, 0.0, -260.5319333710591, 0.0]
['beep', 0.0, -1697.5479361472055, 0.0, 0.0, 0.0, 0.0, -261.44835489372673, 0.0]
['beep', 0.0, -1696.4750524133508, 0.0, 0.0, 0.0, 0.0, -263.23649445015127, 0.0]
['beep', 0.0, -1697.7043983583926, 0.0, 0.0, 0.0, 0.0, -262.7224043276792, 0.0]
['beep', 0.0, -1698.0396745252222, 0.0, 0.0, 0.0, 0.0, -262.3647764163943, 0.0]
['beep', 0.0, -1696.9891425358228, 0.0, 0.0, 0.0, 0.0, -261.9177415272882, 0.0]
['beep', 0.0, -1696.4974041578062, 0.0, 0.0, 0.0, 0.0, -262.90121828332167, 0.0]
['beep', 0.0, -1696.4527006688954, 0.0, 0.0, 0.0, 0.0, -262.6553490943133, 0.0]
['beep', 0.0, -1696.2068314798871, 0.0, 0.0, 0.0, 0.0, -262.16361071629655, 0.0]
['beep', 0.0, -1696.720921602359, 0.0, 0.0, 0.0, 0.0, -260.9789682601653, 0.0]
['beep', 0.0, -1697.7938053362138, 0.0, 0.0, 0.0, 0.0, -261.3142444269949, 0.0]
['beep', 0.0, -1698.4867094143283, 0.0, 0.0, 0.0, 0.0, -263.79528806153394, 0.0]
['beep', 0.0, -1696.8103285801803, 0.0, 0.0, 0.0, 0.0, -264.10821248390823, 0.0]
['beep', 0.0, -1696.6091628800825, 0.0, 0.0, 0.0, 0.0, -263.12473572787474, 0.0]
['beep', 0.0, -1696.8326803246357, 0.0, 0.0, 0.0, 0.0, -262.5882938609474, 0.0]
['beep', 0.0, -1697.9949710363117, 0.0, 0.0, 0.0, 0.0, -262.5882938609474, 0.0]
['beep', 0.0, -1697.7491018473033, 0.0, 0.0, 0.0, 0.0, -262.923570027777, 0.0]
['beep', 0.0, -1696.720921602359, 0.0, 0.0, 0.0, 0.0, -263.43766015024903, 0.0]
['beep', 0.0, -1698.1067297585882, 0.0, 0.0, 0.0, 0.0, -263.6164741058915, 0.0]
['beep', 0.0, -1698.1514332474987, 0.0, 0.0, 0.0, 0.0, -264.15291597281885, 0.0]
['beep', 0.0, -1696.4974041578062, 0.0, 0.0, 0.0, 0.0, -264.3540816729166, 0.0]
['beep', 0.0, -1695.7821483352363, 0.0, 0.0, 0.0, 0.0, -263.6835293392574, 0.0]
['beep', 0.0, -1696.6538663689932, 0.0, 0.0, 0.0, 0.0, -260.30841592650603, 0.0]
['beep', 0.0, -1696.9891425358228, 0.0, 0.0, 0.0, 0.0, -260.04019499304235, 0.0]
['beep', 0.0, -1697.3244187026523, 0.0, 0.0, 0.0, 0.0, -261.0907269824418, 0.0]
['beep', 0.0, -1697.2797152137418, 0.0, 0.0, 0.0, 0.0, -262.45418339421553, 0.0]
['beep', 0.0, -1697.4138256804736, 0.0, 0.0, 0.0, 0.0, -262.923570027777, 0.0]
['beep', 0.0, -1698.0396745252222, 0.0, 0.0, 0.0, 0.0, -261.9400932717435, 0.0]
['beep', 0.0, -1698.1067297585882, 0.0, 0.0, 0.0, 0.0, -261.3365961714502, 0.0]
['beep', 0.0, -1698.754930347792, 0.0, 0.0, 0.0, 0.0, -262.49888688312615, 0.0]
['beep', 0.0, -1697.235011724831, 0.0, 0.0, 0.0, 0.0, -262.9906252611429, 0.0]
['beep', 0.0, -1697.3244187026523, 0.0, 0.0, 0.0, 0.0, -261.18013396026305, 0.0]
['beep', 0.0, -1697.6373431250267, 0.0, 0.0, 0.0, 0.0, -260.7778025600675, 0.0]
['beep', 0.0, -1697.9949710363117, 0.0, 0.0, 0.0, 0.0, -261.22483744917366, 0.0]
['beep', 0.0, -1697.6820466139372, 0.0, 0.0, 0.0, 0.0, -261.49305838263734, 0.0]
['beep', 0.0, -1697.5479361472055, 0.0, 0.0, 0.0, 0.0, -262.5882938609474, 0.0]
['beep', 0.0, -1697.5255844027502, 0.0, 0.0, 0.0, 0.0, -261.89538978283286, 0.0]
['beep', 0.0, -1698.1961367364095, 0.0, 0.0, 0.0, 0.0, -262.2977211830284, 0.0]
['beep', 0.0, -1698.4867094143283, 0.0, 0.0, 0.0, 0.0, -260.88956128234406, 0.0]
['beep', 0.0, -1699.1125582590769, 0.0, 0.0, 0.0, 0.0, -260.88956128234406, 0.0]
['beep', 0.0, -1698.3078954586858, 0.0, 0.0, 0.0, 0.0, -261.58246536045857, 0.0]
['beep', 0.0, -1697.7043983583926, 0.0, 0.0, 0.0, 0.0, -262.0071485051094, 0.0]
['beep', 0.0, -1697.1679564914652, 0.0, 0.0, 0.0, 0.0, -263.0353287500535, 0.0]
['beep', 0.0, -1697.0114942802782, 0.0, 0.0, 0.0, 0.0, -262.85651479441105, 0.0]
['beep', 0.0, -1696.8997355580016, 0.0, 0.0, 0.0, 0.0, -262.7000525832239, 0.0]
['beep', 0.0, -1697.1009012580994, 0.0, 0.0, 0.0, 0.0, -262.54359037203676, 0.0]
['beep', 0.0, -1697.1456047470099, 0.0, 0.0, 0.0, 0.0, -263.3929566613384, 0.0]
['beep', 0.0, -1698.374950692052, 0.0, 0.0, 0.0, 0.0, -264.10821248390823, 0.0]
['beep', 0.0, -1698.374950692052, 0.0, 0.0, 0.0, 0.0, -264.7564130731122, 0.0]
['beep', 0.0, -1699.9172210594681, 0.0, 0.0, 0.0, 0.0, -265.2034479622183, 0.0]
['beep', 0.0, -1699.7831105927362, 0.0, 0.0, 0.0, 0.0, -263.9741020171764, 0.0]
['beep', 0.0, -1699.2243169813535, 0.0, 0.0, 0.0, 0.0, -263.52706712807026, 0.0]
['beep', 0.0, -1698.5761163921495, 0.0, 0.0, 0.0, 0.0, -263.7505845726233, 0.0]
['beep', 0.0, -1698.4196541809624, 0.0, 0.0, 0.0, 0.0, -263.3929566613384, 0.0]
['beep', 0.0, -1699.2243169813535, 0.0, 0.0, 0.0, 0.0, -263.6611775948021, 0.0]
['beep', 0.0, -1698.7325786033368, 0.0, 0.0, 0.0, 0.0, -263.9964537616317, 0.0]
['beep', 0.0, -1696.5421076467167, 0.0, 0.0, 0.0, 0.0, -265.7398898291457, 0.0]
['beep', 0.0, -1695.759796590781, 0.0, 0.0, 0.0, 0.0, -264.3764334173719, 0.0]
['beep', 0.0, -1694.5751541346497, 0.0, 0.0, 0.0, 0.0, -262.78945956104513, 0.0]
['beep', 0.0, -1693.4799186563396, 0.0, 0.0, 0.0, 0.0, -263.728232828168, 0.0]
['beep', 0.0, -1694.016360523267, 0.0, 0.0, 0.0, 0.0, -261.15778221580774, 0.0]
['beep', 0.0, -1694.5751541346497, 0.0, 0.0, 0.0, 0.0, -261.44835489372673, 0.0]
['beep', 0.0, -1696.6985698579037, 0.0, 0.0, 0.0, 0.0, -261.15778221580774, 0.0]
['beep', 0.0, -1697.6373431250267, 0.0, 0.0, 0.0, 0.0, -260.5542851155144, 0.0]
['beep', 0.0, -1697.9279158029458, 0.0, 0.0, 0.0, 0.0, -262.56594211649207, 0.0]
['beep', 0.0, -1699.6042966370937, 0.0, 0.0, 0.0, 0.0, -262.6106456054027, 0.0]
['beep', 0.0, -1699.2690204702642, 0.0, 0.0, 0.0, 0.0, -262.342424671939, 0.0]
['beep', 0.0, -1698.1961367364095, 0.0, 0.0, 0.0, 0.0, -262.342424671939, 0.0]
['beep', 0.0, -1697.9726192918563, 0.0, 0.0, 0.0, 0.0, -264.309378184006, 0.0]
['beep', 0.0, -1698.4867094143283, 0.0, 0.0, 0.0, 0.0, -264.15291597281885, 0.0]
['beep', 0.0, -1697.9279158029458, 0.0, 0.0, 0.0, 0.0, -262.87886653886636, 0.0]
['beep', 0.0, -1696.7656250912698, 0.0, 0.0, 0.0, 0.0, -264.018805506087, 0.0]
['beep', 0.0, -1696.3185902021637, 0.0, 0.0, 0.0, 0.0, -263.54941887252556, 0.0]
['beep', 0.0, -1696.0727210131552, 0.0, 0.0, 0.0, 0.0, -262.11890722738593, 0.0]
['beep', 0.0, -1695.8715553130576, 0.0, 0.0, 0.0, 0.0, -262.6777008387686, 0.0]
['beep', 0.0, -1695.1339477460324, 0.0, 0.0, 0.0, 0.0, -262.9459217722323, 0.0]
['beep', 0.0, -1696.4750524133508, 0.0, 0.0, 0.0, 0.0, -264.2423229506401, 0.0]
['beep', 0.0, -1695.916258801968, 0.0, 0.0, 0.0, 0.0, -265.2257997066736, 0.0]
['beep', 0.0, -1695.983314035334, 0.0, 0.0, 0.0, 0.0, -265.67283459577976, 0.0]
['beep', 0.0, -1697.9949710363117, 0.0, 0.0, 0.0, 0.0, -265.02463400657587, 0.0]
['beep', 0.0, -1697.4808809138397, 0.0, 0.0, 0.0, 0.0, -264.44348865073783, 0.0]
['beep', 0.0, -1697.950267547401, 0.0, 0.0, 0.0, 0.0, -262.9459217722323, 0.0]
['beep', 0.0, -1697.2573634692865, 0.0, 0.0, 0.0, 0.0, -263.3259014279725, 0.0]
['beep', 0.0, -1698.3078954586858, 0.0, 0.0, 0.0, 0.0, -264.3987851618272, 0.0]
['beep', 0.0, -1697.3020669581972, 0.0, 0.0, 0.0, 0.0, -264.309378184006, 0.0]
['beep', 0.0, -1696.6538663689932, 0.0, 0.0, 0.0, 0.0, -265.29285494003955, 0.0]
['beep', 0.0, -1697.3467704471077, 0.0, 0.0, 0.0, 0.0, -264.7787648175675, 0.0]
['beep', 0.0, -1696.0950727576105, 0.0, 0.0, 0.0, 0.0, -265.8069450625116, 0.0]
['beep', 0.0, -1696.4750524133508, 0.0, 0.0, 0.0, 0.0, -264.13056422836354, 0.0]
['beep', 0.0, -1697.1009012580994, 0.0, 0.0, 0.0, 0.0, -263.46001189470434, 0.0]
['beep', 0.0, -1695.7374448463256, 0.0, 0.0, 0.0, 0.0, -265.31520668449485, 0.0]
['beep', 0.0, -1695.0221890237558, 0.0, 0.0, 0.0, 0.0, -264.890523539844, 0.0]
['beep', 0.0, -1694.95513379039, 0.0, 0.0, 0.0, 0.0, -264.7787648175675, 0.0]
['beep', 0.0, -1694.7092646013814, 0.0, 0.0, 0.0, 0.0, -265.29285494003955, 0.0]
['beep', 0.0, -1695.759796590781, 0.0, 0.0, 0.0, 0.0, -266.00811076260936, 0.0]
['beep', 0.0, -1695.5139274017724, 0.0, 0.0, 0.0, 0.0, -265.91870378478814, 0.0]
['beep', 0.0, -1695.1339477460324, 0.0, 0.0, 0.0, 0.0, -265.8740002958775, 0.0]
['beep', 0.0, -1694.7986715792026, 0.0, 0.0, 0.0, 0.0, -265.91870378478814, 0.0]
['beep', 0.0, -1695.8715553130576, 0.0, 0.0, 0.0, 0.0, -264.2423229506401, 0.0]
['beep', 0.0, -1695.759796590781, 0.0, 0.0, 0.0, 0.0, -265.7845933180563, 0.0]
['beep', 0.0, -1695.3798169350407, 0.0, 0.0, 0.0, 0.0, -266.7010148407239, 0.0]
['beep', 0.0, -1695.5586308906832, 0.0, 0.0, 0.0, 0.0, -267.4162706632937, 0.0]
['beep', 0.0, -1694.0610640121777, 0.0, 0.0, 0.0, 0.0, -267.7068433412127, 0.0]
['beep', 0.0, -1693.8598983120798, 0.0, 0.0, 0.0, 0.0, -266.58925611844734, 0.0]
['beep', 0.0, -1694.306933201186, 0.0, 0.0, 0.0, 0.0, -266.8127735630004, 0.0]
['beep', 0.0, -1695.0892442571217, 0.0, 0.0, 0.0, 0.0, -265.91870378478814, 0.0]
['beep', 0.0, -1694.6869128569263, 0.0, 0.0, 0.0, 0.0, -266.92453228527694, 0.0]
['beep', 0.0, -1694.3963401790072, 0.0, 0.0, 0.0, 0.0, -266.4774973961708, 0.0]
['beep', 0.0, -1694.7539680902921, 0.0, 0.0, 0.0, 0.0, -266.65631135181326, 0.0]
['beep', 0.0, -1694.7092646013814, 0.0, 0.0, 0.0, 0.0, -267.1927532187406, 0.0]
['beep', 0.0, -1693.9046018009903, 0.0, 0.0, 0.0, 0.0, -266.5222008850814, 0.0]
['beep', 0.0, -1693.5246221452503, 0.0, 0.0, 0.0, 0.0, -265.89635204033283, 0.0]
['beep', 0.0, -1694.3516366900965, 0.0, 0.0, 0.0, 0.0, -266.03046250706467, 0.0]
['beep', 0.0, -1694.7986715792026, 0.0, 0.0, 0.0, 0.0, -266.0975177404306, 0.0]
['beep', 0.0, -1695.1339477460324, 0.0, 0.0, 0.0, 0.0, -267.3939189188384, 0.0]
['beep', 0.0, -1695.6033343795937, 0.0, 0.0, 0.0, 0.0, -267.7962503190339, 0.0]
['beep', 0.0, -1694.2622297122753, 0.0, 0.0, 0.0, 0.0, -267.95271253022105, 0.0]
['beep', 0.0, -1693.8822500565352, 0.0, 0.0, 0.0, 0.0, -268.8691340528887, 0.0]
['beep', 0.0, -1694.6422093680155, 0.0, 0.0, 0.0, 0.0, -268.80207881952276, 0.0]
['beep', 0.0, -1695.4915756573173, 0.0, 0.0, 0.0, 0.0, -269.5843898754585, 0.0]
['beep', 0.0, -1695.0668925126663, 0.0, 0.0, 0.0, 0.0, -269.8526108089222, 0.0]
['beep', 0.0, -1693.949305289901, 0.0, 0.0, 0.0, 0.0, -268.66796835279087, 0.0]
['beep', 0.0, -1694.016360523267, 0.0, 0.0, 0.0, 0.0, -268.8691340528887, 0.0]
['beep', 0.0, -1696.0727210131552, 0.0, 0.0, 0.0, 0.0, -268.80207881952276, 0.0]
['beep', 0.0, -1695.6703896129598, 0.0, 0.0, 0.0, 0.0, -267.7068433412127, 0.0]
['beep', 0.0, -1694.95513379039, 0.0, 0.0, 0.0, 0.0, -266.56690437399203, 0.0]
['beep', 0.0, -1695.0445407682112, 0.0, 0.0, 0.0, 0.0, -267.59508461893614, 0.0]
['beep', 0.0, -1694.8657268125687, 0.0, 0.0, 0.0, 0.0, -267.0809944964641, 0.0]
['beep', 0.0, -1695.916258801968, 0.0, 0.0, 0.0, 0.0, -265.69518634023507, 0.0]
['beep', 0.0, -1695.916258801968, 0.0, 0.0, 0.0, 0.0, -265.5387241290479, 0.0]
['beep', 0.0, -1696.564459391172, 0.0, 0.0, 0.0, 0.0, -264.7340613286569, 0.0]
['beep', 0.0, -1695.5586308906832, 0.0, 0.0, 0.0, 0.0, -265.33755842895016, 0.0]
['beep', 0.0, -1696.407997179985, 0.0, 0.0, 0.0, 0.0, -265.8069450625116, 0.0]
['beep', 0.0, -1695.3574651905853, 0.0, 0.0, 0.0, 0.0, -265.8292968069669, 0.0]
['beep', 0.0, -1696.0280175242447, 0.0, 0.0, 0.0, 0.0, -266.7233665851792, 0.0]
['beep', 0.0, -1695.1339477460324, 0.0, 0.0, 0.0, 0.0, -268.1762299747741, 0.0]
['beep', 0.0, -1695.3127617016748, 0.0, 0.0, 0.0, 0.0, -268.3773956748719, 0.0]
['beep', 0.0, -1696.1844797354318, 0.0, 0.0, 0.0, 0.0, -268.31034044150596, 0.0]
['beep', 0.0, -1695.5809826351385, 0.0, 0.0, 0.0, 0.0, -267.93036078576574, 0.0]
['beep', 0.0, -1695.469223912862, 0.0, 0.0, 0.0, 0.0, -268.71267184170154, 0.0]
['beep', 0.0, -1695.2904099572195, 0.0, 0.0, 0.0, 0.0, -269.5396863865479, 0.0]
['beep', 0.0, -1695.6033343795937, 0.0, 0.0, 0.0, 0.0, -268.75737533061215, 0.0]
['beep', 0.0, -1695.2904099572195, 0.0, 0.0, 0.0, 0.0, -269.40557591981604, 0.0]
['beep', 0.0, -1695.0445407682112, 0.0, 0.0, 0.0, 0.0, -268.5115061416037, 0.0]
['beep', 0.0, -1695.6703896129598, 0.0, 0.0, 0.0, 0.0, -268.9808927751652, 0.0]
['beep', 0.0, -1694.8657268125687, 0.0, 0.0, 0.0, 0.0, -270.14318348684117, 0.0]
['beep', 0.0, -1696.0503692687, 0.0, 0.0, 0.0, 0.0, -269.49498289763727, 0.0]
['beep', 0.0, -1695.2010029793983, 0.0, 0.0, 0.0, 0.0, -269.02559626407583, 0.0]
['beep', 0.0, -1694.6198576235602, 0.0, 0.0, 0.0, 0.0, -269.5396863865479, 0.0]
['beep', 0.0, -1695.983314035334, 0.0, 0.0, 0.0, 0.0, -268.71267184170154, 0.0]
['beep', 0.0, -1696.43034892444, 0.0, 0.0, 0.0, 0.0, -268.9808927751652, 0.0]
['beep', 0.0, -1695.2010029793983, 0.0, 0.0, 0.0, 0.0, -269.9420177867434, 0.0]
['beep', 0.0, -1696.0280175242447, 0.0, 0.0, 0.0, 0.0, -270.03142476456463, 0.0]
['beep', 0.0, -1695.8715553130576, 0.0, 0.0, 0.0, 0.0, -270.36670093139423, 0.0]
['beep', 0.0, -1696.3185902021637, 0.0, 0.0, 0.0, 0.0, -269.6737968532797, 0.0]
['beep', 0.0, -1696.1621279909764, 0.0, 0.0, 0.0, 0.0, -270.3219974424836, 0.0]
['beep', 0.0, -1694.7986715792026, 0.0, 0.0, 0.0, 0.0, -270.858439309411, 0.0]
['beep', 0.0, -1694.7986715792026, 0.0, 0.0, 0.0, 0.0, -270.8360875649557, 0.0]
['beep', 0.0, -1694.1057675010882, 0.0, 0.0, 0.0, 0.0, -270.9254945427769, 0.0]
['beep', 0.0, -1694.7316163458368, 0.0, 0.0, 0.0, 0.0, -269.2491137086289, 0.0]
['beep', 0.0, -1694.6198576235602, 0.0, 0.0, 0.0, 0.0, -268.31034044150596, 0.0]
['beep', 0.0, -1694.7316163458368, 0.0, 0.0, 0.0, 0.0, -269.182058475263, 0.0]
['beep', 0.0, -1695.1339477460324, 0.0, 0.0, 0.0, 0.0, -270.05377650901994, 0.0]
['beep', 0.0, -1694.6869128569263, 0.0, 0.0, 0.0, 0.0, -271.03725326505344, 0.0]
['beep', 0.0, -1693.9046018009903, 0.0, 0.0, 0.0, 0.0, -271.03725326505344, 0.0]
['beep', 0.0, -1694.4186919234626, 0.0, 0.0, 0.0, 0.0, -271.35017768742773, 0.0]
['beep', 0.0, -1695.0892442571217, 0.0, 0.0, 0.0, 0.0, -270.1878869757518, 0.0]
['beep', 0.0, -1694.95513379039, 0.0, 0.0, 0.0, 0.0, -269.42792766427135, 0.0]
['beep', 0.0, -1695.3798169350407, 0.0, 0.0, 0.0, 0.0, -270.03142476456463, 0.0]
['beep', 0.0, -1695.2680582127641, 0.0, 0.0, 0.0, 0.0, -270.9031427983216, 0.0]
['beep', 0.0, -1693.2340494673313, 0.0, 0.0, 0.0, 0.0, -270.09847999793055, 0.0]
['beep', 0.0, -1693.8598983120798, 0.0, 0.0, 0.0, 0.0, -270.9478462872322, 0.0]
['beep', 0.0, -1693.725787845348, 0.0, 0.0, 0.0, 0.0, -271.46193640970426, 0.0]
['beep', 0.0, -1693.4128634229737, 0.0, 0.0, 0.0, 0.0, -271.3054741985171, 0.0]
['beep', 0.0, -1693.9716570343564, 0.0, 0.0, 0.0, 0.0, -269.80790732001157, 0.0]
['beep', 0.0, -1694.6198576235602, 0.0, 0.0, 0.0, 0.0, -270.3443491869389, 0.0]
['beep', 0.0, -1694.7092646013814, 0.0, 0.0, 0.0, 0.0, -271.14901198732997, 0.0]
['beep', 0.0, -1693.14464248951, 0.0, 0.0, 0.0, 0.0, -272.1771922322741, 0.0]
['beep', 0.0, -1692.0941105001107, 0.0, 0.0, 0.0, 0.0, -272.3113026990059, 0.0]
['beep', 0.0, -1692.988180278323, 0.0, 0.0, 0.0, 0.0, -271.5960468764361, 0.0]
['beep', 0.0, -1693.435215167429, 0.0, 0.0, 0.0, 0.0, -269.15970673080767, 0.0]
['beep', 0.0, -1693.3905116785184, 0.0, 0.0, 0.0, 0.0, -269.09265149744175, 0.0]
['beep', 0.0, -1691.982351777834, 0.0, 0.0, 0.0, 0.0, -269.80790732001157, 0.0]
['beep', 0.0, -1693.0999390005993, 0.0, 0.0, 0.0, 0.0, -269.80790732001157, 0.0]
['beep', 0.0, -1693.0552355116888, 0.0, 0.0, 0.0, 0.0, -269.04794800853114, 0.0]
['beep', 0.0, -1692.8093663226805, 0.0, 0.0, 0.0, 0.0, -268.57856137496964, 0.0]
['beep', 0.0, -1691.5129651442726, 0.0, 0.0, 0.0, 0.0, -268.3773956748719, 0.0]
['beep', 0.0, -1691.9376482889234, 0.0, 0.0, 0.0, 0.0, -269.6737968532797, 0.0]
['beep', 0.0, -1692.630552367038, 0.0, 0.0, 0.0, 0.0, -269.2044102197183, 0.0]
['beep', 0.0, -1692.2282209668424, 0.0, 0.0, 0.0, 0.0, -269.38322417536074, 0.0]
['beep', 0.0, -1693.0775872561442, 0.0, 0.0, 0.0, 0.0, -270.2549422091177, 0.0]
['beep', 0.0, -1692.339979689119, 0.0, 0.0, 0.0, 0.0, -270.5455148870367, 0.0]
['beep', 0.0, -1690.887116299524, 0.0, 0.0, 0.0, 0.0, -270.3219974424836, 0.0]
['beep', 0.0, -1691.6247238665492, 0.0, 0.0, 0.0, 0.0, -270.03142476456463, 0.0]
['beep', 0.0, -1692.3176279446636, 0.0, 0.0, 0.0, 0.0, -271.39488117633834, 0.0]
['beep', 0.0, -1692.183517477932, 0.0, 0.0, 0.0, 0.0, -271.73015734316795, 0.0]
['beep', 0.0, -1692.2282209668424, 0.0, 0.0, 0.0, 0.0, -271.2607707096065, 0.0]
['beep', 0.0, -1691.6470756110043, 0.0, 0.0, 0.0, 0.0, -271.03725326505344, 0.0]
['beep', 0.0, -1691.758834333281, 0.0, 0.0, 0.0, 0.0, -270.38905267584954, 0.0]
['beep', 0.0, -1691.6470756110043, 0.0, 0.0, 0.0, 0.0, -270.9925497761428, 0.0]
['beep', 0.0, -1691.1329854885323, 0.0, 0.0, 0.0, 0.0, -270.5902183759473, 0.0]
['beep', 0.0, -1692.0047035222894, 0.0, 0.0, 0.0, 0.0, -270.2549422091177, 0.0]
['beep', 0.0, -1692.2952762002083, 0.0, 0.0, 0.0, 0.0, -272.6689306102909, 0.0]
['beep', 0.0, -1690.9988750218006, 0.0, 0.0, 0.0, 0.0, -272.89244805484395, 0.0]
['beep', 0.0, -1691.4682616553619, 0.0, 0.0, 0.0, 0.0, -273.1383172438523, 0.0]
['beep', 0.0, -1691.6023721220938, 0.0, 0.0, 0.0, 0.0, -273.4512416662266, 0.0]
['beep', 0.0, -1691.4459099109067, 0.0, 0.0, 0.0, 0.0, -271.2160672206959, 0.0]
['beep', 0.0, -1692.183517477932, 0.0, 0.0, 0.0, 0.0, -271.79721257653387, 0.0]
['beep', 0.0, -1692.183517477932, 0.0, 0.0, 0.0, 0.0, -271.08195675396405, 0.0]
['beep', 0.0, -1693.0999390005993, 0.0, 0.0, 0.0, 0.0, -272.40070967682715, 0.0]
['beep', 0.0, -1693.1222907450547, 0.0, 0.0, 0.0, 0.0, -272.1995439767294, 0.0]
['beep', 0.0, -1691.557668633183, 0.0, 0.0, 0.0, 0.0, -273.49594515513724, 0.0]
['beep', 0.0, -1692.0270552667446, 0.0, 0.0, 0.0, 0.0, -273.92062829978806, 0.0]
['beep', 0.0, -1692.339979689119, 0.0, 0.0, 0.0, 0.0, -272.4901166546484, 0.0]
['beep', 0.0, -1691.557668633183, 0.0, 0.0, 0.0, 0.0, -271.953674787721, 0.0]
['beep', 0.0, -1691.3788546775406, 0.0, 0.0, 0.0, 0.0, -272.7806893325674, 0.0]
['beep', 0.0, -1691.6247238665492, 0.0, 0.0, 0.0, 0.0, -274.6582358668132, 0.0]
['beep', 0.0, -1692.205869222387, 0.0, 0.0, 0.0, 0.0, -273.85357306642214, 0.0]
['beep', 0.0, -1692.339979689119, 0.0, 0.0, 0.0, 0.0, -273.697110855235, 0.0]
['beep', 0.0, -1692.4517384113956, 0.0, 0.0, 0.0, 0.0, -274.6358841223579, 0.0]
['beep', 0.0, -1692.8317180671356, 0.0, 0.0, 0.0, 0.0, -275.1052707559193, 0.0]
['beep', 0.0, -1693.1669942339654, 0.0, 0.0, 0.0, 0.0, -274.3900149333495, 0.0]
['beep', 0.0, -1691.9600000333787, 0.0, 0.0, 0.0, 0.0, -274.0100352776093, 0.0]
['beep', 0.0, -1690.4177296659625, 0.0, 0.0, 0.0, 0.0, -273.25007596612886, 0.0]
['beep', 0.0, -1688.4954796428062, 0.0, 0.0, 0.0, 0.0, -272.6018753769249, 0.0]
['beep', 0.0, -1688.3613691760743, 0.0, 0.0, 0.0, 0.0, -272.7806893325674, 0.0]
['beep', 0.0, -1688.4284244094401, 0.0, 0.0, 0.0, 0.0, -274.0547387665199, 0.0]
['beep', 0.0, -1686.305008686186, 0.0, 0.0, 0.0, 0.0, -273.20537247721825, 0.0]
['beep', 0.0, -1687.310837186675, 0.0, 0.0, 0.0, 0.0, -270.6125701204026, 0.0]
['beep', 0.0, -1689.9930465213117, 0.0, 0.0, 0.0, 0.0, -269.3161689419948, 0.0]
['beep', 0.0, -1692.988180278323, 0.0, 0.0, 0.0, 0.0, -270.6349218648579, 0.0]
['beep', 0.0, -1693.0552355116888, 0.0, 0.0, 0.0, 0.0, -271.77486083207856, 0.0]
['beep', 0.0, -1692.1611657334765, 0.0, 0.0, 0.0, 0.0, -273.16066898830763, 0.0]
['beep', 0.0, -1692.7423110893144, 0.0, 0.0, 0.0, 0.0, -272.24424746564, 0.0]
['beep', 0.0, -1692.0941105001107, 0.0, 0.0, 0.0, 0.0, -272.87009631038865, 0.0]
['beep', 0.0, -1691.6247238665492, 0.0, 0.0, 0.0, 0.0, -273.6300556218691, 0.0]
['beep', 0.0, -1691.2670959552643, 0.0, 0.0, 0.0, 0.0, -273.60770387741377, 0.0]
['beep', 0.0, -1691.3341511886301, 0.0, 0.0, 0.0, 0.0, -271.8419160654445, 0.0]
['beep', 0.0, -1691.982351777834, 0.0, 0.0, 0.0, 0.0, -272.82539282147803, 0.0]
['beep', 0.0, -1691.4906133998172, 0.0, 0.0, 0.0, 0.0, -274.25590446661766, 0.0]
['beep', 0.0, -1691.4906133998172, 0.0, 0.0, 0.0, 0.0, -273.697110855235, 0.0]
['beep', 0.0, -1691.4906133998172, 0.0, 0.0, 0.0, 0.0, -272.6242271213802, 0.0]
['beep', 0.0, -1690.529488388239, 0.0, 0.0, 0.0, 0.0, -275.0605672670087, 0.0]
['beep', 0.0, -1692.1611657334765, 0.0, 0.0, 0.0, 0.0, -273.7418143441456, 0.0]
['beep', 0.0, -1691.3341511886301, 0.0, 0.0, 0.0, 0.0, -273.2947794550395, 0.0]
['beep', 0.0, -1690.6635988549708, 0.0, 0.0, 0.0, 0.0, -271.41723292079365, 0.0]
['beep', 0.0, -1689.6577703544822, 0.0, 0.0, 0.0, 0.0, -272.2218957211847, 0.0]
['beep', 0.0, -1690.4847848993284, 0.0, 0.0, 0.0, 0.0, -272.4901166546484, 0.0]
['beep', 0.0, -1691.8482413111021, 0.0, 0.0, 0.0, 0.0, -271.73015734316795, 0.0]
['beep', 0.0, -1690.3283226881413, 0.0, 0.0, 0.0, 0.0, -272.7359858436568, 0.0]
['beep', 0.0, -1689.7024738433927, 0.0, 0.0, 0.0, 0.0, -273.0489102660311, 0.0]
['beep', 0.0, -1689.9930465213117, 0.0, 0.0, 0.0, 0.0, -272.7359858436568, 0.0]
['beep', 0.0, -1690.4847848993284, 0.0, 0.0, 0.0, 0.0, -271.5066398986149, 0.0]
['beep', 0.0, -1690.1942122214095, 0.0, 0.0, 0.0, 0.0, -270.12083174238586, 0.0]
['beep', 0.0, -1690.2612674547754, 0.0, 0.0, 0.0, 0.0, -271.35017768742773, 0.0]
['beep', 0.0, -1689.8365843101246, 0.0, 0.0, 0.0, 0.0, -272.04308176554224, 0.0]
['beep', 0.0, -1691.2223924663535, 0.0, 0.0, 0.0, 0.0, -271.663102109802, 0.0]
['beep', 0.0, -1691.2223924663535, 0.0, 0.0, 0.0, 0.0, -272.40070967682715, 0.0]
['beep', 0.0, -1690.4847848993284, 0.0, 0.0, 0.0, 0.0, -272.11013699890816, 0.0]
['beep', 0.0, -1691.1329854885323, 0.0, 0.0, 0.0, 0.0, -271.70780559871264, 0.0]
['beep', 0.0, -1691.401206421996, 0.0, 0.0, 0.0, 0.0, -270.858439309411, 0.0]
['beep', 0.0, -1691.2894476997194, 0.0, 0.0, 0.0, 0.0, -272.4901166546484, 0.0]
['beep', 0.0, -1692.697607600404, 0.0, 0.0, 0.0, 0.0, -273.6747591107797, 0.0]
['beep', 0.0, -1693.792843078714, 0.0, 0.0, 0.0, 0.0, -273.4512416662266, 0.0]
['beep', 0.0, -1692.205869222387, 0.0, 0.0, 0.0, 0.0, -272.1995439767294, 0.0]
['beep', 0.0, -1693.0775872561442, 0.0, 0.0, 0.0, 0.0, -271.1713637317853, 0.0]
['beep', 0.0, -1692.697607600404, 0.0, 0.0, 0.0, 0.0, -271.953674787721, 0.0]
['beep', 0.0, -1692.0717587556553, 0.0, 0.0, 0.0, 0.0, -272.9595032882099, 0.0]
['beep', 0.0, -1691.401206421996, 0.0, 0.0, 0.0, 0.0, -271.70780559871264, 0.0]
['beep', 0.0, -1692.2505727112978, 0.0, 0.0, 0.0, 0.0, -271.73015734316795, 0.0]
['beep', 0.0, -1691.758834333281, 0.0, 0.0, 0.0, 0.0, -271.9983782766316, 0.0]
['beep', 0.0, -1690.7083023438815, 0.0, 0.0, 0.0, 0.0, -272.1548404878188, 0.0]
['beep', 0.0, -1689.8142325656693, 0.0, 0.0, 0.0, 0.0, -273.406538177316, 0.0]
['beep', 0.0, -1690.3953779215071, 0.0, 0.0, 0.0, 0.0, -273.1383172438523, 0.0]
['beep', 0.0, -1691.6694273554597, 0.0, 0.0, 0.0, 0.0, -272.9595032882099, 0.0]
['beep', 0.0, -1691.3341511886301, 0.0, 0.0, 0.0, 0.0, -271.9089712988104, 0.0]
['beep', 0.0, -1690.1942122214095, 0.0, 0.0, 0.0, 0.0, -272.37835793237184, 0.0]
['beep', 0.0, -1690.8200610661581, 0.0, 0.0, 0.0, 0.0, -271.37252943188304, 0.0]
['beep', 0.0, -1691.8929448000129, 0.0, 0.0, 0.0, 0.0, -271.05960500950874, 0.0]
['beep', 0.0, -1691.2223924663535, 0.0, 0.0, 0.0, 0.0, -271.3278259429724, 0.0]
['beep', 0.0, -1691.0882819996218, 0.0, 0.0, 0.0, 0.0, -271.03725326505344, 0.0]
['beep', 0.0, -1691.2000407218982, 0.0, 0.0, 0.0, 0.0, -270.72432884267914, 0.0]
['beep', 0.0, -1691.3565029330855, 0.0, 0.0, 0.0, 0.0, -272.93715154375457, 0.0]
['beep', 0.0, -1691.3788546775406, 0.0, 0.0, 0.0, 0.0, -273.3841864328607, 0.0]
['beep', 0.0, -1691.8705930555575, 0.0, 0.0, 0.0, 0.0, -273.9653317886987, 0.0]
['beep', 0.0, -1691.7364825888258, 0.0, 0.0, 0.0, 0.0, -273.4288899217713, 0.0]
['beep', 0.0, -1692.183517477932, 0.0, 0.0, 0.0, 0.0, -272.44541316573776, 0.0]
['beep', 0.0, -1690.9988750218006, 0.0, 0.0, 0.0, 0.0, -272.93715154375457, 0.0]
['beep', 0.0, -1692.1164622445658, 0.0, 0.0, 0.0, 0.0, -272.2218957211847, 0.0]
['beep', 0.0, -1691.6694273554597, 0.0, 0.0, 0.0, 0.0, -273.0265585215758, 0.0]
['beep', 0.0, -1691.0659302551664, 0.0, 0.0, 0.0, 0.0, -272.2665992100953, 0.0]
['beep', 0.0, -1691.244744210809, 0.0, 0.0, 0.0, 0.0, -273.60770387741377, 0.0]
['beep', 0.0, -1690.9988750218006, 0.0, 0.0, 0.0, 0.0, -275.57465738948076, 0.0]
['beep', 0.0, -1691.2894476997194, 0.0, 0.0, 0.0, 0.0, -273.6300556218691, 0.0]
['beep', 0.0, -1690.373026177052, 0.0, 0.0, 0.0, 0.0, -273.0042067771205, 0.0]
['beep', 0.0, -1692.6752558559485, 0.0, 0.0, 0.0, 0.0, -273.92062829978806, 0.0]
['beep', 0.0, -1693.010532022778, 0.0, 0.0, 0.0, 0.0, -273.3394829439501, 0.0]
['beep', 0.0, -1692.183517477932, 0.0, 0.0, 0.0, 0.0, -273.7641660886009, 0.0]
['beep', 0.0, -1692.3846831780295, 0.0, 0.0, 0.0, 0.0, -274.3900149333495, 0.0]
['beep', 0.0, -1692.5411453892168, 0.0, 0.0, 0.0, 0.0, -274.16649748879644, 0.0]
['beep', 0.0, -1693.8598983120798, 0.0, 0.0, 0.0, 0.0, -274.14414574434113, 0.0]
['beep', 0.0, -1694.664561112471, 0.0, 0.0, 0.0, 0.0, -275.57465738948076, 0.0]
['beep', 0.0, -1693.0775872561442, 0.0, 0.0, 0.0, 0.0, -274.4570701667154, 0.0]
['beep', 0.0, -1693.211697722876, 0.0, 0.0, 0.0, 0.0, -274.6805876112685, 0.0]
['beep', 0.0, -1693.2787529562418, 0.0, 0.0, 0.0, 0.0, -273.27242771058417, 0.0]
['beep', 0.0, -1694.4186919234626, 0.0, 0.0, 0.0, 0.0, -271.9089712988104, 0.0]
['beep', 0.0, -1693.725787845348, 0.0, 0.0, 0.0, 0.0, -273.0489102660311, 0.0]
['beep', 0.0, -1692.8317180671356, 0.0, 0.0, 0.0, 0.0, -273.6747591107797, 0.0]
['beep', 0.0, -1693.0999390005993, 0.0, 0.0, 0.0, 0.0, -273.85357306642214, 0.0]
['beep', 0.0, -1692.339979689119, 0.0, 0.0, 0.0, 0.0, -274.23355272216236, 0.0]
['beep', 0.0, -1692.4740901558507, 0.0, 0.0, 0.0, 0.0, -275.59700913393607, 0.0]
['beep', 0.0, -1692.3846831780295, 0.0, 0.0, 0.0, 0.0, -275.3958434338383, 0.0]
['beep', 0.0, -1691.5800203776384, 0.0, 0.0, 0.0, 0.0, -275.50760215611484, 0.0]
['beep', 0.0, -1691.9600000333787, 0.0, 0.0, 0.0, 0.0, -274.4570701667154, 0.0]
['beep', 0.0, -1692.3623314335744, 0.0, 0.0, 0.0, 0.0, -273.83122132196684, 0.0]
['beep', 0.0, -1692.7423110893144, 0.0, 0.0, 0.0, 0.0, -273.51829689959254, 0.0]
['beep', 0.0, -1692.7870145782251, 0.0, 0.0, 0.0, 0.0, -273.51829689959254, 0.0]
['beep', 0.0, -1692.2505727112978, 0.0, 0.0, 0.0, 0.0, -275.26173296710647, 0.0]
['beep', 0.0, -1692.854069811591, 0.0, 0.0, 0.0, 0.0, -274.90410505582156, 0.0]
['beep', 0.0, -1692.1164622445658, 0.0, 0.0, 0.0, 0.0, -273.51829689959254, 0.0]
['beep', 0.0, -1691.401206421996, 0.0, 0.0, 0.0, 0.0, -273.115965499397, 0.0]
['beep', 0.0, -1692.7423110893144, 0.0, 0.0, 0.0, 0.0, -273.406538177316, 0.0]
['beep', 0.0, -1693.1669942339654, 0.0, 0.0, 0.0, 0.0, -273.60770387741377, 0.0]
['beep', 0.0, -1692.2952762002083, 0.0, 0.0, 0.0, 0.0, -272.44541316573776, 0.0]
['beep', 0.0, -1691.9600000333787, 0.0, 0.0, 0.0, 0.0, -272.84774456593334, 0.0]
['beep', 0.0, -1691.0659302551664, 0.0, 0.0, 0.0, 0.0, -273.51829689959254, 0.0]
['beep', 0.0, -1691.8482413111021, 0.0, 0.0, 0.0, 0.0, -272.2665992100953, 0.0]
['beep', 0.0, -1691.3788546775406, 0.0, 0.0, 0.0, 0.0, -271.953674787721, 0.0]
['beep', 0.0, -1691.177688977443, 0.0, 0.0, 0.0, 0.0, -273.0042067771205, 0.0]
['beep', 0.0, -1691.8929448000129, 0.0, 0.0, 0.0, 0.0, -272.9595032882099, 0.0]
['beep', 0.0, -1692.6752558559485, 0.0, 0.0, 0.0, 0.0, -273.697110855235, 0.0]
['beep', 0.0, -1691.691779099915, 0.0, 0.0, 0.0, 0.0, -274.4570701667154, 0.0]
['beep', 0.0, -1691.7141308443704, 0.0, 0.0, 0.0, 0.0, -274.83704982245564, 0.0]
['beep', 0.0, -1691.7811860777363, 0.0, 0.0, 0.0, 0.0, -273.6747591107797, 0.0]
['beep', 0.0, -1692.496441900306, 0.0, 0.0, 0.0, 0.0, -273.2947794550395, 0.0]
['beep', 0.0, -1693.0775872561442, 0.0, 0.0, 0.0, 0.0, -272.44541316573776, 0.0]
['beep', 0.0, -1692.339979689119, 0.0, 0.0, 0.0, 0.0, -271.39488117633834, 0.0]
['beep', 0.0, -1692.4293866669402, 0.0, 0.0, 0.0, 0.0, -272.84774456593334, 0.0]
['beep', 0.0, -1692.563497133672, 0.0, 0.0, 0.0, 0.0, -273.25007596612886, 0.0]
['beep', 0.0, -1692.4070349224849, 0.0, 0.0, 0.0, 0.0, -272.9818550326652, 0.0]
['beep', 0.0, -1693.949305289901, 0.0, 0.0, 0.0, 0.0, -274.0323870220646, 0.0]
['beep', 0.0, -1693.14464248951, 0.0, 0.0, 0.0, 0.0, -275.0605672670087, 0.0]
['beep', 0.0, -1692.630552367038, 0.0, 0.0, 0.0, 0.0, -274.792346333545, 0.0]
['beep', 0.0, -1692.4070349224849, 0.0, 0.0, 0.0, 0.0, -275.3958434338383, 0.0]
['beep', 0.0, -1693.2340494673313, 0.0, 0.0, 0.0, 0.0, -274.9711602891875, 0.0]
['beep', 0.0, -1693.9046018009903, 0.0, 0.0, 0.0, 0.0, -272.87009631038865, 0.0]
['beep', 0.0, -1692.988180278323, 0.0, 0.0, 0.0, 0.0, -273.16066898830763, 0.0]
['beep', 0.0, -1691.7141308443704, 0.0, 0.0, 0.0, 0.0, -274.3229596999836, 0.0]
['beep', 0.0, -1691.691779099915, 0.0, 0.0, 0.0, 0.0, -274.0547387665199, 0.0]
['beep', 0.0, -1692.3623314335744, 0.0, 0.0, 0.0, 0.0, -275.0605672670087, 0.0]
['beep', 0.0, -1692.496441900306, 0.0, 0.0, 0.0, 0.0, -273.987683533154, 0.0]
['beep', 0.0, -1692.183517477932, 0.0, 0.0, 0.0, 0.0, -273.51829689959254, 0.0]
['beep', 0.0, -1691.7141308443704, 0.0, 0.0, 0.0, 0.0, -273.7418143441456, 0.0]
['beep', 0.0, -1691.4906133998172, 0.0, 0.0, 0.0, 0.0, -273.20537247721825, 0.0]
['beep', 0.0, -1692.3846831780295, 0.0, 0.0, 0.0, 0.0, -272.9595032882099, 0.0]
['beep', 0.0, -1692.7423110893144, 0.0, 0.0, 0.0, 0.0, -273.7865178330562, 0.0]
['beep', 0.0, -1691.177688977443, 0.0, 0.0, 0.0, 0.0, -272.7359858436568, 0.0]
['beep', 0.0, -1690.1048052435883, 0.0, 0.0, 0.0, 0.0, -272.2665992100953, 0.0]
['beep', 0.0, -1690.4847848993284, 0.0, 0.0, 0.0, 0.0, -272.3113026990059, 0.0]
['beep', 0.0, -1690.9541715328899, 0.0, 0.0, 0.0, 0.0, -272.37835793237184, 0.0]
['beep', 0.0, -1691.2000407218982, 0.0, 0.0, 0.0, 0.0, -272.6689306102909, 0.0]
['beep', 0.0, -1690.7083023438815, 0.0, 0.0, 0.0, 0.0, -273.7865178330562, 0.0]
['beep', 0.0, -1690.6188953660603, 0.0, 0.0, 0.0, 0.0, -274.56882888899196, 0.0]
['beep', 0.0, -1690.4400814104179, 0.0, 0.0, 0.0, 0.0, -273.0042067771205, 0.0]
['beep', 0.0, -1690.1271569880435, 0.0, 0.0, 0.0, 0.0, -272.91479979929926, 0.0]
['beep', 0.0, -1689.7695290767585, 0.0, 0.0, 0.0, 0.0, -273.25007596612886, 0.0]
['beep', 0.0, -1688.76370057627, 0.0, 0.0, 0.0, 0.0, -271.953674787721, 0.0]
['beep', 0.0, -1689.1213284875548, 0.0, 0.0, 0.0, 0.0, -272.1548404878188, 0.0]
['beep', 0.0, -1691.0659302551664, 0.0, 0.0, 0.0, 0.0, -271.05960500950874, 0.0]
['beep', 0.0, -1691.177688977443, 0.0, 0.0, 0.0, 0.0, -272.4901166546484, 0.0]
['beep', 0.0, -1689.7471773323034, 0.0, 0.0, 0.0, 0.0, -272.82539282147803, 0.0]
['beep', 0.0, -1690.4400814104179, 0.0, 0.0, 0.0, 0.0, -273.51829689959254, 0.0]
['beep', 0.0, -1689.434252909929, 0.0, 0.0, 0.0, 0.0, -273.9653317886987, 0.0]
['beep', 0.0, -1689.4789563988397, 0.0, 0.0, 0.0, 0.0, -273.3171311994948, 0.0]
['beep', 0.0, -1690.4400814104179, 0.0, 0.0, 0.0, 0.0, -273.47359341068193, 0.0]
['beep', 0.0, -1691.0659302551664, 0.0, 0.0, 0.0, 0.0, -273.406538177316, 0.0]
['beep', 0.0, -1691.1329854885323, 0.0, 0.0, 0.0, 0.0, -274.3676631888942, 0.0]
['beep', 0.0, -1690.2836191992308, 0.0, 0.0, 0.0, 0.0, -271.73015734316795, 0.0]
['beep', 0.0, -1689.3671976765631, 0.0, 0.0, 0.0, 0.0, -272.1548404878188, 0.0]
['beep', 0.0, -1690.1718604769542, 0.0, 0.0, 0.0, 0.0, -273.7418143441456, 0.0]
['beep', 0.0, -1690.23891571032, 0.0, 0.0, 0.0, 0.0, -274.16649748879644, 0.0]
['beep', 0.0, -1690.5518401326945, 0.0, 0.0, 0.0, 0.0, -273.60770387741377, 0.0]
['beep', 0.0, -1690.5071366437837, 0.0, 0.0, 0.0, 0.0, -273.60770387741377, 0.0]
['beep', 0.0, -1689.8812877990351, 0.0, 0.0, 0.0, 0.0, -274.18884923325174, 0.0]
['beep', 0.0, -1690.8200610661581, 0.0, 0.0, 0.0, 0.0, -274.3229596999836, 0.0]
['beep', 0.0, -1690.5071366437837, 0.0, 0.0, 0.0, 0.0, -274.792346333545, 0.0]
['beep', 0.0, -1690.4847848993284, 0.0, 0.0, 0.0, 0.0, -274.6358841223579, 0.0]
['beep', 0.0, -1689.9259912879459, 0.0, 0.0, 0.0, 0.0, -273.16066898830763, 0.0]
['beep', 0.0, -1689.2554389542865, 0.0, 0.0, 0.0, 0.0, -273.0265585215758, 0.0]
['beep', 0.0, -1689.5460116322056, 0.0, 0.0, 0.0, 0.0, -273.2947794550395, 0.0]
['beep', 0.0, -1690.2165639658647, 0.0, 0.0, 0.0, 0.0, -275.21702947819585, 0.0]
['beep', 0.0, -1690.6412471105157, 0.0, 0.0, 0.0, 0.0, -275.0605672670087, 0.0]
['beep', 0.0, -1690.5071366437837, 0.0, 0.0, 0.0, 0.0, -275.6417126228467, 0.0]
['beep', 0.0, -1689.4789563988397, 0.0, 0.0, 0.0, 0.0, -275.50760215611484, 0.0]
['beep', 0.0, -1690.015398265767, 0.0, 0.0, 0.0, 0.0, -276.0216922785869, 0.0]
['beep', 0.0, -1690.4177296659625, 0.0, 0.0, 0.0, 0.0, -276.2899132120506, 0.0]
['beep', 0.0, -1689.1883837209207, 0.0, 0.0, 0.0, 0.0, -273.51829689959254, 0.0]
['beep', 0.0, -1686.5061743862839, 0.0, 0.0, 0.0, 0.0, -272.93715154375457, 0.0]
['beep', 0.0, -1686.372063919552, 0.0, 0.0, 0.0, 0.0, -272.06543350999755, 0.0]
['beep', 0.0, -1686.528526130739, 0.0, 0.0, 0.0, 0.0, -273.115965499397, 0.0]
['beep', 0.0, -1686.662636597471, 0.0, 0.0, 0.0, 0.0, -272.93715154375457, 0.0]
['beep', 0.0, -1688.3166656871638, 0.0, 0.0, 0.0, 0.0, -272.06543350999755, 0.0]
['beep', 0.0, -1690.3283226881413, 0.0, 0.0, 0.0, 0.0, -272.2218957211847, 0.0]
['beep', 0.0, -1691.2223924663535, 0.0, 0.0, 0.0, 0.0, -273.85357306642214, 0.0]
['beep', 0.0, -1692.496441900306, 0.0, 0.0, 0.0, 0.0, -274.6805876112685, 0.0]
['beep', 0.0, -1692.9658285338676, 0.0, 0.0, 0.0, 0.0, -276.0216922785869, 0.0]
['beep', 0.0, -1691.691779099915, 0.0, 0.0, 0.0, 0.0, -276.58048588996957, 0.0]
['beep', 0.0, -1691.825889566647, 0.0, 0.0, 0.0, 0.0, -274.27825621107297, 0.0]
['beep', 0.0, -1691.8705930555575, 0.0, 0.0, 0.0, 0.0, -275.3511399449277, 0.0]
['beep', 0.0, -1690.7753575772474, 0.0, 0.0, 0.0, 0.0, -275.17232598928524, 0.0]
['beep', 0.0, -1691.4459099109067, 0.0, 0.0, 0.0, 0.0, -276.3122649565059, 0.0]
['beep', 0.0, -1690.8424128106133, 0.0, 0.0, 0.0, 0.0, -275.7087678562126, 0.0]
['beep', 0.0, -1691.0659302551664, 0.0, 0.0, 0.0, 0.0, -273.7418143441456, 0.0]
['beep', 0.0, -1690.887116299524, 0.0, 0.0, 0.0, 0.0, -275.50760215611484, 0.0]
['beep', 0.0, -1691.2894476997194, 0.0, 0.0, 0.0, 0.0, -275.46289866720423, 0.0]
['beep', 0.0, -1691.8929448000129, 0.0, 0.0, 0.0, 0.0, -274.56882888899196, 0.0]
['beep', 0.0, -1690.596543621605, 0.0, 0.0, 0.0, 0.0, -273.987683533154, 0.0]
['beep', 0.0, -1690.6635988549708, 0.0, 0.0, 0.0, 0.0, -274.92645680027687, 0.0]
['beep', 0.0, -1691.7364825888258, 0.0, 0.0, 0.0, 0.0, -275.0605672670087, 0.0]
['beep', 0.0, -1690.373026177052, 0.0, 0.0, 0.0, 0.0, -276.1110992564081, 0.0]
['beep', 0.0, -1690.753005832792, 0.0, 0.0, 0.0, 0.0, -275.88758181185506, 0.0]
['beep', 0.0, -1690.7083023438815, 0.0, 0.0, 0.0, 0.0, -274.9711602891875, 0.0]
['beep', 0.0, -1690.1942122214095, 0.0, 0.0, 0.0, 0.0, -275.90993355631036, 0.0]
['beep', 0.0, -1690.6188953660603, 0.0, 0.0, 0.0, 0.0, -274.7476428446344, 0.0]
['beep', 0.0, -1692.0494070112, 0.0, 0.0, 0.0, 0.0, -274.1217939998858, 0.0]
['beep', 0.0, -1692.2505727112978, 0.0, 0.0, 0.0, 0.0, -275.86523006739975, 0.0]
['beep', 0.0, -1691.6247238665492, 0.0, 0.0, 0.0, 0.0, -274.92645680027687, 0.0]
['beep', 0.0, -1691.3341511886301, 0.0, 0.0, 0.0, 0.0, -274.3006079555283, 0.0]
['beep', 0.0, -1690.730654088337, 0.0, 0.0, 0.0, 0.0, -275.1052707559193, 0.0]
['beep', 0.0, -1691.1553372329877, 0.0, 0.0, 0.0, 0.0, -275.082919011464, 0.0]
['beep', 0.0, -1691.6247238665492, 0.0, 0.0, 0.0, 0.0, -275.0382155225534, 0.0]
['beep', 0.0, -1691.8705930555575, 0.0, 0.0, 0.0, 0.0, -275.23938122265116, 0.0]
['beep', 0.0, -1691.043578510711, 0.0, 0.0, 0.0, 0.0, -275.3064364560171, 0.0]
['beep', 0.0, -1690.887116299524, 0.0, 0.0, 0.0, 0.0, -274.88175331136625, 0.0]
['beep', 0.0, -1691.177688977443, 0.0, 0.0, 0.0, 0.0, -274.9488085447322, 0.0]
['beep', 0.0, -1690.7083023438815, 0.0, 0.0, 0.0, 0.0, -274.27825621107297, 0.0]
['beep', 0.0, -1689.9930465213117, 0.0, 0.0, 0.0, 0.0, -275.79817483403383, 0.0]
['beep', 0.0, -1690.5518401326945, 0.0, 0.0, 0.0, 0.0, -275.6864161117573, 0.0]
['beep', 0.0, -1691.2223924663535, 0.0, 0.0, 0.0, 0.0, -274.0770905109752, 0.0]
['beep', 0.0, -1691.2894476997194, 0.0, 0.0, 0.0, 0.0, -273.85357306642214, 0.0]
['beep', 0.0, -1690.9094680439794, 0.0, 0.0, 0.0, 0.0, -275.52995390057015, 0.0]
['beep', 0.0, -1691.4459099109067, 0.0, 0.0, 0.0, 0.0, -276.0440440230422, 0.0]
['beep', 0.0, -1690.3283226881413, 0.0, 0.0, 0.0, 0.0, -276.7816515900674, 0.0]
['beep', 0.0, -1691.535316888728, 0.0, 0.0, 0.0, 0.0, -276.24520972313996, 0.0]
['beep', 0.0, -1693.0552355116888, 0.0, 0.0, 0.0, 0.0, -276.0440440230422, 0.0]
['beep', 0.0, -1691.4682616553619, 0.0, 0.0, 0.0, 0.0, -276.0887475119528, 0.0]
['beep', 0.0, -1690.305970943686, 0.0, 0.0, 0.0, 0.0, -276.58048588996957, 0.0]
['beep', 0.0, -1689.9259912879459, 0.0, 0.0, 0.0, 0.0, -277.36279694590536, 0.0]
['beep', 0.0, -1689.5236598877502, 0.0, 0.0, 0.0, 0.0, -275.7311196006679, 0.0]
['beep', 0.0, -1690.3283226881413, 0.0, 0.0, 0.0, 0.0, -274.9711602891875, 0.0]
['beep', 0.0, -1690.2612674547754, 0.0, 0.0, 0.0, 0.0, -275.9769887896763, 0.0]
['beep', 0.0, -1689.7471773323034, 0.0, 0.0, 0.0, 0.0, -276.17815448977404, 0.0]
['beep', 0.0, -1690.0377500102222, 0.0, 0.0, 0.0, 0.0, -275.3287882004724, 0.0]
['beep', 0.0, -1690.1495087324988, 0.0, 0.0, 0.0, 0.0, -276.6475411233355, 0.0]
['beep', 0.0, -1690.6635988549708, 0.0, 0.0, 0.0, 0.0, -276.53578240105895, 0.0]
['beep', 0.0, -1690.4847848993284, 0.0, 0.0, 0.0, 0.0, -276.55813414551426, 0.0]
['beep', 0.0, -1689.7695290767585, 0.0, 0.0, 0.0, 0.0, -276.9157620567992, 0.0]
['beep', 0.0, -1688.629590109538, 0.0, 0.0, 0.0, 0.0, -275.4405469227489, 0.0]
['beep', 0.0, -1689.0095697652782, 0.0, 0.0, 0.0, 0.0, -275.0158637780981, 0.0]
['beep', 0.0, -1689.0542732541887, 0.0, 0.0, 0.0, 0.0, -274.4570701667154, 0.0]
['beep', 0.0, -1687.981389520334, 0.0, 0.0, 0.0, 0.0, -274.16649748879644, 0.0]
['beep', 0.0, -1688.6519418539933, 0.0, 0.0, 0.0, 0.0, -275.664064367302, 0.0]
['beep', 0.0, -1688.920162787457, 0.0, 0.0, 0.0, 0.0, -275.954637045221, 0.0]
['beep', 0.0, -1689.7695290767585, 0.0, 0.0, 0.0, 0.0, -275.6864161117573, 0.0]
['beep', 0.0, -1689.7695290767585, 0.0, 0.0, 0.0, 0.0, -275.0158637780981, 0.0]
['beep', 0.0, -1689.9259912879459, 0.0, 0.0, 0.0, 0.0, -273.987683533154, 0.0]
['beep', 0.0, -1690.4400814104179, 0.0, 0.0, 0.0, 0.0, -275.1276225003746, 0.0]
['beep', 0.0, -1689.1660319764653, 0.0, 0.0, 0.0, 0.0, -275.4405469227489, 0.0]
['beep', 0.0, -1689.3001424431973, 0.0, 0.0, 0.0, 0.0, -276.13345100086343, 0.0]
['beep', 0.0, -1689.3224941876524, 0.0, 0.0, 0.0, 0.0, -276.53578240105895, 0.0]
['beep', 0.0, -1691.3341511886301, 0.0, 0.0, 0.0, 0.0, -276.3122649565059, 0.0]
['beep', 0.0, -1691.557668633183, 0.0, 0.0, 0.0, 0.0, -277.04987252353106, 0.0]
['beep', 0.0, -1690.5071366437837, 0.0, 0.0, 0.0, 0.0, -277.2510382236288, 0.0]
['beep', 0.0, -1689.724825587848, 0.0, 0.0, 0.0, 0.0, -277.0945760124417, 0.0]
['beep', 0.0, -1690.1048052435883, 0.0, 0.0, 0.0, 0.0, -276.58048588996957, 0.0]
['beep', 0.0, -1690.4400814104179, 0.0, 0.0, 0.0, 0.0, -275.52995390057015, 0.0]
['beep', 0.0, -1689.6801220989373, 0.0, 0.0, 0.0, 0.0, -275.46289866720423, 0.0]
['beep', 0.0, -1690.23891571032, 0.0, 0.0, 0.0, 0.0, -275.46289866720423, 0.0]
['beep', 0.0, -1690.2165639658647, 0.0, 0.0, 0.0, 0.0, -277.2510382236288, 0.0]
['beep', 0.0, -1690.4847848993284, 0.0, 0.0, 0.0, 0.0, -276.8710585678886, 0.0]
['beep', 0.0, -1691.1329854885323, 0.0, 0.0, 0.0, 0.0, -276.69224461224616, 0.0]
['beep', 0.0, -1690.3953779215071, 0.0, 0.0, 0.0, 0.0, -277.7651283461009, 0.0]
['beep', 0.0, -1689.8142325656693, 0.0, 0.0, 0.0, 0.0, -276.20050623422935, 0.0]
['beep', 0.0, -1689.7024738433927, 0.0, 0.0, 0.0, 0.0, -276.8710585678886, 0.0]
['beep', 0.0, -1689.590715121116, 0.0, 0.0, 0.0, 0.0, -276.17815448977404, 0.0]
['beep', 0.0, -1690.7753575772474, 0.0, 0.0, 0.0, 0.0, -273.94298004424337, 0.0]
['beep', 0.0, -1690.6188953660603, 0.0, 0.0, 0.0, 0.0, -274.83704982245564, 0.0]
['beep', 0.0, -1689.6130668655715, 0.0, 0.0, 0.0, 0.0, -274.6135323779026, 0.0]
['beep', 0.0, -1690.1048052435883, 0.0, 0.0, 0.0, 0.0, -275.17232598928524, 0.0]
['beep', 0.0, -1690.2612674547754, 0.0, 0.0, 0.0, 0.0, -275.4181951782936, 0.0]
['beep', 0.0, -1690.0377500102222, 0.0, 0.0, 0.0, 0.0, -275.86523006739975, 0.0]
['beep', 0.0, -1691.2894476997194, 0.0, 0.0, 0.0, 0.0, -274.6135323779026, 0.0]
['beep', 0.0, -1689.6354186100268, 0.0, 0.0, 0.0, 0.0, -275.59700913393607, 0.0]
['beep', 0.0, -1689.8142325656693, 0.0, 0.0, 0.0, 0.0, -277.04987252353106, 0.0]
['beep', 0.0, -1689.568363376661, 0.0, 0.0, 0.0, 0.0, -276.20050623422935, 0.0]
['beep', 0.0, -1689.1660319764653, 0.0, 0.0, 0.0, 0.0, -275.664064367302, 0.0]
['beep', 0.0, -1689.1213284875548, 0.0, 0.0, 0.0, 0.0, -275.86523006739975, 0.0]
['beep', 0.0, -1689.3895494210185, 0.0, 0.0, 0.0, 0.0, -276.20050623422935, 0.0]
['beep', 0.0, -1689.4789563988397, 0.0, 0.0, 0.0, 0.0, -275.0382155225534, 0.0]
['beep', 0.0, -1689.6130668655715, 0.0, 0.0, 0.0, 0.0, -274.59118063344727, 0.0]
['beep', 0.0, -1689.277790698742, 0.0, 0.0, 0.0, 0.0, -275.0605672670087, 0.0]
['beep', 0.0, -1689.210735465376, 0.0, 0.0, 0.0, 0.0, -276.46872716769303, 0.0]
['beep', 0.0, -1688.3613691760743, 0.0, 0.0, 0.0, 0.0, -274.83704982245564, 0.0]
['beep', 0.0, -1687.9590377758789, 0.0, 0.0, 0.0, 0.0, -274.3900149333495, 0.0]
['beep', 0.0, -1689.0095697652782, 0.0, 0.0, 0.0, 0.0, -274.6582358668132, 0.0]
['beep', 0.0, -1689.4789563988397, 0.0, 0.0, 0.0, 0.0, -274.54647714453665, 0.0]
['beep', 0.0, -1689.0989767430995, 0.0, 0.0, 0.0, 0.0, -273.94298004424337, 0.0]
['beep', 0.0, -1688.7189970873592, 0.0, 0.0, 0.0, 0.0, -273.87592481087745, 0.0]
['beep', 0.0, -1689.0319215097336, 0.0, 0.0, 0.0, 0.0, -274.16649748879644, 0.0]
['beep', 0.0, -1687.981389520334, 0.0, 0.0, 0.0, 0.0, -274.0100352776093, 0.0]
['beep', 0.0, -1688.2943139427084, 0.0, 0.0, 0.0, 0.0, -274.21120097770705, 0.0]
['beep', 0.0, -1688.5848866206275, 0.0, 0.0, 0.0, 0.0, -274.23355272216236, 0.0]
['beep', 0.0, -1688.0484447537, 0.0, 0.0, 0.0, 0.0, -274.6358841223579, 0.0]
['beep', 0.0, -1688.629590109538, 0.0, 0.0, 0.0, 0.0, -274.3229596999836, 0.0]
['beep', 0.0, -1688.6966453429038, 0.0, 0.0, 0.0, 0.0, -274.9711602891875, 0.0]
['beep', 0.0, -1689.6801220989373, 0.0, 0.0, 0.0, 0.0, -274.92645680027687, 0.0]
['beep', 0.0, -1687.5343546312279, 0.0, 0.0, 0.0, 0.0, -275.4405469227489, 0.0]
['beep', 0.0, -1687.1990784643983, 0.0, 0.0, 0.0, 0.0, -275.082919011464, 0.0]
['beep', 0.0, -1688.3166656871638, 0.0, 0.0, 0.0, 0.0, -274.18884923325174, 0.0]
['beep', 0.0, -1688.8307558096358, 0.0, 0.0, 0.0, 0.0, -273.54064864404785, 0.0]
['beep', 0.0, -1689.1883837209207, 0.0, 0.0, 0.0, 0.0, -273.6300556218691, 0.0]
['beep', 0.0, -1688.6072383650826, 0.0, 0.0, 0.0, 0.0, -274.792346333545, 0.0]
['beep', 0.0, -1688.0260930092447, 0.0, 0.0, 0.0, 0.0, -274.0770905109752, 0.0]
['beep', 0.0, -1686.9308575309346, 0.0, 0.0, 0.0, 0.0, -274.3900149333495, 0.0]
['beep', 0.0, -1687.1990784643983, 0.0, 0.0, 0.0, 0.0, -273.4288899217713, 0.0]
['beep', 0.0, -1688.7413488318145, 0.0, 0.0, 0.0, 0.0, -274.27825621107297, 0.0]
['beep', 0.0, -1689.0319215097336, 0.0, 0.0, 0.0, 0.0, -274.27825621107297, 0.0]
['beep', 0.0, -1687.1320232310325, 0.0, 0.0, 0.0, 0.0, -273.94298004424337, 0.0]
['beep', 0.0, -1687.6461133535045, 0.0, 0.0, 0.0, 0.0, -274.16649748879644, 0.0]
['beep', 0.0, -1688.0484447537, 0.0, 0.0, 0.0, 0.0, -273.80886957751153, 0.0]
['beep', 0.0, -1689.8142325656693, 0.0, 0.0, 0.0, 0.0, -274.7252911001791, 0.0]
['beep', 0.0, -1689.277790698742, 0.0, 0.0, 0.0, 0.0, -274.792346333545, 0.0]
['beep', 0.0, -1687.6461133535045, 0.0, 0.0, 0.0, 0.0, -275.17232598928524, 0.0]
['beep', 0.0, -1687.3555406755854, 0.0, 0.0, 0.0, 0.0, -274.27825621107297, 0.0]
['beep', 0.0, -1689.3671976765631, 0.0, 0.0, 0.0, 0.0, -274.23355272216236, 0.0]
['beep', 0.0, -1690.529488388239, 0.0, 0.0, 0.0, 0.0, -275.0158637780981, 0.0]
['beep', 0.0, -1689.4789563988397, 0.0, 0.0, 0.0, 0.0, -274.0100352776093, 0.0]
['beep', 0.0, -1688.920162787457, 0.0, 0.0, 0.0, 0.0, -274.0547387665199, 0.0]
['beep', 0.0, -1688.115499987066, 0.0, 0.0, 0.0, 0.0, -275.082919011464, 0.0]
['beep', 0.0, -1688.5178313872614, 0.0, 0.0, 0.0, 0.0, -275.3958434338383, 0.0]
['beep', 0.0, -1687.2661336977642, 0.0, 0.0, 0.0, 0.0, -275.0382155225534, 0.0]
['beep', 0.0, -1687.824927309147, 0.0, 0.0, 0.0, 0.0, -275.17232598928524, 0.0]
['beep', 0.0, -1688.1378517315213, 0.0, 0.0, 0.0, 0.0, -276.24520972313996, 0.0]
['beep', 0.0, -1686.9085057864793, 0.0, 0.0, 0.0, 0.0, -275.23938122265116, 0.0]
['beep', 0.0, -1688.0707964981552, 0.0, 0.0, 0.0, 0.0, -274.90410505582156, 0.0]
['beep', 0.0, -1688.4731278983509, 0.0, 0.0, 0.0, 0.0, -273.697110855235, 0.0]
['beep', 0.0, -1688.0484447537, 0.0, 0.0, 0.0, 0.0, -274.18884923325174, 0.0]
['beep', 0.0, -1689.210735465376, 0.0, 0.0, 0.0, 0.0, -274.56882888899196, 0.0]
['beep', 0.0, -1688.339017431619, 0.0, 0.0, 0.0, 0.0, -275.0158637780981, 0.0]
['beep', 0.0, -1688.2496104537977, 0.0, 0.0, 0.0, 0.0, -273.4512416662266, 0.0]
['beep', 0.0, -1687.2437819533088, 0.0, 0.0, 0.0, 0.0, -273.6747591107797, 0.0]
['beep', 0.0, -1687.5567063756832, 0.0, 0.0, 0.0, 0.0, -273.89827655533276, 0.0]
['beep', 0.0, -1687.109671486577, 0.0, 0.0, 0.0, 0.0, -273.3394829439501, 0.0]
['beep', 0.0, -1688.1602034759765, 0.0, 0.0, 0.0, 0.0, -273.0042067771205, 0.0]
['beep', 0.0, -1688.4731278983509, 0.0, 0.0, 0.0, 0.0, -273.20537247721825, 0.0]
['beep', 0.0, -1686.3497121750966, 0.0, 0.0, 0.0, 0.0, -274.4123666778048, 0.0]
['beep', 0.0, -1686.1038429860882, 0.0, 0.0, 0.0, 0.0, -273.51829689959254, 0.0]
['beep', 0.0, -1688.4507761538955, 0.0, 0.0, 0.0, 0.0, -274.52412540008135, 0.0]
['beep', 0.0, -1687.310837186675, 0.0, 0.0, 0.0, 0.0, -274.7252911001791, 0.0]
['beep', 0.0, -1687.7131685868703, 0.0, 0.0, 0.0, 0.0, -273.406538177316, 0.0]
['beep', 0.0, -1688.8754592985463, 0.0, 0.0, 0.0, 0.0, -273.0712620104864, 0.0]
['beep', 0.0, -1688.4954796428062, 0.0, 0.0, 0.0, 0.0, -274.3453114444389, 0.0]
['beep', 0.0, -1687.757872075781, 0.0, 0.0, 0.0, 0.0, -275.7534713451232, 0.0]
['beep', 0.0, -1687.6461133535045, 0.0, 0.0, 0.0, 0.0, -275.90993355631036, 0.0]
['beep', 0.0, -1687.8696307980576, 0.0, 0.0, 0.0, 0.0, -275.79817483403383, 0.0]
['beep', 0.0, -1687.824927309147, 0.0, 0.0, 0.0, 0.0, -274.6805876112685, 0.0]
['beep', 0.0, -1686.4614708973731, 0.0, 0.0, 0.0, 0.0, -276.0216922785869, 0.0]
['beep', 0.0, -1687.176726719943, 0.0, 0.0, 0.0, 0.0, -275.57465738948076, 0.0]
['beep', 0.0, -1687.2214302088537, 0.0, 0.0, 0.0, 0.0, -274.4347184222601, 0.0]
['beep', 0.0, -1686.6179331085602, 0.0, 0.0, 0.0, 0.0, -275.3958434338383, 0.0]
['beep', 0.0, -1688.0260930092447, 0.0, 0.0, 0.0, 0.0, -275.90993355631036, 0.0]
['beep', 0.0, -1688.4731278983509, 0.0, 0.0, 0.0, 0.0, -275.17232598928524, 0.0]
['beep', 0.0, -1686.886154042024, 0.0, 0.0, 0.0, 0.0, -275.3064364560171, 0.0]
['beep', 0.0, -1685.1203662300547, 0.0, 0.0, 0.0, 0.0, -274.90410505582156, 0.0]
['beep', 0.0, -1684.1145377295659, 0.0, 0.0, 0.0, 0.0, -274.0994422554305, 0.0]
['beep', 0.0, -1683.2651714402643, 0.0, 0.0, 0.0, 0.0, -273.3841864328607, 0.0]
['beep', 0.0, -1682.1699359619543, 0.0, 0.0, 0.0, 0.0, -272.37835793237184, 0.0]
['beep', 0.0, -1681.0970522280995, 0.0, 0.0, 0.0, 0.0, -271.9313230432657, 0.0]
['beep', 0.0, -1682.4605086398733, 0.0, 0.0, 0.0, 0.0, -272.46776491019307, 0.0]
['beep', 0.0, -1682.1922877064096, 0.0, 0.0, 0.0, 0.0, -273.0265585215758, 0.0]
['beep', 0.0, -1684.7850900632252, 0.0, 0.0, 0.0, 0.0, -273.22772422167355, 0.0]
['beep', 0.0, -1687.5343546312279, 0.0, 0.0, 0.0, 0.0, -272.6465788658355, 0.0]
['beep', 0.0, -1687.0202645087559, 0.0, 0.0, 0.0, 0.0, -273.27242771058417, 0.0]
['beep', 0.0, -1687.5790581201386, 0.0, 0.0, 0.0, 0.0, -274.56882888899196, 0.0]
['beep', 0.0, -1686.8414505531134, 0.0, 0.0, 0.0, 0.0, -273.16066898830763, 0.0]
['beep', 0.0, -1685.85797379708, 0.0, 0.0, 0.0, 0.0, -272.6018753769249, 0.0]
['beep', 0.0, -1686.7743953197476, 0.0, 0.0, 0.0, 0.0, -273.20537247721825, 0.0]
['beep', 0.0, -1685.9473807749011, 0.0, 0.0, 0.0, 0.0, -274.54647714453665, 0.0]
['beep', 0.0, -1687.109671486577, 0.0, 0.0, 0.0, 0.0, -274.52412540008135, 0.0]
['beep', 0.0, -1687.3555406755854, 0.0, 0.0, 0.0, 0.0, -274.16649748879644, 0.0]
['beep', 0.0, -1686.95320927539, 0.0, 0.0, 0.0, 0.0, -273.7194625996903, 0.0]
['beep', 0.0, -1684.8297935521357, 0.0, 0.0, 0.0, 0.0, -274.90410505582156, 0.0]
['beep', 0.0, -1683.8463167961022, 0.0, 0.0, 0.0, 0.0, -273.51829689959254, 0.0]
['beep', 0.0, -1685.1203662300547, 0.0, 0.0, 0.0, 0.0, -272.1995439767294, 0.0]
['beep', 0.0, -1685.0756627411442, 0.0, 0.0, 0.0, 0.0, -272.4901166546484, 0.0]
['beep', 0.0, -1685.500345885795, 0.0, 0.0, 0.0, 0.0, -271.5289916430702, 0.0]
['beep', 0.0, -1685.0980144855994, 0.0, 0.0, 0.0, 0.0, -271.9089712988104, 0.0]
['beep', 0.0, -1683.7792615627363, 0.0, 0.0, 0.0, 0.0, -272.7583375881121, 0.0]
['beep', 0.0, -1682.3934534065072, 0.0, 0.0, 0.0, 0.0, -273.7865178330562, 0.0]
['beep', 0.0, -1684.0474824962, 0.0, 0.0, 0.0, 0.0, -271.8195643209892, 0.0]
['beep', 0.0, -1685.5897528636162, 0.0, 0.0, 0.0, 0.0, -271.37252943188304, 0.0]
['beep', 0.0, -1685.2991801856972, 0.0, 0.0, 0.0, 0.0, -271.39488117633834, 0.0]
['beep', 0.0, -1683.242819695809, 0.0, 0.0, 0.0, 0.0, -272.6018753769249, 0.0]
['beep', 0.0, -1683.2204679513536, 0.0, 0.0, 0.0, 0.0, -272.89244805484395, 0.0]
['beep', 0.0, -1684.1145377295659, 0.0, 0.0, 0.0, 0.0, -273.3394829439501, 0.0]
['beep', 0.0, -1683.6004476070939, 0.0, 0.0, 0.0, 0.0, -272.534820143559, 0.0]
['beep', 0.0, -1683.5780958626385, 0.0, 0.0, 0.0, 0.0, -271.39488117633834, 0.0]
['beep', 0.0, -1682.147584217499, 0.0, 0.0, 0.0, 0.0, -272.6689306102909, 0.0]
['beep', 0.0, -1682.8404882956133, 0.0, 0.0, 0.0, 0.0, -273.2947794550395, 0.0]
['beep', 0.0, -1684.5168691297615, 0.0, 0.0, 0.0, 0.0, -273.16066898830763, 0.0]
['beep', 0.0, -1685.0309592522335, 0.0, 0.0, 0.0, 0.0, -273.89827655533276, 0.0]
['beep', 0.0, -1685.5674011191609, 0.0, 0.0, 0.0, 0.0, -272.7136340992015, 0.0]
['beep', 0.0, -1684.919200529957, 0.0, 0.0, 0.0, 0.0, -272.44541316573776, 0.0]
['beep', 0.0, -1684.1368894740212, 0.0, 0.0, 0.0, 0.0, -273.406538177316, 0.0]
['beep', 0.0, -1684.338055174119, 0.0, 0.0, 0.0, 0.0, -273.89827655533276, 0.0]
['beep', 0.0, -1685.14271797451, 0.0, 0.0, 0.0, 0.0, -272.82539282147803, 0.0]
['beep', 0.0, -1684.338055174119, 0.0, 0.0, 0.0, 0.0, -273.7865178330562, 0.0]
['beep', 0.0, -1684.405110407485, 0.0, 0.0, 0.0, 0.0, -273.2947794550395, 0.0]
['beep', 0.0, -1683.5110406292727, 0.0, 0.0, 0.0, 0.0, -273.9653317886987, 0.0]
['beep', 0.0, -1683.399281906996, 0.0, 0.0, 0.0, 0.0, -272.4901166546484, 0.0]
['beep', 0.0, -1684.7850900632252, 0.0, 0.0, 0.0, 0.0, -271.1937154762406, 0.0]
['beep', 0.0, -1684.2262964518425, 0.0, 0.0, 0.0, 0.0, -270.8807910538663, 0.0]
['beep', 0.0, -1684.0698342406554, 0.0, 0.0, 0.0, 0.0, -271.2160672206959, 0.0]
['beep', 0.0, -1682.9745987623453, 0.0, 0.0, 0.0, 0.0, -273.406538177316, 0.0]
['beep', 0.0, -1681.3205696726525, 0.0, 0.0, 0.0, 0.0, -273.3394829439501, 0.0]
['beep', 0.0, -1682.5499156176945, 0.0, 0.0, 0.0, 0.0, -272.6018753769249, 0.0]
['beep', 0.0, -1684.695683085404, 0.0, 0.0, 0.0, 0.0, -271.663102109802, 0.0]
['beep', 0.0, -1683.4216336514514, 0.0, 0.0, 0.0, 0.0, -272.5124683991037, 0.0]
['beep', 0.0, -1681.8123080506693, 0.0, 0.0, 0.0, 0.0, -272.1548404878188, 0.0]
['beep', 0.0, -1681.789956306214, 0.0, 0.0, 0.0, 0.0, -271.2160672206959, 0.0]
['beep', 0.0, -1680.7170725723593, 0.0, 0.0, 0.0, 0.0, -271.77486083207856, 0.0]
['beep', 0.0, -1681.6111423505715, 0.0, 0.0, 0.0, 0.0, -273.25007596612886, 0.0]
['beep', 0.0, -1682.728729573337, 0.0, 0.0, 0.0, 0.0, -272.1771922322741, 0.0]
['beep', 0.0, -1679.5547818606833, 0.0, 0.0, 0.0, 0.0, -274.0994422554305, 0.0]
['beep', 0.0, -1678.9065812714794, 0.0, 0.0, 0.0, 0.0, -270.9925497761428, 0.0]
['beep', 0.0, -1680.0465202387002, 0.0, 0.0, 0.0, 0.0, -268.69032009724623, 0.0]
['beep', 0.0, -1679.2642091827643, 0.0, 0.0, 0.0, 0.0, -273.115965499397, 0.0]
['beep', 0.0, -1678.079566726633, 0.0, 0.0, 0.0, 0.0, -271.70780559871264, 0.0]
['beep', 0.0, -1678.5936568491052, 0.0, 0.0, 0.0, 0.0, -270.8807910538663, 0.0]
['beep', 0.0, -1678.0572149821778, 0.0, 0.0, 0.0, 0.0, -270.47845965367077, 0.0]
['beep', 0.0, -1679.0853952271218, 0.0, 0.0, 0.0, 0.0, -269.6514451088244, 0.0]
['beep', 0.0, -1680.2700376832531, 0.0, 0.0, 0.0, 0.0, -269.3161689419948, 0.0]
['beep', 0.0, -1678.5713051046498, 0.0, 0.0, 0.0, 0.0, -270.9478462872322, 0.0]
['beep', 0.0, -1678.3254359156415, 0.0, 0.0, 0.0, 0.0, -271.73015734316795, 0.0]
['beep', 0.0, -1677.7666423042588, 0.0, 0.0, 0.0, 0.0, -272.3113026990059, 0.0]
['beep', 0.0, -1678.6383603380157, 0.0, 0.0, 0.0, 0.0, -271.73015734316795, 0.0]
['beep', 0.0, -1677.0960899705995, 0.0, 0.0, 0.0, 0.0, -271.10430849841936, 0.0]
['beep', 0.0, -1677.0290347372336, 0.0, 0.0, 0.0, 0.0, -271.46193640970426, 0.0]
['beep', 0.0, -1676.112613214566, 0.0, 0.0, 0.0, 0.0, -271.05960500950874, 0.0]
['beep', 0.0, -1675.4420608809069, 0.0, 0.0, 0.0, 0.0, -270.81373582050037, 0.0]
['beep', 0.0, -1676.3584824035745, 0.0, 0.0, 0.0, 0.0, -270.09847999793055, 0.0]
['beep', 0.0, -1677.4313661374292, 0.0, 0.0, 0.0, 0.0, -270.1655352312965, 0.0]
['beep', 0.0, -1677.4760696263397, 0.0, 0.0, 0.0, 0.0, -273.115965499397, 0.0]
['beep', 0.0, -1677.9901597488117, 0.0, 0.0, 0.0, 0.0, -272.37835793237184, 0.0]
['beep', 0.0, -1677.699587070893, 0.0, 0.0, 0.0, 0.0, -273.0042067771205, 0.0]
['beep', 0.0, -1679.3536161605855, 0.0, 0.0, 0.0, 0.0, -272.84774456593334, 0.0]
['beep', 0.0, -1679.4206713939514, 0.0, 0.0, 0.0, 0.0, -272.24424746564, 0.0]
['beep', 0.0, -1676.7384620593145, 0.0, 0.0, 0.0, 0.0, -274.6805876112685, 0.0]
['beep', 0.0, -1676.5149446147616, 0.0, 0.0, 0.0, 0.0, -275.7758230895785, 0.0]
['beep', 0.0, -1676.8055172926806, 0.0, 0.0, 0.0, 0.0, -274.1217939998858, 0.0]
['beep', 0.0, -1678.5489533601944, 0.0, 0.0, 0.0, 0.0, -272.5571718880143, 0.0]
['beep', 0.0, -1679.3759679050409, 0.0, 0.0, 0.0, 0.0, -271.2160672206959, 0.0]
['beep', 0.0, -1678.3924911490074, 0.0, 0.0, 0.0, 0.0, -273.94298004424337, 0.0]
['beep', 0.0, -1676.8949242705019, 0.0, 0.0, 0.0, 0.0, -274.9711602891875, 0.0]
['beep', 0.0, -1677.85604928208, 0.0, 0.0, 0.0, 0.0, -273.2947794550395, 0.0]
['beep', 0.0, -1675.9561510033789, 0.0, 0.0, 0.0, 0.0, -273.94298004424337, 0.0]
['beep', 0.0, -1675.5091161142727, 0.0, 0.0, 0.0, 0.0, -273.49594515513724, 0.0]
['beep', 0.0, -1676.4702411258509, 0.0, 0.0, 0.0, 0.0, -273.89827655533276, 0.0]
['beep', 0.0, -1676.693758570404, 0.0, 0.0, 0.0, 0.0, -273.0042067771205, 0.0]
['beep', 0.0, -1677.2302004373314, 0.0, 0.0, 0.0, 0.0, -274.18884923325174, 0.0]
['beep', 0.0, -1677.498421370795, 0.0, 0.0, 0.0, 0.0, -275.52995390057015, 0.0]
['beep', 0.0, -1677.051386481689, 0.0, 0.0, 0.0, 0.0, -275.082919011464, 0.0]
['beep', 0.0, -1675.6208748365493, 0.0, 0.0, 0.0, 0.0, -276.2899132120506, 0.0]
['beep', 0.0, -1674.1680114469543, 0.0, 0.0, 0.0, 0.0, -276.4240236787824, 0.0]
['beep', 0.0, -1675.8443922811023, 0.0, 0.0, 0.0, 0.0, -276.7592998456121, 0.0]
['beep', 0.0, -1677.1407934595102, 0.0, 0.0, 0.0, 0.0, -276.8710585678886, 0.0]
['beep', 0.0, -1677.1407934595102, 0.0, 0.0, 0.0, 0.0, -276.3569684454165, 0.0]
['beep', 0.0, -1675.5538196031832, 0.0, 0.0, 0.0, 0.0, -278.27921846857294, 0.0]
['beep', 0.0, -1675.1961916918983, 0.0, 0.0, 0.0, 0.0, -278.27921846857294, 0.0]
['beep', 0.0, -1677.6325318375268, 0.0, 0.0, 0.0, 0.0, -276.53578240105895, 0.0]
['beep', 0.0, -1677.6548835819822, 0.0, 0.0, 0.0, 0.0, -278.4356806797601, 0.0]
['beep', 0.0, -1677.8784010265354, 0.0, 0.0, 0.0, 0.0, -279.64267488034665, 0.0]
['beep', 0.0, -1676.8949242705019, 0.0, 0.0, 0.0, 0.0, -278.36862544639416, 0.0]
['beep', 0.0, -1674.793860291703, 0.0, 0.0, 0.0, 0.0, -278.8156603355003, 0.0]
['beep', 0.0, -1674.1903631914097, 0.0, 0.0, 0.0, 0.0, -278.36862544639416, 0.0]
['beep', 0.0, -1676.3584824035745, 0.0, 0.0, 0.0, 0.0, -277.7651283461009, 0.0]
['beep', 0.0, -1677.4760696263397, 0.0, 0.0, 0.0, 0.0, -278.30157021302824, 0.0]
['beep', 0.0, -1677.2525521817868, 0.0, 0.0, 0.0, 0.0, -279.888544069355, 0.0]
['beep', 0.0, -1676.693758570404, 0.0, 0.0, 0.0, 0.0, -280.82731733647796, 0.0]
['beep', 0.0, -1676.2690754257533, 0.0, 0.0, 0.0, 0.0, -277.2510382236288, 0.0]
['beep', 0.0, -1676.559648103672, 0.0, 0.0, 0.0, 0.0, -274.3006079555283, 0.0]
['beep', 0.0, -1676.2914271702084, 0.0, 0.0, 0.0, 0.0, -277.116927756897, 0.0]
['beep', 0.0, -1673.8103835356694, 0.0, 0.0, 0.0, 0.0, -278.8827155688662, 0.0]
['beep', 0.0, -1675.0620812251666, 0.0, 0.0, 0.0, 0.0, -278.5697911464919, 0.0]
['beep', 0.0, -1675.7996887921918, 0.0, 0.0, 0.0, 0.0, -278.7709568465897, 0.0]
['beep', 0.0, -1674.793860291703, 0.0, 0.0, 0.0, 0.0, -277.8992388128327, 0.0]
['beep', 0.0, -1675.307950414175, 0.0, 0.0, 0.0, 0.0, -278.99447429114275, 0.0]
['beep', 0.0, -1676.3137789146638, 0.0, 0.0, 0.0, 0.0, -281.3190557144947, 0.0]
['beep', 0.0, -1674.6821015694263, 0.0, 0.0, 0.0, 0.0, -281.9002010703327, 0.0]
['beep', 0.0, -1675.1961916918983, 0.0, 0.0, 0.0, 0.0, -282.83897433745557, 0.0]
['beep', 0.0, -1674.9726742473454, 0.0, 0.0, 0.0, 0.0, -280.58144814746953, 0.0]
['beep', 0.0, -1675.9785027478342, 0.0, 0.0, 0.0, 0.0, -275.7311196006679, 0.0]
['beep', 0.0, -1674.4809358693285, 0.0, 0.0, 0.0, 0.0, -282.9060295708215, 0.0]
['beep', 0.0, -1672.312816657164, 0.0, 0.0, 0.0, 0.0, -284.96239006070977, 0.0]
['beep', 0.0, -1672.9386655019125, 0.0, 0.0, 0.0, 0.0, -282.3248842149835, 0.0]
['beep', 0.0, -1672.7374998018147, 0.0, 0.0, 0.0, 0.0, -282.43664293726005, 0.0]
['beep', 0.0, -1669.85412476708, 0.0, 0.0, 0.0, 0.0, -284.3365412159611, 0.0]
['beep', 0.0, -1669.3623863890632, 0.0, 0.0, 0.0, 0.0, -280.26852372509524, 0.0]
['beep', 0.0, -1670.1670491894542, 0.0, 0.0, 0.0, 0.0, -286.90699182832145, 0.0]
['beep', 0.0, -1670.2788079117308, 0.0, 0.0, 0.0, 0.0, -291.5561546750253, 0.0]
['beep', 0.0, -1670.1223457005437, 0.0, 0.0, 0.0, 0.0, -287.018750550598, 0.0]
['beep', 0.0, -1671.686967812415, 0.0, 0.0, 0.0, 0.0, -285.4764801831818, 0.0]
['beep', 0.0, -1671.3963951344963, 0.0, 0.0, 0.0, 0.0, -285.1188522718969, 0.0]
['beep', 0.0, -1671.7316713013258, 0.0, 0.0, 0.0, 0.0, -287.91282032881026, 0.0]
['beep', 0.0, -1672.8492585240913, 0.0, 0.0, 0.0, 0.0, -290.63973315235773, 0.0]
['beep', 0.0, -1671.0387672232114, 0.0, 0.0, 0.0, 0.0, -287.53284067307004, 0.0]
['beep', 0.0, -1670.2788079117308, 0.0, 0.0, 0.0, 0.0, -288.3151517290058, 0.0]
['beep', 0.0, -1668.3118543996638, 0.0, 0.0, 0.0, 0.0, -289.1868697627628, 0.0]
['beep', 0.0, -1669.5412003447057, 0.0, 0.0, 0.0, 0.0, -290.5950296634471, 0.0]
['beep', 0.0, -1669.9882352338118, 0.0, 0.0, 0.0, 0.0, -291.04206455255326, 0.0]
['beep', 0.0, -1670.368214889552, 0.0, 0.0, 0.0, 0.0, -289.8127186075114, 0.0]
['beep', 0.0, -1670.0329387227225, 0.0, 0.0, 0.0, 0.0, -292.33846573096105, 0.0]
['beep', 0.0, -1667.9765782328343, 0.0, 0.0, 0.0, 0.0, -293.3219424869946, 0.0]
['beep', 0.0, -1668.0436334662002, 0.0, 0.0, 0.0, 0.0, -292.04789305304206, 0.0]
['beep', 0.0, -1668.602427077583, 0.0, 0.0, 0.0, 0.0, -293.6348669093689, 0.0]
['beep', 0.0, -1668.7141857998595, 0.0, 0.0, 0.0, 0.0, -295.42300646579343, 0.0]
['beep', 0.0, -1669.4741451113398, 0.0, 0.0, 0.0, 0.0, -295.244192510151, 0.0]
['beep', 0.0, -1669.4294416224293, 0.0, 0.0, 0.0, 0.0, -294.14895703184095, 0.0]
['beep', 0.0, -1668.468316610851, 0.0, 0.0, 0.0, 0.0, -293.83603260946666, 0.0]
['beep', 0.0, -1668.6694823109488, 0.0, 0.0, 0.0, 0.0, -294.08190179847503, 0.0]
['beep', 0.0, -1669.4294416224293, 0.0, 0.0, 0.0, 0.0, -292.6290384088801, 0.0]
['beep', 0.0, -1669.8317730226247, 0.0, 0.0, 0.0, 0.0, -293.50075644263705, 0.0]
['beep', 0.0, -1668.6918340554041, 0.0, 0.0, 0.0, 0.0, -295.9594483327208, 0.0]
['beep', 0.0, -1668.6471305664934, 0.0, 0.0, 0.0, 0.0, -295.87004135489957, 0.0]
['beep', 0.0, -1669.4741451113398, 0.0, 0.0, 0.0, 0.0, -293.2995907425393, 0.0]
['beep', 0.0, -1670.144697444999, 0.0, 0.0, 0.0, 0.0, -292.85255585343316, 0.0]
['beep', 0.0, -1669.0271102222337, 0.0, 0.0, 0.0, 0.0, -294.5736401764918, 0.0]
['beep', 0.0, -1668.5800753331275, 0.0, 0.0, 0.0, 0.0, -293.0760732979862, 0.0]
['beep', 0.0, -1668.0212817217448, 0.0, 0.0, 0.0, 0.0, -293.43370120927113, 0.0]
['beep', 0.0, -1669.049461966689, 0.0, 0.0, 0.0, 0.0, -293.54545993154767, 0.0]
['beep', 0.0, -1670.502325356284, 0.0, 0.0, 0.0, 0.0, -292.00318956413145, 0.0]
['beep', 0.0, -1669.0271102222337, 0.0, 0.0, 0.0, 0.0, -293.50075644263705, 0.0]
['beep', 0.0, -1670.1670491894542, 0.0, 0.0, 0.0, 0.0, -293.47840469818175, 0.0]
['beep', 0.0, -1671.6199125790492, 0.0, 0.0, 0.0, 0.0, -293.9254395872879, 0.0]
['beep', 0.0, -1671.374043390041, 0.0, 0.0, 0.0, 0.0, -292.6737418977907, 0.0]
['beep', 0.0, -1672.1563544459766, 0.0, 0.0, 0.0, 0.0, -293.74662563164543, 0.0]
['beep', 0.0, -1671.7316713013258, 0.0, 0.0, 0.0, 0.0, -292.78550062006724, 0.0]
['beep', 0.0, -1670.7034910563816, 0.0, 0.0, 0.0, 0.0, -293.2325355091734, 0.0]
['beep', 0.0, -1669.8094212781693, 0.0, 0.0, 0.0, 0.0, -293.0760732979862, 0.0]
['beep', 0.0, -1668.9377032444124, 0.0, 0.0, 0.0, 0.0, -294.2383640096622, 0.0]
['beep', 0.0, -1667.9765782328343, 0.0, 0.0, 0.0, 0.0, -294.79715762104485, 0.0]
['beep', 0.0, -1667.6189503215494, 0.0, 0.0, 0.0, 0.0, -292.00318956413145, 0.0]
['beep', 0.0, -1666.143735187499, 0.0, 0.0, 0.0, 0.0, -293.277238998084, 0.0]
['beep', 0.0, -1668.892999755502, 0.0, 0.0, 0.0, 0.0, -290.95265757473203, 0.0]
['beep', 0.0, -1672.4916306128064, 0.0, 0.0, 0.0, 0.0, -291.35498897492755, 0.0]
['beep', 0.0, -1672.0669474681554, 0.0, 0.0, 0.0, 0.0, -292.5843349199695, 0.0]
['beep', 0.0, -1673.273941668742, 0.0, 0.0, 0.0, 0.0, -293.81368086501135, 0.0]
['beep', 0.0, -1673.0504242241889, 0.0, 0.0, 0.0, 0.0, -294.5736401764918, 0.0]
['beep', 0.0, -1672.1563544459766, 0.0, 0.0, 0.0, 0.0, -293.3889977203605, 0.0]
['beep', 0.0, -1672.4469271238956, 0.0, 0.0, 0.0, 0.0, -293.4113494648158, 0.0]
['beep', 0.0, -1671.4187468789514, 0.0, 0.0, 0.0, 0.0, -291.95848607522083, 0.0]
['beep', 0.0, -1672.469278868351, 0.0, 0.0, 0.0, 0.0, -290.68443664126835, 0.0]
['beep', 0.0, -1671.821078279147, 0.0, 0.0, 0.0, 0.0, -293.3889977203605, 0.0]
['beep', 0.0, -1671.7093195568705, 0.0, 0.0, 0.0, 0.0, -291.8914308418549, 0.0]
['beep', 0.0, -1669.6753108114376, 0.0, 0.0, 0.0, 0.0, -293.2995907425393, 0.0]
['beep', 0.0, -1670.6364358230157, 0.0, 0.0, 0.0, 0.0, -292.2490587531398, 0.0]
['beep', 0.0, -1670.1670491894542, 0.0, 0.0, 0.0, 0.0, -291.1985267637404, 0.0]
['beep', 0.0, -1669.3623863890632, 0.0, 0.0, 0.0, 0.0, -295.5571169325253, 0.0]
['beep', 0.0, -1669.4964968557952, 0.0, 0.0, 0.0, 0.0, -296.20531752172917, 0.0]
['beep', 0.0, -1669.5412003447057, 0.0, 0.0, 0.0, 0.0, -294.84186110995546, 0.0]
['beep', 0.0, -1668.7141857998595, 0.0, 0.0, 0.0, 0.0, -294.0371983095644, 0.0]
['beep', 0.0, -1669.2506276667868, 0.0, 0.0, 0.0, 0.0, -294.41717796530463, 0.0]
['beep', 0.0, -1669.205924177876, 0.0, 0.0, 0.0, 0.0, -298.1275675448856, 0.0]
['beep', 0.0, -1668.602427077583, 0.0, 0.0, 0.0, 0.0, -298.97693383418726, 0.0]
['beep', 0.0, -1669.8764765115354, 0.0, 0.0, 0.0, 0.0, -297.56877393350294, 0.0]
['beep', 0.0, -1669.8317730226247, 0.0, 0.0, 0.0, 0.0, -297.97110533369846, 0.0]
['beep', 0.0, -1670.3235114006416, 0.0, 0.0, 0.0, 0.0, -297.99345707815377, 0.0]
['beep', 0.0, -1669.3176829001527, 0.0, 0.0, 0.0, 0.0, -298.1052158004303, 0.0]
['beep', 0.0, -1669.720014300348, 0.0, 0.0, 0.0, 0.0, -301.05564606853085, 0.0]
['beep', 0.0, -1670.5470288451945, 0.0, 0.0, 0.0, 0.0, -299.4016169788381, 0.0]
['beep', 0.0, -1669.697662555893, 0.0, 0.0, 0.0, 0.0, -298.7757681340895, 0.0]
['beep', 0.0, -1671.1281742010326, 0.0, 0.0, 0.0, 0.0, -303.8943176143548, 0.0]
['beep', 0.0, -1670.8152497786582, 0.0, 0.0, 0.0, 0.0, -301.5473844465476, 0.0]
['beep', 0.0, -1669.4964968557952, 0.0, 0.0, 0.0, 0.0, -299.53572744556993, 0.0]
['beep', 0.0, -1670.1670491894542, 0.0, 0.0, 0.0, 0.0, -298.95458208973196, 0.0]
['beep', 0.0, -1671.7093195568705, 0.0, 0.0, 0.0, 0.0, -301.32386700199453, 0.0]
['beep', 0.0, -1671.9998922347895, 0.0, 0.0, 0.0, 0.0, -300.27333501259506, 0.0]
['beep', 0.0, -1670.7705462897477, 0.0, 0.0, 0.0, 0.0, -299.7145414012124, 0.0]
['beep', 0.0, -1669.4964968557952, 0.0, 0.0, 0.0, 0.0, -298.95458208973196, 0.0]
['beep', 0.0, -1670.725842800837, 0.0, 0.0, 0.0, 0.0, -296.3617797329163, 0.0]
['beep', 0.0, -1670.6140840785604, 0.0, 0.0, 0.0, 0.0, -299.5133757011146, 0.0]
['beep', 0.0, -1670.8376015231136, 0.0, 0.0, 0.0, 0.0, -302.9555443472319, 0.0]
['beep', 0.0, -1670.7928980342028, 0.0, 0.0, 0.0, 0.0, -301.9497158467431, 0.0]
['beep', 0.0, -1670.9940637343007, 0.0, 0.0, 0.0, 0.0, -300.1168728014079, 0.0]
['beep', 0.0, -1670.658787567471, 0.0, 0.0, 0.0, 0.0, -299.3792652343828, 0.0]
['beep', 0.0, -1670.2788079117308, 0.0, 0.0, 0.0, 0.0, -300.8544803684331, 0.0]
['beep', 0.0, -1669.1612206889656, 0.0, 0.0, 0.0, 0.0, -300.9438873462543, 0.0]
['beep', 0.0, -1667.9989299772897, 0.0, 0.0, 0.0, 0.0, -300.5415559460588, 0.0]
['beep', 0.0, -1667.4848398548174, 0.0, 0.0, 0.0, 0.0, -301.1674047908074, 0.0]
['beep', 0.0, -1668.244799166298, 0.0, 0.0, 0.0, 0.0, -299.3569134899275, 0.0]
['beep', 0.0, -1668.7365375443146, 0.0, 0.0, 0.0, 0.0, -301.1450530463521, 0.0]
['beep', 0.0, -1667.2613224102645, 0.0, 0.0, 0.0, 0.0, -301.2344600241733, 0.0]
['beep', 0.0, -1665.7861072762141, 0.0, 0.0, 0.0, 0.0, -301.2344600241733, 0.0]
['beep', 0.0, -1666.143735187499, 0.0, 0.0, 0.0, 0.0, -301.9720675911984, 0.0]
['beep', 0.0, -1666.1213834430437, 0.0, 0.0, 0.0, 0.0, -300.1615762903185, 0.0]
['beep', 0.0, -1666.5684183321498, 0.0, 0.0, 0.0, 0.0, -300.78742513506717, 0.0]
['beep', 0.0, -1667.082508454622, 0.0, 0.0, 0.0, 0.0, -300.3627419904163, 0.0]
['beep', 0.0, -1664.6238165645382, 0.0, 0.0, 0.0, 0.0, -301.212108279718, 0.0]
['beep', 0.0, -1664.9590927313677, 0.0, 0.0, 0.0, 0.0, -301.212108279718, 0.0]
['beep', 0.0, -1665.8978659984907, 0.0, 0.0, 0.0, 0.0, -299.93805884576545, 0.0]
['beep', 0.0, -1666.0766799541332, 0.0, 0.0, 0.0, 0.0, -299.7145414012124, 0.0]
['beep', 0.0, -1666.1884386764098, 0.0, 0.0, 0.0, 0.0, -299.4016169788381, 0.0]
['beep', 0.0, -1666.0543282096778, 0.0, 0.0, 0.0, 0.0, -298.7757681340895, 0.0]
['beep', 0.0, -1666.210790420865, 0.0, 0.0, 0.0, 0.0, -297.92640184478785, 0.0]
['beep', 0.0, -1666.1660869319544, 0.0, 0.0, 0.0, 0.0, -298.55225068953644, 0.0]
['beep', 0.0, -1667.5295433437282, 0.0, 0.0, 0.0, 0.0, -296.697055899746, 0.0]
['beep', 0.0, -1667.820116021647, 0.0, 0.0, 0.0, 0.0, -297.4793669556817, 0.0]
['beep', 0.0, -1666.7248805433371, 0.0, 0.0, 0.0, 0.0, -297.8593466114219, 0.0]
['beep', 0.0, -1665.9425694874012, 0.0, 0.0, 0.0, 0.0, -296.2500210106398, 0.0]
['beep', 0.0, -1666.3896043765074, 0.0, 0.0, 0.0, 0.0, -296.67470415529067, 0.0]
['beep', 0.0, -1666.0543282096778, 0.0, 0.0, 0.0, 0.0, -296.63000066638006, 0.0]
['beep', 0.0, -1666.7248805433371, 0.0, 0.0, 0.0, 0.0, -297.8593466114219, 0.0]
['beep', 0.0, -1666.1213834430437, 0.0, 0.0, 0.0, 0.0, -298.7757681340895, 0.0]
['beep', 0.0, -1665.696700298393, 0.0, 0.0, 0.0, 0.0, -296.7641111331119, 0.0]
['beep', 0.0, -1665.47318285384, 0.0, 0.0, 0.0, 0.0, -294.663047154313, 0.0]
['beep', 0.0, -1665.4284793649292, 0.0, 0.0, 0.0, 0.0, -296.58529717746944, 0.0]
['beep', 0.0, -1666.0096247207673, 0.0, 0.0, 0.0, 0.0, -295.78063437707834, 0.0]
['beep', 0.0, -1663.9979677197896, 0.0, 0.0, 0.0, 0.0, -295.6465239103465, 0.0]
['beep', 0.0, -1663.9756159753342, 0.0, 0.0, 0.0, 0.0, -295.3112477435169, 0.0]
['beep', 0.0, -1662.9027322414795, 0.0, 0.0, 0.0, 0.0, -297.21114602221803, 0.0]
['beep', 0.0, -1663.215656663854, 0.0, 0.0, 0.0, 0.0, -295.3559512324275, 0.0]
['beep', 0.0, -1664.0650229531554, 0.0, 0.0, 0.0, 0.0, -294.84186110995546, 0.0]
['beep', 0.0, -1662.8133252636583, 0.0, 0.0, 0.0, 0.0, -294.48423319867055, 0.0]
['beep', 0.0, -1662.4556973523734, 0.0, 0.0, 0.0, 0.0, -294.5736401764918, 0.0]
['beep', 0.0, -1664.2885403977086, 0.0, 0.0, 0.0, 0.0, -293.3889977203605, 0.0]
['beep', 0.0, -1664.020319464245, 0.0, 0.0, 0.0, 0.0, -294.9089163433214, 0.0]
['beep', 0.0, -1663.1262496860327, 0.0, 0.0, 0.0, 0.0, -296.8088146220225, 0.0]
['beep', 0.0, -1662.1204211855438, 0.0, 0.0, 0.0, 0.0, -295.0206750655979, 0.0]
['beep', 0.0, -1660.9357787294125, 0.0, 0.0, 0.0, 0.0, -295.49006169915936, 0.0]
['beep', 0.0, -1661.5839793186165, 0.0, 0.0, 0.0, 0.0, -298.4181402228046, 0.0]
['beep', 0.0, -1661.8074967631694, 0.0, 0.0, 0.0, 0.0, -296.13826228836325, 0.0]
['beep', 0.0, -1662.075717696633, 0.0, 0.0, 0.0, 0.0, -295.17713727678506, 0.0]
['beep', 0.0, -1661.561627574161, 0.0, 0.0, 0.0, 0.0, -293.7242738871901, 0.0]
['beep', 0.0, -1660.2875781402086, 0.0, 0.0, 0.0, 0.0, -296.2276692661845, 0.0]
['beep', 0.0, -1659.0582321951667, 0.0, 0.0, 0.0, 0.0, -298.1052158004303, 0.0]
['beep', 0.0, -1659.7734880177366, 0.0, 0.0, 0.0, 0.0, -297.4570152112264, 0.0]
['beep', 0.0, -1660.7346130293147, 0.0, 0.0, 0.0, 0.0, -297.21114602221803, 0.0]
['beep', 0.0, -1660.6452060514935, 0.0, 0.0, 0.0, 0.0, -298.1946227782515, 0.0]
['beep', 0.0, -1660.0640606956556, 0.0, 0.0, 0.0, 0.0, -298.99928557864257, 0.0]
['beep', 0.0, -1659.9299502289236, 0.0, 0.0, 0.0, 0.0, -297.7028844002348, 0.0]
['beep', 0.0, -1660.6675577959488, 0.0, 0.0, 0.0, 0.0, -295.6018204214359, 0.0]
['beep', 0.0, -1659.0582321951667, 0.0, 0.0, 0.0, 0.0, -297.59112567795825, 0.0]
['beep', 0.0, -1657.8065345056696, 0.0, 0.0, 0.0, 0.0, -298.4851954561705, 0.0]
['beep', 0.0, -1657.0689269386444, 0.0, 0.0, 0.0, 0.0, -297.99345707815377, 0.0]
['beep', 0.0, -1657.8735897390354, 0.0, 0.0, 0.0, 0.0, -297.8369948669666, 0.0]
['beep', 0.0, -1659.371156617541, 0.0, 0.0, 0.0, 0.0, -296.67470415529067, 0.0]
['beep', 0.0, -1657.627720550027, 0.0, 0.0, 0.0, 0.0, -297.7475878891454, 0.0]
['beep', 0.0, -1656.4207263494404, 0.0, 0.0, 0.0, 0.0, -298.99928557864257, 0.0]
['beep', 0.0, -1656.1525054159767, 0.0, 0.0, 0.0, 0.0, -298.8428233674554, 0.0]
['beep', 0.0, -1656.37602286053, 0.0, 0.0, 0.0, 0.0, -296.94292508875435, 0.0]
['beep', 0.0, -1657.0689269386444, 0.0, 0.0, 0.0, 0.0, -296.7641111331119, 0.0]
['beep', 0.0, -1656.532485071717, 0.0, 0.0, 0.0, 0.0, -297.1217390443968, 0.0]
['beep', 0.0, -1656.7783542607253, 0.0, 0.0, 0.0, 0.0, -298.64165766735766, 0.0]
['beep', 0.0, -1657.3594996165634, 0.0, 0.0, 0.0, 0.0, -298.082864055975, 0.0]
['beep', 0.0, -1658.3653281170523, 0.0, 0.0, 0.0, 0.0, -296.42883496628224, 0.0]
['beep', 0.0, -1658.342976372597, 0.0, 0.0, 0.0, 0.0, -297.59112567795825, 0.0]
['beep', 0.0, -1659.8852467400131, 0.0, 0.0, 0.0, 0.0, -298.7534163896342, 0.0]
['beep', 0.0, -1658.633549050516, 0.0, 0.0, 0.0, 0.0, -297.8146431225113, 0.0]
['beep', 0.0, -1659.4158601064516, 0.0, 0.0, 0.0, 0.0, -298.082864055975, 0.0]
['beep', 0.0, -1659.9746537178344, 0.0, 0.0, 0.0, 0.0, -297.3452564889499, 0.0]
['beep', 0.0, -1659.6170258065495, 0.0, 0.0, 0.0, 0.0, -297.21114602221803, 0.0]
['beep', 0.0, -1658.4100316059628, 0.0, 0.0, 0.0, 0.0, -298.21697452270683, 0.0]
['beep', 0.0, -1658.1641624169545, 0.0, 0.0, 0.0, 0.0, -297.97110533369846, 0.0]
['beep', 0.0, -1658.7676595172477, 0.0, 0.0, 0.0, 0.0, -297.88169835587723, 0.0]
['beep', 0.0, -1660.2652263957534, 0.0, 0.0, 0.0, 0.0, -296.40648322182693, 0.0]
['beep', 0.0, -1661.3604618740633, 0.0, 0.0, 0.0, 0.0, -294.9312680877767, 0.0]
['beep', 0.0, -1659.304101384175, 0.0, 0.0, 0.0, 0.0, -298.0158088226091, 0.0]
['beep', 0.0, -1657.113630427555, 0.0, 0.0, 0.0, 0.0, -297.30055300003926, 0.0]
['beep', 0.0, -1656.9571682163678, 0.0, 0.0, 0.0, 0.0, -295.19948902124037, 0.0]
['beep', 0.0, -1656.4654298383512, 0.0, 0.0, 0.0, 0.0, -296.2947244995504, 0.0]
['beep', 0.0, -1657.8735897390354, 0.0, 0.0, 0.0, 0.0, -297.8593466114219, 0.0]
['beep', 0.0, -1657.2924443831976, 0.0, 0.0, 0.0, 0.0, -297.63582916686886, 0.0]
['beep', 0.0, -1658.1865141614098, 0.0, 0.0, 0.0, 0.0, -296.0265035660867, 0.0]
['beep', 0.0, -1658.8794182395243, 0.0, 0.0, 0.0, 0.0, -296.87586985538843, 0.0]
['beep', 0.0, -1657.9629967168567, 0.0, 0.0, 0.0, 0.0, -298.28402975607275, 0.0]
['beep', 0.0, -1658.4547350948735, 0.0, 0.0, 0.0, 0.0, -297.1440907888521, 0.0]
['beep', 0.0, -1658.7676595172477, 0.0, 0.0, 0.0, 0.0, -298.90987860082134, 0.0]
['beep', 0.0, -1657.9182932279462, 0.0, 0.0, 0.0, 0.0, -300.8991838573437, 0.0]
['beep', 0.0, -1659.0358804507114, 0.0, 0.0, 0.0, 0.0, -303.06730306950845, 0.0]
['beep', 0.0, -1658.5217903282394, 0.0, 0.0, 0.0, 0.0, -298.61930592290236, 0.0]
['beep', 0.0, -1659.9746537178344, 0.0, 0.0, 0.0, 0.0, -295.08773029896383, 0.0]
['beep', 0.0, -1661.2934066406974, 0.0, 0.0, 0.0, 0.0, -296.49589019964816, 0.0]
['beep', 0.0, -1660.8016682626808, 0.0, 0.0, 0.0, 0.0, -301.05564606853085, 0.0]
['beep', 0.0, -1660.8016682626808, 0.0, 0.0, 0.0, 0.0, -303.42493098079336, 0.0]
['beep', 0.0, -1660.533447329217, 0.0, 0.0, 0.0, 0.0, -301.70384665773474, 0.0]
['beep', 0.0, -1660.8016682626808, 0.0, 0.0, 0.0, 0.0, -301.8379571244666, 0.0]
['beep', 0.0, -1662.0980694410885, 0.0, 0.0, 0.0, 0.0, -301.70384665773474, 0.0]
['beep', 0.0, -1660.533447329217, 0.0, 0.0, 0.0, 0.0, -303.67080016980174, 0.0]
['beep', 0.0, -1659.371156617541, 0.0, 0.0, 0.0, 0.0, -304.6989804147459, 0.0]
['beep', 0.0, -1660.4440403513959, 0.0, 0.0, 0.0, 0.0, -303.9390211032654, 0.0]
['beep', 0.0, -1661.2934066406974, 0.0, 0.0, 0.0, 0.0, -305.0119048371202, 0.0]
['beep', 0.0, -1662.723918285837, 0.0, 0.0, 0.0, 0.0, -305.3918844928604, 0.0]
['beep', 0.0, -1660.6899095404042, 0.0, 0.0, 0.0, 0.0, -305.7718641486006, 0.0]
['beep', 0.0, -1662.9250839859349, 0.0, 0.0, 0.0, 0.0, -306.308306015528, 0.0]
['beep', 0.0, -1664.176781675432, 0.0, 0.0, 0.0, 0.0, -304.40840773682686, 0.0]
['beep', 0.0, -1663.238008408309, 0.0, 0.0, 0.0, 0.0, -302.9108408583213, 0.0]
['beep', 0.0, -1664.176781675432, 0.0, 0.0, 0.0, 0.0, -303.8496141254442, 0.0]
['beep', 0.0, -1661.1592961739657, 0.0, 0.0, 0.0, 0.0, -307.56000370502517, 0.0]
['beep', 0.0, -1661.0922409405996, 0.0, 0.0, 0.0, 0.0, -306.57652694899167, 0.0]
['beep', 0.0, -1662.7015665413817, 0.0, 0.0, 0.0, 0.0, -305.6377536818688, 0.0]
['beep', 0.0, -1663.9979677197896, 0.0, 0.0, 0.0, 0.0, -305.1013118149414, 0.0]
['beep', 0.0, -1662.6792147969265, 0.0, 0.0, 0.0, 0.0, -303.8496141254442, 0.0]
['beep', 0.0, -1662.276883396731, 0.0, 0.0, 0.0, 0.0, -304.87779437038836, 0.0]
['beep', 0.0, -1662.8803804970241, 0.0, 0.0, 0.0, 0.0, -304.85544262593305, 0.0]
['beep', 0.0, -1664.2214851643428, 0.0, 0.0, 0.0, 0.0, -304.34135250346094, 0.0]
['beep', 0.0, -1664.9590927313677, 0.0, 0.0, 0.0, 0.0, -304.6766286702906, 0.0]
['beep', 0.0, -1665.0261479647338, 0.0, 0.0, 0.0, 0.0, -305.436587981771, 0.0]
['beep', 0.0, -1663.1038979415773, 0.0, 0.0, 0.0, 0.0, -305.3471810039498, 0.0]
['beep', 0.0, -1660.1534676734768, 0.0, 0.0, 0.0, 0.0, -305.7495124041453, 0.0]
['beep', 0.0, -1660.824020007136, 0.0, 0.0, 0.0, 0.0, -303.9166693588101, 0.0]
['beep', 0.0, -1662.0980694410885, 0.0, 0.0, 0.0, 0.0, -302.01677108010904, 0.0]
['beep', 0.0, -1661.7180897853482, 0.0, 0.0, 0.0, 0.0, -301.45797746872637, 0.0]
['beep', 0.0, -1661.4498688518845, 0.0, 0.0, 0.0, 0.0, -300.5415559460588, 0.0]
['beep', 0.0, -1663.3050636416751, 0.0, 0.0, 0.0, 0.0, -301.79325363555597, 0.0]
['beep', 0.0, -1664.534409586717, 0.0, 0.0, 0.0, 0.0, -301.36857049090514, 0.0]
['beep', 0.0, -1665.5178863427504, 0.0, 0.0, 0.0, 0.0, -300.78742513506717, 0.0]
['beep', 0.0, -1666.7248805433371, 0.0, 0.0, 0.0, 0.0, -300.4968524571481, 0.0]
['beep', 0.0, -1667.4177846214516, 0.0, 0.0, 0.0, 0.0, -300.0945210569526, 0.0]
['beep', 0.0, -1667.6860055549153, 0.0, 0.0, 0.0, 0.0, -299.60278267893585, 0.0]
['beep', 0.0, -1665.85316250958, 0.0, 0.0, 0.0, 0.0, -302.9331926027766, 0.0]
['beep', 0.0, -1667.2389706658091, 0.0, 0.0, 0.0, 0.0, -301.2791635130839, 0.0]
['beep', 0.0, -1666.8142875211583, 0.0, 0.0, 0.0, 0.0, -300.4074454793269, 0.0]
['beep', 0.0, -1666.2554939097756, 0.0, 0.0, 0.0, 0.0, -301.2344600241733, 0.0]
['beep', 0.0, -1666.9707497323454, 0.0, 0.0, 0.0, 0.0, -301.05564606853085, 0.0]
['beep', 0.0, -1667.7754125327365, 0.0, 0.0, 0.0, 0.0, -299.64748616784647, 0.0]
['beep', 0.0, -1667.6860055549153, 0.0, 0.0, 0.0, 0.0, -299.7368931456677, 0.0]
['beep', 0.0, -1667.7977642771918, 0.0, 0.0, 0.0, 0.0, -298.30638150052806, 0.0]
['beep', 0.0, -1668.8259445221358, 0.0, 0.0, 0.0, 0.0, -296.42883496628224, 0.0]
['beep', 0.0, -1665.5625898316612, 0.0, 0.0, 0.0, 0.0, -297.501718700137, 0.0]
['beep', 0.0, -1666.791935776703, 0.0, 0.0, 0.0, 0.0, -297.0546838110309, 0.0]
['beep', 0.0, -1667.1719154324433, 0.0, 0.0, 0.0, 0.0, -296.2723727550951, 0.0]
['beep', 0.0, -1667.7754125327365, 0.0, 0.0, 0.0, 0.0, -295.73593088816773, 0.0]
['beep', 0.0, -1667.6860055549153, 0.0, 0.0, 0.0, 0.0, -298.4851954561705, 0.0]
['beep', 0.0, -1666.0766799541332, 0.0, 0.0, 0.0, 0.0, -297.8593466114219, 0.0]
['beep', 0.0, -1667.4177846214516, 0.0, 0.0, 0.0, 0.0, -295.0653785545085, 0.0]
['beep', 0.0, -1668.915351499957, 0.0, 0.0, 0.0, 0.0, -294.5736401764918, 0.0]
['beep', 0.0, -1669.5859038336164, 0.0, 0.0, 0.0, 0.0, -294.7301023876789, 0.0]
['beep', 0.0, -1667.7083572993706, 0.0, 0.0, 0.0, 0.0, -295.73593088816773, 0.0]
['beep', 0.0, -1667.3730811325408, 0.0, 0.0, 0.0, 0.0, -297.0323320665756, 0.0]
['beep', 0.0, -1668.602427077583, 0.0, 0.0, 0.0, 0.0, -295.19948902124037, 0.0]
['beep', 0.0, -1668.8259445221358, 0.0, 0.0, 0.0, 0.0, -295.2218407656957, 0.0]
['beep', 0.0, -1667.4848398548174, 0.0, 0.0, 0.0, 0.0, -298.26167801161745, 0.0]
['beep', 0.0, -1666.94839798789, 0.0, 0.0, 0.0, 0.0, -298.0381605670644, 0.0]
['beep', 0.0, -1665.8084590206695, 0.0, 0.0, 0.0, 0.0, -299.96041059022076, 0.0]
['beep', 0.0, -1664.6238165645382, 0.0, 0.0, 0.0, 0.0, -301.9720675911984, 0.0]
['beep', 0.0, -1668.244799166298, 0.0, 0.0, 0.0, 0.0, -302.2402885246621, 0.0]
['beep', 0.0, -1674.1903631914097, 0.0, 0.0, 0.0, 0.0, -311.1809863067849, 0.0]
['beep', 0.0, -1676.7831655482253, 0.0, 0.0, 0.0, 0.0, -321.8204166675111, 0.0]
['beep', 0.0, -1674.9726742473454, 0.0, 0.0, 0.0, 0.0, -327.14013184787416, 0.0]
['beep', 0.0, -1670.7928980342028, 0.0, 0.0, 0.0, 0.0, -332.28103307259477, 0.0]
['beep', 0.0, -1674.1680114469543, 0.0, 0.0, 0.0, 0.0, -337.6007482529579, 0.0]
['beep', 0.0, -1676.6267033370382, 0.0, 0.0, 0.0, 0.0, -345.982652423698, 0.0]
['beep', 0.0, -1677.9901597488117, 0.0, 0.0, 0.0, 0.0, -354.31985310552756, 0.0]
['beep', 0.0, -1677.7666423042588, 0.0, 0.0, 0.0, 0.0, -363.305254376561, 0.0]
['beep', 0.0, -1678.6383603380157, 0.0, 0.0, 0.0, 0.0, -371.5977515694799, 0.0]
['beep', 0.0, -1680.8288312946358, 0.0, 0.0, 0.0, 0.0, -378.75030979517817, 0.0]
['beep', 0.0, -1682.4605086398733, 0.0, 0.0, 0.0, 0.0, -385.88051627642113, 0.0]
['beep', 0.0, -1683.2875231847195, 0.0, 0.0, 0.0, 0.0, -394.6424001029015, 0.0]
['beep', 0.0, -1684.5392208742169, 0.0, 0.0, 0.0, 0.0, -401.75025483968915, 0.0]
['beep', 0.0, -1685.0309592522335, 0.0, 0.0, 0.0, 0.0, -407.24878397569466, 0.0]
['beep', 0.0, -1684.2709999407532, 0.0, 0.0, 0.0, 0.0, -412.52379566714717, 0.0]
['beep', 0.0, -1685.8132703081692, 0.0, 0.0, 0.0, 0.0, -416.88238583593204, 0.0]
['beep', 0.0, -1686.7520435752922, 0.0, 0.0, 0.0, 0.0, -421.30803123808283, 0.0]
['beep', 0.0, -1687.8025755646916, 0.0, 0.0, 0.0, 0.0, -425.51015919568056, 0.0]
['beep', 0.0, -1688.4731278983509, 0.0, 0.0, 0.0, 0.0, -428.4158859748705, 0.0]
['beep', 0.0, -1687.2661336977642, 0.0, 0.0, 0.0, 0.0, -432.03686857663024, 0.0]
['beep', 0.0, -1689.6577703544822, 0.0, 0.0, 0.0, 0.0, -436.6636796788788, 0.0]
['beep', 0.0, -1687.2437819533088, 0.0, 0.0, 0.0, 0.0, -442.22926404825023, 0.0]
['beep', 0.0, -1688.8084040651804, 0.0, 0.0, 0.0, 0.0, -446.1631710723843, 0.0]
['beep', 0.0, -1692.183517477932, 0.0, 0.0, 0.0, 0.0, -450.4547060078032, 0.0]
['beep', 0.0, -1693.9046018009903, 0.0, 0.0, 0.0, 0.0, -455.2156275767836, 0.0]
['beep', 0.0, -1694.3963401790072, 0.0, 0.0, 0.0, 0.0, -460.4682875237808, 0.0]
['beep', 0.0, -1693.368159934063, 0.0, 0.0, 0.0, 0.0, -466.4585550378031, 0.0]
['beep', 0.0, -1694.6869128569263, 0.0, 0.0, 0.0, 0.0, -472.493526040736, 0.0]
['beep', 0.0, -1698.3078954586858, 0.0, 0.0, 0.0, 0.0, -478.66260751040073, 0.0]
['beep', 0.0, -1703.1805757499428, 0.0, 0.0, 0.0, 0.0, -483.7811569906661, 0.0]
['beep', 0.0, -1700.0960350151106, 0.0, 0.0, 0.0, 0.0, -490.911363471909, 0.0]
['beep', 0.0, -1696.6315146245379, 0.0, 0.0, 0.0, 0.0, -496.94633447484193, 0.0]
['beep', 0.0, -1699.2243169813535, 0.0, 0.0, 0.0, 0.0, -502.80249152213236, 0.0]
['beep', 0.0, -1701.079511771144, 0.0, 0.0, 0.0, 0.0, -506.17760493488373, 0.0]
['beep', 0.0, -1704.5887356506273, 0.0, 0.0, 0.0, 0.0, -511.34085790405965, 0.0]
['beep', 0.0, -1704.2534594837975, 0.0, 0.0, 0.0, 0.0, -515.2524131837384, 0.0]
['beep', 0.0, -1702.2194507383647, 0.0, 0.0, 0.0, 0.0, -517.7111050738222, 0.0]
['beep', 0.0, -1703.1358722610323, 0.0, 0.0, 0.0, 0.0, -520.4156661529144, 0.0]
['beep', 0.0, -1702.5770786496496, 0.0, 0.0, 0.0, 0.0, -521.3991429089479, 0.0]
['beep', 0.0, -1704.6334391395378, 0.0, 0.0, 0.0, 0.0, -520.460369641825, 0.0]
['beep', 0.0, -1704.0075902947892, 0.0, 0.0, 0.0, 0.0, -519.5662998636127, 0.0]
['beep', 0.0, -1702.0406367827222, 0.0, 0.0, 0.0, 0.0, -520.1474452194507, 0.0]
['beep', 0.0, -1702.822947838658, 0.0, 0.0, 0.0, 0.0, -520.3709626640037, 0.0]
['beep', 0.0, -1702.5547269051942, 0.0, 0.0, 0.0, 0.0, -519.4768928857915, 0.0]
['beep', 0.0, -1703.2923344722194, 0.0, 0.0, 0.0, 0.0, -519.7004103303445, 0.0]
['beep', 0.0, -1703.560555405683, 0.0, 0.0, 0.0, 0.0, -519.879224285987, 0.0]
['beep', 0.0, -1702.9570583053899, 0.0, 0.0, 0.0, 0.0, -519.7674655637104, 0.0]
['beep', 0.0, -1702.3982646940071, 0.0, 0.0, 0.0, 0.0, -519.298078930149, 0.0]
['beep', 0.0, -1702.6888373719262, 0.0, 0.0, 0.0, 0.0, -518.8063405521323, 0.0]
['beep', 0.0, -1701.9959332938115, 0.0, 0.0, 0.0, 0.0, -518.5381196186686, 0.0]
['beep', 0.0, -1702.3982646940071, 0.0, 0.0, 0.0, 0.0, -518.426360896392, 0.0]
['beep', 0.0, -1702.3982646940071, 0.0, 0.0, 0.0, 0.0, -518.6722300854004, 0.0]
['beep', 0.0, -1702.2865059717305, 0.0, 0.0, 0.0, 0.0, -519.2533754412384, 0.0]
['beep', 0.0, -1702.174747249454, 0.0, 0.0, 0.0, 0.0, -518.6498783409451, 0.0]
['beep', 0.0, -1703.1582240054875, 0.0, 0.0, 0.0, 0.0, -517.9569742628306, 0.0]
['beep', 0.0, -1701.437139682429, 0.0, 0.0, 0.0, 0.0, -517.5099393737245, 0.0]
['beep', 0.0, -1701.2583257267866, 0.0, 0.0, 0.0, 0.0, -516.4817591287803, 0.0]
['beep', 0.0, -1701.012456537778, 0.0, 0.0, 0.0, 0.0, -516.2358899397719, 0.0]
['beep', 0.0, -1701.5041949157949, 0.0, 0.0, 0.0, 0.0, -516.3252969175932, 0.0]
['beep', 0.0, -1702.3759129495518, 0.0, 0.0, 0.0, 0.0, -515.4088753949255, 0.0]
['beep', 0.0, -1702.9570583053899, 0.0, 0.0, 0.0, 0.0, -515.297116672649, 0.0]
['beep', 0.0, -1701.7724158492586, 0.0, 0.0, 0.0, 0.0, -516.2582416842272, 0.0]
['beep', 0.0, -1701.2136222378758, 0.0, 0.0, 0.0, 0.0, -516.1241312174953, 0.0]
['beep', 0.0, -1702.0182850382669, 0.0, 0.0, 0.0, 0.0, -515.297116672649, 0.0]
['beep', 0.0, -1701.7277123603478, 0.0, 0.0, 0.0, 0.0, -514.5148056167133, 0.0]
['beep', 0.0, -1701.4594914268841, 0.0, 0.0, 0.0, 0.0, -514.8500817835429, 0.0]
['beep', 0.0, -1700.5207181597614, 0.0, 0.0, 0.0, 0.0, -515.1630062059172, 0.0]
['beep', 0.0, -1700.4536629263955, 0.0, 0.0, 0.0, 0.0, -514.1795294498837, 0.0]
['beep', 0.0, -1701.370084449063, 0.0, 0.0, 0.0, 0.0, -514.7830265501769, 0.0]
['beep', 0.0, -1701.9735815493564, 0.0, 0.0, 0.0, 0.0, -514.6042125945345, 0.0]
['beep', 0.0, -1701.2806774712417, 0.0, 0.0, 0.0, 0.0, -514.4030468944368, 0.0]
['beep', 0.0, -1701.370084449063, 0.0, 0.0, 0.0, 0.0, -514.0454189831519, 0.0]
['beep', 0.0, -1702.3535612050964, 0.0, 0.0, 0.0, 0.0, -513.6654393274116, 0.0]
['beep', 0.0, -1701.6159536380715, 0.0, 0.0, 0.0, 0.0, -515.4088753949255, 0.0]
['beep', 0.0, -1703.0241135387557, 0.0, 0.0, 0.0, 0.0, -516.1911864508613, 0.0]
['beep', 0.0, -1707.203889751898, 0.0, 0.0, 0.0, 0.0, -517.1523114624395, 0.0]
['beep', 0.0, -1707.2709449852641, 0.0, 0.0, 0.0, 0.0, -518.493416129758, 0.0]
['beep', 0.0, -1707.181538007443, 0.0, 0.0, 0.0, 0.0, -519.8345207970764, 0.0]
['beep', 0.0, -1706.823910096158, 0.0, 0.0, 0.0, 0.0, -518.8286922965875, 0.0]
['beep', 0.0, -1705.7733781067584, 0.0, 0.0, 0.0, 0.0, -519.6780585858892, 0.0]
['beep', 0.0, -1706.533337418239, 0.0, 0.0, 0.0, 0.0, -519.879224285987, 0.0]
['beep', 0.0, -1706.5556891626943, 0.0, 0.0, 0.0, 0.0, -519.3874859079702, 0.0]
['beep', 0.0, -1706.466282184873, 0.0, 0.0, 0.0, 0.0, -520.2592039417272, 0.0]
['beep', 0.0, -1706.9133170739792, 0.0, 0.0, 0.0, 0.0, -520.1474452194507, 0.0]
['beep', 0.0, -1707.2709449852641, 0.0, 0.0, 0.0, 0.0, -520.0356864971741, 0.0]
['beep', 0.0, -1707.695628129915, 0.0, 0.0, 0.0, 0.0, -519.2533754412384, 0.0]
['beep', 0.0, -1707.5391659187278, 0.0, 0.0, 0.0, 0.0, -518.1804917073837, 0.0]
['beep', 0.0, -1707.0027240518004, 0.0, 0.0, 0.0, 0.0, -518.426360896392, 0.0]
['beep', 0.0, -1707.7403316188256, 0.0, 0.0, 0.0, 0.0, -518.9851545077747, 0.0]
['beep', 0.0, -1707.4050554519958, 0.0, 0.0, 0.0, 0.0, -518.9180992744087, 0.0]
['beep', 0.0, -1707.2709449852641, 0.0, 0.0, 0.0, 0.0, -519.4992446302467, 0.0]
['beep', 0.0, -1707.1368345185322, 0.0, 0.0, 0.0, 0.0, -519.7451138192552, 0.0]
['beep', 0.0, -1708.4555874413954, 0.0, 0.0, 0.0, 0.0, -519.0522097411406, 0.0]
['beep', 0.0, -1708.276773485753, 0.0, 0.0, 0.0, 0.0, -518.7839888076769, 0.0]
['beep', 0.0, -1708.2544217412976, 0.0, 0.0, 0.0, 0.0, -518.4710643853026, 0.0]
['beep', 0.0, -1707.047427540711, 0.0, 0.0, 0.0, 0.0, -518.3816574074814, 0.0]
['beep', 0.0, -1707.181538007443, 0.0, 0.0, 0.0, 0.0, -518.6498783409451, 0.0]
['beep', 0.0, -1708.0085525522893, 0.0, 0.0, 0.0, 0.0, -517.5993463515457, 0.0]
['beep', 0.0, -1707.7403316188256, 0.0, 0.0, 0.0, 0.0, -516.973497506797, 0.0]
['beep', 0.0, -1707.6509246410042, 0.0, 0.0, 0.0, 0.0, -516.5264626176909, 0.0]
['beep', 0.0, -1706.4886339293282, 0.0, 0.0, 0.0, 0.0, -517.3087736736267, 0.0]
['beep', 0.0, -1707.181538007443, 0.0, 0.0, 0.0, 0.0, -517.7111050738222, 0.0]
['beep', 0.0, -1707.9638490633786, 0.0, 0.0, 0.0, 0.0, -517.3981806514479, 0.0]
['beep', 0.0, -1707.203889751898, 0.0, 0.0, 0.0, 0.0, -516.8393870400652, 0.0]
['beep', 0.0, -1707.2485932408088, 0.0, 0.0, 0.0, 0.0, -516.3029451731378, 0.0]
['beep', 0.0, -1708.0979595301105, 0.0, 0.0, 0.0, 0.0, -515.5653376061127, 0.0]
['beep', 0.0, -1707.3156484741746, 0.0, 0.0, 0.0, 0.0, -515.4759306282915, 0.0]
['beep', 0.0, -1707.8073868521915, 0.0, 0.0, 0.0, 0.0, -516.2582416842272, 0.0]
['beep', 0.0, -1708.276773485753, 0.0, 0.0, 0.0, 0.0, -516.5711661066015, 0.0]
['beep', 0.0, -1707.852090341102, 0.0, 0.0, 0.0, 0.0, -515.6994480728446, 0.0]
['beep', 0.0, -1708.0309042967444, 0.0, 0.0, 0.0, 0.0, -514.2912881721602, 0.0]
['beep', 0.0, -1708.142663019021, 0.0, 0.0, 0.0, 0.0, -514.3136399166156, 0.0]
['beep', 0.0, -1708.0085525522893, 0.0, 0.0, 0.0, 0.0, -515.1630062059172, 0.0]
['beep', 0.0, -1708.7238083748591, 0.0, 0.0, 0.0, 0.0, -515.6100410950233, 0.0]
['beep', 0.0, -1709.3273054751523, 0.0, 0.0, 0.0, 0.0, -514.5371573611686, 0.0]
['beep', 0.0, -1709.6402298975265, 0.0, 0.0, 0.0, 0.0, -514.4701021278026, 0.0]
['beep', 0.0, -1709.5061194307948, 0.0, 0.0, 0.0, 0.0, -514.8724335279982, 0.0]
['beep', 0.0, -1708.6791048859484, 0.0, 0.0, 0.0, 0.0, -514.8500817835429, 0.0]
['beep', 0.0, -1708.43323569694, 0.0, 0.0, 0.0, 0.0, -514.6936195723557, 0.0]
['beep', 0.0, -1709.3496572196077, 0.0, 0.0, 0.0, 0.0, -515.1853579503725, 0.0]
['beep', 0.0, -1709.5508229197053, 0.0, 0.0, 0.0, 0.0, -515.3194684171043, 0.0]
['beep', 0.0, -1708.9920293083228, 0.0, 0.0, 0.0, 0.0, -515.4088753949255, 0.0]
['beep', 0.0, -1709.0590845416887, 0.0, 0.0, 0.0, 0.0, -515.654744583934, 0.0]
['beep', 0.0, -1709.2378984973311, 0.0, 0.0, 0.0, 0.0, -516.2805934286826, 0.0]
['beep', 0.0, -1709.953154319901, 0.0, 0.0, 0.0, 0.0, -516.7723318066993, 0.0]
['beep', 0.0, -1709.9308025754456, 0.0, 0.0, 0.0, 0.0, -516.6382213399675, 0.0]
['beep', 0.0, -1710.109616531088, 0.0, 0.0, 0.0, 0.0, -517.7111050738222, 0.0]
['beep', 0.0, -1709.4837676863394, 0.0, 0.0, 0.0, 0.0, -517.0629044846182, 0.0]
['beep', 0.0, -1708.3661804635742, 0.0, 0.0, 0.0, 0.0, -516.0794277285847, 0.0]
['beep', 0.0, -1709.2602502417865, 0.0, 0.0, 0.0, 0.0, -515.0288957391854, 0.0]
['beep', 0.0, -1708.8132153526803, 0.0, 0.0, 0.0, 0.0, -513.8889567719647, 0.0]
['beep', 0.0, -1705.080474028644, 0.0, 0.0, 0.0, 0.0, -512.9948869937524, 0.0]
['beep', 0.0, -1701.9959332938115, 0.0, 0.0, 0.0, 0.0, -510.37973289248146, 0.0]
['beep', 0.0, -1705.7957298512138, 0.0, 0.0, 0.0, 0.0, -507.943392746853, 0.0]
['beep', 0.0, -1707.2932967297193, 0.0, 0.0, 0.0, 0.0, -507.76457879121057, 0.0]
['beep', 0.0, -1707.7403316188256, 0.0, 0.0, 0.0, 0.0, -505.55175609013514, 0.0]
['beep', 0.0, -1708.9920293083228, 0.0, 0.0, 0.0, 0.0, -505.64116306795637, 0.0]
['beep', 0.0, -1708.5673461636718, 0.0, 0.0, 0.0, 0.0, -505.93173574587536, 0.0]
['beep', 0.0, -1709.0367327972333, 0.0, 0.0, 0.0, 0.0, -507.20578517982784, 0.0]
['beep', 0.0, -1708.7014566304038, 0.0, 0.0, 0.0, 0.0, -508.2563171692273, 0.0]
['beep', 0.0, -1707.4721106853617, 0.0, 0.0, 0.0, 0.0, -508.39042763595916, 0.0]
['beep', 0.0, -1708.7014566304038, 0.0, 0.0, 0.0, 0.0, -509.2174421808055, 0.0]
['beep', 0.0, -1708.7685118637696, 0.0, 0.0, 0.0, 0.0, -509.1950904363502, 0.0]
['beep', 0.0, -1708.4779391858506, 0.0, 0.0, 0.0, 0.0, -508.99392473625244, 0.0]
['beep', 0.0, -1708.2991252302081, 0.0, 0.0, 0.0, 0.0, -508.8374625250653, 0.0]
['beep', 0.0, -1709.5284711752502, 0.0, 0.0, 0.0, 0.0, -509.1950904363502, 0.0]
['beep', 0.0, -1709.8637473420797, 0.0, 0.0, 0.0, 0.0, -509.99975323674124, 0.0]
['beep', 0.0, -1709.2155467528758, 0.0, 0.0, 0.0, 0.0, -509.7762357921882, 0.0]
['beep', 0.0, -1710.3331339756412, 0.0, 0.0, 0.0, 0.0, -509.68682881436695, 0.0]
['beep', 0.0, -1711.1154450315769, 0.0, 0.0, 0.0, 0.0, -509.2621456697161, 0.0]
['beep', 0.0, -1711.0036863093003, 0.0, 0.0, 0.0, 0.0, -509.2397939252608, 0.0]
['beep', 0.0, -1709.7743403642585, 0.0, 0.0, 0.0, 0.0, -509.2174421808055, 0.0]
['beep', 0.0, -1709.8413955976243, 0.0, 0.0, 0.0, 0.0, -508.39042763595916, 0.0]
['beep', 0.0, -1709.439064197429, 0.0, 0.0, 0.0, 0.0, -508.39042763595916, 0.0]
['beep', 0.0, -1709.3273054751523, 0.0, 0.0, 0.0, 0.0, -508.74805554724406, 0.0]
['beep', 0.0, -1709.2155467528758, 0.0, 0.0, 0.0, 0.0, -508.233965424772, 0.0]
['beep', 0.0, -1710.24372699782, 0.0, 0.0, 0.0, 0.0, -508.63629682496753, 0.0]
['beep', 0.0, -1710.5119479312837, 0.0, 0.0, 0.0, 0.0, -508.30102065813793, 0.0]
['beep', 0.0, -1710.5790031646495, 0.0, 0.0, 0.0, 0.0, -507.65282006893403, 0.0]
['beep', 0.0, -1711.3166107316747, 0.0, 0.0, 0.0, 0.0, -507.3175439021044, 0.0]
['beep', 0.0, -1710.1990235089092, 0.0, 0.0, 0.0, 0.0, -508.34572414704854, 0.0]
['beep', 0.0, -1711.0260380537557, 0.0, 0.0, 0.0, 0.0, -509.35155264753735, 0.0]
['beep', 0.0, -1710.62370665356, 0.0, 0.0, 0.0, 0.0, -509.5974218365457, 0.0]
['beep', 0.0, -1710.1543200199987, 0.0, 0.0, 0.0, 0.0, -510.200918936839, 0.0]
['beep', 0.0, -1709.7966921087138, 0.0, 0.0, 0.0, 0.0, -510.1562154479284, 0.0]
['beep', 0.0, -1710.1766717644539, 0.0, 0.0, 0.0, 0.0, -509.08333171407367, 0.0]
['beep', 0.0, -1709.5061194307948, 0.0, 0.0, 0.0, 0.0, -508.7927590361547, 0.0]
['beep', 0.0, -1707.9638490633786, 0.0, 0.0, 0.0, 0.0, -509.7762357921882, 0.0]
['beep', 0.0, -1707.8297385966468, 0.0, 0.0, 0.0, 0.0, -510.67030557040044, 0.0]
['beep', 0.0, -1708.947325819412, 0.0, 0.0, 0.0, 0.0, -510.67030557040044, 0.0]
['beep', 0.0, -1708.947325819412, 0.0, 0.0, 0.0, 0.0, -510.1562154479284, 0.0]
['beep', 0.0, -1708.5673461636718, 0.0, 0.0, 0.0, 0.0, -510.35738114802615, 0.0]
['beep', 0.0, -1708.5449944192167, 0.0, 0.0, 0.0, 0.0, -510.2232706812943, 0.0]
['beep', 0.0, -1707.8073868521915, 0.0, 0.0, 0.0, 0.0, -510.2679741702049, 0.0]
['beep', 0.0, -1707.8744420855573, 0.0, 0.0, 0.0, 0.0, -509.03862822516305, 0.0]
['beep', 0.0, -1708.5896979081272, 0.0, 0.0, 0.0, 0.0, -508.8821660139759, 0.0]
['beep', 0.0, -1709.304953730697, 0.0, 0.0, 0.0, 0.0, -509.97740149228594, 0.0]
['beep', 0.0, -1708.5226426747613, 0.0, 0.0, 0.0, 0.0, -509.7985875366435, 0.0]
['beep', 0.0, -1709.2602502417865, 0.0, 0.0, 0.0, 0.0, -509.2397939252608, 0.0]
['beep', 0.0, -1709.9308025754456, 0.0, 0.0, 0.0, 0.0, -507.8763375134871, 0.0]
['beep', 0.0, -1712.7024188879036, 0.0, 0.0, 0.0, 0.0, -508.74805554724406, 0.0]
['beep', 0.0, -1712.6353636545377, 0.0, 0.0, 0.0, 0.0, -508.70335205833345, 0.0]
['beep', 0.0, -1703.761721105781, 0.0, 0.0, 0.0, 0.0, -498.2203839087944, 0.0]
['beep', 0.0, -1706.689799629426, 0.0, 0.0, 0.0, 0.0, -481.3895203339482, 0.0]
['beep', 0.0, -1705.7063228733925, 0.0, 0.0, 0.0, 0.0, -463.7092904698003, 0.0]
['beep', 0.0, -1701.1242152600546, 0.0, 0.0, 0.0, 0.0, -447.2807582951496, 0.0]
['beep', 0.0, -1702.3312094606413, 0.0, 0.0, 0.0, 0.0, -428.99703133070847, 0.0]
['beep', 0.0, -1703.113520516577, 0.0, 0.0, 0.0, 0.0, -411.58502240002423, 0.0]
['beep', 0.0, -1702.8452995831133, 0.0, 0.0, 0.0, 0.0, -391.44610064579257, 0.0]
['beep', 0.0, -1700.632476882038, 0.0, 0.0, 0.0, 0.0, -370.12253643542965, 0.0]
['beep', 0.0, -1701.7277123603478, 0.0, 0.0, 0.0, 0.0, -349.84950421446615, 0.0]
['beep', 0.0, -1702.1523955049988, 0.0, 0.0, 0.0, 0.0, -327.72127720371213, 0.0]
['beep', 0.0, -1698.531412903239, 0.0, 0.0, 0.0, 0.0, -307.3364862604721, 0.0]
['beep', 0.0, -1697.659694869482, 0.0, 0.0, 0.0, 0.0, -289.43273895177117, 0.0]
['beep', 0.0, -1699.7831105927362, 0.0, 0.0, 0.0, 0.0, -269.76320383110095, 0.0]
['beep', 0.0, -1699.2243169813535, 0.0, 0.0, 0.0, 0.0, -256.1286397133636, 0.0]
['beep', 0.0, -1701.2136222378758, 0.0, 0.0, 0.0, 0.0, -239.2530726496068, 0.0]
['beep', 0.0, -1700.7665873487697, 0.0, 0.0, 0.0, 0.0, -225.88672946533316, 0.0]
['beep', 0.0, -1701.437139682429, 0.0, 0.0, 0.0, 0.0, -215.9178514382662, 0.0]
['beep', 0.0, -1699.3137239591747, 0.0, 0.0, 0.0, 0.0, -205.68075247773558, 0.0]
['beep', 0.0, -1699.8725175705574, 0.0, 0.0, 0.0, 0.0, -200.24927857509599, 0.0]
['beep', 0.0, -1699.4478344259066, 0.0, 0.0, 0.0, 0.0, -193.23083081612955, 0.0]
['beep', 0.0, -1697.369122191563, 0.0, 0.0, 0.0, 0.0, -190.25804880357373, 0.0]
['beep', 0.0, -1696.720921602359, 0.0, 0.0, 0.0, 0.0, -188.2910952915067, 0.0]
['beep', 0.0, -1696.6315146245379, 0.0, 0.0, 0.0, 0.0, -187.77700516903462, 0.0]
['beep', 0.0, -1696.1844797354318, 0.0, 0.0, 0.0, 0.0, -188.0452261024983, 0.0]
['beep', 0.0, -1694.597505879105, 0.0, 0.0, 0.0, 0.0, -187.88876389131116, 0.0]
['beep', 0.0, -1695.178651234943, 0.0, 0.0, 0.0, 0.0, -189.69925519219103, 0.0]
['beep', 0.0, -1692.9434767894122, 0.0, 0.0, 0.0, 0.0, -190.74978718159048, 0.0]
['beep', 0.0, -1690.9541715328899, 0.0, 0.0, 0.0, 0.0, -193.52140349404854, 0.0]
['beep', 0.0, -1690.753005832792, 0.0, 0.0, 0.0, 0.0, -198.34938029639488, 0.0]
['beep', 0.0, -1688.0260930092447, 0.0, 0.0, 0.0, 0.0, -204.18318559923003, 0.0]
['beep', 0.0, -1686.6849883419263, 0.0, 0.0, 0.0, 0.0, -211.7157234806685, 0.0]
['beep', 0.0, -1686.1261947305436, 0.0, 0.0, 0.0, 0.0, -217.7730462280567, 0.0]
['beep', 0.0, -1686.4614708973731, 0.0, 0.0, 0.0, 0.0, -222.01987767456507, 0.0]
['beep', 0.0, -1685.2321249523313, 0.0, 0.0, 0.0, 0.0, -228.05484867749797, 0.0]
['beep', 0.0, -1683.4216336514514, 0.0, 0.0, 0.0, 0.0, -234.71566852517947, 0.0]
['beep', 0.0, -1682.3487499175967, 0.0, 0.0, 0.0, 0.0, -241.57765407295872, 0.0]
['beep', 0.0, -1682.2146394508648, 0.0, 0.0, 0.0, 0.0, -244.37162212987212, 0.0]
['beep', 0.0, -1682.8181365511582, 0.0, 0.0, 0.0, 0.0, -247.63497682034694, 0.0]
['beep', 0.0, -1682.728729573337, 0.0, 0.0, 0.0, 0.0, -253.98287224565416, 0.0]
['beep', 0.0, -1682.0581772396777, 0.0, 0.0, 0.0, 0.0, -258.632035092358, 0.0]
['beep', 0.0, -1681.2535144392866, 0.0, 0.0, 0.0, 0.0, -262.3871281608496, 0.0]
['beep', 0.0, -1680.918238272457, 0.0, 0.0, 0.0, 0.0, -263.3929566613384, 0.0]
['beep', 0.0, -1680.0688719831553, 0.0, 0.0, 0.0, 0.0, -264.95757877320995, 0.0]
['beep', 0.0, -1680.2029824498873, 0.0, 0.0, 0.0, 0.0, -267.97506427467636, 0.0]
['beep', 0.0, -1679.308912671675, 0.0, 0.0, 0.0, 0.0, -271.05960500950874, 0.0]
['beep', 0.0, -1679.018339993756, 0.0, 0.0, 0.0, 0.0, -273.85357306642214, 0.0]
['beep', 0.0, -1679.3983196494962, 0.0, 0.0, 0.0, 0.0, -276.3346167009612, 0.0]
['beep', 0.0, -1680.0018167497894, 0.0, 0.0, 0.0, 0.0, -277.921590557288, 0.0]
['beep', 0.0, -1679.5994853495938, 0.0, 0.0, 0.0, 0.0, -277.38514869036067, 0.0]
['beep', 0.0, -1679.7559475607811, 0.0, 0.0, 0.0, 0.0, -278.70390161322376, 0.0]
['beep', 0.0, -1678.1019184710883, 0.0, 0.0, 0.0, 0.0, -281.2967039700394, 0.0]
['beep', 0.0, -1678.504249871284, 0.0, 0.0, 0.0, 0.0, -282.5931051484472, 0.0]
['beep', 0.0, -1678.504249871284, 0.0, 0.0, 0.0, 0.0, -283.308360971017, 0.0]
['beep', 0.0, -1678.079566726633, 0.0, 0.0, 0.0, 0.0, -283.06249178200864, 0.0]
['beep', 0.0, -1677.8336975376246, 0.0, 0.0, 0.0, 0.0, -286.23643949466225, 0.0]
['beep', 0.0, -1678.727767315837, 0.0, 0.0, 0.0, 0.0, -288.58337266246946, 0.0]
['beep', 0.0, -1677.8336975376246, 0.0, 0.0, 0.0, 0.0, -287.24226799515105, 0.0]
['beep', 0.0, -1677.5431248597056, 0.0, 0.0, 0.0, 0.0, -287.24226799515105, 0.0]
['beep', 0.0, -1677.0960899705995, 0.0, 0.0, 0.0, 0.0, -288.24809649563986, 0.0]
['beep', 0.0, -1677.5207731152504, 0.0, 0.0, 0.0, 0.0, -290.5726779189918, 0.0]
['beep', 0.0, -1678.3477876600966, 0.0, 0.0, 0.0, 0.0, -291.42204420829347, 0.0]
['beep', 0.0, -1678.0348632377224, 0.0, 0.0, 0.0, 0.0, -291.53380293057, 0.0]
['beep', 0.0, -1677.341959159608, 0.0, 0.0, 0.0, 0.0, -292.4502244532376, 0.0]
['beep', 0.0, -1677.207848692876, 0.0, 0.0, 0.0, 0.0, -293.277238998084, 0.0]
['beep', 0.0, -1678.3030841711861, 0.0, 0.0, 0.0, 0.0, -293.45605295372644, 0.0]
['beep', 0.0, -1678.012511493267, 0.0, 0.0, 0.0, 0.0, -294.14895703184095, 0.0]
['beep', 0.0, -1677.3196074151526, 0.0, 0.0, 0.0, 0.0, -295.53476518806997, 0.0]
['beep', 0.0, -1678.079566726633, 0.0, 0.0, 0.0, 0.0, -296.7641111331119, 0.0]
['beep', 0.0, -1679.2195056938538, 0.0, 0.0, 0.0, 0.0, -297.99345707815377, 0.0]
['beep', 0.0, -1677.9678080043566, 0.0, 0.0, 0.0, 0.0, -297.54642218904763, 0.0]
['beep', 0.0, -1680.5606103611722, 0.0, 0.0, 0.0, 0.0, -295.53476518806997, 0.0]
['beep', 0.0, -1682.661674339971, 0.0, 0.0, 0.0, 0.0, -296.8535181109331, 0.0]
['beep', 0.0, -1675.531467858728, 0.0, 0.0, 0.0, 0.0, -294.2383640096622, 0.0]
['beep', 0.0, -1673.117479457555, 0.0, 0.0, 0.0, 0.0, -290.2597534966175, 0.0]
['beep', 0.0, -1674.95032250289, 0.0, 0.0, 0.0, 0.0, -289.03040755157565, 0.0]
['beep', 0.0, -1676.6490550814933, 0.0, 0.0, 0.0, 0.0, -287.17521276178513, 0.0]
['beep', 0.0, -1676.2020201923872, 0.0, 0.0, 0.0, 0.0, -288.20339300672924, 0.0]
['beep', 0.0, -1674.793860291703, 0.0, 0.0, 0.0, 0.0, -290.8408988524555, 0.0]
['beep', 0.0, -1675.9114475144684, 0.0, 0.0, 0.0, 0.0, -292.36081747541635, 0.0]
['beep', 0.0, -1676.917276014957, 0.0, 0.0, 0.0, 0.0, -293.79132912055604, 0.0]
['beep', 0.0, -1676.693758570404, 0.0, 0.0, 0.0, 0.0, -296.89822159984374, 0.0]
['beep', 0.0, -1676.2243719368425, 0.0, 0.0, 0.0, 0.0, -298.0381605670644, 0.0]
['beep', 0.0, -1676.3137789146638, 0.0, 0.0, 0.0, 0.0, -297.00998032212027, 0.0]
['beep', 0.0, -1675.8667440255576, 0.0, 0.0, 0.0, 0.0, -299.4016169788381, 0.0]
['beep', 0.0, -1676.917276014957, 0.0, 0.0, 0.0, 0.0, -297.7699396336007, 0.0]
['beep', 0.0, -1675.0620812251666, 0.0, 0.0, 0.0, 0.0, -297.59112567795825, 0.0]
['beep', 0.0, -1674.0562527246777, 0.0, 0.0, 0.0, 0.0, -297.3452564889499, 0.0]
['beep', 0.0, -1674.7491568027922, 0.0, 0.0, 0.0, 0.0, -298.4404919672599, 0.0]
['beep', 0.0, -1674.0339009802224, 0.0, 0.0, 0.0, 0.0, -298.7757681340895, 0.0]
['beep', 0.0, -1674.3915288915073, 0.0, 0.0, 0.0, 0.0, -298.66400941181297, 0.0]
['beep', 0.0, -1673.631569580027, 0.0, 0.0, 0.0, 0.0, -300.0945210569526, 0.0]
['beep', 0.0, -1673.4527556243845, 0.0, 0.0, 0.0, 0.0, -298.1499192893409, 0.0]
['beep', 0.0, -1674.4138806359626, 0.0, 0.0, 0.0, 0.0, -298.7310646451789, 0.0]
['beep', 0.0, -1674.1233079580436, 0.0, 0.0, 0.0, 0.0, -299.93805884576545, 0.0]
['beep', 0.0, -1674.2574184247756, 0.0, 0.0, 0.0, 0.0, -300.5639076905141, 0.0]
['beep', 0.0, -1673.4527556243845, 0.0, 0.0, 0.0, 0.0, -300.8768321128884, 0.0]
['beep', 0.0, -1673.3857003910186, 0.0, 0.0, 0.0, 0.0, -298.373436733894, 0.0]
['beep', 0.0, -1673.340996902108, 0.0, 0.0, 0.0, 0.0, -300.5415559460588, 0.0]
['beep', 0.0, -1673.340996902108, 0.0, 0.0, 0.0, 0.0, -300.049817568042, 0.0]
['beep', 0.0, -1674.5032876137839, 0.0, 0.0, 0.0, 0.0, -299.6698379123018, 0.0]
['beep', 0.0, -1673.0504242241889, 0.0, 0.0, 0.0, 0.0, -300.67566641279063, 0.0]
['beep', 0.0, -1672.826906779636, 0.0, 0.0, 0.0, 0.0, -300.25098326813975, 0.0]
['beep', 0.0, -1673.3857003910186, 0.0, 0.0, 0.0, 0.0, -299.1333960453744, 0.0]
['beep', 0.0, -1673.9668457468565, 0.0, 0.0, 0.0, 0.0, -299.1557477898297, 0.0]
['beep', 0.0, -1673.8774387690353, 0.0, 0.0, 0.0, 0.0, -300.8321286239778, 0.0]
['beep', 0.0, -1673.5198108577504, 0.0, 0.0, 0.0, 0.0, -301.8156053800113, 0.0]
['beep', 0.0, -1672.2234096793427, 0.0, 0.0, 0.0, 0.0, -302.5085094581258, 0.0]
['beep', 0.0, -1673.4080521354738, 0.0, 0.0, 0.0, 0.0, -302.2849920135727, 0.0]
['beep', 0.0, -1673.4527556243845, 0.0, 0.0, 0.0, 0.0, -303.02259958059784, 0.0]
['beep', 0.0, -1672.111650957066, 0.0, 0.0, 0.0, 0.0, -302.39675073584925, 0.0]
['beep', 0.0, -1673.564514346661, 0.0, 0.0, 0.0, 0.0, -301.68149491327944, 0.0]
['beep', 0.0, -1673.8103835356694, 0.0, 0.0, 0.0, 0.0, -299.8263001234889, 0.0]
['beep', 0.0, -1674.078604469133, 0.0, 0.0, 0.0, 0.0, -302.4638059692152, 0.0]
['beep', 0.0, -1674.5479911026946, 0.0, 0.0, 0.0, 0.0, -304.87779437038836, 0.0]
['beep', 0.0, -1674.8385637806134, 0.0, 0.0, 0.0, 0.0, -302.8437856249554, 0.0]
['beep', 0.0, -1673.273941668742, 0.0, 0.0, 0.0, 0.0, -303.40257923633806, 0.0]
['beep', 0.0, -1672.3575201460744, 0.0, 0.0, 0.0, 0.0, -302.1732332912962, 0.0]
['beep', 0.0, -1671.7093195568705, 0.0, 0.0, 0.0, 0.0, -301.10034955744146, 0.0]
['beep', 0.0, -1671.6199125790492, 0.0, 0.0, 0.0, 0.0, -302.1732332912962, 0.0]
['beep', 0.0, -1672.2681131682532, 0.0, 0.0, 0.0, 0.0, -302.8437856249554, 0.0]
['beep', 0.0, -1672.8716102685464, 0.0, 0.0, 0.0, 0.0, -303.40257923633806, 0.0]
['beep', 0.0, -1673.4751073688399, 0.0, 0.0, 0.0, 0.0, -302.2849920135727, 0.0]
['beep', 0.0, -1672.1563544459766, 0.0, 0.0, 0.0, 0.0, -301.34621874644984, 0.0]
['beep', 0.0, -1669.7647177892588, 0.0, 0.0, 0.0, 0.0, -303.06730306950845, 0.0]
['beep', 0.0, -1667.2836741547196, 0.0, 0.0, 0.0, 0.0, -301.6144396799135, 0.0]
['beep', 0.0, -1665.4284793649292, 0.0, 0.0, 0.0, 0.0, -300.6533146683353, 0.0]
['beep', 0.0, -1664.8920374980019, 0.0, 0.0, 0.0, 0.0, -302.2626402691174, 0.0]
['beep', 0.0, -1666.2554939097756, 0.0, 0.0, 0.0, 0.0, -300.51920420160343, 0.0]
['beep', 0.0, -1667.4177846214516, 0.0, 0.0, 0.0, 0.0, -300.67566641279063, 0.0]
['beep', 0.0, -1668.3565578885746, 0.0, 0.0, 0.0, 0.0, -300.9438873462543, 0.0]
['beep', 0.0, -1670.3458631450967, 0.0, 0.0, 0.0, 0.0, -301.05564606853085, 0.0]
['beep', 0.0, -1670.3458631450967, 0.0, 0.0, 0.0, 0.0, -302.39675073584925, 0.0]
['beep', 0.0, -1668.9824067333232, 0.0, 0.0, 0.0, 0.0, -302.5085094581258, 0.0]
['beep', 0.0, -1669.0271102222337, 0.0, 0.0, 0.0, 0.0, -304.1625385478185, 0.0]
['beep', 0.0, -1669.4964968557952, 0.0, 0.0, 0.0, 0.0, -304.7213321592012, 0.0]
['beep', 0.0, -1669.697662555893, 0.0, 0.0, 0.0, 0.0, -302.888489113866, 0.0]
['beep', 0.0, -1668.110688699566, 0.0, 0.0, 0.0, 0.0, -305.45893972622633, 0.0]
['beep', 0.0, -1668.6918340554041, 0.0, 0.0, 0.0, 0.0, -304.2295937811844, 0.0]
['beep', 0.0, -1668.3565578885746, 0.0, 0.0, 0.0, 0.0, -303.9613728477207, 0.0]
['beep', 0.0, -1668.5577235886722, 0.0, 0.0, 0.0, 0.0, -305.6377536818688, 0.0]
['beep', 0.0, -1668.6918340554041, 0.0, 0.0, 0.0, 0.0, -305.90597461533247, 0.0]
['beep', 0.0, -1668.4236131219404, 0.0, 0.0, 0.0, 0.0, -305.0566083260308, 0.0]
['beep', 0.0, -1668.2671509107533, 0.0, 0.0, 0.0, 0.0, -303.9166693588101, 0.0]
['beep', 0.0, -1669.0941654555995, 0.0, 0.0, 0.0, 0.0, -304.02842808108664, 0.0]
['beep', 0.0, -1668.8706480110466, 0.0, 0.0, 0.0, 0.0, -303.02259958059784, 0.0]
['beep', 0.0, -1668.4236131219404, 0.0, 0.0, 0.0, 0.0, -304.54251820355876, 0.0]
['beep', 0.0, -1669.5412003447057, 0.0, 0.0, 0.0, 0.0, -305.7495124041453, 0.0]
['beep', 0.0, -1669.0047584777783, 0.0, 0.0, 0.0, 0.0, -305.0119048371202, 0.0]
['beep', 0.0, -1669.3623863890632, 0.0, 0.0, 0.0, 0.0, -306.9788583491872, 0.0]
['beep', 0.0, -1668.2671509107533, 0.0, 0.0, 0.0, 0.0, -305.6154019374135, 0.0]
['beep', 0.0, -1669.0941654555995, 0.0, 0.0, 0.0, 0.0, -304.81073913702244, 0.0]
['beep', 0.0, -1668.8035927776807, 0.0, 0.0, 0.0, 0.0, -305.90597461533247, 0.0]
['beep', 0.0, -1669.6082555780717, 0.0, 0.0, 0.0, 0.0, -306.6882856712682, 0.0]
['beep', 0.0, -1670.0329387227225, 0.0, 0.0, 0.0, 0.0, -304.31900075900563, 0.0]
['beep', 0.0, -1670.1670491894542, 0.0, 0.0, 0.0, 0.0, -303.8272623809889, 0.0]
['beep', 0.0, -1670.1223457005437, 0.0, 0.0, 0.0, 0.0, -305.7048089152347, 0.0]
['beep', 0.0, -1670.8152497786582, 0.0, 0.0, 0.0, 0.0, -305.90597461533247, 0.0]
['beep', 0.0, -1669.8988282559906, 0.0, 0.0, 0.0, 0.0, -305.3471810039498, 0.0]
['beep', 0.0, -1670.3458631450967, 0.0, 0.0, 0.0, 0.0, -304.81073913702244, 0.0]
['beep', 0.0, -1669.2953311556973, 0.0, 0.0, 0.0, 0.0, -305.54834670404756, 0.0]
['beep', 0.0, -1669.4294416224293, 0.0, 0.0, 0.0, 0.0, -305.7718641486006, 0.0]
['beep', 0.0, -1670.1894009339096, 0.0, 0.0, 0.0, 0.0, -305.52599495959225, 0.0]
['beep', 0.0, -1670.6811393119265, 0.0, 0.0, 0.0, 0.0, -306.2636025266174, 0.0]
['beep', 0.0, -1669.4741451113398, 0.0, 0.0, 0.0, 0.0, -307.3588380049274, 0.0]
['beep', 0.0, -1669.1612206889656, 0.0, 0.0, 0.0, 0.0, -307.20237579374026, 0.0]
['beep', 0.0, -1669.8094212781693, 0.0, 0.0, 0.0, 0.0, -308.16350080531845, 0.0]
['beep', 0.0, -1668.75888928877, 0.0, 0.0, 0.0, 0.0, -308.0517420830419, 0.0]
['beep', 0.0, -1669.3176829001527, 0.0, 0.0, 0.0, 0.0, -308.0740938274972, 0.0]
['beep', 0.0, -1668.7141857998595, 0.0, 0.0, 0.0, 0.0, -308.4987769721481, 0.0]
['beep', 0.0, -1668.892999755502, 0.0, 0.0, 0.0, 0.0, -308.5211287166034, 0.0]
['beep', 0.0, -1668.5130200997617, 0.0, 0.0, 0.0, 0.0, -309.0575705835308, 0.0]
['beep', 0.0, -1668.892999755502, 0.0, 0.0, 0.0, 0.0, -309.5269572170922, 0.0]
['beep', 0.0, -1669.3623863890632, 0.0, 0.0, 0.0, 0.0, -309.4822537281816, 0.0]
['beep', 0.0, -1669.1388689445103, 0.0, 0.0, 0.0, 0.0, -308.92346011679894, 0.0]
['beep', 0.0, -1669.697662555893, 0.0, 0.0, 0.0, 0.0, -307.53765196056986, 0.0]
['beep', 0.0, -1668.7141857998595, 0.0, 0.0, 0.0, 0.0, -307.6047071939358, 0.0]
['beep', 0.0, -1668.8482962665912, 0.0, 0.0, 0.0, 0.0, -307.7164659162123, 0.0]
['beep', 0.0, -1669.0718137111444, 0.0, 0.0, 0.0, 0.0, -309.1916810502626, 0.0]
['beep', 0.0, -1668.8259445221358, 0.0, 0.0, 0.0, 0.0, -307.89527987185477, 0.0]
['beep', 0.0, -1668.5130200997617, 0.0, 0.0, 0.0, 0.0, -308.2529077831397, 0.0]
['beep', 0.0, -1668.401261377485, 0.0, 0.0, 0.0, 0.0, -309.5046054726369, 0.0]
['beep', 0.0, -1669.4294416224293, 0.0, 0.0, 0.0, 0.0, -309.8845851283771, 0.0]
['beep', 0.0, -1669.85412476708, 0.0, 0.0, 0.0, 0.0, -308.8787566278883, 0.0]
['beep', 0.0, -1670.6140840785604, 0.0, 0.0, 0.0, 0.0, -308.45407348323744, 0.0]
['beep', 0.0, -1672.625741079538, 0.0, 0.0, 0.0, 0.0, -309.37049500590507, 0.0]
['beep', 0.0, -1667.820116021647, 0.0, 0.0, 0.0, 0.0, -309.59401245045814, 0.0]
['beep', 0.0, -1662.433345607918, 0.0, 0.0, 0.0, 0.0, -308.43172173878213, 0.0]
['beep', 0.0, -1664.8026305201806, 0.0, 0.0, 0.0, 0.0, -308.7669979056118, 0.0]
['beep', 0.0, -1666.3672526320522, 0.0, 0.0, 0.0, 0.0, -308.5211287166034, 0.0]
['beep', 0.0, -1667.2836741547196, 0.0, 0.0, 0.0, 0.0, -309.32579151699446, 0.0]
['beep', 0.0, -1667.4848398548174, 0.0, 0.0, 0.0, 0.0, -310.8457101399553, 0.0]
['beep', 0.0, -1667.015453221256, 0.0, 0.0, 0.0, 0.0, -311.60566945143574, 0.0]
['beep', 0.0, -1667.8648195105577, 0.0, 0.0, 0.0, 0.0, -312.5220909741034, 0.0]
['beep', 0.0, -1668.7812410332253, 0.0, 0.0, 0.0, 0.0, -310.59984095094694, 0.0]
['beep', 0.0, -1668.401261377485, 0.0, 0.0, 0.0, 0.0, -311.4492072402486, 0.0]
['beep', 0.0, -1667.6413020660045, 0.0, 0.0, 0.0, 0.0, -312.27622178509495, 0.0]
['beep', 0.0, -1666.635473565516, 0.0, 0.0, 0.0, 0.0, -311.56096596252513, 0.0]
['beep', 0.0, -1667.015453221256, 0.0, 0.0, 0.0, 0.0, -313.8631956414218, 0.0]
['beep', 0.0, -1667.9765782328343, 0.0, 0.0, 0.0, 0.0, -314.06436134151954, 0.0]
['beep', 0.0, -1667.8424677661023, 0.0, 0.0, 0.0, 0.0, -311.62802119589105, 0.0]
['beep', 0.0, -1667.2389706658091, 0.0, 0.0, 0.0, 0.0, -311.1809863067849, 0.0]
['beep', 0.0, -1667.7530607882811, 0.0, 0.0, 0.0, 0.0, -310.4433787397598, 0.0]
['beep', 0.0, -1667.7530607882811, 0.0, 0.0, 0.0, 0.0, -310.0633990840196, 0.0]
['beep', 0.0, -1667.1719154324433, 0.0, 0.0, 0.0, 0.0, -311.5386142180698, 0.0]
['beep', 0.0, -1666.3001973986861, 0.0, 0.0, 0.0, 0.0, -311.7174281737123, 0.0]
['beep', 0.0, -1665.2496654092868, 0.0, 0.0, 0.0, 0.0, -312.857367140933, 0.0]
['beep', 0.0, -1665.7861072762141, 0.0, 0.0, 0.0, 0.0, -312.5891462074693, 0.0]
['beep', 0.0, -1665.2049619203763, 0.0, 0.0, 0.0, 0.0, -313.2596985411285, 0.0]
['beep', 0.0, -1665.2273136648314, 0.0, 0.0, 0.0, 0.0, -313.77378866360056, 0.0]
['beep', 0.0, -1664.6461683089935, 0.0, 0.0, 0.0, 0.0, -314.48904448617037, 0.0]
['beep', 0.0, -1663.886208997513, 0.0, 0.0, 0.0, 0.0, -314.1761200637961, 0.0]
['beep', 0.0, -1665.0037962202784, 0.0, 0.0, 0.0, 0.0, -313.2820502855838, 0.0]
['beep', 0.0, -1665.5178863427504, 0.0, 0.0, 0.0, 0.0, -313.10323632994135, 0.0]
['beep', 0.0, -1663.4838775973176, 0.0, 0.0, 0.0, 0.0, -313.10323632994135, 0.0]
['beep', 0.0, -1664.2214851643428, 0.0, 0.0, 0.0, 0.0, -313.0138293521201, 0.0]
['beep', 0.0, -1663.6850432974152, 0.0, 0.0, 0.0, 0.0, -313.6396781968687, 0.0]
['beep', 0.0, -1664.2214851643428, 0.0, 0.0, 0.0, 0.0, -314.243175297162, 0.0]
['beep', 0.0, -1664.1097264420662, 0.0, 0.0, 0.0, 0.0, -313.68438168577933, 0.0]
['beep', 0.0, -1662.8803804970241, 0.0, 0.0, 0.0, 0.0, -313.03618109657543, 0.0]
['beep', 0.0, -1662.9250839859349, 0.0, 0.0, 0.0, 0.0, -313.3491055189497, 0.0]
['beep', 0.0, -1663.8638572530576, 0.0, 0.0, 0.0, 0.0, -314.2655270416173, 0.0]
['beep', 0.0, -1663.7520985307813, 0.0, 0.0, 0.0, 0.0, -313.43851249677095, 0.0]
['beep', 0.0, -1664.1320781865215, 0.0, 0.0, 0.0, 0.0, -314.6008032084469, 0.0]
['beep', 0.0, -1664.0873746976108, 0.0, 0.0, 0.0, 0.0, -313.81849215251117, 0.0]
['beep', 0.0, -1662.9921392193007, 0.0, 0.0, 0.0, 0.0, -313.9302508747877, 0.0]
['beep', 0.0, -1662.9474357303902, 0.0, 0.0, 0.0, 0.0, -315.5842799644804, 0.0]
['beep', 0.0, -1662.7686217747478, 0.0, 0.0, 0.0, 0.0, -314.5784514639916, 0.0]
['beep', 0.0, -1663.7968020196918, 0.0, 0.0, 0.0, 0.0, -314.5113962306257, 0.0]
['beep', 0.0, -1664.467354353351, 0.0, 0.0, 0.0, 0.0, -313.8855473858771, 0.0]
['beep', 0.0, -1663.2827118972198, 0.0, 0.0, 0.0, 0.0, -313.5055677301369, 0.0]
['beep', 0.0, -1662.9697874748454, 0.0, 0.0, 0.0, 0.0, -313.5055677301369, 0.0]
['beep', 0.0, -1663.729746786326, 0.0, 0.0, 0.0, 0.0, -313.79614040805586, 0.0]
['beep', 0.0, -1663.081546197122, 0.0, 0.0, 0.0, 0.0, -312.9691258632095, 0.0]
['beep', 0.0, -1662.1204211855438, 0.0, 0.0, 0.0, 0.0, -313.75143691914525, 0.0]
['beep', 0.0, -1663.528581086228, 0.0, 0.0, 0.0, 0.0, -314.243175297162, 0.0]
['beep', 0.0, -1666.9707497323454, 0.0, 0.0, 0.0, 0.0, -313.5055677301369, 0.0]
['beep', 0.0, -1666.657825309971, 0.0, 0.0, 0.0, 0.0, -312.566794463014, 0.0]
['beep', 0.0, -1665.4508311093846, 0.0, 0.0, 0.0, 0.0, -312.49973922964807, 0.0]
['beep', 0.0, -1665.5178863427504, 0.0, 0.0, 0.0, 0.0, -312.6785531852905, 0.0]
['beep', 0.0, -1666.277845654231, 0.0, 0.0, 0.0, 0.0, -313.5949747079581, 0.0]
['beep', 0.0, -1665.0932031980997, 0.0, 0.0, 0.0, 0.0, -314.15376831934077, 0.0]
['beep', 0.0, -1665.7861072762141, 0.0, 0.0, 0.0, 0.0, -313.5055677301369, 0.0]
['beep', 0.0, -1666.3672526320522, 0.0, 0.0, 0.0, 0.0, -314.9807828641871, 0.0]
['beep', 0.0, -1665.2496654092868, 0.0, 0.0, 0.0, 0.0, -313.81849215251117, 0.0]
['beep', 0.0, -1665.5178863427504, 0.0, 0.0, 0.0, 0.0, -313.8408438969665, 0.0]
['beep', 0.0, -1666.3896043765074, 0.0, 0.0, 0.0, 0.0, -315.80779740903347, 0.0]
['beep', 0.0, -1665.7861072762141, 0.0, 0.0, 0.0, 0.0, -313.08088458548605, 0.0]
['beep', 0.0, -1666.657825309971, 0.0, 0.0, 0.0, 0.0, -312.566794463014, 0.0]
['beep', 0.0, -1666.8813427545242, 0.0, 0.0, 0.0, 0.0, -315.0031346086424, 0.0]
['beep', 0.0, -1666.635473565516, 0.0, 0.0, 0.0, 0.0, -316.210128809229, 0.0]
['beep', 0.0, -1665.8084590206695, 0.0, 0.0, 0.0, 0.0, -316.6571636983352, 0.0]
['beep', 0.0, -1664.9590927313677, 0.0, 0.0, 0.0, 0.0, -317.662992198824, 0.0]
['beep', 0.0, -1664.8026305201806, 0.0, 0.0, 0.0, 0.0, -316.85832939843294, 0.0]
['beep', 0.0, -1665.115554942555, 0.0, 0.0, 0.0, 0.0, -317.7747509211005, 0.0]
['beep', 0.0, -1664.5567613311723, 0.0, 0.0, 0.0, 0.0, -318.0429718545642, 0.0]
['beep', 0.0, -1664.1544299309767, 0.0, 0.0, 0.0, 0.0, -316.85832939843294, 0.0]
['beep', 0.0, -1663.1486014304878, 0.0, 0.0, 0.0, 0.0, -316.7689224206117, 0.0]
['beep', 0.0, -1663.3497671305856, 0.0, 0.0, 0.0, 0.0, -317.0371433540754, 0.0]
['beep', 0.0, -1664.467354353351, 0.0, 0.0, 0.0, 0.0, -317.6406404543687, 0.0]
['beep', 0.0, -1664.0650229531554, 0.0, 0.0, 0.0, 0.0, -317.52888173209215, 0.0]
['beep', 0.0, -1664.243836908798, 0.0, 0.0, 0.0, 0.0, -318.24413755466196, 0.0]
['beep', 0.0, -1663.7744502752364, 0.0, 0.0, 0.0, 0.0, -318.1100270879301, 0.0]
['beep', 0.0, -1665.1602584314655, 0.0, 0.0, 0.0, 0.0, -317.88650964337705, 0.0]
['beep', 0.0, -1665.7190520428483, 0.0, 0.0, 0.0, 0.0, -316.9700881207095, 0.0]
['beep', 0.0, -1665.85316250958, 0.0, 0.0, 0.0, 0.0, -317.59593696545807, 0.0]
['beep', 0.0, -1664.5567613311723, 0.0, 0.0, 0.0, 0.0, -318.89233814386586, 0.0]
['beep', 0.0, -1663.2827118972198, 0.0, 0.0, 0.0, 0.0, -317.81945441001113, 0.0]
['beep', 0.0, -1662.858028752569, 0.0, 0.0, 0.0, 0.0, -318.3782480213938, 0.0]
['beep', 0.0, -1662.9474357303902, 0.0, 0.0, 0.0, 0.0, -318.19943406575135, 0.0]
['beep', 0.0, -1663.953264230879, 0.0, 0.0, 0.0, 0.0, -318.19943406575135, 0.0]
['beep', 0.0, -1664.690871797904, 0.0, 0.0, 0.0, 0.0, -318.55706197703626, 0.0]
['beep', 0.0, -1665.696700298393, 0.0, 0.0, 0.0, 0.0, -317.26066079862846, 0.0]
['beep', 0.0, -1665.7637555317588, 0.0, 0.0, 0.0, 0.0, -317.7523991766452, 0.0]
['beep', 0.0, -1665.0037962202784, 0.0, 0.0, 0.0, 0.0, -318.1323788323854, 0.0]
['beep', 0.0, -1664.6461683089935, 0.0, 0.0, 0.0, 0.0, -318.49000674367034, 0.0]
['beep', 0.0, -1664.2885403977086, 0.0, 0.0, 0.0, 0.0, -318.80293116604463, 0.0]
['beep', 0.0, -1664.8026305201806, 0.0, 0.0, 0.0, 0.0, -319.92051838880997, 0.0]
