['beep', 0.0, -1286.1417277028238, 0.0, 0.0, 0.0, 0.0, -378.6161993284463, 0.0]
['beep', 0.0, -1285.649989324807, 0.0, 0.0, 0.0, 0.0, -378.1468126948849, 0.0]
['beep', 0.0, -1285.6946928137174, 0.0, 0.0, 0.0, 0.0, -377.5433155945916, 0.0]
['beep', 0.0, -1285.4711753691645, 0.0, 0.0, 0.0, 0.0, -378.72795805072286, 0.0]
['beep', 0.0, -1286.745224803117, 0.0, 0.0, 0.0, 0.0, -378.72795805072286, 0.0]
['beep', 0.0, -1285.4041201357986, 0.0, 0.0, 0.0, 0.0, -378.5491440950804, 0.0]
['beep', 0.0, -1286.097024213913, 0.0, 0.0, 0.0, 0.0, -378.34797839498265, 0.0]
['beep', 0.0, -1285.8288032804494, 0.0, 0.0, 0.0, 0.0, -377.5209638501363, 0.0]
['beep', 0.0, -1284.9794369911476, 0.0, 0.0, 0.0, 0.0, -378.01270222815305, 0.0]
['beep', 0.0, -1284.1077189573907, 0.0, 0.0, 0.0, 0.0, -378.63855107290163, 0.0]
['beep', 0.0, -1281.6490270673069, 0.0, 0.0, 0.0, 0.0, -377.43155687231507, 0.0]
['beep', 0.0, -1281.5596200894856, 0.0, 0.0, 0.0, 0.0, -377.00687372766424, 0.0]
['beep', 0.0, -1281.0455299670136, 0.0, 0.0, 0.0, 0.0, -376.96217023875363, 0.0]
['beep', 0.0, -1281.4925648561198, 0.0, 0.0, 0.0, 0.0, -376.5598388385581, 0.0]
['beep', 0.0, -1283.4595183681868, 0.0, 0.0, 0.0, 0.0, -377.07392896103016, 0.0]
['beep', 0.0, -1283.8618497683824, 0.0, 0.0, 0.0, 0.0, -377.72212955023406, 0.0]
['beep', 0.0, -1285.001788735603, 0.0, 0.0, 0.0, 0.0, -377.5880190835022, 0.0]
['beep', 0.0, -1286.8793352698488, 0.0, 0.0, 0.0, 0.0, -378.39268188389326, 0.0]
['beep', 0.0, -1286.0523207250026, 0.0, 0.0, 0.0, 0.0, -379.5102691066586, 0.0]
['beep', 0.0, -1285.806451535994, 0.0, 0.0, 0.0, 0.0, -378.70560630626755, 0.0]
['beep', 0.0, -1285.8958585138153, 0.0, 0.0, 0.0, 0.0, -378.6161993284463, 0.0]
['beep', 0.0, -1286.2534864251002, 0.0, 0.0, 0.0, 0.0, -378.68325456181225, 0.0]
['beep', 0.0, -1286.812280036483, 0.0, 0.0, 0.0, 0.0, -377.72212955023406, 0.0]
['beep', 0.0, -1286.9910939921253, 0.0, 0.0, 0.0, 0.0, -378.9067720063653, 0.0]
['beep', 0.0, -1288.0416259815247, 0.0, 0.0, 0.0, 0.0, -378.39268188389326, 0.0]
['beep', 0.0, -1287.1475562033124, 0.0, 0.0, 0.0, 0.0, -378.2362196727061, 0.0]
['beep', 0.0, -1286.9463905032148, 0.0, 0.0, 0.0, 0.0, -378.2585714171614, 0.0]
['beep', 0.0, -1287.773405048061, 0.0, 0.0, 0.0, 0.0, -378.30327490607203, 0.0]
['beep', 0.0, -1288.1086812148908, 0.0, 0.0, 0.0, 0.0, -378.9291237508206, 0.0]
['beep', 0.0, -1287.616942836874, 0.0, 0.0, 0.0, 0.0, -378.6161993284463, 0.0]
['beep', 0.0, -1287.1699079477678, 0.0, 0.0, 0.0, 0.0, -379.42086212883737, 0.0]
['beep', 0.0, -1286.4099486362875, 0.0, 0.0, 0.0, 0.0, -380.04671097358596, 0.0]
['beep', 0.0, -1287.1922596922232, 0.0, 0.0, 0.0, 0.0, -380.337283651505, 0.0]
['beep', 0.0, -1288.2204399371672, 0.0, 0.0, 0.0, 0.0, -379.8455452734882, 0.0]
['beep', 0.0, -1286.6781695697512, 0.0, 0.0, 0.0, 0.0, -378.4597371172592, 0.0]
['beep', 0.0, -1287.6392945813293, 0.0, 0.0, 0.0, 0.0, -379.1526411953737, 0.0]
['beep', 0.0, -1286.1864311917343, 0.0, 0.0, 0.0, 0.0, -379.62202782893513, 0.0]
['beep', 0.0, -1285.9182102582706, 0.0, 0.0, 0.0, 0.0, -379.64437957339044, 0.0]
['beep', 0.0, -1286.58876259193, 0.0, 0.0, 0.0, 0.0, -379.95730399576473, 0.0]
['beep', 0.0, -1287.1475562033124, 0.0, 0.0, 0.0, 0.0, -379.5549725955692, 0.0]
['beep', 0.0, -1287.326370158955, 0.0, 0.0, 0.0, 0.0, -380.2925801625944, 0.0]
['beep', 0.0, -1286.8793352698488, 0.0, 0.0, 0.0, 0.0, -380.337283651505, 0.0]
['beep', 0.0, -1288.3769021483545, 0.0, 0.0, 0.0, 0.0, -379.2196964287396, 0.0]
['beep', 0.0, -1287.4381288812315, 0.0, 0.0, 0.0, 0.0, -380.02435922913065, 0.0]
['beep', 0.0, -1288.5110126150862, 0.0, 0.0, 0.0, 0.0, -379.1079377064631, 0.0]
['beep', 0.0, -1287.9298672592483, 0.0, 0.0, 0.0, 0.0, -379.1079377064631, 0.0]
['beep', 0.0, -1287.6616463257847, 0.0, 0.0, 0.0, 0.0, -379.73378655121167, 0.0]
['beep', 0.0, -1286.7228730586617, 0.0, 0.0, 0.0, 0.0, -378.2138679282508, 0.0]
['beep', 0.0, -1286.4323003807426, 0.0, 0.0, 0.0, 0.0, -378.7726615396335, 0.0]
['beep', 0.0, -1286.2758381695555, 0.0, 0.0, 0.0, 0.0, -378.88442026191, 0.0]
['beep', 0.0, -1285.15825094679, 0.0, 0.0, 0.0, 0.0, -378.72795805072286, 0.0]
['beep', 0.0, -1285.0241404800583, 0.0, 0.0, 0.0, 0.0, -379.33145515101614, 0.0]
['beep', 0.0, -1286.164079447279, 0.0, 0.0, 0.0, 0.0, -379.8455452734882, 0.0]
['beep', 0.0, -1285.2476579246113, 0.0, 0.0, 0.0, 0.0, -379.4432138732927, 0.0]
['beep', 0.0, -1284.8006230355052, 0.0, 0.0, 0.0, 0.0, -379.2196964287396, 0.0]
['beep', 0.0, -1284.9570852466925, 0.0, 0.0, 0.0, 0.0, -379.8902487623988, 0.0]
['beep', 0.0, -1285.5382306025303, 0.0, 0.0, 0.0, 0.0, -379.2420481731949, 0.0]
['beep', 0.0, -1285.4041201357986, 0.0, 0.0, 0.0, 0.0, -378.99617898418654, 0.0]
['beep', 0.0, -1286.1417277028238, 0.0, 0.0, 0.0, 0.0, -378.99617898418654, 0.0]
['beep', 0.0, -1285.9852654916365, 0.0, 0.0, 0.0, 0.0, -378.70560630626755, 0.0]
['beep', 0.0, -1287.3040184144998, 0.0, 0.0, 0.0, 0.0, -378.5491440950804, 0.0]
['beep', 0.0, -1286.3652451473768, 0.0, 0.0, 0.0, 0.0, -379.1526411953737, 0.0]
['beep', 0.0, -1286.4770038696533, 0.0, 0.0, 0.0, 0.0, -379.01853072864185, 0.0]
['beep', 0.0, -1285.9182102582706, 0.0, 0.0, 0.0, 0.0, -379.01853072864185, 0.0]
['beep', 0.0, -1285.0241404800583, 0.0, 0.0, 0.0, 0.0, -379.1302894509184, 0.0]
['beep', 0.0, -1285.8735067693601, 0.0, 0.0, 0.0, 0.0, -380.47139411823684, 0.0]
['beep', 0.0, -1285.9852654916365, 0.0, 0.0, 0.0, 0.0, -379.8231935290329, 0.0]
['beep', 0.0, -1284.487698613131, 0.0, 0.0, 0.0, 0.0, -379.39851038438206, 0.0]
['beep', 0.0, -1284.0406637240249, 0.0, 0.0, 0.0, 0.0, -380.15846969586255, 0.0]
['beep', 0.0, -1285.4935271136198, 0.0, 0.0, 0.0, 0.0, -380.8960772628877, 0.0]
['beep', 0.0, -1286.2534864251002, 0.0, 0.0, 0.0, 0.0, -381.3207604075385, 0.0]
['beep', 0.0, -1286.3205416584663, 0.0, 0.0, 0.0, 0.0, -380.80667028506645, 0.0]
['beep', 0.0, -1286.231134680645, 0.0, 0.0, 0.0, 0.0, -379.1526411953737, 0.0]
['beep', 0.0, -1285.784099791539, 0.0, 0.0, 0.0, 0.0, -379.4432138732927, 0.0]
['beep', 0.0, -1285.4264718802538, 0.0, 0.0, 0.0, 0.0, -380.18082144031786, 0.0]
['beep', 0.0, -1285.8288032804494, 0.0, 0.0, 0.0, 0.0, -379.756138295667, 0.0]
['beep', 0.0, -1286.1864311917343, 0.0, 0.0, 0.0, 0.0, -380.6949115627899, 0.0]
['beep', 0.0, -1286.6558178252958, 0.0, 0.0, 0.0, 0.0, -380.56080109605807, 0.0]
['beep', 0.0, -1287.0581492254912, 0.0, 0.0, 0.0, 0.0, -379.9349522513094, 0.0]
['beep', 0.0, -1287.549887603508, 0.0, 0.0, 0.0, 0.0, -380.47139411823684, 0.0]
['beep', 0.0, -1288.1757364482567, 0.0, 0.0, 0.0, 0.0, -380.47139411823684, 0.0]
['beep', 0.0, -1288.555716103997, 0.0, 0.0, 0.0, 0.0, -379.04088247309716, 0.0]
['beep', 0.0, -1287.7287015591505, 0.0, 0.0, 0.0, 0.0, -379.5773243400245, 0.0]
['beep', 0.0, -1287.393425392321, 0.0, 0.0, 0.0, 0.0, -379.2420481731949, 0.0]
['beep', 0.0, -1287.326370158955, 0.0, 0.0, 0.0, 0.0, -380.47139411823684, 0.0]
['beep', 0.0, -1287.5275358590527, 0.0, 0.0, 0.0, 0.0, -379.28675166210553, 0.0]
['beep', 0.0, -1286.8346317809383, 0.0, 0.0, 0.0, 0.0, -379.28675166210553, 0.0]
['beep', 0.0, -1287.4381288812315, 0.0, 0.0, 0.0, 0.0, -379.4432138732927, 0.0]
['beep', 0.0, -1286.2534864251002, 0.0, 0.0, 0.0, 0.0, -379.39851038438206, 0.0]
['beep', 0.0, -1286.298189914011, 0.0, 0.0, 0.0, 0.0, -379.1079377064631, 0.0]
['beep', 0.0, -1286.2534864251002, 0.0, 0.0, 0.0, 0.0, -379.62202782893513, 0.0]
['beep', 0.0, -1286.9910939921253, 0.0, 0.0, 0.0, 0.0, -379.68908306230105, 0.0]
['beep', 0.0, -1288.6674748262733, 0.0, 0.0, 0.0, 0.0, -380.3149319070497, 0.0]
['beep', 0.0, -1288.1757364482567, 0.0, 0.0, 0.0, 0.0, -381.2537051741726, 0.0]
['beep', 0.0, -1287.7287015591505, 0.0, 0.0, 0.0, 0.0, -380.87372551843237, 0.0]
['beep', 0.0, -1288.6004195929074, 0.0, 0.0, 0.0, 0.0, -380.85137377397706, 0.0]
['beep', 0.0, -1289.0921579709243, 0.0, 0.0, 0.0, 0.0, -379.174992939829, 0.0]
['beep', 0.0, -1288.1533847038013, 0.0, 0.0, 0.0, 0.0, -378.32562665052734, 0.0]
['beep', 0.0, -1288.9580475041923, 0.0, 0.0, 0.0, 0.0, -379.06323421755246, 0.0]
['beep', 0.0, -1288.7568818040945, 0.0, 0.0, 0.0, 0.0, -379.42086212883737, 0.0]
['beep', 0.0, -1287.9522190037035, 0.0, 0.0, 0.0, 0.0, -379.5102691066586, 0.0]
['beep', 0.0, -1286.4993556141087, 0.0, 0.0, 0.0, 0.0, -378.72795805072286, 0.0]
['beep', 0.0, -1286.3428934029214, 0.0, 0.0, 0.0, 0.0, -377.8785917614212, 0.0]
['beep', 0.0, -1286.812280036483, 0.0, 0.0, 0.0, 0.0, -379.39851038438206, 0.0]
['beep', 0.0, -1286.4323003807426, 0.0, 0.0, 0.0, 0.0, -379.8902487623988, 0.0]
['beep', 0.0, -1288.3321986594437, 0.0, 0.0, 0.0, 0.0, -379.39851038438206, 0.0]
['beep', 0.0, -1287.7063498146952, 0.0, 0.0, 0.0, 0.0, -379.1302894509184, 0.0]
['beep', 0.0, -1288.198088192712, 0.0, 0.0, 0.0, 0.0, -379.4432138732927, 0.0]
['beep', 0.0, -1287.3487219034103, 0.0, 0.0, 0.0, 0.0, -379.174992939829, 0.0]
['beep', 0.0, -1287.549887603508, 0.0, 0.0, 0.0, 0.0, -379.1302894509184, 0.0]
['beep', 0.0, -1288.6674748262733, 0.0, 0.0, 0.0, 0.0, -380.2478766736838, 0.0]
['beep', 0.0, -1288.6227713373628, 0.0, 0.0, 0.0, 0.0, -380.6725598183346, 0.0]
['beep', 0.0, -1288.6227713373628, 0.0, 0.0, 0.0, 0.0, -381.45487087427034, 0.0]
['beep', 0.0, -1288.4886608706308, 0.0, 0.0, 0.0, 0.0, -380.1361179514072, 0.0]
['beep', 0.0, -1288.7345300596394, 0.0, 0.0, 0.0, 0.0, -380.2478766736838, 0.0]
['beep', 0.0, -1287.773405048061, 0.0, 0.0, 0.0, 0.0, -381.3431121519938, 0.0]
['beep', 0.0, -1288.6674748262733, 0.0, 0.0, 0.0, 0.0, -381.49957436318095, 0.0]
['beep', 0.0, -1289.382730648843, 0.0, 0.0, 0.0, 0.0, -380.3596353959603, 0.0]
['beep', 0.0, -1287.9522190037035, 0.0, 0.0, 0.0, 0.0, -380.44904237378154, 0.0]
['beep', 0.0, -1287.2146114366785, 0.0, 0.0, 0.0, 0.0, -380.47139411823684, 0.0]
['beep', 0.0, -1287.8851637703376, 0.0, 0.0, 0.0, 0.0, -380.56080109605807, 0.0]
['beep', 0.0, -1288.2874951705332, 0.0, 0.0, 0.0, 0.0, -380.1361179514072, 0.0]
['beep', 0.0, -1287.5945910924186, 0.0, 0.0, 0.0, 0.0, -380.00200748467535, 0.0]
['beep', 0.0, -1287.4381288812315, 0.0, 0.0, 0.0, 0.0, -381.18664994080666, 0.0]
['beep', 0.0, -1288.131032959346, 0.0, 0.0, 0.0, 0.0, -381.3431121519938, 0.0]
['beep', 0.0, -1287.907515514793, 0.0, 0.0, 0.0, 0.0, -380.3819871404156, 0.0]
['beep', 0.0, -1286.9910939921253, 0.0, 0.0, 0.0, 0.0, -380.6502080738793, 0.0]
['beep', 0.0, -1286.7005213142063, 0.0, 0.0, 0.0, 0.0, -380.02435922913065, 0.0]
['beep', 0.0, -1287.326370158955, 0.0, 0.0, 0.0, 0.0, -379.9126005068541, 0.0]
['beep', 0.0, -1287.5945910924186, 0.0, 0.0, 0.0, 0.0, -380.1137662069519, 0.0]
['beep', 0.0, -1287.9522190037035, 0.0, 0.0, 0.0, 0.0, -379.5996760844798, 0.0]
['beep', 0.0, -1287.9298672592483, 0.0, 0.0, 0.0, 0.0, -379.64437957339044, 0.0]
['beep', 0.0, -1288.2651434260779, 0.0, 0.0, 0.0, 0.0, -382.19247844129546, 0.0]
['beep', 0.0, -1287.1922596922232, 0.0, 0.0, 0.0, 0.0, -380.3149319070497, 0.0]
['beep', 0.0, -1287.6616463257847, 0.0, 0.0, 0.0, 0.0, -380.6949115627899, 0.0]
['beep', 0.0, -1288.1757364482567, 0.0, 0.0, 0.0, 0.0, -380.82902202952175, 0.0]
['beep', 0.0, -1288.1086812148908, 0.0, 0.0, 0.0, 0.0, -379.37615863992676, 0.0]
['beep', 0.0, -1287.8628120258822, 0.0, 0.0, 0.0, 0.0, -379.62202782893513, 0.0]
['beep', 0.0, -1286.745224803117, 0.0, 0.0, 0.0, 0.0, -379.5773243400245, 0.0]
['beep', 0.0, -1287.326370158955, 0.0, 0.0, 0.0, 0.0, -380.22552492922847, 0.0]
['beep', 0.0, -1287.549887603508, 0.0, 0.0, 0.0, 0.0, -381.11959470744074, 0.0]
['beep', 0.0, -1287.2816666700444, 0.0, 0.0, 0.0, 0.0, -380.5831528405134, 0.0]
['beep', 0.0, -1287.5945910924186, 0.0, 0.0, 0.0, 0.0, -379.06323421755246, 0.0]
['beep', 0.0, -1287.1475562033124, 0.0, 0.0, 0.0, 0.0, -378.8620685174547, 0.0]
['beep', 0.0, -1287.102852714402, 0.0, 0.0, 0.0, 0.0, -378.1244609504296, 0.0]
['beep', 0.0, -1287.7510533036059, 0.0, 0.0, 0.0, 0.0, -379.33145515101614, 0.0]
['beep', 0.0, -1287.2146114366785, 0.0, 0.0, 0.0, 0.0, -379.1302894509184, 0.0]
['beep', 0.0, -1287.0134457365807, 0.0, 0.0, 0.0, 0.0, -378.66090281735694, 0.0]
['beep', 0.0, -1286.6781695697512, 0.0, 0.0, 0.0, 0.0, -379.08558596200777, 0.0]
['beep', 0.0, -1286.3875968918321, 0.0, 0.0, 0.0, 0.0, -379.9126005068541, 0.0]
['beep', 0.0, -1286.3652451473768, 0.0, 0.0, 0.0, 0.0, -379.174992939829, 0.0]
['beep', 0.0, -1285.8735067693601, 0.0, 0.0, 0.0, 0.0, -379.62202782893513, 0.0]
['beep', 0.0, -1286.6558178252958, 0.0, 0.0, 0.0, 0.0, -379.28675166210553, 0.0]
['beep', 0.0, -1287.3040184144998, 0.0, 0.0, 0.0, 0.0, -379.5549725955692, 0.0]
['beep', 0.0, -1287.1252044588573, 0.0, 0.0, 0.0, 0.0, -379.8455452734882, 0.0]
['beep', 0.0, -1286.4993556141087, 0.0, 0.0, 0.0, 0.0, -380.1137662069519, 0.0]
['beep', 0.0, -1287.5945910924186, 0.0, 0.0, 0.0, 0.0, -379.35380689547145, 0.0]
['beep', 0.0, -1288.7345300596394, 0.0, 0.0, 0.0, 0.0, -379.37615863992676, 0.0]
['beep', 0.0, -1287.035797481036, 0.0, 0.0, 0.0, 0.0, -380.00200748467535, 0.0]
['beep', 0.0, -1287.3710736478656, 0.0, 0.0, 0.0, 0.0, -379.95730399576473, 0.0]
['beep', 0.0, -1287.616942836874, 0.0, 0.0, 0.0, 0.0, -379.62202782893513, 0.0]
['beep', 0.0, -1287.6839980702398, 0.0, 0.0, 0.0, 0.0, -379.1302894509184, 0.0]
['beep', 0.0, -1287.3710736478656, 0.0, 0.0, 0.0, 0.0, -379.4432138732927, 0.0]
['beep', 0.0, -1286.3652451473768, 0.0, 0.0, 0.0, 0.0, -379.71143480675636, 0.0]
['beep', 0.0, -1287.1922596922232, 0.0, 0.0, 0.0, 0.0, -378.70560630626755, 0.0]
['beep', 0.0, -1287.3487219034103, 0.0, 0.0, 0.0, 0.0, -378.34797839498265, 0.0]
['beep', 0.0, -1287.8851637703376, 0.0, 0.0, 0.0, 0.0, -377.9456469947871, 0.0]
['beep', 0.0, -1286.6558178252958, 0.0, 0.0, 0.0, 0.0, -378.1691644393402, 0.0]
['beep', 0.0, -1285.6723410692623, 0.0, 0.0, 0.0, 0.0, -378.32562665052734, 0.0]
['beep', 0.0, -1286.1193759583684, 0.0, 0.0, 0.0, 0.0, -377.9456469947871, 0.0]
['beep', 0.0, -1285.0464922245137, 0.0, 0.0, 0.0, 0.0, -378.68325456181225, 0.0]
['beep', 0.0, -1284.644160824318, 0.0, 0.0, 0.0, 0.0, -378.9067720063653, 0.0]
['beep', 0.0, -1286.0076172360918, 0.0, 0.0, 0.0, 0.0, -379.35380689547145, 0.0]
['beep', 0.0, -1286.4770038696533, 0.0, 0.0, 0.0, 0.0, -380.2925801625944, 0.0]
['beep', 0.0, -1286.1193759583684, 0.0, 0.0, 0.0, 0.0, -380.02435922913065, 0.0]
['beep', 0.0, -1285.7617480470835, 0.0, 0.0, 0.0, 0.0, -379.8455452734882, 0.0]
['beep', 0.0, -1286.2087829361897, 0.0, 0.0, 0.0, 0.0, -378.68325456181225, 0.0]
['beep', 0.0, -1285.2476579246113, 0.0, 0.0, 0.0, 0.0, -378.1468126948849, 0.0]
['beep', 0.0, -1285.4041201357986, 0.0, 0.0, 0.0, 0.0, -378.5491440950804, 0.0]
['beep', 0.0, -1285.6052858358962, 0.0, 0.0, 0.0, 0.0, -379.28675166210553, 0.0]
['beep', 0.0, -1285.582934091441, 0.0, 0.0, 0.0, 0.0, -379.37615863992676, 0.0]
['beep', 0.0, -1285.0241404800583, 0.0, 0.0, 0.0, 0.0, -379.5773243400245, 0.0]
['beep', 0.0, -1286.4993556141087, 0.0, 0.0, 0.0, 0.0, -379.2643999176502, 0.0]
['beep', 0.0, -1285.784099791539, 0.0, 0.0, 0.0, 0.0, -380.337283651505, 0.0]
['beep', 0.0, -1286.8793352698488, 0.0, 0.0, 0.0, 0.0, -378.9067720063653, 0.0]
['beep', 0.0, -1287.0805009699466, 0.0, 0.0, 0.0, 0.0, -378.1691644393402, 0.0]
['beep', 0.0, -1287.1475562033124, 0.0, 0.0, 0.0, 0.0, -379.01853072864185, 0.0]
['beep', 0.0, -1287.1252044588573, 0.0, 0.0, 0.0, 0.0, -377.8338882725106, 0.0]
['beep', 0.0, -1287.9522190037035, 0.0, 0.0, 0.0, 0.0, -377.8785917614212, 0.0]
['beep', 0.0, -1285.6276375803516, 0.0, 0.0, 0.0, 0.0, -378.9067720063653, 0.0]
['beep', 0.0, -1284.0853672129354, 0.0, 0.0, 0.0, 0.0, -378.5044406061698, 0.0]
['beep', 0.0, -1283.034835223536, 0.0, 0.0, 0.0, 0.0, -378.2138679282508, 0.0]
['beep', 0.0, -1282.520745101064, 0.0, 0.0, 0.0, 0.0, -377.67742606132344, 0.0]
['beep', 0.0, -1280.486736355631, 0.0, 0.0, 0.0, 0.0, -377.07392896103016, 0.0]
['beep', 0.0, -1279.4362043662316, 0.0, 0.0, 0.0, 0.0, -377.65507431686814, 0.0]
['beep', 0.0, -1280.8667160113712, 0.0, 0.0, 0.0, 0.0, -376.8504115164771, 0.0]
['beep', 0.0, -1283.9289050017483, 0.0, 0.0, 0.0, 0.0, -375.755176038167, 0.0]
['beep', 0.0, -1285.5382306025303, 0.0, 0.0, 0.0, 0.0, -377.208039427762, 0.0]
['beep', 0.0, -1286.3875968918321, 0.0, 0.0, 0.0, 0.0, -377.40920512785976, 0.0]
['beep', 0.0, -1285.7617480470835, 0.0, 0.0, 0.0, 0.0, -377.65507431686814, 0.0]
['beep', 0.0, -1286.3205416584663, 0.0, 0.0, 0.0, 0.0, -378.39268188389326, 0.0]
['beep', 0.0, -1286.7005213142063, 0.0, 0.0, 0.0, 0.0, -377.74448129468936, 0.0]
['beep', 0.0, -1285.5382306025303, 0.0, 0.0, 0.0, 0.0, -377.5433155945916, 0.0]
['beep', 0.0, -1286.0523207250026, 0.0, 0.0, 0.0, 0.0, -377.40920512785976, 0.0]
['beep', 0.0, -1285.7617480470835, 0.0, 0.0, 0.0, 0.0, -378.2138679282508, 0.0]
['beep', 0.0, -1285.9182102582706, 0.0, 0.0, 0.0, 0.0, -378.5491440950804, 0.0]
['beep', 0.0, -1286.454652125198, 0.0, 0.0, 0.0, 0.0, -378.32562665052734, 0.0]
['beep', 0.0, -1286.6334660808404, 0.0, 0.0, 0.0, 0.0, -377.9456469947871, 0.0]
['beep', 0.0, -1285.8735067693601, 0.0, 0.0, 0.0, 0.0, -377.43155687231507, 0.0]
['beep', 0.0, -1285.649989324807, 0.0, 0.0, 0.0, 0.0, -378.8620685174547, 0.0]
['beep', 0.0, -1284.9570852466925, 0.0, 0.0, 0.0, 0.0, -377.9009435058765, 0.0]
['beep', 0.0, -1285.8735067693601, 0.0, 0.0, 0.0, 0.0, -377.36450163894915, 0.0]
['beep', 0.0, -1286.0523207250026, 0.0, 0.0, 0.0, 0.0, -377.1409841943961, 0.0]
['beep', 0.0, -1284.5547538464969, 0.0, 0.0, 0.0, 0.0, -376.64924581637933, 0.0]
['beep', 0.0, -1284.1524224463014, 0.0, 0.0, 0.0, 0.0, -377.7891847836, 0.0]
['beep', 0.0, -1285.4264718802538, 0.0, 0.0, 0.0, 0.0, -377.5433155945916, 0.0]
['beep', 0.0, -1285.4488236247091, 0.0, 0.0, 0.0, 0.0, -377.74448129468936, 0.0]
['beep', 0.0, -1285.2476579246113, 0.0, 0.0, 0.0, 0.0, -377.99035048369774, 0.0]
['beep', 0.0, -1285.8511550249048, 0.0, 0.0, 0.0, 0.0, -377.8338882725106, 0.0]
['beep', 0.0, -1285.806451535994, 0.0, 0.0, 0.0, 0.0, -378.1021092059743, 0.0]
['beep', 0.0, -1285.3147131579774, 0.0, 0.0, 0.0, 0.0, -378.01270222815305, 0.0]
['beep', 0.0, -1286.0076172360918, 0.0, 0.0, 0.0, 0.0, -377.7668330391447, 0.0]
['beep', 0.0, -1285.9852654916365, 0.0, 0.0, 0.0, 0.0, -377.1409841943961, 0.0]
['beep', 0.0, -1285.4935271136198, 0.0, 0.0, 0.0, 0.0, -377.09628070548547, 0.0]
['beep', 0.0, -1286.611114336385, 0.0, 0.0, 0.0, 0.0, -377.5433155945916, 0.0]
['beep', 0.0, -1286.4323003807426, 0.0, 0.0, 0.0, 0.0, -377.02922547211955, 0.0]
['beep', 0.0, -1285.6946928137174, 0.0, 0.0, 0.0, 0.0, -376.98452198320894, 0.0]
['beep', 0.0, -1286.0299689805472, 0.0, 0.0, 0.0, 0.0, -377.05157721657486, 0.0]
['beep', 0.0, -1285.1135474578796, 0.0, 0.0, 0.0, 0.0, -377.67742606132344, 0.0]
['beep', 0.0, -1284.9794369911476, 0.0, 0.0, 0.0, 0.0, -376.96217023875363, 0.0]
['beep', 0.0, -1284.644160824318, 0.0, 0.0, 0.0, 0.0, -377.1409841943961, 0.0]
['beep', 0.0, -1289.583896348941, 0.0, 0.0, 0.0, 0.0, -376.76100453865587, 0.0]
['beep', 0.0, -1289.8968207713153, 0.0, 0.0, 0.0, 0.0, -376.8504115164771, 0.0]
['beep', 0.0, -1287.8181085369717, 0.0, 0.0, 0.0, 0.0, -376.2245626717285, 0.0]
['beep', 0.0, -1287.9522190037035, 0.0, 0.0, 0.0, 0.0, -376.4480801162816, 0.0]
['beep', 0.0, -1287.8851637703376, 0.0, 0.0, 0.0, 0.0, -376.76100453865587, 0.0]
['beep', 0.0, -1289.1368614598348, 0.0, 0.0, 0.0, 0.0, -376.35867313846035, 0.0]
['beep', 0.0, -1289.516841115575, 0.0, 0.0, 0.0, 0.0, -376.8727632609324, 0.0]
['beep', 0.0, -1288.5333643595416, 0.0, 0.0, 0.0, 0.0, -378.1021092059743, 0.0]
['beep', 0.0, -1289.1815649487455, 0.0, 0.0, 0.0, 0.0, -378.5714958395357, 0.0]
['beep', 0.0, -1288.8239370374606, 0.0, 0.0, 0.0, 0.0, -376.5374870941028, 0.0]
['beep', 0.0, -1287.549887603508, 0.0, 0.0, 0.0, 0.0, -377.498612105681, 0.0]
['beep', 0.0, -1287.549887603508, 0.0, 0.0, 0.0, 0.0, -378.03505397260835, 0.0]
['beep', 0.0, -1288.06397772598, 0.0, 0.0, 0.0, 0.0, -377.05157721657486, 0.0]
['beep', 0.0, -1287.8181085369717, 0.0, 0.0, 0.0, 0.0, -376.8504115164771, 0.0]
['beep', 0.0, -1287.1922596922232, 0.0, 0.0, 0.0, 0.0, -376.8280597720218, 0.0]
['beep', 0.0, -1286.9240387587595, 0.0, 0.0, 0.0, 0.0, -377.65507431686814, 0.0]
['beep', 0.0, -1286.9463905032148, 0.0, 0.0, 0.0, 0.0, -378.9067720063653, 0.0]
['beep', 0.0, -1287.9522190037035, 0.0, 0.0, 0.0, 0.0, -378.99617898418654, 0.0]
['beep', 0.0, -1287.907515514793, 0.0, 0.0, 0.0, 0.0, -378.8397167729994, 0.0]
['beep', 0.0, -1286.5664108474746, 0.0, 0.0, 0.0, 0.0, -378.1468126948849, 0.0]
['beep', 0.0, -1286.8793352698488, 0.0, 0.0, 0.0, 0.0, -377.96799873924243, 0.0]
['beep', 0.0, -1285.9182102582706, 0.0, 0.0, 0.0, 0.0, -377.9009435058765, 0.0]
['beep', 0.0, -1285.6052858358962, 0.0, 0.0, 0.0, 0.0, -378.8620685174547, 0.0]
['beep', 0.0, -1286.5217073585638, 0.0, 0.0, 0.0, 0.0, -377.2303911722173, 0.0]
['beep', 0.0, -1286.7005213142063, 0.0, 0.0, 0.0, 0.0, -377.5880190835022, 0.0]
['beep', 0.0, -1286.812280036483, 0.0, 0.0, 0.0, 0.0, -377.5433155945916, 0.0]
['beep', 0.0, -1287.1475562033124, 0.0, 0.0, 0.0, 0.0, -377.5656673390469, 0.0]
['beep', 0.0, -1286.7228730586617, 0.0, 0.0, 0.0, 0.0, -377.8338882725106, 0.0]
['beep', 0.0, -1286.9910939921253, 0.0, 0.0, 0.0, 0.0, -377.498612105681, 0.0]
['beep', 0.0, -1287.5945910924186, 0.0, 0.0, 0.0, 0.0, -377.67742606132344, 0.0]
['beep', 0.0, -1287.3040184144998, 0.0, 0.0, 0.0, 0.0, -377.69977780577875, 0.0]
['beep', 0.0, -1287.9298672592483, 0.0, 0.0, 0.0, 0.0, -379.8455452734882, 0.0]
['beep', 0.0, -1288.3769021483545, 0.0, 0.0, 0.0, 0.0, -379.39851038438206, 0.0]
['beep', 0.0, -1287.773405048061, 0.0, 0.0, 0.0, 0.0, -377.9009435058765, 0.0]
['beep', 0.0, -1288.2651434260779, 0.0, 0.0, 0.0, 0.0, -378.2138679282508, 0.0]
['beep', 0.0, -1289.0474544820136, 0.0, 0.0, 0.0, 0.0, -377.09628070548547, 0.0]
['beep', 0.0, -1288.4886608706308, 0.0, 0.0, 0.0, 0.0, -377.29744640558323, 0.0]
['beep', 0.0, -1288.2204399371672, 0.0, 0.0, 0.0, 0.0, -378.01270222815305, 0.0]
['beep', 0.0, -1288.0416259815247, 0.0, 0.0, 0.0, 0.0, -377.09628070548547, 0.0]
['beep', 0.0, -1288.0192742370696, 0.0, 0.0, 0.0, 0.0, -377.74448129468936, 0.0]
['beep', 0.0, -1288.0416259815247, 0.0, 0.0, 0.0, 0.0, -378.05740571706366, 0.0]
['beep', 0.0, -1288.6004195929074, 0.0, 0.0, 0.0, 0.0, -377.1186324499408, 0.0]
['beep', 0.0, -1288.1757364482567, 0.0, 0.0, 0.0, 0.0, -376.9398184942983, 0.0]
['beep', 0.0, -1286.9240387587595, 0.0, 0.0, 0.0, 0.0, -376.4927836051922, 0.0]
['beep', 0.0, -1287.5722393479634, 0.0, 0.0, 0.0, 0.0, -377.09628070548547, 0.0]
['beep', 0.0, -1287.5945910924186, 0.0, 0.0, 0.0, 0.0, -377.4539086167704, 0.0]
['beep', 0.0, -1286.2758381695555, 0.0, 0.0, 0.0, 0.0, -377.1633359388514, 0.0]
['beep', 0.0, -1286.611114336385, 0.0, 0.0, 0.0, 0.0, -377.40920512785976, 0.0]
['beep', 0.0, -1286.4993556141087, 0.0, 0.0, 0.0, 0.0, -376.917466749843, 0.0]
['beep', 0.0, -1286.7005213142063, 0.0, 0.0, 0.0, 0.0, -376.8727632609324, 0.0]
['beep', 0.0, -1286.3875968918321, 0.0, 0.0, 0.0, 0.0, -377.2750946611279, 0.0]
['beep', 0.0, -1287.2816666700444, 0.0, 0.0, 0.0, 0.0, -376.64924581637933, 0.0]
['beep', 0.0, -1287.3710736478656, 0.0, 0.0, 0.0, 0.0, -377.31979815003854, 0.0]
['beep', 0.0, -1287.7957567925164, 0.0, 0.0, 0.0, 0.0, -377.43155687231507, 0.0]
['beep', 0.0, -1287.2146114366785, 0.0, 0.0, 0.0, 0.0, -377.34214989449384, 0.0]
['beep', 0.0, -1287.4604806256868, 0.0, 0.0, 0.0, 0.0, -377.1856876833067, 0.0]
['beep', 0.0, -1287.035797481036, 0.0, 0.0, 0.0, 0.0, -376.6045423274687, 0.0]
['beep', 0.0, -1287.7287015591505, 0.0, 0.0, 0.0, 0.0, -376.1351556939072, 0.0]
['beep', 0.0, -1287.3710736478656, 0.0, 0.0, 0.0, 0.0, -375.59871382697986, 0.0]
['beep', 0.0, -1286.6781695697512, 0.0, 0.0, 0.0, 0.0, -376.76100453865587, 0.0]
['beep', 0.0, -1287.3710736478656, 0.0, 0.0, 0.0, 0.0, -376.9398184942983, 0.0]
['beep', 0.0, -1288.3098469149884, 0.0, 0.0, 0.0, 0.0, -377.2750946611279, 0.0]
['beep', 0.0, -1286.9910939921253, 0.0, 0.0, 0.0, 0.0, -378.1244609504296, 0.0]
['beep', 0.0, -1286.6558178252958, 0.0, 0.0, 0.0, 0.0, -376.67159756083464, 0.0]
['beep', 0.0, -1286.6558178252958, 0.0, 0.0, 0.0, 0.0, -376.7833562831112, 0.0]
['beep', 0.0, -1285.9182102582706, 0.0, 0.0, 0.0, 0.0, -375.7104725492564, 0.0]
['beep', 0.0, -1286.4323003807426, 0.0, 0.0, 0.0, 0.0, -376.0010452271754, 0.0]
['beep', 0.0, -1285.135899202335, 0.0, 0.0, 0.0, 0.0, -377.6103708279575, 0.0]
['beep', 0.0, -1284.2418294241227, 0.0, 0.0, 0.0, 0.0, -376.8280597720218, 0.0]
['beep', 0.0, -1284.487698613131, 0.0, 0.0, 0.0, 0.0, -376.8504115164771, 0.0]
['beep', 0.0, -1285.8958585138153, 0.0, 0.0, 0.0, 0.0, -377.5209638501363, 0.0]
['beep', 0.0, -1285.806451535994, 0.0, 0.0, 0.0, 0.0, -377.8785917614212, 0.0]
['beep', 0.0, -1284.711216057684, 0.0, 0.0, 0.0, 0.0, -379.01853072864185, 0.0]
['beep', 0.0, -1285.940562002726, 0.0, 0.0, 0.0, 0.0, -378.1468126948849, 0.0]
['beep', 0.0, -1283.615980579374, 0.0, 0.0, 0.0, 0.0, -378.1244609504296, 0.0]
['beep', 0.0, -1284.5324021020415, 0.0, 0.0, 0.0, 0.0, -377.31979815003854, 0.0]
['beep', 0.0, -1284.3088846574885, 0.0, 0.0, 0.0, 0.0, -377.2750946611279, 0.0]
['beep', 0.0, -1284.3759398908544, 0.0, 0.0, 0.0, 0.0, -379.01853072864185, 0.0]
['beep', 0.0, -1285.649989324807, 0.0, 0.0, 0.0, 0.0, -379.2643999176502, 0.0]
['beep', 0.0, -1286.611114336385, 0.0, 0.0, 0.0, 0.0, -378.4597371172592, 0.0]
['beep', 0.0, -1286.9016870143041, 0.0, 0.0, 0.0, 0.0, -378.5714958395357, 0.0]
['beep', 0.0, -1286.8793352698488, 0.0, 0.0, 0.0, 0.0, -378.41503362834857, 0.0]
['beep', 0.0, -1287.102852714402, 0.0, 0.0, 0.0, 0.0, -379.174992939829, 0.0]
['beep', 0.0, -1286.6558178252958, 0.0, 0.0, 0.0, 0.0, -379.5996760844798, 0.0]
['beep', 0.0, -1287.0581492254912, 0.0, 0.0, 0.0, 0.0, -378.7726615396335, 0.0]
['beep', 0.0, -1287.102852714402, 0.0, 0.0, 0.0, 0.0, -378.34797839498265, 0.0]
['beep', 0.0, -1286.4323003807426, 0.0, 0.0, 0.0, 0.0, -377.67742606132344, 0.0]
['beep', 0.0, -1286.164079447279, 0.0, 0.0, 0.0, 0.0, -377.31979815003854, 0.0]
['beep', 0.0, -1286.7005213142063, 0.0, 0.0, 0.0, 0.0, -377.9009435058765, 0.0]
['beep', 0.0, -1286.164079447279, 0.0, 0.0, 0.0, 0.0, -377.5656673390469, 0.0]
['beep', 0.0, -1286.7899282920275, 0.0, 0.0, 0.0, 0.0, -379.30910340656084, 0.0]
['beep', 0.0, -1286.7675765475724, 0.0, 0.0, 0.0, 0.0, -379.9126005068541, 0.0]
['beep', 0.0, -1285.940562002726, 0.0, 0.0, 0.0, 0.0, -378.5491440950804, 0.0]
['beep', 0.0, -1286.611114336385, 0.0, 0.0, 0.0, 0.0, -378.75030979517817, 0.0]
['beep', 0.0, -1287.5275358590527, 0.0, 0.0, 0.0, 0.0, -378.5491440950804, 0.0]
['beep', 0.0, -1287.5945910924186, 0.0, 0.0, 0.0, 0.0, -378.4597371172592, 0.0]
['beep', 0.0, -1285.9852654916365, 0.0, 0.0, 0.0, 0.0, -378.5491440950804, 0.0]
['beep', 0.0, -1286.7005213142063, 0.0, 0.0, 0.0, 0.0, -377.67742606132344, 0.0]
['beep', 0.0, -1287.0581492254912, 0.0, 0.0, 0.0, 0.0, -377.7891847836, 0.0]
['beep', 0.0, -1285.7617480470835, 0.0, 0.0, 0.0, 0.0, -377.6103708279575, 0.0]
['beep', 0.0, -1286.4099486362875, 0.0, 0.0, 0.0, 0.0, -377.2527429166726, 0.0]
['beep', 0.0, -1287.549887603508, 0.0, 0.0, 0.0, 0.0, -378.1691644393402, 0.0]
['beep', 0.0, -1287.549887603508, 0.0, 0.0, 0.0, 0.0, -377.67742606132344, 0.0]
['beep', 0.0, -1287.3040184144998, 0.0, 0.0, 0.0, 0.0, -377.9009435058765, 0.0]
['beep', 0.0, -1286.96874224767, 0.0, 0.0, 0.0, 0.0, -377.40920512785976, 0.0]
['beep', 0.0, -1286.5440591030192, 0.0, 0.0, 0.0, 0.0, -376.8727632609324, 0.0]
['beep', 0.0, -1286.7675765475724, 0.0, 0.0, 0.0, 0.0, -377.38685338340446, 0.0]
['beep', 0.0, -1286.4770038696533, 0.0, 0.0, 0.0, 0.0, -377.1633359388514, 0.0]
['beep', 0.0, -1285.4935271136198, 0.0, 0.0, 0.0, 0.0, -377.1186324499408, 0.0]
['beep', 0.0, -1285.5382306025303, 0.0, 0.0, 0.0, 0.0, -376.69394930528995, 0.0]
['beep', 0.0, -1286.3875968918321, 0.0, 0.0, 0.0, 0.0, -377.2303911722173, 0.0]
['beep', 0.0, -1286.611114336385, 0.0, 0.0, 0.0, 0.0, -377.208039427762, 0.0]
['beep', 0.0, -1286.4770038696533, 0.0, 0.0, 0.0, 0.0, -377.2303911722173, 0.0]
['beep', 0.0, -1286.4770038696533, 0.0, 0.0, 0.0, 0.0, -377.31979815003854, 0.0]
['beep', 0.0, -1285.8288032804494, 0.0, 0.0, 0.0, 0.0, -378.39268188389326, 0.0]
['beep', 0.0, -1285.359416646888, 0.0, 0.0, 0.0, 0.0, -377.9456469947871, 0.0]
['beep', 0.0, -1285.359416646888, 0.0, 0.0, 0.0, 0.0, -377.34214989449384, 0.0]
['beep', 0.0, -1284.711216057684, 0.0, 0.0, 0.0, 0.0, -378.68325456181225, 0.0]
['beep', 0.0, -1285.7617480470835, 0.0, 0.0, 0.0, 0.0, -378.39268188389326, 0.0]
['beep', 0.0, -1285.292361413522, 0.0, 0.0, 0.0, 0.0, -377.4539086167704, 0.0]
['beep', 0.0, -1285.0911957134242, 0.0, 0.0, 0.0, 0.0, -377.05157721657486, 0.0]
['beep', 0.0, -1284.8900300133264, 0.0, 0.0, 0.0, 0.0, -377.96799873924243, 0.0]
['beep', 0.0, -1284.9123817577818, 0.0, 0.0, 0.0, 0.0, -378.37033013943795, 0.0]
['beep', 0.0, -1285.359416646888, 0.0, 0.0, 0.0, 0.0, -378.2809231616167, 0.0]
['beep', 0.0, -1285.0241404800583, 0.0, 0.0, 0.0, 0.0, -378.37033013943795, 0.0]
['beep', 0.0, -1283.68303581274, 0.0, 0.0, 0.0, 0.0, -378.4373853728039, 0.0]
['beep', 0.0, -1283.8171462794717, 0.0, 0.0, 0.0, 0.0, -377.4762603612257, 0.0]
['beep', 0.0, -1283.548925346008, 0.0, 0.0, 0.0, 0.0, -377.4539086167704, 0.0]
['beep', 0.0, -1283.191297434723, 0.0, 0.0, 0.0, 0.0, -378.1691644393402, 0.0]
['beep', 0.0, -1284.8006230355052, 0.0, 0.0, 0.0, 0.0, -377.4539086167704, 0.0]
['beep', 0.0, -1284.7559195465947, 0.0, 0.0, 0.0, 0.0, -377.09628070548547, 0.0]
['beep', 0.0, -1284.9794369911476, 0.0, 0.0, 0.0, 0.0, -377.00687372766424, 0.0]
['beep', 0.0, -1285.6052858358962, 0.0, 0.0, 0.0, 0.0, -377.96799873924243, 0.0]
['beep', 0.0, -1284.4206433797651, 0.0, 0.0, 0.0, 0.0, -378.1021092059743, 0.0]
['beep', 0.0, -1283.7500910461058, 0.0, 0.0, 0.0, 0.0, -378.1915161837955, 0.0]
['beep', 0.0, -1284.5324021020415, 0.0, 0.0, 0.0, 0.0, -378.2138679282508, 0.0]
['beep', 0.0, -1284.3982916353098, 0.0, 0.0, 0.0, 0.0, -378.37033013943795, 0.0]
['beep', 0.0, -1283.168945690268, 0.0, 0.0, 0.0, 0.0, -378.5044406061698, 0.0]
['beep', 0.0, -1284.8676782688713, 0.0, 0.0, 0.0, 0.0, -378.70560630626755, 0.0]
['beep', 0.0, -1285.3147131579774, 0.0, 0.0, 0.0, 0.0, -379.66673131784574, 0.0]
['beep', 0.0, -1285.3147131579774, 0.0, 0.0, 0.0, 0.0, -378.4373853728039, 0.0]
['beep', 0.0, -1284.9347335022371, 0.0, 0.0, 0.0, 0.0, -378.05740571706366, 0.0]
['beep', 0.0, -1285.7617480470835, 0.0, 0.0, 0.0, 0.0, -377.8562400169659, 0.0]
['beep', 0.0, -1285.4935271136198, 0.0, 0.0, 0.0, 0.0, -377.4762603612257, 0.0]
['beep', 0.0, -1285.8735067693601, 0.0, 0.0, 0.0, 0.0, -377.5209638501363, 0.0]
['beep', 0.0, -1285.0688439689688, 0.0, 0.0, 0.0, 0.0, -377.2303911722173, 0.0]
['beep', 0.0, -1285.4935271136198, 0.0, 0.0, 0.0, 0.0, -377.8338882725106, 0.0]
['beep', 0.0, -1285.9182102582706, 0.0, 0.0, 0.0, 0.0, -377.1633359388514, 0.0]
['beep', 0.0, -1285.0241404800583, 0.0, 0.0, 0.0, 0.0, -377.05157721657486, 0.0]
['beep', 0.0, -1286.4993556141087, 0.0, 0.0, 0.0, 0.0, -377.29744640558323, 0.0]
['beep', 0.0, -1285.515878858075, 0.0, 0.0, 0.0, 0.0, -376.15750743836253, 0.0]
['beep', 0.0, -1280.3749776333545, 0.0, 0.0, 0.0, 0.0, -376.0010452271754, 0.0]
['beep', 0.0, -1276.9775124761477, 0.0, 0.0, 0.0, 0.0, -374.7716992821335, 0.0]
['beep', 0.0, -1277.9609892321814, 0.0, 0.0, 0.0, 0.0, -375.3751963824268, 0.0]
['beep', 0.0, -1278.743300288117, 0.0, 0.0, 0.0, 0.0, -374.25760915966146, 0.0]
['beep', 0.0, -1279.3020938994998, 0.0, 0.0, 0.0, 0.0, -373.6541120593682, 0.0]
['beep', 0.0, -1282.744262545617, 0.0, 0.0, 0.0, 0.0, -373.96703648174247, 0.0]
['beep', 0.0, -1282.5654485899745, 0.0, 0.0, 0.0, 0.0, -373.54235333709164, 0.0]
['beep', 0.0, -1282.6101520788852, 0.0, 0.0, 0.0, 0.0, -374.7493475376782, 0.0]
['beep', 0.0, -1284.8229747799605, 0.0, 0.0, 0.0, 0.0, -374.92816149332066, 0.0]
['beep', 0.0, -1283.3701113903655, 0.0, 0.0, 0.0, 0.0, -374.3246643930274, 0.0]
['beep', 0.0, -1283.7947945350165, 0.0, 0.0, 0.0, 0.0, -374.8164027710441, 0.0]
['beep', 0.0, -1284.3088846574885, 0.0, 0.0, 0.0, 0.0, -374.92816149332066, 0.0]
['beep', 0.0, -1283.5936288349187, 0.0, 0.0, 0.0, 0.0, -376.2469144161838, 0.0]
['beep', 0.0, -1284.0406637240249, 0.0, 0.0, 0.0, 0.0, -376.1798591828179, 0.0]
['beep', 0.0, -1283.168945690268, 0.0, 0.0, 0.0, 0.0, -376.2022109272732, 0.0]
['beep', 0.0, -1283.973608490659, 0.0, 0.0, 0.0, 0.0, -375.95634173826477, 0.0]
['beep', 0.0, -1284.711216057684, 0.0, 0.0, 0.0, 0.0, -376.2022109272732, 0.0]
['beep', 0.0, -1283.1018904569019, 0.0, 0.0, 0.0, 0.0, -376.4704318607369, 0.0]
['beep', 0.0, -1284.1747741907566, 0.0, 0.0, 0.0, 0.0, -376.2916179050944, 0.0]
['beep', 0.0, -1283.615980579374, 0.0, 0.0, 0.0, 0.0, -376.8727632609324, 0.0]
['beep', 0.0, -1283.0795387124467, 0.0, 0.0, 0.0, 0.0, -377.8785917614212, 0.0]
['beep', 0.0, -1283.034835223536, 0.0, 0.0, 0.0, 0.0, -377.1856876833067, 0.0]
['beep', 0.0, -1283.4148148792763, 0.0, 0.0, 0.0, 0.0, -378.7726615396335, 0.0]
['beep', 0.0, -1283.7277393016504, 0.0, 0.0, 0.0, 0.0, -377.1856876833067, 0.0]
['beep', 0.0, -1283.4371666237316, 0.0, 0.0, 0.0, 0.0, -375.8222312715329, 0.0]
['beep', 0.0, -1282.4760416121533, 0.0, 0.0, 0.0, 0.0, -376.0010452271754, 0.0]
['beep', 0.0, -1283.973608490659, 0.0, 0.0, 0.0, 0.0, -376.1128039494519, 0.0]
['beep', 0.0, -1282.744262545617, 0.0, 0.0, 0.0, 0.0, -376.4927836051922, 0.0]
['beep', 0.0, -1283.1018904569019, 0.0, 0.0, 0.0, 0.0, -375.4869551047033, 0.0]
['beep', 0.0, -1282.6325038233406, 0.0, 0.0, 0.0, 0.0, -376.42572837182627, 0.0]
['beep', 0.0, -1281.9172480007708, 0.0, 0.0, 0.0, 0.0, -376.15750743836253, 0.0]
['beep', 0.0, -1281.7831375340388, 0.0, 0.0, 0.0, 0.0, -377.07392896103016, 0.0]
['beep', 0.0, -1281.291399156022, 0.0, 0.0, 0.0, 0.0, -376.9398184942983, 0.0]
['beep', 0.0, -1280.710253800184, 0.0, 0.0, 0.0, 0.0, -376.9398184942983, 0.0]
['beep', 0.0, -1280.77730903355, 0.0, 0.0, 0.0, 0.0, -377.2750946611279, 0.0]
['beep', 0.0, -1281.1572886892902, 0.0, 0.0, 0.0, 0.0, -377.498612105681, 0.0]
['beep', 0.0, -1281.1125852003795, 0.0, 0.0, 0.0, 0.0, -376.8280597720218, 0.0]
['beep', 0.0, -1281.6713788117622, 0.0, 0.0, 0.0, 0.0, -376.8951150053877, 0.0]
['beep', 0.0, -1282.2078206786896, 0.0, 0.0, 0.0, 0.0, -377.1633359388514, 0.0]
['beep', 0.0, -1282.2972276565108, 0.0, 0.0, 0.0, 0.0, -376.5151353496475, 0.0]
['beep', 0.0, -1283.3030561569997, 0.0, 0.0, 0.0, 0.0, -376.2022109272732, 0.0]
['beep', 0.0, -1281.8054892784942, 0.0, 0.0, 0.0, 0.0, -376.045748716086, 0.0]
['beep', 0.0, -1284.353588146399, 0.0, 0.0, 0.0, 0.0, -377.1856876833067, 0.0]
['beep', 0.0, -1283.5712770904634, 0.0, 0.0, 0.0, 0.0, -377.4539086167704, 0.0]
['beep', 0.0, -1283.7053875571953, 0.0, 0.0, 0.0, 0.0, -376.4927836051922, 0.0]
['beep', 0.0, -1284.5771055909522, 0.0, 0.0, 0.0, 0.0, -376.33632139400504, 0.0]
['beep', 0.0, -1283.4148148792763, 0.0, 0.0, 0.0, 0.0, -377.2750946611279, 0.0]
['beep', 0.0, -1282.5430968455194, 0.0, 0.0, 0.0, 0.0, -377.31979815003854, 0.0]
['beep', 0.0, -1282.006654978592, 0.0, 0.0, 0.0, 0.0, -376.8504115164771, 0.0]
['beep', 0.0, -1282.0737102119579, 0.0, 0.0, 0.0, 0.0, -377.63272257241283, 0.0]
['beep', 0.0, -1283.5936288349187, 0.0, 0.0, 0.0, 0.0, -378.4373853728039, 0.0]
['beep', 0.0, -1283.3701113903655, 0.0, 0.0, 0.0, 0.0, -378.34797839498265, 0.0]
['beep', 0.0, -1283.4148148792763, 0.0, 0.0, 0.0, 0.0, -378.72795805072286, 0.0]
['beep', 0.0, -1283.4818701126421, 0.0, 0.0, 0.0, 0.0, -377.8562400169659, 0.0]
['beep', 0.0, -1282.6995590567064, 0.0, 0.0, 0.0, 0.0, -377.7668330391447, 0.0]
['beep', 0.0, -1282.4760416121533, 0.0, 0.0, 0.0, 0.0, -377.31979815003854, 0.0]
['beep', 0.0, -1282.5654485899745, 0.0, 0.0, 0.0, 0.0, -377.1633359388514, 0.0]
['beep', 0.0, -1282.1407654453237, 0.0, 0.0, 0.0, 0.0, -376.0010452271754, 0.0]
['beep', 0.0, -1281.8948962563154, 0.0, 0.0, 0.0, 0.0, -375.4422516157927, 0.0]
['beep', 0.0, -1281.0455299670136, 0.0, 0.0, 0.0, 0.0, -376.98452198320894, 0.0]
['beep', 0.0, -1279.749128788606, 0.0, 0.0, 0.0, 0.0, -375.3751963824268, 0.0]
['beep', 0.0, -1280.5761433334521, 0.0, 0.0, 0.0, 0.0, -374.9952167266866, 0.0]
['beep', 0.0, -1279.8832392553377, 0.0, 0.0, 0.0, 0.0, -376.71630104974525, 0.0]
['beep', 0.0, -1279.4809078551423, 0.0, 0.0, 0.0, 0.0, -376.71630104974525, 0.0]
['beep', 0.0, -1280.77730903355, 0.0, 0.0, 0.0, 0.0, -376.1351556939072, 0.0]
['beep', 0.0, -1280.8890677558265, 0.0, 0.0, 0.0, 0.0, -375.93398999380946, 0.0]
['beep', 0.0, -1281.0902334559244, 0.0, 0.0, 0.0, 0.0, -376.8727632609324, 0.0]
['beep', 0.0, -1280.5761433334521, 0.0, 0.0, 0.0, 0.0, -375.8222312715329, 0.0]
['beep', 0.0, -1281.6713788117622, 0.0, 0.0, 0.0, 0.0, -375.26343766015026, 0.0]
['beep', 0.0, -1282.163117189779, 0.0, 0.0, 0.0, 0.0, -375.59871382697986, 0.0]
['beep', 0.0, -1282.2525241676003, 0.0, 0.0, 0.0, 0.0, -375.7328242937117, 0.0]
['beep', 0.0, -1282.6325038233406, 0.0, 0.0, 0.0, 0.0, -374.4140713708486, 0.0]
['beep', 0.0, -1282.9677799901701, 0.0, 0.0, 0.0, 0.0, -376.2022109272732, 0.0]
['beep', 0.0, -1283.6383323238292, 0.0, 0.0, 0.0, 0.0, -376.98452198320894, 0.0]
['beep', 0.0, -1283.2136491791784, 0.0, 0.0, 0.0, 0.0, -376.42572837182627, 0.0]
['beep', 0.0, -1282.4089863787874, 0.0, 0.0, 0.0, 0.0, -376.42572837182627, 0.0]
['beep', 0.0, -1282.520745101064, 0.0, 0.0, 0.0, 0.0, -375.8222312715329, 0.0]
['beep', 0.0, -1282.5430968455194, 0.0, 0.0, 0.0, 0.0, -375.95634173826477, 0.0]
['beep', 0.0, -1282.677207312251, 0.0, 0.0, 0.0, 0.0, -376.5821905830134, 0.0]
['beep', 0.0, -1282.4089863787874, 0.0, 0.0, 0.0, 0.0, -376.76100453865587, 0.0]
['beep', 0.0, -1282.9230765012594, 0.0, 0.0, 0.0, 0.0, -376.4480801162816, 0.0]
['beep', 0.0, -1281.8054892784942, 0.0, 0.0, 0.0, 0.0, -376.0681004605413, 0.0]
['beep', 0.0, -1282.364282889877, 0.0, 0.0, 0.0, 0.0, -376.2692661606391, 0.0]
['beep', 0.0, -1281.224343922656, 0.0, 0.0, 0.0, 0.0, -374.6822923043123, 0.0]
['beep', 0.0, -1281.7831375340388, 0.0, 0.0, 0.0, 0.0, -374.7716992821335, 0.0]
['beep', 0.0, -1281.581971833941, 0.0, 0.0, 0.0, 0.0, -373.94468473728716, 0.0]
['beep', 0.0, -1281.9619514896813, 0.0, 0.0, 0.0, 0.0, -374.86110625995474, 0.0]
['beep', 0.0, -1283.548925346008, 0.0, 0.0, 0.0, 0.0, -375.26343766015026, 0.0]
['beep', 0.0, -1283.5712770904634, 0.0, 0.0, 0.0, 0.0, -375.17403068232903, 0.0]
['beep', 0.0, -1282.811317778983, 0.0, 0.0, 0.0, 0.0, -375.55401033806925, 0.0]
['beep', 0.0, -1283.168945690268, 0.0, 0.0, 0.0, 0.0, -375.84458301598823, 0.0]
['beep', 0.0, -1282.5654485899745, 0.0, 0.0, 0.0, 0.0, -375.3751963824268, 0.0]
['beep', 0.0, -1281.5596200894856, 0.0, 0.0, 0.0, 0.0, -374.57053358203575, 0.0]
['beep', 0.0, -1281.8501927674047, 0.0, 0.0, 0.0, 0.0, -374.9728649822313, 0.0]
['beep', 0.0, -1282.0737102119579, 0.0, 0.0, 0.0, 0.0, -375.3528446379715, 0.0]
['beep', 0.0, -1281.6937305562176, 0.0, 0.0, 0.0, 0.0, -375.26343766015026, 0.0]
['beep', 0.0, -1281.358454389388, 0.0, 0.0, 0.0, 0.0, -376.5598388385581, 0.0]
['beep', 0.0, -1281.738434045128, 0.0, 0.0, 0.0, 0.0, -377.1409841943961, 0.0]
['beep', 0.0, -1281.8501927674047, 0.0, 0.0, 0.0, 0.0, -377.31979815003854, 0.0]
['beep', 0.0, -1283.1242422013572, 0.0, 0.0, 0.0, 0.0, -377.5209638501363, 0.0]
['beep', 0.0, -1283.2360009236338, 0.0, 0.0, 0.0, 0.0, -376.96217023875363, 0.0]
['beep', 0.0, -1283.8842015128378, 0.0, 0.0, 0.0, 0.0, -377.6103708279575, 0.0]
['beep', 0.0, -1283.2583526680892, 0.0, 0.0, 0.0, 0.0, -375.9786934827201, 0.0]
['beep', 0.0, -1282.744262545617, 0.0, 0.0, 0.0, 0.0, -376.5821905830134, 0.0]
['beep', 0.0, -1282.811317778983, 0.0, 0.0, 0.0, 0.0, -375.17403068232903, 0.0]
['beep', 0.0, -1282.5654485899745, 0.0, 0.0, 0.0, 0.0, -375.3975481268821, 0.0]
['beep', 0.0, -1283.2360009236338, 0.0, 0.0, 0.0, 0.0, -375.4198998713374, 0.0]
['beep', 0.0, -1284.0853672129354, 0.0, 0.0, 0.0, 0.0, -375.3751963824268, 0.0]
['beep', 0.0, -1283.9512567462036, 0.0, 0.0, 0.0, 0.0, -374.92816149332066, 0.0]
['beep', 0.0, -1282.3419311454215, 0.0, 0.0, 0.0, 0.0, -375.3528446379715, 0.0]
['beep', 0.0, -1283.5265736015529, 0.0, 0.0, 0.0, 0.0, -375.9786934827201, 0.0]
['beep', 0.0, -1283.8618497683824, 0.0, 0.0, 0.0, 0.0, -375.95634173826477, 0.0]
['beep', 0.0, -1282.9230765012594, 0.0, 0.0, 0.0, 0.0, -376.5374870941028, 0.0]
['beep', 0.0, -1283.7053875571953, 0.0, 0.0, 0.0, 0.0, -376.5598388385581, 0.0]
['beep', 0.0, -1282.6325038233406, 0.0, 0.0, 0.0, 0.0, -376.2916179050944, 0.0]
['beep', 0.0, -1282.9454282457148, 0.0, 0.0, 0.0, 0.0, -376.2692661606391, 0.0]
['beep', 0.0, -1282.163117189779, 0.0, 0.0, 0.0, 0.0, -376.0681004605413, 0.0]
['beep', 0.0, -1281.6937305562176, 0.0, 0.0, 0.0, 0.0, -376.1351556939072, 0.0]
['beep', 0.0, -1281.6490270673069, 0.0, 0.0, 0.0, 0.0, -375.21873417123965, 0.0]
['beep', 0.0, -1282.0290067230471, 0.0, 0.0, 0.0, 0.0, -375.4198998713374, 0.0]
['beep', 0.0, -1281.8501927674047, 0.0, 0.0, 0.0, 0.0, -375.19638242678434, 0.0]
['beep', 0.0, -1281.9619514896813, 0.0, 0.0, 0.0, 0.0, -373.92233299283185, 0.0]
['beep', 0.0, -1281.5372683450305, 0.0, 0.0, 0.0, 0.0, -374.21290567075084, 0.0]
['beep', 0.0, -1281.4031578782985, 0.0, 0.0, 0.0, 0.0, -375.57636208252455, 0.0]
['beep', 0.0, -1281.425509622754, 0.0, 0.0, 0.0, 0.0, -374.25760915966146, 0.0]
['beep', 0.0, -1282.2078206786896, 0.0, 0.0, 0.0, 0.0, -373.3635393814492, 0.0]
['beep', 0.0, -1282.4536898676981, 0.0, 0.0, 0.0, 0.0, -374.54818183758044, 0.0]
['beep', 0.0, -1282.2525241676003, 0.0, 0.0, 0.0, 0.0, -374.57053358203575, 0.0]
['beep', 0.0, -1282.744262545617, 0.0, 0.0, 0.0, 0.0, -374.1458504373849, 0.0]
['beep', 0.0, -1283.034835223536, 0.0, 0.0, 0.0, 0.0, -373.7658707816447, 0.0]
['beep', 0.0, -1282.9454282457148, 0.0, 0.0, 0.0, 0.0, -373.6541120593682, 0.0]
['beep', 0.0, -1283.2360009236338, 0.0, 0.0, 0.0, 0.0, -372.29065564759446, 0.0]
['beep', 0.0, -1283.325407901455, 0.0, 0.0, 0.0, 0.0, -371.6201033139352, 0.0]
['beep', 0.0, -1282.0737102119579, 0.0, 0.0, 0.0, 0.0, -373.20707717026204, 0.0]
['beep', 0.0, -1282.4536898676981, 0.0, 0.0, 0.0, 0.0, -373.58705682600225, 0.0]
['beep', 0.0, -1283.0571869679914, 0.0, 0.0, 0.0, 0.0, -372.69298704779, 0.0]
['beep', 0.0, -1282.4089863787874, 0.0, 0.0, 0.0, 0.0, -373.7658707816447, 0.0]
['beep', 0.0, -1282.0960619564132, 0.0, 0.0, 0.0, 0.0, -373.6541120593682, 0.0]
['beep', 0.0, -1282.0513584675025, 0.0, 0.0, 0.0, 0.0, -373.54235333709164, 0.0]
['beep', 0.0, -1281.8501927674047, 0.0, 0.0, 0.0, 0.0, -375.0175684711419, 0.0]
['beep', 0.0, -1283.6383323238292, 0.0, 0.0, 0.0, 0.0, -373.6541120593682, 0.0]
['beep', 0.0, -1284.3759398908544, 0.0, 0.0, 0.0, 0.0, -373.60940857045756, 0.0]
['beep', 0.0, -1282.4760416121533, 0.0, 0.0, 0.0, 0.0, -373.54235333709164, 0.0]
['beep', 0.0, -1282.5654485899745, 0.0, 0.0, 0.0, 0.0, -375.0846237045078, 0.0]
['beep', 0.0, -1283.5042218570975, 0.0, 0.0, 0.0, 0.0, -374.3470161374827, 0.0]
['beep', 0.0, -1283.325407901455, 0.0, 0.0, 0.0, 0.0, -374.7716992821335, 0.0]
['beep', 0.0, -1283.7500910461058, 0.0, 0.0, 0.0, 0.0, -374.25760915966146, 0.0]
['beep', 0.0, -1284.2194776796673, 0.0, 0.0, 0.0, 0.0, -373.60940857045756, 0.0]
['beep', 0.0, -1282.6325038233406, 0.0, 0.0, 0.0, 0.0, -372.8047457700665, 0.0]
['beep', 0.0, -1281.3808061338432, 0.0, 0.0, 0.0, 0.0, -373.25178065917265, 0.0]
['beep', 0.0, -1282.5654485899745, 0.0, 0.0, 0.0, 0.0, -374.0340917151084, 0.0]
['beep', 0.0, -1282.7889660345277, 0.0, 0.0, 0.0, 0.0, -373.4305946148151, 0.0]
['beep', 0.0, -1281.5149166005751, 0.0, 0.0, 0.0, 0.0, -373.4305946148151, 0.0]
['beep', 0.0, -1282.1854689342344, 0.0, 0.0, 0.0, 0.0, -373.0953184479855, 0.0]
['beep', 0.0, -1282.6548555677957, 0.0, 0.0, 0.0, 0.0, -374.25760915966146, 0.0]
['beep', 0.0, -1282.4313381232428, 0.0, 0.0, 0.0, 0.0, -373.29648414808327, 0.0]
['beep', 0.0, -1282.4313381232428, 0.0, 0.0, 0.0, 0.0, -372.3577108809604, 0.0]
['beep', 0.0, -1284.130070701846, 0.0, 0.0, 0.0, 0.0, -372.7823940256112, 0.0]
['beep', 0.0, -1284.5100503575864, 0.0, 0.0, 0.0, 0.0, -373.0953184479855, 0.0]
['beep', 0.0, -1284.0406637240249, 0.0, 0.0, 0.0, 0.0, -371.9777312252201, 0.0]
['beep', 0.0, -1283.9959602351141, 0.0, 0.0, 0.0, 0.0, -372.1788969253179, 0.0]
['beep', 0.0, -1284.711216057684, 0.0, 0.0, 0.0, 0.0, -372.3353591365051, 0.0]
['beep', 0.0, -1285.0241404800583, 0.0, 0.0, 0.0, 0.0, -371.9553794807648, 0.0]
['beep', 0.0, -1284.4206433797651, 0.0, 0.0, 0.0, 0.0, -372.8270975145218, 0.0]
['beep', 0.0, -1284.0183119795695, 0.0, 0.0, 0.0, 0.0, -372.3353591365051, 0.0]
['beep', 0.0, -1285.0911957134242, 0.0, 0.0, 0.0, 0.0, -373.3635393814492, 0.0]
['beep', 0.0, -1285.0911957134242, 0.0, 0.0, 0.0, 0.0, -373.18472542580673, 0.0]
['beep', 0.0, -1284.2418294241227, 0.0, 0.0, 0.0, 0.0, -374.25760915966146, 0.0]
['beep', 0.0, -1284.4429951242203, 0.0, 0.0, 0.0, 0.0, -375.26343766015026, 0.0]
['beep', 0.0, -1284.353588146399, 0.0, 0.0, 0.0, 0.0, -373.8105742705553, 0.0]
['beep', 0.0, -1284.7559195465947, 0.0, 0.0, 0.0, 0.0, -374.6822923043123, 0.0]
['beep', 0.0, -1284.9347335022371, 0.0, 0.0, 0.0, 0.0, -376.1128039494519, 0.0]
['beep', 0.0, -1284.487698613131, 0.0, 0.0, 0.0, 0.0, -375.59871382697986, 0.0]
['beep', 0.0, -1285.8288032804494, 0.0, 0.0, 0.0, 0.0, -374.54818183758044, 0.0]
['beep', 0.0, -1284.8676782688713, 0.0, 0.0, 0.0, 0.0, -374.7716992821335, 0.0]
['beep', 0.0, -1284.77827129105, 0.0, 0.0, 0.0, 0.0, -374.3246643930274, 0.0]
['beep', 0.0, -1284.6665125687734, 0.0, 0.0, 0.0, 0.0, -375.59871382697986, 0.0]
['beep', 0.0, -1283.6383323238292, 0.0, 0.0, 0.0, 0.0, -374.8164027710441, 0.0]
['beep', 0.0, -1283.4148148792763, 0.0, 0.0, 0.0, 0.0, -375.3751963824268, 0.0]
['beep', 0.0, -1283.615980579374, 0.0, 0.0, 0.0, 0.0, -375.88928650489885, 0.0]
['beep', 0.0, -1284.197125935212, 0.0, 0.0, 0.0, 0.0, -374.9952167266866, 0.0]
['beep', 0.0, -1283.0795387124467, 0.0, 0.0, 0.0, 0.0, -374.9728649822313, 0.0]
['beep', 0.0, -1282.6325038233406, 0.0, 0.0, 0.0, 0.0, -373.96703648174247, 0.0]
['beep', 0.0, -1283.5712770904634, 0.0, 0.0, 0.0, 0.0, -374.1011469484743, 0.0]
['beep', 0.0, -1283.325407901455, 0.0, 0.0, 0.0, 0.0, -373.6541120593682, 0.0]
['beep', 0.0, -1283.392463134821, 0.0, 0.0, 0.0, 0.0, -373.92233299283185, 0.0]
['beep', 0.0, -1284.3982916353098, 0.0, 0.0, 0.0, 0.0, -374.59288532649106, 0.0]
['beep', 0.0, -1285.0911957134242, 0.0, 0.0, 0.0, 0.0, -373.7435190371894, 0.0]
['beep', 0.0, -1285.5605823469857, 0.0, 0.0, 0.0, 0.0, -374.369367881938, 0.0]
['beep', 0.0, -1285.649989324807, 0.0, 0.0, 0.0, 0.0, -374.0340917151084, 0.0]
['beep', 0.0, -1284.9794369911476, 0.0, 0.0, 0.0, 0.0, -373.92233299283185, 0.0]
['beep', 0.0, -1284.0183119795695, 0.0, 0.0, 0.0, 0.0, -374.3246643930274, 0.0]
['beep', 0.0, -1283.4595183681868, 0.0, 0.0, 0.0, 0.0, -373.94468473728716, 0.0]
['beep', 0.0, -1284.0853672129354, 0.0, 0.0, 0.0, 0.0, -373.4752981037257, 0.0]
['beep', 0.0, -1282.5878003344299, 0.0, 0.0, 0.0, 0.0, -373.8329260150106, 0.0]
['beep', 0.0, -1283.4371666237316, 0.0, 0.0, 0.0, 0.0, -373.1400219368961, 0.0]
['beep', 0.0, -1283.8171462794717, 0.0, 0.0, 0.0, 0.0, -374.078795204019, 0.0]
['beep', 0.0, -1283.1242422013572, 0.0, 0.0, 0.0, 0.0, -373.1176701924408, 0.0]
['beep', 0.0, -1283.191297434723, 0.0, 0.0, 0.0, 0.0, -372.983559725709, 0.0]
['beep', 0.0, -1284.0630154684802, 0.0, 0.0, 0.0, 0.0, -373.6988155482788, 0.0]
['beep', 0.0, -1284.0853672129354, 0.0, 0.0, 0.0, 0.0, -372.89415274788774, 0.0]
['beep', 0.0, -1283.5042218570975, 0.0, 0.0, 0.0, 0.0, -372.402414369871, 0.0]
['beep', 0.0, -1285.0688439689688, 0.0, 0.0, 0.0, 0.0, -372.31300739204977, 0.0]
['beep', 0.0, -1283.7053875571953, 0.0, 0.0, 0.0, 0.0, -374.4140713708486, 0.0]
['beep', 0.0, -1282.1854689342344, 0.0, 0.0, 0.0, 0.0, -374.92816149332066, 0.0]
['beep', 0.0, -1281.581971833941, 0.0, 0.0, 0.0, 0.0, -373.3858911259045, 0.0]
['beep', 0.0, -1281.2466956671115, 0.0, 0.0, 0.0, 0.0, -373.27413240362796, 0.0]
['beep', 0.0, -1280.1738119332567, 0.0, 0.0, 0.0, 0.0, -371.3071788915609, 0.0]
['beep', 0.0, -1277.9833409766366, 0.0, 0.0, 0.0, 0.0, -371.79891726957766, 0.0]
['beep', 0.0, -1277.9162857432707, 0.0, 0.0, 0.0, 0.0, -372.7376905367006, 0.0]
['beep', 0.0, -1279.5256113440528, 0.0, 0.0, 0.0, 0.0, -371.6424550583905, 0.0]
['beep', 0.0, -1280.7549572890946, 0.0, 0.0, 0.0, 0.0, -370.5248678356252, 0.0]
['beep', 0.0, -1281.738434045128, 0.0, 0.0, 0.0, 0.0, -370.949550980276, 0.0]
['beep', 0.0, -1283.5712770904634, 0.0, 0.0, 0.0, 0.0, -371.2624754026503, 0.0]
['beep', 0.0, -1284.0183119795695, 0.0, 0.0, 0.0, 0.0, -371.10601319146315, 0.0]
['beep', 0.0, -1282.2525241676003, 0.0, 0.0, 0.0, 0.0, -370.72603353572293, 0.0]
['beep', 0.0, -1282.9230765012594, 0.0, 0.0, 0.0, 0.0, -371.9106759918542, 0.0]
['beep', 0.0, -1282.9677799901701, 0.0, 0.0, 0.0, 0.0, -372.7153387922453, 0.0]
['beep', 0.0, -1281.8054892784942, 0.0, 0.0, 0.0, 0.0, -372.0000829696754, 0.0]
['beep', 0.0, -1282.006654978592, 0.0, 0.0, 0.0, 0.0, -373.20707717026204, 0.0]
['beep', 0.0, -1283.0795387124467, 0.0, 0.0, 0.0, 0.0, -372.11184169195195, 0.0]
['beep', 0.0, -1282.744262545617, 0.0, 0.0, 0.0, 0.0, -372.31300739204977, 0.0]
['beep', 0.0, -1284.0183119795695, 0.0, 0.0, 0.0, 0.0, -372.87180100343244, 0.0]
['beep', 0.0, -1283.4595183681868, 0.0, 0.0, 0.0, 0.0, -371.46364110274806, 0.0]
['beep', 0.0, -1282.677207312251, 0.0, 0.0, 0.0, 0.0, -371.9553794807648, 0.0]
['beep', 0.0, -1282.4983933566086, 0.0, 0.0, 0.0, 0.0, -372.983559725709, 0.0]
['beep', 0.0, -1282.3419311454215, 0.0, 0.0, 0.0, 0.0, -371.39658586938214, 0.0]
['beep', 0.0, -1282.6325038233406, 0.0, 0.0, 0.0, 0.0, -371.0166062136419, 0.0]
['beep', 0.0, -1280.933771244737, 0.0, 0.0, 0.0, 0.0, -372.13419343640726, 0.0]
['beep', 0.0, -1280.6208468223629, 0.0, 0.0, 0.0, 0.0, -372.3577108809604, 0.0]
['beep', 0.0, -1282.811317778983, 0.0, 0.0, 0.0, 0.0, -372.983559725709, 0.0]
['beep', 0.0, -1281.6266753228517, 0.0, 0.0, 0.0, 0.0, -372.84944925897713, 0.0]
['beep', 0.0, -1281.1349369448349, 0.0, 0.0, 0.0, 0.0, -372.983559725709, 0.0]
['beep', 0.0, -1282.2525241676003, 0.0, 0.0, 0.0, 0.0, -372.3577108809604, 0.0]
['beep', 0.0, -1281.358454389388, 0.0, 0.0, 0.0, 0.0, -372.1788969253179, 0.0]
['beep', 0.0, -1282.1407654453237, 0.0, 0.0, 0.0, 0.0, -372.4471178587816, 0.0]
['beep', 0.0, -1282.5654485899745, 0.0, 0.0, 0.0, 0.0, -372.53652483660284, 0.0]
['beep', 0.0, -1282.8336695234382, 0.0, 0.0, 0.0, 0.0, -372.402414369871, 0.0]
['beep', 0.0, -1282.0513584675025, 0.0, 0.0, 0.0, 0.0, -372.1788969253179, 0.0]
['beep', 0.0, -1281.5596200894856, 0.0, 0.0, 0.0, 0.0, -371.12836493591846, 0.0]
['beep', 0.0, -1283.0124834790806, 0.0, 0.0, 0.0, 0.0, -371.79891726957766, 0.0]
['beep', 0.0, -1283.4818701126421, 0.0, 0.0, 0.0, 0.0, -373.3635393814492, 0.0]
['beep', 0.0, -1282.5878003344299, 0.0, 0.0, 0.0, 0.0, -371.79891726957766, 0.0]
['beep', 0.0, -1282.5878003344299, 0.0, 0.0, 0.0, 0.0, -372.51417309214753, 0.0]
['beep', 0.0, -1283.548925346008, 0.0, 0.0, 0.0, 0.0, -373.54235333709164, 0.0]
['beep', 0.0, -1283.2583526680892, 0.0, 0.0, 0.0, 0.0, -372.6706353033347, 0.0]
['beep', 0.0, -1282.811317778983, 0.0, 0.0, 0.0, 0.0, -371.9777312252201, 0.0]
['beep', 0.0, -1282.5654485899745, 0.0, 0.0, 0.0, 0.0, -372.55887658105814, 0.0]
['beep', 0.0, -1282.677207312251, 0.0, 0.0, 0.0, 0.0, -372.4694696032369, 0.0]
['beep', 0.0, -1282.6548555677957, 0.0, 0.0, 0.0, 0.0, -372.08948994749665, 0.0]
['beep', 0.0, -1283.68303581274, 0.0, 0.0, 0.0, 0.0, -371.3071788915609, 0.0]
['beep', 0.0, -1283.548925346008, 0.0, 0.0, 0.0, 0.0, -370.5695713245358, 0.0]
['beep', 0.0, -1283.0124834790806, 0.0, 0.0, 0.0, 0.0, -371.5753998250246, 0.0]
['beep', 0.0, -1283.1018904569019, 0.0, 0.0, 0.0, 0.0, -372.55887658105814, 0.0]
['beep', 0.0, -1283.0795387124467, 0.0, 0.0, 0.0, 0.0, -372.7376905367006, 0.0]
['beep', 0.0, -1282.0737102119579, 0.0, 0.0, 0.0, 0.0, -372.84944925897713, 0.0]
['beep', 0.0, -1282.1184137008684, 0.0, 0.0, 0.0, 0.0, -371.2177719137397, 0.0]
['beep', 0.0, -1282.5654485899745, 0.0, 0.0, 0.0, 0.0, -371.5753998250246, 0.0]
['beep', 0.0, -1282.364282889877, 0.0, 0.0, 0.0, 0.0, -370.50251609116987, 0.0]
['beep', 0.0, -1281.8948962563154, 0.0, 0.0, 0.0, 0.0, -370.8824957469101, 0.0]
['beep', 0.0, -1282.006654978592, 0.0, 0.0, 0.0, 0.0, -371.530696336114, 0.0]
['beep', 0.0, -1281.2019921782007, 0.0, 0.0, 0.0, 0.0, -372.26830390313916, 0.0]
['beep', 0.0, -1281.581971833941, 0.0, 0.0, 0.0, 0.0, -372.53652483660284, 0.0]
['beep', 0.0, -1281.1349369448349, 0.0, 0.0, 0.0, 0.0, -373.4305946148151, 0.0]
['beep', 0.0, -1281.2466956671115, 0.0, 0.0, 0.0, 0.0, -373.7435190371894, 0.0]
['beep', 0.0, -1281.1349369448349, 0.0, 0.0, 0.0, 0.0, -373.4082428703598, 0.0]
['beep', 0.0, -1281.6490270673069, 0.0, 0.0, 0.0, 0.0, -372.64828355887937, 0.0]
['beep', 0.0, -1281.6713788117622, 0.0, 0.0, 0.0, 0.0, -373.1400219368961, 0.0]
['beep', 0.0, -1281.1125852003795, 0.0, 0.0, 0.0, 0.0, -372.3577108809604, 0.0]
['beep', 0.0, -1281.581971833941, 0.0, 0.0, 0.0, 0.0, -372.53652483660284, 0.0]
['beep', 0.0, -1281.3808061338432, 0.0, 0.0, 0.0, 0.0, -372.0224347141307, 0.0]
['beep', 0.0, -1279.8608875108823, 0.0, 0.0, 0.0, 0.0, -373.0282632146196, 0.0]
['beep', 0.0, -1280.2855706555333, 0.0, 0.0, 0.0, 0.0, -373.497649848181, 0.0]
['beep', 0.0, -1280.3526258888992, 0.0, 0.0, 0.0, 0.0, -371.530696336114, 0.0]
['beep', 0.0, -1280.77730903355, 0.0, 0.0, 0.0, 0.0, -371.6648068028458, 0.0]
['beep', 0.0, -1281.2690474115668, 0.0, 0.0, 0.0, 0.0, -372.62593181442406, 0.0]
['beep', 0.0, -1280.5090881000863, 0.0, 0.0, 0.0, 0.0, -371.9106759918542, 0.0]
['beep', 0.0, -1281.5596200894856, 0.0, 0.0, 0.0, 0.0, -370.77073702463355, 0.0]
['beep', 0.0, -1280.553791588997, 0.0, 0.0, 0.0, 0.0, -370.50251609116987, 0.0]
['beep', 0.0, -1280.6879020557287, 0.0, 0.0, 0.0, 0.0, -370.05548120206373, 0.0]
['beep', 0.0, -1280.8890677558265, 0.0, 0.0, 0.0, 0.0, -370.368405624438, 0.0]
['beep', 0.0, -1279.7044252996952, 0.0, 0.0, 0.0, 0.0, -371.08366144700784, 0.0]
['beep', 0.0, -1280.5761433334521, 0.0, 0.0, 0.0, 0.0, -371.08366144700784, 0.0]
['beep', 0.0, -1281.6937305562176, 0.0, 0.0, 0.0, 0.0, -371.10601319146315, 0.0]
['beep', 0.0, -1281.1125852003795, 0.0, 0.0, 0.0, 0.0, -371.5530480805693, 0.0]
['beep', 0.0, -1281.0231782225583, 0.0, 0.0, 0.0, 0.0, -371.41893761383744, 0.0]
['beep', 0.0, -1280.911419500282, 0.0, 0.0, 0.0, 0.0, -371.5977515694799, 0.0]
['beep', 0.0, -1280.2185154221672, 0.0, 0.0, 0.0, 0.0, -372.24595215868385, 0.0]
['beep', 0.0, -1281.8948962563154, 0.0, 0.0, 0.0, 0.0, -372.91650449234305, 0.0]
['beep', 0.0, -1282.4760416121533, 0.0, 0.0, 0.0, 0.0, -371.73186203621174, 0.0]
['beep', 0.0, -1281.425509622754, 0.0, 0.0, 0.0, 0.0, -372.24595215868385, 0.0]
['beep', 0.0, -1282.386634634332, 0.0, 0.0, 0.0, 0.0, -372.4918213476922, 0.0]
['beep', 0.0, -1281.6713788117622, 0.0, 0.0, 0.0, 0.0, -372.29065564759446, 0.0]
['beep', 0.0, -1281.4702131116644, 0.0, 0.0, 0.0, 0.0, -372.29065564759446, 0.0]
['beep', 0.0, -1282.744262545617, 0.0, 0.0, 0.0, 0.0, -372.91650449234305, 0.0]
['beep', 0.0, -1281.8501927674047, 0.0, 0.0, 0.0, 0.0, -372.8047457700665, 0.0]
['beep', 0.0, -1282.4313381232428, 0.0, 0.0, 0.0, 0.0, -373.0953184479855, 0.0]
['beep', 0.0, -1283.8618497683824, 0.0, 0.0, 0.0, 0.0, -372.3577108809604, 0.0]
['beep', 0.0, -1282.9677799901701, 0.0, 0.0, 0.0, 0.0, -371.17306842482907, 0.0]
['beep', 0.0, -1282.8336695234382, 0.0, 0.0, 0.0, 0.0, -371.77656552512235, 0.0]
['beep', 0.0, -1283.7947945350165, 0.0, 0.0, 0.0, 0.0, -371.2848271471056, 0.0]
['beep', 0.0, -1282.6101520788852, 0.0, 0.0, 0.0, 0.0, -370.5248678356252, 0.0]
['beep', 0.0, -1281.8948962563154, 0.0, 0.0, 0.0, 0.0, -371.1954201692844, 0.0]
['beep', 0.0, -1283.4818701126421, 0.0, 0.0, 0.0, 0.0, -370.6366265579017, 0.0]
['beep', 0.0, -1284.1747741907566, 0.0, 0.0, 0.0, 0.0, -370.368405624438, 0.0]
['beep', 0.0, -1282.878373012349, 0.0, 0.0, 0.0, 0.0, -369.9660742242425, 0.0]
['beep', 0.0, -1282.1407654453237, 0.0, 0.0, 0.0, 0.0, -370.9719027247313, 0.0]
['beep', 0.0, -1283.4148148792763, 0.0, 0.0, 0.0, 0.0, -370.2789986466168, 0.0]
['beep', 0.0, -1283.4148148792763, 0.0, 0.0, 0.0, 0.0, -369.6755015463235, 0.0]
['beep', 0.0, -1282.3195794009662, 0.0, 0.0, 0.0, 0.0, -370.48016434671456, 0.0]
['beep', 0.0, -1282.8560212678935, 0.0, 0.0, 0.0, 0.0, -370.12253643542965, 0.0]
['beep', 0.0, -1283.4595183681868, 0.0, 0.0, 0.0, 0.0, -369.51903933513637, 0.0]
['beep', 0.0, -1283.9289050017483, 0.0, 0.0, 0.0, 0.0, -369.78726026860005, 0.0]
['beep', 0.0, -1283.2583526680892, 0.0, 0.0, 0.0, 0.0, -370.2342951577062, 0.0]
['beep', 0.0, -1283.3701113903655, 0.0, 0.0, 0.0, 0.0, -370.2342951577062, 0.0]
['beep', 0.0, -1282.744262545617, 0.0, 0.0, 0.0, 0.0, -369.6978532907788, 0.0]
['beep', 0.0, -1282.364282889877, 0.0, 0.0, 0.0, 0.0, -370.50251609116987, 0.0]
['beep', 0.0, -1282.3195794009662, 0.0, 0.0, 0.0, 0.0, -371.3071788915609, 0.0]
['beep', 0.0, -1282.364282889877, 0.0, 0.0, 0.0, 0.0, -371.5977515694799, 0.0]
['beep', 0.0, -1281.6937305562176, 0.0, 0.0, 0.0, 0.0, -370.2789986466168, 0.0]
['beep', 0.0, -1282.0960619564132, 0.0, 0.0, 0.0, 0.0, -370.81544051354416, 0.0]
['beep', 0.0, -1283.5042218570975, 0.0, 0.0, 0.0, 0.0, -370.6142748134464, 0.0]
['beep', 0.0, -1283.7277393016504, 0.0, 0.0, 0.0, 0.0, -370.74838528017824, 0.0]
['beep', 0.0, -1284.5771055909522, 0.0, 0.0, 0.0, 0.0, -369.85431550196597, 0.0]
['beep', 0.0, -1283.3701113903655, 0.0, 0.0, 0.0, 0.0, -370.16723992434027, 0.0]
['beep', 0.0, -1283.68303581274, 0.0, 0.0, 0.0, 0.0, -370.0331294576084, 0.0]
['beep', 0.0, -1283.2360009236338, 0.0, 0.0, 0.0, 0.0, -369.9660742242425, 0.0]
['beep', 0.0, -1283.0571869679914, 0.0, 0.0, 0.0, 0.0, -371.6648068028458, 0.0]
['beep', 0.0, -1282.9454282457148, 0.0, 0.0, 0.0, 0.0, -371.12836493591846, 0.0]
['beep', 0.0, -1283.839498023927, 0.0, 0.0, 0.0, 0.0, -371.3071788915609, 0.0]
['beep', 0.0, -1283.191297434723, 0.0, 0.0, 0.0, 0.0, -371.3295306360162, 0.0]
['beep', 0.0, -1283.5265736015529, 0.0, 0.0, 0.0, 0.0, -371.1954201692844, 0.0]
['beep', 0.0, -1282.7889660345277, 0.0, 0.0, 0.0, 0.0, -370.3013503910721, 0.0]
['beep', 0.0, -1281.8948962563154, 0.0, 0.0, 0.0, 0.0, -369.8990189908766, 0.0]
['beep', 0.0, -1281.4702131116644, 0.0, 0.0, 0.0, 0.0, -369.78726026860005, 0.0]
['beep', 0.0, -1281.7607857895835, 0.0, 0.0, 0.0, 0.0, -369.40728061285984, 0.0]
['beep', 0.0, -1282.4313381232428, 0.0, 0.0, 0.0, 0.0, -369.74255677968944, 0.0]
['beep', 0.0, -1282.2525241676003, 0.0, 0.0, 0.0, 0.0, -370.6813300468123, 0.0]
['beep', 0.0, -1282.744262545617, 0.0, 0.0, 0.0, 0.0, -370.10018469097434, 0.0]
['beep', 0.0, -1283.0571869679914, 0.0, 0.0, 0.0, 0.0, -370.48016434671456, 0.0]
['beep', 0.0, -1283.5936288349187, 0.0, 0.0, 0.0, 0.0, -369.8990189908766, 0.0]
['beep', 0.0, -1283.1242422013572, 0.0, 0.0, 0.0, 0.0, -370.6366265579017, 0.0]
['beep', 0.0, -1282.3419311454215, 0.0, 0.0, 0.0, 0.0, -369.3625771239492, 0.0]
['beep', 0.0, -1282.811317778983, 0.0, 0.0, 0.0, 0.0, -369.2508184016727, 0.0]
['beep', 0.0, -1284.4206433797651, 0.0, 0.0, 0.0, 0.0, -369.2284666572174, 0.0]
['beep', 0.0, -1282.9007247568043, 0.0, 0.0, 0.0, 0.0, -369.16141142385146, 0.0]
['beep', 0.0, -1282.4760416121533, 0.0, 0.0, 0.0, 0.0, -368.78143176811125, 0.0]
['beep', 0.0, -1281.738434045128, 0.0, 0.0, 0.0, 0.0, -368.3120451345498, 0.0]
['beep', 0.0, -1281.0008264781031, 0.0, 0.0, 0.0, 0.0, -367.59678931197993, 0.0]
['beep', 0.0, -1283.4595183681868, 0.0, 0.0, 0.0, 0.0, -367.2168096562397, 0.0]
['beep', 0.0, -1282.364282889877, 0.0, 0.0, 0.0, 0.0, -368.2673416456392, 0.0]
['beep', 0.0, -1281.6266753228517, 0.0, 0.0, 0.0, 0.0, -367.3956236118822, 0.0]
['beep', 0.0, -1282.0737102119579, 0.0, 0.0, 0.0, 0.0, -368.1779346678179, 0.0]
['beep', 0.0, -1281.716082300673, 0.0, 0.0, 0.0, 0.0, -369.09435619048554, 0.0]
['beep', 0.0, -1281.4478613672093, 0.0, 0.0, 0.0, 0.0, -369.9660742242425, 0.0]
['beep', 0.0, -1282.3195794009662, 0.0, 0.0, 0.0, 0.0, -369.6084463129576, 0.0]
['beep', 0.0, -1281.9172480007708, 0.0, 0.0, 0.0, 0.0, -368.75908002365594, 0.0]
['beep', 0.0, -1281.6713788117622, 0.0, 0.0, 0.0, 0.0, -367.8650102454436, 0.0]
['beep', 0.0, -1282.4536898676981, 0.0, 0.0, 0.0, 0.0, -368.2896933900945, 0.0]
['beep', 0.0, -1282.1407654453237, 0.0, 0.0, 0.0, 0.0, -368.40145211237103, 0.0]
['beep', 0.0, -1281.7831375340388, 0.0, 0.0, 0.0, 0.0, -368.02147245663076, 0.0]
['beep', 0.0, -1283.0124834790806, 0.0, 0.0, 0.0, 0.0, -369.3402253794939, 0.0]
['beep', 0.0, -1282.9230765012594, 0.0, 0.0, 0.0, 0.0, -370.2789986466168, 0.0]
['beep', 0.0, -1283.034835223536, 0.0, 0.0, 0.0, 0.0, -369.9437224797872, 0.0]
['beep', 0.0, -1283.2807044125443, 0.0, 0.0, 0.0, 0.0, -370.45781260225925, 0.0]
['beep', 0.0, -1283.3477596459104, 0.0, 0.0, 0.0, 0.0, -371.46364110274806, 0.0]
['beep', 0.0, -1284.130070701846, 0.0, 0.0, 0.0, 0.0, -371.5530480805693, 0.0]
['beep', 0.0, -1283.973608490659, 0.0, 0.0, 0.0, 0.0, -371.0166062136419, 0.0]
['beep', 0.0, -1282.7219108011618, 0.0, 0.0, 0.0, 0.0, -368.9602457237537, 0.0]
['beep', 0.0, -1283.392463134821, 0.0, 0.0, 0.0, 0.0, -369.6755015463235, 0.0]
['beep', 0.0, -1282.9230765012594, 0.0, 0.0, 0.0, 0.0, -369.49668759068106, 0.0]
['beep', 0.0, -1283.0124834790806, 0.0, 0.0, 0.0, 0.0, -368.0885276899967, 0.0]
['beep', 0.0, -1282.9230765012594, 0.0, 0.0, 0.0, 0.0, -368.40145211237103, 0.0]
['beep', 0.0, -1282.744262545617, 0.0, 0.0, 0.0, 0.0, -369.6084463129576, 0.0]
['beep', 0.0, -1283.3030561569997, 0.0, 0.0, 0.0, 0.0, -369.9660742242425, 0.0]
['beep', 0.0, -1282.0737102119579, 0.0, 0.0, 0.0, 0.0, -368.9155422348431, 0.0]
['beep', 0.0, -1283.8618497683824, 0.0, 0.0, 0.0, 0.0, -369.85431550196597, 0.0]
['beep', 0.0, -1282.9677799901701, 0.0, 0.0, 0.0, 0.0, -369.11670793494085, 0.0]
['beep', 0.0, -1282.163117189779, 0.0, 0.0, 0.0, 0.0, -367.7532515231671, 0.0]
['beep', 0.0, -1283.3701113903655, 0.0, 0.0, 0.0, 0.0, -368.1332311789073, 0.0]
['beep', 0.0, -1284.2418294241227, 0.0, 0.0, 0.0, 0.0, -368.1779346678179, 0.0]
['beep', 0.0, -1282.9901317346255, 0.0, 0.0, 0.0, 0.0, -368.44615560128165, 0.0]
['beep', 0.0, -1283.5042218570975, 0.0, 0.0, 0.0, 0.0, -369.6084463129576, 0.0]
['beep', 0.0, -1283.9512567462036, 0.0, 0.0, 0.0, 0.0, -369.40728061285984, 0.0]
['beep', 0.0, -1282.9454282457148, 0.0, 0.0, 0.0, 0.0, -369.11670793494085, 0.0]
['beep', 0.0, -1281.4925648561198, 0.0, 0.0, 0.0, 0.0, -369.16141142385146, 0.0]
['beep', 0.0, -1281.4925648561198, 0.0, 0.0, 0.0, 0.0, -369.51903933513637, 0.0]
['beep', 0.0, -1282.9454282457148, 0.0, 0.0, 0.0, 0.0, -369.3402253794939, 0.0]
['beep', 0.0, -1282.364282889877, 0.0, 0.0, 0.0, 0.0, -370.2566469021615, 0.0]
['beep', 0.0, -1281.1125852003795, 0.0, 0.0, 0.0, 0.0, -371.08366144700784, 0.0]
['beep', 0.0, -1282.9007247568043, 0.0, 0.0, 0.0, 0.0, -369.8990189908766, 0.0]
['beep', 0.0, -1283.68303581274, 0.0, 0.0, 0.0, 0.0, -369.74255677968944, 0.0]
['beep', 0.0, -1282.7219108011618, 0.0, 0.0, 0.0, 0.0, -369.3402253794939, 0.0]
['beep', 0.0, -1283.034835223536, 0.0, 0.0, 0.0, 0.0, -367.7532515231671, 0.0]
['beep', 0.0, -1282.878373012349, 0.0, 0.0, 0.0, 0.0, -367.7308997787118, 0.0]
['beep', 0.0, -1282.6548555677957, 0.0, 0.0, 0.0, 0.0, -368.3567486234604, 0.0]
['beep', 0.0, -1282.1407654453237, 0.0, 0.0, 0.0, 0.0, -368.73672827920063, 0.0]
['beep', 0.0, -1280.7326055446395, 0.0, 0.0, 0.0, 0.0, -367.8650102454436, 0.0]
['beep', 0.0, -1281.0455299670136, 0.0, 0.0, 0.0, 0.0, -367.5520858230693, 0.0]
['beep', 0.0, -1281.6043235783964, 0.0, 0.0, 0.0, 0.0, -368.2226381567286, 0.0]
['beep', 0.0, -1280.77730903355, 0.0, 0.0, 0.0, 0.0, -368.5355625791029, 0.0]
['beep', 0.0, -1282.2748759120557, 0.0, 0.0, 0.0, 0.0, -368.6249695569241, 0.0]
['beep', 0.0, -1281.1125852003795, 0.0, 0.0, 0.0, 0.0, -369.11670793494085, 0.0]
['beep', 0.0, -1281.5149166005751, 0.0, 0.0, 0.0, 0.0, -367.8873619898989, 0.0]
['beep', 0.0, -1281.425509622754, 0.0, 0.0, 0.0, 0.0, -368.6026178124688, 0.0]
['beep', 0.0, -1282.0737102119579, 0.0, 0.0, 0.0, 0.0, -369.563742824047, 0.0]
['beep', 0.0, -1282.7666142900723, 0.0, 0.0, 0.0, 0.0, -369.9437224797872, 0.0]
['beep', 0.0, -1281.9619514896813, 0.0, 0.0, 0.0, 0.0, -369.78726026860005, 0.0]
['beep', 0.0, -1282.9230765012594, 0.0, 0.0, 0.0, 0.0, -370.05548120206373, 0.0]
['beep', 0.0, -1282.4760416121533, 0.0, 0.0, 0.0, 0.0, -369.2061149127621, 0.0]
['beep', 0.0, -1282.8560212678935, 0.0, 0.0, 0.0, 0.0, -369.09435619048554, 0.0]
['beep', 0.0, -1282.744262545617, 0.0, 0.0, 0.0, 0.0, -369.6531498018682, 0.0]
['beep', 0.0, -1282.006654978592, 0.0, 0.0, 0.0, 0.0, -369.6307980574129, 0.0]
['beep', 0.0, -1281.716082300673, 0.0, 0.0, 0.0, 0.0, -369.85431550196597, 0.0]
['beep', 0.0, -1282.3419311454215, 0.0, 0.0, 0.0, 0.0, -368.80378351256655, 0.0]
['beep', 0.0, -1282.0513584675025, 0.0, 0.0, 0.0, 0.0, -369.51903933513637, 0.0]
['beep', 0.0, -1281.939599745226, 0.0, 0.0, 0.0, 0.0, -369.72020503523413, 0.0]
['beep', 0.0, -1282.163117189779, 0.0, 0.0, 0.0, 0.0, -370.3013503910721, 0.0]
['beep', 0.0, -1282.5878003344299, 0.0, 0.0, 0.0, 0.0, -369.78726026860005, 0.0]
['beep', 0.0, -1283.973608490659, 0.0, 0.0, 0.0, 0.0, -369.49668759068106, 0.0]
['beep', 0.0, -1283.191297434723, 0.0, 0.0, 0.0, 0.0, -368.6249695569241, 0.0]
['beep', 0.0, -1282.4983933566086, 0.0, 0.0, 0.0, 0.0, -369.78726026860005, 0.0]
['beep', 0.0, -1281.7607857895835, 0.0, 0.0, 0.0, 0.0, -370.12253643542965, 0.0]
['beep', 0.0, -1281.7831375340388, 0.0, 0.0, 0.0, 0.0, -368.3567486234604, 0.0]
['beep', 0.0, -1279.7267770441506, 0.0, 0.0, 0.0, 0.0, -367.0826991895079, 0.0]
['beep', 0.0, -1278.8774107548488, 0.0, 0.0, 0.0, 0.0, -366.63566430040174, 0.0]
['beep', 0.0, -1278.229210165645, 0.0, 0.0, 0.0, 0.0, -367.4850305897034, 0.0]
['beep', 0.0, -1277.7151200431729, 0.0, 0.0, 0.0, 0.0, -367.06034744505257, 0.0]
['beep', 0.0, -1279.972646233159, 0.0, 0.0, 0.0, 0.0, -367.1050509339632, 0.0]
['beep', 0.0, -1282.4983933566086, 0.0, 0.0, 0.0, 0.0, -367.59678931197993, 0.0]
['beep', 0.0, -1282.5430968455194, 0.0, 0.0, 0.0, 0.0, -368.40145211237103, 0.0]
['beep', 0.0, -1282.6101520788852, 0.0, 0.0, 0.0, 0.0, -367.8426585009883, 0.0]
['beep', 0.0, -1284.2194776796673, 0.0, 0.0, 0.0, 0.0, -366.7697747671336, 0.0]
['beep', 0.0, -1284.5771055909522, 0.0, 0.0, 0.0, 0.0, -367.1721061673291, 0.0]
['beep', 0.0, -1283.4148148792763, 0.0, 0.0, 0.0, 0.0, -368.2226381567286, 0.0]
['beep', 0.0, -1283.5936288349187, 0.0, 0.0, 0.0, 0.0, -367.8650102454436, 0.0]
['beep', 0.0, -1284.1747741907566, 0.0, 0.0, 0.0, 0.0, -368.0661759455414, 0.0]
['beep', 0.0, -1283.5265736015529, 0.0, 0.0, 0.0, 0.0, -367.8650102454436, 0.0]
['beep', 0.0, -1283.8171462794717, 0.0, 0.0, 0.0, 0.0, -367.1721061673291, 0.0]
['beep', 0.0, -1284.1077189573907, 0.0, 0.0, 0.0, 0.0, -368.2226381567286, 0.0]
['beep', 0.0, -1284.8229747799605, 0.0, 0.0, 0.0, 0.0, -366.59096081149113, 0.0]
['beep', 0.0, -1283.839498023927, 0.0, 0.0, 0.0, 0.0, -365.2498561441727, 0.0]
['beep', 0.0, -1284.130070701846, 0.0, 0.0, 0.0, 0.0, -366.30038813357214, 0.0]
['beep', 0.0, -1284.2641811685778, 0.0, 0.0, 0.0, 0.0, -367.37327186742687, 0.0]
['beep', 0.0, -1284.2641811685778, 0.0, 0.0, 0.0, 0.0, -367.32856837851625, 0.0]
['beep', 0.0, -1283.68303581274, 0.0, 0.0, 0.0, 0.0, -368.02147245663076, 0.0]
['beep', 0.0, -1284.1524224463014, 0.0, 0.0, 0.0, 0.0, -367.5073823341587, 0.0]
['beep', 0.0, -1283.0571869679914, 0.0, 0.0, 0.0, 0.0, -367.8873619898989, 0.0]
['beep', 0.0, -1282.6995590567064, 0.0, 0.0, 0.0, 0.0, -367.5073823341587, 0.0]
['beep', 0.0, -1283.1018904569019, 0.0, 0.0, 0.0, 0.0, -367.2168096562397, 0.0]
['beep', 0.0, -1283.034835223536, 0.0, 0.0, 0.0, 0.0, -368.04382420108607, 0.0]
['beep', 0.0, -1283.2360009236338, 0.0, 0.0, 0.0, 0.0, -369.2284666572174, 0.0]
['beep', 0.0, -1282.744262545617, 0.0, 0.0, 0.0, 0.0, -368.9378939792984, 0.0]
['beep', 0.0, -1282.1184137008684, 0.0, 0.0, 0.0, 0.0, -368.1779346678179, 0.0]
['beep', 0.0, -1282.6325038233406, 0.0, 0.0, 0.0, 0.0, -368.6249695569241, 0.0]
['beep', 0.0, -1282.520745101064, 0.0, 0.0, 0.0, 0.0, -368.7143765347453, 0.0]
['beep', 0.0, -1282.6995590567064, 0.0, 0.0, 0.0, 0.0, -368.84848700147717, 0.0]
['beep', 0.0, -1283.2583526680892, 0.0, 0.0, 0.0, 0.0, -368.46850734573695, 0.0]
['beep', 0.0, -1281.8948962563154, 0.0, 0.0, 0.0, 0.0, -368.82613525702186, 0.0]
['beep', 0.0, -1281.9172480007708, 0.0, 0.0, 0.0, 0.0, -368.3791003679157, 0.0]
['beep', 0.0, -1282.0737102119579, 0.0, 0.0, 0.0, 0.0, -368.82613525702186, 0.0]
['beep', 0.0, -1281.7607857895835, 0.0, 0.0, 0.0, 0.0, -368.82613525702186, 0.0]
['beep', 0.0, -1281.224343922656, 0.0, 0.0, 0.0, 0.0, -369.09435619048554, 0.0]
['beep', 0.0, -1282.0513584675025, 0.0, 0.0, 0.0, 0.0, -369.5413910795917, 0.0]
['beep', 0.0, -1281.291399156022, 0.0, 0.0, 0.0, 0.0, -367.93206547880953, 0.0]
['beep', 0.0, -1281.87254451186, 0.0, 0.0, 0.0, 0.0, -367.8426585009883, 0.0]
['beep', 0.0, -1282.7666142900723, 0.0, 0.0, 0.0, 0.0, -368.3343968790051, 0.0]
['beep', 0.0, -1283.0124834790806, 0.0, 0.0, 0.0, 0.0, -367.03799570059726, 0.0]
['beep', 0.0, -1281.9619514896813, 0.0, 0.0, 0.0, 0.0, -367.93206547880953, 0.0]
['beep', 0.0, -1281.6490270673069, 0.0, 0.0, 0.0, 0.0, -369.45198410177045, 0.0]
['beep', 0.0, -1281.291399156022, 0.0, 0.0, 0.0, 0.0, -369.3402253794939, 0.0]
['beep', 0.0, -1282.230172423145, 0.0, 0.0, 0.0, 0.0, -368.78143176811125, 0.0]
['beep', 0.0, -1281.8948962563154, 0.0, 0.0, 0.0, 0.0, -368.6696730458347, 0.0]
['beep', 0.0, -1281.1796404337456, 0.0, 0.0, 0.0, 0.0, -368.5579143235582, 0.0]
['beep', 0.0, -1281.4478613672093, 0.0, 0.0, 0.0, 0.0, -367.7756032676224, 0.0]
['beep', 0.0, -1281.9843032341366, 0.0, 0.0, 0.0, 0.0, -366.7697747671336, 0.0]
['beep', 0.0, -1281.8948962563154, 0.0, 0.0, 0.0, 0.0, -368.0885276899967, 0.0]
['beep', 0.0, -1281.738434045128, 0.0, 0.0, 0.0, 0.0, -367.99912071217545, 0.0]
['beep', 0.0, -1281.9619514896813, 0.0, 0.0, 0.0, 0.0, -368.110879434452, 0.0]
['beep', 0.0, -1281.9172480007708, 0.0, 0.0, 0.0, 0.0, -368.2226381567286, 0.0]
['beep', 0.0, -1281.9619514896813, 0.0, 0.0, 0.0, 0.0, -368.3791003679157, 0.0]
['beep', 0.0, -1281.9619514896813, 0.0, 0.0, 0.0, 0.0, -369.6755015463235, 0.0]
['beep', 0.0, -1282.1407654453237, 0.0, 0.0, 0.0, 0.0, -367.5744375675246, 0.0]
['beep', 0.0, -1281.581971833941, 0.0, 0.0, 0.0, 0.0, -367.37327186742687, 0.0]
['beep', 0.0, -1280.7549572890946, 0.0, 0.0, 0.0, 0.0, -367.93206547880953, 0.0]
['beep', 0.0, -1282.1184137008684, 0.0, 0.0, 0.0, 0.0, -366.27803638911683, 0.0]
['beep', 0.0, -1281.6490270673069, 0.0, 0.0, 0.0, 0.0, -367.3956236118822, 0.0]
['beep', 0.0, -1281.6490270673069, 0.0, 0.0, 0.0, 0.0, -366.70271953376766, 0.0]
['beep', 0.0, -1282.8560212678935, 0.0, 0.0, 0.0, 0.0, -367.03799570059726, 0.0]
['beep', 0.0, -1282.364282889877, 0.0, 0.0, 0.0, 0.0, -366.59096081149113, 0.0]
['beep', 0.0, -1281.8948962563154, 0.0, 0.0, 0.0, 0.0, -366.143925922385, 0.0]
['beep', 0.0, -1282.4536898676981, 0.0, 0.0, 0.0, 0.0, -366.5239055781252, 0.0]
['beep', 0.0, -1281.291399156022, 0.0, 0.0, 0.0, 0.0, -366.30038813357214, 0.0]
['beep', 0.0, -1281.738434045128, 0.0, 0.0, 0.0, 0.0, -367.03799570059726, 0.0]
['beep', 0.0, -1283.8618497683824, 0.0, 0.0, 0.0, 0.0, -365.96511196674254, 0.0]
['beep', 0.0, -1283.392463134821, 0.0, 0.0, 0.0, 0.0, -365.7415945221895, 0.0]
['beep', 0.0, -1283.1242422013572, 0.0, 0.0, 0.0, 0.0, -365.60748405545763, 0.0]
['beep', 0.0, -1283.615980579374, 0.0, 0.0, 0.0, 0.0, -366.2556846446615, 0.0]
['beep', 0.0, -1282.4089863787874, 0.0, 0.0, 0.0, 0.0, -366.4121468558487, 0.0]
['beep', 0.0, -1282.386634634332, 0.0, 0.0, 0.0, 0.0, -366.7921265115889, 0.0]
['beep', 0.0, -1282.9007247568043, 0.0, 0.0, 0.0, 0.0, -366.99329221168665, 0.0]
['beep', 0.0, -1282.6995590567064, 0.0, 0.0, 0.0, 0.0, -366.9038852338654, 0.0]
['beep', 0.0, -1283.3030561569997, 0.0, 0.0, 0.0, 0.0, -368.110879434452, 0.0]
['beep', 0.0, -1282.7666142900723, 0.0, 0.0, 0.0, 0.0, -367.5744375675246, 0.0]
['beep', 0.0, -1282.8336695234382, 0.0, 0.0, 0.0, 0.0, -367.03799570059726, 0.0]
['beep', 0.0, -1283.7500910461058, 0.0, 0.0, 0.0, 0.0, -367.68619628980116, 0.0]
['beep', 0.0, -1283.4595183681868, 0.0, 0.0, 0.0, 0.0, -367.7756032676224, 0.0]
['beep', 0.0, -1282.6325038233406, 0.0, 0.0, 0.0, 0.0, -367.8426585009883, 0.0]
['beep', 0.0, -1282.677207312251, 0.0, 0.0, 0.0, 0.0, -367.97676896772015, 0.0]
['beep', 0.0, -1283.191297434723, 0.0, 0.0, 0.0, 0.0, -367.03799570059726, 0.0]
['beep', 0.0, -1282.7889660345277, 0.0, 0.0, 0.0, 0.0, -367.64149280089055, 0.0]
['beep', 0.0, -1283.3030561569997, 0.0, 0.0, 0.0, 0.0, -368.82613525702186, 0.0]
['beep', 0.0, -1283.0795387124467, 0.0, 0.0, 0.0, 0.0, -368.2673416456392, 0.0]
['beep', 0.0, -1282.9230765012594, 0.0, 0.0, 0.0, 0.0, -369.16141142385146, 0.0]
['beep', 0.0, -1283.9289050017483, 0.0, 0.0, 0.0, 0.0, -366.92623697832073, 0.0]
['beep', 0.0, -1283.1242422013572, 0.0, 0.0, 0.0, 0.0, -365.8757049889213, 0.0]
['beep', 0.0, -1283.1465939458126, 0.0, 0.0, 0.0, 0.0, -366.434498600304, 0.0]
['beep', 0.0, -1282.9007247568043, 0.0, 0.0, 0.0, 0.0, -367.01564395614196, 0.0]
['beep', 0.0, -1282.5878003344299, 0.0, 0.0, 0.0, 0.0, -368.110879434452, 0.0]
['beep', 0.0, -1282.677207312251, 0.0, 0.0, 0.0, 0.0, -368.02147245663076, 0.0]
['beep', 0.0, -1282.3419311454215, 0.0, 0.0, 0.0, 0.0, -367.7532515231671, 0.0]
['beep', 0.0, -1281.738434045128, 0.0, 0.0, 0.0, 0.0, -367.820306756533, 0.0]
['beep', 0.0, -1282.6325038233406, 0.0, 0.0, 0.0, 0.0, -368.78143176811125, 0.0]
['beep', 0.0, -1283.68303581274, 0.0, 0.0, 0.0, 0.0, -369.6307980574129, 0.0]
['beep', 0.0, -1282.5654485899745, 0.0, 0.0, 0.0, 0.0, -368.04382420108607, 0.0]
['beep', 0.0, -1281.581971833941, 0.0, 0.0, 0.0, 0.0, -368.3567486234604, 0.0]
['beep', 0.0, -1281.6490270673069, 0.0, 0.0, 0.0, 0.0, -367.7979550120777, 0.0]
['beep', 0.0, -1282.4760416121533, 0.0, 0.0, 0.0, 0.0, -367.4626788452481, 0.0]
['beep', 0.0, -1283.7500910461058, 0.0, 0.0, 0.0, 0.0, -368.7143765347453, 0.0]
['beep', 0.0, -1283.8171462794717, 0.0, 0.0, 0.0, 0.0, -368.42380385682634, 0.0]
['beep', 0.0, -1282.811317778983, 0.0, 0.0, 0.0, 0.0, -368.9378939792984, 0.0]
['beep', 0.0, -1282.9007247568043, 0.0, 0.0, 0.0, 0.0, -369.76490852414474, 0.0]
['beep', 0.0, -1282.364282889877, 0.0, 0.0, 0.0, 0.0, -369.9213707353319, 0.0]
['beep', 0.0, -1282.3419311454215, 0.0, 0.0, 0.0, 0.0, -369.2284666572174, 0.0]
['beep', 0.0, -1282.3419311454215, 0.0, 0.0, 0.0, 0.0, -369.3178736350386, 0.0]
['beep', 0.0, -1282.9677799901701, 0.0, 0.0, 0.0, 0.0, -369.38492886840453, 0.0]
['beep', 0.0, -1282.5654485899745, 0.0, 0.0, 0.0, 0.0, -369.2508184016727, 0.0]
['beep', 0.0, -1281.9619514896813, 0.0, 0.0, 0.0, 0.0, -368.49085909019226, 0.0]
['beep', 0.0, -1283.2807044125443, 0.0, 0.0, 0.0, 0.0, -368.0661759455414, 0.0]
['beep', 0.0, -1283.325407901455, 0.0, 0.0, 0.0, 0.0, -367.8650102454436, 0.0]
['beep', 0.0, -1283.973608490659, 0.0, 0.0, 0.0, 0.0, -368.6696730458347, 0.0]
['beep', 0.0, -1283.68303581274, 0.0, 0.0, 0.0, 0.0, -370.3460538799827, 0.0]
['beep', 0.0, -1283.7500910461058, 0.0, 0.0, 0.0, 0.0, -370.1895916687956, 0.0]
['beep', 0.0, -1283.5265736015529, 0.0, 0.0, 0.0, 0.0, -369.3178736350386, 0.0]
['beep', 0.0, -1282.9230765012594, 0.0, 0.0, 0.0, 0.0, -368.7143765347453, 0.0]
['beep', 0.0, -1283.3701113903655, 0.0, 0.0, 0.0, 0.0, -370.368405624438, 0.0]
['beep', 0.0, -1284.4429951242203, 0.0, 0.0, 0.0, 0.0, -370.949550980276, 0.0]
['beep', 0.0, -1283.5936288349187, 0.0, 0.0, 0.0, 0.0, -370.79308876908885, 0.0]
['beep', 0.0, -1282.8560212678935, 0.0, 0.0, 0.0, 0.0, -370.658978302357, 0.0]
['beep', 0.0, -1283.3030561569997, 0.0, 0.0, 0.0, 0.0, -370.2566469021615, 0.0]
['beep', 0.0, -1284.0853672129354, 0.0, 0.0, 0.0, 0.0, -370.8824957469101, 0.0]
['beep', 0.0, -1284.6665125687734, 0.0, 0.0, 0.0, 0.0, -370.45781260225925, 0.0]
['beep', 0.0, -1283.5712770904634, 0.0, 0.0, 0.0, 0.0, -370.43546085780395, 0.0]
['beep', 0.0, -1283.8842015128378, 0.0, 0.0, 0.0, 0.0, -370.0331294576084, 0.0]
['beep', 0.0, -1284.77827129105, 0.0, 0.0, 0.0, 0.0, -369.42963235731514, 0.0]
['beep', 0.0, -1284.4206433797651, 0.0, 0.0, 0.0, 0.0, -368.40145211237103, 0.0]
['beep', 0.0, -1284.1077189573907, 0.0, 0.0, 0.0, 0.0, -368.0661759455414, 0.0]
['beep', 0.0, -1284.711216057684, 0.0, 0.0, 0.0, 0.0, -368.6026178124688, 0.0]
['beep', 0.0, -1285.135899202335, 0.0, 0.0, 0.0, 0.0, -368.02147245663076, 0.0]
['beep', 0.0, -1284.2194776796673, 0.0, 0.0, 0.0, 0.0, -368.6026178124688, 0.0]
['beep', 0.0, -1284.6665125687734, 0.0, 0.0, 0.0, 0.0, -368.7143765347453, 0.0]
['beep', 0.0, -1283.9959602351141, 0.0, 0.0, 0.0, 0.0, -368.82613525702186, 0.0]
['beep', 0.0, -1284.7559195465947, 0.0, 0.0, 0.0, 0.0, -368.51321083464757, 0.0]
['beep', 0.0, -1285.8735067693601, 0.0, 0.0, 0.0, 0.0, -367.37327186742687, 0.0]
['beep', 0.0, -1285.784099791539, 0.0, 0.0, 0.0, 0.0, -367.32856837851625, 0.0]
['beep', 0.0, -1285.9182102582706, 0.0, 0.0, 0.0, 0.0, -368.3567486234604, 0.0]
['beep', 0.0, -1282.744262545617, 0.0, 0.0, 0.0, 0.0, -366.2109811557509, 0.0]
['beep', 0.0, -1280.0173497220696, 0.0, 0.0, 0.0, 0.0, -366.72507127822297, 0.0]
['beep', 0.0, -1283.4595183681868, 0.0, 0.0, 0.0, 0.0, -368.2226381567286, 0.0]
['beep', 0.0, -1283.7500910461058, 0.0, 0.0, 0.0, 0.0, -367.2168096562397, 0.0]
['beep', 0.0, -1283.839498023927, 0.0, 0.0, 0.0, 0.0, -367.0826991895079, 0.0]
['beep', 0.0, -1285.0241404800583, 0.0, 0.0, 0.0, 0.0, -367.4626788452481, 0.0]
['beep', 0.0, -1284.353588146399, 0.0, 0.0, 0.0, 0.0, -368.110879434452, 0.0]
['beep', 0.0, -1284.1077189573907, 0.0, 0.0, 0.0, 0.0, -367.66384454534585, 0.0]
['beep', 0.0, -1285.0241404800583, 0.0, 0.0, 0.0, 0.0, -367.7308997787118, 0.0]
['beep', 0.0, -1284.644160824318, 0.0, 0.0, 0.0, 0.0, -367.5073823341587, 0.0]
['beep', 0.0, -1284.0406637240249, 0.0, 0.0, 0.0, 0.0, -367.7308997787118, 0.0]
['beep', 0.0, -1284.2641811685778, 0.0, 0.0, 0.0, 0.0, -367.5520858230693, 0.0]
['beep', 0.0, -1283.8618497683824, 0.0, 0.0, 0.0, 0.0, -368.3567486234604, 0.0]
['beep', 0.0, -1282.9454282457148, 0.0, 0.0, 0.0, 0.0, -368.2002864122732, 0.0]
['beep', 0.0, -1284.1524224463014, 0.0, 0.0, 0.0, 0.0, -369.16141142385146, 0.0]
['beep', 0.0, -1283.7277393016504, 0.0, 0.0, 0.0, 0.0, -368.2673416456392, 0.0]
['beep', 0.0, -1283.3477596459104, 0.0, 0.0, 0.0, 0.0, -368.75908002365594, 0.0]
['beep', 0.0, -1283.5936288349187, 0.0, 0.0, 0.0, 0.0, -369.76490852414474, 0.0]
['beep', 0.0, -1283.8618497683824, 0.0, 0.0, 0.0, 0.0, -368.5579143235582, 0.0]
['beep', 0.0, -1283.7724427905612, 0.0, 0.0, 0.0, 0.0, -367.06034744505257, 0.0]
['beep', 0.0, -1283.5936288349187, 0.0, 0.0, 0.0, 0.0, -367.35092012297156, 0.0]
['beep', 0.0, -1283.1465939458126, 0.0, 0.0, 0.0, 0.0, -367.32856837851625, 0.0]
['beep', 0.0, -1283.4148148792763, 0.0, 0.0, 0.0, 0.0, -367.7308997787118, 0.0]
['beep', 0.0, -1283.8618497683824, 0.0, 0.0, 0.0, 0.0, -368.3343968790051, 0.0]
['beep', 0.0, -1283.0795387124467, 0.0, 0.0, 0.0, 0.0, -368.1555829233626, 0.0]
['beep', 0.0, -1282.6325038233406, 0.0, 0.0, 0.0, 0.0, -368.1332311789073, 0.0]
['beep', 0.0, -1283.2360009236338, 0.0, 0.0, 0.0, 0.0, -368.1779346678179, 0.0]
['beep', 0.0, -1283.2136491791784, 0.0, 0.0, 0.0, 0.0, -368.9602457237537, 0.0]
['beep', 0.0, -1283.168945690268, 0.0, 0.0, 0.0, 0.0, -369.72020503523413, 0.0]
['beep', 0.0, -1283.5265736015529, 0.0, 0.0, 0.0, 0.0, -369.0049492126643, 0.0]
['beep', 0.0, -1283.325407901455, 0.0, 0.0, 0.0, 0.0, -367.61914105643524, 0.0]
['beep', 0.0, -1284.0853672129354, 0.0, 0.0, 0.0, 0.0, -366.99329221168665, 0.0]
['beep', 0.0, -1283.4595183681868, 0.0, 0.0, 0.0, 0.0, -366.7697747671336, 0.0]
['beep', 0.0, -1282.2078206786896, 0.0, 0.0, 0.0, 0.0, -367.99912071217545, 0.0]
['beep', 0.0, -1283.034835223536, 0.0, 0.0, 0.0, 0.0, -367.1721061673291, 0.0]
['beep', 0.0, -1282.1854689342344, 0.0, 0.0, 0.0, 0.0, -366.8815334894101, 0.0]
['beep', 0.0, -1281.9172480007708, 0.0, 0.0, 0.0, 0.0, -368.1779346678179, 0.0]
['beep', 0.0, -1282.230172423145, 0.0, 0.0, 0.0, 0.0, -367.95441722326484, 0.0]
['beep', 0.0, -1282.0737102119579, 0.0, 0.0, 0.0, 0.0, -367.8426585009883, 0.0]
['beep', 0.0, -1281.3361026449327, 0.0, 0.0, 0.0, 0.0, -367.7756032676224, 0.0]
['beep', 0.0, -1280.8890677558265, 0.0, 0.0, 0.0, 0.0, -367.32856837851625, 0.0]
['beep', 0.0, -1281.0902334559244, 0.0, 0.0, 0.0, 0.0, -367.95441722326484, 0.0]
['beep', 0.0, -1280.911419500282, 0.0, 0.0, 0.0, 0.0, -368.80378351256655, 0.0]
['beep', 0.0, -1281.6713788117622, 0.0, 0.0, 0.0, 0.0, -368.40145211237103, 0.0]
['beep', 0.0, -1281.7831375340388, 0.0, 0.0, 0.0, 0.0, -369.18376316830677, 0.0]
['beep', 0.0, -1280.6655503112734, 0.0, 0.0, 0.0, 0.0, -368.8931904903878, 0.0]
['beep', 0.0, -1280.3302741444438, 0.0, 0.0, 0.0, 0.0, -368.73672827920063, 0.0]
['beep', 0.0, -1280.4643846111758, 0.0, 0.0, 0.0, 0.0, -368.9602457237537, 0.0]
['beep', 0.0, -1281.0008264781031, 0.0, 0.0, 0.0, 0.0, -368.42380385682634, 0.0]
['beep', 0.0, -1281.5596200894856, 0.0, 0.0, 0.0, 0.0, -368.6249695569241, 0.0]
['beep', 0.0, -1281.5596200894856, 0.0, 0.0, 0.0, 0.0, -368.49085909019226, 0.0]
['beep', 0.0, -1280.6431985668182, 0.0, 0.0, 0.0, 0.0, -369.40728061285984, 0.0]
['beep', 0.0, -1280.4420328667204, 0.0, 0.0, 0.0, 0.0, -369.49668759068106, 0.0]
['beep', 0.0, -1280.4643846111758, 0.0, 0.0, 0.0, 0.0, -369.563742824047, 0.0]
['beep', 0.0, -1281.2690474115668, 0.0, 0.0, 0.0, 0.0, -369.42963235731514, 0.0]
['beep', 0.0, -1281.4478613672093, 0.0, 0.0, 0.0, 0.0, -368.40145211237103, 0.0]
['beep', 0.0, -1281.8948962563154, 0.0, 0.0, 0.0, 0.0, -369.45198410177045, 0.0]
['beep', 0.0, -1282.163117189779, 0.0, 0.0, 0.0, 0.0, -370.48016434671456, 0.0]
['beep', 0.0, -1283.6383323238292, 0.0, 0.0, 0.0, 0.0, -369.3402253794939, 0.0]
['beep', 0.0, -1281.6266753228517, 0.0, 0.0, 0.0, 0.0, -368.46850734573695, 0.0]
['beep', 0.0, -1281.4031578782985, 0.0, 0.0, 0.0, 0.0, -368.42380385682634, 0.0]
['beep', 0.0, -1282.1184137008684, 0.0, 0.0, 0.0, 0.0, -369.16141142385146, 0.0]
['beep', 0.0, -1282.0513584675025, 0.0, 0.0, 0.0, 0.0, -370.6142748134464, 0.0]
['beep', 0.0, -1282.744262545617, 0.0, 0.0, 0.0, 0.0, -370.949550980276, 0.0]
['beep', 0.0, -1280.553791588997, 0.0, 0.0, 0.0, 0.0, -370.79308876908885, 0.0]
['beep', 0.0, -1281.2019921782007, 0.0, 0.0, 0.0, 0.0, -370.72603353572293, 0.0]
['beep', 0.0, -1279.1903351772232, 0.0, 0.0, 0.0, 0.0, -370.07783294651904, 0.0]
['beep', 0.0, -1278.3409688879215, 0.0, 0.0, 0.0, 0.0, -369.11670793494085, 0.0]
['beep', 0.0, -1281.224343922656, 0.0, 0.0, 0.0, 0.0, -367.8873619898989, 0.0]
['beep', 0.0, -1281.7607857895835, 0.0, 0.0, 0.0, 0.0, -369.11670793494085, 0.0]
['beep', 0.0, -1281.067881711469, 0.0, 0.0, 0.0, 0.0, -368.51321083464757, 0.0]
['beep', 0.0, -1281.291399156022, 0.0, 0.0, 0.0, 0.0, -369.42963235731514, 0.0]
['beep', 0.0, -1282.7219108011618, 0.0, 0.0, 0.0, 0.0, -369.40728061285984, 0.0]
['beep', 0.0, -1283.2136491791784, 0.0, 0.0, 0.0, 0.0, -369.6084463129576, 0.0]
['beep', 0.0, -1282.9007247568043, 0.0, 0.0, 0.0, 0.0, -369.16141142385146, 0.0]
['beep', 0.0, -1283.4148148792763, 0.0, 0.0, 0.0, 0.0, -369.38492886840453, 0.0]
['beep', 0.0, -1283.7947945350165, 0.0, 0.0, 0.0, 0.0, -369.74255677968944, 0.0]
['beep', 0.0, -1283.548925346008, 0.0, 0.0, 0.0, 0.0, -368.6696730458347, 0.0]
['beep', 0.0, -1283.4818701126421, 0.0, 0.0, 0.0, 0.0, -369.16141142385146, 0.0]
['beep', 0.0, -1284.5324021020415, 0.0, 0.0, 0.0, 0.0, -369.85431550196597, 0.0]
['beep', 0.0, -1283.5936288349187, 0.0, 0.0, 0.0, 0.0, -370.0107777131531, 0.0]
['beep', 0.0, -1282.677207312251, 0.0, 0.0, 0.0, 0.0, -369.6531498018682, 0.0]
['beep', 0.0, -1283.2583526680892, 0.0, 0.0, 0.0, 0.0, -369.18376316830677, 0.0]
['beep', 0.0, -1285.3817683913433, 0.0, 0.0, 0.0, 0.0, -369.9660742242425, 0.0]
['beep', 0.0, -1285.1135474578796, 0.0, 0.0, 0.0, 0.0, -371.48599284720336, 0.0]
['beep', 0.0, -1283.839498023927, 0.0, 0.0, 0.0, 0.0, -369.3625771239492, 0.0]
['beep', 0.0, -1283.7724427905612, 0.0, 0.0, 0.0, 0.0, -369.78726026860005, 0.0]
['beep', 0.0, -1283.6383323238292, 0.0, 0.0, 0.0, 0.0, -371.08366144700784, 0.0]
['beep', 0.0, -1282.386634634332, 0.0, 0.0, 0.0, 0.0, -370.41310911334864, 0.0]
['beep', 0.0, -1282.744262545617, 0.0, 0.0, 0.0, 0.0, -370.12253643542965, 0.0]
['beep', 0.0, -1284.331236401944, 0.0, 0.0, 0.0, 0.0, -369.6978532907788, 0.0]
['beep', 0.0, -1283.7500910461058, 0.0, 0.0, 0.0, 0.0, -369.47433584622576, 0.0]
['beep', 0.0, -1284.197125935212, 0.0, 0.0, 0.0, 0.0, -369.0049492126643, 0.0]
['beep', 0.0, -1284.7335678021393, 0.0, 0.0, 0.0, 0.0, -370.1895916687956, 0.0]
['beep', 0.0, -1285.0911957134242, 0.0, 0.0, 0.0, 0.0, -371.6424550583905, 0.0]
['beep', 0.0, -1285.0911957134242, 0.0, 0.0, 0.0, 0.0, -371.17306842482907, 0.0]
['beep', 0.0, -1284.77827129105, 0.0, 0.0, 0.0, 0.0, -371.530696336114, 0.0]
['beep', 0.0, -1284.5994573354076, 0.0, 0.0, 0.0, 0.0, -371.3295306360162, 0.0]
['beep', 0.0, -1284.353588146399, 0.0, 0.0, 0.0, 0.0, -370.0107777131531, 0.0]
['beep', 0.0, -1285.0241404800583, 0.0, 0.0, 0.0, 0.0, -369.9660742242425, 0.0]
['beep', 0.0, -1283.8842015128378, 0.0, 0.0, 0.0, 0.0, -370.16723992434027, 0.0]
['beep', 0.0, -1283.5265736015529, 0.0, 0.0, 0.0, 0.0, -370.14488817988496, 0.0]
['beep', 0.0, -1284.644160824318, 0.0, 0.0, 0.0, 0.0, -370.16723992434027, 0.0]
['beep', 0.0, -1284.9794369911476, 0.0, 0.0, 0.0, 0.0, -369.5413910795917, 0.0]
['beep', 0.0, -1284.0630154684802, 0.0, 0.0, 0.0, 0.0, -369.72020503523413, 0.0]
['beep', 0.0, -1283.9512567462036, 0.0, 0.0, 0.0, 0.0, -369.74255677968944, 0.0]
['beep', 0.0, -1284.2641811685778, 0.0, 0.0, 0.0, 0.0, -370.39075736889333, 0.0]
['beep', 0.0, -1283.191297434723, 0.0, 0.0, 0.0, 0.0, -370.2566469021615, 0.0]
['beep', 0.0, -1284.711216057684, 0.0, 0.0, 0.0, 0.0, -371.46364110274806, 0.0]
['beep', 0.0, -1285.7617480470835, 0.0, 0.0, 0.0, 0.0, -370.2119434132509, 0.0]
['beep', 0.0, -1284.353588146399, 0.0, 0.0, 0.0, 0.0, -370.41310911334864, 0.0]
['beep', 0.0, -1284.5100503575864, 0.0, 0.0, 0.0, 0.0, -370.6813300468123, 0.0]
['beep', 0.0, -1285.135899202335, 0.0, 0.0, 0.0, 0.0, -370.16723992434027, 0.0]
['beep', 0.0, -1285.2029544357008, 0.0, 0.0, 0.0, 0.0, -369.6755015463235, 0.0]
['beep', 0.0, -1283.906553257293, 0.0, 0.0, 0.0, 0.0, -369.6531498018682, 0.0]
['beep', 0.0, -1284.1524224463014, 0.0, 0.0, 0.0, 0.0, -370.2342951577062, 0.0]
['beep', 0.0, -1284.1524224463014, 0.0, 0.0, 0.0, 0.0, -370.83779225799947, 0.0]
['beep', 0.0, -1283.0795387124467, 0.0, 0.0, 0.0, 0.0, -370.3460538799827, 0.0]
['beep', 0.0, -1283.191297434723, 0.0, 0.0, 0.0, 0.0, -371.0166062136419, 0.0]
['beep', 0.0, -1282.9230765012594, 0.0, 0.0, 0.0, 0.0, -370.6813300468123, 0.0]
['beep', 0.0, -1283.4148148792763, 0.0, 0.0, 0.0, 0.0, -370.72603353572293, 0.0]
['beep', 0.0, -1283.615980579374, 0.0, 0.0, 0.0, 0.0, -372.62593181442406, 0.0]
['beep', 0.0, -1282.6995590567064, 0.0, 0.0, 0.0, 0.0, -370.3460538799827, 0.0]
['beep', 0.0, -1282.1854689342344, 0.0, 0.0, 0.0, 0.0, -369.40728061285984, 0.0]
['beep', 0.0, -1282.4536898676981, 0.0, 0.0, 0.0, 0.0, -369.74255677968944, 0.0]
['beep', 0.0, -1282.4536898676981, 0.0, 0.0, 0.0, 0.0, -369.6084463129576, 0.0]
['beep', 0.0, -1281.4031578782985, 0.0, 0.0, 0.0, 0.0, -370.12253643542965, 0.0]
['beep', 0.0, -1281.5596200894856, 0.0, 0.0, 0.0, 0.0, -370.5248678356252, 0.0]
['beep', 0.0, -1282.6325038233406, 0.0, 0.0, 0.0, 0.0, -370.81544051354416, 0.0]
['beep', 0.0, -1282.4089863787874, 0.0, 0.0, 0.0, 0.0, -370.05548120206373, 0.0]
['beep', 0.0, -1282.1407654453237, 0.0, 0.0, 0.0, 0.0, -369.83196375751066, 0.0]
['beep', 0.0, -1282.5654485899745, 0.0, 0.0, 0.0, 0.0, -370.8824957469101, 0.0]
['beep', 0.0, -1282.2078206786896, 0.0, 0.0, 0.0, 0.0, -372.29065564759446, 0.0]
['beep', 0.0, -1281.8948962563154, 0.0, 0.0, 0.0, 0.0, -370.949550980276, 0.0]
['beep', 0.0, -1281.4478613672093, 0.0, 0.0, 0.0, 0.0, -370.6813300468123, 0.0]
['beep', 0.0, -1281.9619514896813, 0.0, 0.0, 0.0, 0.0, -370.9719027247313, 0.0]
['beep', 0.0, -1281.9619514896813, 0.0, 0.0, 0.0, 0.0, -369.74255677968944, 0.0]
['beep', 0.0, -1282.364282889877, 0.0, 0.0, 0.0, 0.0, -369.3402253794939, 0.0]
['beep', 0.0, -1282.520745101064, 0.0, 0.0, 0.0, 0.0, -369.563742824047, 0.0]
['beep', 0.0, -1283.3477596459104, 0.0, 0.0, 0.0, 0.0, -369.85431550196597, 0.0]
['beep', 0.0, -1283.1242422013572, 0.0, 0.0, 0.0, 0.0, -370.5248678356252, 0.0]
['beep', 0.0, -1283.5712770904634, 0.0, 0.0, 0.0, 0.0, -371.17306842482907, 0.0]
['beep', 0.0, -1284.2418294241227, 0.0, 0.0, 0.0, 0.0, -370.1895916687956, 0.0]
['beep', 0.0, -1283.6383323238292, 0.0, 0.0, 0.0, 0.0, -370.72603353572293, 0.0]
['beep', 0.0, -1283.4148148792763, 0.0, 0.0, 0.0, 0.0, -371.6871585473011, 0.0]
['beep', 0.0, -1284.1747741907566, 0.0, 0.0, 0.0, 0.0, -371.9777312252201, 0.0]
['beep', 0.0, -1284.2641811685778, 0.0, 0.0, 0.0, 0.0, -372.3800626254157, 0.0]
['beep', 0.0, -1283.906553257293, 0.0, 0.0, 0.0, 0.0, -372.1788969253179, 0.0]
['beep', 0.0, -1283.68303581274, 0.0, 0.0, 0.0, 0.0, -371.39658586938214, 0.0]
['beep', 0.0, -1284.77827129105, 0.0, 0.0, 0.0, 0.0, -372.3800626254157, 0.0]
['beep', 0.0, -1285.2476579246113, 0.0, 0.0, 0.0, 0.0, -371.46364110274806, 0.0]
['beep', 0.0, -1283.2360009236338, 0.0, 0.0, 0.0, 0.0, -371.6424550583905, 0.0]
['beep', 0.0, -1284.0183119795695, 0.0, 0.0, 0.0, 0.0, -371.6201033139352, 0.0]
['beep', 0.0, -1283.8171462794717, 0.0, 0.0, 0.0, 0.0, -371.17306842482907, 0.0]
['beep', 0.0, -1283.168945690268, 0.0, 0.0, 0.0, 0.0, -372.7600422811559, 0.0]
['beep', 0.0, -1284.9123817577818, 0.0, 0.0, 0.0, 0.0, -372.0000829696754, 0.0]
['beep', 0.0, -1284.6665125687734, 0.0, 0.0, 0.0, 0.0, -371.79891726957766, 0.0]
['beep', 0.0, -1284.644160824318, 0.0, 0.0, 0.0, 0.0, -371.6648068028458, 0.0]
['beep', 0.0, -1284.9123817577818, 0.0, 0.0, 0.0, 0.0, -371.50834459165867, 0.0]
['beep', 0.0, -1283.5936288349187, 0.0, 0.0, 0.0, 0.0, -372.64828355887937, 0.0]
['beep', 0.0, -1284.4653468686756, 0.0, 0.0, 0.0, 0.0, -371.39658586938214, 0.0]
['beep', 0.0, -1283.7947945350165, 0.0, 0.0, 0.0, 0.0, -370.79308876908885, 0.0]
['beep', 0.0, -1283.2583526680892, 0.0, 0.0, 0.0, 0.0, -371.1954201692844, 0.0]
['beep', 0.0, -1283.2807044125443, 0.0, 0.0, 0.0, 0.0, -370.5472195800805, 0.0]
['beep', 0.0, -1284.0406637240249, 0.0, 0.0, 0.0, 0.0, -370.8601440024548, 0.0]
['beep', 0.0, -1283.325407901455, 0.0, 0.0, 0.0, 0.0, -371.8659725029436, 0.0]
['beep', 0.0, -1282.1184137008684, 0.0, 0.0, 0.0, 0.0, -370.2789986466168, 0.0]
['beep', 0.0, -1283.2583526680892, 0.0, 0.0, 0.0, 0.0, -369.9660742242425, 0.0]
['beep', 0.0, -1282.5878003344299, 0.0, 0.0, 0.0, 0.0, -371.0389579580972, 0.0]
['beep', 0.0, -1283.4818701126421, 0.0, 0.0, 0.0, 0.0, -371.44128935829275, 0.0]
['beep', 0.0, -1282.878373012349, 0.0, 0.0, 0.0, 0.0, -371.9553794807648, 0.0]
['beep', 0.0, -1281.067881711469, 0.0, 0.0, 0.0, 0.0, -372.4471178587816, 0.0]
['beep', 0.0, -1281.0455299670136, 0.0, 0.0, 0.0, 0.0, -371.240123658195, 0.0]
['beep', 0.0, -1282.6325038233406, 0.0, 0.0, 0.0, 0.0, -370.5472195800805, 0.0]
['beep', 0.0, -1281.9172480007708, 0.0, 0.0, 0.0, 0.0, -370.9719027247313, 0.0]
['beep', 0.0, -1282.4983933566086, 0.0, 0.0, 0.0, 0.0, -369.9437224797872, 0.0]
['beep', 0.0, -1282.0290067230471, 0.0, 0.0, 0.0, 0.0, -371.240123658195, 0.0]
['beep', 0.0, -1281.358454389388, 0.0, 0.0, 0.0, 0.0, -371.5753998250246, 0.0]
['beep', 0.0, -1281.5149166005751, 0.0, 0.0, 0.0, 0.0, -371.240123658195, 0.0]
['beep', 0.0, -1282.3419311454215, 0.0, 0.0, 0.0, 0.0, -370.39075736889333, 0.0]
['beep', 0.0, -1282.2078206786896, 0.0, 0.0, 0.0, 0.0, -370.16723992434027, 0.0]
['beep', 0.0, -1282.7889660345277, 0.0, 0.0, 0.0, 0.0, -370.79308876908885, 0.0]
['beep', 0.0, -1283.034835223536, 0.0, 0.0, 0.0, 0.0, -370.07783294651904, 0.0]
['beep', 0.0, -1281.8948962563154, 0.0, 0.0, 0.0, 0.0, -369.49668759068106, 0.0]
['beep', 0.0, -1282.4983933566086, 0.0, 0.0, 0.0, 0.0, -370.41310911334864, 0.0]
['beep', 0.0, -1283.034835223536, 0.0, 0.0, 0.0, 0.0, -371.44128935829275, 0.0]
['beep', 0.0, -1281.4702131116644, 0.0, 0.0, 0.0, 0.0, -370.83779225799947, 0.0]
['beep', 0.0, -1281.6937305562176, 0.0, 0.0, 0.0, 0.0, -370.3013503910721, 0.0]
['beep', 0.0, -1282.364282889877, 0.0, 0.0, 0.0, 0.0, -369.74255677968944, 0.0]
['beep', 0.0, -1281.7831375340388, 0.0, 0.0, 0.0, 0.0, -369.6307980574129, 0.0]
['beep', 0.0, -1282.386634634332, 0.0, 0.0, 0.0, 0.0, -370.83779225799947, 0.0]
['beep', 0.0, -1283.8618497683824, 0.0, 0.0, 0.0, 0.0, -372.20124866977324, 0.0]
['beep', 0.0, -1283.1242422013572, 0.0, 0.0, 0.0, 0.0, -371.2624754026503, 0.0]
['beep', 0.0, -1282.2525241676003, 0.0, 0.0, 0.0, 0.0, -372.3353591365051, 0.0]
['beep', 0.0, -1283.1242422013572, 0.0, 0.0, 0.0, 0.0, -372.3800626254157, 0.0]
['beep', 0.0, -1282.5654485899745, 0.0, 0.0, 0.0, 0.0, -370.79308876908885, 0.0]
['beep', 0.0, -1281.1349369448349, 0.0, 0.0, 0.0, 0.0, -371.41893761383744, 0.0]
['beep', 0.0, -1281.291399156022, 0.0, 0.0, 0.0, 0.0, -371.37423412492683, 0.0]
['beep', 0.0, -1281.8054892784942, 0.0, 0.0, 0.0, 0.0, -370.72603353572293, 0.0]
['beep', 0.0, -1282.3419311454215, 0.0, 0.0, 0.0, 0.0, -371.240123658195, 0.0]
['beep', 0.0, -1282.230172423145, 0.0, 0.0, 0.0, 0.0, -371.1954201692844, 0.0]
['beep', 0.0, -1282.2525241676003, 0.0, 0.0, 0.0, 0.0, -371.2624754026503, 0.0]
['beep', 0.0, -1281.0455299670136, 0.0, 0.0, 0.0, 0.0, -369.83196375751066, 0.0]
['beep', 0.0, -1281.1796404337456, 0.0, 0.0, 0.0, 0.0, -370.3460538799827, 0.0]
['beep', 0.0, -1281.6937305562176, 0.0, 0.0, 0.0, 0.0, -371.12836493591846, 0.0]
['beep', 0.0, -1281.3361026449327, 0.0, 0.0, 0.0, 0.0, -370.6142748134464, 0.0]
['beep', 0.0, -1280.8667160113712, 0.0, 0.0, 0.0, 0.0, -370.5919230689911, 0.0]
['beep', 0.0, -1281.581971833941, 0.0, 0.0, 0.0, 0.0, -371.530696336114, 0.0]
['beep', 0.0, -1282.6101520788852, 0.0, 0.0, 0.0, 0.0, -370.39075736889333, 0.0]
['beep', 0.0, -1281.4925648561198, 0.0, 0.0, 0.0, 0.0, -368.7143765347453, 0.0]
['beep', 0.0, -1282.2748759120557, 0.0, 0.0, 0.0, 0.0, -369.40728061285984, 0.0]
['beep', 0.0, -1283.4595183681868, 0.0, 0.0, 0.0, 0.0, -368.982597468209, 0.0]
['beep', 0.0, -1281.9619514896813, 0.0, 0.0, 0.0, 0.0, -369.563742824047, 0.0]
['beep', 0.0, -1281.6713788117622, 0.0, 0.0, 0.0, 0.0, -370.6142748134464, 0.0]
['beep', 0.0, -1282.364282889877, 0.0, 0.0, 0.0, 0.0, -370.16723992434027, 0.0]
['beep', 0.0, -1282.3419311454215, 0.0, 0.0, 0.0, 0.0, -370.5472195800805, 0.0]
['beep', 0.0, -1281.0455299670136, 0.0, 0.0, 0.0, 0.0, -371.240123658195, 0.0]
['beep', 0.0, -1281.8054892784942, 0.0, 0.0, 0.0, 0.0, -370.949550980276, 0.0]
['beep', 0.0, -1282.6325038233406, 0.0, 0.0, 0.0, 0.0, -369.78726026860005, 0.0]
['beep', 0.0, -1281.5596200894856, 0.0, 0.0, 0.0, 0.0, -371.5530480805693, 0.0]
['beep', 0.0, -1280.7326055446395, 0.0, 0.0, 0.0, 0.0, -371.06130970255253, 0.0]
['beep', 0.0, -1281.6266753228517, 0.0, 0.0, 0.0, 0.0, -370.0107777131531, 0.0]
['beep', 0.0, -1281.738434045128, 0.0, 0.0, 0.0, 0.0, -368.982597468209, 0.0]
['beep', 0.0, -1281.1796404337456, 0.0, 0.0, 0.0, 0.0, -369.8990189908766, 0.0]
['beep', 0.0, -1281.3808061338432, 0.0, 0.0, 0.0, 0.0, -368.42380385682634, 0.0]
['beep', 0.0, -1281.067881711469, 0.0, 0.0, 0.0, 0.0, -368.84848700147717, 0.0]
['beep', 0.0, -1281.5149166005751, 0.0, 0.0, 0.0, 0.0, -369.72020503523413, 0.0]
['beep', 0.0, -1280.7996607780053, 0.0, 0.0, 0.0, 0.0, -369.8990189908766, 0.0]
['beep', 0.0, -1281.291399156022, 0.0, 0.0, 0.0, 0.0, -369.38492886840453, 0.0]
['beep', 0.0, -1281.8501927674047, 0.0, 0.0, 0.0, 0.0, -369.9884259686978, 0.0]
['beep', 0.0, -1281.6713788117622, 0.0, 0.0, 0.0, 0.0, -370.07783294651904, 0.0]
['beep', 0.0, -1281.7607857895835, 0.0, 0.0, 0.0, 0.0, -369.9437224797872, 0.0]
['beep', 0.0, -1280.8667160113712, 0.0, 0.0, 0.0, 0.0, -369.9660742242425, 0.0]
['beep', 0.0, -1280.1514601888014, 0.0, 0.0, 0.0, 0.0, -368.80378351256655, 0.0]
['beep', 0.0, -1280.8220125224607, 0.0, 0.0, 0.0, 0.0, -369.80961201305536, 0.0]
['beep', 0.0, -1282.1184137008684, 0.0, 0.0, 0.0, 0.0, -369.9660742242425, 0.0]
['beep', 0.0, -1281.067881711469, 0.0, 0.0, 0.0, 0.0, -370.2342951577062, 0.0]
['beep', 0.0, -1281.581971833941, 0.0, 0.0, 0.0, 0.0, -371.0166062136419, 0.0]
['beep', 0.0, -1281.6266753228517, 0.0, 0.0, 0.0, 0.0, -371.37423412492683, 0.0]
['beep', 0.0, -1281.738434045128, 0.0, 0.0, 0.0, 0.0, -371.17306842482907, 0.0]
['beep', 0.0, -1282.8560212678935, 0.0, 0.0, 0.0, 0.0, -370.9942544691866, 0.0]
['beep', 0.0, -1281.6043235783964, 0.0, 0.0, 0.0, 0.0, -370.949550980276, 0.0]
['beep', 0.0, -1281.3808061338432, 0.0, 0.0, 0.0, 0.0, -372.08948994749665, 0.0]
['beep', 0.0, -1281.87254451186, 0.0, 0.0, 0.0, 0.0, -370.81544051354416, 0.0]
['beep', 0.0, -1281.4478613672093, 0.0, 0.0, 0.0, 0.0, -369.72020503523413, 0.0]
['beep', 0.0, -1281.6937305562176, 0.0, 0.0, 0.0, 0.0, -370.41310911334864, 0.0]
['beep', 0.0, -1280.6879020557287, 0.0, 0.0, 0.0, 0.0, -369.5860945685023, 0.0]
['beep', 0.0, -1279.9502944887035, 0.0, 0.0, 0.0, 0.0, -369.47433584622576, 0.0]
['beep', 0.0, -1280.3526258888992, 0.0, 0.0, 0.0, 0.0, -368.46850734573695, 0.0]
['beep', 0.0, -1280.553791588997, 0.0, 0.0, 0.0, 0.0, -369.51903933513637, 0.0]
['beep', 0.0, -1280.553791588997, 0.0, 0.0, 0.0, 0.0, -370.45781260225925, 0.0]
['beep', 0.0, -1279.9949979776143, 0.0, 0.0, 0.0, 0.0, -371.08366144700784, 0.0]
['beep', 0.0, -1280.6431985668182, 0.0, 0.0, 0.0, 0.0, -371.41893761383744, 0.0]
['beep', 0.0, -1281.4031578782985, 0.0, 0.0, 0.0, 0.0, -369.9884259686978, 0.0]
['beep', 0.0, -1281.2466956671115, 0.0, 0.0, 0.0, 0.0, -370.5248678356252, 0.0]
['beep', 0.0, -1281.8054892784942, 0.0, 0.0, 0.0, 0.0, -370.6366265579017, 0.0]
['beep', 0.0, -1281.6713788117622, 0.0, 0.0, 0.0, 0.0, -370.45781260225925, 0.0]
['beep', 0.0, -1281.8948962563154, 0.0, 0.0, 0.0, 0.0, -369.83196375751066, 0.0]
['beep', 0.0, -1282.5878003344299, 0.0, 0.0, 0.0, 0.0, -369.83196375751066, 0.0]
['beep', 0.0, -1283.7947945350165, 0.0, 0.0, 0.0, 0.0, -369.6084463129576, 0.0]
['beep', 0.0, -1283.9289050017483, 0.0, 0.0, 0.0, 0.0, -371.0166062136419, 0.0]
['beep', 0.0, -1283.4595183681868, 0.0, 0.0, 0.0, 0.0, -370.949550980276, 0.0]
['beep', 0.0, -1283.3030561569997, 0.0, 0.0, 0.0, 0.0, -370.5919230689911, 0.0]
['beep', 0.0, -1283.5042218570975, 0.0, 0.0, 0.0, 0.0, -370.9048474913654, 0.0]
['beep', 0.0, -1283.8171462794717, 0.0, 0.0, 0.0, 0.0, -370.3460538799827, 0.0]
['beep', 0.0, -1282.9230765012594, 0.0, 0.0, 0.0, 0.0, -370.16723992434027, 0.0]
['beep', 0.0, -1283.3477596459104, 0.0, 0.0, 0.0, 0.0, -369.2061149127621, 0.0]
['beep', 0.0, -1283.8171462794717, 0.0, 0.0, 0.0, 0.0, -370.2342951577062, 0.0]
['beep', 0.0, -1284.3088846574885, 0.0, 0.0, 0.0, 0.0, -369.5860945685023, 0.0]
['beep', 0.0, -1283.548925346008, 0.0, 0.0, 0.0, 0.0, -369.273170146128, 0.0]
['beep', 0.0, -1284.77827129105, 0.0, 0.0, 0.0, 0.0, -370.3460538799827, 0.0]
['beep', 0.0, -1285.8958585138153, 0.0, 0.0, 0.0, 0.0, -370.83779225799947, 0.0]
['beep', 0.0, -1285.3147131579774, 0.0, 0.0, 0.0, 0.0, -370.2789986466168, 0.0]
['beep', 0.0, -1285.292361413522, 0.0, 0.0, 0.0, 0.0, -369.0496527015749, 0.0]
['beep', 0.0, -1285.7170445581728, 0.0, 0.0, 0.0, 0.0, -370.5919230689911, 0.0]
['beep', 0.0, -1285.582934091441, 0.0, 0.0, 0.0, 0.0, -371.15071668037376, 0.0]
['beep', 0.0, -1285.582934091441, 0.0, 0.0, 0.0, 0.0, -371.0166062136419, 0.0]
['beep', 0.0, -1286.0299689805472, 0.0, 0.0, 0.0, 0.0, -370.8824957469101, 0.0]
['beep', 0.0, -1284.5994573354076, 0.0, 0.0, 0.0, 0.0, -370.3237021355274, 0.0]
['beep', 0.0, -1282.5878003344299, 0.0, 0.0, 0.0, 0.0, -369.273170146128, 0.0]
['beep', 0.0, -1281.1349369448349, 0.0, 0.0, 0.0, 0.0, -369.40728061285984, 0.0]
['beep', 0.0, -1280.1738119332567, 0.0, 0.0, 0.0, 0.0, -368.80378351256655, 0.0]
['beep', 0.0, -1280.129108444346, 0.0, 0.0, 0.0, 0.0, -369.45198410177045, 0.0]
['beep', 0.0, -1281.067881711469, 0.0, 0.0, 0.0, 0.0, -368.78143176811125, 0.0]
['beep', 0.0, -1282.364282889877, 0.0, 0.0, 0.0, 0.0, -369.0049492126643, 0.0]
['beep', 0.0, -1283.7500910461058, 0.0, 0.0, 0.0, 0.0, -370.5695713245358, 0.0]
['beep', 0.0, -1285.2700096690667, 0.0, 0.0, 0.0, 0.0, -370.41310911334864, 0.0]
['beep', 0.0, -1284.6665125687734, 0.0, 0.0, 0.0, 0.0, -370.2342951577062, 0.0]
['beep', 0.0, -1284.8006230355052, 0.0, 0.0, 0.0, 0.0, -370.43546085780395, 0.0]
['beep', 0.0, -1284.4653468686756, 0.0, 0.0, 0.0, 0.0, -370.16723992434027, 0.0]
['beep', 0.0, -1284.8229747799605, 0.0, 0.0, 0.0, 0.0, -370.83779225799947, 0.0]
['beep', 0.0, -1283.6383323238292, 0.0, 0.0, 0.0, 0.0, -370.74838528017824, 0.0]
['beep', 0.0, -1282.9230765012594, 0.0, 0.0, 0.0, 0.0, -370.41310911334864, 0.0]
['beep', 0.0, -1283.7724427905612, 0.0, 0.0, 0.0, 0.0, -369.51903933513637, 0.0]
['beep', 0.0, -1283.3477596459104, 0.0, 0.0, 0.0, 0.0, -369.45198410177045, 0.0]
['beep', 0.0, -1282.9230765012594, 0.0, 0.0, 0.0, 0.0, -370.07783294651904, 0.0]
['beep', 0.0, -1283.8842015128378, 0.0, 0.0, 0.0, 0.0, -369.85431550196597, 0.0]
['beep', 0.0, -1282.9677799901701, 0.0, 0.0, 0.0, 0.0, -369.85431550196597, 0.0]
['beep', 0.0, -1283.3701113903655, 0.0, 0.0, 0.0, 0.0, -368.82613525702186, 0.0]
['beep', 0.0, -1283.034835223536, 0.0, 0.0, 0.0, 0.0, -369.2508184016727, 0.0]
['beep', 0.0, -1283.6606840682846, 0.0, 0.0, 0.0, 0.0, -369.72020503523413, 0.0]
['beep', 0.0, -1282.9901317346255, 0.0, 0.0, 0.0, 0.0, -368.40145211237103, 0.0]
['beep', 0.0, -1282.2972276565108, 0.0, 0.0, 0.0, 0.0, -369.16141142385146, 0.0]
['beep', 0.0, -1282.2078206786896, 0.0, 0.0, 0.0, 0.0, -368.73672827920063, 0.0]
['beep', 0.0, -1281.4031578782985, 0.0, 0.0, 0.0, 0.0, -368.51321083464757, 0.0]
['beep', 0.0, -1281.4702131116644, 0.0, 0.0, 0.0, 0.0, -368.6026178124688, 0.0]
['beep', 0.0, -1281.8948962563154, 0.0, 0.0, 0.0, 0.0, -368.82613525702186, 0.0]
['beep', 0.0, -1281.8948962563154, 0.0, 0.0, 0.0, 0.0, -369.47433584622576, 0.0]
['beep', 0.0, -1282.2525241676003, 0.0, 0.0, 0.0, 0.0, -369.18376316830677, 0.0]
['beep', 0.0, -1281.5149166005751, 0.0, 0.0, 0.0, 0.0, -370.05548120206373, 0.0]
['beep', 0.0, -1281.5149166005751, 0.0, 0.0, 0.0, 0.0, -369.72020503523413, 0.0]
['beep', 0.0, -1281.9172480007708, 0.0, 0.0, 0.0, 0.0, -369.8990189908766, 0.0]
['beep', 0.0, -1281.7607857895835, 0.0, 0.0, 0.0, 0.0, -369.72020503523413, 0.0]
['beep', 0.0, -1281.4478613672093, 0.0, 0.0, 0.0, 0.0, -369.85431550196597, 0.0]
['beep', 0.0, -1282.1854689342344, 0.0, 0.0, 0.0, 0.0, -369.74255677968944, 0.0]
['beep', 0.0, -1282.4536898676981, 0.0, 0.0, 0.0, 0.0, -368.82613525702186, 0.0]
['beep', 0.0, -1282.0290067230471, 0.0, 0.0, 0.0, 0.0, -370.12253643542965, 0.0]
['beep', 0.0, -1282.520745101064, 0.0, 0.0, 0.0, 0.0, -370.3237021355274, 0.0]
['beep', 0.0, -1282.520745101064, 0.0, 0.0, 0.0, 0.0, -369.38492886840453, 0.0]
['beep', 0.0, -1281.738434045128, 0.0, 0.0, 0.0, 0.0, -369.47433584622576, 0.0]
['beep', 0.0, -1281.8278410229495, 0.0, 0.0, 0.0, 0.0, -369.09435619048554, 0.0]
['beep', 0.0, -1280.8443642669158, 0.0, 0.0, 0.0, 0.0, -369.45198410177045, 0.0]
['beep', 0.0, -1280.3973293778097, 0.0, 0.0, 0.0, 0.0, -369.2061149127621, 0.0]
['beep', 0.0, -1281.291399156022, 0.0, 0.0, 0.0, 0.0, -369.9437224797872, 0.0]
['beep', 0.0, -1281.7831375340388, 0.0, 0.0, 0.0, 0.0, -371.0166062136419, 0.0]
['beep', 0.0, -1280.8443642669158, 0.0, 0.0, 0.0, 0.0, -370.6142748134464, 0.0]
['beep', 0.0, -1281.1349369448349, 0.0, 0.0, 0.0, 0.0, -370.79308876908885, 0.0]
['beep', 0.0, -1281.425509622754, 0.0, 0.0, 0.0, 0.0, -371.5753998250246, 0.0]
['beep', 0.0, -1282.2748759120557, 0.0, 0.0, 0.0, 0.0, -370.5695713245358, 0.0]
['beep', 0.0, -1280.7996607780053, 0.0, 0.0, 0.0, 0.0, -369.85431550196597, 0.0]
['beep', 0.0, -1281.0008264781031, 0.0, 0.0, 0.0, 0.0, -370.5248678356252, 0.0]
['beep', 0.0, -1282.3419311454215, 0.0, 0.0, 0.0, 0.0, -370.3237021355274, 0.0]
['beep', 0.0, -1280.6879020557287, 0.0, 0.0, 0.0, 0.0, -370.12253643542965, 0.0]
['beep', 0.0, -1280.7549572890946, 0.0, 0.0, 0.0, 0.0, -371.8659725029436, 0.0]
['beep', 0.0, -1280.8890677558265, 0.0, 0.0, 0.0, 0.0, -372.26830390313916, 0.0]
['beep', 0.0, -1280.0173497220696, 0.0, 0.0, 0.0, 0.0, -372.20124866977324, 0.0]
['beep', 0.0, -1280.0173497220696, 0.0, 0.0, 0.0, 0.0, -372.29065564759446, 0.0]
['beep', 0.0, -1279.905590999793, 0.0, 0.0, 0.0, 0.0, -371.6871585473011, 0.0]
['beep', 0.0, -1280.933771244737, 0.0, 0.0, 0.0, 0.0, -371.9553794807648, 0.0]
['beep', 0.0, -1281.4031578782985, 0.0, 0.0, 0.0, 0.0, -370.949550980276, 0.0]
['beep', 0.0, -1281.291399156022, 0.0, 0.0, 0.0, 0.0, -370.10018469097434, 0.0]
['beep', 0.0, -1281.8501927674047, 0.0, 0.0, 0.0, 0.0, -370.79308876908885, 0.0]
['beep', 0.0, -1281.4702131116644, 0.0, 0.0, 0.0, 0.0, -369.83196375751066, 0.0]
['beep', 0.0, -1281.581971833941, 0.0, 0.0, 0.0, 0.0, -370.14488817988496, 0.0]
['beep', 0.0, -1281.291399156022, 0.0, 0.0, 0.0, 0.0, -370.9271992358207, 0.0]
['beep', 0.0, -1279.8608875108823, 0.0, 0.0, 0.0, 0.0, -370.41310911334864, 0.0]
['beep', 0.0, -1280.553791588997, 0.0, 0.0, 0.0, 0.0, -371.46364110274806, 0.0]
['beep', 0.0, -1280.6879020557287, 0.0, 0.0, 0.0, 0.0, -371.2624754026503, 0.0]
['beep', 0.0, -1279.6597218107847, 0.0, 0.0, 0.0, 0.0, -369.83196375751066, 0.0]
['beep', 0.0, -1280.710253800184, 0.0, 0.0, 0.0, 0.0, -370.50251609116987, 0.0]
['beep', 0.0, -1281.1125852003795, 0.0, 0.0, 0.0, 0.0, -370.79308876908885, 0.0]
['beep', 0.0, -1282.0960619564132, 0.0, 0.0, 0.0, 0.0, -370.7036817912676, 0.0]
['beep', 0.0, -1282.878373012349, 0.0, 0.0, 0.0, 0.0, -371.2848271471056, 0.0]
['beep', 0.0, -1282.6325038233406, 0.0, 0.0, 0.0, 0.0, -370.9942544691866, 0.0]
['beep', 0.0, -1281.6937305562176, 0.0, 0.0, 0.0, 0.0, -371.530696336114, 0.0]
['beep', 0.0, -1281.8501927674047, 0.0, 0.0, 0.0, 0.0, -373.29648414808327, 0.0]
['beep', 0.0, -1281.6937305562176, 0.0, 0.0, 0.0, 0.0, -373.0059114701643, 0.0]
['beep', 0.0, -1280.6879020557287, 0.0, 0.0, 0.0, 0.0, -372.4694696032369, 0.0]
['beep', 0.0, -1281.8948962563154, 0.0, 0.0, 0.0, 0.0, -372.31300739204977, 0.0]
['beep', 0.0, -1283.0795387124467, 0.0, 0.0, 0.0, 0.0, -372.0224347141307, 0.0]
['beep', 0.0, -1283.2360009236338, 0.0, 0.0, 0.0, 0.0, -372.7376905367006, 0.0]
['beep', 0.0, -1283.5042218570975, 0.0, 0.0, 0.0, 0.0, -373.4752981037257, 0.0]
['beep', 0.0, -1282.811317778983, 0.0, 0.0, 0.0, 0.0, -373.4305946148151, 0.0]
['beep', 0.0, -1282.7219108011618, 0.0, 0.0, 0.0, 0.0, -372.8270975145218, 0.0]
['beep', 0.0, -1283.392463134821, 0.0, 0.0, 0.0, 0.0, -372.69298704779, 0.0]
['beep', 0.0, -1283.191297434723, 0.0, 0.0, 0.0, 0.0, -372.3577108809604, 0.0]
['beep', 0.0, -1282.811317778983, 0.0, 0.0, 0.0, 0.0, -371.240123658195, 0.0]
['beep', 0.0, -1280.77730903355, 0.0, 0.0, 0.0, 0.0, -371.75421378066704, 0.0]
['beep', 0.0, -1282.3419311454215, 0.0, 0.0, 0.0, 0.0, -372.20124866977324, 0.0]
['beep', 0.0, -1282.230172423145, 0.0, 0.0, 0.0, 0.0, -372.04478645858603, 0.0]
['beep', 0.0, -1282.5654485899745, 0.0, 0.0, 0.0, 0.0, -371.6871585473011, 0.0]
['beep', 0.0, -1282.006654978592, 0.0, 0.0, 0.0, 0.0, -371.9553794807648, 0.0]
['beep', 0.0, -1282.006654978592, 0.0, 0.0, 0.0, 0.0, -371.9777312252201, 0.0]
['beep', 0.0, -1281.8278410229495, 0.0, 0.0, 0.0, 0.0, -372.4247661143263, 0.0]
['beep', 0.0, -1281.6713788117622, 0.0, 0.0, 0.0, 0.0, -371.9330277363095, 0.0]
['beep', 0.0, -1283.3701113903655, 0.0, 0.0, 0.0, 0.0, -373.0953184479855, 0.0]
['beep', 0.0, -1282.8560212678935, 0.0, 0.0, 0.0, 0.0, -372.983559725709, 0.0]
['beep', 0.0, -1282.364282889877, 0.0, 0.0, 0.0, 0.0, -372.13419343640726, 0.0]
['beep', 0.0, -1282.4536898676981, 0.0, 0.0, 0.0, 0.0, -372.4918213476922, 0.0]
['beep', 0.0, -1282.5878003344299, 0.0, 0.0, 0.0, 0.0, -373.7435190371894, 0.0]
['beep', 0.0, -1283.168945690268, 0.0, 0.0, 0.0, 0.0, -372.84944925897713, 0.0]
['beep', 0.0, -1283.0124834790806, 0.0, 0.0, 0.0, 0.0, -373.29648414808327, 0.0]
['beep', 0.0, -1283.2360009236338, 0.0, 0.0, 0.0, 0.0, -374.50347834866983, 0.0]
['beep', 0.0, -1282.677207312251, 0.0, 0.0, 0.0, 0.0, -373.4529463592704, 0.0]
['beep', 0.0, -1282.0290067230471, 0.0, 0.0, 0.0, 0.0, -374.3917196263933, 0.0]
['beep', 0.0, -1282.6101520788852, 0.0, 0.0, 0.0, 0.0, -373.92233299283185, 0.0]
['beep', 0.0, -1282.4089863787874, 0.0, 0.0, 0.0, 0.0, -373.7435190371894, 0.0]
['beep', 0.0, -1283.3701113903655, 0.0, 0.0, 0.0, 0.0, -374.54818183758044, 0.0]
['beep', 0.0, -1284.5324021020415, 0.0, 0.0, 0.0, 0.0, -372.62593181442406, 0.0]
['beep', 0.0, -1283.4818701126421, 0.0, 0.0, 0.0, 0.0, -372.4694696032369, 0.0]
['beep', 0.0, -1283.7947945350165, 0.0, 0.0, 0.0, 0.0, -372.91650449234305, 0.0]
['beep', 0.0, -1283.191297434723, 0.0, 0.0, 0.0, 0.0, -373.3188358925386, 0.0]
['beep', 0.0, -1282.7219108011618, 0.0, 0.0, 0.0, 0.0, -373.4529463592704, 0.0]
['beep', 0.0, -1283.6383323238292, 0.0, 0.0, 0.0, 0.0, -373.29648414808327, 0.0]
['beep', 0.0, -1283.0124834790806, 0.0, 0.0, 0.0, 0.0, -372.4247661143263, 0.0]
['beep', 0.0, -1282.230172423145, 0.0, 0.0, 0.0, 0.0, -371.73186203621174, 0.0]
['beep', 0.0, -1283.3701113903655, 0.0, 0.0, 0.0, 0.0, -372.24595215868385, 0.0]
['beep', 0.0, -1282.5878003344299, 0.0, 0.0, 0.0, 0.0, -373.25178065917265, 0.0]
['beep', 0.0, -1282.0513584675025, 0.0, 0.0, 0.0, 0.0, -371.77656552512235, 0.0]
['beep', 0.0, -1282.2525241676003, 0.0, 0.0, 0.0, 0.0, -372.69298704779, 0.0]
['beep', 0.0, -1281.9172480007708, 0.0, 0.0, 0.0, 0.0, -371.6648068028458, 0.0]
['beep', 0.0, -1282.4760416121533, 0.0, 0.0, 0.0, 0.0, -371.79891726957766, 0.0]
['beep', 0.0, -1283.191297434723, 0.0, 0.0, 0.0, 0.0, -372.93885623679836, 0.0]
['beep', 0.0, -1282.8560212678935, 0.0, 0.0, 0.0, 0.0, -373.20707717026204, 0.0]
['beep', 0.0, -1282.9454282457148, 0.0, 0.0, 0.0, 0.0, -372.7153387922453, 0.0]
['beep', 0.0, -1283.6383323238292, 0.0, 0.0, 0.0, 0.0, -372.64828355887937, 0.0]
['beep', 0.0, -1283.5265736015529, 0.0, 0.0, 0.0, 0.0, -373.4082428703598, 0.0]
['beep', 0.0, -1284.4653468686756, 0.0, 0.0, 0.0, 0.0, -372.64828355887937, 0.0]
['beep', 0.0, -1285.135899202335, 0.0, 0.0, 0.0, 0.0, -372.84944925897713, 0.0]
['beep', 0.0, -1287.0581492254912, 0.0, 0.0, 0.0, 0.0, -373.8329260150106, 0.0]
['beep', 0.0, -1286.6558178252958, 0.0, 0.0, 0.0, 0.0, -373.60940857045756, 0.0]
['beep', 0.0, -1285.6946928137174, 0.0, 0.0, 0.0, 0.0, -374.1011469484743, 0.0]
['beep', 0.0, -1285.135899202335, 0.0, 0.0, 0.0, 0.0, -373.63176031491287, 0.0]
['beep', 0.0, -1283.7053875571953, 0.0, 0.0, 0.0, 0.0, -372.84944925897713, 0.0]
['beep', 0.0, -1284.2641811685778, 0.0, 0.0, 0.0, 0.0, -372.11184169195195, 0.0]
['beep', 0.0, -1284.3088846574885, 0.0, 0.0, 0.0, 0.0, -372.3577108809604, 0.0]
['beep', 0.0, -1283.839498023927, 0.0, 0.0, 0.0, 0.0, -372.3800626254157, 0.0]
['beep', 0.0, -1283.3030561569997, 0.0, 0.0, 0.0, 0.0, -371.9330277363095, 0.0]
['beep', 0.0, -1282.5878003344299, 0.0, 0.0, 0.0, 0.0, -372.1788969253179, 0.0]
['beep', 0.0, -1282.5654485899745, 0.0, 0.0, 0.0, 0.0, -371.3071788915609, 0.0]
['beep', 0.0, -1282.811317778983, 0.0, 0.0, 0.0, 0.0, -370.5695713245358, 0.0]
['beep', 0.0, -1282.7889660345277, 0.0, 0.0, 0.0, 0.0, -371.3518823804715, 0.0]
['beep', 0.0, -1283.3477596459104, 0.0, 0.0, 0.0, 0.0, -370.6366265579017, 0.0]
['beep', 0.0, -1282.7889660345277, 0.0, 0.0, 0.0, 0.0, -371.15071668037376, 0.0]
['beep', 0.0, -1283.8171462794717, 0.0, 0.0, 0.0, 0.0, -372.93885623679836, 0.0]
['beep', 0.0, -1284.711216057684, 0.0, 0.0, 0.0, 0.0, -372.64828355887937, 0.0]
['beep', 0.0, -1285.6946928137174, 0.0, 0.0, 0.0, 0.0, -371.39658586938214, 0.0]
['beep', 0.0, -1284.487698613131, 0.0, 0.0, 0.0, 0.0, -370.12253643542965, 0.0]
['beep', 0.0, -1283.615980579374, 0.0, 0.0, 0.0, 0.0, -370.83779225799947, 0.0]
['beep', 0.0, -1283.6383323238292, 0.0, 0.0, 0.0, 0.0, -370.83779225799947, 0.0]
['beep', 0.0, -1283.1018904569019, 0.0, 0.0, 0.0, 0.0, -371.0166062136419, 0.0]
['beep', 0.0, -1284.2865329130332, 0.0, 0.0, 0.0, 0.0, -370.0331294576084, 0.0]
['beep', 0.0, -1283.1465939458126, 0.0, 0.0, 0.0, 0.0, -370.5695713245358, 0.0]
['beep', 0.0, -1283.5042218570975, 0.0, 0.0, 0.0, 0.0, -372.13419343640726, 0.0]
['beep', 0.0, -1283.7053875571953, 0.0, 0.0, 0.0, 0.0, -372.08948994749665, 0.0]
['beep', 0.0, -1284.1077189573907, 0.0, 0.0, 0.0, 0.0, -371.17306842482907, 0.0]
['beep', 0.0, -1283.973608490659, 0.0, 0.0, 0.0, 0.0, -371.17306842482907, 0.0]
['beep', 0.0, -1282.9677799901701, 0.0, 0.0, 0.0, 0.0, -372.24595215868385, 0.0]
['beep', 0.0, -1283.4595183681868, 0.0, 0.0, 0.0, 0.0, -372.93885623679836, 0.0]
['beep', 0.0, -1284.3088846574885, 0.0, 0.0, 0.0, 0.0, -371.2848271471056, 0.0]
['beep', 0.0, -1284.3759398908544, 0.0, 0.0, 0.0, 0.0, -371.8659725029436, 0.0]
['beep', 0.0, -1283.4148148792763, 0.0, 0.0, 0.0, 0.0, -372.26830390313916, 0.0]
['beep', 0.0, -1283.0571869679914, 0.0, 0.0, 0.0, 0.0, -371.75421378066704, 0.0]
['beep', 0.0, -1283.0124834790806, 0.0, 0.0, 0.0, 0.0, -372.89415274788774, 0.0]
['beep', 0.0, -1283.5265736015529, 0.0, 0.0, 0.0, 0.0, -372.0224347141307, 0.0]
['beep', 0.0, -1283.6383323238292, 0.0, 0.0, 0.0, 0.0, -371.70951029175643, 0.0]
['beep', 0.0, -1283.5265736015529, 0.0, 0.0, 0.0, 0.0, -371.530696336114, 0.0]
['beep', 0.0, -1283.168945690268, 0.0, 0.0, 0.0, 0.0, -370.6813300468123, 0.0]
['beep', 0.0, -1284.4206433797651, 0.0, 0.0, 0.0, 0.0, -370.79308876908885, 0.0]
['beep', 0.0, -1282.8560212678935, 0.0, 0.0, 0.0, 0.0, -370.5695713245358, 0.0]
['beep', 0.0, -1284.3759398908544, 0.0, 0.0, 0.0, 0.0, -371.9777312252201, 0.0]
['beep', 0.0, -1284.3759398908544, 0.0, 0.0, 0.0, 0.0, -372.0224347141307, 0.0]
['beep', 0.0, -1283.7500910461058, 0.0, 0.0, 0.0, 0.0, -371.6201033139352, 0.0]
['beep', 0.0, -1283.548925346008, 0.0, 0.0, 0.0, 0.0, -372.87180100343244, 0.0]
['beep', 0.0, -1283.2807044125443, 0.0, 0.0, 0.0, 0.0, -372.3577108809604, 0.0]
['beep', 0.0, -1282.9007247568043, 0.0, 0.0, 0.0, 0.0, -373.25178065917265, 0.0]
['beep', 0.0, -1282.3419311454215, 0.0, 0.0, 0.0, 0.0, -373.89998124837655, 0.0]
['beep', 0.0, -1282.3195794009662, 0.0, 0.0, 0.0, 0.0, -373.63176031491287, 0.0]
['beep', 0.0, -1283.2360009236338, 0.0, 0.0, 0.0, 0.0, -372.8047457700665, 0.0]
['beep', 0.0, -1282.4760416121533, 0.0, 0.0, 0.0, 0.0, -372.7376905367006, 0.0]
['beep', 0.0, -1283.0571869679914, 0.0, 0.0, 0.0, 0.0, -373.1400219368961, 0.0]
['beep', 0.0, -1282.7889660345277, 0.0, 0.0, 0.0, 0.0, -372.91650449234305, 0.0]
['beep', 0.0, -1281.1796404337456, 0.0, 0.0, 0.0, 0.0, -372.0000829696754, 0.0]
['beep', 0.0, -1282.1407654453237, 0.0, 0.0, 0.0, 0.0, -372.7600422811559, 0.0]
['beep', 0.0, -1281.8501927674047, 0.0, 0.0, 0.0, 0.0, -372.58122832551345, 0.0]
['beep', 0.0, -1281.6713788117622, 0.0, 0.0, 0.0, 0.0, -371.1954201692844, 0.0]
['beep', 0.0, -1281.4031578782985, 0.0, 0.0, 0.0, 0.0, -371.41893761383744, 0.0]
['beep', 0.0, -1281.8948962563154, 0.0, 0.0, 0.0, 0.0, -370.9048474913654, 0.0]
['beep', 0.0, -1282.0513584675025, 0.0, 0.0, 0.0, 0.0, -369.6307980574129, 0.0]
['beep', 0.0, -1282.1184137008684, 0.0, 0.0, 0.0, 0.0, -370.12253643542965, 0.0]
['beep', 0.0, -1281.9843032341366, 0.0, 0.0, 0.0, 0.0, -370.9048474913654, 0.0]
['beep', 0.0, -1281.8948962563154, 0.0, 0.0, 0.0, 0.0, -370.949550980276, 0.0]
['beep', 0.0, -1281.581971833941, 0.0, 0.0, 0.0, 0.0, -371.41893761383744, 0.0]
['beep', 0.0, -1281.5596200894856, 0.0, 0.0, 0.0, 0.0, -370.9719027247313, 0.0]
['beep', 0.0, -1283.3477596459104, 0.0, 0.0, 0.0, 0.0, -370.9942544691866, 0.0]
['beep', 0.0, -1282.8560212678935, 0.0, 0.0, 0.0, 0.0, -371.8659725029436, 0.0]
['beep', 0.0, -1282.1854689342344, 0.0, 0.0, 0.0, 0.0, -371.39658586938214, 0.0]
['beep', 0.0, -1282.744262545617, 0.0, 0.0, 0.0, 0.0, -370.9048474913654, 0.0]
['beep', 0.0, -1283.3030561569997, 0.0, 0.0, 0.0, 0.0, -371.39658586938214, 0.0]
['beep', 0.0, -1283.7053875571953, 0.0, 0.0, 0.0, 0.0, -370.949550980276, 0.0]
['beep', 0.0, -1283.7500910461058, 0.0, 0.0, 0.0, 0.0, -371.6871585473011, 0.0]
['beep', 0.0, -1282.7889660345277, 0.0, 0.0, 0.0, 0.0, -371.9330277363095, 0.0]
['beep', 0.0, -1282.2972276565108, 0.0, 0.0, 0.0, 0.0, -371.39658586938214, 0.0]
['beep', 0.0, -1283.6383323238292, 0.0, 0.0, 0.0, 0.0, -372.53652483660284, 0.0]
['beep', 0.0, -1284.6888643132288, 0.0, 0.0, 0.0, 0.0, -373.1623736813514, 0.0]
['beep', 0.0, -1283.8618497683824, 0.0, 0.0, 0.0, 0.0, -371.6871585473011, 0.0]
['beep', 0.0, -1283.3030561569997, 0.0, 0.0, 0.0, 0.0, -372.29065564759446, 0.0]
['beep', 0.0, -1282.8336695234382, 0.0, 0.0, 0.0, 0.0, -373.29648414808327, 0.0]
['beep', 0.0, -1282.8336695234382, 0.0, 0.0, 0.0, 0.0, -371.06130970255253, 0.0]
['beep', 0.0, -1283.4595183681868, 0.0, 0.0, 0.0, 0.0, -369.8766672464213, 0.0]
['beep', 0.0, -1284.5324021020415, 0.0, 0.0, 0.0, 0.0, -371.3071788915609, 0.0]
['beep', 0.0, -1284.1747741907566, 0.0, 0.0, 0.0, 0.0, -370.8601440024548, 0.0]
['beep', 0.0, -1283.7053875571953, 0.0, 0.0, 0.0, 0.0, -372.3577108809604, 0.0]
['beep', 0.0, -1283.973608490659, 0.0, 0.0, 0.0, 0.0, -372.20124866977324, 0.0]
['beep', 0.0, -1283.3701113903655, 0.0, 0.0, 0.0, 0.0, -371.3071788915609, 0.0]
['beep', 0.0, -1282.520745101064, 0.0, 0.0, 0.0, 0.0, -372.08948994749665, 0.0]
['beep', 0.0, -1280.9561229891924, 0.0, 0.0, 0.0, 0.0, -371.2848271471056, 0.0]
['beep', 0.0, -1279.3467973884103, 0.0, 0.0, 0.0, 0.0, -370.949550980276, 0.0]
['beep', 0.0, -1278.5421345880193, 0.0, 0.0, 0.0, 0.0, -370.3013503910721, 0.0]
['beep', 0.0, -1278.2739136545556, 0.0, 0.0, 0.0, 0.0, -370.72603353572293, 0.0]
['beep', 0.0, -1279.2126869216786, 0.0, 0.0, 0.0, 0.0, -371.73186203621174, 0.0]
['beep', 0.0, -1280.2855706555333, 0.0, 0.0, 0.0, 0.0, -371.06130970255253, 0.0]
['beep', 0.0, -1282.4983933566086, 0.0, 0.0, 0.0, 0.0, -371.46364110274806, 0.0]
['beep', 0.0, -1282.9007247568043, 0.0, 0.0, 0.0, 0.0, -371.12836493591846, 0.0]
['beep', 0.0, -1283.8842015128378, 0.0, 0.0, 0.0, 0.0, -370.5248678356252, 0.0]
['beep', 0.0, -1284.487698613131, 0.0, 0.0, 0.0, 0.0, -371.17306842482907, 0.0]
['beep', 0.0, -1285.2253061801562, 0.0, 0.0, 0.0, 0.0, -371.12836493591846, 0.0]
['beep', 0.0, -1284.487698613131, 0.0, 0.0, 0.0, 0.0, -371.6424550583905, 0.0]
['beep', 0.0, -1284.0183119795695, 0.0, 0.0, 0.0, 0.0, -372.29065564759446, 0.0]
['beep', 0.0, -1283.3477596459104, 0.0, 0.0, 0.0, 0.0, -372.51417309214753, 0.0]
['beep', 0.0, -1284.7559195465947, 0.0, 0.0, 0.0, 0.0, -372.08948994749665, 0.0]
['beep', 0.0, -1284.3759398908544, 0.0, 0.0, 0.0, 0.0, -372.6706353033347, 0.0]
['beep', 0.0, -1284.197125935212, 0.0, 0.0, 0.0, 0.0, -372.08948994749665, 0.0]
['beep', 0.0, -1284.5994573354076, 0.0, 0.0, 0.0, 0.0, -372.8047457700665, 0.0]
['beep', 0.0, -1284.3088846574885, 0.0, 0.0, 0.0, 0.0, -373.4305946148151, 0.0]
['beep', 0.0, -1284.0853672129354, 0.0, 0.0, 0.0, 0.0, -372.64828355887937, 0.0]
['beep', 0.0, -1284.5547538464969, 0.0, 0.0, 0.0, 0.0, -373.56470508154695, 0.0]
['beep', 0.0, -1284.8229747799605, 0.0, 0.0, 0.0, 0.0, -373.25178065917265, 0.0]
['beep', 0.0, -1283.4148148792763, 0.0, 0.0, 0.0, 0.0, -373.56470508154695, 0.0]
['beep', 0.0, -1283.8842015128378, 0.0, 0.0, 0.0, 0.0, -373.92233299283185, 0.0]
['beep', 0.0, -1284.487698613131, 0.0, 0.0, 0.0, 0.0, -373.87762950392124, 0.0]
['beep', 0.0, -1283.3030561569997, 0.0, 0.0, 0.0, 0.0, -373.85527775946593, 0.0]
['beep', 0.0, -1282.4536898676981, 0.0, 0.0, 0.0, 0.0, -373.7435190371894, 0.0]
['beep', 0.0, -1282.5878003344299, 0.0, 0.0, 0.0, 0.0, -372.8047457700665, 0.0]
['beep', 0.0, -1282.364282889877, 0.0, 0.0, 0.0, 0.0, -372.69298704779, 0.0]
['beep', 0.0, -1281.4031578782985, 0.0, 0.0, 0.0, 0.0, -372.7823940256112, 0.0]
['beep', 0.0, -1281.7831375340388, 0.0, 0.0, 0.0, 0.0, -374.3246643930274, 0.0]
['beep', 0.0, -1283.4818701126421, 0.0, 0.0, 0.0, 0.0, -373.7882225261, 0.0]
['beep', 0.0, -1283.5042218570975, 0.0, 0.0, 0.0, 0.0, -373.4082428703598, 0.0]
['beep', 0.0, -1283.191297434723, 0.0, 0.0, 0.0, 0.0, -373.3635393814492, 0.0]
['beep', 0.0, -1283.191297434723, 0.0, 0.0, 0.0, 0.0, -373.60940857045756, 0.0]
['beep', 0.0, -1283.615980579374, 0.0, 0.0, 0.0, 0.0, -374.30231264857207, 0.0]
['beep', 0.0, -1282.8336695234382, 0.0, 0.0, 0.0, 0.0, -374.59288532649106, 0.0]
['beep', 0.0, -1282.9454282457148, 0.0, 0.0, 0.0, 0.0, -374.0340917151084, 0.0]
['beep', 0.0, -1283.5936288349187, 0.0, 0.0, 0.0, 0.0, -373.56470508154695, 0.0]
['beep', 0.0, -1283.2583526680892, 0.0, 0.0, 0.0, 0.0, -373.4529463592704, 0.0]
['beep', 0.0, -1284.1077189573907, 0.0, 0.0, 0.0, 0.0, -372.3800626254157, 0.0]
['beep', 0.0, -1283.168945690268, 0.0, 0.0, 0.0, 0.0, -372.4918213476922, 0.0]
['beep', 0.0, -1282.811317778983, 0.0, 0.0, 0.0, 0.0, -372.91650449234305, 0.0]
['beep', 0.0, -1283.191297434723, 0.0, 0.0, 0.0, 0.0, -373.96703648174247, 0.0]
['beep', 0.0, -1284.1077189573907, 0.0, 0.0, 0.0, 0.0, -373.4305946148151, 0.0]
['beep', 0.0, -1282.6325038233406, 0.0, 0.0, 0.0, 0.0, -372.64828355887937, 0.0]
['beep', 0.0, -1282.4760416121533, 0.0, 0.0, 0.0, 0.0, -373.0953184479855, 0.0]
['beep', 0.0, -1283.3701113903655, 0.0, 0.0, 0.0, 0.0, -372.8047457700665, 0.0]
['beep', 0.0, -1284.197125935212, 0.0, 0.0, 0.0, 0.0, -371.9777312252201, 0.0]
['beep', 0.0, -1283.906553257293, 0.0, 0.0, 0.0, 0.0, -372.8270975145218, 0.0]
['beep', 0.0, -1283.615980579374, 0.0, 0.0, 0.0, 0.0, -373.89998124837655, 0.0]
['beep', 0.0, -1282.6325038233406, 0.0, 0.0, 0.0, 0.0, -374.16820218184023, 0.0]
['beep', 0.0, -1282.5878003344299, 0.0, 0.0, 0.0, 0.0, -373.6541120593682, 0.0]
