['beep', 0.0, -1190.3421509673776, 0.0, 0.0, 0.0, 0.0, -250.80892453300055, 0.0]
['beep', 0.0, -1189.716302122629, 0.0, 0.0, 0.0, 0.0, -251.12184895537484, 0.0]
['beep', 0.0, -1190.2527439895564, 0.0, 0.0, 0.0, 0.0, -249.49017161013742, 0.0]
['beep', 0.0, -1190.8338893453945, 0.0, 0.0, 0.0, 0.0, -248.7078605542017, 0.0]
['beep', 0.0, -1191.392682956777, 0.0, 0.0, 0.0, 0.0, -248.3949361318274, 0.0]
['beep', 0.0, -1190.2527439895564, 0.0, 0.0, 0.0, 0.0, -245.77978203055645, 0.0]
['beep', 0.0, -1190.230392245101, 0.0, 0.0, 0.0, 0.0, -203.13265360983058, 0.0]
['beep', 0.0, -1189.7386538670844, 0.0, 0.0, 0.0, 0.0, -172.60017068388115, 0.0]
['beep', 0.0, -1190.655075389752, 0.0, 0.0, 0.0, 0.0, -188.69342669170223, 0.0]
['beep', 0.0, -1190.3868544562883, 0.0, 0.0, 0.0, 0.0, -239.90127323881072, 0.0]
['beep', 0.0, -1188.8669358333273, 0.0, 0.0, 0.0, 0.0, -250.20542743270727, 0.0]
['beep', 0.0, -1188.0846247773916, 0.0, 0.0, 0.0, 0.0, -243.7681250295788, 0.0]
['beep', 0.0, -1188.0846247773916, 0.0, 0.0, 0.0, 0.0, -194.99661862809882, 0.0]
['beep', 0.0, -1189.4480811891654, 0.0, 0.0, 0.0, 0.0, -191.86737440435581, 0.0]
['beep', 0.0, -1190.8562410898496, 0.0, 0.0, 0.0, 0.0, -240.99650871712075, 0.0]
['beep', 0.0, -1189.1575085112463, 0.0, 0.0, 0.0, 0.0, -249.13254369885252, 0.0]
['beep', 0.0, -1189.2469154890675, 0.0, 0.0, 0.0, 0.0, -248.03730822054249, 0.0]
['beep', 0.0, -1188.8222323444168, 0.0, 0.0, 0.0, 0.0, -221.01404917407623, 0.0]
['beep', 0.0, -1189.2245637446122, 0.0, 0.0, 0.0, 0.0, -191.39798777079437, 0.0]
['beep', 0.0, -1189.2916189779783, 0.0, 0.0, 0.0, 0.0, -237.375526115361, 0.0]
['beep', 0.0, -1189.4033777002546, 0.0, 0.0, 0.0, 0.0, -249.53487509904804, 0.0]
['beep', 0.0, -1189.582191655897, 0.0, 0.0, 0.0, 0.0, -247.94790124272126, 0.0]
['beep', 0.0, -1189.8057091004503, 0.0, 0.0, 0.0, 0.0, -206.73128446713503, 0.0]
['beep', 0.0, -1189.3363224668888, 0.0, 0.0, 0.0, 0.0, -189.43103425872735, 0.0]
['beep', 0.0, -1189.0233980445146, 0.0, 0.0, 0.0, 0.0, -237.9119679822884, 0.0]
['beep', 0.0, -1188.6881218776848, 0.0, 0.0, 0.0, 0.0, -248.4172878762827, 0.0]
['beep', 0.0, -1188.2410869885787, 0.0, 0.0, 0.0, 0.0, -246.07035470847546, 0.0]
['beep', 0.0, -1188.9563428111485, 0.0, 0.0, 0.0, 0.0, -205.68075247773558, 0.0]
['beep', 0.0, -1189.068101533425, 0.0, 0.0, 0.0, 0.0, -190.28040054802904, 0.0]
['beep', 0.0, -1188.8892875777826, 0.0, 0.0, 0.0, 0.0, -239.00720346059842, 0.0]
['beep', 0.0, -1188.1963834996682, 0.0, 0.0, 0.0, 0.0, -249.53487509904804, 0.0]
['beep', 0.0, -1189.0010463000592, 0.0, 0.0, 0.0, 0.0, -247.74673554262347, 0.0]
['beep', 0.0, -1189.42572944471, 0.0, 0.0, 0.0, 0.0, -216.7672177275679, 0.0]
['beep', 0.0, -1189.2469154890675, 0.0, 0.0, 0.0, 0.0, -189.11810983635306, 0.0]
['beep', 0.0, -1188.6434183887743, 0.0, 0.0, 0.0, 0.0, -235.94501447022137, 0.0]
['beep', 0.0, -1188.0846247773916, 0.0, 0.0, 0.0, 0.0, -248.57375008746985, 0.0]
['beep', 0.0, -1188.4869561775872, 0.0, 0.0, 0.0, 0.0, -246.62914831985813, 0.0]
['beep', 0.0, -1188.7104736221402, 0.0, 0.0, 0.0, 0.0, -212.05099964749812, 0.0]
['beep', 0.0, -1188.4869561775872, 0.0, 0.0, 0.0, 0.0, -193.63316221632508, 0.0]
['beep', 0.0, -1188.911639322238, 0.0, 0.0, 0.0, 0.0, -241.28708139503973, 0.0]
['beep', 0.0, -1188.1293282663023, 0.0, 0.0, 0.0, 0.0, -250.3171861549838, 0.0]
['beep', 0.0, -1188.4646044331319, 0.0, 0.0, 0.0, 0.0, -244.77395353006764, 0.0]
['beep', 0.0, -1188.8669358333273, 0.0, 0.0, 0.0, 0.0, -196.40477852878317, 0.0]
['beep', 0.0, -1190.0962817783693, 0.0, 0.0, 0.0, 0.0, -194.05784536097593, 0.0]
['beep', 0.0, -1189.7610056115395, 0.0, 0.0, 0.0, 0.0, -243.4328488627492, 0.0]
['beep', 0.0, -1191.2138690011345, 0.0, 0.0, 0.0, 0.0, -250.16072394379665, 0.0]
['beep', 0.0, -1191.0797585344028, 0.0, 0.0, 0.0, 0.0, -250.07131696597543, 0.0]
['beep', 0.0, -1187.7046451216513, 0.0, 0.0, 0.0, 0.0, -249.64663382132457, 0.0]
['beep', 0.0, -1188.4422526886765, 0.0, 0.0, 0.0, 0.0, -250.36188964389441, 0.0]
['beep', 0.0, -1190.0515782894586, 0.0, 0.0, 0.0, 0.0, -252.37354664487205, 0.0]
['beep', 0.0, -1189.582191655897, 0.0, 0.0, 0.0, 0.0, -250.49600011062626, 0.0]
['beep', 0.0, -1189.7610056115395, 0.0, 0.0, 0.0, 0.0, -210.86635719136683, 0.0]
['beep', 0.0, -1190.3421509673776, 0.0, 0.0, 0.0, 0.0, -176.0423393299984, 0.0]
['beep', 0.0, -1190.5433166674754, 0.0, 0.0, 0.0, 0.0, -184.29013303400674, 0.0]
['beep', 0.0, -1190.3197992229223, 0.0, 0.0, 0.0, 0.0, -235.07329643646437, 0.0]
['beep', 0.0, -1189.8727643338161, 0.0, 0.0, 0.0, 0.0, -252.48530536714858, 0.0]
['beep', 0.0, -1190.4986131785647, 0.0, 0.0, 0.0, 0.0, -249.0878402099419, 0.0]
['beep', 0.0, -1191.7726626125173, 0.0, 0.0, 0.0, 0.0, -213.70502873719082, 0.0]
['beep', 0.0, -1191.1244620233133, 0.0, 0.0, 0.0, 0.0, -186.83823190191174, 0.0]
['beep', 0.0, -1192.0855870348917, 0.0, 0.0, 0.0, 0.0, -235.94501447022137, 0.0]
['beep', 0.0, -1192.5996771573637, 0.0, 0.0, 0.0, 0.0, -249.35606114340558, 0.0]
['beep', 0.0, -1192.5996771573637, 0.0, 0.0, 0.0, 0.0, -248.3725843873721, 0.0]
['beep', 0.0, -1193.5608021689418, 0.0, 0.0, 0.0, 0.0, -213.6603252482802, 0.0]
['beep', 0.0, -1193.7172643801289, 0.0, 0.0, 0.0, 0.0, -187.88876389131116, 0.0]
['beep', 0.0, -1193.5608021689418, 0.0, 0.0, 0.0, 0.0, -236.23558714814035, 0.0]
['beep', 0.0, -1192.3985114572658, 0.0, 0.0, 0.0, 0.0, -250.09366871043073, 0.0]
['beep', 0.0, -1192.7114358796402, 0.0, 0.0, 0.0, 0.0, -246.36092738639445, 0.0]
['beep', 0.0, -1192.622028901819, 0.0, 0.0, 0.0, 0.0, -208.27355483455122, 0.0]
['beep', 0.0, -1191.3256277234111, 0.0, 0.0, 0.0, 0.0, -194.3037145499843, 0.0]
['beep', 0.0, -1191.8844213347938, 0.0, 0.0, 0.0, 0.0, -242.3823168733498, 0.0]
['beep', 0.0, -1192.2420492460788, 0.0, 0.0, 0.0, 0.0, -250.20542743270727, 0.0]
['beep', 0.0, -1192.7114358796402, 0.0, 0.0, 0.0, 0.0, -249.31135765449497, 0.0]
['beep', 0.0, -1193.0243603020144, 0.0, 0.0, 0.0, 0.0, -221.12580789635277, 0.0]
['beep', 0.0, -1193.6278574023077, 0.0, 0.0, 0.0, 0.0, -192.44851976019382, 0.0]
['beep', 0.0, -1193.292581235478, 0.0, 0.0, 0.0, 0.0, -239.67775579425762, 0.0]
['beep', 0.0, -1192.487918435087, 0.0, 0.0, 0.0, 0.0, -249.1101919543972, 0.0]
['beep', 0.0, -1193.0243603020144, 0.0, 0.0, 0.0, 0.0, -245.6456715638246, 0.0]
['beep', 0.0, -1193.1584707687464, 0.0, 0.0, 0.0, 0.0, -210.64283974681376, 0.0]
['beep', 0.0, -1192.1079387793468, 0.0, 0.0, 0.0, 0.0, -187.64289470230278, 0.0]
['beep', 0.0, -1191.23622074559, 0.0, 0.0, 0.0, 0.0, -236.52615982605934, 0.0]
['beep', 0.0, -1190.5433166674754, 0.0, 0.0, 0.0, 0.0, -246.8526657644112, 0.0]
['beep', 0.0, -1190.6997788786625, 0.0, 0.0, 0.0, 0.0, -246.29387215302853, 0.0]
['beep', 0.0, -1191.7726626125173, 0.0, 0.0, 0.0, 0.0, -213.79443571501204, 0.0]
['beep', 0.0, -1191.7950143569726, 0.0, 0.0, 0.0, 0.0, -191.35328428188376, 0.0]
['beep', 0.0, -1192.2420492460788, 0.0, 0.0, 0.0, 0.0, -237.86726449337777, 0.0]
['beep', 0.0, -1191.5491451679643, 0.0, 0.0, 0.0, 0.0, -245.95859598619893, 0.0]
['beep', 0.0, -1190.8115376009391, 0.0, 0.0, 0.0, 0.0, -240.8623982503889, 0.0]
['beep', 0.0, -1191.6609038902407, 0.0, 0.0, 0.0, 0.0, -193.25318256058486, 0.0]
['beep', 0.0, -1191.6385521457855, 0.0, 0.0, 0.0, 0.0, -193.65551396078038, 0.0]
['beep', 0.0, -1191.7279591236068, 0.0, 0.0, 0.0, 0.0, -240.92945348375483, 0.0]
['beep', 0.0, -1189.783357355995, 0.0, 0.0, 0.0, 0.0, -246.8303140199559, 0.0]
['beep', 0.0, -1190.1409852672798, 0.0, 0.0, 0.0, 0.0, -245.6680233082799, 0.0]
['beep', 0.0, -1191.1468137677687, 0.0, 0.0, 0.0, 0.0, -213.6156217593696, 0.0]
['beep', 0.0, -1190.655075389752, 0.0, 0.0, 0.0, 0.0, -189.9674761256547, 0.0]
['beep', 0.0, -1190.9456480676708, 0.0, 0.0, 0.0, 0.0, -236.0120697035873, 0.0]
['beep', 0.0, -1190.8562410898496, 0.0, 0.0, 0.0, 0.0, -246.42798261976037, 0.0]
['beep', 0.0, -1191.012703301037, 0.0, 0.0, 0.0, 0.0, -246.02565121956485, 0.0]
['beep', 0.0, -1191.817366101428, 0.0, 0.0, 0.0, 0.0, -212.45333104769364, 0.0]
['beep', 0.0, -1192.5996771573637, 0.0, 0.0, 0.0, 0.0, -190.03453135902063, 0.0]
['beep', 0.0, -1192.3761597128105, 0.0, 0.0, 0.0, 0.0, -237.7331540266459, 0.0]
['beep', 0.0, -1191.8397178458831, 0.0, 0.0, 0.0, 0.0, -248.81961927647822, 0.0]
['beep', 0.0, -1192.3761597128105, 0.0, 0.0, 0.0, 0.0, -247.12088669787488, 0.0]
['beep', 0.0, -1191.3256277234111, 0.0, 0.0, 0.0, 0.0, -209.860528690878, 0.0]
['beep', 0.0, -1191.5491451679643, 0.0, 0.0, 0.0, 0.0, -186.43590050171622, 0.0]
['beep', 0.0, -1192.0185318015256, 0.0, 0.0, 0.0, 0.0, -234.58155805844763, 0.0]
['beep', 0.0, -1190.7444823675733, 0.0, 0.0, 0.0, 0.0, -247.94790124272126, 0.0]
['beep', 0.0, -1190.0962817783693, 0.0, 0.0, 0.0, 0.0, -244.6398430633358, 0.0]
['beep', 0.0, -1190.1409852672798, 0.0, 0.0, 0.0, 0.0, -200.18222334173007, 0.0]
['beep', 0.0, -1189.8727643338161, 0.0, 0.0, 0.0, 0.0, -195.2424878171072, 0.0]
['beep', 0.0, -1190.7891858564838, 0.0, 0.0, 0.0, 0.0, -242.89640699582185, 0.0]
['beep', 0.0, -1190.0962817783693, 0.0, 0.0, 0.0, 0.0, -249.0431367210313, 0.0]
['beep', 0.0, -1189.7610056115395, 0.0, 0.0, 0.0, 0.0, -248.68550880974638, 0.0]
['beep', 0.0, -1189.9845230560927, 0.0, 0.0, 0.0, 0.0, -247.70203205371286, 0.0]
['beep', 0.0, -1189.9621713116373, 0.0, 0.0, 0.0, 0.0, -245.51156109709277, 0.0]
['beep', 0.0, -1190.1186335228244, 0.0, 0.0, 0.0, 0.0, -246.5620930864922, 0.0]
['beep', 0.0, -1191.1021102788582, 0.0, 0.0, 0.0, 0.0, -244.19280817422967, 0.0]
['beep', 0.0, -1191.035055045492, 0.0, 0.0, 0.0, 0.0, -204.54081351051494, 0.0]
['beep', 0.0, -1190.9903515565816, 0.0, 0.0, 0.0, 0.0, -172.04137707249845, 0.0]
['beep', 0.0, -1191.5044416790536, 0.0, 0.0, 0.0, 0.0, -182.74786266659055, 0.0]
['beep', 0.0, -1191.2809242345006, 0.0, 0.0, 0.0, 0.0, -233.93335746924373, 0.0]
['beep', 0.0, -1191.1915172566794, 0.0, 0.0, 0.0, 0.0, -245.73507854164583, 0.0]
['beep', 0.0, -1190.1409852672798, 0.0, 0.0, 0.0, 0.0, -243.79047677403412, 0.0]
['beep', 0.0, -1190.9232963232157, 0.0, 0.0, 0.0, 0.0, -207.89357517881098, 0.0]
['beep', 0.0, -1191.5938486568748, 0.0, 0.0, 0.0, 0.0, -187.88876389131116, 0.0]
['beep', 0.0, -1190.073930033914, 0.0, 0.0, 0.0, 0.0, -238.247244149118, 0.0]
['beep', 0.0, -1191.1021102788582, 0.0, 0.0, 0.0, 0.0, -245.91389249728832, 0.0]
['beep', 0.0, -1192.3985114572658, 0.0, 0.0, 0.0, 0.0, -244.79630527452295, 0.0]
['beep', 0.0, -1191.9514765681597, 0.0, 0.0, 0.0, 0.0, -223.74096199762369, 0.0]
['beep', 0.0, -1192.2867527349892, 0.0, 0.0, 0.0, 0.0, -189.18516506971898, 0.0]
['beep', 0.0, -1191.7726626125173, 0.0, 0.0, 0.0, 0.0, -232.45814233519346, 0.0]
['beep', 0.0, -1191.5714969124194, 0.0, 0.0, 0.0, 0.0, -243.61166281839166, 0.0]
['beep', 0.0, -1190.8338893453945, 0.0, 0.0, 0.0, 0.0, -239.94597672772133, 0.0]
['beep', 0.0, -1190.208040500646, 0.0, 0.0, 0.0, 0.0, -194.19195582770777, 0.0]
['beep', 0.0, -1190.364502711833, 0.0, 0.0, 0.0, 0.0, -186.45825224617153, 0.0]
['beep', 0.0, -1190.9232963232157, 0.0, 0.0, 0.0, 0.0, -235.1627034142856, 0.0]
['beep', 0.0, -1190.9679998121262, 0.0, 0.0, 0.0, 0.0, -245.22098841917378, 0.0]
['beep', 0.0, -1190.9456480676708, 0.0, 0.0, 0.0, 0.0, -245.6680233082799, 0.0]
['beep', 0.0, -1191.0574067899474, 0.0, 0.0, 0.0, 0.0, -246.4950378531263, 0.0]
['beep', 0.0, -1192.2420492460788, 0.0, 0.0, 0.0, 0.0, -245.91389249728832, 0.0]
['beep', 0.0, -1191.3256277234111, 0.0, 0.0, 0.0, 0.0, -245.44450586372685, 0.0]
['beep', 0.0, -1191.2585724900453, 0.0, 0.0, 0.0, 0.0, -241.55530232850342, 0.0]
['beep', 0.0, -1191.8397178458831, 0.0, 0.0, 0.0, 0.0, -198.7517116965904, 0.0]
['beep', 0.0, -1193.8290231024055, 0.0, 0.0, 0.0, 0.0, -170.07442356043143, 0.0]
['beep', 0.0, -1192.3985114572658, 0.0, 0.0, 0.0, 0.0, -186.01121735706536, 0.0]
['beep', 0.0, -1192.554973668453, 0.0, 0.0, 0.0, 0.0, -235.96736621467667, 0.0]
['beep', 0.0, -1192.487918435087, 0.0, 0.0, 0.0, 0.0, -245.19863667471847, 0.0]
['beep', 0.0, -1192.8678980908273, 0.0, 0.0, 0.0, 0.0, -241.37648837286096, 0.0]
['beep', 0.0, -1191.7056073791514, 0.0, 0.0, 0.0, 0.0, -197.38825528481667, 0.0]
['beep', 0.0, -1191.7950143569726, 0.0, 0.0, 0.0, 0.0, -190.74978718159048, 0.0]
['beep', 0.0, -1191.7056073791514, 0.0, 0.0, 0.0, 0.0, -236.28029063705097, 0.0]
['beep', 0.0, -1191.4150347012323, 0.0, 0.0, 0.0, 0.0, -242.33761338443918, 0.0]
['beep', 0.0, -1190.7668341120284, 0.0, 0.0, 0.0, 0.0, -239.81186626098946, 0.0]
['beep', 0.0, -1191.6162004013302, 0.0, 0.0, 0.0, 0.0, -198.0364558740206, 0.0]
['beep', 0.0, -1191.7279591236068, 0.0, 0.0, 0.0, 0.0, -188.2240400581408, 0.0]
['beep', 0.0, -1191.973828312615, 0.0, 0.0, 0.0, 0.0, -236.95084297071017, 0.0]
['beep', 0.0, -1191.7726626125173, 0.0, 0.0, 0.0, 0.0, -244.43867736323804, 0.0]
['beep', 0.0, -1191.6162004013302, 0.0, 0.0, 0.0, 0.0, -243.56695932948105, 0.0]
['beep', 0.0, -1190.9679998121262, 0.0, 0.0, 0.0, 0.0, -212.25216534759588, 0.0]
['beep', 0.0, -1191.5491451679643, 0.0, 0.0, 0.0, 0.0, -186.6594179462693, 0.0]
['beep', 0.0, -1190.52096492302, 0.0, 0.0, 0.0, 0.0, -234.40274410280517, 0.0]
['beep', 0.0, -1189.9174678227268, 0.0, 0.0, 0.0, 0.0, -244.48338085214866, 0.0]
['beep', 0.0, -1189.8727643338161, 0.0, 0.0, 0.0, 0.0, -242.60583431790286, 0.0]
['beep', 0.0, -1189.4927846780759, 0.0, 0.0, 0.0, 0.0, -199.95870589717697, 0.0]
['beep', 0.0, -1189.939819567182, 0.0, 0.0, 0.0, 0.0, -192.87320290484465, 0.0]
['beep', 0.0, -1190.8115376009391, 0.0, 0.0, 0.0, 0.0, -239.2530726496068, 0.0]
['beep', 0.0, -1191.1244620233133, 0.0, 0.0, 0.0, 0.0, -244.5951395744252, 0.0]
['beep', 0.0, -1190.6774271342072, 0.0, 0.0, 0.0, 0.0, -243.0752209514643, 0.0]
['beep', 0.0, -1190.3868544562883, 0.0, 0.0, 0.0, 0.0, -203.46792977666018, 0.0]
['beep', 0.0, -1191.5714969124194, 0.0, 0.0, 0.0, 0.0, -189.11810983635306, 0.0]
['beep', 0.0, -1191.6162004013302, 0.0, 0.0, 0.0, 0.0, -237.3978778598163, 0.0]
['beep', 0.0, -1191.6162004013302, 0.0, 0.0, 0.0, 0.0, -245.73507854164583, 0.0]
['beep', 0.0, -1192.4432149461766, 0.0, 0.0, 0.0, 0.0, -241.1753226727632, 0.0]
['beep', 0.0, -1192.3985114572658, 0.0, 0.0, 0.0, 0.0, -200.9198309087552, 0.0]
['beep', 0.0, -1192.7337876240954, 0.0, 0.0, 0.0, 0.0, -192.22500231564075, 0.0]
['beep', 0.0, -1193.136119024291, 0.0, 0.0, 0.0, 0.0, -238.02372670456492, 0.0]
['beep', 0.0, -1192.845546346372, 0.0, 0.0, 0.0, 0.0, -244.2822151520509, 0.0]
['beep', 0.0, -1192.0632352904363, 0.0, 0.0, 0.0, 0.0, -241.82352326196713, 0.0]
['beep', 0.0, -1192.8902498352827, 0.0, 0.0, 0.0, 0.0, -196.78475818452338, 0.0]
['beep', 0.0, -1193.1584707687464, 0.0, 0.0, 0.0, 0.0, -190.5262697370374, 0.0]
['beep', 0.0, -1192.487918435087, 0.0, 0.0, 0.0, 0.0, -239.11896218287495, 0.0]
['beep', 0.0, -1192.845546346372, 0.0, 0.0, 0.0, 0.0, -245.6233198193693, 0.0]
['beep', 0.0, -1192.4432149461766, 0.0, 0.0, 0.0, 0.0, -240.66123255029115, 0.0]
['beep', 0.0, -1192.197345757168, 0.0, 0.0, 0.0, 0.0, -195.75657793957924, 0.0]
['beep', 0.0, -1192.174994012713, 0.0, 0.0, 0.0, 0.0, -188.2463918025961, 0.0]
['beep', 0.0, -1192.264400990534, 0.0, 0.0, 0.0, 0.0, -237.7108022821906, 0.0]
['beep', 0.0, -1192.622028901819, 0.0, 0.0, 0.0, 0.0, -245.04217446353132, 0.0]
['beep', 0.0, -1190.9232963232157, 0.0, 0.0, 0.0, 0.0, -244.88571225234418, 0.0]
['beep', 0.0, -1191.5491451679643, 0.0, 0.0, 0.0, 0.0, -243.85753200740007, 0.0]
['beep', 0.0, -1191.8844213347938, 0.0, 0.0, 0.0, 0.0, -243.65636630730228, 0.0]
['beep', 0.0, -1191.169165512224, 0.0, 0.0, 0.0, 0.0, -244.21515991868498, 0.0]
['beep', 0.0, -1191.6162004013302, 0.0, 0.0, 0.0, 0.0, -242.24820640661795, 0.0]
['beep', 0.0, -1192.2196975016234, 0.0, 0.0, 0.0, 0.0, -205.83721468892273, 0.0]
['beep', 0.0, -1193.5160986800313, 0.0, 0.0, 0.0, 0.0, -169.56033343795937, 0.0]
['beep', 0.0, -1192.8902498352827, 0.0, 0.0, 0.0, 0.0, -178.38927249780568, 0.0]
['beep', 0.0, -1193.0690637909252, 0.0, 0.0, 0.0, 0.0, -228.74775275561248, 0.0]
['beep', 0.0, -1192.1302905238022, 0.0, 0.0, 0.0, 0.0, -242.96346222918777, 0.0]
['beep', 0.0, -1189.5374881669866, 0.0, 0.0, 0.0, 0.0, -237.0626016929867, 0.0]
['beep', 0.0, -1190.0962817783693, 0.0, 0.0, 0.0, 0.0, -188.44755750269385, 0.0]
['beep', 0.0, -1190.208040500646, 0.0, 0.0, 0.0, 0.0, -189.72160693664634, 0.0]
['beep', 0.0, -1189.8057091004503, 0.0, 0.0, 0.0, 0.0, -235.74384877012358, 0.0]
['beep', 0.0, -1191.1021102788582, 0.0, 0.0, 0.0, 0.0, -241.1976744172185, 0.0]
['beep', 0.0, -1192.9349533241932, 0.0, 0.0, 0.0, 0.0, -239.2530726496068, 0.0]
['beep', 0.0, -1194.1866510136904, 0.0, 0.0, 0.0, 0.0, -200.85277567538927, 0.0]
['beep', 0.0, -1194.3654649693328, 0.0, 0.0, 0.0, 0.0, -193.3425895384061, 0.0]
['beep', 0.0, -1194.0525405469587, 0.0, 0.0, 0.0, 0.0, -237.7331540266459, 0.0]
['beep', 0.0, -1192.8678980908273, 0.0, 0.0, 0.0, 0.0, -241.42119186177158, 0.0]
['beep', 0.0, -1192.264400990534, 0.0, 0.0, 0.0, 0.0, -234.8497789919113, 0.0]
['beep', 0.0, -1193.3149329799335, 0.0, 0.0, 0.0, 0.0, -189.5874964699145, 0.0]
['beep', 0.0, -1195.393645214277, 0.0, 0.0, 0.0, 0.0, -190.95095288168824, 0.0]
['beep', 0.0, -1195.2818864920005, 0.0, 0.0, 0.0, 0.0, -235.94501447022137, 0.0]
['beep', 0.0, -1194.4995754360648, 0.0, 0.0, 0.0, 0.0, -241.08591569494197, 0.0]
['beep', 0.0, -1196.0194940590256, 0.0, 0.0, 0.0, 0.0, -239.07425869396434, 0.0]
['beep', 0.0, -1195.393645214277, 0.0, 0.0, 0.0, 0.0, -196.06950236195357, 0.0]
['beep', 0.0, -1194.7901481139838, 0.0, 0.0, 0.0, 0.0, -187.44172900220502, 0.0]
['beep', 0.0, -1194.6336859027965, 0.0, 0.0, 0.0, 0.0, -233.2851568800398, 0.0]
['beep', 0.0, -1194.8572033473497, 0.0, 0.0, 0.0, 0.0, -239.52129358307047, 0.0]
['beep', 0.0, -1194.7230928806177, 0.0, 0.0, 0.0, 0.0, -235.85560749240014, 0.0]
['beep', 0.0, -1194.298409735967, 0.0, 0.0, 0.0, 0.0, -192.31440929346198, 0.0]
['beep', 0.0, -1194.4995754360648, 0.0, 0.0, 0.0, 0.0, -187.95581912467708, 0.0]
['beep', 0.0, -1194.3207614804223, 0.0, 0.0, 0.0, 0.0, -234.8497789919113, 0.0]
['beep', 0.0, -1194.6113341583414, 0.0, 0.0, 0.0, 0.0, -240.32595638346154, 0.0]
['beep', 0.0, -1194.6113341583414, 0.0, 0.0, 0.0, 0.0, -239.8342180054448, 0.0]
['beep', 0.0, -1194.5666306694307, 0.0, 0.0, 0.0, 0.0, -208.00533390108754, 0.0]
['beep', 0.0, -1194.745444625073, 0.0, 0.0, 0.0, 0.0, -186.23473480161846, 0.0]
['beep', 0.0, -1194.3878167137882, 0.0, 0.0, 0.0, 0.0, -231.54172081252585, 0.0]
['beep', 0.0, -1193.7172643801289, 0.0, 0.0, 0.0, 0.0, -238.38135461584983, 0.0]
['beep', 0.0, -1193.1808225132015, 0.0, 0.0, 0.0, 0.0, -235.90031098131075, 0.0]
['beep', 0.0, -1193.5608021689418, 0.0, 0.0, 0.0, 0.0, -193.85667966087814, 0.0]
['beep', 0.0, -1192.3761597128105, 0.0, 0.0, 0.0, 0.0, -190.88389764832232, 0.0]
['beep', 0.0, -1191.9514765681597, 0.0, 0.0, 0.0, 0.0, -236.7049737817018, 0.0]
['beep', 0.0, -1191.6385521457855, 0.0, 0.0, 0.0, 0.0, -241.26472965058443, 0.0]
['beep', 0.0, -1191.7950143569726, 0.0, 0.0, 0.0, 0.0, -234.98388945864315, 0.0]
['beep', 0.0, -1192.2867527349892, 0.0, 0.0, 0.0, 0.0, -190.5262697370374, 0.0]
['beep', 0.0, -1193.136119024291, 0.0, 0.0, 0.0, 0.0, -186.90528713527766, 0.0]
['beep', 0.0, -1193.8513748468608, 0.0, 0.0, 0.0, 0.0, -232.5922528019253, 0.0]
['beep', 0.0, -1193.292581235478, 0.0, 0.0, 0.0, 0.0, -239.05190694950903, 0.0]
['beep', 0.0, -1193.4043399577547, 0.0, 0.0, 0.0, 0.0, -237.62139530436937, 0.0]
['beep', 0.0, -1193.9631335691374, 0.0, 0.0, 0.0, 0.0, -199.84694717490044, 0.0]
['beep', 0.0, -1194.1866510136904, 0.0, 0.0, 0.0, 0.0, -188.78283366952346, 0.0]
['beep', 0.0, -1194.946610325171, 0.0, 0.0, 0.0, 0.0, -233.46397083568226, 0.0]
['beep', 0.0, -1194.8572033473497, 0.0, 0.0, 0.0, 0.0, -237.9343197267437, 0.0]
['beep', 0.0, -1193.8290231024055, 0.0, 0.0, 0.0, 0.0, -233.2181016466739, 0.0]
['beep', 0.0, -1194.3878167137882, 0.0, 0.0, 0.0, 0.0, -190.4815662481268, 0.0]
['beep', 0.0, -1194.298409735967, 0.0, 0.0, 0.0, 0.0, -191.88972614881112, 0.0]
['beep', 0.0, -1194.2090027581457, 0.0, 0.0, 0.0, 0.0, -233.93335746924373, 0.0]
['beep', 0.0, -1194.1195957803245, 0.0, 0.0, 0.0, 0.0, -237.6884505377353, 0.0]
['beep', 0.0, -1194.0748922914138, 0.0, 0.0, 0.0, 0.0, -234.08981968043088, 0.0]
['beep', 0.0, -1193.3372847243888, 0.0, 0.0, 0.0, 0.0, -192.98496162712118, 0.0]
['beep', 0.0, -1193.5160986800313, 0.0, 0.0, 0.0, 0.0, -186.63706620181398, 0.0]
['beep', 0.0, -1193.2255260021122, 0.0, 0.0, 0.0, 0.0, -232.54754931301468, 0.0]
['beep', 0.0, -1193.1137672798357, 0.0, 0.0, 0.0, 0.0, -238.47076159367106, 0.0]
['beep', 0.0, -1194.007837058048, 0.0, 0.0, 0.0, 0.0, -232.74871501311245, 0.0]
['beep', 0.0, -1194.812499858439, 0.0, 0.0, 0.0, 0.0, -187.6652464467581, 0.0]
['beep', 0.0, -1194.0748922914138, 0.0, 0.0, 0.0, 0.0, -190.4815662481268, 0.0]
['beep', 0.0, -1194.6336859027965, 0.0, 0.0, 0.0, 0.0, -234.8050755030007, 0.0]
['beep', 0.0, -1194.007837058048, 0.0, 0.0, 0.0, 0.0, -239.16366567178557, 0.0]
['beep', 0.0, -1193.1584707687464, 0.0, 0.0, 0.0, 0.0, -232.36873535737223, 0.0]
['beep', 0.0, -1193.80667135795, 0.0, 0.0, 0.0, 0.0, -186.54765922399275, 0.0]
['beep', 0.0, -1193.940781824682, 0.0, 0.0, 0.0, 0.0, -193.83432791642284, 0.0]
['beep', 0.0, -1193.7619678690396, 0.0, 0.0, 0.0, 0.0, -233.06163943548674, 0.0]
['beep', 0.0, -1194.588982413886, 0.0, 0.0, 0.0, 0.0, -236.6826220372465, 0.0]
['beep', 0.0, -1194.454871947154, 0.0, 0.0, 0.0, 0.0, -231.54172081252585, 0.0]
['beep', 0.0, -1194.9019068362602, 0.0, 0.0, 0.0, 0.0, -185.474775490138, 0.0]
['beep', 0.0, -1194.3878167137882, 0.0, 0.0, 0.0, 0.0, -190.7944906705011, 0.0]
['beep', 0.0, -1195.1477760252687, 0.0, 0.0, 0.0, 0.0, -234.29098538052864, 0.0]
['beep', 0.0, -1194.946610325171, 0.0, 0.0, 0.0, 0.0, -238.13548542684146, 0.0]
['beep', 0.0, -1194.5219271805202, 0.0, 0.0, 0.0, 0.0, -236.77202901506772, 0.0]
['beep', 0.0, -1195.2148312586346, 0.0, 0.0, 0.0, 0.0, -197.29884830699544, 0.0]
['beep', 0.0, -1194.4995754360648, 0.0, 0.0, 0.0, 0.0, -185.27360979004024, 0.0]
['beep', 0.0, -1195.7065696366512, 0.0, 0.0, 0.0, 0.0, -231.87699697935548, 0.0]
['beep', 0.0, -1195.4159969587324, 0.0, 0.0, 0.0, 0.0, -238.2919476380286, 0.0]
['beep', 0.0, -1195.259534747545, 0.0, 0.0, 0.0, 0.0, -235.43092434774928, 0.0]
['beep', 0.0, -1195.4159969587324, 0.0, 0.0, 0.0, 0.0, -191.26387730406253, 0.0]
['beep', 0.0, -1196.0865492923915, 0.0, 0.0, 0.0, 0.0, -191.91207789326643, 0.0]
['beep', 0.0, -1195.259534747545, 0.0, 0.0, 0.0, 0.0, -232.99458420212082, 0.0]
['beep', 0.0, -1195.8630318478386, 0.0, 0.0, 0.0, 0.0, -236.7496772706124, 0.0]
['beep', 0.0, -1196.913563837238, 0.0, 0.0, 0.0, 0.0, -231.47466557915993, 0.0]
['beep', 0.0, -1196.9582673261484, 0.0, 0.0, 0.0, 0.0, -184.75951966756818, 0.0]
['beep', 0.0, -1196.3100667369447, 0.0, 0.0, 0.0, 0.0, -187.55348772448156, 0.0]
['beep', 0.0, -1195.7289213811066, 0.0, 0.0, 0.0, 0.0, -231.9217004682661, 0.0]
['beep', 0.0, -1195.460700447643, 0.0, 0.0, 0.0, 0.0, -236.23558714814035, 0.0]
['beep', 0.0, -1195.3489417253663, 0.0, 0.0, 0.0, 0.0, -230.93822371223257, 0.0]
['beep', 0.0, -1195.7065696366512, 0.0, 0.0, 0.0, 0.0, -186.77117666854582, 0.0]
['beep', 0.0, -1197.1370812817909, 0.0, 0.0, 0.0, 0.0, -186.346493523895, 0.0]
['beep', 0.0, -1198.2770202490117, 0.0, 0.0, 0.0, 0.0, -230.93822371223257, 0.0]
['beep', 0.0, -1197.874688848816, 0.0, 0.0, 0.0, 0.0, -234.5145028250817, 0.0]
['beep', 0.0, -1196.6006394148635, 0.0, 0.0, 0.0, 0.0, -225.3279358539505, 0.0]
['beep', 0.0, -1195.0807207919026, 0.0, 0.0, 0.0, 0.0, -177.29403701949562, 0.0]
['beep', 0.0, -1195.23718300309, 0.0, 0.0, 0.0, 0.0, -189.07340634744244, 0.0]
['beep', 0.0, -1196.5335841814976, 0.0, 0.0, 0.0, 0.0, -230.58059580094766, 0.0]
['beep', 0.0, -1196.8241568594167, 0.0, 0.0, 0.0, 0.0, -234.62626154735824, 0.0]
['beep', 0.0, -1196.3100667369447, 0.0, 0.0, 0.0, 0.0, -231.13938941233033, 0.0]
['beep', 0.0, -1196.3100667369447, 0.0, 0.0, 0.0, 0.0, -185.00538885657656, 0.0]
['beep', 0.0, -1196.1312527813022, 0.0, 0.0, 0.0, 0.0, -192.91790639375526, 0.0]
['beep', 0.0, -1196.1312527813022, 0.0, 0.0, 0.0, 0.0, -233.5980813024141, 0.0]
['beep', 0.0, -1195.2818864920005, 0.0, 0.0, 0.0, 0.0, -236.12382842586382, 0.0]
['beep', 0.0, -1196.0865492923915, 0.0, 0.0, 0.0, 0.0, -234.38039235834987, 0.0]
['beep', 0.0, -1195.8406801033832, 0.0, 0.0, 0.0, 0.0, -194.39312152780553, 0.0]
['beep', 0.0, -1194.298409735967, 0.0, 0.0, 0.0, 0.0, -182.30082777748441, 0.0]
['beep', 0.0, -1194.588982413886, 0.0, 0.0, 0.0, 0.0, -228.8371597334337, 0.0]
['beep', 0.0, -1194.0525405469587, 0.0, 0.0, 0.0, 0.0, -236.86143599288894, 0.0]
['beep', 0.0, -1194.3654649693328, 0.0, 0.0, 0.0, 0.0, -232.05581093499794, 0.0]
['beep', 0.0, -1194.7230928806177, 0.0, 0.0, 0.0, 0.0, -184.35718826737266, 0.0]
['beep', 0.0, -1193.6725608912184, 0.0, 0.0, 0.0, 0.0, -185.765348168057, 0.0]
['beep', 0.0, -1194.007837058048, 0.0, 0.0, 0.0, 0.0, -233.48632258013757, 0.0]
['beep', 0.0, -1195.0807207919026, 0.0, 0.0, 0.0, 0.0, -236.6826220372465, 0.0]
['beep', 0.0, -1195.1701277697239, 0.0, 0.0, 0.0, 0.0, -233.73219176914594, 0.0]
['beep', 0.0, -1195.1477760252687, 0.0, 0.0, 0.0, 0.0, -192.0908918489089, 0.0]
['beep', 0.0, -1195.0136655585368, 0.0, 0.0, 0.0, 0.0, -185.0947958343978, 0.0]
['beep', 0.0, -1195.1701277697239, 0.0, 0.0, 0.0, 0.0, -230.6700027787689, 0.0]
['beep', 0.0, -1195.2148312586346, 0.0, 0.0, 0.0, 0.0, -236.3920493593275, 0.0]
['beep', 0.0, -1194.6336859027965, 0.0, 0.0, 0.0, 0.0, -230.31237486748398, 0.0]
['beep', 0.0, -1195.684217892196, 0.0, 0.0, 0.0, 0.0, -183.44076674470506, 0.0]
['beep', 0.0, -1197.8523371043607, 0.0, 0.0, 0.0, 0.0, -187.0617493464648, 0.0]
['beep', 0.0, -1196.9582673261484, 0.0, 0.0, 0.0, 0.0, -233.35221211340573, 0.0]
['beep', 0.0, -1195.9300870812044, 0.0, 0.0, 0.0, 0.0, -238.18018891575207, 0.0]
['beep', 0.0, -1195.7289213811066, 0.0, 0.0, 0.0, 0.0, -234.1792266582521, 0.0]
['beep', 0.0, -1195.9524388256598, 0.0, 0.0, 0.0, 0.0, -192.6943889492022, 0.0]
['beep', 0.0, -1195.8853835922937, 0.0, 0.0, 0.0, 0.0, -187.28526679101788, 0.0]
['beep', 0.0, -1195.7736248700173, 0.0, 0.0, 0.0, 0.0, -231.29585162351748, 0.0]
['beep', 0.0, -1195.5054039365536, 0.0, 0.0, 0.0, 0.0, -235.85560749240014, 0.0]
['beep', 0.0, -1196.8912120927826, 0.0, 0.0, 0.0, 0.0, -230.46883707867113, 0.0]
['beep', 0.0, -1195.684217892196, 0.0, 0.0, 0.0, 0.0, -184.71481617865757, 0.0]
['beep', 0.0, -1194.8572033473497, 0.0, 0.0, 0.0, 0.0, -185.87710689033352, 0.0]
['beep', 0.0, -1196.2430115035786, 0.0, 0.0, 0.0, 0.0, -229.75358125610128, 0.0]
['beep', 0.0, -1195.61716265883, 0.0, 0.0, 0.0, 0.0, -233.2181016466739, 0.0]
['beep', 0.0, -1194.946610325171, 0.0, 0.0, 0.0, 0.0, -223.4280375752494, 0.0]
['beep', 0.0, -1195.8183283589278, 0.0, 0.0, 0.0, 0.0, -173.71775790664648, 0.0]
['beep', 0.0, -1195.7289213811066, 0.0, 0.0, 0.0, 0.0, -188.51461273605977, 0.0]
['beep', 0.0, -1195.4383487031876, 0.0, 0.0, 0.0, 0.0, -228.59129054442533, 0.0]
['beep', 0.0, -1195.5277556810088, 0.0, 0.0, 0.0, 0.0, -231.09468592341972, 0.0]
['beep', 0.0, -1194.9019068362602, 0.0, 0.0, 0.0, 0.0, -227.76427599957896, 0.0]
['beep', 0.0, -1195.5054039365536, 0.0, 0.0, 0.0, 0.0, -183.70898767816874, 0.0]
['beep', 0.0, -1195.3042382364558, 0.0, 0.0, 0.0, 0.0, -187.24056330210726, 0.0]
['beep', 0.0, -1195.259534747545, 0.0, 0.0, 0.0, 0.0, -228.65834577779125, 0.0]
['beep', 0.0, -1194.7901481139838, 0.0, 0.0, 0.0, 0.0, -231.7428865126236, 0.0]
['beep', 0.0, -1194.1866510136904, 0.0, 0.0, 0.0, 0.0, -226.69139226572423, 0.0]
['beep', 0.0, -1194.6783893917072, 0.0, 0.0, 0.0, 0.0, -178.41162424226098, 0.0]
['beep', 0.0, -1194.9019068362602, 0.0, 0.0, 0.0, 0.0, -184.62540920083634, 0.0]
['beep', 0.0, -1196.041845803481, 0.0, 0.0, 0.0, 0.0, -229.59711904491414, 0.0]
['beep', 0.0, -1195.61716265883, 0.0, 0.0, 0.0, 0.0, -232.70401152420183, 0.0]
['beep', 0.0, -1195.61716265883, 0.0, 0.0, 0.0, 0.0, -230.91587196777726, 0.0]
['beep', 0.0, -1195.2818864920005, 0.0, 0.0, 0.0, 0.0, -187.62054295784748, 0.0]
['beep', 0.0, -1195.907735336749, 0.0, 0.0, 0.0, 0.0, -182.0326068440207, 0.0]
['beep', 0.0, -1197.9864475710926, 0.0, 0.0, 0.0, 0.0, -229.30654636699515, 0.0]
['beep', 0.0, -1194.745444625073, 0.0, 0.0, 0.0, 0.0, -234.1568749137968, 0.0]
['beep', 0.0, -1190.52096492302, 0.0, 0.0, 0.0, 0.0, -231.87699697935548, 0.0]
['beep', 0.0, -1193.0690637909252, 0.0, 0.0, 0.0, 0.0, -191.24152555960723, 0.0]
['beep', 0.0, -1193.6725608912184, 0.0, 0.0, 0.0, 0.0, -180.75855741006822, 0.0]
['beep', 0.0, -1194.1866510136904, 0.0, 0.0, 0.0, 0.0, -226.64668877681362, 0.0]
['beep', 0.0, -1193.940781824682, 0.0, 0.0, 0.0, 0.0, -233.64278479132471, 0.0]
['beep', 0.0, -1193.5160986800313, 0.0, 0.0, 0.0, 0.0, -227.5631102994812, 0.0]
['beep', 0.0, -1193.1808225132015, 0.0, 0.0, 0.0, 0.0, -182.2784760330291, 0.0]
['beep', 0.0, -1193.136119024291, 0.0, 0.0, 0.0, 0.0, -188.0005226135877, 0.0]
['beep', 0.0, -1193.1137672798357, 0.0, 0.0, 0.0, 0.0, -230.31237486748398, 0.0]
['beep', 0.0, -1193.5608021689418, 0.0, 0.0, 0.0, 0.0, -233.66513653578002, 0.0]
['beep', 0.0, -1194.3878167137882, 0.0, 0.0, 0.0, 0.0, -231.7428865126236, 0.0]
['beep', 0.0, -1193.784319613495, 0.0, 0.0, 0.0, 0.0, -189.2745720475402, 0.0]
['beep', 0.0, -1192.554973668453, 0.0, 0.0, 0.0, 0.0, -183.08313883342015, 0.0]
['beep', 0.0, -1192.1526422682575, 0.0, 0.0, 0.0, 0.0, -228.4571800776935, 0.0]
['beep', 0.0, -1193.2702294910227, 0.0, 0.0, 0.0, 0.0, -233.82159874696717, 0.0]
['beep', 0.0, -1191.9291248237043, 0.0, 0.0, 0.0, 0.0, -228.56893879997003, 0.0]
['beep', 0.0, -1192.0185318015256, 0.0, 0.0, 0.0, 0.0, -184.71481617865757, 0.0]
['beep', 0.0, -1192.554973668453, 0.0, 0.0, 0.0, 0.0, -185.36301676786147, 0.0]
['beep', 0.0, -1192.040883545981, 0.0, 0.0, 0.0, 0.0, -227.78662774403426, 0.0]
['beep', 0.0, -1192.5102701795424, 0.0, 0.0, 0.0, 0.0, -231.16174115678564, 0.0]
['beep', 0.0, -1192.040883545981, 0.0, 0.0, 0.0, 0.0, -228.59129054442533, 0.0]
['beep', 0.0, -1192.5996771573637, 0.0, 0.0, 0.0, 0.0, -184.87127838984472, 0.0]
['beep', 0.0, -1192.4432149461766, 0.0, 0.0, 0.0, 0.0, -182.09966207738663, 0.0]
['beep', 0.0, -1192.487918435087, 0.0, 0.0, 0.0, 0.0, -226.35611609889463, 0.0]
['beep', 0.0, -1193.6055056578525, 0.0, 0.0, 0.0, 0.0, -229.70887776719067, 0.0]
['beep', 0.0, -1193.4490434466652, 0.0, 0.0, 0.0, 0.0, -225.46204632068233, 0.0]
['beep', 0.0, -1194.1195957803245, 0.0, 0.0, 0.0, 0.0, -179.35039750938387, 0.0]
['beep', 0.0, -1194.007837058048, 0.0, 0.0, 0.0, 0.0, -185.765348168057, 0.0]
['beep', 0.0, -1193.5608021689418, 0.0, 0.0, 0.0, 0.0, -228.32306961096165, 0.0]
['beep', 0.0, -1192.4655666906317, 0.0, 0.0, 0.0, 0.0, -231.22879639015156, 0.0]
['beep', 0.0, -1192.040883545981, 0.0, 0.0, 0.0, 0.0, -226.82550273245607, 0.0]
['beep', 0.0, -1191.5938486568748, 0.0, 0.0, 0.0, 0.0, -180.7362056656129, 0.0]
['beep', 0.0, -1191.8844213347938, 0.0, 0.0, 0.0, 0.0, -190.88389764832232, 0.0]
['beep', 0.0, -1192.2867527349892, 0.0, 0.0, 0.0, 0.0, -229.91004346728846, 0.0]
['beep', 0.0, -1190.8115376009391, 0.0, 0.0, 0.0, 0.0, -231.63112779034708, 0.0]
['beep', 0.0, -1191.3479794678665, 0.0, 0.0, 0.0, 0.0, -225.08206666494212, 0.0]
['beep', 0.0, -1192.3761597128105, 0.0, 0.0, 0.0, 0.0, -178.56808645344813, 0.0]
['beep', 0.0, -1192.4208632017212, 0.0, 0.0, 0.0, 0.0, -187.53113598002625, 0.0]
['beep', 0.0, -1192.5773254129083, 0.0, 0.0, 0.0, 0.0, -228.85951147788901, 0.0]
['beep', 0.0, -1191.6162004013302, 0.0, 0.0, 0.0, 0.0, -230.3794301008499, 0.0]
['beep', 0.0, -1191.6385521457855, 0.0, 0.0, 0.0, 0.0, -225.84202597642255, 0.0]
['beep', 0.0, -1193.2255260021122, 0.0, 0.0, 0.0, 0.0, -183.8654498893559, 0.0]
['beep', 0.0, -1192.622028901819, 0.0, 0.0, 0.0, 0.0, -183.217249300152, 0.0]
['beep', 0.0, -1191.9961800570704, 0.0, 0.0, 0.0, 0.0, -225.77497074305663, 0.0]
['beep', 0.0, -1191.2138690011345, 0.0, 0.0, 0.0, 0.0, -228.88186322234432, 0.0]
['beep', 0.0, -1190.364502711833, 0.0, 0.0, 0.0, 0.0, -224.12094165336393, 0.0]
['beep', 0.0, -1189.1575085112463, 0.0, 0.0, 0.0, 0.0, -177.07051957494255, 0.0]
['beep', 0.0, -1191.8397178458831, 0.0, 0.0, 0.0, 0.0, -178.8363073869118, 0.0]
['beep', 0.0, -1195.393645214277, 0.0, 0.0, 0.0, 0.0, -223.87507246435553, 0.0]
['beep', 0.0, -1194.745444625073, 0.0, 0.0, 0.0, 0.0, -228.34542135541696, 0.0]
['beep', 0.0, -1193.3372847243888, 0.0, 0.0, 0.0, 0.0, -220.96934568516562, 0.0]
['beep', 0.0, -1193.2702294910227, 0.0, 0.0, 0.0, 0.0, -171.48258346111578, 0.0]
['beep', 0.0, -1193.1808225132015, 0.0, 0.0, 0.0, 0.0, -186.57001096844806, 0.0]
['beep', 0.0, -1192.174994012713, 0.0, 0.0, 0.0, 0.0, -226.02083993206503, 0.0]
['beep', 0.0, -1192.040883545981, 0.0, 0.0, 0.0, 0.0, -227.80897948848957, 0.0]
['beep', 0.0, -1189.8727643338161, 0.0, 0.0, 0.0, 0.0, -223.22687187515163, 0.0]
['beep', 0.0, -1189.2469154890675, 0.0, 0.0, 0.0, 0.0, -178.34456900889506, 0.0]
['beep', 0.0, -1189.0457497889697, 0.0, 0.0, 0.0, 0.0, -183.44076674470506, 0.0]
['beep', 0.0, -1190.6327236452967, 0.0, 0.0, 0.0, 0.0, -223.4503893197047, 0.0]
['beep', 0.0, -1192.8678980908273, 0.0, 0.0, 0.0, 0.0, -226.78079924354546, 0.0]
['beep', 0.0, -1193.8513748468608, 0.0, 0.0, 0.0, 0.0, -221.9081189522885, 0.0]
['beep', 0.0, -1193.7396161245842, 0.0, 0.0, 0.0, 0.0, -177.69636841969114, 0.0]
['beep', 0.0, -1194.7230928806177, 0.0, 0.0, 0.0, 0.0, -186.83823190191174, 0.0]
['beep', 0.0, -1195.0807207919026, 0.0, 0.0, 0.0, 0.0, -225.50674980959295, 0.0]
['beep', 0.0, -1193.784319613495, 0.0, 0.0, 0.0, 0.0, -226.98196494364322, 0.0]
['beep', 0.0, -1193.0690637909252, 0.0, 0.0, 0.0, 0.0, -222.1539881412969, 0.0]
['beep', 0.0, -1193.6725608912184, 0.0, 0.0, 0.0, 0.0, -177.29403701949562, 0.0]
['beep', 0.0, -1194.4995754360648, 0.0, 0.0, 0.0, 0.0, -188.0005226135877, 0.0]
['beep', 0.0, -1194.454871947154, 0.0, 0.0, 0.0, 0.0, -226.9372614547326, 0.0]
['beep', 0.0, -1194.7901481139838, 0.0, 0.0, 0.0, 0.0, -229.1724359002633, 0.0]
['beep', 0.0, -1193.6949126356737, 0.0, 0.0, 0.0, 0.0, -223.47274106416, 0.0]
['beep', 0.0, -1193.5608021689418, 0.0, 0.0, 0.0, 0.0, -177.45049923068277, 0.0]
['beep', 0.0, -1193.784319613495, 0.0, 0.0, 0.0, 0.0, -178.8363073869118, 0.0]
['beep', 0.0, -1192.778491113006, 0.0, 0.0, 0.0, 0.0, -223.94212769772147, 0.0]
['beep', 0.0, -1191.7950143569726, 0.0, 0.0, 0.0, 0.0, -228.4795318221488, 0.0]
['beep', 0.0, -1193.1137672798357, 0.0, 0.0, 0.0, 0.0, -227.47370332165997, 0.0]
['beep', 0.0, -1193.3372847243888, 0.0, 0.0, 0.0, 0.0, -187.732301680124, 0.0]
['beep', 0.0, -1193.0914155353803, 0.0, 0.0, 0.0, 0.0, -182.30082777748441, 0.0]
['beep', 0.0, -1193.80667135795, 0.0, 0.0, 0.0, 0.0, -225.28323236503988, 0.0]
['beep', 0.0, -1193.8737265913162, 0.0, 0.0, 0.0, 0.0, -229.8429882339225, 0.0]
['beep', 0.0, -1193.136119024291, 0.0, 0.0, 0.0, 0.0, -224.79149398702313, 0.0]
['beep', 0.0, -1192.778491113006, 0.0, 0.0, 0.0, 0.0, -178.09869981988666, 0.0]
['beep', 0.0, -1192.9349533241932, 0.0, 0.0, 0.0, 0.0, -181.87614463283356, 0.0]
['beep', 0.0, -1193.359636468844, 0.0, 0.0, 0.0, 0.0, -227.51840681057058, 0.0]
['beep', 0.0, -1192.5102701795424, 0.0, 0.0, 0.0, 0.0, -231.47466557915993, 0.0]
['beep', 0.0, -1192.9573050686486, 0.0, 0.0, 0.0, 0.0, -224.12094165336393, 0.0]
['beep', 0.0, -1193.136119024291, 0.0, 0.0, 0.0, 0.0, -176.82465038593418, 0.0]
['beep', 0.0, -1192.845546346372, 0.0, 0.0, 0.0, 0.0, -186.30179003498438, 0.0]
['beep', 0.0, -1192.040883545981, 0.0, 0.0, 0.0, 0.0, -227.2725376215622, 0.0]
['beep', 0.0, -1192.2196975016234, 0.0, 0.0, 0.0, 0.0, -229.7759330005566, 0.0]
['beep', 0.0, -1192.4655666906317, 0.0, 0.0, 0.0, 0.0, -225.81967423196724, 0.0]
['beep', 0.0, -1191.9291248237043, 0.0, 0.0, 0.0, 0.0, -181.0044265990766, 0.0]
['beep', 0.0, -1192.979656813104, 0.0, 0.0, 0.0, 0.0, -181.13853706580844, 0.0]
['beep', 0.0, -1194.432520202699, 0.0, 0.0, 0.0, 0.0, -225.19382538721865, 0.0]
['beep', 0.0, -1192.9126015797378, 0.0, 0.0, 0.0, 0.0, -229.68652602273536, 0.0]
['beep', 0.0, -1191.9514765681597, 0.0, 0.0, 0.0, 0.0, -224.74679049811252, 0.0]
['beep', 0.0, -1192.174994012713, 0.0, 0.0, 0.0, 0.0, -180.13270856531963, 0.0]
['beep', 0.0, -1193.0690637909252, 0.0, 0.0, 0.0, 0.0, -186.7488249240905, 0.0]
['beep', 0.0, -1192.4432149461766, 0.0, 0.0, 0.0, 0.0, -226.73609575463485, 0.0]
['beep', 0.0, -1191.683255634696, 0.0, 0.0, 0.0, 0.0, -229.23949113362923, 0.0]
['beep', 0.0, -1191.3256277234111, 0.0, 0.0, 0.0, 0.0, -225.17147364276335, 0.0]
['beep', 0.0, -1192.487918435087, 0.0, 0.0, 0.0, 0.0, -180.87031613234475, 0.0]
['beep', 0.0, -1192.9573050686486, 0.0, 0.0, 0.0, 0.0, -187.0617493464648, 0.0]
['beep', 0.0, -1191.0574067899474, 0.0, 0.0, 0.0, 0.0, -228.05484867749797, 0.0]
['beep', 0.0, -1191.012703301037, 0.0, 0.0, 0.0, 0.0, -228.8148079889784, 0.0]
['beep', 0.0, -1192.3761597128105, 0.0, 0.0, 0.0, 0.0, -222.1092846523863, 0.0]
['beep', 0.0, -1192.0632352904363, 0.0, 0.0, 0.0, 0.0, -176.84700213038948, 0.0]
['beep', 0.0, -1191.7950143569726, 0.0, 0.0, 0.0, 0.0, -187.93346738022177, 0.0]
['beep', 0.0, -1192.778491113006, 0.0, 0.0, 0.0, 0.0, -226.5796335434477, 0.0]
['beep', 0.0, -1193.0914155353803, 0.0, 0.0, 0.0, 0.0, -229.53006381154822, 0.0]
['beep', 0.0, -1192.4432149461766, 0.0, 0.0, 0.0, 0.0, -226.892557965822, 0.0]
['beep', 0.0, -1192.0632352904363, 0.0, 0.0, 0.0, 0.0, -186.346493523895, 0.0]
['beep', 0.0, -1192.1302905238022, 0.0, 0.0, 0.0, 0.0, -185.22890630112963, 0.0]
['beep', 0.0, -1191.4820899345982, 0.0, 0.0, 0.0, 0.0, -225.10441840939743, 0.0]
['beep', 0.0, -1190.2527439895564, 0.0, 0.0, 0.0, 0.0, -228.70304926670187, 0.0]
['beep', 0.0, -1189.8951160782715, 0.0, 0.0, 0.0, 0.0, -222.37750558584997, 0.0]
['beep', 0.0, -1190.230392245101, 0.0, 0.0, 0.0, 0.0, -172.7566328950683, 0.0]
['beep', 0.0, -1190.3197992229223, 0.0, 0.0, 0.0, 0.0, -180.3338742654174, 0.0]
['beep', 0.0, -1191.169165512224, 0.0, 0.0, 0.0, 0.0, -224.0091829310874, 0.0]
['beep', 0.0, -1191.0574067899474, 0.0, 0.0, 0.0, 0.0, -228.34542135541696, 0.0]
['beep', 0.0, -1192.5102701795424, 0.0, 0.0, 0.0, 0.0, -224.25505212009577, 0.0]
['beep', 0.0, -1192.622028901819, 0.0, 0.0, 0.0, 0.0, -179.95389460967715, 0.0]
['beep', 0.0, -1193.1137672798357, 0.0, 0.0, 0.0, 0.0, -181.47381323263804, 0.0]
['beep', 0.0, -1192.0632352904363, 0.0, 0.0, 0.0, 0.0, -223.07040966396448, 0.0]
['beep', 0.0, -1192.9573050686486, 0.0, 0.0, 0.0, 0.0, -226.33376435443932, 0.0]
['beep', 0.0, -1193.2478777465676, 0.0, 0.0, 0.0, 0.0, -224.50092130910414, 0.0]
['beep', 0.0, -1192.622028901819, 0.0, 0.0, 0.0, 0.0, -185.94416212369944, 0.0]
['beep', 0.0, -1193.0914155353803, 0.0, 0.0, 0.0, 0.0, -182.0326068440207, 0.0]
['beep', 0.0, -1192.6443806462742, 0.0, 0.0, 0.0, 0.0, -225.9314329542438, 0.0]
['beep', 0.0, -1193.4713951911206, 0.0, 0.0, 0.0, 0.0, -230.0665056784756, 0.0]
['beep', 0.0, -1192.1302905238022, 0.0, 0.0, 0.0, 0.0, -224.23270037564046, 0.0]
['beep', 0.0, -1191.6162004013302, 0.0, 0.0, 0.0, 0.0, -177.45049923068277, 0.0]
['beep', 0.0, -1190.4315579451988, 0.0, 0.0, 0.0, 0.0, -186.05592084597598, 0.0]
['beep', 0.0, -1189.42572944471, 0.0, 0.0, 0.0, 0.0, -225.3502875984058, 0.0]
['beep', 0.0, -1189.6492468892632, 0.0, 0.0, 0.0, 0.0, -228.07720042195328, 0.0]
['beep', 0.0, -1189.6045434003524, 0.0, 0.0, 0.0, 0.0, -222.84689221941142, 0.0]
['beep', 0.0, -1189.9845230560927, 0.0, 0.0, 0.0, 0.0, -176.37761549682804, 0.0]
['beep', 0.0, -1190.722130623118, 0.0, 0.0, 0.0, 0.0, -184.04426384499834, 0.0]
['beep', 0.0, -1192.0185318015256, 0.0, 0.0, 0.0, 0.0, -224.79149398702313, 0.0]
['beep', 0.0, -1191.6162004013302, 0.0, 0.0, 0.0, 0.0, -229.23949113362923, 0.0]
['beep', 0.0, -1189.8727643338161, 0.0, 0.0, 0.0, 0.0, -225.55145329850356, 0.0]
['beep', 0.0, -1190.655075389752, 0.0, 0.0, 0.0, 0.0, -183.03843534450954, 0.0]
['beep', 0.0, -1191.1021102788582, 0.0, 0.0, 0.0, 0.0, -180.28917077650678, 0.0]
['beep', 0.0, -1190.3197992229223, 0.0, 0.0, 0.0, 0.0, -223.22687187515163, 0.0]
['beep', 0.0, -1190.3868544562883, 0.0, 0.0, 0.0, 0.0, -228.4348283332382, 0.0]
['beep', 0.0, -1190.1409852672798, 0.0, 0.0, 0.0, 0.0, -223.53979629752592, 0.0]
['beep', 0.0, -1189.6492468892632, 0.0, 0.0, 0.0, 0.0, -179.52921146502632, 0.0]
['beep', 0.0, -1189.9845230560927, 0.0, 0.0, 0.0, 0.0, -180.51268822105985, 0.0]
['beep', 0.0, -1190.3868544562883, 0.0, 0.0, 0.0, 0.0, -224.50092130910414, 0.0]
['beep', 0.0, -1188.8222323444168, 0.0, 0.0, 0.0, 0.0, -228.5242353110594, 0.0]
['beep', 0.0, -1189.202212000157, 0.0, 0.0, 0.0, 0.0, -223.9868311866321, 0.0]
['beep', 0.0, -1187.5481829104642, 0.0, 0.0, 0.0, 0.0, -179.23863878710733, 0.0]
['beep', 0.0, -1188.397549199766, 0.0, 0.0, 0.0, 0.0, -180.3562260098727, 0.0]
['beep', 0.0, -1190.0515782894586, 0.0, 0.0, 0.0, 0.0, -224.7020870092019, 0.0]
['beep', 0.0, -1190.878592834305, 0.0, 0.0, 0.0, 0.0, -228.92656671125494, 0.0]
['beep', 0.0, -1190.0292265450032, 0.0, 0.0, 0.0, 0.0, -223.02570617505387, 0.0]
['beep', 0.0, -1189.4704329336207, 0.0, 0.0, 0.0, 0.0, -179.8197841429453, 0.0]
['beep', 0.0, -1191.7279591236068, 0.0, 0.0, 0.0, 0.0, -187.3746737688391, 0.0]
['beep', 0.0, -1191.0797585344028, 0.0, 0.0, 0.0, 0.0, -226.2220056321628, 0.0]
['beep', 0.0, -1190.364502711833, 0.0, 0.0, 0.0, 0.0, -228.59129054442533, 0.0]
['beep', 0.0, -1189.7386538670844, 0.0, 0.0, 0.0, 0.0, -221.93047069674384, 0.0]
['beep', 0.0, -1190.208040500646, 0.0, 0.0, 0.0, 0.0, -173.02485382853197, 0.0]
['beep', 0.0, -1191.5044416790536, 0.0, 0.0, 0.0, 0.0, -191.26387730406253, 0.0]
['beep', 0.0, -1189.6045434003524, 0.0, 0.0, 0.0, 0.0, -227.8760347218555, 0.0]
['beep', 0.0, -1189.939819567182, 0.0, 0.0, 0.0, 0.0, -228.56893879997003, 0.0]
['beep', 0.0, -1189.9845230560927, 0.0, 0.0, 0.0, 0.0, -221.75165674110136, 0.0]
['beep', 0.0, -1189.4927846780759, 0.0, 0.0, 0.0, 0.0, -176.0199875855431, 0.0]
['beep', 0.0, -1190.2527439895564, 0.0, 0.0, 0.0, 0.0, -179.66332193175816, 0.0]
['beep', 0.0, -1190.4315579451988, 0.0, 0.0, 0.0, 0.0, -222.8245404749561, 0.0]
['beep', 0.0, -1189.8057091004503, 0.0, 0.0, 0.0, 0.0, -226.2443573766181, 0.0]
['beep', 0.0, -1189.9621713116373, 0.0, 0.0, 0.0, 0.0, -219.6505927623025, 0.0]
['beep', 0.0, -1189.135156766791, 0.0, 0.0, 0.0, 0.0, -172.4213567282387, 0.0]
['beep', 0.0, -1189.8727643338161, 0.0, 0.0, 0.0, 0.0, -186.7041214351799, 0.0]
['beep', 0.0, -1190.8562410898496, 0.0, 0.0, 0.0, 0.0, -222.64572651931365, 0.0]
['beep', 0.0, -1189.068101533425, 0.0, 0.0, 0.0, 0.0, -224.54562479801476, 0.0]
['beep', 0.0, -1189.4033777002546, 0.0, 0.0, 0.0, 0.0, -215.33670608242824, 0.0]
['beep', 0.0, -1190.0515782894586, 0.0, 0.0, 0.0, 0.0, -167.81689737044542, 0.0]
['beep', 0.0, -1190.7891858564838, 0.0, 0.0, 0.0, 0.0, -183.41841500024975, 0.0]
['beep', 0.0, -1191.6609038902407, 0.0, 0.0, 0.0, 0.0, -220.76817998506786, 0.0]
['beep', 0.0, -1189.8951160782715, 0.0, 0.0, 0.0, 0.0, -223.87507246435553, 0.0]
['beep', 0.0, -1190.722130623118, 0.0, 0.0, 0.0, 0.0, -220.18703462922988, 0.0]
['beep', 0.0, -1191.7056073791514, 0.0, 0.0, 0.0, 0.0, -181.9879033551101, 0.0]
['beep', 0.0, -1191.392682956777, 0.0, 0.0, 0.0, 0.0, -186.43590050171622, 0.0]
['beep', 0.0, -1190.7444823675733, 0.0, 0.0, 0.0, 0.0, -221.79636023001197, 0.0]
['beep', 0.0, -1190.4986131785647, 0.0, 0.0, 0.0, 0.0, -223.94212769772147, 0.0]
['beep', 0.0, -1191.3256277234111, 0.0, 0.0, 0.0, 0.0, -213.50386303709305, 0.0]
['beep', 0.0, -1191.1915172566794, 0.0, 0.0, 0.0, 0.0, -165.31350199145103, 0.0]
['beep', 0.0, -1190.9903515565816, 0.0, 0.0, 0.0, 0.0, -185.65358944578045, 0.0]
['beep', 0.0, -1190.5433166674754, 0.0, 0.0, 0.0, 0.0, -221.5504910410036, 0.0]
['beep', 0.0, -1190.6103719008413, 0.0, 0.0, 0.0, 0.0, -223.67390676425777, 0.0]
['beep', 0.0, -1189.068101533425, 0.0, 0.0, 0.0, 0.0, -218.93533693973268, 0.0]
['beep', 0.0, -1189.269267233523, 0.0, 0.0, 0.0, 0.0, -173.82951662892302, 0.0]
['beep', 0.0, -1190.588020156386, 0.0, 0.0, 0.0, 0.0, -175.9976358410878, 0.0]
['beep', 0.0, -1190.2750957340118, 0.0, 0.0, 0.0, 0.0, -220.05292416249804, 0.0]
['beep', 0.0, -1189.42572944471, 0.0, 0.0, 0.0, 0.0, -225.77497074305663, 0.0]
['beep', 0.0, -1189.0233980445146, 0.0, 0.0, 0.0, 0.0, -219.0470956620092, 0.0]
['beep', 0.0, -1188.8669358333273, 0.0, 0.0, 0.0, 0.0, -170.34264449389514, 0.0]
['beep', 0.0, -1188.777528855506, 0.0, 0.0, 0.0, 0.0, -186.63706620181398, 0.0]
['beep', 0.0, -1188.621066644319, 0.0, 0.0, 0.0, 0.0, -223.56214804198123, 0.0]
['beep', 0.0, -1188.5316596664977, 0.0, 0.0, 0.0, 0.0, -224.94795619821028, 0.0]
['beep', 0.0, -1188.5763631554084, 0.0, 0.0, 0.0, 0.0, -215.29200259351762, 0.0]
['beep', 0.0, -1188.911639322238, 0.0, 0.0, 0.0, 0.0, -168.84507761538956, 0.0]
['beep', 0.0, -1188.4422526886765, 0.0, 0.0, 0.0, 0.0, -191.97913312663235, 0.0]
['beep', 0.0, -1188.6434183887743, 0.0, 0.0, 0.0, 0.0, -224.23270037564046, 0.0]
['beep', 0.0, -1188.1516800107574, 0.0, 0.0, 0.0, 0.0, -224.09858990890862, 0.0]
['beep', 0.0, -1188.7104736221402, 0.0, 0.0, 0.0, 0.0, -216.94603168321035, 0.0]
['beep', 0.0, -1188.6434183887743, 0.0, 0.0, 0.0, 0.0, -167.92865609272195, 0.0]
['beep', 0.0, -1189.939819567182, 0.0, 0.0, 0.0, 0.0, -181.0267783435319, 0.0]
['beep', 0.0, -1188.7998805999614, 0.0, 0.0, 0.0, 0.0, -221.63989801882482, 0.0]
['beep', 0.0, -1187.3470172103664, 0.0, 0.0, 0.0, 0.0, -223.89742420881083, 0.0]
['beep', 0.0, -1187.4140724437325, 0.0, 0.0, 0.0, 0.0, -216.96838342766566, 0.0]
['beep', 0.0, -1187.6375898882854, 0.0, 0.0, 0.0, 0.0, -169.0015398265767, 0.0]
['beep', 0.0, -1188.1963834996682, 0.0, 0.0, 0.0, 0.0, -184.22307780064082, 0.0]
['beep', 0.0, -1188.3081422219448, 0.0, 0.0, 0.0, 0.0, -222.1763398857522, 0.0]
['beep', 0.0, -1188.0175695440257, 0.0, 0.0, 0.0, 0.0, -224.50092130910414, 0.0]
['beep', 0.0, -1187.749348610562, 0.0, 0.0, 0.0, 0.0, -220.2764416070511, 0.0]
['beep', 0.0, -1188.0846247773916, 0.0, 0.0, 0.0, 0.0, -176.5564294524705, 0.0]
['beep', 0.0, -1190.0962817783693, 0.0, 0.0, 0.0, 0.0, -186.6594179462693, 0.0]
['beep', 0.0, -1189.6715986337183, 0.0, 0.0, 0.0, 0.0, -221.63989801882482, 0.0]
['beep', 0.0, -1189.0904532778804, 0.0, 0.0, 0.0, 0.0, -222.7798369860455, 0.0]
['beep', 0.0, -1188.0622730329362, 0.0, 0.0, 0.0, 0.0, -216.25312760509584, 0.0]
['beep', 0.0, -1188.8669358333273, 0.0, 0.0, 0.0, 0.0, -167.21340027015214, 0.0]
['beep', 0.0, -1188.7104736221402, 0.0, 0.0, 0.0, 0.0, -182.2561242885738, 0.0]
['beep', 0.0, -1188.3081422219448, 0.0, 0.0, 0.0, 0.0, -221.08110440744215, 0.0]
['beep', 0.0, -1187.9058108217491, 0.0, 0.0, 0.0, 0.0, -222.51161605258181, 0.0]
['beep', 0.0, -1187.9952177995704, 0.0, 0.0, 0.0, 0.0, -216.1637206272746, 0.0]
['beep', 0.0, -1188.1963834996682, 0.0, 0.0, 0.0, 0.0, -168.50980144855995, 0.0]
['beep', 0.0, -1187.6599416327408, 0.0, 0.0, 0.0, 0.0, -184.33483652291736, 0.0]
['beep', 0.0, -1187.9952177995704, 0.0, 0.0, 0.0, 0.0, -221.41638057427176, 0.0]
['beep', 0.0, -1187.9058108217491, 0.0, 0.0, 0.0, 0.0, -222.73513349713488, 0.0]
['beep', 0.0, -1187.816403843928, 0.0, 0.0, 0.0, 0.0, -216.36488632737237, 0.0]
['beep', 0.0, -1187.7046451216513, 0.0, 0.0, 0.0, 0.0, -171.12495554983087, 0.0]
['beep', 0.0, -1188.3751974553106, 0.0, 0.0, 0.0, 0.0, -183.8878016338112, 0.0]
['beep', 0.0, -1188.5763631554084, 0.0, 0.0, 0.0, 0.0, -222.01987767456507, 0.0]
['beep', 0.0, -1187.6599416327408, 0.0, 0.0, 0.0, 0.0, -224.94795619821028, 0.0]
['beep', 0.0, -1187.7046451216513, 0.0, 0.0, 0.0, 0.0, -213.6603252482802, 0.0]
['beep', 0.0, -1186.7435201100732, 0.0, 0.0, 0.0, 0.0, -164.39708046878346, 0.0]
['beep', 0.0, -1186.587057898886, 0.0, 0.0, 0.0, 0.0, -184.1560225672749, 0.0]
['beep', 0.0, -1188.2410869885787, 0.0, 0.0, 0.0, 0.0, -222.8021887305008, 0.0]
['beep', 0.0, -1188.5987148998636, 0.0, 0.0, 0.0, 0.0, -224.07623816445331, 0.0]
['beep', 0.0, -1187.8834590772938, 0.0, 0.0, 0.0, 0.0, -218.75652298409022, 0.0]
['beep', 0.0, -1187.2576102325452, 0.0, 0.0, 0.0, 0.0, -173.7624613955571, 0.0]
['beep', 0.0, -1187.9952177995704, 0.0, 0.0, 0.0, 0.0, -184.4912987341045, 0.0]
['beep', 0.0, -1189.0233980445146, 0.0, 0.0, 0.0, 0.0, -220.79053172952317, 0.0]
['beep', 0.0, -1188.5316596664977, 0.0, 0.0, 0.0, 0.0, -223.67390676425777, 0.0]
['beep', 0.0, -1187.9058108217491, 0.0, 0.0, 0.0, 0.0, -220.03057241804274, 0.0]
['beep', 0.0, -1187.3693689548218, 0.0, 0.0, 0.0, 0.0, -178.63514168681405, 0.0]
['beep', 0.0, -1187.9952177995704, 0.0, 0.0, 0.0, 0.0, -179.30569402047325, 0.0]
['beep', 0.0, -1186.9893892990815, 0.0, 0.0, 0.0, 0.0, -221.61754627436952, 0.0]
['beep', 0.0, -1186.4976509210649, 0.0, 0.0, 0.0, 0.0, -225.43969457622703, 0.0]
['beep', 0.0, -1186.9670375546264, 0.0, 0.0, 0.0, 0.0, -219.58353752893657, 0.0]
['beep', 0.0, -1188.397549199766, 0.0, 0.0, 0.0, 0.0, -173.4718887176381, 0.0]
['beep', 0.0, -1188.8669358333273, 0.0, 0.0, 0.0, 0.0, -178.52338296453752, 0.0]
['beep', 0.0, -1187.6375898882854, 0.0, 0.0, 0.0, 0.0, -221.37167708536114, 0.0]
['beep', 0.0, -1187.3693689548218, 0.0, 0.0, 0.0, 0.0, -224.90325270929966, 0.0]
['beep', 0.0, -1186.6988166211627, 0.0, 0.0, 0.0, 0.0, -221.43873231872706, 0.0]
['beep', 0.0, -1186.6317613877966, 0.0, 0.0, 0.0, 0.0, -178.56808645344813, 0.0]
['beep', 0.0, -1186.4082439432436, 0.0, 0.0, 0.0, 0.0, -176.17644979673028, 0.0]
['beep', 0.0, -1185.782395098495, 0.0, 0.0, 0.0, 0.0, -220.67877300724663, 0.0]
['beep', 0.0, -1185.9612090541375, 0.0, 0.0, 0.0, 0.0, -224.88090096484436, 0.0]
['beep', 0.0, -1186.788223598984, 0.0, 0.0, 0.0, 0.0, -219.3376683399282, 0.0]
['beep', 0.0, -1185.0224357870145, 0.0, 0.0, 0.0, 0.0, -177.15992655276378, 0.0]
['beep', 0.0, -1185.4247671872101, 0.0, 0.0, 0.0, 0.0, -179.88683937631123, 0.0]
['beep', 0.0, -1185.1118427648357, 0.0, 0.0, 0.0, 0.0, -221.81871197446728, 0.0]
['beep', 0.0, -1185.6706363762185, 0.0, 0.0, 0.0, 0.0, -224.97030794266558, 0.0]
['beep', 0.0, -1185.8941538207714, 0.0, 0.0, 0.0, 0.0, -222.53396779703712, 0.0]
['beep', 0.0, -1185.9165055652268, 0.0, 0.0, 0.0, 0.0, -180.84796438788945, 0.0]
['beep', 0.0, -1185.782395098495, 0.0, 0.0, 0.0, 0.0, -179.32804576492856, 0.0]
['beep', 0.0, -1185.9388573096821, 0.0, 0.0, 0.0, 0.0, -222.60102303040304, 0.0]
['beep', 0.0, -1185.4471189316653, 0.0, 0.0, 0.0, 0.0, -224.61268003138068, 0.0]
['beep', 0.0, -1184.4412904311766, 0.0, 0.0, 0.0, 0.0, -217.19190087221872, 0.0]
['beep', 0.0, -1183.8377933308832, 0.0, 0.0, 0.0, 0.0, -169.314464248951, 0.0]
['beep', 0.0, -1182.6755026192072, 0.0, 0.0, 0.0, 0.0, -175.3270835074286, 0.0]
['beep', 0.0, -1184.195421242168, 0.0, 0.0, 0.0, 0.0, -217.84010146142262, 0.0]
['beep', 0.0, -1186.7658718545285, 0.0, 0.0, 0.0, 0.0, -222.19869163020752, 0.0]
['beep', 0.0, -1188.1963834996682, 0.0, 0.0, 0.0, 0.0, -221.32697359645053, 0.0]
['beep', 0.0, -1190.722130623118, 0.0, 0.0, 0.0, 0.0, -180.75855741006822, 0.0]
['beep', 0.0, -1190.8338893453945, 0.0, 0.0, 0.0, 0.0, -171.46023171666047, 0.0]
['beep', 0.0, -1189.6268951448078, 0.0, 0.0, 0.0, 0.0, -216.23077586064053, 0.0]
['beep', 0.0, -1190.0515782894586, 0.0, 0.0, 0.0, 0.0, -220.924642196255, 0.0]
['beep', 0.0, -1188.7998805999614, 0.0, 0.0, 0.0, 0.0, -214.97907817114333, 0.0]
['beep', 0.0, -1188.3751974553106, 0.0, 0.0, 0.0, 0.0, -169.80620262696775, 0.0]
['beep', 0.0, -1188.4646044331319, 0.0, 0.0, 0.0, 0.0, -181.85379288837825, 0.0]
['beep', 0.0, -1187.5258311660089, 0.0, 0.0, 0.0, 0.0, -218.51065379508185, 0.0]
['beep', 0.0, -1187.592886399375, 0.0, 0.0, 0.0, 0.0, -221.30462185199522, 0.0]
['beep', 0.0, -1187.9952177995704, 0.0, 0.0, 0.0, 0.0, -217.68363925023547, 0.0]
['beep', 0.0, -1187.4140724437325, 0.0, 0.0, 0.0, 0.0, -172.57781893942584, 0.0]
['beep', 0.0, -1187.4364241881876, 0.0, 0.0, 0.0, 0.0, -180.84796438788945, 0.0]
['beep', 0.0, -1186.8776305768051, 0.0, 0.0, 0.0, 0.0, -218.28713635052878, 0.0]
['beep', 0.0, -1186.5647061544307, 0.0, 0.0, 0.0, 0.0, -220.65642126279133, 0.0]
['beep', 0.0, -1184.910677064738, 0.0, 0.0, 0.0, 0.0, -215.71668573816845, 0.0]
['beep', 0.0, -1184.9553805536486, 0.0, 0.0, 0.0, 0.0, -171.8402113724007, 0.0]
['beep', 0.0, -1186.5647061544307, 0.0, 0.0, 0.0, 0.0, -176.5564294524705, 0.0]
['beep', 0.0, -1184.7765665980062, 0.0, 0.0, 0.0, 0.0, -215.09083689341986, 0.0]
['beep', 0.0, -1185.782395098495, 0.0, 0.0, 0.0, 0.0, -216.1637206272746, 0.0]
['beep', 0.0, -1187.4140724437325, 0.0, 0.0, 0.0, 0.0, -202.79737744300098, 0.0]
['beep', 0.0, -1186.6317613877966, 0.0, 0.0, 0.0, 0.0, -156.50691467606006, 0.0]
['beep', 0.0, -1186.9223340657156, 0.0, 0.0, 0.0, 0.0, -180.19976379868555, 0.0]
['beep', 0.0, -1188.5763631554084, 0.0, 0.0, 0.0, 0.0, -201.41156928677194, 0.0]
['beep', 0.0, -1189.9174678227268, 0.0, 0.0, 0.0, 0.0, -197.5000140070932, 0.0]
['beep', 0.0, -1191.23622074559, 0.0, 0.0, 0.0, 0.0, -179.8197841429453, 0.0]
['beep', 0.0, -1188.3081422219448, 0.0, 0.0, 0.0, 0.0, -150.024908784021, 0.0]
['beep', 0.0, -1187.23525848809, 0.0, 0.0, 0.0, 0.0, -162.6759961457248, 0.0]
['beep', 0.0, -1188.5316596664977, 0.0, 0.0, 0.0, 0.0, -169.6944439046912, 0.0]
['beep', 0.0, -1190.0515782894586, 0.0, 0.0, 0.0, 0.0, -163.45830720166055, 0.0]
['beep', 0.0, -1192.8231946019166, 0.0, 0.0, 0.0, 0.0, -148.99672853907688, 0.0]
['beep', 0.0, -1193.3819882132993, 0.0, 0.0, 0.0, 0.0, -120.61001308083691, 0.0]
['beep', 0.0, -1191.169165512224, 0.0, 0.0, 0.0, 0.0, -129.59541435187035, 0.0]
['beep', 0.0, -1186.8999823212603, 0.0, 0.0, 0.0, 0.0, -133.79754230946807, 0.0]
['beep', 0.0, -1183.23429623059, 0.0, 0.0, 0.0, 0.0, -128.34371666237314, 0.0]
['beep', 0.0, -1186.2294299876012, 0.0, 0.0, 0.0, 0.0, -115.04442871146546, 0.0]
['beep', 0.0, -1190.2750957340118, 0.0, 0.0, 0.0, 0.0, -86.76947197550201, 0.0]
['beep', 0.0, -1190.1633370117352, 0.0, 0.0, 0.0, 0.0, -96.26896336900752, 0.0]
['beep', 0.0, -1188.755177111051, 0.0, 0.0, 0.0, 0.0, -100.91812621571138, 0.0]
['beep', 0.0, -1187.9058108217491, 0.0, 0.0, 0.0, 0.0, -94.34671334585111, 0.0]
['beep', 0.0, -1189.6492468892632, 0.0, 0.0, 0.0, 0.0, -83.50611728502719, 0.0]
['beep', 0.0, -1191.2585724900453, 0.0, 0.0, 0.0, 0.0, -59.14271582874249, 0.0]
['beep', 0.0, -1190.1186335228244, 0.0, 0.0, 0.0, 0.0, -73.96192240261107, 0.0]
['beep', 0.0, -1191.9961800570704, 0.0, 0.0, 0.0, 0.0, -82.67910274018082, 0.0]
['beep', 0.0, -1191.169165512224, 0.0, 0.0, 0.0, 0.0, -80.04159689445459, 0.0]
['beep', 0.0, -1190.208040500646, 0.0, 0.0, 0.0, 0.0, -65.37885253177316, 0.0]
['beep', 0.0, -1189.0233980445146, 0.0, 0.0, 0.0, 0.0, -46.73749765604707, 0.0]
['beep', 0.0, -1187.3470172103664, 0.0, 0.0, 0.0, 0.0, -60.21559956259723, 0.0]
['beep', 0.0, -1188.4199009442211, 0.0, 0.0, 0.0, 0.0, -87.64119000925899, 0.0]
['beep', 0.0, -1187.5705346549196, 0.0, 0.0, 0.0, 0.0, -92.31270460041817, 0.0]
['beep', 0.0, -1187.4811276770984, 0.0, 0.0, 0.0, 0.0, -64.06009960891004, 0.0]
['beep', 0.0, -1188.6434183887743, 0.0, 0.0, 0.0, 0.0, -42.200093531619736, 0.0]
['beep', 0.0, -1189.5374881669866, 0.0, 0.0, 0.0, 0.0, -77.24762883754121, 0.0]
['beep', 0.0, -1189.0457497889697, 0.0, 0.0, 0.0, 0.0, -114.82091126691238, 0.0]
['beep', 0.0, -1188.4422526886765, 0.0, 0.0, 0.0, 0.0, -119.3136119024291, 0.0]
['beep', 0.0, -1188.5316596664977, 0.0, 0.0, 0.0, 0.0, -90.09988189934278, 0.0]
['beep', 0.0, -1187.4140724437325, 0.0, 0.0, 0.0, 0.0, -71.1679543456977, 0.0]
['beep', 0.0, -1185.134194509291, 0.0, 0.0, 0.0, 0.0, -105.3884751067728, 0.0]
['beep', 0.0, -1186.005912543048, 0.0, 0.0, 0.0, 0.0, -144.3028622034624, 0.0]
['beep', 0.0, -1186.810575343439, 0.0, 0.0, 0.0, 0.0, -145.48750465959367, 0.0]
['beep', 0.0, -1185.8718020763163, 0.0, 0.0, 0.0, 0.0, -118.28543165748498, 0.0]
['beep', 0.0, -1184.620104386819, 0.0, 0.0, 0.0, 0.0, -97.94534420315554, 0.0]
['beep', 0.0, -1184.620104386819, 0.0, 0.0, 0.0, 0.0, -131.85294054185636, 0.0]
['beep', 0.0, -1185.5141741650314, 0.0, 0.0, 0.0, 0.0, -167.7721938815348, 0.0]
['beep', 0.0, -1184.4412904311766, 0.0, 0.0, 0.0, 0.0, -172.13078405031968, 0.0]
['beep', 0.0, -1184.396586942266, 0.0, 0.0, 0.0, 0.0, -141.73241159110208, 0.0]
['beep', 0.0, -1185.357711953844, 0.0, 0.0, 0.0, 0.0, -116.4749403566051, 0.0]
['beep', 0.0, -1185.5812293983972, 0.0, 0.0, 0.0, 0.0, -152.2377314850964, 0.0]
['beep', 0.0, -1185.1565462537465, 0.0, 0.0, 0.0, 0.0, -182.47964173312687, 0.0]
['beep', 0.0, -1186.3411887098778, 0.0, 0.0, 0.0, 0.0, -185.7876999125123, 0.0]
['beep', 0.0, -1185.2459532315677, 0.0, 0.0, 0.0, 0.0, -159.27853098851813, 0.0]
['beep', 0.0, -1184.2177729866235, 0.0, 0.0, 0.0, 0.0, -132.67995508670273, 0.0]
['beep', 0.0, -1185.6706363762185, 0.0, 0.0, 0.0, 0.0, -165.8722956028337, 0.0]
['beep', 0.0, -1184.7318631090955, 0.0, 0.0, 0.0, 0.0, -191.91207789326643, 0.0]
['beep', 0.0, -1184.3518834533554, 0.0, 0.0, 0.0, 0.0, -193.25318256058486, 0.0]
['beep', 0.0, -1184.0613107754364, 0.0, 0.0, 0.0, 0.0, -170.81203112745658, 0.0]
['beep', 0.0, -1183.5025171640536, 0.0, 0.0, 0.0, 0.0, -138.5808156229038, 0.0]
['beep', 0.0, -1183.7930898419727, 0.0, 0.0, 0.0, 0.0, -174.3212550069398, 0.0]
['beep', 0.0, -1185.0000840425591, 0.0, 0.0, 0.0, 0.0, -197.5223657515485, 0.0]
['beep', 0.0, -1184.0836625198917, 0.0, 0.0, 0.0, 0.0, -197.07533086244237, 0.0]
['beep', 0.0, -1183.23429623059, 0.0, 0.0, 0.0, 0.0, -176.73524340811295, 0.0]
['beep', 0.0, -1183.882496819794, 0.0, 0.0, 0.0, 0.0, -138.6031673673591, 0.0]
['beep', 0.0, -1183.2119444861346, 0.0, 0.0, 0.0, 0.0, -176.06469107445372, 0.0]
['beep', 0.0, -1183.7260346086068, 0.0, 0.0, 0.0, 0.0, -200.20457508618537, 0.0]
['beep', 0.0, -1183.390758441777, 0.0, 0.0, 0.0, 0.0, -202.32799080943954, 0.0]
['beep', 0.0, -1183.167240997224, 0.0, 0.0, 0.0, 0.0, -188.11228133586425, 0.0]
['beep', 0.0, -1182.4072816857436, 0.0, 0.0, 0.0, 0.0, -145.15222849276407, 0.0]
['beep', 0.0, -1182.720206108118, 0.0, 0.0, 0.0, 0.0, -176.39996724128335, 0.0]
['beep', 0.0, -1183.5695723974195, 0.0, 0.0, 0.0, 0.0, -202.93148790973282, 0.0]
['beep', 0.0, -1184.1060142643469, 0.0, 0.0, 0.0, 0.0, -204.36199955487248, 0.0]
['beep', 0.0, -1183.6589793752407, 0.0, 0.0, 0.0, 0.0, -190.39215927030557, 0.0]
['beep', 0.0, -1182.8990200637604, 0.0, 0.0, 0.0, 0.0, -149.24259772808526, 0.0]
['beep', 0.0, -1183.4354619306878, 0.0, 0.0, 0.0, 0.0, -178.38927249780568, 0.0]
['beep', 0.0, -1183.6589793752407, 0.0, 0.0, 0.0, 0.0, -203.91496466576632, 0.0]
['beep', 0.0, -1183.7707380975173, 0.0, 0.0, 0.0, 0.0, -207.13361586733055, 0.0]
['beep', 0.0, -1183.8377933308832, 0.0, 0.0, 0.0, 0.0, -195.17543258374127, 0.0]
['beep', 0.0, -1184.4636421756318, 0.0, 0.0, 0.0, 0.0, -148.7061558611579, 0.0]
['beep', 0.0, -1183.4354619306878, 0.0, 0.0, 0.0, 0.0, -177.04816783048724, 0.0]
['beep', 0.0, -1184.5977526423637, 0.0, 0.0, 0.0, 0.0, -208.36296181237245, 0.0]
['beep', 0.0, -1184.5754008979084, 0.0, 0.0, 0.0, 0.0, -209.1899763572188, 0.0]
['beep', 0.0, -1183.5695723974195, 0.0, 0.0, 0.0, 0.0, -191.86737440435581, 0.0]
['beep', 0.0, -1182.6084473858414, 0.0, 0.0, 0.0, 0.0, -151.14249600678636, 0.0]
['beep', 0.0, -1182.2731712190118, 0.0, 0.0, 0.0, 0.0, -183.5525254669816, 0.0]
['beep', 0.0, -1183.010778786037, 0.0, 0.0, 0.0, 0.0, -207.08891237841993, 0.0]
['beep', 0.0, -1182.0273020300033, 0.0, 0.0, 0.0, 0.0, -208.13944436781938, 0.0]
['beep', 0.0, -1182.1390607522799, 0.0, 0.0, 0.0, 0.0, -197.34355179590605, 0.0]
['beep', 0.0, -1183.1225375083134, 0.0, 0.0, 0.0, 0.0, -151.88010357381148, 0.0]
['beep', 0.0, -1183.9048485642493, 0.0, 0.0, 0.0, 0.0, -177.78577539751237, 0.0]
['beep', 0.0, -1183.6142758863302, 0.0, 0.0, 0.0, 0.0, -207.53594726752607, 0.0]
['beep', 0.0, -1183.5472206529644, 0.0, 0.0, 0.0, 0.0, -207.603002500892, 0.0]
['beep', 0.0, -1181.8708398188162, 0.0, 0.0, 0.0, 0.0, -192.4261680157385, 0.0]
['beep', 0.0, -1183.2119444861346, 0.0, 0.0, 0.0, 0.0, -148.32617620541768, 0.0]
['beep', 0.0, -1183.0554822749475, 0.0, 0.0, 0.0, 0.0, -176.13174630781964, 0.0]
['beep', 0.0, -1183.0554822749475, 0.0, 0.0, 0.0, 0.0, -206.6418774893138, 0.0]
['beep', 0.0, -1181.3343979518888, 0.0, 0.0, 0.0, 0.0, -209.12292112385288, 0.0]
['beep', 0.0, -1181.8261363299057, 0.0, 0.0, 0.0, 0.0, -198.57289774094795, 0.0]
['beep', 0.0, -1181.2226392296122, 0.0, 0.0, 0.0, 0.0, -154.87523733082264, 0.0]
['beep', 0.0, -1180.4179764292212, 0.0, 0.0, 0.0, 0.0, -184.8489266453894, 0.0]
['beep', 0.0, -1180.4403281736766, 0.0, 0.0, 0.0, 0.0, -210.01699090206517, 0.0]
['beep', 0.0, -1180.8203078294168, 0.0, 0.0, 0.0, 0.0, -211.20163335819643, 0.0]
['beep', 0.0, -1181.5132119075313, 0.0, 0.0, 0.0, 0.0, -204.29494432150656, 0.0]
['beep', 0.0, -1181.8261363299057, 0.0, 0.0, 0.0, 0.0, -158.47386818812708, 0.0]
['beep', 0.0, -1180.3509211958553, 0.0, 0.0, 0.0, 0.0, -177.8528306308783, 0.0]
['beep', 0.0, -1180.8426595738722, 0.0, 0.0, 0.0, 0.0, -212.43097930323833, 0.0]
['beep', 0.0, -1181.133232251791, 0.0, 0.0, 0.0, 0.0, -215.26965084906232, 0.0]
['beep', 0.0, -1181.0438252739698, 0.0, 0.0, 0.0, 0.0, -201.14334835330826, 0.0]
['beep', 0.0, -1181.8931915632716, 0.0, 0.0, 0.0, 0.0, -153.57883615241482, 0.0]
['beep', 0.0, -1180.3285694514, 0.0, 0.0, 0.0, 0.0, -182.45728998867156, 0.0]
['beep', 0.0, -1181.6249706298079, 0.0, 0.0, 0.0, 0.0, -211.1122263803752, 0.0]
['beep', 0.0, -1181.6920258631737, 0.0, 0.0, 0.0, 0.0, -211.64866824730257, 0.0]
['beep', 0.0, -1181.42380492971, 0.0, 0.0, 0.0, 0.0, -206.84304318941156, 0.0]
['beep', 0.0, -1182.7872613414838, 0.0, 0.0, 0.0, 0.0, -160.28435948900696, 0.0]
['beep', 0.0, -1183.3237032084112, 0.0, 0.0, 0.0, 0.0, -172.08608056140906, 0.0]
['beep', 0.0, -1182.943723552671, 0.0, 0.0, 0.0, 0.0, -209.43584554622717, 0.0]
['beep', 0.0, -1182.8990200637604, 0.0, 0.0, 0.0, 0.0, -213.0344764035316, 0.0]
['beep', 0.0, -1181.8261363299057, 0.0, 0.0, 0.0, 0.0, -205.7254559666462, 0.0]
['beep', 0.0, -1181.5355636519866, 0.0, 0.0, 0.0, 0.0, -159.94908332217733, 0.0]
['beep', 0.0, -1180.909714807238, 0.0, 0.0, 0.0, 0.0, -172.7566328950683, 0.0]
['beep', 0.0, -1181.8708398188162, 0.0, 0.0, 0.0, 0.0, -209.39114205731656, 0.0]
['beep', 0.0, -1181.915543307727, 0.0, 0.0, 0.0, 0.0, -213.48151129263775, 0.0]
['beep', 0.0, -1181.2226392296122, 0.0, 0.0, 0.0, 0.0, -205.9936769001099, 0.0]
['beep', 0.0, -1181.4461566741654, 0.0, 0.0, 0.0, 0.0, -158.63033039931423, 0.0]
['beep', 0.0, -1181.6026188853525, 0.0, 0.0, 0.0, 0.0, -178.4339759867163, 0.0]
['beep', 0.0, -1181.9602467966374, 0.0, 0.0, 0.0, 0.0, -212.45333104769364, 0.0]
['beep', 0.0, -1181.7590810965396, 0.0, 0.0, 0.0, 0.0, -216.0743136494534, 0.0]
['beep', 0.0, -1181.6696741187184, 0.0, 0.0, 0.0, 0.0, -208.72058972365735, 0.0]
['beep', 0.0, -1182.3402264523777, 0.0, 0.0, 0.0, 0.0, -161.46900194513822, 0.0]
['beep', 0.0, -1182.4743369191096, 0.0, 0.0, 0.0, 0.0, -175.28238001851798, 0.0]
['beep', 0.0, -1181.915543307727, 0.0, 0.0, 0.0, 0.0, -210.82165370245622, 0.0]
['beep', 0.0, -1182.1614124967352, 0.0, 0.0, 0.0, 0.0, -213.54856652600367, 0.0]
['beep', 0.0, -1182.5637438969309, 0.0, 0.0, 0.0, 0.0, -206.06073213347582, 0.0]
['beep', 0.0, -1182.1837642411906, 0.0, 0.0, 0.0, 0.0, -159.43499319970527, 0.0]
['beep', 0.0, -1181.7590810965396, 0.0, 0.0, 0.0, 0.0, -178.25516203107384, 0.0]
['beep', 0.0, -1182.2508194745565, 0.0, 0.0, 0.0, 0.0, -212.87801419234447, 0.0]
['beep', 0.0, -1181.915543307727, 0.0, 0.0, 0.0, 0.0, -214.77791247104557, 0.0]
['beep', 0.0, -1182.1614124967352, 0.0, 0.0, 0.0, 0.0, -202.12682510934178, 0.0]
['beep', 0.0, -1181.7590810965396, 0.0, 0.0, 0.0, 0.0, -156.46221118714945, 0.0]
['beep', 0.0, -1181.1555839962464, 0.0, 0.0, 0.0, 0.0, -183.10549057787546, 0.0]
['beep', 0.0, -1181.6696741187184, 0.0, 0.0, 0.0, 0.0, -212.05099964749812, 0.0]
['beep', 0.0, -1182.3849299412884, 0.0, 0.0, 0.0, 0.0, -213.59327001491428, 0.0]
['beep', 0.0, -1182.9660752971263, 0.0, 0.0, 0.0, 0.0, -204.63022048833616, 0.0]
['beep', 0.0, -1182.8096130859392, 0.0, 0.0, 0.0, 0.0, -158.38446121030586, 0.0]
['beep', 0.0, -1182.4072816857436, 0.0, 0.0, 0.0, 0.0, -183.10549057787546, 0.0]
['beep', 0.0, -1182.653150874752, 0.0, 0.0, 0.0, 0.0, -214.37558107085005, 0.0]
['beep', 0.0, -1181.3791014407996, 0.0, 0.0, 0.0, 0.0, -215.35905782688354, 0.0]
['beep', 0.0, -1181.2226392296122, 0.0, 0.0, 0.0, 0.0, -206.5971740004032, 0.0]
['beep', 0.0, -1180.9320665516934, 0.0, 0.0, 0.0, 0.0, -158.8091443549567, 0.0]
['beep', 0.0, -1181.3343979518888, 0.0, 0.0, 0.0, 0.0, -176.31056026346212, 0.0]
['beep', 0.0, -1180.8873630627827, 0.0, 0.0, 0.0, 0.0, -212.38627581432772, 0.0]
['beep', 0.0, -1180.5967903848637, 0.0, 0.0, 0.0, 0.0, -215.33670608242824, 0.0]
['beep', 0.0, -1182.0496537744586, 0.0, 0.0, 0.0, 0.0, -207.22302284515177, 0.0]
['beep', 0.0, -1181.1108805073359, 0.0, 0.0, 0.0, 0.0, -160.86550484484493, 0.0]
['beep', 0.0, -1180.3732729403107, 0.0, 0.0, 0.0, 0.0, -179.66332193175816, 0.0]
['beep', 0.0, -1180.9544182961486, 0.0, 0.0, 0.0, 0.0, -212.81095895897855, 0.0]
['beep', 0.0, -1180.462679918132, 0.0, 0.0, 0.0, 0.0, -214.8449677044115, 0.0]
['beep', 0.0, -1180.4179764292212, 0.0, 0.0, 0.0, 0.0, -208.2512030900959, 0.0]
['beep', 0.0, -1181.1108805073359, 0.0, 0.0, 0.0, 0.0, -163.52536243502647, 0.0]
['beep', 0.0, -1182.072005518914, 0.0, 0.0, 0.0, 0.0, -179.55156320948163, 0.0]
['beep', 0.0, -1182.1167090078245, 0.0, 0.0, 0.0, 0.0, -214.10736013738637, 0.0]
['beep', 0.0, -1183.0778340194029, 0.0, 0.0, 0.0, 0.0, -214.77791247104557, 0.0]
['beep', 0.0, -1182.0943572633694, 0.0, 0.0, 0.0, 0.0, -206.19484260020766, 0.0]
['beep', 0.0, -1181.5355636519866, 0.0, 0.0, 0.0, 0.0, -159.1667722662416, 0.0]
['beep', 0.0, -1182.1390607522799, 0.0, 0.0, 0.0, 0.0, -175.3717869963392, 0.0]
['beep', 0.0, -1182.5637438969309, 0.0, 0.0, 0.0, 0.0, -211.31339208047297, 0.0]
['beep', 0.0, -1181.3791014407996, 0.0, 0.0, 0.0, 0.0, -215.00142991559864, 0.0]
['beep', 0.0, -1182.429633430199, 0.0, 0.0, 0.0, 0.0, -204.49611002160432, 0.0]
['beep', 0.0, -1182.429633430199, 0.0, 0.0, 0.0, 0.0, -157.13276352080865, 0.0]
['beep', 0.0, -1182.8543165748497, 0.0, 0.0, 0.0, 0.0, -180.84796438788945, 0.0]
['beep', 0.0, -1183.0554822749475, 0.0, 0.0, 0.0, 0.0, -214.77791247104557, 0.0]
['beep', 0.0, -1183.2789997195007, 0.0, 0.0, 0.0, 0.0, -216.99073517212096, 0.0]
['beep', 0.0, -1182.1837642411906, 0.0, 0.0, 0.0, 0.0, -211.60396475839195, 0.0]
['beep', 0.0, -1182.5413921524755, 0.0, 0.0, 0.0, 0.0, -165.71583339164656, 0.0]
['beep', 0.0, -1183.1448892527687, 0.0, 0.0, 0.0, 0.0, -178.90336262027773, 0.0]
['beep', 0.0, -1183.748386353062, 0.0, 0.0, 0.0, 0.0, -214.82261595995618, 0.0]
['beep', 0.0, -1182.0496537744586, 0.0, 0.0, 0.0, 0.0, -214.71085723767965, 0.0]
['beep', 0.0, -1180.4403281736766, 0.0, 0.0, 0.0, 0.0, -205.92662166674396, 0.0]
['beep', 0.0, -1182.943723552671, 0.0, 0.0, 0.0, 0.0, -158.94325482168853, 0.0]
['beep', 0.0, -1187.5705346549196, 0.0, 0.0, 0.0, 0.0, -173.1366125508085, 0.0]
['beep', 0.0, -1186.8999823212603, 0.0, 0.0, 0.0, 0.0, -209.32408682395064, 0.0]
['beep', 0.0, -1183.7930898419727, 0.0, 0.0, 0.0, 0.0, -211.26868859156235, 0.0]
['beep', 0.0, -1182.876668319305, 0.0, 0.0, 0.0, 0.0, -204.1161303658641, 0.0]
['beep', 0.0, -1183.390758441777, 0.0, 0.0, 0.0, 0.0, -158.20564725466338, 0.0]
['beep', 0.0, -1184.0613107754364, 0.0, 0.0, 0.0, 0.0, -176.51172596355988, 0.0]
['beep', 0.0, -1184.4189386867213, 0.0, 0.0, 0.0, 0.0, -209.45819729068248, 0.0]
['beep', 0.0, -1183.9942555420705, 0.0, 0.0, 0.0, 0.0, -213.10153163689753, 0.0]
['beep', 0.0, -1183.2566479750453, 0.0, 0.0, 0.0, 0.0, -206.75363621159033, 0.0]
['beep', 0.0, -1183.167240997224, 0.0, 0.0, 0.0, 0.0, -160.64198740029187, 0.0]
['beep', 0.0, -1183.3237032084112, 0.0, 0.0, 0.0, 0.0, -171.97432183913253, 0.0]
['beep', 0.0, -1182.653150874752, 0.0, 0.0, 0.0, 0.0, -210.35226706889478, 0.0]
['beep', 0.0, -1181.6696741187184, 0.0, 0.0, 0.0, 0.0, -213.0121246590763, 0.0]
['beep', 0.0, -1180.4179764292212, 0.0, 0.0, 0.0, 0.0, -208.5194240235596, 0.0]
['beep', 0.0, -1180.1497554957575, 0.0, 0.0, 0.0, 0.0, -164.26297000205162, 0.0]
['beep', 0.0, -1179.3450926953665, 0.0, 0.0, 0.0, 0.0, -174.92475210723308, 0.0]
['beep', 0.0, -1178.9651130396264, 0.0, 0.0, 0.0, 0.0, -207.24537458960708, 0.0]
['beep', 0.0, -1179.3897961842772, 0.0, 0.0, 0.0, 0.0, -209.32408682395064, 0.0]
['beep', 0.0, -1182.3402264523777, 0.0, 0.0, 0.0, 0.0, -197.38825528481667, 0.0]
['beep', 0.0, -1183.4354619306878, 0.0, 0.0, 0.0, 0.0, -149.24259772808526, 0.0]
['beep', 0.0, -1184.620104386819, 0.0, 0.0, 0.0, 0.0, -173.60599918436995, 0.0]
['beep', 0.0, -1184.5083456645425, 0.0, 0.0, 0.0, 0.0, -209.569956012959, 0.0]
['beep', 0.0, -1184.0613107754364, 0.0, 0.0, 0.0, 0.0, -212.56508976997017, 0.0]
['beep', 0.0, -1183.1225375083134, 0.0, 0.0, 0.0, 0.0, -204.54081351051494, 0.0]
['beep', 0.0, -1183.2789997195007, 0.0, 0.0, 0.0, 0.0, -159.8820280888114, 0.0]
['beep', 0.0, -1183.368406697322, 0.0, 0.0, 0.0, 0.0, -177.2716852750403, 0.0]
['beep', 0.0, -1182.5637438969309, 0.0, 0.0, 0.0, 0.0, -209.2346798461294, 0.0]
['beep', 0.0, -1182.2731712190118, 0.0, 0.0, 0.0, 0.0, -210.53108102453723, 0.0]
['beep', 0.0, -1182.2955229634672, 0.0, 0.0, 0.0, 0.0, -204.4067030437831, 0.0]
['beep', 0.0, -1182.7649095970285, 0.0, 0.0, 0.0, 0.0, -157.80331585446785, 0.0]
['beep', 0.0, -1183.390758441777, 0.0, 0.0, 0.0, 0.0, -169.11329854885324, 0.0]
['beep', 0.0, -1183.010778786037, 0.0, 0.0, 0.0, 0.0, -208.13944436781938, 0.0]
['beep', 0.0, -1182.8543165748497, 0.0, 0.0, 0.0, 0.0, -212.09570313640873, 0.0]
['beep', 0.0, -1183.7707380975173, 0.0, 0.0, 0.0, 0.0, -205.4348832887272, 0.0]
['beep', 0.0, -1183.3460549528666, 0.0, 0.0, 0.0, 0.0, -161.51370543404883, 0.0]
['beep', 0.0, -1183.6589793752407, 0.0, 0.0, 0.0, 0.0, -180.3562260098727, 0.0]
['beep', 0.0, -1184.195421242168, 0.0, 0.0, 0.0, 0.0, -211.33574382492827, 0.0]
['beep', 0.0, -1183.6589793752407, 0.0, 0.0, 0.0, 0.0, -212.54273802551486, 0.0]
['beep', 0.0, -1183.0331305304921, 0.0, 0.0, 0.0, 0.0, -202.75267395409037, 0.0]
['beep', 0.0, -1182.6307991302967, 0.0, 0.0, 0.0, 0.0, -156.14928676477513, 0.0]
['beep', 0.0, -1182.4743369191096, 0.0, 0.0, 0.0, 0.0, -178.1657550532526, 0.0]
['beep', 0.0, -1182.586095641386, 0.0, 0.0, 0.0, 0.0, -211.02281940255398, 0.0]
['beep', 0.0, -1181.6696741187184, 0.0, 0.0, 0.0, 0.0, -212.9450694257104, 0.0]
['beep', 0.0, -1180.9320665516934, 0.0, 0.0, 0.0, 0.0, -207.75946471207914, 0.0]
['beep', 0.0, -1180.0379967734812, 0.0, 0.0, 0.0, 0.0, -163.637121157303, 0.0]
['beep', 0.0, -1181.0885287628805, 0.0, 0.0, 0.0, 0.0, -174.3436067513951, 0.0]
['beep', 0.0, -1180.6861973626849, 0.0, 0.0, 0.0, 0.0, -208.78764495702328, 0.0]
['beep', 0.0, -1181.9825985410928, 0.0, 0.0, 0.0, 0.0, -211.67101999175787, 0.0]
['beep', 0.0, -1182.5637438969309, 0.0, 0.0, 0.0, 0.0, -202.4844530206267, 0.0]
['beep', 0.0, -1181.714377607629, 0.0, 0.0, 0.0, 0.0, -156.21634199814105, 0.0]
['beep', 0.0, -1182.4519851746543, 0.0, 0.0, 0.0, 0.0, -178.63514168681405, 0.0]
['beep', 0.0, -1182.0049502855481, 0.0, 0.0, 0.0, 0.0, -208.5417757680149, 0.0]
['beep', 0.0, -1183.390758441777, 0.0, 0.0, 0.0, 0.0, -208.34061006791714, 0.0]
['beep', 0.0, -1183.0778340194029, 0.0, 0.0, 0.0, 0.0, -203.1550053542859, 0.0]
['beep', 0.0, -1182.8990200637604, 0.0, 0.0, 0.0, 0.0, -157.17746700971927, 0.0]
['beep', 0.0, -1183.2789997195007, 0.0, 0.0, 0.0, 0.0, -175.26002827406268, 0.0]
['beep', 0.0, -1183.4578136751431, 0.0, 0.0, 0.0, 0.0, -208.63118274583613, 0.0]
['beep', 0.0, -1183.4801654195983, 0.0, 0.0, 0.0, 0.0, -210.53108102453723, 0.0]
['beep', 0.0, -1182.5637438969309, 0.0, 0.0, 0.0, 0.0, -204.4290547882384, 0.0]
['beep', 0.0, -1182.1167090078245, 0.0, 0.0, 0.0, 0.0, -155.88106583131145, 0.0]
['beep', 0.0, -1182.8990200637604, 0.0, 0.0, 0.0, 0.0, -173.87422011783363, 0.0]
['beep', 0.0, -1183.815441586428, 0.0, 0.0, 0.0, 0.0, -210.4193223022607, 0.0]
['beep', 0.0, -1184.2177729866235, 0.0, 0.0, 0.0, 0.0, -212.83331070343385, 0.0]
['beep', 0.0, -1184.396586942266, 0.0, 0.0, 0.0, 0.0, -205.90426992228865, 0.0]
['beep', 0.0, -1183.8377933308832, 0.0, 0.0, 0.0, 0.0, -159.70321413316896, 0.0]
['beep', 0.0, -1182.9884270415816, 0.0, 0.0, 0.0, 0.0, -175.6623596742582, 0.0]
['beep', 0.0, -1182.8096130859392, 0.0, 0.0, 0.0, 0.0, -210.95576416918806, 0.0]
['beep', 0.0, -1183.0554822749475, 0.0, 0.0, 0.0, 0.0, -213.72738048164612, 0.0]
['beep', 0.0, -1183.2789997195007, 0.0, 0.0, 0.0, 0.0, -206.9995054005987, 0.0]
['beep', 0.0, -1183.815441586428, 0.0, 0.0, 0.0, 0.0, -161.64781590078067, 0.0]
['beep', 0.0, -1183.9272003087044, 0.0, 0.0, 0.0, 0.0, -180.6915021767023, 0.0]
['beep', 0.0, -1184.5977526423637, 0.0, 0.0, 0.0, 0.0, -210.26286009107355, 0.0]
['beep', 0.0, -1183.9719037976151, 0.0, 0.0, 0.0, 0.0, -211.7157234806685, 0.0]
['beep', 0.0, -1182.943723552671, 0.0, 0.0, 0.0, 0.0, -200.15987159727476, 0.0]
['beep', 0.0, -1182.8543165748497, 0.0, 0.0, 0.0, 0.0, -153.06474602994277, 0.0]
['beep', 0.0, -1183.882496819794, 0.0, 0.0, 0.0, 0.0, -174.3883102403057, 0.0]
['beep', 0.0, -1182.720206108118, 0.0, 0.0, 0.0, 0.0, -208.1617961122747, 0.0]
['beep', 0.0, -1183.3013514639558, 0.0, 0.0, 0.0, 0.0, -209.97228741315453, 0.0]
['beep', 0.0, -1183.6142758863302, 0.0, 0.0, 0.0, 0.0, -204.49611002160432, 0.0]
['beep', 0.0, -1184.1283660088022, 0.0, 0.0, 0.0, 0.0, -160.32906297791757, 0.0]
['beep', 0.0, -1184.195421242168, 0.0, 0.0, 0.0, 0.0, -170.0073683270655, 0.0]
['beep', 0.0, -1184.5754008979084, 0.0, 0.0, 0.0, 0.0, -205.50193852209313, 0.0]
['beep', 0.0, -1184.843621831372, 0.0, 0.0, 0.0, 0.0, -209.94993566869923, 0.0]
['beep', 0.0, -1184.2401247310788, 0.0, 0.0, 0.0, 0.0, -202.30563906498423, 0.0]
['beep', 0.0, -1183.9495520531598, 0.0, 0.0, 0.0, 0.0, -157.3339292209064, 0.0]
['beep', 0.0, -1184.0836625198917, 0.0, 0.0, 0.0, 0.0, -174.05303407347608, 0.0]
['beep', 0.0, -1185.201249742657, 0.0, 0.0, 0.0, 0.0, -209.860528690878, 0.0]
['beep', 0.0, -1185.2906567204782, 0.0, 0.0, 0.0, 0.0, -213.48151129263775, 0.0]
['beep', 0.0, -1185.0000840425591, 0.0, 0.0, 0.0, 0.0, -204.4514065326937, 0.0]
['beep', 0.0, -1185.1788979982016, 0.0, 0.0, 0.0, 0.0, -157.19981875417457, 0.0]
['beep', 0.0, -1184.7989183424615, 0.0, 0.0, 0.0, 0.0, -182.77021441104586, 0.0]
['beep', 0.0, -1184.4412904311766, 0.0, 0.0, 0.0, 0.0, -211.22398510265174, 0.0]
['beep', 0.0, -1184.5083456645425, 0.0, 0.0, 0.0, 0.0, -211.82748220294502, 0.0]
['beep', 0.0, -1183.524868908509, 0.0, 0.0, 0.0, 0.0, -206.75363621159033, 0.0]
['beep', 0.0, -1184.1283660088022, 0.0, 0.0, 0.0, 0.0, -161.53605717850414, 0.0]
['beep', 0.0, -1184.843621831372, 0.0, 0.0, 0.0, 0.0, -170.14147879379735, 0.0]
['beep', 0.0, -1185.357711953844, 0.0, 0.0, 0.0, 0.0, -208.2288513456406, 0.0]
['beep', 0.0, -1185.335360209389, 0.0, 0.0, 0.0, 0.0, -211.53690952502603, 0.0]
['beep', 0.0, -1185.5365259094865, 0.0, 0.0, 0.0, 0.0, -203.64674373230264, 0.0]
['beep', 0.0, -1185.5812293983972, 0.0, 0.0, 0.0, 0.0, -159.1444205217863, 0.0]
['beep', 0.0, -1186.9223340657156, 0.0, 0.0, 0.0, 0.0, -175.39413874079452, 0.0]
['beep', 0.0, -1186.296485220967, 0.0, 0.0, 0.0, 0.0, -208.5194240235596, 0.0]
['beep', 0.0, -1185.8941538207714, 0.0, 0.0, 0.0, 0.0, -212.40862755878302, 0.0]
['beep', 0.0, -1184.977732298104, 0.0, 0.0, 0.0, 0.0, -205.88191817783334, 0.0]
['beep', 0.0, -1185.0671392759252, 0.0, 0.0, 0.0, 0.0, -159.25617924406282, 0.0]
['beep', 0.0, -1184.8883253202828, 0.0, 0.0, 0.0, 0.0, -175.61765618534758, 0.0]
['beep', 0.0, -1185.6706363762185, 0.0, 0.0, 0.0, 0.0, -210.7545984690903, 0.0]
['beep', 0.0, -1184.8659735758274, 0.0, 0.0, 0.0, 0.0, -210.7769502135456, 0.0]
['beep', 0.0, -1185.3800636982994, 0.0, 0.0, 0.0, 0.0, -204.0490751324982, 0.0]
['beep', 0.0, -1185.782395098495, 0.0, 0.0, 0.0, 0.0, -157.53509492100417, 0.0]
['beep', 0.0, -1186.3858921987883, 0.0, 0.0, 0.0, 0.0, -169.49327820459345, 0.0]
['beep', 0.0, -1185.4471189316653, 0.0, 0.0, 0.0, 0.0, -209.63701124632493, 0.0]
['beep', 0.0, -1186.1176712653246, 0.0, 0.0, 0.0, 0.0, -212.90036593679977, 0.0]
['beep', 0.0, -1186.4752991766095, 0.0, 0.0, 0.0, 0.0, -207.46889203416015, 0.0]
['beep', 0.0, -1185.357711953844, 0.0, 0.0, 0.0, 0.0, -165.26879850254042, 0.0]
['beep', 0.0, -1185.4024154427548, 0.0, 0.0, 0.0, 0.0, -169.56033343795937, 0.0]
['beep', 0.0, -1185.2906567204782, 0.0, 0.0, 0.0, 0.0, -206.57482225594788, 0.0]
['beep', 0.0, -1186.7211683656178, 0.0, 0.0, 0.0, 0.0, -210.86635719136683, 0.0]
['beep', 0.0, -1186.9893892990815, 0.0, 0.0, 0.0, 0.0, -201.43392103122724, 0.0]
['beep', 0.0, -1186.296485220967, 0.0, 0.0, 0.0, 0.0, -153.22120824112991, 0.0]
['beep', 0.0, -1185.5588776539419, 0.0, 0.0, 0.0, 0.0, -172.60017068388115, 0.0]
['beep', 0.0, -1186.4082439432436, 0.0, 0.0, 0.0, 0.0, -208.8323484459339, 0.0]
['beep', 0.0, -1187.3693689548218, 0.0, 0.0, 0.0, 0.0, -210.82165370245622, 0.0]
['beep', 0.0, -1185.6706363762185, 0.0, 0.0, 0.0, 0.0, -204.16083385477472, 0.0]
['beep', 0.0, -1185.8047468429502, 0.0, 0.0, 0.0, 0.0, -160.01613855554325, 0.0]
['beep', 0.0, -1187.1905549991793, 0.0, 0.0, 0.0, 0.0, -170.45440321617167, 0.0]
['beep', 0.0, -1186.7211683656178, 0.0, 0.0, 0.0, 0.0, -205.63604898882497, 0.0]
['beep', 0.0, -1185.7600433540397, 0.0, 0.0, 0.0, 0.0, -210.30756357998416, 0.0]
['beep', 0.0, -1185.4471189316653, 0.0, 0.0, 0.0, 0.0, -204.54081351051494, 0.0]
['beep', 0.0, -1185.335360209389, 0.0, 0.0, 0.0, 0.0, -160.03849029999856, 0.0]
['beep', 0.0, -1187.1234997658134, 0.0, 0.0, 0.0, 0.0, -171.39317648329455, 0.0]
['beep', 0.0, -1187.0564445324476, 0.0, 0.0, 0.0, 0.0, -206.12778736684174, 0.0]
['beep', 0.0, -1186.6764648767073, 0.0, 0.0, 0.0, 0.0, -208.94410716821042, 0.0]
['beep', 0.0, -1186.0729677764139, 0.0, 0.0, 0.0, 0.0, -202.216232087163, 0.0]
['beep', 0.0, -1187.9058108217491, 0.0, 0.0, 0.0, 0.0, -155.94812106467737, 0.0]
['beep', 0.0, -1187.1234997658134, 0.0, 0.0, 0.0, 0.0, -167.14634503678622, 0.0]
['beep', 0.0, -1183.7930898419727, 0.0, 0.0, 0.0, 0.0, -206.9324501672328, 0.0]
['beep', 0.0, -1184.7765665980062, 0.0, 0.0, 0.0, 0.0, -210.59813625790315, 0.0]
['beep', 0.0, -1187.972866055115, 0.0, 0.0, 0.0, 0.0, -204.60786874388086, 0.0]
['beep', 0.0, -1187.816403843928, 0.0, 0.0, 0.0, 0.0, -159.36793796633935, 0.0]
['beep', 0.0, -1186.1847264986905, 0.0, 0.0, 0.0, 0.0, -172.30959800596216, 0.0]
['beep', 0.0, -1186.3188369654224, 0.0, 0.0, 0.0, 0.0, -206.39600830030543, 0.0]
['beep', 0.0, -1187.3470172103664, 0.0, 0.0, 0.0, 0.0, -209.61465950186962, 0.0]
['beep', 0.0, -1186.4976509210649, 0.0, 0.0, 0.0, 0.0, -199.80224368598982, 0.0]
['beep', 0.0, -1186.162374754235, 0.0, 0.0, 0.0, 0.0, -153.1988564966746, 0.0]
['beep', 0.0, -1186.6988166211627, 0.0, 0.0, 0.0, 0.0, -174.25419977357387, 0.0]
['beep', 0.0, -1186.8999823212603, 0.0, 0.0, 0.0, 0.0, -206.9995054005987, 0.0]
['beep', 0.0, -1186.8999823212603, 0.0, 0.0, 0.0, 0.0, -209.05586589048696, 0.0]
['beep', 0.0, -1186.6317613877966, 0.0, 0.0, 0.0, 0.0, -204.7866826995233, 0.0]
['beep', 0.0, -1187.1234997658134, 0.0, 0.0, 0.0, 0.0, -162.69834789018012, 0.0]
['beep', 0.0, -1187.3470172103664, 0.0, 0.0, 0.0, 0.0, -175.3270835074286, 0.0]
['beep', 0.0, -1187.5705346549196, 0.0, 0.0, 0.0, 0.0, -208.92175542375512, 0.0]
['beep', 0.0, -1188.5987148998636, 0.0, 0.0, 0.0, 0.0, -209.5476042685037, 0.0]
['beep', 0.0, -1186.5647061544307, 0.0, 0.0, 0.0, 0.0, -200.42809253073844, 0.0]
['beep', 0.0, -1186.0729677764139, 0.0, 0.0, 0.0, 0.0, -154.65171988626957, 0.0]
['beep', 0.0, -1186.4529474321541, 0.0, 0.0, 0.0, 0.0, -168.93448459321078, 0.0]
['beep', 0.0, -1186.654113132252, 0.0, 0.0, 0.0, 0.0, -204.98784839962107, 0.0]
['beep', 0.0, -1186.8999823212603, 0.0, 0.0, 0.0, 0.0, -209.5476042685037, 0.0]
['beep', 0.0, -1186.8552788323498, 0.0, 0.0, 0.0, 0.0, -202.75267395409037, 0.0]
['beep', 0.0, -1187.23525848809, 0.0, 0.0, 0.0, 0.0, -157.78096411001255, 0.0]
['beep', 0.0, -1188.039921288481, 0.0, 0.0, 0.0, 0.0, -170.36499623835044, 0.0]
['beep', 0.0, -1186.9223340657156, 0.0, 0.0, 0.0, 0.0, -207.603002500892, 0.0]
['beep', 0.0, -1185.5812293983972, 0.0, 0.0, 0.0, 0.0, -210.48637753562662, 0.0]
['beep', 0.0, -1186.8776305768051, 0.0, 0.0, 0.0, 0.0, -202.4844530206267, 0.0]
['beep', 0.0, -1187.592886399375, 0.0, 0.0, 0.0, 0.0, -156.39515595378353, 0.0]
['beep', 0.0, -1187.1905549991793, 0.0, 0.0, 0.0, 0.0, -169.09094680439793, 0.0]
['beep', 0.0, -1186.363540454333, 0.0, 0.0, 0.0, 0.0, -204.65257223279147, 0.0]
['beep', 0.0, -1186.296485220967, 0.0, 0.0, 0.0, 0.0, -207.69240947871322, 0.0]
['beep', 0.0, -1185.9388573096821, 0.0, 0.0, 0.0, 0.0, -199.24345007460715, 0.0]
['beep', 0.0, -1186.6988166211627, 0.0, 0.0, 0.0, 0.0, -155.14345826428632, 0.0]
['beep', 0.0, -1186.363540454333, 0.0, 0.0, 0.0, 0.0, -172.60017068388115, 0.0]
['beep', 0.0, -1185.8047468429502, 0.0, 0.0, 0.0, 0.0, -205.30077282199537, 0.0]
['beep', 0.0, -1186.587057898886, 0.0, 0.0, 0.0, 0.0, -205.94897341119926, 0.0]
['beep', 0.0, -1185.491822420576, 0.0, 0.0, 0.0, 0.0, -198.0811593629312, 0.0]
['beep', 0.0, -1185.2683049760228, 0.0, 0.0, 0.0, 0.0, -152.32713846291765, 0.0]
['beep', 0.0, -1185.5588776539419, 0.0, 0.0, 0.0, 0.0, -173.36012999536158, 0.0]
['beep', 0.0, -1185.6929881206738, 0.0, 0.0, 0.0, 0.0, -207.603002500892, 0.0]
['beep', 0.0, -1185.3130084649335, 0.0, 0.0, 0.0, 0.0, -209.8828804353333, 0.0]
['beep', 0.0, -1184.6424561312742, 0.0, 0.0, 0.0, 0.0, -204.1161303658641, 0.0]
['beep', 0.0, -1185.6259328873077, 0.0, 0.0, 0.0, 0.0, -161.62546415632536, 0.0]
['beep', 0.0, -1187.1458515102688, 0.0, 0.0, 0.0, 0.0, -169.6944439046912, 0.0]
['beep', 0.0, -1186.0729677764139, 0.0, 0.0, 0.0, 0.0, -203.892612921311, 0.0]
['beep', 0.0, -1185.2459532315677, 0.0, 0.0, 0.0, 0.0, -209.5029007795931, 0.0]
['beep', 0.0, -1185.357711953844, 0.0, 0.0, 0.0, 0.0, -204.13848211031942, 0.0]
['beep', 0.0, -1185.849450331861, 0.0, 0.0, 0.0, 0.0, -158.27270248802932, 0.0]
['beep', 0.0, -1185.4471189316653, 0.0, 0.0, 0.0, 0.0, -169.51562994904876, 0.0]
['beep', 0.0, -1184.553049153453, 0.0, 0.0, 0.0, 0.0, -205.01020014407638, 0.0]
['beep', 0.0, -1184.5083456645425, 0.0, 0.0, 0.0, 0.0, -208.2288513456406, 0.0]
['beep', 0.0, -1184.5083456645425, 0.0, 0.0, 0.0, 0.0, -202.77502569854568, 0.0]
['beep', 0.0, -1185.2906567204782, 0.0, 0.0, 0.0, 0.0, -157.73626062110193, 0.0]
['beep', 0.0, -1186.14002300978, 0.0, 0.0, 0.0, 0.0, -168.55450493747057, 0.0]
['beep', 0.0, -1185.335360209389, 0.0, 0.0, 0.0, 0.0, -206.23954608911828, 0.0]
['beep', 0.0, -1184.553049153453, 0.0, 0.0, 0.0, 0.0, -208.72058972365735, 0.0]
['beep', 0.0, -1184.8212700869167, 0.0, 0.0, 0.0, 0.0, -201.72449370914623, 0.0]
['beep', 0.0, -1185.0000840425591, 0.0, 0.0, 0.0, 0.0, -156.9986530540768, 0.0]
['beep', 0.0, -1185.7600433540397, 0.0, 0.0, 0.0, 0.0, -169.73914739360183, 0.0]
['beep', 0.0, -1185.5812293983972, 0.0, 0.0, 0.0, 0.0, -204.98784839962107, 0.0]
['beep', 0.0, -1184.3295317089, 0.0, 0.0, 0.0, 0.0, -207.73711296762383, 0.0]
['beep', 0.0, -1184.4636421756318, 0.0, 0.0, 0.0, 0.0, -197.56706924045912, 0.0]
['beep', 0.0, -1184.9553805536486, 0.0, 0.0, 0.0, 0.0, -152.43889718519418, 0.0]
['beep', 0.0, -1184.6648078757296, 0.0, 0.0, 0.0, 0.0, -175.21532478515206, 0.0]
['beep', 0.0, -1185.8941538207714, 0.0, 0.0, 0.0, 0.0, -205.7478077111015, 0.0]
['beep', 0.0, -1186.005912543048, 0.0, 0.0, 0.0, 0.0, -205.90426992228865, 0.0]
['beep', 0.0, -1186.587057898886, 0.0, 0.0, 0.0, 0.0, -200.56220299747028, 0.0]
['beep', 0.0, -1186.7435201100732, 0.0, 0.0, 0.0, 0.0, -158.07153678793154, 0.0]
['beep', 0.0, -1186.9670375546264, 0.0, 0.0, 0.0, 0.0, -171.39317648329455, 0.0]
['beep', 0.0, -1186.4976509210649, 0.0, 0.0, 0.0, 0.0, -205.4572350331825, 0.0]
['beep', 0.0, -1185.1118427648357, 0.0, 0.0, 0.0, 0.0, -207.89357517881098, 0.0]
['beep', 0.0, -1184.7318631090955, 0.0, 0.0, 0.0, 0.0, -196.04715061749826, 0.0]
['beep', 0.0, -1185.2459532315677, 0.0, 0.0, 0.0, 0.0, -146.91801630473333, 0.0]
['beep', 0.0, -1184.8659735758274, 0.0, 0.0, 0.0, 0.0, -169.44857471568284, 0.0]
['beep', 0.0, -1184.4636421756318, 0.0, 0.0, 0.0, 0.0, -202.5515082539926, 0.0]
['beep', 0.0, -1184.687159620185, 0.0, 0.0, 0.0, 0.0, -205.30077282199537, 0.0]
['beep', 0.0, -1185.8047468429502, 0.0, 0.0, 0.0, 0.0, -194.16960408325247, 0.0]
['beep', 0.0, -1186.005912543048, 0.0, 0.0, 0.0, 0.0, -150.56135065094838, 0.0]
['beep', 0.0, -1187.7940520994725, 0.0, 0.0, 0.0, 0.0, -174.03068232902078, 0.0]
['beep', 0.0, -1187.1458515102688, 0.0, 0.0, 0.0, 0.0, -202.5515082539926, 0.0]
['beep', 0.0, -1186.3411887098778, 0.0, 0.0, 0.0, 0.0, -204.36199955487248, 0.0]
['beep', 0.0, -1186.587057898886, 0.0, 0.0, 0.0, 0.0, -196.1589093397748, 0.0]
['beep', 0.0, -1185.134194509291, 0.0, 0.0, 0.0, 0.0, -152.8188768409344, 0.0]
['beep', 0.0, -1184.9553805536486, 0.0, 0.0, 0.0, 0.0, -169.51562994904876, 0.0]
['beep', 0.0, -1182.2061159856457, 0.0, 0.0, 0.0, 0.0, -201.41156928677194, 0.0]
['beep', 0.0, -1181.0438252739698, 0.0, 0.0, 0.0, 0.0, -205.7701594555568, 0.0]
['beep', 0.0, -1180.1497554957575, 0.0, 0.0, 0.0, 0.0, -196.40477852878317, 0.0]
['beep', 0.0, -1179.9038863067492, 0.0, 0.0, 0.0, 0.0, -149.62257738382547, 0.0]
['beep', 0.0, -1180.0379967734812, 0.0, 0.0, 0.0, 0.0, -165.44761245818287, 0.0]
['beep', 0.0, -1180.8203078294168, 0.0, 0.0, 0.0, 0.0, -201.03158963103172, 0.0]
['beep', 0.0, -1182.4966886635648, 0.0, 0.0, 0.0, 0.0, -204.56316525497024, 0.0]
['beep', 0.0, -1184.4636421756318, 0.0, 0.0, 0.0, 0.0, -196.94122039571053, 0.0]
['beep', 0.0, -1184.8659735758274, 0.0, 0.0, 0.0, 0.0, -151.74599310707964, 0.0]
['beep', 0.0, -1184.553049153453, 0.0, 0.0, 0.0, 0.0, -169.49327820459345, 0.0]
['beep', 0.0, -1185.0000840425591, 0.0, 0.0, 0.0, 0.0, -203.08795012091997, 0.0]
['beep', 0.0, -1185.4471189316653, 0.0, 0.0, 0.0, 0.0, -205.0996071218976, 0.0]
['beep', 0.0, -1185.3800636982994, 0.0, 0.0, 0.0, 0.0, -195.9353918952217, 0.0]
['beep', 0.0, -1185.8270985874055, 0.0, 0.0, 0.0, 0.0, -150.69546111768022, 0.0]
['beep', 0.0, -1187.0117410435369, 0.0, 0.0, 0.0, 0.0, -168.2862840040069, 0.0]
['beep', 0.0, -1187.3470172103664, 0.0, 0.0, 0.0, 0.0, -199.3999122857943, 0.0]
['beep', 0.0, -1187.4811276770984, 0.0, 0.0, 0.0, 0.0, -202.95383965418813, 0.0]
['beep', 0.0, -1187.1458515102688, 0.0, 0.0, 0.0, 0.0, -193.0296651160318, 0.0]
['beep', 0.0, -1186.654113132252, 0.0, 0.0, 0.0, 0.0, -149.33200470590648, 0.0]
['beep', 0.0, -1186.8552788323498, 0.0, 0.0, 0.0, 0.0, -175.95293235217719, 0.0]
['beep', 0.0, -1186.005912543048, 0.0, 0.0, 0.0, 0.0, -201.88095592033338, 0.0]
['beep', 0.0, -1186.2517817320565, 0.0, 0.0, 0.0, 0.0, -202.37269429835015, 0.0]
['beep', 0.0, -1186.363540454333, 0.0, 0.0, 0.0, 0.0, -191.68856044871336, 0.0]
['beep', 0.0, -1185.6259328873077, 0.0, 0.0, 0.0, 0.0, -147.38740293829477, 0.0]
['beep', 0.0, -1185.6706363762185, 0.0, 0.0, 0.0, 0.0, -170.11912704934204, 0.0]
['beep', 0.0, -1186.4082439432436, 0.0, 0.0, 0.0, 0.0, -200.6292582308362, 0.0]
['beep', 0.0, -1186.3411887098778, 0.0, 0.0, 0.0, 0.0, -202.30563906498423, 0.0]
['beep', 0.0, -1185.0224357870145, 0.0, 0.0, 0.0, 0.0, -192.82849941593403, 0.0]
['beep', 0.0, -1184.910677064738, 0.0, 0.0, 0.0, 0.0, -151.2542547290629, 0.0]
['beep', 0.0, -1185.4024154427548, 0.0, 0.0, 0.0, 0.0, -166.27462700302925, 0.0]
['beep', 0.0, -1186.162374754235, 0.0, 0.0, 0.0, 0.0, -199.22109833015185, 0.0]
['beep', 0.0, -1184.5083456645425, 0.0, 0.0, 0.0, 0.0, -203.33381930992834, 0.0]
['beep', 0.0, -1184.3295317089, 0.0, 0.0, 0.0, 0.0, -188.38050226932793, 0.0]
['beep', 0.0, -1183.9048485642493, 0.0, 0.0, 0.0, 0.0, -143.87817905881155, 0.0]
['beep', 0.0, -1184.4412904311766, 0.0, 0.0, 0.0, 0.0, -171.37082473883925, 0.0]
['beep', 0.0, -1184.6648078757296, 0.0, 0.0, 0.0, 0.0, -202.5291565095373, 0.0]
['beep', 0.0, -1183.3237032084112, 0.0, 0.0, 0.0, 0.0, -203.5126332655708, 0.0]
['beep', 0.0, -1182.8543165748497, 0.0, 0.0, 0.0, 0.0, -193.87903140533345, 0.0]
['beep', 0.0, -1183.5472206529644, 0.0, 0.0, 0.0, 0.0, -150.24842622857406, 0.0]
['beep', 0.0, -1184.1283660088022, 0.0, 0.0, 0.0, 0.0, -168.04041481499848, 0.0]
['beep', 0.0, -1185.2906567204782, 0.0, 0.0, 0.0, 0.0, -198.7517116965904, 0.0]
['beep', 0.0, -1185.9612090541375, 0.0, 0.0, 0.0, 0.0, -202.8644326763669, 0.0]
['beep', 0.0, -1185.9165055652268, 0.0, 0.0, 0.0, 0.0, -196.44948201769378, 0.0]
['beep', 0.0, -1186.4529474321541, 0.0, 0.0, 0.0, 0.0, -151.5671791514372, 0.0]
['beep', 0.0, -1186.0953195208692, 0.0, 0.0, 0.0, 0.0, -168.3309874929175, 0.0]
['beep', 0.0, -1186.4082439432436, 0.0, 0.0, 0.0, 0.0, -200.3386855529172, 0.0]
['beep', 0.0, -1185.0447875314699, 0.0, 0.0, 0.0, 0.0, -203.37852279883896, 0.0]
['beep', 0.0, -1184.3295317089, 0.0, 0.0, 0.0, 0.0, -195.51070875057087, 0.0]
['beep', 0.0, -1184.2401247310788, 0.0, 0.0, 0.0, 0.0, -149.89079831728915, 0.0]
['beep', 0.0, -1184.5306974089979, 0.0, 0.0, 0.0, 0.0, -169.22505727112977, 0.0]
['beep', 0.0, -1183.8377933308832, 0.0, 0.0, 0.0, 0.0, -200.9868861421211, 0.0]
['beep', 0.0, -1184.4412904311766, 0.0, 0.0, 0.0, 0.0, -203.1997088431965, 0.0]
['beep', 0.0, -1183.681331119696, 0.0, 0.0, 0.0, 0.0, -187.91111563576646, 0.0]
['beep', 0.0, -1183.7707380975173, 0.0, 0.0, 0.0, 0.0, -144.41462092573894, 0.0]
['beep', 0.0, -1184.910677064738, 0.0, 0.0, 0.0, 0.0, -168.50980144855995, 0.0]
['beep', 0.0, -1183.8601450753386, 0.0, 0.0, 0.0, 0.0, -199.7128367081686, 0.0]
['beep', 0.0, -1183.7707380975173, 0.0, 0.0, 0.0, 0.0, -202.1938803427077, 0.0]
['beep', 0.0, -1182.6755026192072, 0.0, 0.0, 0.0, 0.0, -194.6166389723586, 0.0]
['beep', 0.0, -1182.5413921524755, 0.0, 0.0, 0.0, 0.0, -150.69546111768022, 0.0]
['beep', 0.0, -1182.228467730101, 0.0, 0.0, 0.0, 0.0, -166.07346130293146, 0.0]
['beep', 0.0, -1182.228467730101, 0.0, 0.0, 0.0, 0.0, -198.19291808520774, 0.0]
['beep', 0.0, -1181.9602467966374, 0.0, 0.0, 0.0, 0.0, -200.80807218647865, 0.0]
['beep', 0.0, -1181.8484880743608, 0.0, 0.0, 0.0, 0.0, -193.20847907167425, 0.0]
['beep', 0.0, -1181.9602467966374, 0.0, 0.0, 0.0, 0.0, -149.3543564503618, 0.0]
['beep', 0.0, -1182.3849299412884, 0.0, 0.0, 0.0, 0.0, -166.3863857253058, 0.0]
['beep', 0.0, -1182.7872613414838, 0.0, 0.0, 0.0, 0.0, -198.59524948540326, 0.0]
['beep', 0.0, -1183.4578136751431, 0.0, 0.0, 0.0, 0.0, -200.69631346420212, 0.0]
['beep', 0.0, -1183.4801654195983, 0.0, 0.0, 0.0, 0.0, -190.5039179925821, 0.0]
['beep', 0.0, -1183.0331305304921, 0.0, 0.0, 0.0, 0.0, -149.24259772808526, 0.0]
['beep', 0.0, -1183.681331119696, 0.0, 0.0, 0.0, 0.0, -168.21922877064097, 0.0]
['beep', 0.0, -1185.357711953844, 0.0, 0.0, 0.0, 0.0, -197.94704889619933, 0.0]
['beep', 0.0, -1184.7765665980062, 0.0, 0.0, 0.0, 0.0, -202.66326697626914, 0.0]
['beep', 0.0, -1183.2789997195007, 0.0, 0.0, 0.0, 0.0, -191.5320982375262, 0.0]
['beep', 0.0, -1185.3130084649335, 0.0, 0.0, 0.0, 0.0, -147.1415337492864, 0.0]
['beep', 0.0, -1185.5365259094865, 0.0, 0.0, 0.0, 0.0, -167.83924911490072, 0.0]
['beep', 0.0, -1185.134194509291, 0.0, 0.0, 0.0, 0.0, -200.69631346420212, 0.0]
['beep', 0.0, -1185.335360209389, 0.0, 0.0, 0.0, 0.0, -203.1997088431965, 0.0]
['beep', 0.0, -1184.7542148535508, 0.0, 0.0, 0.0, 0.0, -192.00148487108765, 0.0]
['beep', 0.0, -1185.2236014871123, 0.0, 0.0, 0.0, 0.0, -151.41071694025004, 0.0]
['beep', 0.0, -1185.0447875314699, 0.0, 0.0, 0.0, 0.0, -168.91213284875548, 0.0]
['beep', 0.0, -1185.6035811428526, 0.0, 0.0, 0.0, 0.0, -197.45531051818259, 0.0]
['beep', 0.0, -1184.5306974089979, 0.0, 0.0, 0.0, 0.0, -201.14334835330826, 0.0]
['beep', 0.0, -1184.2401247310788, 0.0, 0.0, 0.0, 0.0, -194.14725233879716, 0.0]
['beep', 0.0, -1186.0729677764139, 0.0, 0.0, 0.0, 0.0, -150.67310937322492, 0.0]
['beep', 0.0, -1187.3693689548218, 0.0, 0.0, 0.0, 0.0, -168.24158051509627, 0.0]
['beep', 0.0, -1186.6988166211627, 0.0, 0.0, 0.0, 0.0, -199.0646361189647, 0.0]
['beep', 0.0, -1180.5073834070424, 0.0, 0.0, 0.0, 0.0, -200.6516099752915, 0.0]
['beep', 0.0, -1181.42380492971, 0.0, 0.0, 0.0, 0.0, -190.03453135902063, 0.0]
['beep', 0.0, -1185.7376916095843, 0.0, 0.0, 0.0, 0.0, -148.28147271650707, 0.0]
['beep', 0.0, -1185.9612090541375, 0.0, 0.0, 0.0, 0.0, -168.39804272628342, 0.0]
['beep', 0.0, -1184.4859939200871, 0.0, 0.0, 0.0, 0.0, -197.27649656254013, 0.0]
['beep', 0.0, -1185.4694706761206, 0.0, 0.0, 0.0, 0.0, -199.1093396078753, 0.0]
['beep', 0.0, -1184.620104386819, 0.0, 0.0, 0.0, 0.0, -189.76631042555695, 0.0]
['beep', 0.0, -1184.5083456645425, 0.0, 0.0, 0.0, 0.0, -146.00159478206572, 0.0]
['beep', 0.0, -1185.0447875314699, 0.0, 0.0, 0.0, 0.0, -162.9889205680991, 0.0]
['beep', 0.0, -1185.6929881206738, 0.0, 0.0, 0.0, 0.0, -195.89068840631109, 0.0]
['beep', 0.0, -1184.5306974089979, 0.0, 0.0, 0.0, 0.0, -201.21040358667418, 0.0]
['beep', 0.0, -1184.038959030981, 0.0, 0.0, 0.0, 0.0, -191.37563602633907, 0.0]
['beep', 0.0, -1183.748386353062, 0.0, 0.0, 0.0, 0.0, -150.606054139859, 0.0]
['beep', 0.0, -1185.0894910203804, 0.0, 0.0, 0.0, 0.0, -167.68278690371358, 0.0]
['beep', 0.0, -1185.335360209389, 0.0, 0.0, 0.0, 0.0, -197.38825528481667, 0.0]
['beep', 0.0, -1185.6929881206738, 0.0, 0.0, 0.0, 0.0, -201.2998105644954, 0.0]
['beep', 0.0, -1184.4412904311766, 0.0, 0.0, 0.0, 0.0, -188.80518541397876, 0.0]
['beep', 0.0, -1185.201249742657, 0.0, 0.0, 0.0, 0.0, -145.17458023721937, 0.0]
['beep', 0.0, -1185.2906567204782, 0.0, 0.0, 0.0, 0.0, -167.01223457005437, 0.0]
['beep', 0.0, -1185.5141741650314, 0.0, 0.0, 0.0, 0.0, -197.99175238510995, 0.0]
['beep', 0.0, -1185.849450331861, 0.0, 0.0, 0.0, 0.0, -199.53402275252614, 0.0]
['beep', 0.0, -1185.4694706761206, 0.0, 0.0, 0.0, 0.0, -192.15794708227483, 0.0]
['beep', 0.0, -1184.4412904311766, 0.0, 0.0, 0.0, 0.0, -147.38740293829477, 0.0]
['beep', 0.0, -1185.1565462537465, 0.0, 0.0, 0.0, 0.0, -165.38055722481695, 0.0]
['beep', 0.0, -1184.4636421756318, 0.0, 0.0, 0.0, 0.0, -198.28232506302896, 0.0]
['beep', 0.0, -1183.4354619306878, 0.0, 0.0, 0.0, 0.0, -200.71866520865743, 0.0]
['beep', 0.0, -1183.368406697322, 0.0, 0.0, 0.0, 0.0, -194.77310118354575, 0.0]
['beep', 0.0, -1182.6307991302967, 0.0, 0.0, 0.0, 0.0, -149.55552215045955, 0.0]
['beep', 0.0, -1183.010778786037, 0.0, 0.0, 0.0, 0.0, -162.76540312354604, 0.0]
['beep', 0.0, -1183.2119444861346, 0.0, 0.0, 0.0, 0.0, -197.41060702927197, 0.0]
['beep', 0.0, -1182.4519851746543, 0.0, 0.0, 0.0, 0.0, -202.1938803427077, 0.0]
['beep', 0.0, -1182.8990200637604, 0.0, 0.0, 0.0, 0.0, -193.3425895384061, 0.0]
['beep', 0.0, -1183.2789997195007, 0.0, 0.0, 0.0, 0.0, -150.69546111768022, 0.0]
['beep', 0.0, -1183.7707380975173, 0.0, 0.0, 0.0, 0.0, -167.7721938815348, 0.0]
['beep', 0.0, -1183.4354619306878, 0.0, 0.0, 0.0, 0.0, -199.7575401970792, 0.0]
['beep', 0.0, -1183.010778786037, 0.0, 0.0, 0.0, 0.0, -201.2998105644954, 0.0]
['beep', 0.0, -1182.362578196833, 0.0, 0.0, 0.0, 0.0, -192.51557499355974, 0.0]
['beep', 0.0, -1182.0273020300033, 0.0, 0.0, 0.0, 0.0, -148.1697139942305, 0.0]
['beep', 0.0, -1182.228467730101, 0.0, 0.0, 0.0, 0.0, -167.21340027015214, 0.0]
['beep', 0.0, -1181.1555839962464, 0.0, 0.0, 0.0, 0.0, -198.95287739668817, 0.0]
['beep', 0.0, -1182.0273020300033, 0.0, 0.0, 0.0, 0.0, -201.9927146426099, 0.0]
['beep', 0.0, -1181.6026188853525, 0.0, 0.0, 0.0, 0.0, -193.3872930273167, 0.0]
['beep', 0.0, -1181.714377607629, 0.0, 0.0, 0.0, 0.0, -149.95785355065507, 0.0]
['beep', 0.0, -1181.1108805073359, 0.0, 0.0, 0.0, 0.0, -164.79941186897898, 0.0]
['beep', 0.0, -1181.9602467966374, 0.0, 0.0, 0.0, 0.0, -197.5000140070932, 0.0]
['beep', 0.0, -1183.010778786037, 0.0, 0.0, 0.0, 0.0, -199.33285705242838, 0.0]
['beep', 0.0, -1183.390758441777, 0.0, 0.0, 0.0, 0.0, -187.95581912467708, 0.0]
['beep', 0.0, -1182.1614124967352, 0.0, 0.0, 0.0, 0.0, -144.928711048211, 0.0]
['beep', 0.0, -1182.8990200637604, 0.0, 0.0, 0.0, 0.0, -164.8888188468002, 0.0]
['beep', 0.0, -1183.167240997224, 0.0, 0.0, 0.0, 0.0, -195.22013607265188, 0.0]
['beep', 0.0, -1183.0554822749475, 0.0, 0.0, 0.0, 0.0, -197.65647621828035, 0.0]
['beep', 0.0, -1182.5637438969309, 0.0, 0.0, 0.0, 0.0, -190.74978718159048, 0.0]
['beep', 0.0, -1184.620104386819, 0.0, 0.0, 0.0, 0.0, -150.56135065094838, 0.0]
['beep', 0.0, -1184.5754008979084, 0.0, 0.0, 0.0, 0.0, -164.15121127977505, 0.0]
['beep', 0.0, -1183.681331119696, 0.0, 0.0, 0.0, 0.0, -195.3095430504731, 0.0]
['beep', 0.0, -1184.910677064738, 0.0, 0.0, 0.0, 0.0, -198.84111867441163, 0.0]
['beep', 0.0, -1183.8377933308832, 0.0, 0.0, 0.0, 0.0, -189.40868251427204, 0.0]
['beep', 0.0, -1184.687159620185, 0.0, 0.0, 0.0, 0.0, -146.11335350434226, 0.0]
['beep', 0.0, -1184.910677064738, 0.0, 0.0, 0.0, 0.0, -162.45247870117174, 0.0]
['beep', 0.0, -1184.7542148535508, 0.0, 0.0, 0.0, 0.0, -193.47670000513793, 0.0]
['beep', 0.0, -1184.620104386819, 0.0, 0.0, 0.0, 0.0, -199.98105764163228, 0.0]
['beep', 0.0, -1183.6366276307856, 0.0, 0.0, 0.0, 0.0, -192.6943889492022, 0.0]
['beep', 0.0, -1183.9719037976151, 0.0, 0.0, 0.0, 0.0, -146.02394652652103, 0.0]
['beep', 0.0, -1183.9048485642493, 0.0, 0.0, 0.0, 0.0, -161.20078101167454, 0.0]
['beep', 0.0, -1183.1895927416795, 0.0, 0.0, 0.0, 0.0, -195.73422619512394, 0.0]
['beep', 0.0, -1182.7872613414838, 0.0, 0.0, 0.0, 0.0, -198.95287739668817, 0.0]
['beep', 0.0, -1183.8601450753386, 0.0, 0.0, 0.0, 0.0, -192.13559533781952, 0.0]
['beep', 0.0, -1183.748386353062, 0.0, 0.0, 0.0, 0.0, -150.0025570395657, 0.0]
['beep', 0.0, -1183.5695723974195, 0.0, 0.0, 0.0, 0.0, -163.9500455796773, 0.0]
['beep', 0.0, -1184.1060142643469, 0.0, 0.0, 0.0, 0.0, -194.99661862809882, 0.0]
['beep', 0.0, -1184.8659735758274, 0.0, 0.0, 0.0, 0.0, -197.7905866850122, 0.0]
['beep', 0.0, -1184.5754008979084, 0.0, 0.0, 0.0, 0.0, -188.20168831368548, 0.0]
['beep', 0.0, -1184.7318631090955, 0.0, 0.0, 0.0, 0.0, -148.77321109452382, 0.0]
['beep', 0.0, -1184.2401247310788, 0.0, 0.0, 0.0, 0.0, -163.21243801265217, 0.0]
['beep', 0.0, -1185.2236014871123, 0.0, 0.0, 0.0, 0.0, -195.2871913060178, 0.0]
['beep', 0.0, -1185.4024154427548, 0.0, 0.0, 0.0, 0.0, -198.28232506302896, 0.0]
['beep', 0.0, -1185.7600433540397, 0.0, 0.0, 0.0, 0.0, -190.8391941594117, 0.0]
['beep', 0.0, -1185.201249742657, 0.0, 0.0, 0.0, 0.0, -148.79556283897912, 0.0]
['beep', 0.0, -1185.4471189316653, 0.0, 0.0, 0.0, 0.0, -163.3018449904734, 0.0]
['beep', 0.0, -1185.7600433540397, 0.0, 0.0, 0.0, 0.0, -195.89068840631109, 0.0]
['beep', 0.0, -1183.6589793752407, 0.0, 0.0, 0.0, 0.0, -199.77989194153452, 0.0]
['beep', 0.0, -1183.1448892527687, 0.0, 0.0, 0.0, 0.0, -188.5816679694257, 0.0]
['beep', 0.0, -1182.5190404080201, 0.0, 0.0, 0.0, 0.0, -143.87817905881155, 0.0]
['beep', 0.0, -1182.653150874752, 0.0, 0.0, 0.0, 0.0, -160.61963565583656, 0.0]
['beep', 0.0, -1183.4578136751431, 0.0, 0.0, 0.0, 0.0, -194.88485990582228, 0.0]
['beep', 0.0, -1183.23429623059, 0.0, 0.0, 0.0, 0.0, -198.50584250758203, 0.0]
['beep', 0.0, -1183.2789997195007, 0.0, 0.0, 0.0, 0.0, -193.61081047186977, 0.0]
['beep', 0.0, -1183.2119444861346, 0.0, 0.0, 0.0, 0.0, -152.26008322955173, 0.0]
['beep', 0.0, -1183.6366276307856, 0.0, 0.0, 0.0, 0.0, -161.089022289398, 0.0]
['beep', 0.0, -1183.9272003087044, 0.0, 0.0, 0.0, 0.0, -195.15308083928596, 0.0]
['beep', 0.0, -1183.390758441777, 0.0, 0.0, 0.0, 0.0, -198.3717320408502, 0.0]
['beep', 0.0, -1183.2119444861346, 0.0, 0.0, 0.0, 0.0, -189.67690344773573, 0.0]
['beep', 0.0, -1183.7260346086068, 0.0, 0.0, 0.0, 0.0, -151.47777217361596, 0.0]
['beep', 0.0, -1183.7707380975173, 0.0, 0.0, 0.0, 0.0, -164.08415604640913, 0.0]
['beep', 0.0, -1182.7872613414838, 0.0, 0.0, 0.0, 0.0, -194.88485990582228, 0.0]
['beep', 0.0, -1183.7930898419727, 0.0, 0.0, 0.0, 0.0, -197.38825528481667, 0.0]
['beep', 0.0, -1182.8319648303946, 0.0, 0.0, 0.0, 0.0, -187.26291504656257, 0.0]
['beep', 0.0, -1182.4743369191096, 0.0, 0.0, 0.0, 0.0, -146.94036804918863, 0.0]
['beep', 0.0, -1182.876668319305, 0.0, 0.0, 0.0, 0.0, -162.51953393453766, 0.0]
['beep', 0.0, -1183.1001857638582, 0.0, 0.0, 0.0, 0.0, -193.94608663869937, 0.0]
['beep', 0.0, -1183.9942555420705, 0.0, 0.0, 0.0, 0.0, -197.56706924045912, 0.0]
['beep', 0.0, -1182.8990200637604, 0.0, 0.0, 0.0, 0.0, -188.73813018061284, 0.0]
['beep', 0.0, -1180.9320665516934, 0.0, 0.0, 0.0, 0.0, -149.55552215045955, 0.0]
['beep', 0.0, -1180.8873630627827, 0.0, 0.0, 0.0, 0.0, -161.7595746230572, 0.0]
['beep', 0.0, -1180.3509211958553, 0.0, 0.0, 0.0, 0.0, -193.81197617196753, 0.0]
['beep', 0.0, -1178.9874647840816, 0.0, 0.0, 0.0, 0.0, -197.8799936628334, 0.0]
['beep', 0.0, -1177.691063605674, 0.0, 0.0, 0.0, 0.0, -186.3911970128056, 0.0]
['beep', 0.0, -1176.8640490608275, 0.0, 0.0, 0.0, 0.0, -141.53124589100432, 0.0]
['beep', 0.0, -1177.9592845391376, 0.0, 0.0, 0.0, 0.0, -156.39515595378353, 0.0]
['beep', 0.0, -1179.4121479287326, 0.0, 0.0, 0.0, 0.0, -191.93442963772173, 0.0]
['beep', 0.0, -1180.0827002623917, 0.0, 0.0, 0.0, 0.0, -197.8799936628334, 0.0]
['beep', 0.0, -1181.0661770184252, 0.0, 0.0, 0.0, 0.0, -189.6321999588251, 0.0]
['beep', 0.0, -1181.6696741187184, 0.0, 0.0, 0.0, 0.0, -151.70128961816903, 0.0]
['beep', 0.0, -1181.8484880743608, 0.0, 0.0, 0.0, 0.0, -159.74791762207957, 0.0]
['beep', 0.0, -1182.9213718082158, 0.0, 0.0, 0.0, 0.0, -191.68856044871336, 0.0]
['beep', 0.0, -1182.4519851746543, 0.0, 0.0, 0.0, 0.0, -198.01410412956525, 0.0]
['beep', 0.0, -1182.5413921524755, 0.0, 0.0, 0.0, 0.0, -189.52044123654858, 0.0]
['beep', 0.0, -1182.7649095970285, 0.0, 0.0, 0.0, 0.0, -146.4933331600825, 0.0]
['beep', 0.0, -1183.0554822749475, 0.0, 0.0, 0.0, 0.0, -157.46803968763825, 0.0]
['beep', 0.0, -1183.2789997195007, 0.0, 0.0, 0.0, 0.0, -193.16377558276363, 0.0]
['beep', 0.0, -1183.2789997195007, 0.0, 0.0, 0.0, 0.0, -197.34355179590605, 0.0]
['beep', 0.0, -1183.4801654195983, 0.0, 0.0, 0.0, 0.0, -191.04035985950946, 0.0]
['beep', 0.0, -1183.1001857638582, 0.0, 0.0, 0.0, 0.0, -151.54482740698188, 0.0]
['beep', 0.0, -1183.1001857638582, 0.0, 0.0, 0.0, 0.0, -158.18329551020807, 0.0]
['beep', 0.0, -1183.23429623059, 0.0, 0.0, 0.0, 0.0, -191.91207789326643, 0.0]
['beep', 0.0, -1182.8096130859392, 0.0, 0.0, 0.0, 0.0, -196.44948201769378, 0.0]
['beep', 0.0, -1182.6084473858414, 0.0, 0.0, 0.0, 0.0, -189.45338600318266, 0.0]
['beep', 0.0, -1183.0331305304921, 0.0, 0.0, 0.0, 0.0, -146.02394652652103, 0.0]
['beep', 0.0, -1182.0496537744586, 0.0, 0.0, 0.0, 0.0, -157.42333619872764, 0.0]
['beep', 0.0, -1182.6755026192072, 0.0, 0.0, 0.0, 0.0, -191.73326393762397, 0.0]
['beep', 0.0, -1182.8319648303946, 0.0, 0.0, 0.0, 0.0, -195.71187445066863, 0.0]
['beep', 0.0, -1181.1555839962464, 0.0, 0.0, 0.0, 0.0, -190.30275229248434, 0.0]
['beep', 0.0, -1181.42380492971, 0.0, 0.0, 0.0, 0.0, -151.34366170688412, 0.0]
['beep', 0.0, -1181.781432840995, 0.0, 0.0, 0.0, 0.0, -162.18425776770803, 0.0]
['beep', 0.0, -1181.9825985410928, 0.0, 0.0, 0.0, 0.0, -193.78962442751222, 0.0]
['beep', 0.0, -1182.3849299412884, 0.0, 0.0, 0.0, 0.0, -197.07533086244237, 0.0]
['beep', 0.0, -1182.1614124967352, 0.0, 0.0, 0.0, 0.0, -185.36301676786147, 0.0]
['beep', 0.0, -1181.6473223742632, 0.0, 0.0, 0.0, 0.0, -143.0511645139652, 0.0]
['beep', 0.0, -1182.6755026192072, 0.0, 0.0, 0.0, 0.0, -158.69738563268015, 0.0]
['beep', 0.0, -1183.1001857638582, 0.0, 0.0, 0.0, 0.0, -190.34745578139496, 0.0]
['beep', 0.0, -1182.0049502855481, 0.0, 0.0, 0.0, 0.0, -195.86833666185578, 0.0]
['beep', 0.0, -1182.429633430199, 0.0, 0.0, 0.0, 0.0, -188.0452261024983, 0.0]
['beep', 0.0, -1183.4354619306878, 0.0, 0.0, 0.0, 0.0, -150.47194367312716, 0.0]
['beep', 0.0, -1182.2508194745565, 0.0, 0.0, 0.0, 0.0, -159.4796966886159, 0.0]
['beep', 0.0, -1183.9942555420705, 0.0, 0.0, 0.0, 0.0, -190.861545903867, 0.0]
['beep', 0.0, -1183.9048485642493, 0.0, 0.0, 0.0, 0.0, -196.42713027323848, 0.0]
['beep', 0.0, -1185.8047468429502, 0.0, 0.0, 0.0, 0.0, -187.12880457983073, 0.0]
['beep', 0.0, -1185.0894910203804, 0.0, 0.0, 0.0, 0.0, -144.77224883702385, 0.0]
['beep', 0.0, -1184.5083456645425, 0.0, 0.0, 0.0, 0.0, -158.09388853238684, 0.0]
['beep', 0.0, -1183.9495520531598, 0.0, 0.0, 0.0, 0.0, -193.11907209385302, 0.0]
['beep', 0.0, -1183.9495520531598, 0.0, 0.0, 0.0, 0.0, -197.27649656254013, 0.0]
['beep', 0.0, -1184.687159620185, 0.0, 0.0, 0.0, 0.0, -187.46408074666033, 0.0]
['beep', 0.0, -1185.0671392759252, 0.0, 0.0, 0.0, 0.0, -145.08517325939815, 0.0]
['beep', 0.0, -1184.910677064738, 0.0, 0.0, 0.0, 0.0, -158.60797865485893, 0.0]
['beep', 0.0, -1184.9553805536486, 0.0, 0.0, 0.0, 0.0, -192.02383661554296, 0.0]
['beep', 0.0, -1184.5754008979084, 0.0, 0.0, 0.0, 0.0, -196.1589093397748, 0.0]
['beep', 0.0, -1183.748386353062, 0.0, 0.0, 0.0, 0.0, -186.54765922399275, 0.0]
['beep', 0.0, -1182.362578196833, 0.0, 0.0, 0.0, 0.0, -142.87235055832275, 0.0]
['beep', 0.0, -1180.8873630627827, 0.0, 0.0, 0.0, 0.0, -157.37863270981703, 0.0]
['beep', 0.0, -1181.42380492971, 0.0, 0.0, 0.0, 0.0, -192.98496162712118, 0.0]
['beep', 0.0, -1181.3120462074335, 0.0, 0.0, 0.0, 0.0, -196.02479887304293, 0.0]
['beep', 0.0, -1181.3120462074335, 0.0, 0.0, 0.0, 0.0, -187.44172900220502, 0.0]
['beep', 0.0, -1181.1555839962464, 0.0, 0.0, 0.0, 0.0, -147.20858898265232, 0.0]
['beep', 0.0, -1181.8261363299057, 0.0, 0.0, 0.0, 0.0, -158.00448155456561, 0.0]
['beep', 0.0, -1183.5695723974195, 0.0, 0.0, 0.0, 0.0, -190.5039179925821, 0.0]
['beep', 0.0, -1182.5413921524755, 0.0, 0.0, 0.0, 0.0, -197.27649656254013, 0.0]
['beep', 0.0, -1182.6084473858414, 0.0, 0.0, 0.0, 0.0, -186.90528713527766, 0.0]
['beep', 0.0, -1183.167240997224, 0.0, 0.0, 0.0, 0.0, -149.46611517263833, 0.0]
['beep', 0.0, -1182.8096130859392, 0.0, 0.0, 0.0, 0.0, -158.63033039931423, 0.0]
['beep', 0.0, -1182.3849299412884, 0.0, 0.0, 0.0, 0.0, -187.88876389131116, 0.0]
['beep', 0.0, -1182.4966886635648, 0.0, 0.0, 0.0, 0.0, -194.99661862809882, 0.0]
['beep', 0.0, -1181.8708398188162, 0.0, 0.0, 0.0, 0.0, -187.21821155765195, 0.0]
['beep', 0.0, -1181.7590810965396, 0.0, 0.0, 0.0, 0.0, -145.97924303761042, 0.0]
['beep', 0.0, -1183.1001857638582, 0.0, 0.0, 0.0, 0.0, -159.5020484330712, 0.0]
['beep', 0.0, -1183.7707380975173, 0.0, 0.0, 0.0, 0.0, -192.6943889492022, 0.0]
['beep', 0.0, -1184.173069497713, 0.0, 0.0, 0.0, 0.0, -196.27066806205133, 0.0]
['beep', 0.0, -1183.5695723974195, 0.0, 0.0, 0.0, 0.0, -187.0170458575542, 0.0]
['beep', 0.0, -1184.0613107754364, 0.0, 0.0, 0.0, 0.0, -146.91801630473333, 0.0]
['beep', 0.0, -1184.2848282199893, 0.0, 0.0, 0.0, 0.0, -157.9374263211997, 0.0]
['beep', 0.0, -1184.5083456645425, 0.0, 0.0, 0.0, 0.0, -190.59332497040333, 0.0]
['beep', 0.0, -1182.7872613414838, 0.0, 0.0, 0.0, 0.0, -196.69535120670216, 0.0]
['beep', 0.0, -1183.3460549528666, 0.0, 0.0, 0.0, 0.0, -188.49226099160447, 0.0]
['beep', 0.0, -1184.7765665980062, 0.0, 0.0, 0.0, 0.0, -149.13083900580872, 0.0]
['beep', 0.0, -1184.7989183424615, 0.0, 0.0, 0.0, 0.0, -159.59145541089242, 0.0]
['beep', 0.0, -1184.4636421756318, 0.0, 0.0, 0.0, 0.0, -191.42033951524968, 0.0]
['beep', 0.0, -1184.5754008979084, 0.0, 0.0, 0.0, 0.0, -197.58942098491443, 0.0]
['beep', 0.0, -1185.134194509291, 0.0, 0.0, 0.0, 0.0, -190.8168424149564, 0.0]
['beep', 0.0, -1184.4636421756318, 0.0, 0.0, 0.0, 0.0, -145.82278082642327, 0.0]
['beep', 0.0, -1185.357711953844, 0.0, 0.0, 0.0, 0.0, -156.79748735397905, 0.0]
['beep', 0.0, -1185.0447875314699, 0.0, 0.0, 0.0, 0.0, -192.3591127823726, 0.0]
['beep', 0.0, -1183.6142758863302, 0.0, 0.0, 0.0, 0.0, -195.44365351720495, 0.0]
['beep', 0.0, -1183.0331305304921, 0.0, 0.0, 0.0, 0.0, -185.8324034014229, 0.0]
['beep', 0.0, -1183.7260346086068, 0.0, 0.0, 0.0, 0.0, -144.21345522564116, 0.0]
['beep', 0.0, -1184.8659735758274, 0.0, 0.0, 0.0, 0.0, -161.87133334533374, 0.0]
['beep', 0.0, -1184.620104386819, 0.0, 0.0, 0.0, 0.0, -192.0908918489089, 0.0]
['beep', 0.0, -1184.910677064738, 0.0, 0.0, 0.0, 0.0, -194.37076978335023, 0.0]
['beep', 0.0, -1184.8212700869167, 0.0, 0.0, 0.0, 0.0, -187.3970255132944, 0.0]
['beep', 0.0, -1183.748386353062, 0.0, 0.0, 0.0, 0.0, -149.3990599392724, 0.0]
['beep', 0.0, -1184.396586942266, 0.0, 0.0, 0.0, 0.0, -157.40098445427233, 0.0]
['beep', 0.0, -1185.0447875314699, 0.0, 0.0, 0.0, 0.0, -189.78866217001226, 0.0]
['beep', 0.0, -1185.6706363762185, 0.0, 0.0, 0.0, 0.0, -193.92373489424406, 0.0]
['beep', 0.0, -1184.6424561312742, 0.0, 0.0, 0.0, 0.0, -186.88293539082235, 0.0]
['beep', 0.0, -1186.1176712653246, 0.0, 0.0, 0.0, 0.0, -143.31938544742889, 0.0]
['beep', 0.0, -1186.4976509210649, 0.0, 0.0, 0.0, 0.0, -157.35628096536172, 0.0]
['beep', 0.0, -1185.4247671872101, 0.0, 0.0, 0.0, 0.0, -192.82849941593403, 0.0]
['beep', 0.0, -1185.2459532315677, 0.0, 0.0, 0.0, 0.0, -196.00244712858762, 0.0]
['beep', 0.0, -1185.1565462537465, 0.0, 0.0, 0.0, 0.0, -188.5816679694257, 0.0]
['beep', 0.0, -1184.977732298104, 0.0, 0.0, 0.0, 0.0, -148.348527949873, 0.0]
['beep', 0.0, -1185.1118427648357, 0.0, 0.0, 0.0, 0.0, -156.283397231507, 0.0]
['beep', 0.0, -1186.2517817320565, 0.0, 0.0, 0.0, 0.0, -190.861545903867, 0.0]
['beep', 0.0, -1185.9835607985926, 0.0, 0.0, 0.0, 0.0, -195.10837735037535, 0.0]
['beep', 0.0, -1185.5588776539419, 0.0, 0.0, 0.0, 0.0, -187.7099499356687, 0.0]
['beep', 0.0, -1186.363540454333, 0.0, 0.0, 0.0, 0.0, -146.96271979364394, 0.0]
['beep', 0.0, -1186.5647061544307, 0.0, 0.0, 0.0, 0.0, -155.3893274532947, 0.0]
['beep', 0.0, -1186.2741334765117, 0.0, 0.0, 0.0, 0.0, -188.2240400581408, 0.0]
['beep', 0.0, -1186.6317613877966, 0.0, 0.0, 0.0, 0.0, -193.0520168604871, 0.0]
['beep', 0.0, -1186.6764648767073, 0.0, 0.0, 0.0, 0.0, -187.21821155765195, 0.0]
['beep', 0.0, -1185.2906567204782, 0.0, 0.0, 0.0, 0.0, -147.7897343384903, 0.0]
['beep', 0.0, -1185.3130084649335, 0.0, 0.0, 0.0, 0.0, -153.64589138578074, 0.0]
['beep', 0.0, -1185.4247671872101, 0.0, 0.0, 0.0, 0.0, -188.46990924714916, 0.0]
['beep', 0.0, -1186.1176712653246, 0.0, 0.0, 0.0, 0.0, -194.39312152780553, 0.0]
['beep', 0.0, -1184.5083456645425, 0.0, 0.0, 0.0, 0.0, -190.30275229248434, 0.0]
['beep', 0.0, -1185.201249742657, 0.0, 0.0, 0.0, 0.0, -151.14249600678636, 0.0]
['beep', 0.0, -1184.7318631090955, 0.0, 0.0, 0.0, 0.0, -157.49039143209356, 0.0]
['beep', 0.0, -1184.2848282199893, 0.0, 0.0, 0.0, 0.0, -188.53696448051508, 0.0]
['beep', 0.0, -1184.1060142643469, 0.0, 0.0, 0.0, 0.0, -193.94608663869937, 0.0]
['beep', 0.0, -1183.6589793752407, 0.0, 0.0, 0.0, 0.0, -186.50295573508214, 0.0]
['beep', 0.0, -1184.1507177532576, 0.0, 0.0, 0.0, 0.0, -147.94619654967744, 0.0]
['beep', 0.0, -1184.5754008979084, 0.0, 0.0, 0.0, 0.0, -154.65171988626957, 0.0]
['beep', 0.0, -1185.782395098495, 0.0, 0.0, 0.0, 0.0, -189.69925519219103, 0.0]
['beep', 0.0, -1185.8270985874055, 0.0, 0.0, 0.0, 0.0, -194.70604595017983, 0.0]
['beep', 0.0, -1185.5141741650314, 0.0, 0.0, 0.0, 0.0, -185.05009234548717, 0.0]
['beep', 0.0, -1184.3518834533554, 0.0, 0.0, 0.0, 0.0, -145.77807733751266, 0.0]
['beep', 0.0, -1184.5306974089979, 0.0, 0.0, 0.0, 0.0, -154.53996116399304, 0.0]
['beep', 0.0, -1184.038959030981, 0.0, 0.0, 0.0, 0.0, -188.2463918025961, 0.0]
['beep', 0.0, -1184.7318631090955, 0.0, 0.0, 0.0, 0.0, -192.60498197138097, 0.0]
['beep', 0.0, -1184.7765665980062, 0.0, 0.0, 0.0, 0.0, -184.4912987341045, 0.0]
['beep', 0.0, -1185.849450331861, 0.0, 0.0, 0.0, 0.0, -144.07934475890931, 0.0]
['beep', 0.0, -1185.715339865129, 0.0, 0.0, 0.0, 0.0, -155.41167919775, 0.0]
['beep', 0.0, -1186.3411887098778, 0.0, 0.0, 0.0, 0.0, -189.52044123654858, 0.0]
['beep', 0.0, -1185.9165055652268, 0.0, 0.0, 0.0, 0.0, -193.0296651160318, 0.0]
['beep', 0.0, -1184.910677064738, 0.0, 0.0, 0.0, 0.0, -187.64289470230278, 0.0]
['beep', 0.0, -1184.7318631090955, 0.0, 0.0, 0.0, 0.0, -146.98507153809925, 0.0]
['beep', 0.0, -1184.687159620185, 0.0, 0.0, 0.0, 0.0, -153.57883615241482, 0.0]
['beep', 0.0, -1185.8270985874055, 0.0, 0.0, 0.0, 0.0, -188.80518541397876, 0.0]
['beep', 0.0, -1185.3130084649335, 0.0, 0.0, 0.0, 0.0, -192.56027848247035, 0.0]
['beep', 0.0, -1185.4471189316653, 0.0, 0.0, 0.0, 0.0, -182.6137521998587, 0.0]
['beep', 0.0, -1184.843621831372, 0.0, 0.0, 0.0, 0.0, -144.6157866258367, 0.0]
['beep', 0.0, -1185.3130084649335, 0.0, 0.0, 0.0, 0.0, -156.48456293160476, 0.0]
['beep', 0.0, -1186.4529474321541, 0.0, 0.0, 0.0, 0.0, -188.82753715843407, 0.0]
['beep', 0.0, -1185.335360209389, 0.0, 0.0, 0.0, 0.0, -194.08019710543124, 0.0]
['beep', 0.0, -1184.2624764755342, 0.0, 0.0, 0.0, 0.0, -183.15019406678607, 0.0]
['beep', 0.0, -1184.2848282199893, 0.0, 0.0, 0.0, 0.0, -144.8840075593004, 0.0]
['beep', 0.0, -1185.2236014871123, 0.0, 0.0, 0.0, 0.0, -153.93646406369973, 0.0]
['beep', 0.0, -1186.3858921987883, 0.0, 0.0, 0.0, 0.0, -186.50295573508214, 0.0]
['beep', 0.0, -1185.335360209389, 0.0, 0.0, 0.0, 0.0, -191.68856044871336, 0.0]
['beep', 0.0, -1184.396586942266, 0.0, 0.0, 0.0, 0.0, -185.38536851231677, 0.0]
['beep', 0.0, -1185.2236014871123, 0.0, 0.0, 0.0, 0.0, -150.5837023954037, 0.0]
['beep', 0.0, -1184.173069497713, 0.0, 0.0, 0.0, 0.0, -156.6410251427919, 0.0]
['beep', 0.0, -1183.2119444861346, 0.0, 0.0, 0.0, 0.0, -189.2522203030849, 0.0]
['beep', 0.0, -1182.8319648303946, 0.0, 0.0, 0.0, 0.0, -193.700217449691, 0.0]
['beep', 0.0, -1182.1614124967352, 0.0, 0.0, 0.0, 0.0, -183.9325051227218, 0.0]
['beep', 0.0, -1181.6026188853525, 0.0, 0.0, 0.0, 0.0, -147.76738259403498, 0.0]
['beep', 0.0, -1182.6978543636626, 0.0, 0.0, 0.0, 0.0, -153.22120824112991, 0.0]
['beep', 0.0, -1182.3402264523777, 0.0, 0.0, 0.0, 0.0, -185.20655455667432, 0.0]
['beep', 0.0, -1181.3791014407996, 0.0, 0.0, 0.0, 0.0, -192.67203720474689, 0.0]
['beep', 0.0, -1182.3402264523777, 0.0, 0.0, 0.0, 0.0, -187.26291504656257, 0.0]
['beep', 0.0, -1181.8708398188162, 0.0, 0.0, 0.0, 0.0, -147.4544581716607, 0.0]
['beep', 0.0, -1181.6696741187184, 0.0, 0.0, 0.0, 0.0, -155.0764030309204, 0.0]
['beep', 0.0, -1181.5355636519866, 0.0, 0.0, 0.0, 0.0, -187.0393976020095, 0.0]
['beep', 0.0, -1182.2508194745565, 0.0, 0.0, 0.0, 0.0, -192.04618835999827, 0.0]
['beep', 0.0, -1183.815441586428, 0.0, 0.0, 0.0, 0.0, -182.45728998867156, 0.0]
['beep', 0.0, -1183.1001857638582, 0.0, 0.0, 0.0, 0.0, -146.89566456027802, 0.0]
['beep', 0.0, -1182.8543165748497, 0.0, 0.0, 0.0, 0.0, -154.4282024417165, 0.0]
['beep', 0.0, -1183.524868908509, 0.0, 0.0, 0.0, 0.0, -187.3970255132944, 0.0]
['beep', 0.0, -1182.720206108118, 0.0, 0.0, 0.0, 0.0, -193.20847907167425, 0.0]
['beep', 0.0, -1183.2789997195007, 0.0, 0.0, 0.0, 0.0, -185.7876999125123, 0.0]
['beep', 0.0, -1183.6142758863302, 0.0, 0.0, 0.0, 0.0, -150.67310937322492, 0.0]
['beep', 0.0, -1183.3013514639558, 0.0, 0.0, 0.0, 0.0, -154.98699605309918, 0.0]
['beep', 0.0, -1183.1448892527687, 0.0, 0.0, 0.0, 0.0, -186.57001096844806, 0.0]
['beep', 0.0, -1183.390758441777, 0.0, 0.0, 0.0, 0.0, -191.37563602633907, 0.0]
['beep', 0.0, -1182.8543165748497, 0.0, 0.0, 0.0, 0.0, -182.32317952193972, 0.0]
['beep', 0.0, -1182.8319648303946, 0.0, 0.0, 0.0, 0.0, -144.056993014454, 0.0]
['beep', 0.0, -1183.9942555420705, 0.0, 0.0, 0.0, 0.0, -155.54578966448184, 0.0]
['beep', 0.0, -1184.6424561312742, 0.0, 0.0, 0.0, 0.0, -187.3970255132944, 0.0]
['beep', 0.0, -1182.943723552671, 0.0, 0.0, 0.0, 0.0, -192.31440929346198, 0.0]
['beep', 0.0, -1181.8931915632716, 0.0, 0.0, 0.0, 0.0, -185.20655455667432, 0.0]
['beep', 0.0, -1181.937895052182, 0.0, 0.0, 0.0, 0.0, -147.56621689393722, 0.0]
['beep', 0.0, -1181.557915396442, 0.0, 0.0, 0.0, 0.0, -151.14249600678636, 0.0]
['beep', 0.0, -1181.0661770184252, 0.0, 0.0, 0.0, 0.0, -182.81491789995647, 0.0]
['beep', 0.0, -1181.1555839962464, 0.0, 0.0, 0.0, 0.0, -188.6263714583363, 0.0]
['beep', 0.0, -1182.1614124967352, 0.0, 0.0, 0.0, 0.0, -183.15019406678607, 0.0]
['beep', 0.0, -1184.8883253202828, 0.0, 0.0, 0.0, 0.0, -143.7440685920797, 0.0]
['beep', 0.0, -1186.0282642875034, 0.0, 0.0, 0.0, 0.0, -147.92384480522213, 0.0]
['beep', 0.0, -1185.782395098495, 0.0, 0.0, 0.0, 0.0, -183.64193244480282, 0.0]
['beep', 0.0, -1184.910677064738, 0.0, 0.0, 0.0, 0.0, -190.7944906705011, 0.0]
['beep', 0.0, -1184.2624764755342, 0.0, 0.0, 0.0, 0.0, -181.09383357689782, 0.0]
['beep', 0.0, -1185.5812293983972, 0.0, 0.0, 0.0, 0.0, -144.12404824781993, 0.0]
['beep', 0.0, -1185.4471189316653, 0.0, 0.0, 0.0, 0.0, -152.77417335202378, 0.0]
['beep', 0.0, -1185.335360209389, 0.0, 0.0, 0.0, 0.0, -185.1394993233084, 0.0]
['beep', 0.0, -1184.7765665980062, 0.0, 0.0, 0.0, 0.0, -191.24152555960723, 0.0]
['beep', 0.0, -1184.7318631090955, 0.0, 0.0, 0.0, 0.0, -182.47964173312687, 0.0]
['beep', 0.0, -1185.2459532315677, 0.0, 0.0, 0.0, 0.0, -146.4933331600825, 0.0]
['beep', 0.0, -1185.5588776539419, 0.0, 0.0, 0.0, 0.0, -151.00838554005452, 0.0]
['beep', 0.0, -1185.7376916095843, 0.0, 0.0, 0.0, 0.0, -183.66428418925813, 0.0]
['beep', 0.0, -1185.1565462537465, 0.0, 0.0, 0.0, 0.0, -191.8226709154452, 0.0]
['beep', 0.0, -1184.620104386819, 0.0, 0.0, 0.0, 0.0, -185.02774060103187, 0.0]
['beep', 0.0, -1185.134194509291, 0.0, 0.0, 0.0, 0.0, -146.2698157155294, 0.0]
['beep', 0.0, -1185.134194509291, 0.0, 0.0, 0.0, 0.0, -151.47777217361596, 0.0]
['beep', 0.0, -1184.7989183424615, 0.0, 0.0, 0.0, 0.0, -186.9946941130989, 0.0]
['beep', 0.0, -1184.5754008979084, 0.0, 0.0, 0.0, 0.0, -190.90624939277762, 0.0]
['beep', 0.0, -1184.4412904311766, 0.0, 0.0, 0.0, 0.0, -184.53600222301512, 0.0]
['beep', 0.0, -1184.1060142643469, 0.0, 0.0, 0.0, 0.0, -150.24842622857406, 0.0]
['beep', 0.0, -1183.1225375083134, 0.0, 0.0, 0.0, 0.0, -153.31061521895114, 0.0]
['beep', 0.0, -1184.3518834533554, 0.0, 0.0, 0.0, 0.0, -184.87127838984472, 0.0]
['beep', 0.0, -1183.9942555420705, 0.0, 0.0, 0.0, 0.0, -190.03453135902063, 0.0]
['beep', 0.0, -1182.3849299412884, 0.0, 0.0, 0.0, 0.0, -182.2114207996632, 0.0]
['beep', 0.0, -1183.0554822749475, 0.0, 0.0, 0.0, 0.0, -150.2707779730294, 0.0]
['beep', 0.0, -1183.1225375083134, 0.0, 0.0, 0.0, 0.0, -152.41654544073887, 0.0]
['beep', 0.0, -1183.2789997195007, 0.0, 0.0, 0.0, 0.0, -185.67594119023576, 0.0]
['beep', 0.0, -1183.524868908509, 0.0, 0.0, 0.0, 0.0, -191.59915347089213, 0.0]
['beep', 0.0, -1184.2401247310788, 0.0, 0.0, 0.0, 0.0, -184.7818714120235, 0.0]
['beep', 0.0, -1183.167240997224, 0.0, 0.0, 0.0, 0.0, -143.81112382544563, 0.0]
['beep', 0.0, -1183.748386353062, 0.0, 0.0, 0.0, 0.0, -148.61674888333667, 0.0]
['beep', 0.0, -1183.7707380975173, 0.0, 0.0, 0.0, 0.0, -186.03356910152067, 0.0]
['beep', 0.0, -1184.6648078757296, 0.0, 0.0, 0.0, 0.0, -192.0908918489089, 0.0]
['beep', 0.0, -1183.4801654195983, 0.0, 0.0, 0.0, 0.0, -187.0393976020095, 0.0]
['beep', 0.0, -1182.6084473858414, 0.0, 0.0, 0.0, 0.0, -151.9471588071774, 0.0]
['beep', 0.0, -1182.5413921524755, 0.0, 0.0, 0.0, 0.0, -152.08126927390924, 0.0]
['beep', 0.0, -1182.3849299412884, 0.0, 0.0, 0.0, 0.0, -183.10549057787546, 0.0]
['beep', 0.0, -1182.720206108118, 0.0, 0.0, 0.0, 0.0, -190.57097322594802, 0.0]
['beep', 0.0, -1181.5132119075313, 0.0, 0.0, 0.0, 0.0, -184.4689469896492, 0.0]
['beep', 0.0, -1180.619142129319, 0.0, 0.0, 0.0, 0.0, -147.90149306076682, 0.0]
['beep', 0.0, -1183.1225375083134, 0.0, 0.0, 0.0, 0.0, -151.47777217361596, 0.0]
['beep', 0.0, -1182.4072816857436, 0.0, 0.0, 0.0, 0.0, -182.2337725441185, 0.0]
['beep', 0.0, -1182.0943572633694, 0.0, 0.0, 0.0, 0.0, -189.74395868110165, 0.0]
['beep', 0.0, -1182.0049502855481, 0.0, 0.0, 0.0, 0.0, -182.52434522203748, 0.0]
['beep', 0.0, -1181.937895052182, 0.0, 0.0, 0.0, 0.0, -147.94619654967744, 0.0]
['beep', 0.0, -1181.0885287628805, 0.0, 0.0, 0.0, 0.0, -153.8023535969679, 0.0]
['beep', 0.0, -1181.5355636519866, 0.0, 0.0, 0.0, 0.0, -181.87614463283356, 0.0]
['beep', 0.0, -1181.937895052182, 0.0, 0.0, 0.0, 0.0, -190.07923484793127, 0.0]
['beep', 0.0, -1182.586095641386, 0.0, 0.0, 0.0, 0.0, -182.2561242885738, 0.0]
['beep', 0.0, -1181.7590810965396, 0.0, 0.0, 0.0, 0.0, -148.05795527195397, 0.0]
['beep', 0.0, -1182.4072816857436, 0.0, 0.0, 0.0, 0.0, -149.30965296145118, 0.0]
['beep', 0.0, -1184.0613107754364, 0.0, 0.0, 0.0, 0.0, -181.47381323263804, 0.0]
['beep', 0.0, -1182.6755026192072, 0.0, 0.0, 0.0, 0.0, -187.44172900220502, 0.0]
['beep', 0.0, -1182.2731712190118, 0.0, 0.0, 0.0, 0.0, -180.80326089897883, 0.0]
['beep', 0.0, -1182.1167090078245, 0.0, 0.0, 0.0, 0.0, -147.96854829413275, 0.0]
['beep', 0.0, -1182.876668319305, 0.0, 0.0, 0.0, 0.0, -145.37574593731713, 0.0]
['beep', 0.0, -1183.0554822749475, 0.0, 0.0, 0.0, 0.0, -180.57974345442577, 0.0]
['beep', 0.0, -1182.3178747079223, 0.0, 0.0, 0.0, 0.0, -187.77700516903462, 0.0]
['beep', 0.0, -1182.1614124967352, 0.0, 0.0, 0.0, 0.0, -180.62444694333638, 0.0]
['beep', 0.0, -1182.228467730101, 0.0, 0.0, 0.0, 0.0, -147.32034770492885, 0.0]
['beep', 0.0, -1181.8261363299057, 0.0, 0.0, 0.0, 0.0, -148.7508593500685, 0.0]
['beep', 0.0, -1182.6084473858414, 0.0, 0.0, 0.0, 0.0, -181.7196824216464, 0.0]
['beep', 0.0, -1182.7872613414838, 0.0, 0.0, 0.0, 0.0, -186.90528713527766, 0.0]
['beep', 0.0, -1181.2896944629783, 0.0, 0.0, 0.0, 0.0, -179.26099053156264, 0.0]
['beep', 0.0, -1180.9320665516934, 0.0, 0.0, 0.0, 0.0, -147.34269944938416, 0.0]
['beep', 0.0, -1181.714377607629, 0.0, 0.0, 0.0, 0.0, -148.90732156125566, 0.0]
['beep', 0.0, -1183.23429623059, 0.0, 0.0, 0.0, 0.0, -179.57391495393694, 0.0]
['beep', 0.0, -1182.1837642411906, 0.0, 0.0, 0.0, 0.0, -187.732301680124, 0.0]
['beep', 0.0, -1181.4461566741654, 0.0, 0.0, 0.0, 0.0, -180.13270856531963, 0.0]
['beep', 0.0, -1182.429633430199, 0.0, 0.0, 0.0, 0.0, -142.53707439149315, 0.0]
['beep', 0.0, -1184.1283660088022, 0.0, 0.0, 0.0, 0.0, -144.48167615910486, 0.0]
['beep', 0.0, -1183.7260346086068, 0.0, 0.0, 0.0, 0.0, -181.89849637728886, 0.0]
['beep', 0.0, -1183.882496819794, 0.0, 0.0, 0.0, 0.0, -186.9946941130989, 0.0]
