['beep', 0.0, -1270.7413757731172, 0.0, 0.0, 0.0, 0.0, -129.7295248186022, 0.0]
['beep', 0.0, -1270.7860792620277, 0.0, 0.0, 0.0, 0.0, -129.57306260741504, 0.0]
['beep', 0.0, -1271.4342798512316, 0.0, 0.0, 0.0, 0.0, -129.4389521406832, 0.0]
['beep', 0.0, -1271.5013350845975, 0.0, 0.0, 0.0, 0.0, -129.34954516286197, 0.0]
['beep', 0.0, -1271.3001693845, 0.0, 0.0, 0.0, 0.0, -129.32719341840667, 0.0]
['beep', 0.0, -1272.4624600961758, 0.0, 0.0, 0.0, 0.0, -130.46713238562734, 0.0]
['beep', 0.0, -1272.1942391627122, 0.0, 0.0, 0.0, 0.0, -129.68482132969157, 0.0]
['beep', 0.0, -1271.4119281067763, 0.0, 0.0, 0.0, 0.0, -130.57889110790387, 0.0]
['beep', 0.0, -1271.7025007846953, 0.0, 0.0, 0.0, 0.0, -130.44478064117203, 0.0]
['beep', 0.0, -1271.1213554288574, 0.0, 0.0, 0.0, 0.0, -129.88598702978933, 0.0]
['beep', 0.0, -1271.5460385735082, 0.0, 0.0, 0.0, 0.0, -129.84128354087872, 0.0]
['beep', 0.0, -1272.3059978849885, 0.0, 0.0, 0.0, 0.0, -130.91416727473347, 0.0]
['beep', 0.0, -1273.5129920855752, 0.0, 0.0, 0.0, 0.0, -131.09298123037593, 0.0]
['beep', 0.0, -1274.5411723305194, 0.0, 0.0, 0.0, 0.0, -130.44478064117203, 0.0]
['beep', 0.0, -1271.0766519399467, 0.0, 0.0, 0.0, 0.0, -129.28248992949605, 0.0]
['beep', 0.0, -1269.064994938969, 0.0, 0.0, 0.0, 0.0, -130.6459463412698, 0.0]
['beep', 0.0, -1271.0095967065809, 0.0, 0.0, 0.0, 0.0, -132.5234928755156, 0.0]
['beep', 0.0, -1272.0154252070697, 0.0, 0.0, 0.0, 0.0, -131.6964783306692, 0.0]
['beep', 0.0, -1270.3390443729215, 0.0, 0.0, 0.0, 0.0, -131.74118181957982, 0.0]
['beep', 0.0, -1269.9590647171815, 0.0, 0.0, 0.0, 0.0, -132.74701032006865, 0.0]
['beep', 0.0, -1270.4284513507428, 0.0, 0.0, 0.0, 0.0, -133.28345218699602, 0.0]
['beep', 0.0, -1270.3390443729215, 0.0, 0.0, 0.0, 0.0, -133.68578358719154, 0.0]
['beep', 0.0, -1269.6684920392624, 0.0, 0.0, 0.0, 0.0, -133.28345218699602, 0.0]
['beep', 0.0, -1268.9979397056031, 0.0, 0.0, 0.0, 0.0, -133.1940452091748, 0.0]
['beep', 0.0, -1269.355567616888, 0.0, 0.0, 0.0, 0.0, -134.2222254541189, 0.0]
['beep', 0.0, -1268.4167943497653, 0.0, 0.0, 0.0, 0.0, -133.37285916481724, 0.0]
['beep', 0.0, -1268.841477494416, 0.0, 0.0, 0.0, 0.0, -133.2163969536301, 0.0]
['beep', 0.0, -1268.3050356274887, 0.0, 0.0, 0.0, 0.0, -134.06576324293175, 0.0]
['beep', 0.0, -1268.4391460942204, 0.0, 0.0, 0.0, 0.0, -134.04341149847644, 0.0]
['beep', 0.0, -1269.0873466834244, 0.0, 0.0, 0.0, 0.0, -134.91512953223344, 0.0]
['beep', 0.0, -1269.6014368058964, 0.0, 0.0, 0.0, 0.0, -133.9316527761999, 0.0]
['beep', 0.0, -1269.713195528173, 0.0, 0.0, 0.0, 0.0, -134.1998737096636, 0.0]
['beep', 0.0, -1268.841477494416, 0.0, 0.0, 0.0, 0.0, -135.92095803272224, 0.0]
['beep', 0.0, -1268.39444260531, 0.0, 0.0, 0.0, 0.0, -134.8033708099569, 0.0]
['beep', 0.0, -1269.0873466834244, 0.0, 0.0, 0.0, 0.0, -134.66926034322506, 0.0]
['beep', 0.0, -1269.5343815725305, 0.0, 0.0, 0.0, 0.0, -134.98218476559936, 0.0]
['beep', 0.0, -1268.1709251607567, 0.0, 0.0, 0.0, 0.0, -134.51279813203791, 0.0]
['beep', 0.0, -1268.1262216718462, 0.0, 0.0, 0.0, 0.0, -136.3456411773731, 0.0]
['beep', 0.0, -1269.713195528173, 0.0, 0.0, 0.0, 0.0, -134.95983302114405, 0.0]
['beep', 0.0, -1270.2272856506452, 0.0, 0.0, 0.0, 0.0, -135.4962748880714, 0.0]
['beep', 0.0, -1270.0708234394579, 0.0, 0.0, 0.0, 0.0, -136.97149002212169, 0.0]
['beep', 0.0, -1270.651968795296, 0.0, 0.0, 0.0, 0.0, -136.50210338856024, 0.0]
['beep', 0.0, -1271.0319484510362, 0.0, 0.0, 0.0, 0.0, -137.7090975891468, 0.0]
['beep', 0.0, -1270.2272856506452, 0.0, 0.0, 0.0, 0.0, -137.0385452554876, 0.0]
['beep', 0.0, -1272.127183929346, 0.0, 0.0, 0.0, 0.0, -136.6809173442027, 0.0]
['beep', 0.0, -1271.747204273606, 0.0, 0.0, 0.0, 0.0, -136.59151036638147, 0.0]
['beep', 0.0, -1270.2719891395557, 0.0, 0.0, 0.0, 0.0, -136.59151036638147, 0.0]
['beep', 0.0, -1270.4508030951981, 0.0, 0.0, 0.0, 0.0, -137.53028363350435, 0.0]
['beep', 0.0, -1270.58491356193, 0.0, 0.0, 0.0, 0.0, -136.6585655997474, 0.0]
['beep', 0.0, -1269.4002711057988, 0.0, 0.0, 0.0, 0.0, -136.56915862192616, 0.0]
['beep', 0.0, -1269.8249542504495, 0.0, 0.0, 0.0, 0.0, -136.993841766577, 0.0]
['beep', 0.0, -1269.7355472726283, 0.0, 0.0, 0.0, 0.0, -135.831551054901, 0.0]
['beep', 0.0, -1269.8920094838154, 0.0, 0.0, 0.0, 0.0, -135.02688825450997, 0.0]
['beep', 0.0, -1269.8696577393603, 0.0, 0.0, 0.0, 0.0, -135.51862663252672, 0.0]
['beep', 0.0, -1270.8531344953938, 0.0, 0.0, 0.0, 0.0, -136.32328943291776, 0.0]
['beep', 0.0, -1270.7860792620277, 0.0, 0.0, 0.0, 0.0, -137.28441444449598, 0.0]
['beep', 0.0, -1270.6743205397513, 0.0, 0.0, 0.0, 0.0, -137.84320805587865, 0.0]
['beep', 0.0, -1270.0261199505474, 0.0, 0.0, 0.0, 0.0, -138.67022260072503, 0.0]
['beep', 0.0, -1270.2272856506452, 0.0, 0.0, 0.0, 0.0, -137.3961731667725, 0.0]
['beep', 0.0, -1271.4342798512316, 0.0, 0.0, 0.0, 0.0, -137.0608969999429, 0.0]
['beep', 0.0, -1271.4119281067763, 0.0, 0.0, 0.0, 0.0, -136.6585655997474, 0.0]
['beep', 0.0, -1270.7413757731172, 0.0, 0.0, 0.0, 0.0, -135.4292196547055, 0.0]
['beep', 0.0, -1271.3001693845, 0.0, 0.0, 0.0, 0.0, -136.27858594400715, 0.0]
['beep', 0.0, -1271.4789833401423, 0.0, 0.0, 0.0, 0.0, -136.6585655997474, 0.0]
['beep', 0.0, -1270.6072653063852, 0.0, 0.0, 0.0, 0.0, -136.0997719883647, 0.0]
['beep', 0.0, -1270.5402100730194, 0.0, 0.0, 0.0, 0.0, -137.21735921113006, 0.0]
['beep', 0.0, -1269.9367129727261, 0.0, 0.0, 0.0, 0.0, -137.44087665568313, 0.0]
['beep', 0.0, -1268.7744222610502, 0.0, 0.0, 0.0, 0.0, -136.47975164410494, 0.0]
['beep', 0.0, -1269.064994938969, 0.0, 0.0, 0.0, 0.0, -136.27858594400715, 0.0]
['beep', 0.0, -1269.5567333169859, 0.0, 0.0, 0.0, 0.0, -135.7644958215351, 0.0]
['beep', 0.0, -1267.7909455050167, 0.0, 0.0, 0.0, 0.0, -135.69744058816917, 0.0]
['beep', 0.0, -1267.6568350382847, 0.0, 0.0, 0.0, 0.0, -135.4962748880714, 0.0]
['beep', 0.0, -1268.0591664384804, 0.0, 0.0, 0.0, 0.0, -137.0385452554876, 0.0]
['beep', 0.0, -1267.8580007383825, 0.0, 0.0, 0.0, 0.0, -137.53028363350435, 0.0]
['beep', 0.0, -1268.5285530720416, 0.0, 0.0, 0.0, 0.0, -135.831551054901, 0.0]
['beep', 0.0, -1268.7297187721394, 0.0, 0.0, 0.0, 0.0, -135.27275744351834, 0.0]
['beep', 0.0, -1269.1767536612456, 0.0, 0.0, 0.0, 0.0, -136.0774202439094, 0.0]
['beep', 0.0, -1268.6403117943182, 0.0, 0.0, 0.0, 0.0, -134.37868766530607, 0.0]
['beep', 0.0, -1268.7744222610502, 0.0, 0.0, 0.0, 0.0, -133.41756265372786, 0.0]
['beep', 0.0, -1268.1709251607567, 0.0, 0.0, 0.0, 0.0, -135.18335046569712, 0.0]
['beep', 0.0, -1267.455669338187, 0.0, 0.0, 0.0, 0.0, -136.27858594400715, 0.0]
['beep', 0.0, -1267.8132972494718, 0.0, 0.0, 0.0, 0.0, -136.3903446662837, 0.0]
['beep', 0.0, -1267.098041426902, 0.0, 0.0, 0.0, 0.0, -135.7644958215351, 0.0]
['beep', 0.0, -1268.4614978386758, 0.0, 0.0, 0.0, 0.0, -136.77032432202392, 0.0]
['beep', 0.0, -1269.7355472726283, 0.0, 0.0, 0.0, 0.0, -136.81502781093454, 0.0]
['beep', 0.0, -1269.1096984278797, 0.0, 0.0, 0.0, 0.0, -135.87625454381163, 0.0]
['beep', 0.0, -1270.8531344953938, 0.0, 0.0, 0.0, 0.0, -135.54097837698203, 0.0]
['beep', 0.0, -1271.9483699737036, 0.0, 0.0, 0.0, 0.0, -136.3679929218284, 0.0]
['beep', 0.0, -1270.6743205397513, 0.0, 0.0, 0.0, 0.0, -136.94913827766638, 0.0]
['beep', 0.0, -1269.9590647171815, 0.0, 0.0, 0.0, 0.0, -136.21153071064123, 0.0]
['beep', 0.0, -1269.8026025059942, 0.0, 0.0, 0.0, 0.0, -138.26789120052948, 0.0]
['beep', 0.0, -1270.2049339061898, 0.0, 0.0, 0.0, 0.0, -137.53028363350435, 0.0]
['beep', 0.0, -1269.4002711057988, 0.0, 0.0, 0.0, 0.0, -137.88791154478926, 0.0]
['beep', 0.0, -1269.7578990170837, 0.0, 0.0, 0.0, 0.0, -137.6643941002362, 0.0]
['beep', 0.0, -1269.5120298280751, 0.0, 0.0, 0.0, 0.0, -136.94913827766638, 0.0]
['beep', 0.0, -1270.160230417279, 0.0, 0.0, 0.0, 0.0, -138.33494643389542, 0.0]
['beep', 0.0, -1269.48967808362, 0.0, 0.0, 0.0, 0.0, -138.15613247825294, 0.0]
['beep', 0.0, -1270.7860792620277, 0.0, 0.0, 0.0, 0.0, -137.88791154478926, 0.0]
['beep', 0.0, -1270.1155269283686, 0.0, 0.0, 0.0, 0.0, -138.26789120052948, 0.0]
['beep', 0.0, -1270.0708234394579, 0.0, 0.0, 0.0, 0.0, -138.49140864508257, 0.0]
['beep', 0.0, -1270.0931751839132, 0.0, 0.0, 0.0, 0.0, -139.02785051200993, 0.0]
['beep', 0.0, -1270.8978379843043, 0.0, 0.0, 0.0, 0.0, -139.18431272319708, 0.0]
['beep', 0.0, -1271.0095967065809, 0.0, 0.0, 0.0, 0.0, -139.09490574537585, 0.0]
['beep', 0.0, -1270.7860792620277, 0.0, 0.0, 0.0, 0.0, -138.37964992280604, 0.0]
['beep', 0.0, -1270.3837478618323, 0.0, 0.0, 0.0, 0.0, -138.20083596716356, 0.0]
['beep', 0.0, -1267.7909455050167, 0.0, 0.0, 0.0, 0.0, -136.50210338856024, 0.0]
['beep', 0.0, -1266.6510065377959, 0.0, 0.0, 0.0, 0.0, -136.92678653321107, 0.0]
['beep', 0.0, -1266.6733582822512, 0.0, 0.0, 0.0, 0.0, -138.33494643389542, 0.0]
['beep', 0.0, -1265.265198381567, 0.0, 0.0, 0.0, 0.0, -137.3514696778619, 0.0]
['beep', 0.0, -1266.1369164153239, 0.0, 0.0, 0.0, 0.0, -137.12795223330883, 0.0]
['beep', 0.0, -1268.4614978386758, 0.0, 0.0, 0.0, 0.0, -135.4739231436161, 0.0]
['beep', 0.0, -1269.9590647171815, 0.0, 0.0, 0.0, 0.0, -136.74797257756862, 0.0]
['beep', 0.0, -1271.8589629958824, 0.0, 0.0, 0.0, 0.0, -136.7256208331133, 0.0]
['beep', 0.0, -1272.4177566072651, 0.0, 0.0, 0.0, 0.0, -136.77032432202392, 0.0]
['beep', 0.0, -1272.2836461405334, 0.0, 0.0, 0.0, 0.0, -136.993841766577, 0.0]
['beep', 0.0, -1271.2778176400445, 0.0, 0.0, 0.0, 0.0, -137.48558014459374, 0.0]
['beep', 0.0, -1271.0543001954914, 0.0, 0.0, 0.0, 0.0, -138.24553945607417, 0.0]
['beep', 0.0, -1270.3166926284664, 0.0, 0.0, 0.0, 0.0, -138.06672550043172, 0.0]
['beep', 0.0, -1270.0931751839132, 0.0, 0.0, 0.0, 0.0, -138.6255191118144, 0.0]
['beep', 0.0, -1270.58491356193, 0.0, 0.0, 0.0, 0.0, -139.83251331240098, 0.0]
['beep', 0.0, -1270.361396117377, 0.0, 0.0, 0.0, 0.0, -139.51958889002668, 0.0]
['beep', 0.0, -1270.2719891395557, 0.0, 0.0, 0.0, 0.0, -139.16196097874177, 0.0]
['beep', 0.0, -1270.58491356193, 0.0, 0.0, 0.0, 0.0, -139.16196097874177, 0.0]
['beep', 0.0, -1270.5625618174747, 0.0, 0.0, 0.0, 0.0, -138.53611213399319, 0.0]
['beep', 0.0, -1272.0601286959802, 0.0, 0.0, 0.0, 0.0, -137.73144933360211, 0.0]
['beep', 0.0, -1272.551867073997, 0.0, 0.0, 0.0, 0.0, -137.95496677815518, 0.0]
['beep', 0.0, -1272.0824804404356, 0.0, 0.0, 0.0, 0.0, -138.20083596716356, 0.0]
['beep', 0.0, -1272.1495356738014, 0.0, 0.0, 0.0, 0.0, -138.80433306745687, 0.0]
['beep', 0.0, -1271.0766519399467, 0.0, 0.0, 0.0, 0.0, -139.72075459012444, 0.0]
['beep', 0.0, -1270.6743205397513, 0.0, 0.0, 0.0, 0.0, -137.7090975891468, 0.0]
['beep', 0.0, -1271.0766519399467, 0.0, 0.0, 0.0, 0.0, -138.53611213399319, 0.0]
['beep', 0.0, -1270.6966722842064, 0.0, 0.0, 0.0, 0.0, -139.2290162121077, 0.0]
['beep', 0.0, -1271.0543001954914, 0.0, 0.0, 0.0, 0.0, -138.15613247825294, 0.0]
['beep', 0.0, -1271.6354455513294, 0.0, 0.0, 0.0, 0.0, -137.26206270004067, 0.0]
['beep', 0.0, -1271.3448728734104, 0.0, 0.0, 0.0, 0.0, -137.86555980033395, 0.0]
['beep', 0.0, -1272.7083292851842, 0.0, 0.0, 0.0, 0.0, -137.44087665568313, 0.0]
['beep', 0.0, -1273.8482682524048, 0.0, 0.0, 0.0, 0.0, -138.67022260072503, 0.0]
['beep', 0.0, -1273.267122896567, 0.0, 0.0, 0.0, 0.0, -137.50793188904905, 0.0]
['beep', 0.0, -1273.2000676632008, 0.0, 0.0, 0.0, 0.0, -137.9996702670658, 0.0]
['beep', 0.0, -1273.289474641022, 0.0, 0.0, 0.0, 0.0, -138.960795278644, 0.0]
['beep', 0.0, -1272.2165909071673, 0.0, 0.0, 0.0, 0.0, -138.80433306745687, 0.0]
['beep', 0.0, -1270.8531344953938, 0.0, 0.0, 0.0, 0.0, -138.960795278644, 0.0]
['beep', 0.0, -1270.942541473215, 0.0, 0.0, 0.0, 0.0, -136.97149002212169, 0.0]
['beep', 0.0, -1271.3672246178658, 0.0, 0.0, 0.0, 0.0, -137.53028363350435, 0.0]
['beep', 0.0, -1270.9872449621255, 0.0, 0.0, 0.0, 0.0, -138.44670515617196, 0.0]
['beep', 0.0, -1270.9648932176701, 0.0, 0.0, 0.0, 0.0, -137.86555980033395, 0.0]
['beep', 0.0, -1271.0543001954914, 0.0, 0.0, 0.0, 0.0, -137.82085631142334, 0.0]
['beep', 0.0, -1270.1825821617344, 0.0, 0.0, 0.0, 0.0, -137.6867458446915, 0.0]
['beep', 0.0, -1271.0319484510362, 0.0, 0.0, 0.0, 0.0, -137.95496677815518, 0.0]
['beep', 0.0, -1271.1884106622233, 0.0, 0.0, 0.0, 0.0, -139.16196097874177, 0.0]
['beep', 0.0, -1271.3895763623211, 0.0, 0.0, 0.0, 0.0, -139.29607144547361, 0.0]
['beep', 0.0, -1270.651968795296, 0.0, 0.0, 0.0, 0.0, -137.93261503369988, 0.0]
['beep', 0.0, -1271.1213554288574, 0.0, 0.0, 0.0, 0.0, -138.06672550043172, 0.0]
['beep', 0.0, -1270.942541473215, 0.0, 0.0, 0.0, 0.0, -138.5808156229038, 0.0]
['beep', 0.0, -1270.5625618174747, 0.0, 0.0, 0.0, 0.0, -137.7090975891468, 0.0]
['beep', 0.0, -1272.1718874182568, 0.0, 0.0, 0.0, 0.0, -138.13378073379764, 0.0]
['beep', 0.0, -1271.3895763623211, 0.0, 0.0, 0.0, 0.0, -138.29024294498478, 0.0]
['beep', 0.0, -1271.0095967065809, 0.0, 0.0, 0.0, 0.0, -138.06672550043172, 0.0]
['beep', 0.0, -1271.1213554288574, 0.0, 0.0, 0.0, 0.0, -138.84903655636748, 0.0]
['beep', 0.0, -1271.747204273606, 0.0, 0.0, 0.0, 0.0, -138.82668481191217, 0.0]
['beep', 0.0, -1271.7919077625165, 0.0, 0.0, 0.0, 0.0, -137.7090975891468, 0.0]
['beep', 0.0, -1272.127183929346, 0.0, 0.0, 0.0, 0.0, -139.8995685457669, 0.0]
['beep', 0.0, -1270.517858328564, 0.0, 0.0, 0.0, 0.0, -139.78780982349036, 0.0]
['beep', 0.0, -1271.3448728734104, 0.0, 0.0, 0.0, 0.0, -139.6089958678479, 0.0]
['beep', 0.0, -1271.456631595687, 0.0, 0.0, 0.0, 0.0, -140.4583621571496, 0.0]
['beep', 0.0, -1272.3954048628098, 0.0, 0.0, 0.0, 0.0, -139.5642923789373, 0.0]
['beep', 0.0, -1272.484811840631, 0.0, 0.0, 0.0, 0.0, -140.03367901249874, 0.0]
['beep', 0.0, -1272.1942391627122, 0.0, 0.0, 0.0, 0.0, -139.34077493438423, 0.0]
['beep', 0.0, -1272.3059978849885, 0.0, 0.0, 0.0, 0.0, -137.41852491122782, 0.0]
['beep', 0.0, -1271.6354455513294, 0.0, 0.0, 0.0, 0.0, -137.91026328924457, 0.0]
['beep', 0.0, -1272.0154252070697, 0.0, 0.0, 0.0, 0.0, -138.37964992280604, 0.0]
['beep', 0.0, -1273.267122896567, 0.0, 0.0, 0.0, 0.0, -137.91026328924457, 0.0]
['beep', 0.0, -1272.5071635850863, 0.0, 0.0, 0.0, 0.0, -137.77615282251273, 0.0]
['beep', 0.0, -1272.7306810296395, 0.0, 0.0, 0.0, 0.0, -137.26206270004067, 0.0]
['beep', 0.0, -1273.5129920855752, 0.0, 0.0, 0.0, 0.0, -138.6031673673591, 0.0]
['beep', 0.0, -1272.842439751916, 0.0, 0.0, 0.0, 0.0, -139.11725748983116, 0.0]
['beep', 0.0, -1273.065957196469, 0.0, 0.0, 0.0, 0.0, -138.98314702309932, 0.0]
['beep', 0.0, -1272.2836461405334, 0.0, 0.0, 0.0, 0.0, -138.29024294498478, 0.0]
['beep', 0.0, -1271.68014904024, 0.0, 0.0, 0.0, 0.0, -137.53028363350435, 0.0]
['beep', 0.0, -1272.5071635850863, 0.0, 0.0, 0.0, 0.0, -138.15613247825294, 0.0]
['beep', 0.0, -1272.8871432408266, 0.0, 0.0, 0.0, 0.0, -138.75962957854625, 0.0]
['beep', 0.0, -1273.0212537075583, 0.0, 0.0, 0.0, 0.0, -138.5808156229038, 0.0]
['beep', 0.0, -1273.267122896567, 0.0, 0.0, 0.0, 0.0, -137.73144933360211, 0.0]
['beep', 0.0, -1274.8988002418043, 0.0, 0.0, 0.0, 0.0, -139.05020225646524, 0.0]
['beep', 0.0, -1274.8988002418043, 0.0, 0.0, 0.0, 0.0, -138.46905690062727, 0.0]
['beep', 0.0, -1274.228247908145, 0.0, 0.0, 0.0, 0.0, -137.55263537795966, 0.0]
['beep', 0.0, -1274.3400066304216, 0.0, 0.0, 0.0, 0.0, -138.17848422270825, 0.0]
['beep', 0.0, -1274.809393263983, 0.0, 0.0, 0.0, 0.0, -137.53028363350435, 0.0]
['beep', 0.0, -1274.742338030617, 0.0, 0.0, 0.0, 0.0, -138.20083596716356, 0.0]
['beep', 0.0, -1273.937675230226, 0.0, 0.0, 0.0, 0.0, -139.49723714557138, 0.0]
['beep', 0.0, -1273.9153234857708, 0.0, 0.0, 0.0, 0.0, -138.6031673673591, 0.0]
['beep', 0.0, -1273.0212537075583, 0.0, 0.0, 0.0, 0.0, -139.34077493438423, 0.0]
['beep', 0.0, -1274.2058961636897, 0.0, 0.0, 0.0, 0.0, -138.9384435341887, 0.0]
['beep', 0.0, -1274.228247908145, 0.0, 0.0, 0.0, 0.0, -138.44670515617196, 0.0]
['beep', 0.0, -1274.518820586064, 0.0, 0.0, 0.0, 0.0, -138.71492608963564, 0.0]
['beep', 0.0, -1274.7870415195277, 0.0, 0.0, 0.0, 0.0, -137.88791154478926, 0.0]
['beep', 0.0, -1274.9211519862595, 0.0, 0.0, 0.0, 0.0, -138.53611213399319, 0.0]
['beep', 0.0, -1274.2953031415109, 0.0, 0.0, 0.0, 0.0, -140.14543773477527, 0.0]
['beep', 0.0, -1272.6859775407288, 0.0, 0.0, 0.0, 0.0, -140.2348447125965, 0.0]
['beep', 0.0, -1272.5295153295417, 0.0, 0.0, 0.0, 0.0, -140.12308599031996, 0.0]
['beep', 0.0, -1273.0436054520137, 0.0, 0.0, 0.0, 0.0, -139.74310633457975, 0.0]
['beep', 0.0, -1273.0883089409244, 0.0, 0.0, 0.0, 0.0, -139.2290162121077, 0.0]
['beep', 0.0, -1272.7530327740947, 0.0, 0.0, 0.0, 0.0, -139.51958889002668, 0.0]
['beep', 0.0, -1273.4682885966645, 0.0, 0.0, 0.0, 0.0, -139.38547842329484, 0.0]
['beep', 0.0, -1272.1942391627122, 0.0, 0.0, 0.0, 0.0, -139.05020225646524, 0.0]
['beep', 0.0, -1272.9765502186478, 0.0, 0.0, 0.0, 0.0, -139.31842318992892, 0.0]
['beep', 0.0, -1273.9153234857708, 0.0, 0.0, 0.0, 0.0, -139.78780982349036, 0.0]
['beep', 0.0, -1273.6694542967623, 0.0, 0.0, 0.0, 0.0, -140.86069355734512, 0.0]
['beep', 0.0, -1273.5353438300306, 0.0, 0.0, 0.0, 0.0, -139.96662377913282, 0.0]
['beep', 0.0, -1273.8482682524048, 0.0, 0.0, 0.0, 0.0, -138.69257434518033, 0.0]
['beep', 0.0, -1274.6529310527958, 0.0, 0.0, 0.0, 0.0, -139.74310633457975, 0.0]
['beep', 0.0, -1274.9211519862595, 0.0, 0.0, 0.0, 0.0, -139.2290162121077, 0.0]
['beep', 0.0, -1274.6976345417065, 0.0, 0.0, 0.0, 0.0, -138.80433306745687, 0.0]
['beep', 0.0, -1272.618922307363, 0.0, 0.0, 0.0, 0.0, -140.2795482015071, 0.0]
['beep', 0.0, -1272.1495356738014, 0.0, 0.0, 0.0, 0.0, -139.49723714557138, 0.0]
['beep', 0.0, -1272.2836461405334, 0.0, 0.0, 0.0, 0.0, -139.5642923789373, 0.0]
['beep', 0.0, -1272.618922307363, 0.0, 0.0, 0.0, 0.0, -140.12308599031996, 0.0]
['beep', 0.0, -1273.0212537075583, 0.0, 0.0, 0.0, 0.0, -137.93261503369988, 0.0]
['beep', 0.0, -1273.2000676632008, 0.0, 0.0, 0.0, 0.0, -138.5584638784485, 0.0]
['beep', 0.0, -1273.4682885966645, 0.0, 0.0, 0.0, 0.0, -138.71492608963564, 0.0]
['beep', 0.0, -1273.5129920855752, 0.0, 0.0, 0.0, 0.0, -138.08907724488702, 0.0]
['beep', 0.0, -1273.4012333632986, 0.0, 0.0, 0.0, 0.0, -138.35729817835073, 0.0]
['beep', 0.0, -1273.6247508078518, 0.0, 0.0, 0.0, 0.0, -138.53611213399319, 0.0]
['beep', 0.0, -1272.8200880074608, 0.0, 0.0, 0.0, 0.0, -138.11142898934233, 0.0]
['beep', 0.0, -1273.4682885966645, 0.0, 0.0, 0.0, 0.0, -139.65369935675852, 0.0]
['beep', 0.0, -1274.7199862861619, 0.0, 0.0, 0.0, 0.0, -138.11142898934233, 0.0]
['beep', 0.0, -1275.7705182755612, 0.0, 0.0, 0.0, 0.0, -137.95496677815518, 0.0]
['beep', 0.0, -1275.2117246641785, 0.0, 0.0, 0.0, 0.0, -139.34077493438423, 0.0]
['beep', 0.0, -1274.4964688416087, 0.0, 0.0, 0.0, 0.0, -138.960795278644, 0.0]
['beep', 0.0, -1275.6587595532847, 0.0, 0.0, 0.0, 0.0, -138.13378073379764, 0.0]
['beep', 0.0, -1275.0552624529914, 0.0, 0.0, 0.0, 0.0, -139.45253365666076, 0.0]
['beep', 0.0, -1275.4799455976422, 0.0, 0.0, 0.0, 0.0, -140.39130692378367, 0.0]
['beep', 0.0, -1275.099965941902, 0.0, 0.0, 0.0, 0.0, -139.6089958678479, 0.0]
['beep', 0.0, -1273.8929717413155, 0.0, 0.0, 0.0, 0.0, -139.13960923428647, 0.0]
['beep', 0.0, -1273.8929717413155, 0.0, 0.0, 0.0, 0.0, -139.02785051200993, 0.0]
['beep', 0.0, -1274.228247908145, 0.0, 0.0, 0.0, 0.0, -140.39130692378367, 0.0]
['beep', 0.0, -1274.228247908145, 0.0, 0.0, 0.0, 0.0, -139.8995685457669, 0.0]
['beep', 0.0, -1274.1388409303238, 0.0, 0.0, 0.0, 0.0, -138.15613247825294, 0.0]
['beep', 0.0, -1274.2058961636897, 0.0, 0.0, 0.0, 0.0, -137.55263537795966, 0.0]
['beep', 0.0, -1274.9211519862595, 0.0, 0.0, 0.0, 0.0, -136.0997719883647, 0.0]
['beep', 0.0, -1274.9882072196256, 0.0, 0.0, 0.0, 0.0, -137.0608969999429, 0.0]
['beep', 0.0, -1274.9658554751702, 0.0, 0.0, 0.0, 0.0, -138.22318771161886, 0.0]
['beep', 0.0, -1274.0270822080472, 0.0, 0.0, 0.0, 0.0, -138.49140864508257, 0.0]
['beep', 0.0, -1274.7870415195277, 0.0, 0.0, 0.0, 0.0, -137.59733886687027, 0.0]
['beep', 0.0, -1275.1223176863573, 0.0, 0.0, 0.0, 0.0, -137.82085631142334, 0.0]
['beep', 0.0, -1275.6587595532847, 0.0, 0.0, 0.0, 0.0, -137.9996702670658, 0.0]
['beep', 0.0, -1276.4187188647652, 0.0, 0.0, 0.0, 0.0, -137.41852491122782, 0.0]
['beep', 0.0, -1275.4128903642763, 0.0, 0.0, 0.0, 0.0, -137.50793188904905, 0.0]
['beep', 0.0, -1275.7258147866505, 0.0, 0.0, 0.0, 0.0, -139.38547842329484, 0.0]
['beep', 0.0, -1276.6422363093182, 0.0, 0.0, 0.0, 0.0, -140.5254173905155, 0.0]
['beep', 0.0, -1276.6645880537735, 0.0, 0.0, 0.0, 0.0, -140.57012087942613, 0.0]
['beep', 0.0, -1277.0445677095138, 0.0, 0.0, 0.0, 0.0, -139.69840284566914, 0.0]
['beep', 0.0, -1276.8881054983265, 0.0, 0.0, 0.0, 0.0, -139.5642923789373, 0.0]
['beep', 0.0, -1276.1728496757567, 0.0, 0.0, 0.0, 0.0, -139.09490574537585, 0.0]
['beep', 0.0, -1275.2117246641785, 0.0, 0.0, 0.0, 0.0, -138.11142898934233, 0.0]
['beep', 0.0, -1275.3011316419997, 0.0, 0.0, 0.0, 0.0, -137.41852491122782, 0.0]
['beep', 0.0, -1275.68111129774, 0.0, 0.0, 0.0, 0.0, -136.56915862192616, 0.0]
['beep', 0.0, -1275.1223176863573, 0.0, 0.0, 0.0, 0.0, -137.61969061132558, 0.0]
['beep', 0.0, -1274.4070618637875, 0.0, 0.0, 0.0, 0.0, -138.6031673673591, 0.0]
['beep', 0.0, -1273.937675230226, 0.0, 0.0, 0.0, 0.0, -138.73727783409095, 0.0]
['beep', 0.0, -1273.9823787191367, 0.0, 0.0, 0.0, 0.0, -137.91026328924457, 0.0]
['beep', 0.0, -1273.0212537075583, 0.0, 0.0, 0.0, 0.0, -138.15613247825294, 0.0]
['beep', 0.0, -1273.4012333632986, 0.0, 0.0, 0.0, 0.0, -137.57498712241497, 0.0]
['beep', 0.0, -1274.071785696958, 0.0, 0.0, 0.0, 0.0, -138.37964992280604, 0.0]
['beep', 0.0, -1272.9318467297371, 0.0, 0.0, 0.0, 0.0, -138.13378073379764, 0.0]
['beep', 0.0, -1273.9823787191367, 0.0, 0.0, 0.0, 0.0, -137.93261503369988, 0.0]
['beep', 0.0, -1274.2505996526004, 0.0, 0.0, 0.0, 0.0, -137.28441444449598, 0.0]
['beep', 0.0, -1274.4741170971533, 0.0, 0.0, 0.0, 0.0, -137.10560048885353, 0.0]
['beep', 0.0, -1273.6694542967623, 0.0, 0.0, 0.0, 0.0, -138.78198132300156, 0.0]
['beep', 0.0, -1273.289474641022, 0.0, 0.0, 0.0, 0.0, -139.00549876755463, 0.0]
['beep', 0.0, -1275.0552624529914, 0.0, 0.0, 0.0, 0.0, -137.95496677815518, 0.0]
['beep', 0.0, -1274.9211519862595, 0.0, 0.0, 0.0, 0.0, -137.73144933360211, 0.0]
['beep', 0.0, -1274.809393263983, 0.0, 0.0, 0.0, 0.0, -136.88208304430046, 0.0]
['beep', 0.0, -1273.8482682524048, 0.0, 0.0, 0.0, 0.0, -136.7256208331133, 0.0]
['beep', 0.0, -1272.8647914963713, 0.0, 0.0, 0.0, 0.0, -137.84320805587865, 0.0]
['beep', 0.0, -1272.8871432408266, 0.0, 0.0, 0.0, 0.0, -137.0385452554876, 0.0]
['beep', 0.0, -1273.4682885966645, 0.0, 0.0, 0.0, 0.0, -136.54680687747086, 0.0]
['beep', 0.0, -1272.8200880074608, 0.0, 0.0, 0.0, 0.0, -136.92678653321107, 0.0]
['beep', 0.0, -1272.3507013738993, 0.0, 0.0, 0.0, 0.0, -136.7256208331133, 0.0]
['beep', 0.0, -1272.1942391627122, 0.0, 0.0, 0.0, 0.0, -136.18917896618592, 0.0]
['beep', 0.0, -1272.1942391627122, 0.0, 0.0, 0.0, 0.0, -136.59151036638147, 0.0]
['beep', 0.0, -1272.9541984741925, 0.0, 0.0, 0.0, 0.0, -136.05506849945408, 0.0]
['beep', 0.0, -1273.3341781299328, 0.0, 0.0, 0.0, 0.0, -135.4739231436161, 0.0]
['beep', 0.0, -1273.5353438300306, 0.0, 0.0, 0.0, 0.0, -136.54680687747086, 0.0]
['beep', 0.0, -1274.1164891858684, 0.0, 0.0, 0.0, 0.0, -137.15030397776414, 0.0]
['beep', 0.0, -1273.7365095301282, 0.0, 0.0, 0.0, 0.0, -136.74797257756862, 0.0]
['beep', 0.0, -1273.1777159187457, 0.0, 0.0, 0.0, 0.0, -137.3961731667725, 0.0]
['beep', 0.0, -1271.2778176400445, 0.0, 0.0, 0.0, 0.0, -138.53611213399319, 0.0]
['beep', 0.0, -1269.9814164616366, 0.0, 0.0, 0.0, 0.0, -138.33494643389542, 0.0]
['beep', 0.0, -1269.8026025059942, 0.0, 0.0, 0.0, 0.0, -137.77615282251273, 0.0]
['beep', 0.0, -1268.6626635387736, 0.0, 0.0, 0.0, 0.0, -135.71979233262448, 0.0]
['beep', 0.0, -1268.9979397056031, 0.0, 0.0, 0.0, 0.0, -135.27275744351834, 0.0]
['beep', 0.0, -1271.6354455513294, 0.0, 0.0, 0.0, 0.0, -136.43504815519432, 0.0]
['beep', 0.0, -1272.5071635850863, 0.0, 0.0, 0.0, 0.0, -137.10560048885353, 0.0]
['beep', 0.0, -1272.7530327740947, 0.0, 0.0, 0.0, 0.0, -136.92678653321107, 0.0]
['beep', 0.0, -1274.7646897750724, 0.0, 0.0, 0.0, 0.0, -136.90443478875576, 0.0]
['beep', 0.0, -1275.0105589640807, 0.0, 0.0, 0.0, 0.0, -136.97149002212169, 0.0]
['beep', 0.0, -1274.4741170971533, 0.0, 0.0, 0.0, 0.0, -137.95496677815518, 0.0]
['beep', 0.0, -1274.2953031415109, 0.0, 0.0, 0.0, 0.0, -137.53028363350435, 0.0]
['beep', 0.0, -1273.1777159187457, 0.0, 0.0, 0.0, 0.0, -137.26206270004067, 0.0]
['beep', 0.0, -1273.267122896567, 0.0, 0.0, 0.0, 0.0, -137.55263537795966, 0.0]
['beep', 0.0, -1274.071785696958, 0.0, 0.0, 0.0, 0.0, -138.69257434518033, 0.0]
['beep', 0.0, -1273.5129920855752, 0.0, 0.0, 0.0, 0.0, -138.15613247825294, 0.0]
['beep', 0.0, -1273.9153234857708, 0.0, 0.0, 0.0, 0.0, -137.93261503369988, 0.0]
['beep', 0.0, -1273.2224194076562, 0.0, 0.0, 0.0, 0.0, -138.26789120052948, 0.0]
['beep', 0.0, -1272.8200880074608, 0.0, 0.0, 0.0, 0.0, -138.69257434518033, 0.0]
['beep', 0.0, -1272.7977362630054, 0.0, 0.0, 0.0, 0.0, -137.15030397776414, 0.0]
['beep', 0.0, -1273.1777159187457, 0.0, 0.0, 0.0, 0.0, -135.94330977717755, 0.0]
['beep', 0.0, -1273.8706199968601, 0.0, 0.0, 0.0, 0.0, -137.7090975891468, 0.0]
['beep', 0.0, -1273.423585107754, 0.0, 0.0, 0.0, 0.0, -138.3125946894401, 0.0]
['beep', 0.0, -1273.6918060412177, 0.0, 0.0, 0.0, 0.0, -137.84320805587865, 0.0]
['beep', 0.0, -1274.0270822080472, 0.0, 0.0, 0.0, 0.0, -135.87625454381163, 0.0]
['beep', 0.0, -1274.071785696958, 0.0, 0.0, 0.0, 0.0, -137.10560048885353, 0.0]
['beep', 0.0, -1274.1835444192345, 0.0, 0.0, 0.0, 0.0, -137.44087665568313, 0.0]
['beep', 0.0, -1273.580047318941, 0.0, 0.0, 0.0, 0.0, -139.2290162121077, 0.0]
['beep', 0.0, -1273.423585107754, 0.0, 0.0, 0.0, 0.0, -139.9442720346775, 0.0]
['beep', 0.0, -1273.3118263854774, 0.0, 0.0, 0.0, 0.0, -137.57498712241497, 0.0]
['beep', 0.0, -1273.2447711521115, 0.0, 0.0, 0.0, 0.0, -137.48558014459374, 0.0]
['beep', 0.0, -1271.9483699737036, 0.0, 0.0, 0.0, 0.0, -137.10560048885353, 0.0]
['beep', 0.0, -1270.8978379843043, 0.0, 0.0, 0.0, 0.0, -137.44087665568313, 0.0]
['beep', 0.0, -1272.0824804404356, 0.0, 0.0, 0.0, 0.0, -137.84320805587865, 0.0]
['beep', 0.0, -1271.9483699737036, 0.0, 0.0, 0.0, 0.0, -138.69257434518033, 0.0]
['beep', 0.0, -1273.1777159187457, 0.0, 0.0, 0.0, 0.0, -139.51958889002668, 0.0]
['beep', 0.0, -1273.3118263854774, 0.0, 0.0, 0.0, 0.0, -138.37964992280604, 0.0]
['beep', 0.0, -1273.289474641022, 0.0, 0.0, 0.0, 0.0, -138.51376038953788, 0.0]
['beep', 0.0, -1273.7365095301282, 0.0, 0.0, 0.0, 0.0, -138.37964992280604, 0.0]
['beep', 0.0, -1273.133012429835, 0.0, 0.0, 0.0, 0.0, -139.11725748983116, 0.0]
['beep', 0.0, -1273.8035647634943, 0.0, 0.0, 0.0, 0.0, -138.9160917897334, 0.0]
['beep', 0.0, -1273.289474641022, 0.0, 0.0, 0.0, 0.0, -139.9219202902222, 0.0]
['beep', 0.0, -1273.1553641742903, 0.0, 0.0, 0.0, 0.0, -138.960795278644, 0.0]
['beep', 0.0, -1273.7365095301282, 0.0, 0.0, 0.0, 0.0, -139.40783016775015, 0.0]
['beep', 0.0, -1274.3176548859662, 0.0, 0.0, 0.0, 0.0, -137.3738214223172, 0.0]
['beep', 0.0, -1274.2729513970557, 0.0, 0.0, 0.0, 0.0, -135.87625454381163, 0.0]
['beep', 0.0, -1274.5411723305194, 0.0, 0.0, 0.0, 0.0, -137.10560048885353, 0.0]
['beep', 0.0, -1274.071785696958, 0.0, 0.0, 0.0, 0.0, -139.63134761230322, 0.0]
['beep', 0.0, -1274.2953031415109, 0.0, 0.0, 0.0, 0.0, -138.82668481191217, 0.0]
['beep', 0.0, -1273.8035647634943, 0.0, 0.0, 0.0, 0.0, -138.20083596716356, 0.0]
['beep', 0.0, -1273.9600269746813, 0.0, 0.0, 0.0, 0.0, -138.84903655636748, 0.0]
['beep', 0.0, -1273.4012333632986, 0.0, 0.0, 0.0, 0.0, -138.17848422270825, 0.0]
['beep', 0.0, -1272.0601286959802, 0.0, 0.0, 0.0, 0.0, -138.8713883008228, 0.0]
['beep', 0.0, -1271.613093806874, 0.0, 0.0, 0.0, 0.0, -139.00549876755463, 0.0]
['beep', 0.0, -1271.970721718159, 0.0, 0.0, 0.0, 0.0, -138.84903655636748, 0.0]
['beep', 0.0, -1271.8813147403378, 0.0, 0.0, 0.0, 0.0, -137.9773185226105, 0.0]
['beep', 0.0, -1271.5013350845975, 0.0, 0.0, 0.0, 0.0, -137.26206270004067, 0.0]
['beep', 0.0, -1272.104832184891, 0.0, 0.0, 0.0, 0.0, -139.07255400092055, 0.0]
['beep', 0.0, -1272.3507013738993, 0.0, 0.0, 0.0, 0.0, -138.82668481191217, 0.0]
['beep', 0.0, -1271.747204273606, 0.0, 0.0, 0.0, 0.0, -137.73144933360211, 0.0]
['beep', 0.0, -1272.261294396078, 0.0, 0.0, 0.0, 0.0, -138.3125946894401, 0.0]
['beep', 0.0, -1272.484811840631, 0.0, 0.0, 0.0, 0.0, -138.33494643389542, 0.0]
['beep', 0.0, -1272.0601286959802, 0.0, 0.0, 0.0, 0.0, -137.95496677815518, 0.0]
['beep', 0.0, -1272.5071635850863, 0.0, 0.0, 0.0, 0.0, -138.5584638784485, 0.0]
['beep', 0.0, -1272.9765502186478, 0.0, 0.0, 0.0, 0.0, -138.71492608963564, 0.0]
['beep', 0.0, -1272.0601286959802, 0.0, 0.0, 0.0, 0.0, -138.15613247825294, 0.0]
['beep', 0.0, -1272.4624600961758, 0.0, 0.0, 0.0, 0.0, -137.9996702670658, 0.0]
['beep', 0.0, -1273.0436054520137, 0.0, 0.0, 0.0, 0.0, -137.3738214223172, 0.0]
['beep', 0.0, -1272.3507013738993, 0.0, 0.0, 0.0, 0.0, -136.27858594400715, 0.0]
['beep', 0.0, -1271.747204273606, 0.0, 0.0, 0.0, 0.0, -137.3291179334066, 0.0]
['beep', 0.0, -1272.5295153295417, 0.0, 0.0, 0.0, 0.0, -137.86555980033395, 0.0]
['beep', 0.0, -1273.065957196469, 0.0, 0.0, 0.0, 0.0, -138.3125946894401, 0.0]
['beep', 0.0, -1273.9153234857708, 0.0, 0.0, 0.0, 0.0, -139.67605110121383, 0.0]
['beep', 0.0, -1274.1611926747792, 0.0, 0.0, 0.0, 0.0, -140.16778947923058, 0.0]
['beep', 0.0, -1274.9658554751702, 0.0, 0.0, 0.0, 0.0, -139.6089958678479, 0.0]
['beep', 0.0, -1274.6305793083407, 0.0, 0.0, 0.0, 0.0, -138.37964992280604, 0.0]
['beep', 0.0, -1273.4682885966645, 0.0, 0.0, 0.0, 0.0, -138.73727783409095, 0.0]
['beep', 0.0, -1274.228247908145, 0.0, 0.0, 0.0, 0.0, -139.11725748983116, 0.0]
['beep', 0.0, -1273.647102552307, 0.0, 0.0, 0.0, 0.0, -139.2290162121077, 0.0]
['beep', 0.0, -1273.065957196469, 0.0, 0.0, 0.0, 0.0, -139.96662377913282, 0.0]
['beep', 0.0, -1272.842439751916, 0.0, 0.0, 0.0, 0.0, -139.72075459012444, 0.0]
['beep', 0.0, -1273.423585107754, 0.0, 0.0, 0.0, 0.0, -140.5254173905155, 0.0]
['beep', 0.0, -1274.004730463592, 0.0, 0.0, 0.0, 0.0, -140.63717611279205, 0.0]
['beep', 0.0, -1275.3011316419997, 0.0, 0.0, 0.0, 0.0, -140.19014122368588, 0.0]
['beep', 0.0, -1275.4352421087317, 0.0, 0.0, 0.0, 0.0, -139.65369935675852, 0.0]
['beep', 0.0, -1274.0270822080472, 0.0, 0.0, 0.0, 0.0, -139.6089958678479, 0.0]
['beep', 0.0, -1274.1388409303238, 0.0, 0.0, 0.0, 0.0, -137.77615282251273, 0.0]
['beep', 0.0, -1274.071785696958, 0.0, 0.0, 0.0, 0.0, -138.40200166726135, 0.0]
['beep', 0.0, -1274.6529310527958, 0.0, 0.0, 0.0, 0.0, -138.51376038953788, 0.0]
['beep', 0.0, -1274.6976345417065, 0.0, 0.0, 0.0, 0.0, -137.93261503369988, 0.0]
['beep', 0.0, -1275.8152217644717, 0.0, 0.0, 0.0, 0.0, -138.17848422270825, 0.0]
['beep', 0.0, -1273.5353438300306, 0.0, 0.0, 0.0, 0.0, -137.82085631142334, 0.0]
['beep', 0.0, -1272.909494985282, 0.0, 0.0, 0.0, 0.0, -138.960795278644, 0.0]
['beep', 0.0, -1273.9600269746813, 0.0, 0.0, 0.0, 0.0, -138.17848422270825, 0.0]
['beep', 0.0, -1274.0941374414133, 0.0, 0.0, 0.0, 0.0, -138.5808156229038, 0.0]
['beep', 0.0, -1273.8035647634943, 0.0, 0.0, 0.0, 0.0, -137.84320805587865, 0.0]
['beep', 0.0, -1273.647102552307, 0.0, 0.0, 0.0, 0.0, -137.7090975891468, 0.0]
['beep', 0.0, -1274.7870415195277, 0.0, 0.0, 0.0, 0.0, -138.42435341171665, 0.0]
['beep', 0.0, -1274.2953031415109, 0.0, 0.0, 0.0, 0.0, -138.5584638784485, 0.0]
['beep', 0.0, -1274.9211519862595, 0.0, 0.0, 0.0, 0.0, -138.44670515617196, 0.0]
['beep', 0.0, -1275.6140560643742, 0.0, 0.0, 0.0, 0.0, -138.13378073379764, 0.0]
['beep', 0.0, -1275.0552624529914, 0.0, 0.0, 0.0, 0.0, -138.44670515617196, 0.0]
['beep', 0.0, -1275.3011316419997, 0.0, 0.0, 0.0, 0.0, -138.29024294498478, 0.0]
['beep', 0.0, -1274.6976345417065, 0.0, 0.0, 0.0, 0.0, -137.59733886687027, 0.0]
['beep', 0.0, -1274.2953031415109, 0.0, 0.0, 0.0, 0.0, -137.6643941002362, 0.0]
['beep', 0.0, -1275.099965941902, 0.0, 0.0, 0.0, 0.0, -136.79267606647923, 0.0]
['beep', 0.0, -1273.647102552307, 0.0, 0.0, 0.0, 0.0, -137.3514696778619, 0.0]
['beep', 0.0, -1272.9318467297371, 0.0, 0.0, 0.0, 0.0, -138.35729817835073, 0.0]
['beep', 0.0, -1273.423585107754, 0.0, 0.0, 0.0, 0.0, -137.84320805587865, 0.0]
['beep', 0.0, -1273.6023990633964, 0.0, 0.0, 0.0, 0.0, -138.06672550043172, 0.0]
['beep', 0.0, -1272.6412740518183, 0.0, 0.0, 0.0, 0.0, -138.0443737559764, 0.0]
['beep', 0.0, -1272.618922307363, 0.0, 0.0, 0.0, 0.0, -137.3291179334066, 0.0]
['beep', 0.0, -1272.7530327740947, 0.0, 0.0, 0.0, 0.0, -137.12795223330883, 0.0]
['beep', 0.0, -1271.4342798512316, 0.0, 0.0, 0.0, 0.0, -136.27858594400715, 0.0]
['beep', 0.0, -1272.127183929346, 0.0, 0.0, 0.0, 0.0, -137.88791154478926, 0.0]
['beep', 0.0, -1272.9989019631032, 0.0, 0.0, 0.0, 0.0, -137.7090975891468, 0.0]
['beep', 0.0, -1273.2000676632008, 0.0, 0.0, 0.0, 0.0, -136.32328943291776, 0.0]
['beep', 0.0, -1272.618922307363, 0.0, 0.0, 0.0, 0.0, -138.26789120052948, 0.0]
['beep', 0.0, -1272.9765502186478, 0.0, 0.0, 0.0, 0.0, -137.86555980033395, 0.0]
['beep', 0.0, -1272.3954048628098, 0.0, 0.0, 0.0, 0.0, -138.17848422270825, 0.0]
['beep', 0.0, -1271.7919077625165, 0.0, 0.0, 0.0, 0.0, -138.78198132300156, 0.0]
['beep', 0.0, -1272.4624600961758, 0.0, 0.0, 0.0, 0.0, -138.35729817835073, 0.0]
['beep', 0.0, -1271.4342798512316, 0.0, 0.0, 0.0, 0.0, -137.55263537795966, 0.0]
['beep', 0.0, -1271.7695560180612, 0.0, 0.0, 0.0, 0.0, -137.57498712241497, 0.0]
['beep', 0.0, -1271.5907420624187, 0.0, 0.0, 0.0, 0.0, -138.08907724488702, 0.0]
['beep', 0.0, -1270.9648932176701, 0.0, 0.0, 0.0, 0.0, -138.82668481191217, 0.0]
['beep', 0.0, -1271.5683903179636, 0.0, 0.0, 0.0, 0.0, -137.9996702670658, 0.0]
['beep', 0.0, -1271.3448728734104, 0.0, 0.0, 0.0, 0.0, -139.2737197010183, 0.0]
['beep', 0.0, -1272.2389426516227, 0.0, 0.0, 0.0, 0.0, -139.16196097874177, 0.0]
['beep', 0.0, -1272.7977362630054, 0.0, 0.0, 0.0, 0.0, -139.45253365666076, 0.0]
['beep', 0.0, -1273.7365095301282, 0.0, 0.0, 0.0, 0.0, -138.8713883008228, 0.0]
['beep', 0.0, -1272.2836461405334, 0.0, 0.0, 0.0, 0.0, -139.2066644676524, 0.0]
['beep', 0.0, -1272.2165909071673, 0.0, 0.0, 0.0, 0.0, -139.18431272319708, 0.0]
['beep', 0.0, -1272.1495356738014, 0.0, 0.0, 0.0, 0.0, -138.98314702309932, 0.0]
['beep', 0.0, -1271.5460385735082, 0.0, 0.0, 0.0, 0.0, -138.73727783409095, 0.0]
['beep', 0.0, -1271.8366112514273, 0.0, 0.0, 0.0, 0.0, -137.82085631142334, 0.0]
['beep', 0.0, -1272.551867073997, 0.0, 0.0, 0.0, 0.0, -139.49723714557138, 0.0]
['beep', 0.0, -1272.0601286959802, 0.0, 0.0, 0.0, 0.0, -138.71492608963564, 0.0]
['beep', 0.0, -1272.6859775407288, 0.0, 0.0, 0.0, 0.0, -138.44670515617196, 0.0]
['beep', 0.0, -1274.5411723305194, 0.0, 0.0, 0.0, 0.0, -138.53611213399319, 0.0]
['beep', 0.0, -1273.647102552307, 0.0, 0.0, 0.0, 0.0, -137.10560048885353, 0.0]
['beep', 0.0, -1273.8482682524048, 0.0, 0.0, 0.0, 0.0, -136.3903446662837, 0.0]
['beep', 0.0, -1273.133012429835, 0.0, 0.0, 0.0, 0.0, -137.12795223330883, 0.0]
['beep', 0.0, -1272.484811840631, 0.0, 0.0, 0.0, 0.0, -138.0443737559764, 0.0]
['beep', 0.0, -1272.6412740518183, 0.0, 0.0, 0.0, 0.0, -137.82085631142334, 0.0]
['beep', 0.0, -1273.6694542967623, 0.0, 0.0, 0.0, 0.0, -136.81502781093454, 0.0]
['beep', 0.0, -1272.0824804404356, 0.0, 0.0, 0.0, 0.0, -138.11142898934233, 0.0]
['beep', 0.0, -1272.3954048628098, 0.0, 0.0, 0.0, 0.0, -136.85973129984515, 0.0]
['beep', 0.0, -1272.9541984741925, 0.0, 0.0, 0.0, 0.0, -136.81502781093454, 0.0]
['beep', 0.0, -1272.6859775407288, 0.0, 0.0, 0.0, 0.0, -136.81502781093454, 0.0]
['beep', 0.0, -1273.423585107754, 0.0, 0.0, 0.0, 0.0, -135.51862663252672, 0.0]
['beep', 0.0, -1272.9541984741925, 0.0, 0.0, 0.0, 0.0, -135.07159174342058, 0.0]
['beep', 0.0, -1272.2836461405334, 0.0, 0.0, 0.0, 0.0, -137.61969061132558, 0.0]
['beep', 0.0, -1273.3118263854774, 0.0, 0.0, 0.0, 0.0, -137.79850456696803, 0.0]
['beep', 0.0, -1273.5129920855752, 0.0, 0.0, 0.0, 0.0, -135.8091993104457, 0.0]
['beep', 0.0, -1272.7083292851842, 0.0, 0.0, 0.0, 0.0, -134.73631557659098, 0.0]
['beep', 0.0, -1272.0377769515248, 0.0, 0.0, 0.0, 0.0, -135.92095803272224, 0.0]
['beep', 0.0, -1272.3059978849885, 0.0, 0.0, 0.0, 0.0, -134.62455685431445, 0.0]
['beep', 0.0, -1273.267122896567, 0.0, 0.0, 0.0, 0.0, -133.9316527761999, 0.0]
['beep', 0.0, -1272.618922307363, 0.0, 0.0, 0.0, 0.0, -135.02688825450997, 0.0]
['beep', 0.0, -1272.9541984741925, 0.0, 0.0, 0.0, 0.0, -135.1609987212418, 0.0]
['beep', 0.0, -1273.3565298743881, 0.0, 0.0, 0.0, 0.0, -134.15517022075298, 0.0]
['beep', 0.0, -1273.4459368522093, 0.0, 0.0, 0.0, 0.0, -135.31746093242896, 0.0]
['beep', 0.0, -1272.9765502186478, 0.0, 0.0, 0.0, 0.0, -135.31746093242896, 0.0]
['beep', 0.0, -1272.2165909071673, 0.0, 0.0, 0.0, 0.0, -134.02105975402114, 0.0]
['beep', 0.0, -1273.0212537075583, 0.0, 0.0, 0.0, 0.0, -134.51279813203791, 0.0]
['beep', 0.0, -1272.7530327740947, 0.0, 0.0, 0.0, 0.0, -135.20570221015242, 0.0]
['beep', 0.0, -1273.289474641022, 0.0, 0.0, 0.0, 0.0, -135.1609987212418, 0.0]
['beep', 0.0, -1273.1777159187457, 0.0, 0.0, 0.0, 0.0, -136.01036501054347, 0.0]
['beep', 0.0, -1274.0941374414133, 0.0, 0.0, 0.0, 0.0, -136.1668272217306, 0.0]
['beep', 0.0, -1272.5071635850863, 0.0, 0.0, 0.0, 0.0, -136.30093768846245, 0.0]
['beep', 0.0, -1271.747204273606, 0.0, 0.0, 0.0, 0.0, -136.94913827766638, 0.0]
['beep', 0.0, -1272.1718874182568, 0.0, 0.0, 0.0, 0.0, -136.54680687747086, 0.0]
['beep', 0.0, -1272.2836461405334, 0.0, 0.0, 0.0, 0.0, -136.32328943291776, 0.0]
['beep', 0.0, -1273.0883089409244, 0.0, 0.0, 0.0, 0.0, -135.92095803272224, 0.0]
['beep', 0.0, -1272.1942391627122, 0.0, 0.0, 0.0, 0.0, -135.0939434878759, 0.0]
['beep', 0.0, -1272.5742188184522, 0.0, 0.0, 0.0, 0.0, -137.88791154478926, 0.0]
['beep', 0.0, -1273.9153234857708, 0.0, 0.0, 0.0, 0.0, -137.48558014459374, 0.0]
['beep', 0.0, -1273.0883089409244, 0.0, 0.0, 0.0, 0.0, -136.63621385529208, 0.0]
['beep', 0.0, -1272.4624600961758, 0.0, 0.0, 0.0, 0.0, -135.25040569906304, 0.0]
['beep', 0.0, -1270.875486239849, 0.0, 0.0, 0.0, 0.0, -135.1609987212418, 0.0]
['beep', 0.0, -1269.6908437837176, 0.0, 0.0, 0.0, 0.0, -134.7586673210463, 0.0]
['beep', 0.0, -1267.9921112051143, 0.0, 0.0, 0.0, 0.0, -133.35050742036194, 0.0]
['beep', 0.0, -1268.3497391163992, 0.0, 0.0, 0.0, 0.0, -134.98218476559936, 0.0]
['beep', 0.0, -1268.260332138578, 0.0, 0.0, 0.0, 0.0, -135.1162952323312, 0.0]
['beep', 0.0, -1270.2272856506452, 0.0, 0.0, 0.0, 0.0, -133.9316527761999, 0.0]
['beep', 0.0, -1271.7025007846953, 0.0, 0.0, 0.0, 0.0, -134.51279813203791, 0.0]
['beep', 0.0, -1272.2389426516227, 0.0, 0.0, 0.0, 0.0, -135.89860628826693, 0.0]
['beep', 0.0, -1272.4624600961758, 0.0, 0.0, 0.0, 0.0, -135.92095803272224, 0.0]
['beep', 0.0, -1272.4401083517205, 0.0, 0.0, 0.0, 0.0, -134.66926034322506, 0.0]
['beep', 0.0, -1272.4401083517205, 0.0, 0.0, 0.0, 0.0, -135.04923999896528, 0.0]
['beep', 0.0, -1272.7977362630054, 0.0, 0.0, 0.0, 0.0, -135.96566152163285, 0.0]
['beep', 0.0, -1273.580047318941, 0.0, 0.0, 0.0, 0.0, -137.19500746667475, 0.0]
['beep', 0.0, -1273.1106606853796, 0.0, 0.0, 0.0, 0.0, -137.57498712241497, 0.0]
['beep', 0.0, -1273.9600269746813, 0.0, 0.0, 0.0, 0.0, -138.17848422270825, 0.0]
['beep', 0.0, -1274.9211519862595, 0.0, 0.0, 0.0, 0.0, -136.77032432202392, 0.0]
['beep', 0.0, -1271.5013350845975, 0.0, 0.0, 0.0, 0.0, -136.83737955538984, 0.0]
['beep', 0.0, -1269.064994938969, 0.0, 0.0, 0.0, 0.0, -135.56333012143733, 0.0]
['beep', 0.0, -1272.127183929346, 0.0, 0.0, 0.0, 0.0, -137.0385452554876, 0.0]
['beep', 0.0, -1272.1942391627122, 0.0, 0.0, 0.0, 0.0, -136.21153071064123, 0.0]
['beep', 0.0, -1272.5742188184522, 0.0, 0.0, 0.0, 0.0, -134.98218476559936, 0.0]
['beep', 0.0, -1271.8813147403378, 0.0, 0.0, 0.0, 0.0, -135.4292196547055, 0.0]
['beep', 0.0, -1273.289474641022, 0.0, 0.0, 0.0, 0.0, -135.1386469767865, 0.0]
['beep', 0.0, -1273.1777159187457, 0.0, 0.0, 0.0, 0.0, -134.73631557659098, 0.0]
['beep', 0.0, -1273.9823787191367, 0.0, 0.0, 0.0, 0.0, -135.1609987212418, 0.0]
['beep', 0.0, -1274.1388409303238, 0.0, 0.0, 0.0, 0.0, -135.4515713991608, 0.0]
['beep', 0.0, -1273.5353438300306, 0.0, 0.0, 0.0, 0.0, -136.6809173442027, 0.0]
['beep', 0.0, -1273.0883089409244, 0.0, 0.0, 0.0, 0.0, -136.59151036638147, 0.0]
['beep', 0.0, -1273.3341781299328, 0.0, 0.0, 0.0, 0.0, -135.94330977717755, 0.0]
['beep', 0.0, -1273.7365095301282, 0.0, 0.0, 0.0, 0.0, -136.94913827766638, 0.0]
['beep', 0.0, -1274.362358374877, 0.0, 0.0, 0.0, 0.0, -137.95496677815518, 0.0]
['beep', 0.0, -1274.4294136082428, 0.0, 0.0, 0.0, 0.0, -137.55263537795966, 0.0]
['beep', 0.0, -1273.0883089409244, 0.0, 0.0, 0.0, 0.0, -136.81502781093454, 0.0]
['beep', 0.0, -1273.0883089409244, 0.0, 0.0, 0.0, 0.0, -135.94330977717755, 0.0]
['beep', 0.0, -1273.6694542967623, 0.0, 0.0, 0.0, 0.0, -135.7421440770798, 0.0]
['beep', 0.0, -1273.2447711521115, 0.0, 0.0, 0.0, 0.0, -136.03271675499877, 0.0]
['beep', 0.0, -1273.267122896567, 0.0, 0.0, 0.0, 0.0, -136.85973129984515, 0.0]
['beep', 0.0, -1272.261294396078, 0.0, 0.0, 0.0, 0.0, -136.703269088658, 0.0]
['beep', 0.0, -1272.2389426516227, 0.0, 0.0, 0.0, 0.0, -137.44087665568313, 0.0]
['beep', 0.0, -1271.3895763623211, 0.0, 0.0, 0.0, 0.0, -137.0161935110323, 0.0]
['beep', 0.0, -1271.1884106622233, 0.0, 0.0, 0.0, 0.0, -136.43504815519432, 0.0]
['beep', 0.0, -1271.4342798512316, 0.0, 0.0, 0.0, 0.0, -136.21153071064123, 0.0]
['beep', 0.0, -1272.3507013738993, 0.0, 0.0, 0.0, 0.0, -136.703269088658, 0.0]
['beep', 0.0, -1274.0494339525026, 0.0, 0.0, 0.0, 0.0, -137.12795223330883, 0.0]
['beep', 0.0, -1273.5576955744857, 0.0, 0.0, 0.0, 0.0, -137.41852491122782, 0.0]
['beep', 0.0, -1273.065957196469, 0.0, 0.0, 0.0, 0.0, -136.993841766577, 0.0]
['beep', 0.0, -1273.781213019039, 0.0, 0.0, 0.0, 0.0, -137.59733886687027, 0.0]
['beep', 0.0, -1273.289474641022, 0.0, 0.0, 0.0, 0.0, -136.94913827766638, 0.0]
['beep', 0.0, -1273.6694542967623, 0.0, 0.0, 0.0, 0.0, -136.79267606647923, 0.0]
['beep', 0.0, -1273.0436054520137, 0.0, 0.0, 0.0, 0.0, -137.21735921113006, 0.0]
['beep', 0.0, -1272.8647914963713, 0.0, 0.0, 0.0, 0.0, -137.7090975891468, 0.0]
['beep', 0.0, -1273.5353438300306, 0.0, 0.0, 0.0, 0.0, -137.79850456696803, 0.0]
['beep', 0.0, -1272.127183929346, 0.0, 0.0, 0.0, 0.0, -137.28441444449598, 0.0]
['beep', 0.0, -1272.2165909071673, 0.0, 0.0, 0.0, 0.0, -138.49140864508257, 0.0]
['beep', 0.0, -1272.0601286959802, 0.0, 0.0, 0.0, 0.0, -138.0220220115211, 0.0]
['beep', 0.0, -1272.2836461405334, 0.0, 0.0, 0.0, 0.0, -137.48558014459374, 0.0]
['beep', 0.0, -1271.5013350845975, 0.0, 0.0, 0.0, 0.0, -138.37964992280604, 0.0]
['beep', 0.0, -1270.8307827509384, 0.0, 0.0, 0.0, 0.0, -138.40200166726135, 0.0]
['beep', 0.0, -1271.0766519399467, 0.0, 0.0, 0.0, 0.0, -137.28441444449598, 0.0]
['beep', 0.0, -1270.1825821617344, 0.0, 0.0, 0.0, 0.0, -136.85973129984515, 0.0]
['beep', 0.0, -1270.9648932176701, 0.0, 0.0, 0.0, 0.0, -136.32328943291776, 0.0]
['beep', 0.0, -1270.8307827509384, 0.0, 0.0, 0.0, 0.0, -136.25623419955184, 0.0]
['beep', 0.0, -1270.6966722842064, 0.0, 0.0, 0.0, 0.0, -138.06672550043172, 0.0]
['beep', 0.0, -1270.7190240286618, 0.0, 0.0, 0.0, 0.0, -137.46322840013843, 0.0]
['beep', 0.0, -1270.3390443729215, 0.0, 0.0, 0.0, 0.0, -136.1444754772753, 0.0]
['beep', 0.0, -1271.0095967065809, 0.0, 0.0, 0.0, 0.0, -135.87625454381163, 0.0]
['beep', 0.0, -1270.7413757731172, 0.0, 0.0, 0.0, 0.0, -136.6585655997474, 0.0]
['beep', 0.0, -1271.4119281067763, 0.0, 0.0, 0.0, 0.0, -135.60803361034795, 0.0]
['beep', 0.0, -1270.3837478618323, 0.0, 0.0, 0.0, 0.0, -136.52445513301555, 0.0]
['beep', 0.0, -1270.8978379843043, 0.0, 0.0, 0.0, 0.0, -137.53028363350435, 0.0]
['beep', 0.0, -1271.2107624066787, 0.0, 0.0, 0.0, 0.0, -136.32328943291776, 0.0]
['beep', 0.0, -1270.2719891395557, 0.0, 0.0, 0.0, 0.0, -137.61969061132558, 0.0]
['beep', 0.0, -1270.808431006483, 0.0, 0.0, 0.0, 0.0, -137.3291179334066, 0.0]
['beep', 0.0, -1272.0377769515248, 0.0, 0.0, 0.0, 0.0, -137.50793188904905, 0.0]
['beep', 0.0, -1271.7695560180612, 0.0, 0.0, 0.0, 0.0, -137.53028363350435, 0.0]
['beep', 0.0, -1271.8813147403378, 0.0, 0.0, 0.0, 0.0, -138.0443737559764, 0.0]
['beep', 0.0, -1272.6412740518183, 0.0, 0.0, 0.0, 0.0, -138.08907724488702, 0.0]
['beep', 0.0, -1271.3672246178658, 0.0, 0.0, 0.0, 0.0, -137.57498712241497, 0.0]
['beep', 0.0, -1271.5013350845975, 0.0, 0.0, 0.0, 0.0, -138.71492608963564, 0.0]
['beep', 0.0, -1271.2331141511338, 0.0, 0.0, 0.0, 0.0, -139.13960923428647, 0.0]
['beep', 0.0, -1271.1884106622233, 0.0, 0.0, 0.0, 0.0, -138.15613247825294, 0.0]
['beep', 0.0, -1271.613093806874, 0.0, 0.0, 0.0, 0.0, -138.22318771161886, 0.0]
['beep', 0.0, -1271.2331141511338, 0.0, 0.0, 0.0, 0.0, -138.17848422270825, 0.0]
['beep', 0.0, -1271.5013350845975, 0.0, 0.0, 0.0, 0.0, -138.71492608963564, 0.0]
['beep', 0.0, -1271.5907420624187, 0.0, 0.0, 0.0, 0.0, -138.67022260072503, 0.0]
['beep', 0.0, -1271.7248525291507, 0.0, 0.0, 0.0, 0.0, -138.73727783409095, 0.0]
['beep', 0.0, -1271.5907420624187, 0.0, 0.0, 0.0, 0.0, -137.0608969999429, 0.0]
['beep', 0.0, -1271.970721718159, 0.0, 0.0, 0.0, 0.0, -137.3738214223172, 0.0]
['beep', 0.0, -1272.3954048628098, 0.0, 0.0, 0.0, 0.0, -137.7090975891468, 0.0]
['beep', 0.0, -1271.6577972957848, 0.0, 0.0, 0.0, 0.0, -136.50210338856024, 0.0]
['beep', 0.0, -1271.5013350845975, 0.0, 0.0, 0.0, 0.0, -137.93261503369988, 0.0]
['beep', 0.0, -1270.875486239849, 0.0, 0.0, 0.0, 0.0, -137.3291179334066, 0.0]
['beep', 0.0, -1271.7248525291507, 0.0, 0.0, 0.0, 0.0, -136.25623419955184, 0.0]
['beep', 0.0, -1271.5683903179636, 0.0, 0.0, 0.0, 0.0, -136.12212373282, 0.0]
['beep', 0.0, -1272.2165909071673, 0.0, 0.0, 0.0, 0.0, -136.54680687747086, 0.0]
['beep', 0.0, -1276.2622566535779, 0.0, 0.0, 0.0, 0.0, -137.3291179334066, 0.0]
['beep', 0.0, -1274.4294136082428, 0.0, 0.0, 0.0, 0.0, -136.92678653321107, 0.0]
['beep', 0.0, -1273.6247508078518, 0.0, 0.0, 0.0, 0.0, -137.28441444449598, 0.0]
['beep', 0.0, -1273.1553641742903, 0.0, 0.0, 0.0, 0.0, -138.0220220115211, 0.0]
['beep', 0.0, -1271.970721718159, 0.0, 0.0, 0.0, 0.0, -137.17265572221945, 0.0]
['beep', 0.0, -1271.2107624066787, 0.0, 0.0, 0.0, 0.0, -138.17848422270825, 0.0]
['beep', 0.0, -1271.5683903179636, 0.0, 0.0, 0.0, 0.0, -137.9996702670658, 0.0]
['beep', 0.0, -1271.5907420624187, 0.0, 0.0, 0.0, 0.0, -137.77615282251273, 0.0]
['beep', 0.0, -1271.0766519399467, 0.0, 0.0, 0.0, 0.0, -139.00549876755463, 0.0]
['beep', 0.0, -1272.5965705629076, 0.0, 0.0, 0.0, 0.0, -137.75380107805742, 0.0]
['beep', 0.0, -1272.7306810296395, 0.0, 0.0, 0.0, 0.0, -137.7090975891468, 0.0]
['beep', 0.0, -1272.6412740518183, 0.0, 0.0, 0.0, 0.0, -136.7256208331133, 0.0]
['beep', 0.0, -1273.065957196469, 0.0, 0.0, 0.0, 0.0, -136.85973129984515, 0.0]
['beep', 0.0, -1273.7588612745835, 0.0, 0.0, 0.0, 0.0, -138.17848422270825, 0.0]
['beep', 0.0, -1273.937675230226, 0.0, 0.0, 0.0, 0.0, -137.41852491122782, 0.0]
['beep', 0.0, -1274.1835444192345, 0.0, 0.0, 0.0, 0.0, -137.79850456696803, 0.0]
['beep', 0.0, -1274.2505996526004, 0.0, 0.0, 0.0, 0.0, -137.91026328924457, 0.0]
['beep', 0.0, -1274.6976345417065, 0.0, 0.0, 0.0, 0.0, -136.85973129984515, 0.0]
['beep', 0.0, -1274.58587581943, 0.0, 0.0, 0.0, 0.0, -136.97149002212169, 0.0]
['beep', 0.0, -1273.8035647634943, 0.0, 0.0, 0.0, 0.0, -136.25623419955184, 0.0]
['beep', 0.0, -1272.9765502186478, 0.0, 0.0, 0.0, 0.0, -136.43504815519432, 0.0]
['beep', 0.0, -1272.618922307363, 0.0, 0.0, 0.0, 0.0, -136.81502781093454, 0.0]
['beep', 0.0, -1273.0436054520137, 0.0, 0.0, 0.0, 0.0, -137.15030397776414, 0.0]
['beep', 0.0, -1272.909494985282, 0.0, 0.0, 0.0, 0.0, -136.12212373282, 0.0]
['beep', 0.0, -1273.0436054520137, 0.0, 0.0, 0.0, 0.0, -136.7256208331133, 0.0]
['beep', 0.0, -1272.618922307363, 0.0, 0.0, 0.0, 0.0, -136.92678653321107, 0.0]
['beep', 0.0, -1272.3059978849885, 0.0, 0.0, 0.0, 0.0, -137.50793188904905, 0.0]
['beep', 0.0, -1272.484811840631, 0.0, 0.0, 0.0, 0.0, -137.88791154478926, 0.0]
['beep', 0.0, -1272.0601286959802, 0.0, 0.0, 0.0, 0.0, -136.77032432202392, 0.0]
['beep', 0.0, -1271.3001693845, 0.0, 0.0, 0.0, 0.0, -136.52445513301555, 0.0]
['beep', 0.0, -1271.9483699737036, 0.0, 0.0, 0.0, 0.0, -137.7090975891468, 0.0]
['beep', 0.0, -1271.5236868290528, 0.0, 0.0, 0.0, 0.0, -137.75380107805742, 0.0]
['beep', 0.0, -1270.7637275175725, 0.0, 0.0, 0.0, 0.0, -137.0385452554876, 0.0]
['beep', 0.0, -1271.8366112514273, 0.0, 0.0, 0.0, 0.0, -136.3903446662837, 0.0]
['beep', 0.0, -1271.4789833401423, 0.0, 0.0, 0.0, 0.0, -135.85390279935632, 0.0]
['beep', 0.0, -1270.517858328564, 0.0, 0.0, 0.0, 0.0, -136.54680687747086, 0.0]
['beep', 0.0, -1270.0931751839132, 0.0, 0.0, 0.0, 0.0, -135.7868475659904, 0.0]
['beep', 0.0, -1270.0708234394579, 0.0, 0.0, 0.0, 0.0, -135.7644958215351, 0.0]
['beep', 0.0, -1270.7190240286618, 0.0, 0.0, 0.0, 0.0, -135.4515713991608, 0.0]
['beep', 0.0, -1270.8978379843043, 0.0, 0.0, 0.0, 0.0, -136.05506849945408, 0.0]
['beep', 0.0, -1270.5402100730194, 0.0, 0.0, 0.0, 0.0, -136.993841766577, 0.0]
['beep', 0.0, -1270.651968795296, 0.0, 0.0, 0.0, 0.0, -135.69744058816917, 0.0]
['beep', 0.0, -1271.747204273606, 0.0, 0.0, 0.0, 0.0, -134.40103940976138, 0.0]
['beep', 0.0, -1271.7248525291507, 0.0, 0.0, 0.0, 0.0, -133.864597542834, 0.0]
['beep', 0.0, -1271.1213554288574, 0.0, 0.0, 0.0, 0.0, -134.60220510985914, 0.0]
['beep', 0.0, -1271.0766519399467, 0.0, 0.0, 0.0, 0.0, -133.9316527761999, 0.0]
['beep', 0.0, -1270.0708234394579, 0.0, 0.0, 0.0, 0.0, -134.31163243194013, 0.0]
['beep', 0.0, -1271.1213554288574, 0.0, 0.0, 0.0, 0.0, -135.4962748880714, 0.0]
['beep', 0.0, -1271.747204273606, 0.0, 0.0, 0.0, 0.0, -133.68578358719154, 0.0]
['beep', 0.0, -1270.5402100730194, 0.0, 0.0, 0.0, 0.0, -133.61872835382562, 0.0]
['beep', 0.0, -1270.942541473215, 0.0, 0.0, 0.0, 0.0, -132.8811207868005, 0.0]
['beep', 0.0, -1271.2107624066787, 0.0, 0.0, 0.0, 0.0, -132.63525159779212, 0.0]
['beep', 0.0, -1271.2778176400445, 0.0, 0.0, 0.0, 0.0, -132.8587690423452, 0.0]
['beep', 0.0, -1270.9648932176701, 0.0, 0.0, 0.0, 0.0, -131.91999577522228, 0.0]
['beep', 0.0, -1269.6684920392624, 0.0, 0.0, 0.0, 0.0, -130.42242889671672, 0.0]
['beep', 0.0, -1270.8531344953938, 0.0, 0.0, 0.0, 0.0, -129.7518765630575, 0.0]
['beep', 0.0, -1271.8589629958824, 0.0, 0.0, 0.0, 0.0, -127.27083292851842, 0.0]
['beep', 0.0, -1271.0766519399467, 0.0, 0.0, 0.0, 0.0, -123.31457415992907, 0.0]
['beep', 0.0, -1271.4119281067763, 0.0, 0.0, 0.0, 0.0, -121.30291715895143, 0.0]
['beep', 0.0, -1272.6412740518183, 0.0, 0.0, 0.0, 0.0, -116.83256826789001, 0.0]
['beep', 0.0, -1273.1106606853796, 0.0, 0.0, 0.0, 0.0, -112.63044031029229, 0.0]
['beep', 0.0, -1274.6976345417065, 0.0, 0.0, 0.0, 0.0, -107.04250419646553, 0.0]
['beep', 0.0, -1275.8599252533825, 0.0, 0.0, 0.0, 0.0, -102.32628611639574, 0.0]
['beep', 0.0, -1271.0319484510362, 0.0, 0.0, 0.0, 0.0, -98.95117270364436, 0.0]
['beep', 0.0, -1269.8249542504495, 0.0, 0.0, 0.0, 0.0, -95.97839069108852, 0.0]
['beep', 0.0, -1272.4401083517205, 0.0, 0.0, 0.0, 0.0, -93.76556799001312, 0.0]
['beep', 0.0, -1271.1884106622233, 0.0, 0.0, 0.0, 0.0, -90.77043423300198, 0.0]
['beep', 0.0, -1270.7413757731172, 0.0, 0.0, 0.0, 0.0, -91.1280621442869, 0.0]
['beep', 0.0, -1273.9600269746813, 0.0, 0.0, 0.0, 0.0, -91.23982086656343, 0.0]
['beep', 0.0, -1274.0270822080472, 0.0, 0.0, 0.0, 0.0, -90.45750981062768, 0.0]
['beep', 0.0, -1270.9201897287596, 0.0, 0.0, 0.0, 0.0, -93.07266391189862, 0.0]
['beep', 0.0, -1272.3059978849885, 0.0, 0.0, 0.0, 0.0, -95.2407831240634, 0.0]
['beep', 0.0, -1274.9435037307148, 0.0, 0.0, 0.0, 0.0, -95.37489359079524, 0.0]
['beep', 0.0, -1273.4012333632986, 0.0, 0.0, 0.0, 0.0, -97.67712326969186, 0.0]
['beep', 0.0, -1271.456631595687, 0.0, 0.0, 0.0, 0.0, -99.15233840374214, 0.0]
['beep', 0.0, -1272.0601286959802, 0.0, 0.0, 0.0, 0.0, -99.77818724849072, 0.0]
['beep', 0.0, -1273.9600269746813, 0.0, 0.0, 0.0, 0.0, -99.59937329284827, 0.0]
['beep', 0.0, -1273.714157785673, 0.0, 0.0, 0.0, 0.0, -100.26992562650749, 0.0]
['beep', 0.0, -1273.065957196469, 0.0, 0.0, 0.0, 0.0, -100.49344307106055, 0.0]
['beep', 0.0, -1273.289474641022, 0.0, 0.0, 0.0, 0.0, -101.36516110481753, 0.0]
['beep', 0.0, -1274.1164891858684, 0.0, 0.0, 0.0, 0.0, -99.08528317037621, 0.0]
['beep', 0.0, -1272.104832184891, 0.0, 0.0, 0.0, 0.0, -96.55953604692651, 0.0]
['beep', 0.0, -1271.747204273606, 0.0, 0.0, 0.0, 0.0, -95.9113354577226, 0.0]
['beep', 0.0, -1273.6694542967623, 0.0, 0.0, 0.0, 0.0, -93.92203020120027, 0.0]
['beep', 0.0, -1273.4459368522093, 0.0, 0.0, 0.0, 0.0, -89.04934990994333, 0.0]
['beep', 0.0, -1272.8647914963713, 0.0, 0.0, 0.0, 0.0, -85.54012603046013, 0.0]
['beep', 0.0, -1272.0601286959802, 0.0, 0.0, 0.0, 0.0, -82.9473236736445, 0.0]
['beep', 0.0, -1272.909494985282, 0.0, 0.0, 0.0, 0.0, -79.4380997941613, 0.0]
['beep', 0.0, -1272.9765502186478, 0.0, 0.0, 0.0, 0.0, -74.0736811248876, 0.0]
['beep', 0.0, -1272.2836461405334, 0.0, 0.0, 0.0, 0.0, -71.61498923480383, 0.0]
['beep', 0.0, -1272.6412740518183, 0.0, 0.0, 0.0, 0.0, -66.71995719909158, 0.0]
['beep', 0.0, -1274.4741170971533, 0.0, 0.0, 0.0, 0.0, -62.78605017495754, 0.0]
['beep', 0.0, -1273.8482682524048, 0.0, 0.0, 0.0, 0.0, -57.37692801677323, 0.0]
['beep', 0.0, -1273.580047318941, 0.0, 0.0, 0.0, 0.0, -53.73359367055818, 0.0]
['beep', 0.0, -1275.167021175268, 0.0, 0.0, 0.0, 0.0, -48.883265123756544, 0.0]
['beep', 0.0, -1271.747204273606, 0.0, 0.0, 0.0, 0.0, -44.323509254873905, 0.0]
['beep', 0.0, -1267.8580007383825, 0.0, 0.0, 0.0, 0.0, -37.126247540265034, 0.0]
['beep', 0.0, -1270.7413757731172, 0.0, 0.0, 0.0, 0.0, -32.11945678227625, 0.0]
['beep', 0.0, -1272.7083292851842, 0.0, 0.0, 0.0, 0.0, -24.452808434105926, 0.0]
['beep', 0.0, -1270.6743205397513, 0.0, 0.0, 0.0, 0.0, -20.720067110069646, 0.0]
['beep', 0.0, -1270.58491356193, 0.0, 0.0, 0.0, 0.0, -18.171968242164642, 0.0]
['beep', 0.0, -1271.0543001954914, 0.0, 0.0, 0.0, 0.0, -14.573337384860205, 0.0]
['beep', 0.0, -1275.8152217644717, 0.0, 0.0, 0.0, 0.0, -9.991229771522256, 0.0]
['beep', 0.0, -1277.513954343075, 0.0, 0.0, 0.0, 0.0, -5.118549480265317, 0.0]
['beep', 0.0, -1275.032910708536, 0.0, 0.0, 0.0, 0.0, -1.8998982787011003, 0.0]
['beep', 0.0, -1270.9201897287596, 0.0, 0.0, 0.0, 0.0, 1.6316773452374156, 0.0]
['beep', 0.0, -1270.137878672824, 0.0, 0.0, 0.0, 0.0, 2.011657000977636, 0.0]
['beep', 0.0, -1273.2447711521115, 0.0, 0.0, 0.0, 0.0, 3.2186512015642172, 0.0]
['beep', 0.0, -1276.2622566535779, 0.0, 0.0, 0.0, 0.0, 4.090369235321193, 0.0]
['beep', 0.0, -1276.7986985205052, 0.0, 0.0, 0.0, 0.0, 6.549061125404969, 0.0]
['beep', 0.0, -1273.1777159187457, 0.0, 0.0, 0.0, 0.0, 7.577241370349094, 0.0]
['beep', 0.0, -1271.0095967065809, 0.0, 0.0, 0.0, 0.0, 7.9125175371787, 0.0]
['beep', 0.0, -1274.4517653526982, 0.0, 0.0, 0.0, 0.0, 8.046628003910543, 0.0]
['beep', 0.0, -1276.6645880537735, 0.0, 0.0, 0.0, 0.0, 8.113683237276463, 0.0]
['beep', 0.0, -1276.2399049091227, 0.0, 0.0, 0.0, 0.0, 9.790064071424494, 0.0]
['beep', 0.0, -1272.7530327740947, 0.0, 0.0, 0.0, 0.0, 8.761883826480368, 0.0]
['beep', 0.0, -1271.1213554288574, 0.0, 0.0, 0.0, 0.0, 8.29249719291892, 0.0]
['beep', 0.0, -1276.2622566535779, 0.0, 0.0, 0.0, 0.0, 7.443130903617252, 0.0]
['beep', 0.0, -1279.2350386661337, 0.0, 0.0, 0.0, 0.0, 6.280840191941285, 0.0]
['beep', 0.0, -1276.7986985205052, 0.0, 0.0, 0.0, 0.0, 4.090369235321193, 0.0]
['beep', 0.0, -1273.0883089409244, 0.0, 0.0, 0.0, 0.0, 1.1175872227653532, 0.0]
['beep', 0.0, -1274.4070618637875, 0.0, 0.0, 0.0, 0.0, -1.1846424561312743, 0.0]
['beep', 0.0, -1275.4799455976422, 0.0, 0.0, 0.0, 0.0, -4.000962257499964, 0.0]
['beep', 0.0, -1274.1835444192345, 0.0, 0.0, 0.0, 0.0, -5.3867704137290024, 0.0]
['beep', 0.0, -1272.328349629444, 0.0, 0.0, 0.0, 0.0, -9.343029182318352, 0.0]
['beep', 0.0, -1272.3059978849885, 0.0, 0.0, 0.0, 0.0, -12.449921661606034, 0.0]
['beep', 0.0, -1273.4459368522093, 0.0, 0.0, 0.0, 0.0, -15.668572863170251, 0.0]
['beep', 0.0, -1274.0270822080472, 0.0, 0.0, 0.0, 0.0, -21.368267699273552, 0.0]
['beep', 0.0, -1274.7199862861619, 0.0, 0.0, 0.0, 0.0, -23.35757295579588, 0.0]
['beep', 0.0, -1271.9036664847931, 0.0, 0.0, 0.0, 0.0, -27.738514869036063, 0.0]
['beep', 0.0, -1269.6908437837176, 0.0, 0.0, 0.0, 0.0, -33.66172714969244, 0.0]
['beep', 0.0, -1272.9541984741925, 0.0, 0.0, 0.0, 0.0, -37.707392896103016, 0.0]
['beep', 0.0, -1274.1835444192345, 0.0, 0.0, 0.0, 0.0, -40.99309933103315, 0.0]
['beep', 0.0, -1273.9153234857708, 0.0, 0.0, 0.0, 0.0, -46.06694532238786, 0.0]
['beep', 0.0, -1271.8589629958824, 0.0, 0.0, 0.0, 0.0, -51.252550036019095, 0.0]
['beep', 0.0, -1271.1884106622233, 0.0, 0.0, 0.0, 0.0, -55.7005471826252, 0.0]
['beep', 0.0, -1271.68014904024, 0.0, 0.0, 0.0, 0.0, -59.99208211804416, 0.0]
['beep', 0.0, -1272.0154252070697, 0.0, 0.0, 0.0, 0.0, -63.411899019706134, 0.0]
['beep', 0.0, -1271.7695560180612, 0.0, 0.0, 0.0, 0.0, -68.48574501106084, 0.0]
['beep', 0.0, -1271.5683903179636, 0.0, 0.0, 0.0, 0.0, -72.37494854628427, 0.0]
['beep', 0.0, -1270.9648932176701, 0.0, 0.0, 0.0, 0.0, -77.62760849328143, 0.0]
['beep', 0.0, -1269.713195528173, 0.0, 0.0, 0.0, 0.0, -81.0474253949434, 0.0]
['beep', 0.0, -1269.3108641279775, 0.0, 0.0, 0.0, 0.0, -83.46141379611657, 0.0]
['beep', 0.0, -1269.0426431945139, 0.0, 0.0, 0.0, 0.0, -86.32243708639588, 0.0]
['beep', 0.0, -1268.9979397056031, 0.0, 0.0, 0.0, 0.0, -90.30104759944054, 0.0]
['beep', 0.0, -1269.132050172335, 0.0, 0.0, 0.0, 0.0, -91.82096622240141, 0.0]
['beep', 0.0, -1268.036814694025, 0.0, 0.0, 0.0, 0.0, -92.7597394895243, 0.0]
['beep', 0.0, -1268.260332138578, 0.0, 0.0, 0.0, 0.0, -96.29131511346283, 0.0]
['beep', 0.0, -1268.1485734163016, 0.0, 0.0, 0.0, 0.0, -98.72765525909129, 0.0]
['beep', 0.0, -1268.5956083054077, 0.0, 0.0, 0.0, 0.0, -99.3758558482952, 0.0]
['beep', 0.0, -1268.685015283229, 0.0, 0.0, 0.0, 0.0, -100.38168434878402, 0.0]
['beep', 0.0, -1268.1262216718462, 0.0, 0.0, 0.0, 0.0, -102.46039658312758, 0.0]
['beep', 0.0, -1269.2661606390668, 0.0, 0.0, 0.0, 0.0, -103.01919019451026, 0.0]
['beep', 0.0, -1269.646140294807, 0.0, 0.0, 0.0, 0.0, -103.30976287242925, 0.0]
['beep', 0.0, -1268.9532362166926, 0.0, 0.0, 0.0, 0.0, -103.44387333916109, 0.0]
['beep', 0.0, -1269.3779193613434, 0.0, 0.0, 0.0, 0.0, -104.27088788400745, 0.0]
['beep', 0.0, -1269.5120298280751, 0.0, 0.0, 0.0, 0.0, -106.30489662944039, 0.0]
['beep', 0.0, -1269.6908437837176, 0.0, 0.0, 0.0, 0.0, -106.72957977409122, 0.0]
['beep', 0.0, -1269.7802507615388, 0.0, 0.0, 0.0, 0.0, -108.42831235269456, 0.0]
['beep', 0.0, -1269.48967808362, 0.0, 0.0, 0.0, 0.0, -108.76358851952416, 0.0]
['beep', 0.0, -1270.2272856506452, 0.0, 0.0, 0.0, 0.0, -109.25532689754093, 0.0]
['beep', 0.0, -1270.5402100730194, 0.0, 0.0, 0.0, 0.0, -110.84230075386772, 0.0]
['beep', 0.0, -1269.646140294807, 0.0, 0.0, 0.0, 0.0, -110.21645190911913, 0.0]
['beep', 0.0, -1269.9367129727261, 0.0, 0.0, 0.0, 0.0, -110.7975972649571, 0.0]
['beep', 0.0, -1268.7520705165948, 0.0, 0.0, 0.0, 0.0, -111.22228040960795, 0.0]
['beep', 0.0, -1268.5062013275865, 0.0, 0.0, 0.0, 0.0, -112.25046065455207, 0.0]
['beep', 0.0, -1269.0873466834244, 0.0, 0.0, 0.0, 0.0, -112.74219903256882, 0.0]
['beep', 0.0, -1268.9532362166926, 0.0, 0.0, 0.0, 0.0, -112.29516414346269, 0.0]
['beep', 0.0, -1269.9590647171815, 0.0, 0.0, 0.0, 0.0, -112.76455077702413, 0.0]
['beep', 0.0, -1269.9590647171815, 0.0, 0.0, 0.0, 0.0, -112.20575716564146, 0.0]
['beep', 0.0, -1269.847305994905, 0.0, 0.0, 0.0, 0.0, -112.29516414346269, 0.0]
['beep', 0.0, -1269.0873466834244, 0.0, 0.0, 0.0, 0.0, -113.34569613286212, 0.0]
['beep', 0.0, -1269.6237885503517, 0.0, 0.0, 0.0, 0.0, -112.74219903256882, 0.0]
['beep', 0.0, -1269.5120298280751, 0.0, 0.0, 0.0, 0.0, -112.47397809910514, 0.0]
['beep', 0.0, -1270.0484716950027, 0.0, 0.0, 0.0, 0.0, -112.18340542118615, 0.0]
['beep', 0.0, -1270.3837478618323, 0.0, 0.0, 0.0, 0.0, -113.81508276642356, 0.0]
['beep', 0.0, -1270.8307827509384, 0.0, 0.0, 0.0, 0.0, -115.49146360057159, 0.0]
['beep', 0.0, -1270.517858328564, 0.0, 0.0, 0.0, 0.0, -114.32917288889563, 0.0]
['beep', 0.0, -1270.517858328564, 0.0, 0.0, 0.0, 0.0, -114.12800718879787, 0.0]
['beep', 0.0, -1270.4060996062876, 0.0, 0.0, 0.0, 0.0, -114.53033858899339, 0.0]
['beep', 0.0, -1269.5120298280751, 0.0, 0.0, 0.0, 0.0, -115.33500138938444, 0.0]
['beep', 0.0, -1268.5062013275865, 0.0, 0.0, 0.0, 0.0, -115.98320197858835, 0.0]
['beep', 0.0, -1266.9639309601703, 0.0, 0.0, 0.0, 0.0, -115.67027755621405, 0.0]
['beep', 0.0, -1270.6072653063852, 0.0, 0.0, 0.0, 0.0, -115.5138153450269, 0.0]
['beep', 0.0, -1274.1388409303238, 0.0, 0.0, 0.0, 0.0, -116.38553337878388, 0.0]
['beep', 0.0, -1274.58587581943, 0.0, 0.0, 0.0, 0.0, -116.16201593423081, 0.0]
['beep', 0.0, -1273.1106606853796, 0.0, 0.0, 0.0, 0.0, -115.75968453403527, 0.0]
['beep', 0.0, -1271.5460385735082, 0.0, 0.0, 0.0, 0.0, -116.96667873462187, 0.0]
['beep', 0.0, -1272.551867073997, 0.0, 0.0, 0.0, 0.0, -117.16784443471963, 0.0]
['beep', 0.0, -1272.5071635850863, 0.0, 0.0, 0.0, 0.0, -117.36901013481739, 0.0]
['beep', 0.0, -1273.0883089409244, 0.0, 0.0, 0.0, 0.0, -118.57600433540397, 0.0]
['beep', 0.0, -1272.484811840631, 0.0, 0.0, 0.0, 0.0, -118.28543165748498, 0.0]
['beep', 0.0, -1272.9765502186478, 0.0, 0.0, 0.0, 0.0, -119.51477760252686, 0.0]
['beep', 0.0, -1273.2000676632008, 0.0, 0.0, 0.0, 0.0, -119.58183283589278, 0.0]
['beep', 0.0, -1273.4906403411198, 0.0, 0.0, 0.0, 0.0, -119.71594330262462, 0.0]
['beep', 0.0, -1274.3176548859662, 0.0, 0.0, 0.0, 0.0, -119.78299853599054, 0.0]
['beep', 0.0, -1273.133012429835, 0.0, 0.0, 0.0, 0.0, -119.49242585807156, 0.0]
['beep', 0.0, -1273.133012429835, 0.0, 0.0, 0.0, 0.0, -120.54295784747099, 0.0]
['beep', 0.0, -1273.1777159187457, 0.0, 0.0, 0.0, 0.0, -120.16297819173077, 0.0]
['beep', 0.0, -1273.0212537075583, 0.0, 0.0, 0.0, 0.0, -119.9394607471777, 0.0]
['beep', 0.0, -1272.5965705629076, 0.0, 0.0, 0.0, 0.0, -121.30291715895143, 0.0]
['beep', 0.0, -1272.4177566072651, 0.0, 0.0, 0.0, 0.0, -123.47103637111621, 0.0]
['beep', 0.0, -1273.0212537075583, 0.0, 0.0, 0.0, 0.0, -123.7392573045799, 0.0]
['beep', 0.0, -1273.4682885966645, 0.0, 0.0, 0.0, 0.0, -122.97929799309946, 0.0]
['beep', 0.0, -1274.6529310527958, 0.0, 0.0, 0.0, 0.0, -123.40398113775029, 0.0]
['beep', 0.0, -1273.647102552307, 0.0, 0.0, 0.0, 0.0, -123.1134084598313, 0.0]
['beep', 0.0, -1273.0212537075583, 0.0, 0.0, 0.0, 0.0, -123.56044334893744, 0.0]
['beep', 0.0, -1273.1106606853796, 0.0, 0.0, 0.0, 0.0, -122.55461484844862, 0.0]
['beep', 0.0, -1274.0941374414133, 0.0, 0.0, 0.0, 0.0, -123.40398113775029, 0.0]
['beep', 0.0, -1272.9765502186478, 0.0, 0.0, 0.0, 0.0, -124.67803057170279, 0.0]
['beep', 0.0, -1273.3788816188433, 0.0, 0.0, 0.0, 0.0, -124.52156836051564, 0.0]
['beep', 0.0, -1273.5576955744857, 0.0, 0.0, 0.0, 0.0, -123.53809160448213, 0.0]
['beep', 0.0, -1272.9318467297371, 0.0, 0.0, 0.0, 0.0, -123.60514683784805, 0.0]
['beep', 0.0, -1272.551867073997, 0.0, 0.0, 0.0, 0.0, -124.29805091596258, 0.0]
['beep', 0.0, -1272.618922307363, 0.0, 0.0, 0.0, 0.0, -123.06870497092069, 0.0]
['beep', 0.0, -1272.2836461405334, 0.0, 0.0, 0.0, 0.0, -123.4263328822056, 0.0]
['beep', 0.0, -1273.781213019039, 0.0, 0.0, 0.0, 0.0, -122.73342880409108, 0.0]
['beep', 0.0, -1274.071785696958, 0.0, 0.0, 0.0, 0.0, -123.49338811557152, 0.0]
['beep', 0.0, -1272.8647914963713, 0.0, 0.0, 0.0, 0.0, -124.58862359388156, 0.0]
['beep', 0.0, -1272.77538451855, 0.0, 0.0, 0.0, 0.0, -124.87919627180055, 0.0]
['beep', 0.0, -1272.9765502186478, 0.0, 0.0, 0.0, 0.0, -124.74508580506871, 0.0]
['beep', 0.0, -1273.133012429835, 0.0, 0.0, 0.0, 0.0, -123.20281543765253, 0.0]
['beep', 0.0, -1272.8647914963713, 0.0, 0.0, 0.0, 0.0, -123.62749858230336, 0.0]
['beep', 0.0, -1272.484811840631, 0.0, 0.0, 0.0, 0.0, -125.41563813872793, 0.0]
['beep', 0.0, -1272.5071635850863, 0.0, 0.0, 0.0, 0.0, -125.08036197189833, 0.0]
['beep', 0.0, -1272.5071635850863, 0.0, 0.0, 0.0, 0.0, -124.52156836051564, 0.0]
['beep', 0.0, -1272.6636257962734, 0.0, 0.0, 0.0, 0.0, -124.20864393814135, 0.0]
['beep', 0.0, -1271.7919077625165, 0.0, 0.0, 0.0, 0.0, -124.3651061493285, 0.0]
['beep', 0.0, -1271.5683903179636, 0.0, 0.0, 0.0, 0.0, -123.7616090490352, 0.0]
['beep', 0.0, -1270.9648932176701, 0.0, 0.0, 0.0, 0.0, -123.47103637111621, 0.0]
['beep', 0.0, -1270.2049339061898, 0.0, 0.0, 0.0, 0.0, -123.35927764883968, 0.0]
['beep', 0.0, -1269.5567333169859, 0.0, 0.0, 0.0, 0.0, -123.91807126022236, 0.0]
['beep', 0.0, -1269.5790850614412, 0.0, 0.0, 0.0, 0.0, -123.40398113775029, 0.0]
['beep', 0.0, -1268.8638292388714, 0.0, 0.0, 0.0, 0.0, -125.0133067385324, 0.0]
['beep', 0.0, -1269.355567616888, 0.0, 0.0, 0.0, 0.0, -125.77326605001284, 0.0]
['beep', 0.0, -1268.841477494416, 0.0, 0.0, 0.0, 0.0, -125.14741720526425, 0.0]
['beep', 0.0, -1268.5062013275865, 0.0, 0.0, 0.0, 0.0, -125.77326605001284, 0.0]
['beep', 0.0, -1268.550904816497, 0.0, 0.0, 0.0, 0.0, -125.28152767199609, 0.0]
['beep', 0.0, -1269.064994938969, 0.0, 0.0, 0.0, 0.0, -124.74508580506871, 0.0]
['beep', 0.0, -1269.6684920392624, 0.0, 0.0, 0.0, 0.0, -124.87919627180055, 0.0]
['beep', 0.0, -1270.294340884011, 0.0, 0.0, 0.0, 0.0, -124.78978929397933, 0.0]
['beep', 0.0, -1270.651968795296, 0.0, 0.0, 0.0, 0.0, -125.48269337209385, 0.0]
['beep', 0.0, -1271.3448728734104, 0.0, 0.0, 0.0, 0.0, -125.19212069417486, 0.0]
['beep', 0.0, -1270.9872449621255, 0.0, 0.0, 0.0, 0.0, -125.3038794164514, 0.0]
['beep', 0.0, -1271.3672246178658, 0.0, 0.0, 0.0, 0.0, -126.04148698347653, 0.0]
['beep', 0.0, -1271.3895763623211, 0.0, 0.0, 0.0, 0.0, -125.3262311609067, 0.0]
['beep', 0.0, -1271.2554658955892, 0.0, 0.0, 0.0, 0.0, -124.09688521586482, 0.0]
['beep', 0.0, -1271.5013350845975, 0.0, 0.0, 0.0, 0.0, -125.14741720526425, 0.0]
['beep', 0.0, -1272.3954048628098, 0.0, 0.0, 0.0, 0.0, -124.40980963823911, 0.0]
['beep', 0.0, -1271.166058917768, 0.0, 0.0, 0.0, 0.0, -124.76743754952402, 0.0]
['beep', 0.0, -1271.322521128955, 0.0, 0.0, 0.0, 0.0, -125.70621081664692, 0.0]
['beep', 0.0, -1272.261294396078, 0.0, 0.0, 0.0, 0.0, -125.52739686100446, 0.0]
['beep', 0.0, -1272.4401083517205, 0.0, 0.0, 0.0, 0.0, -125.9297282612, 0.0]
['beep', 0.0, -1272.9989019631032, 0.0, 0.0, 0.0, 0.0, -125.639155583281, 0.0]
['beep', 0.0, -1272.842439751916, 0.0, 0.0, 0.0, 0.0, -125.41563813872793, 0.0]
['beep', 0.0, -1272.4624600961758, 0.0, 0.0, 0.0, 0.0, -126.6002805948592, 0.0]
['beep', 0.0, -1272.3507013738993, 0.0, 0.0, 0.0, 0.0, -125.99678349456592, 0.0]
['beep', 0.0, -1271.4789833401423, 0.0, 0.0, 0.0, 0.0, -125.25917592754078, 0.0]
['beep', 0.0, -1272.1718874182568, 0.0, 0.0, 0.0, 0.0, -126.66733582822512, 0.0]
['beep', 0.0, -1271.814259506972, 0.0, 0.0, 0.0, 0.0, -125.97443175011061, 0.0]
['beep', 0.0, -1271.0543001954914, 0.0, 0.0, 0.0, 0.0, -125.75091430555753, 0.0]
['beep', 0.0, -1271.0543001954914, 0.0, 0.0, 0.0, 0.0, -126.48852187258267, 0.0]
['beep', 0.0, -1271.7248525291507, 0.0, 0.0, 0.0, 0.0, -127.96373700663294, 0.0]
['beep', 0.0, -1271.2554658955892, 0.0, 0.0, 0.0, 0.0, -126.86850152832288, 0.0]
['beep', 0.0, -1270.942541473215, 0.0, 0.0, 0.0, 0.0, -126.44381838367205, 0.0]
['beep', 0.0, -1272.3507013738993, 0.0, 0.0, 0.0, 0.0, -126.53322536149328, 0.0]
['beep', 0.0, -1271.1884106622233, 0.0, 0.0, 0.0, 0.0, -126.46617012812736, 0.0]
['beep', 0.0, -1271.2778176400445, 0.0, 0.0, 0.0, 0.0, -124.67803057170279, 0.0]
['beep', 0.0, -1272.127183929346, 0.0, 0.0, 0.0, 0.0, -125.21447243863017, 0.0]
['beep', 0.0, -1272.0824804404356, 0.0, 0.0, 0.0, 0.0, -126.75674280604635, 0.0]
['beep', 0.0, -1272.2389426516227, 0.0, 0.0, 0.0, 0.0, -126.24265268357429, 0.0]
['beep', 0.0, -1272.5295153295417, 0.0, 0.0, 0.0, 0.0, -126.8908532727782, 0.0]
['beep', 0.0, -1272.4401083517205, 0.0, 0.0, 0.0, 0.0, -125.6615073277363, 0.0]
['beep', 0.0, -1272.484811840631, 0.0, 0.0, 0.0, 0.0, -125.99678349456592, 0.0]
['beep', 0.0, -1272.842439751916, 0.0, 0.0, 0.0, 0.0, -125.70621081664692, 0.0]
['beep', 0.0, -1272.7530327740947, 0.0, 0.0, 0.0, 0.0, -123.7616090490352, 0.0]
['beep', 0.0, -1271.970721718159, 0.0, 0.0, 0.0, 0.0, -125.23682418308547, 0.0]
['beep', 0.0, -1271.7025007846953, 0.0, 0.0, 0.0, 0.0, -127.04731548396535, 0.0]
['beep', 0.0, -1271.3448728734104, 0.0, 0.0, 0.0, 0.0, -127.11437071733127, 0.0]
['beep', 0.0, -1271.8589629958824, 0.0, 0.0, 0.0, 0.0, -126.44381838367205, 0.0]
['beep', 0.0, -1272.0824804404356, 0.0, 0.0, 0.0, 0.0, -125.61680383882569, 0.0]
['beep', 0.0, -1270.942541473215, 0.0, 0.0, 0.0, 0.0, -126.68968757268043, 0.0]
['beep', 0.0, -1270.9201897287596, 0.0, 0.0, 0.0, 0.0, -127.2037776951525, 0.0]
['beep', 0.0, -1271.970721718159, 0.0, 0.0, 0.0, 0.0, -126.2873561724849, 0.0]
['beep', 0.0, -1271.68014904024, 0.0, 0.0, 0.0, 0.0, -124.32040266041788, 0.0]
['beep', 0.0, -1272.4177566072651, 0.0, 0.0, 0.0, 0.0, -123.29222241547376, 0.0]
['beep', 0.0, -1272.3507013738993, 0.0, 0.0, 0.0, 0.0, -124.87919627180055, 0.0]
['beep', 0.0, -1272.9989019631032, 0.0, 0.0, 0.0, 0.0, -125.84032128337876, 0.0]
['beep', 0.0, -1273.9600269746813, 0.0, 0.0, 0.0, 0.0, -125.0133067385324, 0.0]
['beep', 0.0, -1273.7365095301282, 0.0, 0.0, 0.0, 0.0, -126.64498408376981, 0.0]
['beep', 0.0, -1273.4012333632986, 0.0, 0.0, 0.0, 0.0, -127.18142595069719, 0.0]
['beep', 0.0, -1272.9541984741925, 0.0, 0.0, 0.0, 0.0, -126.53322536149328, 0.0]
['beep', 0.0, -1272.0154252070697, 0.0, 0.0, 0.0, 0.0, -126.17559745020837, 0.0]
['beep', 0.0, -1271.6354455513294, 0.0, 0.0, 0.0, 0.0, -126.30970791694021, 0.0]
['beep', 0.0, -1271.2107624066787, 0.0, 0.0, 0.0, 0.0, -125.77326605001284, 0.0]
['beep', 0.0, -1270.1825821617344, 0.0, 0.0, 0.0, 0.0, -125.21447243863017, 0.0]
['beep', 0.0, -1269.713195528173, 0.0, 0.0, 0.0, 0.0, -125.48269337209385, 0.0]
['beep', 0.0, -1268.260332138578, 0.0, 0.0, 0.0, 0.0, -124.74508580506871, 0.0]
['beep', 0.0, -1270.0484716950027, 0.0, 0.0, 0.0, 0.0, -124.14158870477543, 0.0]
['beep', 0.0, -1271.8589629958824, 0.0, 0.0, 0.0, 0.0, -122.75578054854638, 0.0]
['beep', 0.0, -1273.3118263854774, 0.0, 0.0, 0.0, 0.0, -125.03565848298771, 0.0]
['beep', 0.0, -1273.3118263854774, 0.0, 0.0, 0.0, 0.0, -126.35441140585083, 0.0]
['beep', 0.0, -1273.2000676632008, 0.0, 0.0, 0.0, 0.0, -126.15324570575306, 0.0]
['beep', 0.0, -1273.133012429835, 0.0, 0.0, 0.0, 0.0, -126.8908532727782, 0.0]
['beep', 0.0, -1272.8871432408266, 0.0, 0.0, 0.0, 0.0, -128.34371666237314, 0.0]
['beep', 0.0, -1273.7365095301282, 0.0, 0.0, 0.0, 0.0, -128.36606840682845, 0.0]
['beep', 0.0, -1273.5353438300306, 0.0, 0.0, 0.0, 0.0, -128.05314398445415, 0.0]
['beep', 0.0, -1272.842439751916, 0.0, 0.0, 0.0, 0.0, -127.80727479544578, 0.0]
['beep', 0.0, -1272.5295153295417, 0.0, 0.0, 0.0, 0.0, -129.1036759738536, 0.0]
['beep', 0.0, -1272.3059978849885, 0.0, 0.0, 0.0, 0.0, -128.36606840682845, 0.0]
['beep', 0.0, -1271.7248525291507, 0.0, 0.0, 0.0, 0.0, -128.34371666237314, 0.0]
['beep', 0.0, -1271.8589629958824, 0.0, 0.0, 0.0, 0.0, -128.7907515514793, 0.0]
['beep', 0.0, -1272.2389426516227, 0.0, 0.0, 0.0, 0.0, -127.89668177326702, 0.0]
['beep', 0.0, -1271.9036664847931, 0.0, 0.0, 0.0, 0.0, -128.12019921782007, 0.0]
['beep', 0.0, -1271.8366112514273, 0.0, 0.0, 0.0, 0.0, -127.71786781762455, 0.0]
['beep', 0.0, -1271.4119281067763, 0.0, 0.0, 0.0, 0.0, -127.44964688416087, 0.0]
['beep', 0.0, -1271.814259506972, 0.0, 0.0, 0.0, 0.0, -128.52253061801562, 0.0]
['beep', 0.0, -1272.3954048628098, 0.0, 0.0, 0.0, 0.0, -127.38259165079495, 0.0]
['beep', 0.0, -1272.1942391627122, 0.0, 0.0, 0.0, 0.0, -127.09201897287596, 0.0]
['beep', 0.0, -1272.3730531183546, 0.0, 0.0, 0.0, 0.0, -127.47199862861618, 0.0]
['beep', 0.0, -1271.5013350845975, 0.0, 0.0, 0.0, 0.0, -127.02496373951004, 0.0]
['beep', 0.0, -1272.6859775407288, 0.0, 0.0, 0.0, 0.0, -127.27083292851842, 0.0]
['beep', 0.0, -1272.6859775407288, 0.0, 0.0, 0.0, 0.0, -128.4331236401944, 0.0]
['beep', 0.0, -1272.5295153295417, 0.0, 0.0, 0.0, 0.0, -127.78492305099047, 0.0]
['beep', 0.0, -1272.5295153295417, 0.0, 0.0, 0.0, 0.0, -126.17559745020837, 0.0]
['beep', 0.0, -1272.7977362630054, 0.0, 0.0, 0.0, 0.0, -126.82379803941227, 0.0]
['beep', 0.0, -1272.0824804404356, 0.0, 0.0, 0.0, 0.0, -126.93555676168882, 0.0]
['beep', 0.0, -1272.1942391627122, 0.0, 0.0, 0.0, 0.0, -128.00844049554354, 0.0]
['beep', 0.0, -1272.3059978849885, 0.0, 0.0, 0.0, 0.0, -128.72369631811338, 0.0]
['beep', 0.0, -1272.909494985282, 0.0, 0.0, 0.0, 0.0, -126.42146663921675, 0.0]
['beep', 0.0, -1272.0154252070697, 0.0, 0.0, 0.0, 0.0, -127.42729513970556, 0.0]
['beep', 0.0, -1271.8366112514273, 0.0, 0.0, 0.0, 0.0, -127.24848118406311, 0.0]
['beep', 0.0, -1273.9153234857708, 0.0, 0.0, 0.0, 0.0, -125.75091430555753, 0.0]
['beep', 0.0, -1274.0941374414133, 0.0, 0.0, 0.0, 0.0, -126.42146663921675, 0.0]
['beep', 0.0, -1274.2505996526004, 0.0, 0.0, 0.0, 0.0, -126.95790850614412, 0.0]
['beep', 0.0, -1272.551867073997, 0.0, 0.0, 0.0, 0.0, -127.62846083980332, 0.0]
['beep', 0.0, -1270.875486239849, 0.0, 0.0, 0.0, 0.0, -128.05314398445415, 0.0]
['beep', 0.0, -1271.6354455513294, 0.0, 0.0, 0.0, 0.0, -126.55557710594859, 0.0]
['beep', 0.0, -1272.8647914963713, 0.0, 0.0, 0.0, 0.0, -125.3038794164514, 0.0]
['beep', 0.0, -1272.3059978849885, 0.0, 0.0, 0.0, 0.0, -125.9297282612, 0.0]
['beep', 0.0, -1272.551867073997, 0.0, 0.0, 0.0, 0.0, -126.08619047238714, 0.0]
['beep', 0.0, -1273.3118263854774, 0.0, 0.0, 0.0, 0.0, -127.2261294396078, 0.0]
['beep', 0.0, -1273.7365095301282, 0.0, 0.0, 0.0, 0.0, -128.67899282920277, 0.0]
['beep', 0.0, -1272.9318467297371, 0.0, 0.0, 0.0, 0.0, -127.89668177326702, 0.0]
['beep', 0.0, -1273.065957196469, 0.0, 0.0, 0.0, 0.0, -127.27083292851842, 0.0]
['beep', 0.0, -1273.8482682524048, 0.0, 0.0, 0.0, 0.0, -127.58375735089271, 0.0]
['beep', 0.0, -1273.8035647634943, 0.0, 0.0, 0.0, 0.0, -127.71786781762455, 0.0]
['beep', 0.0, -1273.6918060412177, 0.0, 0.0, 0.0, 0.0, -128.187254451186, 0.0]
['beep', 0.0, -1273.3565298743881, 0.0, 0.0, 0.0, 0.0, -127.80727479544578, 0.0]
['beep', 0.0, -1272.909494985282, 0.0, 0.0, 0.0, 0.0, -127.98608875108825, 0.0]
['beep', 0.0, -1272.9765502186478, 0.0, 0.0, 0.0, 0.0, -126.98026025059943, 0.0]
['beep', 0.0, -1272.5742188184522, 0.0, 0.0, 0.0, 0.0, -127.00261199505474, 0.0]
['beep', 0.0, -1272.551867073997, 0.0, 0.0, 0.0, 0.0, -126.10854221684245, 0.0]
['beep', 0.0, -1272.1718874182568, 0.0, 0.0, 0.0, 0.0, -125.72856256110222, 0.0]
['beep', 0.0, -1272.5742188184522, 0.0, 0.0, 0.0, 0.0, -126.8908532727782, 0.0]
['beep', 0.0, -1273.3565298743881, 0.0, 0.0, 0.0, 0.0, -126.37676315030613, 0.0]
['beep', 0.0, -1271.2554658955892, 0.0, 0.0, 0.0, 0.0, -127.96373700663294, 0.0]
['beep', 0.0, -1272.5742188184522, 0.0, 0.0, 0.0, 0.0, -128.03079223999885, 0.0]
['beep', 0.0, -1273.289474641022, 0.0, 0.0, 0.0, 0.0, -126.98026025059943, 0.0]
['beep', 0.0, -1273.2224194076562, 0.0, 0.0, 0.0, 0.0, -127.89668177326702, 0.0]
['beep', 0.0, -1272.5295153295417, 0.0, 0.0, 0.0, 0.0, -126.93555676168882, 0.0]
['beep', 0.0, -1272.909494985282, 0.0, 0.0, 0.0, 0.0, -127.04731548396535, 0.0]
['beep', 0.0, -1272.9989019631032, 0.0, 0.0, 0.0, 0.0, -126.8908532727782, 0.0]
['beep', 0.0, -1274.4517653526982, 0.0, 0.0, 0.0, 0.0, -126.98026025059943, 0.0]
['beep', 0.0, -1274.004730463592, 0.0, 0.0, 0.0, 0.0, -127.98608875108825, 0.0]
['beep', 0.0, -1273.7588612745835, 0.0, 0.0, 0.0, 0.0, -128.2543096845519, 0.0]
['beep', 0.0, -1275.3681868753656, 0.0, 0.0, 0.0, 0.0, -128.7907515514793, 0.0]
['beep', 0.0, -1273.8035647634943, 0.0, 0.0, 0.0, 0.0, -129.90833877424464, 0.0]
['beep', 0.0, -1274.0494339525026, 0.0, 0.0, 0.0, 0.0, -130.17655970770832, 0.0]
['beep', 0.0, -1274.0270822080472, 0.0, 0.0, 0.0, 0.0, -129.23778644058544, 0.0]
['beep', 0.0, -1274.071785696958, 0.0, 0.0, 0.0, 0.0, -129.30484167395136, 0.0]
['beep', 0.0, -1273.9823787191367, 0.0, 0.0, 0.0, 0.0, -128.27666142900722, 0.0]
['beep', 0.0, -1273.5129920855752, 0.0, 0.0, 0.0, 0.0, -128.72369631811338, 0.0]
['beep', 0.0, -1274.2505996526004, 0.0, 0.0, 0.0, 0.0, -128.7907515514793, 0.0]
['beep', 0.0, -1273.1777159187457, 0.0, 0.0, 0.0, 0.0, -128.2096061956413, 0.0]
['beep', 0.0, -1272.8647914963713, 0.0, 0.0, 0.0, 0.0, -129.28248992949605, 0.0]
['beep', 0.0, -1273.1777159187457, 0.0, 0.0, 0.0, 0.0, -129.39424865177259, 0.0]
['beep', 0.0, -1272.6859775407288, 0.0, 0.0, 0.0, 0.0, -128.29901317346253, 0.0]
['beep', 0.0, -1273.9153234857708, 0.0, 0.0, 0.0, 0.0, -128.65664108474746, 0.0]
['beep', 0.0, -1274.876448497349, 0.0, 0.0, 0.0, 0.0, -129.4166003962279, 0.0]
['beep', 0.0, -1273.8259165079496, 0.0, 0.0, 0.0, 0.0, -128.90251027375584, 0.0]
['beep', 0.0, -1274.1388409303238, 0.0, 0.0, 0.0, 0.0, -128.7907515514793, 0.0]
['beep', 0.0, -1274.6529310527958, 0.0, 0.0, 0.0, 0.0, -130.7130015746357, 0.0]
['beep', 0.0, -1274.4070618637875, 0.0, 0.0, 0.0, 0.0, -130.60124285235918, 0.0]
['beep', 0.0, -1274.8988002418043, 0.0, 0.0, 0.0, 0.0, -129.05897248494298, 0.0]
['beep', 0.0, -1274.5635240749746, 0.0, 0.0, 0.0, 0.0, -130.1095044743424, 0.0]
['beep', 0.0, -1274.3176548859662, 0.0, 0.0, 0.0, 0.0, -131.2941469304737, 0.0]
['beep', 0.0, -1275.1446694308127, 0.0, 0.0, 0.0, 0.0, -129.61776609632565, 0.0]
['beep', 0.0, -1273.714157785673, 0.0, 0.0, 0.0, 0.0, -129.50600737404912, 0.0]
['beep', 0.0, -1274.1388409303238, 0.0, 0.0, 0.0, 0.0, -129.28248992949605, 0.0]
['beep', 0.0, -1274.876448497349, 0.0, 0.0, 0.0, 0.0, -128.65664108474746, 0.0]
['beep', 0.0, -1273.8706199968601, 0.0, 0.0, 0.0, 0.0, -130.35537366335078, 0.0]
['beep', 0.0, -1273.5353438300306, 0.0, 0.0, 0.0, 0.0, -129.66246958523627, 0.0]
['beep', 0.0, -1274.0270822080472, 0.0, 0.0, 0.0, 0.0, -129.8189317964234, 0.0]
['beep', 0.0, -1275.4575938531868, 0.0, 0.0, 0.0, 0.0, -130.28831842998486, 0.0]
['beep', 0.0, -1274.3400066304216, 0.0, 0.0, 0.0, 0.0, -130.57889110790387, 0.0]
['beep', 0.0, -1273.7588612745835, 0.0, 0.0, 0.0, 0.0, -129.90833877424464, 0.0]
['beep', 0.0, -1273.3118263854774, 0.0, 0.0, 0.0, 0.0, -128.90251027375584, 0.0]
['beep', 0.0, -1274.2729513970557, 0.0, 0.0, 0.0, 0.0, -129.0813242293983, 0.0]
['beep', 0.0, -1274.1388409303238, 0.0, 0.0, 0.0, 0.0, -129.8189317964234, 0.0]
['beep', 0.0, -1273.9153234857708, 0.0, 0.0, 0.0, 0.0, -131.56236786393737, 0.0]
['beep', 0.0, -1275.524649086553, 0.0, 0.0, 0.0, 0.0, -129.28248992949605, 0.0]
['beep', 0.0, -1274.9882072196256, 0.0, 0.0, 0.0, 0.0, -128.7460480625687, 0.0]
['beep', 0.0, -1275.6140560643742, 0.0, 0.0, 0.0, 0.0, -129.86363528533403, 0.0]
['beep', 0.0, -1276.329311886944, 0.0, 0.0, 0.0, 0.0, -129.84128354087872, 0.0]
['beep', 0.0, -1275.6587595532847, 0.0, 0.0, 0.0, 0.0, -128.7907515514793, 0.0]
['beep', 0.0, -1276.3069601424886, 0.0, 0.0, 0.0, 0.0, -128.88015852930053, 0.0]
['beep', 0.0, -1274.8988002418043, 0.0, 0.0, 0.0, 0.0, -128.85780678484522, 0.0]
['beep', 0.0, -1275.524649086553, 0.0, 0.0, 0.0, 0.0, -130.02009749652117, 0.0]
['beep', 0.0, -1276.195201420212, 0.0, 0.0, 0.0, 0.0, -129.39424865177259, 0.0]
['beep', 0.0, -1275.8152217644717, 0.0, 0.0, 0.0, 0.0, -128.94721376266645, 0.0]
['beep', 0.0, -1275.9269804867483, 0.0, 0.0, 0.0, 0.0, -128.54488236247093, 0.0]
['beep', 0.0, -1275.5917043199188, 0.0, 0.0, 0.0, 0.0, -128.7460480625687, 0.0]
['beep', 0.0, -1274.2953031415109, 0.0, 0.0, 0.0, 0.0, -128.56723410692624, 0.0]
['beep', 0.0, -1275.547000831008, 0.0, 0.0, 0.0, 0.0, -127.8743300288117, 0.0]
['beep', 0.0, -1276.2622566535779, 0.0, 0.0, 0.0, 0.0, -127.09201897287596, 0.0]
['beep', 0.0, -1276.4187188647652, 0.0, 0.0, 0.0, 0.0, -130.22126319661893, 0.0]
['beep', 0.0, -1276.1504979313015, 0.0, 0.0, 0.0, 0.0, -130.40007715226142, 0.0]
['beep', 0.0, -1276.1057944423908, 0.0, 0.0, 0.0, 0.0, -129.7965800519681, 0.0]
['beep', 0.0, -1275.524649086553, 0.0, 0.0, 0.0, 0.0, -130.24361494107424, 0.0]
['beep', 0.0, -1275.9269804867483, 0.0, 0.0, 0.0, 0.0, -129.64011784078096, 0.0]
['beep', 0.0, -1275.8822769978378, 0.0, 0.0, 0.0, 0.0, -129.68482132969157, 0.0]
['beep', 0.0, -1275.323483386455, 0.0, 0.0, 0.0, 0.0, -129.64011784078096, 0.0]
['beep', 0.0, -1276.1504979313015, 0.0, 0.0, 0.0, 0.0, -128.768399807024, 0.0]
['beep', 0.0, -1276.8657537538713, 0.0, 0.0, 0.0, 0.0, -127.2261294396078, 0.0]
['beep', 0.0, -1276.1057944423908, 0.0, 0.0, 0.0, 0.0, -128.88015852930053, 0.0]
['beep', 0.0, -1275.7705182755612, 0.0, 0.0, 0.0, 0.0, -129.05897248494298, 0.0]
['beep', 0.0, -1274.9658554751702, 0.0, 0.0, 0.0, 0.0, -129.70717307414688, 0.0]
['beep', 0.0, -1274.9435037307148, 0.0, 0.0, 0.0, 0.0, -130.1318562187977, 0.0]
['beep', 0.0, -1276.6645880537735, 0.0, 0.0, 0.0, 0.0, -129.99774575206587, 0.0]
['beep', 0.0, -1276.2399049091227, 0.0, 0.0, 0.0, 0.0, -129.66246958523627, 0.0]
['beep', 0.0, -1275.7928700200166, 0.0, 0.0, 0.0, 0.0, -128.52253061801562, 0.0]
['beep', 0.0, -1276.0610909534803, 0.0, 0.0, 0.0, 0.0, -128.99191725157706, 0.0]
['beep', 0.0, -1276.2846083980332, 0.0, 0.0, 0.0, 0.0, -128.72369631811338, 0.0]
['beep', 0.0, -1275.5693525754634, 0.0, 0.0, 0.0, 0.0, -127.5614056064374, 0.0]
['beep', 0.0, -1275.2564281530892, 0.0, 0.0, 0.0, 0.0, -129.21543469613013, 0.0]
['beep', 0.0, -1275.0105589640807, 0.0, 0.0, 0.0, 0.0, -129.21543469613013, 0.0]
['beep', 0.0, -1274.1164891858684, 0.0, 0.0, 0.0, 0.0, -129.55071086295973, 0.0]
['beep', 0.0, -1274.1164891858684, 0.0, 0.0, 0.0, 0.0, -129.7518765630575, 0.0]
['beep', 0.0, -1274.876448497349, 0.0, 0.0, 0.0, 0.0, -129.61776609632565, 0.0]
['beep', 0.0, -1274.5411723305194, 0.0, 0.0, 0.0, 0.0, -128.4554753846497, 0.0]
['beep', 0.0, -1275.0552624529914, 0.0, 0.0, 0.0, 0.0, -128.187254451186, 0.0]
['beep', 0.0, -1276.552829331497, 0.0, 0.0, 0.0, 0.0, -130.19891145216363, 0.0]
['beep', 0.0, -1276.9104572427818, 0.0, 0.0, 0.0, 0.0, -130.1318562187977, 0.0]
['beep', 0.0, -1276.1504979313015, 0.0, 0.0, 0.0, 0.0, -130.51183587453795, 0.0]
['beep', 0.0, -1275.9269804867483, 0.0, 0.0, 0.0, 0.0, -130.31067017444016, 0.0]
['beep', 0.0, -1275.323483386455, 0.0, 0.0, 0.0, 0.0, -129.68482132969157, 0.0]
['beep', 0.0, -1275.6364078088293, 0.0, 0.0, 0.0, 0.0, -128.96956550712176, 0.0]
['beep', 0.0, -1276.4634223536757, 0.0, 0.0, 0.0, 0.0, -128.12019921782007, 0.0]
['beep', 0.0, -1277.9833409766366, 0.0, 0.0, 0.0, 0.0, -128.14255096227538, 0.0]
['beep', 0.0, -1278.0727479544578, 0.0, 0.0, 0.0, 0.0, -129.21543469613013, 0.0]
['beep', 0.0, -1277.8268787654495, 0.0, 0.0, 0.0, 0.0, -128.65664108474746, 0.0]
['beep', 0.0, -1277.7374717876282, 0.0, 0.0, 0.0, 0.0, -128.03079223999885, 0.0]
['beep', 0.0, -1277.357492131888, 0.0, 0.0, 0.0, 0.0, -130.26596668552955, 0.0]
['beep', 0.0, -1277.4245473652538, 0.0, 0.0, 0.0, 0.0, -130.1318562187977, 0.0]
['beep', 0.0, -1278.6091898213851, 0.0, 0.0, 0.0, 0.0, -129.4389521406832, 0.0]
['beep', 0.0, -1278.9221142437596, 0.0, 0.0, 0.0, 0.0, -128.65664108474746, 0.0]
['beep', 0.0, -1279.2797421550445, 0.0, 0.0, 0.0, 0.0, -128.03079223999885, 0.0]
['beep', 0.0, -1278.8327072659383, 0.0, 0.0, 0.0, 0.0, -128.09784747336477, 0.0]
['beep', 0.0, -1279.615018321874, 0.0, 0.0, 0.0, 0.0, -128.72369631811338, 0.0]
['beep', 0.0, -1278.944465988215, 0.0, 0.0, 0.0, 0.0, -129.1036759738536, 0.0]
['beep', 0.0, -1277.7151200431729, 0.0, 0.0, 0.0, 0.0, -128.7460480625687, 0.0]
['beep', 0.0, -1278.519782843564, 0.0, 0.0, 0.0, 0.0, -128.56723410692624, 0.0]
['beep', 0.0, -1279.1679834327679, 0.0, 0.0, 0.0, 0.0, -129.28248992949605, 0.0]
['beep', 0.0, -1280.911419500282, 0.0, 0.0, 0.0, 0.0, -128.03079223999885, 0.0]
['beep', 0.0, -1280.0173497220696, 0.0, 0.0, 0.0, 0.0, -128.2096061956413, 0.0]
['beep', 0.0, -1279.458556110687, 0.0, 0.0, 0.0, 0.0, -129.1036759738536, 0.0]
['beep', 0.0, -1279.7044252996952, 0.0, 0.0, 0.0, 0.0, -129.21543469613013, 0.0]
['beep', 0.0, -1279.0562247104913, 0.0, 0.0, 0.0, 0.0, -129.28248992949605, 0.0]
['beep', 0.0, -1279.0115212215808, 0.0, 0.0, 0.0, 0.0, -128.56723410692624, 0.0]
['beep', 0.0, -1279.2126869216786, 0.0, 0.0, 0.0, 0.0, -127.71786781762455, 0.0]
['beep', 0.0, -1278.6315415658405, 0.0, 0.0, 0.0, 0.0, -129.7965800519681, 0.0]
['beep', 0.0, -1278.2739136545556, 0.0, 0.0, 0.0, 0.0, -130.17655970770832, 0.0]
['beep', 0.0, -1279.2350386661337, 0.0, 0.0, 0.0, 0.0, -130.02009749652117, 0.0]
['beep', 0.0, -1278.3409688879215, 0.0, 0.0, 0.0, 0.0, -129.84128354087872, 0.0]
['beep', 0.0, -1279.2126869216786, 0.0, 0.0, 0.0, 0.0, -129.30484167395136, 0.0]
['beep', 0.0, -1278.1845066767344, 0.0, 0.0, 0.0, 0.0, -129.61776609632565, 0.0]
['beep', 0.0, -1277.8715822543602, 0.0, 0.0, 0.0, 0.0, -129.1260277183089, 0.0]
['beep', 0.0, -1277.938637487726, 0.0, 0.0, 0.0, 0.0, -129.4389521406832, 0.0]
['beep', 0.0, -1278.2068584211897, 0.0, 0.0, 0.0, 0.0, -129.90833877424464, 0.0]
['beep', 0.0, -1277.0445677095138, 0.0, 0.0, 0.0, 0.0, -130.26596668552955, 0.0]
['beep', 0.0, -1279.1456316883125, 0.0, 0.0, 0.0, 0.0, -130.04244924097648, 0.0]
['beep', 0.0, -1278.229210165645, 0.0, 0.0, 0.0, 0.0, -129.90833877424464, 0.0]
['beep', 0.0, -1277.0222159650584, 0.0, 0.0, 0.0, 0.0, -130.57889110790387, 0.0]
['beep', 0.0, -1277.6257130653516, 0.0, 0.0, 0.0, 0.0, -131.18238820819715, 0.0]
['beep', 0.0, -1276.8881054983265, 0.0, 0.0, 0.0, 0.0, -130.51183587453795, 0.0]
['beep', 0.0, -1276.0834426979354, 0.0, 0.0, 0.0, 0.0, -130.53418761899326, 0.0]
['beep', 0.0, -1275.7481665311059, 0.0, 0.0, 0.0, 0.0, -130.0648009854318, 0.0]
['beep', 0.0, -1275.524649086553, 0.0, 0.0, 0.0, 0.0, -131.0482777414653, 0.0]
['beep', 0.0, -1275.524649086553, 0.0, 0.0, 0.0, 0.0, -131.11533297483123, 0.0]
['beep', 0.0, -1276.3740153758545, 0.0, 0.0, 0.0, 0.0, -130.35537366335078, 0.0]
['beep', 0.0, -1277.7598235320836, 0.0, 0.0, 0.0, 0.0, -129.84128354087872, 0.0]
['beep', 0.0, -1276.77634677605, 0.0, 0.0, 0.0, 0.0, -131.47296088611614, 0.0]
['beep', 0.0, -1277.066919453969, 0.0, 0.0, 0.0, 0.0, -132.27762368650718, 0.0]
['beep', 0.0, -1276.485774098131, 0.0, 0.0, 0.0, 0.0, -130.93651901918878, 0.0]
['beep', 0.0, -1274.8317450084382, 0.0, 0.0, 0.0, 0.0, -129.88598702978933, 0.0]
['beep', 0.0, -1273.8035647634943, 0.0, 0.0, 0.0, 0.0, -130.1318562187977, 0.0]
['beep', 0.0, -1272.7977362630054, 0.0, 0.0, 0.0, 0.0, -129.21543469613013, 0.0]
['beep', 0.0, -1272.127183929346, 0.0, 0.0, 0.0, 0.0, -128.56723410692624, 0.0]
['beep', 0.0, -1271.7695560180612, 0.0, 0.0, 0.0, 0.0, -128.00844049554354, 0.0]
['beep', 0.0, -1274.4070618637875, 0.0, 0.0, 0.0, 0.0, -127.8743300288117, 0.0]
['beep', 0.0, -1274.876448497349, 0.0, 0.0, 0.0, 0.0, -128.63428934029216, 0.0]
['beep', 0.0, -1275.4799455976422, 0.0, 0.0, 0.0, 0.0, -130.0648009854318, 0.0]
['beep', 0.0, -1277.0445677095138, 0.0, 0.0, 0.0, 0.0, -130.1318562187977, 0.0]
['beep', 0.0, -1277.3351403874326, 0.0, 0.0, 0.0, 0.0, -130.26596668552955, 0.0]
['beep', 0.0, -1277.357492131888, 0.0, 0.0, 0.0, 0.0, -129.7518765630575, 0.0]
['beep', 0.0, -1278.0503962100026, 0.0, 0.0, 0.0, 0.0, -128.88015852930053, 0.0]
['beep', 0.0, -1277.7151200431729, 0.0, 0.0, 0.0, 0.0, -128.83545504038992, 0.0]
['beep', 0.0, -1278.296265399011, 0.0, 0.0, 0.0, 0.0, -129.30484167395136, 0.0]
['beep', 0.0, -1277.7598235320836, 0.0, 0.0, 0.0, 0.0, -128.7907515514793, 0.0]
['beep', 0.0, -1276.4410706092203, 0.0, 0.0, 0.0, 0.0, -130.0648009854318, 0.0]
['beep', 0.0, -1276.3740153758545, 0.0, 0.0, 0.0, 0.0, -131.0035742525547, 0.0]
['beep', 0.0, -1277.0892711984243, 0.0, 0.0, 0.0, 0.0, -129.21543469613013, 0.0]
['beep', 0.0, -1278.229210165645, 0.0, 0.0, 0.0, 0.0, -130.42242889671672, 0.0]
['beep', 0.0, -1278.005692721092, 0.0, 0.0, 0.0, 0.0, -130.9588707636441, 0.0]
['beep', 0.0, -1278.2068584211897, 0.0, 0.0, 0.0, 0.0, -129.64011784078096, 0.0]
['beep', 0.0, -1278.2068584211897, 0.0, 0.0, 0.0, 0.0, -130.62359459681448, 0.0]
['beep', 0.0, -1277.2010299207009, 0.0, 0.0, 0.0, 0.0, -130.44478064117203, 0.0]
['beep', 0.0, -1277.6927682987175, 0.0, 0.0, 0.0, 0.0, -130.31067017444016, 0.0]
['beep', 0.0, -1278.6315415658405, 0.0, 0.0, 0.0, 0.0, -129.4613038851385, 0.0]
['beep', 0.0, -1277.5586578319858, 0.0, 0.0, 0.0, 0.0, -128.2543096845519, 0.0]
['beep', 0.0, -1276.999864220603, 0.0, 0.0, 0.0, 0.0, -130.0648009854318, 0.0]
['beep', 0.0, -1276.2399049091227, 0.0, 0.0, 0.0, 0.0, -130.55653936344856, 0.0]
['beep', 0.0, -1276.3069601424886, 0.0, 0.0, 0.0, 0.0, -129.30484167395136, 0.0]
['beep', 0.0, -1278.1174514433685, 0.0, 0.0, 0.0, 0.0, -128.65664108474746, 0.0]
['beep', 0.0, -1278.4303758657427, 0.0, 0.0, 0.0, 0.0, -129.61776609632565, 0.0]
['beep', 0.0, -1277.4468991097092, 0.0, 0.0, 0.0, 0.0, -129.34954516286197, 0.0]
['beep', 0.0, -1277.513954343075, 0.0, 0.0, 0.0, 0.0, -129.1260277183089, 0.0]
['beep', 0.0, -1277.7151200431729, 0.0, 0.0, 0.0, 0.0, -129.28248992949605, 0.0]
['beep', 0.0, -1277.49160259862, 0.0, 0.0, 0.0, 0.0, -128.768399807024, 0.0]
['beep', 0.0, -1276.1504979313015, 0.0, 0.0, 0.0, 0.0, -130.0648009854318, 0.0]
['beep', 0.0, -1276.038739209025, 0.0, 0.0, 0.0, 0.0, -129.05897248494298, 0.0]
['beep', 0.0, -1275.8822769978378, 0.0, 0.0, 0.0, 0.0, -128.09784747336477, 0.0]
['beep', 0.0, -1276.7539950315947, 0.0, 0.0, 0.0, 0.0, -130.91416727473347, 0.0]
['beep', 0.0, -1278.3856723768322, 0.0, 0.0, 0.0, 0.0, -128.92486201821114, 0.0]
['beep', 0.0, -1277.938637487726, 0.0, 0.0, 0.0, 0.0, -129.26013818504074, 0.0]
['beep', 0.0, -1276.4410706092203, 0.0, 0.0, 0.0, 0.0, -129.57306260741504, 0.0]
['beep', 0.0, -1275.971683975659, 0.0, 0.0, 0.0, 0.0, -128.7907515514793, 0.0]
['beep', 0.0, -1276.709291542684, 0.0, 0.0, 0.0, 0.0, -129.95304226315525, 0.0]
['beep', 0.0, -1277.3351403874326, 0.0, 0.0, 0.0, 0.0, -128.88015852930053, 0.0]
['beep', 0.0, -1277.290436898522, 0.0, 0.0, 0.0, 0.0, -129.57306260741504, 0.0]
['beep', 0.0, -1277.0445677095138, 0.0, 0.0, 0.0, 0.0, -130.1318562187977, 0.0]
['beep', 0.0, -1277.4245473652538, 0.0, 0.0, 0.0, 0.0, -130.6682980857251, 0.0]
['beep', 0.0, -1276.9551607316926, 0.0, 0.0, 0.0, 0.0, -131.07062948592062, 0.0]
['beep', 0.0, -1276.1504979313015, 0.0, 0.0, 0.0, 0.0, -129.23778644058544, 0.0]
['beep', 0.0, -1276.2846083980332, 0.0, 0.0, 0.0, 0.0, -129.90833877424464, 0.0]
['beep', 0.0, -1276.8210502649606, 0.0, 0.0, 0.0, 0.0, -129.7518765630575, 0.0]
['beep', 0.0, -1277.2233816651562, 0.0, 0.0, 0.0, 0.0, -128.38842015128378, 0.0]
['beep', 0.0, -1276.1281461868462, 0.0, 0.0, 0.0, 0.0, -129.59541435187035, 0.0]
['beep', 0.0, -1276.9328089872372, 0.0, 0.0, 0.0, 0.0, -131.9646992641329, 0.0]
['beep', 0.0, -1277.9162857432707, 0.0, 0.0, 0.0, 0.0, -131.6517748417586, 0.0]
['beep', 0.0, -1276.999864220603, 0.0, 0.0, 0.0, 0.0, -130.3777254078061, 0.0]
['beep', 0.0, -1277.7151200431729, 0.0, 0.0, 0.0, 0.0, -130.33302191889547, 0.0]
['beep', 0.0, -1277.5363060875304, 0.0, 0.0, 0.0, 0.0, -130.1095044743424, 0.0]
['beep', 0.0, -1276.552829331497, 0.0, 0.0, 0.0, 0.0, -129.99774575206587, 0.0]
['beep', 0.0, -1276.7539950315947, 0.0, 0.0, 0.0, 0.0, -129.68482132969157, 0.0]
['beep', 0.0, -1276.8881054983265, 0.0, 0.0, 0.0, 0.0, -127.80727479544578, 0.0]
['beep', 0.0, -1277.1786781762455, 0.0, 0.0, 0.0, 0.0, -129.90833877424464, 0.0]
['beep', 0.0, -1278.6091898213851, 0.0, 0.0, 0.0, 0.0, -129.26013818504074, 0.0]
['beep', 0.0, -1278.8774107548488, 0.0, 0.0, 0.0, 0.0, -127.94138526217763, 0.0]
['beep', 0.0, -1278.7656520325725, 0.0, 0.0, 0.0, 0.0, -128.63428934029216, 0.0]
['beep', 0.0, -1278.743300288117, 0.0, 0.0, 0.0, 0.0, -128.96956550712176, 0.0]
['beep', 0.0, -1279.6820735552399, 0.0, 0.0, 0.0, 0.0, -128.187254451186, 0.0]
['beep', 0.0, -1279.5479630885081, 0.0, 0.0, 0.0, 0.0, -128.2096061956413, 0.0]
['beep', 0.0, -1279.8832392553377, 0.0, 0.0, 0.0, 0.0, -128.477827129105, 0.0]
['beep', 0.0, -1279.8608875108823, 0.0, 0.0, 0.0, 0.0, -128.27666142900722, 0.0]
['beep', 0.0, -1279.5032595995974, 0.0, 0.0, 0.0, 0.0, -128.4331236401944, 0.0]
['beep', 0.0, -1279.1232799438574, 0.0, 0.0, 0.0, 0.0, -125.81796953892345, 0.0]
['beep', 0.0, -1278.8997624993042, 0.0, 0.0, 0.0, 0.0, -123.64985032675867, 0.0]
['beep', 0.0, -1279.6373700663294, 0.0, 0.0, 0.0, 0.0, -121.95111774815534, 0.0]
['beep', 0.0, -1279.5926665774186, 0.0, 0.0, 0.0, 0.0, -121.57113809241511, 0.0]
['beep', 0.0, -1280.2855706555333, 0.0, 0.0, 0.0, 0.0, -121.79465553696818, 0.0]
['beep', 0.0, -1281.224343922656, 0.0, 0.0, 0.0, 0.0, -122.01817298152126, 0.0]
['beep', 0.0, -1280.3749776333545, 0.0, 0.0, 0.0, 0.0, -122.42050438171678, 0.0]
['beep', 0.0, -1279.5703148329635, 0.0, 0.0, 0.0, 0.0, -120.63236482529221, 0.0]
['beep', 0.0, -1281.0231782225583, 0.0, 0.0, 0.0, 0.0, -119.78299853599054, 0.0]
['beep', 0.0, -1281.6713788117622, 0.0, 0.0, 0.0, 0.0, -119.82770202490116, 0.0]
['beep', 0.0, -1280.77730903355, 0.0, 0.0, 0.0, 0.0, -120.72177180311344, 0.0]
['beep', 0.0, -1280.6879020557287, 0.0, 0.0, 0.0, 0.0, -120.02886772499893, 0.0]
['beep', 0.0, -1280.5984950779075, 0.0, 0.0, 0.0, 0.0, -119.51477760252686, 0.0]
['beep', 0.0, -1280.3302741444438, 0.0, 0.0, 0.0, 0.0, -119.60418458034809, 0.0]
['beep', 0.0, -1280.5761433334521, 0.0, 0.0, 0.0, 0.0, -118.9783357355995, 0.0]
['beep', 0.0, -1280.6655503112734, 0.0, 0.0, 0.0, 0.0, -119.06774271342073, 0.0]
['beep', 0.0, -1280.7326055446395, 0.0, 0.0, 0.0, 0.0, -118.77717003550173, 0.0]
['beep', 0.0, -1280.0844049554355, 0.0, 0.0, 0.0, 0.0, -118.06191421293191, 0.0]
['beep', 0.0, -1280.3973293778097, 0.0, 0.0, 0.0, 0.0, -118.44189386867212, 0.0]
['beep', 0.0, -1280.9561229891924, 0.0, 0.0, 0.0, 0.0, -117.32430664590677, 0.0]
['beep', 0.0, -1280.0173497220696, 0.0, 0.0, 0.0, 0.0, -117.77134153501291, 0.0]
['beep', 0.0, -1279.2126869216786, 0.0, 0.0, 0.0, 0.0, -117.21254792363024, 0.0]
['beep', 0.0, -1278.6091898213851, 0.0, 0.0, 0.0, 0.0, -116.27377465650734, 0.0]
['beep', 0.0, -1279.324445643955, 0.0, 0.0, 0.0, 0.0, -117.27960315699616, 0.0]
['beep', 0.0, -1279.1232799438574, 0.0, 0.0, 0.0, 0.0, -118.0172107240213, 0.0]
['beep', 0.0, -1279.2126869216786, 0.0, 0.0, 0.0, 0.0, -118.21837642411906, 0.0]
['beep', 0.0, -1280.0620532109801, 0.0, 0.0, 0.0, 0.0, -117.30195490145147, 0.0]
['beep', 0.0, -1279.615018321874, 0.0, 0.0, 0.0, 0.0, -116.4525886121498, 0.0]
['beep', 0.0, -1279.4809078551423, 0.0, 0.0, 0.0, 0.0, -116.1396641897755, 0.0]
['beep', 0.0, -1279.6820735552399, 0.0, 0.0, 0.0, 0.0, -116.72080954561348, 0.0]
['beep', 0.0, -1278.005692721092, 0.0, 0.0, 0.0, 0.0, -117.01138222353248, 0.0]
['beep', 0.0, -1276.5975328204077, 0.0, 0.0, 0.0, 0.0, -116.76551303452409, 0.0]
['beep', 0.0, -1277.0445677095138, 0.0, 0.0, 0.0, 0.0, -117.14549269026432, 0.0]
['beep', 0.0, -1276.5975328204077, 0.0, 0.0, 0.0, 0.0, -118.24072816857436, 0.0]
['beep', 0.0, -1276.329311886944, 0.0, 0.0, 0.0, 0.0, -116.94432699016656, 0.0]
['beep', 0.0, -1277.3127886429775, 0.0, 0.0, 0.0, 0.0, -115.31264964492914, 0.0]
['beep', 0.0, -1277.290436898522, 0.0, 0.0, 0.0, 0.0, -114.79855952245707, 0.0]
['beep', 0.0, -1276.1504979313015, 0.0, 0.0, 0.0, 0.0, -116.49729210106041, 0.0]
['beep', 0.0, -1277.2010299207009, 0.0, 0.0, 0.0, 0.0, -115.80438802294589, 0.0]
['beep', 0.0, -1277.804527020994, 0.0, 0.0, 0.0, 0.0, -115.49146360057159, 0.0]
['beep', 0.0, -1276.3963671203098, 0.0, 0.0, 0.0, 0.0, -115.35735313383975, 0.0]
['beep', 0.0, -1276.5304775870416, 0.0, 0.0, 0.0, 0.0, -114.68680080018054, 0.0]
['beep', 0.0, -1276.999864220603, 0.0, 0.0, 0.0, 0.0, -114.9103182447336, 0.0]
['beep', 0.0, -1277.2233816651562, 0.0, 0.0, 0.0, 0.0, -114.82091126691238, 0.0]
['beep', 0.0, -1276.4410706092203, 0.0, 0.0, 0.0, 0.0, -115.13383568928668, 0.0]
['beep', 0.0, -1276.4410706092203, 0.0, 0.0, 0.0, 0.0, -115.69262930066935, 0.0]
['beep', 0.0, -1276.552829331497, 0.0, 0.0, 0.0, 0.0, -116.43023686769449, 0.0]
['beep', 0.0, -1277.1563264317901, 0.0, 0.0, 0.0, 0.0, -116.51964384551572, 0.0]
['beep', 0.0, -1277.3351403874326, 0.0, 0.0, 0.0, 0.0, -116.25142291205204, 0.0]
['beep', 0.0, -1276.195201420212, 0.0, 0.0, 0.0, 0.0, -116.76551303452409, 0.0]
['beep', 0.0, -1276.5304775870416, 0.0, 0.0, 0.0, 0.0, -117.413713623728, 0.0]
['beep', 0.0, -1276.709291542684, 0.0, 0.0, 0.0, 0.0, -117.83839676837883, 0.0]
['beep', 0.0, -1277.133974687335, 0.0, 0.0, 0.0, 0.0, -117.83839676837883, 0.0]
['beep', 0.0, -1277.49160259862, 0.0, 0.0, 0.0, 0.0, -118.3748386353062, 0.0]
['beep', 0.0, -1277.3351403874326, 0.0, 0.0, 0.0, 0.0, -118.28543165748498, 0.0]
['beep', 0.0, -1277.2680851540667, 0.0, 0.0, 0.0, 0.0, -117.65958281273637, 0.0]
['beep', 0.0, -1277.4245473652538, 0.0, 0.0, 0.0, 0.0, -118.6877630576805, 0.0]
['beep', 0.0, -1276.999864220603, 0.0, 0.0, 0.0, 0.0, -118.44189386867212, 0.0]
['beep', 0.0, -1276.8881054983265, 0.0, 0.0, 0.0, 0.0, -118.15132119075314, 0.0]
['beep', 0.0, -1276.552829331497, 0.0, 0.0, 0.0, 0.0, -117.50312060154923, 0.0]
['beep', 0.0, -1276.329311886944, 0.0, 0.0, 0.0, 0.0, -118.59835607985927, 0.0]
['beep', 0.0, -1277.8268787654495, 0.0, 0.0, 0.0, 0.0, -120.63236482529221, 0.0]
['beep', 0.0, -1278.162154932279, 0.0, 0.0, 0.0, 0.0, -120.29708865846261, 0.0]
['beep', 0.0, -1278.2739136545556, 0.0, 0.0, 0.0, 0.0, -119.49242585807156, 0.0]
['beep', 0.0, -1278.0950996989131, 0.0, 0.0, 0.0, 0.0, -120.07357121390955, 0.0]
['beep', 0.0, -1277.3351403874326, 0.0, 0.0, 0.0, 0.0, -121.39232413677266, 0.0]
['beep', 0.0, -1278.2739136545556, 0.0, 0.0, 0.0, 0.0, -120.49825435856037, 0.0]
['beep', 0.0, -1278.229210165645, 0.0, 0.0, 0.0, 0.0, -120.31944040291792, 0.0]
['beep', 0.0, -1276.9328089872372, 0.0, 0.0, 0.0, 0.0, -120.07357121390955, 0.0]
['beep', 0.0, -1277.9609892321814, 0.0, 0.0, 0.0, 0.0, -119.69359155816932, 0.0]
['beep', 0.0, -1278.5421345880193, 0.0, 0.0, 0.0, 0.0, -121.63819332578103, 0.0]
['beep', 0.0, -1277.4021956207987, 0.0, 0.0, 0.0, 0.0, -121.70524855914695, 0.0]
['beep', 0.0, -1277.0222159650584, 0.0, 0.0, 0.0, 0.0, -119.71594330262462, 0.0]
['beep', 0.0, -1276.9775124761477, 0.0, 0.0, 0.0, 0.0, -121.30291715895143, 0.0]
['beep', 0.0, -1277.357492131888, 0.0, 0.0, 0.0, 0.0, -120.34179214737323, 0.0]
['beep', 0.0, -1277.0445677095138, 0.0, 0.0, 0.0, 0.0, -119.96181249163301, 0.0]
['beep', 0.0, -1276.999864220603, 0.0, 0.0, 0.0, 0.0, -120.14062644727547, 0.0]
['beep', 0.0, -1278.7209485436617, 0.0, 0.0, 0.0, 0.0, -120.74412354756875, 0.0]
['beep', 0.0, -1279.2797421550445, 0.0, 0.0, 0.0, 0.0, -121.45937937013858, 0.0]
['beep', 0.0, -1278.6538933102959, 0.0, 0.0, 0.0, 0.0, -121.34762064786204, 0.0]
['beep', 0.0, -1278.0503962100026, 0.0, 0.0, 0.0, 0.0, -121.5487863479598, 0.0]
['beep', 0.0, -1277.6704165542624, 0.0, 0.0, 0.0, 0.0, -121.23586192558551, 0.0]
['beep', 0.0, -1278.5644863324746, 0.0, 0.0, 0.0, 0.0, -121.90641425924473, 0.0]
['beep', 0.0, -1277.9609892321814, 0.0, 0.0, 0.0, 0.0, -121.30291715895143, 0.0]
['beep', 0.0, -1277.2010299207009, 0.0, 0.0, 0.0, 0.0, -119.78299853599054, 0.0]
['beep', 0.0, -1277.0892711984243, 0.0, 0.0, 0.0, 0.0, -122.4875596150827, 0.0]
['beep', 0.0, -1277.357492131888, 0.0, 0.0, 0.0, 0.0, -122.06287647043187, 0.0]
['beep', 0.0, -1277.3351403874326, 0.0, 0.0, 0.0, 0.0, -122.35344914835086, 0.0]
['beep', 0.0, -1277.8268787654495, 0.0, 0.0, 0.0, 0.0, -122.30874565944025, 0.0]
['beep', 0.0, -1278.162154932279, 0.0, 0.0, 0.0, 0.0, -121.57113809241511, 0.0]
['beep', 0.0, -1278.452727610198, 0.0, 0.0, 0.0, 0.0, -122.64402182626985, 0.0]
['beep', 0.0, -1279.1232799438574, 0.0, 0.0, 0.0, 0.0, -122.28639391498494, 0.0]
['beep', 0.0, -1278.9221142437596, 0.0, 0.0, 0.0, 0.0, -121.5264346035045, 0.0]
['beep', 0.0, -1278.5644863324746, 0.0, 0.0, 0.0, 0.0, -122.06287647043187, 0.0]
['beep', 0.0, -1278.229210165645, 0.0, 0.0, 0.0, 0.0, -122.10757995934249, 0.0]
['beep', 0.0, -1277.648064809807, 0.0, 0.0, 0.0, 0.0, -121.79465553696818, 0.0]
['beep', 0.0, -1278.3856723768322, 0.0, 0.0, 0.0, 0.0, -120.9005857587559, 0.0]
['beep', 0.0, -1278.96681773267, 0.0, 0.0, 0.0, 0.0, -121.68289681469165, 0.0]
['beep', 0.0, -1278.3856723768322, 0.0, 0.0, 0.0, 0.0, -122.68872531518046, 0.0]
['beep', 0.0, -1276.8881054983265, 0.0, 0.0, 0.0, 0.0, -122.73342880409108, 0.0]
['beep', 0.0, -1277.938637487726, 0.0, 0.0, 0.0, 0.0, -122.86753927082292, 0.0]
['beep', 0.0, -1277.6927682987175, 0.0, 0.0, 0.0, 0.0, -121.61584158132572, 0.0]
['beep', 0.0, -1277.2457334096114, 0.0, 0.0, 0.0, 0.0, -121.07939971439836, 0.0]
['beep', 0.0, -1278.452727610198, 0.0, 0.0, 0.0, 0.0, -123.06870497092069, 0.0]
['beep', 0.0, -1278.5421345880193, 0.0, 0.0, 0.0, 0.0, -122.84518752636761, 0.0]
['beep', 0.0, -1277.6257130653516, 0.0, 0.0, 0.0, 0.0, -122.50991135953801, 0.0]
['beep', 0.0, -1276.9328089872372, 0.0, 0.0, 0.0, 0.0, -122.62167008181454, 0.0]
['beep', 0.0, -1276.0834426979354, 0.0, 0.0, 0.0, 0.0, -122.4875596150827, 0.0]
['beep', 0.0, -1276.0163874645696, 0.0, 0.0, 0.0, 0.0, -122.97929799309946, 0.0]
['beep', 0.0, -1277.4692508541646, 0.0, 0.0, 0.0, 0.0, -122.57696659290393, 0.0]
['beep', 0.0, -1277.49160259862, 0.0, 0.0, 0.0, 0.0, -121.41467588122796, 0.0]
['beep', 0.0, -1277.3798438763433, 0.0, 0.0, 0.0, 0.0, -122.17463519270841, 0.0]
['beep', 0.0, -1277.6704165542624, 0.0, 0.0, 0.0, 0.0, -122.53226310399332, 0.0]
['beep', 0.0, -1276.6198845648628, 0.0, 0.0, 0.0, 0.0, -122.95694624864416, 0.0]
['beep', 0.0, -1277.4245473652538, 0.0, 0.0, 0.0, 0.0, -122.93459450418885, 0.0]
['beep', 0.0, -1277.6033613208963, 0.0, 0.0, 0.0, 0.0, -122.97929799309946, 0.0]
['beep', 0.0, -1277.5586578319858, 0.0, 0.0, 0.0, 0.0, -122.50991135953801, 0.0]
['beep', 0.0, -1278.0727479544578, 0.0, 0.0, 0.0, 0.0, -122.4652078706274, 0.0]
['beep', 0.0, -1279.0785764549466, 0.0, 0.0, 0.0, 0.0, -123.4486846266609, 0.0]
['beep', 0.0, -1277.7151200431729, 0.0, 0.0, 0.0, 0.0, -122.62167008181454, 0.0]
['beep', 0.0, -1276.4187188647652, 0.0, 0.0, 0.0, 0.0, -123.20281543765253, 0.0]
['beep', 0.0, -1275.6587595532847, 0.0, 0.0, 0.0, 0.0, -122.68872531518046, 0.0]
['beep', 0.0, -1274.5635240749746, 0.0, 0.0, 0.0, 0.0, -121.95111774815534, 0.0]
['beep', 0.0, -1272.842439751916, 0.0, 0.0, 0.0, 0.0, -122.91224275973354, 0.0]
['beep', 0.0, -1271.747204273606, 0.0, 0.0, 0.0, 0.0, -121.72760030360226, 0.0]
['beep', 0.0, -1273.8706199968601, 0.0, 0.0, 0.0, 0.0, -121.45937937013858, 0.0]
['beep', 0.0, -1276.038739209025, 0.0, 0.0, 0.0, 0.0, -121.30291715895143, 0.0]
['beep', 0.0, -1276.552829331497, 0.0, 0.0, 0.0, 0.0, -120.94528924766652, 0.0]
['beep', 0.0, -1276.329311886944, 0.0, 0.0, 0.0, 0.0, -122.1299317037978, 0.0]
['beep', 0.0, -1277.3798438763433, 0.0, 0.0, 0.0, 0.0, -122.68872531518046, 0.0]
['beep', 0.0, -1278.743300288117, 0.0, 0.0, 0.0, 0.0, -122.53226310399332, 0.0]
['beep', 0.0, -1278.1398031878239, 0.0, 0.0, 0.0, 0.0, -122.4875596150827, 0.0]
['beep', 0.0, -1278.4303758657427, 0.0, 0.0, 0.0, 0.0, -121.57113809241511, 0.0]
['beep', 0.0, -1277.782175276539, 0.0, 0.0, 0.0, 0.0, -120.94528924766652, 0.0]
['beep', 0.0, -1277.3127886429775, 0.0, 0.0, 0.0, 0.0, -121.16880669221959, 0.0]
['beep', 0.0, -1277.0445677095138, 0.0, 0.0, 0.0, 0.0, -120.92293750321122, 0.0]
['beep', 0.0, -1277.1116229428796, 0.0, 0.0, 0.0, 0.0, -121.41467588122796, 0.0]
['beep', 0.0, -1276.9328089872372, 0.0, 0.0, 0.0, 0.0, -121.16880669221959, 0.0]
['beep', 0.0, -1276.552829331497, 0.0, 0.0, 0.0, 0.0, -121.45937937013858, 0.0]
['beep', 0.0, -1277.5810095764411, 0.0, 0.0, 0.0, 0.0, -122.19698693716371, 0.0]
['beep', 0.0, -1277.9609892321814, 0.0, 0.0, 0.0, 0.0, -123.20281543765253, 0.0]
['beep', 0.0, -1277.3798438763433, 0.0, 0.0, 0.0, 0.0, -121.23586192558551, 0.0]
['beep', 0.0, -1276.3740153758545, 0.0, 0.0, 0.0, 0.0, -120.94528924766652, 0.0]
['beep', 0.0, -1277.4468991097092, 0.0, 0.0, 0.0, 0.0, -122.4652078706274, 0.0]
['beep', 0.0, -1278.96681773267, 0.0, 0.0, 0.0, 0.0, -121.28056541449612, 0.0]
['beep', 0.0, -1278.2068584211897, 0.0, 0.0, 0.0, 0.0, -121.8617107703341, 0.0]
['beep', 0.0, -1278.1845066767344, 0.0, 0.0, 0.0, 0.0, -120.96764099212183, 0.0]
['beep', 0.0, -1278.5421345880193, 0.0, 0.0, 0.0, 0.0, -119.9171090027224, 0.0]
['beep', 0.0, -1277.8268787654495, 0.0, 0.0, 0.0, 0.0, -120.9005857587559, 0.0]
['beep', 0.0, -1277.648064809807, 0.0, 0.0, 0.0, 0.0, -121.92876600370003, 0.0]
['beep', 0.0, -1277.8939339988153, 0.0, 0.0, 0.0, 0.0, -122.24169042607433, 0.0]
['beep', 0.0, -1278.2068584211897, 0.0, 0.0, 0.0, 0.0, -121.90641425924473, 0.0]
['beep', 0.0, -1277.9833409766366, 0.0, 0.0, 0.0, 0.0, -122.17463519270841, 0.0]
['beep', 0.0, -1279.1679834327679, 0.0, 0.0, 0.0, 0.0, -121.12410320330898, 0.0]
['beep', 0.0, -1276.8210502649606, 0.0, 0.0, 0.0, 0.0, -122.62167008181454, 0.0]
['beep', 0.0, -1274.384710119332, 0.0, 0.0, 0.0, 0.0, -121.25821367004082, 0.0]
['beep', 0.0, -1277.133974687335, 0.0, 0.0, 0.0, 0.0, -122.86753927082292, 0.0]
['beep', 0.0, -1278.296265399011, 0.0, 0.0, 0.0, 0.0, -123.80631253794581, 0.0]
['beep', 0.0, -1276.2622566535779, 0.0, 0.0, 0.0, 0.0, -123.18046369319723, 0.0]
['beep', 0.0, -1276.0163874645696, 0.0, 0.0, 0.0, 0.0, -123.22516718210784, 0.0]
['beep', 0.0, -1275.7928700200166, 0.0, 0.0, 0.0, 0.0, -122.42050438171678, 0.0]
['beep', 0.0, -1275.2117246641785, 0.0, 0.0, 0.0, 0.0, -122.64402182626985, 0.0]
['beep', 0.0, -1276.4187188647652, 0.0, 0.0, 0.0, 0.0, -123.091056715376, 0.0]
['beep', 0.0, -1276.552829331497, 0.0, 0.0, 0.0, 0.0, -123.4263328822056, 0.0]
['beep', 0.0, -1274.876448497349, 0.0, 0.0, 0.0, 0.0, -123.7392573045799, 0.0]
['beep', 0.0, -1275.9269804867483, 0.0, 0.0, 0.0, 0.0, -123.31457415992907, 0.0]
['beep', 0.0, -1275.5022973420976, 0.0, 0.0, 0.0, 0.0, -123.26987067101845, 0.0]
['beep', 0.0, -1275.4128903642763, 0.0, 0.0, 0.0, 0.0, -122.88989101527822, 0.0]
['beep', 0.0, -1275.837573508927, 0.0, 0.0, 0.0, 0.0, -122.39815263726148, 0.0]
['beep', 0.0, -1276.329311886944, 0.0, 0.0, 0.0, 0.0, -122.8228357819123, 0.0]
['beep', 0.0, -1276.2846083980332, 0.0, 0.0, 0.0, 0.0, -123.94042300467767, 0.0]
['beep', 0.0, -1276.709291542684, 0.0, 0.0, 0.0, 0.0, -124.0298299824989, 0.0]
['beep', 0.0, -1277.1563264317901, 0.0, 0.0, 0.0, 0.0, -123.53809160448213, 0.0]
['beep', 0.0, -1276.709291542684, 0.0, 0.0, 0.0, 0.0, -122.71107705963577, 0.0]
['beep', 0.0, -1275.9940357201142, 0.0, 0.0, 0.0, 0.0, -122.26404217052963, 0.0]
['beep', 0.0, -1276.2622566535779, 0.0, 0.0, 0.0, 0.0, -122.08522821488718, 0.0]
['beep', 0.0, -1276.552829331497, 0.0, 0.0, 0.0, 0.0, -120.96764099212183, 0.0]
['beep', 0.0, -1276.1057944423908, 0.0, 0.0, 0.0, 0.0, -120.02886772499893, 0.0]
['beep', 0.0, -1276.038739209025, 0.0, 0.0, 0.0, 0.0, -121.39232413677266, 0.0]
['beep', 0.0, -1275.2564281530892, 0.0, 0.0, 0.0, 0.0, -122.75578054854638, 0.0]
['beep', 0.0, -1275.4352421087317, 0.0, 0.0, 0.0, 0.0, -122.35344914835086, 0.0]
['beep', 0.0, -1275.971683975659, 0.0, 0.0, 0.0, 0.0, -121.61584158132572, 0.0]
['beep', 0.0, -1275.68111129774, 0.0, 0.0, 0.0, 0.0, -121.39232413677266, 0.0]
['beep', 0.0, -1275.4352421087317, 0.0, 0.0, 0.0, 0.0, -121.5487863479598, 0.0]
['beep', 0.0, -1274.8988002418043, 0.0, 0.0, 0.0, 0.0, -120.65471656974752, 0.0]
['beep', 0.0, -1273.9823787191367, 0.0, 0.0, 0.0, 0.0, -120.252385169552, 0.0]
['beep', 0.0, -1275.1446694308127, 0.0, 0.0, 0.0, 0.0, -121.41467588122796, 0.0]
['beep', 0.0, -1275.5917043199188, 0.0, 0.0, 0.0, 0.0, -121.63819332578103, 0.0]
['beep', 0.0, -1275.099965941902, 0.0, 0.0, 0.0, 0.0, -122.08522821488718, 0.0]
['beep', 0.0, -1274.4294136082428, 0.0, 0.0, 0.0, 0.0, -121.57113809241511, 0.0]
['beep', 0.0, -1275.7928700200166, 0.0, 0.0, 0.0, 0.0, -121.63819332578103, 0.0]
['beep', 0.0, -1275.5917043199188, 0.0, 0.0, 0.0, 0.0, -123.47103637111621, 0.0]
['beep', 0.0, -1275.7705182755612, 0.0, 0.0, 0.0, 0.0, -121.72760030360226, 0.0]
['beep', 0.0, -1275.8152217644717, 0.0, 0.0, 0.0, 0.0, -121.66054507023634, 0.0]
['beep', 0.0, -1276.4410706092203, 0.0, 0.0, 0.0, 0.0, -124.63332708279218, 0.0]
['beep', 0.0, -1275.837573508927, 0.0, 0.0, 0.0, 0.0, -124.20864393814135, 0.0]
['beep', 0.0, -1275.2564281530892, 0.0, 0.0, 0.0, 0.0, -123.4486846266609, 0.0]
['beep', 0.0, -1275.6364078088293, 0.0, 0.0, 0.0, 0.0, -122.39815263726148, 0.0]
['beep', 0.0, -1276.6422363093182, 0.0, 0.0, 0.0, 0.0, -122.77813229300169, 0.0]
['beep', 0.0, -1277.2457334096114, 0.0, 0.0, 0.0, 0.0, -123.40398113775029, 0.0]
['beep', 0.0, -1277.357492131888, 0.0, 0.0, 0.0, 0.0, -121.79465553696818, 0.0]
['beep', 0.0, -1277.4245473652538, 0.0, 0.0, 0.0, 0.0, -123.18046369319723, 0.0]
['beep', 0.0, -1278.1845066767344, 0.0, 0.0, 0.0, 0.0, -123.85101602685643, 0.0]
['beep', 0.0, -1276.6198845648628, 0.0, 0.0, 0.0, 0.0, -122.53226310399332, 0.0]
['beep', 0.0, -1276.7539950315947, 0.0, 0.0, 0.0, 0.0, -122.64402182626985, 0.0]
['beep', 0.0, -1278.162154932279, 0.0, 0.0, 0.0, 0.0, -122.55461484844862, 0.0]
['beep', 0.0, -1278.5421345880193, 0.0, 0.0, 0.0, 0.0, -121.99582123706595, 0.0]
['beep', 0.0, -1278.2739136545556, 0.0, 0.0, 0.0, 0.0, -121.32526890340674, 0.0]
['beep', 0.0, -1278.944465988215, 0.0, 0.0, 0.0, 0.0, -121.70524855914695, 0.0]
['beep', 0.0, -1278.6315415658405, 0.0, 0.0, 0.0, 0.0, -121.61584158132572, 0.0]
['beep', 0.0, -1278.8774107548488, 0.0, 0.0, 0.0, 0.0, -121.45937937013858, 0.0]
['beep', 0.0, -1279.4362043662316, 0.0, 0.0, 0.0, 0.0, -121.79465553696818, 0.0]
['beep', 0.0, -1277.4245473652538, 0.0, 0.0, 0.0, 0.0, -121.57113809241511, 0.0]
['beep', 0.0, -1277.4692508541646, 0.0, 0.0, 0.0, 0.0, -121.63819332578103, 0.0]
['beep', 0.0, -1278.2515619101002, 0.0, 0.0, 0.0, 0.0, -121.79465553696818, 0.0]
['beep', 0.0, -1277.8715822543602, 0.0, 0.0, 0.0, 0.0, -121.12410320330898, 0.0]
['beep', 0.0, -1277.6033613208963, 0.0, 0.0, 0.0, 0.0, -121.34762064786204, 0.0]
['beep', 0.0, -1278.1845066767344, 0.0, 0.0, 0.0, 0.0, -121.1911584366749, 0.0]
['beep', 0.0, -1277.648064809807, 0.0, 0.0, 0.0, 0.0, -120.49825435856037, 0.0]
['beep', 0.0, -1277.3351403874326, 0.0, 0.0, 0.0, 0.0, -120.18532993618608, 0.0]
['beep', 0.0, -1278.2515619101002, 0.0, 0.0, 0.0, 0.0, -121.30291715895143, 0.0]
['beep', 0.0, -1277.6033613208963, 0.0, 0.0, 0.0, 0.0, -121.57113809241511, 0.0]
['beep', 0.0, -1277.4245473652538, 0.0, 0.0, 0.0, 0.0, -121.70524855914695, 0.0]
['beep', 0.0, -1277.8939339988153, 0.0, 0.0, 0.0, 0.0, -120.9005857587559, 0.0]
['beep', 0.0, -1278.2068584211897, 0.0, 0.0, 0.0, 0.0, -119.78299853599054, 0.0]
['beep', 0.0, -1278.810355521483, 0.0, 0.0, 0.0, 0.0, -121.07939971439836, 0.0]
['beep', 0.0, -1278.2068584211897, 0.0, 0.0, 0.0, 0.0, -120.47590261410507, 0.0]
['beep', 0.0, -1277.4245473652538, 0.0, 0.0, 0.0, 0.0, -119.20185318015257, 0.0]
['beep', 0.0, -1276.3963671203098, 0.0, 0.0, 0.0, 0.0, -119.33596364688441, 0.0]
['beep', 0.0, -1277.5810095764411, 0.0, 0.0, 0.0, 0.0, -118.9559839911442, 0.0]
['beep', 0.0, -1278.0950996989131, 0.0, 0.0, 0.0, 0.0, -119.69359155816932, 0.0]
['beep', 0.0, -1277.9609892321814, 0.0, 0.0, 0.0, 0.0, -119.02303922451011, 0.0]
['beep', 0.0, -1277.49160259862, 0.0, 0.0, 0.0, 0.0, -119.6265363248034, 0.0]
['beep', 0.0, -1277.3798438763433, 0.0, 0.0, 0.0, 0.0, -121.32526890340674, 0.0]
['beep', 0.0, -1276.038739209025, 0.0, 0.0, 0.0, 0.0, -120.40884738073915, 0.0]
['beep', 0.0, -1275.904628742293, 0.0, 0.0, 0.0, 0.0, -119.33596364688441, 0.0]
['beep', 0.0, -1276.5975328204077, 0.0, 0.0, 0.0, 0.0, -120.11827470282016, 0.0]
['beep', 0.0, -1277.2010299207009, 0.0, 0.0, 0.0, 0.0, -120.23003342509669, 0.0]
['beep', 0.0, -1276.843402009416, 0.0, 0.0, 0.0, 0.0, -120.02886772499893, 0.0]
['beep', 0.0, -1275.837573508927, 0.0, 0.0, 0.0, 0.0, -120.96764099212183, 0.0]
['beep', 0.0, -1275.7034630421954, 0.0, 0.0, 0.0, 0.0, -122.42050438171678, 0.0]
['beep', 0.0, -1277.066919453969, 0.0, 0.0, 0.0, 0.0, -120.07357121390955, 0.0]
['beep', 0.0, -1278.2068584211897, 0.0, 0.0, 0.0, 0.0, -120.05121946945424, 0.0]
['beep', 0.0, -1276.552829331497, 0.0, 0.0, 0.0, 0.0, -121.03469622548775, 0.0]
['beep', 0.0, -1276.5304775870416, 0.0, 0.0, 0.0, 0.0, -121.50408285904919, 0.0]
['beep', 0.0, -1277.3351403874326, 0.0, 0.0, 0.0, 0.0, -120.5653095919263, 0.0]
['beep', 0.0, -1277.8939339988153, 0.0, 0.0, 0.0, 0.0, -120.34179214737323, 0.0]
['beep', 0.0, -1277.4468991097092, 0.0, 0.0, 0.0, 0.0, -119.6265363248034, 0.0]
['beep', 0.0, -1277.3127886429775, 0.0, 0.0, 0.0, 0.0, -118.91128050223357, 0.0]
['beep', 0.0, -1277.2010299207009, 0.0, 0.0, 0.0, 0.0, -119.04539096896542, 0.0]
['beep', 0.0, -1278.229210165645, 0.0, 0.0, 0.0, 0.0, -120.2747369140073, 0.0]
['beep', 0.0, -1277.648064809807, 0.0, 0.0, 0.0, 0.0, -120.23003342509669, 0.0]
['beep', 0.0, -1277.133974687335, 0.0, 0.0, 0.0, 0.0, -120.11827470282016, 0.0]
['beep', 0.0, -1278.2068584211897, 0.0, 0.0, 0.0, 0.0, -118.9559839911442, 0.0]
['beep', 0.0, -1279.1232799438574, 0.0, 0.0, 0.0, 0.0, -119.42537062470564, 0.0]
['beep', 0.0, -1278.9891694771254, 0.0, 0.0, 0.0, 0.0, -120.00651598054363, 0.0]
['beep', 0.0, -1278.4974310991088, 0.0, 0.0, 0.0, 0.0, -121.23586192558551, 0.0]
['beep', 0.0, -1279.0562247104913, 0.0, 0.0, 0.0, 0.0, -122.08522821488718, 0.0]
['beep', 0.0, -1278.4974310991088, 0.0, 0.0, 0.0, 0.0, -121.23586192558551, 0.0]
['beep', 0.0, -1277.7151200431729, 0.0, 0.0, 0.0, 0.0, -121.2135101811302, 0.0]
['beep', 0.0, -1277.7598235320836, 0.0, 0.0, 0.0, 0.0, -121.61584158132572, 0.0]
['beep', 0.0, -1277.9609892321814, 0.0, 0.0, 0.0, 0.0, -121.97346949261065, 0.0]
['beep', 0.0, -1276.999864220603, 0.0, 0.0, 0.0, 0.0, -122.1299317037978, 0.0]
['beep', 0.0, -1277.9833409766366, 0.0, 0.0, 0.0, 0.0, -122.68872531518046, 0.0]
['beep', 0.0, -1278.0280444655473, 0.0, 0.0, 0.0, 0.0, -122.42050438171678, 0.0]
['beep', 0.0, -1277.9833409766366, 0.0, 0.0, 0.0, 0.0, -122.75578054854638, 0.0]
['beep', 0.0, -1279.2126869216786, 0.0, 0.0, 0.0, 0.0, -122.93459450418885, 0.0]
['beep', 0.0, -1278.743300288117, 0.0, 0.0, 0.0, 0.0, -122.1299317037978, 0.0]
['beep', 0.0, -1278.162154932279, 0.0, 0.0, 0.0, 0.0, -123.13576020428661, 0.0]
['beep', 0.0, -1277.2680851540667, 0.0, 0.0, 0.0, 0.0, -123.40398113775029, 0.0]
['beep', 0.0, -1276.9328089872372, 0.0, 0.0, 0.0, 0.0, -122.800484037457, 0.0]
['beep', 0.0, -1277.4468991097092, 0.0, 0.0, 0.0, 0.0, -121.72760030360226, 0.0]
['beep', 0.0, -1277.4245473652538, 0.0, 0.0, 0.0, 0.0, -121.07939971439836, 0.0]
['beep', 0.0, -1277.1116229428796, 0.0, 0.0, 0.0, 0.0, -122.10757995934249, 0.0]
['beep', 0.0, -1276.5975328204077, 0.0, 0.0, 0.0, 0.0, -122.01817298152126, 0.0]
['beep', 0.0, -1276.3069601424886, 0.0, 0.0, 0.0, 0.0, -121.63819332578103, 0.0]
['beep', 0.0, -1277.1563264317901, 0.0, 0.0, 0.0, 0.0, -121.45937937013858, 0.0]
['beep', 0.0, -1277.2010299207009, 0.0, 0.0, 0.0, 0.0, -121.1911584366749, 0.0]
['beep', 0.0, -1277.3127886429775, 0.0, 0.0, 0.0, 0.0, -120.63236482529221, 0.0]
['beep', 0.0, -1276.6645880537735, 0.0, 0.0, 0.0, 0.0, -121.01234448103244, 0.0]
['beep', 0.0, -1277.4468991097092, 0.0, 0.0, 0.0, 0.0, -121.63819332578103, 0.0]
['beep', 0.0, -1276.9328089872372, 0.0, 0.0, 0.0, 0.0, -121.79465553696818, 0.0]
['beep', 0.0, -1277.49160259862, 0.0, 0.0, 0.0, 0.0, -122.28639391498494, 0.0]
['beep', 0.0, -1276.999864220603, 0.0, 0.0, 0.0, 0.0, -121.66054507023634, 0.0]
['beep', 0.0, -1277.4245473652538, 0.0, 0.0, 0.0, 0.0, -122.01817298152126, 0.0]
['beep', 0.0, -1276.3740153758545, 0.0, 0.0, 0.0, 0.0, -122.28639391498494, 0.0]
['beep', 0.0, -1276.0163874645696, 0.0, 0.0, 0.0, 0.0, -122.35344914835086, 0.0]
['beep', 0.0, -1276.6422363093182, 0.0, 0.0, 0.0, 0.0, -122.66637357072516, 0.0]
['beep', 0.0, -1276.6869397982289, 0.0, 0.0, 0.0, 0.0, -121.77230379251287, 0.0]
['beep', 0.0, -1276.329311886944, 0.0, 0.0, 0.0, 0.0, -123.98512649358828, 0.0]
['beep', 0.0, -1277.357492131888, 0.0, 0.0, 0.0, 0.0, -123.98512649358828, 0.0]
['beep', 0.0, -1277.4692508541646, 0.0, 0.0, 0.0, 0.0, -124.25334742705196, 0.0]
['beep', 0.0, -1277.5363060875304, 0.0, 0.0, 0.0, 0.0, -123.53809160448213, 0.0]
['beep', 0.0, -1276.9775124761477, 0.0, 0.0, 0.0, 0.0, -123.7616090490352, 0.0]
['beep', 0.0, -1275.7481665311059, 0.0, 0.0, 0.0, 0.0, -124.07453347140951, 0.0]
['beep', 0.0, -1276.709291542684, 0.0, 0.0, 0.0, 0.0, -122.64402182626985, 0.0]
['beep', 0.0, -1277.3351403874326, 0.0, 0.0, 0.0, 0.0, -122.19698693716371, 0.0]
['beep', 0.0, -1277.2680851540667, 0.0, 0.0, 0.0, 0.0, -122.64402182626985, 0.0]
['beep', 0.0, -1275.9940357201142, 0.0, 0.0, 0.0, 0.0, -122.800484037457, 0.0]
['beep', 0.0, -1277.3127886429775, 0.0, 0.0, 0.0, 0.0, -123.4486846266609, 0.0]
['beep', 0.0, -1277.5586578319858, 0.0, 0.0, 0.0, 0.0, -124.76743754952402, 0.0]
['beep', 0.0, -1276.5975328204077, 0.0, 0.0, 0.0, 0.0, -123.64985032675867, 0.0]
['beep', 0.0, -1276.9328089872372, 0.0, 0.0, 0.0, 0.0, -122.73342880409108, 0.0]
['beep', 0.0, -1277.4468991097092, 0.0, 0.0, 0.0, 0.0, -122.8228357819123, 0.0]
['beep', 0.0, -1277.8715822543602, 0.0, 0.0, 0.0, 0.0, -123.78396079349051, 0.0]
['beep', 0.0, -1277.5586578319858, 0.0, 0.0, 0.0, 0.0, -123.4486846266609, 0.0]
['beep', 0.0, -1277.4692508541646, 0.0, 0.0, 0.0, 0.0, -122.44285612617209, 0.0]
['beep', 0.0, -1276.5304775870416, 0.0, 0.0, 0.0, 0.0, -123.24751892656315, 0.0]
['beep', 0.0, -1276.351663631399, 0.0, 0.0, 0.0, 0.0, -122.28639391498494, 0.0]
['beep', 0.0, -1274.4741170971533, 0.0, 0.0, 0.0, 0.0, -121.61584158132572, 0.0]
['beep', 0.0, -1272.7306810296395, 0.0, 0.0, 0.0, 0.0, -121.83935902587879, 0.0]
['beep', 0.0, -1273.647102552307, 0.0, 0.0, 0.0, 0.0, -121.79465553696818, 0.0]
['beep', 0.0, -1274.6752827972512, 0.0, 0.0, 0.0, 0.0, -121.5264346035045, 0.0]
['beep', 0.0, -1276.3740153758545, 0.0, 0.0, 0.0, 0.0, -122.4652078706274, 0.0]
['beep', 0.0, -1278.005692721092, 0.0, 0.0, 0.0, 0.0, -123.4486846266609, 0.0]
['beep', 0.0, -1278.7656520325725, 0.0, 0.0, 0.0, 0.0, -123.20281543765253, 0.0]
['beep', 0.0, -1279.7267770441506, 0.0, 0.0, 0.0, 0.0, -123.47103637111621, 0.0]
['beep', 0.0, -1280.3302741444438, 0.0, 0.0, 0.0, 0.0, -124.18629219368604, 0.0]
['beep', 0.0, -1279.0115212215808, 0.0, 0.0, 0.0, 0.0, -124.78978929397933, 0.0]
['beep', 0.0, -1278.3409688879215, 0.0, 0.0, 0.0, 0.0, -123.80631253794581, 0.0]
['beep', 0.0, -1277.6033613208963, 0.0, 0.0, 0.0, 0.0, -123.06870497092069, 0.0]
['beep', 0.0, -1278.2068584211897, 0.0, 0.0, 0.0, 0.0, -121.72760030360226, 0.0]
['beep', 0.0, -1277.4245473652538, 0.0, 0.0, 0.0, 0.0, -123.33692590438437, 0.0]
['beep', 0.0, -1276.6198845648628, 0.0, 0.0, 0.0, 0.0, -123.80631253794581, 0.0]
['beep', 0.0, -1277.2680851540667, 0.0, 0.0, 0.0, 0.0, -122.93459450418885, 0.0]
['beep', 0.0, -1276.7539950315947, 0.0, 0.0, 0.0, 0.0, -122.4875596150827, 0.0]
['beep', 0.0, -1277.0445677095138, 0.0, 0.0, 0.0, 0.0, -123.87336777131173, 0.0]
['beep', 0.0, -1277.0445677095138, 0.0, 0.0, 0.0, 0.0, -123.80631253794581, 0.0]
['beep', 0.0, -1277.7598235320836, 0.0, 0.0, 0.0, 0.0, -121.95111774815534, 0.0]
['beep', 0.0, -1277.3127886429775, 0.0, 0.0, 0.0, 0.0, -123.31457415992907, 0.0]
['beep', 0.0, -1276.8657537538713, 0.0, 0.0, 0.0, 0.0, -124.20864393814135, 0.0]
['beep', 0.0, -1277.6927682987175, 0.0, 0.0, 0.0, 0.0, -124.52156836051564, 0.0]
['beep', 0.0, -1277.648064809807, 0.0, 0.0, 0.0, 0.0, -124.78978929397933, 0.0]
['beep', 0.0, -1276.709291542684, 0.0, 0.0, 0.0, 0.0, -123.78396079349051, 0.0]
['beep', 0.0, -1277.1116229428796, 0.0, 0.0, 0.0, 0.0, -123.13576020428661, 0.0]
['beep', 0.0, -1277.0892711984243, 0.0, 0.0, 0.0, 0.0, -123.1134084598313, 0.0]
['beep', 0.0, -1277.49160259862, 0.0, 0.0, 0.0, 0.0, -123.7616090490352, 0.0]
['beep', 0.0, -1277.3127886429775, 0.0, 0.0, 0.0, 0.0, -124.16394044923074, 0.0]
['beep', 0.0, -1277.1563264317901, 0.0, 0.0, 0.0, 0.0, -123.64985032675867, 0.0]
['beep', 0.0, -1275.547000831008, 0.0, 0.0, 0.0, 0.0, -124.27569917150727, 0.0]
['beep', 0.0, -1275.9269804867483, 0.0, 0.0, 0.0, 0.0, -123.4263328822056, 0.0]
['beep', 0.0, -1275.7481665311059, 0.0, 0.0, 0.0, 0.0, -123.96277474913298, 0.0]
['beep', 0.0, -1275.4352421087317, 0.0, 0.0, 0.0, 0.0, -124.18629219368604, 0.0]
['beep', 0.0, -1275.6587595532847, 0.0, 0.0, 0.0, 0.0, -124.00747823804359, 0.0]
['beep', 0.0, -1275.8822769978378, 0.0, 0.0, 0.0, 0.0, -124.63332708279218, 0.0]
['beep', 0.0, -1276.4187188647652, 0.0, 0.0, 0.0, 0.0, -125.10271371635363, 0.0]
['beep', 0.0, -1276.0834426979354, 0.0, 0.0, 0.0, 0.0, -124.43216138269442, 0.0]
['beep', 0.0, -1275.524649086553, 0.0, 0.0, 0.0, 0.0, -124.47686487160503, 0.0]
['beep', 0.0, -1275.7928700200166, 0.0, 0.0, 0.0, 0.0, -124.49921661606034, 0.0]
['beep', 0.0, -1275.971683975659, 0.0, 0.0, 0.0, 0.0, -123.85101602685643, 0.0]
['beep', 0.0, -1275.9269804867483, 0.0, 0.0, 0.0, 0.0, -123.62749858230336, 0.0]
['beep', 0.0, -1275.2564281530892, 0.0, 0.0, 0.0, 0.0, -125.41563813872793, 0.0]
['beep', 0.0, -1275.547000831008, 0.0, 0.0, 0.0, 0.0, -125.14741720526425, 0.0]
['beep', 0.0, -1275.3681868753656, 0.0, 0.0, 0.0, 0.0, -124.83449278288994, 0.0]
['beep', 0.0, -1276.3740153758545, 0.0, 0.0, 0.0, 0.0, -126.24265268357429, 0.0]
['beep', 0.0, -1276.0163874645696, 0.0, 0.0, 0.0, 0.0, -126.04148698347653, 0.0]
['beep', 0.0, -1275.9269804867483, 0.0, 0.0, 0.0, 0.0, -125.41563813872793, 0.0]
['beep', 0.0, -1275.7705182755612, 0.0, 0.0, 0.0, 0.0, -124.9909549940771, 0.0]
['beep', 0.0, -1274.7870415195277, 0.0, 0.0, 0.0, 0.0, -123.31457415992907, 0.0]
['beep', 0.0, -1274.9435037307148, 0.0, 0.0, 0.0, 0.0, -124.7003823161581, 0.0]
['beep', 0.0, -1275.4352421087317, 0.0, 0.0, 0.0, 0.0, -124.3651061493285, 0.0]
['beep', 0.0, -1275.2117246641785, 0.0, 0.0, 0.0, 0.0, -124.43216138269442, 0.0]
