['beep', 0.0, 1293.3613411618878, 0.0, 0.0, 0.0, 0.0, -917.1144267457041, 0.0]
['beep', 0.0, 1294.903611529304, 0.0, 0.0, 0.0, 0.0, -915.8850808006622, 0.0]
['beep', 0.0, 1294.456576640198, 0.0, 0.0, 0.0, 0.0, -916.2203569674919, 0.0]
['beep', 0.0, 1292.131995216846, 0.0, 0.0, 0.0, 0.0, -915.4603976560113, 0.0]
['beep', 0.0, 1292.8472510394158, 0.0, 0.0, 0.0, 0.0, -915.2815837003689, 0.0]
['beep', 0.0, 1292.355512661399, 0.0, 0.0, 0.0, 0.0, -917.5614616348103, 0.0]
['beep', 0.0, 1290.4109108937873, 0.0, 0.0, 0.0, 0.0, -918.4778831574778, 0.0]
['beep', 0.0, 1292.131995216846, 0.0, 0.0, 0.0, 0.0, -918.4778831574778, 0.0]
['beep', 0.0, 1292.3108091724885, 0.0, 0.0, 0.0, 0.0, -919.6178221246985, 0.0]
['beep', 0.0, 1291.5732016054633, 0.0, 0.0, 0.0, 0.0, -919.0366767688605, 0.0]
['beep', 0.0, 1291.6849603277399, 0.0, 0.0, 0.0, 0.0, -920.0425052693494, 0.0]
['beep', 0.0, 1291.9308295167482, 0.0, 0.0, 0.0, 0.0, -920.3777814361789, 0.0]
['beep', 0.0, 1291.5732016054633, 0.0, 0.0, 0.0, 0.0, -917.9637930350058, 0.0]
['beep', 0.0, 1291.3496841609103, 0.0, 0.0, 0.0, 0.0, -917.5167581458996, 0.0]
['beep', 0.0, 1291.260277183089, 0.0, 0.0, 0.0, 0.0, -920.020153524894, 0.0]
['beep', 0.0, 1293.294285928522, 0.0, 0.0, 0.0, 0.0, -920.1542639916258, 0.0]
['beep', 0.0, 1293.8307277954493, 0.0, 0.0, 0.0, 0.0, -919.37195293569, 0.0]
['beep', 0.0, 1293.808376050994, 0.0, 0.0, 0.0, 0.0, -920.9365750475616, 0.0]
['beep', 0.0, 1292.9143062727817, 0.0, 0.0, 0.0, 0.0, -918.9696215354945, 0.0]
['beep', 0.0, 1292.1766987057565, 0.0, 0.0, 0.0, 0.0, -918.3661244352013, 0.0]
['beep', 0.0, 1291.3496841609103, 0.0, 0.0, 0.0, 0.0, -918.7237523464862, 0.0]
['beep', 0.0, 1292.1096434723906, 0.0, 0.0, 0.0, 0.0, -918.3214209462907, 0.0]
['beep', 0.0, 1291.841422538927, 0.0, 0.0, 0.0, 0.0, -918.8802145576733, 0.0]
['beep', 0.0, 1290.4332626382427, 0.0, 0.0, 0.0, 0.0, -920.1319122471706, 0.0]
['beep', 0.0, 1290.9473527607147, 0.0, 0.0, 0.0, 0.0, -918.5449383908438, 0.0]
['beep', 0.0, 1291.4614428831867, 0.0, 0.0, 0.0, 0.0, -918.1873104795588, 0.0]
['beep', 0.0, 1292.6237335948626, 0.0, 0.0, 0.0, 0.0, -918.1202552461929, 0.0]
['beep', 0.0, 1294.6353905958404, 0.0, 0.0, 0.0, 0.0, -917.9637930350058, 0.0]
['beep', 0.0, 1295.2835911850443, 0.0, 0.0, 0.0, 0.0, -917.5614616348103, 0.0]
['beep', 0.0, 1294.2777626845555, 0.0, 0.0, 0.0, 0.0, -918.567290135299, 0.0]
['beep', 0.0, 1293.2495824396112, 0.0, 0.0, 0.0, 0.0, -918.3437726907459, 0.0]
['beep', 0.0, 1294.1213004733684, 0.0, 0.0, 0.0, 0.0, -917.3155924458018, 0.0]
['beep', 0.0, 1293.7189690731727, 0.0, 0.0, 0.0, 0.0, -917.0250197678829, 0.0]
['beep', 0.0, 1293.3613411618878, 0.0, 0.0, 0.0, 0.0, -917.2932407013466, 0.0]
['beep', 0.0, 1293.450748139709, 0.0, 0.0, 0.0, 0.0, -916.1309499896706, 0.0]
['beep', 0.0, 1293.1378237173349, 0.0, 0.0, 0.0, 0.0, -916.0638947563046, 0.0]
['beep', 0.0, 1292.78019580605, 0.0, 0.0, 0.0, 0.0, -917.9637930350058, 0.0]
['beep', 0.0, 1294.1213004733684, 0.0, 0.0, 0.0, 0.0, -918.8355110687627, 0.0]
['beep', 0.0, 1293.808376050994, 0.0, 0.0, 0.0, 0.0, -919.7519325914303, 0.0]
['beep', 0.0, 1294.5683353624745, 0.0, 0.0, 0.0, 0.0, -917.7849790793633, 0.0]
['beep', 0.0, 1294.903611529304, 0.0, 0.0, 0.0, 0.0, -917.762627334908, 0.0]
['beep', 0.0, 1294.5683353624745, 0.0, 0.0, 0.0, 0.0, -919.1260837466817, 0.0]
['beep', 0.0, 1293.2495824396112, 0.0, 0.0, 0.0, 0.0, -918.8131593243074, 0.0]
['beep', 0.0, 1292.9590097616924, 0.0, 0.0, 0.0, 0.0, -918.3884761796565, 0.0]
['beep', 0.0, 1292.3108091724885, 0.0, 0.0, 0.0, 0.0, -917.404999423623, 0.0]
['beep', 0.0, 1292.9143062727817, 0.0, 0.0, 0.0, 0.0, -916.2650604564025, 0.0]
['beep', 0.0, 1293.4283963952537, 0.0, 0.0, 0.0, 0.0, -918.5002349019331, 0.0]
['beep', 0.0, 1293.584858606441, 0.0, 0.0, 0.0, 0.0, -918.4778831574778, 0.0]
['beep', 0.0, 1293.294285928522, 0.0, 0.0, 0.0, 0.0, -918.9249180465839, 0.0]
['beep', 0.0, 1292.2214021946672, 0.0, 0.0, 0.0, 0.0, -919.7519325914303, 0.0]
['beep', 0.0, 1291.3049806719996, 0.0, 0.0, 0.0, 0.0, -919.9083948026175, 0.0]
['beep', 0.0, 1291.2826289275442, 0.0, 0.0, 0.0, 0.0, -918.567290135299, 0.0]
['beep', 0.0, 1292.78019580605, 0.0, 0.0, 0.0, 0.0, -918.5896418797544, 0.0]
['beep', 0.0, 1293.6295620953515, 0.0, 0.0, 0.0, 0.0, -918.9249180465839, 0.0]
['beep', 0.0, 1294.5236318735638, 0.0, 0.0, 0.0, 0.0, -919.1260837466817, 0.0]
['beep', 0.0, 1294.8365562959382, 0.0, 0.0, 0.0, 0.0, -920.5118919029107, 0.0]
['beep', 0.0, 1293.7860243065388, 0.0, 0.0, 0.0, 0.0, -921.9424035480504, 0.0]
['beep', 0.0, 1294.1436522178237, 0.0, 0.0, 0.0, 0.0, -922.27767971488, 0.0]
['beep', 0.0, 1293.4954516286198, 0.0, 0.0, 0.0, 0.0, -920.1542639916258, 0.0]
['beep', 0.0, 1294.1213004733684, 0.0, 0.0, 0.0, 0.0, -917.1144267457041, 0.0]
['beep', 0.0, 1295.5294603740526, 0.0, 0.0, 0.0, 0.0, -917.8967378016398, 0.0]
['beep', 0.0, 1294.8142045514828, 0.0, 0.0, 0.0, 0.0, -919.2378424689582, 0.0]
['beep', 0.0, 1294.613038851385, 0.0, 0.0, 0.0, 0.0, -919.8636913137069, 0.0]
['beep', 0.0, 1296.1106057298907, 0.0, 0.0, 0.0, 0.0, -920.0425052693494, 0.0]
['beep', 0.0, 1295.3506464184102, 0.0, 0.0, 0.0, 0.0, -920.1542639916258, 0.0]
['beep', 0.0, 1294.4789283846533, 0.0, 0.0, 0.0, 0.0, -920.2213192249918, 0.0]
['beep', 0.0, 1294.5236318735638, 0.0, 0.0, 0.0, 0.0, -919.9978017804387, 0.0]
['beep', 0.0, 1293.9648382621813, 0.0, 0.0, 0.0, 0.0, -921.0259820253829, 0.0]
['beep', 0.0, 1292.78019580605, 0.0, 0.0, 0.0, 0.0, -921.4283134255784, 0.0]
['beep', 0.0, 1293.2495824396112, 0.0, 0.0, 0.0, 0.0, -920.1989674805365, 0.0]
['beep', 0.0, 1293.0931202284241, 0.0, 0.0, 0.0, 0.0, -920.9812785364722, 0.0]
['beep', 0.0, 1293.584858606441, 0.0, 0.0, 0.0, 0.0, -921.2494994699359, 0.0]
['beep', 0.0, 1292.78019580605, 0.0, 0.0, 0.0, 0.0, -920.1989674805365, 0.0]
['beep', 0.0, 1292.7131405726839, 0.0, 0.0, 0.0, 0.0, -921.3836099366678, 0.0]
['beep', 0.0, 1292.8472510394158, 0.0, 0.0, 0.0, 0.0, -919.6401738691538, 0.0]
['beep', 0.0, 1293.003713250603, 0.0, 0.0, 0.0, 0.0, -921.1153890032041, 0.0]
['beep', 0.0, 1292.3108091724885, 0.0, 0.0, 0.0, 0.0, -923.2611564709135, 0.0]
['beep', 0.0, 1291.841422538927, 0.0, 0.0, 0.0, 0.0, -920.7577610919192, 0.0]
['beep', 0.0, 1291.2826289275442, 0.0, 0.0, 0.0, 0.0, -920.020153524894, 0.0]
['beep', 0.0, 1292.0425882390248, 0.0, 0.0, 0.0, 0.0, -919.9754500359834, 0.0]
['beep', 0.0, 1291.9531812612036, 0.0, 0.0, 0.0, 0.0, -920.08720875826, 0.0]
['beep', 0.0, 1290.3438556604215, 0.0, 0.0, 0.0, 0.0, -920.1542639916258, 0.0]
['beep', 0.0, 1290.4779661271532, 0.0, 0.0, 0.0, 0.0, -920.2883744583577, 0.0]
['beep', 0.0, 1290.388559149332, 0.0, 0.0, 0.0, 0.0, -919.7519325914303, 0.0]
['beep', 0.0, 1291.6402568388291, 0.0, 0.0, 0.0, 0.0, -920.4671884140001, 0.0]
['beep', 0.0, 1292.936658017237, 0.0, 0.0, 0.0, 0.0, -921.473016914489, 0.0]
['beep', 0.0, 1292.355512661399, 0.0, 0.0, 0.0, 0.0, -922.1435692481482, 0.0]
['beep', 0.0, 1292.5343266170414, 0.0, 0.0, 0.0, 0.0, -919.5507668913326, 0.0]
['beep', 0.0, 1291.7296638166504, 0.0, 0.0, 0.0, 0.0, -921.1153890032041, 0.0]
['beep', 0.0, 1289.9191725157707, 0.0, 0.0, 0.0, 0.0, -923.0823425152711, 0.0]
['beep', 0.0, 1290.4779661271532, 0.0, 0.0, 0.0, 0.0, -923.0376390263605, 0.0]
['beep', 0.0, 1289.7180068156729, 0.0, 0.0, 0.0, 0.0, -922.8141215818074, 0.0]
['beep', 0.0, 1290.7685388050722, 0.0, 0.0, 0.0, 0.0, -922.1659209926034, 0.0]
['beep', 0.0, 1290.4779661271532, 0.0, 0.0, 0.0, 0.0, -922.0094587814164, 0.0]
['beep', 0.0, 1290.7908905495276, 0.0, 0.0, 0.0, 0.0, -919.7295808469751, 0.0]
['beep', 0.0, 1292.0872917279353, 0.0, 0.0, 0.0, 0.0, -919.7519325914303, 0.0]
['beep', 0.0, 1292.0649399834801, 0.0, 0.0, 0.0, 0.0, -921.5847756367655, 0.0]
['beep', 0.0, 1291.3943876498208, 0.0, 0.0, 0.0, 0.0, -921.6071273812208, 0.0]
['beep', 0.0, 1291.9308295167482, 0.0, 0.0, 0.0, 0.0, -920.9365750475616, 0.0]
['beep', 0.0, 1292.355512661399, 0.0, 0.0, 0.0, 0.0, -921.3389064477572, 0.0]
['beep', 0.0, 1290.6567800827956, 0.0, 0.0, 0.0, 0.0, -920.1542639916258, 0.0]
['beep', 0.0, 1292.6907888282287, 0.0, 0.0, 0.0, 0.0, -919.7742843358857, 0.0]
['beep', 0.0, 1291.3496841609103, 0.0, 0.0, 0.0, 0.0, -920.1766157360812, 0.0]
['beep', 0.0, 1290.679131827251, 0.0, 0.0, 0.0, 0.0, -919.1260837466817, 0.0]
['beep', 0.0, 1291.9308295167482, 0.0, 0.0, 0.0, 0.0, -918.4555314130225, 0.0]
['beep', 0.0, 1291.3943876498208, 0.0, 0.0, 0.0, 0.0, -920.08720875826, 0.0]
['beep', 0.0, 1290.5897248494298, 0.0, 0.0, 0.0, 0.0, -919.6401738691538, 0.0]
['beep', 0.0, 1289.87446902686, 0.0, 0.0, 0.0, 0.0, -919.9978017804387, 0.0]
['beep', 0.0, 1291.4390911387316, 0.0, 0.0, 0.0, 0.0, -920.2436709694471, 0.0]
['beep', 0.0, 1292.0649399834801, 0.0, 0.0, 0.0, 0.0, -920.7801128363744, 0.0]
['beep', 0.0, 1293.0931202284241, 0.0, 0.0, 0.0, 0.0, -918.5002349019331, 0.0]
['beep', 0.0, 1293.741320817628, 0.0, 0.0, 0.0, 0.0, -920.08720875826, 0.0]
['beep', 0.0, 1294.3671696623767, 0.0, 0.0, 0.0, 0.0, -920.5789471362767, 0.0]
['beep', 0.0, 1293.0484167395136, 0.0, 0.0, 0.0, 0.0, -920.4671884140001, 0.0]
['beep', 0.0, 1293.942486517726, 0.0, 0.0, 0.0, 0.0, -920.08720875826, 0.0]
['beep', 0.0, 1294.0095417510918, 0.0, 0.0, 0.0, 0.0, -919.7519325914303, 0.0]
['beep', 0.0, 1292.7354923171392, 0.0, 0.0, 0.0, 0.0, -921.473016914489, 0.0]
['beep', 0.0, 1294.456576640198, 0.0, 0.0, 0.0, 0.0, -921.2494994699359, 0.0]
['beep', 0.0, 1294.2554109401, 0.0, 0.0, 0.0, 0.0, -922.1882727370588, 0.0]
['beep', 0.0, 1294.0095417510918, 0.0, 0.0, 0.0, 0.0, -920.3554296917237, 0.0]
['beep', 0.0, 1294.6577423402957, 0.0, 0.0, 0.0, 0.0, -921.3389064477572, 0.0]
['beep', 0.0, 1292.6013818504075, 0.0, 0.0, 0.0, 0.0, -923.1493977486369, 0.0]
['beep', 0.0, 1290.3438556604215, 0.0, 0.0, 0.0, 0.0, -922.7247146039862, 0.0]
['beep', 0.0, 1290.6120765938851, 0.0, 0.0, 0.0, 0.0, -922.7023628595308, 0.0]
['beep', 0.0, 1291.4390911387316, 0.0, 0.0, 0.0, 0.0, -923.2611564709135, 0.0]
['beep', 0.0, 1292.6907888282287, 0.0, 0.0, 0.0, 0.0, -923.1270460041817, 0.0]
['beep', 0.0, 1292.646085339318, 0.0, 0.0, 0.0, 0.0, -922.635307626165, 0.0]
['beep', 0.0, 1292.5343266170414, 0.0, 0.0, 0.0, 0.0, -920.7577610919192, 0.0]
['beep', 0.0, 1293.16017546179, 0.0, 0.0, 0.0, 0.0, -921.1600924921147, 0.0]
['beep', 0.0, 1294.613038851385, 0.0, 0.0, 0.0, 0.0, -921.473016914489, 0.0]
['beep', 0.0, 1293.6966173287176, 0.0, 0.0, 0.0, 0.0, -923.4846739154666, 0.0]
['beep', 0.0, 1293.584858606441, 0.0, 0.0, 0.0, 0.0, -923.5740808932878, 0.0]
['beep', 0.0, 1293.3389894174325, 0.0, 0.0, 0.0, 0.0, -923.0823425152711, 0.0]
['beep', 0.0, 1292.936658017237, 0.0, 0.0, 0.0, 0.0, -923.3282117042794, 0.0]
['beep', 0.0, 1293.8307277954493, 0.0, 0.0, 0.0, 0.0, -921.6965343590421, 0.0]
['beep', 0.0, 1294.3671696623767, 0.0, 0.0, 0.0, 0.0, -921.0483337698381, 0.0]
['beep', 0.0, 1293.6072103508961, 0.0, 0.0, 0.0, 0.0, -922.3894384371565, 0.0]
['beep', 0.0, 1293.1825272062454, 0.0, 0.0, 0.0, 0.0, -922.7694180928968, 0.0]
['beep', 0.0, 1292.4672713836756, 0.0, 0.0, 0.0, 0.0, -922.5906041372543, 0.0]
['beep', 0.0, 1293.450748139709, 0.0, 0.0, 0.0, 0.0, -921.7635895924079, 0.0]
['beep', 0.0, 1293.6519138398069, 0.0, 0.0, 0.0, 0.0, -922.8364733262626, 0.0]
['beep', 0.0, 1294.1436522178237, 0.0, 0.0, 0.0, 0.0, -923.7752465933856, 0.0]
['beep', 0.0, 1294.5906871069299, 0.0, 0.0, 0.0, 0.0, -923.0823425152711, 0.0]
['beep', 0.0, 1295.842384796427, 0.0, 0.0, 0.0, 0.0, -922.9929355374499, 0.0]
['beep', 0.0, 1297.2728964415667, 0.0, 0.0, 0.0, 0.0, -923.3282117042794, 0.0]
['beep', 0.0, 1295.5294603740526, 0.0, 0.0, 0.0, 0.0, -923.9764122934833, 0.0]
['beep', 0.0, 1294.1436522178237, 0.0, 0.0, 0.0, 0.0, -923.439970426556, 0.0]
['beep', 0.0, 1293.4730998841644, 0.0, 0.0, 0.0, 0.0, -922.054162270327, 0.0]
['beep', 0.0, 1293.584858606441, 0.0, 0.0, 0.0, 0.0, -922.1659209926034, 0.0]
['beep', 0.0, 1292.3778644058543, 0.0, 0.0, 0.0, 0.0, -924.5128541604107, 0.0]
['beep', 0.0, 1291.260277183089, 0.0, 0.0, 0.0, 0.0, -924.4234471825895, 0.0]
['beep', 0.0, 1292.1096434723906, 0.0, 0.0, 0.0, 0.0, -923.8199500822963, 0.0]
['beep', 0.0, 1293.7189690731727, 0.0, 0.0, 0.0, 0.0, -925.4292756830783, 0.0]
['beep', 0.0, 1294.3671696623767, 0.0, 0.0, 0.0, 0.0, -925.0492960273381, 0.0]
['beep', 0.0, 1295.261239440589, 0.0, 0.0, 0.0, 0.0, -925.0716477717934, 0.0]
['beep', 0.0, 1295.1271289738572, 0.0, 0.0, 0.0, 0.0, -924.7140198605085, 0.0]
['beep', 0.0, 1294.5683353624745, 0.0, 0.0, 0.0, 0.0, -922.7023628595308, 0.0]
['beep', 0.0, 1295.1494807183124, 0.0, 0.0, 0.0, 0.0, -925.406923938623, 0.0]
['beep', 0.0, 1294.3001144290108, 0.0, 0.0, 0.0, 0.0, -927.0609530283157, 0.0]
['beep', 0.0, 1294.3671696623767, 0.0, 0.0, 0.0, 0.0, -926.7033251170308, 0.0]
['beep', 0.0, 1294.0318934955471, 0.0, 0.0, 0.0, 0.0, -926.0104210389163, 0.0]
['beep', 0.0, 1294.3224661734662, 0.0, 0.0, 0.0, 0.0, -926.5021594169331, 0.0]
['beep', 0.0, 1294.97066676267, 0.0, 0.0, 0.0, 0.0, -926.5468629058437, 0.0]
['beep', 0.0, 1295.3729981628655, 0.0, 0.0, 0.0, 0.0, -924.7140198605085, 0.0]
['beep', 0.0, 1295.4624051406868, 0.0, 0.0, 0.0, 0.0, -925.4963309164442, 0.0]
['beep', 0.0, 1294.0318934955471, 0.0, 0.0, 0.0, 0.0, -927.2397669839581, 0.0]
['beep', 0.0, 1292.6237335948626, 0.0, 0.0, 0.0, 0.0, -926.6139181392095, 0.0]
['beep', 0.0, 1293.8977830288152, 0.0, 0.0, 0.0, 0.0, -928.6479268846425, 0.0]
['beep', 0.0, 1294.1660039622789, 0.0, 0.0, 0.0, 0.0, -927.9997262954387, 0.0]
['beep', 0.0, 1295.0153702515806, 0.0, 0.0, 0.0, 0.0, -927.4185809396006, 0.0]
['beep', 0.0, 1295.6635708407846, 0.0, 0.0, 0.0, 0.0, -927.3291739617794, 0.0]
['beep', 0.0, 1298.3010766865107, 0.0, 0.0, 0.0, 0.0, -926.6809733725755, 0.0]
['beep', 0.0, 1298.9939807646253, 0.0, 0.0, 0.0, 0.0, -926.6809733725755, 0.0]
['beep', 0.0, 1300.3797889208543, 0.0, 0.0, 0.0, 0.0, -924.0658192713046, 0.0]
['beep', 0.0, 1301.229155210156, 0.0, 0.0, 0.0, 0.0, -923.9540605490281, 0.0]
['beep', 0.0, 1299.9327540317481, 0.0, 0.0, 0.0, 0.0, -926.211586739014, 0.0]
['beep', 0.0, 1298.7481115756168, 0.0, 0.0, 0.0, 0.0, -925.9210140610951, 0.0]
['beep', 0.0, 1298.099910986413, 0.0, 0.0, 0.0, 0.0, -925.1834064940699, 0.0]
['beep', 0.0, 1297.2058412082006, 0.0, 0.0, 0.0, 0.0, -925.2504617274359, 0.0]
['beep', 0.0, 1295.7976813075163, 0.0, 0.0, 0.0, 0.0, -926.3456972057459, 0.0]
['beep', 0.0, 1295.708274329695, 0.0, 0.0, 0.0, 0.0, -925.7422001054526, 0.0]
['beep', 0.0, 1295.2835911850443, 0.0, 0.0, 0.0, 0.0, -925.2951652163465, 0.0]
['beep', 0.0, 1296.200012707712, 0.0, 0.0, 0.0, 0.0, -924.4010954381342, 0.0]
['beep', 0.0, 1296.200012707712, 0.0, 0.0, 0.0, 0.0, -925.9657175500057, 0.0]
['beep', 0.0, 1295.708274329695, 0.0, 0.0, 0.0, 0.0, -926.5468629058437, 0.0]
['beep', 0.0, 1293.942486517726, 0.0, 0.0, 0.0, 0.0, -928.0667815288045, 0.0]
['beep', 0.0, 1295.2388876961336, 0.0, 0.0, 0.0, 0.0, -928.0891332732599, 0.0]
['beep', 0.0, 1296.222364452167, 0.0, 0.0, 0.0, 0.0, -927.2621187284135, 0.0]
['beep', 0.0, 1295.5294603740526, 0.0, 0.0, 0.0, 0.0, -927.0162495394051, 0.0]
['beep', 0.0, 1296.1106057298907, 0.0, 0.0, 0.0, 0.0, -926.4574559280225, 0.0]
['beep', 0.0, 1295.0824254849465, 0.0, 0.0, 0.0, 0.0, -925.6751448720867, 0.0]
['beep', 0.0, 1293.5625068619856, 0.0, 0.0, 0.0, 0.0, -924.9375373050616, 0.0]
['beep', 0.0, 1293.6072103508961, 0.0, 0.0, 0.0, 0.0, -925.9657175500057, 0.0]
['beep', 0.0, 1294.7024458292062, 0.0, 0.0, 0.0, 0.0, -926.8150838393074, 0.0]
['beep', 0.0, 1294.747149318117, 0.0, 0.0, 0.0, 0.0, -927.1727117505923, 0.0]
['beep', 0.0, 1295.3729981628655, 0.0, 0.0, 0.0, 0.0, -928.312650717813, 0.0]
['beep', 0.0, 1295.5294603740526, 0.0, 0.0, 0.0, 0.0, -927.440932684056, 0.0]
['beep', 0.0, 1295.3059429294997, 0.0, 0.0, 0.0, 0.0, -927.0609530283157, 0.0]
['beep', 0.0, 1295.2835911850443, 0.0, 0.0, 0.0, 0.0, -926.1445315056482, 0.0]
['beep', 0.0, 1296.3341231744437, 0.0, 0.0, 0.0, 0.0, -925.5633861498102, 0.0]
['beep', 0.0, 1295.7976813075163, 0.0, 0.0, 0.0, 0.0, -927.9103193176174, 0.0]
['beep', 0.0, 1295.7306260741505, 0.0, 0.0, 0.0, 0.0, -928.536168162366, 0.0]
['beep', 0.0, 1295.5294603740526, 0.0, 0.0, 0.0, 0.0, -926.7256768614861, 0.0]
['beep', 0.0, 1294.5236318735638, 0.0, 0.0, 0.0, 0.0, -925.8316070832739, 0.0]
['beep', 0.0, 1295.2165359516785, 0.0, 0.0, 0.0, 0.0, -924.8034268383298, 0.0]
['beep', 0.0, 1296.6023441079074, 0.0, 0.0, 0.0, 0.0, -925.8986623166397, 0.0]
['beep', 0.0, 1296.7588063190944, 0.0, 0.0, 0.0, 0.0, -926.2339384834694, 0.0]
['beep', 0.0, 1294.903611529304, 0.0, 0.0, 0.0, 0.0, -925.8539588277291, 0.0]
['beep', 0.0, 1295.3506464184102, 0.0, 0.0, 0.0, 0.0, -925.8316070832739, 0.0]
['beep', 0.0, 1294.1436522178237, 0.0, 0.0, 0.0, 0.0, -926.7480286059414, 0.0]
['beep', 0.0, 1294.4118731512874, 0.0, 0.0, 0.0, 0.0, -926.8821390726732, 0.0]
['beep', 0.0, 1295.708274329695, 0.0, 0.0, 0.0, 0.0, -928.4244094400894, 0.0]
['beep', 0.0, 1296.0211987520695, 0.0, 0.0, 0.0, 0.0, -928.2008919955364, 0.0]
['beep', 0.0, 1296.3341231744437, 0.0, 0.0, 0.0, 0.0, -927.0162495394051, 0.0]
['beep', 0.0, 1296.937620274737, 0.0, 0.0, 0.0, 0.0, -926.6139181392095, 0.0]
['beep', 0.0, 1296.5129371300861, 0.0, 0.0, 0.0, 0.0, -926.27864197238, 0.0]
['beep', 0.0, 1296.7811580635498, 0.0, 0.0, 0.0, 0.0, -925.3845721941677, 0.0]
['beep', 0.0, 1296.7588063190944, 0.0, 0.0, 0.0, 0.0, -926.5692146502989, 0.0]
['beep', 0.0, 1295.4624051406868, 0.0, 0.0, 0.0, 0.0, -928.6255751401873, 0.0]
['beep', 0.0, 1297.004675508103, 0.0, 0.0, 0.0, 0.0, -928.8490925847403, 0.0]
['beep', 0.0, 1297.4964138861196, 0.0, 0.0, 0.0, 0.0, -927.5526914063325, 0.0]
['beep', 0.0, 1297.4070069082984, 0.0, 0.0, 0.0, 0.0, -926.9044908171286, 0.0]
['beep', 0.0, 1296.2447161966224, 0.0, 0.0, 0.0, 0.0, -927.0609530283157, 0.0]
['beep', 0.0, 1296.1329574743459, 0.0, 0.0, 0.0, 0.0, -927.3962291951453, 0.0]
['beep', 0.0, 1295.6859225852397, 0.0, 0.0, 0.0, 0.0, -925.5857378942654, 0.0]
['beep', 0.0, 1294.0542452400025, 0.0, 0.0, 0.0, 0.0, -925.1610547496147, 0.0]
['beep', 0.0, 1294.1436522178237, 0.0, 0.0, 0.0, 0.0, -925.6751448720867, 0.0]
['beep', 0.0, 1295.4624051406868, 0.0, 0.0, 0.0, 0.0, -927.0162495394051, 0.0]
['beep', 0.0, 1297.0940824859242, 0.0, 0.0, 0.0, 0.0, -926.3456972057459, 0.0]
['beep', 0.0, 1297.004675508103, 0.0, 0.0, 0.0, 0.0, -925.9657175500057, 0.0]
['beep', 0.0, 1296.1106057298907, 0.0, 0.0, 0.0, 0.0, -925.3398687052571, 0.0]
['beep', 0.0, 1296.4682336411756, 0.0, 0.0, 0.0, 0.0, -925.9657175500057, 0.0]
['beep', 0.0, 1296.9152685302818, 0.0, 0.0, 0.0, 0.0, -925.5633861498102, 0.0]
['beep', 0.0, 1297.4517103972091, 0.0, 0.0, 0.0, 0.0, -924.825778582785, 0.0]
['beep', 0.0, 1297.9434487752258, 0.0, 0.0, 0.0, 0.0, -924.9375373050616, 0.0]
['beep', 0.0, 1298.0552074975024, 0.0, 0.0, 0.0, 0.0, -925.630441383176, 0.0]
['beep', 0.0, 1297.9881522641365, 0.0, 0.0, 0.0, 0.0, -926.4574559280225, 0.0]
['beep', 0.0, 1297.0270272525581, 0.0, 0.0, 0.0, 0.0, -926.0104210389163, 0.0]
['beep', 0.0, 1295.708274329695, 0.0, 0.0, 0.0, 0.0, -926.1892349945588, 0.0]
['beep', 0.0, 1296.356474918899, 0.0, 0.0, 0.0, 0.0, -925.473979171989, 0.0]
['beep', 0.0, 1298.2787249420555, 0.0, 0.0, 0.0, 0.0, -925.4292756830783, 0.0]
['beep', 0.0, 1298.7704633200722, 0.0, 0.0, 0.0, 0.0, -926.1221797611928, 0.0]
['beep', 0.0, 1298.323428430966, 0.0, 0.0, 0.0, 0.0, -926.0774762722822, 0.0]
['beep', 0.0, 1298.3681319198768, 0.0, 0.0, 0.0, 0.0, -925.7869035943633, 0.0]
['beep', 0.0, 1297.2728964415667, 0.0, 0.0, 0.0, 0.0, -925.1834064940699, 0.0]
['beep', 0.0, 1295.6635708407846, 0.0, 0.0, 0.0, 0.0, -926.5692146502989, 0.0]
['beep', 0.0, 1295.2388876961336, 0.0, 0.0, 0.0, 0.0, -926.3009937168353, 0.0]
['beep', 0.0, 1296.423530152265, 0.0, 0.0, 0.0, 0.0, -926.3233454612906, 0.0]
['beep', 0.0, 1295.4400533962314, 0.0, 0.0, 0.0, 0.0, -927.0162495394051, 0.0]
['beep', 0.0, 1294.389521406832, 0.0, 0.0, 0.0, 0.0, -926.2562902279246, 0.0]
['beep', 0.0, 1294.4118731512874, 0.0, 0.0, 0.0, 0.0, -927.0609530283157, 0.0]
['beep', 0.0, 1295.2165359516785, 0.0, 0.0, 0.0, 0.0, -927.1950634950475, 0.0]
['beep', 0.0, 1295.5294603740526, 0.0, 0.0, 0.0, 0.0, -925.6751448720867, 0.0]
['beep', 0.0, 1296.4905853856308, 0.0, 0.0, 0.0, 0.0, -922.9258803040839, 0.0]
['beep', 0.0, 1296.4011784078095, 0.0, 0.0, 0.0, 0.0, -925.116351260704, 0.0]
['beep', 0.0, 1295.4847568851421, 0.0, 0.0, 0.0, 0.0, -926.5692146502989, 0.0]
['beep', 0.0, 1294.7024458292062, 0.0, 0.0, 0.0, 0.0, -927.0609530283157, 0.0]
['beep', 0.0, 1293.3836929063432, 0.0, 0.0, 0.0, 0.0, -927.9103193176174, 0.0]
['beep', 0.0, 1293.4060446507985, 0.0, 0.0, 0.0, 0.0, -927.3962291951453, 0.0]
['beep', 0.0, 1293.3836929063432, 0.0, 0.0, 0.0, 0.0, -927.7091536175196, 0.0]
['beep', 0.0, 1292.8248992949605, 0.0, 0.0, 0.0, 0.0, -926.7033251170308, 0.0]
['beep', 0.0, 1293.4730998841644, 0.0, 0.0, 0.0, 0.0, -924.825778582785, 0.0]
['beep', 0.0, 1293.4283963952537, 0.0, 0.0, 0.0, 0.0, -926.5692146502989, 0.0]
['beep', 0.0, 1293.5625068619856, 0.0, 0.0, 0.0, 0.0, -925.3398687052571, 0.0]
['beep', 0.0, 1294.5236318735638, 0.0, 0.0, 0.0, 0.0, -926.0998280167375, 0.0]
['beep', 0.0, 1293.808376050994, 0.0, 0.0, 0.0, 0.0, -925.5410344053548, 0.0]
['beep', 0.0, 1294.7024458292062, 0.0, 0.0, 0.0, 0.0, -926.1892349945588, 0.0]
['beep', 0.0, 1295.1047772294019, 0.0, 0.0, 0.0, 0.0, -927.2174152395029, 0.0]
['beep', 0.0, 1294.97066676267, 0.0, 0.0, 0.0, 0.0, -927.3962291951453, 0.0]
['beep', 0.0, 1295.1047772294019, 0.0, 0.0, 0.0, 0.0, -926.3904006946565, 0.0]
['beep', 0.0, 1295.2388876961336, 0.0, 0.0, 0.0, 0.0, -925.6751448720867, 0.0]
['beep', 0.0, 1294.6353905958404, 0.0, 0.0, 0.0, 0.0, -927.4632844285112, 0.0]
['beep', 0.0, 1294.680094084751, 0.0, 0.0, 0.0, 0.0, -929.2067204960252, 0.0]
['beep', 0.0, 1294.2554109401, 0.0, 0.0, 0.0, 0.0, -927.7538571064302, 0.0]
['beep', 0.0, 1294.3448179179213, 0.0, 0.0, 0.0, 0.0, -927.2174152395029, 0.0]
['beep', 0.0, 1294.2554109401, 0.0, 0.0, 0.0, 0.0, -927.3068222173241, 0.0]
['beep', 0.0, 1294.3448179179213, 0.0, 0.0, 0.0, 0.0, -926.9491943060392, 0.0]
['beep', 0.0, 1294.0765969844576, 0.0, 0.0, 0.0, 0.0, -926.6809733725755, 0.0]
['beep', 0.0, 1294.4118731512874, 0.0, 0.0, 0.0, 0.0, -926.5915663947543, 0.0]
['beep', 0.0, 1295.037721996036, 0.0, 0.0, 0.0, 0.0, -926.4574559280225, 0.0]
['beep', 0.0, 1296.4682336411756, 0.0, 0.0, 0.0, 0.0, -926.792732094852, 0.0]
['beep', 0.0, 1296.6693993412732, 0.0, 0.0, 0.0, 0.0, -927.8209123397962, 0.0]
['beep', 0.0, 1297.7199313306728, 0.0, 0.0, 0.0, 0.0, -927.0609530283157, 0.0]
['beep', 0.0, 1296.7588063190944, 0.0, 0.0, 0.0, 0.0, -926.211586739014, 0.0]
['beep', 0.0, 1296.579992363452, 0.0, 0.0, 0.0, 0.0, -926.9491943060392, 0.0]
['beep', 0.0, 1298.099910986413, 0.0, 0.0, 0.0, 0.0, -928.3350024622682, 0.0]
['beep', 0.0, 1297.4070069082984, 0.0, 0.0, 0.0, 0.0, -927.8879675731621, 0.0]
['beep', 0.0, 1297.4293586527538, 0.0, 0.0, 0.0, 0.0, -926.7480286059414, 0.0]
['beep', 0.0, 1297.5411173750304, 0.0, 0.0, 0.0, 0.0, -928.9161478181062, 0.0]
['beep', 0.0, 1295.4624051406868, 0.0, 0.0, 0.0, 0.0, -930.0337350408715, 0.0]
['beep', 0.0, 1295.708274329695, 0.0, 0.0, 0.0, 0.0, -929.2067204960252, 0.0]
['beep', 0.0, 1296.2670679410778, 0.0, 0.0, 0.0, 0.0, -929.0726100292934, 0.0]
['beep', 0.0, 1294.233059195645, 0.0, 0.0, 0.0, 0.0, -929.631403640676, 0.0]
['beep', 0.0, 1293.3613411618878, 0.0, 0.0, 0.0, 0.0, -928.4244094400894, 0.0]
['beep', 0.0, 1292.8696027838712, 0.0, 0.0, 0.0, 0.0, -927.5750431507878, 0.0]
['beep', 0.0, 1292.3108091724885, 0.0, 0.0, 0.0, 0.0, -927.3068222173241, 0.0]
['beep', 0.0, 1294.6353905958404, 0.0, 0.0, 0.0, 0.0, -930.1231420186928, 0.0]
['beep', 0.0, 1293.4060446507985, 0.0, 0.0, 0.0, 0.0, -930.7489908634413, 0.0]
['beep', 0.0, 1293.2048789507007, 0.0, 0.0, 0.0, 0.0, -930.7042873745307, 0.0]
['beep', 0.0, 1293.741320817628, 0.0, 0.0, 0.0, 0.0, -928.0891332732599, 0.0]
['beep', 0.0, 1292.9143062727817, 0.0, 0.0, 0.0, 0.0, -928.5808716512767, 0.0]
['beep', 0.0, 1293.0707684839688, 0.0, 0.0, 0.0, 0.0, -927.7985605953409, 0.0]
['beep', 0.0, 1294.8142045514828, 0.0, 0.0, 0.0, 0.0, -928.893796073651, 0.0]
['beep', 0.0, 1294.5683353624745, 0.0, 0.0, 0.0, 0.0, -929.7655141074079, 0.0]
['beep', 0.0, 1295.5965156074185, 0.0, 0.0, 0.0, 0.0, -928.245595484447, 0.0]
['beep', 0.0, 1295.7529778186058, 0.0, 0.0, 0.0, 0.0, -927.9773745509833, 0.0]
['beep', 0.0, 1294.903611529304, 0.0, 0.0, 0.0, 0.0, -929.0279065403828, 0.0]
['beep', 0.0, 1295.1271289738572, 0.0, 0.0, 0.0, 0.0, -928.4691129290001, 0.0]
['beep', 0.0, 1296.423530152265, 0.0, 0.0, 0.0, 0.0, -928.245595484447, 0.0]
['beep', 0.0, 1296.0211987520695, 0.0, 0.0, 0.0, 0.0, -927.440932684056, 0.0]
['beep', 0.0, 1297.9434487752258, 0.0, 0.0, 0.0, 0.0, -927.2621187284135, 0.0]
['beep', 0.0, 1295.9317917742483, 0.0, 0.0, 0.0, 0.0, -928.6255751401873, 0.0]
['beep', 0.0, 1294.3671696623767, 0.0, 0.0, 0.0, 0.0, -930.0337350408715, 0.0]
['beep', 0.0, 1294.3448179179213, 0.0, 0.0, 0.0, 0.0, -929.117313518204, 0.0]
['beep', 0.0, 1295.0153702515806, 0.0, 0.0, 0.0, 0.0, -929.1620170071146, 0.0]
['beep', 0.0, 1295.4847568851421, 0.0, 0.0, 0.0, 0.0, -927.7091536175196, 0.0]
['beep', 0.0, 1295.417701651776, 0.0, 0.0, 0.0, 0.0, -926.4574559280225, 0.0]
['beep', 0.0, 1294.456576640198, 0.0, 0.0, 0.0, 0.0, -927.5079879174219, 0.0]
['beep', 0.0, 1295.909440029793, 0.0, 0.0, 0.0, 0.0, -927.731505361975, 0.0]
['beep', 0.0, 1297.6528760973067, 0.0, 0.0, 0.0, 0.0, -927.5303396618772, 0.0]
['beep', 0.0, 1295.9764952631588, 0.0, 0.0, 0.0, 0.0, -929.0949617737487, 0.0]
['beep', 0.0, 1295.909440029793, 0.0, 0.0, 0.0, 0.0, -929.4525896850336, 0.0]
['beep', 0.0, 1296.6246958523627, 0.0, 0.0, 0.0, 0.0, -928.4244094400894, 0.0]
['beep', 0.0, 1296.579992363452, 0.0, 0.0, 0.0, 0.0, -928.1561885066258, 0.0]
['beep', 0.0, 1296.3341231744437, 0.0, 0.0, 0.0, 0.0, -927.3068222173241, 0.0]
['beep', 0.0, 1295.8647365408822, 0.0, 0.0, 0.0, 0.0, -925.8539588277291, 0.0]
['beep', 0.0, 1295.1718324627677, 0.0, 0.0, 0.0, 0.0, -927.664450128609, 0.0]
['beep', 0.0, 1294.680094084751, 0.0, 0.0, 0.0, 0.0, -927.8879675731621, 0.0]
['beep', 0.0, 1295.3059429294997, 0.0, 0.0, 0.0, 0.0, -926.8150838393074, 0.0]
['beep', 0.0, 1296.4905853856308, 0.0, 0.0, 0.0, 0.0, -926.2562902279246, 0.0]
['beep', 0.0, 1298.2116697086894, 0.0, 0.0, 0.0, 0.0, -925.4516274275336, 0.0]
['beep', 0.0, 1298.5245941310638, 0.0, 0.0, 0.0, 0.0, -927.7538571064302, 0.0]
['beep', 0.0, 1298.2116697086894, 0.0, 0.0, 0.0, 0.0, -927.9103193176174, 0.0]
['beep', 0.0, 1299.0610359979912, 0.0, 0.0, 0.0, 0.0, -926.5245111613883, 0.0]
['beep', 0.0, 1298.3681319198768, 0.0, 0.0, 0.0, 0.0, -926.3680489502012, 0.0]
['beep', 0.0, 1297.9881522641365, 0.0, 0.0, 0.0, 0.0, -928.7373338624637, 0.0]
['beep', 0.0, 1298.166966219779, 0.0, 0.0, 0.0, 0.0, -927.6197466396984, 0.0]
['beep', 0.0, 1298.032855753047, 0.0, 0.0, 0.0, 0.0, -928.4691129290001, 0.0]
['beep', 0.0, 1297.4740621416643, 0.0, 0.0, 0.0, 0.0, -929.1396652626593, 0.0]
['beep', 0.0, 1296.7811580635498, 0.0, 0.0, 0.0, 0.0, -929.0055547959274, 0.0]
['beep', 0.0, 1296.7588063190944, 0.0, 0.0, 0.0, 0.0, -927.9103193176174, 0.0]
['beep', 0.0, 1297.0270272525581, 0.0, 0.0, 0.0, 0.0, -927.731505361975, 0.0]
['beep', 0.0, 1295.9764952631588, 0.0, 0.0, 0.0, 0.0, -929.8102175963185, 0.0]
['beep', 0.0, 1295.842384796427, 0.0, 0.0, 0.0, 0.0, -929.0279065403828, 0.0]
['beep', 0.0, 1295.5294603740526, 0.0, 0.0, 0.0, 0.0, -930.1454937631481, 0.0]
['beep', 0.0, 1296.5129371300861, 0.0, 0.0, 0.0, 0.0, -928.4691129290001, 0.0]
['beep', 0.0, 1296.7588063190944, 0.0, 0.0, 0.0, 0.0, -929.0949617737487, 0.0]
['beep', 0.0, 1296.6023441079074, 0.0, 0.0, 0.0, 0.0, -931.084267030271, 0.0]
['beep', 0.0, 1295.261239440589, 0.0, 0.0, 0.0, 0.0, -929.0726100292934, 0.0]
['beep', 0.0, 1293.8977830288152, 0.0, 0.0, 0.0, 0.0, -928.2008919955364, 0.0]
['beep', 0.0, 1295.5741638629634, 0.0, 0.0, 0.0, 0.0, -927.5973948952432, 0.0]
['beep', 0.0, 1297.16113771929, 0.0, 0.0, 0.0, 0.0, -929.9890315519609, 0.0]
['beep', 0.0, 1298.5916493644297, 0.0, 0.0, 0.0, 0.0, -928.0667815288045, 0.0]
['beep', 0.0, 1300.5362511320413, 0.0, 0.0, 0.0, 0.0, -926.3456972057459, 0.0]
['beep', 0.0, 1302.3467424329212, 0.0, 0.0, 0.0, 0.0, -926.0774762722822, 0.0]
['beep', 0.0, 1303.3972744223208, 0.0, 0.0, 0.0, 0.0, -926.4798076724777, 0.0]
['beep', 0.0, 1301.7208935881727, 0.0, 0.0, 0.0, 0.0, -926.3904006946565, 0.0]
['beep', 0.0, 1299.0386842535358, 0.0, 0.0, 0.0, 0.0, -927.0386012838604, 0.0]
['beep', 0.0, 1297.6081726083962, 0.0, 0.0, 0.0, 0.0, -927.5079879174219, 0.0]
['beep', 0.0, 1297.1387859748347, 0.0, 0.0, 0.0, 0.0, -927.3515257062347, 0.0]
['beep', 0.0, 1296.9823237636476, 0.0, 0.0, 0.0, 0.0, -927.731505361975, 0.0]
['beep', 0.0, 1298.837518553438, 0.0, 0.0, 0.0, 0.0, -926.6362698836649, 0.0]
['beep', 0.0, 1298.7704633200722, 0.0, 0.0, 0.0, 0.0, -926.0551245278269, 0.0]
['beep', 0.0, 1297.4964138861196, 0.0, 0.0, 0.0, 0.0, -926.6139181392095, 0.0]
['beep', 0.0, 1298.5245941310638, 0.0, 0.0, 0.0, 0.0, -925.3398687052571, 0.0]
['beep', 0.0, 1298.166966219779, 0.0, 0.0, 0.0, 0.0, -925.473979171989, 0.0]
['beep', 0.0, 1299.7315883316503, 0.0, 0.0, 0.0, 0.0, -926.5692146502989, 0.0]
['beep', 0.0, 1301.3409139324324, 0.0, 0.0, 0.0, 0.0, -926.0104210389163, 0.0]
['beep', 0.0, 1300.78212032105, 0.0, 0.0, 0.0, 0.0, -929.1396652626593, 0.0]
['beep', 0.0, 1299.619829609374, 0.0, 0.0, 0.0, 0.0, -928.0444297843493, 0.0]
['beep', 0.0, 1300.8268238099604, 0.0, 0.0, 0.0, 0.0, -925.5410344053548, 0.0]
['beep', 0.0, 1299.7315883316503, 0.0, 0.0, 0.0, 0.0, -926.7480286059414, 0.0]
['beep', 0.0, 1300.1115679873906, 0.0, 0.0, 0.0, 0.0, -925.8986623166397, 0.0]
['beep', 0.0, 1299.776291820561, 0.0, 0.0, 0.0, 0.0, -923.730543104475, 0.0]
['beep', 0.0, 1299.4410156537315, 0.0, 0.0, 0.0, 0.0, -924.0658192713046, 0.0]
['beep', 0.0, 1298.390483664332, 0.0, 0.0, 0.0, 0.0, -925.697496616542, 0.0]
['beep', 0.0, 1300.290381943033, 0.0, 0.0, 0.0, 0.0, -926.3009937168353, 0.0]
['beep', 0.0, 1300.7150650876838, 0.0, 0.0, 0.0, 0.0, -925.630441383176, 0.0]
['beep', 0.0, 1299.485719142642, 0.0, 0.0, 0.0, 0.0, -925.8316070832739, 0.0]
['beep', 0.0, 1298.9939807646253, 0.0, 0.0, 0.0, 0.0, -924.9151855606062, 0.0]
['beep', 0.0, 1299.5527743760078, 0.0, 0.0, 0.0, 0.0, -925.5857378942654, 0.0]
['beep', 0.0, 1300.78212032105, 0.0, 0.0, 0.0, 0.0, -927.6197466396984, 0.0]
['beep', 0.0, 1299.7092365871952, 0.0, 0.0, 0.0, 0.0, -927.0609530283157, 0.0]
['beep', 0.0, 1300.6703615987733, 0.0, 0.0, 0.0, 0.0, -927.083304772771, 0.0]
['beep', 0.0, 1301.586783121441, 0.0, 0.0, 0.0, 0.0, -926.4127524391118, 0.0]
['beep', 0.0, 1301.2738586990665, 0.0, 0.0, 0.0, 0.0, -927.4632844285112, 0.0]
['beep', 0.0, 1300.6703615987733, 0.0, 0.0, 0.0, 0.0, -927.731505361975, 0.0]
['beep', 0.0, 1300.8491755544158, 0.0, 0.0, 0.0, 0.0, -927.5303396618772, 0.0]
['beep', 0.0, 1301.9891145216363, 0.0, 0.0, 0.0, 0.0, -926.7703803503967, 0.0]
['beep', 0.0, 1301.7208935881727, 0.0, 0.0, 0.0, 0.0, -925.2504617274359, 0.0]
['beep', 0.0, 1300.648009854318, 0.0, 0.0, 0.0, 0.0, -926.0551245278269, 0.0]
['beep', 0.0, 1299.7315883316503, 0.0, 0.0, 0.0, 0.0, -928.4691129290001, 0.0]
['beep', 0.0, 1300.5138993875862, 0.0, 0.0, 0.0, 0.0, -929.9890315519609, 0.0]
['beep', 0.0, 1300.8491755544158, 0.0, 0.0, 0.0, 0.0, -928.3573542067236, 0.0]
['beep', 0.0, 1300.4021406653096, 0.0, 0.0, 0.0, 0.0, -926.4127524391118, 0.0]
['beep', 0.0, 1301.6314866103514, 0.0, 0.0, 0.0, 0.0, -927.8432640842515, 0.0]
['beep', 0.0, 1302.5926116219298, 0.0, 0.0, 0.0, 0.0, -927.7985605953409, 0.0]
['beep', 0.0, 1301.4303209102536, 0.0, 0.0, 0.0, 0.0, -926.7256768614861, 0.0]
['beep', 0.0, 1302.0785214994576, 0.0, 0.0, 0.0, 0.0, -925.2728134718911, 0.0]
['beep', 0.0, 1299.9774575206588, 0.0, 0.0, 0.0, 0.0, -925.630441383176, 0.0]
['beep', 0.0, 1299.8209953094715, 0.0, 0.0, 0.0, 0.0, -927.731505361975, 0.0]
['beep', 0.0, 1300.4021406653096, 0.0, 0.0, 0.0, 0.0, -928.0891332732599, 0.0]
['beep', 0.0, 1300.6703615987733, 0.0, 0.0, 0.0, 0.0, -927.5079879174219, 0.0]
['beep', 0.0, 1300.6703615987733, 0.0, 0.0, 0.0, 0.0, -928.9608513070168, 0.0]
['beep', 0.0, 1299.776291820561, 0.0, 0.0, 0.0, 0.0, -927.3515257062347, 0.0]
['beep', 0.0, 1300.3797889208543, 0.0, 0.0, 0.0, 0.0, -925.8539588277291, 0.0]
['beep', 0.0, 1300.6703615987733, 0.0, 0.0, 0.0, 0.0, -927.4185809396006, 0.0]
['beep', 0.0, 1299.7315883316503, 0.0, 0.0, 0.0, 0.0, -929.4749414294889, 0.0]
['beep', 0.0, 1299.7315883316503, 0.0, 0.0, 0.0, 0.0, -928.8490925847403, 0.0]
['beep', 0.0, 1299.7539400761057, 0.0, 0.0, 0.0, 0.0, -928.4691129290001, 0.0]
['beep', 0.0, 1299.0386842535358, 0.0, 0.0, 0.0, 0.0, -928.1561885066258, 0.0]
['beep', 0.0, 1298.5245941310638, 0.0, 0.0, 0.0, 0.0, -929.407886196123, 0.0]
['beep', 0.0, 1299.7315883316503, 0.0, 0.0, 0.0, 0.0, -930.4137146966118, 0.0]
['beep', 0.0, 1299.2398499536337, 0.0, 0.0, 0.0, 0.0, -928.1785402510811, 0.0]
['beep', 0.0, 1299.1057394869017, 0.0, 0.0, 0.0, 0.0, -927.3068222173241, 0.0]
['beep', 0.0, 1299.7986435650164, 0.0, 0.0, 0.0, 0.0, -926.6586216281202, 0.0]
['beep', 0.0, 1300.804472065505, 0.0, 0.0, 0.0, 0.0, -927.2397669839581, 0.0]
['beep', 0.0, 1300.290381943033, 0.0, 0.0, 0.0, 0.0, -929.2514239849359, 0.0]
['beep', 0.0, 1300.0221610095693, 0.0, 0.0, 0.0, 0.0, -929.5867001517654, 0.0]
['beep', 0.0, 1298.8598702978934, 0.0, 0.0, 0.0, 0.0, -929.8325693407738, 0.0]
['beep', 0.0, 1300.5138993875862, 0.0, 0.0, 0.0, 0.0, -929.8772728296844, 0.0]
['beep', 0.0, 1300.7374168321392, 0.0, 0.0, 0.0, 0.0, -929.8772728296844, 0.0]
['beep', 0.0, 1300.804472065505, 0.0, 0.0, 0.0, 0.0, -929.5419966628548, 0.0]
['beep', 0.0, 1301.16209997679, 0.0, 0.0, 0.0, 0.0, -929.6761071295866, 0.0]
['beep', 0.0, 1299.4410156537315, 0.0, 0.0, 0.0, 0.0, -929.3631827072123, 0.0]
['beep', 0.0, 1298.1446144753236, 0.0, 0.0, 0.0, 0.0, -926.4574559280225, 0.0]
['beep', 0.0, 1300.0445127540247, 0.0, 0.0, 0.0, 0.0, -928.2008919955364, 0.0]
['beep', 0.0, 1299.999809265114, 0.0, 0.0, 0.0, 0.0, -929.3855344516677, 0.0]
['beep', 0.0, 1299.7092365871952, 0.0, 0.0, 0.0, 0.0, -930.0337350408715, 0.0]
['beep', 0.0, 1298.7257598311617, 0.0, 0.0, 0.0, 0.0, -930.6372321411649, 0.0]
['beep', 0.0, 1298.9939807646253, 0.0, 0.0, 0.0, 0.0, -929.698458874042, 0.0]
['beep', 0.0, 1298.3010766865107, 0.0, 0.0, 0.0, 0.0, -929.2514239849359, 0.0]
['beep', 0.0, 1297.2952481860218, 0.0, 0.0, 0.0, 0.0, -930.5701769077989, 0.0]
['beep', 0.0, 1297.6081726083962, 0.0, 0.0, 0.0, 0.0, -932.246557741947, 0.0]
['beep', 0.0, 1297.7199313306728, 0.0, 0.0, 0.0, 0.0, -931.8442263417514, 0.0]
['beep', 0.0, 1299.4633673981866, 0.0, 0.0, 0.0, 0.0, -931.7771711083856, 0.0]
['beep', 0.0, 1299.2845534425442, 0.0, 0.0, 0.0, 0.0, -932.1571507641257, 0.0]
['beep', 0.0, 1299.485719142642, 0.0, 0.0, 0.0, 0.0, -931.5536536638325, 0.0]
['beep', 0.0, 1299.619829609374, 0.0, 0.0, 0.0, 0.0, -931.7771711083856, 0.0]
['beep', 0.0, 1301.0056377656028, 0.0, 0.0, 0.0, 0.0, -930.5254734188883, 0.0]
['beep', 0.0, 1300.9609342766923, 0.0, 0.0, 0.0, 0.0, -931.6430606416537, 0.0]
['beep', 0.0, 1300.8491755544158, 0.0, 0.0, 0.0, 0.0, -932.8500548422403, 0.0]
['beep', 0.0, 1300.4468441542201, 0.0, 0.0, 0.0, 0.0, -933.4088484536229, 0.0]
['beep', 0.0, 1300.1786232207564, 0.0, 0.0, 0.0, 0.0, -930.7713426078967, 0.0]
['beep', 0.0, 1301.5644313769856, 0.0, 0.0, 0.0, 0.0, -930.0560867853269, 0.0]
['beep', 0.0, 1301.16209997679, 0.0, 0.0, 0.0, 0.0, -931.0619152858156, 0.0]
['beep', 0.0, 1301.1173964878794, 0.0, 0.0, 0.0, 0.0, -929.8996245741397, 0.0]
['beep', 0.0, 1301.2738586990665, 0.0, 0.0, 0.0, 0.0, -929.4302379405783, 0.0]
['beep', 0.0, 1301.1397482323348, 0.0, 0.0, 0.0, 0.0, -928.8043890958297, 0.0]
['beep', 0.0, 1301.6761900992622, 0.0, 0.0, 0.0, 0.0, -929.0055547959274, 0.0]
['beep', 0.0, 1301.8550040549046, 0.0, 0.0, 0.0, 0.0, -930.2349007409694, 0.0]
['beep', 0.0, 1301.4973761436197, 0.0, 0.0, 0.0, 0.0, -930.1007902742375, 0.0]
['beep', 0.0, 1300.424492409765, 0.0, 0.0, 0.0, 0.0, -929.5196449183995, 0.0]
['beep', 0.0, 1299.4633673981866, 0.0, 0.0, 0.0, 0.0, -929.9890315519609, 0.0]
['beep', 0.0, 1298.6587045977956, 0.0, 0.0, 0.0, 0.0, -930.27960422988, 0.0]
['beep', 0.0, 1298.2116697086894, 0.0, 0.0, 0.0, 0.0, -929.1620170071146, 0.0]
['beep', 0.0, 1299.0163325090805, 0.0, 0.0, 0.0, 0.0, -928.7596856069191, 0.0]
['beep', 0.0, 1299.9327540317481, 0.0, 0.0, 0.0, 0.0, -930.5478251633436, 0.0]
['beep', 0.0, 1296.2670679410778, 0.0, 0.0, 0.0, 0.0, -931.7101158750196, 0.0]
['beep', 0.0, 1296.3341231744437, 0.0, 0.0, 0.0, 0.0, -930.4807699299777, 0.0]
['beep', 0.0, 1296.9823237636476, 0.0, 0.0, 0.0, 0.0, -929.6090518962208, 0.0]
['beep', 0.0, 1297.4517103972091, 0.0, 0.0, 0.0, 0.0, -930.9948600524498, 0.0]
['beep', 0.0, 1297.2058412082006, 0.0, 0.0, 0.0, 0.0, -932.3359647197682, 0.0]
['beep', 0.0, 1298.2563731976002, 0.0, 0.0, 0.0, 0.0, -930.8607495857179, 0.0]
['beep', 0.0, 1298.6587045977956, 0.0, 0.0, 0.0, 0.0, -931.3301362192793, 0.0]
['beep', 0.0, 1298.7257598311617, 0.0, 0.0, 0.0, 0.0, -932.0900955307599, 0.0]
['beep', 0.0, 1298.166966219779, 0.0, 0.0, 0.0, 0.0, -934.3252699762905, 0.0]
['beep', 0.0, 1298.1222627308682, 0.0, 0.0, 0.0, 0.0, -933.4759036869889, 0.0]
['beep', 0.0, 1297.3175999304772, 0.0, 0.0, 0.0, 0.0, -932.4700751865, 0.0]
['beep', 0.0, 1296.937620274737, 0.0, 0.0, 0.0, 0.0, -932.246557741947, 0.0]
['beep', 0.0, 1297.2505446971113, 0.0, 0.0, 0.0, 0.0, -931.3748397081899, 0.0]
['beep', 0.0, 1296.2447161966224, 0.0, 0.0, 0.0, 0.0, -930.5254734188883, 0.0]
['beep', 0.0, 1297.004675508103, 0.0, 0.0, 0.0, 0.0, -929.3408309627571, 0.0]
['beep', 0.0, 1297.6081726083962, 0.0, 0.0, 0.0, 0.0, -930.8831013301732, 0.0]
['beep', 0.0, 1297.362303419388, 0.0, 0.0, 0.0, 0.0, -930.7713426078967, 0.0]
['beep', 0.0, 1295.9988470076141, 0.0, 0.0, 0.0, 0.0, -929.0055547959274, 0.0]
['beep', 0.0, 1296.2670679410778, 0.0, 0.0, 0.0, 0.0, -928.245595484447, 0.0]
['beep', 0.0, 1297.2952481860218, 0.0, 0.0, 0.0, 0.0, -927.3068222173241, 0.0]
['beep', 0.0, 1297.8987452863153, 0.0, 0.0, 0.0, 0.0, -924.2893367158576, 0.0]
['beep', 0.0, 1296.7588063190944, 0.0, 0.0, 0.0, 0.0, -922.568252392799, 0.0]
['beep', 0.0, 1295.0153702515806, 0.0, 0.0, 0.0, 0.0, -919.2601942134136, 0.0]
['beep', 0.0, 1295.8200330519717, 0.0, 0.0, 0.0, 0.0, -915.5498046338327, 0.0]
['beep', 0.0, 1296.4682336411756, 0.0, 0.0, 0.0, 0.0, -909.2913161863466, 0.0]
['beep', 0.0, 1295.3059429294997, 0.0, 0.0, 0.0, 0.0, -901.4011503936232, 0.0]
['beep', 0.0, 1292.646085339318, 0.0, 0.0, 0.0, 0.0, -894.9861997349501, 0.0]
['beep', 0.0, 1291.8190707944716, 0.0, 0.0, 0.0, 0.0, -889.1747461765702, 0.0]
['beep', 0.0, 1292.4449196392202, 0.0, 0.0, 0.0, 0.0, -883.4974030849222, 0.0]
['beep', 0.0, 1293.294285928522, 0.0, 0.0, 0.0, 0.0, -877.2836181263469, 0.0]
['beep', 0.0, 1289.8968207713153, 0.0, 0.0, 0.0, 0.0, -869.6169697781766, 0.0]
['beep', 0.0, 1290.2768004270556, 0.0, 0.0, 0.0, 0.0, -860.8997894406068, 0.0]
['beep', 0.0, 1292.2437539391226, 0.0, 0.0, 0.0, 0.0, -853.2554928368918, 0.0]
['beep', 0.0, 1293.741320817628, 0.0, 0.0, 0.0, 0.0, -847.7122602119756, 0.0]
['beep', 0.0, 1295.417701651776, 0.0, 0.0, 0.0, 0.0, -841.6325857201322, 0.0]
['beep', 0.0, 1292.8248992949605, 0.0, 0.0, 0.0, 0.0, -835.7093734394757, 0.0]
['beep', 0.0, 1289.6509515823068, 0.0, 0.0, 0.0, 0.0, -830.1661408145596, 0.0]
['beep', 0.0, 1291.5732016054633, 0.0, 0.0, 0.0, 0.0, -822.6559546775765, 0.0]
['beep', 0.0, 1292.7354923171392, 0.0, 0.0, 0.0, 0.0, -818.2079575309704, 0.0]
['beep', 0.0, 1293.5625068619856, 0.0, 0.0, 0.0, 0.0, -815.7045621519759, 0.0]
['beep', 0.0, 1294.1436522178237, 0.0, 0.0, 0.0, 0.0, -810.7201231384424, 0.0]
['beep', 0.0, 1295.4847568851421, 0.0, 0.0, 0.0, 0.0, -804.7969108577861, 0.0]
['beep', 0.0, 1293.3613411618878, 0.0, 0.0, 0.0, 0.0, -801.3547422116688, 0.0]
['beep', 0.0, 1292.6237335948626, 0.0, 0.0, 0.0, 0.0, -796.9738002984286, 0.0]
['beep', 0.0, 1293.0931202284241, 0.0, 0.0, 0.0, 0.0, -791.8999543070739, 0.0]
['beep', 0.0, 1295.4847568851421, 0.0, 0.0, 0.0, 0.0, -789.4412624169902, 0.0]
['beep', 0.0, 1294.7024458292062, 0.0, 0.0, 0.0, 0.0, -784.0991954921717, 0.0]
['beep', 0.0, 1290.6344283383405, 0.0, 0.0, 0.0, 0.0, -781.6181518576327, 0.0]
['beep', 0.0, 1292.131995216846, 0.0, 0.0, 0.0, 0.0, -779.4723843899231, 0.0]
['beep', 0.0, 1293.450748139709, 0.0, 0.0, 0.0, 0.0, -774.800869798764, 0.0]
['beep', 0.0, 1293.1154719728795, 0.0, 0.0, 0.0, 0.0, -773.9515035094623, 0.0]
['beep', 0.0, 1292.646085339318, 0.0, 0.0, 0.0, 0.0, -770.9563697524512, 0.0]
['beep', 0.0, 1294.9259632737594, 0.0, 0.0, 0.0, 0.0, -766.4636691169345, 0.0]
['beep', 0.0, 1295.842384796427, 0.0, 0.0, 0.0, 0.0, -768.3859191400909, 0.0]
['beep', 0.0, 1295.194184207223, 0.0, 0.0, 0.0, 0.0, -768.7658987958312, 0.0]
['beep', 0.0, 1294.613038851385, 0.0, 0.0, 0.0, 0.0, -767.3353871506914, 0.0]
['beep', 0.0, 1293.6966173287176, 0.0, 0.0, 0.0, 0.0, -772.8786197756076, 0.0]
['beep', 0.0, 1293.9871900066364, 0.0, 0.0, 0.0, 0.0, -777.125451222116, 0.0]
['beep', 0.0, 1297.9658005196811, 0.0, 0.0, 0.0, 0.0, -779.2935704342807, 0.0]
['beep', 0.0, 1298.1446144753236, 0.0, 0.0, 0.0, 0.0, -784.5015268923673, 0.0]
['beep', 0.0, 1295.395349907321, 0.0, 0.0, 0.0, 0.0, -791.1846984845041, 0.0]
['beep', 0.0, 1297.0717307414689, 0.0, 0.0, 0.0, 0.0, -794.6268671306213, 0.0]
['beep', 0.0, 1297.9434487752258, 0.0, 0.0, 0.0, 0.0, -798.2254979879258, 0.0]
['beep', 0.0, 1298.6587045977956, 0.0, 0.0, 0.0, 0.0, -803.9698963129397, 0.0]
['beep', 0.0, 1298.3010766865107, 0.0, 0.0, 0.0, 0.0, -812.1282830391268, 0.0]
['beep', 0.0, 1296.3117714299883, 0.0, 0.0, 0.0, 0.0, -820.1525592985821, 0.0]
['beep', 0.0, 1297.4293586527538, 0.0, 0.0, 0.0, 0.0, -825.7404954124088, 0.0]
['beep', 0.0, 1296.0435504965246, 0.0, 0.0, 0.0, 0.0, -831.2390245484144, 0.0]
['beep', 0.0, 1294.6577423402957, 0.0, 0.0, 0.0, 0.0, -836.156408328582, 0.0]
['beep', 0.0, 1296.4011784078095, 0.0, 0.0, 0.0, 0.0, -841.7890479313193, 0.0]
['beep', 0.0, 1297.4740621416643, 0.0, 0.0, 0.0, 0.0, -845.991175888917, 0.0]
['beep', 0.0, 1299.2845534425442, 0.0, 0.0, 0.0, 0.0, -852.2049608474924, 0.0]
['beep', 0.0, 1298.390483664332, 0.0, 0.0, 0.0, 0.0, -858.7093184839867, 0.0]
['beep', 0.0, 1297.5634691194855, 0.0, 0.0, 0.0, 0.0, -863.894923197618, 0.0]
['beep', 0.0, 1296.5352888745415, 0.0, 0.0, 0.0, 0.0, -868.6558447665984, 0.0]
['beep', 0.0, 1296.2447161966224, 0.0, 0.0, 0.0, 0.0, -871.7403855014308, 0.0]
['beep', 0.0, 1296.6023441079074, 0.0, 0.0, 0.0, 0.0, -875.4507750810117, 0.0]
['beep', 0.0, 1299.7092365871952, 0.0, 0.0, 0.0, 0.0, -878.1553361601038, 0.0]
['beep', 0.0, 1302.5702598774744, 0.0, 0.0, 0.0, 0.0, -881.6422082951318, 0.0]
['beep', 0.0, 1304.9171930452817, 0.0, 0.0, 0.0, 0.0, -885.6208188081764, 0.0]
['beep', 0.0, 1304.9842482786476, 0.0, 0.0, 0.0, 0.0, -888.2136211649921, 0.0]
['beep', 0.0, 1304.358399433899, 0.0, 0.0, 0.0, 0.0, -888.6383043096429, 0.0]
['beep', 0.0, 1306.3030012015106, 0.0, 0.0, 0.0, 0.0, -891.2758101553691, 0.0]
['beep', 0.0, 1304.6266203673626, 0.0, 0.0, 0.0, 0.0, -893.8686125121848, 0.0]
['beep', 0.0, 1301.6761900992622, 0.0, 0.0, 0.0, 0.0, -895.2320689239584, 0.0]
['beep', 0.0, 1301.4750243991643, 0.0, 0.0, 0.0, 0.0, -897.4672433694892, 0.0]
['beep', 0.0, 1301.3409139324324, 0.0, 0.0, 0.0, 0.0, -898.4060166366121, 0.0]
['beep', 0.0, 1301.6538383548068, 0.0, 0.0, 0.0, 0.0, -901.7364265604529, 0.0]
['beep', 0.0, 1301.2068034657007, 0.0, 0.0, 0.0, 0.0, -904.9327260175618, 0.0]
['beep', 0.0, 1301.743245332628, 0.0, 0.0, 0.0, 0.0, -904.955077762017, 0.0]
['beep', 0.0, 1301.452672654709, 0.0, 0.0, 0.0, 0.0, -905.3127056733019, 0.0]
['beep', 0.0, 1299.7092365871952, 0.0, 0.0, 0.0, 0.0, -905.7150370734975, 0.0]
['beep', 0.0, 1300.2233267096672, 0.0, 0.0, 0.0, 0.0, -905.9832580069611, 0.0]
['beep', 0.0, 1300.5586028764967, 0.0, 0.0, 0.0, 0.0, -908.2631359414025, 0.0]
['beep', 0.0, 1300.4021406653096, 0.0, 0.0, 0.0, 0.0, -912.08528424326, 0.0]
['beep', 0.0, 1300.2456784541225, 0.0, 0.0, 0.0, 0.0, -912.2864499433578, 0.0]
['beep', 0.0, 1301.0279895100582, 0.0, 0.0, 0.0, 0.0, -912.5099673879108, 0.0]
['beep', 0.0, 1301.87735579936, 0.0, 0.0, 0.0, 0.0, -912.3535051767237, 0.0]
['beep', 0.0, 1303.9560680337033, 0.0, 0.0, 0.0, 0.0, -913.2252232104806, 0.0]
['beep', 0.0, 1302.5702598774744, 0.0, 0.0, 0.0, 0.0, -913.2699266993912, 0.0]
['beep', 0.0, 1301.2068034657007, 0.0, 0.0, 0.0, 0.0, -912.2193947099919, 0.0]
['beep', 0.0, 1302.2349837106449, 0.0, 0.0, 0.0, 0.0, -915.214528467003, 0.0]
['beep', 0.0, 1303.5760883779633, 0.0, 0.0, 0.0, 0.0, -917.0920750012488, 0.0]
['beep', 0.0, 1302.9725912776698, 0.0, 0.0, 0.0, 0.0, -916.9132610456063, 0.0]
['beep', 0.0, 1303.6654953557845, 0.0, 0.0, 0.0, 0.0, -917.4944064014443, 0.0]
['beep', 0.0, 1304.4254546672648, 0.0, 0.0, 0.0, 0.0, -916.3768191786789, 0.0]
['beep', 0.0, 1301.9667627771812, 0.0, 0.0, 0.0, 0.0, -915.2815837003689, 0.0]
['beep', 0.0, 1303.5760883779633, 0.0, 0.0, 0.0, 0.0, -914.5216243888884, 0.0]
['beep', 0.0, 1302.7490738331169, 0.0, 0.0, 0.0, 0.0, -917.6955721015421, 0.0]
['beep', 0.0, 1303.7996058225162, 0.0, 0.0, 0.0, 0.0, -918.9696215354945, 0.0]
['beep', 0.0, 1304.4254546672648, 0.0, 0.0, 0.0, 0.0, -920.08720875826, 0.0]
['beep', 0.0, 1304.581916878452, 0.0, 0.0, 0.0, 0.0, -920.2883744583577, 0.0]
['beep', 0.0, 1304.514861645086, 0.0, 0.0, 0.0, 0.0, -919.9083948026175, 0.0]
['beep', 0.0, 1304.7830825785497, 0.0, 0.0, 0.0, 0.0, -920.7130576030086, 0.0]
['beep', 0.0, 1305.744207590128, 0.0, 0.0, 0.0, 0.0, -921.405961681123, 0.0]
['beep', 0.0, 1305.4312831677537, 0.0, 0.0, 0.0, 0.0, -920.9142233031063, 0.0]
['beep', 0.0, 1305.0513035120134, 0.0, 0.0, 0.0, 0.0, -923.2611564709135, 0.0]
['beep', 0.0, 1305.6100971233961, 0.0, 0.0, 0.0, 0.0, -921.987107036961, 0.0]
['beep', 0.0, 1306.2806494570555, 0.0, 0.0, 0.0, 0.0, -922.27767971488, 0.0]
['beep', 0.0, 1305.811262823494, 0.0, 0.0, 0.0, 0.0, -922.7470663484414, 0.0]
['beep', 0.0, 1305.967725034681, 0.0, 0.0, 0.0, 0.0, -922.3223832037907, 0.0]
['beep', 0.0, 1306.3700564348767, 0.0, 0.0, 0.0, 0.0, -922.4117901816119, 0.0]
['beep', 0.0, 1302.614963366385, 0.0, 0.0, 0.0, 0.0, -923.1941012375476, 0.0]
['beep', 0.0, 1300.9609342766923, 0.0, 0.0, 0.0, 0.0, -923.6411361266538, 0.0]
['beep', 0.0, 1302.7490738331169, 0.0, 0.0, 0.0, 0.0, -923.8423018267515, 0.0]
['beep', 0.0, 1303.7772540780609, 0.0, 0.0, 0.0, 0.0, -925.6527931276314, 0.0]
['beep', 0.0, 1305.1854139787454, 0.0, 0.0, 0.0, 0.0, -925.2281099829805, 0.0]
['beep', 0.0, 1306.459463412698, 0.0, 0.0, 0.0, 0.0, -923.2388047264582, 0.0]
['beep', 0.0, 1306.5935738794296, 0.0, 0.0, 0.0, 0.0, -925.0492960273381, 0.0]
['beep', 0.0, 1305.7889110790386, 0.0, 0.0, 0.0, 0.0, -925.8986623166397, 0.0]
['beep', 0.0, 1305.677152356762, 0.0, 0.0, 0.0, 0.0, -926.0998280167375, 0.0]
['beep', 0.0, 1306.3477046904213, 0.0, 0.0, 0.0, 0.0, -924.4905024159555, 0.0]
['beep', 0.0, 1306.2806494570555, 0.0, 0.0, 0.0, 0.0, -925.2281099829805, 0.0]
['beep', 0.0, 1305.386579678843, 0.0, 0.0, 0.0, 0.0, -926.5245111613883, 0.0]
['beep', 0.0, 1305.2524692121112, 0.0, 0.0, 0.0, 0.0, -925.4963309164442, 0.0]
['beep', 0.0, 1305.16306223429, 0.0, 0.0, 0.0, 0.0, -925.988069294461, 0.0]
['beep', 0.0, 1305.2971727010217, 0.0, 0.0, 0.0, 0.0, -926.6139181392095, 0.0]
['beep', 0.0, 1304.7607308340944, 0.0, 0.0, 0.0, 0.0, -925.5633861498102, 0.0]
['beep', 0.0, 1305.2971727010217, 0.0, 0.0, 0.0, 0.0, -924.9598890495168, 0.0]
['beep', 0.0, 1304.0231232670694, 0.0, 0.0, 0.0, 0.0, -927.3515257062347, 0.0]
['beep', 0.0, 1302.9502395332147, 0.0, 0.0, 0.0, 0.0, -927.5526914063325, 0.0]
['beep', 0.0, 1303.6878471002397, 0.0, 0.0, 0.0, 0.0, -925.988069294461, 0.0]
['beep', 0.0, 1303.9113645447928, 0.0, 0.0, 0.0, 0.0, -926.0998280167375, 0.0]
['beep', 0.0, 1304.224288967167, 0.0, 0.0, 0.0, 0.0, -927.37387745069, 0.0]
['beep', 0.0, 1305.5877453789408, 0.0, 0.0, 0.0, 0.0, -928.2679472289024, 0.0]
['beep', 0.0, 1304.514861645086, 0.0, 0.0, 0.0, 0.0, -927.0162495394051, 0.0]
['beep', 0.0, 1304.8501378119156, 0.0, 0.0, 0.0, 0.0, -928.1561885066258, 0.0]
['beep', 0.0, 1304.9171930452817, 0.0, 0.0, 0.0, 0.0, -929.050258284838, 0.0]
['beep', 0.0, 1304.5372133895414, 0.0, 0.0, 0.0, 0.0, -927.5750431507878, 0.0]
['beep', 0.0, 1305.5653936344854, 0.0, 0.0, 0.0, 0.0, -928.0667815288045, 0.0]
['beep', 0.0, 1307.0406087685358, 0.0, 0.0, 0.0, 0.0, -929.4302379405783, 0.0]
['beep', 0.0, 1305.811262823494, 0.0, 0.0, 0.0, 0.0, -929.4302379405783, 0.0]
['beep', 0.0, 1304.0231232670694, 0.0, 0.0, 0.0, 0.0, -927.2397669839581, 0.0]
['beep', 0.0, 1303.6431436113292, 0.0, 0.0, 0.0, 0.0, -927.3068222173241, 0.0]
['beep', 0.0, 1303.2631639555889, 0.0, 0.0, 0.0, 0.0, -929.8549210852291, 0.0]
['beep', 0.0, 1302.9278877887593, 0.0, 0.0, 0.0, 0.0, -929.6537553851314, 0.0]
['beep', 0.0, 1302.391445921832, 0.0, 0.0, 0.0, 0.0, -929.631403640676, 0.0]
['beep', 0.0, 1301.8326523104492, 0.0, 0.0, 0.0, 0.0, -930.6819356300755, 0.0]
['beep', 0.0, 1300.1562714763013, 0.0, 0.0, 0.0, 0.0, -930.7042873745307, 0.0]
['beep', 0.0, 1301.9444110327258, 0.0, 0.0, 0.0, 0.0, -930.9054530746286, 0.0]
['beep', 0.0, 1302.8608325553935, 0.0, 0.0, 0.0, 0.0, -931.6430606416537, 0.0]
['beep', 0.0, 1302.9502395332147, 0.0, 0.0, 0.0, 0.0, -929.8996245741397, 0.0]
['beep', 0.0, 1302.3020389440107, 0.0, 0.0, 0.0, 0.0, -929.3855344516677, 0.0]
['beep', 0.0, 1302.7490738331169, 0.0, 0.0, 0.0, 0.0, -928.9608513070168, 0.0]
['beep', 0.0, 1301.7208935881727, 0.0, 0.0, 0.0, 0.0, -930.3243077187906, 0.0]
['beep', 0.0, 1302.1455767328237, 0.0, 0.0, 0.0, 0.0, -929.9443280630503, 0.0]
['beep', 0.0, 1302.5702598774744, 0.0, 0.0, 0.0, 0.0, -928.9832030514722, 0.0]
['beep', 0.0, 1301.743245332628, 0.0, 0.0, 0.0, 0.0, -927.083304772771, 0.0]
['beep', 0.0, 1301.8550040549046, 0.0, 0.0, 0.0, 0.0, -928.5138164179107, 0.0]
['beep', 0.0, 1301.2068034657007, 0.0, 0.0, 0.0, 0.0, -929.0726100292934, 0.0]
['beep', 0.0, 1301.0503412545136, 0.0, 0.0, 0.0, 0.0, -929.3408309627571, 0.0]
['beep', 0.0, 1301.7879488215387, 0.0, 0.0, 0.0, 0.0, -927.5526914063325, 0.0]
['beep', 0.0, 1301.3632656768877, 0.0, 0.0, 0.0, 0.0, -928.6255751401873, 0.0]
['beep', 0.0, 1302.2796871995554, 0.0, 0.0, 0.0, 0.0, -930.7042873745307, 0.0]
['beep', 0.0, 1302.7937773220274, 0.0, 0.0, 0.0, 0.0, -931.084267030271, 0.0]
['beep', 0.0, 1302.5032046441086, 0.0, 0.0, 0.0, 0.0, -929.8549210852291, 0.0]
['beep', 0.0, 1303.8219575669716, 0.0, 0.0, 0.0, 0.0, -927.2844704728687, 0.0]
['beep', 0.0, 1302.6373151108403, 0.0, 0.0, 0.0, 0.0, -929.9890315519609, 0.0]
['beep', 0.0, 1301.452672654709, 0.0, 0.0, 0.0, 0.0, -931.4195431971006, 0.0]
['beep', 0.0, 1302.9502395332147, 0.0, 0.0, 0.0, 0.0, -931.6430606416537, 0.0]
['beep', 0.0, 1303.2855157000442, 0.0, 0.0, 0.0, 0.0, -931.5983571527431, 0.0]
['beep', 0.0, 1303.35257093341, 0.0, 0.0, 0.0, 0.0, -930.212548996514, 0.0]
['beep', 0.0, 1304.9171930452817, 0.0, 0.0, 0.0, 0.0, -930.7042873745307, 0.0]
['beep', 0.0, 1304.9395447897368, 0.0, 0.0, 0.0, 0.0, -932.6935926310531, 0.0]
['beep', 0.0, 1304.291344200533, 0.0, 0.0, 0.0, 0.0, -930.7489908634413, 0.0]
['beep', 0.0, 1304.6266203673626, 0.0, 0.0, 0.0, 0.0, -930.8160460968073, 0.0]
['beep', 0.0, 1304.3807511783543, 0.0, 0.0, 0.0, 0.0, -931.8442263417514, 0.0]
['beep', 0.0, 1304.1348819893458, 0.0, 0.0, 0.0, 0.0, -931.2183774970028, 0.0]
['beep', 0.0, 1303.866661055882, 0.0, 0.0, 0.0, 0.0, -931.888929830662, 0.0]
['beep', 0.0, 1304.358399433899, 0.0, 0.0, 0.0, 0.0, -931.4418949415559, 0.0]
['beep', 0.0, 1305.1407104898346, 0.0, 0.0, 0.0, 0.0, -931.2183774970028, 0.0]
['beep', 0.0, 1305.3642279343878, 0.0, 0.0, 0.0, 0.0, -930.8160460968073, 0.0]
['beep', 0.0, 1305.5877453789408, 0.0, 0.0, 0.0, 0.0, -931.5313019193771, 0.0]
['beep', 0.0, 1305.028951767558, 0.0, 0.0, 0.0, 0.0, -931.8442263417514, 0.0]
['beep', 0.0, 1305.6995041012174, 0.0, 0.0, 0.0, 0.0, -931.084267030271, 0.0]
['beep', 0.0, 1304.224288967167, 0.0, 0.0, 0.0, 0.0, -934.2805664873799, 0.0]
['beep', 0.0, 1303.7772540780609, 0.0, 0.0, 0.0, 0.0, -934.437028698567, 0.0]
['beep', 0.0, 1305.386579678843, 0.0, 0.0, 0.0, 0.0, -933.6547176426313, 0.0]
['beep', 0.0, 1304.872489556371, 0.0, 0.0, 0.0, 0.0, -932.3583164642235, 0.0]
['beep', 0.0, 1303.9784197781587, 0.0, 0.0, 0.0, 0.0, -932.9394618200615, 0.0]
['beep', 0.0, 1303.9784197781587, 0.0, 0.0, 0.0, 0.0, -932.9841653089721, 0.0]
['beep', 0.0, 1304.6266203673626, 0.0, 0.0, 0.0, 0.0, -931.3748397081899, 0.0]
['beep', 0.0, 1304.2019372227119, 0.0, 0.0, 0.0, 0.0, -931.3748397081899, 0.0]
['beep', 0.0, 1305.1183587453793, 0.0, 0.0, 0.0, 0.0, -932.1347990196705, 0.0]
['beep', 0.0, 1305.4312831677537, 0.0, 0.0, 0.0, 0.0, -932.6488891421425, 0.0]
['beep', 0.0, 1304.7830825785497, 0.0, 0.0, 0.0, 0.0, -934.3476217207458, 0.0]
['beep', 0.0, 1304.4701581561756, 0.0, 0.0, 0.0, 0.0, -933.6100141537207, 0.0]
['beep', 0.0, 1306.1241872458681, 0.0, 0.0, 0.0, 0.0, -932.5594821643213, 0.0]
['beep', 0.0, 1305.6324488678515, 0.0, 0.0, 0.0, 0.0, -931.9783368084833, 0.0]
['beep', 0.0, 1306.2135942236894, 0.0, 0.0, 0.0, 0.0, -932.0453920418493, 0.0]
['beep', 0.0, 1306.772387835072, 0.0, 0.0, 0.0, 0.0, -933.2970897313464, 0.0]
['beep', 0.0, 1305.8783180568598, 0.0, 0.0, 0.0, 0.0, -932.7829996088743, 0.0]
['beep', 0.0, 1304.7383790896392, 0.0, 0.0, 0.0, 0.0, -934.4593804430224, 0.0]
['beep', 0.0, 1303.8890128003375, 0.0, 0.0, 0.0, 0.0, -935.4428571990559, 0.0]
['beep', 0.0, 1302.614963366385, 0.0, 0.0, 0.0, 0.0, -934.3476217207458, 0.0]
['beep', 0.0, 1303.1290534888572, 0.0, 0.0, 0.0, 0.0, -933.4535519425335, 0.0]
['beep', 0.0, 1304.6936756007285, 0.0, 0.0, 0.0, 0.0, -933.4982554314441, 0.0]
['beep', 0.0, 1304.7383790896392, 0.0, 0.0, 0.0, 0.0, -934.2358629984693, 0.0]
['beep', 0.0, 1304.9618965341922, 0.0, 0.0, 0.0, 0.0, -934.8393600987625, 0.0]
['beep', 0.0, 1305.1407104898346, 0.0, 0.0, 0.0, 0.0, -933.9452903205503, 0.0]
['beep', 0.0, 1304.6042686229073, 0.0, 0.0, 0.0, 0.0, -933.1406275201592, 0.0]
['beep', 0.0, 1304.2019372227119, 0.0, 0.0, 0.0, 0.0, -933.9676420650056, 0.0]
['beep', 0.0, 1304.2019372227119, 0.0, 0.0, 0.0, 0.0, -934.6828978875755, 0.0]
['beep', 0.0, 1303.4643296556867, 0.0, 0.0, 0.0, 0.0, -934.5487874208436, 0.0]
['beep', 0.0, 1303.2408122111335, 0.0, 0.0, 0.0, 0.0, -934.3029182318352, 0.0]
['beep', 0.0, 1302.7714255775722, 0.0, 0.0, 0.0, 0.0, -933.341793220257, 0.0]
['beep', 0.0, 1303.35257093341, 0.0, 0.0, 0.0, 0.0, -933.6100141537207, 0.0]
['beep', 0.0, 1302.8831842998486, 0.0, 0.0, 0.0, 0.0, -934.1241042761927, 0.0]
['beep', 0.0, 1303.3078674444996, 0.0, 0.0, 0.0, 0.0, -933.0065170534274, 0.0]
['beep', 0.0, 1304.514861645086, 0.0, 0.0, 0.0, 0.0, -932.8947583311509, 0.0]
['beep', 0.0, 1304.4031029228095, 0.0, 0.0, 0.0, 0.0, -934.8170083543073, 0.0]
['beep', 0.0, 1303.866661055882, 0.0, 0.0, 0.0, 0.0, -934.3476217207458, 0.0]
['beep', 0.0, 1303.5313848890526, 0.0, 0.0, 0.0, 0.0, -934.4817321874776, 0.0]
['beep', 0.0, 1305.319524445477, 0.0, 0.0, 0.0, 0.0, -935.6887263880643, 0.0]
['beep', 0.0, 1304.805434323005, 0.0, 0.0, 0.0, 0.0, -935.5769676657877, 0.0]
['beep', 0.0, 1305.4089314232983, 0.0, 0.0, 0.0, 0.0, -934.9958223099497, 0.0]
['beep', 0.0, 1305.6548006123069, 0.0, 0.0, 0.0, 0.0, -932.9618135645168, 0.0]
['beep', 0.0, 1303.7549023336057, 0.0, 0.0, 0.0, 0.0, -932.7829996088743, 0.0]
['beep', 0.0, 1301.8550040549046, 0.0, 0.0, 0.0, 0.0, -933.7664763649078, 0.0]
['beep', 0.0, 1303.1290534888572, 0.0, 0.0, 0.0, 0.0, -931.7771711083856, 0.0]
['beep', 0.0, 1305.3418761899325, 0.0, 0.0, 0.0, 0.0, -930.6595838856201, 0.0]
['beep', 0.0, 1305.9453732902257, 0.0, 0.0, 0.0, 0.0, -932.2018542530363, 0.0]
['beep', 0.0, 1302.905536044304, 0.0, 0.0, 0.0, 0.0, -931.1066187747263, 0.0]
['beep', 0.0, 1305.0513035120134, 0.0, 0.0, 0.0, 0.0, -932.4700751865, 0.0]
['beep', 0.0, 1305.4089314232983, 0.0, 0.0, 0.0, 0.0, -931.6207088971984, 0.0]
['beep', 0.0, 1305.2301174676559, 0.0, 0.0, 0.0, 0.0, -931.1736740080922, 0.0]
['beep', 0.0, 1305.8336145679493, 0.0, 0.0, 0.0, 0.0, -930.5925286522543, 0.0]
['beep', 0.0, 1305.9900767791364, 0.0, 0.0, 0.0, 0.0, -931.084267030271, 0.0]
['beep', 0.0, 1305.9900767791364, 0.0, 0.0, 0.0, 0.0, -932.7382961199637, 0.0]
['beep', 0.0, 1306.4371116682426, 0.0, 0.0, 0.0, 0.0, -933.4759036869889, 0.0]
['beep', 0.0, 1305.4759866566642, 0.0, 0.0, 0.0, 0.0, -931.8665780862068, 0.0]
['beep', 0.0, 1305.2748209565666, 0.0, 0.0, 0.0, 0.0, -930.8831013301732, 0.0]
['beep', 0.0, 1305.4983384011196, 0.0, 0.0, 0.0, 0.0, -931.665412386109, 0.0]
['beep', 0.0, 1304.581916878452, 0.0, 0.0, 0.0, 0.0, -932.7159443755085, 0.0]
['beep', 0.0, 1304.1795854782565, 0.0, 0.0, 0.0, 0.0, -931.6430606416537, 0.0]
['beep', 0.0, 1303.866661055882, 0.0, 0.0, 0.0, 0.0, -931.5536536638325, 0.0]
['beep', 0.0, 1305.8559663124045, 0.0, 0.0, 0.0, 0.0, -933.118275775704, 0.0]
['beep', 0.0, 1304.8277860674605, 0.0, 0.0, 0.0, 0.0, -931.3301362192793, 0.0]
['beep', 0.0, 1303.710198844695, 0.0, 0.0, 0.0, 0.0, -932.3136129753129, 0.0]
['beep', 0.0, 1304.581916878452, 0.0, 0.0, 0.0, 0.0, -932.7606478644191, 0.0]
['beep', 0.0, 1304.2019372227119, 0.0, 0.0, 0.0, 0.0, -932.537130419866, 0.0]
['beep', 0.0, 1304.5372133895414, 0.0, 0.0, 0.0, 0.0, -932.8724065866955, 0.0]
['beep', 0.0, 1303.7325505891504, 0.0, 0.0, 0.0, 0.0, -931.4865984304665, 0.0]
['beep', 0.0, 1304.648972111818, 0.0, 0.0, 0.0, 0.0, -931.9336333195727, 0.0]
['beep', 0.0, 1303.9784197781587, 0.0, 0.0, 0.0, 0.0, -933.118275775704, 0.0]
['beep', 0.0, 1303.866661055882, 0.0, 0.0, 0.0, 0.0, -931.5313019193771, 0.0]
['beep', 0.0, 1304.3360476894436, 0.0, 0.0, 0.0, 0.0, -932.4924269309554, 0.0]
['beep', 0.0, 1304.358399433899, 0.0, 0.0, 0.0, 0.0, -932.0006885529386, 0.0]
['beep', 0.0, 1303.9113645447928, 0.0, 0.0, 0.0, 0.0, -932.8947583311509, 0.0]
['beep', 0.0, 1304.291344200533, 0.0, 0.0, 0.0, 0.0, -934.3252699762905, 0.0]
['beep', 0.0, 1306.7500360906167, 0.0, 0.0, 0.0, 0.0, -931.5536536638325, 0.0]
['beep', 0.0, 1307.7335128466502, 0.0, 0.0, 0.0, 0.0, -930.6372321411649, 0.0]
['beep', 0.0, 1307.9793820356588, 0.0, 0.0, 0.0, 0.0, -931.5313019193771, 0.0]
['beep', 0.0, 1308.2028994802117, 0.0, 0.0, 0.0, 0.0, -930.0337350408715, 0.0]
['beep', 0.0, 1308.1581959913012, 0.0, 0.0, 0.0, 0.0, -930.0337350408715, 0.0]
['beep', 0.0, 1306.7500360906167, 0.0, 0.0, 0.0, 0.0, -930.1901972520587, 0.0]
['beep', 0.0, 1304.8501378119156, 0.0, 0.0, 0.0, 0.0, -931.1066187747263, 0.0]
['beep', 0.0, 1304.6936756007285, 0.0, 0.0, 0.0, 0.0, -930.5701769077989, 0.0]
['beep', 0.0, 1304.1795854782565, 0.0, 0.0, 0.0, 0.0, -930.503121674433, 0.0]
['beep', 0.0, 1305.0960070009241, 0.0, 0.0, 0.0, 0.0, -931.6430606416537, 0.0]
['beep', 0.0, 1305.7889110790386, 0.0, 0.0, 0.0, 0.0, -931.7548193639302, 0.0]
['beep', 0.0, 1306.5041669016084, 0.0, 0.0, 0.0, 0.0, -931.3077844748241, 0.0]
['beep', 0.0, 1305.9230215457706, 0.0, 0.0, 0.0, 0.0, -930.7042873745307, 0.0]
['beep', 0.0, 1306.5488703905191, 0.0, 0.0, 0.0, 0.0, -930.3243077187906, 0.0]
['beep', 0.0, 1306.7500360906167, 0.0, 0.0, 0.0, 0.0, -930.8160460968073, 0.0]
['beep', 0.0, 1306.3700564348767, 0.0, 0.0, 0.0, 0.0, -930.6372321411649, 0.0]
['beep', 0.0, 1307.1747192352677, 0.0, 0.0, 0.0, 0.0, -931.5536536638325, 0.0]
['beep', 0.0, 1306.5935738794296, 0.0, 0.0, 0.0, 0.0, -931.1513222636369, 0.0]
['beep', 0.0, 1307.286477957544, 0.0, 0.0, 0.0, 0.0, -930.6595838856201, 0.0]
['beep', 0.0, 1306.9512017907145, 0.0, 0.0, 0.0, 0.0, -930.8160460968073, 0.0]
['beep', 0.0, 1307.3758849353653, 0.0, 0.0, 0.0, 0.0, -930.3019559743352, 0.0]
['beep', 0.0, 1307.7558645911056, 0.0, 0.0, 0.0, 0.0, -929.8549210852291, 0.0]
['beep', 0.0, 1306.7053326017062, 0.0, 0.0, 0.0, 0.0, -929.2067204960252, 0.0]
['beep', 0.0, 1306.2135942236894, 0.0, 0.0, 0.0, 0.0, -928.9384995625616, 0.0]
['beep', 0.0, 1306.2806494570555, 0.0, 0.0, 0.0, 0.0, -929.8549210852291, 0.0]
['beep', 0.0, 1306.5041669016084, 0.0, 0.0, 0.0, 0.0, -929.4749414294889, 0.0]
['beep', 0.0, 1307.1970709797229, 0.0, 0.0, 0.0, 0.0, -927.4185809396006, 0.0]
['beep', 0.0, 1306.8617948128933, 0.0, 0.0, 0.0, 0.0, -927.2844704728687, 0.0]
['beep', 0.0, 1306.3924081793318, 0.0, 0.0, 0.0, 0.0, -930.3243077187906, 0.0]
['beep', 0.0, 1307.0406087685358, 0.0, 0.0, 0.0, 0.0, -929.8549210852291, 0.0]
['beep', 0.0, 1307.4652919131865, 0.0, 0.0, 0.0, 0.0, -931.1513222636369, 0.0]
['beep', 0.0, 1307.3088297019995, 0.0, 0.0, 0.0, 0.0, -931.084267030271, 0.0]
['beep', 0.0, 1307.9123268022927, 0.0, 0.0, 0.0, 0.0, -930.1454937631481, 0.0]
['beep', 0.0, 1307.1523674908124, 0.0, 0.0, 0.0, 0.0, -930.1901972520587, 0.0]
['beep', 0.0, 1305.8783180568598, 0.0, 0.0, 0.0, 0.0, -929.0726100292934, 0.0]
['beep', 0.0, 1304.1795854782565, 0.0, 0.0, 0.0, 0.0, -928.8490925847403, 0.0]
['beep', 0.0, 1305.8336145679493, 0.0, 0.0, 0.0, 0.0, -930.0784385297821, 0.0]
['beep', 0.0, 1306.9959052796253, 0.0, 0.0, 0.0, 0.0, -928.1338367621705, 0.0]
['beep', 0.0, 1307.9123268022927, 0.0, 0.0, 0.0, 0.0, -928.4691129290001, 0.0]
['beep', 0.0, 1308.7616930915945, 0.0, 0.0, 0.0, 0.0, -930.3019559743352, 0.0]
['beep', 0.0, 1308.44876866922, 0.0, 0.0, 0.0, 0.0, -930.4137146966118, 0.0]
['beep', 0.0, 1308.9852105361474, 0.0, 0.0, 0.0, 0.0, -928.6702786290979, 0.0]
['beep', 0.0, 1308.5381756470413, 0.0, 0.0, 0.0, 0.0, -928.7149821180085, 0.0]
['beep', 0.0, 1307.5994023799185, 0.0, 0.0, 0.0, 0.0, -929.117313518204, 0.0]
['beep', 0.0, 1307.711161102195, 0.0, 0.0, 0.0, 0.0, -930.9948600524498, 0.0]
['beep', 0.0, 1308.3817134358542, 0.0, 0.0, 0.0, 0.0, -929.9666798075057, 0.0]
['beep', 0.0, 1309.9239838032704, 0.0, 0.0, 0.0, 0.0, -927.9997262954387, 0.0]
['beep', 0.0, 1309.4322454252535, 0.0, 0.0, 0.0, 0.0, -928.826740840285, 0.0]
['beep', 0.0, 1308.1581959913012, 0.0, 0.0, 0.0, 0.0, -929.8772728296844, 0.0]
['beep', 0.0, 1308.6499343693179, 0.0, 0.0, 0.0, 0.0, -930.3690112077012, 0.0]
['beep', 0.0, 1310.0133907810916, 0.0, 0.0, 0.0, 0.0, -931.5313019193771, 0.0]
['beep', 0.0, 1308.7169896026837, 0.0, 0.0, 0.0, 0.0, -931.1513222636369, 0.0]
['beep', 0.0, 1309.387541936343, 0.0, 0.0, 0.0, 0.0, -929.8325693407738, 0.0]
['beep', 0.0, 1308.5605273914966, 0.0, 0.0, 0.0, 0.0, -928.5808716512767, 0.0]
['beep', 0.0, 1309.0299140250581, 0.0, 0.0, 0.0, 0.0, -929.9890315519609, 0.0]
['beep', 0.0, 1309.0522657695135, 0.0, 0.0, 0.0, 0.0, -928.8714443291956, 0.0]
['beep', 0.0, 1309.5887076364409, 0.0, 0.0, 0.0, 0.0, -928.4020576956342, 0.0]
['beep', 0.0, 1309.0075622806028, 0.0, 0.0, 0.0, 0.0, -928.536168162366, 0.0]
['beep', 0.0, 1308.8287483249603, 0.0, 0.0, 0.0, 0.0, -928.8043890958297, 0.0]
['beep', 0.0, 1308.1581959913012, 0.0, 0.0, 0.0, 0.0, -928.6479268846425, 0.0]
['beep', 0.0, 1308.806396580505, 0.0, 0.0, 0.0, 0.0, -926.3233454612906, 0.0]
['beep', 0.0, 1308.582879135952, 0.0, 0.0, 0.0, 0.0, -928.1338367621705, 0.0]
['beep', 0.0, 1307.8899750578375, 0.0, 0.0, 0.0, 0.0, -930.7489908634413, 0.0]
['beep', 0.0, 1306.772387835072, 0.0, 0.0, 0.0, 0.0, -929.5419966628548, 0.0]
['beep', 0.0, 1306.3700564348767, 0.0, 0.0, 0.0, 0.0, -929.3855344516677, 0.0]
['beep', 0.0, 1305.3642279343878, 0.0, 0.0, 0.0, 0.0, -929.3184792183017, 0.0]
['beep', 0.0, 1306.7947395795275, 0.0, 0.0, 0.0, 0.0, -928.1785402510811, 0.0]
['beep', 0.0, 1306.8170913239828, 0.0, 0.0, 0.0, 0.0, -928.9832030514722, 0.0]
['beep', 0.0, 1306.7500360906167, 0.0, 0.0, 0.0, 0.0, -930.2572524854246, 0.0]
['beep', 0.0, 1307.5323471465526, 0.0, 0.0, 0.0, 0.0, -928.2902989733576, 0.0]
['beep', 0.0, 1305.9006698013152, 0.0, 0.0, 0.0, 0.0, -928.3573542067236, 0.0]
['beep', 0.0, 1306.3030012015106, 0.0, 0.0, 0.0, 0.0, -929.7431623629526, 0.0]
['beep', 0.0, 1307.644105868829, 0.0, 0.0, 0.0, 0.0, -929.3184792183017, 0.0]
['beep', 0.0, 1307.3758849353653, 0.0, 0.0, 0.0, 0.0, -930.2349007409694, 0.0]
['beep', 0.0, 1307.2194227241782, 0.0, 0.0, 0.0, 0.0, -931.2630809859135, 0.0]
['beep', 0.0, 1308.292306458033, 0.0, 0.0, 0.0, 0.0, -930.0337350408715, 0.0]
['beep', 0.0, 1307.934678546748, 0.0, 0.0, 0.0, 0.0, -930.8831013301732, 0.0]
['beep', 0.0, 1307.1970709797229, 0.0, 0.0, 0.0, 0.0, -932.0453920418493, 0.0]
['beep', 0.0, 1309.2087279807006, 0.0, 0.0, 0.0, 0.0, -931.4418949415559, 0.0]
['beep', 0.0, 1310.1027977589129, 0.0, 0.0, 0.0, 0.0, -930.5478251633436, 0.0]
['beep', 0.0, 1310.683943114751, 0.0, 0.0, 0.0, 0.0, -930.3019559743352, 0.0]
['beep', 0.0, 1311.2203849816783, 0.0, 0.0, 0.0, 0.0, -930.0337350408715, 0.0]
['beep', 0.0, 1310.4157221812873, 0.0, 0.0, 0.0, 0.0, -929.6537553851314, 0.0]
['beep', 0.0, 1309.7898733365387, 0.0, 0.0, 0.0, 0.0, -931.955985064028, 0.0]
['beep', 0.0, 1309.9463355477258, 0.0, 0.0, 0.0, 0.0, -932.2689094864023, 0.0]
['beep', 0.0, 1309.3204867029772, 0.0, 0.0, 0.0, 0.0, -931.1960257525475, 0.0]
['beep', 0.0, 1309.901632058815, 0.0, 0.0, 0.0, 0.0, -930.5478251633436, 0.0]
['beep', 0.0, 1311.6674198707844, 0.0, 0.0, 0.0, 0.0, -931.3524879637347, 0.0]
['beep', 0.0, 1310.8627570703934, 0.0, 0.0, 0.0, 0.0, -932.7159443755085, 0.0]
['beep', 0.0, 1311.2874402150442, 0.0, 0.0, 0.0, 0.0, -932.9394618200615, 0.0]
['beep', 0.0, 1311.4662541706866, 0.0, 0.0, 0.0, 0.0, -933.3864967091677, 0.0]
['beep', 0.0, 1310.5274809035636, 0.0, 0.0, 0.0, 0.0, -932.9618135645168, 0.0]
['beep', 0.0, 1309.9239838032704, 0.0, 0.0, 0.0, 0.0, -932.8947583311509, 0.0]
['beep', 0.0, 1310.5051291591085, 0.0, 0.0, 0.0, 0.0, -933.0065170534274, 0.0]
['beep', 0.0, 1311.35449544841, 0.0, 0.0, 0.0, 0.0, -933.9452903205503, 0.0]
['beep', 0.0, 1312.8520623269155, 0.0, 0.0, 0.0, 0.0, -933.0959240312486, 0.0]
['beep', 0.0, 1314.841367583438, 0.0, 0.0, 0.0, 0.0, -933.341793220257, 0.0]
['beep', 0.0, 1313.7908355940385, 0.0, 0.0, 0.0, 0.0, -931.4642466860113, 0.0]
['beep', 0.0, 1312.002696037614, 0.0, 0.0, 0.0, 0.0, -932.4924269309554, 0.0]
['beep', 0.0, 1312.4944344156306, 0.0, 0.0, 0.0, 0.0, -933.8782350871844, 0.0]
['beep', 0.0, 1312.4720826711755, 0.0, 0.0, 0.0, 0.0, -933.7664763649078, 0.0]
['beep', 0.0, 1312.3826756933543, 0.0, 0.0, 0.0, 0.0, -933.0288687978828, 0.0]
['beep', 0.0, 1312.4720826711755, 0.0, 0.0, 0.0, 0.0, -932.1571507641257, 0.0]
['beep', 0.0, 1312.4273791822648, 0.0, 0.0, 0.0, 0.0, -932.0900955307599, 0.0]
['beep', 0.0, 1312.5391379045413, 0.0, 0.0, 0.0, 0.0, -932.8500548422403, 0.0]
['beep', 0.0, 1312.360323948899, 0.0, 0.0, 0.0, 0.0, -932.0006885529386, 0.0]
['beep', 0.0, 1312.9191175602816, 0.0, 0.0, 0.0, 0.0, -933.632365898176, 0.0]
['beep', 0.0, 1311.9132890597928, 0.0, 0.0, 0.0, 0.0, -934.2805664873799, 0.0]
['beep', 0.0, 1311.4439024262313, 0.0, 0.0, 0.0, 0.0, -932.0900955307599, 0.0]
['beep', 0.0, 1311.6227163818737, 0.0, 0.0, 0.0, 0.0, -932.8277030977849, 0.0]
['beep', 0.0, 1312.4720826711755, 0.0, 0.0, 0.0, 0.0, -934.7052496320307, 0.0]
['beep', 0.0, 1311.0192192815805, 0.0, 0.0, 0.0, 0.0, -932.0230402973939, 0.0]
['beep', 0.0, 1310.9521640482146, 0.0, 0.0, 0.0, 0.0, -932.7829996088743, 0.0]
['beep', 0.0, 1311.868585570882, 0.0, 0.0, 0.0, 0.0, -933.7888281093632, 0.0]
['beep', 0.0, 1311.1756814927676, 0.0, 0.0, 0.0, 0.0, -934.0123455539162, 0.0]
['beep', 0.0, 1311.130978003857, 0.0, 0.0, 0.0, 0.0, -933.341793220257, 0.0]
['beep', 0.0, 1312.2485652266223, 0.0, 0.0, 0.0, 0.0, -933.6547176426313, 0.0]
['beep', 0.0, 1312.6956001157284, 0.0, 0.0, 0.0, 0.0, -932.9394618200615, 0.0]
['beep', 0.0, 1312.002696037614, 0.0, 0.0, 0.0, 0.0, -933.6770693870866, 0.0]
['beep', 0.0, 1311.6227163818737, 0.0, 0.0, 0.0, 0.0, -934.1464560206481, 0.0]
['beep', 0.0, 1313.5449664050302, 0.0, 0.0, 0.0, 0.0, -933.699421131542, 0.0]
['beep', 0.0, 1312.8520623269155, 0.0, 0.0, 0.0, 0.0, -932.4924269309554, 0.0]
['beep', 0.0, 1312.293268715533, 0.0, 0.0, 0.0, 0.0, -931.7771711083856, 0.0]
['beep', 0.0, 1311.6674198707844, 0.0, 0.0, 0.0, 0.0, -932.8724065866955, 0.0]
['beep', 0.0, 1311.6227163818737, 0.0, 0.0, 0.0, 0.0, -933.3864967091677, 0.0]
['beep', 0.0, 1312.516786160086, 0.0, 0.0, 0.0, 0.0, -932.1124472752151, 0.0]
['beep', 0.0, 1311.9579925487033, 0.0, 0.0, 0.0, 0.0, -930.0784385297821, 0.0]
['beep', 0.0, 1312.3379722044435, 0.0, 0.0, 0.0, 0.0, -931.8218745972962, 0.0]
['beep', 0.0, 1311.7344751041503, 0.0, 0.0, 0.0, 0.0, -930.7042873745307, 0.0]
['beep', 0.0, 1311.0192192815805, 0.0, 0.0, 0.0, 0.0, -931.732467619475, 0.0]
['beep', 0.0, 1310.549832648019, 0.0, 0.0, 0.0, 0.0, -933.2300344979805, 0.0]
['beep', 0.0, 1310.3710186923765, 0.0, 0.0, 0.0, 0.0, -931.732467619475, 0.0]
['beep', 0.0, 1309.9463355477258, 0.0, 0.0, 0.0, 0.0, -931.955985064028, 0.0]
['beep', 0.0, 1308.8287483249603, 0.0, 0.0, 0.0, 0.0, -930.7713426078967, 0.0]
['beep', 0.0, 1308.8958035583262, 0.0, 0.0, 0.0, 0.0, -931.1960257525475, 0.0]
['beep', 0.0, 1310.0133907810916, 0.0, 0.0, 0.0, 0.0, -931.955985064028, 0.0]
['beep', 0.0, 1310.6615913702956, 0.0, 0.0, 0.0, 0.0, -930.5925286522543, 0.0]
['beep', 0.0, 1311.063922770491, 0.0, 0.0, 0.0, 0.0, -930.0337350408715, 0.0]
['beep', 0.0, 1310.7509983481168, 0.0, 0.0, 0.0, 0.0, -930.1678455076034, 0.0]
['beep', 0.0, 1310.8627570703934, 0.0, 0.0, 0.0, 0.0, -929.8325693407738, 0.0]
['beep', 0.0, 1310.5721843924744, 0.0, 0.0, 0.0, 0.0, -932.2689094864023, 0.0]
['beep', 0.0, 1310.0133907810916, 0.0, 0.0, 0.0, 0.0, -929.9443280630503, 0.0]
['beep', 0.0, 1310.3039634590107, 0.0, 0.0, 0.0, 0.0, -929.7431623629526, 0.0]
['beep', 0.0, 1310.326315203466, 0.0, 0.0, 0.0, 0.0, -931.2183774970028, 0.0]
['beep', 0.0, 1308.7840448360498, 0.0, 0.0, 0.0, 0.0, -930.1901972520587, 0.0]
['beep', 0.0, 1310.6168878813849, 0.0, 0.0, 0.0, 0.0, -929.2514239849359, 0.0]
['beep', 0.0, 1311.35449544841, 0.0, 0.0, 0.0, 0.0, -928.5585199068213, 0.0]
['beep', 0.0, 1309.9910390366363, 0.0, 0.0, 0.0, 0.0, -930.0784385297821, 0.0]
['beep', 0.0, 1310.1027977589129, 0.0, 0.0, 0.0, 0.0, -931.1960257525475, 0.0]
['beep', 0.0, 1309.7675215920833, 0.0, 0.0, 0.0, 0.0, -930.6595838856201, 0.0]
['beep', 0.0, 1308.940507047237, 0.0, 0.0, 0.0, 0.0, -930.3243077187906, 0.0]
['beep', 0.0, 1310.7286466036614, 0.0, 0.0, 0.0, 0.0, -931.4195431971006, 0.0]
['beep', 0.0, 1311.1086262594017, 0.0, 0.0, 0.0, 0.0, -931.5313019193771, 0.0]
['beep', 0.0, 1311.1756814927676, 0.0, 0.0, 0.0, 0.0, -931.2183774970028, 0.0]
['beep', 0.0, 1312.1368065043457, 0.0, 0.0, 0.0, 0.0, -929.3631827072123, 0.0]
['beep', 0.0, 1311.5556611485079, 0.0, 0.0, 0.0, 0.0, -928.245595484447, 0.0]
['beep', 0.0, 1310.706294859206, 0.0, 0.0, 0.0, 0.0, -931.1736740080922, 0.0]
['beep', 0.0, 1310.8851088148485, 0.0, 0.0, 0.0, 0.0, -930.4807699299777, 0.0]
['beep', 0.0, 1311.2427367261334, 0.0, 0.0, 0.0, 0.0, -930.1901972520587, 0.0]
['beep', 0.0, 1311.1533297483122, 0.0, 0.0, 0.0, 0.0, -931.4865984304665, 0.0]
['beep', 0.0, 1311.0862745149464, 0.0, 0.0, 0.0, 0.0, -929.6761071295866, 0.0]
['beep', 0.0, 1311.3991989373208, 0.0, 0.0, 0.0, 0.0, -929.1843687515699, 0.0]
['beep', 0.0, 1311.130978003857, 0.0, 0.0, 0.0, 0.0, -930.4137146966118, 0.0]
['beep', 0.0, 1311.9356408042481, 0.0, 0.0, 0.0, 0.0, -929.2514239849359, 0.0]
['beep', 0.0, 1310.6392396258402, 0.0, 0.0, 0.0, 0.0, -929.5196449183995, 0.0]
['beep', 0.0, 1312.002696037614, 0.0, 0.0, 0.0, 0.0, -929.1396652626593, 0.0]
['beep', 0.0, 1312.0697512709799, 0.0, 0.0, 0.0, 0.0, -929.3631827072123, 0.0]
['beep', 0.0, 1310.7733500925722, 0.0, 0.0, 0.0, 0.0, -930.8383978412626, 0.0]
['beep', 0.0, 1311.6674198707844, 0.0, 0.0, 0.0, 0.0, -931.7771711083856, 0.0]
['beep', 0.0, 1311.1756814927676, 0.0, 0.0, 0.0, 0.0, -929.9666798075057, 0.0]
['beep', 0.0, 1311.2203849816783, 0.0, 0.0, 0.0, 0.0, -928.7373338624637, 0.0]
['beep', 0.0, 1311.868585570882, 0.0, 0.0, 0.0, 0.0, -930.7266391189861, 0.0]
['beep', 0.0, 1313.0755797714687, 0.0, 0.0, 0.0, 0.0, -930.5701769077989, 0.0]
['beep', 0.0, 1312.5838413934518, 0.0, 0.0, 0.0, 0.0, -930.3243077187906, 0.0]
['beep', 0.0, 1312.673248371273, 0.0, 0.0, 0.0, 0.0, -929.7655141074079, 0.0]
['beep', 0.0, 1313.7908355940385, 0.0, 0.0, 0.0, 0.0, -928.2232437399917, 0.0]
['beep', 0.0, 1313.9249460607705, 0.0, 0.0, 0.0, 0.0, -927.5079879174219, 0.0]
['beep', 0.0, 1312.673248371273, 0.0, 0.0, 0.0, 0.0, -928.312650717813, 0.0]
['beep', 0.0, 1313.0755797714687, 0.0, 0.0, 0.0, 0.0, -927.3068222173241, 0.0]
['beep', 0.0, 1314.2378704831447, 0.0, 0.0, 0.0, 0.0, -928.3573542067236, 0.0]
['beep', 0.0, 1314.841367583438, 0.0, 0.0, 0.0, 0.0, -928.6702786290979, 0.0]
['beep', 0.0, 1313.969649549681, 0.0, 0.0, 0.0, 0.0, -930.1007902742375, 0.0]
['beep', 0.0, 1312.673248371273, 0.0, 0.0, 0.0, 0.0, -931.5536536638325, 0.0]
['beep', 0.0, 1311.868585570882, 0.0, 0.0, 0.0, 0.0, -930.793694352352, 0.0]
['beep', 0.0, 1311.6227163818737, 0.0, 0.0, 0.0, 0.0, -930.8831013301732, 0.0]
['beep', 0.0, 1311.868585570882, 0.0, 0.0, 0.0, 0.0, -930.6819356300755, 0.0]
['beep', 0.0, 1313.4779111716641, 0.0, 0.0, 0.0, 0.0, -930.212548996514, 0.0]
['beep', 0.0, 1313.2096902382004, 0.0, 0.0, 0.0, 0.0, -931.732467619475, 0.0]
['beep', 0.0, 1315.578975150463, 0.0, 0.0, 0.0, 0.0, -930.3913629521564, 0.0]
['beep', 0.0, 1317.0094867956027, 0.0, 0.0, 0.0, 0.0, -930.6148803967095, 0.0]
['beep', 0.0, 1318.5964606519296, 0.0, 0.0, 0.0, 0.0, -929.9219763185951, 0.0]
['beep', 0.0, 1319.9152135747927, 0.0, 0.0, 0.0, 0.0, -929.1843687515699, 0.0]
['beep', 0.0, 1320.3398967194435, 0.0, 0.0, 0.0, 0.0, -927.3962291951453, 0.0]
['beep', 0.0, 1319.4011234523207, 0.0, 0.0, 0.0, 0.0, -927.1503600061369, 0.0]
['beep', 0.0, 1318.0823705294574, 0.0, 0.0, 0.0, 0.0, -927.9997262954387, 0.0]
['beep', 0.0, 1317.0094867956027, 0.0, 0.0, 0.0, 0.0, -927.2397669839581, 0.0]
['beep', 0.0, 1316.383637950854, 0.0, 0.0, 0.0, 0.0, -925.9657175500057, 0.0]
['beep', 0.0, 1316.2718792285775, 0.0, 0.0, 0.0, 0.0, -928.4691129290001, 0.0]
['beep', 0.0, 1315.0872367724464, 0.0, 0.0, 0.0, 0.0, -930.3466594632458, 0.0]
['beep', 0.0, 1314.774312350072, 0.0, 0.0, 0.0, 0.0, -930.0337350408715, 0.0]
['beep', 0.0, 1315.4001611948206, 0.0, 0.0, 0.0, 0.0, -930.1678455076034, 0.0]
['beep', 0.0, 1314.8637193278933, 0.0, 0.0, 0.0, 0.0, -930.212548996514, 0.0]
['beep', 0.0, 1315.131940261357, 0.0, 0.0, 0.0, 0.0, -930.3466594632458, 0.0]
['beep', 0.0, 1317.2330042401559, 0.0, 0.0, 0.0, 0.0, -928.6255751401873, 0.0]
['beep', 0.0, 1316.0483617840246, 0.0, 0.0, 0.0, 0.0, -928.5808716512767, 0.0]
['beep', 0.0, 1316.227175739667, 0.0, 0.0, 0.0, 0.0, -931.1066187747263, 0.0]
['beep', 0.0, 1316.897728073326, 0.0, 0.0, 0.0, 0.0, -929.0279065403828, 0.0]
['beep', 0.0, 1315.8248443394714, 0.0, 0.0, 0.0, 0.0, -929.5196449183995, 0.0]
['beep', 0.0, 1315.578975150463, 0.0, 0.0, 0.0, 0.0, -929.3631827072123, 0.0]
['beep', 0.0, 1316.1601205063012, 0.0, 0.0, 0.0, 0.0, -928.6479268846425, 0.0]
['beep', 0.0, 1315.422512939276, 0.0, 0.0, 0.0, 0.0, -928.826740840285, 0.0]
['beep', 0.0, 1315.9813065506587, 0.0, 0.0, 0.0, 0.0, -928.7820373513744, 0.0]
['beep', 0.0, 1315.1989954947228, 0.0, 0.0, 0.0, 0.0, -927.6868018730644, 0.0]
['beep', 0.0, 1315.288402472544, 0.0, 0.0, 0.0, 0.0, -930.6372321411649, 0.0]
['beep', 0.0, 1313.6567251273068, 0.0, 0.0, 0.0, 0.0, -932.3806682086788, 0.0]
['beep', 0.0, 1315.4001611948206, 0.0, 0.0, 0.0, 0.0, -929.5867001517654, 0.0]
['beep', 0.0, 1315.7577891061055, 0.0, 0.0, 0.0, 0.0, -928.9608513070168, 0.0]
['beep', 0.0, 1316.0260100395692, 0.0, 0.0, 0.0, 0.0, -929.4749414294889, 0.0]
['beep', 0.0, 1316.2718792285775, 0.0, 0.0, 0.0, 0.0, -930.793694352352, 0.0]
['beep', 0.0, 1316.4283414397648, 0.0, 0.0, 0.0, 0.0, -930.6819356300755, 0.0]
['beep', 0.0, 1315.1542920058123, 0.0, 0.0, 0.0, 0.0, -930.5925286522543, 0.0]
['beep', 0.0, 1315.7354373616502, 0.0, 0.0, 0.0, 0.0, -930.8607495857179, 0.0]
['beep', 0.0, 1316.07071352848, 0.0, 0.0, 0.0, 0.0, -932.8947583311509, 0.0]
['beep', 0.0, 1316.1601205063012, 0.0, 0.0, 0.0, 0.0, -933.6100141537207, 0.0]
['beep', 0.0, 1316.7636176065944, 0.0, 0.0, 0.0, 0.0, -932.6488891421425, 0.0]
['beep', 0.0, 1315.869547828382, 0.0, 0.0, 0.0, 0.0, -933.3641449647123, 0.0]
['beep', 0.0, 1317.322411217977, 0.0, 0.0, 0.0, 0.0, -931.2183774970028, 0.0]
['beep', 0.0, 1315.6907338727397, 0.0, 0.0, 0.0, 0.0, -930.7042873745307, 0.0]
['beep', 0.0, 1315.6683821282843, 0.0, 0.0, 0.0, 0.0, -932.3806682086788, 0.0]
['beep', 0.0, 1314.2602222276, 0.0, 0.0, 0.0, 0.0, -934.0570490428269, 0.0]
['beep', 0.0, 1313.097931515924, 0.0, 0.0, 0.0, 0.0, -934.4817321874776, 0.0]
['beep', 0.0, 1314.4166844387871, 0.0, 0.0, 0.0, 0.0, -933.855883342729, 0.0]
['beep', 0.0, 1315.1095885169016, 0.0, 0.0, 0.0, 0.0, -932.6041856532319, 0.0]
['beep', 0.0, 1314.1931669942342, 0.0, 0.0, 0.0, 0.0, -932.4030199531342, 0.0]
['beep', 0.0, 1314.2378704831447, 0.0, 0.0, 0.0, 0.0, -932.2689094864023, 0.0]
['beep', 0.0, 1313.1873384937453, 0.0, 0.0, 0.0, 0.0, -931.2630809859135, 0.0]
['beep', 0.0, 1314.550794905519, 0.0, 0.0, 0.0, 0.0, -932.4924269309554, 0.0]
['beep', 0.0, 1315.869547828382, 0.0, 0.0, 0.0, 0.0, -934.7499531209413, 0.0]
['beep', 0.0, 1314.4390361832425, 0.0, 0.0, 0.0, 0.0, -934.1017525317375, 0.0]
['beep', 0.0, 1314.6625536277954, 0.0, 0.0, 0.0, 0.0, -933.699421131542, 0.0]
['beep', 0.0, 1316.6965623732285, 0.0, 0.0, 0.0, 0.0, -932.8724065866955, 0.0]
['beep', 0.0, 1317.2330042401559, 0.0, 0.0, 0.0, 0.0, -932.4477234420448, 0.0]
['beep', 0.0, 1316.8083210955049, 0.0, 0.0, 0.0, 0.0, -931.7771711083856, 0.0]
['beep', 0.0, 1316.8306728399602, 0.0, 0.0, 0.0, 0.0, -931.5313019193771, 0.0]
['beep', 0.0, 1317.680039129262, 0.0, 0.0, 0.0, 0.0, -933.3864967091677, 0.0]
['beep', 0.0, 1318.3729432073765, 0.0, 0.0, 0.0, 0.0, -935.1299327766816, 0.0]
['beep', 0.0, 1318.9540885632146, 0.0, 0.0, 0.0, 0.0, -934.5487874208436, 0.0]
['beep', 0.0, 1318.1270740183681, 0.0, 0.0, 0.0, 0.0, -935.666374643609, 0.0]
['beep', 0.0, 1319.9599170637032, 0.0, 0.0, 0.0, 0.0, -935.4428571990559, 0.0]
['beep', 0.0, 1319.6693443857844, 0.0, 0.0, 0.0, 0.0, -934.3699734652012, 0.0]
['beep', 0.0, 1320.2281379971669, 0.0, 0.0, 0.0, 0.0, -932.7829996088743, 0.0]
['beep', 0.0, 1321.1222077753791, 0.0, 0.0, 0.0, 0.0, -931.3077844748241, 0.0]
['beep', 0.0, 1318.2835362295552, 0.0, 0.0, 0.0, 0.0, -933.0735722867934, 0.0]
['beep', 0.0, 1317.5235769180747, 0.0, 0.0, 0.0, 0.0, -933.8335315982738, 0.0]
['beep', 0.0, 1317.4341699402535, 0.0, 0.0, 0.0, 0.0, -934.0794007872821, 0.0]
['beep', 0.0, 1317.54592866253, 0.0, 0.0, 0.0, 0.0, -933.9899938094609, 0.0]
['beep', 0.0, 1318.1270740183681, 0.0, 0.0, 0.0, 0.0, -933.0959240312486, 0.0]
['beep', 0.0, 1317.9259083182703, 0.0, 0.0, 0.0, 0.0, -933.118275775704, 0.0]
['beep', 0.0, 1317.031838540058, 0.0, 0.0, 0.0, 0.0, -932.0677437863045, 0.0]
['beep', 0.0, 1316.9871350511473, 0.0, 0.0, 0.0, 0.0, -934.504083931933, 0.0]
['beep', 0.0, 1316.7859693510497, 0.0, 0.0, 0.0, 0.0, -935.666374643609, 0.0]
['beep', 0.0, 1317.2777077290664, 0.0, 0.0, 0.0, 0.0, -933.1629792646146, 0.0]
['beep', 0.0, 1317.0541902845134, 0.0, 0.0, 0.0, 0.0, -931.5760054082878, 0.0]
['beep', 0.0, 1317.2777077290664, 0.0, 0.0, 0.0, 0.0, -932.8724065866955, 0.0]
['beep', 0.0, 1318.037667040547, 0.0, 0.0, 0.0, 0.0, -933.7441246204526, 0.0]
['beep', 0.0, 1317.0094867956027, 0.0, 0.0, 0.0, 0.0, -934.7946566098519, 0.0]
['beep', 0.0, 1316.3165827174882, 0.0, 0.0, 0.0, 0.0, -932.3136129753129, 0.0]
['beep', 0.0, 1317.54592866253, 0.0, 0.0, 0.0, 0.0, -932.8500548422403, 0.0]
['beep', 0.0, 1318.0153152960916, 0.0, 0.0, 0.0, 0.0, -933.6770693870866, 0.0]
['beep', 0.0, 1318.8199780964826, 0.0, 0.0, 0.0, 0.0, -933.2747379868911, 0.0]
['beep', 0.0, 1318.350591462921, 0.0, 0.0, 0.0, 0.0, -932.3136129753129, 0.0]
['beep', 0.0, 1318.1494257628235, 0.0, 0.0, 0.0, 0.0, -932.4924269309554, 0.0]
['beep', 0.0, 1317.4788734291642, 0.0, 0.0, 0.0, 0.0, -933.9676420650056, 0.0]
['beep', 0.0, 1318.6188123963848, 0.0, 0.0, 0.0, 0.0, -932.6712408865978, 0.0]
['beep', 0.0, 1318.5294054185636, 0.0, 0.0, 0.0, 0.0, -932.3136129753129, 0.0]
['beep', 0.0, 1318.5070536741084, 0.0, 0.0, 0.0, 0.0, -933.7888281093632, 0.0]
['beep', 0.0, 1318.0600187850023, 0.0, 0.0, 0.0, 0.0, -933.2300344979805, 0.0]
['beep', 0.0, 1318.4176466962872, 0.0, 0.0, 0.0, 0.0, -932.4253716975894, 0.0]
['beep', 0.0, 1318.9317368187592, 0.0, 0.0, 0.0, 0.0, -933.5653106648101, 0.0]
['beep', 0.0, 1319.7140478746949, 0.0, 0.0, 0.0, 0.0, -932.6488891421425, 0.0]
['beep', 0.0, 1319.1105507744016, 0.0, 0.0, 0.0, 0.0, -932.1347990196705, 0.0]
['beep', 0.0, 1318.1494257628235, 0.0, 0.0, 0.0, 0.0, -931.017211796905, 0.0]
['beep', 0.0, 1318.8199780964826, 0.0, 0.0, 0.0, 0.0, -932.2018542530363, 0.0]
['beep', 0.0, 1318.2388327406447, 0.0, 0.0, 0.0, 0.0, -934.0346972983715, 0.0]
['beep', 0.0, 1318.6188123963848, 0.0, 0.0, 0.0, 0.0, -934.7723048653967, 0.0]
['beep', 0.0, 1318.9093850743038, 0.0, 0.0, 0.0, 0.0, -934.9511188210391, 0.0]
['beep', 0.0, 1319.3787717078653, 0.0, 0.0, 0.0, 0.0, -933.0065170534274, 0.0]
['beep', 0.0, 1320.6304693973625, 0.0, 0.0, 0.0, 0.0, -933.341793220257, 0.0]
['beep', 0.0, 1320.0716757859798, 0.0, 0.0, 0.0, 0.0, -932.0900955307599, 0.0]
['beep', 0.0, 1318.998792052125, 0.0, 0.0, 0.0, 0.0, -932.8947583311509, 0.0]
['beep', 0.0, 1318.6188123963848, 0.0, 0.0, 0.0, 0.0, -934.3252699762905, 0.0]
['beep', 0.0, 1318.328239718466, 0.0, 0.0, 0.0, 0.0, -934.4593804430224, 0.0]
['beep', 0.0, 1317.031838540058, 0.0, 0.0, 0.0, 0.0, -933.4535519425335, 0.0]
['beep', 0.0, 1317.5012251736196, 0.0, 0.0, 0.0, 0.0, -933.1406275201592, 0.0]
['beep', 0.0, 1317.54592866253, 0.0, 0.0, 0.0, 0.0, -933.4535519425335, 0.0]
['beep', 0.0, 1317.3671147068876, 0.0, 0.0, 0.0, 0.0, -931.5983571527431, 0.0]
['beep', 0.0, 1318.3729432073765, 0.0, 0.0, 0.0, 0.0, -930.0560867853269, 0.0]
['beep', 0.0, 1316.9647833066922, 0.0, 0.0, 0.0, 0.0, -931.5536536638325, 0.0]
['beep', 0.0, 1318.5964606519296, 0.0, 0.0, 0.0, 0.0, -934.0123455539162, 0.0]
['beep', 0.0, 1317.5235769180747, 0.0, 0.0, 0.0, 0.0, -933.3641449647123, 0.0]
['beep', 0.0, 1316.9200798177815, 0.0, 0.0, 0.0, 0.0, -932.2912612308576, 0.0]
['beep', 0.0, 1317.031838540058, 0.0, 0.0, 0.0, 0.0, -932.2018542530363, 0.0]
['beep', 0.0, 1317.7023908737174, 0.0, 0.0, 0.0, 0.0, -931.1513222636369, 0.0]
['beep', 0.0, 1317.031838540058, 0.0, 0.0, 0.0, 0.0, -930.6372321411649, 0.0]
['beep', 0.0, 1317.255355984611, 0.0, 0.0, 0.0, 0.0, -931.3301362192793, 0.0]
['beep', 0.0, 1316.4283414397648, 0.0, 0.0, 0.0, 0.0, -932.3583164642235, 0.0]
['beep', 0.0, 1317.54592866253, 0.0, 0.0, 0.0, 0.0, -931.9783368084833, 0.0]
['beep', 0.0, 1317.7694461070832, 0.0, 0.0, 0.0, 0.0, -931.2854327303687, 0.0]
['beep', 0.0, 1318.708219374206, 0.0, 0.0, 0.0, 0.0, -932.0900955307599, 0.0]
['beep', 0.0, 1318.5070536741084, 0.0, 0.0, 0.0, 0.0, -929.9443280630503, 0.0]
['beep', 0.0, 1319.8481583414268, 0.0, 0.0, 0.0, 0.0, -929.0055547959274, 0.0]
['beep', 0.0, 1319.6022891524183, 0.0, 0.0, 0.0, 0.0, -930.6595838856201, 0.0]
['beep', 0.0, 1318.7305711186614, 0.0, 0.0, 0.0, 0.0, -929.2514239849359, 0.0]
['beep', 0.0, 1319.289364730044, 0.0, 0.0, 0.0, 0.0, -930.5478251633436, 0.0]
['beep', 0.0, 1320.161082763801, 0.0, 0.0, 0.0, 0.0, -931.2407292414581, 0.0]
['beep', 0.0, 1320.0493240415244, 0.0, 0.0, 0.0, 0.0, -930.6372321411649, 0.0]
['beep', 0.0, 1318.484701929653, 0.0, 0.0, 0.0, 0.0, -929.9219763185951, 0.0]
['beep', 0.0, 1317.7247426181725, 0.0, 0.0, 0.0, 0.0, -929.8549210852291, 0.0]
['beep', 0.0, 1318.842329840938, 0.0, 0.0, 0.0, 0.0, -929.1843687515699, 0.0]
['beep', 0.0, 1319.5575856635078, 0.0, 0.0, 0.0, 0.0, -929.9890315519609, 0.0]
['beep', 0.0, 1320.0493240415244, 0.0, 0.0, 0.0, 0.0, -929.2737757293911, 0.0]
['beep', 0.0, 1320.2281379971669, 0.0, 0.0, 0.0, 0.0, -929.8772728296844, 0.0]
['beep', 0.0, 1321.032800797558, 0.0, 0.0, 0.0, 0.0, -932.3136129753129, 0.0]
['beep', 0.0, 1320.3398967194435, 0.0, 0.0, 0.0, 0.0, -933.118275775704, 0.0]
['beep', 0.0, 1320.0493240415244, 0.0, 0.0, 0.0, 0.0, -931.1066187747263, 0.0]
['beep', 0.0, 1321.613946153396, 0.0, 0.0, 0.0, 0.0, -929.9890315519609, 0.0]
['beep', 0.0, 1321.9492223202255, 0.0, 0.0, 0.0, 0.0, -930.1901972520587, 0.0]
['beep', 0.0, 1321.6362978978514, 0.0, 0.0, 0.0, 0.0, -929.4749414294889, 0.0]
['beep', 0.0, 1320.004620552614, 0.0, 0.0, 0.0, 0.0, -929.8102175963185, 0.0]
['beep', 0.0, 1319.8481583414268, 0.0, 0.0, 0.0, 0.0, -928.7820373513744, 0.0]
['beep', 0.0, 1321.0104490531028, 0.0, 0.0, 0.0, 0.0, -929.7208106184972, 0.0]
['beep', 0.0, 1320.9880973086474, 0.0, 0.0, 0.0, 0.0, -931.1066187747263, 0.0]
['beep', 0.0, 1320.7869316085496, 0.0, 0.0, 0.0, 0.0, -929.8102175963185, 0.0]
['beep', 0.0, 1322.7538851206166, 0.0, 0.0, 0.0, 0.0, -930.1454937631481, 0.0]
['beep', 0.0, 1321.6362978978514, 0.0, 0.0, 0.0, 0.0, -929.407886196123, 0.0]
['beep', 0.0, 1321.457483942209, 0.0, 0.0, 0.0, 0.0, -929.0279065403828, 0.0]
['beep', 0.0, 1321.7257048756726, 0.0, 0.0, 0.0, 0.0, -928.6926303735531, 0.0]
['beep', 0.0, 1322.0609810425021, 0.0, 0.0, 0.0, 0.0, -927.8656158287068, 0.0]
['beep', 0.0, 1321.0104490531028, 0.0, 0.0, 0.0, 0.0, -928.8043890958297, 0.0]
['beep', 0.0, 1319.289364730044, 0.0, 0.0, 0.0, 0.0, -931.2854327303687, 0.0]
['beep', 0.0, 1320.7869316085496, 0.0, 0.0, 0.0, 0.0, -931.7548193639302, 0.0]
['beep', 0.0, 1320.8763385863708, 0.0, 0.0, 0.0, 0.0, -930.7713426078967, 0.0]
['beep', 0.0, 1319.1552542633121, 0.0, 0.0, 0.0, 0.0, -930.793694352352, 0.0]
['beep', 0.0, 1318.7529228631167, 0.0, 0.0, 0.0, 0.0, -930.7042873745307, 0.0]
['beep', 0.0, 1319.132902518857, 0.0, 0.0, 0.0, 0.0, -930.7489908634413, 0.0]
['beep', 0.0, 1318.350591462921, 0.0, 0.0, 0.0, 0.0, -928.7820373513744, 0.0]
['beep', 0.0, 1319.6022891524183, 0.0, 0.0, 0.0, 0.0, -927.731505361975, 0.0]
['beep', 0.0, 1320.0493240415244, 0.0, 0.0, 0.0, 0.0, -929.7431623629526, 0.0]
['beep', 0.0, 1319.0881990299463, 0.0, 0.0, 0.0, 0.0, -930.8383978412626, 0.0]
['beep', 0.0, 1320.742228119639, 0.0, 0.0, 0.0, 0.0, -930.2349007409694, 0.0]
['beep', 0.0, 1320.965745564192, 0.0, 0.0, 0.0, 0.0, -929.9890315519609, 0.0]
['beep', 0.0, 1320.3622484638988, 0.0, 0.0, 0.0, 0.0, -930.9725083079944, 0.0]
['beep', 0.0, 1320.3398967194435, 0.0, 0.0, 0.0, 0.0, -929.5196449183995, 0.0]
['beep', 0.0, 1322.1503880203234, 0.0, 0.0, 0.0, 0.0, -928.7596856069191, 0.0]
['beep', 0.0, 1322.6197746538849, 0.0, 0.0, 0.0, 0.0, -928.6479268846425, 0.0]
['beep', 0.0, 1320.9433938197367, 0.0, 0.0, 0.0, 0.0, -928.245595484447, 0.0]
['beep', 0.0, 1320.5634141639966, 0.0, 0.0, 0.0, 0.0, -929.3184792183017, 0.0]
['beep', 0.0, 1321.2116147532004, 0.0, 0.0, 0.0, 0.0, -928.8043890958297, 0.0]
['beep', 0.0, 1320.8316350974603, 0.0, 0.0, 0.0, 0.0, -928.7596856069191, 0.0]
['beep', 0.0, 1321.0551525420133, 0.0, 0.0, 0.0, 0.0, -928.9832030514722, 0.0]
['beep', 0.0, 1322.195091509234, 0.0, 0.0, 0.0, 0.0, -928.2008919955364, 0.0]
['beep', 0.0, 1323.0891612874464, 0.0, 0.0, 0.0, 0.0, -928.6255751401873, 0.0]
['beep', 0.0, 1322.6197746538849, 0.0, 0.0, 0.0, 0.0, -928.5808716512767, 0.0]
['beep', 0.0, 1322.4633124426978, 0.0, 0.0, 0.0, 0.0, -929.0726100292934, 0.0]
['beep', 0.0, 1321.748056620128, 0.0, 0.0, 0.0, 0.0, -928.2008919955364, 0.0]
['beep', 0.0, 1321.9492223202255, 0.0, 0.0, 0.0, 0.0, -929.3855344516677, 0.0]
['beep', 0.0, 1321.6586496423067, 0.0, 0.0, 0.0, 0.0, -930.0784385297821, 0.0]
['beep', 0.0, 1321.9268705757704, 0.0, 0.0, 0.0, 0.0, -928.9608513070168, 0.0]
['beep', 0.0, 1322.5080159316083, 0.0, 0.0, 0.0, 0.0, -927.9997262954387, 0.0]
['beep', 0.0, 1322.0833327869575, 0.0, 0.0, 0.0, 0.0, -928.2679472289024, 0.0]
['beep', 0.0, 1321.9939258091363, 0.0, 0.0, 0.0, 0.0, -927.731505361975, 0.0]
['beep', 0.0, 1321.6362978978514, 0.0, 0.0, 0.0, 0.0, -927.7762088508856, 0.0]
['beep', 0.0, 1324.0726380434799, 0.0, 0.0, 0.0, 0.0, -930.9278048190838, 0.0]
['beep', 0.0, 1325.033763055058, 0.0, 0.0, 0.0, 0.0, -931.3748397081899, 0.0]
['beep', 0.0, 1325.8160741109937, 0.0, 0.0, 0.0, 0.0, -929.8102175963185, 0.0]
['beep', 0.0, 1326.777199122572, 0.0, 0.0, 0.0, 0.0, -928.6479268846425, 0.0]
['beep', 0.0, 1328.7665043790942, 0.0, 0.0, 0.0, 0.0, -928.1338367621705, 0.0]
['beep', 0.0, 1330.2193677686892, 0.0, 0.0, 0.0, 0.0, -927.7985605953409, 0.0]
['beep', 0.0, 1330.0405538130467, 0.0, 0.0, 0.0, 0.0, -928.312650717813, 0.0]
['beep', 0.0, 1329.3029462460215, 0.0, 0.0, 0.0, 0.0, -928.6032233957319, 0.0]
['beep', 0.0, 1326.3078124890105, 0.0, 0.0, 0.0, 0.0, -928.4691129290001, 0.0]
['beep', 0.0, 1324.8325973549602, 0.0, 0.0, 0.0, 0.0, -929.5419966628548, 0.0]
['beep', 0.0, 1324.3632107213987, 0.0, 0.0, 0.0, 0.0, -928.5138164179107, 0.0]
['beep', 0.0, 1325.4360944552534, 0.0, 0.0, 0.0, 0.0, -928.5808716512767, 0.0]
['beep', 0.0, 1325.4360944552534, 0.0, 0.0, 0.0, 0.0, -928.4244094400894, 0.0]
['beep', 0.0, 1325.838425855449, 0.0, 0.0, 0.0, 0.0, -929.0726100292934, 0.0]
['beep', 0.0, 1325.2796322440663, 0.0, 0.0, 0.0, 0.0, -928.9608513070168, 0.0]
['beep', 0.0, 1325.972536322181, 0.0, 0.0, 0.0, 0.0, -928.6255751401873, 0.0]
['beep', 0.0, 1325.54785317753, 0.0, 0.0, 0.0, 0.0, -930.3466594632458, 0.0]
['beep', 0.0, 1325.0784665439685, 0.0, 0.0, 0.0, 0.0, -929.9890315519609, 0.0]
['beep', 0.0, 1324.6090799104072, 0.0, 0.0, 0.0, 0.0, -929.2514239849359, 0.0]
['beep', 0.0, 1324.3632107213987, 0.0, 0.0, 0.0, 0.0, -927.8432640842515, 0.0]
['beep', 0.0, 1323.715010132195, 0.0, 0.0, 0.0, 0.0, -926.859787328218, 0.0]
['beep', 0.0, 1324.6984868882284, 0.0, 0.0, 0.0, 0.0, -927.7091536175196, 0.0]
['beep', 0.0, 1324.6314316548624, 0.0, 0.0, 0.0, 0.0, -928.2902989733576, 0.0]
['beep', 0.0, 1324.8102456105048, 0.0, 0.0, 0.0, 0.0, -929.407886196123, 0.0]
['beep', 0.0, 1324.229100254667, 0.0, 0.0, 0.0, 0.0, -930.0337350408715, 0.0]
['beep', 0.0, 1322.9774025651698, 0.0, 0.0, 0.0, 0.0, -929.0726100292934, 0.0]
['beep', 0.0, 1323.8491205989267, 0.0, 0.0, 0.0, 0.0, -928.8043890958297, 0.0]
['beep', 0.0, 1324.162045021301, 0.0, 0.0, 0.0, 0.0, -928.8490925847403, 0.0]
['beep', 0.0, 1324.676135143773, 0.0, 0.0, 0.0, 0.0, -928.5138164179107, 0.0]
['beep', 0.0, 1325.0784665439685, 0.0, 0.0, 0.0, 0.0, -927.6868018730644, 0.0]
['beep', 0.0, 1327.2018822672228, 0.0, 0.0, 0.0, 0.0, -925.5186826608996, 0.0]
['beep', 0.0, 1326.4195712112871, 0.0, 0.0, 0.0, 0.0, -927.9103193176174, 0.0]
['beep', 0.0, 1325.257280499611, 0.0, 0.0, 0.0, 0.0, -928.4244094400894, 0.0]
['beep', 0.0, 1324.519672932586, 0.0, 0.0, 0.0, 0.0, -926.6362698836649, 0.0]
['beep', 0.0, 1323.4020857098205, 0.0, 0.0, 0.0, 0.0, -926.7256768614861, 0.0]
['beep', 0.0, 1322.932699076259, 0.0, 0.0, 0.0, 0.0, -926.3456972057459, 0.0]
['beep', 0.0, 1324.3408589769435, 0.0, 0.0, 0.0, 0.0, -925.2281099829805, 0.0]
['beep', 0.0, 1326.5536816780188, 0.0, 0.0, 0.0, 0.0, -926.7033251170308, 0.0]
['beep', 0.0, 1325.4584461997088, 0.0, 0.0, 0.0, 0.0, -927.7091536175196, 0.0]
['beep', 0.0, 1323.73736187665, 0.0, 0.0, 0.0, 0.0, -927.8432640842515, 0.0]
['beep', 0.0, 1326.3748677223764, 0.0, 0.0, 0.0, 0.0, -927.1280082616817, 0.0]
['beep', 0.0, 1326.1513502778234, 0.0, 0.0, 0.0, 0.0, -928.0444297843493, 0.0]
['beep', 0.0, 1325.4137427107983, 0.0, 0.0, 0.0, 0.0, -926.0774762722822, 0.0]
['beep', 0.0, 1325.7713706220832, 0.0, 0.0, 0.0, 0.0, -926.9938977949498, 0.0]
['beep', 0.0, 1326.330164233466, 0.0, 0.0, 0.0, 0.0, -927.664450128609, 0.0]
['beep', 0.0, 1325.7490188776278, 0.0, 0.0, 0.0, 0.0, -924.0658192713046, 0.0]
['beep', 0.0, 1327.2465857561333, 0.0, 0.0, 0.0, 0.0, -927.0609530283157, 0.0]
['beep', 0.0, 1328.9453183347366, 0.0, 0.0, 0.0, 0.0, -928.8490925847403, 0.0]
['beep', 0.0, 1329.4594084572088, 0.0, 0.0, 0.0, 0.0, -927.2174152395029, 0.0]
['beep', 0.0, 1329.124132290379, 0.0, 0.0, 0.0, 0.0, -927.0609530283157, 0.0]
['beep', 0.0, 1328.4759317011753, 0.0, 0.0, 0.0, 0.0, -925.4963309164442, 0.0]
['beep', 0.0, 1327.000716567125, 0.0, 0.0, 0.0, 0.0, -926.1668832501034, 0.0]
['beep', 0.0, 1327.4253997117758, 0.0, 0.0, 0.0, 0.0, -926.27864197238, 0.0]
['beep', 0.0, 1328.8559113569154, 0.0, 0.0, 0.0, 0.0, -924.6693163715979, 0.0]
['beep', 0.0, 1328.7218008901837, 0.0, 0.0, 0.0, 0.0, -926.5021594169331, 0.0]
['beep', 0.0, 1328.3865247233541, 0.0, 0.0, 0.0, 0.0, -926.4574559280225, 0.0]
['beep', 0.0, 1328.8782631013707, 0.0, 0.0, 0.0, 0.0, -925.406923938623, 0.0]
['beep', 0.0, 1329.7946846240384, 0.0, 0.0, 0.0, 0.0, -925.6080896387208, 0.0]
['beep', 0.0, 1328.6994491457283, 0.0, 0.0, 0.0, 0.0, -926.3009937168353, 0.0]
['beep', 0.0, 1327.939489834248, 0.0, 0.0, 0.0, 0.0, -925.7198483609973, 0.0]
['beep', 0.0, 1328.8335596124602, 0.0, 0.0, 0.0, 0.0, -924.7140198605085, 0.0]
['beep', 0.0, 1329.2358910126557, 0.0, 0.0, 0.0, 0.0, -925.0045925384275, 0.0]
['beep', 0.0, 1329.9734985796808, 0.0, 0.0, 0.0, 0.0, -926.5692146502989, 0.0]
['beep', 0.0, 1331.068734057991, 0.0, 0.0, 0.0, 0.0, -926.0551245278269, 0.0]
['beep', 0.0, 1331.7616381361054, 0.0, 0.0, 0.0, 0.0, -927.2621187284135, 0.0]
['beep', 0.0, 1331.6722311582841, 0.0, 0.0, 0.0, 0.0, -926.3456972057459, 0.0]
['beep', 0.0, 1329.9958503241362, 0.0, 0.0, 0.0, 0.0, -925.5186826608996, 0.0]
['beep', 0.0, 1330.1523125353233, 0.0, 0.0, 0.0, 0.0, -926.1668832501034, 0.0]
['beep', 0.0, 1330.6664026577953, 0.0, 0.0, 0.0, 0.0, -926.1668832501034, 0.0]
['beep', 0.0, 1330.420533468787, 0.0, 0.0, 0.0, 0.0, -925.5410344053548, 0.0]
['beep', 0.0, 1329.481760201664, 0.0, 0.0, 0.0, 0.0, -924.311688460313, 0.0]
['beep', 0.0, 1329.906443346315, 0.0, 0.0, 0.0, 0.0, -925.4516274275336, 0.0]
['beep', 0.0, 1329.4594084572088, 0.0, 0.0, 0.0, 0.0, -925.7422001054526, 0.0]
['beep', 0.0, 1329.8617398574042, 0.0, 0.0, 0.0, 0.0, -927.2621187284135, 0.0]
['beep', 0.0, 1329.0794288014686, 0.0, 0.0, 0.0, 0.0, -926.9715460504945, 0.0]
['beep', 0.0, 1328.2300625121668, 0.0, 0.0, 0.0, 0.0, -926.1892349945588, 0.0]
['beep', 0.0, 1327.939489834248, 0.0, 0.0, 0.0, 0.0, -925.0045925384275, 0.0]
['beep', 0.0, 1326.777199122572, 0.0, 0.0, 0.0, 0.0, -926.8374355837626, 0.0]
['beep', 0.0, 1327.8500828564268, 0.0, 0.0, 0.0, 0.0, -927.1503600061369, 0.0]
['beep', 0.0, 1328.3865247233541, 0.0, 0.0, 0.0, 0.0, -925.9657175500057, 0.0]
['beep', 0.0, 1326.6877921447508, 0.0, 0.0, 0.0, 0.0, -925.3845721941677, 0.0]
['beep', 0.0, 1327.939489834248, 0.0, 0.0, 0.0, 0.0, -925.7422001054526, 0.0]
['beep', 0.0, 1327.872434600882, 0.0, 0.0, 0.0, 0.0, -926.27864197238, 0.0]
['beep', 0.0, 1326.9783648226696, 0.0, 0.0, 0.0, 0.0, -926.6809733725755, 0.0]
['beep', 0.0, 1327.6042136674182, 0.0, 0.0, 0.0, 0.0, -926.8150838393074, 0.0]
['beep', 0.0, 1328.0512485565243, 0.0, 0.0, 0.0, 0.0, -925.3398687052571, 0.0]
['beep', 0.0, 1328.1406555343456, 0.0, 0.0, 0.0, 0.0, -925.4292756830783, 0.0]
['beep', 0.0, 1328.319469489988, 0.0, 0.0, 0.0, 0.0, -927.3068222173241, 0.0]
['beep', 0.0, 1327.7383241341502, 0.0, 0.0, 0.0, 0.0, -927.1503600061369, 0.0]
['beep', 0.0, 1328.8335596124602, 0.0, 0.0, 0.0, 0.0, -926.3233454612906, 0.0]
['beep', 0.0, 1328.0736003009797, 0.0, 0.0, 0.0, 0.0, -926.9044908171286, 0.0]
['beep', 0.0, 1327.1795305227674, 0.0, 0.0, 0.0, 0.0, -926.3680489502012, 0.0]
['beep', 0.0, 1328.0288968120692, 0.0, 0.0, 0.0, 0.0, -926.5915663947543, 0.0]
['beep', 0.0, 1328.4312282122646, 0.0, 0.0, 0.0, 0.0, -926.2339384834694, 0.0]
['beep', 0.0, 1328.2747660010775, 0.0, 0.0, 0.0, 0.0, -926.0551245278269, 0.0]
['beep', 0.0, 1327.872434600882, 0.0, 0.0, 0.0, 0.0, -927.9550228065281, 0.0]
['beep', 0.0, 1327.939489834248, 0.0, 0.0, 0.0, 0.0, -927.664450128609, 0.0]
['beep', 0.0, 1326.710143889206, 0.0, 0.0, 0.0, 0.0, -927.2397669839581, 0.0]
['beep', 0.0, 1325.5255014330749, 0.0, 0.0, 0.0, 0.0, -926.4127524391118, 0.0]
['beep', 0.0, 1326.1513502778234, 0.0, 0.0, 0.0, 0.0, -926.6362698836649, 0.0]
['beep', 0.0, 1327.4477514562311, 0.0, 0.0, 0.0, 0.0, -925.8539588277291, 0.0]
['beep', 0.0, 1326.8666061003933, 0.0, 0.0, 0.0, 0.0, -926.1668832501034, 0.0]
['beep', 0.0, 1328.1183037898904, 0.0, 0.0, 0.0, 0.0, -925.0939995162487, 0.0]
['beep', 0.0, 1327.872434600882, 0.0, 0.0, 0.0, 0.0, -926.27864197238, 0.0]
['beep', 0.0, 1327.134827033857, 0.0, 0.0, 0.0, 0.0, -925.9433658055503, 0.0]
['beep', 0.0, 1327.000716567125, 0.0, 0.0, 0.0, 0.0, -925.3398687052571, 0.0]
['beep', 0.0, 1327.648917156329, 0.0, 0.0, 0.0, 0.0, -925.3622204497124, 0.0]
['beep', 0.0, 1327.2018822672228, 0.0, 0.0, 0.0, 0.0, -926.7033251170308, 0.0]
['beep', 0.0, 1325.033763055058, 0.0, 0.0, 0.0, 0.0, -925.0939995162487, 0.0]
['beep', 0.0, 1326.4419229557423, 0.0, 0.0, 0.0, 0.0, -924.1552262491258, 0.0]
['beep', 0.0, 1327.6712689007843, 0.0, 0.0, 0.0, 0.0, -925.1834064940699, 0.0]
['beep', 0.0, 1328.4312282122646, 0.0, 0.0, 0.0, 0.0, -926.0104210389163, 0.0]
['beep', 0.0, 1326.3748677223764, 0.0, 0.0, 0.0, 0.0, -927.1280082616817, 0.0]
['beep', 0.0, 1326.330164233466, 0.0, 0.0, 0.0, 0.0, -925.7198483609973, 0.0]
['beep', 0.0, 1326.4642747001976, 0.0, 0.0, 0.0, 0.0, -926.1445315056482, 0.0]
['beep', 0.0, 1327.5595101785077, 0.0, 0.0, 0.0, 0.0, -926.2339384834694, 0.0]
['beep', 0.0, 1327.000716567125, 0.0, 0.0, 0.0, 0.0, -926.0998280167375, 0.0]
['beep', 0.0, 1327.5371584340523, 0.0, 0.0, 0.0, 0.0, -926.27864197238, 0.0]
['beep', 0.0, 1328.0065450676138, 0.0, 0.0, 0.0, 0.0, -927.2621187284135, 0.0]
['beep', 0.0, 1327.3806962228653, 0.0, 0.0, 0.0, 0.0, -927.3962291951453, 0.0]
['beep', 0.0, 1328.5429869345412, 0.0, 0.0, 0.0, 0.0, -926.8821390726732, 0.0]
['beep', 0.0, 1327.4924549451418, 0.0, 0.0, 0.0, 0.0, -925.3398687052571, 0.0]
['beep', 0.0, 1327.1795305227674, 0.0, 0.0, 0.0, 0.0, -926.1221797611928, 0.0]
['beep', 0.0, 1327.0677718004908, 0.0, 0.0, 0.0, 0.0, -924.3563919492236, 0.0]
['beep', 0.0, 1327.157178778312, 0.0, 0.0, 0.0, 0.0, -924.1105227602152, 0.0]
['beep', 0.0, 1327.2018822672228, 0.0, 0.0, 0.0, 0.0, -927.0609530283157, 0.0]
['beep', 0.0, 1326.8219026114825, 0.0, 0.0, 0.0, 0.0, -927.6868018730644, 0.0]
['beep', 0.0, 1328.0065450676138, 0.0, 0.0, 0.0, 0.0, -926.6362698836649, 0.0]
['beep', 0.0, 1326.6654404002954, 0.0, 0.0, 0.0, 0.0, -926.9491943060392, 0.0]
['beep', 0.0, 1326.9560130782145, 0.0, 0.0, 0.0, 0.0, -925.7645518499079, 0.0]
['beep', 0.0, 1328.7888561235495, 0.0, 0.0, 0.0, 0.0, -925.1610547496147, 0.0]
['beep', 0.0, 1329.4594084572088, 0.0, 0.0, 0.0, 0.0, -927.0162495394051, 0.0]
['beep', 0.0, 1328.2077107677117, 0.0, 0.0, 0.0, 0.0, -926.4574559280225, 0.0]
['beep', 0.0, 1327.291289245044, 0.0, 0.0, 0.0, 0.0, -926.0327727833716, 0.0]
['beep', 0.0, 1327.0454200560357, 0.0, 0.0, 0.0, 0.0, -925.473979171989, 0.0]
['beep', 0.0, 1326.3748677223764, 0.0, 0.0, 0.0, 0.0, -924.9151855606062, 0.0]
['beep', 0.0, 1326.64308865584, 0.0, 0.0, 0.0, 0.0, -925.2057582385253, 0.0]
['beep', 0.0, 1325.0784665439685, 0.0, 0.0, 0.0, 0.0, -924.5575576493213, 0.0]
['beep', 0.0, 1325.6372601553512, 0.0, 0.0, 0.0, 0.0, -924.9375373050616, 0.0]
['beep', 0.0, 1325.1008182884239, 0.0, 0.0, 0.0, 0.0, -925.2728134718911, 0.0]
['beep', 0.0, 1325.391390966343, 0.0, 0.0, 0.0, 0.0, -925.630441383176, 0.0]
['beep', 0.0, 1324.229100254667, 0.0, 0.0, 0.0, 0.0, -926.9268425615838, 0.0]
['beep', 0.0, 1325.9948880666361, 0.0, 0.0, 0.0, 0.0, -926.6586216281202, 0.0]
['beep', 0.0, 1326.486626444653, 0.0, 0.0, 0.0, 0.0, -925.3175169608018, 0.0]
['beep', 0.0, 1325.324335732977, 0.0, 0.0, 0.0, 0.0, -924.3340402047683, 0.0]
['beep', 0.0, 1325.7937223665385, 0.0, 0.0, 0.0, 0.0, -924.2893367158576, 0.0]
['beep', 0.0, 1325.3690392218875, 0.0, 0.0, 0.0, 0.0, -923.1046942597263, 0.0]
['beep', 0.0, 1326.4195712112871, 0.0, 0.0, 0.0, 0.0, -923.9317088045727, 0.0]
['beep', 0.0, 1325.033763055058, 0.0, 0.0, 0.0, 0.0, -925.4963309164442, 0.0]
['beep', 0.0, 1325.3019839885217, 0.0, 0.0, 0.0, 0.0, -924.9151855606062, 0.0]
['beep', 0.0, 1325.324335732977, 0.0, 0.0, 0.0, 0.0, -923.663487871109, 0.0]
['beep', 0.0, 1325.7713706220832, 0.0, 0.0, 0.0, 0.0, -924.311688460313, 0.0]
['beep', 0.0, 1327.3806962228653, 0.0, 0.0, 0.0, 0.0, -924.5128541604107, 0.0]
['beep', 0.0, 1327.157178778312, 0.0, 0.0, 0.0, 0.0, -926.7703803503967, 0.0]
['beep', 0.0, 1327.3806962228653, 0.0, 0.0, 0.0, 0.0, -926.4574559280225, 0.0]
['beep', 0.0, 1327.7606758786055, 0.0, 0.0, 0.0, 0.0, -924.6246128826873, 0.0]
['beep', 0.0, 1327.939489834248, 0.0, 0.0, 0.0, 0.0, -926.7033251170308, 0.0]
['beep', 0.0, 1328.6323939123624, 0.0, 0.0, 0.0, 0.0, -925.5633861498102, 0.0]
['beep', 0.0, 1328.6994491457283, 0.0, 0.0, 0.0, 0.0, -925.8316070832739, 0.0]
['beep', 0.0, 1326.8219026114825, 0.0, 0.0, 0.0, 0.0, -925.1834064940699, 0.0]
['beep', 0.0, 1328.967670079192, 0.0, 0.0, 0.0, 0.0, -925.3398687052571, 0.0]
['beep', 0.0, 1330.129960790868, 0.0, 0.0, 0.0, 0.0, -926.5245111613883, 0.0]
['beep', 0.0, 1329.2135392682003, 0.0, 0.0, 0.0, 0.0, -924.5575576493213, 0.0]
['beep', 0.0, 1330.0182020685916, 0.0, 0.0, 0.0, 0.0, -925.6751448720867, 0.0]
['beep', 0.0, 1328.9453183347366, 0.0, 0.0, 0.0, 0.0, -925.3845721941677, 0.0]
['beep', 0.0, 1328.3418212344434, 0.0, 0.0, 0.0, 0.0, -922.9482320485392, 0.0]
['beep', 0.0, 1328.0736003009797, 0.0, 0.0, 0.0, 0.0, -924.5575576493213, 0.0]
['beep', 0.0, 1329.4370567127535, 0.0, 0.0, 0.0, 0.0, -924.7810750938744, 0.0]
['beep', 0.0, 1328.610042167907, 0.0, 0.0, 0.0, 0.0, -923.663487871109, 0.0]
['beep', 0.0, 1328.6323939123624, 0.0, 0.0, 0.0, 0.0, -923.4176186821006, 0.0]
['beep', 0.0, 1329.5935189239406, 0.0, 0.0, 0.0, 0.0, -922.9258803040839, 0.0]
['beep', 0.0, 1329.124132290379, 0.0, 0.0, 0.0, 0.0, -924.3787436936789, 0.0]
['beep', 0.0, 1327.3136409894994, 0.0, 0.0, 0.0, 0.0, -925.5410344053548, 0.0]
['beep', 0.0, 1327.134827033857, 0.0, 0.0, 0.0, 0.0, -924.2222814824918, 0.0]
['beep', 0.0, 1328.610042167907, 0.0, 0.0, 0.0, 0.0, -922.8141215818074, 0.0]
['beep', 0.0, 1328.4982834456305, 0.0, 0.0, 0.0, 0.0, -924.6246128826873, 0.0]
['beep', 0.0, 1328.7665043790942, 0.0, 0.0, 0.0, 0.0, -924.9375373050616, 0.0]
['beep', 0.0, 1327.6712689007843, 0.0, 0.0, 0.0, 0.0, -924.6693163715979, 0.0]
['beep', 0.0, 1326.3748677223764, 0.0, 0.0, 0.0, 0.0, -926.0774762722822, 0.0]
['beep', 0.0, 1327.134827033857, 0.0, 0.0, 0.0, 0.0, -924.1999297380364, 0.0]
['beep', 0.0, 1326.4642747001976, 0.0, 0.0, 0.0, 0.0, -922.3223832037907, 0.0]
['beep', 0.0, 1326.6654404002954, 0.0, 0.0, 0.0, 0.0, -921.5624238923102, 0.0]
['beep', 0.0, 1325.7043153887173, 0.0, 0.0, 0.0, 0.0, -922.7023628595308, 0.0]
['beep', 0.0, 1326.64308865584, 0.0, 0.0, 0.0, 0.0, -923.2835082153688, 0.0]
['beep', 0.0, 1327.157178778312, 0.0, 0.0, 0.0, 0.0, -922.1212175036928, 0.0]
['beep', 0.0, 1327.5595101785077, 0.0, 0.0, 0.0, 0.0, -922.1882727370588, 0.0]
['beep', 0.0, 1328.9453183347366, 0.0, 0.0, 0.0, 0.0, -923.9987640379387, 0.0]
['beep', 0.0, 1330.8899201023485, 0.0, 0.0, 0.0, 0.0, -922.7023628595308, 0.0]
['beep', 0.0, 1332.9239288477813, 0.0, 0.0, 0.0, 0.0, -921.9424035480504, 0.0]
['beep', 0.0, 1333.2145015257004, 0.0, 0.0, 0.0, 0.0, -923.2835082153688, 0.0]
['beep', 0.0, 1332.7004114032284, 0.0, 0.0, 0.0, 0.0, -924.6693163715979, 0.0]
['beep', 0.0, 1332.7451148921389, 0.0, 0.0, 0.0, 0.0, -924.2669849714024, 0.0]
['beep', 0.0, 1330.6216991688848, 0.0, 0.0, 0.0, 0.0, -922.791769837352, 0.0]
['beep', 0.0, 1328.8112078680049, 0.0, 0.0, 0.0, 0.0, -921.3836099366678, 0.0]
['beep', 0.0, 1327.7159723896948, 0.0, 0.0, 0.0, 0.0, -922.9258803040839, 0.0]
['beep', 0.0, 1326.3748677223764, 0.0, 0.0, 0.0, 0.0, -923.6187843821984, 0.0]
['beep', 0.0, 1326.6654404002954, 0.0, 0.0, 0.0, 0.0, -922.9258803040839, 0.0]
['beep', 0.0, 1328.4759317011753, 0.0, 0.0, 0.0, 0.0, -923.7752465933856, 0.0]
['beep', 0.0, 1327.6712689007843, 0.0, 0.0, 0.0, 0.0, -925.116351260704, 0.0]
['beep', 0.0, 1328.744152634639, 0.0, 0.0, 0.0, 0.0, -925.2951652163465, 0.0]
['beep', 0.0, 1329.0123735681027, 0.0, 0.0, 0.0, 0.0, -924.6693163715979, 0.0]
['beep', 0.0, 1328.677097401273, 0.0, 0.0, 0.0, 0.0, -923.0376390263605, 0.0]
['beep', 0.0, 1328.5876904234517, 0.0, 0.0, 0.0, 0.0, -923.8870053156621, 0.0]
['beep', 0.0, 1328.297117745533, 0.0, 0.0, 0.0, 0.0, -925.0045925384275, 0.0]
['beep', 0.0, 1329.7052776462172, 0.0, 0.0, 0.0, 0.0, -923.2835082153688, 0.0]
['beep', 0.0, 1329.7946846240384, 0.0, 0.0, 0.0, 0.0, -923.8870053156621, 0.0]
['beep', 0.0, 1329.6829259017618, 0.0, 0.0, 0.0, 0.0, -925.9433658055503, 0.0]
['beep', 0.0, 1330.9569753357143, 0.0, 0.0, 0.0, 0.0, -923.9540605490281, 0.0]
['beep', 0.0, 1328.677097401273, 0.0, 0.0, 0.0, 0.0, -923.6411361266538, 0.0]
['beep', 0.0, 1328.5653386789966, 0.0, 0.0, 0.0, 0.0, -923.9987640379387, 0.0]
['beep', 0.0, 1329.481760201664, 0.0, 0.0, 0.0, 0.0, -923.730543104475, 0.0]
['beep', 0.0, 1327.9841933231585, 0.0, 0.0, 0.0, 0.0, -923.37291519319, 0.0]
['beep', 0.0, 1328.2077107677117, 0.0, 0.0, 0.0, 0.0, -922.9705837929945, 0.0]
['beep', 0.0, 1327.3806962228653, 0.0, 0.0, 0.0, 0.0, -924.1552262491258, 0.0]
['beep', 0.0, 1327.6712689007843, 0.0, 0.0, 0.0, 0.0, -924.311688460313, 0.0]
['beep', 0.0, 1328.2524142566222, 0.0, 0.0, 0.0, 0.0, -922.635307626165, 0.0]
['beep', 0.0, 1328.4312282122646, 0.0, 0.0, 0.0, 0.0, -922.27767971488, 0.0]
['beep', 0.0, 1329.3029462460215, 0.0, 0.0, 0.0, 0.0, -924.892833816151, 0.0]
['beep', 0.0, 1328.900614845826, 0.0, 0.0, 0.0, 0.0, -925.3398687052571, 0.0]
['beep', 0.0, 1327.7830276230607, 0.0, 0.0, 0.0, 0.0, -924.8481303272404, 0.0]
['beep', 0.0, 1328.2077107677117, 0.0, 0.0, 0.0, 0.0, -926.4351041835671, 0.0]
['beep', 0.0, 1328.0512485565243, 0.0, 0.0, 0.0, 0.0, -925.6751448720867, 0.0]
['beep', 0.0, 1327.7830276230607, 0.0, 0.0, 0.0, 0.0, -924.1775779935812, 0.0]
['beep', 0.0, 1326.777199122572, 0.0, 0.0, 0.0, 0.0, -923.2164529820029, 0.0]
['beep', 0.0, 1325.8607775999044, 0.0, 0.0, 0.0, 0.0, -923.1493977486369, 0.0]
['beep', 0.0, 1326.777199122572, 0.0, 0.0, 0.0, 0.0, -924.2893367158576, 0.0]
['beep', 0.0, 1327.3806962228653, 0.0, 0.0, 0.0, 0.0, -925.4292756830783, 0.0]
['beep', 0.0, 1325.7043153887173, 0.0, 0.0, 0.0, 0.0, -926.2339384834694, 0.0]
['beep', 0.0, 1327.4030479673206, 0.0, 0.0, 0.0, 0.0, -925.7869035943633, 0.0]
['beep', 0.0, 1329.6829259017618, 0.0, 0.0, 0.0, 0.0, -924.9598890495168, 0.0]
['beep', 0.0, 1329.6829259017618, 0.0, 0.0, 0.0, 0.0, -924.2893367158576, 0.0]
['beep', 0.0, 1329.9734985796808, 0.0, 0.0, 0.0, 0.0, -923.9987640379387, 0.0]
['beep', 0.0, 1330.062905557502, 0.0, 0.0, 0.0, 0.0, -924.6022611382319, 0.0]
['beep', 0.0, 1329.5711671794854, 0.0, 0.0, 0.0, 0.0, -927.0162495394051, 0.0]
['beep', 0.0, 1329.615870668396, 0.0, 0.0, 0.0, 0.0, -926.7256768614861, 0.0]
['beep', 0.0, 1330.2417195131445, 0.0, 0.0, 0.0, 0.0, -927.083304772771, 0.0]
['beep', 0.0, 1330.3981817243316, 0.0, 0.0, 0.0, 0.0, -925.630441383176, 0.0]
['beep', 0.0, 1329.101780545924, 0.0, 0.0, 0.0, 0.0, -925.5186826608996, 0.0]
['beep', 0.0, 1328.5876904234517, 0.0, 0.0, 0.0, 0.0, -924.7363716049638, 0.0]
['beep', 0.0, 1329.1464840348344, 0.0, 0.0, 0.0, 0.0, -924.5352059048661, 0.0]
['beep', 0.0, 1330.2640712575999, 0.0, 0.0, 0.0, 0.0, -926.7703803503967, 0.0]
['beep', 0.0, 1331.001678824625, 0.0, 0.0, 0.0, 0.0, -925.7869035943633, 0.0]
['beep', 0.0, 1331.3369549914546, 0.0, 0.0, 0.0, 0.0, -925.6080896387208, 0.0]
['beep', 0.0, 1330.9793270801697, 0.0, 0.0, 0.0, 0.0, -924.892833816151, 0.0]
['beep', 0.0, 1331.1804927802675, 0.0, 0.0, 0.0, 0.0, -924.7140198605085, 0.0]
['beep', 0.0, 1330.7781613800719, 0.0, 0.0, 0.0, 0.0, -923.4846739154666, 0.0]
['beep', 0.0, 1329.9958503241362, 0.0, 0.0, 0.0, 0.0, -922.7247146039862, 0.0]
['beep', 0.0, 1330.9122718468038, 0.0, 0.0, 0.0, 0.0, -924.4234471825895, 0.0]
['beep', 0.0, 1330.0405538130467, 0.0, 0.0, 0.0, 0.0, -924.5128541604107, 0.0]
['beep', 0.0, 1329.9958503241362, 0.0, 0.0, 0.0, 0.0, -925.1387030051593, 0.0]
['beep', 0.0, 1330.8005131245272, 0.0, 0.0, 0.0, 0.0, -925.8986623166397, 0.0]
['beep', 0.0, 1330.3087747465104, 0.0, 0.0, 0.0, 0.0, -926.3009937168353, 0.0]
['beep', 0.0, 1329.9958503241362, 0.0, 0.0, 0.0, 0.0, -925.2728134718911, 0.0]
['beep', 0.0, 1330.2864230020552, 0.0, 0.0, 0.0, 0.0, -925.5857378942654, 0.0]
['beep', 0.0, 1331.3146032469992, 0.0, 0.0, 0.0, 0.0, -925.4516274275336, 0.0]
['beep', 0.0, 1331.9628038362032, 0.0, 0.0, 0.0, 0.0, -924.6693163715979, 0.0]
['beep', 0.0, 1332.1416177918456, 0.0, 0.0, 0.0, 0.0, -925.3398687052571, 0.0]
['beep', 0.0, 1331.2475480136334, 0.0, 0.0, 0.0, 0.0, -926.8374355837626, 0.0]
['beep', 0.0, 1330.9793270801697, 0.0, 0.0, 0.0, 0.0, -925.7645518499079, 0.0]
['beep', 0.0, 1330.2193677686892, 0.0, 0.0, 0.0, 0.0, -925.2951652163465, 0.0]
['beep', 0.0, 1329.9287950907703, 0.0, 0.0, 0.0, 0.0, -923.6411361266538, 0.0]
['beep', 0.0, 1331.4040102248205, 0.0, 0.0, 0.0, 0.0, -923.3505634487348, 0.0]
['beep', 0.0, 1331.7616381361054, 0.0, 0.0, 0.0, 0.0, -923.7081913600197, 0.0]
['beep', 0.0, 1331.1134375469014, 0.0, 0.0, 0.0, 0.0, -924.825778582785, 0.0]
['beep', 0.0, 1330.554643935519, 0.0, 0.0, 0.0, 0.0, -925.7869035943633, 0.0]
['beep', 0.0, 1328.9453183347366, 0.0, 0.0, 0.0, 0.0, -926.1668832501034, 0.0]
['beep', 0.0, 1329.101780545924, 0.0, 0.0, 0.0, 0.0, -925.7645518499079, 0.0]
['beep', 0.0, 1330.7334578911614, 0.0, 0.0, 0.0, 0.0, -925.8763105721845, 0.0]
['beep', 0.0, 1330.3758299798765, 0.0, 0.0, 0.0, 0.0, -925.9433658055503, 0.0]
['beep', 0.0, 1331.225196269178, 0.0, 0.0, 0.0, 0.0, -926.5021594169331, 0.0]
['beep', 0.0, 1330.6216991688848, 0.0, 0.0, 0.0, 0.0, -926.5245111613883, 0.0]
['beep', 0.0, 1329.3252979904769, 0.0, 0.0, 0.0, 0.0, -925.116351260704, 0.0]
['beep', 0.0, 1329.5935189239406, 0.0, 0.0, 0.0, 0.0, -927.1280082616817, 0.0]
['beep', 0.0, 1329.4594084572088, 0.0, 0.0, 0.0, 0.0, -928.0444297843493, 0.0]
['beep', 0.0, 1329.124132290379, 0.0, 0.0, 0.0, 0.0, -927.9326710620727, 0.0]
['beep', 0.0, 1328.1406555343456, 0.0, 0.0, 0.0, 0.0, -928.5138164179107, 0.0]
['beep', 0.0, 1328.0512485565243, 0.0, 0.0, 0.0, 0.0, -926.3456972057459, 0.0]
['beep', 0.0, 1327.6936206452394, 0.0, 0.0, 0.0, 0.0, -926.7256768614861, 0.0]
['beep', 0.0, 1327.8947863453373, 0.0, 0.0, 0.0, 0.0, -926.5245111613883, 0.0]
['beep', 0.0, 1328.2077107677117, 0.0, 0.0, 0.0, 0.0, -928.1338367621705, 0.0]
['beep', 0.0, 1328.297117745533, 0.0, 0.0, 0.0, 0.0, -928.7149821180085, 0.0]
['beep', 0.0, 1329.0347253125578, 0.0, 0.0, 0.0, 0.0, -928.0444297843493, 0.0]
['beep', 0.0, 1328.3865247233541, 0.0, 0.0, 0.0, 0.0, -927.5303396618772, 0.0]
['beep', 0.0, 1327.3806962228653, 0.0, 0.0, 0.0, 0.0, -928.1785402510811, 0.0]
['beep', 0.0, 1328.9900218236473, 0.0, 0.0, 0.0, 0.0, -927.8209123397962, 0.0]
['beep', 0.0, 1329.54881543503, 0.0, 0.0, 0.0, 0.0, -927.0386012838604, 0.0]
['beep', 0.0, 1329.8840916018596, 0.0, 0.0, 0.0, 0.0, -927.5750431507878, 0.0]
['beep', 0.0, 1329.54881543503, 0.0, 0.0, 0.0, 0.0, -929.1843687515699, 0.0]
['beep', 0.0, 1330.5099404466082, 0.0, 0.0, 0.0, 0.0, -929.9890315519609, 0.0]
['beep', 0.0, 1332.387486980854, 0.0, 0.0, 0.0, 0.0, -929.8549210852291, 0.0]
['beep', 0.0, 1333.7062399037172, 0.0, 0.0, 0.0, 0.0, -928.8714443291956, 0.0]
['beep', 0.0, 1333.4603707147087, 0.0, 0.0, 0.0, 0.0, -930.2349007409694, 0.0]
['beep', 0.0, 1332.2757282585774, 0.0, 0.0, 0.0, 0.0, -930.8383978412626, 0.0]
['beep', 0.0, 1331.582824180463, 0.0, 0.0, 0.0, 0.0, -930.3243077187906, 0.0]
['beep', 0.0, 1332.7227631476835, 0.0, 0.0, 0.0, 0.0, -927.8879675731621, 0.0]
['beep', 0.0, 1333.0133358256026, 0.0, 0.0, 0.0, 0.0, -929.5196449183995, 0.0]
['beep', 0.0, 1332.8121701255047, 0.0, 0.0, 0.0, 0.0, -930.5478251633436, 0.0]
['beep', 0.0, 1333.6615364148065, 0.0, 0.0, 0.0, 0.0, -929.4749414294889, 0.0]
['beep', 0.0, 1333.1474462923345, 0.0, 0.0, 0.0, 0.0, -928.536168162366, 0.0]
['beep', 0.0, 1332.8121701255047, 0.0, 0.0, 0.0, 0.0, -928.1785402510811, 0.0]
['beep', 0.0, 1331.001678824625, 0.0, 0.0, 0.0, 0.0, -928.7820373513744, 0.0]
['beep', 0.0, 1330.1076090464128, 0.0, 0.0, 0.0, 0.0, -927.9550228065281, 0.0]
['beep', 0.0, 1331.6275276693736, 0.0, 0.0, 0.0, 0.0, -927.4632844285112, 0.0]
['beep', 0.0, 1332.3427834919435, 0.0, 0.0, 0.0, 0.0, -928.9608513070168, 0.0]
['beep', 0.0, 1331.381658480365, 0.0, 0.0, 0.0, 0.0, -929.407886196123, 0.0]
['beep', 0.0, 1330.0182020685916, 0.0, 0.0, 0.0, 0.0, -928.9832030514722, 0.0]
['beep', 0.0, 1330.576995679974, 0.0, 0.0, 0.0, 0.0, -929.1396652626593, 0.0]
['beep', 0.0, 1331.6275276693736, 0.0, 0.0, 0.0, 0.0, -929.3631827072123, 0.0]
['beep', 0.0, 1331.0463823135356, 0.0, 0.0, 0.0, 0.0, -930.1678455076034, 0.0]
['beep', 0.0, 1330.5322921910636, 0.0, 0.0, 0.0, 0.0, -927.37387745069, 0.0]
['beep', 0.0, 1330.0182020685916, 0.0, 0.0, 0.0, 0.0, -927.9550228065281, 0.0]
['beep', 0.0, 1330.3311264909657, 0.0, 0.0, 0.0, 0.0, -930.3243077187906, 0.0]
['beep', 0.0, 1329.9511468352255, 0.0, 0.0, 0.0, 0.0, -930.0337350408715, 0.0]
['beep', 0.0, 1329.3252979904769, 0.0, 0.0, 0.0, 0.0, -928.8043890958297, 0.0]
['beep', 0.0, 1329.1688357792898, 0.0, 0.0, 0.0, 0.0, -927.8432640842515, 0.0]
['beep', 0.0, 1328.163007278801, 0.0, 0.0, 0.0, 0.0, -928.245595484447, 0.0]
['beep', 0.0, 1327.872434600882, 0.0, 0.0, 0.0, 0.0, -929.117313518204, 0.0]
['beep', 0.0, 1328.6547456568178, 0.0, 0.0, 0.0, 0.0, -930.2572524854246, 0.0]
['beep', 0.0, 1328.9229665902815, 0.0, 0.0, 0.0, 0.0, -929.7431623629526, 0.0]
['beep', 0.0, 1328.297117745533, 0.0, 0.0, 0.0, 0.0, -929.1843687515699, 0.0]
['beep', 0.0, 1327.4701032006865, 0.0, 0.0, 0.0, 0.0, -927.8656158287068, 0.0]
['beep', 0.0, 1326.8219026114825, 0.0, 0.0, 0.0, 0.0, -930.9501565635392, 0.0]
['beep', 0.0, 1328.7218008901837, 0.0, 0.0, 0.0, 0.0, -932.8053513533297, 0.0]
['beep', 0.0, 1329.2805945015664, 0.0, 0.0, 0.0, 0.0, -932.2689094864023, 0.0]
['beep', 0.0, 1329.7276293906725, 0.0, 0.0, 0.0, 0.0, -931.6430606416537, 0.0]
['beep', 0.0, 1330.0182020685916, 0.0, 0.0, 0.0, 0.0, -930.7042873745307, 0.0]
['beep', 0.0, 1328.7218008901837, 0.0, 0.0, 0.0, 0.0, -929.8549210852291, 0.0]
['beep', 0.0, 1329.7276293906725, 0.0, 0.0, 0.0, 0.0, -929.3184792183017, 0.0]
['beep', 0.0, 1329.3923532238427, 0.0, 0.0, 0.0, 0.0, -931.1960257525475, 0.0]
['beep', 0.0, 1328.5876904234517, 0.0, 0.0, 0.0, 0.0, -930.3913629521564, 0.0]
['beep', 0.0, 1328.900614845826, 0.0, 0.0, 0.0, 0.0, -929.9666798075057, 0.0]
['beep', 0.0, 1329.0570770570132, 0.0, 0.0, 0.0, 0.0, -930.3913629521564, 0.0]
['beep', 0.0, 1327.8947863453373, 0.0, 0.0, 0.0, 0.0, -930.9278048190838, 0.0]
['beep', 0.0, 1327.6936206452394, 0.0, 0.0, 0.0, 0.0, -931.665412386109, 0.0]
['beep', 0.0, 1328.1183037898904, 0.0, 0.0, 0.0, 0.0, -929.698458874042, 0.0]
['beep', 0.0, 1328.5876904234517, 0.0, 0.0, 0.0, 0.0, -929.6090518962208, 0.0]
['beep', 0.0, 1328.7218008901837, 0.0, 0.0, 0.0, 0.0, -930.8831013301732, 0.0]
['beep', 0.0, 1327.6265654118736, 0.0, 0.0, 0.0, 0.0, -931.3301362192793, 0.0]
['beep', 0.0, 1328.5653386789966, 0.0, 0.0, 0.0, 0.0, -930.0784385297821, 0.0]
['beep', 0.0, 1328.0512485565243, 0.0, 0.0, 0.0, 0.0, -929.407886196123, 0.0]
['beep', 0.0, 1329.414704968298, 0.0, 0.0, 0.0, 0.0, -929.5196449183995, 0.0]
['beep', 0.0, 1328.2300625121668, 0.0, 0.0, 0.0, 0.0, -930.7042873745307, 0.0]
['beep', 0.0, 1328.2747660010775, 0.0, 0.0, 0.0, 0.0, -930.1007902742375, 0.0]
['beep', 0.0, 1329.9958503241362, 0.0, 0.0, 0.0, 0.0, -928.8043890958297, 0.0]
['beep', 0.0, 1329.6829259017618, 0.0, 0.0, 0.0, 0.0, -930.0784385297821, 0.0]
['beep', 0.0, 1328.6323939123624, 0.0, 0.0, 0.0, 0.0, -931.6430606416537, 0.0]
['beep', 0.0, 1327.0901235449462, 0.0, 0.0, 0.0, 0.0, -930.9948600524498, 0.0]
['beep', 0.0, 1327.5371584340523, 0.0, 0.0, 0.0, 0.0, -930.27960422988, 0.0]
['beep', 0.0, 1327.8947863453373, 0.0, 0.0, 0.0, 0.0, -930.436066441067, 0.0]
['beep', 0.0, 1329.1688357792898, 0.0, 0.0, 0.0, 0.0, -929.8325693407738, 0.0]
['beep', 0.0, 1329.615870668396, 0.0, 0.0, 0.0, 0.0, -929.698458874042, 0.0]
['beep', 0.0, 1329.9734985796808, 0.0, 0.0, 0.0, 0.0, -928.4244094400894, 0.0]
['beep', 0.0, 1328.1406555343456, 0.0, 0.0, 0.0, 0.0, -928.8714443291956, 0.0]
['beep', 0.0, 1328.4759317011753, 0.0, 0.0, 0.0, 0.0, -930.3690112077012, 0.0]
['beep', 0.0, 1327.3136409894994, 0.0, 0.0, 0.0, 0.0, -930.436066441067, 0.0]
['beep', 0.0, 1326.0842950444573, 0.0, 0.0, 0.0, 0.0, -928.9161478181062, 0.0]
['beep', 0.0, 1325.9278328332703, 0.0, 0.0, 0.0, 0.0, -928.9384995625616, 0.0]
['beep', 0.0, 1326.2854607445552, 0.0, 0.0, 0.0, 0.0, -928.826740840285, 0.0]
['beep', 0.0, 1326.128998533368, 0.0, 0.0, 0.0, 0.0, -929.631403640676, 0.0]
['beep', 0.0, 1326.4419229557423, 0.0, 0.0, 0.0, 0.0, -928.2008919955364, 0.0]
['beep', 0.0, 1328.1853590232563, 0.0, 0.0, 0.0, 0.0, -928.6255751401873, 0.0]
['beep', 0.0, 1327.9841933231585, 0.0, 0.0, 0.0, 0.0, -928.4244094400894, 0.0]
['beep', 0.0, 1327.2242340116782, 0.0, 0.0, 0.0, 0.0, -927.9997262954387, 0.0]
['beep', 0.0, 1327.3359927339545, 0.0, 0.0, 0.0, 0.0, -928.5138164179107, 0.0]
['beep', 0.0, 1328.5653386789966, 0.0, 0.0, 0.0, 0.0, -929.4749414294889, 0.0]
['beep', 0.0, 1327.5371584340523, 0.0, 0.0, 0.0, 0.0, -929.1620170071146, 0.0]
['beep', 0.0, 1327.8277311119714, 0.0, 0.0, 0.0, 0.0, -929.3855344516677, 0.0]
['beep', 0.0, 1327.7606758786055, 0.0, 0.0, 0.0, 0.0, -929.4525896850336, 0.0]
['beep', 0.0, 1326.3748677223764, 0.0, 0.0, 0.0, 0.0, -929.0949617737487, 0.0]
['beep', 0.0, 1326.6654404002954, 0.0, 0.0, 0.0, 0.0, -929.2514239849359, 0.0]
['beep', 0.0, 1327.0230683115803, 0.0, 0.0, 0.0, 0.0, -928.3573542067236, 0.0]
['beep', 0.0, 1326.4195712112871, 0.0, 0.0, 0.0, 0.0, -928.6479268846425, 0.0]
['beep', 0.0, 1324.519672932586, 0.0, 0.0, 0.0, 0.0, -928.4914646734554, 0.0]
['beep', 0.0, 1326.3748677223764, 0.0, 0.0, 0.0, 0.0, -930.0113832964163, 0.0]
['beep', 0.0, 1328.3418212344434, 0.0, 0.0, 0.0, 0.0, -930.1454937631481, 0.0]
['beep', 0.0, 1329.9958503241362, 0.0, 0.0, 0.0, 0.0, -929.0949617737487, 0.0]
['beep', 0.0, 1331.1134375469014, 0.0, 0.0, 0.0, 0.0, -930.1678455076034, 0.0]
['beep', 0.0, 1332.7004114032284, 0.0, 0.0, 0.0, 0.0, -929.9666798075057, 0.0]
['beep', 0.0, 1333.6838881592619, 0.0, 0.0, 0.0, 0.0, -927.6420983841538, 0.0]
['beep', 0.0, 1334.9579375932144, 0.0, 0.0, 0.0, 0.0, -927.6420983841538, 0.0]
['beep', 0.0, 1335.2038067822227, 0.0, 0.0, 0.0, 0.0, -927.7762088508856, 0.0]
['beep', 0.0, 1333.4603707147087, 0.0, 0.0, 0.0, 0.0, -927.5750431507878, 0.0]
['beep', 0.0, 1331.0240305690802, 0.0, 0.0, 0.0, 0.0, -928.0444297843493, 0.0]
['beep', 0.0, 1330.197016024234, 0.0, 0.0, 0.0, 0.0, -926.8150838393074, 0.0]
['beep', 0.0, 1330.7558096356165, 0.0, 0.0, 0.0, 0.0, -926.8374355837626, 0.0]
['beep', 0.0, 1330.6440509133402, 0.0, 0.0, 0.0, 0.0, -928.6479268846425, 0.0]
['beep', 0.0, 1330.062905557502, 0.0, 0.0, 0.0, 0.0, -928.3350024622682, 0.0]
['beep', 0.0, 1329.5711671794854, 0.0, 0.0, 0.0, 0.0, -928.7373338624637, 0.0]
['beep', 0.0, 1329.2135392682003, 0.0, 0.0, 0.0, 0.0, -928.2902989733576, 0.0]
['beep', 0.0, 1330.9569753357143, 0.0, 0.0, 0.0, 0.0, -927.1727117505923, 0.0]
['beep', 0.0, 1330.2193677686892, 0.0, 0.0, 0.0, 0.0, -928.3797059511788, 0.0]
['beep', 0.0, 1329.9734985796808, 0.0, 0.0, 0.0, 0.0, -929.2737757293911, 0.0]
['beep', 0.0, 1330.129960790868, 0.0, 0.0, 0.0, 0.0, -930.1901972520587, 0.0]
['beep', 0.0, 1329.4594084572088, 0.0, 0.0, 0.0, 0.0, -928.8490925847403, 0.0]
['beep', 0.0, 1330.6887544022507, 0.0, 0.0, 0.0, 0.0, -928.0444297843493, 0.0]
['beep', 0.0, 1331.1357892913568, 0.0, 0.0, 0.0, 0.0, -928.3573542067236, 0.0]
['beep', 0.0, 1331.6722311582841, 0.0, 0.0, 0.0, 0.0, -929.0279065403828, 0.0]
['beep', 0.0, 1332.6333561698623, 0.0, 0.0, 0.0, 0.0, -928.7820373513744, 0.0]
['beep', 0.0, 1332.1192660473903, 0.0, 0.0, 0.0, 0.0, -926.6362698836649, 0.0]
['beep', 0.0, 1332.4321904697647, 0.0, 0.0, 0.0, 0.0, -928.4020576956342, 0.0]
['beep', 0.0, 1331.6051759249183, 0.0, 0.0, 0.0, 0.0, -929.050258284838, 0.0]
['beep', 0.0, 1332.1863212807561, 0.0, 0.0, 0.0, 0.0, -928.7373338624637, 0.0]
['beep', 0.0, 1331.6275276693736, 0.0, 0.0, 0.0, 0.0, -929.0726100292934, 0.0]
['beep', 0.0, 1331.4263619692758, 0.0, 0.0, 0.0, 0.0, -928.6479268846425, 0.0]
['beep', 0.0, 1331.9851555806586, 0.0, 0.0, 0.0, 0.0, -929.5196449183995, 0.0]
['beep', 0.0, 1333.4603707147087, 0.0, 0.0, 0.0, 0.0, -928.7373338624637, 0.0]
['beep', 0.0, 1332.2980800030327, 0.0, 0.0, 0.0, 0.0, -927.2397669839581, 0.0]
['beep', 0.0, 1331.8957486028373, 0.0, 0.0, 0.0, 0.0, -928.9608513070168, 0.0]
['beep', 0.0, 1332.6557079143176, 0.0, 0.0, 0.0, 0.0, -930.7489908634413, 0.0]
['beep', 0.0, 1332.387486980854, 0.0, 0.0, 0.0, 0.0, -929.6537553851314, 0.0]
['beep', 0.0, 1331.3369549914546, 0.0, 0.0, 0.0, 0.0, -929.3855344516677, 0.0]
['beep', 0.0, 1332.7451148921389, 0.0, 0.0, 0.0, 0.0, -930.212548996514, 0.0]
['beep', 0.0, 1333.4156672257982, 0.0, 0.0, 0.0, 0.0, -930.5478251633436, 0.0]
['beep', 0.0, 1333.5721294369853, 0.0, 0.0, 0.0, 0.0, -930.8831013301732, 0.0]
['beep', 0.0, 1333.348611992432, 0.0, 0.0, 0.0, 0.0, -930.8607495857179, 0.0]
['beep', 0.0, 1332.678059658773, 0.0, 0.0, 0.0, 0.0, -928.9161478181062, 0.0]
['beep', 0.0, 1332.9462805922367, 0.0, 0.0, 0.0, 0.0, -929.4302379405783, 0.0]
['beep', 0.0, 1332.7674666365942, 0.0, 0.0, 0.0, 0.0, -930.8607495857179, 0.0]
['beep', 0.0, 1332.6333561698623, 0.0, 0.0, 0.0, 0.0, -928.6479268846425, 0.0]
['beep', 0.0, 1331.7169346471949, 0.0, 0.0, 0.0, 0.0, -928.3573542067236, 0.0]
['beep', 0.0, 1332.4545422142198, 0.0, 0.0, 0.0, 0.0, -931.0395635413604, 0.0]
['beep', 0.0, 1333.035687570058, 0.0, 0.0, 0.0, 0.0, -930.212548996514, 0.0]
['beep', 0.0, 1332.83452186996, 0.0, 0.0, 0.0, 0.0, -929.1620170071146, 0.0]
['beep', 0.0, 1331.2028445247227, 0.0, 0.0, 0.0, 0.0, -929.0055547959274, 0.0]
['beep', 0.0, 1331.1357892913568, 0.0, 0.0, 0.0, 0.0, -928.7149821180085, 0.0]
['beep', 0.0, 1331.001678824625, 0.0, 0.0, 0.0, 0.0, -928.1561885066258, 0.0]
