[[916.890909301151, 916.2874122008577, 916.4885779009555, 917.7402755904527, 918.4555314130225, 918.2767174573801, 917.5614616348103, 917.3155924458018, 919.439008169056, 919.4613599135113, 919.9530982915281, 919.0590285133158, 917.6732203570867, 917.5614616348103, 919.9754500359834, 920.1095605027152, 918.6790488575756, 918.2320139684695, 919.3048977023242, 920.5789471362767, 919.2378424689582, 917.5167581458996, 917.1144267457041, 917.472054656989, 918.1649587351035, 917.2932407013466, 916.3321156897683, 915.7733220783857, 916.9579645345169, 918.7684558353968, 918.9919732799499, 917.5614616348103, 918.0084965239164, 918.2990692018353, 918.4108279241119, 917.8520343127292, 917.0473715123381, 917.0026680234275, 918.4555314130225, 918.8355110687627, 919.1707872355923, 916.7791505788745, 916.0638947563046, 917.472054656989, 918.0308482683716, 917.8520343127292, 916.5556331343214, 918.3437726907459, 917.986144779461, 918.634345368665, 919.5284151468773, 917.8743860571846, 917.8967378016398, 918.8355110687627, 920.9812785364722, 919.7519325914303, 917.1144267457041, 917.0026680234275, 918.6790488575756, 920.310726202813, 918.9025663021287, 918.2990692018353, 919.2378424689582, 918.0755517572823, 918.9249180465839, 919.9083948026175, 919.5060634024219, 918.4555314130225, 920.2660227139024, 920.4001331806343, 919.7295808469751, 917.8296825682739, 918.2543657129247, 920.1319122471706, 920.0648570138046, 919.7519325914303, 917.7849790793633, 917.0026680234275, 917.7849790793633, 919.0813802577711, 918.7014006020308, 917.6061651237209, 917.5167581458996, 918.1873104795588, 919.0366767688605, 918.3437726907459, 917.8743860571846, 916.8238540677851, 918.1873104795588, 919.7519325914303, 919.7519325914303, 919.2825459578688, 920.2660227139024, 921.7412378479527, 923.8646535712069, 923.2164529820029, 920.7354093474638, 920.08720875826, 920.1542639916258, 920.0648570138046, 919.1260837466817, 917.18148197907, 917.2932407013466, 917.8520343127292, 917.8520343127292, 918.6119936242096, 917.3826476791678, 916.2874122008577, 918.567290135299, 920.7577610919192, 918.7908075798521, 918.7014006020308, 918.1202552461929, 919.3272494467794, 920.310726202813, 919.5284151468773, 919.2378424689582, 918.8131593243074, 920.1766157360812, 921.0706855142935, 920.7354093474638, 918.3437726907459, 919.3496011912348, 920.08720875826, 920.6907058585532, 921.2494994699359, 919.5731186357879, 918.857862813218, 919.5284151468773, 920.8695198141957, 920.2436709694471, 917.6732203570867, 919.1260837466817, 919.8636913137069, 919.2601942134136, 920.1095605027152, 918.5225866463884, 919.4166564246007, 919.3496011912348, 919.2825459578688, 919.0590285133158, 918.7908075798521, 917.9637930350058, 918.8802145576733, 920.2436709694471, 918.7237523464862, 919.1260837466817, 919.5284151468773, 920.6907058585532, 921.5624238923102, 920.4671884140001, 919.2378424689582, 919.5954703802432, 921.2494994699359, 921.5177204033996, 921.8306448257739, 920.7354093474638, 920.4001331806343, 921.1600924921147, 922.3670866927013, 922.5906041372543, 921.7412378479527, 920.3554296917237, 921.5847756367655, 922.7247146039862, 922.9035285596286, 920.8471680697404, 919.7519325914303, 921.4506651700336, 922.5011971594331, 921.3612581922124, 920.5342436473661, 920.08720875826, 920.3554296917237, 920.5118919029107, 920.4224849250895, 920.2213192249918, 918.053200012827, 920.0648570138046, 922.1882727370588, 921.5400721478549, 919.7966360803409, 920.5342436473661, 920.020153524894, 921.405961681123, 921.8529965702292, 919.9978017804387, 920.6236506251873, 921.5847756367655, 921.8753483146845, 922.2106244815141, 920.8471680697404, 920.5118919029107, 920.3777814361789, 921.9200518035951, 921.2047959810253, 920.5789471362767, 921.3836099366678, 920.6236506251873, 921.9647552925057, 922.0765140147822, 920.7354093474638, 919.7742843358857, 920.2660227139024, 921.6518308701314, 921.6741826145867, 920.8695198141957, 920.7577610919192, 920.9812785364722, 926.6139181392095, 927.2174152395029, 928.2232437399917, 927.9997262954387, 927.5750431507878, 927.1950634950475, 927.3515257062347, 929.2514239849359, 929.5419966628548, 927.9103193176174, 926.9938977949498, 928.1114850177152, 929.2961274738465, 929.6761071295866, 928.6255751401873, 926.792732094852, 927.7762088508856, 929.4525896850336, 929.698458874042, 928.7820373513744, 928.0891332732599, 928.0220780398939, 930.212548996514, 930.1454937631481, 929.407886196123, 929.1396652626593, 928.5138164179107, 930.0560867853269, 931.0395635413604, 930.0113832964163, 929.1620170071146, 929.8996245741397, 931.084267030271, 930.9725083079944, 930.4584181855224, 929.631403640676, 929.8996245741397, 930.9948600524498, 930.6819356300755, 929.5419966628548, 928.2679472289024, 928.9832030514722, 931.1736740080922, 930.5925286522543, 929.6761071295866, 929.7878658518632, 930.9278048190838, 931.955985064028, 933.118275775704, 931.6877641305643, 930.6595838856201, 930.6819356300755, 931.9336333195727, 931.9112815751174, 931.8218745972962, 930.7489908634413, 931.1960257525475, 933.051220542338, 932.7382961199637, 931.0395635413604, 931.1289705191816, 930.9725083079944, 931.8665780862068, 931.017211796905, 930.7042873745307, 929.8549210852291, 929.8772728296844, 931.732467619475, 932.6041856532319, 930.8831013301732, 930.5254734188883, 930.9725083079944, 932.3583164642235, 931.8218745972962, 930.4137146966118, 930.3019559743352, 929.8325693407738, 930.8607495857179, 930.8160460968073, 930.436066441067, 930.212548996514, 929.4749414294889, 931.2183774970028, 930.9501565635392, 930.9501565635392, 929.9890315519609, 930.2349007409694, 931.5313019193771, 931.7101158750196, 931.9783368084833, 930.9725083079944, 933.4312001980783, 935.5546159213325, 937.4992176889441, 935.6440228991537, 933.6770693870866, 929.9666798075057, 930.4807699299777, 936.3369269772681, 935.5769676657877, 935.2863949878687, 936.0463542993492, 942.2601392579245, 942.6401189136648, 941.6566421576313, 940.8743311016955, 940.695517146053, 941.1425520351592, 940.9190345906061, 939.9355578345726, 939.309708989824, 936.5604444218212, 937.052182799838, 936.4486856995447, 934.4817321874776, 933.6547176426313, 932.9841653089721, 934.0346972983715, 935.3981537101453, 935.2863949878687, 934.6605461431201, 935.8004851103408, 937.6109764112207, 936.5157409329106, 936.0016508104386, 935.6216711546983, 934.1017525317375, 935.2416914989581, 936.9404240775615, 934.3029182318352, 933.7217728759972, 936.1581130216257, 936.8510170997403, 936.8286653552849, 936.6274996551872, 936.2922234883575, 935.666374643609, 936.5827961662766, 936.9404240775615, 937.3651072222123, 937.342755477757, 938.1250665336927, 939.6449851566537, 940.4719997015, 938.728563633986, 937.9015490891396, 938.2591770004245, 939.3544124787346, 940.3155374903129, 938.9744328229943, 938.7509153784413, 940.1590752791257, 941.5895869242653, 942.9753950804943, 940.8072758683296, 939.7343921344749, 940.5837584237765, 941.4107729686228, 942.4166014691117, 941.2543107574357, 938.5497496783436, 937.8344938557738, 942.148380535648, 943.8694648587067, 942.2824910023799, 942.6401189136648, 945.56819743731, 945.501142203944, 943.2659677584134, 941.857807857729, 942.5283601913882, 944.6741276590977, 944.8082381258296, 943.6459474141536, 944.8305898702848, 944.919996848106, 941.924863091095, 941.857807857729, 944.6070724257318, 942.9306915915837, 939.8685026012067, 938.3262322337905, 941.9472148355502, 942.5283601913882, 939.019136311905, 937.6333281556759, 938.4826944449776, 940.9860898239721, 941.1872555240698, 938.9520810785391, 937.342755477757, 939.1755985230922, 940.2261305124916, 940.8072758683296, 940.8519793572402, 938.66150840062, 939.3320607342793, 941.8354561132737, 942.4166014691117, 940.9190345906061, 940.2931857458575, 940.9413863350615, 941.1425520351592, 941.6119386687207, 941.5225316908994, 940.1367235346704, 940.2931857458575, 942.3718979802011, 942.3495462357457, 941.6342904131759, 941.3660694797122, 941.0307933128827, 941.857807857729, 942.5507119358435, 941.1425520351592, 941.2990142463464, 940.8966828461508, 941.2096072685251, 943.4894852029664, 941.6119386687207, 939.1532467786368, 940.695517146053, 941.0307933128827, 941.3660694797122, 940.7178688905084, 939.6226334121983, 940.5167031904106, 940.8519793572402, 942.5954154247542, 942.3048427468351, 939.7567438789301, 940.2484822569469, 942.8859881026731, 941.3660694797122, 941.7907526243631, 941.8131043688184, 940.9860898239721, 942.9977468249497, 943.310671247324, 942.081325302282, 941.4554764575335, 941.5895869242653, 943.1542090361368, 943.6459474141536, 942.66247065812, 941.9695665800056, 941.3213659908016, 943.6459474141536, 942.66247065812, 941.6342904131759, 942.148380535648, 941.2543107574357, 938.8626741007179, 935.889892088162, 935.2640432434134, 938.147418278148, 941.2096072685251, 942.2601392579245, 945.2105695260251, 943.1095055472261, 942.8636363582178, 941.5448834353547, 939.8014473678408, 936.4039822106341, 939.3767642231899, 939.6673369011089, 935.5546159213325, 935.6887263880643, 939.1532467786368, 938.5721014227988, 937.5215694333995, 937.5886246667653, 938.4156392116117, 938.7062118895307, 937.7897903668631, 937.342755477757, 936.1134095327151, 936.8286653552849, 935.7781333658855, 935.9345955770726, 933.3864967091677, 934.3699734652012, 936.1581130216257, 937.7897903668631, 936.6722031440978, 935.4875606879665, 936.6274996551872, 938.505046189433, 937.7450868779525, 937.0745345442933, 936.4039822106341, 937.7897903668631, 938.0803630447821, 938.147418278148, 938.6838601450754, 937.9462525780502, 939.1755985230922, 940.6284619126872, 940.6284619126872, 939.1308950341815, 938.5497496783436, 938.2368252559693, 939.4214677121006, 938.6391566561648, 939.9802613234832, 938.9967845674497, 937.2309967554804, 938.3485839782458, 938.1697700226033, 938.1250665336927, 937.4545142000335, 936.8286653552849, 938.6391566561648, 938.7732671228966, 938.3709357227011, 937.2086450110252, 938.1250665336927, 939.3991159676452, 940.7402206349636, 939.5108746899218, 937.7227351334972, 938.0580113003268, 939.8461508567514, 940.4719997015, 938.5273979338882, 937.7450868779525, 937.0745345442933, 938.4603427005223, 938.8626741007179, 938.147418278148, 937.5886246667653, 936.9851275664721, 938.505046189433, 939.2873572453686, 937.7897903668631, 937.4098107111229, 938.1250665336927, 940.4049444681341, 939.8461508567514, 939.4214677121006, 939.7567438789301, 940.7849241238742, 941.9472148355502, 943.5118369474218, 943.9812235809832, 943.3553747362346, 941.8801596021843, 942.3495462357457, 942.8636363582178, 941.0754968017933, 938.9520810785391, 937.6109764112207, 939.9132060901173, 940.5837584237765, 939.6673369011089, 938.505046189433, 938.8850258451731, 940.0249648123938, 940.181427023581, 939.4214677121006, 938.7956188673519, 938.7062118895307, 939.6896886455643, 941.8131043688184, 939.7567438789301, 937.9909560669608, 939.2873572453686, 938.3932874671564, 939.7567438789301, 939.9132060901173, 937.7450868779525, 938.4603427005223, 939.7790956233855, 939.5555781788324, 940.3155374903129, 939.8685026012067, 938.8626741007179, 939.6449851566537, 939.6449851566537, 939.7790956233855, 938.1250665336927, 940.0920200457598, 940.6061101682318, 940.8966828461508, 940.8519793572402, 940.0249648123938, 939.5332264343771, 940.9637380795167, 942.0366218133714, 940.2931857458575, 938.8626741007179, 938.9967845674497, 940.1590752791257, 941.6119386687207, 940.695517146053, 940.0920200457598, 940.2931857458575, 939.957909579028, 940.8296276127849, 940.9860898239721, 940.4719997015, 940.0473165568492, 941.2990142463464, 942.2377875134692, 942.3271944912905, 941.3660694797122, 941.1872555240698, 941.9695665800056, 942.1930840245586, 941.9695665800056, 940.8072758683296, 940.695517146053, 940.695517146053, 942.5283601913882, 941.9472148355502, 940.0696683013044, 939.890854345662, 940.9637380795167, 941.7013456465419, 942.0366218133714, 940.3602409792235, 939.3544124787346, 940.7178688905084, 941.8131043688184, 941.8354561132737, 940.0920200457598, 939.7567438789301, 941.1425520351592, 940.8519793572402, 939.8014473678408, 939.2203020120028, 939.6673369011089, 941.2096072685251, 942.6848224025754, 940.4719997015, 938.147418278148, 940.695517146053, 942.8859881026731, 943.0424503138603, 941.0978485462485, 940.114371790215, 939.9132060901173, 941.5225316908994, 941.2319590129804, 939.9802613234832, 939.309708989824, 939.9132060901173, 939.6896886455643, 940.6284619126872, 941.3213659908016, 940.0249648123938, 938.9520810785391, 940.3602409792235, 941.1872555240698, 939.8461508567514, 939.5332264343771, 938.9520810785391, 939.2873572453686, 939.957909579028, 939.957909579028, 939.6896886455643, 940.9413863350615, 941.0754968017933, 941.4778282019888, 940.9860898239721, 940.4049444681341, 940.3155374903129, 941.2096072685251, 942.7071741470306, 941.5225316908994, 940.3602409792235, 940.9860898239721, 941.6566421576313, 942.2377875134692, 941.9025113466396, 941.276662501891, 940.6284619126872, 941.9695665800056, 943.243616013958, 942.5283601913882, 941.56723517981, 942.5730636802988, 944.919996848106, 944.3164997478128, 943.4447817140558, 942.9753950804943, 943.5565404363324, 943.4894852029664, 942.9753950804943, 944.3388514922681, 942.6401189136648, 942.5507119358435, 945.6799561595865, 946.149342793148, 944.2270927699916, 943.1095055472261, 942.6177671692094, 942.7742293803966, 942.8859881026731, 942.8859881026731, 941.8801596021843, 940.7178688905084, 942.9753950804943, 944.8305898702848, 942.9083398471284, 941.8801596021843, 942.1930840245586, 942.66247065812, 942.9083398471284, 943.1765607805921, 941.9919183244608, 942.1930840245586, 943.2212642695027, 944.4282584700893, 943.243616013958, 942.8636363582178, 942.9977468249497, 944.182389281081, 944.8752933591954, 944.4729619589999, 942.4613049580223, 943.2659677584134, 944.0929823032598, 944.8305898702848, 943.7353543919749, 941.8354561132737, 942.6401189136648, 943.8694648587067, 943.4671334585112, 944.182389281081, 943.5118369474218, 941.8801596021843, 943.8694648587067, 943.5118369474218, 943.1095055472261, 942.4836567024776, 942.5507119358435, 943.0200985694049, 943.1095055472261, 944.3612032367234, 943.1318572916815], [-2139.5983862398134, -2139.37486879526, -2140.0454211289193, -2140.7830286959447, -2140.8724356737657, -2140.0454211289193, -2138.99488913952, -2140.2018833401066, -2140.9394909071316, -2139.2407583285285, -2140.671269973668, -2140.8724356737657, -2140.7830286959447, -2141.341822307327, -2141.0065461404974, -2141.341822307327, -2142.9064444191986, -2141.766505451978, -2141.1630083516848, -2142.9734996525644, -2143.442886286126, -2141.4982845185145, -2142.705278719101, -2143.219368841573, -2143.5546450084025, -2142.325299063361, -2142.794685696922, -2142.057078129897, -2140.894787418221, -2142.9511479081093, -2142.4594095300927, -2141.341822307327, -2142.6605752301903, -2142.3029473189054, -2142.9511479081093, -2142.5711682523693, -2141.2524153295058, -2141.0065461404974, -2141.2300635850506, -2142.325299063361, -2142.1464851077185, -2141.766505451978, -2141.7888571964336, -2141.475932774059, -2142.392354296727, -2141.9006159187097, -2142.5711682523693, -2143.085258374841, -2142.124133363263, -2142.682926974646, -2141.766505451978, -2141.4982845185145, -2142.325299063361, -2142.392354296727, -2142.0123746409863, -2141.431229285148, -2140.894787418221, -2141.0065461404974, -2140.760676951489, -2141.453581029604, -2141.610043240791, -2140.403049040204, -2140.537159506936, -2141.2747670739614, -2142.2358920855395, -2142.3029473189054, -2140.6489182292125, -2140.894787418221, -2141.1406566072296, -2141.4982845185145, -2141.341822307327, -2142.034726385442, -2142.481761274548, -2142.928796163654, -2144.024031641964, -2143.353479308305, -2141.431229285148, -2142.5264647634585, -2142.6605752301903, -2143.1970170971176, -2144.448714786615, -2142.772333952467, -2141.542988007425, -2141.8559124297994, -2141.386525796238, -2142.347650807816, -2142.5488165079137, -2142.727630463556, -2143.4875897750367, -2143.1970170971176, -2142.5041130190034, -2141.990022896531, -2142.034726385442, -2142.414706041182, -2141.610043240791, -2142.347650807816, -2141.386525796238, -2140.3359938068384, -2141.967671152076, -2142.1911885966288, -2141.2300635850506, -2142.347650807816, -2142.437057785637, -2142.124133363263, -2141.475932774059, -2141.610043240791, -2143.286424074939, -2142.5488165079137, -2142.1464851077185, -2143.1076101192966, -2141.990022896531, -2142.9511479081093, -2143.308775819394, -2143.5322932639474, -2143.800514197411, -2143.8899211752323, -2143.1076101192966, -2143.509941519492, -2144.1134386197855, -2142.6605752301903, -2143.8899211752323, -2143.956976408598, -2142.7499822080117, -2142.6158717412795, -2143.8899211752323, -2144.247549086517, -2144.4710665310704, -2144.6275287422573, -2144.9181014201763, -2144.336956064338, -2143.420534541671, -2143.062906630386, -2142.772333952467, -2144.404011297704, -2145.834522942844, -2144.9404531646314, -2143.934624664143, -2144.5604735088914, -2145.611005498291, -2145.923929920665, -2147.0862206323413, -2145.5886537538354, -2144.448714786615, -2145.029860142453, -2146.326261320861, -2146.303909576405, -2146.4603717875925, -2146.0803921318525, -2144.9181014201763, -2144.336956064338, -2145.678060731657, -2145.0075083979978, -2144.4710665310704, -2145.9462816651203, -2145.7898194539334, -2144.694583975623, -2145.18632235364, -2144.7169357200787, -2145.029860142453, -2146.99681365452, -2145.387488053738, -2145.611005498291, -2145.119267120274, -2146.0356886429418, -2146.4380200431374, -2145.275729331461, -2144.001679897509, -2144.895749675721, -2144.5157700199807, -2144.404011297704, -2145.0745636313636, -2144.448714786615, -2144.895749675721, -2144.9181014201763, -2145.5886537538354, -2145.476895031559, -2146.348613065316, -2145.4992467760144, -2145.968633409576, -2145.923929920665, -2145.7451159650227, -2146.1027438763076, -2144.9404531646314, -2145.1639706091846, -2145.8792264317544, -2145.700412476112, -2145.029860142453, -2145.7227642205676, -2146.4603717875925, -2145.767467709478, -2145.8792264317544, -2145.1416188647295, -2145.834522942844, -2146.415668298682, -2145.633357242746, -2144.739287464534, -2144.5157700199807, -2145.5215985204695, -2146.415668298682, -2146.929758421154, -2146.4827235320477, -2146.5944822543242, -2146.1250956207627, -2145.3651363092827, -2146.0356886429418, -2147.5332555214472, -2147.242682843528, -2147.1756276101623, -2146.7509444655116, -2150.4389823006372, -2150.7295549785563, -2151.4001073122154, -2151.489514290037, -2150.7519067230114, -2151.891845690232, -2151.489514290037, -2150.550741022914, -2150.863665445288, -2152.09301139033, -2153.5235230354697, -2152.7188602350784, -2152.517694534981, -2153.0764881463633, -2151.221293356573, -2149.8801886892547, -2149.90254043371, -2150.573092767369, -2151.9365491791427, -2152.3388805793384, -2151.198941612118, -2151.511866034492, -2151.489514290037, -2151.578921267858, -2151.578921267858, -2151.869493945777, -2152.607101512802, -2152.7188602350784, -2151.891845690232, -2152.227121857062, -2151.4001073122154, -2151.3777555677602, -2152.741211979534, -2153.836447457844, -2152.9647294240867, -2154.864627702788, -2153.1658951241848, -2152.182418368151, -2151.6236247567685, -2152.09301139033, -2151.7130317345895, -2150.8189619563773, -2151.131886378752, -2150.796610211922, -2150.774258467467, -2150.886017189743, -2151.3777555677602, -2151.0424794009305, -2150.573092767369, -2151.221293356573, -2150.506037534003, -2150.7072032341007, -2151.4001073122154, -2150.9083689341987, -2150.6177962562797, -2151.131886378752, -2152.3388805793384, -2151.7800869679554, -2151.176589867662, -2151.0648311453856, -2151.243645101028, -2151.6459765012237, -2151.802438712411, -2151.5565695234027, -2151.6236247567685, -2151.131886378752, -2151.176589867662, -2151.4671625455812, -2151.288348589939, -2150.215464856084, -2150.6848514896456, -2151.154238123207, -2151.221293356573, -2151.288348589939, -2150.148409622718, -2151.2659968454836, -2153.858799202299, -2153.143543379729, -2152.2941770904276, -2150.9083689341987, -2150.349575322816, -2151.601273012313, -2151.9812526680535, -2152.115363134785, -2152.025956156964, -2151.601273012313, -2151.9365491791427, -2153.143543379729, -2153.2776538464614, -2152.6741567461677, -2151.2659968454836, -2150.4389823006372, -2150.1037061338075, -2150.3942788117265, -2150.483685789548, -2148.270863088472, -2148.9414154221317, -2147.1979793546175, -2140.671269973668, -2135.508017004492, -2128.400162267704, -2122.834577898333, -2115.5255574614475, -2109.9823248365315, -2105.7801968789336, -2099.4323014536267, -2090.93863856061, -2088.055263525875, -2084.255466968473, -2080.2992081998837, -2077.5052401429703, -2075.895914542188, -2073.5936848632914, -2070.129164472719, -2069.860943539255, -2067.3351964158055, -2063.3789376472164, -2064.7200423145346, -2064.384766147705, -2062.417812635638, -2061.032004479409, -2062.4401643800934, -2064.384766147705, -2064.831801036811, -2065.3905946481937, -2064.4741731255262, -2065.256484181462, -2067.2681411824396, -2066.3964231486825, -2068.74335631649, -2070.084460983808, -2069.033928994409, -2070.0174057504423, -2071.31380692885, -2074.21953370804, -2076.0076732644648, -2076.834687809311, -2078.6228273657357, -2077.7734610764337, -2078.55577213237, -2079.8521733107773, -2080.232152966518, -2078.6228273657357, -2079.583952377314, -2081.1038710002745, -2081.193277978096, -2080.2992081998837, -2083.3390454458054, -2082.5343826454146, -2081.8861820562106, -2083.450804168082, -2083.093176256797, -2083.070824512342, -2083.137879745708, -2083.763728590456, -2084.41192917966, -2083.428452423627, -2083.0484727678863, -2084.2331152240176, -2083.026121023431, -2082.8920105566995, -2083.0037692789756, -2080.209801222062, -2080.1427459886963, -2074.8453825527886, -2072.6325598517133, -2073.6607400966573, -2069.3245016723276, -2069.0786324833193, -2064.831801036811, -2062.4401643800934, -2062.060184724353, -2060.8531905237664, -2061.0767079683196, -2057.45572536656, -2051.9571962305545, -2048.649138051169, -2051.4654578525374, -2051.867789252733, -2048.5597310733474, -2048.35856537325, -2045.2293211495069, -2045.7210595275235, -2044.379954860205, -2045.5869490607918, -2043.8211612488226, -2042.4353530925935, -2044.5364170713924, -2044.9834519604985, -2043.0164984484315, -2042.7929810038784, -2044.0223269489202, -2045.2293211495069, -2046.3469083722723, -2043.932919971099, -2042.2118356480405, -2044.3352513712946, -2044.9611002160432, -2046.324556627817, -2045.676356038613, -2046.481018839004, -2047.5539025728588, -2046.2127979055404, -2046.1680944166299, -2046.9280537281102, -2045.8328182498, -2045.4081351051493, -2045.7657630164342, -2045.4528385940598, -2045.2740246384174, -2044.9834519604985, -2043.8211612488226, -2046.2798531389062, -2046.7268880280124, -2044.0893821822863, -2043.5976438042694, -2044.871693238222, -2045.676356038613, -2045.542245571881, -2046.615129305736, -2046.3916118611828, -2045.899873483166, -2043.6646990376353, -2044.8269897493112, -2045.0058037049537, -2047.2186264060292, -2047.352736872761, -2046.2127979055404, -2045.8104665053447, -2045.6540042941576, -2044.6928792825795, -2045.2293211495069, -2045.2963763828727, -2043.8882164821885, -2043.5305885709035, -2043.4635333375377, -2045.1846176605961, -2046.481018839004, -2046.2798531389062, -2044.8269897493112, -2043.4411815930823, -2043.9776234600097, -2045.318728127328, -2046.7268880280124, -2045.899873483166, -2046.5033705834594, -2047.1739229171185, -2048.6267863067137, -2047.799771761867, -2047.129219428208, -2054.9523299875655, -2067.893990027188, -2078.131088987719, -2087.2058972365735, -2094.7160833735566, -2102.0474555548976, -2112.731589404534, -2121.605231953291, -2130.5012262465034, -2139.821903684366, -2147.1085723767965, -2153.3894125687375, -2161.1231161502737, -2167.515715064492, -2171.091994177341, -2177.484593091559, -2181.6643693047013, -2184.14541293924, -2188.258133919017, -2187.5205263519915, -2185.8217937733884, -2185.933552495665, -2185.2406484175503, -2185.441814117648, -2185.2406484175503, -2184.346578639338, -2184.14541293924, -2185.151241439729, -2184.8383170173547, -2183.5195640944917, -2182.960770483109, -2182.9384187386536, -2183.832488516866, -2184.033654216964, -2183.2513431610278, -2182.5584390829135, -2183.027825716475, -2182.893715249743, -2181.798479771433, -2181.127927437774, -2181.731424538067, -2180.47972684857, -2179.563305325902, -2179.317436136894, -2179.7868227704553, -2179.0268634589747, -2177.6634070472014, -2176.411709357704, -2178.1327936807625, -2177.23872390255, -2176.277598890972, -2176.411709357704, -2175.6517500462237, -2175.316473879394, -2171.986063955553, -2166.778107497467, -2165.2358371300506, -2163.6488632737237, -2161.90542720621, -2161.90542720621, -2160.8548952168103, -2162.4642208175924, -2161.8160202283884, -2163.917084207187, -2163.671215018179, -2163.179476640162, -2162.8442004733324, -2163.3582905958046, -2163.1124214067963, -2162.643034773235, -2161.95013069512, -2162.7324417510563, -2163.179476640162, -2164.0064911850086, -2163.447697573626, -2163.4924010625364, -2164.565284796391, -2163.0006626845197, -2163.6265115292686, -2162.955959195609, -2163.7829737404554, -2164.0958981628296, -2163.1347731512515, -2163.4924010625364, -2162.352462095316, -2162.218351628584, -2162.5312760509582, -2162.7771452399666, -2163.090069662341, -2163.537104551447, -2163.0006626845197, -2162.66538651769, -2162.7771452399666, -2162.6877382621456, -2163.0453661734305, -2161.614854528291, -2161.0337091724527, -2161.324281850372, -2161.279578361461, -2160.6537295167127, -2160.7878399834444, -2160.7207847500786, -2161.4360405726484, -2162.0618894173967, -2161.614854528291, -2161.4583923171035, -2161.704261506112, -2162.643034773235, -2163.4029940847154, -2162.7100900066007, -2161.480744061559, -2161.5030958060142, -2163.246531873528, -2162.643034773235, -2162.6206830287797, -2162.0395376729416, -2162.28540686195, -2162.352462095316, -2162.8442004733324, -2162.508924306503, -2162.0395376729416, -2162.3971655842265, -2161.838371972844, -2162.6877382621456, -2162.0842411618523, -2160.8101917278996, -2161.257226617006, -2162.66538651769, -2162.866552217788, -2161.860723717299, -2162.8442004733324, -2163.090069662341, -2160.8772469612654, -2161.279578361461, -2162.6206830287797, -2163.38064234026, -2164.207656885106, -2162.4418690731372, -2162.7771452399666, -2162.866552217788, -2160.899598705721, -2161.1678196391845, -2162.9112557066987, -2162.4195173286816, -2161.1678196391845, -2160.609026027802, -2160.989005683542, -2161.413688828193, -2160.899598705721, -2162.7771452399666, -2161.994834184031, -2162.3971655842265, -2163.313587106894, -2162.3971655842265, -2161.57015103938, -2161.8830754617543, -2161.0113574279976, -2163.179476640162, -2162.1289446507626, -2161.0113574279976, -2160.027880671964, -2159.37968008276, -2161.9724824395757, -2161.5254475504694, -2161.1678196391845, -2160.899598705721, -2160.765488238989, -2161.346633594827, -2161.0784126613635, -2159.960825438598, -2160.4972673055254, -2160.6537295167127, -2160.6537295167127, -2160.273749860972, -2161.5030958060142, -2161.2348748725503, -2160.273749860972, -2160.7207847500786, -2161.1007644058186, -2159.647901016224, -2159.8490667163214, -2160.0725841608746, -2158.7538312380116, -2159.7820114829556, -2159.245569616028, -2160.4525638166147, -2161.7936684839333, -2160.8548952168103, -2159.223217871573, -2159.2008661271175, -2158.5079620490033, -2157.5691887818803, -2160.1172876497853, -2161.1231161502737, -2160.7878399834444, -2159.7149562495897, -2159.4914388050365, -2159.4690870605814, -2158.0385754154418, -2158.217389371084, -2159.2008661271175, -2159.334976593849, -2158.575017282369, -2158.217389371084, -2158.3962033267267, -2159.089107404841, -2159.8714184607766, -2159.1338108937516, -2159.7820114829556, -2158.99970042702, -2158.5303137934584, -2159.603197527313, -2160.2290463720615, -2159.938473694143, -2159.357328338305, -2160.0055289275087, -2159.4914388050365, -2160.6537295167127, -2160.1619911386956, -2158.932645193654, -2158.865589960288, -2159.0667556603858, -2160.340805094338, -2160.3631568387937, -2158.5526655379135, -2159.245569616028, -2159.580845782858, -2159.290273104939, -2159.4243835716707, -2158.8432382158326, -2159.022052171475, -2159.6255492717683, -2158.9773486825643, -2159.0444039159306, -2158.575017282369, -2158.306796348905, -2160.0055289275087, -2159.5584940384024, -2159.1338108937516, -2158.575017282369, -2158.5973690268243, -2157.8821132042544, -2158.4632585600925, -2159.089107404841, -2159.603197527313, -2158.932645193654, -2158.28444460445, -2160.1172876497853, -2160.832543472355, -2159.312624849394, -2158.4856103045477, -2159.5584940384024, -2161.212523128095, -2159.580845782858, -2159.737307994045, -2160.0725841608746, -2159.938473694143, -2160.1172876497853, -2159.2679213604833, -2160.184342883151, -2160.2290463720615, -2158.709127749101, -2160.2066946276063, -2159.0444039159306, -2157.7927062264334, -2159.692604505134, -2158.798534726922, -2159.290273104939, -2159.8714184607766, -2160.318453349883, -2158.5526655379135, -2158.66442426019, -2159.5137905494917, -2159.6255492717683, -2159.37968008276, -2158.1279823932628, -2157.7480027375227, -2157.770354481978, -2157.435078315148, -2158.865589960288, -2159.223217871573, -2158.1056306488076, -2159.1785143826623, -2159.2008661271175, -2158.306796348905, -2158.3962033267267, -2158.1503341377183, -2158.306796348905, -2159.647901016224, -2158.5303137934584, -2159.0667556603858]]
[[950.9326161065836, 951.7149271625194, 953.212494041025, 952.2737207739021, 952.4525347295446, 951.2678922734133, 950.9996713399496, 953.0113283409272, 951.6031684402429, 951.2008370400473, 949.9714910950055, 950.5973399397541, 951.4243544846005, 952.6760521740977, 952.8548661297401, 952.2066655405362, 952.2737207739021, 953.5924736967652, 953.3689562522121, 951.4690579735111, 951.6925754180642, 953.0560318298378, 952.9442731075613, 952.0949068182597, 950.7090986620306, 950.150305050648, 950.5079329619329, 951.7149271625194, 951.826685884796, 951.2008370400473, 950.3514707507456, 951.5808166957876, 951.7149271625194, 951.0220230844049, 951.4467062290557, 950.5302847063881, 950.7090986620306, 951.3572992512345, 951.2678922734133, 952.0278515848937, 952.1396103071703, 953.2348457854803, 955.827648142296, 956.6993661760529, 956.341738264768, 953.503066718944, 952.0278515848937, 952.9442731075613, 952.8995696186507, 951.9831480959831, 950.9326161065836, 951.4914097179663, 952.631348685187, 952.3184242628128, 950.6196916842093, 951.0443748288602, 951.6702236736088, 952.6537004296423, 951.3796509956899, 951.7149271625194, 950.9996713399496, 950.7090986620306, 951.9607963515278, 952.340776007268, 951.6925754180642, 950.5749881952987, 951.0220230844049, 953.7042324190418, 954.307729519335, 951.9160928626172, 950.7538021509412, 951.0443748288602, 953.7489359079524, 953.6148254412205, 952.4525347295446, 952.7431074074635, 952.3854794961786, 952.7431074074635, 952.3854794961786, 952.0949068182597, 951.4243544846005, 952.6537004296423, 953.9724533525055, 953.8159911413182, 953.1230870632038, 949.9044358616395, 950.9996713399496, 953.3242527633015, 952.6089969407317, 952.0502033293491, 952.3184242628128, 952.2737207739021, 954.3300812637904, 955.0453370863602, 953.6148254412205, 952.6984039185529, 952.8995696186507, 953.7042324190418, 954.3971364971562, 953.5924736967652, 952.988976596472, 952.2513690294468, 952.9442731075613, 954.0618603303267, 954.3971364971562, 954.5088952194328, 954.8441713862624, 955.827648142296, 955.5817789532875, 954.9782818529942, 953.1007353187484, 952.9442731075613, 953.6595289301312, 955.179447553092, 954.1065638192373, 951.5584649513323, 952.8772178741954, 953.5254184633993, 954.0395085858713, 953.0560318298378, 951.9384446070725, 952.0725550738043, 952.4748864739998, 953.9053981191395, 952.4525347295446, 951.6031684402429, 951.2008370400473, 952.988976596472, 953.7712876524076, 952.631348685187, 952.0278515848937, 953.6371771856758, 953.8159911413182, 954.1065638192373, 953.3689562522121, 950.954967851039, 952.0725550738043, 953.5477702078546, 953.4583632300333, 952.8772178741954, 951.9607963515278, 951.4690579735111, 952.0278515848937, 951.5584649513323, 950.9102643621284, 952.0278515848937, 951.2008370400473, 952.4972382184552, 953.1007353187484, 952.988976596472, 950.6867469175753, 951.1337818066814, 951.6031684402429, 952.6984039185529, 951.4243544846005, 951.3572992512345, 952.4525347295446, 953.4360114855781, 953.9724533525055, 952.3184242628128, 951.5808166957876, 952.8772178741954, 953.3689562522121, 952.8101626408295, 951.9831480959831, 952.3631277517234, 952.5642934518211, 954.0395085858713, 954.1512673081479, 954.7324126639859, 952.340776007268, 951.9607963515278, 953.8830463746842, 954.2630260304244, 953.503066718944, 952.988976596472, 954.2183225415138, 955.6041306977429, 956.4982004759552, 954.0395085858713, 952.988976596472, 955.1570958086367, 955.2912062753685, 955.6041306977429, 954.8441713862624, 952.2737207739021, 953.6371771856758, 955.2912062753685, 954.598302197254, 954.0395085858713, 954.2630260304244, 952.9442731075613, 954.4418399860668, 955.5817789532875, 953.6818806745864, 953.3019010188463, 952.8101626408295, 955.0006335974496, 954.3524330082456, 953.6148254412205, 954.3524330082456, 953.8830463746842, 954.2183225415138, 954.955930108539, 955.2465027864579, 954.1065638192373, 954.2853777748797, 955.2241510420026, 954.5312469638881, 953.9724533525055, 952.8101626408295, 952.3184242628128, 953.4807149744887, 954.7100609195305, 954.4865434749775, 952.5866451962764, 953.145438807659, 954.955930108539, 955.6935376755641, 955.1570958086367, 953.8383428857736, 954.1065638192373, 955.3582615087345, 954.6653574306199, 954.8441713862624, 954.2406742859691, 954.374784752701, 954.2630260304244, 955.1570958086367, 953.9948050969607, 951.7372789069748, 953.7712876524076, 954.8218196418071, 955.2688545309132, 953.9948050969607, 952.5642934518211, 954.374784752701, 954.955930108539, 955.6935376755641, 954.2853777748797, 953.1230870632038, 953.6595289301312, 953.7042324190418, 955.179447553092, 955.2688545309132, 952.8101626408295, 953.3689562522121, 953.6595289301312, 955.2241510420026, 955.2017992975473, 953.3242527633015, 953.6148254412205, 955.0229853419048, 954.598302197254, 953.7042324190418, 954.7547644084411, 955.8723516312066, 957.4146219986227, 958.0628225878266, 956.2970347758574, 954.6653574306199, 954.2853777748797, 956.4982004759552, 957.7722499099076, 955.8052963978406, 955.3135580198239, 955.1570958086367, 956.1405725646703, 958.1298778211925, 957.3252150208015, 955.112392319726, 953.8159911413182, 955.4700202310111, 956.7440696649635, 956.051165586849, 956.632310942687, 957.7498981654524, 958.3533952657456, 960.5885697112764, 960.6109214557316, 958.8004301548517, 956.9675871095166, 957.7498981654524, 958.532209221388, 958.1745813101031, 957.6381394431758, 956.8111248983295, 958.7557266659411, 958.8451336437623, 958.8451336437623, 957.794601654363, 957.1911045540696, 958.3533952657456, 959.2698167884132, 958.6886714325752, 956.6993661760529, 956.7887731538741, 958.308691776835, 959.7168516775193, 958.5769127102986, 956.9675871095166, 956.8334766427847, 957.6604911876311, 958.0628225878266, 958.4204504991116, 957.0569940873378, 957.727546420997, 957.2805115318909, 959.0686510883154, 958.5769127102986, 956.2746830314021, 956.341738264768, 958.1298778211925, 958.308691776835, 957.146401065159, 956.8334766427847, 956.565255709321, 957.0793458317931, 958.8004301548517, 957.8840086321842, 958.1969330545585, 956.8558283872401, 957.1911045540696, 958.018119098916, 958.2863400323797, 956.3864417536786, 956.9452353650613, 958.2639882879243, 960.052127844349, 959.985072610983, 958.3980987546562, 957.95106386555, 958.9792441104942, 959.5827412107875, 957.95106386555, 957.3475667652568, 957.4146219986227, 959.0910028327708, 959.7839069108853, 959.4262789996004, 957.6157876987205, 957.794601654363, 959.0686510883154, 959.2027615550472, 959.3145202773238, 959.2474650439578, 959.2474650439578, 960.1638865666255, 960.5885697112764, 961.1920668115696, 959.3592237662344, 959.5603894663323, 960.9909011114719, 960.9685493670165, 961.1920668115696, 960.4321075000892, 958.6886714325752, 959.5603894663323, 960.7673836669188, 960.633273200187, 958.8674853882177, 958.0851743322819, 959.6497964441535, 960.4097557556339, 961.1920668115696, 959.5380377218769, 958.6439679436646, 959.8733138887065, 961.7508604229523, 960.9461976225613, 960.2309417999915, 959.180409810592, 960.3203487778127, 961.9743778675054, 961.4155842561227, 960.0297760998936, 959.6274446996981, 961.5273429783992, 962.1308400786925, 960.9685493670165, 958.9792441104942, 959.403927255145, 959.3592237662344, 960.7226801780082, 961.8179156563182, 961.5943982117651, 961.1920668115696, 963.5837034682875, 964.9024563911506, 965.0589186023377, 962.5108197344327, 961.370880767212, 960.85679064474, 957.6157876987205, 955.2688545309132, 961.3038255338462, 970.0433576158712, 977.5758954973097, 986.2483723459688, 993.0656544048375, 1000.8217097308291, 1008.9130412236502, 1015.9761924715273, 1021.8323495188176, 1030.5048263674769, 1037.8809020377282, 1043.692355596108, 1051.0684312663593, 1062.4901726830212, 1066.0217483069598, 1070.1791727756467, 1075.1859635336357, 1082.137356059236, 1087.5464782174204, 1089.625190451764, 1091.0333503524485, 1090.9662951190824, 1091.3015712859121, 1091.4580334970992, 1090.9886468635377, 1090.206335807602, 1089.6028387073086, 1089.6698939406747, 1091.6815509416522, 1090.4522049966104, 1088.9546381181049, 1089.3569695183003, 1089.6028387073086, 1090.3851497632445, 1090.8321846523506, 1089.4463764961215, 1089.334617773845, 1090.5416119744316, 1091.8380131528395, 1092.3521032753115, 1090.9439433746272, 1090.6310189522528, 1091.9050683862054, 1092.2850480419456, 1092.530917230954, 1090.2510392965125, 1090.586315463342, 1093.0003038645154, 1092.7097311865964, 1093.0226556089706, 1092.6203242087752, 1092.5085654864986, 1093.179117820158, 1094.3190567873785, 1094.6319812097527, 1093.8943736427277, 1093.4249870091662, 1093.6708561981745, 1093.7155596870853, 1094.1849463206465, 1092.530917230954, 1091.5027369860097, 1092.2850480419456, 1092.0615305973924, 1092.3073997864008, 1091.1898125636355, 1092.0838823418478, 1091.7039026861075, 1092.9332486311494, 1091.525088730465, 1091.1451090747248, 1090.4969084855209, 1090.9662951190824, 1092.7991381644176, 1091.9050683862054, 1091.212164308091, 1090.6310189522528, 1090.7427776745294, 1092.0838823418478, 1092.7767864199623, 1091.2792195414568, 1091.3462747748226, 1091.1674608191802, 1092.173289319669, 1091.9497718751159, 1090.206335807602, 1091.010998607993, 1089.334617773845, 1092.2626962974903, 1094.1625945761914, 1094.2743532984678, 1093.4026352647109, 1092.5756207198644, 1093.3132282868896, 1093.3802835202555, 1092.687379442141, 1090.8098329078953, 1091.7039026861075, 1093.4249870091662, 1093.3579317758004, 1091.88271664175, 1091.9721236195712, 1093.179117820158, 1093.5367457314428, 1093.9614288760936, 1092.3521032753115, 1090.3180945298784, 1091.7486061750183, 1092.6650276976857, 1093.492042242532, 1092.754434675507, 1092.240344553035, 1094.207298065102, 1095.2354783100461, 1094.7660916764846, 1093.983780620549, 1093.4249870091662, 1095.1013678433142, 1096.3083620439008, 1093.9614288760936, 1093.4249870091662, 1092.1062340863032, 1093.0673590978813, 1094.9225538876717, 1093.6485044537192, 1093.1567660757025, 1092.1062340863032, 1094.0955393428253, 1094.4084637651997, 1093.7602631759958, 1093.5367457314428, 1092.530917230954, 1093.559097475898, 1094.0284841094594, 1094.5425742319314, 1092.7320829310518, 1092.754434675507, 1092.821489908873, 1094.0508358539148, 1094.207298065102, 1092.5532689754093, 1092.8885451422389, 1094.2967050429231, 1094.8107951653953, 1094.3414085318338, 1093.5143939869874, 1093.9167253871829, 1094.1625945761914, 1095.4813474990544, 1095.593106221331, 1094.4755189985656, 1094.2743532984678, 1094.5202224874763, 1095.2354783100461, 1095.6825131991523, 1094.4084637651997, 1093.9614288760936, 1094.7437399320293, 1096.4871759995433, 1095.1684230766803, 1094.5425742319314, 1094.0955393428253, 1094.9896091210378, 1095.6378097102415, 1095.2801817989566, 1094.6766846986634, 1093.5143939869874, 1094.944905632127, 1097.1130248442919, 1096.5318794884538, 1094.3190567873785, 1095.079016098859, 1095.8389754103393, 1095.9954376215264, 1096.6883416996411, 1095.4813474990544, 1095.5484027324203, 1096.59893472182, 1096.8671556552836, 1096.8224521663728, 1095.3248852878673, 1096.6659899551858, 1096.4424725106326, 1097.8953359002276, 1096.5318794884538, 1095.5484027324203, 1095.6154579657864, 1096.5095277439987, 1097.045969610926, 1097.6941702001297, 1097.4706527555768, 1096.1518998327138, 1096.3083620439008, 1097.4930045000322, 1097.9400393891383, 1097.269487055479, 1096.621286466275, 1096.5765829773645, 1098.431777767155, 1097.6718184556746, 1096.4201207661774, 1095.6825131991523, 1097.850632411317, 1098.07414985587, 1099.4599580120992, 1102.7456644470292, 1097.1353765887472, 1085.1324898162472, 1078.494021713021, 1070.2238762645575, 1058.8021348478956, 1048.1403527427142, 1041.367774172756, 1033.6787740801303, 1024.8945385091947, 1017.1384831832032, 1009.2036139015692, 1001.0452271753821, 995.4125875726447, 988.6847124915973, 981.308636821346, 979.8110699428404, 978.5370205088878, 981.3309885658012, 981.0851193767929, 978.6487792311644, 978.984055397994, 979.1628693536364, 979.4534420315555, 980.3698635542231, 978.469965275522, 979.3640350537343, 980.5263257654102, 981.24158158798, 981.1745263546142, 979.341683309279, 977.9782268975052, 979.0287588869046, 981.0851193767929, 981.8674304327286, 981.3980437991672, 981.889782177184, 983.3202938223236, 984.9966746564717, 983.0967763777705, 981.9568374105498, 979.5875524982873, 978.693482720075, 979.7216629650192, 979.4981455204661, 978.5593722533432, 977.5535437528544, 978.2911513198795, 979.3193315648236, 979.1852210980918, 978.2464478309689, 978.6264274867091, 980.8168984433293, 976.1453838521701, 972.1220698502148, 967.6740727036087, 964.567180224321, 967.9199418926171, 967.7411279369746, 967.8081831703405, 966.6235407142092, 965.2377325579802, 966.2659128029243, 966.4000232696561, 966.1541540806478, 965.8859331471841, 964.9024563911506, 966.9811686254941, 967.2046860700472, 967.0035203699495, 966.824706414307, 966.2882645473796, 967.0258721144047, 967.8305349147959, 967.405851770145, 967.2493895589578, 964.8801046466953, 966.534133736388, 967.5176104924216, 966.8470581587623, 966.5564854808433, 966.1541540806478, 967.1823343255919, 968.5904942262763, 968.1658110816254, 967.3164447923238, 966.3553197807455, 967.1152790922259, 968.2328663149914, 968.0317006148936, 967.5623139813322, 968.5234389929103, 967.3611482812344, 969.6186744712204, 970.7139099495304, 969.5739709823098, 967.8975901481617, 968.2328663149914, 969.7974884268629, 968.9928256264718, 967.9646453815277, 967.4505552590556, 969.1045843487483, 970.5797994827985, 967.9646453815277, 963.8295726572959, 962.9131511346283, 964.3436627797679, 965.1930290690696, 965.8859331471841, 965.0142151134271, 963.9636831240277, 965.2153808135249, 966.0870988472818, 965.8635814027288, 965.1259738357037, 964.9024563911506, 965.5953604692651, 967.3387965367791, 967.0258721144047, 965.0812703467931, 964.209552313036, 965.6847674470863, 966.6682442031198, 966.7352994364858, 965.9753401250053, 964.9918633689718, 965.2600843024355, 966.4670785030221, 967.0035203699495, 964.9918633689718, 964.4330697575891, 966.7129476920304, 967.2717413034131, 966.8917616476729, 965.1036220912483, 964.7236424355082, 966.1318023361924, 967.2493895589578, 967.6740727036087, 966.0647471028266, 965.3047877913461, 965.7965261693629, 966.4000232696561, 965.9082848916394, 965.9753401250053, 964.7012906910528, 964.6118837132316, 965.8859331471841, 965.1706773246143], [-2164.0288429294637, -2164.565284796391, -2164.900560963221, -2166.0181481859863, -2164.4088225852042, -2163.4700493180812, -2164.6993952631233, -2165.124078407774, -2163.2688836179836, -2163.5594562959022, -2163.4253458291705, -2162.5312760509582, -2163.023014428975, -2163.894732462732, -2163.7606219960003, -2164.6770435186677, -2164.6993952631233, -2165.0793749188633, -2162.1065929063075, -2161.257226617006, -2162.575979539869, -2162.307758606405, -2163.1124214067963, -2163.7606219960003, -2164.4982295630252, -2164.0288429294637, -2164.2970638629276, -2163.961787696098, -2162.575979539869, -2162.799496984422, -2161.927778950665, -2163.224180129073, -2165.5934650413355, -2163.7159185070896, -2163.224180129073, -2163.090069662341, -2163.6265115292686, -2164.5876365408467, -2163.7382702515447, -2164.0288429294637, -2162.553627795414, -2160.385508583249, -2161.056060916908, -2163.0677179178856, -2162.9783109400646, -2160.8548952168103, -2160.8772469612654, -2161.0337091724527, -2160.765488238989, -2161.95013069512, -2161.9724824395757, -2162.0618894173967, -2165.638168530246, -2164.2970638629276, -2162.151296395218, -2161.1231161502737, -2161.5925027838352, -2161.95013069512, -2162.575979539869, -2163.2688836179836, -2163.023014428975, -2162.799496984422, -2164.3864708407486, -2164.0064911850086, -2162.240703373039, -2161.704261506112, -2161.7266132505674, -2162.263055117495, -2163.224180129073, -2163.246531873528, -2163.224180129073, -2163.179476640162, -2162.866552217788, -2162.9112557066987, -2162.6206830287797, -2163.514752806992, -2163.7829737404554, -2162.3748138397714, -2164.230008629562, -2164.0064911850086, -2161.0784126613635, -2161.7266132505674, -2163.6935667626344, -2163.313587106894, -2163.224180129073, -2162.8442004733324, -2162.9112557066987, -2164.7217470075784, -2162.0395376729416, -2161.547799294925, -2162.3748138397714, -2163.023014428975, -2162.307758606405, -2161.1007644058186, -2162.1736481396733, -2161.994834184031, -2162.151296395218, -2162.955959195609, -2162.4865725620475, -2162.3971655842265, -2162.7771452399666, -2163.090069662341, -2162.4642208175924, -2162.888903962243, -2162.7771452399666, -2163.4700493180812, -2161.4360405726484, -2162.3971655842265, -2163.0677179178856, -2161.704261506112, -2162.66538651769, -2161.8830754617543, -2162.0171859284865, -2162.1736481396733, -2161.838371972844, -2163.6935667626344, -2164.0511946739193, -2164.185305140651, -2163.961787696098, -2162.5312760509582, -2162.218351628584, -2162.7324417510563, -2162.7771452399666, -2163.0453661734305, -2164.520581307481, -2163.6265115292686, -2163.7382702515447, -2163.581808040358, -2164.0735464183745, -2163.179476640162, -2164.0735464183745, -2165.280540618961, -2164.4311743296594, -2165.124078407774, -2163.8500289738213, -2163.0453661734305, -2163.023014428975, -2164.609988285302, -2164.8111539853994, -2163.0006626845197, -2163.447697573626, -2163.224180129073, -2163.291235362439, -2164.6993952631233, -2164.9676161965867, -2163.0006626845197, -2161.8830754617543, -2163.6935667626344, -2164.274712118472, -2162.4418690731372, -2161.95013069512, -2163.179476640162, -2163.4029940847154, -2164.252360374017, -2163.1347731512515, -2162.1065929063075, -2162.6206830287797, -2163.7606219960003, -2162.598331284324, -2161.704261506112, -2162.1065929063075, -2161.6819097616567, -2161.614854528291, -2163.0677179178856, -2163.3582905958046, -2163.581808040358, -2163.917084207187, -2164.2970638629276, -2163.3582905958046, -2162.866552217788, -2163.0006626845197, -2163.1347731512515, -2163.894732462732, -2162.888903962243, -2162.6206830287797, -2161.9724824395757, -2162.218351628584, -2163.5594562959022, -2164.185305140651, -2163.4924010625364, -2162.352462095316, -2162.0171859284865, -2162.799496984422, -2161.614854528291, -2161.0113574279976, -2162.0395376729416, -2162.0842411618523, -2161.212523128095, -2161.8160202283884, -2161.19017138364, -2160.9443021946313, -2162.218351628584, -2161.95013069512, -2162.0618894173967, -2161.6595580172016, -2161.056060916908, -2162.263055117495, -2162.3301103508607, -2162.553627795414, -2160.832543472355, -2161.547799294925, -2162.1289446507626, -2162.0618894173967, -2162.643034773235, -2162.240703373039, -2162.0171859284865, -2161.614854528291, -2162.240703373039, -2162.0171859284865, -2162.3971655842265, -2162.888903962243, -2161.838371972844, -2161.614854528291, -2162.0842411618523, -2161.480744061559, -2162.66538651769, -2162.7324417510563, -2162.6206830287797, -2163.3582905958046, -2162.7771452399666, -2162.7100900066007, -2162.66538651769, -2163.246531873528, -2163.224180129073, -2162.1065929063075, -2162.1289446507626, -2162.9112557066987, -2163.0006626845197, -2163.6265115292686, -2162.4418690731372, -2161.301930105916, -2161.8830754617543, -2162.7771452399666, -2161.95013069512, -2161.279578361461, -2160.5866742833464, -2161.480744061559, -2161.860723717299, -2161.5925027838352, -2162.263055117495, -2161.301930105916, -2160.989005683542, -2163.447697573626, -2162.643034773235, -2161.413688828193, -2162.888903962243, -2163.6935667626344, -2162.508924306503, -2162.598331284324, -2162.888903962243, -2163.023014428975, -2163.0006626845197, -2162.9783109400646, -2162.3301103508607, -2161.6595580172016, -2160.9443021946313, -2161.7713167394777, -2162.3301103508607, -2162.7547934955114, -2162.643034773235, -2161.346633594827, -2162.598331284324, -2164.5876365408467, -2164.6546917742126, -2162.66538651769, -2162.3301103508607, -2163.0453661734305, -2162.6206830287797, -2163.1347731512515, -2163.581808040358, -2162.3301103508607, -2163.023014428975, -2164.900560963221, -2165.124078407774, -2165.8169824858883, -2165.9063894637097, -2163.2018283846173, -2162.195999884129, -2162.598331284324, -2163.023014428975, -2164.2970638629276, -2163.4253458291705, -2164.47587781857, -2165.1687818966843, -2164.6770435186677, -2164.922912707676, -2166.196962141629, -2166.0404999304415, -2166.6439970307347, -2166.5545900529137, -2165.638168530246, -2165.0793749188633, -2165.794630741433, -2165.146430152229, -2164.9452644521316, -2165.146430152229, -2165.6158167857907, -2166.465183075092, -2166.465183075092, -2165.8169824858883, -2165.4370028301482, -2165.7499272525224, -2166.3981278417264, -2167.0016249420196, -2166.487534819548, -2166.5545900529137, -2167.0463284309303, -2166.822810986377, -2166.9345697086537, -2166.6216452862795, -2165.928741208165, -2166.420479586182, -2167.7168807645894, -2166.733404008556, -2166.3310726083605, -2166.0181481859863, -2166.867514475288, -2166.196962141629, -2167.828639486866, -2168.0074534425084, -2168.2086191426065, -2168.2086191426065, -2168.342729609338, -2169.147392409729, -2169.773241254478, -2169.057985431908, -2168.9462267096314, -2169.281502876461, -2168.454488331615, -2167.9180464646874, -2167.4933633200367, -2165.861685974799, -2166.6216452862795, -2167.895694720232, -2167.6498255312235, -2167.538066808947, -2168.432136587159, -2169.370909854282, -2168.9462267096314, -2167.448659831126, -2167.672177275679, -2167.2027906421176, -2167.9851016980533, -2166.420479586182, -2166.822810986377, -2167.7168807645894, -2166.822810986377, -2167.38160459776, -2167.2027906421176, -2166.9345697086537, -2167.38160459776, -2166.3534243528156, -2166.129906908263, -2167.0463284309303, -2166.3310726083605, -2167.1357354087518, -2168.3203778648826, -2167.023976686475, -2166.465183075092, -2166.9569214531093, -2167.1357354087518, -2166.6887005196454, -2166.0404999304415, -2167.739232509045, -2167.180438897662, -2167.3592528533045, -2167.8733429757767, -2166.3981278417264, -2167.6498255312235, -2168.09686042033, -2167.1357354087518, -2167.38160459776, -2167.7168807645894, -2167.448659831126, -2169.214447643095, -2168.5885987983465, -2166.0181481859863, -2167.091031919841, -2168.499191820525, -2169.125040665274, -2168.342729609338, -2167.314549364394, -2168.5885987983465, -2168.543895309436, -2169.0356336874524, -2168.9238749651763, -2166.7557557530113, -2166.487534819548, -2167.7615842535, -2166.733404008556, -2165.705223763612, -2165.3028923634165, -2166.867514475288, -2166.3757760972712, -2169.1026889208188, -2169.415613343193, -2167.4933633200367, -2168.700357520623, -2168.029805186964, -2164.900560963221, -2166.7110522641005, -2167.6498255312235, -2166.9345697086537, -2167.605122042313, -2167.8509912313216, -2165.6605202747014, -2165.0793749188633, -2166.129906908263, -2165.258188874506, -2163.246531873528, -2163.5594562959022, -2161.838371972844, -2162.4195173286816, -2162.598331284324, -2162.195999884129, -2161.301930105916, -2161.056060916908, -2163.3582905958046, -2164.252360374017, -2163.7159185070896, -2162.8442004733324, -2164.542933051936, -2165.213485385595, -2165.8169824858883, -2165.347595852327, -2163.917084207187, -2164.609988285302, -2165.0793749188633, -2165.928741208165, -2167.113383664296, -2166.1075551638073, -2165.8840377192546, -2167.9403982091426, -2167.515715064492, -2167.3592528533045, -2166.7557557530113, -2166.420479586182, -2167.4933633200367, -2167.538066808947, -2167.6274737867684, -2167.7168807645894, -2168.2086191426065, -2167.895694720232, -2166.532238308458, -2164.6770435186677, -2166.28636911945, -2166.28636911945, -2166.576941797369, -2167.2251423865728, -2166.509886564003, -2165.1687818966843, -2165.4593545746034, -2165.7499272525224, -2165.3028923634165, -2166.196962141629, -2166.28636911945, -2167.023976686475, -2166.420479586182, -2166.0181481859863, -2167.113383664296, -2167.247494131028, -2167.6945290201343, -2167.0463284309303, -2166.3087208639054, -2166.28636911945, -2166.7557557530113, -2167.247494131028, -2166.576941797369, -2168.09686042033, -2169.482668576559, -2166.7557557530113, -2166.6887005196454, -2166.420479586182, -2168.789764498444, -2169.0356336874524, -2168.6780057761675, -2168.5885987983465, -2169.5944272988354, -2170.086165676852, -2169.1920958986398, -2168.2086191426065, -2169.437965087648, -2170.063813932397, -2170.1085174213076, -2168.6556540317124, -2168.432136587159, -2167.9403982091426, -2168.5885987983465, -2167.9180464646874, -2168.432136587159, -2167.9180464646874, -2168.7227092650783, -2168.3203778648826, -2168.47684007607, -2167.471011575581, -2167.2251423865728, -2167.403956342215, -2168.2086191426065, -2167.2251423865728, -2168.3650813537934, -2168.543895309436, -2167.2027906421176, -2166.3310726083605, -2167.2698458754835, -2168.3203778648826, -2167.7615842535, -2167.4933633200367, -2168.543895309436, -2168.9462267096314, -2168.8791714762656, -2169.3038546209164, -2167.806287742411, -2168.0745086758743, -2168.8791714762656, -2168.8791714762656, -2167.6945290201343, -2167.091031919841, -2169.2367993875505, -2169.348558109827, -2170.2649796324945, -2169.080337176363, -2167.9403982091426, -2167.247494131028, -2168.3203778648826, -2169.482668576559, -2168.8791714762656, -2168.8791714762656, -2169.706186021112, -2169.1026889208188, -2167.8733429757767, -2168.5662470538914, -2168.47684007607, -2168.432136587159, -2168.6109505428017, -2168.432136587159, -2168.543895309436, -2167.471011575581, -2168.789764498444, -2168.8121162428997, -2167.605122042313, -2168.6556540317124, -2168.6780057761675, -2168.0074534425084, -2167.6945290201343, -2168.990930198542, -2169.281502876461, -2169.8402964878437, -2169.5497238099247, -2167.8509912313216, -2169.7508895100227, -2169.214447643095, -2168.3650813537934, -2169.125040665274, -2167.5827702978577, -2169.057985431908, -2169.706186021112, -2168.745061009534, -2169.6614825322013, -2169.8179447433886, -2168.700357520623, -2168.5885987983465, -2168.119212164785, -2168.745061009534, -2170.6002557993243, -2169.214447643095, -2169.773241254478, -2168.990930198542, -2169.2591511320056, -2169.147392409729, -2168.767412753989, -2169.281502876461, -2169.370909854282, -2169.9744069545754, -2170.8461249883326, -2169.3932615987374, -2169.6167790432905, -2169.147392409729, -2167.7168807645894, -2167.515715064492, -2168.9685784540866, -2168.9015232207207, -2168.7227092650783, -2169.1026889208188, -2168.9238749651763, -2168.9462267096314, -2169.2367993875505, -2169.6167790432905, -2169.9073517212096, -2170.2202761435838, -2169.996758699031, -2168.47684007607, -2167.8733429757767, -2168.8791714762656, -2170.712014521601, -2170.66731103269, -2168.8791714762656, -2168.499191820525, -2168.6780057761675, -2167.3592528533045, -2167.1357354087518, -2166.800459241922, -2168.5885987983465, -2170.0414621879413, -2166.9792731975645, -2164.7888022409443, -2165.3028923634165, -2166.174610397173, -2165.19113364114, -2165.6828720191565, -2166.2416656305395, -2166.7557557530113, -2166.196962141629, -2167.6498255312235, -2169.8179447433886, -2170.6226075437794, -2169.8849999767544, -2169.639130787746, -2170.6002557993243, -2170.9131802216984, -2170.756718010511, -2172.0754709333746, -2172.723671522578, -2173.4389273451484, -2174.087127934352, -2172.8577819893103, -2173.5953895563352, -2172.120174422285, -2172.5001540780254, -2174.869438990288, -2174.221238401084, -2173.4612790896035, -2173.081299433863, -2173.57303781188, -2174.645921545735, -2174.8023837569217, -2173.6847965341567, -2172.8577819893103, -2172.276636633472, -2170.957883710609, -2172.343691866838, -2173.863610489799, -2173.2377616450503, -2173.8412587453436, -2174.4224041011817, -2174.6235698012792, -2173.7518517675226, -2174.511811079003, -2175.294122134939, -2175.8529157463213, -2176.1434884242403, -2175.5623430684022, -2175.1153081792963, -2174.1988866566285, -2174.981197712564, -2172.4554505891147, -2173.215409900595, -2171.1590494107068, -2170.9355319661536, -2172.611912800302, -2172.030767444464, -2172.053119188919, -2172.5001540780254, -2170.9355319661536, -2171.360215110805, -2171.4943255775365, -2171.5390290664473, -2171.2261046440726, -2172.410747100204, -2172.1872296556508, -2170.6002557993243, -2170.2202761435838, -2171.114345921796, -2170.6896627771453, -2171.606084299813, -2170.8461249883326, -2169.8849999767544, -2168.3650813537934, -2169.1697441541846, -2170.6002557993243, -2171.1366976662516, -2170.153220910218, -2169.7508895100227, -2170.354386610316, -2171.04729068843, -2169.639130787746, -2171.5390290664473, -2172.120174422285, -2170.8908284772433, -2170.2649796324945, -2170.8237732438774, -2170.801421499422, -2170.3320348658604, -2169.996758699031, -2169.6838342766564, -2170.2649796324945, -2171.2931598774385, -2170.4884970770477, -2170.9355319661536, -2170.28733137695, -2170.5779040548687, -2170.28733137695, -2171.091994177341, -2170.2202761435838, -2170.957883710609, -2169.996758699031, -2169.773241254478, -2169.8402964878437, -2169.706186021112, -2169.5497238099247, -2169.482668576559, -2170.9355319661536, -2172.030767444464, -2172.2989883779273, -2173.304816878416, -2172.366043611293, -2171.00258719952, -2170.66731103269, -2171.673139533179, -2172.8354302448547, -2172.8354302448547, -2171.9413604666424, -2173.014244200497, -2172.1648779111956, -2172.343691866838, -2172.388395355749, -2172.611912800302, -2171.471973833081, -2171.471973833081, -2171.829601744366, -2171.471973833081, -2171.5613808109024, -2171.315511621894, -2170.153220910218, -2171.024938943975, -2172.2319331445615, -2172.47780233357, -2172.120174422285, -2171.1590494107068, -2171.315511621894, -2172.8577819893103, -2172.7460232670337, -2172.053119188919, -2172.1872296556508, -2171.5837325553575, -2172.343691866838, -2173.57303781188, -2173.662444789701, -2172.969540711587, -2175.3611773683047, -2174.243590145539]]
[[975.340721051779, 974.7372239514857, 973.1055466062483, 974.3348925512902, 976.2347908299913, 975.2960175628684, 973.7313954509968, 974.4913547624773, 975.5418867518767, 976.3241978078125, 975.7207007075192, 974.5360582513879, 974.4466512735667, 975.1172036072259, 976.1900873410807, 975.05014837386, 974.5807617402985, 972.8149739283293, 973.5078780064438, 974.6031134847539, 973.9549128955499, 972.9267326506058, 973.8208024288181, 974.3795960402008, 974.9607413960388, 975.0725001183152, 974.8489826737622, 974.0890233622818, 975.7207007075192, 977.2853228193907, 976.3018460633572, 973.7537471954522, 974.6701687181197, 974.983093140494, 976.5700669968209, 976.8382879302845, 975.5195350074215, 975.0948518627706, 975.9665698965276, 977.7100059640416, 976.1230321077147, 974.9383896515834, 974.7372239514857, 975.2960175628684, 975.8995146631617, 975.3854245406897, 974.5807617402985, 974.759575695941, 975.2960175628684, 976.7488809524633, 976.7265292080081, 975.4077762851449, 973.7760989399075, 976.0112733854382, 976.9053431636505, 976.0783286188041, 974.7372239514857, 974.2901890623796, 976.0783286188041, 977.017101885927, 976.8829914191952, 975.2066105850471, 973.664340217631, 975.2066105850471, 975.8101076853404, 974.8713344182175, 974.7148722070303, 974.401947784656, 975.631293729698, 975.7877559408852, 975.854811174251, 974.6925204625751, 973.7313954509968, 975.1172036072259, 976.7041774635527, 976.3912530411784, 975.5642384963321, 973.7984506843628, 975.9442181520723, 977.1959158415694, 975.4971832629661, 974.8266309293069, 974.3795960402008, 975.4971832629661, 976.2347908299913, 977.0618053748376, 975.9442181520723, 977.0618053748376, 979.8110699428404, 981.7556717104521, 981.7109682215415, 979.922828665117, 978.0229303864159, 977.0394536303824, 978.2464478309689, 976.2347908299913, 975.854811174251, 975.5195350074215, 975.5195350074215, 975.2960175628684, 976.5700669968209, 976.1677355966253, 976.5253635079102, 977.1288606082036, 977.1512123526588, 977.7547094529522, 975.4524797740555, 975.2736658184131, 977.017101885927, 976.5700669968209, 976.1900873410807, 975.7430524519746, 975.5195350074215, 975.1842588405918, 976.3912530411784, 976.4806600189996, 975.5642384963321, 975.698348963064, 976.3241978078125, 976.8159361858293, 976.6371222301868, 976.503011763455, 976.9723983970164, 976.3465495522678, 977.3747297972119, 977.1065088637482, 976.6818257190974, 976.1230321077147, 976.7041774635527, 977.9782268975052, 977.2406193304801, 975.2289623295025, 976.1230321077147, 976.6818257190974, 977.3970815416673, 977.6429507306756, 976.4136047856338, 975.2066105850471, 977.1735640971142, 978.0229303864159, 977.3523780527566, 976.7935844413739, 976.4136047856338, 977.9782268975052, 978.1123373642371, 977.1735640971142, 975.7877559408852, 974.9607413960388, 976.8606396747399, 978.1346891086923, 977.598247241765, 977.4417850305779, 976.2571425744466, 975.7430524519746, 976.0112733854382, 977.3523780527566, 975.631293729698, 975.5865902407874, 976.1006803632595, 976.4583082745444, 976.1900873410807, 974.6701687181197, 975.5642384963321, 975.7430524519746, 976.503011763455, 976.4136047856338, 975.1619070961365, 974.8266309293069, 976.0559768743489, 976.8159361858293, 975.854811174251, 974.5360582513879, 975.6089419852427, 975.4971832629661, 976.8829914191952, 976.503011763455, 973.9772646400053, 974.6701687181197, 975.631293729698, 977.4194332861225, 975.921866407617, 975.698348963064, 975.1395553516812, 975.1172036072259, 975.921866407617, 975.4524797740555, 975.6089419852427, 974.4466512735667, 976.0559768743489, 976.7712326969187, 977.2629710749354, 975.9442181520723, 975.1842588405918, 975.4077762851449, 976.8606396747399, 976.4806600189996, 974.9160379071282, 974.0890233622818, 975.7207007075192, 976.4806600189996, 975.8995146631617, 974.0890233622818, 973.6196367287204, 974.8266309293069, 975.4077762851449, 975.2513140739578, 974.2231338290136, 973.6196367287204, 974.3795960402008, 975.1172036072259, 975.340721051779, 974.4242995291114, 973.9996163844605, 974.8042791848516, 975.05014837386, 974.6254652292091, 974.7148722070303, 973.664340217631, 973.9996163844605, 976.3689012967232, 974.8489826737622, 972.6808634615975, 973.1726018396142, 974.2678373179242, 975.8995146631617, 976.2347908299913, 975.1172036072259, 974.2231338290136, 974.6031134847539, 976.9053431636505, 976.9500466525611, 975.3854245406897, 973.9549128955499, 978.4476135310666, 980.3922152986784, 979.0734623758152, 978.5593722533432, 980.0345873873935, 980.9733606545163, 980.1686978541253, 978.8722966757175, 978.693482720075, 979.6099042427427, 980.727491465508, 981.1074711212482, 980.0792908763041, 978.8499449312621, 980.0792908763041, 981.0851193767929, 982.470927533022, 981.2192298435248, 979.9675321540276, 979.8334216872958, 982.113299621737, 981.6439129881755, 980.0569391318488, 980.3028083208571, 980.5710292543208, 981.9791891550052, 981.889782177184, 979.9898838984828, 979.6322559871979, 980.4816222764996, 980.3475118097678, 981.5992094992649, 980.7498432099633, 979.6546077316533, 981.2862850768906, 982.470927533022, 980.9286571656057, 981.7556717104521, 980.2134013430359, 980.0345873873935, 981.1521746101588, 981.2639333324354, 980.7498432099633, 979.7440147094745, 977.888819919684, 978.8722966757175, 979.9675321540276, 979.1181658647258, 977.6429507306756, 978.9617036535387, 979.6322559871979, 980.3698635542231, 979.3193315648236, 979.9675321540276, 979.9675321540276, 980.0792908763041, 981.5992094992649, 980.2804565764019, 978.5817239977985, 978.7828896978963, 980.1910495985807, 980.7721949544186, 979.8110699428404, 978.7828896978963, 980.503974020955, 982.113299621737, 982.0015408994605, 980.0345873873935, 979.6993112205639, 979.4310902871002, 979.7663664539298, 980.7721949544186, 981.6439129881755, 979.274628075913, 978.6264274867091, 979.4534420315555, 980.5486775098656, 980.2804565764019, 978.7828896978963, 980.4816222764996, 981.3533403102566, 981.822726943818, 981.5321542658991, 980.3028083208571, 981.1521746101588, 982.7167967220303, 983.2979420778684, 981.5321542658991, 980.1910495985807, 980.5933809987762, 983.6108665002427, 983.566163011332, 977.084157119293, 970.3115785493349, 966.1318023361924, 962.3320057787903, 958.7780784103965, 953.3466045077569, 946.8422468712624, 945.6129009262206, 944.8752933591954, 944.6741276590977, 944.9423485925614, 943.243616013958, 944.763534636919, 946.730488148986, 948.7644968944189, 948.6750899165977, 948.7421451499636, 950.150305050648, 951.2455405289579, 951.0443748288602, 948.6303864276871, 946.730488148986, 947.0881160602709, 946.8422468712624, 947.5127992049217, 947.5575026938324, 946.9763573379943, 946.66343291562, 947.6245579271982, 948.9656625945166, 948.5186277054105, 946.66343291562, 947.825723627296, 949.0550695723379, 951.0443748288602, 950.3514707507456, 947.9598340940279, 947.2669300159133, 950.0385463283714, 949.9938428394607, 948.8986073611508, 948.6303864276871, 949.0103660834272, 950.4632294730222, 950.150305050648, 949.6138631837206, 949.2562352724357, 949.3009387613463, 950.0161945839161, 951.1114300622261, 950.2397120284692, 949.7479736504524, 949.9267876060949, 946.9763573379943, 940.0696683013044, 934.6381943986648, 928.2679472289024, 922.0988657592376, 915.0804180002712, 909.9171650310952, 902.5187376163885, 896.9978567359277, 891.3652171331903, 887.0289787088608, 883.2068304070033, 876.0989756702156, 870.8463157232185, 864.6995859980091, 861.3691760741683, 856.8094202052856, 850.8862079246293, 847.6899084675204, 842.1690275870595, 840.6044054751881, 837.5645682292662, 834.636489705621, 831.283728037325, 829.316774525258, 829.2720710363474, 828.668573936054, 825.3605157566686, 824.4664459784564, 823.9076523670736, 825.4722744789451, 824.3546872561798, 823.9747076004396, 821.8065883882748, 821.9854023439173, 823.1029895666826, 821.4936639659005, 821.024277332339, 819.7725796428418, 821.2254430324368, 823.1923965445038, 824.511149467367, 823.862948878163, 821.895995366096, 823.3041552667803, 825.092294823205, 825.092294823205, 824.1982250449927, 823.0135825888614, 822.9241756110401, 824.7570186563753, 825.5393297123111, 825.4499227344899, 825.092294823205, 824.5558529562776, 825.8746058791406, 826.6122134461658, 826.7463239128977, 826.5675099572552, 825.5393297123111, 827.1039518241826, 826.0310680903278, 821.3819052436239, 820.6890011655095, 838.4809897519339, 851.5791120027437, 857.055289394294, 859.8492574512074, 858.9328359285398, 860.2739405958582, 861.3915278186236, 861.6150452631766, 858.9998911619057, 857.8823039391403, 857.6140830056767, 858.5305045283443, 859.603388262199, 858.8434289507186, 856.9882341609281, 857.8376004502297, 858.5305045283443, 858.5975597617102, 857.4352690500342, 857.2564550943918, 857.5470277723108, 858.3069870837912, 859.379870817646, 859.5586847732884, 858.21758010597, 857.9046556835957, 859.1340016286375, 860.6762719960537, 859.7374987289309, 857.3905655611236, 858.3293388282465, 858.21758010597, 859.3351673287353, 859.2904638398247, 858.5081527838889, 858.3293388282465, 858.798725461808, 861.2797690963471, 859.379870817646, 857.5023242834002, 857.9940626614169, 860.0504231513052, 860.8774376961516, 859.3575190731906, 857.2564550943918, 858.3069870837912, 857.8376004502297, 857.569379516766, 855.8259434492521, 855.9824056604393, 856.9882341609281, 858.5081527838889, 858.4410975505231, 857.8823039391403, 857.5470277723108, 857.4352690500342, 857.5917312612214, 855.2671498378694, 851.7802777028415, 848.4051642900902, 848.9416061570175, 848.7627922013751, 850.4615247799784, 850.7297457134421, 848.5169230123668, 849.7239172129533, 850.5509317577996, 850.8415044357187, 850.7297457134421, 848.7851439458304, 848.5839782457326, 850.2380073354253, 849.6568619795873, 849.343937557213, 849.1427718571153, 849.2321788349366, 850.0144898908723, 850.3944695466125, 849.2768823238472, 849.1651236015706, 848.1592951010819, 850.1038968686935, 850.0144898908723, 850.7520974578974, 849.5674550017661, 848.7627922013751, 850.1933038465147, 851.9814434029394, 851.6908707250203, 849.9027311685958, 849.7239172129533, 850.7744492023527, 851.7355742139309, 851.6014637471991, 849.12042011266, 850.3721178021572, 851.2438358359142, 850.8862079246293, 850.3274143132465, 849.6345102351321, 849.9027311685958, 851.1097253691823, 850.9756149024505, 850.3944695466125, 848.4945712679114, 849.0533648792941, 850.5509317577996, 850.6850422245315, 850.3721178021572, 847.9357776565288, 848.606329990188, 849.3886410461237, 850.573283502255, 849.7686207018639, 849.0310131348388, 849.5898067462215, 850.2827108243359, 850.9309114135399, 850.7744492023527, 850.3497660577019, 850.2156555909701, 850.7073939689868, 851.5567602582885, 851.3332428137354, 850.2603590798807, 851.5120567693779, 851.0203183913611, 851.8026294472968, 851.2661875803694, 850.796800946808, 850.5285800133444, 851.7355742139309, 851.6908707250203, 850.573283502255, 848.5616265012774, 848.8969026681069, 848.4275160345455, 849.8580276796852, 850.1262486131488, 849.2321788349366, 849.0086613903835, 849.1651236015706, 849.6121584906767, 849.5451032573109, 848.9192544125623, 849.0533648792941, 849.4333445350343, 852.02614689185, 853.3672515591684, 853.12138237016, 854.0378038928276, 855.7365364714309, 855.3565568156906, 852.9649201589729, 851.5791120027437, 849.1427718571153, 850.1709521020595, 850.2603590798807, 849.5898067462215, 848.3828125456349, 849.3662893016684, 850.7073939689868, 849.0086613903835, 843.2195595764589, 844.4489055215008, 862.8890946971292, 872.120365157171, 882.6033333067099, 893.3992258786233, 903.0775312277713, 912.8228918102851, 922.7470663484414, 932.5818339087766, 939.8461508567514, 947.6469096716536, 955.827648142296, 966.0647471028266, 971.8985524056617, 977.9558751530499, 981.2192298435248, 983.5438112668767, 986.3601310682453, 986.6730554906196, 986.1366136236923, 984.661398489642, 984.4825845339996, 985.3990060566672, 987.8129944578403, 987.1200903797258, 985.1531368676588, 985.3990060566672, 986.918924679628, 987.1424421241811, 985.9801514125052, 985.466061290033, 986.1813171126029, 986.4048345571559, 986.5612967683431, 986.695407235075, 986.7624624684408, 986.4048345571559, 987.8576979467509, 987.4330148021002, 986.695407235075, 986.7848142128962, 987.2542008464577, 988.5729537693207, 989.5117270364436, 989.6458375031755, 987.9694566690275, 987.5224217799214, 987.7906427133851, 989.0423404028822, 989.1540991251587, 987.7459392244745, 986.2260206015135, 987.6118287577426, 987.7012357355638, 986.5612967683431, 987.8129944578403, 986.4495380460666, 986.1813171126029, 987.7012357355638, 987.1200903797258, 986.7401107239856, 986.114261879237, 986.4495380460666, 987.3883113131895, 986.8965729351727, 987.0083316574493, 984.7731572119186, 984.951971167561, 987.0306834019045, 986.4495380460666, 984.6166950007314, 984.1026048782594, 983.9461426670722, 985.9577996680498, 986.6730554906196, 984.7731572119186, 984.6837502340974, 986.114261879237, 986.0025031569604, 986.0248549014158, 985.7789857124073, 984.4825845339996, 985.1531368676588, 985.9577996680498, 986.695407235075, 986.1813171126029, 985.0190264009269, 985.7342822234967, 987.2542008464577, 987.9247531801169, 985.309599078846, 983.2308868445024, 986.7177589795302, 1031.2871374234126, 1082.271466525968, 1084.4619374825882, 1083.6796264266522, 1084.171364804669, 1084.5736962048645, 1085.1324898162472, 1084.0819578268479, 1083.5678677043759, 1084.685454927141, 1084.6407514382306, 1084.9760276050602, 1083.3219985153673, 1084.0372543379372, 1084.886620627239, 1085.7136351720853, 1086.0712630833702, 1084.819565393873, 1084.886620627239, 1086.3171322723786, 1086.8312223948506, 1086.1606700611915, 1085.199545049613, 1085.199545049613, 1086.4735944835656, 1087.1664985616803, 1085.333655516345, 1084.2607717824903, 1084.1043095713032, 1085.199545049613, 1086.4735944835656, 1085.9371526166383, 1084.8642688827836, 1083.590219448831, 1084.9313241161494, 1085.6018764498087, 1085.2218967940685, 1083.4114054931886, 1084.7078066715965, 1085.2442485385238, 1086.0042078500041, 1085.8030421499066, 1084.2831235269457, 1082.2267630370573, 1085.199545049613, 1086.6971119281188, 1086.9206293726718, 1085.9371526166383, 1085.7583386609958, 1085.7583386609958, 1086.4512427391103], [-2177.7081105361117, -2176.6799302911677, -2176.5234680799804, -2176.7693372689887, -2176.8810959912653, -2177.6634070472014, -2176.2999506354276, -2176.47876459107, -2177.3728343692824, -2177.9986832140307, -2176.8810959912653, -2175.338825623849, -2176.344654124338, -2177.0375582024526, -2176.1434884242403, -2175.987026213053, -2174.221238401084, -2174.1988866566285, -2174.645921545735, -2175.6517500462237, -2176.4564128466145, -2174.310645378905, -2174.645921545735, -2175.7188052795896, -2176.9705029690867, -2176.47876459107, -2174.645921545735, -2174.8023837569217, -2175.964674468598, -2175.9423227241427, -2176.0317297019637, -2175.025901201475, -2174.6906250346456, -2175.3611773683047, -2177.3281308803716, -2176.0317297019637, -2175.227066901573, -2174.981197712564, -2175.182363412662, -2175.025901201475, -2176.2328954020613, -2176.210543657606, -2174.936494223654, -2175.38352911276, -2176.1434884242403, -2175.4058808572154, -2176.2328954020613, -2175.8752674907764, -2174.8470872458324, -2176.210543657606, -2176.411709357704, -2175.4058808572154, -2174.4000523567265, -2176.635226802257, -2176.702282035623, -2176.411709357704, -2175.539991323947, -2176.322302379883, -2175.0482529459305, -2176.925799480176, -2177.0822616913633, -2175.5176395794915, -2176.7693372689887, -2177.1269651802736, -2176.7469855245336, -2176.1434884242403, -2174.9141424791983, -2175.5176395794915, -2176.47876459107, -2176.9705029690867, -2177.4398896026482, -2175.6517500462237, -2175.4282326016705, -2176.3670058687935, -2175.8529157463213, -2176.0764331908745, -2175.8752674907764, -2174.601218056824, -2175.7411570240447, -2176.5905233133462, -2175.629398301768, -2175.7411570240447, -2177.19402041364, -2177.283427391461, -2177.0375582024526, -2176.545819824436, -2178.177497169673, -2177.1046134358185, -2176.4340611021594, -2176.0987849353296, -2175.316473879394, -2174.0647761898967, -2173.997720956531, -2175.0929564348407, -2173.7518517675226, -2173.1930581561396, -2175.6517500462237, -2176.903447735721, -2177.5292965804692, -2177.4398896026482, -2177.95397972512, -2177.7751657694776, -2176.4340611021594, -2176.5905233133462, -2176.7246337800784, -2177.9763314695756, -2177.3281308803716, -2177.484593091559, -2176.7469855245336, -2176.992854713542, -2177.23872390255, -2178.1104419363073, -2179.0492152034303, -2177.9092762362097, -2177.4175378581926, -2177.551648324925, -2176.8140407578994, -2177.0822616913633, -2177.9092762362097, -2177.506944836014, -2178.602180314324, -2178.3339593808605, -2178.28925589195, -2178.7586425255113, -2179.563305325902, -2179.451546603626, -2178.4233663586815, -2177.7528140250224, -2178.535125080958, -2178.9374564811537, -2178.3786628697712, -2178.9151047366986, -2179.809174514911, -2178.579828569869, -2178.222200658584, -2179.764471026, -2179.451546603626, -2180.0997471928295, -2180.569133826391, -2179.6303605592684, -2178.602180314324, -2177.484593091559, -2176.7916890134443, -2178.1104419363073, -2179.183325670162, -2178.5574768254137, -2178.177497169673, -2178.155145425218, -2178.602180314324, -2178.4233663586815, -2178.6468838032347, -2179.540953581447, -2179.6527123037235, -2179.831526259366, -2178.8480495033323, -2179.540953581447, -2179.7868227704553, -2178.445718103137, -2179.183325670162, -2179.608008814813, -2179.4068431147152, -2178.8480495033323, -2177.9986832140307, -2179.473898348081, -2179.5856570703577, -2178.825697758877, -2177.931627980665, -2177.9986832140307, -2178.803346014422, -2178.512773336503, -2178.825697758877, -2178.535125080958, -2178.311607636405, -2179.451546603626, -2178.579828569869, -2178.7586425255113, -2179.7197675370894, -2181.351444882327, -2181.6196658157905, -2179.563305325902, -2178.4680698475922, -2179.7868227704553, -2179.898581492732, -2178.5574768254137, -2179.563305325902, -2179.540953581447, -2178.7586425255113, -2178.311607636405, -2180.211505915106, -2180.636189059757, -2180.9938169710417, -2179.4962500925362, -2178.512773336503, -2178.9821599700645, -2179.0268634589747, -2179.920933237187, -2179.5856570703577, -2180.9044099932207, -2181.2843896489608, -2181.9549419826203, -2181.9325902381647, -2181.150279182229, -2180.9044099932207, -2180.47972684857, -2181.351444882327, -2180.4573751041144, -2180.345616381838, -2179.9432849816426, -2180.0103402150085, -2178.825697758877, -2180.122098937285, -2180.569133826391, -2180.211505915106, -2180.6138373153017, -2181.6420175602457, -2180.278561148472, -2179.0268634589747, -2179.0492152034303, -2178.9821599700645, -2182.111404193807, -2180.8820582487656, -2180.412671615204, -2179.898581492732, -2179.7421192815445, -2182.089052449352, -2181.127927437774, -2180.14445068174, -2180.636189059757, -2181.2396861600505, -2182.3572733828155, -2179.6750640481787, -2179.764471026, -2181.7537762825223, -2182.3572733828155, -2183.2513431610278, -2182.6031425718243, -2182.5807908273687, -2182.737253038556, -2184.0113024725083, -2184.927723995176, -2181.9325902381647, -2181.6867210491564, -2182.066700704897, -2181.2396861600505, -2182.3349216383604, -2182.1337559382628, -2181.6420175602457, -2181.0161687154973, -2182.3349216383604, -2183.407805372215, -2181.9996454715306, -2181.6867210491564, -2183.698378050134, -2182.804308271922, -2181.6643693047013, -2181.9549419826203, -2181.5526105824247, -2181.8431832603437, -2182.021997215986, -2182.469032105092, -2181.776128026978, -2181.485555349059, -2183.43015711667, -2183.2066396721175, -2181.217334415595, -2181.2620379045056, -2182.469032105092, -2182.401976871726, -2183.2960466499385, -2183.43015711667, -2182.401976871726, -2182.401976871726, -2183.1619361832068, -2182.893715249743, -2183.027825716475, -2182.9160669941984, -2182.7149012941004, -2181.373796626782, -2182.5584390829135, -2183.6313228167683, -2183.6536745612234, -2183.0725292053853, -2181.418500115693, -2182.737253038556, -2182.513735594003, -2181.6196658157905, -2183.0054739720194, -2184.0113024725083, -2183.2289914165726, -2183.698378050134, -2183.9442472391424, -2183.787785027955, -2183.8548402613214, -2183.5195640944917, -2184.86066876181, -2184.391282128249, -2183.743081539045, -2182.6254943162794, -2182.2902181494496, -2183.698378050134, -2184.3018751504273, -2183.8995437502317, -2183.407805372215, -2185.8217937733884, -2186.045311217941, -2184.078357705874, -2184.9053722507206, -2184.14541293924, -2184.48068910607, -2183.676026305679, -2183.027825716475, -2185.4865176065587, -2184.994779228542, -2184.86066876181, -2184.6818548061674, -2183.8548402613214, -2183.38545362776, -2184.637151317257, -2185.307703650916, -2185.5312210954694, -2184.413633872704, -2182.7819565274667, -2183.988950728053, -2184.927723995176, -2183.832488516866, -2184.86066876181, -2183.8771920057766, -2182.312569893905, -2184.726558295078, -2184.771261783989, -2184.9724274840864, -2183.676026305679, -2184.5253925949805, -2183.6313228167683, -2183.6313228167683, -2185.3971106287377, -2185.5312210954694, -2185.5312210954694, -2185.4641658621035, -2185.799442028933, -2184.14541293924, -2183.184287927662, -2184.14541293924, -2183.6313228167683, -2183.1395844387516, -2183.698378050134, -2183.8771920057766, -2183.698378050134, -2184.346578639338, -2183.743081539045, -2183.0725292053853, -2185.0394827174523, -2185.1065379508186, -2185.1065379508186, -2186.090014706852, -2186.2241251735836, -2187.408767629715, -2186.402939129226, -2186.380587384771, -2186.447642618137, -2184.793613528444, -2185.8664972622987, -2185.1959449286396, -2187.028787973975, -2187.0064362295197, -2185.8888490067543, -2184.8383170173547, -2185.8664972622987, -2185.732386795567, -2186.7829187849666, -2187.2076019296173, -2185.307703650916, -2184.5700960838913, -2184.48068910607, -2185.151241439729, -2186.313532151405, -2185.084186206363, -2184.637151317257, -2186.2017734291285, -2185.151241439729, -2186.4699943625924, -2184.6595030617123, -2183.2736949054834, -2182.2678664049945, -2180.5244303374807, -2180.837354759855, -2176.8810959912653, -2177.19402041364, -2176.255247146517, -2174.020072700986, -2170.957883710609, -2167.895694720232, -2167.023976686475, -2165.4370028301482, -2164.230008629562, -2163.581808040358, -2161.927778950665, -2162.598331284324, -2163.6488632737237, -2167.4263080866704, -2166.9569214531093, -2168.6556540317124, -2167.247494131028, -2167.8733429757767, -2168.5215435649807, -2169.795592998933, -2169.437965087648, -2171.8743052332766, -2170.399090099226, -2172.276636633472, -2171.5613808109024, -2173.9753692120757, -2176.255247146517, -2176.2328954020613, -2175.8752674907764, -2175.38352911276, -2176.635226802257, -2175.338825623849, -2177.0822616913633, -2178.3563111253156, -2176.635226802257, -2177.57400006938, -2178.5574768254137, -2178.3339593808605, -2179.250380903528, -2177.3281308803716, -2179.093918692341, -2180.0103402150085, -2179.9879884705533, -2180.9938169710417, -2180.2338576595616, -2180.0103402150085, -2180.0103402150085, -2180.3679681262934, -2181.2843896489608, -2182.446680360637, -2182.960770483109, -2182.960770483109, -2182.960770483109, -2183.5195640944917, -2185.508869351014, -2185.3971106287377, -2182.759604783011, -2182.3349216383604, -2181.8878867492544, -2181.083223948863, -2182.67019780519, -2182.178459427173, -2181.507907093514, -2182.67019780519, -2181.373796626782, -2182.021997215986, -2184.056005961419, -2183.5866193278575, -2184.3018751504273, -2185.017130972997, -2183.2513431610278, -2184.056005961419, -2185.4641658621035, -2185.57592458438, -2185.285351906461, -2185.1959449286396, -2184.413633872704, -2185.7547385400226, -2185.084186206363, -2186.1347181957626, -2184.391282128249, -2183.8995437502317, -2186.358235640316, -2186.9170292516983, -2185.3971106287377, -2185.1065379508186, -2184.3018751504273, -2185.642979817746, -2186.648808318235, -2186.1123664513075, -2185.084186206363, -2185.6876833066563, -2184.927723995176, -2185.8441455178436, -2186.9393809961534, -2186.604104829324, -2186.1794216846733, -2185.5535728399245, -2185.9112007512094, -2186.045311217941, -2187.0734914628856, -2184.5700960838913, -2185.2630001620055, -2185.799442028933, -2184.6595030617123, -2184.346578639338, -2183.8101367724107, -2185.57592458438, -2185.95590424012, -2184.704206550623, -2185.374758884282, -2183.2960466499385, -2183.184287927662, -2184.368930383793, -2183.541915838947, -2183.5195640944917, -2182.5807908273687, -2183.9218954946873, -2183.452508861126, -2184.6147995728015, -2185.017130972997, -2185.710035051112, -2186.5370495959583, -2186.2017734291285, -2185.9112007512094, -2184.637151317257, -2184.704206550623, -2185.1065379508186, -2186.1570699402178, -2185.710035051112, -2185.5982763288353, -2185.2630001620055, -2184.6818548061674, -2186.022959473486, -2186.9170292516983, -2186.604104829324, -2186.246476918039, -2185.9112007512094, -2184.8159652728996, -2183.743081539045, -2184.503040850525, -2186.2017734291285, -2186.045311217941, -2185.8217937733884, -2186.760567040511, -2185.1959449286396, -2184.391282128249, -2185.419462373193, -2185.3971106287377, -2185.419462373193, -2186.4923461070475, -2186.022959473486, -2185.2630001620055, -2185.017130972997, -2185.1288896952738, -2184.5253925949805, -2184.994779228542, -2185.0394827174523, -2186.33588389586, -2185.3971106287377, -2184.637151317257, -2185.1288896952738, -2186.2017734291285, -2186.402939129226, -2186.1794216846733, -2186.0676629623968, -2185.6876833066563, -2184.8830205062654, -2185.8441455178436, -2187.028787973975, -2187.2970089074383, -2186.961732740609, -2186.1347181957626, -2186.33588389586, -2186.4699943625924, -2186.4252908736817, -2185.933552495665, -2186.2241251735836, -2185.9782559845753, -2185.710035051112, -2185.5312210954694, -2185.642979817746, -2185.9782559845753, -2186.090014706852, -2187.185250185162, -2186.738215296056, -2186.5370495959583, -2187.7887472854554, -2187.8110990299106, -2187.028787973975, -2187.05113971843, -2186.4923461070475, -2186.8723257627876, -2187.4981746075364, -2187.542878096447, -2185.933552495665, -2186.358235640316, -2186.090014706852, -2186.9170292516983, -2186.5370495959583, -2187.1405466962515, -2187.7216920520896, -2187.118194951796, -2187.2076019296173, -2186.8723257627876, -2186.9170292516983, -2187.028787973975, -2185.6876833066563, -2184.9053722507206, -2185.1065379508186, -2184.86066876181, -2185.57592458438, -2186.604104829324, -2187.252305418528, -2187.0734914628856, -2186.9393809961534, -2186.33588389586, -2185.7547385400226, -2187.38641588526, -2189.1745554416843, -2189.3310176528717, -2184.7489100395337, -2184.8830205062654, -2185.4641658621035, -2185.017130972997, -2186.5370495959583, -2187.2970089074383, -2188.302837407927, -2188.213430430106, -2187.1405466962515, -2187.274657162983, -2187.699340307634, -2187.4311193741705, -2188.369892641293, -2186.4923461070475, -2186.984084485064, -2186.894677507243, -2188.056968218919, -2189.8451077753434, -2188.1016717078296, -2189.0404449749526, -2188.928686252676, -2189.57688684188, -2189.4874798640585, -2189.1745554416843, -2188.213430430106, -2188.86163101931, -2189.7109973086117, -2189.4427763751482, -2189.1075002083185, -2189.6886455641566, -2189.9792182420756, -2189.5545350974244, -2189.4427763751482, -2190.1133287088073, -2188.7498722970336, -2190.0015699865307, -2190.269790919994, -2190.180383942173, -2189.800404286433, -2191.342674653849, -2190.381549642271, -2189.3310176528717, -2190.023921730986, -2188.8169275303994, -2188.4816513635697, -2189.4427763751482, -2189.1298519527736, -2188.9063345082204, -2188.8169275303994, -2189.889811264254, -2190.1133287088073, -2190.0462734754415, -2190.314494408905, -2191.610895587313, -2190.67212232019, -2190.0686252198966, -2190.7168258091006, -2191.4544333761255, -2190.828584531377, -2189.1969071861395, -2188.8392792748546, -2190.3368461533605, -2190.2027356866283, -2189.800404286433, -2190.314494408905, -2190.2027356866283, -2190.2027356866283, -2191.7897095429553, -2192.9743519990866, -2190.180383942173, -2190.269790919994, -2193.1308142102735, -2191.7226543095894, -2191.834413031866, -2192.0579304764187, -2192.236744432061, -2191.4097298872152, -2191.700302565134, -2191.4097298872152, -2192.1026339653295, -2191.3650263983045, -2191.566192098402, -2193.175517699184, -2191.9685234985977, -2191.275619420483, -2191.856764776321, -2191.5885438428577, -2192.1696891986953, -2193.175517699184, -2192.639075832257, -2189.800404286433, -2190.8062327869216, -2191.119157209296, -2191.4097298872152, -2191.5214886094914, -2191.856764776321, -2192.5273171099802, -2192.6614275767124, -2191.7450060540446, -2190.9403432536537, -2190.828584531377, -2191.320322909394, -2208.9111457957206, -2257.8838178972983, -2267.2268470796166, -2266.600998234868, -2265.170486589728, -2263.6505679667675, -2265.729280201111, -2266.2880738124936, -2263.181181333206, -2221.405770946237, -2209.7828638294773, -2257.9061696417534, -2264.20936157815, -2266.01985287903, -2266.4892395125917, -2267.1597918462508, -2266.7127569571444, -2265.6622249677453, -2255.670995196223, -2205.7148463386116, -2207.05595100593, -2257.1685620747285, -2266.01985287903, -2266.176315090217, -2266.7127569571444, -2267.092736612885, -2266.086908112396, -2265.5504662454687, -2267.0703848684293, -2267.7185854576333, -2266.9362744016976, -2266.0422046234853, -2265.885742412298, -2250.7759631605104, -2201.95975327012, -2202.920878281698, -2252.765268417033, -2265.2598935675496, -2265.215190078639, -2265.9751493901194, -2265.9304459012087]]
[[1091.9944753640266, 1090.9886468635377, 1090.3180945298784, 1090.6533706967082, 1092.3073997864008, 1093.0226556089706, 1092.016827108482, 1091.525088730465, 1091.525088730465, 1093.0897108423367, 1093.335580031345, 1091.5474404749204, 1091.9497718751159, 1092.3521032753115, 1092.4191585086774, 1092.4191585086774, 1092.97795212006, 1091.368626519278, 1090.6310189522528, 1093.2461730535238, 1093.1344143312472, 1091.1227573302697, 1090.6757224411635, 1091.3462747748226, 1093.0003038645154, 1092.8885451422389, 1092.1062340863032, 1090.1839840631467, 1090.2957427854233, 1091.88271664175, 1092.8661933977835, 1092.5756207198644, 1091.6144957082863, 1091.5474404749204, 1091.592143963831, 1092.3073997864008, 1092.7320829310518, 1091.4356817526439, 1091.8380131528395, 1093.0897108423367, 1093.0673590978813, 1093.0673590978813, 1091.2568677970014, 1091.078053841359, 1091.234516052546, 1092.7320829310518, 1091.3909782637334, 1091.1674608191802, 1091.6368474527417, 1093.8720218982724, 1094.0284841094594, 1093.179117820158, 1093.0897108423367, 1092.7320829310518, 1093.179117820158, 1093.3802835202555, 1093.201469564613, 1092.3744550197669, 1093.179117820158, 1093.7379114315404, 1094.363760276289, 1092.2850480419456, 1090.4969084855209, 1091.9944753640266, 1093.7379114315404, 1094.5202224874763, 1095.9954376215264, 1095.9060306437052, 1095.6825131991523, 1097.8729841557722, 1097.425949266666, 1094.9225538876717, 1093.3579317758004, 1091.8603648972946, 1091.5697922193758, 1092.7320829310518, 1092.8438416533281, 1091.1898125636355, 1091.6815509416522, 1092.8661933977835, 1092.8661933977835, 1091.4580334970992, 1090.6757224411635, 1091.3462747748226, 1092.6426759532305, 1091.3239230303673, 1091.078053841359, 1089.111100329292, 1089.5134317294874, 1092.016827108482, 1092.0838823418478, 1090.4969084855209, 1089.334617773845, 1089.625190451764, 1091.4580334970992, 1092.530917230954, 1090.78748116344, 1090.4522049966104, 1090.586315463342, 1092.3073997864008, 1093.0673590978813, 1092.6426759532305, 1092.3521032753115, 1092.016827108482, 1093.7379114315404, 1093.6038009648087, 1092.687379442141, 1091.6368474527417, 1092.6203242087752, 1095.2578300545015, 1095.436644010144, 1094.2967050429231, 1093.1344143312472, 1093.3579317758004, 1094.430815509655, 1095.0343126099483, 1094.1849463206465, 1093.1120625867918, 1093.179117820158, 1094.430815509655, 1094.2296498095573, 1094.363760276289, 1094.5202224874763, 1092.5532689754093, 1094.7213881875741, 1095.5260509879652, 1094.7660916764846, 1093.4696904980767, 1094.654332954208, 1096.7330451885516, 1096.4871759995433, 1095.2578300545015, 1094.4531672541102, 1094.8554986543058, 1094.9672573765824, 1096.755396933007, 1096.5318794884538, 1094.5425742319314, 1094.0284841094594, 1093.3579317758004, 1094.7660916764846, 1095.011960865493, 1093.5814492203533, 1094.1625945761914, 1095.6154579657864, 1095.3695887767778, 1093.4696904980767, 1093.5814492203533, 1091.8603648972946, 1094.1178910872807, 1094.9225538876717, 1093.0673590978813, 1093.2461730535238, 1092.8661933977835, 1093.8943736427277, 1094.2296498095573, 1094.5649259763868, 1092.8661933977835, 1093.983780620549, 1094.3190567873785, 1094.8107951653953, 1094.9225538876717, 1093.4249870091662, 1093.2685247979791, 1095.146071332225, 1097.2471353110236, 1096.1295480882584, 1095.0343126099483, 1095.1237195877695, 1095.593106221331, 1095.0566643544037, 1095.9954376215264, 1095.5484027324203, 1095.3248852878673, 1095.7048649436076, 1095.660161454697, 1094.9672573765824, 1095.660161454697, 1094.1625945761914, 1095.7272166880628, 1096.5765829773645, 1094.497870743021, 1094.1178910872807, 1093.5367457314428, 1094.4084637651997, 1093.849670153817, 1093.0897108423367, 1093.69320794263, 1095.011960865493, 1096.1295480882584, 1094.6319812097527, 1093.7379114315404, 1094.006132365004, 1094.3190567873785, 1093.983780620549, 1094.9002021432166, 1095.458995754599, 1094.430815509655, 1093.9390771316382, 1096.2189550660796, 1096.4201207661774, 1095.2801817989566, 1094.78844342094, 1095.5260509879652, 1096.5318794884538, 1096.174251577169, 1094.5202224874763, 1095.6825131991523, 1096.97891437756, 1096.59893472182, 1095.660161454697, 1095.4142922656886, 1094.430815509655, 1094.4755189985656, 1095.7719201769735, 1094.6319812097527, 1093.5814492203533, 1094.497870743021, 1095.5484027324203, 1095.4813474990544, 1095.2578300545015, 1094.5649259763868, 1094.4084637651997, 1094.9002021432166, 1096.4424725106326, 1097.2247835665685, 1094.363760276289, 1095.3695887767778, 1095.436644010144, 1096.107196343803, 1096.8224521663728, 1095.458995754599, 1094.3190567873785, 1094.8778503987612, 1095.7048649436076, 1095.302533543412, 1095.6154579657864, 1095.302533543412, 1093.559097475898, 1090.5416119744316, 1098.9011644007164, 1101.650428968719, 1100.2869725569456, 1104.7349697035515, 1107.6183447382862, 1106.1431296042358, 1103.6844377141522, 1103.2150510805907, 1102.0527603689147, 1101.8068911799064, 1102.432740024655, 1103.9079551587051, 1101.493966757532, 1100.5775452348644, 1100.8010626794176, 1101.6727807131745, 1100.1305103457582, 1098.230612067057, 1099.9963998790265, 1100.689303957141, 1099.9740481345711, 1099.9963998790265, 1099.4376062676438, 1099.817585923384, 1102.365684791289, 1101.4269115241661, 1099.3481992898226, 1100.1528620902136, 1102.0974638578252, 1102.79036793594, 1101.6727807131745, 1102.1868708356465, 1099.5493649899204, 1100.7787109349622, 1102.7456644470292, 1101.628077224264, 1100.845766168328, 1100.622248723775, 1101.337504546345, 1103.3491615473226, 1101.851594668817, 1101.0022283795154, 1100.331676045856, 1100.689303957141, 1102.5221470024762, 1103.1256441027695, 1101.8739464132723, 1099.3929027787333, 1100.5775452348644, 1103.751492947518, 1103.1256441027695, 1101.851594668817, 1101.493966757532, 1101.784539435451, 1103.0138853804929, 1103.5056237585097, 1101.7174842020852, 1098.7447021895293, 1099.5940684788309, 1103.4162167806885, 1103.527975502965, 1101.0469318684259, 1100.97987663506, 1102.008056880004, 1102.7456644470292, 1103.4162167806885, 1100.5998969793197, 1098.4988330005208, 1100.1528620902136, 1103.1256441027695, 1102.298629557923, 1099.7058272011075, 1099.236440567546, 1098.6329434672527, 1098.9011644007164, 1098.722350445074, 1097.7388736890405, 1099.661123712197, 1101.9857051355489, 1101.1139871017917, 1098.5658882338869, 1098.4988330005208, 1098.0070946225042, 1098.7894056784398, 1100.9351731461493, 1101.2257458240683, 1099.0576266119035, 1098.0070946225042, 1101.337504546345, 1102.7009609581187, 1102.8127196803953, 1103.5726789918756, 1103.5726789918756, 1105.852556926317, 1105.4725772705767, 1104.690266214641, 1102.6339057247528, 1100.8010626794176, 1103.1256441027695, 1103.6397342252415, 1102.4103882801996, 1101.3151528018896, 1100.7116557015963, 1102.946830147127, 1104.3549900478113, 1103.1479958472248, 1101.4045597797108, 1100.2199173235795, 1102.3433330468338, 1102.7009609581187, 1102.4550917691101, 1101.3598562908003, 1099.7728824344733, 1099.9740481345711, 1100.6446004682305, 1101.2257458240683, 1100.2869725569456, 1099.4376062676438, 1100.9128214016941, 1102.4103882801996, 1102.4997952580209, 1098.7670539339847, 1095.8613271547947, 1101.2480975685237, 1108.7806354499621, 1108.8253389388728, 1104.913783659194, 1106.1431296042358, 1106.0537226264146, 1105.6737429706745, 1106.1431296042358, 1105.9419639041382, 1103.4385685251439, 1103.6173824807863, 1106.9701441490822, 1106.5454610044314, 1106.523109259976, 1107.2830685714566, 1107.2830685714566, 1107.7077517161074, 1107.6183447382862, 1106.947792404627, 1106.009019137504, 1107.1489581047247, 1107.5736412493757, 1106.366647048789, 1106.210184837602, 1105.2490598260235, 1105.2490598260235, 1105.9196121596829, 1106.4337022821549, 1106.1431296042358, 1105.5396325039426, 1105.9419639041382, 1105.271411570479, 1105.9196121596829, 1105.271411570479, 1103.3268098028673, 1104.4220452811774, 1106.3442953043336, 1105.8749086707721, 1105.4725772705767, 1104.0197138809817, 1107.3948272937332, 1108.2665453274901, 1107.2607168270013, 1105.9419639041382, 1104.9808388925599, 1105.3831702927555, 1108.0206761384818, 1109.3617808058002, 1103.1256441027695, 1097.5377079889427, 1099.4376062676438, 1103.5503272474202, 1102.8574231693058, 1103.1926993361353, 1100.7340074460517, 1101.3822080352554, 1102.79036793594, 1103.0362371249482, 1102.5668504913867, 1101.7174842020852, 1102.2539260690126, 1103.4162167806885, 1103.1703475916802, 1102.4550917691101, 1102.1868708356465, 1102.07511211337, 1103.1479958472248, 1102.4103882801996, 1102.2092225801018, 1101.3822080352554, 1102.1868708356465, 1102.2092225801018, 1102.298629557923, 1099.9516963901158, 1101.0692836128812, 1100.7787109349622, 1101.5610219908979, 1101.650428968719, 1100.5328417459539, 1099.3929027787333, 1102.1198156022806, 1102.365684791289, 1101.5163185019874, 1102.5444987469314, 1101.0469318684259, 1100.8904696572388, 1101.6727807131745, 1102.5668504913867, 1099.7281789455628, 1100.2422690680348, 1100.845766168328, 1102.6339057247528, 1100.9575248906046, 1100.0634551123924, 1099.1023301008142, 1099.370551034278, 1100.5998969793197, 1099.0799783563589, 1098.6329434672527, 1101.3822080352554, 1100.0634551123924, 1101.6951324576298, 1102.9244784026716, 1102.008056880004, 1101.2928010574342, 1103.3715132917778, 1100.845766168328, 1097.1577283332024, 1096.8224521663728, 1098.2753155559678, 1096.5318794884538, 1096.1295480882584, 1097.2918387999343, 1097.0012661220153, 1094.5425742319314, 1095.1684230766803, 1097.3812457777556, 1096.7106934440963, 1096.621286466275, 1095.1013678433142, 1095.8613271547947, 1096.9342108886494, 1095.9730858770713, 1095.3695887767778, 1093.9167253871829, 1094.4084637651997, 1095.079016098859, 1096.9342108886494, 1096.5542312329092, 1095.7272166880628, 1095.7495684325181, 1095.7272166880628, 1095.3695887767778, 1095.6378097102415, 1095.2354783100461, 1095.816623665884, 1097.3365422888448, 1096.4424725106326, 1094.497870743021, 1093.8720218982724, 1094.3190567873785, 1094.7660916764846, 1096.1518998327138, 1095.1013678433142, 1094.7660916764846, 1095.9954376215264, 1097.1353765887472, 1096.9565626331048, 1096.3083620439008, 1095.5036992435098, 1093.5814492203533, 1096.5542312329092, 1099.7728824344733, 1098.655295211708, 1096.8224521663728, 1097.1130248442919, 1097.917687644683, 1098.9458678896272, 1097.9623911335934, 1097.0236178664707, 1097.2471353110236, 1097.6494667112192, 1099.2811440564567, 1097.7612254334958, 1097.6271149667639, 1096.9565626331048, 1099.1470335897247, 1098.6999987006186, 1098.5658882338869, 1097.269487055479, 1098.2753155559678, 1099.7281789455628, 1099.3481992898226, 1098.4541295116103, 1098.2753155559678, 1098.1859085781466, 1100.331676045856, 1100.4210830236773, 1098.7670539339847, 1099.3481992898226, 1099.1470335897247, 1100.0634551123924, 1100.7340074460517, 1098.6105917227974, 1098.655295211708, 1098.6105917227974, 1098.9011644007164, 1099.370551034278, 1098.1188533447807, 1098.0517981114147, 1099.4599580120992, 1099.4152545231884, 1099.9963998790265, 1098.9458678896272, 1096.107196343803, 1097.4483010111214, 1099.236440567546, 1099.2587923120013, 1098.2976673004232, 1097.1577283332024, 1097.3141905443897, 1097.7612254334958, 1098.1412050892359, 1098.230612067057, 1097.6047632223085, 1098.8117574228952, 1100.8904696572388, 1100.689303957141, 1099.236440567546, 1098.655295211708, 1097.5377079889427, 1097.0683213553812, 1097.1800800776577, 1096.0177893659818, 1094.6096294652975, 1095.3919405212332, 1097.2471353110236, 1098.1412050892359, 1096.5542312329092, 1096.0177893659818, 1096.7106934440963, 1096.8448039108282, 1098.3200190448783, 1096.8671556552836, 1095.3248852878673, 1096.6436382107304, 1097.9847428780488, 1097.425949266666, 1096.7330451885516, 1096.7106934440963, 1096.97891437756, 1097.9400393891383, 1098.5435364894315, 1097.0012661220153, 1096.5542312329092, 1096.5318794884538, 1097.425949266666, 1097.045969610926, 1096.3754172772667, 1096.3307137883562, 1095.6825131991523, 1096.6659899551858, 1098.4988330005208, 1098.5658882338869, 1096.4201207661774, 1097.9400393891383, 1099.16938533418, 1098.230612067057, 1097.6494667112192, 1096.3307137883562, 1097.4483010111214, 1099.16938533418, 1099.2811440564567, 1098.856460911806, 1097.716521944585, 1097.5377079889427, 1098.655295211708, 1100.108158601303, 1099.5940684788309, 1097.202431822113, 1097.850632411317, 1100.1305103457582, 1099.88464115675, 1098.588239978342, 1098.364722533789, 1098.6999987006186, 1100.7340074460517, 1100.2422690680348, 1099.3481992898226, 1098.230612067057, 1098.230612067057, 1098.856460911806, 1099.6164202232862, 1098.4541295116103, 1096.5542312329092, 1097.5377079889427, 1099.1246818452696, 1099.1023301008142, 1097.6494667112192, 1097.0906730998365, 1098.3200190448783, 1098.364722533789, 1097.4483010111214, 1097.6494667112192, 1096.7330451885516, 1097.1130248442919, 1097.8953359002276, 1097.425949266666, 1098.0965016003254, 1096.97891437756, 1096.9342108886494, 1098.431777767155, 1099.16938533418, 1096.5318794884538, 1096.4201207661774, 1095.816623665884, 1097.2471353110236, 1097.9847428780488, 1097.560059733398, 1095.9283823881606, 1096.8895073997387, 1098.722350445074, 1098.655295211708, 1097.403597522211, 1096.9565626331048, 1096.59893472182, 1097.5377079889427, 1099.2811440564567, 1097.3141905443897, 1094.5872777208422, 1096.0401411104372, 1096.755396933007, 1097.3365422888448, 1096.2636585549901, 1094.9896091210378, 1096.107196343803, 1096.9565626331048, 1097.6047632223085, 1095.7719201769735, 1094.0731875983702, 1095.0566643544037, 1095.7272166880628, 1096.8448039108282, 1096.5765829773645, 1094.7660916764846, 1094.7437399320293, 1096.5318794884538, 1097.2471353110236, 1097.8059289224063, 1094.78844342094, 1096.2189550660796, 1097.783577177951, 1097.8729841557722, 1097.8059289224063, 1096.0401411104372, 1095.660161454697, 1096.8895073997387, 1097.2247835665685, 1097.3812457777556, 1095.9954376215264, 1095.6825131991523, 1098.0070946225042, 1097.850632411317, 1095.8389754103393, 1095.3695887767778, 1096.0848445993477, 1096.5318794884538, 1096.1518998327138, 1095.5260509879652, 1095.7272166880628, 1096.6659899551858, 1097.0906730998365, 1096.3083620439008, 1096.2636585549901, 1096.3754172772667, 1096.1518998327138, 1096.5765829773645, 1096.0401411104372, 1096.5542312329092, 1094.8331469098505, 1094.9225538876717, 1095.8613271547947, 1095.3472370323227, 1096.7106934440963, 1095.3695887767778, 1094.0731875983702, 1095.3695887767778, 1096.0624928548925, 1094.9672573765824, 1093.626152709264, 1094.2296498095573, 1095.5260509879652, 1096.2636585549901, 1096.1295480882584, 1093.9614288760936, 1093.4026352647109, 1095.302533543412, 1096.3754172772667, 1095.3248852878673, 1094.4084637651997, 1093.6708561981745, 1094.8554986543058, 1096.0624928548925, 1094.3190567873785, 1093.2238213090684, 1094.6766846986634, 1095.079016098859], [-2272.300693070971, -2272.367748304337, -2272.278341326516, -2245.277434024505, -2203.256154448528, -2238.2813380099938, -2270.02081513653, -2270.043166880985, -2270.691367470189, -2272.703024471167, -2272.5018587710692, -2272.077175626418, -2272.0995273708736, -2272.9041901712644, -2271.697195970678, -2270.8478296813764, -2271.987768648597, -2271.2054575926613, -2270.5796087479125, -2269.1267453583177, -2270.5572570034574, -2272.278341326516, -2271.2278093371165, -2247.669070681223, -2202.8091195594216, -2231.218186762117, -2269.730242458611, -2272.434803537703, -2272.345396559882, -2272.2559895820605, -2270.758422703555, -2269.998463392075, -2270.244332581083, -2271.7418994595887, -2272.434803537703, -2271.250161081572, -2271.1384023592955, -2270.669015725734, -2250.7089079271445, -2204.932535282676, -2238.571910687913, -2271.339568059393, -2271.4960302705804, -2271.1831058482057, -2271.1384023592955, -2271.317216314938, -2271.473678526125, -2272.0324721375077, -2271.8536581818653, -2272.6136174933454, -2272.0995273708736, -2271.0713471259296, -2269.149097102773, -2270.4231465367257, -2271.965416904142, -2271.473678526125, -2272.658320982256, -2272.278341326516, -2246.886759625287, -2200.1045584803296, -2228.5136256830247, -2269.1267453583177, -2272.5242105155244, -2270.6466639812784, -2271.11605061484, -2271.987768648597, -2270.311387814449, -2269.30555931396, -2268.1879720911948, -2269.1938005916836, -2269.797297691977, -2268.9702831471304, -2270.5572570034574, -2255.3580707738483, -2205.9830672720755, -2227.9101285827314, -2267.83034417991, -2269.9090564142534, -2270.5125535145467, -2272.6806727267117, -2270.981940148108, -2269.64083548079, -2271.1384023592955, -2269.417318036237, -2269.6855389697002, -2270.40079479227, -2271.361919803848, -2270.087870369896, -2270.601960492368, -2271.5183820150355, -2270.467850025636, -2270.8031261924657, -2271.1831058482057, -2254.7769254180107, -2204.954887027131, -2223.864462836321, -2267.852695924365, -2271.5854372484014, -2270.825477936921, -2271.2948645704823, -2271.4289750372145, -2271.0713471259296, -2272.434803537703, -2270.8478296813764, -2270.333739558904, -2270.7360709591, -2270.6466639812784, -2269.394966291781, -2264.634044722801, -2222.3221924689046, -2227.7760181159997, -2269.5290767585134, -2271.250161081572, -2270.2890360699935, -2271.406623292759, -2270.601960492368, -2271.1384023592955, -2271.11605061484, -2271.026643637019, -2272.8818384268093, -2272.859486682354, -2270.4231465367257, -2270.691367470189, -2272.1442308597843, -2273.1053558713625, -2272.367748304337, -2271.2054575926613, -2270.6243122368232, -2247.4902567255804, -2201.602125358835, -2219.4388174341702, -2265.371652289826, -2270.378443047815, -2269.6855389697002, -2270.087870369896, -2271.674844226223, -2271.250161081572, -2270.6243122368232, -2270.1772773477173, -2269.4620215251475, -2269.6184837363344, -2270.244332581083, -2270.2219808366276, -2270.6466639812784, -2270.110222114351, -2270.1772773477173, -2270.601960492368, -2270.1996290921725, -2250.0160038490303, -2203.3679131708045, -2225.2279192480946, -2266.310425556949, -2270.2890360699935, -2271.2054575926613, -2270.959588403653, -2270.6466639812784, -2270.5125535145467, -2269.4620215251475, -2269.4620215251475, -2270.244332581083, -2272.2559895820605, -2272.1889343486946, -2270.1996290921725, -2253.212303306139, -2204.239631204561, -2224.53501516998, -2267.6291784798123, -2272.21128609315, -2271.7418994595887, -2271.2278093371165, -2271.0713471259296, -2269.998463392075, -2269.998463392075, -2271.5854372484014, -2271.8313064374097, -2271.473678526125, -2271.2278093371165, -2270.311387814449, -2269.8867046697983, -2271.5183820150355, -2272.8371349378986, -2272.21128609315, -2271.473678526125, -2255.089849840385, -2272.323044815427, -2272.434803537703, -2271.2054575926613, -2272.367748304337, -2272.4571552821585, -2271.361919803848, -2271.607788992857, -2270.02081513653, -2265.5504662454687, -2217.7847883444774, -2210.788692329966, -2263.0917743553846, -2271.5407337594906, -2271.8089546929546, -2272.367748304337, -2271.5630855039462, -2271.6524924817672, -2271.361919803848, -2272.21128609315, -2271.384271548304, -2272.2559895820605, -2271.8089546929546, -2271.8760099263204, -2271.026643637019, -2271.764251204044, -2272.658320982256, -2272.278341326516, -2273.4182802937366, -2268.3891377912923, -2220.9363843126757, -2211.861576063821, -2263.1364778442953, -2273.0383006379966, -2272.4795070266136, -2273.1053558713625, -2273.150059360273, -2272.859486682354, -2272.4571552821585, -2273.7088529716557, -2273.1947628491835, -2273.3288733159156, -2275.608751250357, -2274.222943094128, -2271.5183820150355, -2244.6515851797562, -2211.9286312971867, -2258.0626318529407, -2271.4289750372145, -2273.2618180825493, -2274.4688122831362, -2272.8818384268093, -2272.792431448988, -2271.764251204044, -2271.026643637019, -2271.361919803848, -2271.5407337594906, -2267.9421029021864, -2260.4766202541136, -2248.1384573147843, -2195.500099122536, -2171.8519534888214, -2215.6166691323124, -2229.9441373281643, -2225.2502709925498, -2222.143378513262, -2219.4611691786254, -2214.923765054198, -2213.828529575888, -2204.0831689933743, -2152.182418368151, -2137.474970516559, -2186.2017734291285, -2202.630305603779, -2201.1327387252736, -2201.5350701254692, -2201.5350701254692, -2202.7197125816006, -2201.9150497812093, -2203.904355037732, -2206.9665440281087, -2208.821738817899, -2211.7498173415443, -2212.9344597976756, -2213.8061778314327, -2215.8178348324104, -2216.5107389105247, -2216.1531109992397, -2215.7507795990446, -2212.6438871197565, -2170.8908284772433, -2154.1717236246736, -2205.670142849701, -2220.4893494235694, -2218.991782545064, -2219.0588377784297, -2218.857672078332, -2219.550576156447, -2219.930555812187, -2219.1258930117956, -2221.204605246139, -2221.919861068709, -2221.9869163020753, -2219.6846866231785, -2219.4835209230805, -2221.0034395460416, -2222.0316197909856, -2223.3503727138486, -2221.3834192017816, -2215.1919859876616, -2170.421441843682, -2157.3009678484163, -2207.7712068285, -2219.639983134268, -2220.578756401391, -2220.1987767456503, -2217.4271604331925, -2214.275564464994, -2211.861576063821, -2212.085093508374, -2207.1006544948405, -2201.24449744755, -2201.4680148921034, -2200.8868695362653, -2196.707093323123, -2154.3281858358605, -2131.283537302439, -2177.261075647006, -2193.8460700328437, -2194.1366427107623, -2192.4602618766144, -2192.639075832257, -2194.0025322440306, -2192.192040943151, -2194.494270622047, -2192.0579304764187, -2189.8451077753434, -2191.3873781427596, -2189.7109973086117, -2184.503040850525, -2136.670307716168, -2125.5614907218805, -2177.1046134358185, -2190.895639764743, -2193.0637589769076, -2194.6954363221453, -2192.9072967657207, -2190.269790919994, -2191.208564187117, -2189.6215903307907, -2191.7226543095894, -2189.889811264254, -2191.0073984870196, -2190.4486048756366, -2189.599238586335, -2190.158032197718, -2191.700302565134, -2192.281447920972, -2191.990875243053, -2191.0521019759303, -2153.6129300132907, -2125.89676688871, -2173.4612790896035, -2191.1415089537513, -2190.7391775535557, -2189.7109973086117, -2190.7615292980113, -2191.6779508206787, -2191.633247331768, -2192.48261362107, -2192.8178897878993, -2193.6225525882905, -2192.7508345545334, -2191.923820009687, -2193.4213868881925, -2193.9131252662096, -2192.281447920972, -2194.471918877592, -2195.8800787782766, -2188.258133919017, -2143.3981827972157, -2136.513845504981, -2189.666293819701, -2206.541860883458, -2212.1745004861955, -2209.5593463849245, -2210.051084762941, -2215.8848900657763, -2214.9014133097426, -2214.320267953905, -2215.951945299142, -2215.7731313434997, -2213.1579772422288, -2213.2026807311395, -2212.509776653025, -2213.739122598067, -2214.7449510985557, -2213.5379568979693, -2212.420369675204, -2213.9179365537093, -2214.767302843011, -2214.1861574871727, -2213.2920877089605, -2212.509776653025, -2208.5535178844357, -2166.9792731975645, -2146.572130509869, -2191.8120612874104, -2212.1745004861955, -2211.638058619268, -2213.403846431237, -2212.755645842033, -2214.7449510985557, -2213.113273753318, -2211.705113852634, -2212.308610952927, -2213.6273638757903, -2213.6497156202454, -2213.403846431237, -2212.2415557195613, -2213.5156051535137, -2214.253212720539, -2211.861576063821, -2212.107445252829, -2209.604049873835, -2168.1639156536958, -2144.6275287422573, -2194.6507328332345, -2213.090922008863, -2210.2298987185836, -2212.062741763919, -2213.180328986684, -2213.046218519952, -2214.119102253807, -2215.1919859876616, -2216.443683677159, -2215.1919859876616, -2214.923765054198, -2215.05787552093, -2216.9130703107203, -2217.1142360108183, -2213.96264004262, -2213.5826603868795, -2214.4320266761815, -2213.761474342522, -2181.485555349059, -2145.90157817621, -2186.29118040695, -2214.2085092316283, -2217.4495121776476, -2216.019000532508, -2214.7896545874664, -2213.8732330647986, -2213.5156051535137, -2213.8061778314327, -2215.862538321321, -2213.96264004262, -2213.605012131335, -2213.381494686782, -2212.3309626973823, -2213.9179365537093, -2213.984991787075, -2214.5214336540025, -2213.2026807311395, -2208.9334975401757, -2166.6887005196454, -2144.7839909534446, -2192.0802822208743, -2213.5156051535137, -2213.5379568979693, -2213.694419109156, -2213.8732330647986, -2213.984991787075, -2213.090922008863, -2212.9121080532204, -2216.6224976328012, -2218.209471489128, -2216.4213319327037, -2219.8187970899103, -2226.7254861266, -2235.7779426309994, -2241.410582233737, -2246.4620764806364, -2253.480524239603, -2260.2307510651053, -2266.824515679421, -2275.340530316893, -2281.4872600421027, -2285.957608933164, -2289.4221293237365, -2296.440577082703, -2299.078082928429, -2300.5309463180242, -2299.793338750999, -2299.4804143286246, -2300.4862428291135, -2300.4862428291135, -2300.1956701511945, -2301.246202140594, -2301.536774818513, -2302.274382385538, -2300.039207940007, -2299.4580625841695, -2300.59800155139, -2300.083911428918, -2299.949800962186, -2301.045036440496, -2299.368655606348, -2300.4191875957476, -2298.8545654838763, -2258.599073719868, -2228.6253844053012, -2270.825477936921, -2299.2345451396163, -2300.396835851292, -2298.921620717242, -2298.698103272689, -2298.7428067615997, -2297.9381439612084, -2297.178184649728, -2297.5134608165577, -2298.8322137394207, -2298.5192893170465, -2298.2510683835826, -2298.2510683835826, -2297.826385238932, -2297.088777671907, -2295.6582660267673, -2295.9488387046863, -2296.1276526603287, -2259.962530131642, -2226.770189615511, -2265.170486589728, -2292.886649714309, -2292.819594480943, -2291.7690624915435, -2291.6796555137225, -2294.115995659351, -2294.183050892717, -2294.6747892707335, -2294.40656833727, -2291.523193302535, -2291.545545046991, -2293.110167158862, -2294.183050892717, -2293.9148299592534, -2293.2889811145046, -2293.2889811145046, -2294.205402637172, -2291.0314549245186, -2258.4873149975915, -2223.3280209693935, -2262.532980744002, -2290.986751435608, -2290.986751435608, -2291.0314549245186, -2292.21609738065, -2291.88082121382, -2291.83611772491, -2292.372559591837, -2291.590248535901, -2290.3832543353146, -2289.623295023834, -2290.4279578242254, -2290.5844200354127, -2294.0042369370744, -2292.9313532032197, -2290.9643996911527, -2291.7690624915435, -2289.176260134728, -2254.307538784449, -2221.9645645576197, -2261.0801173544073, -2289.31037060146, -2290.3609025908595, -2290.986751435608, -2288.662170012256, -2288.7739287345325, -2289.824460723932, -2290.495013057591, -2291.2549723690718, -2290.986751435608, -2288.4163008232476, -2288.304542100971, -2289.466832812647, -2270.6466639812784, -2223.7080006251335, -2253.145248072773, -2284.705911243667, -2285.5105740440576, -2287.0975479003846, -2286.8516787113763, -2286.315236844449, -2286.672864755734, -2287.052844411474, -2287.611638022857, -2288.304542100971, -2288.572763034435, -2286.985789178108, -2286.8069752224656, -2288.1927833786945, -2288.7962804789877, -2287.2316583671163, -2288.5280595455242, -2287.209306622661, -2263.6952714556783, -2219.6846866231785, -2254.821628906921, -2286.2034781221723, -2286.382292077815, -2287.365768833848, -2287.946914189686, -2289.958571190664, -2288.7962804789877, -2288.6174665233452, -2287.6786932562227, -2286.5164025445465, -2288.081024656418, -2286.985789178108, -2287.2316583671163, -2278.469774540636, -2232.335773984882, -2257.7720591750217, -2287.4551758116695, -2286.337588588904, -2286.963437433653, -2287.7457484895886, -2289.0645014124516, -2287.008140922563, -2286.628161266823, -2286.963437433653, -2286.382292077815, -2286.114071144351, -2285.2200013661386, -2283.9683036766414, -2258.8449429088764, -2216.7119046106227, -2251.5806259609017, -2285.0635391549517, -2286.2258298666275, -2283.9683036766414, -2284.147117632284, -2284.951780432675, -2285.0635391549517, -2284.370635076837, -2283.990655421097, -2284.5494490324795, -2285.2647048550493, -2283.141289131795, -2282.7166059871442, -2284.92942868822, -2283.476565298625, -2280.9955216640856, -2281.509611786558, -2280.8837629418094, -2256.5650649744352, -2211.9733347860974, -2244.4280677352035, -2279.9673414191416, -2281.2413908530943, -2281.174335619728, -2281.5990187643793, -2281.956646675664, -2281.9342949312086, -2281.7107774866554, -2282.046053653485, -2281.375501319826, -2282.694254242689, -2282.6495507537784, -2282.470736798136, -2281.5766670199237, -2281.9342949312086, -2282.4930885425915, -2280.9061146862646, -2279.83323095241, -2251.535922471991, -2210.8780993077876, -2244.8527508798543, -2280.079100141418, -2280.9061146862646, -2282.2472193535828, -2281.666073997745, -2280.8837629418094, -2279.475603041125, -2279.274437341027, -2281.464908297647, -2280.816707708443, -2281.2413908530943, -2281.800184464477, -2281.375501319826, -2279.699120485678, -2280.9284664307197, -2280.9508181751753, -2280.2802658415158, -2280.459079797158, -2256.0062713630523, -2212.8674045643097, -2241.790561889477, -2279.7214722301333, -2280.9955216640856, -2279.565010018946, -2279.9896931635967, -2282.046053653485, -2280.9061146862646, -2280.3473210748816, -2279.788527463499, -2282.180164120217, -2281.4872600421027, -2280.7049489861665, -2280.079100141418, -2280.7496524750773, -2281.666073997745, -2281.017873408541, -2280.21321060815, -2280.0120449080523, -2251.155942816251, -2210.185195229673, -2243.1316665567956, -2278.514478029547, -2279.9002861857757, -2281.2637425975495, -2280.123803630329, -2278.894457685287, -2279.9002861857757, -2280.7496524750773, -2279.922637930231, -2278.1344983738063, -2279.185030363206, -2279.7214722301333, -2277.955684418164, -2276.8380971953984, -2277.9333326737087, -2277.598056506879, -2276.882800684309, -2278.246257096083, -2261.571855732424, -2213.4261981756927, -2235.9344048421867, -2275.608751250357, -2276.4581175396584, -2277.1286698733174, -2276.3240070729266, -2277.30748382896, -2278.7156437296444, -2277.7098152291555, -2276.3687105618374, -2277.8439256958873, -2278.6485884962785, -2276.8380971953984, -2275.608751250357, -2279.3191408299376, -2278.2909605849936, -2278.603885007368, -2278.0227396515297, -2276.860448939854, -2257.995576619575, -2211.2580789635276, -2237.186102531684, -2276.7039867286667, -2279.0956233853844, -2277.799222206977, -2277.374539062326, -2278.7379954740995, -2279.699120485678, -2277.732166973611, -2276.569876261935, -2276.793393706488]]
