['beep', 0.0, 706.963325376907, 0.0, 0.0, 0.0, 0.0, -2707.6009163380763, 0.0]
['beep', 0.0, 706.158662576516, 0.0, 0.0, 0.0, 0.0, -2708.4055791384676, 0.0]
['beep', 0.0, 707.0974358436389, 0.0, 0.0, 0.0, 0.0, -2709.634925083509, 0.0]
['beep', 0.0, 708.6844096999657, 0.0, 0.0, 0.0, 0.0, -2708.1820616939144, 0.0]
['beep', 0.0, 707.9691538773959, 0.0, 0.0, 0.0, 0.0, -2709.0761314721267, 0.0]
['beep', 0.0, 706.6280492100775, 0.0, 0.0, 0.0, 0.0, -2708.7855587942076, 0.0]
['beep', 0.0, 705.5104619873122, 0.0, 0.0, 0.0, 0.0, -2708.718503560842, 0.0]
['beep', 0.0, 707.4327120104685, 0.0, 0.0, 0.0, 0.0, -2708.5173378607437, 0.0]
['beep', 0.0, 708.1703195774936, 0.0, 0.0, 0.0, 0.0, -2708.96437274985, 0.0]
['beep', 0.0, 707.7232846883875, 0.0, 0.0, 0.0, 0.0, -2709.1431867054926, 0.0]
['beep', 0.0, 706.2704212987926, 0.0, 0.0, 0.0, 0.0, -2707.5115093602553, 0.0]
['beep', 0.0, 705.9351451319629, 0.0, 0.0, 0.0, 0.0, -2708.3385239051013, 0.0]
['beep', 0.0, 708.125616088583, 0.0, 0.0, 0.0, 0.0, -2708.718503560842, 0.0]
['beep', 0.0, 708.7291131888763, 0.0, 0.0, 0.0, 0.0, -2708.450282627378, 0.0]
['beep', 0.0, 708.1479678330384, 0.0, 0.0, 0.0, 0.0, -2707.690323315898, 0.0]
['beep', 0.0, 707.6562294550216, 0.0, 0.0, 0.0, 0.0, -2706.5503843486767, 0.0]
['beep', 0.0, 708.416188766502, 0.0, 0.0, 0.0, 0.0, -2709.1208349610374, 0.0]
['beep', 0.0, 709.8467004116417, 0.0, 0.0, 0.0, 0.0, -2709.8584425280624, 0.0]
['beep', 0.0, 709.6008312226334, 0.0, 0.0, 0.0, 0.0, -2710.350180906079, 0.0]
['beep', 0.0, 708.7291131888763, 0.0, 0.0, 0.0, 0.0, -2708.9867244943052, 0.0]
['beep', 0.0, 707.8573951551193, 0.0, 0.0, 0.0, 0.0, -2708.8973175164842, 0.0]
['beep', 0.0, 707.5668224772004, 0.0, 0.0, 0.0, 0.0, -2709.5008146167775, 0.0]
['beep', 0.0, 708.5055957443233, 0.0, 0.0, 0.0, 0.0, -2709.634925083509, 0.0]
['beep', 0.0, 710.2937353007478, 0.0, 0.0, 0.0, 0.0, -2709.634925083509, 0.0]
['beep', 0.0, 709.7349416893652, 0.0, 0.0, 0.0, 0.0, -2708.718503560842, 0.0]
['beep', 0.0, 709.0420376112506, 0.0, 0.0, 0.0, 0.0, -2707.8914890159954, 0.0]
['beep', 0.0, 709.2879068002591, 0.0, 0.0, 0.0, 0.0, -2708.8749657720286, 0.0]
['beep', 0.0, 710.226680067382, 0.0, 0.0, 0.0, 0.0, -2709.2772971722243, 0.0]
['beep', 0.0, 711.2101568234154, 0.0, 0.0, 0.0, 0.0, -2709.701980316875, 0.0]
['beep', 0.0, 710.8525289121305, 0.0, 0.0, 0.0, 0.0, -2709.053779727671, 0.0]
['beep', 0.0, 708.6397062110551, 0.0, 0.0, 0.0, 0.0, -2708.5173378607437, 0.0]
['beep', 0.0, 709.3326102891697, 0.0, 0.0, 0.0, 0.0, -2708.8526140275735, 0.0]
['beep', 0.0, 710.3607905341138, 0.0, 0.0, 0.0, 0.0, -2709.322000661135, 0.0]
['beep', 0.0, 710.9419358899518, 0.0, 0.0, 0.0, 0.0, -2709.254945427769, 0.0]
['beep', 0.0, 708.9749823778848, 0.0, 0.0, 0.0, 0.0, -2708.070302971638, 0.0]
['beep', 0.0, 709.1537963335272, 0.0, 0.0, 0.0, 0.0, -2707.422102382434, 0.0]
['beep', 0.0, 709.7349416893652, 0.0, 0.0, 0.0, 0.0, -2707.8467855270846, 0.0]
['beep', 0.0, 710.6960667009433, 0.0, 0.0, 0.0, 0.0, -2707.064474471149, 0.0]
['beep', 0.0, 711.6795434569768, 0.0, 0.0, 0.0, 0.0, -2708.070302971638, 0.0]
['beep', 0.0, 710.8525289121305, 0.0, 0.0, 0.0, 0.0, -2709.4561111278667, 0.0]
['beep', 0.0, 709.4220172669909, 0.0, 0.0, 0.0, 0.0, -2709.3667041500457, 0.0]
['beep', 0.0, 708.192671321949, 0.0, 0.0, 0.0, 0.0, -2707.355047149068, 0.0]
['beep', 0.0, 709.7572934338205, 0.0, 0.0, 0.0, 0.0, -2707.8467855270846, 0.0]
['beep', 0.0, 710.0702178561947, 0.0, 0.0, 0.0, 0.0, -2708.360875649557, 0.0]
['beep', 0.0, 709.7349416893652, 0.0, 0.0, 0.0, 0.0, -2708.316172160646, 0.0]
['beep', 0.0, 708.8185201666976, 0.0, 0.0, 0.0, 0.0, -2706.2151081818474, 0.0]
['beep', 0.0, 708.3491335331361, 0.0, 0.0, 0.0, 0.0, -2707.4891576157997, 0.0]
['beep', 0.0, 709.2432033113485, 0.0, 0.0, 0.0, 0.0, -2708.5173378607437, 0.0]
['beep', 0.0, 710.0031626228289, 0.0, 0.0, 0.0, 0.0, -2708.070302971638, 0.0]
['beep', 0.0, 710.1372730895607, 0.0, 0.0, 0.0, 0.0, -2709.746683805786, 0.0]
['beep', 0.0, 708.5502992332339, 0.0, 0.0, 0.0, 0.0, -2707.779730293719, 0.0]
['beep', 0.0, 709.578479478178, 0.0, 0.0, 0.0, 0.0, -2708.696151816386, 0.0]
['beep', 0.0, 710.5172527453009, 0.0, 0.0, 0.0, 0.0, -2708.8302622831184, 0.0]
['beep', 0.0, 710.0031626228289, 0.0, 0.0, 0.0, 0.0, -2708.673800071931, 0.0]
['beep', 0.0, 709.9584591339183, 0.0, 0.0, 0.0, 0.0, -2709.657276827965, 0.0]
['beep', 0.0, 709.0867411001612, 0.0, 0.0, 0.0, 0.0, -2708.6290965830203, 0.0]
['beep', 0.0, 707.9915056218512, 0.0, 0.0, 0.0, 0.0, -2709.009076238761, 0.0]
['beep', 0.0, 710.4278457674797, 0.0, 0.0, 0.0, 0.0, -2709.34435240559, 0.0]
['beep', 0.0, 712.0371713682617, 0.0, 0.0, 0.0, 0.0, -2709.7913872946965, 0.0]
['beep', 0.0, 711.0536946122282, 0.0, 0.0, 0.0, 0.0, -2707.9585442493612, 0.0]
['beep', 0.0, 711.2548603123261, 0.0, 0.0, 0.0, 0.0, -2705.455148870367, 0.0]
['beep', 0.0, 711.6348399680662, 0.0, 0.0, 0.0, 0.0, -2705.7233698038303, 0.0]
['beep', 0.0, 713.221813824393, 0.0, 0.0, 0.0, 0.0, -2707.3997506379787, 0.0]
['beep', 0.0, 712.707723701921, 0.0, 0.0, 0.0, 0.0, -2707.3103436601573, 0.0]
['beep', 0.0, 711.9030609015299, 0.0, 0.0, 0.0, 0.0, -2705.7904250371967, 0.0]
['beep', 0.0, 708.9079271445188, 0.0, 0.0, 0.0, 0.0, -2705.7233698038303, 0.0]
['beep', 0.0, 708.0585608552171, 0.0, 0.0, 0.0, 0.0, -2706.5727360931323, 0.0]
['beep', 0.0, 709.7572934338205, 0.0, 0.0, 0.0, 0.0, -2706.5950878375875, 0.0]
['beep', 0.0, 709.1314445890719, 0.0, 0.0, 0.0, 0.0, -2707.667971571442, 0.0]
['beep', 0.0, 708.8408719111529, 0.0, 0.0, 0.0, 0.0, -2707.5115093602553, 0.0]
['beep', 0.0, 708.416188766502, 0.0, 0.0, 0.0, 0.0, -2707.8914890159954, 0.0]
['beep', 0.0, 708.5502992332339, 0.0, 0.0, 0.0, 0.0, -2708.293820416191, 0.0]
['beep', 0.0, 709.869052156097, 0.0, 0.0, 0.0, 0.0, -2709.031427983216, 0.0]
['beep', 0.0, 711.3442672901473, 0.0, 0.0, 0.0, 0.0, -2711.0877884731044, 0.0]
['beep', 0.0, 709.1090928446166, 0.0, 0.0, 0.0, 0.0, -2710.663105328453, 0.0]
['beep', 0.0, 709.0420376112506, 0.0, 0.0, 0.0, 0.0, -2709.5231663612326, 0.0]
['beep', 0.0, 709.1314445890719, 0.0, 0.0, 0.0, 0.0, -2709.701980316875, 0.0]
['beep', 0.0, 709.9361073894629, 0.0, 0.0, 0.0, 0.0, -2710.618401839543, 0.0]
['beep', 0.0, 710.7631219343093, 0.0, 0.0, 0.0, 0.0, -2708.942021005395, 0.0]
['beep', 0.0, 709.2879068002591, 0.0, 0.0, 0.0, 0.0, -2707.9808959938164, 0.0]
['beep', 0.0, 708.7961684222423, 0.0, 0.0, 0.0, 0.0, -2709.322000661135, 0.0]
['beep', 0.0, 707.6785811994769, 0.0, 0.0, 0.0, 0.0, -2709.5678698501433, 0.0]
['beep', 0.0, 708.6173544665999, 0.0, 0.0, 0.0, 0.0, -2709.8360907836072, 0.0]
['beep', 0.0, 710.8748806565858, 0.0, 0.0, 0.0, 0.0, -2710.327829161624, 0.0]
['beep', 0.0, 709.7572934338205, 0.0, 0.0, 0.0, 0.0, -2709.4337593834116, 0.0]
['beep', 0.0, 709.9808108783735, 0.0, 0.0, 0.0, 0.0, -2709.7913872946965, 0.0]
['beep', 0.0, 709.2208515668931, 0.0, 0.0, 0.0, 0.0, -2708.450282627378, 0.0]
['beep', 0.0, 710.6290114675775, 0.0, 0.0, 0.0, 0.0, -2708.159709949459, 0.0]
['beep', 0.0, 710.5396044897562, 0.0, 0.0, 0.0, 0.0, -2708.7855587942076, 0.0]
['beep', 0.0, 711.1431015900495, 0.0, 0.0, 0.0, 0.0, -2707.8691372715402, 0.0]
['beep', 0.0, 710.6737149564881, 0.0, 0.0, 0.0, 0.0, -2708.3385239051013, 0.0]
['beep', 0.0, 709.869052156097, 0.0, 0.0, 0.0, 0.0, -2708.293820416191, 0.0]
['beep', 0.0, 710.6737149564881, 0.0, 0.0, 0.0, 0.0, -2707.6009163380763, 0.0]
['beep', 0.0, 711.0089911233176, 0.0, 0.0, 0.0, 0.0, -2709.009076238761, 0.0]
['beep', 0.0, 710.3607905341138, 0.0, 0.0, 0.0, 0.0, -2708.8973175164842, 0.0]
['beep', 0.0, 709.6231829670886, 0.0, 0.0, 0.0, 0.0, -2708.092654716093, 0.0]
['beep', 0.0, 709.9137556450077, 0.0, 0.0, 0.0, 0.0, -2708.2491169272803, 0.0]
['beep', 0.0, 711.4336742679685, 0.0, 0.0, 0.0, 0.0, -2709.1878901944033, 0.0]
['beep', 0.0, 711.4560260124238, 0.0, 0.0, 0.0, 0.0, -2709.746683805786, 0.0]
['beep', 0.0, 710.740770189854, 0.0, 0.0, 0.0, 0.0, -2709.2102419388584, 0.0]
['beep', 0.0, 709.8914039005523, 0.0, 0.0, 0.0, 0.0, -2708.96437274985, 0.0]
['beep', 0.0, 710.7184184453987, 0.0, 0.0, 0.0, 0.0, -2708.8302622831184, 0.0]
['beep', 0.0, 710.5843079786669, 0.0, 0.0, 0.0, 0.0, -2708.2714686717354, 0.0]
['beep', 0.0, 711.836005668164, 0.0, 0.0, 0.0, 0.0, -2709.29964891668, 0.0]
['beep', 0.0, 711.2995638012367, 0.0, 0.0, 0.0, 0.0, -2709.903146016973, 0.0]
['beep', 0.0, 710.2490318118372, 0.0, 0.0, 0.0, 0.0, -2708.740855305297, 0.0]
['beep', 0.0, 710.4949010008456, 0.0, 0.0, 0.0, 0.0, -2707.6009163380763, 0.0]
['beep', 0.0, 711.9254126459853, 0.0, 0.0, 0.0, 0.0, -2708.740855305297, 0.0]
['beep', 0.0, 712.417151024002, 0.0, 0.0, 0.0, 0.0, -2710.7972157951854, 0.0]
['beep', 0.0, 712.1042266016277, 0.0, 0.0, 0.0, 0.0, -2710.350180906079, 0.0]
['beep', 0.0, 710.0255143672841, 0.0, 0.0, 0.0, 0.0, -2709.8360907836072, 0.0]
['beep', 0.0, 710.0925696006501, 0.0, 0.0, 0.0, 0.0, -2710.126663461526, 0.0]
['beep', 0.0, 711.8583574126193, 0.0, 0.0, 0.0, 0.0, -2710.618401839543, 0.0]
['beep', 0.0, 711.5901364791556, 0.0, 0.0, 0.0, 0.0, -2711.065436728649, 0.0]
['beep', 0.0, 711.2101568234154, 0.0, 0.0, 0.0, 0.0, -2711.3336576621127, 0.0]
['beep', 0.0, 710.9419358899518, 0.0, 0.0, 0.0, 0.0, -2710.7972157951854, 0.0]
['beep', 0.0, 710.2043283229266, 0.0, 0.0, 0.0, 0.0, -2710.350180906079, 0.0]
['beep', 0.0, 711.4336742679685, 0.0, 0.0, 0.0, 0.0, -2710.841919284096, 0.0]
['beep', 0.0, 712.9312411464741, 0.0, 0.0, 0.0, 0.0, -2710.77486405073, 0.0]
['beep', 0.0, 711.5007295013344, 0.0, 0.0, 0.0, 0.0, -2712.25007918478, 0.0]
['beep', 0.0, 710.740770189854, 0.0, 0.0, 0.0, 0.0, -2711.8253960401294, 0.0]
['beep', 0.0, 711.031342867773, 0.0, 0.0, 0.0, 0.0, -2711.0207332397385, 0.0]
['beep', 0.0, 711.4783777568791, 0.0, 0.0, 0.0, 0.0, -2712.1383204625035, 0.0]
['beep', 0.0, 712.3053923017254, 0.0, 0.0, 0.0, 0.0, -2711.356009406568, 0.0]
['beep', 0.0, 711.9924678793511, 0.0, 0.0, 0.0, 0.0, -2711.1324919620147, 0.0]
['beep', 0.0, 709.8243486671864, 0.0, 0.0, 0.0, 0.0, -2709.8807942725175, 0.0]
['beep', 0.0, 710.159624834016, 0.0, 0.0, 0.0, 0.0, -2709.612573339054, 0.0]
['beep', 0.0, 711.7465986903428, 0.0, 0.0, 0.0, 0.0, -2710.193718694892, 0.0]
['beep', 0.0, 712.3947992795466, 0.0, 0.0, 0.0, 0.0, -2711.1324919620147, 0.0]
['beep', 0.0, 711.1878050789601, 0.0, 0.0, 0.0, 0.0, -2710.193718694892, 0.0]
['beep', 0.0, 709.578479478178, 0.0, 0.0, 0.0, 0.0, -2709.992552994794, 0.0]
['beep', 0.0, 708.5726509776892, 0.0, 0.0, 0.0, 0.0, -2710.7525123062746, 0.0]
['beep', 0.0, 710.2043283229266, 0.0, 0.0, 0.0, 0.0, -2711.199547195381, 0.0]
['beep', 0.0, 710.8972324010412, 0.0, 0.0, 0.0, 0.0, -2711.914803017951, 0.0]
['beep', 0.0, 710.9419358899518, 0.0, 0.0, 0.0, 0.0, -2711.7583408067635, 0.0]
['beep', 0.0, 709.3549620336249, 0.0, 0.0, 0.0, 0.0, -2711.601878595576, 0.0]
['beep', 0.0, 709.6902382004546, 0.0, 0.0, 0.0, 0.0, -2712.607707096065, 0.0]
['beep', 0.0, 710.8525289121305, 0.0, 0.0, 0.0, 0.0, -2712.6524105849758, 0.0]
['beep', 0.0, 711.3666190346025, 0.0, 0.0, 0.0, 0.0, -2712.294782673691, 0.0]
['beep', 0.0, 711.1207498455942, 0.0, 0.0, 0.0, 0.0, -2712.2053756958694, 0.0]
['beep', 0.0, 709.7349416893652, 0.0, 0.0, 0.0, 0.0, -2710.931326261917, 0.0]
['beep', 0.0, 710.3384387896584, 0.0, 0.0, 0.0, 0.0, -2711.288954173202, 0.0]
['beep', 0.0, 711.9701161348959, 0.0, 0.0, 0.0, 0.0, -2710.707808817364, 0.0]
['beep', 0.0, 712.6630202130104, 0.0, 0.0, 0.0, 0.0, -2710.417236139445, 0.0]
['beep', 0.0, 711.4783777568791, 0.0, 0.0, 0.0, 0.0, -2709.5678698501433, 0.0]
['beep', 0.0, 710.450197511935, 0.0, 0.0, 0.0, 0.0, -2709.5008146167775, 0.0]
['beep', 0.0, 710.5172527453009, 0.0, 0.0, 0.0, 0.0, -2710.0819599726156, 0.0]
['beep', 0.0, 710.8078254232199, 0.0, 0.0, 0.0, 0.0, -2709.8584425280624, 0.0]
['beep', 0.0, 711.4113225235131, 0.0, 0.0, 0.0, 0.0, -2710.7301605618195, 0.0]
['beep', 0.0, 711.2101568234154, 0.0, 0.0, 0.0, 0.0, -2711.1771954509254, 0.0]
['beep', 0.0, 709.1761480779825, 0.0, 0.0, 0.0, 0.0, -2709.9478495058834, 0.0]
['beep', 0.0, 710.0031626228289, 0.0, 0.0, 0.0, 0.0, -2709.970201250339, 0.0]
['beep', 0.0, 712.5959649796445, 0.0, 0.0, 0.0, 0.0, -2711.8477477845845, 0.0]
['beep', 0.0, 712.6630202130104, 0.0, 0.0, 0.0, 0.0, -2711.266602428747, 0.0]
['beep', 0.0, 710.9866393788624, 0.0, 0.0, 0.0, 0.0, -2709.903146016973, 0.0]
['beep', 0.0, 711.1654533345048, 0.0, 0.0, 0.0, 0.0, -2709.992552994794, 0.0]
['beep', 0.0, 710.9195841454964, 0.0, 0.0, 0.0, 0.0, -2709.34435240559, 0.0]
['beep', 0.0, 710.8525289121305, 0.0, 0.0, 0.0, 0.0, -2710.8195675396405, 0.0]
['beep', 0.0, 711.4783777568791, 0.0, 0.0, 0.0, 0.0, -2711.959506506861, 0.0]
['beep', 0.0, 710.964287634407, 0.0, 0.0, 0.0, 0.0, -2711.937154762406, 0.0]
['beep', 0.0, 710.5843079786669, 0.0, 0.0, 0.0, 0.0, -2711.6242303400318, 0.0]
['beep', 0.0, 710.740770189854, 0.0, 0.0, 0.0, 0.0, -2712.4065413959675, 0.0]
['beep', 0.0, 710.6066597231221, 0.0, 0.0, 0.0, 0.0, -2713.166500707448, 0.0]
['beep', 0.0, 712.0371713682617, 0.0, 0.0, 0.0, 0.0, -2713.524128618733, 0.0]
['beep', 0.0, 713.1100551021166, 0.0, 0.0, 0.0, 0.0, -2712.96533500735, 0.0]
['beep', 0.0, 710.964287634407, 0.0, 0.0, 0.0, 0.0, -2711.4230646399337, 0.0]
['beep', 0.0, 710.159624834016, 0.0, 0.0, 0.0, 0.0, -2711.288954173202, 0.0]
['beep', 0.0, 712.126578346083, 0.0, 0.0, 0.0, 0.0, -2712.2053756958694, 0.0]
['beep', 0.0, 713.4229795244909, 0.0, 0.0, 0.0, 0.0, -2713.613535596554, 0.0]
['beep', 0.0, 712.6630202130104, 0.0, 0.0, 0.0, 0.0, -2713.613535596554, 0.0]
['beep', 0.0, 711.031342867773, 0.0, 0.0, 0.0, 0.0, -2713.3676664075456, 0.0]
['beep', 0.0, 711.8807091570746, 0.0, 0.0, 0.0, 0.0, -2713.926460018928, 0.0]
['beep', 0.0, 712.9312411464741, 0.0, 0.0, 0.0, 0.0, -2713.881756530018, 0.0]
['beep', 0.0, 713.3112208022143, 0.0, 0.0, 0.0, 0.0, -2713.904108274473, 0.0]
['beep', 0.0, 712.3053923017254, 0.0, 0.0, 0.0, 0.0, -2714.7534745637745, 0.0]
['beep', 0.0, 711.4336742679685, 0.0, 0.0, 0.0, 0.0, -2713.2112041963583, 0.0]
['beep', 0.0, 712.1042266016277, 0.0, 0.0, 0.0, 0.0, -2712.518300118244, 0.0]
['beep', 0.0, 713.6017934801333, 0.0, 0.0, 0.0, 0.0, -2713.4123698964563, 0.0]
['beep', 0.0, 713.6912004579546, 0.0, 0.0, 0.0, 0.0, -2712.4735966293333, 0.0]
['beep', 0.0, 713.9370696469629, 0.0, 0.0, 0.0, 0.0, -2713.255907685269, 0.0]
['beep', 0.0, 712.1712818349936, 0.0, 0.0, 0.0, 0.0, -2712.898279773984, 0.0]
['beep', 0.0, 712.2606888128148, 0.0, 0.0, 0.0, 0.0, -2713.3676664075456, 0.0]
['beep', 0.0, 712.9312411464741, 0.0, 0.0, 0.0, 0.0, -2715.222861197336, 0.0]
['beep', 0.0, 713.6688487134992, 0.0, 0.0, 0.0, 0.0, -2713.7476460632856, 0.0]
['beep', 0.0, 713.3559242911249, 0.0, 0.0, 0.0, 0.0, -2714.0382187412047, 0.0]
['beep', 0.0, 712.126578346083, 0.0, 0.0, 0.0, 0.0, -2713.635887341009, 0.0]
['beep', 0.0, 711.6348399680662, 0.0, 0.0, 0.0, 0.0, -2713.322962918635, 0.0]
['beep', 0.0, 712.7747789352869, 0.0, 0.0, 0.0, 0.0, -2712.6524105849758, 0.0]
['beep', 0.0, 713.065351613206, 0.0, 0.0, 0.0, 0.0, -2713.188852451903, 0.0]
['beep', 0.0, 712.8641859131081, 0.0, 0.0, 0.0, 0.0, -2713.0770937296265, 0.0]
['beep', 0.0, 711.6571917125216, 0.0, 0.0, 0.0, 0.0, -2713.0770937296265, 0.0]
['beep', 0.0, 711.1878050789601, 0.0, 0.0, 0.0, 0.0, -2713.546480363188, 0.0]
['beep', 0.0, 712.707723701921, 0.0, 0.0, 0.0, 0.0, -2713.1217972185373, 0.0]
['beep', 0.0, 713.7806074357758, 0.0, 0.0, 0.0, 0.0, -2713.524128618733, 0.0]
['beep', 0.0, 712.6406684685551, 0.0, 0.0, 0.0, 0.0, -2713.0100384962607, 0.0]
['beep', 0.0, 709.9808108783735, 0.0, 0.0, 0.0, 0.0, -2712.540651862699, 0.0]
['beep', 0.0, 710.2490318118372, 0.0, 0.0, 0.0, 0.0, -2711.557175106666, 0.0]
['beep', 0.0, 711.9701161348959, 0.0, 0.0, 0.0, 0.0, -2712.4065413959675, 0.0]
['beep', 0.0, 711.9924678793511, 0.0, 0.0, 0.0, 0.0, -2712.7641693072524, 0.0]
['beep', 0.0, 711.8807091570746, 0.0, 0.0, 0.0, 0.0, -2714.194680952392, 0.0]
['beep', 0.0, 710.6066597231221, 0.0, 0.0, 0.0, 0.0, -2715.2452129417916, 0.0]
['beep', 0.0, 710.6960667009433, 0.0, 0.0, 0.0, 0.0, -2714.932288519417, 0.0]
['beep', 0.0, 712.1712818349936, 0.0, 0.0, 0.0, 0.0, -2714.574660608132, 0.0]
['beep', 0.0, 713.2441655688484, 0.0, 0.0, 0.0, 0.0, -2714.842881541596, 0.0]
['beep', 0.0, 713.6688487134992, 0.0, 0.0, 0.0, 0.0, -2714.7534745637745, 0.0]
['beep', 0.0, 712.7524271908317, 0.0, 0.0, 0.0, 0.0, -2714.3287914191237, 0.0]
['beep', 0.0, 711.0089911233176, 0.0, 0.0, 0.0, 0.0, -2713.479425129822, 0.0]
['beep', 0.0, 713.802959180231, 0.0, 0.0, 0.0, 0.0, -2715.133454219515, 0.0]
['beep', 0.0, 715.0770086141836, 0.0, 0.0, 0.0, 0.0, -2714.552308863677, 0.0]
['beep', 0.0, 714.8981946585411, 0.0, 0.0, 0.0, 0.0, -2714.574660608132, 0.0]
['beep', 0.0, 714.6299737250774, 0.0, 0.0, 0.0, 0.0, -2713.859404785562, 0.0]
['beep', 0.0, 714.0488283692395, 0.0, 0.0, 0.0, 0.0, -2715.2675646862467, 0.0]
['beep', 0.0, 714.0935318581501, 0.0, 0.0, 0.0, 0.0, -2714.999343752783, 0.0]
['beep', 0.0, 716.4628167704126, 0.0, 0.0, 0.0, 0.0, -2714.3734949080344, 0.0]
['beep', 0.0, 715.9487266479405, 0.0, 0.0, 0.0, 0.0, -2715.736951319808, 0.0]
['beep', 0.0, 714.0488283692395, 0.0, 0.0, 0.0, 0.0, -2715.424026897434, 0.0]
['beep', 0.0, 714.6076219806221, 0.0, 0.0, 0.0, 0.0, -2715.1111024750594, 0.0]
['beep', 0.0, 715.546395247745, 0.0, 0.0, 0.0, 0.0, -2715.9604687643614, 0.0]
['beep', 0.0, 716.3957615370466, 0.0, 0.0, 0.0, 0.0, -2715.6028408530765, 0.0]
['beep', 0.0, 715.9934301368511, 0.0, 0.0, 0.0, 0.0, -2714.3734949080344, 0.0]
['beep', 0.0, 714.8311394251751, 0.0, 0.0, 0.0, 0.0, -2714.1052739745705, 0.0]
['beep', 0.0, 713.4229795244909, 0.0, 0.0, 0.0, 0.0, -2714.8875850305067, 0.0]
['beep', 0.0, 715.3452295476473, 0.0, 0.0, 0.0, 0.0, -2714.4405501414003, 0.0]
['beep', 0.0, 716.5075202593232, 0.0, 0.0, 0.0, 0.0, -2715.3346199196126, 0.0]
['beep', 0.0, 715.9263749034852, 0.0, 0.0, 0.0, 0.0, -2714.5970123525876, 0.0]
['beep', 0.0, 715.769912692298, 0.0, 0.0, 0.0, 0.0, -2715.53578561971, 0.0]
['beep', 0.0, 715.0099533808176, 0.0, 0.0, 0.0, 0.0, -2715.222861197336, 0.0]
['beep', 0.0, 716.3287063036807, 0.0, 0.0, 0.0, 0.0, -2714.8205297971404, 0.0]
['beep', 0.0, 716.2392993258595, 0.0, 0.0, 0.0, 0.0, -2717.122759476037, 0.0]
['beep', 0.0, 715.8593196701192, 0.0, 0.0, 0.0, 0.0, -2716.9439455203947, 0.0]
['beep', 0.0, 715.1217121030942, 0.0, 0.0, 0.0, 0.0, -2716.675724586931, 0.0]
['beep', 0.0, 714.674677213988, 0.0, 0.0, 0.0, 0.0, -2717.256869942769, 0.0]
['beep', 0.0, 715.2334708253707, 0.0, 0.0, 0.0, 0.0, -2716.876890287029, 0.0]
['beep', 0.0, 715.9710783923958, 0.0, 0.0, 0.0, 0.0, -2717.6368495985093, 0.0]
['beep', 0.0, 715.9040231590299, 0.0, 0.0, 0.0, 0.0, -2717.6592013429645, 0.0]
['beep', 0.0, 715.2334708253707, 0.0, 0.0, 0.0, 0.0, -2718.106236232071, 0.0]
['beep', 0.0, 713.1324068465718, 0.0, 0.0, 0.0, 0.0, -2717.502739131777, 0.0]
['beep', 0.0, 713.802959180231, 0.0, 0.0, 0.0, 0.0, -2716.876890287029, 0.0]
['beep', 0.0, 715.1664155920048, 0.0, 0.0, 0.0, 0.0, -2717.838015298607, 0.0]
['beep', 0.0, 714.5405667472562, 0.0, 0.0, 0.0, 0.0, -2717.9497740208835, 0.0]
['beep', 0.0, 713.2665173133037, 0.0, 0.0, 0.0, 0.0, -2717.033352498216, 0.0]
['beep', 0.0, 713.288869057759, 0.0, 0.0, 0.0, 0.0, -2716.4298553979224, 0.0]
['beep', 0.0, 714.3394010471584, 0.0, 0.0, 0.0, 0.0, -2718.3297536766236, 0.0]
['beep', 0.0, 714.3617527916138, 0.0, 0.0, 0.0, 0.0, -2718.6650298434533, 0.0]
['beep', 0.0, 715.6134504811109, 0.0, 0.0, 0.0, 0.0, -2718.2850501877133, 0.0]
['beep', 0.0, 715.0546568697282, 0.0, 0.0, 0.0, 0.0, -2717.033352498216, 0.0]
['beep', 0.0, 713.9370696469629, 0.0, 0.0, 0.0, 0.0, -2716.876890287029, 0.0]
['beep', 0.0, 715.3675812921025, 0.0, 0.0, 0.0, 0.0, -2716.96629726485, 0.0]
['beep', 0.0, 716.2616510703148, 0.0, 0.0, 0.0, 0.0, -2717.7262565763303, 0.0]
['beep', 0.0, 715.0770086141836, 0.0, 0.0, 0.0, 0.0, -2717.2345181983137, 0.0]
['beep', 0.0, 715.0546568697282, 0.0, 0.0, 0.0, 0.0, -2716.6310210980205, 0.0]
['beep', 0.0, 715.4793400143791, 0.0, 0.0, 0.0, 0.0, -2716.7204280758415, 0.0]
['beep', 0.0, 716.5522237482338, 0.0, 0.0, 0.0, 0.0, -2717.0110007537605, 0.0]
['beep', 0.0, 717.1110173596165, 0.0, 0.0, 0.0, 0.0, -2716.9215937759395, 0.0]
['beep', 0.0, 715.6805057144768, 0.0, 0.0, 0.0, 0.0, -2716.9886490093054, 0.0]
['beep', 0.0, 714.4958632583456, 0.0, 0.0, 0.0, 0.0, -2715.893413530995, 0.0]
['beep', 0.0, 725.8505494416415, 0.0, 0.0, 0.0, 0.0, -2724.1412072350035, 0.0]
['beep', 0.0, 724.9564796634293, 0.0, 0.0, 0.0, 0.0, -2723.4706549013445, 0.0]
['beep', 0.0, 723.9730029073958, 0.0, 0.0, 0.0, 0.0, -2722.5989368675873, 0.0]
['beep', 0.0, 724.3529825631359, 0.0, 0.0, 0.0, 0.0, -2723.716524090353, 0.0]
['beep', 0.0, 725.5376250192672, 0.0, 0.0, 0.0, 0.0, -2724.58824212411, 0.0]
['beep', 0.0, 725.6717354859991, 0.0, 0.0, 0.0, 0.0, -2725.8846433025174, 0.0]
['beep', 0.0, 723.0565813847281, 0.0, 0.0, 0.0, 0.0, -2725.415256668956, 0.0]
['beep', 0.0, 723.2130435959153, 0.0, 0.0, 0.0, 0.0, -2725.6611258579646, 0.0]
['beep', 0.0, 724.6882587299656, 0.0, 0.0, 0.0, 0.0, -2726.7116578473638, 0.0]
['beep', 0.0, 725.0011831523399, 0.0, 0.0, 0.0, 0.0, -2726.0187537692495, 0.0]
['beep', 0.0, 724.710610474421, 0.0, 0.0, 0.0, 0.0, -2726.6222508695428, 0.0]
['beep', 0.0, 723.8835959295745, 0.0, 0.0, 0.0, 0.0, -2725.6611258579646, 0.0]
['beep', 0.0, 723.4365610404684, 0.0, 0.0, 0.0, 0.0, -2724.990573524305, 0.0]
['beep', 0.0, 723.6377267405661, 0.0, 0.0, 0.0, 0.0, -2725.191739224403, 0.0]
['beep', 0.0, 724.6659069855103, 0.0, 0.0, 0.0, 0.0, -2725.5270153912325, 0.0]
['beep', 0.0, 724.2635755853147, 0.0, 0.0, 0.0, 0.0, -2725.974050280339, 0.0]
['beep', 0.0, 723.9506511629404, 0.0, 0.0, 0.0, 0.0, -2726.1305124915257, 0.0]
['beep', 0.0, 722.9671744069069, 0.0, 0.0, 0.0, 0.0, -2725.8175880691515, 0.0]
['beep', 0.0, 723.995354651851, 0.0, 0.0, 0.0, 0.0, -2726.4434369139003, 0.0]
['beep', 0.0, 724.5317965187785, 0.0, 0.0, 0.0, 0.0, -2726.912823547462, 0.0]
['beep', 0.0, 725.9846599083734, 0.0, 0.0, 0.0, 0.0, -2726.8234165696404, 0.0]
['beep', 0.0, 724.934127918974, 0.0, 0.0, 0.0, 0.0, -2726.7340095918194, 0.0]
['beep', 0.0, 725.6940872304544, 0.0, 0.0, 0.0, 0.0, -2726.1305124915257, 0.0]
['beep', 0.0, 727.5492820202448, 0.0, 0.0, 0.0, 0.0, -2724.8341113131182, 0.0]
['beep', 0.0, 727.2810610867812, 0.0, 0.0, 0.0, 0.0, -2723.7835793237186, 0.0]
['beep', 0.0, 728.935090176474, 0.0, 0.0, 0.0, 0.0, -2724.8341113131182, 0.0]
['beep', 0.0, 727.705744231432, 0.0, 0.0, 0.0, 0.0, -2724.096503746093, 0.0]
['beep', 0.0, 726.6328604975773, 0.0, 0.0, 0.0, 0.0, -2724.677649101931, 0.0]
['beep', 0.0, 725.448218041446, 0.0, 0.0, 0.0, 0.0, -2724.677649101931, 0.0]
['beep', 0.0, 725.1799971079823, 0.0, 0.0, 0.0, 0.0, -2723.9176897904504, 0.0]
['beep', 0.0, 725.8505494416415, 0.0, 0.0, 0.0, 0.0, -2724.7223525908416, 0.0]
['beep', 0.0, 725.224700596893, 0.0, 0.0, 0.0, 0.0, -2724.58824212411, 0.0]
['beep', 0.0, 723.8165406962086, 0.0, 0.0, 0.0, 0.0, -2725.616422369054, 0.0]
['beep', 0.0, 726.5658052642113, 0.0, 0.0, 0.0, 0.0, -2724.990573524305, 0.0]
['beep', 0.0, 728.219834353904, 0.0, 0.0, 0.0, 0.0, -2725.3929049245007, 0.0]
['beep', 0.0, 727.3257645756918, 0.0, 0.0, 0.0, 0.0, -2727.0916375031043, 0.0]
['beep', 0.0, 725.2917558302589, 0.0, 0.0, 0.0, 0.0, -2725.996402024794, 0.0]
['beep', 0.0, 724.2635755853147, 0.0, 0.0, 0.0, 0.0, -2725.7505328357856, 0.0]
['beep', 0.0, 725.4929215303566, 0.0, 0.0, 0.0, 0.0, -2726.7787130807296, 0.0]
['beep', 0.0, 726.9457849199516, 0.0, 0.0, 0.0, 0.0, -2726.06345725816, 0.0]
['beep', 0.0, 726.4987500308455, 0.0, 0.0, 0.0, 0.0, -2725.8175880691515, 0.0]
['beep', 0.0, 725.1799971079823, 0.0, 0.0, 0.0, 0.0, -2726.3987334249896, 0.0]
['beep', 0.0, 726.5211017753007, 0.0, 0.0, 0.0, 0.0, -2726.264622958258, 0.0]
['beep', 0.0, 726.4093430530243, 0.0, 0.0, 0.0, 0.0, -2727.829245070129, 0.0]
['beep', 0.0, 727.2363575978706, 0.0, 0.0, 0.0, 0.0, -2727.6280793700316, 0.0]
['beep', 0.0, 727.8845581870745, 0.0, 0.0, 0.0, 0.0, -2727.0916375031043, 0.0]
['beep', 0.0, 725.6717354859991, 0.0, 0.0, 0.0, 0.0, -2726.6893061029086, 0.0]
['beep', 0.0, 725.6046802526332, 0.0, 0.0, 0.0, 0.0, -2725.839939813607, 0.0]
['beep', 0.0, 726.8563779421304, 0.0, 0.0, 0.0, 0.0, -2727.4939689032994, 0.0]
['beep', 0.0, 726.901081431041, 0.0, 0.0, 0.0, 0.0, -2727.2704514587467, 0.0]
['beep', 0.0, 726.610508753122, 0.0, 0.0, 0.0, 0.0, -2727.002230525283, 0.0]
['beep', 0.0, 724.7776657077868, 0.0, 0.0, 0.0, 0.0, -2727.002230525283, 0.0]
['beep', 0.0, 724.2188720964041, 0.0, 0.0, 0.0, 0.0, -2725.2140909688583, 0.0]
['beep', 0.0, 725.515273274812, 0.0, 0.0, 0.0, 0.0, -2727.7845415812185, 0.0]
['beep', 0.0, 725.8505494416415, 0.0, 0.0, 0.0, 0.0, -2728.1421694925034, 0.0]
['beep', 0.0, 725.6717354859991, 0.0, 0.0, 0.0, 0.0, -2727.963355536861, 0.0]
['beep', 0.0, 724.1741686074935, 0.0, 0.0, 0.0, 0.0, -2727.0469340141935, 0.0]
['beep', 0.0, 724.7776657077868, 0.0, 0.0, 0.0, 0.0, -2726.935175291917, 0.0]
['beep', 0.0, 725.738790719365, 0.0, 0.0, 0.0, 0.0, -2728.522149148244, 0.0]
['beep', 0.0, 726.4093430530243, 0.0, 0.0, 0.0, 0.0, -2728.544500892699, 0.0]
['beep', 0.0, 726.6552122420326, 0.0, 0.0, 0.0, 0.0, -2728.1198177480483, 0.0]
['beep', 0.0, 726.901081431041, 0.0, 0.0, 0.0, 0.0, -2727.896300303495, 0.0]
['beep', 0.0, 727.0128401533175, 0.0, 0.0, 0.0, 0.0, -2726.3316781916237, 0.0]
['beep', 0.0, 727.415171553513, 0.0, 0.0, 0.0, 0.0, -2727.4716171588443, 0.0]
['beep', 0.0, 728.063372142717, 0.0, 0.0, 0.0, 0.0, -2728.097466003593, 0.0]
['beep', 0.0, 727.9516134204404, 0.0, 0.0, 0.0, 0.0, -2728.477445659333, 0.0]
['beep', 0.0, 726.1634738640158, 0.0, 0.0, 0.0, 0.0, -2728.522149148244, 0.0]
['beep', 0.0, 725.8505494416415, 0.0, 0.0, 0.0, 0.0, -2728.25392821478, 0.0]
['beep', 0.0, 726.7222674753986, 0.0, 0.0, 0.0, 0.0, -2729.483274159822, 0.0]
['beep', 0.0, 727.8398546981639, 0.0, 0.0, 0.0, 0.0, -2729.572681137643, 0.0]
['beep', 0.0, 727.482226786879, 0.0, 0.0, 0.0, 0.0, -2727.8515968145844, 0.0]
['beep', 0.0, 726.9904884088622, 0.0, 0.0, 0.0, 0.0, -2727.6504311144868, 0.0]
['beep', 0.0, 726.901081431041, 0.0, 0.0, 0.0, 0.0, -2729.5950328820986, 0.0]
['beep', 0.0, 727.1245988755941, 0.0, 0.0, 0.0, 0.0, -2730.3773439380343, 0.0]
['beep', 0.0, 728.063372142717, 0.0, 0.0, 0.0, 0.0, -2730.489102660311, 0.0]
['beep', 0.0, 729.0915523876611, 0.0, 0.0, 0.0, 0.0, -2730.6455648714978, 0.0]
['beep', 0.0, 727.5939855091555, 0.0, 0.0, 0.0, 0.0, -2730.0867712601153, 0.0]
['beep', 0.0, 727.0575436422281, 0.0, 0.0, 0.0, 0.0, -2729.7291433488303, 0.0]
['beep', 0.0, 726.7893227087644, 0.0, 0.0, 0.0, 0.0, -2730.802027082685, 0.0]
['beep', 0.0, 727.0351918977728, 0.0, 0.0, 0.0, 0.0, -2730.287936960213, 0.0]
['beep', 0.0, 728.4210000540019, 0.0, 0.0, 0.0, 0.0, -2730.422047426945, 0.0]
['beep', 0.0, 726.2752325862924, 0.0, 0.0, 0.0, 0.0, -2730.734971849319, 0.0]
['beep', 0.0, 725.9176046750075, 0.0, 0.0, 0.0, 0.0, -2729.907957304473, 0.0]
['beep', 0.0, 727.9739651648957, 0.0, 0.0, 0.0, 0.0, -2730.2432334713026, 0.0]
['beep', 0.0, 728.8456831986528, 0.0, 0.0, 0.0, 0.0, -2731.2490619717914, 0.0]
['beep', 0.0, 728.6892209874655, 0.0, 0.0, 0.0, 0.0, -2729.9750125378387, 0.0]
['beep', 0.0, 727.2587093423259, 0.0, 0.0, 0.0, 0.0, -2728.9468322928947, 0.0]
['beep', 0.0, 727.3704680646024, 0.0, 0.0, 0.0, 0.0, -2729.3938671820006, 0.0]
['beep', 0.0, 728.1751308649934, 0.0, 0.0, 0.0, 0.0, -2729.840902071107, 0.0]
['beep', 0.0, 729.2927180877589, 0.0, 0.0, 0.0, 0.0, -2729.9750125378387, 0.0]
['beep', 0.0, 728.9797936653846, 0.0, 0.0, 0.0, 0.0, -2729.8185503266513, 0.0]
['beep', 0.0, 727.1245988755941, 0.0, 0.0, 0.0, 0.0, -2729.5279776487328, 0.0]
['beep', 0.0, 727.2363575978706, 0.0, 0.0, 0.0, 0.0, -2729.4609224153664, 0.0]
['beep', 0.0, 729.2703663433035, 0.0, 0.0, 0.0, 0.0, -2729.550329393188, 0.0]
['beep', 0.0, 728.5104070318231, 0.0, 0.0, 0.0, 0.0, -2729.863253815562, 0.0]
['beep', 0.0, 728.7786279652868, 0.0, 0.0, 0.0, 0.0, -2729.3715154375454, 0.0]
['beep', 0.0, 727.3704680646024, 0.0, 0.0, 0.0, 0.0, -2729.0809427596264, 0.0]
['beep', 0.0, 727.3928198090578, 0.0, 0.0, 0.0, 0.0, -2728.566852637154, 0.0]
['beep', 0.0, 728.3986483095465, 0.0, 0.0, 0.0, 0.0, -2728.4327421704224, 0.0]
['beep', 0.0, 728.7339244763762, 0.0, 0.0, 0.0, 0.0, -2729.4609224153664, 0.0]
['beep', 0.0, 728.4657035429125, 0.0, 0.0, 0.0, 0.0, -2729.550329393188, 0.0]
['beep', 0.0, 727.6386889980661, 0.0, 0.0, 0.0, 0.0, -2729.192701481903, 0.0]
['beep', 0.0, 727.5716337647002, 0.0, 0.0, 0.0, 0.0, -2727.516320647755, 0.0]
['beep', 0.0, 728.219834353904, 0.0, 0.0, 0.0, 0.0, -2728.7903700817074, 0.0]
['beep', 0.0, 729.5385872767672, 0.0, 0.0, 0.0, 0.0, -2728.611556126065, 0.0]
['beep', 0.0, 729.8738634435969, 0.0, 0.0, 0.0, 0.0, -2728.2762799592356, 0.0]
['beep', 0.0, 727.7280959758873, 0.0, 0.0, 0.0, 0.0, -2728.4997974037883, 0.0]
['beep', 0.0, 726.9457849199516, 0.0, 0.0, 0.0, 0.0, -2727.7845415812185, 0.0]
['beep', 0.0, 728.5774622651891, 0.0, 0.0, 0.0, 0.0, -2727.672782858942, 0.0]
['beep', 0.0, 729.3150698322141, 0.0, 0.0, 0.0, 0.0, -2728.611556126065, 0.0]
['beep', 0.0, 728.4657035429125, 0.0, 0.0, 0.0, 0.0, -2727.739838092308, 0.0]
['beep', 0.0, 726.5211017753007, 0.0, 0.0, 0.0, 0.0, -2727.2704514587467, 0.0]
['beep', 0.0, 726.2752325862924, 0.0, 0.0, 0.0, 0.0, -2728.097466003593, 0.0]
['beep', 0.0, 727.9069099315298, 0.0, 0.0, 0.0, 0.0, -2728.164521236959, 0.0]
['beep', 0.0, 730.4103053105242, 0.0, 0.0, 0.0, 0.0, -2729.416218926456, 0.0]
['beep', 0.0, 730.253843099337, 0.0, 0.0, 0.0, 0.0, -2730.846730571596, 0.0]
['beep', 0.0, 728.3539448206359, 0.0, 0.0, 0.0, 0.0, -2728.6786113594308, 0.0]
['beep', 0.0, 727.9292616759851, 0.0, 0.0, 0.0, 0.0, -2729.3715154375454, 0.0]
['beep', 0.0, 729.1809593654823, 0.0, 0.0, 0.0, 0.0, -2729.5279776487328, 0.0]
['beep', 0.0, 729.516235532312, 0.0, 0.0, 0.0, 0.0, -2729.2374049708137, 0.0]
['beep', 0.0, 728.7339244763762, 0.0, 0.0, 0.0, 0.0, -2729.6173846265538, 0.0]
['beep', 0.0, 727.7951512092533, 0.0, 0.0, 0.0, 0.0, -2728.9468322928947, 0.0]
['beep', 0.0, 727.9739651648957, 0.0, 0.0, 0.0, 0.0, -2728.1198177480483, 0.0]
['beep', 0.0, 728.8903866875634, 0.0, 0.0, 0.0, 0.0, -2729.282108459724, 0.0]
['beep', 0.0, 729.0692006432058, 0.0, 0.0, 0.0, 0.0, -2729.215053226358, 0.0]
['beep', 0.0, 729.0692006432058, 0.0, 0.0, 0.0, 0.0, -2729.550329393188, 0.0]
['beep', 0.0, 729.1809593654823, 0.0, 0.0, 0.0, 0.0, -2729.3491636930903, 0.0]
['beep', 0.0, 728.9127384320186, 0.0, 0.0, 0.0, 0.0, -2728.522149148244, 0.0]
['beep', 0.0, 729.0915523876611, 0.0, 0.0, 0.0, 0.0, -2729.2374049708137, 0.0]
['beep', 0.0, 730.4773605438901, 0.0, 0.0, 0.0, 0.0, -2729.863253815562, 0.0]
['beep', 0.0, 730.030325654784, 0.0, 0.0, 0.0, 0.0, -2730.06441951566, 0.0]
['beep', 0.0, 728.9797936653846, 0.0, 0.0, 0.0, 0.0, -2728.812721826163, 0.0]
['beep', 0.0, 728.4880552873678, 0.0, 0.0, 0.0, 0.0, -2729.0585910151713, 0.0]
['beep', 0.0, 728.28688958727, 0.0, 0.0, 0.0, 0.0, -2730.198529982392, 0.0]
['beep', 0.0, 729.739752976865, 0.0, 0.0, 0.0, 0.0, -2729.6620881154645, 0.0]
['beep', 0.0, 730.253843099337, 0.0, 0.0, 0.0, 0.0, -2728.9468322928947, 0.0]
['beep', 0.0, 729.9856221658733, 0.0, 0.0, 0.0, 0.0, -2729.0809427596264, 0.0]
['beep', 0.0, 728.8009797097421, 0.0, 0.0, 0.0, 0.0, -2728.7456665927966, 0.0]
['beep', 0.0, 730.2091396104264, 0.0, 0.0, 0.0, 0.0, -2728.6339078705205, 0.0]
['beep', 0.0, 732.3102035892252, 0.0, 0.0, 0.0, 0.0, -2728.0751142591375, 0.0]
['beep', 0.0, 731.3043750887365, 0.0, 0.0, 0.0, 0.0, -2727.963355536861, 0.0]
['beep', 0.0, 729.739752976865, 0.0, 0.0, 0.0, 0.0, -2728.2092247258693, 0.0]
['beep', 0.0, 729.4044768100354, 0.0, 0.0, 0.0, 0.0, -2727.583375881121, 0.0]
['beep', 0.0, 730.5444157772561, 0.0, 0.0, 0.0, 0.0, -2728.4103904259673, 0.0]
['beep', 0.0, 730.5891192661667, 0.0, 0.0, 0.0, 0.0, -2728.3880386815117, 0.0]
['beep', 0.0, 730.2091396104264, 0.0, 0.0, 0.0, 0.0, -2727.449265414389, 0.0]
['beep', 0.0, 728.935090176474, 0.0, 0.0, 0.0, 0.0, -2727.449265414389, 0.0]
['beep', 0.0, 729.2033111099377, 0.0, 0.0, 0.0, 0.0, -2728.0527625146824, 0.0]
['beep', 0.0, 730.9690989219068, 0.0, 0.0, 0.0, 0.0, -2728.186872981414, 0.0]
['beep', 0.0, 731.6620030000214, 0.0, 0.0, 0.0, 0.0, -2728.030410770227, 0.0]
['beep', 0.0, 730.6785262439879, 0.0, 0.0, 0.0, 0.0, -2727.7174863478526, 0.0]
['beep', 0.0, 729.2703663433035, 0.0, 0.0, 0.0, 0.0, -2727.15869273647, 0.0]
['beep', 0.0, 728.8456831986528, 0.0, 0.0, 0.0, 0.0, -2727.7174863478526, 0.0]
['beep', 0.0, 728.5551105207337, 0.0, 0.0, 0.0, 0.0, -2727.4045619254784, 0.0]
['beep', 0.0, 729.5832907656778, 0.0, 0.0, 0.0, 0.0, -2728.2762799592356, 0.0]
['beep', 0.0, 729.8068082102309, 0.0, 0.0, 0.0, 0.0, -2728.0527625146824, 0.0]
['beep', 0.0, 727.9516134204404, 0.0, 0.0, 0.0, 0.0, -2727.4269136699336, 0.0]
['beep', 0.0, 727.7280959758873, 0.0, 0.0, 0.0, 0.0, -2728.231576470325, 0.0]
['beep', 0.0, 729.0692006432058, 0.0, 0.0, 0.0, 0.0, -2728.6562596149756, 0.0]
['beep', 0.0, 729.7621047213203, 0.0, 0.0, 0.0, 0.0, -2727.941003792406, 0.0]
['beep', 0.0, 730.030325654784, 0.0, 0.0, 0.0, 0.0, -2727.7845415812185, 0.0]
['beep', 0.0, 728.7562762208315, 0.0, 0.0, 0.0, 0.0, -2726.7787130807296, 0.0]
['beep', 0.0, 727.0128401533175, 0.0, 0.0, 0.0, 0.0, -2726.555195636177, 0.0]
['beep', 0.0, 728.28688958727, 0.0, 0.0, 0.0, 0.0, -2728.0751142591375, 0.0]
['beep', 0.0, 729.1809593654823, 0.0, 0.0, 0.0, 0.0, -2729.3491636930903, 0.0]
['beep', 0.0, 729.4715320434013, 0.0, 0.0, 0.0, 0.0, -2729.505625904277, 0.0]
['beep', 0.0, 727.4375232979684, 0.0, 0.0, 0.0, 0.0, -2728.7903700817074, 0.0]
['beep', 0.0, 726.4540465419349, 0.0, 0.0, 0.0, 0.0, -2728.522149148244, 0.0]
['beep', 0.0, 726.834026197675, 0.0, 0.0, 0.0, 0.0, -2729.505625904277, 0.0]
['beep', 0.0, 728.6445174985549, 0.0, 0.0, 0.0, 0.0, -2728.1421694925034, 0.0]
['beep', 0.0, 728.4880552873678, 0.0, 0.0, 0.0, 0.0, -2729.282108459724, 0.0]
['beep', 0.0, 727.4598750424236, 0.0, 0.0, 0.0, 0.0, -2729.0809427596264, 0.0]
['beep', 0.0, 728.3092413317253, 0.0, 0.0, 0.0, 0.0, -2728.835073570618, 0.0]
['beep', 0.0, 729.516235532312, 0.0, 0.0, 0.0, 0.0, -2728.768018337252, 0.0]
['beep', 0.0, 729.0692006432058, 0.0, 0.0, 0.0, 0.0, -2729.0138875262605, 0.0]
['beep', 0.0, 729.8068082102309, 0.0, 0.0, 0.0, 0.0, -2728.6786113594308, 0.0]
['beep', 0.0, 729.0244971542952, 0.0, 0.0, 0.0, 0.0, -2728.566852637154, 0.0]
['beep', 0.0, 729.3821250655801, 0.0, 0.0, 0.0, 0.0, -2727.516320647755, 0.0]
['beep', 0.0, 730.8796919440856, 0.0, 0.0, 0.0, 0.0, -2727.829245070129, 0.0]
['beep', 0.0, 731.706706488932, 0.0, 0.0, 0.0, 0.0, -2729.3491636930903, 0.0]
['beep', 0.0, 730.9690989219068, 0.0, 0.0, 0.0, 0.0, -2728.566852637154, 0.0]
['beep', 0.0, 730.2985465882476, 0.0, 0.0, 0.0, 0.0, -2728.566852637154, 0.0]
['beep', 0.0, 729.5832907656778, 0.0, 0.0, 0.0, 0.0, -2729.0138875262605, 0.0]
['beep', 0.0, 728.3539448206359, 0.0, 0.0, 0.0, 0.0, -2728.0527625146824, 0.0]
['beep', 0.0, 729.1809593654823, 0.0, 0.0, 0.0, 0.0, -2728.857425315073, 0.0]
['beep', 0.0, 730.1197326326052, 0.0, 0.0, 0.0, 0.0, -2729.639736371009, 0.0]
['beep', 0.0, 728.063372142717, 0.0, 0.0, 0.0, 0.0, -2728.6562596149756, 0.0]
['beep', 0.0, 726.8116744532198, 0.0, 0.0, 0.0, 0.0, -2728.4327421704224, 0.0]
['beep', 0.0, 727.3928198090578, 0.0, 0.0, 0.0, 0.0, -2728.835073570618, 0.0]
['beep', 0.0, 729.3150698322141, 0.0, 0.0, 0.0, 0.0, -2729.6173846265538, 0.0]
['beep', 0.0, 730.4326570549795, 0.0, 0.0, 0.0, 0.0, -2729.416218926456, 0.0]
['beep', 0.0, 728.4657035429125, 0.0, 0.0, 0.0, 0.0, -2728.186872981414, 0.0]
['beep', 0.0, 727.9739651648957, 0.0, 0.0, 0.0, 0.0, -2729.6844398599196, 0.0]
['beep', 0.0, 729.4268285544907, 0.0, 0.0, 0.0, 0.0, -2728.835073570618, 0.0]
['beep', 0.0, 731.1479128775493, 0.0, 0.0, 0.0, 0.0, -2728.6339078705205, 0.0]
['beep', 0.0, 730.0526773992393, 0.0, 0.0, 0.0, 0.0, -2729.5279776487328, 0.0]
['beep', 0.0, 729.5832907656778, 0.0, 0.0, 0.0, 0.0, -2729.505625904277, 0.0]
['beep', 0.0, 728.6668692430103, 0.0, 0.0, 0.0, 0.0, -2729.8185503266513, 0.0]
['beep', 0.0, 729.5385872767672, 0.0, 0.0, 0.0, 0.0, -2730.846730571596, 0.0]
['beep', 0.0, 730.4326570549795, 0.0, 0.0, 0.0, 0.0, -2729.840902071107, 0.0]
['beep', 0.0, 729.739752976865, 0.0, 0.0, 0.0, 0.0, -2729.125646248537, 0.0]
['beep', 0.0, 729.0244971542952, 0.0, 0.0, 0.0, 0.0, -2728.96918403735, 0.0]
['beep', 0.0, 729.2256628543929, 0.0, 0.0, 0.0, 0.0, -2728.924480548439, 0.0]
['beep', 0.0, 729.6503459990438, 0.0, 0.0, 0.0, 0.0, -2729.796198582196, 0.0]
['beep', 0.0, 730.8796919440856, 0.0, 0.0, 0.0, 0.0, -2728.835073570618, 0.0]
['beep', 0.0, 731.3043750887365, 0.0, 0.0, 0.0, 0.0, -2728.455093914878, 0.0]
['beep', 0.0, 729.4044768100354, 0.0, 0.0, 0.0, 0.0, -2729.8856055600177, 0.0]
['beep', 0.0, 728.7562762208315, 0.0, 0.0, 0.0, 0.0, -2730.422047426945, 0.0]
['beep', 0.0, 730.9243954329962, 0.0, 0.0, 0.0, 0.0, -2728.3656869370566, 0.0]
['beep', 0.0, 731.8631687001191, 0.0, 0.0, 0.0, 0.0, -2728.768018337252, 0.0]
['beep', 0.0, 731.639651255566, 0.0, 0.0, 0.0, 0.0, -2729.2374049708137, 0.0]
['beep', 0.0, 730.8573401996304, 0.0, 0.0, 0.0, 0.0, -2728.3433351926014, 0.0]
['beep', 0.0, 728.5551105207337, 0.0, 0.0, 0.0, 0.0, -2728.9468322928947, 0.0]
['beep', 0.0, 730.2091396104264, 0.0, 0.0, 0.0, 0.0, -2728.7456665927966, 0.0]
['beep', 0.0, 731.8408169556639, 0.0, 0.0, 0.0, 0.0, -2728.4997974037883, 0.0]
['beep', 0.0, 731.1479128775493, 0.0, 0.0, 0.0, 0.0, -2728.2092247258693, 0.0]
['beep', 0.0, 730.5220640328007, 0.0, 0.0, 0.0, 0.0, -2728.2986317036907, 0.0]
['beep', 0.0, 730.1867878659712, 0.0, 0.0, 0.0, 0.0, -2728.6786113594308, 0.0]
['beep', 0.0, 731.3490785776471, 0.0, 0.0, 0.0, 0.0, -2727.7845415812185, 0.0]
['beep', 0.0, 731.6620030000214, 0.0, 0.0, 0.0, 0.0, -2728.0527625146824, 0.0]
['beep', 0.0, 732.1537413780381, 0.0, 0.0, 0.0, 0.0, -2727.896300303495, 0.0]
['beep', 0.0, 731.5502442777448, 0.0, 0.0, 0.0, 0.0, -2727.4045619254784, 0.0]
['beep', 0.0, 730.4103053105242, 0.0, 0.0, 0.0, 0.0, -2728.902128803984, 0.0]
['beep', 0.0, 730.9690989219068, 0.0, 0.0, 0.0, 0.0, -2728.835073570618, 0.0]
['beep', 0.0, 732.3102035892252, 0.0, 0.0, 0.0, 0.0, -2728.164521236959, 0.0]
['beep', 0.0, 731.416133811013, 0.0, 0.0, 0.0, 0.0, -2728.7456665927966, 0.0]
['beep', 0.0, 730.2091396104264, 0.0, 0.0, 0.0, 0.0, -2728.0527625146824, 0.0]
['beep', 0.0, 729.4715320434013, 0.0, 0.0, 0.0, 0.0, -2729.125646248537, 0.0]
['beep', 0.0, 730.8796919440856, 0.0, 0.0, 0.0, 0.0, -2728.0527625146824, 0.0]
['beep', 0.0, 733.8748257010968, 0.0, 0.0, 0.0, 0.0, -2727.87394855904, 0.0]
['beep', 0.0, 733.5395495342672, 0.0, 0.0, 0.0, 0.0, -2729.6173846265538, 0.0]
['beep', 0.0, 730.8126367107197, 0.0, 0.0, 0.0, 0.0, -2729.3044602041796, 0.0]
['beep', 0.0, 731.3043750887365, 0.0, 0.0, 0.0, 0.0, -2728.902128803984, 0.0]
['beep', 0.0, 731.6172995111108, 0.0, 0.0, 0.0, 0.0, -2729.483274159822, 0.0]
['beep', 0.0, 732.4666658004124, 0.0, 0.0, 0.0, 0.0, -2729.0809427596264, 0.0]
['beep', 0.0, 733.8524739566415, 0.0, 0.0, 0.0, 0.0, -2730.6902683604085, 0.0]
['beep', 0.0, 731.416133811013, 0.0, 0.0, 0.0, 0.0, -2730.6902683604085, 0.0]
['beep', 0.0, 731.3267268331917, 0.0, 0.0, 0.0, 0.0, -2729.6620881154645, 0.0]
['beep', 0.0, 731.5278925332896, 0.0, 0.0, 0.0, 0.0, -2731.4055241829783, 0.0]
['beep', 0.0, 732.6901832449655, 0.0, 0.0, 0.0, 0.0, -2731.9643177943612, 0.0]
['beep', 0.0, 733.3383838341695, 0.0, 0.0, 0.0, 0.0, -2731.673745116442, 0.0]
['beep', 0.0, 731.3490785776471, 0.0, 0.0, 0.0, 0.0, -2730.802027082685, 0.0]
['beep', 0.0, 731.1032093886387, 0.0, 0.0, 0.0, 0.0, -2728.164521236959, 0.0]
['beep', 0.0, 732.1090378891275, 0.0, 0.0, 0.0, 0.0, -2728.902128803984, 0.0]
['beep', 0.0, 732.9584041784292, 0.0, 0.0, 0.0, 0.0, -2731.182006738425, 0.0]
['beep', 0.0, 733.4501425564459, 0.0, 0.0, 0.0, 0.0, -2731.6960968608973, 0.0]
['beep', 0.0, 732.6901832449655, 0.0, 0.0, 0.0, 0.0, -2730.8914340605065, 0.0]
['beep', 0.0, 732.7795902227867, 0.0, 0.0, 0.0, 0.0, -2729.907957304473, 0.0]
['beep', 0.0, 732.868997200608, 0.0, 0.0, 0.0, 0.0, -2730.06441951566, 0.0]
['beep', 0.0, 733.8301222121862, 0.0, 0.0, 0.0, 0.0, -2730.802027082685, 0.0]
['beep', 0.0, 733.8971774455521, 0.0, 0.0, 0.0, 0.0, -2730.3996956824894, 0.0]
['beep', 0.0, 732.3772588225912, 0.0, 0.0, 0.0, 0.0, -2729.6173846265538, 0.0]
['beep', 0.0, 732.868997200608, 0.0, 0.0, 0.0, 0.0, -2729.9526607933835, 0.0]
['beep', 0.0, 732.5560727782337, 0.0, 0.0, 0.0, 0.0, -2731.070248016149, 0.0]
['beep', 0.0, 734.2101018679264, 0.0, 0.0, 0.0, 0.0, -2731.9419660499057, 0.0]
['beep', 0.0, 736.4676280579124, 0.0, 0.0, 0.0, 0.0, -2731.3608206940676, 0.0]
['beep', 0.0, 735.6629652575214, 0.0, 0.0, 0.0, 0.0, -2730.3996956824894, 0.0]
['beep', 0.0, 735.6629652575214, 0.0, 0.0, 0.0, 0.0, -2729.773846837741, 0.0]
['beep', 0.0, 737.2275873693928, 0.0, 0.0, 0.0, 0.0, -2730.287936960213, 0.0]
['beep', 0.0, 738.7922094812643, 0.0, 0.0, 0.0, 0.0, -2729.0809427596264, 0.0]
['beep', 0.0, 738.1663606365157, 0.0, 0.0, 0.0, 0.0, -2729.3491636930903, 0.0]
['beep', 0.0, 736.3558693356358, 0.0, 0.0, 0.0, 0.0, -2729.170349737448, 0.0]
['beep', 0.0, 734.8806542015856, 0.0, 0.0, 0.0, 0.0, -2728.544500892699, 0.0]
['beep', 0.0, 733.7854187232756, 0.0, 0.0, 0.0, 0.0, -2729.4609224153664, 0.0]
['beep', 0.0, 734.6794885014879, 0.0, 0.0, 0.0, 0.0, -2730.422047426945, 0.0]
['beep', 0.0, 734.2771571012923, 0.0, 0.0, 0.0, 0.0, -2730.578509638132, 0.0]
['beep', 0.0, 732.3102035892252, 0.0, 0.0, 0.0, 0.0, -2729.773846837741, 0.0]
['beep', 0.0, 732.1090378891275, 0.0, 0.0, 0.0, 0.0, -2729.3044602041796, 0.0]
['beep', 0.0, 733.5171977898119, 0.0, 0.0, 0.0, 0.0, -2730.3326404491236, 0.0]
['beep', 0.0, 734.6347850125773, 0.0, 0.0, 0.0, 0.0, -2731.427875927434, 0.0]
['beep', 0.0, 733.8748257010968, 0.0, 0.0, 0.0, 0.0, -2730.6232131270426, 0.0]
['beep', 0.0, 732.6007762671443, 0.0, 0.0, 0.0, 0.0, -2730.3102887046684, 0.0]
['beep', 0.0, 732.578424522689, 0.0, 0.0, 0.0, 0.0, -2731.5619863941656, 0.0]
['beep', 0.0, 732.7348867338761, 0.0, 0.0, 0.0, 0.0, -2731.53963464971, 0.0]
['beep', 0.0, 733.9865844233733, 0.0, 0.0, 0.0, 0.0, -2730.6008613825875, 0.0]
['beep', 0.0, 733.9865844233733, 0.0, 0.0, 0.0, 0.0, -2731.673745116442, 0.0]
['beep', 0.0, 733.3607355786247, 0.0, 0.0, 0.0, 0.0, -2731.2714137162466, 0.0]
['beep', 0.0, 731.706706488932, 0.0, 0.0, 0.0, 0.0, -2728.924480548439, 0.0]
['beep', 0.0, 732.3102035892252, 0.0, 0.0, 0.0, 0.0, -2728.2762799592356, 0.0]
['beep', 0.0, 734.545378034756, 0.0, 0.0, 0.0, 0.0, -2730.6232131270426, 0.0]
['beep', 0.0, 733.7854187232756, 0.0, 0.0, 0.0, 0.0, -2730.198529982392, 0.0]
['beep', 0.0, 731.997279166851, 0.0, 0.0, 0.0, 0.0, -2730.0197160267494, 0.0]
['beep', 0.0, 731.9749274223957, 0.0, 0.0, 0.0, 0.0, -2730.0867712601153, 0.0]
['beep', 0.0, 733.3607355786247, 0.0, 0.0, 0.0, 0.0, -2729.572681137643, 0.0]
['beep', 0.0, 734.3665640791136, 0.0, 0.0, 0.0, 0.0, -2730.3549921935787, 0.0]
['beep', 0.0, 733.9865844233733, 0.0, 0.0, 0.0, 0.0, -2730.5561578936768, 0.0]
['beep', 0.0, 733.2489768563482, 0.0, 0.0, 0.0, 0.0, -2729.639736371009, 0.0]
['beep', 0.0, 732.6007762671443, 0.0, 0.0, 0.0, 0.0, -2729.796198582196, 0.0]
['beep', 0.0, 732.511369289323, 0.0, 0.0, 0.0, 0.0, -2729.863253815562, 0.0]
['beep', 0.0, 734.1877501234711, 0.0, 0.0, 0.0, 0.0, -2730.846730571596, 0.0]
['beep', 0.0, 734.5677297792113, 0.0, 0.0, 0.0, 0.0, -2730.6902683604085, 0.0]
['beep', 0.0, 734.254805356837, 0.0, 0.0, 0.0, 0.0, -2728.96918403735, 0.0]
['beep', 0.0, 734.254805356837, 0.0, 0.0, 0.0, 0.0, -2730.578509638132, 0.0]
['beep', 0.0, 735.0371164127728, 0.0, 0.0, 0.0, 0.0, -2730.3549921935787, 0.0]
['beep', 0.0, 735.059468157228, 0.0, 0.0, 0.0, 0.0, -2729.706791604375, 0.0]
['beep', 0.0, 734.9924129238622, 0.0, 0.0, 0.0, 0.0, -2729.9750125378387, 0.0]
['beep', 0.0, 733.8301222121862, 0.0, 0.0, 0.0, 0.0, -2731.0255445272383, 0.0]
['beep', 0.0, 733.7183634899096, 0.0, 0.0, 0.0, 0.0, -2731.226710227336, 0.0]
['beep', 0.0, 734.0536396567393, 0.0, 0.0, 0.0, 0.0, -2730.6902683604085, 0.0]
['beep', 0.0, 735.4841513018789, 0.0, 0.0, 0.0, 0.0, -2730.6679166159533, 0.0]
['beep', 0.0, 735.126523390594, 0.0, 0.0, 0.0, 0.0, -2731.070248016149, 0.0]
['beep', 0.0, 733.2266251118929, 0.0, 0.0, 0.0, 0.0, -2731.87491081654, 0.0]
['beep', 0.0, 733.0478111562504, 0.0, 0.0, 0.0, 0.0, -2730.734971849319, 0.0]
['beep', 0.0, 734.2101018679264, 0.0, 0.0, 0.0, 0.0, -2729.505625904277, 0.0]
['beep', 0.0, 734.835950712675, 0.0, 0.0, 0.0, 0.0, -2730.578509638132, 0.0]
['beep', 0.0, 734.6571367570325, 0.0, 0.0, 0.0, 0.0, -2731.2937654607017, 0.0]
['beep', 0.0, 734.0312879122839, 0.0, 0.0, 0.0, 0.0, -2731.6290416275315, 0.0]
['beep', 0.0, 732.4666658004124, 0.0, 0.0, 0.0, 0.0, -2730.712620104864, 0.0]
['beep', 0.0, 733.092514645161, 0.0, 0.0, 0.0, 0.0, -2729.572681137643, 0.0]
['beep', 0.0, 734.9477094349515, 0.0, 0.0, 0.0, 0.0, -2730.712620104864, 0.0]
['beep', 0.0, 735.1041716461386, 0.0, 0.0, 0.0, 0.0, -2732.746628850297, 0.0]
['beep', 0.0, 733.7630669788202, 0.0, 0.0, 0.0, 0.0, -2730.9137858049617, 0.0]
['beep', 0.0, 733.740715234365, 0.0, 0.0, 0.0, 0.0, -2730.220881726847, 0.0]
['beep', 0.0, 734.835950712675, 0.0, 0.0, 0.0, 0.0, -2731.3608206940676, 0.0]
['beep', 0.0, 735.8864827020744, 0.0, 0.0, 0.0, 0.0, -2732.120780005548, 0.0]
['beep', 0.0, 734.7688954793091, 0.0, 0.0, 0.0, 0.0, -2731.4055241829783, 0.0]
['beep', 0.0, 733.9865844233733, 0.0, 0.0, 0.0, 0.0, -2730.734971849319, 0.0]
['beep', 0.0, 733.3383838341695, 0.0, 0.0, 0.0, 0.0, -2730.7573235937743, 0.0]
['beep', 0.0, 734.3889158235688, 0.0, 0.0, 0.0, 0.0, -2729.3938671820006, 0.0]
['beep', 0.0, 735.5735582797001, 0.0, 0.0, 0.0, 0.0, -2731.53963464971, 0.0]
['beep', 0.0, 735.3947443240577, 0.0, 0.0, 0.0, 0.0, -2730.869082316051, 0.0]
['beep', 0.0, 734.6124332681219, 0.0, 0.0, 0.0, 0.0, -2730.287936960213, 0.0]
['beep', 0.0, 732.868997200608, 0.0, 0.0, 0.0, 0.0, -2731.2490619717914, 0.0]
['beep', 0.0, 734.1206948901051, 0.0, 0.0, 0.0, 0.0, -2731.226710227336, 0.0]
['beep', 0.0, 735.1712268795046, 0.0, 0.0, 0.0, 0.0, -2730.869082316051, 0.0]
['beep', 0.0, 734.2101018679264, 0.0, 0.0, 0.0, 0.0, -2731.1149515050593, 0.0]
['beep', 0.0, 733.159569878527, 0.0, 0.0, 0.0, 0.0, -2730.7573235937743, 0.0]
['beep', 0.0, 732.0866861446722, 0.0, 0.0, 0.0, 0.0, -2730.6232131270426, 0.0]
['beep', 0.0, 733.092514645161, 0.0, 0.0, 0.0, 0.0, -2730.578509638132, 0.0]
['beep', 0.0, 734.2101018679264, 0.0, 0.0, 0.0, 0.0, -2730.422047426945, 0.0]
['beep', 0.0, 734.0759914011945, 0.0, 0.0, 0.0, 0.0, -2731.9866695388164, 0.0]
['beep', 0.0, 733.2489768563482, 0.0, 0.0, 0.0, 0.0, -2732.25489047228, 0.0]
['beep', 0.0, 733.3830873230801, 0.0, 0.0, 0.0, 0.0, -2730.4667509158553, 0.0]
['beep', 0.0, 733.7854187232756, 0.0, 0.0, 0.0, 0.0, -2730.734971849319, 0.0]
['beep', 0.0, 734.7241919903985, 0.0, 0.0, 0.0, 0.0, -2731.0031927827827, 0.0]
['beep', 0.0, 734.0089361678287, 0.0, 0.0, 0.0, 0.0, -2731.226710227336, 0.0]
['beep', 0.0, 733.3383838341695, 0.0, 0.0, 0.0, 0.0, -2731.2490619717914, 0.0]
['beep', 0.0, 732.1090378891275, 0.0, 0.0, 0.0, 0.0, -2730.8914340605065, 0.0]
['beep', 0.0, 732.511369289323, 0.0, 0.0, 0.0, 0.0, -2731.1149515050593, 0.0]
['beep', 0.0, 733.2713286008035, 0.0, 0.0, 0.0, 0.0, -2731.450227671889, 0.0]
['beep', 0.0, 734.545378034756, 0.0, 0.0, 0.0, 0.0, -2731.6290416275315, 0.0]
['beep', 0.0, 733.9418809344627, 0.0, 0.0, 0.0, 0.0, -2731.6960968608973, 0.0]
['beep', 0.0, 732.7572384783315, 0.0, 0.0, 0.0, 0.0, -2731.517282905255, 0.0]
['beep', 0.0, 733.1372181340716, 0.0, 0.0, 0.0, 0.0, -2731.53963464971, 0.0]
['beep', 0.0, 734.5677297792113, 0.0, 0.0, 0.0, 0.0, -2731.3161172051573, 0.0]
['beep', 0.0, 735.1935786239599, 0.0, 0.0, 0.0, 0.0, -2731.1149515050593, 0.0]
['beep', 0.0, 732.8466454561527, 0.0, 0.0, 0.0, 0.0, -2731.383172438523, 0.0]
['beep', 0.0, 731.2820233442811, 0.0, 0.0, 0.0, 0.0, -2731.427875927434, 0.0]
['beep', 0.0, 732.3102035892252, 0.0, 0.0, 0.0, 0.0, -2730.4667509158553, 0.0]
['beep', 0.0, 733.8077704677308, 0.0, 0.0, 0.0, 0.0, -2731.450227671889, 0.0]
['beep', 0.0, 734.0983431456499, 0.0, 0.0, 0.0, 0.0, -2730.511454404766, 0.0]
['beep', 0.0, 732.6231280115996, 0.0, 0.0, 0.0, 0.0, -2730.6902683604085, 0.0]
['beep', 0.0, 730.902043688541, 0.0, 0.0, 0.0, 0.0, -2731.9643177943612, 0.0]
['beep', 0.0, 731.2596715998259, 0.0, 0.0, 0.0, 0.0, -2731.182006738425, 0.0]
['beep', 0.0, 733.0254594117952, 0.0, 0.0, 0.0, 0.0, -2731.87491081654, 0.0]
['beep', 0.0, 733.159569878527, 0.0, 0.0, 0.0, 0.0, -2732.0760765166374, 0.0]
['beep', 0.0, 731.3714303221024, 0.0, 0.0, 0.0, 0.0, -2731.0031927827827, 0.0]
['beep', 0.0, 730.0973808881499, 0.0, 0.0, 0.0, 0.0, -2731.0255445272383, 0.0]
['beep', 0.0, 731.7737617222979, 0.0, 0.0, 0.0, 0.0, -2731.472579416344, 0.0]
['beep', 0.0, 733.1819216229823, 0.0, 0.0, 0.0, 0.0, -2732.2995939611906, 0.0]
['beep', 0.0, 732.3325553336806, 0.0, 0.0, 0.0, 0.0, -2731.5619863941656, 0.0]
['beep', 0.0, 731.6843547444767, 0.0, 0.0, 0.0, 0.0, -2730.6902683604085, 0.0]
['beep', 0.0, 731.4608372999236, 0.0, 0.0, 0.0, 0.0, -2731.182006738425, 0.0]
['beep', 0.0, 732.0196309113063, 0.0, 0.0, 0.0, 0.0, -2732.2101869833696, 0.0]
['beep', 0.0, 733.3160320897141, 0.0, 0.0, 0.0, 0.0, -2732.0537247721822, 0.0]
['beep', 0.0, 733.2713286008035, 0.0, 0.0, 0.0, 0.0, -2731.785503838719, 0.0]
['beep', 0.0, 732.9360524339739, 0.0, 0.0, 0.0, 0.0, -2731.740800349808, 0.0]
['beep', 0.0, 733.1148663896164, 0.0, 0.0, 0.0, 0.0, -2731.9196143054505, 0.0]
['beep', 0.0, 733.740715234365, 0.0, 0.0, 0.0, 0.0, -2732.768980594752, 0.0]
['beep', 0.0, 734.0312879122839, 0.0, 0.0, 0.0, 0.0, -2733.5289399062326, 0.0]
['beep', 0.0, 733.8077704677308, 0.0, 0.0, 0.0, 0.0, -2733.8195125841517, 0.0]
['beep', 0.0, 733.0701629007058, 0.0, 0.0, 0.0, 0.0, -2732.3442974501013, 0.0]
['beep', 0.0, 732.868997200608, 0.0, 0.0, 0.0, 0.0, -2731.383172438523, 0.0]
['beep', 0.0, 733.0031076673398, 0.0, 0.0, 0.0, 0.0, -2732.2101869833696, 0.0]
['beep', 0.0, 733.4277908119907, 0.0, 0.0, 0.0, 0.0, -2732.8583875725735, 0.0]
['beep', 0.0, 733.5395495342672, 0.0, 0.0, 0.0, 0.0, -2733.5289399062326, 0.0]
['beep', 0.0, 731.8408169556639, 0.0, 0.0, 0.0, 0.0, -2733.2160154838584, 0.0]
['beep', 0.0, 730.6785262439879, 0.0, 0.0, 0.0, 0.0, -2733.640698628509, 0.0]
['beep', 0.0, 731.0808576441834, 0.0, 0.0, 0.0, 0.0, -2733.394829439501, 0.0]
['beep', 0.0, 732.3772588225912, 0.0, 0.0, 0.0, 0.0, -2732.8807393170287, 0.0]
['beep', 0.0, 732.868997200608, 0.0, 0.0, 0.0, 0.0, -2734.087733517615, 0.0]
['beep', 0.0, 731.1032093886387, 0.0, 0.0, 0.0, 0.0, -2733.998326539794, 0.0]
['beep', 0.0, 730.5891192661667, 0.0, 0.0, 0.0, 0.0, -2732.6572218724755, 0.0]
['beep', 0.0, 732.3772588225912, 0.0, 0.0, 0.0, 0.0, -2732.0760765166374, 0.0]
['beep', 0.0, 733.8301222121862, 0.0, 0.0, 0.0, 0.0, -2733.148960250492, 0.0]
['beep', 0.0, 734.7912472237643, 0.0, 0.0, 0.0, 0.0, -2733.394829439501, 0.0]
['beep', 0.0, 734.0312879122839, 0.0, 0.0, 0.0, 0.0, -2734.06538177316, 0.0]
['beep', 0.0, 733.4948460453566, 0.0, 0.0, 0.0, 0.0, -2733.5289399062326, 0.0]
['beep', 0.0, 734.545378034756, 0.0, 0.0, 0.0, 0.0, -2732.9924980393052, 0.0]
['beep', 0.0, 733.4501425564459, 0.0, 0.0, 0.0, 0.0, -2733.0148497837604, 0.0]
['beep', 0.0, 732.9584041784292, 0.0, 0.0, 0.0, 0.0, -2733.707753861875, 0.0]
['beep', 0.0, 733.092514645161, 0.0, 0.0, 0.0, 0.0, -2732.545463150199, 0.0]
['beep', 0.0, 732.8242937116974, 0.0, 0.0, 0.0, 0.0, -2733.2830707172243, 0.0]
['beep', 0.0, 732.9584041784292, 0.0, 0.0, 0.0, 0.0, -2733.8195125841517, 0.0]
['beep', 0.0, 733.3160320897141, 0.0, 0.0, 0.0, 0.0, -2733.998326539794, 0.0]
['beep', 0.0, 733.3160320897141, 0.0, 0.0, 0.0, 0.0, -2735.2276724848357, 0.0]
['beep', 0.0, 732.8466454561527, 0.0, 0.0, 0.0, 0.0, -2734.2665474732576, 0.0]
['beep', 0.0, 732.5560727782337, 0.0, 0.0, 0.0, 0.0, -2732.8583875725735, 0.0]
['beep', 0.0, 733.8301222121862, 0.0, 0.0, 0.0, 0.0, -2733.6630503729643, 0.0]
['beep', 0.0, 734.8135989682197, 0.0, 0.0, 0.0, 0.0, -2733.998326539794, 0.0]
['beep', 0.0, 735.3723925796023, 0.0, 0.0, 0.0, 0.0, -2733.3724776950453, 0.0]
['beep', 0.0, 732.9360524339739, 0.0, 0.0, 0.0, 0.0, -2733.6630503729643, 0.0]
['beep', 0.0, 732.1760931224934, 0.0, 0.0, 0.0, 0.0, -2734.378306195534, 0.0]
['beep', 0.0, 731.8184652112085, 0.0, 0.0, 0.0, 0.0, -2734.0430300287044, 0.0]
['beep', 0.0, 733.6960117454544, 0.0, 0.0, 0.0, 0.0, -2734.1100852620707, 0.0]
['beep', 0.0, 733.8077704677308, 0.0, 0.0, 0.0, 0.0, -2734.06538177316, 0.0]
['beep', 0.0, 732.868997200608, 0.0, 0.0, 0.0, 0.0, -2733.417181183956, 0.0]
['beep', 0.0, 733.159569878527, 0.0, 0.0, 0.0, 0.0, -2732.701925361386, 0.0]
['beep', 0.0, 734.0759914011945, 0.0, 0.0, 0.0, 0.0, -2732.2101869833696, 0.0]
['beep', 0.0, 735.3500408351471, 0.0, 0.0, 0.0, 0.0, -2734.087733517615, 0.0]
['beep', 0.0, 735.6629652575214, 0.0, 0.0, 0.0, 0.0, -2733.193663739403, 0.0]
['beep', 0.0, 733.8971774455521, 0.0, 0.0, 0.0, 0.0, -2732.0760765166374, 0.0]
['beep', 0.0, 733.8301222121862, 0.0, 0.0, 0.0, 0.0, -2731.87491081654, 0.0]
['beep', 0.0, 735.059468157228, 0.0, 0.0, 0.0, 0.0, -2731.472579416344, 0.0]
['beep', 0.0, 737.1828838804822, 0.0, 0.0, 0.0, 0.0, -2732.6348701280203, 0.0]
['beep', 0.0, 737.0711251582057, 0.0, 0.0, 0.0, 0.0, -2733.148960250492, 0.0]
['beep', 0.0, 735.2829856017811, 0.0, 0.0, 0.0, 0.0, -2732.098428261093, 0.0]
['beep', 0.0, 734.321860590203, 0.0, 0.0, 0.0, 0.0, -2731.9643177943612, 0.0]
['beep', 0.0, 734.8135989682197, 0.0, 0.0, 0.0, 0.0, -2732.7242771058413, 0.0]
['beep', 0.0, 735.5065030463342, 0.0, 0.0, 0.0, 0.0, -2732.8807393170287, 0.0]
['beep', 0.0, 736.221758868904, 0.0, 0.0, 0.0, 0.0, -2731.763152094263, 0.0]
['beep', 0.0, 736.28881410227, 0.0, 0.0, 0.0, 0.0, -2730.802027082685, 0.0]
['beep', 0.0, 734.8806542015856, 0.0, 0.0, 0.0, 0.0, -2731.53963464971, 0.0]
['beep', 0.0, 735.059468157228, 0.0, 0.0, 0.0, 0.0, -2730.802027082685, 0.0]
['beep', 0.0, 736.6464420135549, 0.0, 0.0, 0.0, 0.0, -2730.6679166159533, 0.0]
['beep', 0.0, 736.8029042247421, 0.0, 0.0, 0.0, 0.0, -2731.6290416275315, 0.0]
['beep', 0.0, 736.1770553799934, 0.0, 0.0, 0.0, 0.0, -2731.137303249515, 0.0]
['beep', 0.0, 734.9253576904962, 0.0, 0.0, 0.0, 0.0, -2730.198529982392, 0.0]
['beep', 0.0, 735.059468157228, 0.0, 0.0, 0.0, 0.0, -2730.2432334713026, 0.0]
['beep', 0.0, 736.9817181803845, 0.0, 0.0, 0.0, 0.0, -2731.3161172051573, 0.0]
['beep', 0.0, 737.4734565584013, 0.0, 0.0, 0.0, 0.0, -2730.802027082685, 0.0]
['beep', 0.0, 735.3276890906917, 0.0, 0.0, 0.0, 0.0, -2731.3161172051573, 0.0]
['beep', 0.0, 734.47832280139, 0.0, 0.0, 0.0, 0.0, -2730.82437882714, 0.0]
['beep', 0.0, 734.9030059460409, 0.0, 0.0, 0.0, 0.0, -2731.2937654607017, 0.0]
['beep', 0.0, 736.8923112025633, 0.0, 0.0, 0.0, 0.0, -2731.3384689496124, 0.0]
['beep', 0.0, 736.579386780189, 0.0, 0.0, 0.0, 0.0, -2730.198529982392, 0.0]
['beep', 0.0, 735.7747239797978, 0.0, 0.0, 0.0, 0.0, -2731.137303249515, 0.0]
['beep', 0.0, 734.7241919903985, 0.0, 0.0, 0.0, 0.0, -2731.6960968608973, 0.0]
['beep', 0.0, 736.1994071244487, 0.0, 0.0, 0.0, 0.0, -2730.511454404766, 0.0]
['beep', 0.0, 736.4005728245464, 0.0, 0.0, 0.0, 0.0, -2731.092599760604, 0.0]
['beep', 0.0, 736.3558693356358, 0.0, 0.0, 0.0, 0.0, -2731.472579416344, 0.0]
['beep', 0.0, 734.8135989682197, 0.0, 0.0, 0.0, 0.0, -2731.5843381386208, 0.0]
['beep', 0.0, 734.6124332681219, 0.0, 0.0, 0.0, 0.0, -2730.734971849319, 0.0]
['beep', 0.0, 735.5065030463342, 0.0, 0.0, 0.0, 0.0, -2730.489102660311, 0.0]
['beep', 0.0, 736.512331546823, 0.0, 0.0, 0.0, 0.0, -2731.6513933719866, 0.0]
['beep', 0.0, 736.1100001466275, 0.0, 0.0, 0.0, 0.0, -2731.5619863941656, 0.0]
['beep', 0.0, 735.4170960685129, 0.0, 0.0, 0.0, 0.0, -2729.8856055600177, 0.0]
['beep', 0.0, 735.6629652575214, 0.0, 0.0, 0.0, 0.0, -2731.785503838719, 0.0]
['beep', 0.0, 736.0652966577169, 0.0, 0.0, 0.0, 0.0, -2732.8583875725735, 0.0]
['beep', 0.0, 736.579386780189, 0.0, 0.0, 0.0, 0.0, -2731.9866695388164, 0.0]
['beep', 0.0, 737.3616978361247, 0.0, 0.0, 0.0, 0.0, -2731.4949311607998, 0.0]
['beep', 0.0, 736.0205931688063, 0.0, 0.0, 0.0, 0.0, -2730.9808410383275, 0.0]
['beep', 0.0, 735.4617995574235, 0.0, 0.0, 0.0, 0.0, -2730.6455648714978, 0.0]
['beep', 0.0, 735.6853170019766, 0.0, 0.0, 0.0, 0.0, -2730.4443991714, 0.0]
['beep', 0.0, 737.0711251582057, 0.0, 0.0, 0.0, 0.0, -2731.517282905255, 0.0]
['beep', 0.0, 737.6299187695884, 0.0, 0.0, 0.0, 0.0, -2732.9924980393052, 0.0]
['beep', 0.0, 736.28881410227, 0.0, 0.0, 0.0, 0.0, -2732.9701462948497, 0.0]
['beep', 0.0, 735.4617995574235, 0.0, 0.0, 0.0, 0.0, -2731.53963464971, 0.0]
['beep', 0.0, 736.0429449132615, 0.0, 0.0, 0.0, 0.0, -2732.031373027727, 0.0]
['beep', 0.0, 737.0487734137504, 0.0, 0.0, 0.0, 0.0, -2733.5959951395985, 0.0]
['beep', 0.0, 736.579386780189, 0.0, 0.0, 0.0, 0.0, -2733.394829439501, 0.0]
['beep', 0.0, 735.1041716461386, 0.0, 0.0, 0.0, 0.0, -2733.35012595059, 0.0]
['beep', 0.0, 734.7241919903985, 0.0, 0.0, 0.0, 0.0, -2732.9701462948497, 0.0]
['beep', 0.0, 735.3276890906917, 0.0, 0.0, 0.0, 0.0, -2733.35012595059, 0.0]
['beep', 0.0, 736.8923112025633, 0.0, 0.0, 0.0, 0.0, -2733.2830707172243, 0.0]
['beep', 0.0, 736.8029042247421, 0.0, 0.0, 0.0, 0.0, -2732.768980594752, 0.0]
['beep', 0.0, 734.9924129238622, 0.0, 0.0, 0.0, 0.0, -2731.740800349808, 0.0]
['beep', 0.0, 734.1653983790158, 0.0, 0.0, 0.0, 0.0, -2731.830207327629, 0.0]
['beep', 0.0, 734.545378034756, 0.0, 0.0, 0.0, 0.0, -2732.679573616931, 0.0]
['beep', 0.0, 735.8417792131638, 0.0, 0.0, 0.0, 0.0, -2732.4337044279223, 0.0]
['beep', 0.0, 736.4452763134572, 0.0, 0.0, 0.0, 0.0, -2732.9924980393052, 0.0]
['beep', 0.0, 734.8135989682197, 0.0, 0.0, 0.0, 0.0, -2732.679573616931, 0.0]
['beep', 0.0, 734.2771571012923, 0.0, 0.0, 0.0, 0.0, -2732.4337044279223, 0.0]
['beep', 0.0, 734.6571367570325, 0.0, 0.0, 0.0, 0.0, -2732.9477945503945, 0.0]
['beep', 0.0, 736.3111658467252, 0.0, 0.0, 0.0, 0.0, -2733.2607189727687, 0.0]
['beep', 0.0, 735.8864827020744, 0.0, 0.0, 0.0, 0.0, -2733.73010560633, 0.0]
['beep', 0.0, 735.1935786239599, 0.0, 0.0, 0.0, 0.0, -2734.3112509621683, 0.0]
['beep', 0.0, 735.8194274687085, 0.0, 0.0, 0.0, 0.0, -2732.9254428059394, 0.0]
['beep', 0.0, 735.8194274687085, 0.0, 0.0, 0.0, 0.0, -2732.813684083663, 0.0]
['beep', 0.0, 738.0769536586945, 0.0, 0.0, 0.0, 0.0, -2732.25489047228, 0.0]
['beep', 0.0, 739.1945408814598, 0.0, 0.0, 0.0, 0.0, -2731.2937654607017, 0.0]
['beep', 0.0, 739.8203897262084, 0.0, 0.0, 0.0, 0.0, -2731.87491081654, 0.0]
['beep', 0.0, 739.060430414728, 0.0, 0.0, 0.0, 0.0, -2730.198529982392, 0.0]
['beep', 0.0, 738.6357472700772, 0.0, 0.0, 0.0, 0.0, -2729.6173846265538, 0.0]
['beep', 0.0, 738.5686920367112, 0.0, 0.0, 0.0, 0.0, -2730.7573235937743, 0.0]
['beep', 0.0, 737.1158286471164, 0.0, 0.0, 0.0, 0.0, -2731.7184486053525, 0.0]
['beep', 0.0, 735.3723925796023, 0.0, 0.0, 0.0, 0.0, -2731.472579416344, 0.0]
['beep', 0.0, 734.545378034756, 0.0, 0.0, 0.0, 0.0, -2731.6290416275315, 0.0]
['beep', 0.0, 734.6347850125773, 0.0, 0.0, 0.0, 0.0, -2730.6232131270426, 0.0]
['beep', 0.0, 736.1770553799934, 0.0, 0.0, 0.0, 0.0, -2730.802027082685, 0.0]
['beep', 0.0, 736.579386780189, 0.0, 0.0, 0.0, 0.0, -2731.87491081654, 0.0]
['beep', 0.0, 734.5006745458454, 0.0, 0.0, 0.0, 0.0, -2732.25489047228, 0.0]
['beep', 0.0, 734.0312879122839, 0.0, 0.0, 0.0, 0.0, -2731.830207327629, 0.0]
['beep', 0.0, 735.4841513018789, 0.0, 0.0, 0.0, 0.0, -2730.6455648714978, 0.0]
['beep', 0.0, 736.9593664359292, 0.0, 0.0, 0.0, 0.0, -2729.192701481903, 0.0]
['beep', 0.0, 737.4287530694907, 0.0, 0.0, 0.0, 0.0, -2730.0197160267494, 0.0]
['beep', 0.0, 737.1381803915716, 0.0, 0.0, 0.0, 0.0, -2731.070248016149, 0.0]
['beep', 0.0, 735.5959100241554, 0.0, 0.0, 0.0, 0.0, -2730.4667509158553, 0.0]
['beep', 0.0, 736.0652966577169, 0.0, 0.0, 0.0, 0.0, -2731.4055241829783, 0.0]
['beep', 0.0, 738.9039682035409, 0.0, 0.0, 0.0, 0.0, -2731.830207327629, 0.0]
['beep', 0.0, 738.1216571476051, 0.0, 0.0, 0.0, 0.0, -2730.9584892938724, 0.0]
['beep', 0.0, 737.160532136027, 0.0, 0.0, 0.0, 0.0, -2730.7573235937743, 0.0]
['beep', 0.0, 736.8923112025633, 0.0, 0.0, 0.0, 0.0, -2732.701925361386, 0.0]
['beep', 0.0, 736.3335175911806, 0.0, 0.0, 0.0, 0.0, -2733.104256761582, 0.0]
['beep', 0.0, 736.8252559691973, 0.0, 0.0, 0.0, 0.0, -2732.9924980393052, 0.0]
['beep', 0.0, 738.1216571476051, 0.0, 0.0, 0.0, 0.0, -2731.740800349808, 0.0]
['beep', 0.0, 736.7134972469208, 0.0, 0.0, 0.0, 0.0, -2730.3326404491236, 0.0]
['beep', 0.0, 735.5065030463342, 0.0, 0.0, 0.0, 0.0, -2730.9808410383275, 0.0]
['beep', 0.0, 735.9535379354403, 0.0, 0.0, 0.0, 0.0, -2732.768980594752, 0.0]
['beep', 0.0, 736.4452763134572, 0.0, 0.0, 0.0, 0.0, -2733.640698628509, 0.0]
['beep', 0.0, 736.1770553799934, 0.0, 0.0, 0.0, 0.0, -2734.0206782842492, 0.0]
['beep', 0.0, 735.7300204908872, 0.0, 0.0, 0.0, 0.0, -2733.2160154838584, 0.0]
['beep', 0.0, 734.5677297792113, 0.0, 0.0, 0.0, 0.0, -2732.8807393170287, 0.0]
['beep', 0.0, 736.5570350357336, 0.0, 0.0, 0.0, 0.0, -2733.126608506037, 0.0]
['beep', 0.0, 737.5405117917671, 0.0, 0.0, 0.0, 0.0, -2732.903091061484, 0.0]
['beep', 0.0, 737.5628635362225, 0.0, 0.0, 0.0, 0.0, -2733.037201528216, 0.0]
['beep', 0.0, 735.9758896798957, 0.0, 0.0, 0.0, 0.0, -2733.3724776950453, 0.0]
['beep', 0.0, 735.4394478129683, 0.0, 0.0, 0.0, 0.0, -2731.763152094263, 0.0]
['beep', 0.0, 736.8923112025633, 0.0, 0.0, 0.0, 0.0, -2731.9866695388164, 0.0]
['beep', 0.0, 738.3898780810688, 0.0, 0.0, 0.0, 0.0, -2732.389000939012, 0.0]
['beep', 0.0, 737.4064013250353, 0.0, 0.0, 0.0, 0.0, -2732.25489047228, 0.0]
['beep', 0.0, 736.6464420135549, 0.0, 0.0, 0.0, 0.0, -2732.2995939611906, 0.0]
['beep', 0.0, 736.5346832912784, 0.0, 0.0, 0.0, 0.0, -2732.321945705646, 0.0]
['beep', 0.0, 737.741677491865, 0.0, 0.0, 0.0, 0.0, -2732.411352683467, 0.0]
['beep', 0.0, 739.0380786702727, 0.0, 0.0, 0.0, 0.0, -2732.120780005548, 0.0]
['beep', 0.0, 737.9204914475074, 0.0, 0.0, 0.0, 0.0, -2733.126608506037, 0.0]
['beep', 0.0, 738.2334158698817, 0.0, 0.0, 0.0, 0.0, -2733.752457350786, 0.0]
['beep', 0.0, 737.2499391138482, 0.0, 0.0, 0.0, 0.0, -2731.9866695388164, 0.0]
['beep', 0.0, 737.7193257474096, 0.0, 0.0, 0.0, 0.0, -2733.059553272671, 0.0]
['beep', 0.0, 739.5745205372001, 0.0, 0.0, 0.0, 0.0, -2733.126608506037, 0.0]
['beep', 0.0, 739.3286513481917, 0.0, 0.0, 0.0, 0.0, -2733.439532928411, 0.0]
['beep', 0.0, 738.255767614337, 0.0, 0.0, 0.0, 0.0, -2733.5959951395985, 0.0]
['beep', 0.0, 737.2499391138482, 0.0, 0.0, 0.0, 0.0, -2732.9701462948497, 0.0]
['beep', 0.0, 738.7475059923537, 0.0, 0.0, 0.0, 0.0, -2734.423009684445, 0.0]
['beep', 0.0, 740.3568315931358, 0.0, 0.0, 0.0, 0.0, -2735.2723759737464, 0.0]
['beep', 0.0, 739.8203897262084, 0.0, 0.0, 0.0, 0.0, -2734.6018236400873, 0.0]
['beep', 0.0, 739.4180583260129, 0.0, 0.0, 0.0, 0.0, -2734.1100852620707, 0.0]
['beep', 0.0, 738.9933751813621, 0.0, 0.0, 0.0, 0.0, -2733.1713119949477, 0.0]
['beep', 0.0, 738.0098984253286, 0.0, 0.0, 0.0, 0.0, -2732.25489047228, 0.0]
['beep', 0.0, 739.5298170482895, 0.0, 0.0, 0.0, 0.0, -2733.9312713064282, 0.0]
['beep', 0.0, 740.1556658930381, 0.0, 0.0, 0.0, 0.0, -2735.2500242292913, 0.0]
['beep', 0.0, 737.3616978361247, 0.0, 0.0, 0.0, 0.0, -2734.713582362364, 0.0]
['beep', 0.0, 737.6522705140437, 0.0, 0.0, 0.0, 0.0, -2733.8865678175175, 0.0]
['beep', 0.0, 739.2615961148258, 0.0, 0.0, 0.0, 0.0, -2734.870044573551, 0.0]
['beep', 0.0, 738.6133955256219, 0.0, 0.0, 0.0, 0.0, -2734.870044573551, 0.0]
['beep', 0.0, 738.1887123809711, 0.0, 0.0, 0.0, 0.0, -2735.093562018104, 0.0]
['beep', 0.0, 738.255767614337, 0.0, 0.0, 0.0, 0.0, -2735.2053207403806, 0.0]
['beep', 0.0, 737.4064013250353, 0.0, 0.0, 0.0, 0.0, -2732.813684083663, 0.0]
['beep', 0.0, 736.1100001466275, 0.0, 0.0, 0.0, 0.0, -2732.6572218724755, 0.0]
['beep', 0.0, 736.1100001466275, 0.0, 0.0, 0.0, 0.0, -2733.797160839696, 0.0]
['beep', 0.0, 740.6697560155102, 0.0, 0.0, 0.0, 0.0, -2734.1771404954366, 0.0]
['beep', 0.0, 740.4909420598677, 0.0, 0.0, 0.0, 0.0, -2735.1159137625596, 0.0]
['beep', 0.0, 738.3675263366135, 0.0, 0.0, 0.0, 0.0, -2734.9818032958274, 0.0]
['beep', 0.0, 739.2168926259152, 0.0, 0.0, 0.0, 0.0, -2734.8253410846405, 0.0]
['beep', 0.0, 739.060430414728, 0.0, 0.0, 0.0, 0.0, -2734.2441957288024, 0.0]
['beep', 0.0, 738.6580990145325, 0.0, 0.0, 0.0, 0.0, -2734.5571201511766, 0.0]
['beep', 0.0, 736.7582007358315, 0.0, 0.0, 0.0, 0.0, -2733.9089195619727, 0.0]
['beep', 0.0, 735.5065030463342, 0.0, 0.0, 0.0, 0.0, -2732.5901666391096, 0.0]
['beep', 0.0, 735.707668746432, 0.0, 0.0, 0.0, 0.0, -2733.5959951395985, 0.0]
['beep', 0.0, 737.6969740029543, 0.0, 0.0, 0.0, 0.0, -2735.7864660962186, 0.0]
['beep', 0.0, 737.674622258499, 0.0, 0.0, 0.0, 0.0, -2735.719410862853, 0.0]
['beep', 0.0, 736.512331546823, 0.0, 0.0, 0.0, 0.0, -2735.1159137625596, 0.0]
['beep', 0.0, 736.1994071244487, 0.0, 0.0, 0.0, 0.0, -2734.2665474732576, 0.0]
['beep', 0.0, 736.1770553799934, 0.0, 0.0, 0.0, 0.0, -2734.5347684067215, 0.0]
['beep', 0.0, 736.4005728245464, 0.0, 0.0, 0.0, 0.0, -2734.9594515513722, 0.0]
['beep', 0.0, 737.2275873693928, 0.0, 0.0, 0.0, 0.0, -2734.3112509621683, 0.0]
['beep', 0.0, 735.640613513066, 0.0, 0.0, 0.0, 0.0, -2733.9312713064282, 0.0]
['beep', 0.0, 735.059468157228, 0.0, 0.0, 0.0, 0.0, -2733.104256761582, 0.0]
['beep', 0.0, 735.4841513018789, 0.0, 0.0, 0.0, 0.0, -2732.8583875725735, 0.0]
['beep', 0.0, 736.4229245690018, 0.0, 0.0, 0.0, 0.0, -2734.713582362364, 0.0]
['beep', 0.0, 737.1158286471164, 0.0, 0.0, 0.0, 0.0, -2736.099390518593, 0.0]
['beep', 0.0, 736.8476077136527, 0.0, 0.0, 0.0, 0.0, -2735.2723759737464, 0.0]
['beep', 0.0, 736.3111658467252, 0.0, 0.0, 0.0, 0.0, -2734.0430300287044, 0.0]
['beep', 0.0, 735.9982414243509, 0.0, 0.0, 0.0, 0.0, -2735.317079462657, 0.0]
['beep', 0.0, 737.6299187695884, 0.0, 0.0, 0.0, 0.0, -2735.4288381849337, 0.0]
['beep', 0.0, 738.4122298255242, 0.0, 0.0, 0.0, 0.0, -2735.2276724848357, 0.0]
['beep', 0.0, 737.1828838804822, 0.0, 0.0, 0.0, 0.0, -2734.1771404954366, 0.0]
['beep', 0.0, 736.8923112025633, 0.0, 0.0, 0.0, 0.0, -2733.998326539794, 0.0]
['beep', 0.0, 736.8476077136527, 0.0, 0.0, 0.0, 0.0, -2733.864216073062, 0.0]
['beep', 0.0, 738.0098984253286, 0.0, 0.0, 0.0, 0.0, -2734.0430300287044, 0.0]
['beep', 0.0, 738.8145612257197, 0.0, 0.0, 0.0, 0.0, -2733.5289399062326, 0.0]
['beep', 0.0, 737.5852152806777, 0.0, 0.0, 0.0, 0.0, -2733.707753861875, 0.0]
['beep', 0.0, 736.0876484021721, 0.0, 0.0, 0.0, 0.0, -2734.423009684445, 0.0]
['beep', 0.0, 736.4005728245464, 0.0, 0.0, 0.0, 0.0, -2734.423009684445, 0.0]
['beep', 0.0, 737.4287530694907, 0.0, 0.0, 0.0, 0.0, -2734.132437006526, 0.0]
['beep', 0.0, 738.0098984253286, 0.0, 0.0, 0.0, 0.0, -2735.16061725147, 0.0]
['beep', 0.0, 737.8310844696862, 0.0, 0.0, 0.0, 0.0, -2733.8865678175175, 0.0]
['beep', 0.0, 737.6522705140437, 0.0, 0.0, 0.0, 0.0, -2733.73010560633, 0.0]
['beep', 0.0, 738.1216571476051, 0.0, 0.0, 0.0, 0.0, -2735.1159137625596, 0.0]
['beep', 0.0, 738.8816164590855, 0.0, 0.0, 0.0, 0.0, -2734.937099806917, 0.0]
['beep', 0.0, 738.0769536586945, 0.0, 0.0, 0.0, 0.0, -2734.154788750981, 0.0]
['beep', 0.0, 737.4958083028565, 0.0, 0.0, 0.0, 0.0, -2734.5347684067215, 0.0]
['beep', 0.0, 737.6075670251331, 0.0, 0.0, 0.0, 0.0, -2735.026506784738, 0.0]
['beep', 0.0, 737.7863809807756, 0.0, 0.0, 0.0, 0.0, -2734.1771404954366, 0.0]
['beep', 0.0, 738.6804507589878, 0.0, 0.0, 0.0, 0.0, -2734.6912306179083, 0.0]
['beep', 0.0, 738.1440088920605, 0.0, 0.0, 0.0, 0.0, -2735.808817840674, 0.0]
['beep', 0.0, 737.6969740029543, 0.0, 0.0, 0.0, 0.0, -2735.697059118397, 0.0]
['beep', 0.0, 736.512331546823, 0.0, 0.0, 0.0, 0.0, -2734.4677131733556, 0.0]
['beep', 0.0, 736.8476077136527, 0.0, 0.0, 0.0, 0.0, -2734.512416662266, 0.0]
['beep', 0.0, 738.7251542478984, 0.0, 0.0, 0.0, 0.0, -2735.2723759737464, 0.0]
['beep', 0.0, 738.9486716924515, 0.0, 0.0, 0.0, 0.0, -2733.797160839696, 0.0]
['beep', 0.0, 737.6522705140437, 0.0, 0.0, 0.0, 0.0, -2733.707753861875, 0.0]
['beep', 0.0, 737.1158286471164, 0.0, 0.0, 0.0, 0.0, -2734.0206782842492, 0.0]
['beep', 0.0, 737.093476902661, 0.0, 0.0, 0.0, 0.0, -2733.9312713064282, 0.0]
['beep', 0.0, 738.5686920367112, 0.0, 0.0, 0.0, 0.0, -2734.937099806917, 0.0]
['beep', 0.0, 738.7698577368091, 0.0, 0.0, 0.0, 0.0, -2734.154788750981, 0.0]
['beep', 0.0, 737.4734565584013, 0.0, 0.0, 0.0, 0.0, -2732.903091061484, 0.0]
['beep', 0.0, 736.9146629470185, 0.0, 0.0, 0.0, 0.0, -2733.752457350786, 0.0]
['beep', 0.0, 738.5910437811666, 0.0, 0.0, 0.0, 0.0, -2733.3724776950453, 0.0]
['beep', 0.0, 738.7922094812643, 0.0, 0.0, 0.0, 0.0, -2733.2830707172243, 0.0]
['beep', 0.0, 738.9263199479961, 0.0, 0.0, 0.0, 0.0, -2733.059553272671, 0.0]
['beep', 0.0, 739.3733548371023, 0.0, 0.0, 0.0, 0.0, -2733.8865678175175, 0.0]
['beep', 0.0, 737.965194936418, 0.0, 0.0, 0.0, 0.0, -2734.8253410846405, 0.0]
['beep', 0.0, 737.6075670251331, 0.0, 0.0, 0.0, 0.0, -2734.870044573551, 0.0]
['beep', 0.0, 738.5239885478006, 0.0, 0.0, 0.0, 0.0, -2735.16061725147, 0.0]
['beep', 0.0, 738.5910437811666, 0.0, 0.0, 0.0, 0.0, -2735.0488585291932, 0.0]
['beep', 0.0, 738.0322501697839, 0.0, 0.0, 0.0, 0.0, -2734.4453614289, 0.0]
['beep', 0.0, 737.4511048139459, 0.0, 0.0, 0.0, 0.0, -2734.06538177316, 0.0]
['beep', 0.0, 738.0098984253286, 0.0, 0.0, 0.0, 0.0, -2734.221843984347, 0.0]
['beep', 0.0, 739.865093215119, 0.0, 0.0, 0.0, 0.0, -2734.4677131733556, 0.0]
['beep', 0.0, 739.2615961148258, 0.0, 0.0, 0.0, 0.0, -2736.904053318984, 0.0]
['beep', 0.0, 738.0098984253286, 0.0, 0.0, 0.0, 0.0, -2734.9147480624615, 0.0]
['beep', 0.0, 737.2499391138482, 0.0, 0.0, 0.0, 0.0, -2733.774809095241, 0.0]
['beep', 0.0, 737.674622258499, 0.0, 0.0, 0.0, 0.0, -2733.6630503729643, 0.0]
['beep', 0.0, 738.6133955256219, 0.0, 0.0, 0.0, 0.0, -2734.870044573551, 0.0]
['beep', 0.0, 738.3004711032476, 0.0, 0.0, 0.0, 0.0, -2735.4958934182996, 0.0]
['beep', 0.0, 738.3004711032476, 0.0, 0.0, 0.0, 0.0, -2734.0206782842492, 0.0]
['beep', 0.0, 738.0769536586945, 0.0, 0.0, 0.0, 0.0, -2733.6630503729643, 0.0]
['beep', 0.0, 738.0546019142392, 0.0, 0.0, 0.0, 0.0, -2734.6241753845425, 0.0]
['beep', 0.0, 738.4569333144348, 0.0, 0.0, 0.0, 0.0, -2734.5347684067215, 0.0]
['beep', 0.0, 738.546340292256, 0.0, 0.0, 0.0, 0.0, -2734.8923963180064, 0.0]
['beep', 0.0, 738.4345815699794, 0.0, 0.0, 0.0, 0.0, -2733.9312713064282, 0.0]
['beep', 0.0, 738.0098984253286, 0.0, 0.0, 0.0, 0.0, -2734.423009684445, 0.0]
['beep', 0.0, 739.0157269258174, 0.0, 0.0, 0.0, 0.0, -2735.8982248184952, 0.0]
['beep', 0.0, 740.4685903154124, 0.0, 0.0, 0.0, 0.0, -2735.2276724848357, 0.0]
['beep', 0.0, 740.1780176374933, 0.0, 0.0, 0.0, 0.0, -2735.5182451627547, 0.0]
['beep', 0.0, 739.127485648094, 0.0, 0.0, 0.0, 0.0, -2735.808817840674, 0.0]
['beep', 0.0, 738.8145612257197, 0.0, 0.0, 0.0, 0.0, -2734.4677131733556, 0.0]
['beep', 0.0, 739.8203897262084, 0.0, 0.0, 0.0, 0.0, -2733.6630503729643, 0.0]
['beep', 0.0, 742.0108606828286, 0.0, 0.0, 0.0, 0.0, -2734.512416662266, 0.0]
['beep', 0.0, 742.189674638471, 0.0, 0.0, 0.0, 0.0, -2736.4346666854226, 0.0]
['beep', 0.0, 740.8709217156079, 0.0, 0.0, 0.0, 0.0, -2735.451189929389, 0.0]
['beep', 0.0, 740.3568315931358, 0.0, 0.0, 0.0, 0.0, -2734.937099806917, 0.0]
['beep', 0.0, 740.4685903154124, 0.0, 0.0, 0.0, 0.0, -2736.2335009853246, 0.0]
['beep', 0.0, 741.9438054494626, 0.0, 0.0, 0.0, 0.0, -2735.317079462657, 0.0]
['beep', 0.0, 742.1002676606498, 0.0, 0.0, 0.0, 0.0, -2735.451189929389, 0.0]
['beep', 0.0, 739.865093215119, 0.0, 0.0, 0.0, 0.0, -2735.8982248184952, 0.0]
['beep', 0.0, 739.9545001929403, 0.0, 0.0, 0.0, 0.0, -2735.2500242292913, 0.0]
['beep', 0.0, 740.4238868265018, 0.0, 0.0, 0.0, 0.0, -2735.1829689959254, 0.0]
['beep', 0.0, 741.1838461379822, 0.0, 0.0, 0.0, 0.0, -2736.121742263048, 0.0]
['beep', 0.0, 741.2732531158034, 0.0, 0.0, 0.0, 0.0, -2736.2111492408694, 0.0]
['beep', 0.0, 740.2674246153146, 0.0, 0.0, 0.0, 0.0, -2735.5405969072103, 0.0]
['beep', 0.0, 740.5356455487783, 0.0, 0.0, 0.0, 0.0, -2735.317079462657, 0.0]
['beep', 0.0, 740.8709217156079, 0.0, 0.0, 0.0, 0.0, -2735.1382655070147, 0.0]
['beep', 0.0, 741.0050321823397, 0.0, 0.0, 0.0, 0.0, -2734.713582362364, 0.0]
['beep', 0.0, 740.9156252045185, 0.0, 0.0, 0.0, 0.0, -2735.5405969072103, 0.0]
['beep', 0.0, 740.2674246153146, 0.0, 0.0, 0.0, 0.0, -2735.5629486516655, 0.0]
['beep', 0.0, 739.7086310039319, 0.0, 0.0, 0.0, 0.0, -2735.16061725147, 0.0]
['beep', 0.0, 740.5579972932336, 0.0, 0.0, 0.0, 0.0, -2735.2053207403806, 0.0]
['beep', 0.0, 741.4297153269906, 0.0, 0.0, 0.0, 0.0, -2736.680535874431, 0.0]
['beep', 0.0, 741.4520670714459, 0.0, 0.0, 0.0, 0.0, -2736.836998085618, 0.0]
['beep', 0.0, 741.0497356712503, 0.0, 0.0, 0.0, 0.0, -2736.5911288966095, 0.0]
['beep', 0.0, 740.0662589152168, 0.0, 0.0, 0.0, 0.0, -2735.3394312071123, 0.0]
['beep', 0.0, 741.0273839267951, 0.0, 0.0, 0.0, 0.0, -2734.9818032958274, 0.0]
['beep', 0.0, 742.1226194051051, 0.0, 0.0, 0.0, 0.0, -2736.345259707601, 0.0]
['beep', 0.0, 742.189674638471, 0.0, 0.0, 0.0, 0.0, -2736.009983540772, 0.0]
['beep', 0.0, 740.9603286934291, 0.0, 0.0, 0.0, 0.0, -2735.451189929389, 0.0]
['beep', 0.0, 739.865093215119, 0.0, 0.0, 0.0, 0.0, -2736.5911288966095, 0.0]
['beep', 0.0, 739.8874449595744, 0.0, 0.0, 0.0, 0.0, -2736.121742263048, 0.0]
['beep', 0.0, 741.1838461379822, 0.0, 0.0, 0.0, 0.0, -2736.836998085618, 0.0]
['beep', 0.0, 742.0332124272838, 0.0, 0.0, 0.0, 0.0, -2737.5075504192773, 0.0]
['beep', 0.0, 741.1614943935269, 0.0, 0.0, 0.0, 0.0, -2736.904053318984, 0.0]
['beep', 0.0, 740.1556658930381, 0.0, 0.0, 0.0, 0.0, -2735.719410862853, 0.0]
['beep', 0.0, 740.5356455487783, 0.0, 0.0, 0.0, 0.0, -2735.4288381849337, 0.0]
['beep', 0.0, 740.9826804378845, 0.0, 0.0, 0.0, 0.0, -2735.7864660962186, 0.0]
['beep', 0.0, 741.9885089383732, 0.0, 0.0, 0.0, 0.0, -2735.8311695851294, 0.0]
['beep', 0.0, 741.1614943935269, 0.0, 0.0, 0.0, 0.0, -2735.361782951568, 0.0]
['beep', 0.0, 740.0439071707615, 0.0, 0.0, 0.0, 0.0, -2734.9594515513722, 0.0]
['beep', 0.0, 741.8096949827308, 0.0, 0.0, 0.0, 0.0, -2736.1664457519587, 0.0]
['beep', 0.0, 741.9438054494626, 0.0, 0.0, 0.0, 0.0, -2736.680535874431, 0.0]
['beep', 0.0, 741.5861775381777, 0.0, 0.0, 0.0, 0.0, -2736.613480641065, 0.0]
['beep', 0.0, 741.5414740492671, 0.0, 0.0, 0.0, 0.0, -2735.9429283074055, 0.0]
['beep', 0.0, 740.3791833375911, 0.0, 0.0, 0.0, 0.0, -2735.5629486516655, 0.0]
['beep', 0.0, 740.3568315931358, 0.0, 0.0, 0.0, 0.0, -2735.697059118397, 0.0]
['beep', 0.0, 741.6532327715437, 0.0, 0.0, 0.0, 0.0, -2737.261681230269, 0.0]
['beep', 0.0, 740.8709217156079, 0.0, 0.0, 0.0, 0.0, -2737.8428265861066, 0.0]
['beep', 0.0, 739.2615961148258, 0.0, 0.0, 0.0, 0.0, -2736.5687771521543, 0.0]
['beep', 0.0, 738.4345815699794, 0.0, 0.0, 0.0, 0.0, -2734.713582362364, 0.0]
['beep', 0.0, 739.4851135593789, 0.0, 0.0, 0.0, 0.0, -2735.451189929389, 0.0]
['beep', 0.0, 741.9214537050074, 0.0, 0.0, 0.0, 0.0, -2736.747591107797, 0.0]
['beep', 0.0, 741.6085292826331, 0.0, 0.0, 0.0, 0.0, -2735.7864660962186, 0.0]
['beep', 0.0, 740.3568315931358, 0.0, 0.0, 0.0, 0.0, -2734.2665474732576, 0.0]
['beep', 0.0, 740.1556658930381, 0.0, 0.0, 0.0, 0.0, -2733.998326539794, 0.0]
['beep', 0.0, 740.8709217156079, 0.0, 0.0, 0.0, 0.0, -2735.2276724848357, 0.0]
['beep', 0.0, 741.966157193918, 0.0, 0.0, 0.0, 0.0, -2734.8253410846405, 0.0]
['beep', 0.0, 742.9719856944067, 0.0, 0.0, 0.0, 0.0, -2735.8758730740396, 0.0]
['beep', 0.0, 741.7426397493649, 0.0, 0.0, 0.0, 0.0, -2735.451189929389, 0.0]
['beep', 0.0, 739.8203897262084, 0.0, 0.0, 0.0, 0.0, -2734.378306195534, 0.0]
['beep', 0.0, 741.0273839267951, 0.0, 0.0, 0.0, 0.0, -2735.1159137625596, 0.0]
['beep', 0.0, 741.9885089383732, 0.0, 0.0, 0.0, 0.0, -2735.2053207403806, 0.0]
['beep', 0.0, 742.1002676606498, 0.0, 0.0, 0.0, 0.0, -2736.009983540772, 0.0]
['beep', 0.0, 740.5356455487783, 0.0, 0.0, 0.0, 0.0, -2736.8817015745285, 0.0]
['beep', 0.0, 740.0662589152168, 0.0, 0.0, 0.0, 0.0, -2735.5405969072103, 0.0]
['beep', 0.0, 740.736811248876, 0.0, 0.0, 0.0, 0.0, -2735.9876317963162, 0.0]
['beep', 0.0, 743.5978345391553, 0.0, 0.0, 0.0, 0.0, -2737.2169777413583, 0.0]
['beep', 0.0, 744.3354421061805, 0.0, 0.0, 0.0, 0.0, -2735.764114351763, 0.0]
['beep', 0.0, 744.1789798949933, 0.0, 0.0, 0.0, 0.0, -2735.317079462657, 0.0]
['beep', 0.0, 745.1401049065715, 0.0, 0.0, 0.0, 0.0, -2734.4677131733556, 0.0]
['beep', 0.0, 745.4977328178564, 0.0, 0.0, 0.0, 0.0, -2733.4618846728667, 0.0]
['beep', 0.0, 744.8495322286526, 0.0, 0.0, 0.0, 0.0, -2734.4677131733556, 0.0]
['beep', 0.0, 743.3743170946022, 0.0, 0.0, 0.0, 0.0, -2733.506588161777, 0.0]
['beep', 0.0, 742.0779159161945, 0.0, 0.0, 0.0, 0.0, -2732.8583875725735, 0.0]
['beep', 0.0, 740.5579972932336, 0.0, 0.0, 0.0, 0.0, -2733.841864328607, 0.0]
['beep', 0.0, 740.7144595044208, 0.0, 0.0, 0.0, 0.0, -2734.087733517615, 0.0]
['beep', 0.0, 741.9885089383732, 0.0, 0.0, 0.0, 0.0, -2735.2276724848357, 0.0]
['beep', 0.0, 741.2732531158034, 0.0, 0.0, 0.0, 0.0, -2736.3005562186904, 0.0]
['beep', 0.0, 740.2003693819487, 0.0, 0.0, 0.0, 0.0, -2734.870044573551, 0.0]
['beep', 0.0, 740.2227211264039, 0.0, 0.0, 0.0, 0.0, -2734.288899217713, 0.0]
['beep', 0.0, 740.1333141485827, 0.0, 0.0, 0.0, 0.0, -2734.4453614289, 0.0]
['beep', 0.0, 742.3684885941135, 0.0, 0.0, 0.0, 0.0, -2735.5629486516655, 0.0]
['beep', 0.0, 747.1964653964598, 0.0, 0.0, 0.0, 0.0, -2738.4239719419447, 0.0]
['beep', 0.0, 747.352927607647, 0.0, 0.0, 0.0, 0.0, -2739.385096953523, 0.0]
['beep', 0.0, 746.5259130628006, 0.0, 0.0, 0.0, 0.0, -2738.513378919766, 0.0]
['beep', 0.0, 745.1848083954822, 0.0, 0.0, 0.0, 0.0, -2738.5580824086765, 0.0]
['beep', 0.0, 745.0506979287503, 0.0, 0.0, 0.0, 0.0, -2739.094524275604, 0.0]
['beep', 0.0, 746.4365060849793, 0.0, 0.0, 0.0, 0.0, -2738.8486550865955, 0.0]
['beep', 0.0, 748.2022938969486, 0.0, 0.0, 0.0, 0.0, -2738.9157103199614, 0.0]
['beep', 0.0, 748.1799421524933, 0.0, 0.0, 0.0, 0.0, -2738.580434153132, 0.0]
['beep', 0.0, 748.5822735526889, 0.0, 0.0, 0.0, 0.0, -2738.714544619864, 0.0]
['beep', 0.0, 750.2363026423816, 0.0, 0.0, 0.0, 0.0, -2737.9545853083832, 0.0]
['beep', 0.0, 751.5327038207894, 0.0, 0.0, 0.0, 0.0, -2736.9487568078944, 0.0]
['beep', 0.0, 752.6502910435547, 0.0, 0.0, 0.0, 0.0, -2736.8817015745285, 0.0]
['beep', 0.0, 751.8679799876189, 0.0, 0.0, 0.0, 0.0, -2737.3957916970007, 0.0]
['beep', 0.0, 749.4986950753564, 0.0, 0.0, 0.0, 0.0, -2736.345259707601, 0.0]
['beep', 0.0, 748.6716805305101, 0.0, 0.0, 0.0, 0.0, -2737.664012630464, 0.0]
['beep', 0.0, 748.3140526192251, 0.0, 0.0, 0.0, 0.0, -2739.6533178869868, 0.0]
['beep', 0.0, 748.2022938969486, 0.0, 0.0, 0.0, 0.0, -2738.5580824086765, 0.0]
['beep', 0.0, 747.0847066741833, 0.0, 0.0, 0.0, 0.0, -2738.1781027529364, 0.0]
['beep', 0.0, 746.3694508516135, 0.0, 0.0, 0.0, 0.0, -2737.8428265861066, 0.0]
['beep', 0.0, 747.0847066741833, 0.0, 0.0, 0.0, 0.0, -2738.2451579863023, 0.0]
['beep', 0.0, 748.5152183193229, 0.0, 0.0, 0.0, 0.0, -2739.6980213758975, 0.0]
['beep', 0.0, 748.6269770415995, 0.0, 0.0, 0.0, 0.0, -2739.519207420255, 0.0]
['beep', 0.0, 747.5540933077447, 0.0, 0.0, 0.0, 0.0, -2739.4074486979785, 0.0]
['beep', 0.0, 746.6823752739878, 0.0, 0.0, 0.0, 0.0, -2739.6533178869868, 0.0]
['beep', 0.0, 748.0234799413062, 0.0, 0.0, 0.0, 0.0, -2740.5920911541098, 0.0]
['beep', 0.0, 748.5152183193229, 0.0, 0.0, 0.0, 0.0, -2740.234463242825, 0.0]
['beep', 0.0, 748.805790997242, 0.0, 0.0, 0.0, 0.0, -2739.094524275604, 0.0]
['beep', 0.0, 748.2469973858592, 0.0, 0.0, 0.0, 0.0, -2741.061477787671, 0.0]
['beep', 0.0, 746.9282444629961, 0.0, 0.0, 0.0, 0.0, -2741.0391260432157, 0.0]
['beep', 0.0, 746.2800438737922, 0.0, 0.0, 0.0, 0.0, -2739.005117297783, 0.0]
['beep', 0.0, 748.3587561081358, 0.0, 0.0, 0.0, 0.0, -2740.5920911541098, 0.0]
['beep', 0.0, 748.2917008747698, 0.0, 0.0, 0.0, 0.0, -2741.0391260432157, 0.0]
['beep', 0.0, 745.38597409558, 0.0, 0.0, 0.0, 0.0, -2740.4579806873776, 0.0]
['beep', 0.0, 745.4977328178564, 0.0, 0.0, 0.0, 0.0, -2739.16157950897, 0.0]
['beep', 0.0, 747.7776107522977, 0.0, 0.0, 0.0, 0.0, -2739.92153882045, 0.0]
['beep', 0.0, 749.4986950753564, 0.0, 0.0, 0.0, 0.0, -2740.7485533652966, 0.0]
['beep', 0.0, 750.1692474090156, 0.0, 0.0, 0.0, 0.0, -2740.1227045205483, 0.0]
['beep', 0.0, 748.5375700637783, 0.0, 0.0, 0.0, 0.0, -2739.54155916471, 0.0]
['beep', 0.0, 748.805790997242, 0.0, 0.0, 0.0, 0.0, -2739.92153882045, 0.0]
['beep', 0.0, 749.0069566973397, 0.0, 0.0, 0.0, 0.0, -2741.128533021037, 0.0]
['beep', 0.0, 749.6998607754542, 0.0, 0.0, 0.0, 0.0, -2741.4414574434113, 0.0]
['beep', 0.0, 748.8728462306078, 0.0, 0.0, 0.0, 0.0, -2740.994422554305, 0.0]
['beep', 0.0, 748.2693491303145, 0.0, 0.0, 0.0, 0.0, -2740.25681498728, 0.0]
['beep', 0.0, 748.0681834302168, 0.0, 0.0, 0.0, 0.0, -2740.7485533652966, 0.0]
['beep', 0.0, 747.7329072633871, 0.0, 0.0, 0.0, 0.0, -2739.1839312534253, 0.0]
['beep', 0.0, 749.1187154196163, 0.0, 0.0, 0.0, 0.0, -2739.5639109091653, 0.0]
['beep', 0.0, 749.7669160088201, 0.0, 0.0, 0.0, 0.0, -2740.6814981319308, 0.0]
['beep', 0.0, 748.4705148304123, 0.0, 0.0, 0.0, 0.0, -2740.0109457982717, 0.0]
['beep', 0.0, 747.4423345854682, 0.0, 0.0, 0.0, 0.0, -2740.279166731735, 0.0]
['beep', 0.0, 747.285872374281, 0.0, 0.0, 0.0, 0.0, -2741.128533021037, 0.0]
['beep', 0.0, 748.6269770415995, 0.0, 0.0, 0.0, 0.0, -2741.2402917433133, 0.0]
['beep', 0.0, 749.319881119714, 0.0, 0.0, 0.0, 0.0, -2741.1508847654923, 0.0]
['beep', 0.0, 747.3976310965576, 0.0, 0.0, 0.0, 0.0, -2741.128533021037, 0.0]
['beep', 0.0, 746.3470991071581, 0.0, 0.0, 0.0, 0.0, -2740.4356289429224, 0.0]
['beep', 0.0, 748.6940322749654, 0.0, 0.0, 0.0, 0.0, -2740.8826638320284, 0.0]
['beep', 0.0, 750.705689275943, 0.0, 0.0, 0.0, 0.0, -2741.7543818657855, 0.0]
['beep', 0.0, 751.2197793984151, 0.0, 0.0, 0.0, 0.0, -2742.0896580326153, 0.0]
['beep', 0.0, 749.7669160088201, 0.0, 0.0, 0.0, 0.0, -2741.3744022100454, 0.0]
['beep', 0.0, 748.6493287860548, 0.0, 0.0, 0.0, 0.0, -2739.6980213758975, 0.0]
['beep', 0.0, 747.9117212190296, 0.0, 0.0, 0.0, 0.0, -2739.2733382312463, 0.0]
['beep', 0.0, 749.319881119714, 0.0, 0.0, 0.0, 0.0, -2740.4132771984673, 0.0]
['beep', 0.0, 750.5492270647559, 0.0, 0.0, 0.0, 0.0, -2740.3909254540117, 0.0]
['beep', 0.0, 750.2363026423816, 0.0, 0.0, 0.0, 0.0, -2739.630966142531, 0.0]
['beep', 0.0, 748.6269770415995, 0.0, 0.0, 0.0, 0.0, -2739.005117297783, 0.0]
['beep', 0.0, 749.2304741418927, 0.0, 0.0, 0.0, 0.0, -2739.3627452090677, 0.0]
['beep', 0.0, 750.7950962537642, 0.0, 0.0, 0.0, 0.0, -2739.519207420255, 0.0]
['beep', 0.0, 750.996261953862, 0.0, 0.0, 0.0, 0.0, -2739.586262653621, 0.0]
['beep', 0.0, 750.5939305536665, 0.0, 0.0, 0.0, 0.0, -2739.295689975702, 0.0]
['beep', 0.0, 750.9068549760408, 0.0, 0.0, 0.0, 0.0, -2738.8263033421404, 0.0]
['beep', 0.0, 751.3091863762363, 0.0, 0.0, 0.0, 0.0, -2737.8875300750174, 0.0]
['beep', 0.0, 752.0244421988061, 0.0, 0.0, 0.0, 0.0, -2737.1722742524476, 0.0]
['beep', 0.0, 752.1809044099932, 0.0, 0.0, 0.0, 0.0, -2739.0721725311487, 0.0]
['beep', 0.0, 751.1080206761385, 0.0, 0.0, 0.0, 0.0, -2739.608614398076, 0.0]
['beep', 0.0, 749.8339712421861, 0.0, 0.0, 0.0, 0.0, -2739.005117297783, 0.0]
['beep', 0.0, 750.4374683424793, 0.0, 0.0, 0.0, 0.0, -2738.7815998532296, 0.0]
['beep', 0.0, 750.8621514871302, 0.0, 0.0, 0.0, 0.0, -2739.385096953523, 0.0]
['beep', 0.0, 750.9068549760408, 0.0, 0.0, 0.0, 0.0, -2739.1839312534253, 0.0]
['beep', 0.0, 750.705689275943, 0.0, 0.0, 0.0, 0.0, -2738.871006831051, 0.0]
['beep', 0.0, 749.3645846086246, 0.0, 0.0, 0.0, 0.0, -2738.513378919766, 0.0]
['beep', 0.0, 749.9233782200073, 0.0, 0.0, 0.0, 0.0, -2738.803951597685, 0.0]
['beep', 0.0, 749.8563229866413, 0.0, 0.0, 0.0, 0.0, -2738.960413808872, 0.0]
['beep', 0.0, 749.9680817089179, 0.0, 0.0, 0.0, 0.0, -2739.7874283537185, 0.0]
['beep', 0.0, 748.6940322749654, 0.0, 0.0, 0.0, 0.0, -2738.379268453034, 0.0]
['beep', 0.0, 748.0011281968508, 0.0, 0.0, 0.0, 0.0, -2739.1168760200594, 0.0]
['beep', 0.0, 748.4705148304123, 0.0, 0.0, 0.0, 0.0, -2739.318041720157, 0.0]
['beep', 0.0, 749.543398564267, 0.0, 0.0, 0.0, 0.0, -2739.250986486791, 0.0]
['beep', 0.0, 749.1857706529821, 0.0, 0.0, 0.0, 0.0, -2739.92153882045, 0.0]
['beep', 0.0, 748.2469973858592, 0.0, 0.0, 0.0, 0.0, -2739.4745039313443, 0.0]
['beep', 0.0, 747.1964653964598, 0.0, 0.0, 0.0, 0.0, -2738.021640541749, 0.0]
['beep', 0.0, 747.0400031852727, 0.0, 0.0, 0.0, 0.0, -2738.8263033421404, 0.0]
['beep', 0.0, 749.2081223974375, 0.0, 0.0, 0.0, 0.0, -2740.4132771984673, 0.0]
['beep', 0.0, 750.772744509309, 0.0, 0.0, 0.0, 0.0, -2739.027469042238, 0.0]
['beep', 0.0, 748.6716805305101, 0.0, 0.0, 0.0, 0.0, -2739.295689975702, 0.0]
['beep', 0.0, 746.5706165517112, 0.0, 0.0, 0.0, 0.0, -2740.25681498728, 0.0]
['beep', 0.0, 748.2022938969486, 0.0, 0.0, 0.0, 0.0, -2740.346221965101, 0.0]
['beep', 0.0, 749.7445642643648, 0.0, 0.0, 0.0, 0.0, -2741.195588254403, 0.0]
['beep', 0.0, 749.6551572865436, 0.0, 0.0, 0.0, 0.0, -2739.7874283537185, 0.0]
['beep', 0.0, 748.0234799413062, 0.0, 0.0, 0.0, 0.0, -2739.1392277645145, 0.0]
['beep', 0.0, 747.0847066741833, 0.0, 0.0, 0.0, 0.0, -2740.3909254540117, 0.0]
['beep', 0.0, 748.805790997242, 0.0, 0.0, 0.0, 0.0, -2741.284995232224, 0.0]
['beep', 0.0, 749.543398564267, 0.0, 0.0, 0.0, 0.0, -2741.35205046559, 0.0]
['beep', 0.0, 749.7669160088201, 0.0, 0.0, 0.0, 0.0, -2739.16157950897, 0.0]
['beep', 0.0, 749.2528258863481, 0.0, 0.0, 0.0, 0.0, -2739.519207420255, 0.0]
['beep', 0.0, 747.9117212190296, 0.0, 0.0, 0.0, 0.0, -2741.2402917433133, 0.0]
['beep', 0.0, 748.090535174672, 0.0, 0.0, 0.0, 0.0, -2739.87683533154, 0.0]
['beep', 0.0, 749.2528258863481, 0.0, 0.0, 0.0, 0.0, -2740.1227045205483, 0.0]
['beep', 0.0, 749.7222125199095, 0.0, 0.0, 0.0, 0.0, -2739.7427248648078, 0.0]
['beep', 0.0, 748.805790997242, 0.0, 0.0, 0.0, 0.0, -2739.4521521868887, 0.0]
['beep', 0.0, 746.7494305073536, 0.0, 0.0, 0.0, 0.0, -2739.7874283537185, 0.0]
['beep', 0.0, 747.5987967966553, 0.0, 0.0, 0.0, 0.0, -2740.1003527760927, 0.0]
['beep', 0.0, 749.6998607754542, 0.0, 0.0, 0.0, 0.0, -2739.6533178869868, 0.0]
['beep', 0.0, 750.3704131091134, 0.0, 0.0, 0.0, 0.0, -2739.519207420255, 0.0]
['beep', 0.0, 748.4258113415017, 0.0, 0.0, 0.0, 0.0, -2738.8263033421404, 0.0]
['beep', 0.0, 747.5764450522, 0.0, 0.0, 0.0, 0.0, -2738.6921928754086, 0.0]
['beep', 0.0, 747.7999624967531, 0.0, 0.0, 0.0, 0.0, -2740.3685737095566, 0.0]
['beep', 0.0, 748.8728462306078, 0.0, 0.0, 0.0, 0.0, -2740.279166731735, 0.0]
['beep', 0.0, 749.5881020531776, 0.0, 0.0, 0.0, 0.0, -2739.832131842629, 0.0]
['beep', 0.0, 748.3140526192251, 0.0, 0.0, 0.0, 0.0, -2740.3015184761907, 0.0]
['beep', 0.0, 747.6435002855659, 0.0, 0.0, 0.0, 0.0, -2739.7650766092634, 0.0]
['beep', 0.0, 747.5987967966553, 0.0, 0.0, 0.0, 0.0, -2740.1450562650034, 0.0]
['beep', 0.0, 749.4316398419905, 0.0, 0.0, 0.0, 0.0, -2742.4696376883553, 0.0]
['beep', 0.0, 749.5210468198118, 0.0, 0.0, 0.0, 0.0, -2740.8156085986625, 0.0]
['beep', 0.0, 748.9175497195184, 0.0, 0.0, 0.0, 0.0, -2738.893358575506, 0.0]
['beep', 0.0, 749.4316398419905, 0.0, 0.0, 0.0, 0.0, -2739.7427248648078, 0.0]
['beep', 0.0, 748.8728462306078, 0.0, 0.0, 0.0, 0.0, -2739.92153882045, 0.0]
['beep', 0.0, 749.4763433309012, 0.0, 0.0, 0.0, 0.0, -2740.1450562650034, 0.0]
['beep', 0.0, 750.929206720496, 0.0, 0.0, 0.0, 0.0, -2740.323870220646, 0.0]
['beep', 0.0, 750.9515584649514, 0.0, 0.0, 0.0, 0.0, -2739.385096953523, 0.0]
['beep', 0.0, 749.029308441795, 0.0, 0.0, 0.0, 0.0, -2739.675669631442, 0.0]
['beep', 0.0, 749.7445642643648, 0.0, 0.0, 0.0, 0.0, -2739.899187075995, 0.0]
['beep', 0.0, 751.1750759095045, 0.0, 0.0, 0.0, 0.0, -2739.005117297783, 0.0]
['beep', 0.0, 750.6386340425771, 0.0, 0.0, 0.0, 0.0, -2740.3015184761907, 0.0]
['beep', 0.0, 749.4092880975352, 0.0, 0.0, 0.0, 0.0, -2741.553216165688, 0.0]
['beep', 0.0, 748.6269770415995, 0.0, 0.0, 0.0, 0.0, -2740.905015576484, 0.0]
['beep', 0.0, 749.6328055420882, 0.0, 0.0, 0.0, 0.0, -2739.586262653621, 0.0]
['beep', 0.0, 750.5939305536665, 0.0, 0.0, 0.0, 0.0, -2739.1168760200594, 0.0]
['beep', 0.0, 750.0351369422838, 0.0, 0.0, 0.0, 0.0, -2740.323870220646, 0.0]
['beep', 0.0, 748.8728462306078, 0.0, 0.0, 0.0, 0.0, -2738.714544619864, 0.0]
['beep', 0.0, 748.8728462306078, 0.0, 0.0, 0.0, 0.0, -2739.027469042238, 0.0]
['beep', 0.0, 749.2304741418927, 0.0, 0.0, 0.0, 0.0, -2739.4074486979785, 0.0]
['beep', 0.0, 749.9010264755519, 0.0, 0.0, 0.0, 0.0, -2738.513378919766, 0.0]
['beep', 0.0, 751.2197793984151, 0.0, 0.0, 0.0, 0.0, -2738.7592481087745, 0.0]
['beep', 0.0, 750.2139508979262, 0.0, 0.0, 0.0, 0.0, -2739.1392277645145, 0.0]
['beep', 0.0, 748.0234799413062, 0.0, 0.0, 0.0, 0.0, -2739.5639109091653, 0.0]
['beep', 0.0, 748.6493287860548, 0.0, 0.0, 0.0, 0.0, -2739.8097800981736, 0.0]
['beep', 0.0, 749.4316398419905, 0.0, 0.0, 0.0, 0.0, -2740.927367320939, 0.0]
['beep', 0.0, 749.8786747310967, 0.0, 0.0, 0.0, 0.0, -2740.8156085986625, 0.0]
['beep', 0.0, 749.1634189085269, 0.0, 0.0, 0.0, 0.0, -2740.4132771984673, 0.0]
['beep', 0.0, 748.4258113415017, 0.0, 0.0, 0.0, 0.0, -2739.966242309361, 0.0]
['beep', 0.0, 748.6269770415995, 0.0, 0.0, 0.0, 0.0, -2740.033297542727, 0.0]
['beep', 0.0, 749.6328055420882, 0.0, 0.0, 0.0, 0.0, -2740.25681498728, 0.0]
['beep', 0.0, 750.0127851978285, 0.0, 0.0, 0.0, 0.0, -2741.866140588062, 0.0]
['beep', 0.0, 749.6328055420882, 0.0, 0.0, 0.0, 0.0, -2740.5250359207434, 0.0]
['beep', 0.0, 750.1021921756497, 0.0, 0.0, 0.0, 0.0, -2739.4074486979785, 0.0]
['beep', 0.0, 750.772744509309, 0.0, 0.0, 0.0, 0.0, -2738.6921928754086, 0.0]
['beep', 0.0, 752.2032561544486, 0.0, 0.0, 0.0, 0.0, -2740.2121114983693, 0.0]
['beep', 0.0, 752.1362009210826, 0.0, 0.0, 0.0, 0.0, -2739.675669631442, 0.0]
['beep', 0.0, 750.9739102094067, 0.0, 0.0, 0.0, 0.0, -2737.8428265861066, 0.0]
['beep', 0.0, 749.543398564267, 0.0, 0.0, 0.0, 0.0, -2739.027469042238, 0.0]
['beep', 0.0, 750.0351369422838, 0.0, 0.0, 0.0, 0.0, -2739.899187075995, 0.0]
['beep', 0.0, 750.8621514871302, 0.0, 0.0, 0.0, 0.0, -2740.033297542727, 0.0]
['beep', 0.0, 750.7280410203983, 0.0, 0.0, 0.0, 0.0, -2740.1674080094585, 0.0]
['beep', 0.0, 750.772744509309, 0.0, 0.0, 0.0, 0.0, -2740.860312087573, 0.0]
['beep', 0.0, 750.415116598024, 0.0, 0.0, 0.0, 0.0, -2739.4968556757995, 0.0]
['beep', 0.0, 750.5939305536665, 0.0, 0.0, 0.0, 0.0, -2738.714544619864, 0.0]
['beep', 0.0, 752.5385323212782, 0.0, 0.0, 0.0, 0.0, -2740.1003527760927, 0.0]
['beep', 0.0, 752.8067532547419, 0.0, 0.0, 0.0, 0.0, -2739.54155916471, 0.0]
['beep', 0.0, 752.6279392990995, 0.0, 0.0, 0.0, 0.0, -2738.4686754308555, 0.0]
['beep', 0.0, 751.7785730097977, 0.0, 0.0, 0.0, 0.0, -2738.625137642043, 0.0]
['beep', 0.0, 751.4209450985128, 0.0, 0.0, 0.0, 0.0, -2739.8097800981736, 0.0]
['beep', 0.0, 753.0526224437502, 0.0, 0.0, 0.0, 0.0, -2739.3403934646126, 0.0]
['beep', 0.0, 752.6055875546441, 0.0, 0.0, 0.0, 0.0, -2739.250986486791, 0.0]
['beep', 0.0, 751.1974276539597, 0.0, 0.0, 0.0, 0.0, -2739.966242309361, 0.0]
['beep', 0.0, 751.1974276539597, 0.0, 0.0, 0.0, 0.0, -2738.9157103199614, 0.0]
['beep', 0.0, 752.158552665538, 0.0, 0.0, 0.0, 0.0, -2739.943890564906, 0.0]
['beep', 0.0, 752.2926631322698, 0.0, 0.0, 0.0, 0.0, -2741.128533021037, 0.0]
['beep', 0.0, 752.1138491766274, 0.0, 0.0, 0.0, 0.0, -2741.0838295321264, 0.0]
['beep', 0.0, 751.4880003318788, 0.0, 0.0, 0.0, 0.0, -2740.5920911541098, 0.0]
['beep', 0.0, 750.6386340425771, 0.0, 0.0, 0.0, 0.0, -2740.480332431833, 0.0]
['beep', 0.0, 752.158552665538, 0.0, 0.0, 0.0, 0.0, -2740.8826638320284, 0.0]
['beep', 0.0, 752.7844015102866, 0.0, 0.0, 0.0, 0.0, -2741.866140588062, 0.0]
['beep', 0.0, 752.1809044099932, 0.0, 0.0, 0.0, 0.0, -2742.201416754892, 0.0]
['beep', 0.0, 752.739698021376, 0.0, 0.0, 0.0, 0.0, -2740.63679464302, 0.0]
['beep', 0.0, 750.8621514871302, 0.0, 0.0, 0.0, 0.0, -2739.6533178869868, 0.0]
['beep', 0.0, 750.5268753203005, 0.0, 0.0, 0.0, 0.0, -2740.4132771984673, 0.0]
['beep', 0.0, 752.449125343457, 0.0, 0.0, 0.0, 0.0, -2740.703849876386, 0.0]
['beep', 0.0, 753.6784712884988, 0.0, 0.0, 0.0, 0.0, -2741.486160932322, 0.0]
['beep', 0.0, 752.3150148767251, 0.0, 0.0, 0.0, 0.0, -2741.0838295321264, 0.0]
['beep', 0.0, 751.1974276539597, 0.0, 0.0, 0.0, 0.0, -2740.1003527760927, 0.0]
['beep', 0.0, 752.1138491766274, 0.0, 0.0, 0.0, 0.0, -2740.0780010316375, 0.0]
['beep', 0.0, 753.0526224437502, 0.0, 0.0, 0.0, 0.0, -2741.0838295321264, 0.0]
['beep', 0.0, 753.1196776771162, 0.0, 0.0, 0.0, 0.0, -2740.346221965101, 0.0]
['beep', 0.0, 751.6444625430659, 0.0, 0.0, 0.0, 0.0, -2740.25681498728, 0.0]
['beep', 0.0, 751.3091863762363, 0.0, 0.0, 0.0, 0.0, -2740.4132771984673, 0.0]
['beep', 0.0, 752.9408637214738, 0.0, 0.0, 0.0, 0.0, -2741.217939998858, 0.0]
['beep', 0.0, 753.611416055133, 0.0, 0.0, 0.0, 0.0, -2740.1674080094585, 0.0]
['beep', 0.0, 752.7844015102866, 0.0, 0.0, 0.0, 0.0, -2739.832131842629, 0.0]
['beep', 0.0, 752.2256078989038, 0.0, 0.0, 0.0, 0.0, -2740.8826638320284, 0.0]
['beep', 0.0, 751.4209450985128, 0.0, 0.0, 0.0, 0.0, -2740.9497190653947, 0.0]
['beep', 0.0, 752.091497432172, 0.0, 0.0, 0.0, 0.0, -2740.927367320939, 0.0]
['beep', 0.0, 754.1031544331497, 0.0, 0.0, 0.0, 0.0, -2741.642623143509, 0.0]
['beep', 0.0, 753.9466922219625, 0.0, 0.0, 0.0, 0.0, -2739.943890564906, 0.0]
['beep', 0.0, 752.5385323212782, 0.0, 0.0, 0.0, 0.0, -2740.547387665199, 0.0]
['beep', 0.0, 751.8456282431637, 0.0, 0.0, 0.0, 0.0, -2740.25681498728, 0.0]
['beep', 0.0, 752.7173462769207, 0.0, 0.0, 0.0, 0.0, -2740.0109457982717, 0.0]
['beep', 0.0, 753.2314363993927, 0.0, 0.0, 0.0, 0.0, -2739.899187075995, 0.0]
['beep', 0.0, 754.2149131554262, 0.0, 0.0, 0.0, 0.0, -2740.1227045205483, 0.0]
['beep', 0.0, 753.4549538439458, 0.0, 0.0, 0.0, 0.0, -2740.033297542727, 0.0]
['beep', 0.0, 752.5385323212782, 0.0, 0.0, 0.0, 0.0, -2740.7932568542074, 0.0]
['beep', 0.0, 754.1925614109709, 0.0, 0.0, 0.0, 0.0, -2743.0060795552827, 0.0]
['beep', 0.0, 754.7960585112642, 0.0, 0.0, 0.0, 0.0, -2742.0896580326153, 0.0]
['beep', 0.0, 754.0584509442391, 0.0, 0.0, 0.0, 0.0, -2742.0896580326153, 0.0]
['beep', 0.0, 752.7620497658313, 0.0, 0.0, 0.0, 0.0, -2741.4191056989557, 0.0]
['beep', 0.0, 752.091497432172, 0.0, 0.0, 0.0, 0.0, -2740.4356289429224, 0.0]
['beep', 0.0, 752.9408637214738, 0.0, 0.0, 0.0, 0.0, -2741.1508847654923, 0.0]
['beep', 0.0, 752.9855672103844, 0.0, 0.0, 0.0, 0.0, -2742.246120243802, 0.0]
['beep', 0.0, 753.6784712884988, 0.0, 0.0, 0.0, 0.0, -2741.597919654598, 0.0]
['beep', 0.0, 753.3878986105799, 0.0, 0.0, 0.0, 0.0, -2741.6202713990538, 0.0]
['beep', 0.0, 752.963215465929, 0.0, 0.0, 0.0, 0.0, -2740.5250359207434, 0.0]
['beep', 0.0, 752.9408637214738, 0.0, 0.0, 0.0, 0.0, -2741.0167742987605, 0.0]
['beep', 0.0, 754.3266718777028, 0.0, 0.0, 0.0, 0.0, -2740.5250359207434, 0.0]
['beep', 0.0, 754.1702096665156, 0.0, 0.0, 0.0, 0.0, -2741.7543818657855, 0.0]
['beep', 0.0, 752.7620497658313, 0.0, 0.0, 0.0, 0.0, -2741.2402917433133, 0.0]
['beep', 0.0, 751.8903317320743, 0.0, 0.0, 0.0, 0.0, -2740.1227045205483, 0.0]
['beep', 0.0, 752.1362009210826, 0.0, 0.0, 0.0, 0.0, -2740.346221965101, 0.0]
['beep', 0.0, 752.8738084881078, 0.0, 0.0, 0.0, 0.0, -2741.3967539545006, 0.0]
['beep', 0.0, 753.030270699295, 0.0, 0.0, 0.0, 0.0, -2743.16254176647, 0.0]
['beep', 0.0, 753.2984916327587, 0.0, 0.0, 0.0, 0.0, -2742.290823732713, 0.0]
['beep', 0.0, 752.9408637214738, 0.0, 0.0, 0.0, 0.0, -2740.97207080985, 0.0]
['beep', 0.0, 754.3266718777028, 0.0, 0.0, 0.0, 0.0, -2740.5250359207434, 0.0]
['beep', 0.0, 757.0759364457056, 0.0, 0.0, 0.0, 0.0, -2740.25681498728, 0.0]
['beep', 0.0, 757.8582475016412, 0.0, 0.0, 0.0, 0.0, -2740.5026841762883, 0.0]
['beep', 0.0, 757.0982881901608, 0.0, 0.0, 0.0, 0.0, -2739.6980213758975, 0.0]
['beep', 0.0, 755.8242387562083, 0.0, 0.0, 0.0, 0.0, -2738.513378919766, 0.0]
['beep', 0.0, 756.3159771342251, 0.0, 0.0, 0.0, 0.0, -2738.4910271753106, 0.0]
['beep', 0.0, 756.0254044563061, 0.0, 0.0, 0.0, 0.0, -2736.8593498300734, 0.0]
['beep', 0.0, 757.0088812123396, 0.0, 0.0, 0.0, 0.0, -2738.4016201974896, 0.0]
['beep', 0.0, 755.3772038671021, 0.0, 0.0, 0.0, 0.0, -2739.295689975702, 0.0]
['beep', 0.0, 753.3208433772139, 0.0, 0.0, 0.0, 0.0, -2739.027469042238, 0.0]
['beep', 0.0, 753.0526224437502, 0.0, 0.0, 0.0, 0.0, -2740.346221965101, 0.0]
['beep', 0.0, 754.5725410667111, 0.0, 0.0, 0.0, 0.0, -2740.480332431833, 0.0]
['beep', 0.0, 755.2654451448257, 0.0, 0.0, 0.0, 0.0, -2740.3685737095566, 0.0]
['beep', 0.0, 754.8631137446301, 0.0, 0.0, 0.0, 0.0, -2740.7262016208415, 0.0]
['beep', 0.0, 754.6619480445323, 0.0, 0.0, 0.0, 0.0, -2738.938062064417, 0.0]
['beep', 0.0, 754.7737067668089, 0.0, 0.0, 0.0, 0.0, -2740.3909254540117, 0.0]
['beep', 0.0, 755.6677765450212, 0.0, 0.0, 0.0, 0.0, -2741.642623143509, 0.0]
['beep', 0.0, 756.8077155122419, 0.0, 0.0, 0.0, 0.0, -2741.6649748879645, 0.0]
['beep', 0.0, 755.4666108449234, 0.0, 0.0, 0.0, 0.0, -2740.8156085986625, 0.0]
['beep', 0.0, 754.5054858333452, 0.0, 0.0, 0.0, 0.0, -2739.966242309361, 0.0]
['beep', 0.0, 755.0642794447278, 0.0, 0.0, 0.0, 0.0, -2739.8544835870844, 0.0]
['beep', 0.0, 756.8524190011525, 0.0, 0.0, 0.0, 0.0, -2740.3909254540117, 0.0]
['beep', 0.0, 757.4112126125351, 0.0, 0.0, 0.0, 0.0, -2740.994422554305, 0.0]
['beep', 0.0, 756.2265701564038, 0.0, 0.0, 0.0, 0.0, -2740.480332431833, 0.0]
['beep', 0.0, 753.9243404775073, 0.0, 0.0, 0.0, 0.0, -2740.033297542727, 0.0]
['beep', 0.0, 755.4889625893787, 0.0, 0.0, 0.0, 0.0, -2739.4074486979785, 0.0]
['beep', 0.0, 756.8300672566971, 0.0, 0.0, 0.0, 0.0, -2741.553216165688, 0.0]
['beep', 0.0, 757.5229713348117, 0.0, 0.0, 0.0, 0.0, -2742.1120097770704, 0.0]
['beep', 0.0, 756.4053841120464, 0.0, 0.0, 0.0, 0.0, -2742.313175477168, 0.0]
['beep', 0.0, 756.0701079452167, 0.0, 0.0, 0.0, 0.0, -2740.770905109752, 0.0]
['beep', 0.0, 756.67360504551, 0.0, 0.0, 0.0, 0.0, -2740.8826638320284, 0.0]
['beep', 0.0, 758.0370614572837, 0.0, 0.0, 0.0, 0.0, -2741.6873266324196, 0.0]
['beep', 0.0, 757.9923579683731, 0.0, 0.0, 0.0, 0.0, -2740.927367320939, 0.0]
['beep', 0.0, 756.4947910898676, 0.0, 0.0, 0.0, 0.0, -2741.1508847654923, 0.0]
['beep', 0.0, 754.9078172335408, 0.0, 0.0, 0.0, 0.0, -2741.195588254403, 0.0]
['beep', 0.0, 756.1595149230379, 0.0, 0.0, 0.0, 0.0, -2741.195588254403, 0.0]
['beep', 0.0, 756.9194742345184, 0.0, 0.0, 0.0, 0.0, -2740.97207080985, 0.0]
['beep', 0.0, 757.1206399346162, 0.0, 0.0, 0.0, 0.0, -2741.6873266324196, 0.0]
['beep', 0.0, 755.2654451448257, 0.0, 0.0, 0.0, 0.0, -2742.0673062881597, 0.0]
['beep', 0.0, 754.9078172335408, 0.0, 0.0, 0.0, 0.0, -2741.910844076973, 0.0]
['beep', 0.0, 756.1148114341273, 0.0, 0.0, 0.0, 0.0, -2741.7320301213304, 0.0]
['beep', 0.0, 756.5841980676888, 0.0, 0.0, 0.0, 0.0, -2742.7155068773636, 0.0]
['beep', 0.0, 756.7853637677865, 0.0, 0.0, 0.0, 0.0, -2742.313175477168, 0.0]
['beep', 0.0, 756.450087600957, 0.0, 0.0, 0.0, 0.0, -2740.3015184761907, 0.0]
['beep', 0.0, 754.9078172335408, 0.0, 0.0, 0.0, 0.0, -2740.1227045205483, 0.0]
['beep', 0.0, 755.2877968892809, 0.0, 0.0, 0.0, 0.0, -2740.770905109752, 0.0]
['beep', 0.0, 757.4559161014457, 0.0, 0.0, 0.0, 0.0, -2741.575567910143, 0.0]
['beep', 0.0, 757.6347300570882, 0.0, 0.0, 0.0, 0.0, -2742.849617344096, 0.0]
['beep', 0.0, 757.187695167982, 0.0, 0.0, 0.0, 0.0, -2743.0060795552827, 0.0]
['beep', 0.0, 756.0701079452167, 0.0, 0.0, 0.0, 0.0, -2741.3744022100454, 0.0]
['beep', 0.0, 756.092459689672, 0.0, 0.0, 0.0, 0.0, -2740.0780010316375, 0.0]
['beep', 0.0, 756.8300672566971, 0.0, 0.0, 0.0, 0.0, -2741.284995232224, 0.0]
['beep', 0.0, 757.9700062239178, 0.0, 0.0, 0.0, 0.0, -2742.246120243802, 0.0]
['beep', 0.0, 757.187695167982, 0.0, 0.0, 0.0, 0.0, -2742.894320833006, 0.0]
['beep', 0.0, 756.1148114341273, 0.0, 0.0, 0.0, 0.0, -2742.7602103662744, 0.0]
['beep', 0.0, 756.2712736453144, 0.0, 0.0, 0.0, 0.0, -2743.16254176647, 0.0]
['beep', 0.0, 755.9136457340295, 0.0, 0.0, 0.0, 0.0, -2743.475466188844, 0.0]
['beep', 0.0, 756.2265701564038, 0.0, 0.0, 0.0, 0.0, -2742.82726559964, 0.0]
['beep', 0.0, 756.2489219008592, 0.0, 0.0, 0.0, 0.0, -2742.4919894328104, 0.0]
['beep', 0.0, 755.1089829336385, 0.0, 0.0, 0.0, 0.0, -2743.095486533104, 0.0]
['beep', 0.0, 755.3325003781915, 0.0, 0.0, 0.0, 0.0, -2742.9837278108275, 0.0]
['beep', 0.0, 756.4724393454122, 0.0, 0.0, 0.0, 0.0, -2743.609576655576, 0.0]
['beep', 0.0, 756.3606806231357, 0.0, 0.0, 0.0, 0.0, -2743.453114444389, 0.0]
['beep', 0.0, 754.9078172335408, 0.0, 0.0, 0.0, 0.0, -2742.514341177266, 0.0]
['beep', 0.0, 755.4442591004681, 0.0, 0.0, 0.0, 0.0, -2742.6931551329085, 0.0]
['beep', 0.0, 755.6454248005658, 0.0, 0.0, 0.0, 0.0, -2742.7155068773636, 0.0]
['beep', 0.0, 756.4724393454122, 0.0, 0.0, 0.0, 0.0, -2742.7155068773636, 0.0]
['beep', 0.0, 756.1148114341273, 0.0, 0.0, 0.0, 0.0, -2743.1401900220144, 0.0]
['beep', 0.0, 756.1595149230379, 0.0, 0.0, 0.0, 0.0, -2741.910844076973, 0.0]
['beep', 0.0, 755.8689422451189, 0.0, 0.0, 0.0, 0.0, -2741.933195821428, 0.0]
['beep', 0.0, 755.734831778387, 0.0, 0.0, 0.0, 0.0, -2744.213073755869, 0.0]
['beep', 0.0, 756.6065498121441, 0.0, 0.0, 0.0, 0.0, -2743.54252142221, 0.0]
['beep', 0.0, 757.9476544794625, 0.0, 0.0, 0.0, 0.0, -2743.4307626999334, 0.0]
['beep', 0.0, 756.1148114341273, 0.0, 0.0, 0.0, 0.0, -2743.900149333495, 0.0]
['beep', 0.0, 754.5054858333452, 0.0, 0.0, 0.0, 0.0, -2743.5872249111208, 0.0]
['beep', 0.0, 755.6677765450212, 0.0, 0.0, 0.0, 0.0, -2744.168370266959, 0.0]
['beep', 0.0, 756.4724393454122, 0.0, 0.0, 0.0, 0.0, -2744.816570856163, 0.0]
['beep', 0.0, 756.8747707456077, 0.0, 0.0, 0.0, 0.0, -2744.101315033593, 0.0]
['beep', 0.0, 756.2042184119485, 0.0, 0.0, 0.0, 0.0, -2743.6542801444866, 0.0]
['beep', 0.0, 754.416078855524, 0.0, 0.0, 0.0, 0.0, -2742.290823732713, 0.0]
['beep', 0.0, 754.1031544331497, 0.0, 0.0, 0.0, 0.0, -2742.82726559964, 0.0]
['beep', 0.0, 755.511314333834, 0.0, 0.0, 0.0, 0.0, -2744.481294689333, 0.0]
['beep', 0.0, 754.8407620001748, 0.0, 0.0, 0.0, 0.0, -2744.6154051560648, 0.0]
['beep', 0.0, 755.1313346780938, 0.0, 0.0, 0.0, 0.0, -2744.414239455967, 0.0]
['beep', 0.0, 755.4219073560128, 0.0, 0.0, 0.0, 0.0, -2744.5930534116096, 0.0]
['beep', 0.0, 754.0808026886943, 0.0, 0.0, 0.0, 0.0, -2743.520169677755, 0.0]
['beep', 0.0, 754.125506177605, 0.0, 0.0, 0.0, 0.0, -2742.2684719882577, 0.0]
['beep', 0.0, 755.2430934003703, 0.0, 0.0, 0.0, 0.0, -2743.9895563113164, 0.0]
['beep', 0.0, 754.9525207224514, 0.0, 0.0, 0.0, 0.0, -2744.548349922699, 0.0]
['beep', 0.0, 753.9913957108731, 0.0, 0.0, 0.0, 0.0, -2744.3471842226013, 0.0]
['beep', 0.0, 754.1702096665156, 0.0, 0.0, 0.0, 0.0, -2745.1741987674477, 0.0]
['beep', 0.0, 756.0254044563061, 0.0, 0.0, 0.0, 0.0, -2745.3977162120004, 0.0]
['beep', 0.0, 755.7124800339318, 0.0, 0.0, 0.0, 0.0, -2745.9565098233834, 0.0]
['beep', 0.0, 754.997224211362, 0.0, 0.0, 0.0, 0.0, -2745.9565098233834, 0.0]
['beep', 0.0, 754.997224211362, 0.0, 0.0, 0.0, 0.0, -2745.1741987674477, 0.0]
['beep', 0.0, 754.5725410667111, 0.0, 0.0, 0.0, 0.0, -2743.967204566861, 0.0]
['beep', 0.0, 755.511314333834, 0.0, 0.0, 0.0, 0.0, -2744.0119080557715, 0.0]
['beep', 0.0, 755.220741655915, 0.0, 0.0, 0.0, 0.0, -2744.3918877115116, 0.0]
['beep', 0.0, 755.0866311891832, 0.0, 0.0, 0.0, 0.0, -2744.25777724478, 0.0]
['beep', 0.0, 754.1031544331497, 0.0, 0.0, 0.0, 0.0, -2744.3918877115116, 0.0]
['beep', 0.0, 753.0973259326609, 0.0, 0.0, 0.0, 0.0, -2744.704812133886, 0.0]
['beep', 0.0, 754.6619480445323, 0.0, 0.0, 0.0, 0.0, -2743.3413557221124, 0.0]
['beep', 0.0, 755.6677765450212, 0.0, 0.0, 0.0, 0.0, -2742.3355272216236, 0.0]
['beep', 0.0, 754.1031544331497, 0.0, 0.0, 0.0, 0.0, -2743.319003977657, 0.0]
['beep', 0.0, 753.1643811660268, 0.0, 0.0, 0.0, 0.0, -2744.2801289892354, 0.0]
['beep', 0.0, 754.3266718777028, 0.0, 0.0, 0.0, 0.0, -2744.0342598002267, 0.0]
['beep', 0.0, 755.4666108449234, 0.0, 0.0, 0.0, 0.0, -2744.4365912004223, 0.0]
['beep', 0.0, 756.0254044563061, 0.0, 0.0, 0.0, 0.0, -2744.123666778048, 0.0]
['beep', 0.0, 755.734831778387, 0.0, 0.0, 0.0, 0.0, -2744.458942944878, 0.0]
['beep', 0.0, 754.6842997889877, 0.0, 0.0, 0.0, 0.0, -2743.6766318889418, 0.0]
['beep', 0.0, 756.2936253897698, 0.0, 0.0, 0.0, 0.0, -2744.3248324781457, 0.0]
['beep', 0.0, 756.8971224900631, 0.0, 0.0, 0.0, 0.0, -2744.6601086449755, 0.0]
['beep', 0.0, 757.2994538902586, 0.0, 0.0, 0.0, 0.0, -2743.9225010779505, 0.0]
['beep', 0.0, 756.67360504551, 0.0, 0.0, 0.0, 0.0, -2744.0566115446823, 0.0]
['beep', 0.0, 755.3548521226469, 0.0, 0.0, 0.0, 0.0, -2744.5930534116096, 0.0]
['beep', 0.0, 754.5501893222558, 0.0, 0.0, 0.0, 0.0, -2744.6824603894306, 0.0]
['beep', 0.0, 755.3995556115575, 0.0, 0.0, 0.0, 0.0, -2746.180027267936, 0.0]
['beep', 0.0, 756.3159771342251, 0.0, 0.0, 0.0, 0.0, -2745.5988819120985, 0.0]
['beep', 0.0, 755.6901282894764, 0.0, 0.0, 0.0, 0.0, -2745.2412540008136, 0.0]
['beep', 0.0, 754.7290032778983, 0.0, 0.0, 0.0, 0.0, -2744.771867367252, 0.0]
['beep', 0.0, 754.5501893222558, 0.0, 0.0, 0.0, 0.0, -2743.87779758904, 0.0]
['beep', 0.0, 755.734831778387, 0.0, 0.0, 0.0, 0.0, -2745.0847917896263, 0.0]
['beep', 0.0, 755.9359974784849, 0.0, 0.0, 0.0, 0.0, -2744.838922600618, 0.0]
['beep', 0.0, 755.220741655915, 0.0, 0.0, 0.0, 0.0, -2745.0400883007155, 0.0]
['beep', 0.0, 754.0360991997837, 0.0, 0.0, 0.0, 0.0, -2745.934158078928, 0.0]
['beep', 0.0, 754.2819683887922, 0.0, 0.0, 0.0, 0.0, -2746.3364894791234, 0.0]
['beep', 0.0, 755.1760381670044, 0.0, 0.0, 0.0, 0.0, -2745.151847022992, 0.0]
['beep', 0.0, 756.2265701564038, 0.0, 0.0, 0.0, 0.0, -2745.285957489724, 0.0]
['beep', 0.0, 755.6677765450212, 0.0, 0.0, 0.0, 0.0, -2744.838922600618, 0.0]
['beep', 0.0, 753.6561195440436, 0.0, 0.0, 0.0, 0.0, -2744.481294689333, 0.0]
['beep', 0.0, 754.7960585112642, 0.0, 0.0, 0.0, 0.0, -2745.0400883007155, 0.0]
['beep', 0.0, 756.6065498121441, 0.0, 0.0, 0.0, 0.0, -2745.196550511903, 0.0]
['beep', 0.0, 756.2265701564038, 0.0, 0.0, 0.0, 0.0, -2744.6154051560648, 0.0]
['beep', 0.0, 754.8407620001748, 0.0, 0.0, 0.0, 0.0, -2745.6659371454643, 0.0]
['beep', 0.0, 754.7737067668089, 0.0, 0.0, 0.0, 0.0, -2744.928329578439, 0.0]
['beep', 0.0, 756.1371631785826, 0.0, 0.0, 0.0, 0.0, -2743.9225010779505, 0.0]
['beep', 0.0, 757.254750401348, 0.0, 0.0, 0.0, 0.0, -2743.900149333495, 0.0]
['beep', 0.0, 757.4112126125351, 0.0, 0.0, 0.0, 0.0, -2743.54252142221, 0.0]
['beep', 0.0, 755.8689422451189, 0.0, 0.0, 0.0, 0.0, -2744.7271638783413, 0.0]
['beep', 0.0, 755.3325003781915, 0.0, 0.0, 0.0, 0.0, -2743.9895563113164, 0.0]
['beep', 0.0, 756.5171428343228, 0.0, 0.0, 0.0, 0.0, -2742.9837278108275, 0.0]
['beep', 0.0, 757.6794335459988, 0.0, 0.0, 0.0, 0.0, -2745.151847022992, 0.0]
['beep', 0.0, 757.2323986568927, 0.0, 0.0, 0.0, 0.0, -2744.9953848118053, 0.0]
['beep', 0.0, 755.8912939895743, 0.0, 0.0, 0.0, 0.0, -2744.2801289892354, 0.0]
['beep', 0.0, 755.0642794447278, 0.0, 0.0, 0.0, 0.0, -2744.0119080557715, 0.0]
['beep', 0.0, 755.3325003781915, 0.0, 0.0, 0.0, 0.0, -2743.2743004887466, 0.0]
['beep', 0.0, 756.67360504551, 0.0, 0.0, 0.0, 0.0, -2744.704812133886, 0.0]
['beep', 0.0, 757.0088812123396, 0.0, 0.0, 0.0, 0.0, -2744.6601086449755, 0.0]
['beep', 0.0, 755.9136457340295, 0.0, 0.0, 0.0, 0.0, -2744.458942944878, 0.0]
['beep', 0.0, 754.8854654890854, 0.0, 0.0, 0.0, 0.0, -2745.151847022992, 0.0]
['beep', 0.0, 754.8854654890854, 0.0, 0.0, 0.0, 0.0, -2745.6212336565536, 0.0]
['beep', 0.0, 755.0642794447278, 0.0, 0.0, 0.0, 0.0, -2744.548349922699, 0.0]
['beep', 0.0, 756.1595149230379, 0.0, 0.0, 0.0, 0.0, -2745.3306609786346, 0.0]
['beep', 0.0, 756.3606806231357, 0.0, 0.0, 0.0, 0.0, -2745.442419700911, 0.0]
['beep', 0.0, 754.2596166443368, 0.0, 0.0, 0.0, 0.0, -2745.1071435340814, 0.0]
['beep', 0.0, 754.9078172335408, 0.0, 0.0, 0.0, 0.0, -2745.0400883007155, 0.0]
['beep', 0.0, 756.3383288786804, 0.0, 0.0, 0.0, 0.0, -2745.487123189822, 0.0]
['beep', 0.0, 756.4277358565016, 0.0, 0.0, 0.0, 0.0, -2746.425896456945, 0.0]
['beep', 0.0, 756.2489219008592, 0.0, 0.0, 0.0, 0.0, -2745.509474934277, 0.0]
['beep', 0.0, 755.6677765450212, 0.0, 0.0, 0.0, 0.0, -2745.442419700911, 0.0]
['beep', 0.0, 756.1818666674932, 0.0, 0.0, 0.0, 0.0, -2746.3141377346683, 0.0]
['beep', 0.0, 757.2994538902586, 0.0, 0.0, 0.0, 0.0, -2745.934158078928, 0.0]
['beep', 0.0, 757.4335643569905, 0.0, 0.0, 0.0, 0.0, -2745.487123189822, 0.0]
['beep', 0.0, 756.8524190011525, 0.0, 0.0, 0.0, 0.0, -2744.861274345073, 0.0]
['beep', 0.0, 755.3995556115575, 0.0, 0.0, 0.0, 0.0, -2745.6659371454643, 0.0]
['beep', 0.0, 756.0477562007613, 0.0, 0.0, 0.0, 0.0, -2745.934158078928, 0.0]
['beep', 0.0, 757.0759364457056, 0.0, 0.0, 0.0, 0.0, -2746.0235650567492, 0.0]
['beep', 0.0, 757.4559161014457, 0.0, 0.0, 0.0, 0.0, -2746.157675523481, 0.0]
['beep', 0.0, 756.4277358565016, 0.0, 0.0, 0.0, 0.0, -2745.9565098233834, 0.0]
['beep', 0.0, 755.5560178227446, 0.0, 0.0, 0.0, 0.0, -2745.0177365562604, 0.0]
['beep', 0.0, 756.3383288786804, 0.0, 0.0, 0.0, 0.0, -2744.7495156227965, 0.0]
['beep', 0.0, 757.8135440127306, 0.0, 0.0, 0.0, 0.0, -2745.3977162120004, 0.0]
['beep', 0.0, 759.0205382133172, 0.0, 0.0, 0.0, 0.0, -2745.509474934277, 0.0]
['beep', 0.0, 757.1206399346162, 0.0, 0.0, 0.0, 0.0, -2744.2354255003247, 0.0]
['beep', 0.0, 756.1818666674932, 0.0, 0.0, 0.0, 0.0, -2744.25777724478, 0.0]
['beep', 0.0, 757.254750401348, 0.0, 0.0, 0.0, 0.0, -2743.766038866763, 0.0]
['beep', 0.0, 757.545323079267, 0.0, 0.0, 0.0, 0.0, -2744.3248324781457, 0.0]
['beep', 0.0, 758.3052823907474, 0.0, 0.0, 0.0, 0.0, -2744.9953848118053, 0.0]
['beep', 0.0, 757.4559161014457, 0.0, 0.0, 0.0, 0.0, -2742.603748155087, 0.0]
['beep', 0.0, 756.5841980676888, 0.0, 0.0, 0.0, 0.0, -2742.9166725774617, 0.0]
['beep', 0.0, 757.7017852904542, 0.0, 0.0, 0.0, 0.0, -2743.833094100129, 0.0]
['beep', 0.0, 758.8193725132195, 0.0, 0.0, 0.0, 0.0, -2743.7213353778525, 0.0]
['beep', 0.0, 759.5346283357893, 0.0, 0.0, 0.0, 0.0, -2743.16254176647, 0.0]
['beep', 0.0, 758.6182068131217, 0.0, 0.0, 0.0, 0.0, -2743.2966522332017, 0.0]
['beep', 0.0, 757.3665091236245, 0.0, 0.0, 0.0, 0.0, -2742.201416754892, 0.0]
['beep', 0.0, 757.4559161014457, 0.0, 0.0, 0.0, 0.0, -2742.4696376883553, 0.0]
['beep', 0.0, 758.9758347244066, 0.0, 0.0, 0.0, 0.0, -2744.458942944878, 0.0]
['beep', 0.0, 758.8193725132195, 0.0, 0.0, 0.0, 0.0, -2743.5872249111208, 0.0]
['beep', 0.0, 756.964177723429, 0.0, 0.0, 0.0, 0.0, -2743.453114444389, 0.0]
['beep', 0.0, 755.5560178227446, 0.0, 0.0, 0.0, 0.0, -2742.961376066372, 0.0]
['beep', 0.0, 755.734831778387, 0.0, 0.0, 0.0, 0.0, -2741.575567910143, 0.0]
['beep', 0.0, 757.254750401348, 0.0, 0.0, 0.0, 0.0, -2743.3637074665676, 0.0]
['beep', 0.0, 757.0759364457056, 0.0, 0.0, 0.0, 0.0, -2743.2966522332017, 0.0]
['beep', 0.0, 756.7853637677865, 0.0, 0.0, 0.0, 0.0, -2742.939024321917, 0.0]
['beep', 0.0, 755.0419277002726, 0.0, 0.0, 0.0, 0.0, -2742.894320833006, 0.0]
['beep', 0.0, 755.9136457340295, 0.0, 0.0, 0.0, 0.0, -2744.101315033593, 0.0]
['beep', 0.0, 757.2323986568927, 0.0, 0.0, 0.0, 0.0, -2745.6435854010087, 0.0]
['beep', 0.0, 757.1429916790714, 0.0, 0.0, 0.0, 0.0, -2744.9953848118053, 0.0]
['beep', 0.0, 756.7853637677865, 0.0, 0.0, 0.0, 0.0, -2744.6377569005203, 0.0]
['beep', 0.0, 756.4053841120464, 0.0, 0.0, 0.0, 0.0, -2743.900149333495, 0.0]
['beep', 0.0, 757.187695167982, 0.0, 0.0, 0.0, 0.0, -2744.6154051560648, 0.0]
['beep', 0.0, 757.6123783126329, 0.0, 0.0, 0.0, 0.0, -2744.4365912004223, 0.0]
['beep', 0.0, 757.254750401348, 0.0, 0.0, 0.0, 0.0, -2744.0119080557715, 0.0]
['beep', 0.0, 756.6959567899653, 0.0, 0.0, 0.0, 0.0, -2744.414239455967, 0.0]
['beep', 0.0, 755.8465905006636, 0.0, 0.0, 0.0, 0.0, -2743.9225010779505, 0.0]
['beep', 0.0, 756.1148114341273, 0.0, 0.0, 0.0, 0.0, -2744.3248324781457, 0.0]
['beep', 0.0, 758.4617446019346, 0.0, 0.0, 0.0, 0.0, -2744.5930534116096, 0.0]
['beep', 0.0, 758.0594132017391, 0.0, 0.0, 0.0, 0.0, -2745.129495278537, 0.0]
['beep', 0.0, 756.8971224900631, 0.0, 0.0, 0.0, 0.0, -2746.135323779026, 0.0]
['beep', 0.0, 756.0030527118507, 0.0, 0.0, 0.0, 0.0, -2743.9225010779505, 0.0]
['beep', 0.0, 757.187695167982, 0.0, 0.0, 0.0, 0.0, -2743.609576655576, 0.0]
['beep', 0.0, 758.0817649461943, 0.0, 0.0, 0.0, 0.0, -2743.4978179332993, 0.0]
['beep', 0.0, 758.6182068131217, 0.0, 0.0, 0.0, 0.0, -2743.833094100129, 0.0]
['beep', 0.0, 758.3723376241134, 0.0, 0.0, 0.0, 0.0, -2744.2801289892354, 0.0]
['beep', 0.0, 755.801887011753, 0.0, 0.0, 0.0, 0.0, -2744.168370266959, 0.0]
['beep', 0.0, 755.7795352672977, 0.0, 0.0, 0.0, 0.0, -2743.9225010779505, 0.0]
['beep', 0.0, 757.9253027350072, 0.0, 0.0, 0.0, 0.0, -2744.2801289892354, 0.0]
['beep', 0.0, 759.8699045026189, 0.0, 0.0, 0.0, 0.0, -2745.6212336565536, 0.0]
['beep', 0.0, 759.7581457803424, 0.0, 0.0, 0.0, 0.0, -2745.1071435340814, 0.0]
['beep', 0.0, 758.7970207687641, 0.0, 0.0, 0.0, 0.0, -2743.16254176647, 0.0]
['beep', 0.0, 760.4957533473676, 0.0, 0.0, 0.0, 0.0, -2743.229596999836, 0.0]
['beep', 0.0, 762.1497824370603, 0.0, 0.0, 0.0, 0.0, -2743.251948744291, 0.0]
['beep', 0.0, 761.7921545257753, 0.0, 0.0, 0.0, 0.0, -2743.4307626999334, 0.0]
['beep', 0.0, 759.3781661246021, 0.0, 0.0, 0.0, 0.0, -2741.866140588062, 0.0]
['beep', 0.0, 756.9865294678843, 0.0, 0.0, 0.0, 0.0, -2742.156713265981, 0.0]
['beep', 0.0, 756.8077155122419, 0.0, 0.0, 0.0, 0.0, -2741.5308644212323, 0.0]
['beep', 0.0, 756.6289015565994, 0.0, 0.0, 0.0, 0.0, -2743.9448528224057, 0.0]
['beep', 0.0, 756.5171428343228, 0.0, 0.0, 0.0, 0.0, -2743.9895563113164, 0.0]
['beep', 0.0, 756.0477562007613, 0.0, 0.0, 0.0, 0.0, -2743.87779758904, 0.0]
['beep', 0.0, 754.5948928111665, 0.0, 0.0, 0.0, 0.0, -2743.833094100129, 0.0]
['beep', 0.0, 755.5783695672, 0.0, 0.0, 0.0, 0.0, -2744.9506813228945, 0.0]
['beep', 0.0, 757.187695167982, 0.0, 0.0, 0.0, 0.0, -2746.090620290115, 0.0]
['beep', 0.0, 757.7464887793648, 0.0, 0.0, 0.0, 0.0, -2746.2917859902127, 0.0]
['beep', 0.0, 757.5900265681776, 0.0, 0.0, 0.0, 0.0, -2746.0012133122937, 0.0]
['beep', 0.0, 755.6230730561106, 0.0, 0.0, 0.0, 0.0, -2744.6154051560648, 0.0]
['beep', 0.0, 756.1371631785826, 0.0, 0.0, 0.0, 0.0, -2743.9895563113164, 0.0]
['beep', 0.0, 757.5900265681776, 0.0, 0.0, 0.0, 0.0, -2744.481294689333, 0.0]
['beep', 0.0, 756.5618463232335, 0.0, 0.0, 0.0, 0.0, -2744.905977833984, 0.0]
['beep', 0.0, 757.4559161014457, 0.0, 0.0, 0.0, 0.0, -2744.861274345073, 0.0]
['beep', 0.0, 757.0759364457056, 0.0, 0.0, 0.0, 0.0, -2744.6377569005203, 0.0]
['beep', 0.0, 755.4219073560128, 0.0, 0.0, 0.0, 0.0, -2745.777695867741, 0.0]
['beep', 0.0, 755.6230730561106, 0.0, 0.0, 0.0, 0.0, -2746.2023790123917, 0.0]
['beep', 0.0, 757.0759364457056, 0.0, 0.0, 0.0, 0.0, -2745.0400883007155, 0.0]
['beep', 0.0, 756.450087600957, 0.0, 0.0, 0.0, 0.0, -2745.3306609786346, 0.0]
['beep', 0.0, 754.8854654890854, 0.0, 0.0, 0.0, 0.0, -2744.9953848118053, 0.0]
['beep', 0.0, 755.7795352672977, 0.0, 0.0, 0.0, 0.0, -2744.3248324781457, 0.0]
['beep', 0.0, 757.2323986568927, 0.0, 0.0, 0.0, 0.0, -2746.135323779026, 0.0]
['beep', 0.0, 757.6347300570882, 0.0, 0.0, 0.0, 0.0, -2746.224730756847, 0.0]
['beep', 0.0, 758.0147097128284, 0.0, 0.0, 0.0, 0.0, -2745.3977162120004, 0.0]
['beep', 0.0, 756.4053841120464, 0.0, 0.0, 0.0, 0.0, -2746.381192968034, 0.0]
['beep', 0.0, 756.450087600957, 0.0, 0.0, 0.0, 0.0, -2745.5541784231878, 0.0]
['beep', 0.0, 758.1264684351049, 0.0, 0.0, 0.0, 0.0, -2746.0012133122937, 0.0]
['beep', 0.0, 758.4617446019346, 0.0, 0.0, 0.0, 0.0, -2745.934158078928, 0.0]
['beep', 0.0, 757.254750401348, 0.0, 0.0, 0.0, 0.0, -2744.8836260895287, 0.0]
['beep', 0.0, 757.0759364457056, 0.0, 0.0, 0.0, 0.0, -2745.196550511903, 0.0]
['beep', 0.0, 756.6512533010547, 0.0, 0.0, 0.0, 0.0, -2744.794219111707, 0.0]
['beep', 0.0, 757.1206399346162, 0.0, 0.0, 0.0, 0.0, -2745.487123189822, 0.0]
['beep', 0.0, 758.1711719240155, 0.0, 0.0, 0.0, 0.0, -2746.180027267936, 0.0]
['beep', 0.0, 756.3383288786804, 0.0, 0.0, 0.0, 0.0, -2745.6659371454643, 0.0]
['beep', 0.0, 756.3159771342251, 0.0, 0.0, 0.0, 0.0, -2745.844751101107, 0.0]
['beep', 0.0, 756.8524190011525, 0.0, 0.0, 0.0, 0.0, -2747.118800535059, 0.0]
['beep', 0.0, 756.2265701564038, 0.0, 0.0, 0.0, 0.0, -2747.409373212978, 0.0]
['beep', 0.0, 757.6794335459988, 0.0, 0.0, 0.0, 0.0, -2747.3423179796123, 0.0]
['beep', 0.0, 756.67360504551, 0.0, 0.0, 0.0, 0.0, -2747.409373212978, 0.0]
['beep', 0.0, 754.6619480445323, 0.0, 0.0, 0.0, 0.0, -2746.6047104125873, 0.0]
['beep', 0.0, 754.9078172335408, 0.0, 0.0, 0.0, 0.0, -2746.671765645953, 0.0]
['beep', 0.0, 756.1818666674932, 0.0, 0.0, 0.0, 0.0, -2748.2810912467353, 0.0]
['beep', 0.0, 756.7406602788759, 0.0, 0.0, 0.0, 0.0, -2749.085754047126, 0.0]
['beep', 0.0, 754.9078172335408, 0.0, 0.0, 0.0, 0.0, -2747.2082075128806, 0.0]
['beep', 0.0, 754.4607823444346, 0.0, 0.0, 0.0, 0.0, -2746.157675523481, 0.0]
['beep', 0.0, 755.2430934003703, 0.0, 0.0, 0.0, 0.0, -2746.515303434766, 0.0]
['beep', 0.0, 756.9865294678843, 0.0, 0.0, 0.0, 0.0, -2747.5211319352547, 0.0]
['beep', 0.0, 757.9700062239178, 0.0, 0.0, 0.0, 0.0, -2746.716469134864, 0.0]
['beep', 0.0, 756.9418259789737, 0.0, 0.0, 0.0, 0.0, -2745.5541784231878, 0.0]
['beep', 0.0, 755.6677765450212, 0.0, 0.0, 0.0, 0.0, -2745.73299237883, 0.0]
['beep', 0.0, 755.5560178227446, 0.0, 0.0, 0.0, 0.0, -2745.3753644675453, 0.0]
['beep', 0.0, 756.9865294678843, 0.0, 0.0, 0.0, 0.0, -2743.766038866763, 0.0]
['beep', 0.0, 757.6570818015435, 0.0, 0.0, 0.0, 0.0, -2745.3753644675453, 0.0]
['beep', 0.0, 754.8854654890854, 0.0, 0.0, 0.0, 0.0, -2745.2636057452687, 0.0]
['beep', 0.0, 752.5161805768229, 0.0, 0.0, 0.0, 0.0, -2744.5259981782438, 0.0]
['beep', 0.0, 762.4850586038898, 0.0, 0.0, 0.0, 0.0, -2743.609576655576, 0.0]
['beep', 0.0, 765.2790266608032, 0.0, 0.0, 0.0, 0.0, -2742.0896580326153, 0.0]
['beep', 0.0, 762.7085760484429, 0.0, 0.0, 0.0, 0.0, -2741.8214370991514, 0.0]
['beep', 0.0, 761.993320225873, 0.0, 0.0, 0.0, 0.0, -2741.7320301213304, 0.0]
['beep', 0.0, 760.3169393917251, 0.0, 0.0, 0.0, 0.0, -2741.7543818657855, 0.0]
['beep', 0.0, 760.0487184582613, 0.0, 0.0, 0.0, 0.0, -2742.201416754892, 0.0]
['beep', 0.0, 761.2110091699374, 0.0, 0.0, 0.0, 0.0, -2742.536692921721, 0.0]
['beep', 0.0, 761.3674713811245, 0.0, 0.0, 0.0, 0.0, -2742.0449545437045, 0.0]
['beep', 0.0, 760.9204364920183, 0.0, 0.0, 0.0, 0.0, -2742.804913855185, 0.0]
['beep', 0.0, 758.998186468862, 0.0, 0.0, 0.0, 0.0, -2741.5308644212323, 0.0]
['beep', 0.0, 758.640558557577, 0.0, 0.0, 0.0, 0.0, -2742.0449545437045, 0.0]
['beep', 0.0, 759.7134422914318, 0.0, 0.0, 0.0, 0.0, -2742.82726559964, 0.0]
['beep', 0.0, 760.2498841583591, 0.0, 0.0, 0.0, 0.0, -2742.246120243802, 0.0]
['beep', 0.0, 759.3781661246021, 0.0, 0.0, 0.0, 0.0, -2742.7825621107295, 0.0]
['beep', 0.0, 757.0535847012502, 0.0, 0.0, 0.0, 0.0, -2742.000251054794, 0.0]
['beep', 0.0, 757.6570818015435, 0.0, 0.0, 0.0, 0.0, -2742.603748155087, 0.0]
['beep', 0.0, 759.6687388025211, 0.0, 0.0, 0.0, 0.0, -2742.9837278108275, 0.0]
['beep', 0.0, 759.6910905469764, 0.0, 0.0, 0.0, 0.0, -2742.9166725774617, 0.0]
['beep', 0.0, 758.931131235496, 0.0, 0.0, 0.0, 0.0, -2742.0226027992494, 0.0]
['beep', 0.0, 758.3276341352027, 0.0, 0.0, 0.0, 0.0, -2741.597919654598, 0.0]
['beep', 0.0, 759.4899248468787, 0.0, 0.0, 0.0, 0.0, -2742.6260998995426, 0.0]
['beep', 0.0, 760.0934219471719, 0.0, 0.0, 0.0, 0.0, -2742.6931551329085, 0.0]
['beep', 0.0, 761.2780644033032, 0.0, 0.0, 0.0, 0.0, -2741.799085354696, 0.0]
['beep', 0.0, 761.0992504476608, 0.0, 0.0, 0.0, 0.0, -2742.201416754892, 0.0]
['beep', 0.0, 758.4617446019346, 0.0, 0.0, 0.0, 0.0, -2741.866140588062, 0.0]
['beep', 0.0, 759.3334626356915, 0.0, 0.0, 0.0, 0.0, -2741.6873266324196, 0.0]
['beep', 0.0, 760.3616428806357, 0.0, 0.0, 0.0, 0.0, -2742.6484516439978, 0.0]
['beep', 0.0, 760.1604771805379, 0.0, 0.0, 0.0, 0.0, -2742.603748155087, 0.0]
['beep', 0.0, 759.8922562470742, 0.0, 0.0, 0.0, 0.0, -2742.581396410632, 0.0]
['beep', 0.0, 758.7746690243089, 0.0, 0.0, 0.0, 0.0, -2742.000251054794, 0.0]
['beep', 0.0, 758.2605789018368, 0.0, 0.0, 0.0, 0.0, -2741.7543818657855, 0.0]
['beep', 0.0, 759.6016835691552, 0.0, 0.0, 0.0, 0.0, -2742.961376066372, 0.0]
['beep', 0.0, 760.0710702027167, 0.0, 0.0, 0.0, 0.0, -2742.9166725774617, 0.0]
['beep', 0.0, 758.2829306462921, 0.0, 0.0, 0.0, 0.0, -2741.910844076973, 0.0]
['beep', 0.0, 756.8971224900631, 0.0, 0.0, 0.0, 0.0, -2742.290823732713, 0.0]
['beep', 0.0, 757.3888608680799, 0.0, 0.0, 0.0, 0.0, -2742.939024321917, 0.0]
['beep', 0.0, 759.221703913415, 0.0, 0.0, 0.0, 0.0, -2743.1178382775593, 0.0]
['beep', 0.0, 760.0934219471719, 0.0, 0.0, 0.0, 0.0, -2743.6319284000315, 0.0]
['beep', 0.0, 758.2605789018368, 0.0, 0.0, 0.0, 0.0, -2743.2072452553807, 0.0]
['beep', 0.0, 756.7406602788759, 0.0, 0.0, 0.0, 0.0, -2742.2684719882577, 0.0]
['beep', 0.0, 757.5006195903563, 0.0, 0.0, 0.0, 0.0, -2744.25777724478, 0.0]
['beep', 0.0, 758.8640760021301, 0.0, 0.0, 0.0, 0.0, -2743.609576655576, 0.0]
['beep', 0.0, 759.4675731024233, 0.0, 0.0, 0.0, 0.0, -2743.0284312997383, 0.0]
['beep', 0.0, 759.3558143801469, 0.0, 0.0, 0.0, 0.0, -2742.737858621819, 0.0]
['beep', 0.0, 758.2829306462921, 0.0, 0.0, 0.0, 0.0, -2742.737858621819, 0.0]
['beep', 0.0, 756.8971224900631, 0.0, 0.0, 0.0, 0.0, -2743.0507830441934, 0.0]
['beep', 0.0, 757.2100469124374, 0.0, 0.0, 0.0, 0.0, -2742.6484516439978, 0.0]
