['beep', 0.0, 180.44563298769393, 0.0, 0.0, 0.0, 0.0, -3809.340752284617, 0.0]
['beep', 0.0, 181.58557195491457, 0.0, 0.0, 0.0, 0.0, -3808.4466825064046, 0.0]
['beep', 0.0, 181.07148183244252, 0.0, 0.0, 0.0, 0.0, -3806.2562115497844, 0.0]
['beep', 0.0, 178.7916038980012, 0.0, 0.0, 0.0, 0.0, -3806.6138394610693, 0.0]
['beep', 0.0, 179.1045283203755, 0.0, 0.0, 0.0, 0.0, -3807.9102406394773, 0.0]
['beep', 0.0, 181.07148183244252, 0.0, 0.0, 0.0, 0.0, -3808.647848206502, 0.0]
['beep', 0.0, 180.6467986877917, 0.0, 0.0, 0.0, 0.0, -3809.653676706991, 0.0]
['beep', 0.0, 179.30569402047325, 0.0, 0.0, 0.0, 0.0, -3808.8937173955105, 0.0]
['beep', 0.0, 178.72454866463528, 0.0, 0.0, 0.0, 0.0, -3808.7372551843237, 0.0]
['beep', 0.0, 178.88101087582243, 0.0, 0.0, 0.0, 0.0, -3810.7936156742117, 0.0]
['beep', 0.0, 179.1045283203755, 0.0, 0.0, 0.0, 0.0, -3809.698380195902, 0.0]
['beep', 0.0, 179.1715835537414, 0.0, 0.0, 0.0, 0.0, -3808.7372551843237, 0.0]
['beep', 0.0, 179.4621562316604, 0.0, 0.0, 0.0, 0.0, -3808.491385995315, 0.0]
['beep', 0.0, 179.39510099829448, 0.0, 0.0, 0.0, 0.0, -3808.5807929731363, 0.0]
['beep', 0.0, 179.35039750938387, 0.0, 0.0, 0.0, 0.0, -3808.759606928779, 0.0]
['beep', 0.0, 180.3562260098727, 0.0, 0.0, 0.0, 0.0, -3809.296048795706, 0.0]
['beep', 0.0, 180.13270856531963, 0.0, 0.0, 0.0, 0.0, -3809.698380195902, 0.0]
['beep', 0.0, 180.84796438788945, 0.0, 0.0, 0.0, 0.0, -3811.03948486322, 0.0]
['beep', 0.0, 180.60209519888107, 0.0, 0.0, 0.0, 0.0, -3810.8383191631224, 0.0]
['beep', 0.0, 180.24446728759617, 0.0, 0.0, 0.0, 0.0, -3810.7712639297565, 0.0]
['beep', 0.0, 181.63027544382518, 0.0, 0.0, 0.0, 0.0, -3811.03948486322, 0.0]
['beep', 0.0, 181.74203416610172, 0.0, 0.0, 0.0, 0.0, -3810.7936156742117, 0.0]
['beep', 0.0, 181.89849637728886, 0.0, 0.0, 0.0, 0.0, -3810.234822062829, 0.0]
['beep', 0.0, 181.13853706580844, 0.0, 0.0, 0.0, 0.0, -3810.9947813743097, 0.0]
['beep', 0.0, 180.91501962125537, 0.0, 0.0, 0.0, 0.0, -3811.017133118765, 0.0]
['beep', 0.0, 182.45728998867156, 0.0, 0.0, 0.0, 0.0, -3811.0618366076756, 0.0]
['beep', 0.0, 182.6137521998587, 0.0, 0.0, 0.0, 0.0, -3810.033656362731, 0.0]
['beep', 0.0, 182.30082777748441, 0.0, 0.0, 0.0, 0.0, -3809.1172348400637, 0.0]
['beep', 0.0, 181.56322021045926, 0.0, 0.0, 0.0, 0.0, -3808.647848206502, 0.0]
['beep', 0.0, 182.52434522203748, 0.0, 0.0, 0.0, 0.0, -3809.921897640455, 0.0]
['beep', 0.0, 182.8819731333224, 0.0, 0.0, 0.0, 0.0, -3810.9277261409434, 0.0]
['beep', 0.0, 182.0326068440207, 0.0, 0.0, 0.0, 0.0, -3809.1842900734296, 0.0]
['beep', 0.0, 181.58557195491457, 0.0, 0.0, 0.0, 0.0, -3807.9996476172983, 0.0]
['beep', 0.0, 181.20559229917436, 0.0, 0.0, 0.0, 0.0, -3808.491385995315, 0.0]
['beep', 0.0, 181.83144114392294, 0.0, 0.0, 0.0, 0.0, -3810.0560081071867, 0.0]
['beep', 0.0, 183.2396010446073, 0.0, 0.0, 0.0, 0.0, -3810.1677668294633, 0.0]
['beep', 0.0, 183.217249300152, 0.0, 0.0, 0.0, 0.0, -3810.9947813743097, 0.0]
['beep', 0.0, 183.66428418925813, 0.0, 0.0, 0.0, 0.0, -3809.3184005401613, 0.0]
['beep', 0.0, 182.36788301085033, 0.0, 0.0, 0.0, 0.0, -3808.4690342508597, 0.0]
['beep', 0.0, 182.63610394431402, 0.0, 0.0, 0.0, 0.0, -3808.4466825064046, 0.0]
['beep', 0.0, 183.39606325579445, 0.0, 0.0, 0.0, 0.0, -3808.781958673234, 0.0]
['beep', 0.0, 183.9101533782665, 0.0, 0.0, 0.0, 0.0, -3809.653676706991, 0.0]
['beep', 0.0, 183.79839465598997, 0.0, 0.0, 0.0, 0.0, -3809.7430836848125, 0.0]
['beep', 0.0, 183.19489755569668, 0.0, 0.0, 0.0, 0.0, -3810.3465807851057, 0.0]
['beep', 0.0, 183.9101533782665, 0.0, 0.0, 0.0, 0.0, -3809.8324906626335, 0.0]
['beep', 0.0, 183.75369116707935, 0.0, 0.0, 0.0, 0.0, -3811.106540096586, 0.0]
['beep', 0.0, 184.87127838984472, 0.0, 0.0, 0.0, 0.0, -3812.6711622084576, 0.0]
['beep', 0.0, 184.8042231564788, 0.0, 0.0, 0.0, 0.0, -3811.5088714967815, 0.0]
['beep', 0.0, 183.8654498893559, 0.0, 0.0, 0.0, 0.0, -3810.883022652033, 0.0]
['beep', 0.0, 183.77604291153466, 0.0, 0.0, 0.0, 0.0, -3809.9666011293652, 0.0]
['beep', 0.0, 184.31248477846205, 0.0, 0.0, 0.0, 0.0, -3810.9947813743097, 0.0]
['beep', 0.0, 184.58070571192573, 0.0, 0.0, 0.0, 0.0, -3811.5088714967815, 0.0]
['beep', 0.0, 182.9490283666883, 0.0, 0.0, 0.0, 0.0, -3808.7372551843237, 0.0]
['beep', 0.0, 183.50782197807098, 0.0, 0.0, 0.0, 0.0, -3808.3125720396724, 0.0]
['beep', 0.0, 184.02191210054303, 0.0, 0.0, 0.0, 0.0, -3809.6089732180803, 0.0]
['beep', 0.0, 184.98303711212125, 0.0, 0.0, 0.0, 0.0, -3810.234822062829, 0.0]
['beep', 0.0, 184.96068536766595, 0.0, 0.0, 0.0, 0.0, -3810.2124703183736, 0.0]
['beep', 0.0, 184.40189175628328, 0.0, 0.0, 0.0, 0.0, -3810.011304618276, 0.0]
['beep', 0.0, 183.8878016338112, 0.0, 0.0, 0.0, 0.0, -3811.2182988188624, 0.0]
['beep', 0.0, 184.35718826737266, 0.0, 0.0, 0.0, 0.0, -3810.525394740748, 0.0]
['beep', 0.0, 184.71481617865757, 0.0, 0.0, 0.0, 0.0, -3810.681856951935, 0.0]
['beep', 0.0, 183.97720861163242, 0.0, 0.0, 0.0, 0.0, -3810.950077885399, 0.0]
['beep', 0.0, 183.2619527890626, 0.0, 0.0, 0.0, 0.0, -3810.4359877629267, 0.0]
['beep', 0.0, 183.2619527890626, 0.0, 0.0, 0.0, 0.0, -3811.620630219058, 0.0]
['beep', 0.0, 183.75369116707935, 0.0, 0.0, 0.0, 0.0, -3812.939383141921, 0.0]
['beep', 0.0, 183.97720861163242, 0.0, 0.0, 0.0, 0.0, -3813.1181970975636, 0.0]
['beep', 0.0, 184.8489266453894, 0.0, 0.0, 0.0, 0.0, -3812.693513952913, 0.0]
['beep', 0.0, 184.60305745638104, 0.0, 0.0, 0.0, 0.0, -3812.1570720859854, 0.0]
['beep', 0.0, 182.68080743322463, 0.0, 0.0, 0.0, 0.0, -3813.4087697754826, 0.0]
['beep', 0.0, 182.70315917767994, 0.0, 0.0, 0.0, 0.0, -3813.1852523309294, 0.0]
['beep', 0.0, 183.9101533782665, 0.0, 0.0, 0.0, 0.0, -3813.274659308751, 0.0]
['beep', 0.0, 182.926676622233, 0.0, 0.0, 0.0, 0.0, -3813.654638964491, 0.0]
['beep', 0.0, 183.01608360005423, 0.0, 0.0, 0.0, 0.0, -3813.855804664589, 0.0]
['beep', 0.0, 183.75369116707935, 0.0, 0.0, 0.0, 0.0, -3813.2523075642953, 0.0]
['beep', 0.0, 186.16767956825254, 0.0, 0.0, 0.0, 0.0, -3812.581755230636, 0.0]
['beep', 0.0, 188.13463308031956, 0.0, 0.0, 0.0, 0.0, -3812.7605691862786, 0.0]
['beep', 0.0, 188.9616476251659, 0.0, 0.0, 0.0, 0.0, -3811.173595329952, 0.0]
['beep', 0.0, 188.13463308031956, 0.0, 0.0, 0.0, 0.0, -3811.531223241237, 0.0]
['beep', 0.0, 186.9946941130989, 0.0, 0.0, 0.0, 0.0, -3811.553574985692, 0.0]
['beep', 0.0, 186.19003131270784, 0.0, 0.0, 0.0, 0.0, -3811.7323889413346, 0.0]
['beep', 0.0, 185.38536851231677, 0.0, 0.0, 0.0, 0.0, -3811.173595329952, 0.0]
['beep', 0.0, 184.1560225672749, 0.0, 0.0, 0.0, 0.0, -3810.883022652033, 0.0]
['beep', 0.0, 182.85962138886708, 0.0, 0.0, 0.0, 0.0, -3810.8383191631224, 0.0]
['beep', 0.0, 182.97138011114362, 0.0, 0.0, 0.0, 0.0, -3810.525394740748, 0.0]
['beep', 0.0, 183.73133942262405, 0.0, 0.0, 0.0, 0.0, -3812.291182552717, 0.0]
['beep', 0.0, 184.53600222301512, 0.0, 0.0, 0.0, 0.0, -3813.006438375287, 0.0]
['beep', 0.0, 184.08896733390895, 0.0, 0.0, 0.0, 0.0, -3813.587583731125, 0.0]
['beep', 0.0, 183.79839465598997, 0.0, 0.0, 0.0, 0.0, -3813.94521164241, 0.0]
['beep', 0.0, 183.8654498893559, 0.0, 0.0, 0.0, 0.0, -3814.4369500204266, 0.0]
['beep', 0.0, 184.22307780064082, 0.0, 0.0, 0.0, 0.0, -3815.196909331907, 0.0]
['beep', 0.0, 185.34066502340616, 0.0, 0.0, 0.0, 0.0, -3813.520528497759, 0.0]
['beep', 0.0, 184.87127838984472, 0.0, 0.0, 0.0, 0.0, -3814.3698947870607, 0.0]
['beep', 0.0, 184.35718826737266, 0.0, 0.0, 0.0, 0.0, -3815.0404471207203, 0.0]
['beep', 0.0, 183.99956035608773, 0.0, 0.0, 0.0, 0.0, -3814.3475430426056, 0.0]
['beep', 0.0, 185.25125804558493, 0.0, 0.0, 0.0, 0.0, -3814.1016738535973, 0.0]
['beep', 0.0, 186.6817696907246, 0.0, 0.0, 0.0, 0.0, -3815.7333511988345, 0.0]
['beep', 0.0, 186.3911970128056, 0.0, 0.0, 0.0, 0.0, -3815.465130265371, 0.0]
['beep', 0.0, 185.38536851231677, 0.0, 0.0, 0.0, 0.0, -3815.196909331907, 0.0]
['beep', 0.0, 184.96068536766595, 0.0, 0.0, 0.0, 0.0, -3814.906336653988, 0.0]
['beep', 0.0, 184.75951966756818, 0.0, 0.0, 0.0, 0.0, -3816.828586677145, 0.0]
['beep', 0.0, 185.1618510677637, 0.0, 0.0, 0.0, 0.0, -3816.180386087941, 0.0]
['beep', 0.0, 185.94416212369944, 0.0, 0.0, 0.0, 0.0, -3814.0346186202314, 0.0]
['beep', 0.0, 185.1394993233084, 0.0, 0.0, 0.0, 0.0, -3814.861633165078, 0.0]
['beep', 0.0, 185.40772025677208, 0.0, 0.0, 0.0, 0.0, -3813.855804664589, 0.0]
['beep', 0.0, 186.05592084597598, 0.0, 0.0, 0.0, 0.0, -3813.788749431223, 0.0]
['beep', 0.0, 186.88293539082235, 0.0, 0.0, 0.0, 0.0, -3814.593412231614, 0.0]
['beep', 0.0, 187.82170865794524, 0.0, 0.0, 0.0, 0.0, -3815.174557587452, 0.0]
['beep', 0.0, 186.88293539082235, 0.0, 0.0, 0.0, 0.0, -3814.3251912981505, 0.0]
['beep', 0.0, 186.3911970128056, 0.0, 0.0, 0.0, 0.0, -3813.56523198667, 0.0]
['beep', 0.0, 187.77700516903462, 0.0, 0.0, 0.0, 0.0, -3815.845109921111, 0.0]
['beep', 0.0, 187.46408074666033, 0.0, 0.0, 0.0, 0.0, -3817.499139010804, 0.0]
['beep', 0.0, 186.6594179462693, 0.0, 0.0, 0.0, 0.0, -3818.9967058893094, 0.0]
['beep', 0.0, 186.43590050171622, 0.0, 0.0, 0.0, 0.0, -3817.3203250551614, 0.0]
['beep', 0.0, 184.62540920083634, 0.0, 0.0, 0.0, 0.0, -3816.493310510315, 0.0]
['beep', 0.0, 185.96651386815475, 0.0, 0.0, 0.0, 0.0, -3818.728484955846, 0.0]
['beep', 0.0, 186.03356910152067, 0.0, 0.0, 0.0, 0.0, -3817.879118666544, 0.0]
['beep', 0.0, 185.36301676786147, 0.0, 0.0, 0.0, 0.0, -3818.683781466935, 0.0]
['beep', 0.0, 185.31831327895085, 0.0, 0.0, 0.0, 0.0, -3818.884947167033, 0.0]
['beep', 0.0, 184.1336708228196, 0.0, 0.0, 0.0, 0.0, -3819.711961711879, 0.0]
['beep', 0.0, 183.84309814490058, 0.0, 0.0, 0.0, 0.0, -3821.053066379198, 0.0]
['beep', 0.0, 185.20655455667432, 0.0, 0.0, 0.0, 0.0, -3819.2872785672284, 0.0]
['beep', 0.0, 185.22890630112963, 0.0, 0.0, 0.0, 0.0, -3819.846072178611, 0.0]
['beep', 0.0, 186.3911970128056, 0.0, 0.0, 0.0, 0.0, -3819.779016945245, 0.0]
['beep', 0.0, 186.3688452683503, 0.0, 0.0, 0.0, 0.0, -3817.9908773888205, 0.0]
['beep', 0.0, 186.3688452683503, 0.0, 0.0, 0.0, 0.0, -3817.856766922089, 0.0]
['beep', 0.0, 187.12880457983073, 0.0, 0.0, 0.0, 0.0, -3818.3261535556503, 0.0]
['beep', 0.0, 188.08992959140895, 0.0, 0.0, 0.0, 0.0, -3818.482615766837, 0.0]
['beep', 0.0, 187.91111563576646, 0.0, 0.0, 0.0, 0.0, -3818.460264022382, 0.0]
['beep', 0.0, 187.7099499356687, 0.0, 0.0, 0.0, 0.0, -3818.169691344463, 0.0]
['beep', 0.0, 188.46990924714916, 0.0, 0.0, 0.0, 0.0, -3818.437912277927, 0.0]
['beep', 0.0, 189.14046158080836, 0.0, 0.0, 0.0, 0.0, -3818.169691344463, 0.0]
['beep', 0.0, 190.36980752585026, 0.0, 0.0, 0.0, 0.0, -3818.169691344463, 0.0]
['beep', 0.0, 188.67107494724692, 0.0, 0.0, 0.0, 0.0, -3817.4097320329824, 0.0]
['beep', 0.0, 188.76048192506815, 0.0, 0.0, 0.0, 0.0, -3816.5380139992258, 0.0]
['beep', 0.0, 189.20751681417428, 0.0, 0.0, 0.0, 0.0, -3817.454435521893, 0.0]
['beep', 0.0, 189.2969237919955, 0.0, 0.0, 0.0, 0.0, -3817.655601221991, 0.0]
['beep', 0.0, 189.43103425872735, 0.0, 0.0, 0.0, 0.0, -3819.823720434156, 0.0]
['beep', 0.0, 188.604019713881, 0.0, 0.0, 0.0, 0.0, -3819.9354791564324, 0.0]
['beep', 0.0, 188.2910952915067, 0.0, 0.0, 0.0, 0.0, -3818.147339600008, 0.0]
['beep', 0.0, 188.2240400581408, 0.0, 0.0, 0.0, 0.0, -3818.147339600008, 0.0]
['beep', 0.0, 188.49226099160447, 0.0, 0.0, 0.0, 0.0, -3819.8684239230665, 0.0]
['beep', 0.0, 188.11228133586425, 0.0, 0.0, 0.0, 0.0, -3820.9189559124657, 0.0]
['beep', 0.0, 187.62054295784748, 0.0, 0.0, 0.0, 0.0, -3819.555499500692, 0.0]
['beep', 0.0, 187.41937725774972, 0.0, 0.0, 0.0, 0.0, -3818.169691344463, 0.0]
['beep', 0.0, 188.2687435470514, 0.0, 0.0, 0.0, 0.0, -3817.4097320329824, 0.0]
['beep', 0.0, 189.2745720475402, 0.0, 0.0, 0.0, 0.0, -3817.5661942441698, 0.0]
['beep', 0.0, 188.87224064734468, 0.0, 0.0, 0.0, 0.0, -3818.2814500667396, 0.0]
['beep', 0.0, 187.93346738022177, 0.0, 0.0, 0.0, 0.0, -3818.2590983222844, 0.0]
['beep', 0.0, 187.6652464467581, 0.0, 0.0, 0.0, 0.0, -3818.080284366642, 0.0]
['beep', 0.0, 187.95581912467708, 0.0, 0.0, 0.0, 0.0, -3817.6108977330805, 0.0]
['beep', 0.0, 188.5593162249704, 0.0, 0.0, 0.0, 0.0, -3817.722656455357, 0.0]
['beep', 0.0, 188.71577843615754, 0.0, 0.0, 0.0, 0.0, -3818.9072989114884, 0.0]
['beep', 0.0, 188.78283366952346, 0.0, 0.0, 0.0, 0.0, -3817.94617389991, 0.0]
['beep', 0.0, 189.11810983635306, 0.0, 0.0, 0.0, 0.0, -3817.0297523772424, 0.0]
['beep', 0.0, 189.49808949209327, 0.0, 0.0, 0.0, 0.0, -3816.6944762104126, 0.0]
['beep', 0.0, 191.26387730406253, 0.0, 0.0, 0.0, 0.0, -3817.5438424997146, 0.0]
['beep', 0.0, 190.99565637059885, 0.0, 0.0, 0.0, 0.0, -3819.175519844952, 0.0]
['beep', 0.0, 188.2687435470514, 0.0, 0.0, 0.0, 0.0, -3818.2590983222844, 0.0]
['beep', 0.0, 189.14046158080836, 0.0, 0.0, 0.0, 0.0, -3817.94617389991, 0.0]
['beep', 0.0, 189.81101391446757, 0.0, 0.0, 0.0, 0.0, -3818.728484955846, 0.0]
['beep', 0.0, 189.6098482143698, 0.0, 0.0, 0.0, 0.0, -3820.1813483454407, 0.0]
['beep', 0.0, 188.9392958807106, 0.0, 0.0, 0.0, 0.0, -3820.5166245122705, 0.0]
['beep', 0.0, 189.45338600318266, 0.0, 0.0, 0.0, 0.0, -3821.5224530127593, 0.0]
['beep', 0.0, 189.74395868110165, 0.0, 0.0, 0.0, 0.0, -3821.008362890287, 0.0]
['beep', 0.0, 189.67690344773573, 0.0, 0.0, 0.0, 0.0, -3819.7343134563343, 0.0]
['beep', 0.0, 190.90624939277762, 0.0, 0.0, 0.0, 0.0, -3818.7061332113904, 0.0]
['beep', 0.0, 191.64385695980275, 0.0, 0.0, 0.0, 0.0, -3819.846072178611, 0.0]
['beep', 0.0, 189.8780691478335, 0.0, 0.0, 0.0, 0.0, -3820.8966041680105, 0.0]
['beep', 0.0, 189.00635111407652, 0.0, 0.0, 0.0, 0.0, -3821.701266968402, 0.0]
['beep', 0.0, 189.8780691478335, 0.0, 0.0, 0.0, 0.0, -3820.3825140455383, 0.0]
['beep', 0.0, 191.08506334842008, 0.0, 0.0, 0.0, 0.0, -3821.9024326684994, 0.0]
['beep', 0.0, 190.34745578139496, 0.0, 0.0, 0.0, 0.0, -3821.589508246125, 0.0]
['beep', 0.0, 187.93346738022177, 0.0, 0.0, 0.0, 0.0, -3820.1589966009856, 0.0]
['beep', 0.0, 187.75465342457932, 0.0, 0.0, 0.0, 0.0, -3820.2260518343514, 0.0]
['beep', 0.0, 187.77700516903462, 0.0, 0.0, 0.0, 0.0, -3819.6449064785133, 0.0]
['beep', 0.0, 187.62054295784748, 0.0, 0.0, 0.0, 0.0, -3818.840243678122, 0.0]
['beep', 0.0, 189.67690344773573, 0.0, 0.0, 0.0, 0.0, -3820.5166245122705, 0.0]
['beep', 0.0, 189.9004208922888, 0.0, 0.0, 0.0, 0.0, -3820.5836797456363, 0.0]
['beep', 0.0, 189.52044123654858, 0.0, 0.0, 0.0, 0.0, -3821.9247844129545, 0.0]
['beep', 0.0, 189.9004208922888, 0.0, 0.0, 0.0, 0.0, -3821.5224530127593, 0.0]
['beep', 0.0, 189.74395868110165, 0.0, 0.0, 0.0, 0.0, -3820.9413076569213, 0.0]
['beep', 0.0, 189.9451243811994, 0.0, 0.0, 0.0, 0.0, -3820.5836797456363, 0.0]
['beep', 0.0, 190.95095288168824, 0.0, 0.0, 0.0, 0.0, -3820.494272767815, 0.0]
['beep', 0.0, 190.4592145036715, 0.0, 0.0, 0.0, 0.0, -3821.365990801572, 0.0]
['beep', 0.0, 190.01217961456533, 0.0, 0.0, 0.0, 0.0, -3821.4777495238486, 0.0]
['beep', 0.0, 191.30858079297315, 0.0, 0.0, 0.0, 0.0, -3820.404865789994, 0.0]
['beep', 0.0, 191.33093253742845, 0.0, 0.0, 0.0, 0.0, -3820.114293112075, 0.0]
['beep', 0.0, 190.30275229248434, 0.0, 0.0, 0.0, 0.0, -3819.846072178611, 0.0]
['beep', 0.0, 190.01217961456533, 0.0, 0.0, 0.0, 0.0, -3819.488444267326, 0.0]
['beep', 0.0, 189.45338600318266, 0.0, 0.0, 0.0, 0.0, -3818.9743541448543, 0.0]
['beep', 0.0, 190.88389764832232, 0.0, 0.0, 0.0, 0.0, -3818.9520024003987, 0.0]
['beep', 0.0, 190.72743543713517, 0.0, 0.0, 0.0, 0.0, -3820.5613280011808, 0.0]
['beep', 0.0, 190.5262697370374, 0.0, 0.0, 0.0, 0.0, -3820.5166245122705, 0.0]
['beep', 0.0, 190.861545903867, 0.0, 0.0, 0.0, 0.0, -3821.455397779393, 0.0]
['beep', 0.0, 191.08506334842008, 0.0, 0.0, 0.0, 0.0, -3822.103598368597, 0.0]
['beep', 0.0, 191.73326393762397, 0.0, 0.0, 0.0, 0.0, -3820.717790212368, 0.0]
['beep', 0.0, 191.5320982375262, 0.0, 0.0, 0.0, 0.0, -3820.2931070677173, 0.0]
['beep', 0.0, 190.34745578139496, 0.0, 0.0, 0.0, 0.0, -3822.2824123242394, 0.0]
['beep', 0.0, 191.10741509287539, 0.0, 0.0, 0.0, 0.0, -3822.170653601963, 0.0]
['beep', 0.0, 190.57097322594802, 0.0, 0.0, 0.0, 0.0, -3820.6730867234573, 0.0]
['beep', 0.0, 191.62150521534744, 0.0, 0.0, 0.0, 0.0, -3821.298935568206, 0.0]
['beep', 0.0, 192.7167406936575, 0.0, 0.0, 0.0, 0.0, -3821.4777495238486, 0.0]
['beep', 0.0, 191.8003191709899, 0.0, 0.0, 0.0, 0.0, -3821.4777495238486, 0.0]
['beep', 0.0, 191.01800811505416, 0.0, 0.0, 0.0, 0.0, -3820.5166245122705, 0.0]
['beep', 0.0, 190.97330462614354, 0.0, 0.0, 0.0, 0.0, -3819.130816356041, 0.0]
['beep', 0.0, 191.57680172643683, 0.0, 0.0, 0.0, 0.0, -3820.13664485653, 0.0]
['beep', 0.0, 191.93442963772173, 0.0, 0.0, 0.0, 0.0, -3820.0248861342534, 0.0]
['beep', 0.0, 190.63802845931394, 0.0, 0.0, 0.0, 0.0, -3820.2931070677173, 0.0]
['beep', 0.0, 190.21334531466312, 0.0, 0.0, 0.0, 0.0, -3818.5496710002035, 0.0]
['beep', 0.0, 192.0685401044536, 0.0, 0.0, 0.0, 0.0, -3818.9296506559435, 0.0]
['beep', 0.0, 192.62733371583627, 0.0, 0.0, 0.0, 0.0, -3820.5166245122705, 0.0]
['beep', 0.0, 191.86737440435581, 0.0, 0.0, 0.0, 0.0, -3820.8742524235554, 0.0]
['beep', 0.0, 190.7944906705011, 0.0, 0.0, 0.0, 0.0, -3820.360162301083, 0.0]
['beep', 0.0, 191.5097464930709, 0.0, 0.0, 0.0, 0.0, -3820.0025343897983, 0.0]
['beep', 0.0, 190.7944906705011, 0.0, 0.0, 0.0, 0.0, -3821.2765838237506, 0.0]
['beep', 0.0, 192.31440929346198, 0.0, 0.0, 0.0, 0.0, -3821.745970457312, 0.0]
['beep', 0.0, 193.0743686049424, 0.0, 0.0, 0.0, 0.0, -3821.6118599905803, 0.0]
['beep', 0.0, 192.02383661554296, 0.0, 0.0, 0.0, 0.0, -3818.9520024003987, 0.0]
['beep', 0.0, 191.68856044871336, 0.0, 0.0, 0.0, 0.0, -3817.722656455357, 0.0]
['beep', 0.0, 192.80614767147873, 0.0, 0.0, 0.0, 0.0, -3816.2921448102175, 0.0]
['beep', 0.0, 192.80614767147873, 0.0, 0.0, 0.0, 0.0, -3816.917993654966, 0.0]
['beep', 0.0, 192.31440929346198, 0.0, 0.0, 0.0, 0.0, -3817.94617389991, 0.0]
['beep', 0.0, 192.18029882673014, 0.0, 0.0, 0.0, 0.0, -3819.086112867131, 0.0]
['beep', 0.0, 192.0685401044536, 0.0, 0.0, 0.0, 0.0, -3819.6449064785133, 0.0]
['beep', 0.0, 192.64968546029158, 0.0, 0.0, 0.0, 0.0, -3820.784845445734, 0.0]
['beep', 0.0, 193.18612732721894, 0.0, 0.0, 0.0, 0.0, -3821.589508246125, 0.0]
['beep', 0.0, 192.6943889492022, 0.0, 0.0, 0.0, 0.0, -3821.388342546027, 0.0]
['beep', 0.0, 191.86737440435581, 0.0, 0.0, 0.0, 0.0, -3821.5224530127593, 0.0]
['beep', 0.0, 190.68273194822456, 0.0, 0.0, 0.0, 0.0, -3821.94713615741, 0.0]
['beep', 0.0, 190.1909935702078, 0.0, 0.0, 0.0, 0.0, -3821.388342546027, 0.0]
['beep', 0.0, 191.4873947486156, 0.0, 0.0, 0.0, 0.0, -3821.053066379198, 0.0]
['beep', 0.0, 192.3591127823726, 0.0, 0.0, 0.0, 0.0, -3821.164825101474, 0.0]
['beep', 0.0, 192.85085116038934, 0.0, 0.0, 0.0, 0.0, -3820.8742524235554, 0.0]
['beep', 0.0, 193.3872930273167, 0.0, 0.0, 0.0, 0.0, -3820.807197190189, 0.0]
['beep', 0.0, 192.85085116038934, 0.0, 0.0, 0.0, 0.0, -3821.365990801572, 0.0]
['beep', 0.0, 192.29205754900667, 0.0, 0.0, 0.0, 0.0, -3820.8966041680105, 0.0]
['beep', 0.0, 193.700217449691, 0.0, 0.0, 0.0, 0.0, -3819.689609967424, 0.0]
['beep', 0.0, 193.3649412828614, 0.0, 0.0, 0.0, 0.0, -3820.3825140455383, 0.0]
['beep', 0.0, 191.30858079297315, 0.0, 0.0, 0.0, 0.0, -3820.2931070677173, 0.0]
['beep', 0.0, 191.35328428188376, 0.0, 0.0, 0.0, 0.0, -3820.494272767815, 0.0]
['beep', 0.0, 192.24735406009606, 0.0, 0.0, 0.0, 0.0, -3821.164825101474, 0.0]
['beep', 0.0, 191.8226709154452, 0.0, 0.0, 0.0, 0.0, -3821.9024326684994, 0.0]
['beep', 0.0, 191.75561568207928, 0.0, 0.0, 0.0, 0.0, -3822.014191390776, 0.0]
['beep', 0.0, 191.5097464930709, 0.0, 0.0, 0.0, 0.0, -3821.2095285903847, 0.0]
['beep', 0.0, 192.31440929346198, 0.0, 0.0, 0.0, 0.0, -3822.1483018575077, 0.0]
['beep', 0.0, 192.58263022692566, 0.0, 0.0, 0.0, 0.0, -3822.4165227909716, 0.0]
['beep', 0.0, 192.7167406936575, 0.0, 0.0, 0.0, 0.0, -3821.343639057117, 0.0]
['beep', 0.0, 193.3649412828614, 0.0, 0.0, 0.0, 0.0, -3821.6118599905803, 0.0]
['beep', 0.0, 192.29205754900667, 0.0, 0.0, 0.0, 0.0, -3820.6283832345466, 0.0]
['beep', 0.0, 191.95678138217704, 0.0, 0.0, 0.0, 0.0, -3820.13664485653, 0.0]
['beep', 0.0, 192.7167406936575, 0.0, 0.0, 0.0, 0.0, -3821.343639057117, 0.0]
['beep', 0.0, 193.3872930273167, 0.0, 0.0, 0.0, 0.0, -3821.9918396463204, 0.0]
['beep', 0.0, 192.15794708227483, 0.0, 0.0, 0.0, 0.0, -3822.2824123242394, 0.0]
['beep', 0.0, 190.63802845931394, 0.0, 0.0, 0.0, 0.0, -3821.9694879018653, 0.0]
['beep', 0.0, 190.57097322594802, 0.0, 0.0, 0.0, 0.0, -3821.343639057117, 0.0]
['beep', 0.0, 192.51557499355974, 0.0, 0.0, 0.0, 0.0, -3822.4835780243375, 0.0]
['beep', 0.0, 206.06073213347582, 0.0, 0.0, 0.0, 0.0, -3826.976278659854, 0.0]
['beep', 0.0, 205.81486294446742, 0.0, 0.0, 0.0, 0.0, -3827.892700182522, 0.0]
['beep', 0.0, 205.03255188853169, 0.0, 0.0, 0.0, 0.0, -3827.7809414602452, 0.0]
['beep', 0.0, 205.54664201100374, 0.0, 0.0, 0.0, 0.0, -3828.3844385605385, 0.0]
['beep', 0.0, 205.0772553774423, 0.0, 0.0, 0.0, 0.0, -3827.579775760147, 0.0]
['beep', 0.0, 206.37365655585012, 0.0, 0.0, 0.0, 0.0, -3826.9315751709432, 0.0]
['beep', 0.0, 206.86539493386687, 0.0, 0.0, 0.0, 0.0, -3828.563252516181, 0.0]
['beep', 0.0, 205.16666235526353, 0.0, 0.0, 0.0, 0.0, -3829.7702467167674, 0.0]
['beep', 0.0, 204.83138618843392, 0.0, 0.0, 0.0, 0.0, -3829.211453105385, 0.0]
['beep', 0.0, 205.3901797998166, 0.0, 0.0, 0.0, 0.0, -3829.546729272214, 0.0]
['beep', 0.0, 206.9771536561434, 0.0, 0.0, 0.0, 0.0, -3829.6137845055805, 0.0]
['beep', 0.0, 207.603002500892, 0.0, 0.0, 0.0, 0.0, -3829.300860083206, 0.0]
['beep', 0.0, 207.2677263340624, 0.0, 0.0, 0.0, 0.0, -3829.434970549938, 0.0]
['beep', 0.0, 205.30077282199537, 0.0, 0.0, 0.0, 0.0, -3828.9655839163765, 0.0]
['beep', 0.0, 205.83721468892273, 0.0, 0.0, 0.0, 0.0, -3829.010287405287, 0.0]
['beep', 0.0, 206.88774667832217, 0.0, 0.0, 0.0, 0.0, -3828.719714727368, 0.0]
['beep', 0.0, 205.9936769001099, 0.0, 0.0, 0.0, 0.0, -3829.0996943831083, 0.0]
['beep', 0.0, 205.7031042221909, 0.0, 0.0, 0.0, 0.0, -3828.6079560050916, 0.0]
['beep', 0.0, 204.98784839962107, 0.0, 0.0, 0.0, 0.0, -3828.227976349351, 0.0]
['beep', 0.0, 204.54081351051494, 0.0, 0.0, 0.0, 0.0, -3828.0938658826194, 0.0]
['beep', 0.0, 205.4125315442719, 0.0, 0.0, 0.0, 0.0, -3829.0549908941975, 0.0]
['beep', 0.0, 204.3843512993278, 0.0, 0.0, 0.0, 0.0, -3829.7702467167674, 0.0]
['beep', 0.0, 203.8032059434898, 0.0, 0.0, 0.0, 0.0, -3828.496197282815, 0.0]
['beep', 0.0, 203.71379896566856, 0.0, 0.0, 0.0, 0.0, -3828.205624604896, 0.0]
['beep', 0.0, 202.93148790973282, 0.0, 0.0, 0.0, 0.0, -3827.3562583155945, 0.0]
['beep', 0.0, 204.92079316625515, 0.0, 0.0, 0.0, 0.0, -3829.6137845055805, 0.0]
['beep', 0.0, 205.7031042221909, 0.0, 0.0, 0.0, 0.0, -3831.04429615072, 0.0]
['beep', 0.0, 205.3901797998166, 0.0, 0.0, 0.0, 0.0, -3832.2512903513066, 0.0]
['beep', 0.0, 204.98784839962107, 0.0, 0.0, 0.0, 0.0, -3831.9607176733875, 0.0]
['beep', 0.0, 205.25606933308475, 0.0, 0.0, 0.0, 0.0, -3831.6254415065578, 0.0]
['beep', 0.0, 206.2842495780289, 0.0, 0.0, 0.0, 0.0, -3832.6759734959574, 0.0]
['beep', 0.0, 207.78181645653444, 0.0, 0.0, 0.0, 0.0, -3833.011249662787, 0.0]
['beep', 0.0, 206.84304318941156, 0.0, 0.0, 0.0, 0.0, -3834.486464796837, 0.0]
['beep', 0.0, 206.17249085575236, 0.0, 0.0, 0.0, 0.0, -3833.4135810629823, 0.0]
['beep', 0.0, 206.84304318941156, 0.0, 0.0, 0.0, 0.0, -3830.910185683988, 0.0]
['beep', 0.0, 207.40183680079423, 0.0, 0.0, 0.0, 0.0, -3832.586566518136, 0.0]
['beep', 0.0, 207.73711296762383, 0.0, 0.0, 0.0, 0.0, -3834.039429907731, 0.0]
['beep', 0.0, 207.021857145054, 0.0, 0.0, 0.0, 0.0, -3834.4417613079268, 0.0]
['beep', 0.0, 207.2900780785177, 0.0, 0.0, 0.0, 0.0, -3834.844092708122, 0.0]
['beep', 0.0, 207.22302284515177, 0.0, 0.0, 0.0, 0.0, -3834.5535200302033, 0.0]
['beep', 0.0, 207.73711296762383, 0.0, 0.0, 0.0, 0.0, -3834.464113052382, 0.0]
['beep', 0.0, 208.27355483455122, 0.0, 0.0, 0.0, 0.0, -3835.6040520196025, 0.0]
['beep', 0.0, 207.2677263340624, 0.0, 0.0, 0.0, 0.0, -3835.5146450417815, 0.0]
['beep', 0.0, 206.26189783357358, 0.0, 0.0, 0.0, 0.0, -3835.5817002751473, 0.0]
['beep', 0.0, 205.92662166674396, 0.0, 0.0, 0.0, 0.0, -3835.201720619407, 0.0]
['beep', 0.0, 207.2900780785177, 0.0, 0.0, 0.0, 0.0, -3834.3523543301053, 0.0]
['beep', 0.0, 208.34061006791714, 0.0, 0.0, 0.0, 0.0, -3835.1570171304966, 0.0]
['beep', 0.0, 207.40183680079423, 0.0, 0.0, 0.0, 0.0, -3835.0899618971307, 0.0]
['beep', 0.0, 207.2900780785177, 0.0, 0.0, 0.0, 0.0, -3834.5758717746585, 0.0]
['beep', 0.0, 206.73128446713503, 0.0, 0.0, 0.0, 0.0, -3835.76051423079, 0.0]
['beep', 0.0, 206.55247051149257, 0.0, 0.0, 0.0, 0.0, -3837.034563664742, 0.0]
['beep', 0.0, 207.20067110069647, 0.0, 0.0, 0.0, 0.0, -3836.5651770311806, 0.0]
['beep', 0.0, 206.48541527812665, 0.0, 0.0, 0.0, 0.0, -3836.8781014535552, 0.0]
['beep', 0.0, 206.03838038902052, 0.0, 0.0, 0.0, 0.0, -3837.9286334429544, 0.0]
['beep', 0.0, 206.6418774893138, 0.0, 0.0, 0.0, 0.0, -3837.4815985538485, 0.0]
['beep', 0.0, 206.91009842277748, 0.0, 0.0, 0.0, 0.0, -3838.4874270543373, 0.0]
['beep', 0.0, 206.82069144495625, 0.0, 0.0, 0.0, 0.0, -3838.33096484315, 0.0]
['beep', 0.0, 206.55247051149257, 0.0, 0.0, 0.0, 0.0, -3836.8781014535552, 0.0]
['beep', 0.0, 206.9324501672328, 0.0, 0.0, 0.0, 0.0, -3837.369839831572, 0.0]
['beep', 0.0, 206.50776702258196, 0.0, 0.0, 0.0, 0.0, -3836.811046220189, 0.0]
['beep', 0.0, 207.69240947871322, 0.0, 0.0, 0.0, 0.0, -3837.012211920287, 0.0]
['beep', 0.0, 208.1617961122747, 0.0, 0.0, 0.0, 0.0, -3836.9898601758314, 0.0]
['beep', 0.0, 207.20067110069647, 0.0, 0.0, 0.0, 0.0, -3836.9898601758314, 0.0]
['beep', 0.0, 206.48541527812665, 0.0, 0.0, 0.0, 0.0, -3836.654584009002, 0.0]
['beep', 0.0, 206.37365655585012, 0.0, 0.0, 0.0, 0.0, -3837.1463223870187, 0.0]
['beep', 0.0, 205.92662166674396, 0.0, 0.0, 0.0, 0.0, -3840.0296974217536, 0.0]
['beep', 0.0, 205.4348832887272, 0.0, 0.0, 0.0, 0.0, -3840.0520491662087, 0.0]
['beep', 0.0, 204.20553734368534, 0.0, 0.0, 0.0, 0.0, -3839.1579793879964, 0.0]
['beep', 0.0, 203.57968849893672, 0.0, 0.0, 0.0, 0.0, -3837.9956886763202, 0.0]
['beep', 0.0, 204.58551699942555, 0.0, 0.0, 0.0, 0.0, -3837.7051159984017, 0.0]
['beep', 0.0, 204.7419792106127, 0.0, 0.0, 0.0, 0.0, -3839.940290443932, 0.0]
['beep', 0.0, 206.21719434466297, 0.0, 0.0, 0.0, 0.0, -3839.0238689212647, 0.0]
['beep', 0.0, 205.1219588663529, 0.0, 0.0, 0.0, 0.0, -3837.816874720678, 0.0]
['beep', 0.0, 204.67492397724678, 0.0, 0.0, 0.0, 0.0, -3838.3756683320607, 0.0]
['beep', 0.0, 205.68075247773558, 0.0, 0.0, 0.0, 0.0, -3839.8285317216555, 0.0]
['beep', 0.0, 206.5971740004032, 0.0, 0.0, 0.0, 0.0, -3841.2813951112507, 0.0]
['beep', 0.0, 206.9995054005987, 0.0, 0.0, 0.0, 0.0, -3839.8955869550214, 0.0]
['beep', 0.0, 206.50776702258196, 0.0, 0.0, 0.0, 0.0, -3841.013174177787, 0.0]
['beep', 0.0, 205.4348832887272, 0.0, 0.0, 0.0, 0.0, -3841.61667127808, 0.0]
['beep', 0.0, 205.94897341119926, 0.0, 0.0, 0.0, 0.0, -3841.1919881334293, 0.0]
['beep', 0.0, 207.04420888950932, 0.0, 0.0, 0.0, 0.0, -3842.108409656097, 0.0]
['beep', 0.0, 206.37365655585012, 0.0, 0.0, 0.0, 0.0, -3842.0637061671864, 0.0]
['beep', 0.0, 205.7031042221909, 0.0, 0.0, 0.0, 0.0, -3840.566139288681, 0.0]
['beep', 0.0, 205.0772553774423, 0.0, 0.0, 0.0, 0.0, -3840.1861596329404, 0.0]
['beep', 0.0, 204.4514065326937, 0.0, 0.0, 0.0, 0.0, -3839.42620032146, 0.0]
['beep', 0.0, 204.87608967734454, 0.0, 0.0, 0.0, 0.0, -3839.560310788192, 0.0]
['beep', 0.0, 205.25606933308475, 0.0, 0.0, 0.0, 0.0, -3839.001517176809, 0.0]
['beep', 0.0, 204.4290547882384, 0.0, 0.0, 0.0, 0.0, -3838.0627439096866, 0.0]
['beep', 0.0, 204.87608967734454, 0.0, 0.0, 0.0, 0.0, -3838.241557865329, 0.0]
['beep', 0.0, 205.7478077111015, 0.0, 0.0, 0.0, 0.0, -3838.4427235654266, 0.0]
['beep', 0.0, 206.0160286445652, 0.0, 0.0, 0.0, 0.0, -3839.9626421883872, 0.0]
['beep', 0.0, 205.94897341119926, 0.0, 0.0, 0.0, 0.0, -3840.946118944421, 0.0]
['beep', 0.0, 205.0772553774423, 0.0, 0.0, 0.0, 0.0, -3839.6050142771023, 0.0]
['beep', 0.0, 203.8032059434898, 0.0, 0.0, 0.0, 0.0, -3839.3814968325496, 0.0]
['beep', 0.0, 203.5126332655708, 0.0, 0.0, 0.0, 0.0, -3839.1579793879964, 0.0]
['beep', 0.0, 203.91496466576632, 0.0, 0.0, 0.0, 0.0, -3837.4815985538485, 0.0]
['beep', 0.0, 203.8032059434898, 0.0, 0.0, 0.0, 0.0, -3838.4650753098817, 0.0]
['beep', 0.0, 204.13848211031942, 0.0, 0.0, 0.0, 0.0, -3838.621537521069, 0.0]
['beep', 0.0, 203.69144722121325, 0.0, 0.0, 0.0, 0.0, -3838.0627439096866, 0.0]
['beep', 0.0, 204.7866826995233, 0.0, 0.0, 0.0, 0.0, -3838.66624100998, 0.0]
['beep', 0.0, 205.59134549991435, 0.0, 0.0, 0.0, 0.0, -3838.3756683320607, 0.0]
['beep', 0.0, 205.18901409971883, 0.0, 0.0, 0.0, 0.0, -3839.001517176809, 0.0]
['beep', 0.0, 204.13848211031942, 0.0, 0.0, 0.0, 0.0, -3839.8732352105662, 0.0]
['beep', 0.0, 205.03255188853169, 0.0, 0.0, 0.0, 0.0, -3838.018040420776, 0.0]
['beep', 0.0, 204.80903444397862, 0.0, 0.0, 0.0, 0.0, -3837.0569154091977, 0.0]
['beep', 0.0, 206.10543562238644, 0.0, 0.0, 0.0, 0.0, -3837.660412509491, 0.0]
['beep', 0.0, 207.46889203416015, 0.0, 0.0, 0.0, 0.0, -3838.33096484315, 0.0]
['beep', 0.0, 207.35713331188362, 0.0, 0.0, 0.0, 0.0, -3838.9344619434432, 0.0]
['beep', 0.0, 207.312429822973, 0.0, 0.0, 0.0, 0.0, -3839.001517176809, 0.0]
['beep', 0.0, 207.84887168990036, 0.0, 0.0, 0.0, 0.0, -3839.3814968325496, 0.0]
['beep', 0.0, 208.38531355682775, 0.0, 0.0, 0.0, 0.0, -3840.633194522047, 0.0]
['beep', 0.0, 208.09474087890877, 0.0, 0.0, 0.0, 0.0, -3841.2813951112507, 0.0]
['beep', 0.0, 207.84887168990036, 0.0, 0.0, 0.0, 0.0, -3839.783828232745, 0.0]
['beep', 0.0, 207.40183680079423, 0.0, 0.0, 0.0, 0.0, -3839.5156072992813, 0.0]
['beep', 0.0, 206.10543562238644, 0.0, 0.0, 0.0, 0.0, -3840.0296974217536, 0.0]
['beep', 0.0, 207.44654028970484, 0.0, 0.0, 0.0, 0.0, -3840.879063711055, 0.0]
['beep', 0.0, 207.6700577342579, 0.0, 0.0, 0.0, 0.0, -3841.7060782559015, 0.0]
['beep', 0.0, 206.57482225594788, 0.0, 0.0, 0.0, 0.0, -3841.3708020890717, 0.0]
['beep', 0.0, 206.03838038902052, 0.0, 0.0, 0.0, 0.0, -3840.1638078884853, 0.0]
['beep', 0.0, 205.88191817783334, 0.0, 0.0, 0.0, 0.0, -3840.655546266502, 0.0]
['beep', 0.0, 206.37365655585012, 0.0, 0.0, 0.0, 0.0, -3841.3931538335273, 0.0]
['beep', 0.0, 206.50776702258196, 0.0, 0.0, 0.0, 0.0, -3842.0190026782757, 0.0]
['beep', 0.0, 207.15596761178585, 0.0, 0.0, 0.0, 0.0, -3841.7954852337225, 0.0]
['beep', 0.0, 207.71476122316852, 0.0, 0.0, 0.0, 0.0, -3841.57196778917, 0.0]
['beep', 0.0, 206.48541527812665, 0.0, 0.0, 0.0, 0.0, -3842.242520122829, 0.0]
['beep', 0.0, 207.06656063396463, 0.0, 0.0, 0.0, 0.0, -3843.717735256879, 0.0]
['beep', 0.0, 207.6253542453473, 0.0, 0.0, 0.0, 0.0, -3843.6730317679685, 0.0]
['beep', 0.0, 209.07821763494226, 0.0, 0.0, 0.0, 0.0, -3843.5389213012368, 0.0]
['beep', 0.0, 208.38531355682775, 0.0, 0.0, 0.0, 0.0, -3843.203645134407, 0.0]
['beep', 0.0, 207.78181645653444, 0.0, 0.0, 0.0, 0.0, -3842.4436858229265, 0.0]
['beep', 0.0, 208.74294146811266, 0.0, 0.0, 0.0, 0.0, -3842.9577759453987, 0.0]
['beep', 0.0, 209.27938333504002, 0.0, 0.0, 0.0, 0.0, -3843.6953835124236, 0.0]
['beep', 0.0, 209.01116240157634, 0.0, 0.0, 0.0, 0.0, -3843.203645134407, 0.0]
['beep', 0.0, 207.6253542453473, 0.0, 0.0, 0.0, 0.0, -3843.270700367773, 0.0]
['beep', 0.0, 207.58065075643668, 0.0, 0.0, 0.0, 0.0, -3843.516569556781, 0.0]
['beep', 0.0, 208.18414785673, 0.0, 0.0, 0.0, 0.0, -3843.1589416454963, 0.0]
['beep', 0.0, 209.01116240157634, 0.0, 0.0, 0.0, 0.0, -3844.455342823904, 0.0]
['beep', 0.0, 208.8323484459339, 0.0, 0.0, 0.0, 0.0, -3845.550578302214, 0.0]
['beep', 0.0, 209.41349380177186, 0.0, 0.0, 0.0, 0.0, -3844.1871218904403, 0.0]
['beep', 0.0, 208.94410716821042, 0.0, 0.0, 0.0, 0.0, -3843.7400870013344, 0.0]
['beep', 0.0, 209.05586589048696, 0.0, 0.0, 0.0, 0.0, -3844.0977149126193, 0.0]
['beep', 0.0, 209.30173507949533, 0.0, 0.0, 0.0, 0.0, -3843.941252701432, 0.0]
['beep', 0.0, 210.28521183552886, 0.0, 0.0, 0.0, 0.0, -3843.7624387457895, 0.0]
['beep', 0.0, 209.41349380177186, 0.0, 0.0, 0.0, 0.0, -3843.516569556781, 0.0]
['beep', 0.0, 207.84887168990036, 0.0, 0.0, 0.0, 0.0, -3844.008307934798, 0.0]
['beep', 0.0, 208.8994036792998, 0.0, 0.0, 0.0, 0.0, -3844.298880612717, 0.0]
['beep', 0.0, 209.8828804353333, 0.0, 0.0, 0.0, 0.0, -3843.8965492125217, 0.0]
['beep', 0.0, 209.72641822414616, 0.0, 0.0, 0.0, 0.0, -3843.0248311787645, 0.0]
['beep', 0.0, 208.8994036792998, 0.0, 0.0, 0.0, 0.0, -3842.577796289658, 0.0]
['beep', 0.0, 207.35713331188362, 0.0, 0.0, 0.0, 0.0, -3843.181293389952, 0.0]
['beep', 0.0, 207.71476122316852, 0.0, 0.0, 0.0, 0.0, -3842.890720712033, 0.0]
['beep', 0.0, 207.20067110069647, 0.0, 0.0, 0.0, 0.0, -3844.14241840153, 0.0]
['beep', 0.0, 206.70893272267972, 0.0, 0.0, 0.0, 0.0, -3843.874197468066, 0.0]
['beep', 0.0, 207.06656063396463, 0.0, 0.0, 0.0, 0.0, -3843.650680023513, 0.0]
['beep', 0.0, 209.8381769464227, 0.0, 0.0, 0.0, 0.0, -3843.1589416454963, 0.0]
['beep', 0.0, 212.3639240698724, 0.0, 0.0, 0.0, 0.0, -3843.3154038566836, 0.0]
['beep', 0.0, 214.37558107085005, 0.0, 0.0, 0.0, 0.0, -3842.108409656097, 0.0]
['beep', 0.0, 214.93437468223271, 0.0, 0.0, 0.0, 0.0, -3842.7119067563904, 0.0]
['beep', 0.0, 213.36975257036121, 0.0, 0.0, 0.0, 0.0, -3842.242520122829, 0.0]
['beep', 0.0, 210.82165370245622, 0.0, 0.0, 0.0, 0.0, -3841.549616044714, 0.0]
['beep', 0.0, 211.58161301393665, 0.0, 0.0, 0.0, 0.0, -3842.3989823340157, 0.0]
['beep', 0.0, 211.29104033601766, 0.0, 0.0, 0.0, 0.0, -3842.3542788451055, 0.0]
['beep', 0.0, 209.39114205731656, 0.0, 0.0, 0.0, 0.0, -3843.181293389952, 0.0]
['beep', 0.0, 209.39114205731656, 0.0, 0.0, 0.0, 0.0, -3843.42716257896, 0.0]
['beep', 0.0, 209.63701124632493, 0.0, 0.0, 0.0, 0.0, -3843.874197468066, 0.0]
['beep', 0.0, 210.15110136879701, 0.0, 0.0, 0.0, 0.0, -3845.2823573687506, 0.0]
['beep', 0.0, 209.74876996860147, 0.0, 0.0, 0.0, 0.0, -3843.7624387457895, 0.0]
['beep', 0.0, 209.30173507949533, 0.0, 0.0, 0.0, 0.0, -3844.745915501823, 0.0]
['beep', 0.0, 208.65353449029143, 0.0, 0.0, 0.0, 0.0, -3844.4776945683593, 0.0]
['beep', 0.0, 209.72641822414616, 0.0, 0.0, 0.0, 0.0, -3842.7342585008455, 0.0]
['beep', 0.0, 210.24050834661824, 0.0, 0.0, 0.0, 0.0, -3843.6730317679685, 0.0]
['beep', 0.0, 209.1899763572188, 0.0, 0.0, 0.0, 0.0, -3844.1200666570744, 0.0]
['beep', 0.0, 208.2512030900959, 0.0, 0.0, 0.0, 0.0, -3844.90237771301, 0.0]
['beep', 0.0, 207.603002500892, 0.0, 0.0, 0.0, 0.0, -3843.181293389952, 0.0]
['beep', 0.0, 207.71476122316852, 0.0, 0.0, 0.0, 0.0, -3843.3377556011387, 0.0]
['beep', 0.0, 207.22302284515177, 0.0, 0.0, 0.0, 0.0, -3844.4106393349934, 0.0]
['beep', 0.0, 208.8547001903892, 0.0, 0.0, 0.0, 0.0, -3843.9636044458875, 0.0]
['beep', 0.0, 208.5641275124702, 0.0, 0.0, 0.0, 0.0, -3844.589453290636, 0.0]
['beep', 0.0, 207.40183680079423, 0.0, 0.0, 0.0, 0.0, -3843.2483486233177, 0.0]
['beep', 0.0, 209.30173507949533, 0.0, 0.0, 0.0, 0.0, -3844.3659358460827, 0.0]
['beep', 0.0, 208.80999670147858, 0.0, 0.0, 0.0, 0.0, -3844.880025968555, 0.0]
['beep', 0.0, 208.11709262336407, 0.0, 0.0, 0.0, 0.0, -3844.589453290636, 0.0]
['beep', 0.0, 206.84304318941156, 0.0, 0.0, 0.0, 0.0, -3845.3717643465716, 0.0]
['beep', 0.0, 206.10543562238644, 0.0, 0.0, 0.0, 0.0, -3844.2541771238066, 0.0]
['beep', 0.0, 206.37365655585012, 0.0, 0.0, 0.0, 0.0, -3843.4048108345046, 0.0]
['beep', 0.0, 207.9382786677216, 0.0, 0.0, 0.0, 0.0, -3843.7624387457895, 0.0]
['beep', 0.0, 207.58065075643668, 0.0, 0.0, 0.0, 0.0, -3844.9247294574657, 0.0]
['beep', 0.0, 206.79833970050095, 0.0, 0.0, 0.0, 0.0, -3846.5340550582478, 0.0]
['beep', 0.0, 207.44654028970484, 0.0, 0.0, 0.0, 0.0, -3844.8576742241, 0.0]
['beep', 0.0, 206.39600830030543, 0.0, 0.0, 0.0, 0.0, -3843.650680023513, 0.0]
['beep', 0.0, 206.57482225594788, 0.0, 0.0, 0.0, 0.0, -3843.3601073455943, 0.0]
['beep', 0.0, 208.2288513456406, 0.0, 0.0, 0.0, 0.0, -3844.7682672462784, 0.0]
['beep', 0.0, 207.13361586733055, 0.0, 0.0, 0.0, 0.0, -3844.812970735189, 0.0]
['beep', 0.0, 206.3513048113948, 0.0, 0.0, 0.0, 0.0, -3844.90237771301, 0.0]
['beep', 0.0, 207.49124377861546, 0.0, 0.0, 0.0, 0.0, -3845.170598646474, 0.0]
['beep', 0.0, 208.8770519348445, 0.0, 0.0, 0.0, 0.0, -3845.483523068848, 0.0]
['beep', 0.0, 209.39114205731656, 0.0, 0.0, 0.0, 0.0, -3844.7682672462784, 0.0]
['beep', 0.0, 208.8770519348445, 0.0, 0.0, 0.0, 0.0, -3845.0364881797423, 0.0]
['beep', 0.0, 209.05586589048696, 0.0, 0.0, 0.0, 0.0, -3846.71286901389, 0.0]
['beep', 0.0, 208.29590657900653, 0.0, 0.0, 0.0, 0.0, -3846.6011102916136, 0.0]
['beep', 0.0, 209.10056937939757, 0.0, 0.0, 0.0, 0.0, -3847.070496925175, 0.0]
['beep', 0.0, 210.4640257911713, 0.0, 0.0, 0.0, 0.0, -3847.852807981111, 0.0]
['beep', 0.0, 208.47472053464898, 0.0, 0.0, 0.0, 0.0, -3848.5904155481358, 0.0]
['beep', 0.0, 207.40183680079423, 0.0, 0.0, 0.0, 0.0, -3847.5622353031918, 0.0]
['beep', 0.0, 208.18414785673, 0.0, 0.0, 0.0, 0.0, -3846.757572502801, 0.0]
['beep', 0.0, 209.63701124632493, 0.0, 0.0, 0.0, 0.0, -3848.456305081404, 0.0]
['beep', 0.0, 209.63701124632493, 0.0, 0.0, 0.0, 0.0, -3849.2386161373397, 0.0]
['beep', 0.0, 210.01699090206517, 0.0, 0.0, 0.0, 0.0, -3848.366898103583, 0.0]
['beep', 0.0, 208.45236879019367, 0.0, 0.0, 0.0, 0.0, -3847.5622353031918, 0.0]
['beep', 0.0, 208.2288513456406, 0.0, 0.0, 0.0, 0.0, -3847.741049258834, 0.0]
['beep', 0.0, 209.860528690878, 0.0, 0.0, 0.0, 0.0, -3847.9645667033874, 0.0]
['beep', 0.0, 210.53108102453723, 0.0, 0.0, 0.0, 0.0, -3849.104505670608, 0.0]
['beep', 0.0, 210.93341242473275, 0.0, 0.0, 0.0, 0.0, -3849.395078348527, 0.0]
['beep', 0.0, 210.01699090206517, 0.0, 0.0, 0.0, 0.0, -3849.6409475375353, 0.0]
['beep', 0.0, 209.77112171305677, 0.0, 0.0, 0.0, 0.0, -3848.232787636851, 0.0]
['beep', 0.0, 210.3969705578054, 0.0, 0.0, 0.0, 0.0, -3848.9927469483314, 0.0]
['beep', 0.0, 211.20163335819643, 0.0, 0.0, 0.0, 0.0, -3849.775058004267, 0.0]
['beep', 0.0, 210.1063978798864, 0.0, 0.0, 0.0, 0.0, -3851.1608661604964, 0.0]
['beep', 0.0, 208.31825832346183, 0.0, 0.0, 0.0, 0.0, -3851.04910743822, 0.0]
['beep', 0.0, 208.4970722791043, 0.0, 0.0, 0.0, 0.0, -3851.742011516334, 0.0]
['beep', 0.0, 209.72641822414616, 0.0, 0.0, 0.0, 0.0, -3851.5631975606916, 0.0]
['beep', 0.0, 208.67588623474674, 0.0, 0.0, 0.0, 0.0, -3852.9266539724654, 0.0]
['beep', 0.0, 208.34061006791714, 0.0, 0.0, 0.0, 0.0, -3854.0665929396864, 0.0]
['beep', 0.0, 208.2064996011853, 0.0, 0.0, 0.0, 0.0, -3853.261930139295, 0.0]
['beep', 0.0, 207.55829901198138, 0.0, 0.0, 0.0, 0.0, -3853.910130728499, 0.0]
['beep', 0.0, 208.96645891266573, 0.0, 0.0, 0.0, 0.0, -3854.7594970178006, 0.0]
['beep', 0.0, 210.50872928008192, 0.0, 0.0, 0.0, 0.0, -3853.8430754951332, 0.0]
['beep', 0.0, 210.24050834661824, 0.0, 0.0, 0.0, 0.0, -3851.630252794058, 0.0]
['beep', 0.0, 209.8381769464227, 0.0, 0.0, 0.0, 0.0, -3851.272624882773, 0.0]
['beep', 0.0, 208.76529321256797, 0.0, 0.0, 0.0, 0.0, -3851.674956282968, 0.0]
['beep', 0.0, 210.53108102453723, 0.0, 0.0, 0.0, 0.0, -3852.3455086166277, 0.0]
['beep', 0.0, 210.95576416918806, 0.0, 0.0, 0.0, 0.0, -3853.23957839484, 0.0]
['beep', 0.0, 211.62631650284726, 0.0, 0.0, 0.0, 0.0, -3852.5690260611805, 0.0]
['beep', 0.0, 211.69337173621318, 0.0, 0.0, 0.0, 0.0, -3852.9266539724654, 0.0]
['beep', 0.0, 211.24633684710705, 0.0, 0.0, 0.0, 0.0, -3852.300805127717, 0.0]
['beep', 0.0, 211.64866824730257, 0.0, 0.0, 0.0, 0.0, -3852.323156872172, 0.0]
['beep', 0.0, 212.76625547006793, 0.0, 0.0, 0.0, 0.0, -3852.8595987390995, 0.0]
['beep', 0.0, 212.25216534759588, 0.0, 0.0, 0.0, 0.0, -3850.8926452270325, 0.0]
['beep', 0.0, 211.17928161374113, 0.0, 0.0, 0.0, 0.0, -3851.272624882773, 0.0]
['beep', 0.0, 210.35226706889478, 0.0, 0.0, 0.0, 0.0, -3850.624424293569, 0.0]
['beep', 0.0, 211.4027990582942, 0.0, 0.0, 0.0, 0.0, -3851.138514416041, 0.0]
['beep', 0.0, 211.64866824730257, 0.0, 0.0, 0.0, 0.0, -3852.457267338904, 0.0]
['beep', 0.0, 210.3969705578054, 0.0, 0.0, 0.0, 0.0, -3851.4067353495047, 0.0]
['beep', 0.0, 209.59230775741432, 0.0, 0.0, 0.0, 0.0, -3850.914996971488, 0.0]
['beep', 0.0, 209.10056937939757, 0.0, 0.0, 0.0, 0.0, -3851.3173283716833, 0.0]
['beep', 0.0, 208.02768564554285, 0.0, 0.0, 0.0, 0.0, -3852.591377805636, 0.0]
['beep', 0.0, 208.76529321256797, 0.0, 0.0, 0.0, 0.0, -3853.753668517312, 0.0]
['beep', 0.0, 208.05003738999815, 0.0, 0.0, 0.0, 0.0, -3852.725488272368, 0.0]
['beep', 0.0, 208.5194240235596, 0.0, 0.0, 0.0, 0.0, -3853.261930139295, 0.0]
['beep', 0.0, 207.40183680079423, 0.0, 0.0, 0.0, 0.0, -3853.5077993283035, 0.0]
['beep', 0.0, 208.2512030900959, 0.0, 0.0, 0.0, 0.0, -3852.613729550091, 0.0]
['beep', 0.0, 208.98881065712104, 0.0, 0.0, 0.0, 0.0, -3851.8984737275214, 0.0]
['beep', 0.0, 208.98881065712104, 0.0, 0.0, 0.0, 0.0, -3852.032584194253, 0.0]
['beep', 0.0, 208.29590657900653, 0.0, 0.0, 0.0, 0.0, -3853.61955805058, 0.0]
['beep', 0.0, 208.65353449029143, 0.0, 0.0, 0.0, 0.0, -3853.686613283946, 0.0]
['beep', 0.0, 210.0840461354311, 0.0, 0.0, 0.0, 0.0, -3852.9266539724654, 0.0]
['beep', 0.0, 209.8828804353333, 0.0, 0.0, 0.0, 0.0, -3854.580683062158, 0.0]
['beep', 0.0, 211.31339208047297, 0.0, 0.0, 0.0, 0.0, -3885.3813869215714, 0.0]
['beep', 0.0, 210.84400544691152, 0.0, 0.0, 0.0, 0.0, -3920.0265908272972, 0.0]
['beep', 0.0, 211.20163335819643, 0.0, 0.0, 0.0, 0.0, -3875.390157150049, 0.0]
['beep', 0.0, 211.1345781248305, 0.0, 0.0, 0.0, 0.0, -3853.23957839484, 0.0]
['beep', 0.0, 211.4475025472048, 0.0, 0.0, 0.0, 0.0, -3883.3473781761386, 0.0]
['beep', 0.0, 212.0062961585875, 0.0, 0.0, 0.0, 0.0, -3925.5698234522133, 0.0]
['beep', 0.0, 210.28521183552886, 0.0, 0.0, 0.0, 0.0, -3928.140274064574, 0.0]
['beep', 0.0, 211.24633684710705, 0.0, 0.0, 0.0, 0.0, -3928.20732929794, 0.0]
['beep', 0.0, 212.25216534759588, 0.0, 0.0, 0.0, 0.0, -3927.514425219825, 0.0]
['beep', 0.0, 211.69337173621318, 0.0, 0.0, 0.0, 0.0, -3927.9614601089315, 0.0]
['beep', 0.0, 210.93341242473275, 0.0, 0.0, 0.0, 0.0, -3929.235509542884, 0.0]
['beep', 0.0, 210.01699090206517, 0.0, 0.0, 0.0, 0.0, -3927.849701386655, 0.0]
['beep', 0.0, 209.68171473523554, 0.0, 0.0, 0.0, 0.0, -3927.6932391754676, 0.0]
['beep', 0.0, 210.64283974681376, 0.0, 0.0, 0.0, 0.0, -3928.1849775534843, 0.0]
['beep', 0.0, 212.14040662531934, 0.0, 0.0, 0.0, 0.0, -3928.2743845313057, 0.0]
['beep', 0.0, 212.43097930323833, 0.0, 0.0, 0.0, 0.0, -3927.357963008638, 0.0]
['beep', 0.0, 212.16275836977465, 0.0, 0.0, 0.0, 0.0, -3927.581480453191, 0.0]
['beep', 0.0, 211.29104033601766, 0.0, 0.0, 0.0, 0.0, -3926.195672296962, 0.0]
['beep', 0.0, 212.18511011422996, 0.0, 0.0, 0.0, 0.0, -3927.4026664975486, 0.0]
['beep', 0.0, 211.4251508027495, 0.0, 0.0, 0.0, 0.0, -3927.134445564085, 0.0]
['beep', 0.0, 211.7604269695791, 0.0, 0.0, 0.0, 0.0, -3927.2462042863617, 0.0]
['beep', 0.0, 212.0286479030428, 0.0, 0.0, 0.0, 0.0, -3927.268556030817, 0.0]
['beep', 0.0, 210.48637753562662, 0.0, 0.0, 0.0, 0.0, -3927.0226868418085, 0.0]
['beep', 0.0, 211.7604269695791, 0.0, 0.0, 0.0, 0.0, -3927.804997897744, 0.0]
['beep', 0.0, 211.62631650284726, 0.0, 0.0, 0.0, 0.0, -3927.939108364476, 0.0]
['beep', 0.0, 211.4251508027495, 0.0, 0.0, 0.0, 0.0, -3927.849701386655, 0.0]
['beep', 0.0, 211.9839444141322, 0.0, 0.0, 0.0, 0.0, -3926.642707186068, 0.0]
['beep', 0.0, 211.29104033601766, 0.0, 0.0, 0.0, 0.0, -3925.5027682188475, 0.0]
['beep', 0.0, 211.62631650284726, 0.0, 0.0, 0.0, 0.0, -3925.7933408967665, 0.0]
['beep', 0.0, 212.2968688365065, 0.0, 0.0, 0.0, 0.0, -3924.92162286301, 0.0]
['beep', 0.0, 211.8051304584897, 0.0, 0.0, 0.0, 0.0, -3925.68158217449, 0.0]
['beep', 0.0, 211.1345781248305, 0.0, 0.0, 0.0, 0.0, -3926.4191897415153, 0.0]
['beep', 0.0, 211.02281940255398, 0.0, 0.0, 0.0, 0.0, -3926.0615618302304, 0.0]
['beep', 0.0, 210.48637753562662, 0.0, 0.0, 0.0, 0.0, -3926.4638932304256, 0.0]
['beep', 0.0, 210.97811591364336, 0.0, 0.0, 0.0, 0.0, -3926.553300208247, 0.0]
['beep', 0.0, 212.07335139195342, 0.0, 0.0, 0.0, 0.0, -3926.285079274783, 0.0]
['beep', 0.0, 211.51455778057073, 0.0, 0.0, 0.0, 0.0, -3925.2792507742947, 0.0]
['beep', 0.0, 212.18511011422996, 0.0, 0.0, 0.0, 0.0, -3925.30160251875, 0.0]
['beep', 0.0, 212.6768484922467, 0.0, 0.0, 0.0, 0.0, -3925.5698234522133, 0.0]
['beep', 0.0, 213.21329035917407, 0.0, 0.0, 0.0, 0.0, -3925.7039339189455, 0.0]
['beep', 0.0, 211.96159266967686, 0.0, 0.0, 0.0, 0.0, -3926.039210085775, 0.0]
['beep', 0.0, 211.67101999175787, 0.0, 0.0, 0.0, 0.0, -3924.8545676296435, 0.0]
['beep', 0.0, 212.14040662531934, 0.0, 0.0, 0.0, 0.0, -3924.5639949517245, 0.0]
['beep', 0.0, 213.50386303709305, 0.0, 0.0, 0.0, 0.0, -3924.5416432072693, 0.0]
['beep', 0.0, 213.6156217593696, 0.0, 0.0, 0.0, 0.0, -3924.5639949517245, 0.0]
['beep', 0.0, 213.99560141510983, 0.0, 0.0, 0.0, 0.0, -3924.295774018261, 0.0]
['beep', 0.0, 213.6826769927355, 0.0, 0.0, 0.0, 0.0, -3923.2228902844063, 0.0]
['beep', 0.0, 213.81678745946735, 0.0, 0.0, 0.0, 0.0, -3922.708800161934, 0.0]
['beep', 0.0, 213.81678745946735, 0.0, 0.0, 0.0, 0.0, -3923.7593321513336, 0.0]
['beep', 0.0, 213.81678745946735, 0.0, 0.0, 0.0, 0.0, -3924.4745879739035, 0.0]
['beep', 0.0, 213.6826769927355, 0.0, 0.0, 0.0, 0.0, -3924.228718784895, 0.0]
['beep', 0.0, 213.48151129263775, 0.0, 0.0, 0.0, 0.0, -3923.781683895789, 0.0]
['beep', 0.0, 213.74973222610143, 0.0, 0.0, 0.0, 0.0, -3922.8876141175765, 0.0]
['beep', 0.0, 214.8449677044115, 0.0, 0.0, 0.0, 0.0, -3922.9323176064872, 0.0]
['beep', 0.0, 213.86149094837796, 0.0, 0.0, 0.0, 0.0, -3924.273422273806, 0.0]
['beep', 0.0, 213.74973222610143, 0.0, 0.0, 0.0, 0.0, -3923.669925173512, 0.0]
['beep', 0.0, 213.19093861471876, 0.0, 0.0, 0.0, 0.0, -3922.2841170172833, 0.0]
['beep', 0.0, 212.87801419234447, 0.0, 0.0, 0.0, 0.0, -3923.6028699401463, 0.0]
['beep', 0.0, 213.10153163689753, 0.0, 0.0, 0.0, 0.0, -3923.558166451236, 0.0]
['beep', 0.0, 212.699200236702, 0.0, 0.0, 0.0, 0.0, -3924.7875123962776, 0.0]
['beep', 0.0, 248.86432276538883, 0.0, 0.0, 0.0, 0.0, -3925.323954263205, 0.0]
['beep', 0.0, 296.3617797329163, 0.0, 0.0, 0.0, 0.0, -3924.7875123962776, 0.0]
['beep', 0.0, 241.1753226727632, 0.0, 0.0, 0.0, 0.0, -3924.3404775071717, 0.0]
['beep', 0.0, 214.5990985154031, 0.0, 0.0, 0.0, 0.0, -3924.7204571629118, 0.0]
['beep', 0.0, 225.3726393428611, 0.0, 0.0, 0.0, 0.0, -3923.4911112178697, 0.0]
['beep', 0.0, 287.0858057839639, 0.0, 0.0, 0.0, 0.0, -3923.1781867954955, 0.0]
['beep', 0.0, 307.6047071939358, 0.0, 0.0, 0.0, 0.0, -3922.909965862032, 0.0]
['beep', 0.0, 262.2530176941178, 0.0, 0.0, 0.0, 0.0, -3922.4852827173813, 0.0]
['beep', 0.0, 216.63310726083606, 0.0, 0.0, 0.0, 0.0, -3922.1947100394623, 0.0]
['beep', 0.0, 237.375526115361, 0.0, 0.0, 0.0, 0.0, -3923.334649006683, 0.0]
['beep', 0.0, 301.32386700199453, 0.0, 0.0, 0.0, 0.0, -3922.753503650845, 0.0]
['beep', 0.0, 312.34327701846087, 0.0, 0.0, 0.0, 0.0, -3921.591212939169, 0.0]
['beep', 0.0, 282.6378086373578, 0.0, 0.0, 0.0, 0.0, -3921.9935443393642, 0.0]
['beep', 0.0, 223.51744455307062, 0.0, 0.0, 0.0, 0.0, -3922.7311519063896, 0.0]
['beep', 0.0, 249.33370939895028, 0.0, 0.0, 0.0, 0.0, -3924.072256573708, 0.0]
['beep', 0.0, 307.2470792826509, 0.0, 0.0, 0.0, 0.0, -3922.708800161934, 0.0]
['beep', 0.0, 312.209166551729, 0.0, 0.0, 0.0, 0.0, -3920.8759571165992, 0.0]
['beep', 0.0, 298.57460243399174, 0.0, 0.0, 0.0, 0.0, -3920.8759571165992, 0.0]
['beep', 0.0, 236.3473458704169, 0.0, 0.0, 0.0, 0.0, -3921.658268172535, 0.0]
['beep', 0.0, 258.8779042813664, 0.0, 0.0, 0.0, 0.0, -3921.702971661445, 0.0]
['beep', 0.0, 309.8845851283771, 0.0, 0.0, 0.0, 0.0, -3922.708800161934, 0.0]
['beep', 0.0, 313.2820502855838, 0.0, 0.0, 0.0, 0.0, -3922.641744928568, 0.0]
['beep', 0.0, 308.7669979056118, 0.0, 0.0, 0.0, 0.0, -3921.814730383722, 0.0]
['beep', 0.0, 258.632035092358, 0.0, 0.0, 0.0, 0.0, -3922.2841170172833, 0.0]
['beep', 0.0, 259.41434614829376, 0.0, 0.0, 0.0, 0.0, -3922.2170617839174, 0.0]
['beep', 0.0, 308.856404883433, 0.0, 0.0, 0.0, 0.0, -3922.1276548060964, 0.0]
['beep', 0.0, 313.05853284103074, 0.0, 0.0, 0.0, 0.0, -3921.8817856170876, 0.0]
['beep', 0.0, 312.9914776076648, 0.0, 0.0, 0.0, 0.0, -3922.1723582950067, 0.0]
['beep', 0.0, 313.8855473858771, 0.0, 0.0, 0.0, 0.0, -3922.0829513171857, 0.0]
['beep', 0.0, 312.9467741187542, 0.0, 0.0, 0.0, 0.0, -3920.674791416501, 0.0]
['beep', 0.0, 313.39380900786034, 0.0, 0.0, 0.0, 0.0, -3920.652439672046, 0.0]
['beep', 0.0, 312.5220909741034, 0.0, 0.0, 0.0, 0.0, -3920.808901883233, 0.0]
['beep', 0.0, 305.7495124041453, 0.0, 0.0, 0.0, 0.0, -3919.199576282451, 0.0]
['beep', 0.0, 248.01495647608718, 0.0, 0.0, 0.0, 0.0, -3919.8254251271997, 0.0]
['beep', 0.0, 256.75448855811226, 0.0, 0.0, 0.0, 0.0, -3919.2442797713616, 0.0]
['beep', 0.0, 309.1916810502626, 0.0, 0.0, 0.0, 0.0, -3920.9653640944202, 0.0]
['beep', 0.0, 311.8515386404441, 0.0, 0.0, 0.0, 0.0, -3919.9818873383865, 0.0]
['beep', 0.0, 311.62802119589105, 0.0, 0.0, 0.0, 0.0, -3917.9478785929537, 0.0]
['beep', 0.0, 312.209166551729, 0.0, 0.0, 0.0, 0.0, -3917.5008437038477, 0.0]
['beep', 0.0, 312.9020706298436, 0.0, 0.0, 0.0, 0.0, -3917.9478785929537, 0.0]
['beep', 0.0, 313.6396781968687, 0.0, 0.0, 0.0, 0.0, -3918.5290239487917, 0.0]
['beep', 0.0, 313.39380900786034, 0.0, 0.0, 0.0, 0.0, -3918.9537070934425, 0.0]
['beep', 0.0, 309.0799223279861, 0.0, 0.0, 0.0, 0.0, -3917.523195448303, 0.0]
['beep', 0.0, 253.5581891010033, 0.0, 0.0, 0.0, 0.0, -3916.6514774145458, 0.0]
['beep', 0.0, 263.54941887252556, 0.0, 0.0, 0.0, 0.0, -3916.0479803142525, 0.0]
['beep', 0.0, 312.3879805073715, 0.0, 0.0, 0.0, 0.0, -3915.9585733364315, 0.0]
['beep', 0.0, 313.1702915633073, 0.0, 0.0, 0.0, 0.0, -3914.7739308803, 0.0]
['beep', 0.0, 309.8175298950112, 0.0, 0.0, 0.0, 0.0, -3914.103378546641, 0.0]
['beep', 0.0, 269.2044102197183, 0.0, 0.0, 0.0, 0.0, -3914.6621721580236, 0.0]
['beep', 0.0, 261.82833454946694, 0.0, 0.0, 0.0, 0.0, -3915.802111125244, 0.0]
['beep', 0.0, 308.2976112720503, 0.0, 0.0, 0.0, 0.0, -3917.3220297482053, 0.0]
['beep', 0.0, 310.8680618844106, 0.0, 0.0, 0.0, 0.0, -3917.0538088147414, 0.0]
['beep', 0.0, 311.24804154015084, 0.0, 0.0, 0.0, 0.0, -3917.009105325831, 0.0]
['beep', 0.0, 312.74560841865645, 0.0, 0.0, 0.0, 0.0, -3917.5008437038477, 0.0]
['beep', 0.0, 313.3267537744944, 0.0, 0.0, 0.0, 0.0, -3919.132521049085, 0.0]
['beep', 0.0, 312.566794463014, 0.0, 0.0, 0.0, 0.0, -3917.5455471927585, 0.0]
['beep', 0.0, 311.8291868959888, 0.0, 0.0, 0.0, 0.0, -3918.0596373152302, 0.0]
['beep', 0.0, 308.09644557195253, 0.0, 0.0, 0.0, 0.0, -3919.043114071264, 0.0]
['beep', 0.0, 258.9449595147323, 0.0, 0.0, 0.0, 0.0, -3917.769064637311, 0.0]
['beep', 0.0, 257.9167792697882, 0.0, 0.0, 0.0, 0.0, -3917.1208640481073, 0.0]
['beep', 0.0, 309.61636419491344, 0.0, 0.0, 0.0, 0.0, -3917.2773262592946, 0.0]
['beep', 0.0, 312.74560841865645, 0.0, 0.0, 0.0, 0.0, -3918.0596373152302, 0.0]
['beep', 0.0, 311.2033380512402, 0.0, 0.0, 0.0, 0.0, -3917.8584716151327, 0.0]
['beep', 0.0, 311.89624212935473, 0.0, 0.0, 0.0, 0.0, -3917.6126024261243, 0.0]
['beep', 0.0, 312.6785531852905, 0.0, 0.0, 0.0, 0.0, -3917.6349541705795, 0.0]
['beep', 0.0, 311.98564910717596, 0.0, 0.0, 0.0, 0.0, -3916.1820907809847, 0.0]
['beep', 0.0, 311.7174281737123, 0.0, 0.0, 0.0, 0.0, -3914.840986113666, 0.0]
['beep', 0.0, 308.61053569442464, 0.0, 0.0, 0.0, 0.0, -3913.7010471464455, 0.0]
['beep', 0.0, 260.10725022640827, 0.0, 0.0, 0.0, 0.0, -3913.879861102088, 0.0]
['beep', 0.0, 258.43086939226026, 0.0, 0.0, 0.0, 0.0, -3915.466834958415, 0.0]
['beep', 0.0, 308.14114906086314, 0.0, 0.0, 0.0, 0.0, -3914.818634369211, 0.0]
['beep', 0.0, 310.30926827302795, 0.0, 0.0, 0.0, 0.0, -3915.511538447325, 0.0]
['beep', 0.0, 309.3928467503604, 0.0, 0.0, 0.0, 0.0, -3913.7010471464455, 0.0]
['beep', 0.0, 310.3763235063939, 0.0, 0.0, 0.0, 0.0, -3913.0304948127864, 0.0]
['beep', 0.0, 311.1809863067849, 0.0, 0.0, 0.0, 0.0, -3914.6398204135685, 0.0]
['beep', 0.0, 310.95746886223185, 0.0, 0.0, 0.0, 0.0, -3914.103378546641, 0.0]
['beep', 0.0, 310.8680618844106, 0.0, 0.0, 0.0, 0.0, -3914.39395122456, 0.0]
['beep', 0.0, 307.9623351052207, 0.0, 0.0, 0.0, 0.0, -3913.3434192351606, 0.0]
['beep', 0.0, 259.34729091492784, 0.0, 0.0, 0.0, 0.0, -3914.0586750577304, 0.0]
['beep', 0.0, 257.06741298048655, 0.0, 0.0, 0.0, 0.0, -3915.578593680691, 0.0]
['beep', 0.0, 307.2917827715615, 0.0, 0.0, 0.0, 0.0, -3912.7622738793225, 0.0]
['beep', 0.0, 310.5551374620363, 0.0, 0.0, 0.0, 0.0, -3913.544584935258, 0.0]
['beep', 0.0, 310.3763235063939, 0.0, 0.0, 0.0, 0.0, -3914.1480820355514, 0.0]
['beep', 0.0, 310.91276537332124, 0.0, 0.0, 0.0, 0.0, -3913.946916335454, 0.0]
['beep', 0.0, 312.9691258632095, 0.0, 0.0, 0.0, 0.0, -3914.840986113666, 0.0]
['beep', 0.0, 312.76796016311175, 0.0, 0.0, 0.0, 0.0, -3913.812805868722, 0.0]
['beep', 0.0, 312.5220909741034, 0.0, 0.0, 0.0, 0.0, -3912.4717012014034, 0.0]
['beep', 0.0, 309.5046054726369, 0.0, 0.0, 0.0, 0.0, -3911.48822444537, 0.0]
['beep', 0.0, 260.71074732670155, 0.0, 0.0, 0.0, 0.0, -3911.3988174675487, 0.0]
['beep', 0.0, 256.95565425821, 0.0, 0.0, 0.0, 0.0, -3911.0188378118087, 0.0]
['beep', 0.0, 309.03521883907547, 0.0, 0.0, 0.0, 0.0, -3911.86820410111, 0.0]
['beep', 0.0, 312.8350153964777, 0.0, 0.0, 0.0, 0.0, -3912.561108179225, 0.0]
['beep', 0.0, 310.5551374620363, 0.0, 0.0, 0.0, 0.0, -3912.6952186459566, 0.0]
['beep', 0.0, 310.95746886223185, 0.0, 0.0, 0.0, 0.0, -3911.979962823387, 0.0]
['beep', 0.0, 312.34327701846087, 0.0, 0.0, 0.0, 0.0, -3911.5105761898253, 0.0]
['beep', 0.0, 311.65037294034636, 0.0, 0.0, 0.0, 0.0, -3911.5329279342805, 0.0]
['beep', 0.0, 311.89624212935473, 0.0, 0.0, 0.0, 0.0, -3910.527099433792, 0.0]
['beep', 0.0, 308.5434804610587, 0.0, 0.0, 0.0, 0.0, -3910.01300931132, 0.0]
['beep', 0.0, 260.2190089486848, 0.0, 0.0, 0.0, 0.0, -3911.0635413007194, 0.0]
['beep', 0.0, 256.4415641357379, 0.0, 0.0, 0.0, 0.0, -3910.907079089532, 0.0]
['beep', 0.0, 309.63871593936875, 0.0, 0.0, 0.0, 0.0, -3911.3094104897277, 0.0]
['beep', 0.0, 312.6785531852905, 0.0, 0.0, 0.0, 0.0, -3910.4153407115155, 0.0]
['beep', 0.0, 311.02452409559777, 0.0, 0.0, 0.0, 0.0, -3908.336628477172, 0.0]
['beep', 0.0, 311.96329736272065, 0.0, 0.0, 0.0, 0.0, -3908.8507185996436, 0.0]
['beep', 0.0, 313.2596985411285, 0.0, 0.0, 0.0, 0.0, -3910.258878500328, 0.0]
['beep', 0.0, 312.79031190756706, 0.0, 0.0, 0.0, 0.0, -3911.1305965340853, 0.0]
['beep', 0.0, 312.8350153964777, 0.0, 0.0, 0.0, 0.0, -3910.527099433792, 0.0]
['beep', 0.0, 309.8398816394665, 0.0, 0.0, 0.0, 0.0, -3910.3482854781496, 0.0]
['beep', 0.0, 259.8166775484893, 0.0, 0.0, 0.0, 0.0, -3910.102416289141, 0.0]
['beep', 0.0, 261.6942240827351, 0.0, 0.0, 0.0, 0.0, -3910.4600442004257, 0.0]
['beep', 0.0, 310.62219269540225, 0.0, 0.0, 0.0, 0.0, -3910.616506411613, 0.0]
['beep', 0.0, 313.0138293521201, 0.0, 0.0, 0.0, 0.0, -3910.4823959448813, 0.0]
['beep', 0.0, 312.00800085163127, 0.0, 0.0, 0.0, 0.0, -3910.035361055775, 0.0]
['beep', 0.0, 311.5386142180698, 0.0, 0.0, 0.0, 0.0, -3909.3424569776607, 0.0]
['beep', 0.0, 312.34327701846087, 0.0, 0.0, 0.0, 0.0, -3909.878898844588, 0.0]
['beep', 0.0, 311.67272468480166, 0.0, 0.0, 0.0, 0.0, -3908.269573243806, 0.0]
['beep', 0.0, 311.7397799181676, 0.0, 0.0, 0.0, 0.0, -3908.4036837105377, 0.0]
['beep', 0.0, 308.0293903385866, 0.0, 0.0, 0.0, 0.0, -3907.8001866102445, 0.0]
['beep', 0.0, 258.8108490480005, 0.0, 0.0, 0.0, 0.0, -3907.621372654602, 0.0]
['beep', 0.0, 258.74379381463456, 0.0, 0.0, 0.0, 0.0, -3909.0965877886524, 0.0]
['beep', 0.0, 310.1081025729302, 0.0, 0.0, 0.0, 0.0, -3909.1859947664734, 0.0]
['beep', 0.0, 312.6785531852905, 0.0, 0.0, 0.0, 0.0, -3907.688427887968, 0.0]
['beep', 0.0, 311.89624212935473, 0.0, 0.0, 0.0, 0.0, -3908.336628477172, 0.0]
['beep', 0.0, 313.2596985411285, 0.0, 0.0, 0.0, 0.0, -3907.7331313768786, 0.0]
['beep', 0.0, 314.06436134151954, 0.0, 0.0, 0.0, 0.0, -3908.0237040547972, 0.0]
['beep', 0.0, 312.6338496963799, 0.0, 0.0, 0.0, 0.0, -3908.738959877367, 0.0]
['beep', 0.0, 313.0138293521201, 0.0, 0.0, 0.0, 0.0, -3907.4649104434147, 0.0]
['beep', 0.0, 312.9020706298436, 0.0, 0.0, 0.0, 0.0, -3907.10728253213, 0.0]
['beep', 0.0, 312.49973922964807, 0.0, 0.0, 0.0, 0.0, -3908.1131110326187, 0.0]
['beep', 0.0, 312.9691258632095, 0.0, 0.0, 0.0, 0.0, -3908.2248697548953, 0.0]
['beep', 0.0, 312.4103322518268, 0.0, 0.0, 0.0, 0.0, -3907.8001866102445, 0.0]
['beep', 0.0, 312.1868148072737, 0.0, 0.0, 0.0, 0.0, -3906.5484889207473, 0.0]
['beep', 0.0, 304.92249785929897, 0.0, 0.0, 0.0, 0.0, -3904.760349364323, 0.0]
['beep', 0.0, 248.55139834301454, 0.0, 0.0, 0.0, 0.0, -3904.9168115755097, 0.0]
['beep', 0.0, 251.6582908223022, 0.0, 0.0, 0.0, 0.0, -3904.4697766864037, 0.0]
['beep', 0.0, 305.90597461533247, 0.0, 0.0, 0.0, 0.0, -3906.4367301984707, 0.0]
['beep', 0.0, 309.4151984948157, 0.0, 0.0, 0.0, 0.0, -3905.5650121647136, 0.0]
['beep', 0.0, 308.90110837234363, 0.0, 0.0, 0.0, 0.0, -3904.20155575294, 0.0]
['beep', 0.0, 309.2140327947179, 0.0, 0.0, 0.0, 0.0, -3903.262782485817, 0.0]
['beep', 0.0, 310.8010066510447, 0.0, 0.0, 0.0, 0.0, -3905.050922042242, 0.0]
['beep', 0.0, 310.33162001748326, 0.0, 0.0, 0.0, 0.0, -3904.872108086599, 0.0]
['beep', 0.0, 309.25873628362854, 0.0, 0.0, 0.0, 0.0, -3903.754520863834, 0.0]
['beep', 0.0, 307.0235618380978, 0.0, 0.0, 0.0, 0.0, -3904.0897970306632, 0.0]
['beep', 0.0, 260.30841592650603, 0.0, 0.0, 0.0, 0.0, -3902.6592853855236, 0.0]
['beep', 0.0, 251.74769780012343, 0.0, 0.0, 0.0, 0.0, -3901.519346418303, 0.0]
['beep', 0.0, 306.55417520453636, 0.0, 0.0, 0.0, 0.0, -3902.5922301521578, 0.0]
['beep', 0.0, 310.1081025729302, 0.0, 0.0, 0.0, 0.0, -3902.9945615523534, 0.0]
['beep', 0.0, 308.5211287166034, 0.0, 0.0, 0.0, 0.0, -3902.458119685426, 0.0]
['beep', 0.0, 309.8622333839218, 0.0, 0.0, 0.0, 0.0, -3902.1228435185963, 0.0]
['beep', 0.0, 310.7786549065894, 0.0, 0.0, 0.0, 0.0, -3900.804090595733, 0.0]
['beep', 0.0, 310.1528060618408, 0.0, 0.0, 0.0, 0.0, -3901.6534568850348, 0.0]
['beep', 0.0, 310.1528060618408, 0.0, 0.0, 0.0, 0.0, -3901.9216778184987, 0.0]
['beep', 0.0, 308.14114906086314, 0.0, 0.0, 0.0, 0.0, -3901.496994673848, 0.0]
['beep', 0.0, 259.41434614829376, 0.0, 0.0, 0.0, 0.0, -3901.2511254848396, 0.0]
['beep', 0.0, 254.87694202386643, 0.0, 0.0, 0.0, 0.0, -3901.496994673848, 0.0]
['beep', 0.0, 308.5211287166034, 0.0, 0.0, 0.0, 0.0, -3901.0276080402864, 0.0]
['beep', 0.0, 312.566794463014, 0.0, 0.0, 0.0, 0.0, -3899.5076894173253, 0.0]
['beep', 0.0, 310.7563031621341, 0.0, 0.0, 0.0, 0.0, -3898.9935992948535, 0.0]
['beep', 0.0, 312.32092527400556, 0.0, 0.0, 0.0, 0.0, -3899.977076050887, 0.0]
['beep', 0.0, 311.7174281737123, 0.0, 0.0, 0.0, 0.0, -3900.7370353623674, 0.0]
['beep', 0.0, 310.93511711777654, 0.0, 0.0, 0.0, 0.0, -3901.3181807182054, 0.0]
['beep', 0.0, 310.4210269953045, 0.0, 0.0, 0.0, 0.0, -3901.206421995929, 0.0]
['beep', 0.0, 310.1304543173855, 0.0, 0.0, 0.0, 0.0, -3900.0888347731634, 0.0]
['beep', 0.0, 310.7115996732235, 0.0, 0.0, 0.0, 0.0, -3899.48533767287, 0.0]
['beep', 0.0, 311.94094561826535, 0.0, 0.0, 0.0, 0.0, -3900.0441312842527, 0.0]
['beep', 0.0, 311.27039328460614, 0.0, 0.0, 0.0, 0.0, -3900.91584931801, 0.0]
['beep', 0.0, 309.2140327947179, 0.0, 0.0, 0.0, 0.0, -3899.9547243064317, 0.0]
['beep', 0.0, 303.8049106365336, 0.0, 0.0, 0.0, 0.0, -3899.6417998840575, 0.0]
['beep', 0.0, 247.41145937579387, 0.0, 0.0, 0.0, 0.0, -3899.552392906236, 0.0]
['beep', 0.0, 250.42894487726034, 0.0, 0.0, 0.0, 0.0, -3897.272514971795, 0.0]
['beep', 0.0, 306.9565066047319, 0.0, 0.0, 0.0, 0.0, -3897.1607562495183, 0.0]
['beep', 0.0, 310.1751578062961, 0.0, 0.0, 0.0, 0.0, -3896.3784451935826, 0.0]
['beep', 0.0, 308.09644557195253, 0.0, 0.0, 0.0, 0.0, -3896.7360731048675, 0.0]
['beep', 0.0, 308.94581186125424, 0.0, 0.0, 0.0, 0.0, -3897.6971981164456, 0.0]
['beep', 0.0, 310.64454443985755, 0.0, 0.0, 0.0, 0.0, -3897.3842736940715, 0.0]
['beep', 0.0, 311.8291868959888, 0.0, 0.0, 0.0, 0.0, -3896.8254800826885, 0.0]
['beep', 0.0, 311.00217235114246, 0.0, 0.0, 0.0, 0.0, -3896.5125556603143, 0.0]
['beep', 0.0, 309.5269572170922, 0.0, 0.0, 0.0, 0.0, -3897.0266457827865, 0.0]
['beep', 0.0, 274.56882888899196, 0.0, 0.0, 0.0, 0.0, -3896.4007969380377, 0.0]
['beep', 0.0, 253.64759607882453, 0.0, 0.0, 0.0, 0.0, -3897.3395702051607, 0.0]
['beep', 0.0, 306.19654729325146, 0.0, 0.0, 0.0, 0.0, -3898.0995295166413, 0.0]
['beep', 0.0, 309.34814326144976, 0.0, 0.0, 0.0, 0.0, -3898.01012253882, 0.0]
['beep', 0.0, 308.3646665054162, 0.0, 0.0, 0.0, 0.0, -3897.0489975272417, 0.0]
['beep', 0.0, 308.18585254977376, 0.0, 0.0, 0.0, 0.0, -3896.065520771208, 0.0]
['beep', 0.0, 308.09644557195253, 0.0, 0.0, 0.0, 0.0, -3897.138404505063, 0.0]
['beep', 0.0, 308.3646665054162, 0.0, 0.0, 0.0, 0.0, -3897.004294038331, 0.0]
['beep', 0.0, 307.47059672720394, 0.0, 0.0, 0.0, 0.0, -3896.981942293876, 0.0]
['beep', 0.0, 304.7436839036565, 0.0, 0.0, 0.0, 0.0, -3897.272514971795, 0.0]
['beep', 0.0, 262.20831420520716, 0.0, 0.0, 0.0, 0.0, -3896.780776593778, 0.0]
['beep', 0.0, 248.55139834301454, 0.0, 0.0, 0.0, 0.0, -3897.0489975272417, 0.0]
['beep', 0.0, 301.8826606133772, 0.0, 0.0, 0.0, 0.0, -3897.496032416348, 0.0]
['beep', 0.0, 306.7553409046341, 0.0, 0.0, 0.0, 0.0, -3898.3453987056496, 0.0]
['beep', 0.0, 306.84474788245535, 0.0, 0.0, 0.0, 0.0, -3898.4348056834706, 0.0]
['beep', 0.0, 308.14114906086314, 0.0, 0.0, 0.0, 0.0, -3897.1831079939734, 0.0]
['beep', 0.0, 308.3646665054162, 0.0, 0.0, 0.0, 0.0, -3896.0878725156635, 0.0]
['beep', 0.0, 308.20820429422906, 0.0, 0.0, 0.0, 0.0, -3893.67388411449, 0.0]
['beep', 0.0, 308.4093699943268, 0.0, 0.0, 0.0, 0.0, -3894.1432707480517, 0.0]
['beep', 0.0, 306.17419554879615, 0.0, 0.0, 0.0, 0.0, -3893.942105047954, 0.0]
['beep', 0.0, 265.1140409843971, 0.0, 0.0, 0.0, 0.0, -3894.2773812147834, 0.0]
['beep', 0.0, 248.93137799875475, 0.0, 0.0, 0.0, 0.0, -3895.8196515821996, 0.0]
['beep', 0.0, 301.39092223536045, 0.0, 0.0, 0.0, 0.0, -3895.618485882102, 0.0]
['beep', 0.0, 306.53182346008106, 0.0, 0.0, 0.0, 0.0, -3893.4950701588477, 0.0]
['beep', 0.0, 307.13532056037434, 0.0, 0.0, 0.0, 0.0, -3893.6068288811243, 0.0]
['beep', 0.0, 307.15767230482965, 0.0, 0.0, 0.0, 0.0, -3894.5456021482473, 0.0]
['beep', 0.0, 307.47059672720394, 0.0, 0.0, 0.0, 0.0, -3894.5008986593366, 0.0]
['beep', 0.0, 307.2470792826509, 0.0, 0.0, 0.0, 0.0, -3893.9197533034985, 0.0]
['beep', 0.0, 307.403541493838, 0.0, 0.0, 0.0, 0.0, -3892.4668899139037, 0.0]
['beep', 0.0, 306.46476822671514, 0.0, 0.0, 0.0, 0.0, -3891.9304480469764, 0.0]
['beep', 0.0, 307.2917827715615, 0.0, 0.0, 0.0, 0.0, -3892.8915730585545, 0.0]
['beep', 0.0, 307.7611694051229, 0.0, 0.0, 0.0, 0.0, -3892.779814336278, 0.0]
['beep', 0.0, 306.53182346008106, 0.0, 0.0, 0.0, 0.0, -3893.6068288811243, 0.0]
['beep', 0.0, 306.9788583491872, 0.0, 0.0, 0.0, 0.0, -3892.645703869546, 0.0]
['beep', 0.0, 300.6086111794247, 0.0, 0.0, 0.0, 0.0, -3892.6010003806355, 0.0]
['beep', 0.0, 242.96346222918777, 0.0, 0.0, 0.0, 0.0, -3891.036378268764, 0.0]
['beep', 0.0, 245.24334016362909, 0.0, 0.0, 0.0, 0.0, -3890.9022678020324, 0.0]
['beep', 0.0, 301.5697361910029, 0.0, 0.0, 0.0, 0.0, -3892.0869102581637, 0.0]
['beep', 0.0, 306.7553409046341, 0.0, 0.0, 0.0, 0.0, -3892.3774829360823, 0.0]
['beep', 0.0, 306.2636025266174, 0.0, 0.0, 0.0, 0.0, -3892.1539654915296, 0.0]
['beep', 0.0, 306.86709962691066, 0.0, 0.0, 0.0, 0.0, -3890.5446398907475, 0.0]
['beep', 0.0, 308.8117013945224, 0.0, 0.0, 0.0, 0.0, -3891.9527997914315, 0.0]
['beep', 0.0, 308.5211287166034, 0.0, 0.0, 0.0, 0.0, -3893.003331780831, 0.0]
['beep', 0.0, 308.14114906086314, 0.0, 0.0, 0.0, 0.0, -3891.2375439688617, 0.0]
['beep', 0.0, 307.3588380049274, 0.0, 0.0, 0.0, 0.0, -3892.2433724693506, 0.0]
['beep', 0.0, 278.1674597462964, 0.0, 0.0, 0.0, 0.0, -3892.9139248030096, 0.0]
['beep', 0.0, 253.58054084545861, 0.0, 0.0, 0.0, 0.0, -3893.986808536865, 0.0]
['beep', 0.0, 302.37439899139395, 0.0, 0.0, 0.0, 0.0, -3893.383311436571, 0.0]
['beep', 0.0, 306.2859542710727, 0.0, 0.0, 0.0, 0.0, -3892.2433724693506, 0.0]
['beep', 0.0, 306.9788583491872, 0.0, 0.0, 0.0, 0.0, -3892.109262002619, 0.0]
['beep', 0.0, 307.984686849676, 0.0, 0.0, 0.0, 0.0, -3890.432881168471, 0.0]
['beep', 0.0, 309.2140327947179, 0.0, 0.0, 0.0, 0.0, -3891.461061413415, 0.0]
['beep', 0.0, 308.63288743887995, 0.0, 0.0, 0.0, 0.0, -3891.5281166467807, 0.0]
['beep', 0.0, 307.3364862604721, 0.0, 0.0, 0.0, 0.0, -3891.461061413415, 0.0]
['beep', 0.0, 307.2917827715615, 0.0, 0.0, 0.0, 0.0, -3890.812860824211, 0.0]
['beep', 0.0, 275.1052707559193, 0.0, 0.0, 0.0, 0.0, -3890.298770701739, 0.0]
['beep', 0.0, 249.28900591003966, 0.0, 0.0, 0.0, 0.0, -3892.19866898044, 0.0]
['beep', 0.0, 302.6202681804023, 0.0, 0.0, 0.0, 0.0, -3892.422186424993, 0.0]
['beep', 0.0, 307.51530021611455, 0.0, 0.0, 0.0, 0.0, -3891.684578857968, 0.0]
['beep', 0.0, 307.11296881591903, 0.0, 0.0, 0.0, 0.0, -3889.2482387123396, 0.0]
['beep', 0.0, 307.18002404928495, 0.0, 0.0, 0.0, 0.0, -3888.823555567689, 0.0]
['beep', 0.0, 309.32579151699446, 0.0, 0.0, 0.0, 0.0, -3889.2482387123396, 0.0]
['beep', 0.0, 307.80587289403354, 0.0, 0.0, 0.0, 0.0, -3890.455232912926, 0.0]
['beep', 0.0, 307.6270589383911, 0.0, 0.0, 0.0, 0.0, -3890.9022678020324, 0.0]
['beep', 0.0, 307.5823554494805, 0.0, 0.0, 0.0, 0.0, -3888.91296254551, 0.0]
['beep', 0.0, 273.16066898830763, 0.0, 0.0, 0.0, 0.0, -3889.807032323722, 0.0]
['beep', 0.0, 246.04800296402016, 0.0, 0.0, 0.0, 0.0, -3890.1870119794626, 0.0]
['beep', 0.0, 299.759244890123, 0.0, 0.0, 0.0, 0.0, -3890.522288146292, 0.0]
['beep', 0.0, 306.48711997117044, 0.0, 0.0, 0.0, 0.0, -3890.8575643131217, 0.0]
['beep', 0.0, 307.2917827715615, 0.0, 0.0, 0.0, 0.0, -3889.494107901348, 0.0]
['beep', 0.0, 307.7611694051229, 0.0, 0.0, 0.0, 0.0, -3891.5728201356915, 0.0]
['beep', 0.0, 308.0070385941313, 0.0, 0.0, 0.0, 0.0, -3891.036378268764, 0.0]
['beep', 0.0, 306.308306015528, 0.0, 0.0, 0.0, 0.0, -3890.075253257186, 0.0]
['beep', 0.0, 305.90597461533247, 0.0, 0.0, 0.0, 0.0, -3890.231715468373, 0.0]
['beep', 0.0, 304.1848902922738, 0.0, 0.0, 0.0, 0.0, -3889.516459645803, 0.0]
['beep', 0.0, 258.45322113671557, 0.0, 0.0, 0.0, 0.0, -3889.6282183680796, 0.0]
['beep', 0.0, 244.50573259660396, 0.0, 0.0, 0.0, 0.0, -3891.1481369910407, 0.0]
['beep', 0.0, 301.2344600241733, 0.0, 0.0, 0.0, 0.0, -3891.9975032803422, 0.0]
['beep', 0.0, 308.2529077831397, 0.0, 0.0, 0.0, 0.0, -3890.2540672128284, 0.0]
['beep', 0.0, 309.5046054726369, 0.0, 0.0, 0.0, 0.0, -3888.0859480006634, 0.0]
['beep', 0.0, 311.1362828178743, 0.0, 0.0, 0.0, 0.0, -3887.3483404336384, 0.0]
['beep', 0.0, 312.76796016311175, 0.0, 0.0, 0.0, 0.0, -3888.7341485898673, 0.0]
['beep', 0.0, 311.22568979569553, 0.0, 0.0, 0.0, 0.0, -3887.5048026448258, 0.0]
['beep', 0.0, 310.532785717581, 0.0, 0.0, 0.0, 0.0, -3887.5048026448258, 0.0]
['beep', 0.0, 307.78352114957823, 0.0, 0.0, 0.0, 0.0, -3887.1248229890853, 0.0]
['beep', 0.0, 270.8360875649557, 0.0, 0.0, 0.0, 0.0, -3888.555334634225, 0.0]
['beep', 0.0, 246.07035470847546, 0.0, 0.0, 0.0, 0.0, -3890.2764189572836, 0.0]
['beep', 0.0, 299.64748616784647, 0.0, 0.0, 0.0, 0.0, -3889.5835148791693, 0.0]
['beep', 0.0, 305.50364321513695, 0.0, 0.0, 0.0, 0.0, -3889.3376456901606, 0.0]
['beep', 0.0, 304.7660356481118, 0.0, 0.0, 0.0, 0.0, -3887.773023578289, 0.0]
['beep', 0.0, 304.6766286702906, 0.0, 0.0, 0.0, 0.0, -3887.7953753227443, 0.0]
['beep', 0.0, 305.436587981771, 0.0, 0.0, 0.0, 0.0, -3889.2482387123396, 0.0]
['beep', 0.0, 306.0847885709749, 0.0, 0.0, 0.0, 0.0, -3890.5669916352026, 0.0]
['beep', 0.0, 304.7213321592012, 0.0, 0.0, 0.0, 0.0, -3889.069424756697, 0.0]
['beep', 0.0, 305.50364321513695, 0.0, 0.0, 0.0, 0.0, -3889.0917765011523, 0.0]
['beep', 0.0, 306.0847885709749, 0.0, 0.0, 0.0, 0.0, -3887.5718578781916, 0.0]
['beep', 0.0, 307.2694310271062, 0.0, 0.0, 0.0, 0.0, -3888.778852078778, 0.0]
['beep', 0.0, 307.6494106828464, 0.0, 0.0, 0.0, 0.0, -3888.465927656404, 0.0]
['beep', 0.0, 307.0682653270084, 0.0, 0.0, 0.0, 0.0, -3888.510631145314, 0.0]
['beep', 0.0, 304.7436839036565, 0.0, 0.0, 0.0, 0.0, -3887.974189278387, 0.0]
['beep', 0.0, 259.10142172591947, 0.0, 0.0, 0.0, 0.0, -3887.549506133736, 0.0]
['beep', 0.0, 241.1529709283079, 0.0, 0.0, 0.0, 0.0, -3887.258933455817, 0.0]
['beep', 0.0, 300.31803850150567, 0.0, 0.0, 0.0, 0.0, -3888.2424102118507, 0.0]
['beep', 0.0, 308.7446461611565, 0.0, 0.0, 0.0, 0.0, -3886.9907125223535, 0.0]
['beep', 0.0, 307.22472753819557, 0.0, 0.0, 0.0, 0.0, -3884.6661310990016, 0.0]
['beep', 0.0, 307.2917827715615, 0.0, 0.0, 0.0, 0.0, -3886.789546822256, 0.0]
['beep', 0.0, 308.8340531389777, 0.0, 0.0, 0.0, 0.0, -3886.163697977507, 0.0]
['beep', 0.0, 309.7504746616453, 0.0, 0.0, 0.0, 0.0, -3886.521325888792, 0.0]
['beep', 0.0, 308.7669979056118, 0.0, 0.0, 0.0, 0.0, -3886.00723576632, 0.0]
['beep', 0.0, 308.43172173878213, 0.0, 0.0, 0.0, 0.0, -3884.91200028801, 0.0]
['beep', 0.0, 310.30926827302795, 0.0, 0.0, 0.0, 0.0, -3885.560200877214, 0.0]
['beep', 0.0, 310.7786549065894, 0.0, 0.0, 0.0, 0.0, -3886.0295875107754, 0.0]
['beep', 0.0, 309.32579151699446, 0.0, 0.0, 0.0, 0.0, -3887.236581711362, 0.0]
['beep', 0.0, 308.65523918333525, 0.0, 0.0, 0.0, 0.0, -3885.917828788499, 0.0]
['beep', 0.0, 308.3423147609609, 0.0, 0.0, 0.0, 0.0, -3884.53202063227, 0.0]
['beep', 0.0, 268.82443056397807, 0.0, 0.0, 0.0, 0.0, -3885.6049043661246, 0.0]
['beep', 0.0, 245.22098841917378, 0.0, 0.0, 0.0, 0.0, -3886.5660293777028, 0.0]
['beep', 0.0, 301.9273641022878, 0.0, 0.0, 0.0, 0.0, -3886.7001398444345, 0.0]
['beep', 0.0, 308.96816360570955, 0.0, 0.0, 0.0, 0.0, -3885.1578694770183, 0.0]
['beep', 0.0, 309.1916810502626, 0.0, 0.0, 0.0, 0.0, -3885.7390148328564, 0.0]
['beep', 0.0, 309.57166070600283, 0.0, 0.0, 0.0, 0.0, -3886.0966427441413, 0.0]
['beep', 0.0, 310.66689618431286, 0.0, 0.0, 0.0, 0.0, -3886.431918910971, 0.0]
['beep', 0.0, 309.70577117273467, 0.0, 0.0, 0.0, 0.0, -3887.3483404336384, 0.0]
['beep', 0.0, 309.4822537281816, 0.0, 0.0, 0.0, 0.0, -3886.6554363555238, 0.0]
['beep', 0.0, 308.63288743887995, 0.0, 0.0, 0.0, 0.0, -3885.3143316882056, 0.0]
['beep', 0.0, 266.67866309626856, 0.0, 0.0, 0.0, 0.0, -3885.6943113439456, 0.0]
['beep', 0.0, 246.00329947510954, 0.0, 0.0, 0.0, 0.0, -3887.0577677557194, 0.0]
['beep', 0.0, 303.73785540316766, 0.0, 0.0, 0.0, 0.0, -3885.783718321767, 0.0]
['beep', 0.0, 310.8680618844106, 0.0, 0.0, 0.0, 0.0, -3885.716663088401, 0.0]
['beep', 0.0, 310.4433787397598, 0.0, 0.0, 0.0, 0.0, -3886.230753210873, 0.0]
['beep', 0.0, 309.32579151699446, 0.0, 0.0, 0.0, 0.0, -3886.498974144337, 0.0]
['beep', 0.0, 309.8845851283771, 0.0, 0.0, 0.0, 0.0, -3887.147174733541, 0.0]
['beep', 0.0, 310.4880822286704, 0.0, 0.0, 0.0, 0.0, -3886.431918910971, 0.0]
['beep', 0.0, 309.68341942827936, 0.0, 0.0, 0.0, 0.0, -3887.10247124463, 0.0]
['beep', 0.0, 309.1246258168967, 0.0, 0.0, 0.0, 0.0, -3887.9518375339317, 0.0]
['beep', 0.0, 310.5104339731257, 0.0, 0.0, 0.0, 0.0, -3887.48245090037, 0.0]
['beep', 0.0, 311.7844834070782, 0.0, 0.0, 0.0, 0.0, -3889.069424756697, 0.0]
['beep', 0.0, 312.49973922964807, 0.0, 0.0, 0.0, 0.0, -3889.404700923527, 0.0]
['beep', 0.0, 311.89624212935473, 0.0, 0.0, 0.0, 0.0, -3888.175354978485, 0.0]
['beep', 0.0, 310.2198612952067, 0.0, 0.0, 0.0, 0.0, -3887.9965410228424, 0.0]
['beep', 0.0, 266.5222008850814, 0.0, 0.0, 0.0, 0.0, -3885.873125299588, 0.0]
['beep', 0.0, 244.5951395744252, 0.0, 0.0, 0.0, 0.0, -3886.3425119331496, 0.0]
['beep', 0.0, 303.5143379586146, 0.0, 0.0, 0.0, 0.0, -3886.6777880999794, 0.0]
['beep', 0.0, 310.97982060668716, 0.0, 0.0, 0.0, 0.0, -3884.4426136544485, 0.0]
['beep', 0.0, 309.66106768382406, 0.0, 0.0, 0.0, 0.0, -3883.8614682986104, 0.0]
['beep', 0.0, 309.66106768382406, 0.0, 0.0, 0.0, 0.0, -3886.074290999686, 0.0]
['beep', 0.0, 310.1975095507514, 0.0, 0.0, 0.0, 0.0, -3886.7671950778004, 0.0]
['beep', 0.0, 310.1751578062961, 0.0, 0.0, 0.0, 0.0, -3886.3872154220603, 0.0]
['beep', 0.0, 308.94581186125424, 0.0, 0.0, 0.0, 0.0, -3886.208401466418, 0.0]
['beep', 0.0, 307.9176316163101, 0.0, 0.0, 0.0, 0.0, -3885.269628199295, 0.0]
['beep', 0.0, 271.10430849841936, 0.0, 0.0, 0.0, 0.0, -3886.4766223998813, 0.0]
['beep', 0.0, 243.3881453738386, 0.0, 0.0, 0.0, 0.0, -3888.6670933565015, 0.0]
['beep', 0.0, 300.4968524571481, 0.0, 0.0, 0.0, 0.0, -3888.8906108010547, 0.0]
['beep', 0.0, 309.0799223279861, 0.0, 0.0, 0.0, 0.0, -3888.845907312144, 0.0]
['beep', 0.0, 308.90110837234363, 0.0, 0.0, 0.0, 0.0, -3888.801203823233, 0.0]
['beep', 0.0, 309.7951781505559, 0.0, 0.0, 0.0, 0.0, -3888.3541689341273, 0.0]
['beep', 0.0, 309.59401245045814, 0.0, 0.0, 0.0, 0.0, -3890.6116951241133, 0.0]
['beep', 0.0, 309.90693687283243, 0.0, 0.0, 0.0, 0.0, -3891.2598957133173, 0.0]
['beep', 0.0, 308.67759092779056, 0.0, 0.0, 0.0, 0.0, -3889.136479990063, 0.0]
['beep', 0.0, 309.63871593936875, 0.0, 0.0, 0.0, 0.0, -3888.6670933565015, 0.0]
['beep', 0.0, 310.24221303966203, 0.0, 0.0, 0.0, 0.0, -3888.510631145314, 0.0]
['beep', 0.0, 309.2140327947179, 0.0, 0.0, 0.0, 0.0, -3889.404700923527, 0.0]
['beep', 0.0, 310.4657304842151, 0.0, 0.0, 0.0, 0.0, -3888.91296254551, 0.0]
['beep', 0.0, 309.57166070600283, 0.0, 0.0, 0.0, 0.0, -3887.9294857894765, 0.0]
['beep', 0.0, 306.4200647378045, 0.0, 0.0, 0.0, 0.0, -3887.840078811655, 0.0]
['beep', 0.0, 259.74962231512336, 0.0, 0.0, 0.0, 0.0, -3887.3706921780936, 0.0]
['beep', 0.0, 241.4658953506822, 0.0, 0.0, 0.0, 0.0, -3888.8906108010547, 0.0]
['beep', 0.0, 301.03329432407554, 0.0, 0.0, 0.0, 0.0, -3889.739977090356, 0.0]
['beep', 0.0, 309.1916810502626, 0.0, 0.0, 0.0, 0.0, -3888.7341485898673, 0.0]
['beep', 0.0, 308.90110837234363, 0.0, 0.0, 0.0, 0.0, -3886.00723576632, 0.0]
['beep', 0.0, 309.4599019837263, 0.0, 0.0, 0.0, 0.0, -3886.3872154220603, 0.0]
['beep', 0.0, 309.7951781505559, 0.0, 0.0, 0.0, 0.0, -3888.108299745119, 0.0]
['beep', 0.0, 310.7339514176788, 0.0, 0.0, 0.0, 0.0, -3888.398872423038, 0.0]
['beep', 0.0, 309.61636419491344, 0.0, 0.0, 0.0, 0.0, -3888.3318171896717, 0.0]
['beep', 0.0, 308.99051535016486, 0.0, 0.0, 0.0, 0.0, -3886.901305544532, 0.0]
['beep', 0.0, 309.30343977253915, 0.0, 0.0, 0.0, 0.0, -3886.811898566711, 0.0]
['beep', 0.0, 310.1975095507514, 0.0, 0.0, 0.0, 0.0, -3887.5048026448258, 0.0]
['beep', 0.0, 310.26456478411734, 0.0, 0.0, 0.0, 0.0, -3888.868259056599, 0.0]
['beep', 0.0, 309.5046054726369, 0.0, 0.0, 0.0, 0.0, -3889.0247212677864, 0.0]
['beep', 0.0, 306.0624368265196, 0.0, 0.0, 0.0, 0.0, -3888.6670933565015, 0.0]
['beep', 0.0, 259.05671823700885, 0.0, 0.0, 0.0, 0.0, -3888.823555567689, 0.0]
['beep', 0.0, 237.55434007100345, 0.0, 0.0, 0.0, 0.0, -3890.812860824211, 0.0]
['beep', 0.0, 299.31221000101687, 0.0, 0.0, 0.0, 0.0, -3890.097605001641, 0.0]
['beep', 0.0, 308.67759092779056, 0.0, 0.0, 0.0, 0.0, -3890.142308490552, 0.0]
['beep', 0.0, 306.308306015528, 0.0, 0.0, 0.0, 0.0, -3889.0917765011523, 0.0]
['beep', 0.0, 308.3646665054162, 0.0, 0.0, 0.0, 0.0, -3889.9634945349094, 0.0]
['beep', 0.0, 308.7446461611565, 0.0, 0.0, 0.0, 0.0, -3890.9693230353982, 0.0]
['beep', 0.0, 308.09644557195253, 0.0, 0.0, 0.0, 0.0, -3890.4105294240153, 0.0]
['beep', 0.0, 308.3870182498715, 0.0, 0.0, 0.0, 0.0, -3889.427052667982, 0.0]
['beep', 0.0, 307.6494106828464, 0.0, 0.0, 0.0, 0.0, -3890.1870119794626, 0.0]
['beep', 0.0, 278.793308591045, 0.0, 0.0, 0.0, 0.0, -3890.0305497682753, 0.0]
['beep', 0.0, 243.79047677403412, 0.0, 0.0, 0.0, 0.0, -3891.2375439688617, 0.0]
['beep', 0.0, 299.0439890675532, 0.0, 0.0, 0.0, 0.0, -3891.617523624602, 0.0]
['beep', 0.0, 307.694114171757, 0.0, 0.0, 0.0, 0.0, -3890.9022678020324, 0.0]
['beep', 0.0, 307.11296881591903, 0.0, 0.0, 0.0, 0.0, -3890.9246195464875, 0.0]
['beep', 0.0, 307.694114171757, 0.0, 0.0, 0.0, 0.0, -3892.2210207248954, 0.0]
['beep', 0.0, 308.3870182498715, 0.0, 0.0, 0.0, 0.0, -3893.360959692116, 0.0]
['beep', 0.0, 308.69994267224587, 0.0, 0.0, 0.0, 0.0, -3892.645703869546, 0.0]
['beep', 0.0, 308.4093699943268, 0.0, 0.0, 0.0, 0.0, -3891.5281166467807, 0.0]
['beep', 0.0, 309.32579151699446, 0.0, 0.0, 0.0, 0.0, -3891.3045992022276, 0.0]
['beep', 0.0, 287.3540267174276, 0.0, 0.0, 0.0, 0.0, -3891.461061413415, 0.0]
['beep', 0.0, 250.3171861549838, 0.0, 0.0, 0.0, 0.0, -3893.3162562032053, 0.0]
['beep', 0.0, 300.5415559460588, 0.0, 0.0, 0.0, 0.0, -3894.366788192605, 0.0]
['beep', 0.0, 309.70577117273467, 0.0, 0.0, 0.0, 0.0, -3894.076215514686, 0.0]
['beep', 0.0, 309.57166070600283, 0.0, 0.0, 0.0, 0.0, -3894.1432707480517, 0.0]
['beep', 0.0, 310.1081025729302, 0.0, 0.0, 0.0, 0.0, -3893.718587603401, 0.0]
['beep', 0.0, 310.5551374620363, 0.0, 0.0, 0.0, 0.0, -3894.947933548443, 0.0]
['beep', 0.0, 310.26456478411734, 0.0, 0.0, 0.0, 0.0, -3894.2103259814176, 0.0]
['beep', 0.0, 308.99051535016486, 0.0, 0.0, 0.0, 0.0, -3893.428014925482, 0.0]
['beep', 0.0, 309.0575705835308, 0.0, 0.0, 0.0, 0.0, -3894.2103259814176, 0.0]
['beep', 0.0, 283.44247143774885, 0.0, 0.0, 0.0, 0.0, -3894.4785469148815, 0.0]
['beep', 0.0, 245.8468372639224, 0.0, 0.0, 0.0, 0.0, -3894.1879742369624, 0.0]
['beep', 0.0, 301.2568117686286, 0.0, 0.0, 0.0, 0.0, -3896.1549277490294, 0.0]
['beep', 0.0, 310.3763235063939, 0.0, 0.0, 0.0, 0.0, -3896.91488706051, 0.0]
['beep', 0.0, 308.8117013945224, 0.0, 0.0, 0.0, 0.0, -3897.004294038331, 0.0]
['beep', 0.0, 310.33162001748326, 0.0, 0.0, 0.0, 0.0, -3896.266686471306, 0.0]
['beep', 0.0, 311.1586345623296, 0.0, 0.0, 0.0, 0.0, -3896.5349074047695, 0.0]
['beep', 0.0, 309.63871593936875, 0.0, 0.0, 0.0, 0.0, -3897.0937010161524, 0.0]
['beep', 0.0, 308.18585254977376, 0.0, 0.0, 0.0, 0.0, -3897.652494627535, 0.0]
['beep', 0.0, 308.2529077831397, 0.0, 0.0, 0.0, 0.0, -3898.9265440614877, 0.0]
['beep', 0.0, 309.57166070600283, 0.0, 0.0, 0.0, 0.0, -3898.4124539390154, 0.0]
['beep', 0.0, 307.87292812739946, 0.0, 0.0, 0.0, 0.0, -3898.0771777721857, 0.0]
['beep', 0.0, 308.0293903385866, 0.0, 0.0, 0.0, 0.0, -3897.7419016053564, 0.0]
['beep', 0.0, 307.403541493838, 0.0, 0.0, 0.0, 0.0, -3897.1607562495183, 0.0]
['beep', 0.0, 306.53182346008106, 0.0, 0.0, 0.0, 0.0, -3896.8254800826885, 0.0]
['beep', 0.0, 307.53765196056986, 0.0, 0.0, 0.0, 0.0, -3912.2481837568503, 0.0]
['beep', 0.0, 307.3364862604721, 0.0, 0.0, 0.0, 0.0, -3912.605811668135, 0.0]
['beep', 0.0, 308.18585254977376, 0.0, 0.0, 0.0, 0.0, -3912.136425034574, 0.0]
['beep', 0.0, 307.53765196056986, 0.0, 0.0, 0.0, 0.0, -3912.494052945859, 0.0]
['beep', 0.0, 306.44241648225983, 0.0, 0.0, 0.0, 0.0, -3913.2763640017947, 0.0]
['beep', 0.0, 305.86127112642185, 0.0, 0.0, 0.0, 0.0, -3913.611640168624, 0.0]
['beep', 0.0, 307.0906170714637, 0.0, 0.0, 0.0, 0.0, -3914.4386547134704, 0.0]
['beep', 0.0, 307.53765196056986, 0.0, 0.0, 0.0, 0.0, -3914.863337858121, 0.0]
['beep', 0.0, 306.6212304379023, 0.0, 0.0, 0.0, 0.0, -3914.7739308803, 0.0]
['beep', 0.0, 306.6212304379023, 0.0, 0.0, 0.0, 0.0, -3913.254012257339, 0.0]
['beep', 0.0, 280.33557895846116, 0.0, 0.0, 0.0, 0.0, -3912.650515157046, 0.0]
['beep', 0.0, 235.1627034142856, 0.0, 0.0, 0.0, 0.0, -3914.326895991194, 0.0]
['beep', 0.0, 291.71261688621246, 0.0, 0.0, 0.0, 0.0, -3915.0645035582193, 0.0]
['beep', 0.0, 306.7329891601788, 0.0, 0.0, 0.0, 0.0, -3914.7739308803, 0.0]
['beep', 0.0, 306.24125078216207, 0.0, 0.0, 0.0, 0.0, -3913.9245645909987, 0.0]
['beep', 0.0, 306.17419554879615, 0.0, 0.0, 0.0, 0.0, -3913.6563436575348, 0.0]
['beep', 0.0, 306.10714031543023, 0.0, 0.0, 0.0, 0.0, -3913.4775297018923, 0.0]
['beep', 0.0, 305.90597461533247, 0.0, 0.0, 0.0, 0.0, -3913.3657709796157, 0.0]
['beep', 0.0, 305.3695327484051, 0.0, 0.0, 0.0, 0.0, -3915.0198000693085, 0.0]
['beep', 0.0, 305.4142362373157, 0.0, 0.0, 0.0, 0.0, -3915.3550762361383, 0.0]
['beep', 0.0, 305.9506781042431, 0.0, 0.0, 0.0, 0.0, -3916.0926838031633, 0.0]
['beep', 0.0, 306.4200647378045, 0.0, 0.0, 0.0, 0.0, -3916.3162012477164, 0.0]
['beep', 0.0, 307.20237579374026, 0.0, 0.0, 0.0, 0.0, -3914.885689602577, 0.0]
['beep', 0.0, 306.46476822671514, 0.0, 0.0, 0.0, 0.0, -3916.450311714448, 0.0]
['beep', 0.0, 306.3977129933492, 0.0, 0.0, 0.0, 0.0, -3916.6738291590013, 0.0]
['beep', 0.0, 279.5532679025254, 0.0, 0.0, 0.0, 0.0, -3915.6456489140573, 0.0]
['beep', 0.0, 233.79924700251186, 0.0, 0.0, 0.0, 0.0, -3916.450311714448, 0.0]
['beep', 0.0, 288.8739453403885, 0.0, 0.0, 0.0, 0.0, -3917.1208640481073, 0.0]
['beep', 0.0, 306.017733337609, 0.0, 0.0, 0.0, 0.0, -3916.852643114644, 0.0]
['beep', 0.0, 305.52599495959225, 0.0, 0.0, 0.0, 0.0, -3914.9974483248534, 0.0]
['beep', 0.0, 305.6601054263241, 0.0, 0.0, 0.0, 0.0, -3914.9527448359427, 0.0]
['beep', 0.0, 306.3530095044386, 0.0, 0.0, 0.0, 0.0, -3915.936221591976, 0.0]
['beep', 0.0, 306.57652694899167, 0.0, 0.0, 0.0, 0.0, -3915.6009454251466, 0.0]
['beep', 0.0, 306.2859542710727, 0.0, 0.0, 0.0, 0.0, -3915.9585733364315, 0.0]
['beep', 0.0, 306.53182346008106, 0.0, 0.0, 0.0, 0.0, -3914.863337858121, 0.0]
['beep', 0.0, 287.6893028842572, 0.0, 0.0, 0.0, 0.0, -3913.4775297018923, 0.0]
['beep', 0.0, 239.5883488164364, 0.0, 0.0, 0.0, 0.0, -3913.455177957437, 0.0]
['beep', 0.0, 290.66208489681304, 0.0, 0.0, 0.0, 0.0, -3914.461006457926, 0.0]
['beep', 0.0, 305.83891938196655, 0.0, 0.0, 0.0, 0.0, -3915.1539105360403, 0.0]
['beep', 0.0, 305.50364321513695, 0.0, 0.0, 0.0, 0.0, -3913.3881227240713, 0.0]
['beep', 0.0, 305.86127112642185, 0.0, 0.0, 0.0, 0.0, -3912.851680857144, 0.0]
['beep', 0.0, 307.20237579374026, 0.0, 0.0, 0.0, 0.0, -3915.511538447325, 0.0]
['beep', 0.0, 307.7611694051229, 0.0, 0.0, 0.0, 0.0, -3917.2549745148394, 0.0]
['beep', 0.0, 307.51530021611455, 0.0, 0.0, 0.0, 0.0, -3915.8915181030657, 0.0]
['beep', 0.0, 307.7164659162123, 0.0, 0.0, 0.0, 0.0, -3915.7350558918783, 0.0]
['beep', 0.0, 307.0235618380978, 0.0, 0.0, 0.0, 0.0, -3915.265669258317, 0.0]
['beep', 0.0, 307.0012100936425, 0.0, 0.0, 0.0, 0.0, -3916.0256285697974, 0.0]
['beep', 0.0, 307.2470792826509, 0.0, 0.0, 0.0, 0.0, -3916.5397186922696, 0.0]
['beep', 0.0, 306.53182346008106, 0.0, 0.0, 0.0, 0.0, -3917.389084981571, 0.0]
['beep', 0.0, 305.4142362373157, 0.0, 0.0, 0.0, 0.0, -3917.791416381767, 0.0]
['beep', 0.0, 280.9390760587545, 0.0, 0.0, 0.0, 0.0, -3917.389084981571, 0.0]
['beep', 0.0, 235.02859294755376, 0.0, 0.0, 0.0, 0.0, -3918.39491348206, 0.0]
['beep', 0.0, 290.1703465187963, 0.0, 0.0, 0.0, 0.0, -3917.9478785929537, 0.0]
['beep', 0.0, 307.44824498274863, 0.0, 0.0, 0.0, 0.0, -3917.6126024261243, 0.0]
['beep', 0.0, 307.5823554494805, 0.0, 0.0, 0.0, 0.0, -3917.0538088147414, 0.0]
['beep', 0.0, 308.20820429422906, 0.0, 0.0, 0.0, 0.0, -3918.2831547597834, 0.0]
['beep', 0.0, 308.69994267224587, 0.0, 0.0, 0.0, 0.0, -3919.2442797713616, 0.0]
['beep', 0.0, 309.57166070600283, 0.0, 0.0, 0.0, 0.0, -3916.942050092465, 0.0]
['beep', 0.0, 308.3870182498715, 0.0, 0.0, 0.0, 0.0, -3916.9196983480097, 0.0]
['beep', 0.0, 306.86709962691066, 0.0, 0.0, 0.0, 0.0, -3917.791416381767, 0.0]
['beep', 0.0, 306.53182346008106, 0.0, 0.0, 0.0, 0.0, -3918.0149338263195, 0.0]
['beep', 0.0, 307.44824498274863, 0.0, 0.0, 0.0, 0.0, -3917.67965765949, 0.0]
['beep', 0.0, 308.0740938274972, 0.0, 0.0, 0.0, 0.0, -3917.3220297482053, 0.0]
['beep', 0.0, 306.50947171562575, 0.0, 0.0, 0.0, 0.0, -3916.785587881278, 0.0]
['beep', 0.0, 306.12949205988554, 0.0, 0.0, 0.0, 0.0, -3917.9031751040434, 0.0]
['beep', 0.0, 281.2967039700394, 0.0, 0.0, 0.0, 0.0, -3917.389084981571, 0.0]
['beep', 0.0, 233.2628051355845, 0.0, 0.0, 0.0, 0.0, -3919.065465815719, 0.0]
['beep', 0.0, 288.0245790510868, 0.0, 0.0, 0.0, 0.0, -3919.691314660468, 0.0]
['beep', 0.0, 307.3811897493827, 0.0, 0.0, 0.0, 0.0, -3918.6407826710683, 0.0]
['beep', 0.0, 307.44824498274863, 0.0, 0.0, 0.0, 0.0, -3919.3783902380933, 0.0]
['beep', 0.0, 307.2694310271062, 0.0, 0.0, 0.0, 0.0, -3917.67965765949, 0.0]
['beep', 0.0, 307.6047071939358, 0.0, 0.0, 0.0, 0.0, -3918.2384512708727, 0.0]
['beep', 0.0, 307.53765196056986, 0.0, 0.0, 0.0, 0.0, -3918.8643001156215, 0.0]
['beep', 0.0, 306.86709962691066, 0.0, 0.0, 0.0, 0.0, -3918.2384512708727, 0.0]
['beep', 0.0, 306.6435821823576, 0.0, 0.0, 0.0, 0.0, -3919.132521049085, 0.0]
['beep', 0.0, 307.13532056037434, 0.0, 0.0, 0.0, 0.0, -3920.2054047829397, 0.0]
['beep', 0.0, 307.82822463848885, 0.0, 0.0, 0.0, 0.0, -3920.3171635052163, 0.0]
['beep', 0.0, 308.7222944167012, 0.0, 0.0, 0.0, 0.0, -3920.451273971948, 0.0]
['beep', 0.0, 307.85057638294415, 0.0, 0.0, 0.0, 0.0, -3919.199576282451, 0.0]
['beep', 0.0, 306.6659339268129, 0.0, 0.0, 0.0, 0.0, -3916.8973466035545, 0.0]
['beep', 0.0, 289.8350703519667, 0.0, 0.0, 0.0, 0.0, -3914.885689602577, 0.0]
['beep', 0.0, 239.76716277207885, 0.0, 0.0, 0.0, 0.0, -3915.0645035582193, 0.0]
['beep', 0.0, 289.7903668630561, 0.0, 0.0, 0.0, 0.0, -3915.466834958415, 0.0]
['beep', 0.0, 309.01286709462016, 0.0, 0.0, 0.0, 0.0, -3915.8244628697, 0.0]
['beep', 0.0, 308.3199630165056, 0.0, 0.0, 0.0, 0.0, -3914.5951169246578, 0.0]
['beep', 0.0, 308.856404883433, 0.0, 0.0, 0.0, 0.0, -3913.254012257339, 0.0]
['beep', 0.0, 308.94581186125424, 0.0, 0.0, 0.0, 0.0, -3915.176262280496, 0.0]
['beep', 0.0, 309.7728264061006, 0.0, 0.0, 0.0, 0.0, -3913.879861102088, 0.0]
['beep', 0.0, 308.5434804610587, 0.0, 0.0, 0.0, 0.0, -3912.3822942235824, 0.0]
['beep', 0.0, 307.7388176606676, 0.0, 0.0, 0.0, 0.0, -3912.5387564347693, 0.0]
['beep', 0.0, 308.3646665054162, 0.0, 0.0, 0.0, 0.0, -3911.778797123289, 0.0]
['beep', 0.0, 309.146977561352, 0.0, 0.0, 0.0, 0.0, -3912.7175703904118, 0.0]
['beep', 0.0, 309.8622333839218, 0.0, 0.0, 0.0, 0.0, -3912.7846256237776, 0.0]
['beep', 0.0, 308.3646665054162, 0.0, 0.0, 0.0, 0.0, -3912.806977368233, 0.0]
['beep', 0.0, 308.2976112720503, 0.0, 0.0, 0.0, 0.0, -3913.9245645909987, 0.0]
['beep', 0.0, 285.4094249498159, 0.0, 0.0, 0.0, 0.0, -3914.885689602577, 0.0]
['beep', 0.0, 237.6884505377353, 0.0, 0.0, 0.0, 0.0, -3914.908041347032, 0.0]
['beep', 0.0, 292.4949279421482, 0.0, 0.0, 0.0, 0.0, -3913.7233988909006, 0.0]
['beep', 0.0, 310.1975095507514, 0.0, 0.0, 0.0, 0.0, -3915.3774279805934, 0.0]
['beep', 0.0, 308.58818394996933, 0.0, 0.0, 0.0, 0.0, -3915.6232971696018, 0.0]
['beep', 0.0, 308.92346011679894, 0.0, 0.0, 0.0, 0.0, -3916.3162012477164, 0.0]
['beep', 0.0, 308.99051535016486, 0.0, 0.0, 0.0, 0.0, -3917.2996780037497, 0.0]
['beep', 0.0, 309.25873628362854, 0.0, 0.0, 0.0, 0.0, -3917.232622770384, 0.0]
['beep', 0.0, 308.47642522769274, 0.0, 0.0, 0.0, 0.0, -3916.9867535813755, 0.0]
['beep', 0.0, 309.1022740724414, 0.0, 0.0, 0.0, 0.0, -3916.6514774145458, 0.0]
['beep', 0.0, 293.52310818709236, 0.0, 0.0, 0.0, 0.0, -3916.740884392367, 0.0]
['beep', 0.0, 244.50573259660396, 0.0, 0.0, 0.0, 0.0, -3917.2773262592946, 0.0]
['beep', 0.0, 293.47840469818175, 0.0, 0.0, 0.0, 0.0, -3916.785587881278, 0.0]
['beep', 0.0, 311.7844834070782, 0.0, 0.0, 0.0, 0.0, -3915.3550762361383, 0.0]
['beep', 0.0, 311.3821520068827, 0.0, 0.0, 0.0, 0.0, -3914.9974483248534, 0.0]
['beep', 0.0, 312.49973922964807, 0.0, 0.0, 0.0, 0.0, -3915.220965769406, 0.0]
['beep', 0.0, 313.77378866360056, 0.0, 0.0, 0.0, 0.0, -3915.3997797250486, 0.0]
['beep', 0.0, 313.75143691914525, 0.0, 0.0, 0.0, 0.0, -3915.466834958415, 0.0]
['beep', 0.0, 311.65037294034636, 0.0, 0.0, 0.0, 0.0, -3918.0149338263195, 0.0]
['beep', 0.0, 310.26456478411734, 0.0, 0.0, 0.0, 0.0, -3917.836119870677, 0.0]
['beep', 0.0, 309.8622333839218, 0.0, 0.0, 0.0, 0.0, -3918.1490442930517, 0.0]
['beep', 0.0, 310.7563031621341, 0.0, 0.0, 0.0, 0.0, -3921.971192594909, 0.0]
['beep', 0.0, 311.0468758400531, 0.0, 0.0, 0.0, 0.0, -3922.1500065505516, 0.0]
['beep', 0.0, 311.0915793289637, 0.0, 0.0, 0.0, 0.0, -3923.044076328764, 0.0]
['beep', 0.0, 310.8010066510447, 0.0, 0.0, 0.0, 0.0, -3922.8876141175765, 0.0]
['beep', 0.0, 295.3335994879722, 0.0, 0.0, 0.0, 0.0, -3921.30064026125, 0.0]
['beep', 0.0, 243.052869207009, 0.0, 0.0, 0.0, 0.0, -3920.3171635052163, 0.0]
['beep', 0.0, 289.2092215072181, 0.0, 0.0, 0.0, 0.0, -3919.3783902380933, 0.0]
['beep', 0.0, 311.7621316626229, 0.0, 0.0, 0.0, 0.0, -3920.138349549574, 0.0]
['beep', 0.0, 311.8291868959888, 0.0, 0.0, 0.0, 0.0, -3921.367695494616, 0.0]
['beep', 0.0, 312.25387004063964, 0.0, 0.0, 0.0, 0.0, -3920.8312536276885, 0.0]
['beep', 0.0, 312.9691258632095, 0.0, 0.0, 0.0, 0.0, -3920.4065704830377, 0.0]
['beep', 0.0, 314.35493401943853, 0.0, 0.0, 0.0, 0.0, -3921.367695494616, 0.0]
['beep', 0.0, 311.91859387381004, 0.0, 0.0, 0.0, 0.0, -3920.652439672046, 0.0]
['beep', 0.0, 311.89624212935473, 0.0, 0.0, 0.0, 0.0, -3921.725323405901, 0.0]
['beep', 0.0, 311.24804154015084, 0.0, 0.0, 0.0, 0.0, -3922.105303061641, 0.0]
['beep', 0.0, 312.1421113183631, 0.0, 0.0, 0.0, 0.0, -3922.261765272828, 0.0]
['beep', 0.0, 313.79614040805586, 0.0, 0.0, 0.0, 0.0, -3921.7700268948115, 0.0]
['beep', 0.0, 312.566794463014, 0.0, 0.0, 0.0, 0.0, -3923.781683895789, 0.0]
['beep', 0.0, 309.4151984948157, 0.0, 0.0, 0.0, 0.0, -3922.5299862062916, 0.0]
['beep', 0.0, 292.5619831755141, 0.0, 0.0, 0.0, 0.0, -3922.306468761739, 0.0]
['beep', 0.0, 241.60000581741403, 0.0, 0.0, 0.0, 0.0, -3922.2170617839174, 0.0]
['beep', 0.0, 290.5950296634471, 0.0, 0.0, 0.0, 0.0, -3921.613564683624, 0.0]
['beep', 0.0, 311.62802119589105, 0.0, 0.0, 0.0, 0.0, -3920.652439672046, 0.0]
['beep', 0.0, 311.65037294034636, 0.0, 0.0, 0.0, 0.0, -3921.948840850454, 0.0]
['beep', 0.0, 311.65037294034636, 0.0, 0.0, 0.0, 0.0, -3923.044076328764, 0.0]
['beep', 0.0, 310.7115996732235, 0.0, 0.0, 0.0, 0.0, -3923.558166451236, 0.0]
['beep', 0.0, 311.8738903848994, 0.0, 0.0, 0.0, 0.0, -3924.9886780963757, 0.0]
['beep', 0.0, 311.24804154015084, 0.0, 0.0, 0.0, 0.0, -3925.68158217449, 0.0]
['beep', 0.0, 311.113931073419, 0.0, 0.0, 0.0, 0.0, -3926.486244974881, 0.0]
['beep', 0.0, 311.8738903848994, 0.0, 0.0, 0.0, 0.0, -3925.1004368186523, 0.0]
['beep', 0.0, 311.94094561826535, 0.0, 0.0, 0.0, 0.0, -3924.6310501850908, 0.0]
['beep', 0.0, 311.00217235114246, 0.0, 0.0, 0.0, 0.0, -3924.92162286301, 0.0]
['beep', 0.0, 311.56096596252513, 0.0, 0.0, 0.0, 0.0, -3923.8487391291546, 0.0]
['beep', 0.0, 313.39380900786034, 0.0, 0.0, 0.0, 0.0, -3923.6028699401463, 0.0]
['beep', 0.0, 287.7340063731678, 0.0, 0.0, 0.0, 0.0, -3923.8934426180654, 0.0]
['beep', 0.0, 236.90613948179956, 0.0, 0.0, 0.0, 0.0, -3923.4464077289595, 0.0]
['beep', 0.0, 292.4502244532376, 0.0, 0.0, 0.0, 0.0, -3923.7369804068785, 0.0]
['beep', 0.0, 312.25387004063964, 0.0, 0.0, 0.0, 0.0, -3923.133483306585, 0.0]
['beep', 0.0, 312.79031190756706, 0.0, 0.0, 0.0, 0.0, -3923.558166451236, 0.0]
['beep', 0.0, 313.2820502855838, 0.0, 0.0, 0.0, 0.0, -3923.669925173512, 0.0]
['beep', 0.0, 313.39380900786034, 0.0, 0.0, 0.0, 0.0, -3924.7875123962776, 0.0]
['beep', 0.0, 312.32092527400556, 0.0, 0.0, 0.0, 0.0, -3926.1062653191407, 0.0]
['beep', 0.0, 312.6785531852905, 0.0, 0.0, 0.0, 0.0, -3923.8934426180654, 0.0]
['beep', 0.0, 312.27622178509495, 0.0, 0.0, 0.0, 0.0, -3924.2510705293503, 0.0]
['beep', 0.0, 282.3695877038941, 0.0, 0.0, 0.0, 0.0, -3923.200538539951, 0.0]
['beep', 0.0, 232.68165977974652, 0.0, 0.0, 0.0, 0.0, -3924.1840152959844, 0.0]
['beep', 0.0, 287.0634540395086, 0.0, 0.0, 0.0, 0.0, -3924.1616635515293, 0.0]
['beep', 0.0, 312.1644630628184, 0.0, 0.0, 0.0, 0.0, -3924.228718784895, 0.0]
['beep', 0.0, 311.7397799181676, 0.0, 0.0, 0.0, 0.0, -3924.608698440635, 0.0]
['beep', 0.0, 303.04495132505315, 0.0, 0.0, 0.0, 0.0, -3924.9886780963757, 0.0]
['beep', 0.0, 250.45129662171564, 0.0, 0.0, 0.0, 0.0, -3926.910928119532, 0.0]
['beep', 0.0, 288.3151517290058, 0.0, 0.0, 0.0, 0.0, -3926.4415414859704, 0.0]
['beep', 0.0, 314.9360793752765, 0.0, 0.0, 0.0, 0.0, -3924.675753674001, 0.0]
['beep', 0.0, 314.8466723974553, 0.0, 0.0, 0.0, 0.0, -3926.240375785873, 0.0]
['beep', 0.0, 313.10323632994135, 0.0, 0.0, 0.0, 0.0, -3923.714628662423, 0.0]
['beep', 0.0, 313.46086424122626, 0.0, 0.0, 0.0, 0.0, -3922.1500065505516, 0.0]
['beep', 0.0, 314.08671308597485, 0.0, 0.0, 0.0, 0.0, -3923.1558350510404, 0.0]
['beep', 0.0, 314.01965785260893, 0.0, 0.0, 0.0, 0.0, -3923.267593773317, 0.0]
['beep', 0.0, 314.8913758863659, 0.0, 0.0, 0.0, 0.0, -3923.9604978514312, 0.0]
['beep', 0.0, 297.94875358924315, 0.0, 0.0, 0.0, 0.0, -3925.882747874588, 0.0]
['beep', 0.0, 240.03538370554256, 0.0, 0.0, 0.0, 0.0, -3925.4133612410265, 0.0]
['beep', 0.0, 285.90116332783265, 0.0, 0.0, 0.0, 0.0, -3924.8322158851884, 0.0]
['beep', 0.0, 314.69021018626813, 0.0, 0.0, 0.0, 0.0, -3924.362829251627, 0.0]
['beep', 0.0, 314.3325822749832, 0.0, 0.0, 0.0, 0.0, -3924.228718784895, 0.0]
['beep', 0.0, 315.338410775472, 0.0, 0.0, 0.0, 0.0, -3925.011029840831, 0.0]
['beep', 0.0, 313.9078991303324, 0.0, 0.0, 0.0, 0.0, -3925.033381585286, 0.0]
['beep', 0.0, 311.7397799181676, 0.0, 0.0, 0.0, 0.0, -3920.741846649867, 0.0]
['beep', 0.0, 312.00800085163127, 0.0, 0.0, 0.0, 0.0, -3920.0265908272972, 0.0]
['beep', 0.0, 313.43851249677095, 0.0, 0.0, 0.0, 0.0, -3919.400741982549, 0.0]
['beep', 0.0, 301.70384665773474, 0.0, 0.0, 0.0, 0.0, -3917.2773262592946, 0.0]
['beep', 0.0, 245.77978203055645, 0.0, 0.0, 0.0, 0.0, -3913.7681023798114, 0.0]
['beep', 0.0, 287.91282032881026, 0.0, 0.0, 0.0, 0.0, -3909.8565471001325, 0.0]
['beep', 0.0, 312.72325667420114, 0.0, 0.0, 0.0, 0.0, -3904.805052853233, 0.0]
['beep', 0.0, 310.1751578062961, 0.0, 0.0, 0.0, 0.0, -3897.7195498609008, 0.0]
['beep', 0.0, 307.9399833607654, 0.0, 0.0, 0.0, 0.0, -3891.48341315787, 0.0]
['beep', 0.0, 308.23055603868437, 0.0, 0.0, 0.0, 0.0, -3885.716663088401, 0.0]
['beep', 0.0, 314.5784514639916, 0.0, 0.0, 0.0, 0.0, -3878.050014740231, 0.0]
['beep', 0.0, 312.25387004063964, 0.0, 0.0, 0.0, 0.0, -3873.199686193429, 0.0]
['beep', 0.0, 308.7446461611565, 0.0, 0.0, 0.0, 0.0, -3866.8070872792114, 0.0]
['beep', 0.0, 301.1450530463521, 0.0, 0.0, 0.0, 0.0, -3857.62052030808, 0.0]
['beep', 0.0, 252.2394361781402, 0.0, 0.0, 0.0, 0.0, -3851.5184940717813, 0.0]
['beep', 0.0, 291.4443959527488, 0.0, 0.0, 0.0, 0.0, -3848.724526014868, 0.0]
['beep', 0.0, 308.14114906086314, 0.0, 0.0, 0.0, 0.0, -3845.6623370244906, 0.0]
['beep', 0.0, 306.44241648225983, 0.0, 0.0, 0.0, 0.0, -3841.0802294111527, 0.0]
['beep', 0.0, 313.5502712190475, 0.0, 0.0, 0.0, 0.0, -3835.693458997424, 0.0]
['beep', 0.0, 313.952602619243, 0.0, 0.0, 0.0, 0.0, -3831.8042554622, 0.0]
['beep', 0.0, 309.146977561352, 0.0, 0.0, 0.0, 0.0, -3826.886871682033, 0.0]
['beep', 0.0, 311.27039328460614, 0.0, 0.0, 0.0, 0.0, -3822.32711581315, 0.0]
['beep', 0.0, 312.6114979519246, 0.0, 0.0, 0.0, 0.0, -3818.4155605334713, 0.0]
['beep', 0.0, 310.7115996732235, 0.0, 0.0, 0.0, 0.0, -3817.0297523772424, 0.0]
['beep', 0.0, 312.32092527400556, 0.0, 0.0, 0.0, 0.0, -3816.6944762104126, 0.0]
['beep', 0.0, 311.22568979569553, 0.0, 0.0, 0.0, 0.0, -3811.106540096586, 0.0]
['beep', 0.0, 309.146977561352, 0.0, 0.0, 0.0, 0.0, -3809.2289935623403, 0.0]
['beep', 0.0, 309.8622333839218, 0.0, 0.0, 0.0, 0.0, -3806.6361912055245, 0.0]
['beep', 0.0, 300.72036990170125, 0.0, 0.0, 0.0, 0.0, -3802.9034498814885, 0.0]
['beep', 0.0, 246.04800296402016, 0.0, 0.0, 0.0, 0.0, -3804.0880923376194, 0.0]
['beep', 0.0, 277.5192591570925, 0.0, 0.0, 0.0, 0.0, -3803.5069469817818, 0.0]
['beep', 0.0, 303.73785540316766, 0.0, 0.0, 0.0, 0.0, -3798.4331009904267, 0.0]
['beep', 0.0, 302.06147456901965, 0.0, 0.0, 0.0, 0.0, -3796.600257945092, 0.0]
['beep', 0.0, 301.77090189110066, 0.0, 0.0, 0.0, 0.0, -3797.7849004012232, 0.0]
['beep', 0.0, 300.5862594349694, 0.0, 0.0, 0.0, 0.0, -3796.913182367466, 0.0]
['beep', 0.0, 299.7145414012124, 0.0, 0.0, 0.0, 0.0, -3798.880135879533, 0.0]
['beep', 0.0, 300.25098326813975, 0.0, 0.0, 0.0, 0.0, -3794.588600944114, 0.0]
['beep', 0.0, 299.98276233467607, 0.0, 0.0, 0.0, 0.0, -3791.794632887201, 0.0]
['beep', 0.0, 281.83314583696676, 0.0, 0.0, 0.0, 0.0, -3793.627475932536, 0.0]
['beep', 0.0, 226.15495039879687, 0.0, 0.0, 0.0, 0.0, -3792.2193160318516, 0.0]
['beep', 0.0, 273.6747591107797, 0.0, 0.0, 0.0, 0.0, -3793.9404003549103, 0.0]
['beep', 0.0, 297.54642218904763, 0.0, 0.0, 0.0, 0.0, -3791.9734468428433, 0.0]
['beep', 0.0, 297.21114602221803, 0.0, 0.0, 0.0, 0.0, -3790.0064933307763, 0.0]
['beep', 0.0, 298.8204716230001, 0.0, 0.0, 0.0, 0.0, -3786.0725863066423, 0.0]
['beep', 0.0, 297.4123117223158, 0.0, 0.0, 0.0, 0.0, -3784.5750194281363, 0.0]
['beep', 0.0, 296.20531752172917, 0.0, 0.0, 0.0, 0.0, -3784.619722917047, 0.0]
['beep', 0.0, 294.17130877629626, 0.0, 0.0, 0.0, 0.0, -3780.328187981628, 0.0]
['beep', 0.0, 292.2043552642292, 0.0, 0.0, 0.0, 0.0, -3779.054138547676, 0.0]
['beep', 0.0, 278.4133289353048, 0.0, 0.0, 0.0, 0.0, -3776.5954466575918, 0.0]
['beep', 0.0, 224.25505212009577, 0.0, 0.0, 0.0, 0.0, -3776.0366530462093, 0.0]
['beep', 0.0, 268.73502358615684, 0.0, 0.0, 0.0, 0.0, -3774.561437912159, 0.0]
['beep', 0.0, 295.13243378787445, 0.0, 0.0, 0.0, 0.0, -3772.1250977665304, 0.0]
['beep', 0.0, 294.46188145421524, 0.0, 0.0, 0.0, 0.0, -3771.8345250886114, 0.0]
['beep', 0.0, 296.7194076442013, 0.0, 0.0, 0.0, 0.0, -3772.8403535891002, 0.0]
['beep', 0.0, 297.8593466114219, 0.0, 0.0, 0.0, 0.0, -3774.136754767508, 0.0]
['beep', 0.0, 297.6805326557795, 0.0, 0.0, 0.0, 0.0, -3776.1931152573966, 0.0]
['beep', 0.0, 300.8768321128884, 0.0, 0.0, 0.0, 0.0, -3778.718862380846, 0.0]
['beep', 0.0, 302.2179367802068, 0.0, 0.0, 0.0, 0.0, -3780.4846501928155, 0.0]
['beep', 0.0, 283.39776794883824, 0.0, 0.0, 0.0, 0.0, -3782.697472893891, 0.0]
['beep', 0.0, 229.41830508927168, 0.0, 0.0, 0.0, 0.0, -3785.491440950804, 0.0]
['beep', 0.0, 279.1285847578746, 0.0, 0.0, 0.0, 0.0, -3788.5759816856366, 0.0]
['beep', 0.0, 304.40840773682686, 0.0, 0.0, 0.0, 0.0, -3789.917086352955, 0.0]
['beep', 0.0, 302.6426199248576, 0.0, 0.0, 0.0, 0.0, -3790.878211364533, 0.0]
['beep', 0.0, 305.0789600704861, 0.0, 0.0, 0.0, 0.0, -3791.3252462536393, 0.0]
['beep', 0.0, 306.017733337609, 0.0, 0.0, 0.0, 0.0, -3791.9957985872984, 0.0]
['beep', 0.0, 305.86127112642185, 0.0, 0.0, 0.0, 0.0, -3790.9676183423544, 0.0]
['beep', 0.0, 304.85544262593305, 0.0, 0.0, 0.0, 0.0, -3789.5371066972148, 0.0]
['beep', 0.0, 302.75437864713416, 0.0, 0.0, 0.0, 0.0, -3785.916124095455, 0.0]
['beep', 0.0, 304.4531112257375, 0.0, 0.0, 0.0, 0.0, -3782.1610310269634, 0.0]
['beep', 0.0, 303.38022749188275, 0.0, 0.0, 0.0, 0.0, -3778.763565869757, 0.0]
['beep', 0.0, 303.8496141254442, 0.0, 0.0, 0.0, 0.0, -3774.0249960452315, 0.0]
['beep', 0.0, 304.9448496037543, 0.0, 0.0, 0.0, 0.0, -3767.6100453865583, 0.0]
['beep', 0.0, 305.19071879276265, 0.0, 0.0, 0.0, 0.0, -3762.9385307953994, 0.0]
['beep', 0.0, 280.469689425193, 0.0, 0.0, 0.0, 0.0, -3759.3846034270055, 0.0]
['beep', 0.0, 225.0597149204868, 0.0, 0.0, 0.0, 0.0, -3756.568283625637, 0.0]
['beep', 0.0, 279.7544336026232, 0.0, 0.0, 0.0, 0.0, -3754.400164413472, 0.0]
['beep', 0.0, 310.5551374620363, 0.0, 0.0, 0.0, 0.0, -3753.014356257243, 0.0]
['beep', 0.0, 306.4200647378045, 0.0, 0.0, 0.0, 0.0, -3753.327280679617, 0.0]
['beep', 0.0, 301.9497158467431, 0.0, 0.0, 0.0, 0.0, -3752.947301023877, 0.0]
['beep', 0.0, 300.72036990170125, 0.0, 0.0, 0.0, 0.0, -3754.7354405803017, 0.0]
['beep', 0.0, 303.67080016980174, 0.0, 0.0, 0.0, 0.0, -3758.3564231820615, 0.0]
['beep', 0.0, 309.0575705835308, 0.0, 0.0, 0.0, 0.0, -3760.524542394226, 0.0]
['beep', 0.0, 310.8457101399553, 0.0, 0.0, 0.0, 0.0, -3765.754850596768, 0.0]
['beep', 0.0, 309.5046054726369, 0.0, 0.0, 0.0, 0.0, -3771.3874901995055, 0.0]
['beep', 0.0, 309.66106768382406, 0.0, 0.0, 0.0, 0.0, -3776.818964102145, 0.0]
['beep', 0.0, 309.01286709462016, 0.0, 0.0, 0.0, 0.0, -3785.3126269951617, 0.0]
['beep', 0.0, 308.63288743887995, 0.0, 0.0, 0.0, 0.0, -3792.08520556512, 0.0]
['beep', 0.0, 308.3199630165056, 0.0, 0.0, 0.0, 0.0, -3796.8684788785554, 0.0]
['beep', 0.0, 309.37049500590507, 0.0, 0.0, 0.0, 0.0, -3802.0317318477314, 0.0]
['beep', 0.0, 309.95164036174305, 0.0, 0.0, 0.0, 0.0, -3807.329095283639, 0.0]
['beep', 0.0, 310.5551374620363, 0.0, 0.0, 0.0, 0.0, -3813.587583731125, 0.0]
['beep', 0.0, 310.1751578062961, 0.0, 0.0, 0.0, 0.0, -3819.779016945245, 0.0]
['beep', 0.0, 311.22568979569553, 0.0, 0.0, 0.0, 0.0, -3824.0929036251196, 0.0]
['beep', 0.0, 297.7028844002348, 0.0, 0.0, 0.0, 0.0, -3830.172578116963, 0.0]
['beep', 0.0, 242.49407559562633, 0.0, 0.0, 0.0, 0.0, -3835.984031675343, 0.0]
['beep', 0.0, 281.78844234805615, 0.0, 0.0, 0.0, 0.0, -3840.633194522047, 0.0]
['beep', 0.0, 311.4268554957933, 0.0, 0.0, 0.0, 0.0, -3846.0199649357755, 0.0]
['beep', 0.0, 311.7844834070782, 0.0, 0.0, 0.0, 0.0, -3850.780886504756, 0.0]
['beep', 0.0, 312.9691258632095, 0.0, 0.0, 0.0, 0.0, -3854.200703406418, 0.0]
['beep', 0.0, 314.6231549529022, 0.0, 0.0, 0.0, 0.0, -3857.3075958857057, 0.0]
['beep', 0.0, 314.71256193072344, 0.0, 0.0, 0.0, 0.0, -3862.5602558327028, 0.0]
['beep', 0.0, 314.46669274171506, 0.0, 0.0, 0.0, 0.0, -3866.918846001488, 0.0]
['beep', 0.0, 315.1819485642849, 0.0, 0.0, 0.0, 0.0, -3869.3551861471165, 0.0]
['beep', 0.0, 313.3044020300391, 0.0, 0.0, 0.0, 0.0, -3872.864410026599, 0.0]
['beep', 0.0, 314.46669274171506, 0.0, 0.0, 0.0, 0.0, -3875.881895528066, 0.0]
['beep', 0.0, 315.628983453391, 0.0, 0.0, 0.0, 0.0, -3879.078194985175, 0.0]
['beep', 0.0, 315.80779740903347, 0.0, 0.0, 0.0, 0.0, -3881.067500241697, 0.0]
['beep', 0.0, 314.824320653, 0.0, 0.0, 0.0, 0.0, -3883.4144334095045, 0.0]
['beep', 0.0, 303.11200655841907, 0.0, 0.0, 0.0, 0.0, -3885.9848840218647, 0.0]
['beep', 0.0, 246.78561053104528, 0.0, 0.0, 0.0, 0.0, -3887.0577677557194, 0.0]
['beep', 0.0, 287.6445993953466, 0.0, 0.0, 0.0, 0.0, -3889.8964393015435, 0.0]
['beep', 0.0, 318.7805794215893, 0.0, 0.0, 0.0, 0.0, -3892.0869102581637, 0.0]
['beep', 0.0, 316.6795154427905, 0.0, 0.0, 0.0, 0.0, -3893.3162562032053, 0.0]
['beep', 0.0, 316.6348119538799, 0.0, 0.0, 0.0, 0.0, -3895.596134137647, 0.0]
['beep', 0.0, 318.3782480213938, 0.0, 0.0, 0.0, 0.0, -3896.713721360412, 0.0]
['beep', 0.0, 317.28301254308377, 0.0, 0.0, 0.0, 0.0, -3896.557259149225, 0.0]
['beep', 0.0, 315.5619282200251, 0.0, 0.0, 0.0, 0.0, -3896.6690178715016, 0.0]
['beep', 0.0, 314.9807828641871, 0.0, 0.0, 0.0, 0.0, -3897.6301428830798, 0.0]
['beep', 0.0, 316.6348119538799, 0.0, 0.0, 0.0, 0.0, -3898.4124539390154, 0.0]
['beep', 0.0, 317.4618264987262, 0.0, 0.0, 0.0, 0.0, -3898.904192317032, 0.0]
['beep', 0.0, 318.91468988832116, 0.0, 0.0, 0.0, 0.0, -3899.619448139602, 0.0]
['beep', 0.0, 316.7689224206117, 0.0, 0.0, 0.0, 0.0, -3901.1170150181074, 0.0]
['beep', 0.0, 315.13724507537427, 0.0, 0.0, 0.0, 0.0, -3901.139366762563, 0.0]
['beep', 0.0, 304.78838739256713, 0.0, 0.0, 0.0, 0.0, -3902.145195263052, 0.0]
['beep', 0.0, 246.94207274223243, 0.0, 0.0, 0.0, 0.0, -3902.7710441078, 0.0]
['beep', 0.0, 285.27531448308406, 0.0, 0.0, 0.0, 0.0, -3903.5310034192808, 0.0]
['beep', 0.0, 315.80779740903347, 0.0, 0.0, 0.0, 0.0, -3903.3745412080934, 0.0]
['beep', 0.0, 315.628983453391, 0.0, 0.0, 0.0, 0.0, -3901.876974329588, 0.0]
['beep', 0.0, 316.2324805536843, 0.0, 0.0, 0.0, 0.0, -3901.944029562954, 0.0]
['beep', 0.0, 316.43364625378206, 0.0, 0.0, 0.0, 0.0, -3901.9887330518645, 0.0]
['beep', 0.0, 317.1265503318966, 0.0, 0.0, 0.0, 0.0, -3901.944029562954, 0.0]
['beep', 0.0, 317.14890207635193, 0.0, 0.0, 0.0, 0.0, -3903.0616167857193, 0.0]
['beep', 0.0, 316.6795154427905, 0.0, 0.0, 0.0, 0.0, -3903.419244697004, 0.0]
['beep', 0.0, 316.07601834249715, 0.0, 0.0, 0.0, 0.0, -3903.6427621415573, 0.0]
['beep', 0.0, 318.1323788323854, 0.0, 0.0, 0.0, 0.0, -3903.396892952549, 0.0]
['beep', 0.0, 321.5521957340474, 0.0, 0.0, 0.0, 0.0, -3905.2073842534287, 0.0]
['beep', 0.0, 320.5910707224692, 0.0, 0.0, 0.0, 0.0, -3904.6262388975906, 0.0]
['beep', 0.0, 320.3228497890055, 0.0, 0.0, 0.0, 0.0, -3904.0227417972974, 0.0]
['beep', 0.0, 304.6095734369247, 0.0, 0.0, 0.0, 0.0, -3903.8215760972, 0.0]
['beep', 0.0, 250.987738488643, 0.0, 0.0, 0.0, 0.0, -3903.9780383083867, 0.0]
['beep', 0.0, 296.339427988461, 0.0, 0.0, 0.0, 0.0, -3902.882802830077, 0.0]
['beep', 0.0, 322.7368381901787, 0.0, 0.0, 0.0, 0.0, -3902.9722098078983, 0.0]
['beep', 0.0, 319.9428701332653, 0.0, 0.0, 0.0, 0.0, -3903.709817374923, 0.0]
['beep', 0.0, 319.3617247774273, 0.0, 0.0, 0.0, 0.0, -3903.195727252451, 0.0]
['beep', 0.0, 319.4287800107932, 0.0, 0.0, 0.0, 0.0, -3902.4134161965153, 0.0]
['beep', 0.0, 319.47348349970383, 0.0, 0.0, 0.0, 0.0, -3903.910983075021, 0.0]
['beep', 0.0, 318.49000674367034, 0.0, 0.0, 0.0, 0.0, -3903.8886313305657, 0.0]
['beep', 0.0, 318.3558962769385, 0.0, 0.0, 0.0, 0.0, -3902.7263406188895, 0.0]
['beep', 0.0, 317.6853439432793, 0.0, 0.0, 0.0, 0.0, -3904.0227417972974, 0.0]
['beep', 0.0, 318.15473057684073, 0.0, 0.0, 0.0, 0.0, -3906.101454031641, 0.0]
['beep', 0.0, 320.434608511282, 0.0, 0.0, 0.0, 0.0, -3906.72730287639, 0.0]
['beep', 0.0, 320.61342246692453, 0.0, 0.0, 0.0, 0.0, -3906.8390615986664, 0.0]
['beep', 0.0, 319.3617247774273, 0.0, 0.0, 0.0, 0.0, -3905.095625531152, 0.0]
['beep', 0.0, 320.0322771110865, 0.0, 0.0, 0.0, 0.0, -3905.2297359978843, 0.0]
['beep', 0.0, 321.4404370117709, 0.0, 0.0, 0.0, 0.0, -3906.3473232206493, 0.0]
['beep', 0.0, 321.59689922295803, 0.0, 0.0, 0.0, 0.0, -3905.6320673980795, 0.0]
['beep', 0.0, 320.25579455563957, 0.0, 0.0, 0.0, 0.0, -3905.4756051868926, 0.0]
['beep', 0.0, 319.87581489989935, 0.0, 0.0, 0.0, 0.0, -3903.48629993037, 0.0]
['beep', 0.0, 295.13243378787445, 0.0, 0.0, 0.0, 0.0, -3903.1510237635407, 0.0]
['beep', 0.0, 239.67775579425762, 0.0, 0.0, 0.0, 0.0, -3902.905154574532, 0.0]
['beep', 0.0, 289.29862848503933, 0.0, 0.0, 0.0, 0.0, -3902.838099341166, 0.0]
['beep', 0.0, 319.20526256624015, 0.0, 0.0, 0.0, 0.0, -3902.3016574742387, 0.0]
['beep', 0.0, 319.0935038439636, 0.0, 0.0, 0.0, 0.0, -3900.558221406725, 0.0]
['beep', 0.0, 319.9428701332653, 0.0, 0.0, 0.0, 0.0, -3900.7370353623674, 0.0]
['beep', 0.0, 319.54053873306975, 0.0, 0.0, 0.0, 0.0, -3899.3735789505936, 0.0]
['beep', 0.0, 322.66978295681275, 0.0, 0.0, 0.0, 0.0, -3899.552392906236, 0.0]
['beep', 0.0, 321.2169195672178, 0.0, 0.0, 0.0, 0.0, -3900.8934975735547, 0.0]
['beep', 0.0, 320.3675532779161, 0.0, 0.0, 0.0, 0.0, -3901.586401651669, 0.0]
['beep', 0.0, 321.32867828949435, 0.0, 0.0, 0.0, 0.0, -3900.4464626844483, 0.0]
['beep', 0.0, 322.62507946790214, 0.0, 0.0, 0.0, 0.0, -3899.4182824395043, 0.0]
['beep', 0.0, 322.28980330107254, 0.0, 0.0, 0.0, 0.0, -3901.0946632736523, 0.0]
['beep', 0.0, 323.94383239076524, 0.0, 0.0, 0.0, 0.0, -3901.1840702514737, 0.0]
['beep', 0.0, 323.96618413522054, 0.0, 0.0, 0.0, 0.0, -3900.0217795397975, 0.0]
['beep', 0.0, 320.72518118920107, 0.0, 0.0, 0.0, 0.0, -3897.7195498609008, 0.0]
['beep', 0.0, 320.94869863375413, 0.0, 0.0, 0.0, 0.0, -3898.3901021945603, 0.0]
['beep', 0.0, 323.8097219240334, 0.0, 0.0, 0.0, 0.0, -3899.552392906236, 0.0]
['beep', 0.0, 323.94383239076524, 0.0, 0.0, 0.0, 0.0, -3900.3123522177166, 0.0]
['beep', 0.0, 322.8709486569105, 0.0, 0.0, 0.0, 0.0, -3898.9265440614877, 0.0]
['beep', 0.0, 315.78544566457816, 0.0, 0.0, 0.0, 0.0, -3896.266686471306, 0.0]
['beep', 0.0, 260.598988604425, 0.0, 0.0, 0.0, 0.0, -3896.4455004269485, 0.0]
['beep', 0.0, 293.43370120927113, 0.0, 0.0, 0.0, 0.0, -3897.3172184607056, 0.0]
['beep', 0.0, 324.9049574023435, 0.0, 0.0, 0.0, 0.0, -3893.7632910923116, 0.0]
['beep', 0.0, 322.93800389027643, 0.0, 0.0, 0.0, 0.0, -3894.366788192605, 0.0]
['beep', 0.0, 322.8485969124552, 0.0, 0.0, 0.0, 0.0, -3894.612657381613, 0.0]
['beep', 0.0, 325.44139926927085, 0.0, 0.0, 0.0, 0.0, -3891.9304480469764, 0.0]
['beep', 0.0, 325.1955300802625, 0.0, 0.0, 0.0, 0.0, -3891.1928404799514, 0.0]
['beep', 0.0, 326.6260417254021, 0.0, 0.0, 0.0, 0.0, -3888.801203823233, 0.0]
['beep', 0.0, 324.01088762413116, 0.0, 0.0, 0.0, 0.0, -3887.6612648560126, 0.0]
['beep', 0.0, 322.4462655122597, 0.0, 0.0, 0.0, 0.0, -3886.431918910971, 0.0]
['beep', 0.0, 322.9156521458211, 0.0, 0.0, 0.0, 0.0, -3885.269628199295, 0.0]
['beep', 0.0, 324.3908672798714, 0.0, 0.0, 0.0, 0.0, -3886.9236572889877, 0.0]
['beep', 0.0, 325.5308062470921, 0.0, 0.0, 0.0, 0.0, -3891.8633928136105, 0.0]
['beep', 0.0, 328.0342016260864, 0.0, 0.0, 0.0, 0.0, -3895.596134137647, 0.0]
['beep', 0.0, 323.65325971284625, 0.0, 0.0, 0.0, 0.0, -3894.098567259141, 0.0]
['beep', 0.0, 327.74362894816744, 0.0, 0.0, 0.0, 0.0, -3894.8585265706215, 0.0]
['beep', 0.0, 331.25285282765066, 0.0, 0.0, 0.0, 0.0, -3899.9994277953424, 0.0]
['beep', 0.0, 328.63769872637977, 0.0, 0.0, 0.0, 0.0, -3907.2413929988616, 0.0]
['beep', 0.0, 325.17317833580717, 0.0, 0.0, 0.0, 0.0, -3915.7350558918783, 0.0]
['beep', 0.0, 325.39669578036023, 0.0, 0.0, 0.0, 0.0, -3926.329782763694, 0.0]
['beep', 0.0, 330.20232083825124, 0.0, 0.0, 0.0, 0.0, -3935.941032879476, 0.0]
['beep', 0.0, 330.0905621159747, 0.0, 0.0, 0.0, 0.0, -3947.653346974057, 0.0]
['beep', 0.0, 326.6483934698574, 0.0, 0.0, 0.0, 0.0, -3960.3491378246713, 0.0]
['beep', 0.0, 327.5871667369803, 0.0, 0.0, 0.0, 0.0, -3971.4356030745034, 0.0]
['beep', 0.0, 332.39279179487136, 0.0, 0.0, 0.0, 0.0, -3982.9914549578975, 0.0]
['beep', 0.0, 332.5045505171479, 0.0, 0.0, 0.0, 0.0, -3992.8485742626876, 0.0]
['beep', 0.0, 333.6221377399132, 0.0, 0.0, 0.0, 0.0, -3999.9564289994755, 0.0]
['beep', 0.0, 333.5550825065473, 0.0, 0.0, 0.0, 0.0, -4008.6959610815006, 0.0]
['beep', 0.0, 333.9350621622875, 0.0, 0.0, 0.0, 0.0, -4020.005943775886, 0.0]
['beep', 0.0, 335.74555346316737, 0.0, 0.0, 0.0, 0.0, -4027.136150257129, 0.0]
['beep', 0.0, 332.99628889516464, 0.0, 0.0, 0.0, 0.0, -4033.8640253381764, 0.0]
['beep', 0.0, 331.49872201665903, 0.0, 0.0, 0.0, 0.0, -4044.6375661656343, 0.0]
['beep', 0.0, 335.5220360186143, 0.0, 0.0, 0.0, 0.0, -4054.6511476816117, 0.0]
['beep', 0.0, 333.5103790176367, 0.0, 0.0, 0.0, 0.0, -4062.9212931300754, 0.0]
['beep', 0.0, 335.9243674188098, 0.0, 0.0, 0.0, 0.0, -4070.453831011514, 0.0]
['beep', 0.0, 339.09831513146344, 0.0, 0.0, 0.0, 0.0, -4076.8240781812765, 0.0]
['beep', 0.0, 336.48316103019255, 0.0, 0.0, 0.0, 0.0, -4085.4294997965694, 0.0]
['beep', 0.0, 335.499684274159, 0.0, 0.0, 0.0, 0.0, -4092.4255958110807, 0.0]
['beep', 0.0, 339.2324255981953, 0.0, 0.0, 0.0, 0.0, -4097.432386569069, 0.0]
['beep', 0.0, 339.2324255981953, 0.0, 0.0, 0.0, 0.0, -4104.719055261499, 0.0]
['beep', 0.0, 336.01377439663105, 0.0, 0.0, 0.0, 0.0, -4110.150529164139, 0.0]
['beep', 0.0, 336.88549243038807, 0.0, 0.0, 0.0, 0.0, -4110.999895453441, 0.0]
['beep', 0.0, 340.10414363195224, 0.0, 0.0, 0.0, 0.0, -4119.225337412994, 0.0]
['beep', 0.0, 341.5123035326366, 0.0, 0.0, 0.0, 0.0, -4131.965831752519, 0.0]
['beep', 0.0, 344.0827541449969, 0.0, 0.0, 0.0, 0.0, -4132.099942219251, 0.0]
['beep', 0.0, 348.30723384705, 0.0, 0.0, 0.0, 0.0, -4134.379820153692, 0.0]
['beep', 0.0, 348.03901291358625, 0.0, 0.0, 0.0, 0.0, -4134.603337598245, 0.0]
['beep', 0.0, 345.40150706786005, 0.0, 0.0, 0.0, 0.0, -4134.223357942505, 0.0]
['beep', 0.0, 345.5356175345919, 0.0, 0.0, 0.0, 0.0, -4134.312764920326, 0.0]
['beep', 0.0, 345.78148672360027, 0.0, 0.0, 0.0, 0.0, -4134.312764920326, 0.0]
['beep', 0.0, 345.66972800132373, 0.0, 0.0, 0.0, 0.0, -4131.094113718762, 0.0]
['beep', 0.0, 346.2955768460723, 0.0, 0.0, 0.0, 0.0, -4134.268061431416, 0.0]
['beep', 0.0, 347.144943135374, 0.0, 0.0, 0.0, 0.0, -4136.547939365857, 0.0]
['beep', 0.0, 345.69207974577904, 0.0, 0.0, 0.0, 0.0, -4133.619860842212, 0.0]
['beep', 0.0, 344.41803031182656, 0.0, 0.0, 0.0, 0.0, -4130.043581729363, 0.0]
['beep', 0.0, 346.2955768460723, 0.0, 0.0, 0.0, 0.0, -4128.858939273231, 0.0]
['beep', 0.0, 346.98848092418683, 0.0, 0.0, 0.0, 0.0, -4127.33902065027, 0.0]
['beep', 0.0, 347.74844023566726, 0.0, 0.0, 0.0, 0.0, -4130.848244529753, 0.0]
['beep', 0.0, 348.1507716358628, 0.0, 0.0, 0.0, 0.0, -4131.898776519153, 0.0]
['beep', 0.0, 348.9554344362539, 0.0, 0.0, 0.0, 0.0, -4132.8822532751865, 0.0]
['beep', 0.0, 349.0001379251645, 0.0, 0.0, 0.0, 0.0, -4132.8822532751865, 0.0]
['beep', 0.0, 349.0001379251645, 0.0, 0.0, 0.0, 0.0, -4133.9998404979515, 0.0]
['beep', 0.0, 349.20130362526226, 0.0, 0.0, 0.0, 0.0, -4133.128122464195, 0.0]
['beep', 0.0, 348.6425100138796, 0.0, 0.0, 0.0, 0.0, -4130.691782318567, 0.0]
['beep', 0.0, 348.10606814695217, 0.0, 0.0, 0.0, 0.0, -4128.747180550955, 0.0]
['beep', 0.0, 349.51422804763655, 0.0, 0.0, 0.0, 0.0, -4128.970697995508, 0.0]
['beep', 0.0, 351.3023676040611, 0.0, 0.0, 0.0, 0.0, -4129.082456717784, 0.0]
['beep', 0.0, 351.79410598207784, 0.0, 0.0, 0.0, 0.0, -4127.6742968171, 0.0]
['beep', 0.0, 350.9670914372315, 0.0, 0.0, 0.0, 0.0, -4126.243785171961, 0.0]
['beep', 0.0, 337.6454517418685, 0.0, 0.0, 0.0, 0.0, -4124.813273526821, 0.0]
['beep', 0.0, 277.0945760124417, 0.0, 0.0, 0.0, 0.0, -4124.567404337812, 0.0]
['beep', 0.0, 314.01965785260893, 0.0, 0.0, 0.0, 0.0, -4123.047485714851, 0.0]
['beep', 0.0, 349.0001379251645, 0.0, 0.0, 0.0, 0.0, -4120.409979869125, 0.0]
['beep', 0.0, 347.8825507023991, 0.0, 0.0, 0.0, 0.0, -4120.00764846893, 0.0]
['beep', 0.0, 348.7542687361561, 0.0, 0.0, 0.0, 0.0, -4118.286564145871, 0.0]
['beep', 0.0, 352.68817576029016, 0.0, 0.0, 0.0, 0.0, -4119.001819968441, 0.0]
['beep', 0.0, 354.36455659443817, 0.0, 0.0, 0.0, 0.0, -4121.035828713873, 0.0]
['beep', 0.0, 355.4597920727482, 0.0, 0.0, 0.0, 0.0, -4123.203947926038, 0.0]
['beep', 0.0, 354.8115914835443, 0.0, 0.0, 0.0, 0.0, -4121.572270580801, 0.0]
['beep', 0.0, 335.8126086965333, 0.0, 0.0, 0.0, 0.0, -4115.2690786444045, 0.0]
['beep', 0.0, 272.04308176554224, 0.0, 0.0, 0.0, 0.0, -4117.1466251786505, 0.0]
['beep', 0.0, 313.70673343023464, 0.0, 0.0, 0.0, 0.0, -4125.0144392269185, 0.0]
['beep', 0.0, 355.01275718364207, 0.0, 0.0, 0.0, 0.0, -4125.6626398161225, 0.0]
['beep', 0.0, 353.60459728295774, 0.0, 0.0, 0.0, 0.0, -4126.243785171961, 0.0]
['beep', 0.0, 341.0652686435305, 0.0, 0.0, 0.0, 0.0, -4122.242822914461, 0.0]
['beep', 0.0, 279.4862126691595, 0.0, 0.0, 0.0, 0.0, -4123.852148515242, 0.0]
['beep', 0.0, 309.4151984948157, 0.0, 0.0, 0.0, 0.0, -4124.477997359991, 0.0]
['beep', 0.0, 350.6541670148572, 0.0, 0.0, 0.0, 0.0, -4124.545052593357, 0.0]
['beep', 0.0, 351.77175423762253, 0.0, 0.0, 0.0, 0.0, -4127.0707997168065, 0.0]
['beep', 0.0, 351.7270507487119, 0.0, 0.0, 0.0, 0.0, -4127.406075883636, 0.0]
['beep', 0.0, 353.67165251632366, 0.0, 0.0, 0.0, 0.0, -4125.506177604935, 0.0]
['beep', 0.0, 353.7387077496896, 0.0, 0.0, 0.0, 0.0, -4124.701514804544, 0.0]
['beep', 0.0, 353.1799141383069, 0.0, 0.0, 0.0, 0.0, -4126.154378194139, 0.0]
['beep', 0.0, 353.58224553850243, 0.0, 0.0, 0.0, 0.0, -4126.53435784988, 0.0]
['beep', 0.0, 353.1352106493963, 0.0, 0.0, 0.0, 0.0, -4123.494520603957, 0.0]
['beep', 0.0, 348.4413443137818, 0.0, 0.0, 0.0, 0.0, -4120.477035102491, 0.0]
['beep', 0.0, 346.9437774352762, 0.0, 0.0, 0.0, 0.0, -4120.477035102491, 0.0]
['beep', 0.0, 358.81255374104427, 0.0, 0.0, 0.0, 0.0, -4117.236032156472, 0.0]
['beep', 0.0, 362.433536342804, 0.0, 0.0, 0.0, 0.0, -4110.686971031067, 0.0]
['beep', 0.0, 364.73576602170067, 0.0, 0.0, 0.0, 0.0, -4106.95422970703, 0.0]
['beep', 0.0, 367.64149280089055, 0.0, 0.0, 0.0, 0.0, -4099.354636592226, 0.0]
['beep', 0.0, 370.2342951577062, 0.0, 0.0, 0.0, 0.0, -4089.8551451987205, 0.0]
['beep', 0.0, 371.8883242473989, 0.0, 0.0, 0.0, 0.0, -4078.835735182254, 0.0]
['beep', 0.0, 374.8164027710441, 0.0, 0.0, 0.0, 0.0, -4072.733708945955, 0.0]
['beep', 0.0, 373.7882225261, 0.0, 0.0, 0.0, 0.0, -4069.4256507665696, 0.0]
['beep', 0.0, 372.96120798125366, 0.0, 0.0, 0.0, 0.0, -4073.068985112785, 0.0]
['beep', 0.0, 375.4869551047033, 0.0, 0.0, 0.0, 0.0, -4071.9513978900195, 0.0]
['beep', 0.0, 377.38685338340446, 0.0, 0.0, 0.0, 0.0, -4072.2643223123937, 0.0]
['beep', 0.0, 374.9728649822313, 0.0, 0.0, 0.0, 0.0, -4071.0349763673516, 0.0]
['beep', 0.0, 372.4694696032369, 0.0, 0.0, 0.0, 0.0, -4068.777450177366, 0.0]
['beep', 0.0, 323.7426666906675, 0.0, 0.0, 0.0, 0.0, -4070.4091275226033, 0.0]
['beep', 0.0, 280.9614278032098, 0.0, 0.0, 0.0, 0.0, -4073.381909535159, 0.0]
['beep', 0.0, 282.0343115370645, 0.0, 0.0, 0.0, 0.0, -4074.477145013469, 0.0]
['beep', 0.0, 281.5425731590478, 0.0, 0.0, 0.0, 0.0, -4074.2089240800055, 0.0]
['beep', 0.0, 282.9060295708215, 0.0, 0.0, 0.0, 0.0, -4073.5383717463465, 0.0]
['beep', 0.0, 281.5425731590478, 0.0, 0.0, 0.0, 0.0, -4072.487839756947, 0.0]
['beep', 0.0, 326.46957951421496, 0.0, 0.0, 0.0, 0.0, -4070.7891071783433, 0.0]
['beep', 0.0, 375.88928650489885, 0.0, 0.0, 0.0, 0.0, -4073.8512961687206, 0.0]
['beep', 0.0, 378.1021092059743, 0.0, 0.0, 0.0, 0.0, -4076.444098525536, 0.0]
['beep', 0.0, 379.37615863992676, 0.0, 0.0, 0.0, 0.0, -4076.935836903553, 0.0]
['beep', 0.0, 380.02435922913065, 0.0, 0.0, 0.0, 0.0, -4074.6336072246563, 0.0]
['beep', 0.0, 380.85137377397706, 0.0, 0.0, 0.0, 0.0, -4073.0242816238742, 0.0]
['beep', 0.0, 378.41503362834857, 0.0, 0.0, 0.0, 0.0, -4067.346938532226, 0.0]
['beep', 0.0, 377.4762603612257, 0.0, 0.0, 0.0, 0.0, -4065.871723398176, 0.0]
['beep', 0.0, 377.8338882725106, 0.0, 0.0, 0.0, 0.0, -4063.7483076749218, 0.0]
['beep', 0.0, 380.18082144031786, 0.0, 0.0, 0.0, 0.0, -4066.944607132031, 0.0]
['beep', 0.0, 381.9019057633765, 0.0, 0.0, 0.0, 0.0, -4069.3362437887486, 0.0]
['beep', 0.0, 380.51609760714746, 0.0, 0.0, 0.0, 0.0, -4064.865894897687, 0.0]
['beep', 0.0, 377.31979815003854, 0.0, 0.0, 0.0, 0.0, -4064.2176943084833, 0.0]
['beep', 0.0, 332.5939574949691, 0.0, 0.0, 0.0, 0.0, -4061.1108018291957, 0.0]
['beep', 0.0, 278.59214289094723, 0.0, 0.0, 0.0, 0.0, -4043.3188132427713, 0.0]
['beep', 0.0, 320.434608511282, 0.0, 0.0, 0.0, 0.0, -4021.347048443204, 0.0]
['beep', 0.0, 369.78726026860005, 0.0, 0.0, 0.0, 0.0, -4004.4044261460813, 0.0]
['beep', 0.0, 366.8591817449548, 0.0, 0.0, 0.0, 0.0, -3985.2489811478836, 0.0]
['beep', 0.0, 329.7999894380557, 0.0, 0.0, 0.0, 0.0, -3962.427850059015, 0.0]
['beep', 0.0, 279.1509365023299, 0.0, 0.0, 0.0, 0.0, -3937.1927305689733, 0.0]
['beep', 0.0, 318.3782480213938, 0.0, 0.0, 0.0, 0.0, -3910.303581989239, 0.0]
['beep', 0.0, 361.56181830904706, 0.0, 0.0, 0.0, 0.0, -3883.6603025985128, 0.0]
['beep', 0.0, 357.69496651827893, 0.0, 0.0, 0.0, 0.0, -3864.1919331779404, 0.0]
['beep', 0.0, 326.71544870322333, 0.0, 0.0, 0.0, 0.0, -3848.1210289145747, 0.0]
['beep', 0.0, 267.4162706632937, 0.0, 0.0, 0.0, 0.0, -3830.239633350329, 0.0]
['beep', 0.0, 304.2072420367291, 0.0, 0.0, 0.0, 0.0, -3814.168729086963, 0.0]
['beep', 0.0, 347.5696262800248, 0.0, 0.0, 0.0, 0.0, -3802.5681737146588, 0.0]
['beep', 0.0, 348.3742890804159, 0.0, 0.0, 0.0, 0.0, -3787.860725863067, 0.0]
['beep', 0.0, 330.89522491636575, 0.0, 0.0, 0.0, 0.0, -3778.338882725106, 0.0]
['beep', 0.0, 271.3278259429724, 0.0, 0.0, 0.0, 0.0, -3771.9909872997987, 0.0]
['beep', 0.0, 308.0517420830419, 0.0, 0.0, 0.0, 0.0, -3767.1183070085417, 0.0]
['beep', 0.0, 343.8368849559885, 0.0, 0.0, 0.0, 0.0, -3768.034728531209, 0.0]
['beep', 0.0, 343.54631227806954, 0.0, 0.0, 0.0, 0.0, -3770.8734000770332, 0.0]
['beep', 0.0, 339.21007385373997, 0.0, 0.0, 0.0, 0.0, -3774.6508448899804, 0.0]
['beep', 0.0, 288.73983487365666, 0.0, 0.0, 0.0, 0.0, -3775.36610071255, 0.0]
['beep', 0.0, 307.7388176606676, 0.0, 0.0, 0.0, 0.0, -3778.2494757472846, 0.0]
['beep', 0.0, 342.94281517777625, 0.0, 0.0, 0.0, 0.0, -3784.1950397723963, 0.0]
['beep', 0.0, 341.7358209771897, 0.0, 0.0, 0.0, 0.0, -3790.2970660086953, 0.0]
['beep', 0.0, 343.25573960015055, 0.0, 0.0, 0.0, 0.0, -3798.567211457159, 0.0]
['beep', 0.0, 347.4802193022036, 0.0, 0.0, 0.0, 0.0, -3807.709074939379, 0.0]
['beep', 0.0, 348.6872135027902, 0.0, 0.0, 0.0, 0.0, -3815.75570294329, 0.0]
['beep', 0.0, 350.0730216590192, 0.0, 0.0, 0.0, 0.0, -3822.5506332577033, 0.0]
['beep', 0.0, 350.81062922604434, 0.0, 0.0, 0.0, 0.0, -3825.4116565479826, 0.0]
['beep', 0.0, 346.9661291797315, 0.0, 0.0, 0.0, 0.0, -3829.166749616474, 0.0]
['beep', 0.0, 348.3742890804159, 0.0, 0.0, 0.0, 0.0, -3832.072476395664, 0.0]
['beep', 0.0, 351.43647807079293, 0.0, 0.0, 0.0, 0.0, -3836.6098805200913, 0.0]
['beep', 0.0, 353.58224553850243, 0.0, 0.0, 0.0, 0.0, -3843.3601073455943, 0.0]
['beep', 0.0, 353.7387077496896, 0.0, 0.0, 0.0, 0.0, -3846.3105376136946, 0.0]
['beep', 0.0, 356.77854499561136, 0.0, 0.0, 0.0, 0.0, -3847.0257934362644, 0.0]
['beep', 0.0, 357.8737804739214, 0.0, 0.0, 0.0, 0.0, -3849.61859579308, 0.0]
['beep', 0.0, 356.3315101065052, 0.0, 0.0, 0.0, 0.0, -3849.8868167265437, 0.0]
['beep', 0.0, 359.37134735242694, 0.0, 0.0, 0.0, 0.0, -3853.686613283946, 0.0]
['beep', 0.0, 358.9466642077761, 0.0, 0.0, 0.0, 0.0, -3855.206531906907, 0.0]
['beep', 0.0, 342.89811168886564, 0.0, 0.0, 0.0, 0.0, -3859.0510319532195, 0.0]
['beep', 0.0, 278.92741905777683, 0.0, 0.0, 0.0, 0.0, -3862.493200599337, 0.0]
['beep', 0.0, 310.57748920649163, 0.0, 0.0, 0.0, 0.0, -3864.817782022689, 0.0]
['beep', 0.0, 353.96222519424265, 0.0, 0.0, 0.0, 0.0, -3865.5330378452586, 0.0]
['beep', 0.0, 357.49380081818117, 0.0, 0.0, 0.0, 0.0, -3866.00242447882, 0.0]
['beep', 0.0, 350.78827748158903, 0.0, 0.0, 0.0, 0.0, -3864.5495610892253, 0.0]
['beep', 0.0, 304.34135250346094, 0.0, 0.0, 0.0, 0.0, -3867.7905640352446, 0.0]
['beep', 0.0, 319.4287800107932, 0.0, 0.0, 0.0, 0.0, -3867.745860546334, 0.0]
['beep', 0.0, 356.8456002289773, 0.0, 0.0, 0.0, 0.0, -3868.90815125801, 0.0]
['beep', 0.0, 358.1643531518404, 0.0, 0.0, 0.0, 0.0, -3869.1316687025633, 0.0]
['beep', 0.0, 358.76785025213366, 0.0, 0.0, 0.0, 0.0, -3870.808049536711, 0.0]
['beep', 0.0, 359.2148851412398, 0.0, 0.0, 0.0, 0.0, -3869.779869291767, 0.0]
['beep', 0.0, 360.04189968608614, 0.0, 0.0, 0.0, 0.0, -3868.5728750911803, 0.0]
