['beep', 0.0, 777.4830791334009, 0.0, 0.0, 0.0, 0.0, -2681.717596258831, 0.0]
['beep', 0.0, 777.0136924998394, 0.0, 0.0, 0.0, 0.0, -2681.2705613697244, 0.0]
['beep', 0.0, 776.0302157438059, 0.0, 0.0, 0.0, 0.0, -2681.225857880814, 0.0]
['beep', 0.0, 776.0749192327165, 0.0, 0.0, 0.0, 0.0, -2682.321093359124, 0.0]
['beep', 0.0, 778.3547971671578, 0.0, 0.0, 0.0, 0.0, -2682.5669625481323, 0.0]
['beep', 0.0, 778.6230181006215, 0.0, 0.0, 0.0, 0.0, -2682.969293948328, 0.0]
['beep', 0.0, 777.2595616888478, 0.0, 0.0, 0.0, 0.0, -2684.0198259377275, 0.0]
['beep', 0.0, 775.3373116656913, 0.0, 0.0, 0.0, 0.0, -2683.349273604068, 0.0]
['beep', 0.0, 775.8961052770741, 0.0, 0.0, 0.0, 0.0, -2682.1646311479367, 0.0]
['beep', 0.0, 777.1925064554819, 0.0, 0.0, 0.0, 0.0, -2683.5280875597105, 0.0]
['beep', 0.0, 777.3266169222137, 0.0, 0.0, 0.0, 0.0, -2684.0421776821827, 0.0]
['beep', 0.0, 776.5666576107333, 0.0, 0.0, 0.0, 0.0, -2684.891543971484, 0.0]
['beep', 0.0, 775.672587832521, 0.0, 0.0, 0.0, 0.0, -2684.600971293565, 0.0]
['beep', 0.0, 775.4490703879679, 0.0, 0.0, 0.0, 0.0, -2684.3103986156466, 0.0]
['beep', 0.0, 777.3489686666691, 0.0, 0.0, 0.0, 0.0, -2683.8186602376295, 0.0]
['beep', 0.0, 778.3995006560684, 0.0, 0.0, 0.0, 0.0, -2683.4163288374343, 0.0]
['beep', 0.0, 777.9748175114177, 0.0, 0.0, 0.0, 0.0, -2684.0421776821827, 0.0]
['beep', 0.0, 775.8514017881635, 0.0, 0.0, 0.0, 0.0, -2683.572791048621, 0.0]
['beep', 0.0, 776.4101953995462, 0.0, 0.0, 0.0, 0.0, -2684.936247460395, 0.0]
['beep', 0.0, 778.6006663561662, 0.0, 0.0, 0.0, 0.0, -2684.869192227029, 0.0]
['beep', 0.0, 778.0865762336941, 0.0, 0.0, 0.0, 0.0, -2683.349273604068, 0.0]
['beep', 0.0, 777.1478029665712, 0.0, 0.0, 0.0, 0.0, -2683.5280875597105, 0.0]
['beep', 0.0, 775.5831808546998, 0.0, 0.0, 0.0, 0.0, -2682.701073014864, 0.0]
['beep', 0.0, 775.4043668990573, 0.0, 0.0, 0.0, 0.0, -2682.0752241701157, 0.0]
['beep', 0.0, 777.930114022507, 0.0, 0.0, 0.0, 0.0, -2683.639846281987, 0.0]
['beep', 0.0, 778.287741933792, 0.0, 0.0, 0.0, 0.0, -2684.0421776821827, 0.0]
['beep', 0.0, 778.3100936782472, 0.0, 0.0, 0.0, 0.0, -2683.930418959906, 0.0]
['beep', 0.0, 776.7007680774651, 0.0, 0.0, 0.0, 0.0, -2683.908067215451, 0.0]
['beep', 0.0, 777.0136924998394, 0.0, 0.0, 0.0, 0.0, -2683.572791048621, 0.0]
['beep', 0.0, 778.6006663561662, 0.0, 0.0, 0.0, 0.0, -2684.6680265269315, 0.0]
['beep', 0.0, 779.6288466011104, 0.0, 0.0, 0.0, 0.0, -2684.802136993663, 0.0]
['beep', 0.0, 778.8465355451746, 0.0, 0.0, 0.0, 0.0, -2684.1539364044593, 0.0]
['beep', 0.0, 777.9748175114177, 0.0, 0.0, 0.0, 0.0, -2684.4221573379227, 0.0]
['beep', 0.0, 778.801832056264, 0.0, 0.0, 0.0, 0.0, -2685.204468393859, 0.0]
['beep', 0.0, 779.4723843899231, 0.0, 0.0, 0.0, 0.0, -2685.316227116135, 0.0]
['beep', 0.0, 779.3606256676467, 0.0, 0.0, 0.0, 0.0, -2686.3891108499897, 0.0]
['beep', 0.0, 778.7794803118087, 0.0, 0.0, 0.0, 0.0, -2684.9809509493057, 0.0]
['beep', 0.0, 776.8125267997417, 0.0, 0.0, 0.0, 0.0, -2684.556267804655, 0.0]
['beep', 0.0, 776.2313814439037, 0.0, 0.0, 0.0, 0.0, -2685.450337582867, 0.0]
['beep', 0.0, 777.3489686666691, 0.0, 0.0, 0.0, 0.0, -2685.0256544382164, 0.0]
['beep', 0.0, 778.7571285673533, 0.0, 0.0, 0.0, 0.0, -2685.4726893273223, 0.0]
['beep', 0.0, 778.0418727447835, 0.0, 0.0, 0.0, 0.0, -2685.4279858384116, 0.0]
['beep', 0.0, 775.5384773657892, 0.0, 0.0, 0.0, 0.0, -2687.3055323726576, 0.0]
['beep', 0.0, 775.3373116656913, 0.0, 0.0, 0.0, 0.0, -2688.5572300621548, 0.0]
['beep', 0.0, 776.6337128440993, 0.0, 0.0, 0.0, 0.0, -2688.0207881952274, 0.0]
['beep', 0.0, 776.8572302886523, 0.0, 0.0, 0.0, 0.0, -2685.1150614160374, 0.0]
['beep', 0.0, 777.125451222116, 0.0, 0.0, 0.0, 0.0, -2684.91389571594, 0.0]
['beep', 0.0, 774.8232215432193, 0.0, 0.0, 0.0, 0.0, -2686.7243870168195, 0.0]
['beep', 0.0, 774.9126285210406, 0.0, 0.0, 0.0, 0.0, -2686.5008695722663, 0.0]
['beep', 0.0, 777.7513000668646, 0.0, 0.0, 0.0, 0.0, -2685.29387537168, 0.0]
['beep', 0.0, 778.8912390340852, 0.0, 0.0, 0.0, 0.0, -2686.2102968943473, 0.0]
['beep', 0.0, 777.8183553002305, 0.0, 0.0, 0.0, 0.0, -2685.4056340939565, 0.0]
['beep', 0.0, 776.320788421725, 0.0, 0.0, 0.0, 0.0, -2684.9809509493057, 0.0]
['beep', 0.0, 776.7678233108311, 0.0, 0.0, 0.0, 0.0, -2685.249171882769, 0.0]
['beep', 0.0, 778.9806460119064, 0.0, 0.0, 0.0, 0.0, -2686.232648638803, 0.0]
['beep', 0.0, 779.1371082230936, 0.0, 0.0, 0.0, 0.0, -2686.255000383258, 0.0]
['beep', 0.0, 778.0865762336941, 0.0, 0.0, 0.0, 0.0, -2685.9867794497945, 0.0]
['beep', 0.0, 776.7901750552863, 0.0, 0.0, 0.0, 0.0, -2685.807965494152, 0.0]
['beep', 0.0, 775.8514017881635, 0.0, 0.0, 0.0, 0.0, -2686.031482938705, 0.0]
['beep', 0.0, 777.2595616888478, 0.0, 0.0, 0.0, 0.0, -2686.7243870168195, 0.0]
['beep', 0.0, 778.1312797226047, 0.0, 0.0, 0.0, 0.0, -2686.098538172071, 0.0]
['beep', 0.0, 777.5724861112221, 0.0, 0.0, 0.0, 0.0, -2685.0256544382164, 0.0]
['beep', 0.0, 777.0136924998394, 0.0, 0.0, 0.0, 0.0, -2685.0256544382164, 0.0]
['beep', 0.0, 777.639541344588, 0.0, 0.0, 0.0, 0.0, -2686.1208899165263, 0.0]
['beep', 0.0, 778.4889076338897, 0.0, 0.0, 0.0, 0.0, -2687.0596631836493, 0.0]
['beep', 0.0, 777.9971692558729, 0.0, 0.0, 0.0, 0.0, -2686.2773521277136, 0.0]
['beep', 0.0, 776.7007680774651, 0.0, 0.0, 0.0, 0.0, -2686.4114625944453, 0.0]
['beep', 0.0, 776.5890093551886, 0.0, 0.0, 0.0, 0.0, -2686.478517827811, 0.0]
['beep', 0.0, 776.6784163330099, 0.0, 0.0, 0.0, 0.0, -2685.897372471973, 0.0]
['beep', 0.0, 778.2653901893366, 0.0, 0.0, 0.0, 0.0, -2686.7020352723644, 0.0]
['beep', 0.0, 780.1205849791271, 0.0, 0.0, 0.0, 0.0, -2686.7914422501854, 0.0]
['beep', 0.0, 779.5841431121997, 0.0, 0.0, 0.0, 0.0, -2686.2773521277136, 0.0]
['beep', 0.0, 776.8125267997417, 0.0, 0.0, 0.0, 0.0, -2686.0761864276155, 0.0]
['beep', 0.0, 777.125451222116, 0.0, 0.0, 0.0, 0.0, -2686.5902765500878, 0.0]
['beep', 0.0, 778.7571285673533, 0.0, 0.0, 0.0, 0.0, -2684.6903782713866, 0.0]
['beep', 0.0, 779.9417710234846, 0.0, 0.0, 0.0, 0.0, -2684.3774538490125, 0.0]
['beep', 0.0, 778.1536314670601, 0.0, 0.0, 0.0, 0.0, -2685.316227116135, 0.0]
['beep', 0.0, 777.706596577954, 0.0, 0.0, 0.0, 0.0, -2685.3385788605906, 0.0]
['beep', 0.0, 777.8630587891411, 0.0, 0.0, 0.0, 0.0, -2685.0927096715823, 0.0]
['beep', 0.0, 779.8076605567528, 0.0, 0.0, 0.0, 0.0, -2684.3103986156466, 0.0]
['beep', 0.0, 780.3664541681355, 0.0, 0.0, 0.0, 0.0, -2683.617494537532, 0.0]
['beep', 0.0, 778.287741933792, 0.0, 0.0, 0.0, 0.0, -2682.991645692783, 0.0]
['beep', 0.0, 777.5501343667668, 0.0, 0.0, 0.0, 0.0, -2682.4328520814006, 0.0]
['beep', 0.0, 778.7347768228981, 0.0, 0.0, 0.0, 0.0, -2682.902238714962, 0.0]
['beep', 0.0, 778.9806460119064, 0.0, 0.0, 0.0, 0.0, -2683.1481079039704, 0.0]
['beep', 0.0, 779.7853088122974, 0.0, 0.0, 0.0, 0.0, -2684.7797852492076, 0.0]
['beep', 0.0, 780.2099919569483, 0.0, 0.0, 0.0, 0.0, -2684.0868811710934, 0.0]
['beep', 0.0, 777.8630587891411, 0.0, 0.0, 0.0, 0.0, -2683.0587009261494, 0.0]
['beep', 0.0, 777.8630587891411, 0.0, 0.0, 0.0, 0.0, -2684.265695126736, 0.0]
['beep', 0.0, 778.6006663561662, 0.0, 0.0, 0.0, 0.0, -2685.0927096715823, 0.0]
['beep', 0.0, 779.8300123012081, 0.0, 0.0, 0.0, 0.0, -2685.3609306050457, 0.0]
['beep', 0.0, 780.0535297457611, 0.0, 0.0, 0.0, 0.0, -2685.7856137496965, 0.0]
['beep', 0.0, 779.2265152009148, 0.0, 0.0, 0.0, 0.0, -2685.1374131604925, 0.0]
['beep', 0.0, 778.9806460119064, 0.0, 0.0, 0.0, 0.0, -2685.539744560688, 0.0]
['beep', 0.0, 780.3664541681355, 0.0, 0.0, 0.0, 0.0, -2685.942075960884, 0.0]
['beep', 0.0, 780.768785568331, 0.0, 0.0, 0.0, 0.0, -2687.0596631836493, 0.0]
['beep', 0.0, 779.4053291565573, 0.0, 0.0, 0.0, 0.0, -2684.600971293565, 0.0]
['beep', 0.0, 778.9135907785405, 0.0, 0.0, 0.0, 0.0, -2684.489212571289, 0.0]
['beep', 0.0, 779.897067534574, 0.0, 0.0, 0.0, 0.0, -2685.2715236272247, 0.0]
['beep', 0.0, 782.4675181469344, 0.0, 0.0, 0.0, 0.0, -2684.936247460395, 0.0]
['beep', 0.0, 782.2216489579259, 0.0, 0.0, 0.0, 0.0, -2686.098538172071, 0.0]
['beep', 0.0, 781.3946344130796, 0.0, 0.0, 0.0, 0.0, -2685.9867794497945, 0.0]
['beep', 0.0, 780.3664541681355, 0.0, 0.0, 0.0, 0.0, -2686.567924805632, 0.0]
['beep', 0.0, 780.6570268460545, 0.0, 0.0, 0.0, 0.0, -2686.545573061177, 0.0]
['beep', 0.0, 782.1098902356495, 0.0, 0.0, 0.0, 0.0, -2686.545573061177, 0.0]
['beep', 0.0, 783.4956983918785, 0.0, 0.0, 0.0, 0.0, -2687.126718417015, 0.0]
['beep', 0.0, 781.6181518576327, 0.0, 0.0, 0.0, 0.0, -2685.226820138314, 0.0]
['beep', 0.0, 780.6793785905098, 0.0, 0.0, 0.0, 0.0, -2684.511564315744, 0.0]
['beep', 0.0, 780.4335094015014, 0.0, 0.0, 0.0, 0.0, -2684.645674782476, 0.0]
['beep', 0.0, 782.0651867467388, 0.0, 0.0, 0.0, 0.0, -2684.802136993663, 0.0]
['beep', 0.0, 783.1380704805936, 0.0, 0.0, 0.0, 0.0, -2686.545573061177, 0.0]
['beep', 0.0, 782.1769454690153, 0.0, 0.0, 0.0, 0.0, -2685.942075960884, 0.0]
['beep', 0.0, 780.2323437014037, 0.0, 0.0, 0.0, 0.0, -2685.517392816233, 0.0]
['beep', 0.0, 781.1711169685266, 0.0, 0.0, 0.0, 0.0, -2685.5620963051438, 0.0]
['beep', 0.0, 781.2158204574372, 0.0, 0.0, 0.0, 0.0, -2684.9809509493057, 0.0]
['beep', 0.0, 782.1545937245601, 0.0, 0.0, 0.0, 0.0, -2685.29387537168, 0.0]
['beep', 0.0, 780.9475995239735, 0.0, 0.0, 0.0, 0.0, -2685.6515032829648, 0.0]
['beep', 0.0, 779.9417710234846, 0.0, 0.0, 0.0, 0.0, -2684.7574335047525, 0.0]
['beep', 0.0, 780.1429367235824, 0.0, 0.0, 0.0, 0.0, -2685.5620963051438, 0.0]
['beep', 0.0, 780.0982332346717, 0.0, 0.0, 0.0, 0.0, -2686.836145739096, 0.0]
['beep', 0.0, 780.9475995239735, 0.0, 0.0, 0.0, 0.0, -2685.6515032829648, 0.0]
['beep', 0.0, 781.1040617351606, 0.0, 0.0, 0.0, 0.0, -2686.880849228007, 0.0]
['beep', 0.0, 779.2265152009148, 0.0, 0.0, 0.0, 0.0, -2686.3891108499897, 0.0]
['beep', 0.0, 779.3159221787361, 0.0, 0.0, 0.0, 0.0, -2686.545573061177, 0.0]
['beep', 0.0, 782.0651867467388, 0.0, 0.0, 0.0, 0.0, -2685.9197242164287, 0.0]
['beep', 0.0, 785.6414658595879, 0.0, 0.0, 0.0, 0.0, -2684.3998055934676, 0.0]
['beep', 0.0, 784.8368030591969, 0.0, 0.0, 0.0, 0.0, -2686.0091311942497, 0.0]
['beep', 0.0, 782.9369047804958, 0.0, 0.0, 0.0, 0.0, -2685.6962067718755, 0.0]
['beep', 0.0, 783.4062914140573, 0.0, 0.0, 0.0, 0.0, -2685.0927096715823, 0.0]
['beep', 0.0, 783.0039600138617, 0.0, 0.0, 0.0, 0.0, -2686.0538346831604, 0.0]
['beep', 0.0, 782.8251460582193, 0.0, 0.0, 0.0, 0.0, -2684.489212571289, 0.0]
['beep', 0.0, 781.931076280007, 0.0, 0.0, 0.0, 0.0, -2682.8351834815962, 0.0]
['beep', 0.0, 780.4335094015014, 0.0, 0.0, 0.0, 0.0, -2684.802136993663, 0.0]
['beep', 0.0, 780.3888059125908, 0.0, 0.0, 0.0, 0.0, -2685.3609306050457, 0.0]
['beep', 0.0, 781.3722826686243, 0.0, 0.0, 0.0, 0.0, -2685.584448049599, 0.0]
['beep', 0.0, 782.2216489579259, 0.0, 0.0, 0.0, 0.0, -2686.165593405437, 0.0]
['beep', 0.0, 782.5345733803002, 0.0, 0.0, 0.0, 0.0, -2685.450337582867, 0.0]
['beep', 0.0, 781.05935824625, 0.0, 0.0, 0.0, 0.0, -2685.0256544382164, 0.0]
['beep', 0.0, 779.7182535789316, 0.0, 0.0, 0.0, 0.0, -2685.830317238607, 0.0]
['beep', 0.0, 780.5005646348674, 0.0, 0.0, 0.0, 0.0, -2685.9867794497945, 0.0]
['beep', 0.0, 782.3781111691131, 0.0, 0.0, 0.0, 0.0, -2684.9809509493057, 0.0]
['beep', 0.0, 781.8193175577304, 0.0, 0.0, 0.0, 0.0, -2685.7856137496965, 0.0]
['beep', 0.0, 780.8358408016969, 0.0, 0.0, 0.0, 0.0, -2686.232648638803, 0.0]
['beep', 0.0, 780.7240820794204, 0.0, 0.0, 0.0, 0.0, -2683.8633637265402, 0.0]
['beep', 0.0, 782.6016286136662, 0.0, 0.0, 0.0, 0.0, -2684.1539364044593, 0.0]
['beep', 0.0, 784.0544920032611, 0.0, 0.0, 0.0, 0.0, -2685.6515032829648, 0.0]
['beep', 0.0, 782.8251460582193, 0.0, 0.0, 0.0, 0.0, -2685.9867794497945, 0.0]
['beep', 0.0, 781.3946344130796, 0.0, 0.0, 0.0, 0.0, -2684.0868811710934, 0.0]
['beep', 0.0, 781.2381722018924, 0.0, 0.0, 0.0, 0.0, -2684.1539364044593, 0.0]
['beep', 0.0, 782.9145530360405, 0.0, 0.0, 0.0, 0.0, -2684.4668608268335, 0.0]
['beep', 0.0, 783.4286431585125, 0.0, 0.0, 0.0, 0.0, -2685.226820138314, 0.0]
['beep', 0.0, 782.735739080398, 0.0, 0.0, 0.0, 0.0, -2685.249171882769, 0.0]
['beep', 0.0, 781.282875690803, 0.0, 0.0, 0.0, 0.0, -2685.6515032829648, 0.0]
['beep', 0.0, 781.1040617351606, 0.0, 0.0, 0.0, 0.0, -2684.3103986156466, 0.0]
['beep', 0.0, 782.8698495471299, 0.0, 0.0, 0.0, 0.0, -2684.1762881489144, 0.0]
['beep', 0.0, 783.3615879251466, 0.0, 0.0, 0.0, 0.0, -2685.807965494152, 0.0]
['beep', 0.0, 782.445166402479, 0.0, 0.0, 0.0, 0.0, -2686.165593405437, 0.0]
['beep', 0.0, 780.9028960350629, 0.0, 0.0, 0.0, 0.0, -2685.875020727518, 0.0]
['beep', 0.0, 780.6793785905098, 0.0, 0.0, 0.0, 0.0, -2684.600971293565, 0.0]
['beep', 0.0, 782.4004629135684, 0.0, 0.0, 0.0, 0.0, -2685.6515032829648, 0.0]
['beep', 0.0, 783.24982920287, 0.0, 0.0, 0.0, 0.0, -2685.875020727518, 0.0]
['beep', 0.0, 782.6686838470321, 0.0, 0.0, 0.0, 0.0, -2685.606799794054, 0.0]
['beep', 0.0, 780.6793785905098, 0.0, 0.0, 0.0, 0.0, -2685.6291515385096, 0.0]
['beep', 0.0, 780.3664541681355, 0.0, 0.0, 0.0, 0.0, -2685.003302693761, 0.0]
['beep', 0.0, 782.2887041912919, 0.0, 0.0, 0.0, 0.0, -2686.0091311942497, 0.0]
['beep', 0.0, 782.735739080398, 0.0, 0.0, 0.0, 0.0, -2687.4843463283, 0.0]
['beep', 0.0, 781.126413479616, 0.0, 0.0, 0.0, 0.0, -2688.2666573842357, 0.0]
['beep', 0.0, 781.0817099907053, 0.0, 0.0, 0.0, 0.0, -2686.880849228007, 0.0]
['beep', 0.0, 781.931076280007, 0.0, 0.0, 0.0, 0.0, -2687.9537329618615, 0.0]
['beep', 0.0, 784.1215472366271, 0.0, 0.0, 0.0, 0.0, -2688.6913405288865, 0.0]
['beep', 0.0, 785.5744106262221, 0.0, 0.0, 0.0, 0.0, -2690.2783143852134, 0.0]
['beep', 0.0, 783.7639193253422, 0.0, 0.0, 0.0, 0.0, -2688.9595614623504, 0.0]
['beep', 0.0, 782.5345733803002, 0.0, 0.0, 0.0, 0.0, -2686.232648638803, 0.0]
['beep', 0.0, 782.6463321025768, 0.0, 0.0, 0.0, 0.0, -2687.5961050505766, 0.0]
['beep', 0.0, 781.7969658132752, 0.0, 0.0, 0.0, 0.0, -2689.1160236735373, 0.0]
['beep', 0.0, 786.2896664487919, 0.0, 0.0, 0.0, 0.0, -2688.825450995618, 0.0]
['beep', 0.0, 789.5530211392667, 0.0, 0.0, 0.0, 0.0, -2689.227782395814, 0.0]
['beep', 0.0, 786.8484600601745, 0.0, 0.0, 0.0, 0.0, -2689.3618928625456, 0.0]
['beep', 0.0, 786.2002594709706, 0.0, 0.0, 0.0, 0.0, -2689.160727162448, 0.0]
['beep', 0.0, 786.8931635490851, 0.0, 0.0, 0.0, 0.0, -2689.741872518286, 0.0]
['beep', 0.0, 787.4966606493784, 0.0, 0.0, 0.0, 0.0, -2688.937209717895, 0.0]
['beep', 0.0, 786.513183893345, 0.0, 0.0, 0.0, 0.0, -2689.1160236735373, 0.0]
['beep', 0.0, 785.4403001594902, 0.0, 0.0, 0.0, 0.0, -2690.3453696185793, 0.0]
['beep', 0.0, 784.2109542144483, 0.0, 0.0, 0.0, 0.0, -2689.0042649512607, 0.0]
['beep', 0.0, 784.9932652703841, 0.0, 0.0, 0.0, 0.0, -2688.2666573842357, 0.0]
['beep', 0.0, 785.7532245818645, 0.0, 0.0, 0.0, 0.0, -2689.741872518286, 0.0]
['beep', 0.0, 784.8591548036522, 0.0, 0.0, 0.0, 0.0, -2689.227782395814, 0.0]
['beep', 0.0, 783.6298088586103, 0.0, 0.0, 0.0, 0.0, -2689.138375417993, 0.0]
['beep', 0.0, 782.8474978026745, 0.0, 0.0, 0.0, 0.0, -2690.188907407392, 0.0]
['beep', 0.0, 783.898029792074, 0.0, 0.0, 0.0, 0.0, -2690.1442039184817, 0.0]
['beep', 0.0, 785.1050239926606, 0.0, 0.0, 0.0, 0.0, -2690.188907407392, 0.0]
['beep', 0.0, 784.6803408480098, 0.0, 0.0, 0.0, 0.0, -2689.6077620515543, 0.0]
['beep', 0.0, 783.7415675808868, 0.0, 0.0, 0.0, 0.0, -2687.707863772853, 0.0]
['beep', 0.0, 783.24982920287, 0.0, 0.0, 0.0, 0.0, -2689.0042649512607, 0.0]
['beep', 0.0, 784.8368030591969, 0.0, 0.0, 0.0, 0.0, -2689.898334729473, 0.0]
['beep', 0.0, 787.1390327380935, 0.0, 0.0, 0.0, 0.0, -2689.6301137960095, 0.0]
['beep', 0.0, 786.5802391267108, 0.0, 0.0, 0.0, 0.0, -2690.457128340856, 0.0]
['beep', 0.0, 784.188602469993, 0.0, 0.0, 0.0, 0.0, -2690.6582940409535, 0.0]
['beep', 0.0, 784.2780094478143, 0.0, 0.0, 0.0, 0.0, -2691.194735907881, 0.0]
['beep', 0.0, 785.5967623706773, 0.0, 0.0, 0.0, 0.0, -2691.038273696694, 0.0]
['beep', 0.0, 785.8426315596857, 0.0, 0.0, 0.0, 0.0, -2690.3677213630344, 0.0]
['beep', 0.0, 784.2780094478143, 0.0, 0.0, 0.0, 0.0, -2690.457128340856, 0.0]
['beep', 0.0, 782.8698495471299, 0.0, 0.0, 0.0, 0.0, -2687.6855120283976, 0.0]
['beep', 0.0, 783.1157187361382, 0.0, 0.0, 0.0, 0.0, -2687.707863772853, 0.0]
['beep', 0.0, 784.546230381278, 0.0, 0.0, 0.0, 0.0, -2688.6242852955206, 0.0]
['beep', 0.0, 784.1662507255377, 0.0, 0.0, 0.0, 0.0, -2690.2112591518476, 0.0]
['beep', 0.0, 784.1662507255377, 0.0, 0.0, 0.0, 0.0, -2690.5912388075876, 0.0]
['beep', 0.0, 782.4004629135684, 0.0, 0.0, 0.0, 0.0, -2689.875982985018, 0.0]
['beep', 0.0, 781.6628553465433, 0.0, 0.0, 0.0, 0.0, -2689.9653899628393, 0.0]
['beep', 0.0, 783.9650850254399, 0.0, 0.0, 0.0, 0.0, -2689.741872518286, 0.0]
['beep', 0.0, 784.2333059589037, 0.0, 0.0, 0.0, 0.0, -2688.847802740074, 0.0]
['beep', 0.0, 782.6686838470321, 0.0, 0.0, 0.0, 0.0, -2689.8536312405627, 0.0]
['beep', 0.0, 782.4004629135684, 0.0, 0.0, 0.0, 0.0, -2690.792404507685, 0.0]
['beep', 0.0, 782.1545937245601, 0.0, 0.0, 0.0, 0.0, -2690.5688870631325, 0.0]
['beep', 0.0, 783.2051257139594, 0.0, 0.0, 0.0, 0.0, -2690.904163229962, 0.0]
['beep', 0.0, 784.546230381278, 0.0, 0.0, 0.0, 0.0, -2690.3006661296686, 0.0]
['beep', 0.0, 783.3392361806913, 0.0, 0.0, 0.0, 0.0, -2690.5688870631325, 0.0]
['beep', 0.0, 781.4840413909009, 0.0, 0.0, 0.0, 0.0, -2689.4960033292778, 0.0]
['beep', 0.0, 781.8863727910964, 0.0, 0.0, 0.0, 0.0, -2690.6359422964983, 0.0]
['beep', 0.0, 782.5569251247556, 0.0, 0.0, 0.0, 0.0, -2691.2841428857023, 0.0]
['beep', 0.0, 783.8533263031634, 0.0, 0.0, 0.0, 0.0, -2690.0771486851154, 0.0]
['beep', 0.0, 783.3839396696019, 0.0, 0.0, 0.0, 0.0, -2691.641770796987, 0.0]
['beep', 0.0, 781.5510966242667, 0.0, 0.0, 0.0, 0.0, -2691.1500324189706, 0.0]
['beep', 0.0, 782.2440007023813, 0.0, 0.0, 0.0, 0.0, -2690.77005276323, 0.0]
['beep', 0.0, 782.9145530360405, 0.0, 0.0, 0.0, 0.0, -2690.747701018775, 0.0]
['beep', 0.0, 784.3897681700907, 0.0, 0.0, 0.0, 0.0, -2690.39007310749, 0.0]
['beep', 0.0, 784.7920995702863, 0.0, 0.0, 0.0, 0.0, -2690.837107996596, 0.0]
['beep', 0.0, 782.9592565249511, 0.0, 0.0, 0.0, 0.0, -2689.3395411180904, 0.0]
['beep', 0.0, 783.0710152472276, 0.0, 0.0, 0.0, 0.0, -2689.9430382183837, 0.0]
['beep', 0.0, 784.2780094478143, 0.0, 0.0, 0.0, 0.0, -2691.6194190525316, 0.0]
['beep', 0.0, 785.5297071373114, 0.0, 0.0, 0.0, 0.0, -2690.971218463328, 0.0]
['beep', 0.0, 784.9485617814735, 0.0, 0.0, 0.0, 0.0, -2691.753529519264, 0.0]
['beep', 0.0, 784.3897681700907, 0.0, 0.0, 0.0, 0.0, -2691.060625441149, 0.0]
['beep', 0.0, 784.2780094478143, 0.0, 0.0, 0.0, 0.0, -2690.680645785409, 0.0]
['beep', 0.0, 785.06032050375, 0.0, 0.0, 0.0, 0.0, -2690.792404507685, 0.0]
['beep', 0.0, 785.9990937708728, 0.0, 0.0, 0.0, 0.0, -2690.546535318677, 0.0]
['beep', 0.0, 785.283837948303, 0.0, 0.0, 0.0, 0.0, -2690.5912388075876, 0.0]
['beep', 0.0, 783.2945326917807, 0.0, 0.0, 0.0, 0.0, -2690.546535318677, 0.0]
['beep', 0.0, 783.1157187361382, 0.0, 0.0, 0.0, 0.0, -2689.9206864739285, 0.0]
['beep', 0.0, 784.8368030591969, 0.0, 0.0, 0.0, 0.0, -2691.440605096889, 0.0]
['beep', 0.0, 787.3401984381912, 0.0, 0.0, 0.0, 0.0, -2690.77005276323, 0.0]
['beep', 0.0, 784.8591548036522, 0.0, 0.0, 0.0, 0.0, -2690.3006661296686, 0.0]
['beep', 0.0, 783.24982920287, 0.0, 0.0, 0.0, 0.0, -2688.221953895325, 0.0]
['beep', 0.0, 783.9203815365292, 0.0, 0.0, 0.0, 0.0, -2689.1160236735373, 0.0]
['beep', 0.0, 785.0826722482053, 0.0, 0.0, 0.0, 0.0, -2689.764224262741, 0.0]
['beep', 0.0, 786.4908321488896, 0.0, 0.0, 0.0, 0.0, -2690.8594597410515, 0.0]
['beep', 0.0, 785.0156170148393, 0.0, 0.0, 0.0, 0.0, -2690.0100934517495, 0.0]
['beep', 0.0, 783.5180501363337, 0.0, 0.0, 0.0, 0.0, -2688.870154484529, 0.0]
['beep', 0.0, 783.6745123475209, 0.0, 0.0, 0.0, 0.0, -2690.4347765964003, 0.0]
['beep', 0.0, 783.2945326917807, 0.0, 0.0, 0.0, 0.0, -2690.2783143852134, 0.0]
['beep', 0.0, 785.3285414372136, 0.0, 0.0, 0.0, 0.0, -2690.0771486851154, 0.0]
['beep', 0.0, 785.1720792260265, 0.0, 0.0, 0.0, 0.0, -2690.121852174026, 0.0]
['beep', 0.0, 783.6298088586103, 0.0, 0.0, 0.0, 0.0, -2691.1723841634257, 0.0]
['beep', 0.0, 784.188602469993, 0.0, 0.0, 0.0, 0.0, -2691.418253352434, 0.0]
['beep', 0.0, 785.3061896927584, 0.0, 0.0, 0.0, 0.0, -2691.775881263719, 0.0]
['beep', 0.0, 785.6414658595879, 0.0, 0.0, 0.0, 0.0, -2690.6359422964983, 0.0]
['beep', 0.0, 785.6191141151327, 0.0, 0.0, 0.0, 0.0, -2689.6971690293753, 0.0]
['beep', 0.0, 788.4130821720461, 0.0, 0.0, 0.0, 0.0, -2694.8604219985514, 0.0]
['beep', 0.0, 789.7765385838197, 0.0, 0.0, 0.0, 0.0, -2694.77101502073, 0.0]
['beep', 0.0, 789.2624484613477, 0.0, 0.0, 0.0, 0.0, -2695.2404016542914, 0.0]
['beep', 0.0, 786.9378670379957, 0.0, 0.0, 0.0, 0.0, -2696.603858066065, 0.0]
['beep', 0.0, 786.4237769155237, 0.0, 0.0, 0.0, 0.0, -2696.268581899236, 0.0]
['beep', 0.0, 787.4296054160125, 0.0, 0.0, 0.0, 0.0, -2696.7826720217076, 0.0]
['beep', 0.0, 788.703654849965, 0.0, 0.0, 0.0, 0.0, -2696.8050237661632, 0.0]
['beep', 0.0, 788.994227527884, 0.0, 0.0, 0.0, 0.0, -2695.7321400323085, 0.0]
['beep', 0.0, 787.8095850717527, 0.0, 0.0, 0.0, 0.0, -2695.642733054487, 0.0]
['beep', 0.0, 786.8484600601745, 0.0, 0.0, 0.0, 0.0, -2694.703959787364, 0.0]
['beep', 0.0, 788.1001577496717, 0.0, 0.0, 0.0, 0.0, -2695.575677821121, 0.0]
['beep', 0.0, 788.5248408943226, 0.0, 0.0, 0.0, 0.0, -2695.9556574768612, 0.0]
['beep', 0.0, 788.4577856609567, 0.0, 0.0, 0.0, 0.0, -2698.280238900213, 0.0]
['beep', 0.0, 788.0778060052164, 0.0, 0.0, 0.0, 0.0, -2698.5037563447663, 0.0]
['beep', 0.0, 787.2060879714594, 0.0, 0.0, 0.0, 0.0, -2697.8332040111072, 0.0]
['beep', 0.0, 787.8766403051186, 0.0, 0.0, 0.0, 0.0, -2697.1402999329925, 0.0]
['beep', 0.0, 789.7988903282751, 0.0, 0.0, 0.0, 0.0, -2696.2015266658696, 0.0]
['beep', 0.0, 789.1953932279818, 0.0, 0.0, 0.0, 0.0, -2696.939134232895, 0.0]
['beep', 0.0, 787.5190123938337, 0.0, 0.0, 0.0, 0.0, -2697.67674179992, 0.0]
['beep', 0.0, 787.4743089049231, 0.0, 0.0, 0.0, 0.0, -2696.2015266658696, 0.0]
['beep', 0.0, 788.3683786831355, 0.0, 0.0, 0.0, 0.0, -2697.095596444082, 0.0]
['beep', 0.0, 788.7260065944204, 0.0, 0.0, 0.0, 0.0, -2696.737968532797, 0.0]
['beep', 0.0, 788.9048205500628, 0.0, 0.0, 0.0, 0.0, -2696.067416199138, 0.0]
['beep', 0.0, 786.8261083157192, 0.0, 0.0, 0.0, 0.0, -2696.1568231769593, 0.0]
['beep', 0.0, 787.6531228605655, 0.0, 0.0, 0.0, 0.0, -2695.1062911875597, 0.0]
['beep', 0.0, 789.2624484613477, 0.0, 0.0, 0.0, 0.0, -2695.352160376568, 0.0]
['beep', 0.0, 788.6142478721438, 0.0, 0.0, 0.0, 0.0, -2696.7826720217076, 0.0]
['beep', 0.0, 788.6142478721438, 0.0, 0.0, 0.0, 0.0, -2696.4473958548783, 0.0]
['beep', 0.0, 787.9883990273952, 0.0, 0.0, 0.0, 0.0, -2695.7544917767636, 0.0]
['beep', 0.0, 787.0272740158169, 0.0, 0.0, 0.0, 0.0, -2697.2073551663584, 0.0]
['beep', 0.0, 787.0049222713617, 0.0, 0.0, 0.0, 0.0, -2696.4473958548783, 0.0]
['beep', 0.0, 788.2342682164036, 0.0, 0.0, 0.0, 0.0, -2697.3638173775457, 0.0]
['beep', 0.0, 787.898992049574, 0.0, 0.0, 0.0, 0.0, -2697.0732446996267, 0.0]
['beep', 0.0, 787.2954949492806, 0.0, 0.0, 0.0, 0.0, -2696.939134232895, 0.0]
['beep', 0.0, 785.9990937708728, 0.0, 0.0, 0.0, 0.0, -2698.0567214556604, 0.0]
['beep', 0.0, 787.6978263494761, 0.0, 0.0, 0.0, 0.0, -2697.877907500018, 0.0]
['beep', 0.0, 789.4189106725348, 0.0, 0.0, 0.0, 0.0, -2698.034369711205, 0.0]
['beep', 0.0, 788.9718757834287, 0.0, 0.0, 0.0, 0.0, -2697.229706910814, 0.0]
['beep', 0.0, 787.4072536715572, 0.0, 0.0, 0.0, 0.0, -2696.5368028326993, 0.0]
['beep', 0.0, 787.4072536715572, 0.0, 0.0, 0.0, 0.0, -2696.96148597735, 0.0]
['beep', 0.0, 787.541364138289, 0.0, 0.0, 0.0, 0.0, -2697.5649830776433, 0.0]
['beep', 0.0, 788.1448612385823, 0.0, 0.0, 0.0, 0.0, -2696.670913299431, 0.0]
['beep', 0.0, 788.5695443832332, 0.0, 0.0, 0.0, 0.0, -2697.006189466261, 0.0]
['beep', 0.0, 788.2342682164036, 0.0, 0.0, 0.0, 0.0, -2696.8273755106184, 0.0]
['beep', 0.0, 788.2342682164036, 0.0, 0.0, 0.0, 0.0, -2696.9838377218057, 0.0]
['beep', 0.0, 787.541364138289, 0.0, 0.0, 0.0, 0.0, -2698.347294133579, 0.0]
['beep', 0.0, 788.5471926387779, 0.0, 0.0, 0.0, 0.0, -2699.129605189515, 0.0]
['beep', 0.0, 788.5695443832332, 0.0, 0.0, 0.0, 0.0, -2698.973142978328, 0.0]
['beep', 0.0, 788.1001577496717, 0.0, 0.0, 0.0, 0.0, -2698.5261080892215, 0.0]
['beep', 0.0, 787.898992049574, 0.0, 0.0, 0.0, 0.0, -2700.224840667825, 0.0]
['beep', 0.0, 788.5248408943226, 0.0, 0.0, 0.0, 0.0, -2701.0742069571265, 0.0]
['beep', 0.0, 789.7765385838197, 0.0, 0.0, 0.0, 0.0, -2700.2695441567357, 0.0]
['beep', 0.0, 789.284800205803, 0.0, 0.0, 0.0, 0.0, -2700.1801371789143, 0.0]
['beep', 0.0, 787.4072536715572, 0.0, 0.0, 0.0, 0.0, -2698.257887155758, 0.0]
['beep', 0.0, 786.6472943600768, 0.0, 0.0, 0.0, 0.0, -2698.5037563447663, 0.0]
['beep', 0.0, 786.2002594709706, 0.0, 0.0, 0.0, 0.0, -2698.973142978328, 0.0]
['beep', 0.0, 786.4684804044343, 0.0, 0.0, 0.0, 0.0, -2698.6602185559536, 0.0]
['beep', 0.0, 788.189564727493, 0.0, 0.0, 0.0, 0.0, -2698.570811578132, 0.0]
['beep', 0.0, 785.9767420264176, 0.0, 0.0, 0.0, 0.0, -2698.235535411303, 0.0]
['beep', 0.0, 786.3120181932471, 0.0, 0.0, 0.0, 0.0, -2699.3307708896127, 0.0]
['beep', 0.0, 786.9825705269063, 0.0, 0.0, 0.0, 0.0, -2698.3919976224897, 0.0]
['beep', 0.0, 788.703654849965, 0.0, 0.0, 0.0, 0.0, -2698.6602185559536, 0.0]
['beep', 0.0, 787.8095850717527, 0.0, 0.0, 0.0, 0.0, -2699.509584845255, 0.0]
['beep', 0.0, 787.6307711161103, 0.0, 0.0, 0.0, 0.0, -2699.911916245451, 0.0]
['beep', 0.0, 788.189564727493, 0.0, 0.0, 0.0, 0.0, -2698.883736000507, 0.0]
['beep', 0.0, 787.1166809936382, 0.0, 0.0, 0.0, 0.0, -2699.0178464672385, 0.0]
['beep', 0.0, 788.2566199608589, 0.0, 0.0, 0.0, 0.0, -2700.58246857911, 0.0]
['beep', 0.0, 789.0165792723393, 0.0, 0.0, 0.0, 0.0, -2699.509584845255, 0.0]
['beep', 0.0, 787.7425298383868, 0.0, 0.0, 0.0, 0.0, -2698.995494722783, 0.0]
['beep', 0.0, 787.3849019271019, 0.0, 0.0, 0.0, 0.0, -2699.4648813563444, 0.0]
['beep', 0.0, 788.8377653166968, 0.0, 0.0, 0.0, 0.0, -2699.911916245451, 0.0]
['beep', 0.0, 790.4470909174789, 0.0, 0.0, 0.0, 0.0, -2700.291895901191, 0.0]
['beep', 0.0, 790.4694426619343, 0.0, 0.0, 0.0, 0.0, -2700.0683784566377, 0.0]
['beep', 0.0, 788.2119164719483, 0.0, 0.0, 0.0, 0.0, -2698.906087744962, 0.0]
['beep', 0.0, 788.0778060052164, 0.0, 0.0, 0.0, 0.0, -2699.800157523174, 0.0]
['beep', 0.0, 787.6978263494761, 0.0, 0.0, 0.0, 0.0, -2700.224840667825, 0.0]
['beep', 0.0, 788.5248408943226, 0.0, 0.0, 0.0, 0.0, -2699.6660470564425, 0.0]
['beep', 0.0, 789.1283379946159, 0.0, 0.0, 0.0, 0.0, -2702.0800354576154, 0.0]
['beep', 0.0, 788.5471926387779, 0.0, 0.0, 0.0, 0.0, -2699.8225092676294, 0.0]
['beep', 0.0, 786.9155152935405, 0.0, 0.0, 0.0, 0.0, -2697.989666222294, 0.0]
['beep', 0.0, 789.1953932279818, 0.0, 0.0, 0.0, 0.0, -2699.6213435675318, 0.0]
['beep', 0.0, 790.8717740621298, 0.0, 0.0, 0.0, 0.0, -2700.493061601289, 0.0]
['beep', 0.0, 790.15651823956, 0.0, 0.0, 0.0, 0.0, -2699.3754743785234, 0.0]
['beep', 0.0, 788.5695443832332, 0.0, 0.0, 0.0, 0.0, -2697.609686566554, 0.0]
['beep', 0.0, 787.541364138289, 0.0, 0.0, 0.0, 0.0, -2697.386169122001, 0.0]
['beep', 0.0, 788.9048205500628, 0.0, 0.0, 0.0, 0.0, -2697.654390055465, 0.0]
['beep', 0.0, 791.0058845288617, 0.0, 0.0, 0.0, 0.0, -2699.3978261229786, 0.0]
['beep', 0.0, 790.4247391730237, 0.0, 0.0, 0.0, 0.0, -2697.944962733384, 0.0]
['beep', 0.0, 790.0000560283728, 0.0, 0.0, 0.0, 0.0, -2697.7661487777414, 0.0]
['beep', 0.0, 789.1506897390711, 0.0, 0.0, 0.0, 0.0, -2698.637866811498, 0.0]
['beep', 0.0, 789.2177449724371, 0.0, 0.0, 0.0, 0.0, -2699.1743086784254, 0.0]
['beep', 0.0, 789.8882973060963, 0.0, 0.0, 0.0, 0.0, -2700.448358112378, 0.0]
['beep', 0.0, 790.089463006194, 0.0, 0.0, 0.0, 0.0, -2699.800157523174, 0.0]
['beep', 0.0, 789.4859659059008, 0.0, 0.0, 0.0, 0.0, -2698.9507912338727, 0.0]
['beep', 0.0, 789.4859659059008, 0.0, 0.0, 0.0, 0.0, -2698.839032511596, 0.0]
['beep', 0.0, 790.6482566175767, 0.0, 0.0, 0.0, 0.0, -2697.3414656330906, 0.0]
['beep', 0.0, 791.542326395789, 0.0, 0.0, 0.0, 0.0, -2698.883736000507, 0.0]
['beep', 0.0, 791.3635124401466, 0.0, 0.0, 0.0, 0.0, -2698.347294133579, 0.0]
['beep', 0.0, 790.2235734729259, 0.0, 0.0, 0.0, 0.0, -2698.570811578132, 0.0]
['beep', 0.0, 791.0505880177723, 0.0, 0.0, 0.0, 0.0, -2698.347294133579, 0.0]
['beep', 0.0, 792.2128787294482, 0.0, 0.0, 0.0, 0.0, -2698.7943290226854, 0.0]
['beep', 0.0, 792.5928583851885, 0.0, 0.0, 0.0, 0.0, -2700.3589511345567, 0.0]
['beep', 0.0, 793.6657421190432, 0.0, 0.0, 0.0, 0.0, -2701.185965679403, 0.0]
['beep', 0.0, 791.3635124401466, 0.0, 0.0, 0.0, 0.0, -2700.515413345744, 0.0]
['beep', 0.0, 790.2235734729259, 0.0, 0.0, 0.0, 0.0, -2701.0295034682163, 0.0]
['beep', 0.0, 791.9223060515292, 0.0, 0.0, 0.0, 0.0, -2700.7836342792075, 0.0]
['beep', 0.0, 794.0010182858728, 0.0, 0.0, 0.0, 0.0, -2701.387131379501, 0.0]
['beep', 0.0, 792.6375618740991, 0.0, 0.0, 0.0, 0.0, -2699.911916245451, 0.0]
['beep', 0.0, 790.5364978953002, 0.0, 0.0, 0.0, 0.0, -2699.6213435675318, 0.0]
['beep', 0.0, 789.8882973060963, 0.0, 0.0, 0.0, 0.0, -2700.738930790297, 0.0]
['beep', 0.0, 790.4470909174789, 0.0, 0.0, 0.0, 0.0, -2701.3424278905904, 0.0]
['beep', 0.0, 791.9446577959845, 0.0, 0.0, 0.0, 0.0, -2700.9177447459397, 0.0]
['beep', 0.0, 791.1623467400487, 0.0, 0.0, 0.0, 0.0, -2699.934267989906, 0.0]
['beep', 0.0, 790.3353321952025, 0.0, 0.0, 0.0, 0.0, -2699.934267989906, 0.0]
['beep', 0.0, 788.703654849965, 0.0, 0.0, 0.0, 0.0, -2701.7000558018754, 0.0]
['beep', 0.0, 789.5306693948114, 0.0, 0.0, 0.0, 0.0, -2702.0129802242495, 0.0]
['beep', 0.0, 791.6093816291549, 0.0, 0.0, 0.0, 0.0, -2700.6271720680206, 0.0]
['beep', 0.0, 791.0505880177723, 0.0, 0.0, 0.0, 0.0, -2700.895393001484, 0.0]
['beep', 0.0, 791.1176432511381, 0.0, 0.0, 0.0, 0.0, -2701.6553523129646, 0.0]
['beep', 0.0, 790.7600153398532, 0.0, 0.0, 0.0, 0.0, -2699.7331022898084, 0.0]
['beep', 0.0, 790.2459252173812, 0.0, 0.0, 0.0, 0.0, -2698.4367011114005, 0.0]
['beep', 0.0, 791.832899073708, 0.0, 0.0, 0.0, 0.0, -2699.576640078621, 0.0]
['beep', 0.0, 791.7434920958867, 0.0, 0.0, 0.0, 0.0, -2699.934267989906, 0.0]
['beep', 0.0, 790.8270705732192, 0.0, 0.0, 0.0, 0.0, -2699.7107505453528, 0.0]
['beep', 0.0, 789.7318350949091, 0.0, 0.0, 0.0, 0.0, -2699.1072534450595, 0.0]
['beep', 0.0, 789.865945561641, 0.0, 0.0, 0.0, 0.0, -2699.643695311987, 0.0]
['beep', 0.0, 791.318808951236, 0.0, 0.0, 0.0, 0.0, -2700.6718755569314, 0.0]
['beep', 0.0, 791.1846984845041, 0.0, 0.0, 0.0, 0.0, -2700.805986023663, 0.0]
['beep', 0.0, 788.9718757834287, 0.0, 0.0, 0.0, 0.0, -2698.995494722783, 0.0]
['beep', 0.0, 788.5918961276885, 0.0, 0.0, 0.0, 0.0, -2699.2413639117917, 0.0]
['beep', 0.0, 790.15651823956, 0.0, 0.0, 0.0, 0.0, -2699.934267989906, 0.0]
['beep', 0.0, 790.7600153398532, 0.0, 0.0, 0.0, 0.0, -2699.889564500995, 0.0]
['beep', 0.0, 791.0505880177723, 0.0, 0.0, 0.0, 0.0, -2700.24719241228, 0.0]
['beep', 0.0, 789.865945561641, 0.0, 0.0, 0.0, 0.0, -2700.001323223272, 0.0]
['beep', 0.0, 787.7425298383868, 0.0, 0.0, 0.0, 0.0, -2699.509584845255, 0.0]
['beep', 0.0, 787.8095850717527, 0.0, 0.0, 0.0, 0.0, -2700.1130819455484, 0.0]
['beep', 0.0, 790.0000560283728, 0.0, 0.0, 0.0, 0.0, -2701.0742069571265, 0.0]
['beep', 0.0, 790.4470909174789, 0.0, 0.0, 0.0, 0.0, -2700.5601168346548, 0.0]
['beep', 0.0, 788.770710083331, 0.0, 0.0, 0.0, 0.0, -2700.24719241228, 0.0]
['beep', 0.0, 788.1001577496717, 0.0, 0.0, 0.0, 0.0, -2699.911916245451, 0.0]
['beep', 0.0, 789.4859659059008, 0.0, 0.0, 0.0, 0.0, -2700.5601168346548, 0.0]
['beep', 0.0, 790.6035531286661, 0.0, 0.0, 0.0, 0.0, -2699.1743086784254, 0.0]
['beep', 0.0, 790.0224077728282, 0.0, 0.0, 0.0, 0.0, -2700.20248892337, 0.0]
['beep', 0.0, 789.2624484613477, 0.0, 0.0, 0.0, 0.0, -2699.576640078621, 0.0]
['beep', 0.0, 789.4636141614454, 0.0, 0.0, 0.0, 0.0, -2699.4425296118893, 0.0]
['beep', 0.0, 791.6764368625209, 0.0, 0.0, 0.0, 0.0, -2701.096558701582, 0.0]
['beep', 0.0, 793.1963554854817, 0.0, 0.0, 0.0, 0.0, -2701.163613934948, 0.0]
['beep', 0.0, 792.8834310631074, 0.0, 0.0, 0.0, 0.0, -2701.454186612867, 0.0]
['beep', 0.0, 790.9835327844063, 0.0, 0.0, 0.0, 0.0, -2701.0518552126714, 0.0]
['beep', 0.0, 790.2235734729259, 0.0, 0.0, 0.0, 0.0, -2701.253020912769, 0.0]
['beep', 0.0, 791.5646781402443, 0.0, 0.0, 0.0, 0.0, -2703.15291919147, 0.0]
['beep', 0.0, 791.7658438403421, 0.0, 0.0, 0.0, 0.0, -2702.9294017469174, 0.0]
['beep', 0.0, 792.9057828075628, 0.0, 0.0, 0.0, 0.0, -2703.2870296582023, 0.0]
['beep', 0.0, 791.832899073708, 0.0, 0.0, 0.0, 0.0, -2702.1470906909813, 0.0]
['beep', 0.0, 791.0729397622275, 0.0, 0.0, 0.0, 0.0, -2701.6330005685095, 0.0]
['beep', 0.0, 792.123471751627, 0.0, 0.0, 0.0, 0.0, -2702.0800354576154, 0.0]
['beep', 0.0, 792.7493205963756, 0.0, 0.0, 0.0, 0.0, -2704.0469889696824, 0.0]
['beep', 0.0, 793.1516519965711, 0.0, 0.0, 0.0, 0.0, -2704.2928581586907, 0.0]
['beep', 0.0, 792.3246374517248, 0.0, 0.0, 0.0, 0.0, -2703.3317331471126, 0.0]
['beep', 0.0, 791.5870298846996, 0.0, 0.0, 0.0, 0.0, -2702.3482563910793, 0.0]
['beep', 0.0, 791.832899073708, 0.0, 0.0, 0.0, 0.0, -2703.1752709359257, 0.0]
['beep', 0.0, 793.1963554854817, 0.0, 0.0, 0.0, 0.0, -2703.86817501404, 0.0]
['beep', 0.0, 793.7327973524091, 0.0, 0.0, 0.0, 0.0, -2704.091692458593, 0.0]
['beep', 0.0, 791.4529194179678, 0.0, 0.0, 0.0, 0.0, -2703.354084891568, 0.0]
['beep', 0.0, 790.0447595172834, 0.0, 0.0, 0.0, 0.0, -2703.421140124934, 0.0]
['beep', 0.0, 790.6035531286661, 0.0, 0.0, 0.0, 0.0, -2703.3317331471126, 0.0]
['beep', 0.0, 791.9893612848952, 0.0, 0.0, 0.0, 0.0, -2704.136395947504, 0.0]
['beep', 0.0, 791.8105473292527, 0.0, 0.0, 0.0, 0.0, -2703.15291919147, 0.0]
['beep', 0.0, 790.8941258065851, 0.0, 0.0, 0.0, 0.0, -2702.460015113356, 0.0]
['beep', 0.0, 791.3411606956912, 0.0, 0.0, 0.0, 0.0, -2703.5328988472106, 0.0]
['beep', 0.0, 794.0010182858728, 0.0, 0.0, 0.0, 0.0, -2703.4881953583, 0.0]
['beep', 0.0, 797.1302625096158, 0.0, 0.0, 0.0, 0.0, -2703.0411604691935, 0.0]
['beep', 0.0, 798.314904965747, 0.0, 0.0, 0.0, 0.0, -2702.0129802242495, 0.0]
['beep', 0.0, 797.1526142540711, 0.0, 0.0, 0.0, 0.0, -2701.0742069571265, 0.0]
['beep', 0.0, 796.2585444758588, 0.0, 0.0, 0.0, 0.0, -2701.521241846233, 0.0]
['beep', 0.0, 795.3644746976465, 0.0, 0.0, 0.0, 0.0, -2701.2083174238587, 0.0]
['beep', 0.0, 795.6773991200208, 0.0, 0.0, 0.0, 0.0, -2701.0518552126714, 0.0]
['beep', 0.0, 795.2974194642806, 0.0, 0.0, 0.0, 0.0, -2701.543593590688, 0.0]
['beep', 0.0, 793.5539833967666, 0.0, 0.0, 0.0, 0.0, -2701.0742069571265, 0.0]
['beep', 0.0, 791.5199746513337, 0.0, 0.0, 0.0, 0.0, -2700.6718755569314, 0.0]
['beep', 0.0, 791.5870298846996, 0.0, 0.0, 0.0, 0.0, -2701.1412621904924, 0.0]
['beep', 0.0, 793.9116113080515, 0.0, 0.0, 0.0, 0.0, -2701.7894627796964, 0.0]
['beep', 0.0, 795.2527159753699, 0.0, 0.0, 0.0, 0.0, -2701.2977244016797, 0.0]
['beep', 0.0, 792.9057828075628, 0.0, 0.0, 0.0, 0.0, -2701.5659453351436, 0.0]
['beep', 0.0, 792.0117130293504, 0.0, 0.0, 0.0, 0.0, -2701.968276735339, 0.0]
['beep', 0.0, 793.4422246744901, 0.0, 0.0, 0.0, 0.0, -2701.454186612867, 0.0]
['beep', 0.0, 794.313942708247, 0.0, 0.0, 0.0, 0.0, -2701.878869757518, 0.0]
['beep', 0.0, 795.4091781865571, 0.0, 0.0, 0.0, 0.0, -2701.811814524152, 0.0]
['beep', 0.0, 792.8610793186522, 0.0, 0.0, 0.0, 0.0, -2702.549422091177, 0.0]
['beep', 0.0, 793.1293002521159, 0.0, 0.0, 0.0, 0.0, -2700.7836342792075, 0.0]
['beep', 0.0, 793.8892595635963, 0.0, 0.0, 0.0, 0.0, -2702.482366857811, 0.0]
['beep', 0.0, 794.2915909637918, 0.0, 0.0, 0.0, 0.0, -2704.069340714138, 0.0]
['beep', 0.0, 794.7386258528979, 0.0, 0.0, 0.0, 0.0, -2703.644657569487, 0.0]
['beep', 0.0, 793.0398932742946, 0.0, 0.0, 0.0, 0.0, -2703.197622680381, 0.0]
['beep', 0.0, 791.8776025626186, 0.0, 0.0, 0.0, 0.0, -2702.0800354576154, 0.0]
['beep', 0.0, 793.5986868856772, 0.0, 0.0, 0.0, 0.0, -2702.9294017469174, 0.0]
['beep', 0.0, 795.0291985308169, 0.0, 0.0, 0.0, 0.0, -2704.0246372252273, 0.0]
['beep', 0.0, 794.7833293418086, 0.0, 0.0, 0.0, 0.0, -2704.762244792252, 0.0]
['beep', 0.0, 793.7775008413197, 0.0, 0.0, 0.0, 0.0, -2703.4658436138448, 0.0]
['beep', 0.0, 792.8610793186522, 0.0, 0.0, 0.0, 0.0, -2704.426968625423, 0.0]
['beep', 0.0, 793.2634107188477, 0.0, 0.0, 0.0, 0.0, -2705.030465725716, 0.0]
['beep', 0.0, 795.0515502752722, 0.0, 0.0, 0.0, 0.0, -2704.672837814431, 0.0]
['beep', 0.0, 795.9009165645739, 0.0, 0.0, 0.0, 0.0, -2705.835128526107, 0.0]
['beep', 0.0, 794.2915909637918, 0.0, 0.0, 0.0, 0.0, -2703.6893610583975, 0.0]
['beep', 0.0, 793.7104456079538, 0.0, 0.0, 0.0, 0.0, -2702.6835325579086, 0.0]
['beep', 0.0, 795.4091781865571, 0.0, 0.0, 0.0, 0.0, -2705.321038403635, 0.0]
['beep', 0.0, 795.9009165645739, 0.0, 0.0, 0.0, 0.0, -2705.544555848188, 0.0]
['beep', 0.0, 795.1633089975487, 0.0, 0.0, 0.0, 0.0, -2705.544555848188, 0.0]
['beep', 0.0, 794.313942708247, 0.0, 0.0, 0.0, 0.0, -2705.2763349147244, 0.0]
['beep', 0.0, 793.0398932742946, 0.0, 0.0, 0.0, 0.0, -2705.0528174701712, 0.0]
['beep', 0.0, 793.0175415298393, 0.0, 0.0, 0.0, 0.0, -2705.0081139812605, 0.0]
['beep', 0.0, 794.671570619532, 0.0, 0.0, 0.0, 0.0, -2705.9468872483835, 0.0]
['beep', 0.0, 794.671570619532, 0.0, 0.0, 0.0, 0.0, -2706.5503843486767, 0.0]
['beep', 0.0, 793.576335141222, 0.0, 0.0, 0.0, 0.0, -2706.103349459571, 0.0]
['beep', 0.0, 794.4257014305236, 0.0, 0.0, 0.0, 0.0, -2705.4998523592776, 0.0]
['beep', 0.0, 794.8503845751744, 0.0, 0.0, 0.0, 0.0, -2704.2928581586907, 0.0]
['beep', 0.0, 795.8115095867527, 0.0, 0.0, 0.0, 0.0, -2705.2539831702693, 0.0]
['beep', 0.0, 796.7055793649649, 0.0, 0.0, 0.0, 0.0, -2706.2598116707577, 0.0]
['beep', 0.0, 795.5879921421996, 0.0, 0.0, 0.0, 0.0, -2705.8798320150177, 0.0]
['beep', 0.0, 794.895088064085, 0.0, 0.0, 0.0, 0.0, -2705.119872703537, 0.0]
['beep', 0.0, 796.057378775761, 0.0, 0.0, 0.0, 0.0, -2705.6339628260093, 0.0]
['beep', 0.0, 796.6385241315991, 0.0, 0.0, 0.0, 0.0, -2704.9857622368054, 0.0]
['beep', 0.0, 796.996152042884, 0.0, 0.0, 0.0, 0.0, -2706.192756437392, 0.0]
['beep', 0.0, 796.2138409869482, 0.0, 0.0, 0.0, 0.0, -2706.684494815409, 0.0]
['beep', 0.0, 795.5879921421996, 0.0, 0.0, 0.0, 0.0, -2706.2821634152133, 0.0]
['beep', 0.0, 795.7221026089314, 0.0, 0.0, 0.0, 0.0, -2708.070302971638, 0.0]
['beep', 0.0, 797.5996491431772, 0.0, 0.0, 0.0, 0.0, -2708.5620413496545, 0.0]
['beep', 0.0, 797.3984834430795, 0.0, 0.0, 0.0, 0.0, -2707.8914890159954, 0.0]
['beep', 0.0, 797.0185037873392, 0.0, 0.0, 0.0, 0.0, -2706.4386256264, 0.0]
['beep', 0.0, 796.124434009127, 0.0, 0.0, 0.0, 0.0, -2705.6339628260093, 0.0]
['beep', 0.0, 795.8562130756633, 0.0, 0.0, 0.0, 0.0, -2706.5503843486767, 0.0]
['beep', 0.0, 797.3090764652583, 0.0, 0.0, 0.0, 0.0, -2707.042122726694, 0.0]
['beep', 0.0, 797.0632072762498, 0.0, 0.0, 0.0, 0.0, -2706.8633087710514, 0.0]
['beep', 0.0, 795.4315299310124, 0.0, 0.0, 0.0, 0.0, -2706.416273881945, 0.0]
['beep', 0.0, 796.1467857535823, 0.0, 0.0, 0.0, 0.0, -2706.326866904124, 0.0]
['beep', 0.0, 796.2361927314035, 0.0, 0.0, 0.0, 0.0, -2706.997419237783, 0.0]
['beep', 0.0, 796.8396898316968, 0.0, 0.0, 0.0, 0.0, -2708.718503560842, 0.0]
['beep', 0.0, 797.7784630988197, 0.0, 0.0, 0.0, 0.0, -2708.383227394012, 0.0]
['beep', 0.0, 797.7561113543644, 0.0, 0.0, 0.0, 0.0, -2707.8914890159954, 0.0]
['beep', 0.0, 795.4985851643784, 0.0, 0.0, 0.0, 0.0, -2707.064474471149, 0.0]
['beep', 0.0, 796.124434009127, 0.0, 0.0, 0.0, 0.0, -2707.5562128491656, 0.0]
['beep', 0.0, 798.2478497323812, 0.0, 0.0, 0.0, 0.0, -2708.807910538663, 0.0]
['beep', 0.0, 797.0855590207052, 0.0, 0.0, 0.0, 0.0, -2707.8914890159954, 0.0]
['beep', 0.0, 796.2808962203142, 0.0, 0.0, 0.0, 0.0, -2707.287991915702, 0.0]
['beep', 0.0, 795.8562130756633, 0.0, 0.0, 0.0, 0.0, -2706.9303640044172, 0.0]
['beep', 0.0, 796.3032479647694, 0.0, 0.0, 0.0, 0.0, -2706.8856605155065, 0.0]
['beep', 0.0, 796.929096809518, 0.0, 0.0, 0.0, 0.0, -2708.383227394012, 0.0]
['beep', 0.0, 797.8678700766409, 0.0, 0.0, 0.0, 0.0, -2708.0479512271827, 0.0]
['beep', 0.0, 796.9738002984286, 0.0, 0.0, 0.0, 0.0, -2705.9245355039284, 0.0]
['beep', 0.0, 794.8503845751744, 0.0, 0.0, 0.0, 0.0, -2706.706846559864, 0.0]
['beep', 0.0, 795.4538816754678, 0.0, 0.0, 0.0, 0.0, -2707.6009163380763, 0.0]
['beep', 0.0, 797.577297398722, 0.0, 0.0, 0.0, 0.0, -2706.9080122599617, 0.0]
['beep', 0.0, 797.6890561209984, 0.0, 0.0, 0.0, 0.0, -2708.6290965830203, 0.0]
['beep', 0.0, 795.0739020197275, 0.0, 0.0, 0.0, 0.0, -2708.293820416191, 0.0]
['beep', 0.0, 793.6880938634985, 0.0, 0.0, 0.0, 0.0, -2707.712675060353, 0.0]
['beep', 0.0, 794.3362944527024, 0.0, 0.0, 0.0, 0.0, -2708.6290965830203, 0.0]
['beep', 0.0, 795.5656403977442, 0.0, 0.0, 0.0, 0.0, -2708.606744838565, 0.0]
['beep', 0.0, 794.5151084083449, 0.0, 0.0, 0.0, 0.0, -2708.6290965830203, 0.0]
['beep', 0.0, 793.285762463303, 0.0, 0.0, 0.0, 0.0, -2708.360875649557, 0.0]
['beep', 0.0, 793.2187072299371, 0.0, 0.0, 0.0, 0.0, -2709.29964891668, 0.0]
['beep', 0.0, 794.4257014305236, 0.0, 0.0, 0.0, 0.0, -2708.383227394012, 0.0]
['beep', 0.0, 795.2974194642806, 0.0, 0.0, 0.0, 0.0, -2708.1150064605486, 0.0]
['beep', 0.0, 794.6268671306213, 0.0, 0.0, 0.0, 0.0, -2708.1820616939144, 0.0]
['beep', 0.0, 794.895088064085, 0.0, 0.0, 0.0, 0.0, -2708.293820416191, 0.0]
['beep', 0.0, 793.1516519965711, 0.0, 0.0, 0.0, 0.0, -2708.4055791384676, 0.0]
['beep', 0.0, 793.6880938634985, 0.0, 0.0, 0.0, 0.0, -2708.8302622831184, 0.0]
['beep', 0.0, 796.1914892424929, 0.0, 0.0, 0.0, 0.0, -2709.1878901944033, 0.0]
['beep', 0.0, 796.4820619204119, 0.0, 0.0, 0.0, 0.0, -2709.634925083509, 0.0]
['beep', 0.0, 796.1467857535823, 0.0, 0.0, 0.0, 0.0, -2708.7632070497525, 0.0]
['beep', 0.0, 795.7891578422973, 0.0, 0.0, 0.0, 0.0, -2708.3385239051013, 0.0]
['beep', 0.0, 796.1914892424929, 0.0, 0.0, 0.0, 0.0, -2708.7855587942076, 0.0]
['beep', 0.0, 797.1526142540711, 0.0, 0.0, 0.0, 0.0, -2708.316172160646, 0.0]
['beep', 0.0, 797.7561113543644, 0.0, 0.0, 0.0, 0.0, -2709.5231663612326, 0.0]
['beep', 0.0, 795.5879921421996, 0.0, 0.0, 0.0, 0.0, -2709.612573339054, 0.0]
['beep', 0.0, 793.9116113080515, 0.0, 0.0, 0.0, 0.0, -2708.58439309411, 0.0]
['beep', 0.0, 796.6832276205097, 0.0, 0.0, 0.0, 0.0, -2709.8807942725175, 0.0]
['beep', 0.0, 797.3984834430795, 0.0, 0.0, 0.0, 0.0, -2711.0207332397385, 0.0]
['beep', 0.0, 797.7784630988197, 0.0, 0.0, 0.0, 0.0, -2709.4561111278667, 0.0]
['beep', 0.0, 795.8115095867527, 0.0, 0.0, 0.0, 0.0, -2709.389055894501, 0.0]
['beep', 0.0, 794.9174398085404, 0.0, 0.0, 0.0, 0.0, -2708.4949861162886, 0.0]
['beep', 0.0, 795.476233419923, 0.0, 0.0, 0.0, 0.0, -2707.936192504906, 0.0]
['beep', 0.0, 796.7055793649649, 0.0, 0.0, 0.0, 0.0, -2709.1655384499477, 0.0]
['beep', 0.0, 797.3537799541689, 0.0, 0.0, 0.0, 0.0, -2708.718503560842, 0.0]
['beep', 0.0, 796.1914892424929, 0.0, 0.0, 0.0, 0.0, -2707.8467855270846, 0.0]
['beep', 0.0, 796.3255997092248, 0.0, 0.0, 0.0, 0.0, -2708.4055791384676, 0.0]
['beep', 0.0, 797.8455183321856, 0.0, 0.0, 0.0, 0.0, -2709.0761314721267, 0.0]
['beep', 0.0, 798.6501811325767, 0.0, 0.0, 0.0, 0.0, -2709.0761314721267, 0.0]
['beep', 0.0, 798.4266636880236, 0.0, 0.0, 0.0, 0.0, -2710.350180906079, 0.0]
['beep', 0.0, 797.7561113543644, 0.0, 0.0, 0.0, 0.0, -2709.8137390391516, 0.0]
['beep', 0.0, 796.7949863427862, 0.0, 0.0, 0.0, 0.0, -2709.746683805786, 0.0]
['beep', 0.0, 796.9067450650628, 0.0, 0.0, 0.0, 0.0, -2709.4561111278667, 0.0]
['beep', 0.0, 798.6948846214873, 0.0, 0.0, 0.0, 0.0, -2709.34435240559, 0.0]
['beep', 0.0, 798.8736985771297, 0.0, 0.0, 0.0, 0.0, -2709.5678698501433, 0.0]
['beep', 0.0, 798.2031462434705, 0.0, 0.0, 0.0, 0.0, -2708.450282627378, 0.0]
['beep', 0.0, 796.7055793649649, 0.0, 0.0, 0.0, 0.0, -2709.2325936833136, 0.0]
['beep', 0.0, 796.3703031981354, 0.0, 0.0, 0.0, 0.0, -2710.1043117170707, 0.0]
['beep', 0.0, 799.544250910789, 0.0, 0.0, 0.0, 0.0, -2710.640753583998, 0.0]
['beep', 0.0, 799.3877886996017, 0.0, 0.0, 0.0, 0.0, -2710.3054774171683, 0.0]
['beep', 0.0, 797.3090764652583, 0.0, 0.0, 0.0, 0.0, -2711.311305917657, 0.0]
['beep', 0.0, 796.7279311094203, 0.0, 0.0, 0.0, 0.0, -2710.976029750828, 0.0]
['beep', 0.0, 797.800814843275, 0.0, 0.0, 0.0, 0.0, -2710.7301605618195, 0.0]
['beep', 0.0, 799.2536782328699, 0.0, 0.0, 0.0, 0.0, -2710.908974517462, 0.0]
['beep', 0.0, 799.4995474218783, 0.0, 0.0, 0.0, 0.0, -2710.640753583998, 0.0]
['beep', 0.0, 798.1584427545599, 0.0, 0.0, 0.0, 0.0, -2709.970201250339, 0.0]
['beep', 0.0, 797.4655386764454, 0.0, 0.0, 0.0, 0.0, -2709.1878901944033, 0.0]
['beep', 0.0, 798.0690357767387, 0.0, 0.0, 0.0, 0.0, -2710.5066431172663, 0.0]
['beep', 0.0, 799.8124718442526, 0.0, 0.0, 0.0, 0.0, -2710.8642710285512, 0.0]
['beep', 0.0, 799.477195677423, 0.0, 0.0, 0.0, 0.0, -2709.992552994794, 0.0]
['beep', 0.0, 797.7784630988197, 0.0, 0.0, 0.0, 0.0, -2709.67962857242, 0.0]
['beep', 0.0, 797.4655386764454, 0.0, 0.0, 0.0, 0.0, -2709.903146016973, 0.0]
['beep', 0.0, 797.9125735655515, 0.0, 0.0, 0.0, 0.0, -2710.3054774171683, 0.0]
['beep', 0.0, 798.5384224103001, 0.0, 0.0, 0.0, 0.0, -2709.970201250339, 0.0]
['beep', 0.0, 799.0972160216828, 0.0, 0.0, 0.0, 0.0, -2709.9254977614282, 0.0]
['beep', 0.0, 797.5549456542666, 0.0, 0.0, 0.0, 0.0, -2710.976029750828, 0.0]
['beep', 0.0, 796.9067450650628, 0.0, 0.0, 0.0, 0.0, -2711.4007128954786, 0.0]
['beep', 0.0, 796.3703031981354, 0.0, 0.0, 0.0, 0.0, -2711.557175106666, 0.0]
['beep', 0.0, 796.0350270313057, 0.0, 0.0, 0.0, 0.0, -2711.646582084487, 0.0]
['beep', 0.0, 798.2478497323812, 0.0, 0.0, 0.0, 0.0, -2711.199547195381, 0.0]
['beep', 0.0, 797.3537799541689, 0.0, 0.0, 0.0, 0.0, -2712.96533500735, 0.0]
['beep', 0.0, 796.0126752868504, 0.0, 0.0, 0.0, 0.0, -2713.6805908299198, 0.0]
['beep', 0.0, 797.2643729763477, 0.0, 0.0, 0.0, 0.0, -2712.58535535161, 0.0]
['beep', 0.0, 799.1642712550487, 0.0, 0.0, 0.0, 0.0, -2712.4735966293333, 0.0]
['beep', 0.0, 798.8066433437638, 0.0, 0.0, 0.0, 0.0, -2713.0994454740817, 0.0]
['beep', 0.0, 797.6890561209984, 0.0, 0.0, 0.0, 0.0, -2712.942983262895, 0.0]
['beep', 0.0, 797.0408555317946, 0.0, 0.0, 0.0, 0.0, -2714.1723292079364, 0.0]
['beep', 0.0, 797.7114078654538, 0.0, 0.0, 0.0, 0.0, -2713.993515252294, 0.0]
['beep', 0.0, 799.544250910789, 0.0, 0.0, 0.0, 0.0, -2715.826358297629, 0.0]
['beep', 0.0, 799.3430852106911, 0.0, 0.0, 0.0, 0.0, -2715.6251925975316, 0.0]
['beep', 0.0, 798.3596084546576, 0.0, 0.0, 0.0, 0.0, -2714.1052739745705, 0.0]
['beep', 0.0, 797.2867247208029, 0.0, 0.0, 0.0, 0.0, -2714.0829222301154, 0.0]
['beep', 0.0, 798.381960199113, 0.0, 0.0, 0.0, 0.0, -2713.6582390854646, 0.0]
['beep', 0.0, 799.2089747439593, 0.0, 0.0, 0.0, 0.0, -2713.9488117633837, 0.0]
['beep', 0.0, 799.2983817217805, 0.0, 0.0, 0.0, 0.0, -2714.9769920083277, 0.0]
['beep', 0.0, 799.4324921885124, 0.0, 0.0, 0.0, 0.0, -2713.1441489629924, 0.0]
['beep', 0.0, 798.9184020660404, 0.0, 0.0, 0.0, 0.0, -2713.7476460632856, 0.0]
['beep', 0.0, 798.7619398548532, 0.0, 0.0, 0.0, 0.0, -2713.971163507839, 0.0]
['beep', 0.0, 799.4995474218783, 0.0, 0.0, 0.0, 0.0, -2714.1052739745705, 0.0]
['beep', 0.0, 799.9465823109845, 0.0, 0.0, 0.0, 0.0, -2715.0216954972384, 0.0]
['beep', 0.0, 799.767768355342, 0.0, 0.0, 0.0, 0.0, -2713.6582390854646, 0.0]
['beep', 0.0, 798.5831258992107, 0.0, 0.0, 0.0, 0.0, -2713.2112041963583, 0.0]
['beep', 0.0, 799.2536782328699, 0.0, 0.0, 0.0, 0.0, -2712.8535762850734, 0.0]
['beep', 0.0, 800.3265619667247, 0.0, 0.0, 0.0, 0.0, -2712.4065413959675, 0.0]
['beep', 0.0, 801.0641695337498, 0.0, 0.0, 0.0, 0.0, -2713.278259429724, 0.0]
['beep', 0.0, 799.1642712550487, 0.0, 0.0, 0.0, 0.0, -2712.4065413959675, 0.0]
['beep', 0.0, 797.3537799541689, 0.0, 0.0, 0.0, 0.0, -2712.4288931404226, 0.0]
['beep', 0.0, 799.1642712550487, 0.0, 0.0, 0.0, 0.0, -2712.7194658183416, 0.0]
['beep', 0.0, 799.477195677423, 0.0, 0.0, 0.0, 0.0, -2713.568832107643, 0.0]
['beep', 0.0, 800.5947829001884, 0.0, 0.0, 0.0, 0.0, -2714.0829222301154, 0.0]
['beep', 0.0, 800.3712654556354, 0.0, 0.0, 0.0, 0.0, -2712.58535535161, 0.0]
['beep', 0.0, 799.5666026552442, 0.0, 0.0, 0.0, 0.0, -2712.25007918478, 0.0]
['beep', 0.0, 800.3712654556354, 0.0, 0.0, 0.0, 0.0, -2712.4288931404226, 0.0]
['beep', 0.0, 802.382922456613, 0.0, 0.0, 0.0, 0.0, -2713.613535596554, 0.0]
['beep', 0.0, 802.1594050120599, 0.0, 0.0, 0.0, 0.0, -2713.546480363188, 0.0]
['beep', 0.0, 801.3100387227582, 0.0, 0.0, 0.0, 0.0, -2710.707808817364, 0.0]
['beep', 0.0, 800.5500794112778, 0.0, 0.0, 0.0, 0.0, -2712.3618379070567, 0.0]
['beep', 0.0, 801.5559079117666, 0.0, 0.0, 0.0, 0.0, -2712.384189651512, 0.0]
['beep', 0.0, 802.5617364122554, 0.0, 0.0, 0.0, 0.0, -2712.808872796163, 0.0]
['beep', 0.0, 803.3663992126465, 0.0, 0.0, 0.0, 0.0, -2712.9876867518055, 0.0]
['beep', 0.0, 801.8241288452302, 0.0, 0.0, 0.0, 0.0, -2712.4288931404226, 0.0]
['beep', 0.0, 800.930059067018, 0.0, 0.0, 0.0, 0.0, -2712.294782673691, 0.0]
['beep', 0.0, 801.5335561673113, 0.0, 0.0, 0.0, 0.0, -2711.6242303400318, 0.0]
['beep', 0.0, 801.6006114006772, 0.0, 0.0, 0.0, 0.0, -2713.3006111741797, 0.0]
['beep', 0.0, 801.0641695337498, 0.0, 0.0, 0.0, 0.0, -2712.9876867518055, 0.0]
['beep', 0.0, 801.0865212782052, 0.0, 0.0, 0.0, 0.0, -2712.4065413959675, 0.0]
['beep', 0.0, 800.058341033261, 0.0, 0.0, 0.0, 0.0, -2713.1217972185373, 0.0]
['beep', 0.0, 799.7230648664314, 0.0, 0.0, 0.0, 0.0, -2713.4123698964563, 0.0]
['beep', 0.0, 801.3323904672135, 0.0, 0.0, 0.0, 0.0, -2714.0382187412047, 0.0]
['beep', 0.0, 802.5840881567107, 0.0, 0.0, 0.0, 0.0, -2712.5630036071543, 0.0]
['beep', 0.0, 800.9971143003839, 0.0, 0.0, 0.0, 0.0, -2712.0712652291377, 0.0]
['beep', 0.0, 799.6560096330654, 0.0, 0.0, 0.0, 0.0, -2713.0994454740817, 0.0]
['beep', 0.0, 800.4383206890012, 0.0, 0.0, 0.0, 0.0, -2713.524128618733, 0.0]
['beep', 0.0, 801.1088730226604, 0.0, 0.0, 0.0, 0.0, -2714.5299571192213, 0.0]
['beep', 0.0, 801.8464805896856, 0.0, 0.0, 0.0, 0.0, -2713.769997807741, 0.0]
['beep', 0.0, 801.220631744937, 0.0, 0.0, 0.0, 0.0, -2712.3394861626016, 0.0]
['beep', 0.0, 798.7395881103979, 0.0, 0.0, 0.0, 0.0, -2714.0829222301154, 0.0]
['beep', 0.0, 799.8124718442526, 0.0, 0.0, 0.0, 0.0, -2713.926460018928, 0.0]
['beep', 0.0, 801.5335561673113, 0.0, 0.0, 0.0, 0.0, -2714.7087710748638, 0.0]
['beep', 0.0, 801.0418177892946, 0.0, 0.0, 0.0, 0.0, -2715.0216954972384, 0.0]
['beep', 0.0, 800.8183003447415, 0.0, 0.0, 0.0, 0.0, -2715.15580596397, 0.0]
['beep', 0.0, 800.3712654556354, 0.0, 0.0, 0.0, 0.0, -2714.932288519417, 0.0]
['beep', 0.0, 800.2595067333588, 0.0, 0.0, 0.0, 0.0, -2716.7204280758415, 0.0]
['beep', 0.0, 801.9135358230515, 0.0, 0.0, 0.0, 0.0, -2717.033352498216, 0.0]
['beep', 0.0, 803.0087713013615, 0.0, 0.0, 0.0, 0.0, -2716.0275239977273, 0.0]
['beep', 0.0, 800.1253962666269, 0.0, 0.0, 0.0, 0.0, -2715.3569716640677, 0.0]
['beep', 0.0, 798.9184020660404, 0.0, 0.0, 0.0, 0.0, -2714.1052739745705, 0.0]
['beep', 0.0, 801.2429834893923, 0.0, 0.0, 0.0, 0.0, -2714.507605374766, 0.0]
['beep', 0.0, 802.9864195569062, 0.0, 0.0, 0.0, 0.0, -2717.3462769205903, 0.0]
['beep', 0.0, 803.8134341017526, 0.0, 0.0, 0.0, 0.0, -2717.0110007537605, 0.0]
['beep', 0.0, 804.1934137574929, 0.0, 0.0, 0.0, 0.0, -2717.3686286650454, 0.0]
['beep', 0.0, 804.6180969021436, 0.0, 0.0, 0.0, 0.0, -2717.0557042426713, 0.0]
['beep', 0.0, 804.4392829465012, 0.0, 0.0, 0.0, 0.0, -2716.0051722532717, 0.0]
['beep', 0.0, 805.8697945916408, 0.0, 0.0, 0.0, 0.0, -2715.6698960864423, 0.0]
['beep', 0.0, 806.0933120361939, 0.0, 0.0, 0.0, 0.0, -2715.3122681751574, 0.0]
['beep', 0.0, 803.4558061904677, 0.0, 0.0, 0.0, 0.0, -2715.1781577084253, 0.0]
['beep', 0.0, 801.1982800004816, 0.0, 0.0, 0.0, 0.0, -2715.133454219515, 0.0]
['beep', 0.0, 800.7512451113755, 0.0, 0.0, 0.0, 0.0, -2715.3793234085233, 0.0]
['beep', 0.0, 803.187585257004, 0.0, 0.0, 0.0, 0.0, -2715.6028408530765, 0.0]
['beep', 0.0, 803.7240271239314, 0.0, 0.0, 0.0, 0.0, -2715.3793234085233, 0.0]
['beep', 0.0, 802.7181986234425, 0.0, 0.0, 0.0, 0.0, -2715.6475443419868, 0.0]
['beep', 0.0, 801.9805910564174, 0.0, 0.0, 0.0, 0.0, -2714.865233286051, 0.0]
['beep', 0.0, 802.9417160679956, 0.0, 0.0, 0.0, 0.0, -2715.446378641889, 0.0]
['beep', 0.0, 803.1652335125486, 0.0, 0.0, 0.0, 0.0, -2717.100407731582, 0.0]
['beep', 0.0, 802.8746608346297, 0.0, 0.0, 0.0, 0.0, -2717.122759476037, 0.0]
['beep', 0.0, 802.3382189677023, 0.0, 0.0, 0.0, 0.0, -2717.458035642867, 0.0]
['beep', 0.0, 801.2429834893923, 0.0, 0.0, 0.0, 0.0, -2717.5697943651435, 0.0]
['beep', 0.0, 801.8688323341408, 0.0, 0.0, 0.0, 0.0, -2718.217994954347, 0.0]
['beep', 0.0, 802.2041085009705, 0.0, 0.0, 0.0, 0.0, -2718.732085076819, 0.0]
['beep', 0.0, 803.6122684016548, 0.0, 0.0, 0.0, 0.0, -2718.3968089099894, 0.0]
['beep', 0.0, 802.5170329233448, 0.0, 0.0, 0.0, 0.0, -2717.5697943651435, 0.0]
['beep', 0.0, 801.3994457005795, 0.0, 0.0, 0.0, 0.0, -2717.6368495985093, 0.0]
['beep', 0.0, 802.5170329233448, 0.0, 0.0, 0.0, 0.0, -2717.9497740208835, 0.0]
['beep', 0.0, 804.0145998018503, 0.0, 0.0, 0.0, 0.0, -2718.2850501877133, 0.0]
['beep', 0.0, 803.8581375906632, 0.0, 0.0, 0.0, 0.0, -2717.7262565763303, 0.0]
['beep', 0.0, 802.8523090901743, 0.0, 0.0, 0.0, 0.0, -2716.474558886833, 0.0]
['beep', 0.0, 801.9582393119621, 0.0, 0.0, 0.0, 0.0, -2716.6310210980205, 0.0]
['beep', 0.0, 801.5782596562219, 0.0, 0.0, 0.0, 0.0, -2716.3628001645566, 0.0]
['beep', 0.0, 803.187585257004, 0.0, 0.0, 0.0, 0.0, -2716.2063379533697, 0.0]
['beep', 0.0, 803.0981782791828, 0.0, 0.0, 0.0, 0.0, -2715.7593030642633, 0.0]
['beep', 0.0, 802.5840881567107, 0.0, 0.0, 0.0, 0.0, -2716.474558886833, 0.0]
['beep', 0.0, 801.9582393119621, 0.0, 0.0, 0.0, 0.0, -2717.502739131777, 0.0]
['beep', 0.0, 801.6676666340431, 0.0, 0.0, 0.0, 0.0, -2717.6815530874196, 0.0]
['beep', 0.0, 802.5617364122554, 0.0, 0.0, 0.0, 0.0, -2718.8214920546407, 0.0]
['beep', 0.0, 803.7910823572972, 0.0, 0.0, 0.0, 0.0, -2718.3074019321684, 0.0]
['beep', 0.0, 802.6287916456213, 0.0, 0.0, 0.0, 0.0, -2717.033352498216, 0.0]
['beep', 0.0, 801.2653352338476, 0.0, 0.0, 0.0, 0.0, -2717.2121664538586, 0.0]
['beep', 0.0, 802.1817567565151, 0.0, 0.0, 0.0, 0.0, -2718.217994954347, 0.0]
['beep', 0.0, 802.382922456613, 0.0, 0.0, 0.0, 0.0, -2719.648506599487, 0.0]
['beep', 0.0, 802.9193643235403, 0.0, 0.0, 0.0, 0.0, -2720.3414106776013, 0.0]
['beep', 0.0, 802.3382189677023, 0.0, 0.0, 0.0, 0.0, -2719.3355821771124, 0.0]
['beep', 0.0, 801.0641695337498, 0.0, 0.0, 0.0, 0.0, -2719.4696926438446, 0.0]
['beep', 0.0, 801.9805910564174, 0.0, 0.0, 0.0, 0.0, -2718.709733332364, 0.0]
['beep', 0.0, 803.5005096793783, 0.0, 0.0, 0.0, 0.0, -2720.073189744138, 0.0]
['beep', 0.0, 803.8357858462078, 0.0, 0.0, 0.0, 0.0, -2719.290878688202, 0.0]
['beep', 0.0, 803.2546404903699, 0.0, 0.0, 0.0, 0.0, -2717.838015298607, 0.0]
['beep', 0.0, 801.3994457005795, 0.0, 0.0, 0.0, 0.0, -2718.06153274316, 0.0]
['beep', 0.0, 800.9971143003839, 0.0, 0.0, 0.0, 0.0, -2718.106236232071, 0.0]
['beep', 0.0, 803.0534747902722, 0.0, 0.0, 0.0, 0.0, -2718.508567632266, 0.0]
['beep', 0.0, 804.1263585241269, 0.0, 0.0, 0.0, 0.0, -2718.575622865632, 0.0]
['beep', 0.0, 803.7910823572972, 0.0, 0.0, 0.0, 0.0, -2717.838015298607, 0.0]
['beep', 0.0, 803.3216957237358, 0.0, 0.0, 0.0, 0.0, -2718.2850501877133, 0.0]
['beep', 0.0, 803.120530023638, 0.0, 0.0, 0.0, 0.0, -2718.799140310185, 0.0]
['beep', 0.0, 803.8134341017526, 0.0, 0.0, 0.0, 0.0, -2717.9497740208835, 0.0]
['beep', 0.0, 804.3722277131353, 0.0, 0.0, 0.0, 0.0, -2719.1120647325597, 0.0]
['beep', 0.0, 803.4111027015571, 0.0, 0.0, 0.0, 0.0, -2719.670858343942, 0.0]
['beep', 0.0, 803.4558061904677, 0.0, 0.0, 0.0, 0.0, -2719.2461751992914, 0.0]
['beep', 0.0, 803.0981782791828, 0.0, 0.0, 0.0, 0.0, -2719.1120647325597, 0.0]
['beep', 0.0, 803.6346201461101, 0.0, 0.0, 0.0, 0.0, -2718.575622865632, 0.0]
['beep', 0.0, 805.4227597025347, 0.0, 0.0, 0.0, 0.0, -2720.2073002108696, 0.0]
['beep', 0.0, 805.221594002437, 0.0, 0.0, 0.0, 0.0, -2720.2967071886906, 0.0]
['beep', 0.0, 804.4169312020459, 0.0, 0.0, 0.0, 0.0, -2720.073189744138, 0.0]
['beep', 0.0, 803.8581375906632, 0.0, 0.0, 0.0, 0.0, -2719.15676822147, 0.0]
['beep', 0.0, 805.3110009802582, 0.0, 0.0, 0.0, 0.0, -2720.073189744138, 0.0]
['beep', 0.0, 805.6015736581771, 0.0, 0.0, 0.0, 0.0, -2722.040143256205, 0.0]
['beep', 0.0, 804.1710620130375, 0.0, 0.0, 0.0, 0.0, -2720.162596721959, 0.0]
['beep', 0.0, 803.7910823572972, 0.0, 0.0, 0.0, 0.0, -2718.106236232071, 0.0]
['beep', 0.0, 804.8192626022415, 0.0, 0.0, 0.0, 0.0, -2719.715561832853, 0.0]
['beep', 0.0, 804.34987596868, 0.0, 0.0, 0.0, 0.0, -2718.3297536766236, 0.0]
['beep', 0.0, 804.2604689908587, 0.0, 0.0, 0.0, 0.0, -2718.2403466988026, 0.0]
['beep', 0.0, 804.7522073688755, 0.0, 0.0, 0.0, 0.0, -2718.9556025213724, 0.0]
['beep', 0.0, 803.9698963129397, 0.0, 0.0, 0.0, 0.0, -2719.2014717103807, 0.0]
['beep', 0.0, 803.4111027015571, 0.0, 0.0, 0.0, 0.0, -2719.9837827663164, 0.0]
['beep', 0.0, 804.2604689908587, 0.0, 0.0, 0.0, 0.0, -2720.743742077797, 0.0]
['beep', 0.0, 805.2886492358028, 0.0, 0.0, 0.0, 0.0, -2721.257832200269, 0.0]
['beep', 0.0, 802.8746608346297, 0.0, 0.0, 0.0, 0.0, -2719.5590996216656, 0.0]
['beep', 0.0, 801.6229631451325, 0.0, 0.0, 0.0, 0.0, -2719.15676822147, 0.0]
['beep', 0.0, 803.0087713013615, 0.0, 0.0, 0.0, 0.0, -2719.223823454836, 0.0]
['beep', 0.0, 804.34987596868, 0.0, 0.0, 0.0, 0.0, -2719.15676822147, 0.0]
['beep', 0.0, 805.2439457468922, 0.0, 0.0, 0.0, 0.0, -2718.150939720981, 0.0]
['beep', 0.0, 803.120530023638, 0.0, 0.0, 0.0, 0.0, -2718.106236232071, 0.0]
['beep', 0.0, 801.6006114006772, 0.0, 0.0, 0.0, 0.0, -2718.352105421079, 0.0]
['beep', 0.0, 801.3770939561241, 0.0, 0.0, 0.0, 0.0, -2718.575622865632, 0.0]
['beep', 0.0, 804.3051724797693, 0.0, 0.0, 0.0, 0.0, -2718.6650298434533, 0.0]
['beep', 0.0, 804.8863178356073, 0.0, 0.0, 0.0, 0.0, -2718.732085076819, 0.0]
['beep', 0.0, 804.6628003910542, 0.0, 0.0, 0.0, 0.0, -2719.670858343942, 0.0]
['beep', 0.0, 802.7852538568085, 0.0, 0.0, 0.0, 0.0, -2718.9332507769172, 0.0]
['beep', 0.0, 802.2488119898811, 0.0, 0.0, 0.0, 0.0, -2719.067361243649, 0.0]
['beep', 0.0, 804.3945794575906, 0.0, 0.0, 0.0, 0.0, -2719.8496722995847, 0.0]
['beep', 0.0, 805.3110009802582, 0.0, 0.0, 0.0, 0.0, -2719.290878688202, 0.0]
['beep', 0.0, 804.0816550352163, 0.0, 0.0, 0.0, 0.0, -2719.737913577308, 0.0]
['beep', 0.0, 802.8523090901743, 0.0, 0.0, 0.0, 0.0, -2720.073189744138, 0.0]
['beep', 0.0, 804.1934137574929, 0.0, 0.0, 0.0, 0.0, -2721.1684252224477, 0.0]
['beep', 0.0, 804.2381172464035, 0.0, 0.0, 0.0, 0.0, -2720.3414106776013, 0.0]
['beep', 0.0, 803.3216957237358, 0.0, 0.0, 0.0, 0.0, -2720.6543350999755, 0.0]
['beep', 0.0, 803.7240271239314, 0.0, 0.0, 0.0, 0.0, -2720.810797311163, 0.0]
['beep', 0.0, 803.120530023638, 0.0, 0.0, 0.0, 0.0, -2720.609631611065, 0.0]
['beep', 0.0, 803.3663992126465, 0.0, 0.0, 0.0, 0.0, -2721.8166258116516, 0.0]
['beep', 0.0, 804.4839864354118, 0.0, 0.0, 0.0, 0.0, -2722.084846745115, 0.0]
['beep', 0.0, 804.4616346909565, 0.0, 0.0, 0.0, 0.0, -2722.5318816342215, 0.0]
['beep', 0.0, 804.3945794575906, 0.0, 0.0, 0.0, 0.0, -2721.637811856009, 0.0]
['beep', 0.0, 804.7298556244202, 0.0, 0.0, 0.0, 0.0, -2721.2801839447243, 0.0]
['beep', 0.0, 804.4616346909565, 0.0, 0.0, 0.0, 0.0, -2722.665992100953, 0.0]
['beep', 0.0, 805.2439457468922, 0.0, 0.0, 0.0, 0.0, -2722.7553990787746, 0.0]
['beep', 0.0, 805.0874835357051, 0.0, 0.0, 0.0, 0.0, -2721.391942667001, 0.0]
['beep', 0.0, 803.9475445684844, 0.0, 0.0, 0.0, 0.0, -2721.838977556107, 0.0]
['beep', 0.0, 804.2828207353141, 0.0, 0.0, 0.0, 0.0, -2721.1684252224477, 0.0]
['beep', 0.0, 804.5510416687778, 0.0, 0.0, 0.0, 0.0, -2720.9896112668052, 0.0]
['beep', 0.0, 805.9815533139174, 0.0, 0.0, 0.0, 0.0, -2721.5260531337326, 0.0]
['beep', 0.0, 805.2439457468922, 0.0, 0.0, 0.0, 0.0, -2721.771922322741, 0.0]
['beep', 0.0, 803.4334544460123, 0.0, 0.0, 0.0, 0.0, -2723.9176897904504, 0.0]
['beep', 0.0, 802.1817567565151, 0.0, 0.0, 0.0, 0.0, -2723.090675245604, 0.0]
['beep', 0.0, 802.2935154787917, 0.0, 0.0, 0.0, 0.0, -2721.9283845339282, 0.0]
['beep', 0.0, 802.4052742010682, 0.0, 0.0, 0.0, 0.0, -2721.8166258116516, 0.0]
['beep', 0.0, 803.187585257004, 0.0, 0.0, 0.0, 0.0, -2723.1577304789703, 0.0]
['beep', 0.0, 802.4946811788894, 0.0, 0.0, 0.0, 0.0, -2723.314192690157, 0.0]
['beep', 0.0, 800.639486389099, 0.0, 0.0, 0.0, 0.0, -2721.838977556107, 0.0]
['beep', 0.0, 800.9971143003839, 0.0, 0.0, 0.0, 0.0, -2721.5707566226433, 0.0]
['beep', 0.0, 802.382922456613, 0.0, 0.0, 0.0, 0.0, -2722.8001025676854, 0.0]
['beep', 0.0, 802.7405503678979, 0.0, 0.0, 0.0, 0.0, -2721.637811856009, 0.0]
['beep', 0.0, 802.382922456613, 0.0, 0.0, 0.0, 0.0, -2721.704867089375, 0.0]
['beep', 0.0, 801.4441491894901, 0.0, 0.0, 0.0, 0.0, -2721.2131287113584, 0.0]
['beep', 0.0, 801.4217974450347, 0.0, 0.0, 0.0, 0.0, -2720.833149055618, 0.0]
['beep', 0.0, 801.6229631451325, 0.0, 0.0, 0.0, 0.0, -2720.0508379996822, 0.0]
['beep', 0.0, 803.187585257004, 0.0, 0.0, 0.0, 0.0, -2719.3355821771124, 0.0]
['beep', 0.0, 802.6287916456213, 0.0, 0.0, 0.0, 0.0, -2720.073189744138, 0.0]
['beep', 0.0, 802.2264602454258, 0.0, 0.0, 0.0, 0.0, -2721.637811856009, 0.0]
['beep', 0.0, 801.4888526784007, 0.0, 0.0, 0.0, 0.0, -2721.8613293005624, 0.0]
['beep', 0.0, 802.7181986234425, 0.0, 0.0, 0.0, 0.0, -2723.2694892012464, 0.0]
['beep', 0.0, 804.0816550352163, 0.0, 0.0, 0.0, 0.0, -2722.1519019784814, 0.0]
['beep', 0.0, 803.4111027015571, 0.0, 0.0, 0.0, 0.0, -2722.4871781453107, 0.0]
['beep', 0.0, 802.0029428008727, 0.0, 0.0, 0.0, 0.0, -2723.1577304789703, 0.0]
['beep', 0.0, 802.8299573457191, 0.0, 0.0, 0.0, 0.0, -2721.481349644822, 0.0]
['beep', 0.0, 803.2993439792805, 0.0, 0.0, 0.0, 0.0, -2721.8613293005624, 0.0]
['beep', 0.0, 804.2381172464035, 0.0, 0.0, 0.0, 0.0, -2722.084846745115, 0.0]
['beep', 0.0, 803.0534747902722, 0.0, 0.0, 0.0, 0.0, -2722.4871781453107, 0.0]
['beep', 0.0, 801.0865212782052, 0.0, 0.0, 0.0, 0.0, -2723.001268267783, 0.0]
['beep', 0.0, 801.6229631451325, 0.0, 0.0, 0.0, 0.0, -2723.381247923523, 0.0]
['beep', 0.0, 802.6734951345319, 0.0, 0.0, 0.0, 0.0, -2723.4035996679786, 0.0]
['beep', 0.0, 802.0029428008727, 0.0, 0.0, 0.0, 0.0, -2722.77775082323, 0.0]
['beep', 0.0, 801.6676666340431, 0.0, 0.0, 0.0, 0.0, -2724.25296595728, 0.0]
['beep', 0.0, 800.4383206890012, 0.0, 0.0, 0.0, 0.0, -2722.1519019784814, 0.0]
['beep', 0.0, 800.8183003447415, 0.0, 0.0, 0.0, 0.0, -2720.7884455667077, 0.0]
['beep', 0.0, 802.7852538568085, 0.0, 0.0, 0.0, 0.0, -2721.5931083670985, 0.0]
['beep', 0.0, 803.0534747902722, 0.0, 0.0, 0.0, 0.0, -2721.5260531337326, 0.0]
['beep', 0.0, 801.8241288452302, 0.0, 0.0, 0.0, 0.0, -2720.743742077797, 0.0]
['beep', 0.0, 800.1477480110823, 0.0, 0.0, 0.0, 0.0, -2718.843843799096, 0.0]
['beep', 0.0, 800.4830241779118, 0.0, 0.0, 0.0, 0.0, -2719.782617066219, 0.0]
['beep', 0.0, 801.153576511571, 0.0, 0.0, 0.0, 0.0, -2722.0177915117492, 0.0]
['beep', 0.0, 801.3547422116688, 0.0, 0.0, 0.0, 0.0, -2721.8613293005624, 0.0]
['beep', 0.0, 801.0865212782052, 0.0, 0.0, 0.0, 0.0, -2721.391942667001, 0.0]
['beep', 0.0, 800.1477480110823, 0.0, 0.0, 0.0, 0.0, -2721.3695909225453, 0.0]
['beep', 0.0, 801.0641695337498, 0.0, 0.0, 0.0, 0.0, -2721.101369989082, 0.0]
['beep', 0.0, 802.7852538568085, 0.0, 0.0, 0.0, 0.0, -2720.475521144333, 0.0]
['beep', 0.0, 804.1934137574929, 0.0, 0.0, 0.0, 0.0, -2720.1849484664144, 0.0]
['beep', 0.0, 802.2935154787917, 0.0, 0.0, 0.0, 0.0, -2720.162596721959, 0.0]
['beep', 0.0, 800.4830241779118, 0.0, 0.0, 0.0, 0.0, -2720.5872798666096, 0.0]
['beep', 0.0, 800.3936172000906, 0.0, 0.0, 0.0, 0.0, -2720.5649281221545, 0.0]
['beep', 0.0, 802.6287916456213, 0.0, 0.0, 0.0, 0.0, -2720.9225560334394, 0.0]
['beep', 0.0, 803.2993439792805, 0.0, 0.0, 0.0, 0.0, -2721.034314755716, 0.0]
['beep', 0.0, 802.3382189677023, 0.0, 0.0, 0.0, 0.0, -2720.2073002108696, 0.0]
['beep', 0.0, 801.5782596562219, 0.0, 0.0, 0.0, 0.0, -2720.319058933146, 0.0]
['beep', 0.0, 800.4830241779118, 0.0, 0.0, 0.0, 0.0, -2720.7884455667077, 0.0]
['beep', 0.0, 802.7405503678979, 0.0, 0.0, 0.0, 0.0, -2719.4696926438446, 0.0]
['beep', 0.0, 804.2828207353141, 0.0, 0.0, 0.0, 0.0, -2720.408465910967, 0.0]
['beep', 0.0, 803.4558061904677, 0.0, 0.0, 0.0, 0.0, -2720.6319833555203, 0.0]
['beep', 0.0, 801.4665009339453, 0.0, 0.0, 0.0, 0.0, -2720.766093822252, 0.0]
['beep', 0.0, 801.4441491894901, 0.0, 0.0, 0.0, 0.0, -2720.453169399878, 0.0]
['beep', 0.0, 802.8746608346297, 0.0, 0.0, 0.0, 0.0, -2721.0119630112604, 0.0]
['beep', 0.0, 803.1652335125486, 0.0, 0.0, 0.0, 0.0, -2720.810797311163, 0.0]
['beep', 0.0, 802.4723294344342, 0.0, 0.0, 0.0, 0.0, -2720.117893233048, 0.0]
['beep', 0.0, 801.1759282560264, 0.0, 0.0, 0.0, 0.0, -2720.162596721959, 0.0]
['beep', 0.0, 800.8406520891967, 0.0, 0.0, 0.0, 0.0, -2719.9614310218612, 0.0]
['beep', 0.0, 803.5005096793783, 0.0, 0.0, 0.0, 0.0, -2721.8166258116516, 0.0]
['beep', 0.0, 804.3051724797693, 0.0, 0.0, 0.0, 0.0, -2722.8448060565956, 0.0]
['beep', 0.0, 802.4276259455236, 0.0, 0.0, 0.0, 0.0, -2721.995439767294, 0.0]
['beep', 0.0, 802.2264602454258, 0.0, 0.0, 0.0, 0.0, -2722.9118612899615, 0.0]
['beep', 0.0, 802.382922456613, 0.0, 0.0, 0.0, 0.0, -2721.704867089375, 0.0]
['beep', 0.0, 803.0534747902722, 0.0, 0.0, 0.0, 0.0, -2721.68251534492, 0.0]
['beep', 0.0, 804.3051724797693, 0.0, 0.0, 0.0, 0.0, -2721.8836810450175, 0.0]
['beep', 0.0, 803.4558061904677, 0.0, 0.0, 0.0, 0.0, -2721.5931083670985, 0.0]
['beep', 0.0, 802.9640678124509, 0.0, 0.0, 0.0, 0.0, -2721.1460734779926, 0.0]
['beep', 0.0, 803.701675379476, 0.0, 0.0, 0.0, 0.0, -2721.5707566226433, 0.0]
['beep', 0.0, 804.3722277131353, 0.0, 0.0, 0.0, 0.0, -2721.481349644822, 0.0]
['beep', 0.0, 805.6239254026325, 0.0, 0.0, 0.0, 0.0, -2721.7942740671965, 0.0]
['beep', 0.0, 803.5675649127442, 0.0, 0.0, 0.0, 0.0, -2722.129550234026, 0.0]
['beep', 0.0, 801.4217974450347, 0.0, 0.0, 0.0, 0.0, -2722.129550234026, 0.0]
['beep', 0.0, 802.4499776899788, 0.0, 0.0, 0.0, 0.0, -2720.8778525445287, 0.0]
['beep', 0.0, 804.5286899243224, 0.0, 0.0, 0.0, 0.0, -2721.034314755716, 0.0]
['beep', 0.0, 805.2886492358028, 0.0, 0.0, 0.0, 0.0, -2722.5318816342215, 0.0]
['beep', 0.0, 803.9475445684844, 0.0, 0.0, 0.0, 0.0, -2722.1519019784814, 0.0]
['beep', 0.0, 803.0534747902722, 0.0, 0.0, 0.0, 0.0, -2722.8448060565956, 0.0]
['beep', 0.0, 803.4558061904677, 0.0, 0.0, 0.0, 0.0, -2723.3365444346127, 0.0]
['beep', 0.0, 803.8357858462078, 0.0, 0.0, 0.0, 0.0, -2721.9283845339282, 0.0]
['beep', 0.0, 804.1040067796716, 0.0, 0.0, 0.0, 0.0, -2722.5542333786766, 0.0]
['beep', 0.0, 802.9193643235403, 0.0, 0.0, 0.0, 0.0, -2723.2471374567913, 0.0]
['beep', 0.0, 802.025294545328, 0.0, 0.0, 0.0, 0.0, -2722.375419423034, 0.0]
['beep', 0.0, 803.0534747902722, 0.0, 0.0, 0.0, 0.0, -2722.978916523328, 0.0]
['beep', 0.0, 804.2157655019481, 0.0, 0.0, 0.0, 0.0, -2722.8448060565956, 0.0]
['beep', 0.0, 804.5286899243224, 0.0, 0.0, 0.0, 0.0, -2722.1966054673917, 0.0]
['beep', 0.0, 803.4334544460123, 0.0, 0.0, 0.0, 0.0, -2722.286012445213, 0.0]
['beep', 0.0, 802.7181986234425, 0.0, 0.0, 0.0, 0.0, -2721.2801839447243, 0.0]
['beep', 0.0, 801.5782596562219, 0.0, 0.0, 0.0, 0.0, -2721.324887433635, 0.0]
['beep', 0.0, 803.3663992126465, 0.0, 0.0, 0.0, 0.0, -2721.995439767294, 0.0]
['beep', 0.0, 805.4004079580794, 0.0, 0.0, 0.0, 0.0, -2720.699038588886, 0.0]
['beep', 0.0, 803.8581375906632, 0.0, 0.0, 0.0, 0.0, -2721.68251534492, 0.0]
['beep', 0.0, 802.4946811788894, 0.0, 0.0, 0.0, 0.0, -2721.5931083670985, 0.0]
['beep', 0.0, 803.2769922348252, 0.0, 0.0, 0.0, 0.0, -2722.5318816342215, 0.0]
['beep', 0.0, 804.1040067796716, 0.0, 0.0, 0.0, 0.0, -2723.023620012238, 0.0]
['beep', 0.0, 804.5063381798672, 0.0, 0.0, 0.0, 0.0, -2722.375419423034, 0.0]
['beep', 0.0, 803.6793236350208, 0.0, 0.0, 0.0, 0.0, -2722.77775082323, 0.0]
['beep', 0.0, 801.5782596562219, 0.0, 0.0, 0.0, 0.0, -2721.7942740671965, 0.0]
['beep', 0.0, 802.7852538568085, 0.0, 0.0, 0.0, 0.0, -2721.5260531337326, 0.0]
['beep', 0.0, 803.4334544460123, 0.0, 0.0, 0.0, 0.0, -2722.4871781453107, 0.0]
['beep', 0.0, 805.1992422579816, 0.0, 0.0, 0.0, 0.0, -2723.4259514124337, 0.0]
['beep', 0.0, 805.1321870246157, 0.0, 0.0, 0.0, 0.0, -2723.090675245604, 0.0]
['beep', 0.0, 805.2886492358028, 0.0, 0.0, 0.0, 0.0, -2721.973088022839, 0.0]
['beep', 0.0, 806.8532713476743, 0.0, 0.0, 0.0, 0.0, -2721.4589979003667, 0.0]
['beep', 0.0, 809.2672597488476, 0.0, 0.0, 0.0, 0.0, -2719.9614310218612, 0.0]
['beep', 0.0, 810.7871783718084, 0.0, 0.0, 0.0, 0.0, -2720.453169399878, 0.0]
['beep', 0.0, 808.4178934595459, 0.0, 0.0, 0.0, 0.0, -2720.408465910967, 0.0]
['beep', 0.0, 805.6015736581771, 0.0, 0.0, 0.0, 0.0, -2719.5367478772105, 0.0]
['beep', 0.0, 805.0204283023392, 0.0, 0.0, 0.0, 0.0, -2719.804968810674, 0.0]
['beep', 0.0, 806.1380155251045, 0.0, 0.0, 0.0, 0.0, -2719.9837827663164, 0.0]
['beep', 0.0, 805.44511144699, 0.0, 0.0, 0.0, 0.0, -2721.391942667001, 0.0]
['beep', 0.0, 805.6462771470877, 0.0, 0.0, 0.0, 0.0, -2722.3083641896683, 0.0]
['beep', 0.0, 804.34987596868, 0.0, 0.0, 0.0, 0.0, -2723.4259514124337, 0.0]
['beep', 0.0, 804.5063381798672, 0.0, 0.0, 0.0, 0.0, -2724.1635589794587, 0.0]
['beep', 0.0, 806.6521056475766, 0.0, 0.0, 0.0, 0.0, -2723.604765368076, 0.0]
['beep', 0.0, 806.316829480747, 0.0, 0.0, 0.0, 0.0, -2723.6271171125313, 0.0]
['beep', 0.0, 806.6521056475766, 0.0, 0.0, 0.0, 0.0, -2722.1742537229366, 0.0]
['beep', 0.0, 806.3838847141129, 0.0, 0.0, 0.0, 0.0, -2721.973088022839, 0.0]
['beep', 0.0, 804.9533730689733, 0.0, 0.0, 0.0, 0.0, -2722.040143256205, 0.0]
['beep', 0.0, 805.6462771470877, 0.0, 0.0, 0.0, 0.0, -2722.77775082323, 0.0]
['beep', 0.0, 806.5179951808448, 0.0, 0.0, 0.0, 0.0, -2723.6941723458976, 0.0]
['beep', 0.0, 806.4732916919342, 0.0, 0.0, 0.0, 0.0, -2721.9060327894726, 0.0]
['beep', 0.0, 805.3557044691688, 0.0, 0.0, 0.0, 0.0, -2721.9507362783834, 0.0]
['beep', 0.0, 804.6628003910542, 0.0, 0.0, 0.0, 0.0, -2723.1577304789703, 0.0]
['beep', 0.0, 805.5345184248113, 0.0, 0.0, 0.0, 0.0, -2722.129550234026, 0.0]
['beep', 0.0, 808.1273207816268, 0.0, 0.0, 0.0, 0.0, -2721.72721883383, 0.0]
['beep', 0.0, 807.8143963592526, 0.0, 0.0, 0.0, 0.0, -2722.3083641896683, 0.0]
['beep', 0.0, 806.4509399474788, 0.0, 0.0, 0.0, 0.0, -2721.5260531337326, 0.0]
['beep', 0.0, 806.2944777362917, 0.0, 0.0, 0.0, 0.0, -2721.637811856009, 0.0]
['beep', 0.0, 807.2556027478698, 0.0, 0.0, 0.0, 0.0, -2722.643640356498, 0.0]
['beep', 0.0, 808.8872800931073, 0.0, 0.0, 0.0, 0.0, -2722.643640356498, 0.0]
['beep', 0.0, 808.3731899706353, 0.0, 0.0, 0.0, 0.0, -2722.8671578010512, 0.0]
['beep', 0.0, 806.7191608809425, 0.0, 0.0, 0.0, 0.0, -2723.649468856987, 0.0]
['beep', 0.0, 806.6521056475766, 0.0, 0.0, 0.0, 0.0, -2722.9565647788722, 0.0]
['beep', 0.0, 807.8367481037078, 0.0, 0.0, 0.0, 0.0, -2722.420122911945, 0.0]
['beep', 0.0, 808.4625969484565, 0.0, 0.0, 0.0, 0.0, -2723.2024339678806, 0.0]
['beep', 0.0, 807.4791201924229, 0.0, 0.0, 0.0, 0.0, -2723.940041534906, 0.0]
['beep', 0.0, 806.1603672695599, 0.0, 0.0, 0.0, 0.0, -2725.2140909688583, 0.0]
['beep', 0.0, 805.1992422579816, 0.0, 0.0, 0.0, 0.0, -2724.9235182909392, 0.0]
['beep', 0.0, 805.735684124909, 0.0, 0.0, 0.0, 0.0, -2724.655297357476, 0.0]
['beep', 0.0, 806.4956434363894, 0.0, 0.0, 0.0, 0.0, -2724.700000846386, 0.0]
['beep', 0.0, 806.2944777362917, 0.0, 0.0, 0.0, 0.0, -2724.1188554905484, 0.0]
['beep', 0.0, 805.5792219137219, 0.0, 0.0, 0.0, 0.0, -2723.2024339678806, 0.0]
['beep', 0.0, 805.1321870246157, 0.0, 0.0, 0.0, 0.0, -2723.4930066457996, 0.0]
['beep', 0.0, 806.9873818144061, 0.0, 0.0, 0.0, 0.0, -2724.8117595686626, 0.0]
['beep', 0.0, 808.2167277594481, 0.0, 0.0, 0.0, 0.0, -2725.281146202224, 0.0]
['beep', 0.0, 807.993210314895, 0.0, 0.0, 0.0, 0.0, -2724.677649101931, 0.0]
['beep', 0.0, 806.4062364585682, 0.0, 0.0, 0.0, 0.0, -2724.655297357476, 0.0]
['beep', 0.0, 806.4509399474788, 0.0, 0.0, 0.0, 0.0, -2723.582413623621, 0.0]
['beep', 0.0, 808.1496725260822, 0.0, 0.0, 0.0, 0.0, -2724.1412072350035, 0.0]
['beep', 0.0, 809.2225562599369, 0.0, 0.0, 0.0, 0.0, -2724.700000846386, 0.0]
['beep', 0.0, 808.4178934595459, 0.0, 0.0, 0.0, 0.0, -2724.1635589794587, 0.0]
['beep', 0.0, 806.7638643698531, 0.0, 0.0, 0.0, 0.0, -2723.7835793237186, 0.0]
['beep', 0.0, 806.6968091364872, 0.0, 0.0, 0.0, 0.0, -2722.9118612899615, 0.0]
['beep', 0.0, 807.993210314895, 0.0, 0.0, 0.0, 0.0, -2723.023620012238, 0.0]
['beep', 0.0, 807.6579341480654, 0.0, 0.0, 0.0, 0.0, -2723.0459717566937, 0.0]
['beep', 0.0, 807.0991405366827, 0.0, 0.0, 0.0, 0.0, -2722.688343845409, 0.0]
['beep', 0.0, 805.7580358693643, 0.0, 0.0, 0.0, 0.0, -2722.4424746564, 0.0]
['beep', 0.0, 805.959201569462, 0.0, 0.0, 0.0, 0.0, -2722.8224543121405, 0.0]
['beep', 0.0, 805.6686288915431, 0.0, 0.0, 0.0, 0.0, -2724.096503746093, 0.0]
['beep', 0.0, 808.1943760149928, 0.0, 0.0, 0.0, 0.0, -2724.96822177985, 0.0]
['beep', 0.0, 808.1496725260822, 0.0, 0.0, 0.0, 0.0, -2723.671820601442, 0.0]
['beep', 0.0, 806.8085678587637, 0.0, 0.0, 0.0, 0.0, -2723.2024339678806, 0.0]
['beep', 0.0, 806.3615329696576, 0.0, 0.0, 0.0, 0.0, -2723.716524090353, 0.0]
['beep', 0.0, 806.2497742473811, 0.0, 0.0, 0.0, 0.0, -2724.8117595686626, 0.0]
['beep', 0.0, 806.1380155251045, 0.0, 0.0, 0.0, 0.0, -2725.0799805021265, 0.0]
['beep', 0.0, 806.5850504142106, 0.0, 0.0, 0.0, 0.0, -2724.387076424012, 0.0]
['beep', 0.0, 805.7580358693643, 0.0, 0.0, 0.0, 0.0, -2725.1693874799475, 0.0]
['beep', 0.0, 805.1992422579816, 0.0, 0.0, 0.0, 0.0, -2726.1528642359813, 0.0]
['beep', 0.0, 805.8697945916408, 0.0, 0.0, 0.0, 0.0, -2726.3763816805345, 0.0]
['beep', 0.0, 806.4062364585682, 0.0, 0.0, 0.0, 0.0, -2726.6222508695428, 0.0]
['beep', 0.0, 806.1380155251045, 0.0, 0.0, 0.0, 0.0, -2725.996402024794, 0.0]
['beep', 0.0, 804.7522073688755, 0.0, 0.0, 0.0, 0.0, -2724.4094281684675, 0.0]
['beep', 0.0, 804.3722277131353, 0.0, 0.0, 0.0, 0.0, -2724.1188554905484, 0.0]
['beep', 0.0, 806.2497742473811, 0.0, 0.0, 0.0, 0.0, -2724.8788148020285, 0.0]
['beep', 0.0, 805.735684124909, 0.0, 0.0, 0.0, 0.0, -2726.1081607470705, 0.0]
['beep', 0.0, 805.735684124909, 0.0, 0.0, 0.0, 0.0, -2725.4599601578666, 0.0]
['beep', 0.0, 804.1934137574929, 0.0, 0.0, 0.0, 0.0, -2725.2140909688583, 0.0]
['beep', 0.0, 803.8581375906632, 0.0, 0.0, 0.0, 0.0, -2725.3929049245007, 0.0]
['beep', 0.0, 807.2108992589592, 0.0, 0.0, 0.0, 0.0, -2725.5940706245983, 0.0]
['beep', 0.0, 807.7473411258866, 0.0, 0.0, 0.0, 0.0, -2726.1752159804364, 0.0]
['beep', 0.0, 807.1438440255934, 0.0, 0.0, 0.0, 0.0, -2725.6611258579646, 0.0]
['beep', 0.0, 805.9815533139174, 0.0, 0.0, 0.0, 0.0, -2724.96822177985, 0.0]
['beep', 0.0, 806.6744573920319, 0.0, 0.0, 0.0, 0.0, -2724.58824212411, 0.0]
['beep', 0.0, 806.3838847141129, 0.0, 0.0, 0.0, 0.0, -2724.744704335297, 0.0]
['beep', 0.0, 807.702637636976, 0.0, 0.0, 0.0, 0.0, -2725.415256668956, 0.0]
['beep', 0.0, 807.7696928703419, 0.0, 0.0, 0.0, 0.0, -2724.700000846386, 0.0]
['beep', 0.0, 805.7133323804537, 0.0, 0.0, 0.0, 0.0, -2724.8341113131182, 0.0]
['beep', 0.0, 805.6239254026325, 0.0, 0.0, 0.0, 0.0, -2725.5940706245983, 0.0]
['beep', 0.0, 806.7415126253978, 0.0, 0.0, 0.0, 0.0, -2724.8788148020285, 0.0]
['beep', 0.0, 808.3508382261799, 0.0, 0.0, 0.0, 0.0, -2726.286974702713, 0.0]
['beep', 0.0, 807.6579341480654, 0.0, 0.0, 0.0, 0.0, -2726.4210851694447, 0.0]
['beep', 0.0, 806.6297539031212, 0.0, 0.0, 0.0, 0.0, -2725.2140909688583, 0.0]
['beep', 0.0, 807.3226579812358, 0.0, 0.0, 0.0, 0.0, -2724.9235182909392, 0.0]
['beep', 0.0, 807.993210314895, 0.0, 0.0, 0.0, 0.0, -2723.716524090353, 0.0]
['beep', 0.0, 809.2225562599369, 0.0, 0.0, 0.0, 0.0, -2723.4930066457996, 0.0]
['beep', 0.0, 808.2167277594481, 0.0, 0.0, 0.0, 0.0, -2723.5377101347103, 0.0]
['beep', 0.0, 806.8979748365849, 0.0, 0.0, 0.0, 0.0, -2724.0741520016377, 0.0]
['beep', 0.0, 806.1380155251045, 0.0, 0.0, 0.0, 0.0, -2725.5046636467773, 0.0]
['beep', 0.0, 807.9038033370738, 0.0, 0.0, 0.0, 0.0, -2725.571718880143, 0.0]
['beep', 0.0, 808.5073004373671, 0.0, 0.0, 0.0, 0.0, -2725.0129252687607, 0.0]
['beep', 0.0, 808.7308178819202, 0.0, 0.0, 0.0, 0.0, -2724.320021190646, 0.0]
['beep', 0.0, 806.2274225029257, 0.0, 0.0, 0.0, 0.0, -2724.5658903796543, 0.0]
['beep', 0.0, 806.4732916919342, 0.0, 0.0, 0.0, 0.0, -2725.482311902322, 0.0]
['beep', 0.0, 808.3061347372693, 0.0, 0.0, 0.0, 0.0, -2725.8175880691515, 0.0]
['beep', 0.0, 808.9990388153839, 0.0, 0.0, 0.0, 0.0, -2725.0799805021265, 0.0]
['beep', 0.0, 808.8872800931073, 0.0, 0.0, 0.0, 0.0, -2725.4376084134115, 0.0]
['beep', 0.0, 806.4956434363894, 0.0, 0.0, 0.0, 0.0, -2724.387076424012, 0.0]
['beep', 0.0, 807.6355824036101, 0.0, 0.0, 0.0, 0.0, -2724.7894078242075, 0.0]
['beep', 0.0, 809.5578324267665, 0.0, 0.0, 0.0, 0.0, -2725.281146202224, 0.0]
['beep', 0.0, 808.6637626485542, 0.0, 0.0, 0.0, 0.0, -2725.996402024794, 0.0]
['beep', 0.0, 807.702637636976, 0.0, 0.0, 0.0, 0.0, -2725.929346791428, 0.0]
['beep', 0.0, 806.2497742473811, 0.0, 0.0, 0.0, 0.0, -2726.510492147266, 0.0]
['beep', 0.0, 805.6239254026325, 0.0, 0.0, 0.0, 0.0, -2725.7281810913305, 0.0]
['beep', 0.0, 806.9650300699509, 0.0, 0.0, 0.0, 0.0, -2725.4599601578666, 0.0]
['beep', 0.0, 807.0767887922274, 0.0, 0.0, 0.0, 0.0, -2725.325849691135, 0.0]
['beep', 0.0, 806.6968091364872, 0.0, 0.0, 0.0, 0.0, -2724.990573524305, 0.0]
['beep', 0.0, 805.4004079580794, 0.0, 0.0, 0.0, 0.0, -2725.3034979466797, 0.0]
['beep', 0.0, 810.2060330159704, 0.0, 0.0, 0.0, 0.0, -2733.439532928411, 0.0]
['beep', 0.0, 809.0884457932051, 0.0, 0.0, 0.0, 0.0, -2731.740800349808, 0.0]
['beep', 0.0, 808.1943760149928, 0.0, 0.0, 0.0, 0.0, -2732.0760765166374, 0.0]
['beep', 0.0, 808.8872800931073, 0.0, 0.0, 0.0, 0.0, -2731.2937654607017, 0.0]
['beep', 0.0, 810.8765853496296, 0.0, 0.0, 0.0, 0.0, -2731.383172438523, 0.0]
['beep', 0.0, 809.7142946379537, 0.0, 0.0, 0.0, 0.0, -2731.5843381386208, 0.0]
['beep', 0.0, 808.4625969484565, 0.0, 0.0, 0.0, 0.0, -2733.037201528216, 0.0]
['beep', 0.0, 808.3284864817247, 0.0, 0.0, 0.0, 0.0, -2732.768980594752, 0.0]
['beep', 0.0, 808.1720242705375, 0.0, 0.0, 0.0, 0.0, -2734.5347684067215, 0.0]
['beep', 0.0, 810.1613295270598, 0.0, 0.0, 0.0, 0.0, -2735.16061725147, 0.0]
['beep', 0.0, 810.7201231384424, 0.0, 0.0, 0.0, 0.0, -2734.0430300287044, 0.0]
['beep', 0.0, 808.9096318375626, 0.0, 0.0, 0.0, 0.0, -2733.3054224616794, 0.0]
['beep', 0.0, 807.6579341480654, 0.0, 0.0, 0.0, 0.0, -2731.427875927434, 0.0]
['beep', 0.0, 810.0048673158726, 0.0, 0.0, 0.0, 0.0, -2732.9701462948497, 0.0]
['beep', 0.0, 810.8765853496296, 0.0, 0.0, 0.0, 0.0, -2734.9594515513722, 0.0]
['beep', 0.0, 810.3177917382469, 0.0, 0.0, 0.0, 0.0, -2733.8195125841517, 0.0]
['beep', 0.0, 808.9990388153839, 0.0, 0.0, 0.0, 0.0, -2732.746628850297, 0.0]
['beep', 0.0, 808.3731899706353, 0.0, 0.0, 0.0, 0.0, -2732.3666491945564, 0.0]
['beep', 0.0, 810.0048673158726, 0.0, 0.0, 0.0, 0.0, -2733.484236417322, 0.0]
['beep', 0.0, 811.5694894277441, 0.0, 0.0, 0.0, 0.0, -2734.5571201511766, 0.0]
['beep', 0.0, 811.3683237276464, 0.0, 0.0, 0.0, 0.0, -2734.355954451079, 0.0]
['beep', 0.0, 809.5578324267665, 0.0, 0.0, 0.0, 0.0, -2734.423009684445, 0.0]
['beep', 0.0, 809.5578324267665, 0.0, 0.0, 0.0, 0.0, -2734.8923963180064, 0.0]
['beep', 0.0, 810.6754196495318, 0.0, 0.0, 0.0, 0.0, -2733.9536230508834, 0.0]
['beep', 0.0, 812.1729865280374, 0.0, 0.0, 0.0, 0.0, -2733.6183468840536, 0.0]
['beep', 0.0, 813.3576289841687, 0.0, 0.0, 0.0, 0.0, -2733.9759747953385, 0.0]
['beep', 0.0, 811.6588964055653, 0.0, 0.0, 0.0, 0.0, -2733.439532928411, 0.0]
['beep', 0.0, 810.3848469716129, 0.0, 0.0, 0.0, 0.0, -2733.9759747953385, 0.0]
['beep', 0.0, 811.5694894277441, 0.0, 0.0, 0.0, 0.0, -2734.4006579399893, 0.0]
['beep', 0.0, 813.0447045617944, 0.0, 0.0, 0.0, 0.0, -2734.423009684445, 0.0]
['beep', 0.0, 813.6258499176324, 0.0, 0.0, 0.0, 0.0, -2733.707753861875, 0.0]
['beep', 0.0, 811.4577307054676, 0.0, 0.0, 0.0, 0.0, -2733.998326539794, 0.0]
['beep', 0.0, 810.2283847604257, 0.0, 0.0, 0.0, 0.0, -2732.746628850297, 0.0]
['beep', 0.0, 810.8989370940849, 0.0, 0.0, 0.0, 0.0, -2732.836035828118, 0.0]
['beep', 0.0, 811.3906754721016, 0.0, 0.0, 0.0, 0.0, -2733.752457350786, 0.0]
['beep', 0.0, 810.9436405829955, 0.0, 0.0, 0.0, 0.0, -2733.2383672283136, 0.0]
['beep', 0.0, 810.1613295270598, 0.0, 0.0, 0.0, 0.0, -2733.5736433951433, 0.0]
['beep', 0.0, 808.6190591596436, 0.0, 0.0, 0.0, 0.0, -2734.4006579399893, 0.0]
['beep', 0.0, 809.0660940487497, 0.0, 0.0, 0.0, 0.0, -2733.2607189727687, 0.0]
['beep', 0.0, 810.3177917382469, 0.0, 0.0, 0.0, 0.0, -2733.3277742061346, 0.0]
['beep', 0.0, 810.8095301162637, 0.0, 0.0, 0.0, 0.0, -2731.830207327629, 0.0]
['beep', 0.0, 808.9766870709285, 0.0, 0.0, 0.0, 0.0, -2731.137303249515, 0.0]
['beep', 0.0, 808.1049690371716, 0.0, 0.0, 0.0, 0.0, -2732.2772422167354, 0.0]
['beep', 0.0, 809.4013702155794, 0.0, 0.0, 0.0, 0.0, -2732.0760765166374, 0.0]
['beep', 0.0, 810.3401434827023, 0.0, 0.0, 0.0, 0.0, -2731.15965499397, 0.0]
['beep', 0.0, 811.413027216557, 0.0, 0.0, 0.0, 0.0, -2732.5901666391096, 0.0]
['beep', 0.0, 810.0048673158726, 0.0, 0.0, 0.0, 0.0, -2733.484236417322, 0.0]
['beep', 0.0, 809.7589981268643, 0.0, 0.0, 0.0, 0.0, -2731.2490619717914, 0.0]
['beep', 0.0, 811.122454538638, 0.0, 0.0, 0.0, 0.0, -2730.9808410383275, 0.0]
['beep', 0.0, 812.9105940950626, 0.0, 0.0, 0.0, 0.0, -2732.120780005548, 0.0]
['beep', 0.0, 812.2400417614034, 0.0, 0.0, 0.0, 0.0, -2733.3054224616794, 0.0]
['beep', 0.0, 810.6977713939872, 0.0, 0.0, 0.0, 0.0, -2732.8583875725735, 0.0]
['beep', 0.0, 810.1389777826045, 0.0, 0.0, 0.0, 0.0, -2732.4337044279223, 0.0]
['beep', 0.0, 812.4412074615011, 0.0, 0.0, 0.0, 0.0, -2731.9643177943612, 0.0]
['beep', 0.0, 814.0952365511938, 0.0, 0.0, 0.0, 0.0, -2732.0090212832715, 0.0]
['beep', 0.0, 813.3352772397134, 0.0, 0.0, 0.0, 0.0, -2732.321945705646, 0.0]
['beep', 0.0, 811.5471376832888, 0.0, 0.0, 0.0, 0.0, -2733.037201528216, 0.0]
['beep', 0.0, 810.3848469716129, 0.0, 0.0, 0.0, 0.0, -2731.6960968608973, 0.0]
['beep', 0.0, 810.9436405829955, 0.0, 0.0, 0.0, 0.0, -2732.5007596612886, 0.0]
['beep', 0.0, 811.413027216557, 0.0, 0.0, 0.0, 0.0, -2732.9701462948497, 0.0]
['beep', 0.0, 810.764826627353, 0.0, 0.0, 0.0, 0.0, -2732.8583875725735, 0.0]
['beep', 0.0, 810.2283847604257, 0.0, 0.0, 0.0, 0.0, -2733.104256761582, 0.0]
['beep', 0.0, 810.8989370940849, 0.0, 0.0, 0.0, 0.0, -2732.031373027727, 0.0]
['beep', 0.0, 810.7871783718084, 0.0, 0.0, 0.0, 0.0, -2731.87491081654, 0.0]
['beep', 0.0, 811.122454538638, 0.0, 0.0, 0.0, 0.0, -2733.037201528216, 0.0]
['beep', 0.0, 811.7706551278419, 0.0, 0.0, 0.0, 0.0, -2732.2772422167354, 0.0]
['beep', 0.0, 810.5636609272553, 0.0, 0.0, 0.0, 0.0, -2732.2772422167354, 0.0]
['beep', 0.0, 809.3343149822134, 0.0, 0.0, 0.0, 0.0, -2732.545463150199, 0.0]
['beep', 0.0, 810.4295504605235, 0.0, 0.0, 0.0, 0.0, -2732.098428261093, 0.0]
['beep', 0.0, 811.6141929166547, 0.0, 0.0, 0.0, 0.0, -2733.2607189727687, 0.0]
['beep', 0.0, 812.1282830391268, 0.0, 0.0, 0.0, 0.0, -2733.707753861875, 0.0]
['beep', 0.0, 811.0106958163615, 0.0, 0.0, 0.0, 0.0, -2732.8807393170287, 0.0]
['beep', 0.0, 809.6472394045877, 0.0, 0.0, 0.0, 0.0, -2731.9196143054505, 0.0]
['beep', 0.0, 810.5860126717106, 0.0, 0.0, 0.0, 0.0, -2731.137303249515, 0.0]
['beep', 0.0, 812.3294487392246, 0.0, 0.0, 0.0, 0.0, -2730.6455648714978, 0.0]
['beep', 0.0, 812.7764836283308, 0.0, 0.0, 0.0, 0.0, -2730.9137858049617, 0.0]
['beep', 0.0, 811.345971983191, 0.0, 0.0, 0.0, 0.0, -2730.1761782379363, 0.0]
['beep', 0.0, 810.3848469716129, 0.0, 0.0, 0.0, 0.0, -2731.5843381386208, 0.0]
['beep', 0.0, 811.994172572395, 0.0, 0.0, 0.0, 0.0, -2731.9866695388164, 0.0]
['beep', 0.0, 812.7094283949648, 0.0, 0.0, 0.0, 0.0, -2732.2101869833696, 0.0]
['beep', 0.0, 812.5082626948671, 0.0, 0.0, 0.0, 0.0, -2731.673745116442, 0.0]
['beep', 0.0, 811.2342132609145, 0.0, 0.0, 0.0, 0.0, -2730.2432334713026, 0.0]
['beep', 0.0, 810.9212888385402, 0.0, 0.0, 0.0, 0.0, -2729.9750125378387, 0.0]
['beep', 0.0, 811.9047655945737, 0.0, 0.0, 0.0, 0.0, -2730.198529982392, 0.0]
['beep', 0.0, 813.3352772397134, 0.0, 0.0, 0.0, 0.0, -2731.2714137162466, 0.0]
['beep', 0.0, 812.8211871172414, 0.0, 0.0, 0.0, 0.0, -2731.3384689496124, 0.0]
['beep', 0.0, 810.2283847604257, 0.0, 0.0, 0.0, 0.0, -2730.0867712601153, 0.0]
['beep', 0.0, 810.1836812715151, 0.0, 0.0, 0.0, 0.0, -2732.0760765166374, 0.0]
['beep', 0.0, 812.1729865280374, 0.0, 0.0, 0.0, 0.0, -2733.037201528216, 0.0]
['beep', 0.0, 814.1622917845598, 0.0, 0.0, 0.0, 0.0, -2731.4949311607998, 0.0]
['beep', 0.0, 816.1515970410821, 0.0, 0.0, 0.0, 0.0, -2730.802027082685, 0.0]
['beep', 0.0, 816.3080592522692, 0.0, 0.0, 0.0, 0.0, -2731.2937654607017, 0.0]
['beep', 0.0, 814.7434371403978, 0.0, 0.0, 0.0, 0.0, -2730.198529982392, 0.0]
['beep', 0.0, 815.928079596529, 0.0, 0.0, 0.0, 0.0, -2728.879777059529, 0.0]
['beep', 0.0, 814.9669545849508, 0.0, 0.0, 0.0, 0.0, -2729.3938671820006, 0.0]
['beep', 0.0, 813.3352772397134, 0.0, 0.0, 0.0, 0.0, -2729.3044602041796, 0.0]
['beep', 0.0, 811.1448062830933, 0.0, 0.0, 0.0, 0.0, -2728.857425315073, 0.0]
['beep', 0.0, 810.9659923274509, 0.0, 0.0, 0.0, 0.0, -2729.416218926456, 0.0]
['beep', 0.0, 810.6754196495318, 0.0, 0.0, 0.0, 0.0, -2730.422047426945, 0.0]
['beep', 0.0, 811.6812481500207, 0.0, 0.0, 0.0, 0.0, -2731.763152094263, 0.0]
['beep', 0.0, 813.4023324730794, 0.0, 0.0, 0.0, 0.0, -2732.3666491945564, 0.0]
['beep', 0.0, 812.061227805761, 0.0, 0.0, 0.0, 0.0, -2732.746628850297, 0.0]
['beep', 0.0, 811.413027216557, 0.0, 0.0, 0.0, 0.0, -2731.182006738425, 0.0]
['beep', 0.0, 813.4693877064452, 0.0, 0.0, 0.0, 0.0, -2730.846730571596, 0.0]
['beep', 0.0, 815.413989474057, 0.0, 0.0, 0.0, 0.0, -2731.9196143054505, 0.0]
['beep', 0.0, 815.4810447074228, 0.0, 0.0, 0.0, 0.0, -2730.6455648714978, 0.0]
['beep', 0.0, 814.4081609735681, 0.0, 0.0, 0.0, 0.0, -2730.422047426945, 0.0]
['beep', 0.0, 813.7823121288195, 0.0, 0.0, 0.0, 0.0, -2731.9196143054505, 0.0]
['beep', 0.0, 813.8940708510961, 0.0, 0.0, 0.0, 0.0, -2732.545463150199, 0.0]
['beep', 0.0, 815.1234167961379, 0.0, 0.0, 0.0, 0.0, -2732.8807393170287, 0.0]
['beep', 0.0, 814.5646231847553, 0.0, 0.0, 0.0, 0.0, -2730.578509638132, 0.0]
['beep', 0.0, 813.7823121288195, 0.0, 0.0, 0.0, 0.0, -2729.192701481903, 0.0]
['beep', 0.0, 812.1729865280374, 0.0, 0.0, 0.0, 0.0, -2730.712620104864, 0.0]
['beep', 0.0, 813.0000010728838, 0.0, 0.0, 0.0, 0.0, -2730.869082316051, 0.0]
['beep', 0.0, 814.765788884853, 0.0, 0.0, 0.0, 0.0, -2730.06441951566, 0.0]
['beep', 0.0, 814.6987336514871, 0.0, 0.0, 0.0, 0.0, -2730.3102887046684, 0.0]
['beep', 0.0, 813.1788150285263, 0.0, 0.0, 0.0, 0.0, -2731.0031927827827, 0.0]
['beep', 0.0, 811.8377103612078, 0.0, 0.0, 0.0, 0.0, -2729.930309048928, 0.0]
['beep', 0.0, 813.0223528173391, 0.0, 0.0, 0.0, 0.0, -2730.82437882714, 0.0]
['beep', 0.0, 815.1234167961379, 0.0, 0.0, 0.0, 0.0, -2732.031373027727, 0.0]
['beep', 0.0, 815.928079596529, 0.0, 0.0, 0.0, 0.0, -2732.5901666391096, 0.0]
['beep', 0.0, 814.8998993515848, 0.0, 0.0, 0.0, 0.0, -2731.2937654607017, 0.0]
['beep', 0.0, 813.2458702618922, 0.0, 0.0, 0.0, 0.0, -2730.6008613825875, 0.0]
['beep', 0.0, 813.4917394509006, 0.0, 0.0, 0.0, 0.0, -2731.9866695388164, 0.0]
['beep', 0.0, 814.7434371403978, 0.0, 0.0, 0.0, 0.0, -2733.0819050171262, 0.0]
['beep', 0.0, 814.4081609735681, 0.0, 0.0, 0.0, 0.0, -2732.746628850297, 0.0]
['beep', 0.0, 812.8882423506072, 0.0, 0.0, 0.0, 0.0, -2731.3608206940676, 0.0]
['beep', 0.0, 812.284745250314, 0.0, 0.0, 0.0, 0.0, -2730.802027082685, 0.0]
['beep', 0.0, 813.0000010728838, 0.0, 0.0, 0.0, 0.0, -2730.869082316051, 0.0]
['beep', 0.0, 814.8775476071296, 0.0, 0.0, 0.0, 0.0, -2732.187835238914, 0.0]
['beep', 0.0, 814.832844118219, 0.0, 0.0, 0.0, 0.0, -2731.9643177943612, 0.0]
['beep', 0.0, 813.0670563062497, 0.0, 0.0, 0.0, 0.0, -2731.9419660499057, 0.0]
['beep', 0.0, 812.8435388616966, 0.0, 0.0, 0.0, 0.0, -2730.9137858049617, 0.0]
['beep', 0.0, 813.1564632840709, 0.0, 0.0, 0.0, 0.0, -2732.4337044279223, 0.0]
['beep', 0.0, 814.4528644624787, 0.0, 0.0, 0.0, 0.0, -2732.3666491945564, 0.0]
['beep', 0.0, 814.6316784181212, 0.0, 0.0, 0.0, 0.0, -2731.6290416275315, 0.0]
['beep', 0.0, 814.028181317828, 0.0, 0.0, 0.0, 0.0, -2731.5843381386208, 0.0]
['beep', 0.0, 814.184643529015, 0.0, 0.0, 0.0, 0.0, -2731.0031927827827, 0.0]
['beep', 0.0, 813.3129254952581, 0.0, 0.0, 0.0, 0.0, -2730.3549921935787, 0.0]
['beep', 0.0, 814.251698762381, 0.0, 0.0, 0.0, 0.0, -2730.9808410383275, 0.0]
['beep', 0.0, 814.5646231847553, 0.0, 0.0, 0.0, 0.0, -2731.9419660499057, 0.0]
['beep', 0.0, 812.9105940950626, 0.0, 0.0, 0.0, 0.0, -2732.2325387278247, 0.0]
['beep', 0.0, 812.1282830391268, 0.0, 0.0, 0.0, 0.0, -2732.0537247721822, 0.0]
['beep', 0.0, 813.2682220063475, 0.0, 0.0, 0.0, 0.0, -2731.740800349808, 0.0]
['beep', 0.0, 814.2293470179256, 0.0, 0.0, 0.0, 0.0, -2731.9643177943612, 0.0]
['beep', 0.0, 814.5646231847553, 0.0, 0.0, 0.0, 0.0, -2731.6960968608973, 0.0]
['beep', 0.0, 813.6258499176324, 0.0, 0.0, 0.0, 0.0, -2730.6232131270426, 0.0]
['beep', 0.0, 811.9494690834844, 0.0, 0.0, 0.0, 0.0, -2731.0031927827827, 0.0]
['beep', 0.0, 813.6929051509983, 0.0, 0.0, 0.0, 0.0, -2731.182006738425, 0.0]
['beep', 0.0, 813.4693877064452, 0.0, 0.0, 0.0, 0.0, -2731.6513933719866, 0.0]
['beep', 0.0, 813.0223528173391, 0.0, 0.0, 0.0, 0.0, -2732.746628850297, 0.0]
['beep', 0.0, 812.798835372786, 0.0, 0.0, 0.0, 0.0, -2732.6348701280203, 0.0]
['beep', 0.0, 811.1671580275486, 0.0, 0.0, 0.0, 0.0, -2732.9701462948497, 0.0]
['beep', 0.0, 811.7706551278419, 0.0, 0.0, 0.0, 0.0, -2733.3277742061346, 0.0]
['beep', 0.0, 813.8046638732749, 0.0, 0.0, 0.0, 0.0, -2732.6572218724755, 0.0]
['beep', 0.0, 814.832844118219, 0.0, 0.0, 0.0, 0.0, -2732.5007596612886, 0.0]
['beep', 0.0, 813.4246842175346, 0.0, 0.0, 0.0, 0.0, -2733.0148497837604, 0.0]
['beep', 0.0, 811.2342132609145, 0.0, 0.0, 0.0, 0.0, -2732.321945705646, 0.0]
['beep', 0.0, 811.5247859388335, 0.0, 0.0, 0.0, 0.0, -2731.87491081654, 0.0]
['beep', 0.0, 812.9776493284285, 0.0, 0.0, 0.0, 0.0, -2732.5231114057437, 0.0]
['beep', 0.0, 813.1341115396157, 0.0, 0.0, 0.0, 0.0, -2731.6960968608973, 0.0]
['beep', 0.0, 811.7259516389313, 0.0, 0.0, 0.0, 0.0, -2731.53963464971, 0.0]
['beep', 0.0, 811.345971983191, 0.0, 0.0, 0.0, 0.0, -2731.9643177943612, 0.0]
['beep', 0.0, 813.1117597951603, 0.0, 0.0, 0.0, 0.0, -2730.82437882714, 0.0]
['beep', 0.0, 815.3022307517804, 0.0, 0.0, 0.0, 0.0, -2732.3666491945564, 0.0]
['beep', 0.0, 814.8104923737636, 0.0, 0.0, 0.0, 0.0, -2732.5231114057437, 0.0]
['beep', 0.0, 812.8882423506072, 0.0, 0.0, 0.0, 0.0, -2732.031373027727, 0.0]
['beep', 0.0, 811.6141929166547, 0.0, 0.0, 0.0, 0.0, -2731.6290416275315, 0.0]
['beep', 0.0, 812.7317801394202, 0.0, 0.0, 0.0, 0.0, -2731.740800349808, 0.0]
['beep', 0.0, 814.2069952734704, 0.0, 0.0, 0.0, 0.0, -2731.763152094263, 0.0]
['beep', 0.0, 813.8270156177301, 0.0, 0.0, 0.0, 0.0, -2731.5843381386208, 0.0]
['beep', 0.0, 812.3518004836799, 0.0, 0.0, 0.0, 0.0, -2731.807855583174, 0.0]
['beep', 0.0, 811.8824138501184, 0.0, 0.0, 0.0, 0.0, -2732.0537247721822, 0.0]
['beep', 0.0, 811.8600621056631, 0.0, 0.0, 0.0, 0.0, -2732.6348701280203, 0.0]
['beep', 0.0, 812.217690016948, 0.0, 0.0, 0.0, 0.0, -2732.5007596612886, 0.0]
['beep', 0.0, 813.1564632840709, 0.0, 0.0, 0.0, 0.0, -2731.53963464971, 0.0]
['beep', 0.0, 812.865890606152, 0.0, 0.0, 0.0, 0.0, -2732.411352683467, 0.0]
['beep', 0.0, 811.7706551278419, 0.0, 0.0, 0.0, 0.0, -2732.701925361386, 0.0]
['beep', 0.0, 811.5471376832888, 0.0, 0.0, 0.0, 0.0, -2733.417181183956, 0.0]
['beep', 0.0, 812.3518004836799, 0.0, 0.0, 0.0, 0.0, -2732.5231114057437, 0.0]
['beep', 0.0, 813.1564632840709, 0.0, 0.0, 0.0, 0.0, -2731.53963464971, 0.0]
['beep', 0.0, 811.6588964055653, 0.0, 0.0, 0.0, 0.0, -2732.6348701280203, 0.0]
['beep', 0.0, 810.4966056938894, 0.0, 0.0, 0.0, 0.0, -2732.7242771058413, 0.0]
['beep', 0.0, 811.3236202387358, 0.0, 0.0, 0.0, 0.0, -2733.104256761582, 0.0]
['beep', 0.0, 813.1341115396157, 0.0, 0.0, 0.0, 0.0, -2733.5512916506877, 0.0]
['beep', 0.0, 813.2905737508028, 0.0, 0.0, 0.0, 0.0, -2733.193663739403, 0.0]
['beep', 0.0, 811.2565650053698, 0.0, 0.0, 0.0, 0.0, -2732.545463150199, 0.0]
['beep', 0.0, 811.0106958163615, 0.0, 0.0, 0.0, 0.0, -2731.6290416275315, 0.0]
['beep', 0.0, 811.0553993052721, 0.0, 0.0, 0.0, 0.0, -2732.4337044279223, 0.0]
['beep', 0.0, 812.4188557170459, 0.0, 0.0, 0.0, 0.0, -2733.2160154838584, 0.0]
['beep', 0.0, 813.1564632840709, 0.0, 0.0, 0.0, 0.0, -2734.132437006526, 0.0]
['beep', 0.0, 811.1448062830933, 0.0, 0.0, 0.0, 0.0, -2733.8865678175175, 0.0]
['beep', 0.0, 811.3906754721016, 0.0, 0.0, 0.0, 0.0, -2732.4337044279223, 0.0]
['beep', 0.0, 811.6141929166547, 0.0, 0.0, 0.0, 0.0, -2732.9701462948497, 0.0]
['beep', 0.0, 812.4412074615011, 0.0, 0.0, 0.0, 0.0, -2732.8807393170287, 0.0]
['beep', 0.0, 812.3518004836799, 0.0, 0.0, 0.0, 0.0, -2733.104256761582, 0.0]
['beep', 0.0, 811.6141929166547, 0.0, 0.0, 0.0, 0.0, -2732.2101869833696, 0.0]
['beep', 0.0, 810.8989370940849, 0.0, 0.0, 0.0, 0.0, -2731.9419660499057, 0.0]
['beep', 0.0, 810.5636609272553, 0.0, 0.0, 0.0, 0.0, -2731.6513933719866, 0.0]
['beep', 0.0, 811.5247859388335, 0.0, 0.0, 0.0, 0.0, -2732.5231114057437, 0.0]
['beep', 0.0, 811.2118615164592, 0.0, 0.0, 0.0, 0.0, -2732.2995939611906, 0.0]
['beep', 0.0, 810.7871783718084, 0.0, 0.0, 0.0, 0.0, -2732.3666491945564, 0.0]
['beep', 0.0, 810.6977713939872, 0.0, 0.0, 0.0, 0.0, -2731.5619863941656, 0.0]
['beep', 0.0, 811.2565650053698, 0.0, 0.0, 0.0, 0.0, -2732.2995939611906, 0.0]
['beep', 0.0, 812.1282830391268, 0.0, 0.0, 0.0, 0.0, -2731.6513933719866, 0.0]
['beep', 0.0, 813.3129254952581, 0.0, 0.0, 0.0, 0.0, -2732.1431317500037, 0.0]
['beep', 0.0, 812.0165243168502, 0.0, 0.0, 0.0, 0.0, -2734.221843984347, 0.0]
['beep', 0.0, 811.5247859388335, 0.0, 0.0, 0.0, 0.0, -2732.701925361386, 0.0]
['beep', 0.0, 811.3683237276464, 0.0, 0.0, 0.0, 0.0, -2732.8807393170287, 0.0]
['beep', 0.0, 812.5082626948671, 0.0, 0.0, 0.0, 0.0, -2733.193663739403, 0.0]
['beep', 0.0, 812.3965039725905, 0.0, 0.0, 0.0, 0.0, -2732.321945705646, 0.0]
['beep', 0.0, 810.764826627353, 0.0, 0.0, 0.0, 0.0, -2732.187835238914, 0.0]
['beep', 0.0, 810.0942742936938, 0.0, 0.0, 0.0, 0.0, -2732.5901666391096, 0.0]
['beep', 0.0, 809.2672597488476, 0.0, 0.0, 0.0, 0.0, -2731.472579416344, 0.0]
['beep', 0.0, 811.0777510497273, 0.0, 0.0, 0.0, 0.0, -2734.1100852620707, 0.0]
['beep', 0.0, 811.6588964055653, 0.0, 0.0, 0.0, 0.0, -2735.2276724848357, 0.0]
['beep', 0.0, 809.8707568491408, 0.0, 0.0, 0.0, 0.0, -2733.0819050171262, 0.0]
['beep', 0.0, 809.3119632377582, 0.0, 0.0, 0.0, 0.0, -2732.701925361386, 0.0]
['beep', 0.0, 809.5578324267665, 0.0, 0.0, 0.0, 0.0, -2733.6183468840536, 0.0]
['beep', 0.0, 811.122454538638, 0.0, 0.0, 0.0, 0.0, -2732.836035828118, 0.0]
['beep', 0.0, 811.7930068722972, 0.0, 0.0, 0.0, 0.0, -2733.3724776950453, 0.0]
['beep', 0.0, 810.3401434827023, 0.0, 0.0, 0.0, 0.0, -2734.3112509621683, 0.0]
['beep', 0.0, 809.4237219600346, 0.0, 0.0, 0.0, 0.0, -2732.9254428059394, 0.0]
['beep', 0.0, 809.8931085935961, 0.0, 0.0, 0.0, 0.0, -2732.5901666391096, 0.0]
['beep', 0.0, 811.2789167498252, 0.0, 0.0, 0.0, 0.0, -2733.640698628509, 0.0]
['beep', 0.0, 811.4577307054676, 0.0, 0.0, 0.0, 0.0, -2734.3112509621683, 0.0]
['beep', 0.0, 810.8989370940849, 0.0, 0.0, 0.0, 0.0, -2734.6018236400873, 0.0]
['beep', 0.0, 811.0106958163615, 0.0, 0.0, 0.0, 0.0, -2733.640698628509, 0.0]
['beep', 0.0, 810.8765853496296, 0.0, 0.0, 0.0, 0.0, -2733.417181183956, 0.0]
['beep', 0.0, 812.9105940950626, 0.0, 0.0, 0.0, 0.0, -2733.2607189727687, 0.0]
['beep', 0.0, 812.798835372786, 0.0, 0.0, 0.0, 0.0, -2733.2383672283136, 0.0]
['beep', 0.0, 810.6754196495318, 0.0, 0.0, 0.0, 0.0, -2731.9643177943612, 0.0]
['beep', 0.0, 810.1836812715151, 0.0, 0.0, 0.0, 0.0, -2730.77967533823, 0.0]
['beep', 0.0, 810.027219060328, 0.0, 0.0, 0.0, 0.0, -2732.2325387278247, 0.0]
['beep', 0.0, 811.7259516389313, 0.0, 0.0, 0.0, 0.0, -2733.0819050171262, 0.0]
['beep', 0.0, 813.2458702618922, 0.0, 0.0, 0.0, 0.0, -2734.2665474732576, 0.0]
['beep', 0.0, 811.9047655945737, 0.0, 0.0, 0.0, 0.0, -2734.6241753845425, 0.0]
['beep', 0.0, 810.3401434827023, 0.0, 0.0, 0.0, 0.0, -2734.3112509621683, 0.0]
['beep', 0.0, 811.2342132609145, 0.0, 0.0, 0.0, 0.0, -2733.3724776950453, 0.0]
['beep', 0.0, 812.5529661837777, 0.0, 0.0, 0.0, 0.0, -2733.1713119949477, 0.0]
['beep', 0.0, 813.2235185174369, 0.0, 0.0, 0.0, 0.0, -2734.087733517615, 0.0]
['beep', 0.0, 812.4859109504117, 0.0, 0.0, 0.0, 0.0, -2734.8253410846405, 0.0]
['beep', 0.0, 811.3012684942804, 0.0, 0.0, 0.0, 0.0, -2734.423009684445, 0.0]
['beep', 0.0, 812.3965039725905, 0.0, 0.0, 0.0, 0.0, -2735.2723759737464, 0.0]
['beep', 0.0, 813.3352772397134, 0.0, 0.0, 0.0, 0.0, -2735.0488585291932, 0.0]
['beep', 0.0, 813.0670563062497, 0.0, 0.0, 0.0, 0.0, -2735.764114351763, 0.0]
['beep', 0.0, 811.6141929166547, 0.0, 0.0, 0.0, 0.0, -2735.361782951568, 0.0]
['beep', 0.0, 811.1895097720039, 0.0, 0.0, 0.0, 0.0, -2734.78063759573, 0.0]
['beep', 0.0, 811.5694894277441, 0.0, 0.0, 0.0, 0.0, -2735.4288381849337, 0.0]
['beep', 0.0, 813.2905737508028, 0.0, 0.0, 0.0, 0.0, -2736.099390518593, 0.0]
['beep', 0.0, 813.3576289841687, 0.0, 0.0, 0.0, 0.0, -2737.4404951859115, 0.0]
['beep', 0.0, 812.2400417614034, 0.0, 0.0, 0.0, 0.0, -2736.7252393633416, 0.0]
['beep', 0.0, 812.284745250314, 0.0, 0.0, 0.0, 0.0, -2736.1887974964143, 0.0]
['beep', 0.0, 812.7317801394202, 0.0, 0.0, 0.0, 0.0, -2736.345259707601, 0.0]
['beep', 0.0, 813.7823121288195, 0.0, 0.0, 0.0, 0.0, -2736.993460296805, 0.0]
['beep', 0.0, 814.5646231847553, 0.0, 0.0, 0.0, 0.0, -2737.4404951859115, 0.0]
['beep', 0.0, 812.5529661837777, 0.0, 0.0, 0.0, 0.0, -2736.1664457519587, 0.0]
['beep', 0.0, 810.9436405829955, 0.0, 0.0, 0.0, 0.0, -2736.25585272978, 0.0]
['beep', 0.0, 811.413027216557, 0.0, 0.0, 0.0, 0.0, -2736.747591107797, 0.0]
['beep', 0.0, 813.5587946842664, 0.0, 0.0, 0.0, 0.0, -2737.060515530171, 0.0]
['beep', 0.0, 814.184643529015, 0.0, 0.0, 0.0, 0.0, -2736.121742263048, 0.0]
['beep', 0.0, 812.0165243168502, 0.0, 0.0, 0.0, 0.0, -2735.4735416738445, 0.0]
['beep', 0.0, 809.9378120825068, 0.0, 0.0, 0.0, 0.0, -2736.8146463411626, 0.0]
['beep', 0.0, 809.2896114933028, 0.0, 0.0, 0.0, 0.0, -2736.747591107797, 0.0]
['beep', 0.0, 811.8600621056631, 0.0, 0.0, 0.0, 0.0, -2735.607652140576, 0.0]
['beep', 0.0, 813.4246842175346, 0.0, 0.0, 0.0, 0.0, -2736.032335285227, 0.0]
['beep', 0.0, 811.4577307054676, 0.0, 0.0, 0.0, 0.0, -2735.317079462657, 0.0]
['beep', 0.0, 810.8542336051743, 0.0, 0.0, 0.0, 0.0, -2736.009983540772, 0.0]
['beep', 0.0, 811.7259516389313, 0.0, 0.0, 0.0, 0.0, -2736.4346666854226, 0.0]
['beep', 0.0, 812.5529661837777, 0.0, 0.0, 0.0, 0.0, -2736.099390518593, 0.0]
['beep', 0.0, 812.061227805761, 0.0, 0.0, 0.0, 0.0, -2737.2393294858134, 0.0]
['beep', 0.0, 811.6365446611101, 0.0, 0.0, 0.0, 0.0, -2736.7252393633416, 0.0]
['beep', 0.0, 810.3401434827023, 0.0, 0.0, 0.0, 0.0, -2735.8758730740396, 0.0]
['beep', 0.0, 811.927117339029, 0.0, 0.0, 0.0, 0.0, -2736.322907963146, 0.0]
['beep', 0.0, 813.2905737508028, 0.0, 0.0, 0.0, 0.0, -2737.060515530171, 0.0]
['beep', 0.0, 813.8940708510961, 0.0, 0.0, 0.0, 0.0, -2736.7252393633416, 0.0]
['beep', 0.0, 812.7764836283308, 0.0, 0.0, 0.0, 0.0, -2735.5629486516655, 0.0]
['beep', 0.0, 812.6647249060542, 0.0, 0.0, 0.0, 0.0, -2734.5347684067215, 0.0]
['beep', 0.0, 814.0952365511938, 0.0, 0.0, 0.0, 0.0, -2734.6912306179083, 0.0]
['beep', 0.0, 813.670553406543, 0.0, 0.0, 0.0, 0.0, -2735.0488585291932, 0.0]
['beep', 0.0, 813.4023324730794, 0.0, 0.0, 0.0, 0.0, -2735.451189929389, 0.0]
['beep', 0.0, 813.0670563062497, 0.0, 0.0, 0.0, 0.0, -2735.2276724848357, 0.0]
['beep', 0.0, 812.9105940950626, 0.0, 0.0, 0.0, 0.0, -2733.104256761582, 0.0]
['beep', 0.0, 813.1117597951603, 0.0, 0.0, 0.0, 0.0, -2733.059553272671, 0.0]
['beep', 0.0, 813.7823121288195, 0.0, 0.0, 0.0, 0.0, -2733.148960250492, 0.0]
['beep', 0.0, 815.2575272628698, 0.0, 0.0, 0.0, 0.0, -2735.2053207403806, 0.0]
['beep', 0.0, 814.184643529015, 0.0, 0.0, 0.0, 0.0, -2735.9876317963162, 0.0]
['beep', 0.0, 812.4635592059565, 0.0, 0.0, 0.0, 0.0, -2735.674707373942, 0.0]
['beep', 0.0, 814.0505330622832, 0.0, 0.0, 0.0, 0.0, -2735.9429283074055, 0.0]
['beep', 0.0, 815.5928034296994, 0.0, 0.0, 0.0, 0.0, -2736.769942852252, 0.0]
['beep', 0.0, 814.8551958626742, 0.0, 0.0, 0.0, 0.0, -2736.054687029682, 0.0]
['beep', 0.0, 814.2293470179256, 0.0, 0.0, 0.0, 0.0, -2734.378306195534, 0.0]
['beep', 0.0, 813.3129254952581, 0.0, 0.0, 0.0, 0.0, -2734.1771404954366, 0.0]
['beep', 0.0, 811.9047655945737, 0.0, 0.0, 0.0, 0.0, -2735.317079462657, 0.0]
['beep', 0.0, 812.9105940950626, 0.0, 0.0, 0.0, 0.0, -2735.8311695851294, 0.0]
['beep', 0.0, 814.0728848067386, 0.0, 0.0, 0.0, 0.0, -2736.8817015745285, 0.0]
['beep', 0.0, 813.3576289841687, 0.0, 0.0, 0.0, 0.0, -2735.965280051861, 0.0]
['beep', 0.0, 812.798835372786, 0.0, 0.0, 0.0, 0.0, -2735.1382655070147, 0.0]
['beep', 0.0, 812.7317801394202, 0.0, 0.0, 0.0, 0.0, -2735.451189929389, 0.0]
['beep', 0.0, 813.0000010728838, 0.0, 0.0, 0.0, 0.0, -2736.054687029682, 0.0]
['beep', 0.0, 813.6258499176324, 0.0, 0.0, 0.0, 0.0, -2736.389963196512, 0.0]
['beep', 0.0, 812.7541318838754, 0.0, 0.0, 0.0, 0.0, -2736.389963196512, 0.0]
['beep', 0.0, 811.927117339029, 0.0, 0.0, 0.0, 0.0, -2736.25585272978, 0.0]
['beep', 0.0, 812.284745250314, 0.0, 0.0, 0.0, 0.0, -2735.9429283074055, 0.0]
['beep', 0.0, 814.0058295733726, 0.0, 0.0, 0.0, 0.0, -2735.9876317963162, 0.0]
['beep', 0.0, 813.2235185174369, 0.0, 0.0, 0.0, 0.0, -2736.479370174333, 0.0]
['beep', 0.0, 811.5024341943782, 0.0, 0.0, 0.0, 0.0, -2736.9487568078944, 0.0]
['beep', 0.0, 810.3848469716129, 0.0, 0.0, 0.0, 0.0, -2736.7922945967075, 0.0]
['beep', 0.0, 811.8824138501184, 0.0, 0.0, 0.0, 0.0, -2738.9157103199614, 0.0]
['beep', 0.0, 814.184643529015, 0.0, 0.0, 0.0, 0.0, -2739.005117297783, 0.0]
['beep', 0.0, 815.2575272628698, 0.0, 0.0, 0.0, 0.0, -2737.5075504192773, 0.0]
['beep', 0.0, 814.7434371403978, 0.0, 0.0, 0.0, 0.0, -2737.4628469303666, 0.0]
['beep', 0.0, 815.928079596529, 0.0, 0.0, 0.0, 0.0, -2735.5405969072103, 0.0]
['beep', 0.0, 817.1127220526603, 0.0, 0.0, 0.0, 0.0, -2735.2500242292913, 0.0]
['beep', 0.0, 818.3644197421575, 0.0, 0.0, 0.0, 0.0, -2736.099390518593, 0.0]
['beep', 0.0, 819.3702482426463, 0.0, 0.0, 0.0, 0.0, -2735.451189929389, 0.0]
['beep', 0.0, 816.218652274448, 0.0, 0.0, 0.0, 0.0, -2735.7864660962186, 0.0]
['beep', 0.0, 813.5587946842664, 0.0, 0.0, 0.0, 0.0, -2735.764114351763, 0.0]
['beep', 0.0, 813.4693877064452, 0.0, 0.0, 0.0, 0.0, -2735.3394312071123, 0.0]
['beep', 0.0, 814.0728848067386, 0.0, 0.0, 0.0, 0.0, -2735.317079462657, 0.0]
['beep', 0.0, 814.028181317828, 0.0, 0.0, 0.0, 0.0, -2736.2335009853246, 0.0]
['beep', 0.0, 812.217690016948, 0.0, 0.0, 0.0, 0.0, -2737.73106786383, 0.0]
['beep', 0.0, 811.8377103612078, 0.0, 0.0, 0.0, 0.0, -2737.641660886009, 0.0]
['beep', 0.0, 812.8882423506072, 0.0, 0.0, 0.0, 0.0, -2738.021640541749, 0.0]
['beep', 0.0, 814.0058295733726, 0.0, 0.0, 0.0, 0.0, -2737.999288797294, 0.0]
['beep', 0.0, 815.1010650516827, 0.0, 0.0, 0.0, 0.0, -2738.6921928754086, 0.0]
['beep', 0.0, 813.6258499176324, 0.0, 0.0, 0.0, 0.0, -2736.747591107797, 0.0]
['beep', 0.0, 812.0835795502162, 0.0, 0.0, 0.0, 0.0, -2736.546425407699, 0.0]
['beep', 0.0, 813.0000010728838, 0.0, 0.0, 0.0, 0.0, -2737.5969573970983, 0.0]
['beep', 0.0, 814.184643529015, 0.0, 0.0, 0.0, 0.0, -2737.4628469303666, 0.0]
['beep', 0.0, 815.6822104075206, 0.0, 0.0, 0.0, 0.0, -2738.4016201974896, 0.0]
['beep', 0.0, 813.7376086399089, 0.0, 0.0, 0.0, 0.0, -2737.5522539081876, 0.0]
['beep', 0.0, 811.8153586167525, 0.0, 0.0, 0.0, 0.0, -2735.674707373942, 0.0]
['beep', 0.0, 813.2235185174369, 0.0, 0.0, 0.0, 0.0, -2736.5687771521543, 0.0]
['beep', 0.0, 814.1399400401044, 0.0, 0.0, 0.0, 0.0, -2736.546425407699, 0.0]
['beep', 0.0, 813.6258499176324, 0.0, 0.0, 0.0, 0.0, -2737.619309141554, 0.0]
['beep', 0.0, 812.3965039725905, 0.0, 0.0, 0.0, 0.0, -2738.6921928754086, 0.0]
['beep', 0.0, 812.2623935058587, 0.0, 0.0, 0.0, 0.0, -2737.4851986748217, 0.0]
['beep', 0.0, 812.0165243168502, 0.0, 0.0, 0.0, 0.0, -2737.0158120412602, 0.0]
['beep', 0.0, 814.5646231847553, 0.0, 0.0, 0.0, 0.0, -2737.664012630464, 0.0]
['beep', 0.0, 815.4810447074228, 0.0, 0.0, 0.0, 0.0, -2737.999288797294, 0.0]
['beep', 0.0, 814.2964022512916, 0.0, 0.0, 0.0, 0.0, -2737.775771352741, 0.0]
['beep', 0.0, 812.3965039725905, 0.0, 0.0, 0.0, 0.0, -2737.932233563928, 0.0]
['beep', 0.0, 813.5811464287218, 0.0, 0.0, 0.0, 0.0, -2737.261681230269, 0.0]
['beep', 0.0, 814.6763819070318, 0.0, 0.0, 0.0, 0.0, -2737.0158120412602, 0.0]
['beep', 0.0, 814.5869749292106, 0.0, 0.0, 0.0, 0.0, -2737.7534196082856, 0.0]
['beep', 0.0, 814.028181317828, 0.0, 0.0, 0.0, 0.0, -2735.8982248184952, 0.0]
['beep', 0.0, 813.3352772397134, 0.0, 0.0, 0.0, 0.0, -2735.719410862853, 0.0]
['beep', 0.0, 814.5199196958447, 0.0, 0.0, 0.0, 0.0, -2735.8311695851294, 0.0]
['beep', 0.0, 815.8833761076183, 0.0, 0.0, 0.0, 0.0, -2736.5240736632436, 0.0]
['beep', 0.0, 814.5869749292106, 0.0, 0.0, 0.0, 0.0, -2736.8593498300734, 0.0]
['beep', 0.0, 814.4528644624787, 0.0, 0.0, 0.0, 0.0, -2736.345259707601, 0.0]
['beep', 0.0, 812.798835372786, 0.0, 0.0, 0.0, 0.0, -2737.5522539081876, 0.0]
['beep', 0.0, 812.6423731615989, 0.0, 0.0, 0.0, 0.0, -2736.6581841299753, 0.0]
['beep', 0.0, 815.1457685405933, 0.0, 0.0, 0.0, 0.0, -2737.2169777413583, 0.0]
['beep', 0.0, 815.1457685405933, 0.0, 0.0, 0.0, 0.0, -2737.0158120412602, 0.0]
['beep', 0.0, 814.4975679513893, 0.0, 0.0, 0.0, 0.0, -2736.613480641065, 0.0]
['beep', 0.0, 814.7881406293084, 0.0, 0.0, 0.0, 0.0, -2735.697059118397, 0.0]
['beep', 0.0, 814.6093266736659, 0.0, 0.0, 0.0, 0.0, -2735.0488585291932, 0.0]
['beep', 0.0, 816.0621900632609, 0.0, 0.0, 0.0, 0.0, -2736.680535874431, 0.0]
['beep', 0.0, 816.9786115859284, 0.0, 0.0, 0.0, 0.0, -2736.2111492408694, 0.0]
['beep', 0.0, 815.0340098183167, 0.0, 0.0, 0.0, 0.0, -2735.965280051861, 0.0]
['beep', 0.0, 813.9164225955514, 0.0, 0.0, 0.0, 0.0, -2737.574605652643, 0.0]
['beep', 0.0, 814.1399400401044, 0.0, 0.0, 0.0, 0.0, -2738.736896364319, 0.0]
['beep', 0.0, 816.1292452966268, 0.0, 0.0, 0.0, 0.0, -2737.5075504192773, 0.0]
['beep', 0.0, 817.1797772860263, 0.0, 0.0, 0.0, 0.0, -2736.8817015745285, 0.0]
['beep', 0.0, 814.2293470179256, 0.0, 0.0, 0.0, 0.0, -2736.4346666854226, 0.0]
['beep', 0.0, 813.8046638732749, 0.0, 0.0, 0.0, 0.0, -2735.4735416738445, 0.0]
['beep', 0.0, 814.1399400401044, 0.0, 0.0, 0.0, 0.0, -2735.674707373942, 0.0]
['beep', 0.0, 814.6316784181212, 0.0, 0.0, 0.0, 0.0, -2736.7922945967075, 0.0]
['beep', 0.0, 815.8833761076183, 0.0, 0.0, 0.0, 0.0, -2735.674707373942, 0.0]
['beep', 0.0, 814.1399400401044, 0.0, 0.0, 0.0, 0.0, -2736.345259707601, 0.0]
['beep', 0.0, 814.028181317828, 0.0, 0.0, 0.0, 0.0, -2736.769942852252, 0.0]
['beep', 0.0, 815.346934240691, 0.0, 0.0, 0.0, 0.0, -2736.009983540772, 0.0]
['beep', 0.0, 814.9893063294061, 0.0, 0.0, 0.0, 0.0, -2736.345259707601, 0.0]
['beep', 0.0, 816.2633557633586, 0.0, 0.0, 0.0, 0.0, -2737.8428265861066, 0.0]
['beep', 0.0, 816.1515970410821, 0.0, 0.0, 0.0, 0.0, -2738.021640541749, 0.0]
['beep', 0.0, 813.5364429398112, 0.0, 0.0, 0.0, 0.0, -2737.7981230971964, 0.0]
['beep', 0.0, 814.0952365511938, 0.0, 0.0, 0.0, 0.0, -2737.8204748416515, 0.0]
['beep', 0.0, 815.7939691297971, 0.0, 0.0, 0.0, 0.0, -2738.580434153132, 0.0]
['beep', 0.0, 815.2351755184145, 0.0, 0.0, 0.0, 0.0, -2738.893358575506, 0.0]
['beep', 0.0, 813.9387743400067, 0.0, 0.0, 0.0, 0.0, -2737.8651783305622, 0.0]
['beep', 0.0, 814.3411057402022, 0.0, 0.0, 0.0, 0.0, -2736.680535874431, 0.0]
['beep', 0.0, 814.4528644624787, 0.0, 0.0, 0.0, 0.0, -2738.0439922862047, 0.0]
['beep', 0.0, 815.570451685244, 0.0, 0.0, 0.0, 0.0, -2738.1110475195705, 0.0]
['beep', 0.0, 816.1739487855374, 0.0, 0.0, 0.0, 0.0, -2737.2169777413583, 0.0]
['beep', 0.0, 815.1904720295039, 0.0, 0.0, 0.0, 0.0, -2736.613480641065, 0.0]
['beep', 0.0, 814.3411057402022, 0.0, 0.0, 0.0, 0.0, -2736.8593498300734, 0.0]
['beep', 0.0, 814.2740505068363, 0.0, 0.0, 0.0, 0.0, -2738.021640541749, 0.0]
['beep', 0.0, 816.4645214634564, 0.0, 0.0, 0.0, 0.0, -2737.3957916970007, 0.0]
['beep', 0.0, 816.509224952367, 0.0, 0.0, 0.0, 0.0, -2736.8817015745285, 0.0]
['beep', 0.0, 814.0505330622832, 0.0, 0.0, 0.0, 0.0, -2735.8311695851294, 0.0]
['beep', 0.0, 813.5811464287218, 0.0, 0.0, 0.0, 0.0, -2734.6018236400873, 0.0]
['beep', 0.0, 812.3965039725905, 0.0, 0.0, 0.0, 0.0, -2735.965280051861, 0.0]
['beep', 0.0, 813.0670563062497, 0.0, 0.0, 0.0, 0.0, -2738.356916708579, 0.0]
['beep', 0.0, 814.4752162069341, 0.0, 0.0, 0.0, 0.0, -2738.893358575506, 0.0]
['beep', 0.0, 813.0670563062497, 0.0, 0.0, 0.0, 0.0, -2737.9545853083832, 0.0]
['beep', 0.0, 811.4353789610122, 0.0, 0.0, 0.0, 0.0, -2737.328736463635, 0.0]
['beep', 0.0, 811.6141929166547, 0.0, 0.0, 0.0, 0.0, -2738.289861475213, 0.0]
['beep', 0.0, 813.5587946842664, 0.0, 0.0, 0.0, 0.0, -2737.5075504192773, 0.0]
['beep', 0.0, 813.2905737508028, 0.0, 0.0, 0.0, 0.0, -2738.289861475213, 0.0]
['beep', 0.0, 811.9718208279396, 0.0, 0.0, 0.0, 0.0, -2737.619309141554, 0.0]
['beep', 0.0, 811.413027216557, 0.0, 0.0, 0.0, 0.0, -2737.038163785716, 0.0]
['beep', 0.0, 811.6812481500207, 0.0, 0.0, 0.0, 0.0, -2737.060515530171, 0.0]
['beep', 0.0, 813.3129254952581, 0.0, 0.0, 0.0, 0.0, -2736.6581841299753, 0.0]
['beep', 0.0, 814.3634574846575, 0.0, 0.0, 0.0, 0.0, -2736.904053318984, 0.0]
['beep', 0.0, 812.6647249060542, 0.0, 0.0, 0.0, 0.0, -2737.3957916970007, 0.0]
['beep', 0.0, 812.4635592059565, 0.0, 0.0, 0.0, 0.0, -2737.9545853083832, 0.0]
['beep', 0.0, 811.7930068722972, 0.0, 0.0, 0.0, 0.0, -2736.322907963146, 0.0]
['beep', 0.0, 813.1564632840709, 0.0, 0.0, 0.0, 0.0, -2736.032335285227, 0.0]
['beep', 0.0, 813.0000010728838, 0.0, 0.0, 0.0, 0.0, -2735.764114351763, 0.0]
['beep', 0.0, 811.122454538638, 0.0, 0.0, 0.0, 0.0, -2734.937099806917, 0.0]
['beep', 0.0, 810.6754196495318, 0.0, 0.0, 0.0, 0.0, -2735.4288381849337, 0.0]
['beep', 0.0, 811.1001027941827, 0.0, 0.0, 0.0, 0.0, -2736.7922945967075, 0.0]
['beep', 0.0, 813.8493673621855, 0.0, 0.0, 0.0, 0.0, -2735.093562018104, 0.0]
['beep', 0.0, 813.9387743400067, 0.0, 0.0, 0.0, 0.0, -2736.389963196512, 0.0]
['beep', 0.0, 813.2905737508028, 0.0, 0.0, 0.0, 0.0, -2736.993460296805, 0.0]
['beep', 0.0, 812.4635592059565, 0.0, 0.0, 0.0, 0.0, -2736.121742263048, 0.0]
['beep', 0.0, 812.2623935058587, 0.0, 0.0, 0.0, 0.0, -2736.322907963146, 0.0]
['beep', 0.0, 813.5140911953558, 0.0, 0.0, 0.0, 0.0, -2736.6581841299753, 0.0]
['beep', 0.0, 815.413989474057, 0.0, 0.0, 0.0, 0.0, -2737.038163785716, 0.0]
['beep', 0.0, 813.7152568954536, 0.0, 0.0, 0.0, 0.0, -2736.6581841299753, 0.0]
['beep', 0.0, 812.4188557170459, 0.0, 0.0, 0.0, 0.0, -2735.741762607308, 0.0]
['beep', 0.0, 813.670553406543, 0.0, 0.0, 0.0, 0.0, -2736.099390518593, 0.0]
['beep', 0.0, 814.0505330622832, 0.0, 0.0, 0.0, 0.0, -2736.993460296805, 0.0]
['beep', 0.0, 814.9669545849508, 0.0, 0.0, 0.0, 0.0, -2738.2004544973915, 0.0]
['beep', 0.0, 814.6763819070318, 0.0, 0.0, 0.0, 0.0, -2738.602785897587, 0.0]
['beep', 0.0, 812.5529661837777, 0.0, 0.0, 0.0, 0.0, -2737.4628469303666, 0.0]
['beep', 0.0, 813.6258499176324, 0.0, 0.0, 0.0, 0.0, -2737.2169777413583, 0.0]
['beep', 0.0, 814.7881406293084, 0.0, 0.0, 0.0, 0.0, -2737.7981230971964, 0.0]
['beep', 0.0, 815.5928034296994, 0.0, 0.0, 0.0, 0.0, -2737.060515530171, 0.0]
['beep', 0.0, 813.7376086399089, 0.0, 0.0, 0.0, 0.0, -2737.3957916970007, 0.0]
['beep', 0.0, 813.0894080507051, 0.0, 0.0, 0.0, 0.0, -2737.0158120412602, 0.0]
['beep', 0.0, 813.0223528173391, 0.0, 0.0, 0.0, 0.0, -2736.613480641065, 0.0]
['beep', 0.0, 813.3129254952581, 0.0, 0.0, 0.0, 0.0, -2737.5969573970983, 0.0]
['beep', 0.0, 814.6540301625765, 0.0, 0.0, 0.0, 0.0, -2736.9487568078944, 0.0]
['beep', 0.0, 813.2905737508028, 0.0, 0.0, 0.0, 0.0, -2737.2169777413583, 0.0]
['beep', 0.0, 811.2118615164592, 0.0, 0.0, 0.0, 0.0, -2737.68636437492, 0.0]
['beep', 0.0, 812.3070969947693, 0.0, 0.0, 0.0, 0.0, -2737.619309141554, 0.0]
['beep', 0.0, 813.2905737508028, 0.0, 0.0, 0.0, 0.0, -2737.3957916970007, 0.0]
['beep', 0.0, 814.3634574846575, 0.0, 0.0, 0.0, 0.0, -2737.619309141554, 0.0]
['beep', 0.0, 813.2905737508028, 0.0, 0.0, 0.0, 0.0, -2738.7815998532296, 0.0]
['beep', 0.0, 811.9718208279396, 0.0, 0.0, 0.0, 0.0, -2738.736896364319, 0.0]
['beep', 0.0, 812.1059312946716, 0.0, 0.0, 0.0, 0.0, -2738.4910271753106, 0.0]
['beep', 0.0, 813.0670563062497, 0.0, 0.0, 0.0, 0.0, -2739.7427248648078, 0.0]
['beep', 0.0, 813.2905737508028, 0.0, 0.0, 0.0, 0.0, -2740.0780010316375, 0.0]
['beep', 0.0, 813.2235185174369, 0.0, 0.0, 0.0, 0.0, -2739.318041720157, 0.0]
['beep', 0.0, 812.3965039725905, 0.0, 0.0, 0.0, 0.0, -2739.1168760200594, 0.0]
['beep', 0.0, 812.4188557170459, 0.0, 0.0, 0.0, 0.0, -2738.8486550865955, 0.0]
['beep', 0.0, 814.4305127180235, 0.0, 0.0, 0.0, 0.0, -2739.4074486979785, 0.0]
['beep', 0.0, 814.5646231847553, 0.0, 0.0, 0.0, 0.0, -2738.938062064417, 0.0]
['beep', 0.0, 813.8493673621855, 0.0, 0.0, 0.0, 0.0, -2736.993460296805, 0.0]
['beep', 0.0, 813.3129254952581, 0.0, 0.0, 0.0, 0.0, -2736.7252393633416, 0.0]
['beep', 0.0, 813.6258499176324, 0.0, 0.0, 0.0, 0.0, -2737.9098818194725, 0.0]
['beep', 0.0, 814.6763819070318, 0.0, 0.0, 0.0, 0.0, -2738.7815998532296, 0.0]
['beep', 0.0, 816.7327423969201, 0.0, 0.0, 0.0, 0.0, -2737.619309141554, 0.0]
['beep', 0.0, 816.3974662300905, 0.0, 0.0, 0.0, 0.0, -2737.060515530171, 0.0]
['beep', 0.0, 813.2682220063475, 0.0, 0.0, 0.0, 0.0, -2738.5357306642213, 0.0]
['beep', 0.0, 813.4023324730794, 0.0, 0.0, 0.0, 0.0, -2737.574605652643, 0.0]
['beep', 0.0, 816.2633557633586, 0.0, 0.0, 0.0, 0.0, -2735.8311695851294, 0.0]
['beep', 0.0, 816.1963005299928, 0.0, 0.0, 0.0, 0.0, -2737.7981230971964, 0.0]
['beep', 0.0, 815.4810447074228, 0.0, 0.0, 0.0, 0.0, -2738.4463236864, 0.0]
['beep', 0.0, 814.3187539957469, 0.0, 0.0, 0.0, 0.0, -2738.513378919766, 0.0]
['beep', 0.0, 814.6987336514871, 0.0, 0.0, 0.0, 0.0, -2738.8263033421404, 0.0]
['beep', 0.0, 814.8775476071296, 0.0, 0.0, 0.0, 0.0, -2739.295689975702, 0.0]
['beep', 0.0, 815.3692859851463, 0.0, 0.0, 0.0, 0.0, -2739.54155916471, 0.0]
['beep', 0.0, 814.028181317828, 0.0, 0.0, 0.0, 0.0, -2739.228634742336, 0.0]
['beep', 0.0, 812.865890606152, 0.0, 0.0, 0.0, 0.0, -2738.5580824086765, 0.0]
['beep', 0.0, 813.2458702618922, 0.0, 0.0, 0.0, 0.0, -2739.16157950897, 0.0]
['beep', 0.0, 816.1068935521715, 0.0, 0.0, 0.0, 0.0, -2739.586262653621, 0.0]
['beep', 0.0, 816.285707507814, 0.0, 0.0, 0.0, 0.0, -2739.5639109091653, 0.0]
['beep', 0.0, 815.413989474057, 0.0, 0.0, 0.0, 0.0, -2739.966242309361, 0.0]
['beep', 0.0, 813.7376086399089, 0.0, 0.0, 0.0, 0.0, -2739.250986486791, 0.0]
['beep', 0.0, 813.670553406543, 0.0, 0.0, 0.0, 0.0, -2737.1052190190817, 0.0]
['beep', 0.0, 815.5480999407888, 0.0, 0.0, 0.0, 0.0, -2739.4521521868887, 0.0]
['beep', 0.0, 816.1515970410821, 0.0, 0.0, 0.0, 0.0, -2740.234463242825, 0.0]
['beep', 0.0, 815.3245824962357, 0.0, 0.0, 0.0, 0.0, -2738.5580824086765, 0.0]
['beep', 0.0, 814.5199196958447, 0.0, 0.0, 0.0, 0.0, -2737.9098818194725, 0.0]
['beep', 0.0, 812.8211871172414, 0.0, 0.0, 0.0, 0.0, -2736.904053318984, 0.0]
['beep', 0.0, 814.1622917845598, 0.0, 0.0, 0.0, 0.0, -2738.4463236864, 0.0]
['beep', 0.0, 815.7492656408865, 0.0, 0.0, 0.0, 0.0, -2739.385096953523, 0.0]
['beep', 0.0, 813.6258499176324, 0.0, 0.0, 0.0, 0.0, -2739.519207420255, 0.0]
['beep', 0.0, 812.6870766505095, 0.0, 0.0, 0.0, 0.0, -2737.3957916970007, 0.0]
['beep', 0.0, 812.2400417614034, 0.0, 0.0, 0.0, 0.0, -2737.5522539081876, 0.0]
['beep', 0.0, 813.4917394509006, 0.0, 0.0, 0.0, 0.0, -2737.9545853083832, 0.0]
['beep', 0.0, 814.2293470179256, 0.0, 0.0, 0.0, 0.0, -2739.16157950897, 0.0]
['beep', 0.0, 813.4023324730794, 0.0, 0.0, 0.0, 0.0, -2738.222806241847, 0.0]
['beep', 0.0, 812.2400417614034, 0.0, 0.0, 0.0, 0.0, -2736.7922945967075, 0.0]
['beep', 0.0, 812.3518004836799, 0.0, 0.0, 0.0, 0.0, -2736.2111492408694, 0.0]
['beep', 0.0, 813.8046638732749, 0.0, 0.0, 0.0, 0.0, -2737.976937052839, 0.0]
['beep', 0.0, 813.8493673621855, 0.0, 0.0, 0.0, 0.0, -2738.8486550865955, 0.0]
['beep', 0.0, 813.1788150285263, 0.0, 0.0, 0.0, 0.0, -2737.35108820809, 0.0]
['beep', 0.0, 812.3294487392246, 0.0, 0.0, 0.0, 0.0, -2737.0828672746266, 0.0]
['beep', 0.0, 812.9329458395179, 0.0, 0.0, 0.0, 0.0, -2737.35108820809, 0.0]
['beep', 0.0, 813.5587946842664, 0.0, 0.0, 0.0, 0.0, -2736.9264050634392, 0.0]
['beep', 0.0, 814.6316784181212, 0.0, 0.0, 0.0, 0.0, -2737.3957916970007, 0.0]
['beep', 0.0, 814.0728848067386, 0.0, 0.0, 0.0, 0.0, -2736.345259707601, 0.0]
['beep', 0.0, 812.575317928233, 0.0, 0.0, 0.0, 0.0, -2735.5182451627547, 0.0]
['beep', 0.0, 813.0000010728838, 0.0, 0.0, 0.0, 0.0, -2737.3957916970007, 0.0]
['beep', 0.0, 814.8998993515848, 0.0, 0.0, 0.0, 0.0, -2738.021640541749, 0.0]
['beep', 0.0, 814.6763819070318, 0.0, 0.0, 0.0, 0.0, -2737.7981230971964, 0.0]
['beep', 0.0, 814.9222510960402, 0.0, 0.0, 0.0, 0.0, -2736.25585272978, 0.0]
['beep', 0.0, 813.0894080507051, 0.0, 0.0, 0.0, 0.0, -2736.97110855235, 0.0]
['beep', 0.0, 812.6870766505095, 0.0, 0.0, 0.0, 0.0, -2736.479370174333, 0.0]
['beep', 0.0, 814.4528644624787, 0.0, 0.0, 0.0, 0.0, -2736.9487568078944, 0.0]
['beep', 0.0, 814.5869749292106, 0.0, 0.0, 0.0, 0.0, -2736.904053318984, 0.0]
['beep', 0.0, 815.346934240691, 0.0, 0.0, 0.0, 0.0, -2735.8982248184952, 0.0]
['beep', 0.0, 813.8717191066407, 0.0, 0.0, 0.0, 0.0, -2734.9594515513722, 0.0]
['beep', 0.0, 813.8493673621855, 0.0, 0.0, 0.0, 0.0, -2735.004155040283, 0.0]
['beep', 0.0, 814.6987336514871, 0.0, 0.0, 0.0, 0.0, -2736.7252393633416, 0.0]
['beep', 0.0, 816.1068935521715, 0.0, 0.0, 0.0, 0.0, -2736.4570184298777, 0.0]
['beep', 0.0, 814.8104923737636, 0.0, 0.0, 0.0, 0.0, -2736.322907963146, 0.0]
['beep', 0.0, 812.9105940950626, 0.0, 0.0, 0.0, 0.0, -2736.2782044742353, 0.0]
['beep', 0.0, 813.4917394509006, 0.0, 0.0, 0.0, 0.0, -2735.3394312071123, 0.0]
['beep', 0.0, 815.0340098183167, 0.0, 0.0, 0.0, 0.0, -2734.1771404954366, 0.0]
['beep', 0.0, 815.2798790073251, 0.0, 0.0, 0.0, 0.0, -2734.8923963180064, 0.0]
['beep', 0.0, 814.5646231847553, 0.0, 0.0, 0.0, 0.0, -2736.4570184298777, 0.0]
['beep', 0.0, 814.1399400401044, 0.0, 0.0, 0.0, 0.0, -2735.8982248184952, 0.0]
['beep', 0.0, 813.0223528173391, 0.0, 0.0, 0.0, 0.0, -2736.009983540772, 0.0]
['beep', 0.0, 813.8940708510961, 0.0, 0.0, 0.0, 0.0, -2736.5017219187885, 0.0]
['beep', 0.0, 814.7210853959424, 0.0, 0.0, 0.0, 0.0, -2735.317079462657, 0.0]
['beep', 0.0, 812.9552975839732, 0.0, 0.0, 0.0, 0.0, -2734.6241753845425, 0.0]
['beep', 0.0, 811.9718208279396, 0.0, 0.0, 0.0, 0.0, -2734.378306195534, 0.0]
['beep', 0.0, 812.5082626948671, 0.0, 0.0, 0.0, 0.0, -2734.4900649178107, 0.0]
['beep', 0.0, 813.2458702618922, 0.0, 0.0, 0.0, 0.0, -2735.451189929389, 0.0]
['beep', 0.0, 814.1622917845598, 0.0, 0.0, 0.0, 0.0, -2735.674707373942, 0.0]
['beep', 0.0, 813.4917394509006, 0.0, 0.0, 0.0, 0.0, -2735.2723759737464, 0.0]
['beep', 0.0, 814.1399400401044, 0.0, 0.0, 0.0, 0.0, -2735.16061725147, 0.0]
['beep', 0.0, 815.7045621519759, 0.0, 0.0, 0.0, 0.0, -2735.451189929389, 0.0]
['beep', 0.0, 816.9562598414732, 0.0, 0.0, 0.0, 0.0, -2733.640698628509, 0.0]
['beep', 0.0, 818.833806375719, 0.0, 0.0, 0.0, 0.0, -2733.9089195619727, 0.0]
['beep', 0.0, 818.0514953197832, 0.0, 0.0, 0.0, 0.0, -2734.1771404954366, 0.0]
['beep', 0.0, 816.3080592522692, 0.0, 0.0, 0.0, 0.0, -2734.221843984347, 0.0]
['beep', 0.0, 815.2128237739591, 0.0, 0.0, 0.0, 0.0, -2734.8253410846405, 0.0]
['beep', 0.0, 815.0116580738614, 0.0, 0.0, 0.0, 0.0, -2735.026506784738, 0.0]
['beep', 0.0, 814.5646231847553, 0.0, 0.0, 0.0, 0.0, -2736.904053318984, 0.0]
['beep', 0.0, 813.5587946842664, 0.0, 0.0, 0.0, 0.0, -2736.389963196512, 0.0]
['beep', 0.0, 812.5529661837777, 0.0, 0.0, 0.0, 0.0, -2735.8758730740396, 0.0]
['beep', 0.0, 812.3741522281352, 0.0, 0.0, 0.0, 0.0, -2736.7922945967075, 0.0]
['beep', 0.0, 812.3518004836799, 0.0, 0.0, 0.0, 0.0, -2738.1781027529364, 0.0]
['beep', 0.0, 813.1788150285263, 0.0, 0.0, 0.0, 0.0, -2737.5522539081876, 0.0]
['beep', 0.0, 812.2623935058587, 0.0, 0.0, 0.0, 0.0, -2738.088695775115, 0.0]
['beep', 0.0, 810.4071987160681, 0.0, 0.0, 0.0, 0.0, -2737.999288797294, 0.0]
['beep', 0.0, 811.413027216557, 0.0, 0.0, 0.0, 0.0, -2736.993460296805, 0.0]
['beep', 0.0, 812.5082626948671, 0.0, 0.0, 0.0, 0.0, -2736.7252393633416, 0.0]
['beep', 0.0, 813.3576289841687, 0.0, 0.0, 0.0, 0.0, -2736.680535874431, 0.0]
['beep', 0.0, 813.2458702618922, 0.0, 0.0, 0.0, 0.0, -2735.9876317963162, 0.0]
['beep', 0.0, 812.4859109504117, 0.0, 0.0, 0.0, 0.0, -2735.8758730740396, 0.0]
['beep', 0.0, 812.0835795502162, 0.0, 0.0, 0.0, 0.0, -2736.1664457519587, 0.0]
['beep', 0.0, 814.3634574846575, 0.0, 0.0, 0.0, 0.0, -2736.7252393633416, 0.0]
['beep', 0.0, 815.1904720295039, 0.0, 0.0, 0.0, 0.0, -2737.5522539081876, 0.0]
['beep', 0.0, 814.2964022512916, 0.0, 0.0, 0.0, 0.0, -2736.389963196512, 0.0]
['beep', 0.0, 813.4023324730794, 0.0, 0.0, 0.0, 0.0, -2736.9264050634392, 0.0]
['beep', 0.0, 813.9164225955514, 0.0, 0.0, 0.0, 0.0, -2735.741762607308, 0.0]
