['beep', 0.0, 638.388173388025, 0.0, 0.0, 0.0, 0.0, -2394.85530791942, 0.0]
['beep', 0.0, 639.1257809550501, 0.0, 0.0, 0.0, 0.0, -2401.5161277671014, 0.0]
['beep', 0.0, 640.3104234111814, 0.0, 0.0, 0.0, 0.0, -2406.791139458554, 0.0]
['beep', 0.0, 640.6009960891004, 0.0, 0.0, 0.0, 0.0, -2411.753226727632, 0.0]
['beep', 0.0, 640.869217022564, 0.0, 0.0, 0.0, 0.0, -2415.1283401403834, 0.0]
['beep', 0.0, 641.003327489296, 0.0, 0.0, 0.0, 0.0, -2421.118607654406, 0.0]
['beep', 0.0, 641.6291763340446, 0.0, 0.0, 0.0, 0.0, -2425.745418756654, 0.0]
['beep', 0.0, 642.2773769232484, 0.0, 0.0, 0.0, 0.0, -2429.3887531028695, 0.0]
['beep', 0.0, 642.6573565789887, 0.0, 0.0, 0.0, 0.0, -2433.367363615914, 0.0]
['beep', 0.0, 643.4173158904691, 0.0, 0.0, 0.0, 0.0, -2434.9319857277856, 0.0]
['beep', 0.0, 642.8138187901758, 0.0, 0.0, 0.0, 0.0, -2438.105933440439, 0.0]
['beep', 0.0, 641.8973972675083, 0.0, 0.0, 0.0, 0.0, -2441.9057299978413, 0.0]
['beep', 0.0, 642.7020600678993, 0.0, 0.0, 0.0, 0.0, -2444.4538288657463, 0.0]
['beep', 0.0, 644.0878682241283, 0.0, 0.0, 0.0, 0.0, -2445.1914364327713, 0.0]
['beep', 0.0, 643.6855368239328, 0.0, 0.0, 0.0, 0.0, -2447.6054248339447, 0.0]
['beep', 0.0, 642.0091559897847, 0.0, 0.0, 0.0, 0.0, -2448.5441981010676, 0.0]
['beep', 0.0, 642.2997286677038, 0.0, 0.0, 0.0, 0.0, -2450.9581865022406, 0.0]
['beep', 0.0, 643.8196472906646, 0.0, 0.0, 0.0, 0.0, -2452.813381292031, 0.0]
['beep', 0.0, 645.0489932357066, 0.0, 0.0, 0.0, 0.0, -2453.662747581333, 0.0]
['beep', 0.0, 644.2443304353154, 0.0, 0.0, 0.0, 0.0, -2455.137962715383, 0.0]
['beep', 0.0, 643.0149844902736, 0.0, 0.0, 0.0, 0.0, -2454.310948170537, 0.0]
['beep', 0.0, 643.484371123835, 0.0, 0.0, 0.0, 0.0, -2456.1214394714166, 0.0]
['beep', 0.0, 644.3337374131366, 0.0, 0.0, 0.0, 0.0, -2458.490724383679, 0.0]
['beep', 0.0, 645.8313042916423, 0.0, 0.0, 0.0, 0.0, -2459.205980206249, 0.0]
['beep', 0.0, 645.1160484690724, 0.0, 0.0, 0.0, 0.0, -2460.144753473372, 0.0]
['beep', 0.0, 645.2501589358043, 0.0, 0.0, 0.0, 0.0, -2460.9941197626736, 0.0]
['beep', 0.0, 645.2054554468937, 0.0, 0.0, 0.0, 0.0, -2460.524733129112, 0.0]
['beep', 0.0, 644.7137170688769, 0.0, 0.0, 0.0, 0.0, -2460.1224017289164, 0.0]
['beep', 0.0, 645.741897313821, 0.0, 0.0, 0.0, 0.0, -2462.134058729894, 0.0]
['beep', 0.0, 646.4795048808462, 0.0, 0.0, 0.0, 0.0, -2464.1904192197826, 0.0]
['beep', 0.0, 645.9877665028295, 0.0, 0.0, 0.0, 0.0, -2463.2963494415703, 0.0]
['beep', 0.0, 645.227807191349, 0.0, 0.0, 0.0, 0.0, -2461.463506396235, 0.0]
['beep', 0.0, 646.2783391807484, 0.0, 0.0, 0.0, 0.0, -2460.1894569622823, 0.0]
['beep', 0.0, 648.2005892039048, 0.0, 0.0, 0.0, 0.0, -2459.3177389285256, 0.0]
['beep', 0.0, 648.1782374594495, 0.0, 0.0, 0.0, 0.0, -2461.0835267404946, 0.0]
['beep', 0.0, 649.6087491045892, 0.0, 0.0, 0.0, 0.0, -2463.6763290973104, 0.0]
['beep', 0.0, 648.289996181726, 0.0, 0.0, 0.0, 0.0, -2461.2176372072267, 0.0]
['beep', 0.0, 647.9547200148965, 0.0, 0.0, 0.0, 0.0, -2461.150581973861, 0.0]
['beep', 0.0, 649.7875630602316, 0.0, 0.0, 0.0, 0.0, -2462.7375558301874, 0.0]
['beep', 0.0, 649.7205078268657, 0.0, 0.0, 0.0, 0.0, -2462.91636978583, 0.0]
['beep', 0.0, 647.9323682704411, 0.0, 0.0, 0.0, 0.0, -2462.782259319098, 0.0]
['beep', 0.0, 647.7312025703434, 0.0, 0.0, 0.0, 0.0, -2461.508209885146, 0.0]
['beep', 0.0, 647.7535543147986, 0.0, 0.0, 0.0, 0.0, -2461.0835267404946, 0.0]
['beep', 0.0, 647.8876647815305, 0.0, 0.0, 0.0, 0.0, -2461.7764308186092, 0.0]
['beep', 0.0, 648.1111822260835, 0.0, 0.0, 0.0, 0.0, -2462.8940180413747, 0.0]
['beep', 0.0, 649.0499554932065, 0.0, 0.0, 0.0, 0.0, -2461.7317273296985, 0.0]
['beep', 0.0, 648.4911618818238, 0.0, 0.0, 0.0, 0.0, -2463.877494797408, 0.0]
['beep', 0.0, 648.6252723485557, 0.0, 0.0, 0.0, 0.0, -2464.5703988755226, 0.0]
['beep', 0.0, 650.1898944604271, 0.0, 0.0, 0.0, 0.0, -2463.0951837414723, 0.0]
['beep', 0.0, 649.7652113157764, 0.0, 0.0, 0.0, 0.0, -2463.1845907192937, 0.0]
['beep', 0.0, 649.9216735269634, 0.0, 0.0, 0.0, 0.0, -2464.2798261976036, 0.0]
['beep', 0.0, 649.4075834044914, 0.0, 0.0, 0.0, 0.0, -2465.1962477202715, 0.0]
['beep', 0.0, 648.5582171151897, 0.0, 0.0, 0.0, 0.0, -2465.3080064425476, 0.0]
['beep', 0.0, 649.8769700380528, 0.0, 0.0, 0.0, 0.0, -2464.883323297897, 0.0]
['beep', 0.0, 649.809914804687, 0.0, 0.0, 0.0, 0.0, -2466.2244279652155, 0.0]
['beep', 0.0, 649.0276037487512, 0.0, 0.0, 0.0, 0.0, -2465.419765164824, 0.0]
['beep', 0.0, 648.2676444372707, 0.0, 0.0, 0.0, 0.0, -2465.5762273760115, 0.0]
['beep', 0.0, 649.6087491045892, 0.0, 0.0, 0.0, 0.0, -2467.4984773991678, 0.0]
['beep', 0.0, 652.581531117145, 0.0, 0.0, 0.0, 0.0, -2466.3138349430365, 0.0]
['beep', 0.0, 653.1850282174383, 0.0, 0.0, 0.0, 0.0, -2465.10684074245, 0.0]
['beep', 0.0, 652.9168072839747, 0.0, 0.0, 0.0, 0.0, -2464.7715645756202, 0.0]
['beep', 0.0, 651.5086473832903, 0.0, 0.0, 0.0, 0.0, -2462.9834250191957, 0.0]
['beep', 0.0, 652.9615107728853, 0.0, 0.0, 0.0, 0.0, -2462.826962808009, 0.0]
['beep', 0.0, 652.1791997169495, 0.0, 0.0, 0.0, 0.0, -2464.9056750423524, 0.0]
['beep', 0.0, 650.2122462048825, 0.0, 0.0, 0.0, 0.0, -2465.5762273760115, 0.0]
['beep', 0.0, 650.0781357381506, 0.0, 0.0, 0.0, 0.0, -2464.7715645756202, 0.0]
['beep', 0.0, 649.3405281711255, 0.0, 0.0, 0.0, 0.0, -2466.358538431947, 0.0]
['beep', 0.0, 648.7370310708321, 0.0, 0.0, 0.0, 0.0, -2467.096145998972, 0.0]
['beep', 0.0, 648.8264380486534, 0.0, 0.0, 0.0, 0.0, -2466.783221576598, 0.0]
['beep', 0.0, 649.3852316600361, 0.0, 0.0, 0.0, 0.0, -2468.4148989218356, 0.0]
['beep', 0.0, 650.2793014382484, 0.0, 0.0, 0.0, 0.0, -2468.370195432925, 0.0]
['beep', 0.0, 650.614577605078, 0.0, 0.0, 0.0, 0.0, -2468.683119855299, 0.0]
['beep', 0.0, 650.1228392270613, 0.0, 0.0, 0.0, 0.0, -2469.241913466682, 0.0]
['beep', 0.0, 651.4639438943797, 0.0, 0.0, 0.0, 0.0, -2468.683119855299, 0.0]
['beep', 0.0, 650.9722055163629, 0.0, 0.0, 0.0, 0.0, -2469.1525064888606, 0.0]
['beep', 0.0, 649.6087491045892, 0.0, 0.0, 0.0, 0.0, -2469.666596611333, 0.0]
['beep', 0.0, 650.4134119049802, 0.0, 0.0, 0.0, 0.0, -2468.9960442776733, 0.0]
['beep', 0.0, 651.3968886610137, 0.0, 0.0, 0.0, 0.0, -2469.957169289252, 0.0]
['beep', 0.0, 651.1063159830948, 0.0, 0.0, 0.0, 0.0, -2469.8677623114304, 0.0]
['beep', 0.0, 650.4581153938908, 0.0, 0.0, 0.0, 0.0, -2469.9348175447963, 0.0]
['beep', 0.0, 649.3628799155808, 0.0, 0.0, 0.0, 0.0, -2469.0854512554947, 0.0]
['beep', 0.0, 649.5640456156785, 0.0, 0.0, 0.0, 0.0, -2469.5771896335114, 0.0]
['beep', 0.0, 649.5863973601339, 0.0, 0.0, 0.0, 0.0, -2470.046576267073, 0.0]
['beep', 0.0, 650.7263363273545, 0.0, 0.0, 0.0, 0.0, -2470.1359832448943, 0.0]
['beep', 0.0, 651.5757026166561, 0.0, 0.0, 0.0, 0.0, -2470.91829430083, 0.0]
['beep', 0.0, 650.5028188828014, 0.0, 0.0, 0.0, 0.0, -2470.985349534196, 0.0]
['beep', 0.0, 649.3852316600361, 0.0, 0.0, 0.0, 0.0, -2472.818192579531, 0.0]
['beep', 0.0, 651.2851299387372, 0.0, 0.0, 0.0, 0.0, -2471.4994396566676, 0.0]
['beep', 0.0, 652.4027171615026, 0.0, 0.0, 0.0, 0.0, -2471.0300530231066, 0.0]
['beep', 0.0, 651.1063159830948, 0.0, 0.0, 0.0, 0.0, -2470.046576267073, 0.0]
['beep', 0.0, 651.4415921499243, 0.0, 0.0, 0.0, 0.0, -2470.270093711626, 0.0]
['beep', 0.0, 650.5251706272568, 0.0, 0.0, 0.0, 0.0, -2471.588846634489, 0.0]
['beep', 0.0, 652.4697723948684, 0.0, 0.0, 0.0, 0.0, -2471.5441431455783, 0.0]
['beep', 0.0, 653.6320631065445, 0.0, 0.0, 0.0, 0.0, -2470.583018134, 0.0]
['beep', 0.0, 652.514475883779, 0.0, 0.0, 0.0, 0.0, -2470.337148944992, 0.0]
['beep', 0.0, 652.3580136725919, 0.0, 0.0, 0.0, 0.0, -2470.8959425563744, 0.0]
['beep', 0.0, 651.419240405469, 0.0, 0.0, 0.0, 0.0, -2470.694776856277, 0.0]
['beep', 0.0, 652.0450892502176, 0.0, 0.0, 0.0, 0.0, -2470.4489076672685, 0.0]
['beep', 0.0, 652.3133101836813, 0.0, 0.0, 0.0, 0.0, -2472.3488059459696, 0.0]
['beep', 0.0, 652.000385761307, 0.0, 0.0, 0.0, 0.0, -2472.3711576904248, 0.0]
['beep', 0.0, 651.9556822723964, 0.0, 0.0, 0.0, 0.0, -2472.594675134978, 0.0]
['beep', 0.0, 652.6038828616003, 0.0, 0.0, 0.0, 0.0, -2470.851239067464, 0.0]
['beep', 0.0, 651.7545165722986, 0.0, 0.0, 0.0, 0.0, -2471.1865152342934, 0.0]
['beep', 0.0, 652.1121444835835, 0.0, 0.0, 0.0, 0.0, -2471.7006053567657, 0.0]
['beep', 0.0, 653.2967869397148, 0.0, 0.0, 0.0, 0.0, -2471.8570675679525, 0.0]
['beep', 0.0, 652.8497520506087, 0.0, 0.0, 0.0, 0.0, -2472.885247812897, 0.0]
['beep', 0.0, 650.5922258606226, 0.0, 0.0, 0.0, 0.0, -2472.4158611793355, 0.0]
['beep', 0.0, 651.7992200612092, 0.0, 0.0, 0.0, 0.0, -2473.0864135129946, 0.0]
['beep', 0.0, 652.0897927391283, 0.0, 0.0, 0.0, 0.0, -2473.4216896798243, 0.0]
['beep', 0.0, 652.5368276282344, 0.0, 0.0, 0.0, 0.0, -2472.3711576904248, 0.0]
['beep', 0.0, 651.419240405469, 0.0, 0.0, 0.0, 0.0, -2470.3147972005368, 0.0]
['beep', 0.0, 652.000385761307, 0.0, 0.0, 0.0, 0.0, -2469.8454105669753, 0.0]
['beep', 0.0, 651.9780340168517, 0.0, 0.0, 0.0, 0.0, -2471.4323844233018, 0.0]
['beep', 0.0, 653.6544148509997, 0.0, 0.0, 0.0, 0.0, -2472.7511373461653, 0.0]
['beep', 0.0, 653.9449875289188, 0.0, 0.0, 0.0, 0.0, -2473.3546344464585, 0.0]
['beep', 0.0, 652.4474206504132, 0.0, 0.0, 0.0, 0.0, -2473.0193582796287, 0.0]
['beep', 0.0, 653.0062142617959, 0.0, 0.0, 0.0, 0.0, -2473.7569658466537, 0.0]
['beep', 0.0, 654.1908567179271, 0.0, 0.0, 0.0, 0.0, -2473.041710024084, 0.0]
['beep', 0.0, 654.1908567179271, 0.0, 0.0, 0.0, 0.0, -2471.3429774454808, 0.0]
['beep', 0.0, 655.0402230072287, 0.0, 0.0, 0.0, 0.0, -2471.365329189936, 0.0]
['beep', 0.0, 654.7720020737651, 0.0, 0.0, 0.0, 0.0, -2471.7006053567657, 0.0]
['beep', 0.0, 653.4756008953573, 0.0, 0.0, 0.0, 0.0, -2470.359500689447, 0.0]
['beep', 0.0, 654.4143741624802, 0.0, 0.0, 0.0, 0.0, -2472.4158611793355, 0.0]
['beep', 0.0, 654.4367259069355, 0.0, 0.0, 0.0, 0.0, -2473.7122623577434, 0.0]
['beep', 0.0, 654.3249671846589, 0.0, 0.0, 0.0, 0.0, -2473.846372824475, 0.0]
['beep', 0.0, 655.2190369628712, 0.0, 0.0, 0.0, 0.0, -2472.237047223693, 0.0]
['beep', 0.0, 654.3920224180249, 0.0, 0.0, 0.0, 0.0, -2472.460564668246, 0.0]
['beep', 0.0, 653.8779322955528, 0.0, 0.0, 0.0, 0.0, -2472.907599557352, 0.0]
['beep', 0.0, 655.3084439406924, 0.0, 0.0, 0.0, 0.0, -2473.3099309575477, 0.0]
['beep', 0.0, 654.0790979956506, 0.0, 0.0, 0.0, 0.0, -2472.885247812897, 0.0]
['beep', 0.0, 652.8497520506087, 0.0, 0.0, 0.0, 0.0, -2471.1641634898383, 0.0]
['beep', 0.0, 652.581531117145, 0.0, 0.0, 0.0, 0.0, -2472.7064338572545, 0.0]
['beep', 0.0, 652.7603450727875, 0.0, 0.0, 0.0, 0.0, -2474.516925158134, 0.0]
['beep', 0.0, 654.4143741624802, 0.0, 0.0, 0.0, 0.0, -2474.0251867801176, 0.0]
['beep', 0.0, 654.6378916070332, 0.0, 0.0, 0.0, 0.0, -2473.7346141021985, 0.0]
['beep', 0.0, 654.6378916070332, 0.0, 0.0, 0.0, 0.0, -2473.622855379922, 0.0]
['beep', 0.0, 654.2355602068377, 0.0, 0.0, 0.0, 0.0, -2472.7958408350755, 0.0]
['beep', 0.0, 654.4814293958461, 0.0, 0.0, 0.0, 0.0, -2472.527619901612, 0.0]
['beep', 0.0, 655.6213683630667, 0.0, 0.0, 0.0, 0.0, -2472.661730368344, 0.0]
['beep', 0.0, 653.9226357844634, 0.0, 0.0, 0.0, 0.0, -2471.8570675679525, 0.0]
['beep', 0.0, 653.9226357844634, 0.0, 0.0, 0.0, 0.0, -2472.8628960684414, 0.0]
['beep', 0.0, 653.9896910178294, 0.0, 0.0, 0.0, 0.0, -2473.8687245689302, 0.0]
['beep', 0.0, 654.7049468403992, 0.0, 0.0, 0.0, 0.0, -2473.041710024084, 0.0]
['beep', 0.0, 655.3754991740584, 0.0, 0.0, 0.0, 0.0, -2473.198172235271, 0.0]
['beep', 0.0, 654.6602433514886, 0.0, 0.0, 0.0, 0.0, -2473.332282702003, 0.0]
['beep', 0.0, 653.453249150902, 0.0, 0.0, 0.0, 0.0, -2473.0864135129946, 0.0]
['beep', 0.0, 653.5426561287233, 0.0, 0.0, 0.0, 0.0, -2473.041710024084, 0.0]
['beep', 0.0, 652.9615107728853, 0.0, 0.0, 0.0, 0.0, -2473.7569658466537, 0.0]
['beep', 0.0, 653.7661735732763, 0.0, 0.0, 0.0, 0.0, -2472.460564668246, 0.0]
['beep', 0.0, 653.2967869397148, 0.0, 0.0, 0.0, 0.0, -2471.7453088456764, 0.0]
['beep', 0.0, 653.2967869397148, 0.0, 0.0, 0.0, 0.0, -2472.9299513018077, 0.0]
['beep', 0.0, 654.2579119512931, 0.0, 0.0, 0.0, 0.0, -2472.3488059459696, 0.0]
['beep', 0.0, 654.9284642849523, 0.0, 0.0, 0.0, 0.0, -2472.6393786238887, 0.0]
['beep', 0.0, 655.6437201075221, 0.0, 0.0, 0.0, 0.0, -2473.10876525745, 0.0]
['beep', 0.0, 654.8614090515863, 0.0, 0.0, 0.0, 0.0, -2473.48874491319, 0.0]
['beep', 0.0, 654.615539862578, 0.0, 0.0, 0.0, 0.0, -2471.588846634489, 0.0]
['beep', 0.0, 654.2579119512931, 0.0, 0.0, 0.0, 0.0, -2471.0971082564724, 0.0]
['beep', 0.0, 655.196685218416, 0.0, 0.0, 0.0, 0.0, -2473.7122623577434, 0.0]
['beep', 0.0, 655.710775340888, 0.0, 0.0, 0.0, 0.0, -2473.48874491319, 0.0]
['beep', 0.0, 655.5990166186115, 0.0, 0.0, 0.0, 0.0, -2473.891076313386, 0.0]
['beep', 0.0, 654.615539862578, 0.0, 0.0, 0.0, 0.0, -2472.549971646067, 0.0]
['beep', 0.0, 654.8837607960417, 0.0, 0.0, 0.0, 0.0, -2473.1311170019053, 0.0]
['beep', 0.0, 656.8283625636534, 0.0, 0.0, 0.0, 0.0, -2473.332282702003, 0.0]
['beep', 0.0, 657.8341910641421, 0.0, 0.0, 0.0, 0.0, -2471.8570675679525, 0.0]
['beep', 0.0, 656.2248654633601, 0.0, 0.0, 0.0, 0.0, -2472.572323390523, 0.0]
['beep', 0.0, 655.7778305742539, 0.0, 0.0, 0.0, 0.0, -2472.1923437347823, 0.0]
['beep', 0.0, 656.6942520969214, 0.0, 0.0, 0.0, 0.0, -2473.1534687463604, 0.0]
['beep', 0.0, 656.7389555858321, 0.0, 0.0, 0.0, 0.0, -2475.433346680802, 0.0]
['beep', 0.0, 656.5377898857344, 0.0, 0.0, 0.0, 0.0, -2475.433346680802, 0.0]
['beep', 0.0, 656.9624730303852, 0.0, 0.0, 0.0, 0.0, -2473.4440414242795, 0.0]
['beep', 0.0, 656.8283625636534, 0.0, 0.0, 0.0, 0.0, -2474.427518180313, 0.0]
['beep', 0.0, 656.1354584855388, 0.0, 0.0, 0.0, 0.0, -2474.226352480215, 0.0]
['beep', 0.0, 656.0684032521729, 0.0, 0.0, 0.0, 0.0, -2474.5839803915, 0.0]
['beep', 0.0, 656.7613073302874, 0.0, 0.0, 0.0, 0.0, -2474.6957391137767, 0.0]
['beep', 0.0, 657.0295282637511, 0.0, 0.0, 0.0, 0.0, -2473.7346141021985, 0.0]
['beep', 0.0, 655.5990166186115, 0.0, 0.0, 0.0, 0.0, -2474.3604629469473, 0.0]
['beep', 0.0, 654.1908567179271, 0.0, 0.0, 0.0, 0.0, -2474.226352480215, 0.0]
['beep', 0.0, 657.7671358307763, 0.0, 0.0, 0.0, 0.0, -2474.1592972468493, 0.0]
['beep', 0.0, 658.1024119976058, 0.0, 0.0, 0.0, 0.0, -2474.0251867801176, 0.0]
['beep', 0.0, 658.3929846755249, 0.0, 0.0, 0.0, 0.0, -2473.600503635467, 0.0]
['beep', 0.0, 657.8788945530528, 0.0, 0.0, 0.0, 0.0, -2473.175820490816, 0.0]
['beep', 0.0, 658.4376881644355, 0.0, 0.0, 0.0, 0.0, -2472.0805850125057, 0.0]
['beep', 0.0, 658.7282608423544, 0.0, 0.0, 0.0, 0.0, -2473.198172235271, 0.0]
['beep', 0.0, 659.3317579426478, 0.0, 0.0, 0.0, 0.0, -2473.913428057841, 0.0]
['beep', 0.0, 658.9070747979969, 0.0, 0.0, 0.0, 0.0, -2473.578151891011, 0.0]
['beep', 0.0, 659.2423509648265, 0.0, 0.0, 0.0, 0.0, -2473.466393168735, 0.0]
['beep', 0.0, 657.8565428085975, 0.0, 0.0, 0.0, 0.0, -2473.600503635467, 0.0]
['beep', 0.0, 658.5047433978013, 0.0, 0.0, 0.0, 0.0, -2474.494573413679, 0.0]
['beep', 0.0, 658.7282608423544, 0.0, 0.0, 0.0, 0.0, -2473.600503635467, 0.0]
['beep', 0.0, 658.7953160757204, 0.0, 0.0, 0.0, 0.0, -2475.7239193587207, 0.0]
['beep', 0.0, 657.4095079194914, 0.0, 0.0, 0.0, 0.0, -2475.209829236249, 0.0]
['beep', 0.0, 658.2365224643377, 0.0, 0.0, 0.0, 0.0, -2475.7686228476314, 0.0]
['beep', 0.0, 658.5941503756226, 0.0, 0.0, 0.0, 0.0, -2474.3381112024917, 0.0]
['beep', 0.0, 658.6835573534438, 0.0, 0.0, 0.0, 0.0, -2474.0251867801176, 0.0]
['beep', 0.0, 658.8847230535416, 0.0, 0.0, 0.0, 0.0, -2474.2487042246707, 0.0]
['beep', 0.0, 658.9070747979969, 0.0, 0.0, 0.0, 0.0, -2473.3993379353687, 0.0]
['beep', 0.0, 658.3259294421589, 0.0, 0.0, 0.0, 0.0, -2473.8687245689302, 0.0]
['beep', 0.0, 658.9741300313628, 0.0, 0.0, 0.0, 0.0, -2473.198172235271, 0.0]
['beep', 0.0, 660.5611038876896, 0.0, 0.0, 0.0, 0.0, -2476.3274164590143, 0.0]
['beep', 0.0, 659.5776271316561, 0.0, 0.0, 0.0, 0.0, -2516.918184389852, 0.0]
['beep', 0.0, 658.840019564631, 0.0, 0.0, 0.0, 0.0, -2548.6576615163876, 0.0]
['beep', 0.0, 658.9517782869075, 0.0, 0.0, 0.0, 0.0, -2550.1552283948936, 0.0]
['beep', 0.0, 659.354109687103, 0.0, 0.0, 0.0, 0.0, -2550.5575597950888, 0.0]
['beep', 0.0, 665.3220254566701, 0.0, 0.0, 0.0, 0.0, -2551.3398708510244, 0.0]
['beep', 0.0, 722.028401139784, 0.0, 0.0, 0.0, 0.0, -2550.490504561723, 0.0]
['beep', 0.0, 756.0477562007613, 0.0, 0.0, 0.0, 0.0, -2550.065821417072, 0.0]
['beep', 0.0, 756.5618463232335, 0.0, 0.0, 0.0, 0.0, -2550.356394094991, 0.0]
['beep', 0.0, 756.8077155122419, 0.0, 0.0, 0.0, 0.0, -2549.819952228064, 0.0]
['beep', 0.0, 758.7970207687641, 0.0, 0.0, 0.0, 0.0, -2550.9822429397395, 0.0]
['beep', 0.0, 758.1041166906497, 0.0, 0.0, 0.0, 0.0, -2550.8257807285527, 0.0]
['beep', 0.0, 757.7241370349094, 0.0, 0.0, 0.0, 0.0, -2549.685841761332, 0.0]
['beep', 0.0, 758.5511515797558, 0.0, 0.0, 0.0, 0.0, -2550.065821417072, 0.0]
['beep', 0.0, 759.3558143801469, 0.0, 0.0, 0.0, 0.0, -2550.1775801393487, 0.0]
['beep', 0.0, 759.3558143801469, 0.0, 0.0, 0.0, 0.0, -2550.803428984097, 0.0]
['beep', 0.0, 758.8640760021301, 0.0, 0.0, 0.0, 0.0, -2551.2728156176586, 0.0]
['beep', 0.0, 758.998186468862, 0.0, 0.0, 0.0, 0.0, -2549.462324316779, 0.0]
['beep', 0.0, 746.7494305073536, 0.0, 0.0, 0.0, 0.0, -2548.6576615163876, 0.0]
['beep', 0.0, 682.3764064760693, 0.0, 0.0, 0.0, 0.0, -2550.6246150284546, 0.0]
['beep', 0.0, 664.807935334198, 0.0, 0.0, 0.0, 0.0, -2552.1445336514157, 0.0]
['beep', 0.0, 716.1722440924935, 0.0, 0.0, 0.0, 0.0, -2550.6022632839995, 0.0]
['beep', 0.0, 757.1206399346162, 0.0, 0.0, 0.0, 0.0, -2550.0881731615273, 0.0]
['beep', 0.0, 758.0147097128284, 0.0, 0.0, 0.0, 0.0, -2549.484676061234, 0.0]
['beep', 0.0, 758.0147097128284, 0.0, 0.0, 0.0, 0.0, -2549.685841761332, 0.0]
['beep', 0.0, 758.4840963463898, 0.0, 0.0, 0.0, 0.0, -2551.429277828846, 0.0]
['beep', 0.0, 758.931131235496, 0.0, 0.0, 0.0, 0.0, -2552.368051095969, 0.0]
['beep', 0.0, 758.5958550686664, 0.0, 0.0, 0.0, 0.0, -2552.0551266735947, 0.0]
['beep', 0.0, 759.1993521689596, 0.0, 0.0, 0.0, 0.0, -2551.2504638732034, 0.0]
['beep', 0.0, 759.6910905469764, 0.0, 0.0, 0.0, 0.0, -2551.4739813177566, 0.0]
['beep', 0.0, 760.8086777697418, 0.0, 0.0, 0.0, 0.0, -2552.2115888847816, 0.0]
['beep', 0.0, 760.4734016029122, 0.0, 0.0, 0.0, 0.0, -2552.3456993515133, 0.0]
['beep', 0.0, 759.9369597359848, 0.0, 0.0, 0.0, 0.0, -2551.36222259548, 0.0]
['beep', 0.0, 752.5608840657335, 0.0, 0.0, 0.0, 0.0, -2551.8316092290415, 0.0]
['beep', 0.0, 691.8311943806642, 0.0, 0.0, 0.0, 0.0, -2552.2115888847816, 0.0]
['beep', 0.0, 665.6573016234996, 0.0, 0.0, 0.0, 0.0, -2552.323347607058, 0.0]
['beep', 0.0, 714.2052905804265, 0.0, 0.0, 0.0, 0.0, -2552.658623773888, 0.0]
['beep', 0.0, 758.2605789018368, 0.0, 0.0, 0.0, 0.0, -2551.451629573301, 0.0]
['beep', 0.0, 760.1604771805379, 0.0, 0.0, 0.0, 0.0, -2552.300995862603, 0.0]
['beep', 0.0, 760.3169393917251, 0.0, 0.0, 0.0, 0.0, -2553.8879697189295, 0.0]
['beep', 0.0, 762.6862243039876, 0.0, 0.0, 0.0, 0.0, -2552.9044929628963, 0.0]
['beep', 0.0, 763.2673696598256, 0.0, 0.0, 0.0, 0.0, -2552.2562923736923, 0.0]
['beep', 0.0, 762.574465581711, 0.0, 0.0, 0.0, 0.0, -2551.4963330622118, 0.0]
['beep', 0.0, 763.0215004708172, 0.0, 0.0, 0.0, 0.0, -2551.7645539956757, 0.0]
['beep', 0.0, 764.6308260715994, 0.0, 0.0, 0.0, 0.0, -2551.6080917844884, 0.0]
['beep', 0.0, 763.3791283821021, 0.0, 0.0, 0.0, 0.0, -2552.0551266735947, 0.0]
['beep', 0.0, 761.9262649925072, 0.0, 0.0, 0.0, 0.0, -2553.1280104074494, 0.0]
['beep', 0.0, 760.6522155585546, 0.0, 0.0, 0.0, 0.0, -2552.680975518343, 0.0]
['beep', 0.0, 747.5987967966553, 0.0, 0.0, 0.0, 0.0, -2552.45745807379, 0.0]
['beep', 0.0, 683.1140140430945, 0.0, 0.0, 0.0, 0.0, -2551.4739813177566, 0.0]
['beep', 0.0, 662.8856853110416, 0.0, 0.0, 0.0, 0.0, -2552.9268447073514, 0.0]
['beep', 0.0, 710.2937353007478, 0.0, 0.0, 0.0, 0.0, -2554.1114871634827, 0.0]
['beep', 0.0, 757.2323986568927, 0.0, 0.0, 0.0, 0.0, -2552.5021615627006, 0.0]
['beep', 0.0, 758.4617446019346, 0.0, 0.0, 0.0, 0.0, -2552.1892371403264, 0.0]
['beep', 0.0, 759.1993521689596, 0.0, 0.0, 0.0, 0.0, -2552.166885395871, 0.0]
['beep', 0.0, 760.7863260252865, 0.0, 0.0, 0.0, 0.0, -2552.5245133071558, 0.0]
['beep', 0.0, 760.1604771805379, 0.0, 0.0, 0.0, 0.0, -2553.105658662994, 0.0]
['beep', 0.0, 758.931131235496, 0.0, 0.0, 0.0, 0.0, -2553.2844726186363, 0.0]
['beep', 0.0, 772.0516052307612, 0.0, 0.0, 0.0, 0.0, -2559.207684899293, 0.0]
['beep', 0.0, 775.2255529434149, 0.0, 0.0, 0.0, 0.0, -2559.140629665927, 0.0]
['beep', 0.0, 774.6667593320321, 0.0, 0.0, 0.0, 0.0, -2560.593493055522, 0.0]
['beep', 0.0, 775.4937738768785, 0.0, 0.0, 0.0, 0.0, -2560.258216888692, 0.0]
['beep', 0.0, 776.7231198219205, 0.0, 0.0, 0.0, 0.0, -2560.392327355424, 0.0]
['beep', 0.0, 775.4267186435126, 0.0, 0.0, 0.0, 0.0, -2560.7052517777984, 0.0]
['beep', 0.0, 776.1196227216271, 0.0, 0.0, 0.0, 0.0, -2561.0852314335384, 0.0]
['beep', 0.0, 775.2479046878701, 0.0, 0.0, 0.0, 0.0, -2561.420507600368, 0.0]
['beep', 0.0, 775.6502360880656, 0.0, 0.0, 0.0, 0.0, -2561.465211089279, 0.0]
['beep', 0.0, 776.5219541218227, 0.0, 0.0, 0.0, 0.0, -2562.448687845312, 0.0]
['beep', 0.0, 776.4548988884568, 0.0, 0.0, 0.0, 0.0, -2562.0910599340273, 0.0]
['beep', 0.0, 776.4548988884568, 0.0, 0.0, 0.0, 0.0, -2560.4370308443345, 0.0]
['beep', 0.0, 776.3878436550908, 0.0, 0.0, 0.0, 0.0, -2560.3252721220583, 0.0]
['beep', 0.0, 778.0195210003283, 0.0, 0.0, 0.0, 0.0, -2562.0463564451165, 0.0]
['beep', 0.0, 778.7571285673533, 0.0, 0.0, 0.0, 0.0, -2561.7334320227424, 0.0]
['beep', 0.0, 776.6784163330099, 0.0, 0.0, 0.0, 0.0, -2560.6605482888876, 0.0]
['beep', 0.0, 772.8786197756076, 0.0, 0.0, 0.0, 0.0, -2560.3699756109686, 0.0]
['beep', 0.0, 721.447255783946, 0.0, 0.0, 0.0, 0.0, -2560.504086077701, 0.0]
['beep', 0.0, 682.354054731614, 0.0, 0.0, 0.0, 0.0, -2560.481734333245, 0.0]
['beep', 0.0, 724.0400581407616, 0.0, 0.0, 0.0, 0.0, -2560.548789566611, 0.0]
['beep', 0.0, 775.5161256213338, 0.0, 0.0, 0.0, 0.0, -2560.2135133997817, 0.0]
['beep', 0.0, 777.6618930890434, 0.0, 0.0, 0.0, 0.0, -2560.3476238665135, 0.0]
['beep', 0.0, 778.8241838007193, 0.0, 0.0, 0.0, 0.0, -2560.8617139889857, 0.0]
['beep', 0.0, 778.8241838007193, 0.0, 0.0, 0.0, 0.0, -2560.973472711262, 0.0]
['beep', 0.0, 778.6900733339875, 0.0, 0.0, 0.0, 0.0, -2560.392327355424, 0.0]
['beep', 0.0, 778.4218524005238, 0.0, 0.0, 0.0, 0.0, -2561.196990155815, 0.0]
['beep', 0.0, 778.6230181006215, 0.0, 0.0, 0.0, 0.0, -2560.0123476996837, 0.0]
['beep', 0.0, 779.5170878788338, 0.0, 0.0, 0.0, 0.0, -2559.788830255131, 0.0]
['beep', 0.0, 780.2770471903143, 0.0, 0.0, 0.0, 0.0, -2559.9676442107734, 0.0]
['beep', 0.0, 780.8805442906075, 0.0, 0.0, 0.0, 0.0, -2561.129934922449, 0.0]
['beep', 0.0, 778.6230181006215, 0.0, 0.0, 0.0, 0.0, -2561.129934922449, 0.0]
['beep', 0.0, 778.6453698450769, 0.0, 0.0, 0.0, 0.0, -2561.107583177994, 0.0]
['beep', 0.0, 780.1429367235824, 0.0, 0.0, 0.0, 0.0, -2561.196990155815, 0.0]
['beep', 0.0, 779.5394396232891, 0.0, 0.0, 0.0, 0.0, -2561.487562833734, 0.0]
['beep', 0.0, 779.3606256676467, 0.0, 0.0, 0.0, 0.0, -2560.7052517777984, 0.0]
['beep', 0.0, 780.4111576570461, 0.0, 0.0, 0.0, 0.0, -2559.7441267662202, 0.0]
['beep', 0.0, 775.091442476683, 0.0, 0.0, 0.0, 0.0, -2560.593493055522, 0.0]
['beep', 0.0, 719.4132470385131, 0.0, 0.0, 0.0, 0.0, -2561.264045389181, 0.0]
['beep', 0.0, 684.8350983661531, 0.0, 0.0, 0.0, 0.0, -2561.398155855913, 0.0]
['beep', 0.0, 723.771837207298, 0.0, 0.0, 0.0, 0.0, -2560.593493055522, 0.0]
['beep', 0.0, 775.2032011989595, 0.0, 0.0, 0.0, 0.0, -2560.906417477896, 0.0]
['beep', 0.0, 779.2041634564595, 0.0, 0.0, 0.0, 0.0, -2560.817010500075, 0.0]
['beep', 0.0, 780.0535297457611, 0.0, 0.0, 0.0, 0.0, -2561.6440250449214, 0.0]
['beep', 0.0, 779.6959018344762, 0.0, 0.0, 0.0, 0.0, -2561.845190745019, 0.0]
['beep', 0.0, 779.6511983455656, 0.0, 0.0, 0.0, 0.0, -2561.2193419002706, 0.0]
['beep', 0.0, 779.8300123012081, 0.0, 0.0, 0.0, 0.0, -2559.9229407218627, 0.0]
['beep', 0.0, 779.6959018344762, 0.0, 0.0, 0.0, 0.0, -2561.0852314335384, 0.0]
['beep', 0.0, 779.1594599675489, 0.0, 0.0, 0.0, 0.0, -2562.3816326119463, 0.0]
['beep', 0.0, 780.5005646348674, 0.0, 0.0, 0.0, 0.0, -2562.783964012142, 0.0]
['beep', 0.0, 780.9475995239735, 0.0, 0.0, 0.0, 0.0, -2562.0910599340273, 0.0]
['beep', 0.0, 779.3382739231913, 0.0, 0.0, 0.0, 0.0, -2561.4428593448233, 0.0]
['beep', 0.0, 780.2993989347696, 0.0, 0.0, 0.0, 0.0, -2562.448687845312, 0.0]
['beep', 0.0, 781.4169861575349, 0.0, 0.0, 0.0, 0.0, -2561.5546180671, 0.0]
['beep', 0.0, 780.3664541681355, 0.0, 0.0, 0.0, 0.0, -2561.9793012117507, 0.0]
['beep', 0.0, 780.5899716126886, 0.0, 0.0, 0.0, 0.0, -2561.778135511653, 0.0]
['beep', 0.0, 780.5899716126886, 0.0, 0.0, 0.0, 0.0, -2561.2193419002706, 0.0]
['beep', 0.0, 777.4830791334009, 0.0, 0.0, 0.0, 0.0, -2560.973472711262, 0.0]
['beep', 0.0, 733.7183634899096, 0.0, 0.0, 0.0, 0.0, -2561.0181762001725, 0.0]
['beep', 0.0, 685.483298955357, 0.0, 0.0, 0.0, 0.0, -2560.749955266709, 0.0]
['beep', 0.0, 717.4686452709014, 0.0, 0.0, 0.0, 0.0, -2560.258216888692, 0.0]
['beep', 0.0, 774.1973726984708, 0.0, 0.0, 0.0, 0.0, -2559.855885488497, 0.0]
['beep', 0.0, 780.2323437014037, 0.0, 0.0, 0.0, 0.0, -2559.207684899293, 0.0]
['beep', 0.0, 781.1040617351606, 0.0, 0.0, 0.0, 0.0, -2559.6994232773095, 0.0]
['beep', 0.0, 781.7746140688198, 0.0, 0.0, 0.0, 0.0, -2558.9841674547397, 0.0]
['beep', 0.0, 780.9252477795181, 0.0, 0.0, 0.0, 0.0, -2560.3476238665135, 0.0]
['beep', 0.0, 780.2546954458589, 0.0, 0.0, 0.0, 0.0, -2561.264045389181, 0.0]
['beep', 0.0, 779.5394396232891, 0.0, 0.0, 0.0, 0.0, -2561.3534523670023, 0.0]
['beep', 0.0, 778.9135907785405, 0.0, 0.0, 0.0, 0.0, -2561.0181762001725, 0.0]
['beep', 0.0, 781.3722826686243, 0.0, 0.0, 0.0, 0.0, -2560.9958244557174, 0.0]
['beep', 0.0, 780.2770471903143, 0.0, 0.0, 0.0, 0.0, -2561.5546180671, 0.0]
['beep', 0.0, 779.8300123012081, 0.0, 0.0, 0.0, 0.0, -2561.264045389181, 0.0]
['beep', 0.0, 779.092404734183, 0.0, 0.0, 0.0, 0.0, -2560.168809910871, 0.0]
['beep', 0.0, 780.3217506792249, 0.0, 0.0, 0.0, 0.0, -2559.7441267662202, 0.0]
['beep', 0.0, 781.1040617351606, 0.0, 0.0, 0.0, 0.0, -2559.2747401326587, 0.0]
['beep', 0.0, 781.3946344130796, 0.0, 0.0, 0.0, 0.0, -2559.542961066122, 0.0]
['beep', 0.0, 779.8523640456634, 0.0, 0.0, 0.0, 0.0, -2559.297091877114, 0.0]
['beep', 0.0, 771.5151633638338, 0.0, 0.0, 0.0, 0.0, -2558.291263376625, 0.0]
['beep', 0.0, 710.3160870452032, 0.0, 0.0, 0.0, 0.0, -2559.4312023438456, 0.0]
['beep', 0.0, 684.4104152215023, 0.0, 0.0, 0.0, 0.0, -2559.9899959552286, 0.0]
['beep', 0.0, 726.6999157309432, 0.0, 0.0, 0.0, 0.0, -2560.3252721220583, 0.0]
['beep', 0.0, 778.7124250784427, 0.0, 0.0, 0.0, 0.0, -2559.230036643748, 0.0]
['beep', 0.0, 780.3664541681355, 0.0, 0.0, 0.0, 0.0, -2559.587664555033, 0.0]
['beep', 0.0, 780.8805442906075, 0.0, 0.0, 0.0, 0.0, -2561.6887285338316, 0.0]
['beep', 0.0, 782.1098902356495, 0.0, 0.0, 0.0, 0.0, -2560.2135133997817, 0.0]
['beep', 0.0, 782.1545937245601, 0.0, 0.0, 0.0, 0.0, -2559.6323680439436, 0.0]
['beep', 0.0, 781.7075588354539, 0.0, 0.0, 0.0, 0.0, -2559.8335337440412, 0.0]
['beep', 0.0, 781.2605239463478, 0.0, 0.0, 0.0, 0.0, -2559.252388388203, 0.0]
['beep', 0.0, 781.3946344130796, 0.0, 0.0, 0.0, 0.0, -2560.45938258879, 0.0]
['beep', 0.0, 781.7299105799092, 0.0, 0.0, 0.0, 0.0, -2560.884065733441, 0.0]
['beep', 0.0, 782.0204832578282, 0.0, 0.0, 0.0, 0.0, -2561.2193419002706, 0.0]
['beep', 0.0, 780.5229163793226, 0.0, 0.0, 0.0, 0.0, -2560.6381965444325, 0.0]
['beep', 0.0, 781.0146547573394, 0.0, 0.0, 0.0, 0.0, -2559.4759058327563, 0.0]
['beep', 0.0, 782.4898698913896, 0.0, 0.0, 0.0, 0.0, -2559.565312810578, 0.0]
['beep', 0.0, 782.2887041912919, 0.0, 0.0, 0.0, 0.0, -2560.526437822156, 0.0]
['beep', 0.0, 782.6016286136662, 0.0, 0.0, 0.0, 0.0, -2561.264045389181, 0.0]
['beep', 0.0, 781.6181518576327, 0.0, 0.0, 0.0, 0.0, -2561.398155855913, 0.0]
['beep', 0.0, 773.705634320454, 0.0, 0.0, 0.0, 0.0, -2561.1522866669043, 0.0]
['beep', 0.0, 714.4735115138902, 0.0, 0.0, 0.0, 0.0, -2560.258216888692, 0.0]
['beep', 0.0, 686.5561826892117, 0.0, 0.0, 0.0, 0.0, -2559.587664555033, 0.0]
['beep', 0.0, 735.5288547907895, 0.0, 0.0, 0.0, 0.0, -2561.398155855913, 0.0]
['beep', 0.0, 780.768785568331, 0.0, 0.0, 0.0, 0.0, -2561.621673300466, 0.0]
['beep', 0.0, 780.6346751015992, 0.0, 0.0, 0.0, 0.0, -2560.7276035222535, 0.0]
['beep', 0.0, 780.8581925461523, 0.0, 0.0, 0.0, 0.0, -2560.6605482888876, 0.0]
['beep', 0.0, 783.3615879251466, 0.0, 0.0, 0.0, 0.0, -2561.5769698115555, 0.0]
['beep', 0.0, 782.4228146580238, 0.0, 0.0, 0.0, 0.0, -2559.565312810578, 0.0]
['beep', 0.0, 780.7464338238757, 0.0, 0.0, 0.0, 0.0, -2559.855885488497, 0.0]
['beep', 0.0, 781.1040617351606, 0.0, 0.0, 0.0, 0.0, -2562.1804669118487, 0.0]
['beep', 0.0, 781.0370065017947, 0.0, 0.0, 0.0, 0.0, -2562.6722052898654, 0.0]
['beep', 0.0, 782.3781111691131, 0.0, 0.0, 0.0, 0.0, -2562.158115167393, 0.0]
['beep', 0.0, 783.1604222250488, 0.0, 0.0, 0.0, 0.0, -2561.4428593448233, 0.0]
['beep', 0.0, 782.4898698913896, 0.0, 0.0, 0.0, 0.0, -2560.191161655326, 0.0]
['beep', 0.0, 783.9650850254399, 0.0, 0.0, 0.0, 0.0, -2559.542961066122, 0.0]
['beep', 0.0, 785.06032050375, 0.0, 0.0, 0.0, 0.0, -2559.6323680439436, 0.0]
['beep', 0.0, 785.6861693484985, 0.0, 0.0, 0.0, 0.0, -2560.817010500075, 0.0]
['beep', 0.0, 786.3120181932471, 0.0, 0.0, 0.0, 0.0, -2560.4146790998793, 0.0]
['beep', 0.0, 786.0214455153282, 0.0, 0.0, 0.0, 0.0, -2559.6770715328544, 0.0]
['beep', 0.0, 777.9077622780517, 0.0, 0.0, 0.0, 0.0, -2559.3641471104797, 0.0]
['beep', 0.0, 721.1119796171165, 0.0, 0.0, 0.0, 0.0, -2560.0794029330496, 0.0]
['beep', 0.0, 686.8914588560414, 0.0, 0.0, 0.0, 0.0, -2560.191161655326, 0.0]
['beep', 0.0, 729.6503459990438, 0.0, 0.0, 0.0, 0.0, -2560.6605482888876, 0.0]
['beep', 0.0, 778.9135907785405, 0.0, 0.0, 0.0, 0.0, -2561.040527944628, 0.0]
['beep', 0.0, 780.6793785905098, 0.0, 0.0, 0.0, 0.0, -2559.9229407218627, 0.0]
['beep', 0.0, 782.1322419801047, 0.0, 0.0, 0.0, 0.0, -2561.129934922449, 0.0]
['beep', 0.0, 781.6628553465433, 0.0, 0.0, 0.0, 0.0, -2562.113411678483, 0.0]
['beep', 0.0, 781.9757797689176, 0.0, 0.0, 0.0, 0.0, -2560.593493055522, 0.0]
['beep', 0.0, 782.6463321025768, 0.0, 0.0, 0.0, 0.0, -2560.168809910871, 0.0]
['beep', 0.0, 781.3722826686243, 0.0, 0.0, 0.0, 0.0, -2560.146458166416, 0.0]
['beep', 0.0, 781.05935824625, 0.0, 0.0, 0.0, 0.0, -2561.2193419002706, 0.0]
['beep', 0.0, 782.7133873359427, 0.0, 0.0, 0.0, 0.0, -2562.202818656304, 0.0]
['beep', 0.0, 782.8251460582193, 0.0, 0.0, 0.0, 0.0, -2560.817010500075, 0.0]
['beep', 0.0, 781.0817099907053, 0.0, 0.0, 0.0, 0.0, -2560.7946587556194, 0.0]
['beep', 0.0, 781.0370065017947, 0.0, 0.0, 0.0, 0.0, -2560.9287692223515, 0.0]
['beep', 0.0, 781.640503602088, 0.0, 0.0, 0.0, 0.0, -2560.906417477896, 0.0]
['beep', 0.0, 783.8756780476186, 0.0, 0.0, 0.0, 0.0, -2560.146458166416, 0.0]
['beep', 0.0, 783.093366991683, 0.0, 0.0, 0.0, 0.0, -2560.884065733441, 0.0]
['beep', 0.0, 783.5627536252443, 0.0, 0.0, 0.0, 0.0, -2561.778135511653, 0.0]
['beep', 0.0, 782.7804425693087, 0.0, 0.0, 0.0, 0.0, -2560.235865144237, 0.0]
['beep', 0.0, 759.4228696135127, 0.0, 0.0, 0.0, 0.0, -2559.2747401326587, 0.0]
['beep', 0.0, 697.2403165388486, 0.0, 0.0, 0.0, 0.0, -2559.230036643748, 0.0]
['beep', 0.0, 714.8311394251751, 0.0, 0.0, 0.0, 0.0, -2559.9899959552286, 0.0]
['beep', 0.0, 776.3431401661802, 0.0, 0.0, 0.0, 0.0, -2560.526437822156, 0.0]
['beep', 0.0, 783.8533263031634, 0.0, 0.0, 0.0, 0.0, -2560.2135133997817, 0.0]
['beep', 0.0, 784.0768437477165, 0.0, 0.0, 0.0, 0.0, -2560.749955266709, 0.0]
['beep', 0.0, 785.06032050375, 0.0, 0.0, 0.0, 0.0, -2559.9899959552286, 0.0]
['beep', 0.0, 785.2391344593924, 0.0, 0.0, 0.0, 0.0, -2560.2135133997817, 0.0]
['beep', 0.0, 784.0321402588058, 0.0, 0.0, 0.0, 0.0, -2559.9899959552286, 0.0]
['beep', 0.0, 784.2333059589037, 0.0, 0.0, 0.0, 0.0, -2560.146458166416, 0.0]
['beep', 0.0, 784.6803408480098, 0.0, 0.0, 0.0, 0.0, -2561.040527944628, 0.0]
['beep', 0.0, 785.5744106262221, 0.0, 0.0, 0.0, 0.0, -2561.5993215560106, 0.0]
['beep', 0.0, 786.0214455153282, 0.0, 0.0, 0.0, 0.0, -2561.196990155815, 0.0]
['beep', 0.0, 785.5967623706773, 0.0, 0.0, 0.0, 0.0, -2560.7723070111642, 0.0]
['beep', 0.0, 784.702692592465, 0.0, 0.0, 0.0, 0.0, -2559.9229407218627, 0.0]
['beep', 0.0, 785.1273757371159, 0.0, 0.0, 0.0, 0.0, -2560.593493055522, 0.0]
['beep', 0.0, 785.864983304141, 0.0, 0.0, 0.0, 0.0, -2561.5546180671, 0.0]
['beep', 0.0, 786.2449629598813, 0.0, 0.0, 0.0, 0.0, -2561.2193419002706, 0.0]
['beep', 0.0, 785.0826722482053, 0.0, 0.0, 0.0, 0.0, -2561.5546180671, 0.0]
['beep', 0.0, 783.8756780476186, 0.0, 0.0, 0.0, 0.0, -2561.3087488780916, 0.0]
['beep', 0.0, 738.1887123809711, 0.0, 0.0, 0.0, 0.0, -2560.6381965444325, 0.0]
['beep', 0.0, 692.255877525315, 0.0, 0.0, 0.0, 0.0, -2561.532266322645, 0.0]
['beep', 0.0, 725.0235348967952, 0.0, 0.0, 0.0, 0.0, -2561.196990155815, 0.0]
['beep', 0.0, 780.187640212493, 0.0, 0.0, 0.0, 0.0, -2560.593493055522, 0.0]
['beep', 0.0, 785.283837948303, 0.0, 0.0, 0.0, 0.0, -2560.3029203776027, 0.0]
['beep', 0.0, 786.2449629598813, 0.0, 0.0, 0.0, 0.0, -2559.7664785106754, 0.0]
['beep', 0.0, 787.7648815828421, 0.0, 0.0, 0.0, 0.0, -2560.392327355424, 0.0]
['beep', 0.0, 786.4237769155237, 0.0, 0.0, 0.0, 0.0, -2561.107583177994, 0.0]
['beep', 0.0, 785.06032050375, 0.0, 0.0, 0.0, 0.0, -2560.83936224453, 0.0]
['beep', 0.0, 784.0097885143505, 0.0, 0.0, 0.0, 0.0, -2561.4428593448233, 0.0]
['beep', 0.0, 784.5238786368226, 0.0, 0.0, 0.0, 0.0, -2561.532266322645, 0.0]
['beep', 0.0, 786.0437972597834, 0.0, 0.0, 0.0, 0.0, -2561.4428593448233, 0.0]
['beep', 0.0, 785.9767420264176, 0.0, 0.0, 0.0, 0.0, -2561.9793012117507, 0.0]
['beep', 0.0, 785.2167827149372, 0.0, 0.0, 0.0, 0.0, -2560.146458166416, 0.0]
['beep', 0.0, 785.9767420264176, 0.0, 0.0, 0.0, 0.0, -2559.4088505993905, 0.0]
['beep', 0.0, 785.9543902819622, 0.0, 0.0, 0.0, 0.0, -2559.3641471104797, 0.0]
['beep', 0.0, 787.1613844825488, 0.0, 0.0, 0.0, 0.0, -2561.532266322645, 0.0]
['beep', 0.0, 787.1390327380935, 0.0, 0.0, 0.0, 0.0, -2561.711080278287, 0.0]
['beep', 0.0, 786.8931635490851, 0.0, 0.0, 0.0, 0.0, -2560.7052517777984, 0.0]
['beep', 0.0, 781.3275791797137, 0.0, 0.0, 0.0, 0.0, -2559.9229407218627, 0.0]
['beep', 0.0, 723.3918575515578, 0.0, 0.0, 0.0, 0.0, -2560.6605482888876, 0.0]
['beep', 0.0, 690.5124414578011, 0.0, 0.0, 0.0, 0.0, -2561.487562833734, 0.0]
['beep', 0.0, 730.3656018216136, 0.0, 0.0, 0.0, 0.0, -2560.2135133997817, 0.0]
['beep', 0.0, 782.7804425693087, 0.0, 0.0, 0.0, 0.0, -2559.6994232773095, 0.0]
['beep', 0.0, 786.6919978489874, 0.0, 0.0, 0.0, 0.0, -2560.191161655326, 0.0]
['beep', 0.0, 786.7814048268086, 0.0, 0.0, 0.0, 0.0, -2560.0794029330496, 0.0]
['beep', 0.0, 789.2624484613477, 0.0, 0.0, 0.0, 0.0, -2560.548789566611, 0.0]
['beep', 0.0, 788.4577856609567, 0.0, 0.0, 0.0, 0.0, -2560.146458166416, 0.0]
['beep', 0.0, 787.2060879714594, 0.0, 0.0, 0.0, 0.0, -2561.1522866669043, 0.0]
['beep', 0.0, 786.4237769155237, 0.0, 0.0, 0.0, 0.0, -2560.7052517777984, 0.0]
['beep', 0.0, 787.4072536715572, 0.0, 0.0, 0.0, 0.0, -2560.3476238665135, 0.0]
['beep', 0.0, 788.189564727493, 0.0, 0.0, 0.0, 0.0, -2561.3087488780916, 0.0]
['beep', 0.0, 788.0331025163058, 0.0, 0.0, 0.0, 0.0, -2559.6323680439436, 0.0]
['beep', 0.0, 787.0496257602723, 0.0, 0.0, 0.0, 0.0, -2559.0288709436504, 0.0]
['beep', 0.0, 786.2226112154259, 0.0, 0.0, 0.0, 0.0, -2560.7052517777984, 0.0]
['beep', 0.0, 786.669646104532, 0.0, 0.0, 0.0, 0.0, -2561.2193419002706, 0.0]
['beep', 0.0, 787.0049222713617, 0.0, 0.0, 0.0, 0.0, -2561.0181762001725, 0.0]
['beep', 0.0, 786.8708118046299, 0.0, 0.0, 0.0, 0.0, -2560.2135133997817, 0.0]
['beep', 0.0, 786.9825705269063, 0.0, 0.0, 0.0, 0.0, -2559.453554088301, 0.0]
['beep', 0.0, 785.0826722482053, 0.0, 0.0, 0.0, 0.0, -2560.548789566611, 0.0]
['beep', 0.0, 740.580349037689, 0.0, 0.0, 0.0, 0.0, -2561.8898942339297, 0.0]
['beep', 0.0, 693.5299269592675, 0.0, 0.0, 0.0, 0.0, -2563.074536690061, 0.0]
['beep', 0.0, 732.4219623115018, 0.0, 0.0, 0.0, 0.0, -2562.225170400759, 0.0]
['beep', 0.0, 784.0768437477165, 0.0, 0.0, 0.0, 0.0, -2562.3816326119463, 0.0]
['beep', 0.0, 787.6754746050209, 0.0, 0.0, 0.0, 0.0, -2561.3534523670023, 0.0]
['beep', 0.0, 787.2284397159148, 0.0, 0.0, 0.0, 0.0, -2561.6663767893765, 0.0]
['beep', 0.0, 788.4577856609567, 0.0, 0.0, 0.0, 0.0, -2561.845190745019, 0.0]
['beep', 0.0, 787.9213437940292, 0.0, 0.0, 0.0, 0.0, -2560.9511209668067, 0.0]
['beep', 0.0, 786.5802391267108, 0.0, 0.0, 0.0, 0.0, -2560.6381965444325, 0.0]
['beep', 0.0, 786.0437972597834, 0.0, 0.0, 0.0, 0.0, -2561.621673300466, 0.0]
['beep', 0.0, 786.0214455153282, 0.0, 0.0, 0.0, 0.0, -2560.906417477896, 0.0]
['beep', 0.0, 787.0496257602723, 0.0, 0.0, 0.0, 0.0, -2561.264045389181, 0.0]
['beep', 0.0, 787.7648815828421, 0.0, 0.0, 0.0, 0.0, -2561.0628796890833, 0.0]
['beep', 0.0, 787.2060879714594, 0.0, 0.0, 0.0, 0.0, -2561.0852314335384, 0.0]
['beep', 0.0, 786.2002594709706, 0.0, 0.0, 0.0, 0.0, -2561.778135511653, 0.0]
['beep', 0.0, 786.513183893345, 0.0, 0.0, 0.0, 0.0, -2561.6887285338316, 0.0]
['beep', 0.0, 787.4072536715572, 0.0, 0.0, 0.0, 0.0, -2561.867542489474, 0.0]
['beep', 0.0, 787.7872333272974, 0.0, 0.0, 0.0, 0.0, -2561.420507600368, 0.0]
['beep', 0.0, 787.4743089049231, 0.0, 0.0, 0.0, 0.0, -2561.196990155815, 0.0]
['beep', 0.0, 786.7814048268086, 0.0, 0.0, 0.0, 0.0, -2560.0794029330496, 0.0]
['beep', 0.0, 750.0574886867391, 0.0, 0.0, 0.0, 0.0, -2560.548789566611, 0.0]
['beep', 0.0, 695.3404182601474, 0.0, 0.0, 0.0, 0.0, -2561.778135511653, 0.0]
['beep', 0.0, 727.1693023645047, 0.0, 0.0, 0.0, 0.0, -2561.420507600368, 0.0]
['beep', 0.0, 781.4840413909009, 0.0, 0.0, 0.0, 0.0, -2562.5380948231336, 0.0]
['beep', 0.0, 787.1613844825488, 0.0, 0.0, 0.0, 0.0, -2562.3816326119463, 0.0]
['beep', 0.0, 787.6978263494761, 0.0, 0.0, 0.0, 0.0, -2562.448687845312, 0.0]
['beep', 0.0, 787.7425298383868, 0.0, 0.0, 0.0, 0.0, -2562.4039843564015, 0.0]
['beep', 0.0, 788.1001577496717, 0.0, 0.0, 0.0, 0.0, -2562.2922256341253, 0.0]
['beep', 0.0, 786.8708118046299, 0.0, 0.0, 0.0, 0.0, -2560.615844799977, 0.0]
['beep', 0.0, 787.7872333272974, 0.0, 0.0, 0.0, 0.0, -2560.749955266709, 0.0]
['beep', 0.0, 788.2566199608589, 0.0, 0.0, 0.0, 0.0, -2561.509914578189, 0.0]
['beep', 0.0, 788.5024891498673, 0.0, 0.0, 0.0, 0.0, -2561.5769698115555, 0.0]
['beep', 0.0, 788.6589513610544, 0.0, 0.0, 0.0, 0.0, -2561.3087488780916, 0.0]
['beep', 0.0, 787.5190123938337, 0.0, 0.0, 0.0, 0.0, -2561.129934922449, 0.0]
['beep', 0.0, 786.5355356378002, 0.0, 0.0, 0.0, 0.0, -2561.1522866669043, 0.0]
['beep', 0.0, 788.6365996165991, 0.0, 0.0, 0.0, 0.0, -2560.3476238665135, 0.0]
['beep', 0.0, 788.8377653166968, 0.0, 0.0, 0.0, 0.0, -2561.800487256108, 0.0]
['beep', 0.0, 787.831936816208, 0.0, 0.0, 0.0, 0.0, -2562.873370989963, 0.0]
['beep', 0.0, 788.0107507718504, 0.0, 0.0, 0.0, 0.0, -2560.8617139889857, 0.0]
['beep', 0.0, 782.4675181469344, 0.0, 0.0, 0.0, 0.0, -2560.817010500075, 0.0]
['beep', 0.0, 726.0517151417394, 0.0, 0.0, 0.0, 0.0, -2559.6770715328544, 0.0]
['beep', 0.0, 692.6582089255106, 0.0, 0.0, 0.0, 0.0, -2560.0570511885944, 0.0]
['beep', 0.0, 731.1032093886387, 0.0, 0.0, 0.0, 0.0, -2560.3029203776027, 0.0]
['beep', 0.0, 784.0544920032611, 0.0, 0.0, 0.0, 0.0, -2560.526437822156, 0.0]
['beep', 0.0, 787.5637158827443, 0.0, 0.0, 0.0, 0.0, -2562.0016529562063, 0.0]
['beep', 0.0, 788.9495240389734, 0.0, 0.0, 0.0, 0.0, -2561.711080278287, 0.0]
['beep', 0.0, 789.6424281170879, 0.0, 0.0, 0.0, 0.0, -2562.0463564451165, 0.0]
['beep', 0.0, 790.2906287062918, 0.0, 0.0, 0.0, 0.0, -2561.1522866669043, 0.0]
['beep', 0.0, 788.4354339165013, 0.0, 0.0, 0.0, 0.0, -2560.817010500075, 0.0]
['beep', 0.0, 787.3849019271019, 0.0, 0.0, 0.0, 0.0, -2561.3087488780916, 0.0]
['beep', 0.0, 788.994227527884, 0.0, 0.0, 0.0, 0.0, -2560.3699756109686, 0.0]
['beep', 0.0, 790.6035531286661, 0.0, 0.0, 0.0, 0.0, -2561.9345977228404, 0.0]
['beep', 0.0, 789.8882973060963, 0.0, 0.0, 0.0, 0.0, -2562.5604465675888, 0.0]
['beep', 0.0, 788.7930618277862, 0.0, 0.0, 0.0, 0.0, -2561.867542489474, 0.0]
['beep', 0.0, 788.1001577496717, 0.0, 0.0, 0.0, 0.0, -2561.487562833734, 0.0]
['beep', 0.0, 789.1953932279818, 0.0, 0.0, 0.0, 0.0, -2562.0910599340273, 0.0]
['beep', 0.0, 790.670608362032, 0.0, 0.0, 0.0, 0.0, -2561.509914578189, 0.0]
['beep', 0.0, 788.9495240389734, 0.0, 0.0, 0.0, 0.0, -2562.806315756597, 0.0]
['beep', 0.0, 787.8766403051186, 0.0, 0.0, 0.0, 0.0, -2562.6722052898654, 0.0]
['beep', 0.0, 786.9155152935405, 0.0, 0.0, 0.0, 0.0, -2561.1522866669043, 0.0]
['beep', 0.0, 744.7824769952866, 0.0, 0.0, 0.0, 0.0, -2562.3145773785805, 0.0]
['beep', 0.0, 695.2510112823262, 0.0, 0.0, 0.0, 0.0, -2562.493391334223, 0.0]
['beep', 0.0, 725.8729011860969, 0.0, 0.0, 0.0, 0.0, -2561.8898942339297, 0.0]
['beep', 0.0, 783.1157187361382, 0.0, 0.0, 0.0, 0.0, -2560.101754677505, 0.0]
['beep', 0.0, 788.5471926387779, 0.0, 0.0, 0.0, 0.0, -2558.8053534990972, 0.0]
['beep', 0.0, 788.8154135722416, 0.0, 0.0, 0.0, 0.0, -2559.565312810578, 0.0]
['beep', 0.0, 788.994227527884, 0.0, 0.0, 0.0, 0.0, -2560.548789566611, 0.0]
['beep', 0.0, 790.4917944063895, 0.0, 0.0, 0.0, 0.0, -2560.817010500075, 0.0]
['beep', 0.0, 789.6424281170879, 0.0, 0.0, 0.0, 0.0, -2560.884065733441, 0.0]
['beep', 0.0, 789.4189106725348, 0.0, 0.0, 0.0, 0.0, -2560.548789566611, 0.0]
['beep', 0.0, 788.6365996165991, 0.0, 0.0, 0.0, 0.0, -2559.9676442107734, 0.0]
['beep', 0.0, 790.4917944063895, 0.0, 0.0, 0.0, 0.0, -2561.0852314335384, 0.0]
['beep', 0.0, 790.7600153398532, 0.0, 0.0, 0.0, 0.0, -2562.2475221452146, 0.0]
['beep', 0.0, 789.4859659059008, 0.0, 0.0, 0.0, 0.0, -2561.264045389181, 0.0]
['beep', 0.0, 786.9602187824511, 0.0, 0.0, 0.0, 0.0, -2561.465211089279, 0.0]
['beep', 0.0, 788.7483583388756, 0.0, 0.0, 0.0, 0.0, -2561.822839000564, 0.0]
['beep', 0.0, 789.575372883722, 0.0, 0.0, 0.0, 0.0, -2561.711080278287, 0.0]
['beep', 0.0, 791.0058845288617, 0.0, 0.0, 0.0, 0.0, -2561.420507600368, 0.0]
['beep', 0.0, 790.3353321952025, 0.0, 0.0, 0.0, 0.0, -2561.3087488780916, 0.0]
['beep', 0.0, 788.5248408943226, 0.0, 0.0, 0.0, 0.0, -2561.778135511653, 0.0]
['beep', 0.0, 752.4044218545464, 0.0, 0.0, 0.0, 0.0, -2561.621673300466, 0.0]
['beep', 0.0, 697.352075261125, 0.0, 0.0, 0.0, 0.0, -2560.6381965444325, 0.0]
['beep', 0.0, 723.257747084826, 0.0, 0.0, 0.0, 0.0, -2559.520609321667, 0.0]
['beep', 0.0, 783.026311758317, 0.0, 0.0, 0.0, 0.0, -2559.945292466318, 0.0]
['beep', 0.0, 790.4470909174789, 0.0, 0.0, 0.0, 0.0, -2561.0181762001725, 0.0]
['beep', 0.0, 791.2070502289594, 0.0, 0.0, 0.0, 0.0, -2562.0910599340273, 0.0]
['beep', 0.0, 791.318808951236, 0.0, 0.0, 0.0, 0.0, -2562.8286675010527, 0.0]
['beep', 0.0, 790.9388292954957, 0.0, 0.0, 0.0, 0.0, -2561.1522866669043, 0.0]
['beep', 0.0, 790.5588496397555, 0.0, 0.0, 0.0, 0.0, -2559.542961066122, 0.0]
['beep', 0.0, 789.3071519502583, 0.0, 0.0, 0.0, 0.0, -2559.811181999586, 0.0]
['beep', 0.0, 790.4917944063895, 0.0, 0.0, 0.0, 0.0, -2559.8335337440412, 0.0]
['beep', 0.0, 790.0000560283728, 0.0, 0.0, 0.0, 0.0, -2561.040527944628, 0.0]
['beep', 0.0, 789.5977246281773, 0.0, 0.0, 0.0, 0.0, -2560.9287692223515, 0.0]
['beep', 0.0, 789.6647798615433, 0.0, 0.0, 0.0, 0.0, -2560.4370308443345, 0.0]
['beep', 0.0, 788.6142478721438, 0.0, 0.0, 0.0, 0.0, -2560.526437822156, 0.0]
['beep', 0.0, 789.2624484613477, 0.0, 0.0, 0.0, 0.0, -2559.542961066122, 0.0]
['beep', 0.0, 789.865945561641, 0.0, 0.0, 0.0, 0.0, -2560.4146790998793, 0.0]
['beep', 0.0, 790.4917944063895, 0.0, 0.0, 0.0, 0.0, -2562.6051500564995, 0.0]
['beep', 0.0, 789.865945561641, 0.0, 0.0, 0.0, 0.0, -2560.817010500075, 0.0]
['beep', 0.0, 784.2780094478143, 0.0, 0.0, 0.0, 0.0, -2561.196990155815, 0.0]
['beep', 0.0, 730.6114710106219, 0.0, 0.0, 0.0, 0.0, -2562.0016529562063, 0.0]
['beep', 0.0, 692.7476159033318, 0.0, 0.0, 0.0, 0.0, -2561.5546180671, 0.0]
['beep', 0.0, 728.8009797097421, 0.0, 0.0, 0.0, 0.0, -2561.3311006225467, 0.0]
['beep', 0.0, 784.5015268923673, 0.0, 0.0, 0.0, 0.0, -2561.3311006225467, 0.0]
['beep', 0.0, 789.4189106725348, 0.0, 0.0, 0.0, 0.0, -2560.9287692223515, 0.0]
['beep', 0.0, 789.575372883722, 0.0, 0.0, 0.0, 0.0, -2559.9899959552286, 0.0]
['beep', 0.0, 791.542326395789, 0.0, 0.0, 0.0, 0.0, -2561.17463841136, 0.0]
['beep', 0.0, 791.8105473292527, 0.0, 0.0, 0.0, 0.0, -2561.420507600368, 0.0]
['beep', 0.0, 789.8882973060963, 0.0, 0.0, 0.0, 0.0, -2560.4146790998793, 0.0]
['beep', 0.0, 790.089463006194, 0.0, 0.0, 0.0, 0.0, -2559.654719788399, 0.0]
['beep', 0.0, 791.3858641846018, 0.0, 0.0, 0.0, 0.0, -2562.135763422938, 0.0]
['beep', 0.0, 790.7600153398532, 0.0, 0.0, 0.0, 0.0, -2561.398155855913, 0.0]
['beep', 0.0, 791.9893612848952, 0.0, 0.0, 0.0, 0.0, -2559.654719788399, 0.0]
['beep', 0.0, 790.9388292954957, 0.0, 0.0, 0.0, 0.0, -2559.900588977407, 0.0]
['beep', 0.0, 791.1176432511381, 0.0, 0.0, 0.0, 0.0, -2560.191161655326, 0.0]
['beep', 0.0, 792.056416518261, 0.0, 0.0, 0.0, 0.0, -2559.878237232952, 0.0]
['beep', 0.0, 791.7211403514315, 0.0, 0.0, 0.0, 0.0, -2560.235865144237, 0.0]
['beep', 0.0, 792.9057828075628, 0.0, 0.0, 0.0, 0.0, -2559.7441267662202, 0.0]
['beep', 0.0, 792.1011200071716, 0.0, 0.0, 0.0, 0.0, -2560.101754677505, 0.0]
['beep', 0.0, 791.6093816291549, 0.0, 0.0, 0.0, 0.0, -2559.6323680439436, 0.0]
['beep', 0.0, 793.4869281634008, 0.0, 0.0, 0.0, 0.0, -2558.9618157102846, 0.0]
['beep', 0.0, 792.5705066407331, 0.0, 0.0, 0.0, 0.0, -2560.0794029330496, 0.0]
['beep', 0.0, 792.6599136185544, 0.0, 0.0, 0.0, 0.0, -2560.817010500075, 0.0]
['beep', 0.0, 792.1681752405376, 0.0, 0.0, 0.0, 0.0, -2559.7664785106754, 0.0]
['beep', 0.0, 790.0447595172834, 0.0, 0.0, 0.0, 0.0, -2559.878237232952, 0.0]
['beep', 0.0, 736.8923112025633, 0.0, 0.0, 0.0, 0.0, -2558.4030220989016, 0.0]
['beep', 0.0, 697.2403165388486, 0.0, 0.0, 0.0, 0.0, -2558.514780821178, 0.0]
['beep', 0.0, 730.6561744995325, 0.0, 0.0, 0.0, 0.0, -2559.811181999586, 0.0]
['beep', 0.0, 787.6307711161103, 0.0, 0.0, 0.0, 0.0, -2559.9229407218627, 0.0]
['beep', 0.0, 792.7940240852862, 0.0, 0.0, 0.0, 0.0, -2559.7441267662202, 0.0]
['beep', 0.0, 792.771672340831, 0.0, 0.0, 0.0, 0.0, -2559.297091877114, 0.0]
['beep', 0.0, 793.799852585775, 0.0, 0.0, 0.0, 0.0, -2560.4370308443345, 0.0]
['beep', 0.0, 794.8056810862638, 0.0, 0.0, 0.0, 0.0, -2561.3534523670023, 0.0]
['beep', 0.0, 794.7386258528979, 0.0, 0.0, 0.0, 0.0, -2560.9287692223515, 0.0]
['beep', 0.0, 792.6375618740991, 0.0, 0.0, 0.0, 0.0, -2560.817010500075, 0.0]
['beep', 0.0, 792.6599136185544, 0.0, 0.0, 0.0, 0.0, -2561.487562833734, 0.0]
['beep', 0.0, 793.8669078191409, 0.0, 0.0, 0.0, 0.0, -2560.4370308443345, 0.0]
['beep', 0.0, 794.2245357304258, 0.0, 0.0, 0.0, 0.0, -2560.7723070111642, 0.0]
['beep', 0.0, 794.1127770081494, 0.0, 0.0, 0.0, 0.0, -2559.2747401326587, 0.0]
['beep', 0.0, 793.3304659522136, 0.0, 0.0, 0.0, 0.0, -2558.872408732463, 0.0]
['beep', 0.0, 792.7940240852862, 0.0, 0.0, 0.0, 0.0, -2560.9287692223515, 0.0]
['beep', 0.0, 794.5151084083449, 0.0, 0.0, 0.0, 0.0, -2560.6829000333432, 0.0]
['beep', 0.0, 794.5598118972555, 0.0, 0.0, 0.0, 0.0, -2561.264045389181, 0.0]
['beep', 0.0, 793.9563147969621, 0.0, 0.0, 0.0, 0.0, -2559.9229407218627, 0.0]
['beep', 0.0, 791.3411606956912, 0.0, 0.0, 0.0, 0.0, -2560.3252721220583, 0.0]
['beep', 0.0, 745.0059944398397, 0.0, 0.0, 0.0, 0.0, -2561.040527944628, 0.0]
['beep', 0.0, 699.90017412903, 0.0, 0.0, 0.0, 0.0, -2561.3758041114575, 0.0]
['beep', 0.0, 738.7028025034431, 0.0, 0.0, 0.0, 0.0, -2560.817010500075, 0.0]
['beep', 0.0, 790.2012217284706, 0.0, 0.0, 0.0, 0.0, -2559.4759058327563, 0.0]
['beep', 0.0, 793.1069485076605, 0.0, 0.0, 0.0, 0.0, -2559.565312810578, 0.0]
['beep', 0.0, 793.7104456079538, 0.0, 0.0, 0.0, 0.0, -2559.297091877114, 0.0]
['beep', 0.0, 795.1409572530935, 0.0, 0.0, 0.0, 0.0, -2559.6994232773095, 0.0]
['beep', 0.0, 795.3421229531912, 0.0, 0.0, 0.0, 0.0, -2561.2416936447257, 0.0]
['beep', 0.0, 795.0739020197275, 0.0, 0.0, 0.0, 0.0, -2561.532266322645, 0.0]
['beep', 0.0, 793.9116113080515, 0.0, 0.0, 0.0, 0.0, -2561.4428593448233, 0.0]
['beep', 0.0, 794.3586461971577, 0.0, 0.0, 0.0, 0.0, -2560.9958244557174, 0.0]
['beep', 0.0, 796.2808962203142, 0.0, 0.0, 0.0, 0.0, -2561.2193419002706, 0.0]
['beep', 0.0, 795.2303642309147, 0.0, 0.0, 0.0, 0.0, -2560.884065733441, 0.0]
['beep', 0.0, 794.5821636417107, 0.0, 0.0, 0.0, 0.0, -2560.7723070111642, 0.0]
['beep', 0.0, 794.4704049194343, 0.0, 0.0, 0.0, 0.0, -2562.0240047006614, 0.0]
['beep', 0.0, 794.6939223639873, 0.0, 0.0, 0.0, 0.0, -2562.113411678483, 0.0]
['beep', 0.0, 794.8280328307192, 0.0, 0.0, 0.0, 0.0, -2560.7723070111642, 0.0]
['beep', 0.0, 795.0068467863616, 0.0, 0.0, 0.0, 0.0, -2560.9287692223515, 0.0]
['beep', 0.0, 793.9786665414175, 0.0, 0.0, 0.0, 0.0, -2560.3699756109686, 0.0]
['beep', 0.0, 793.3528176966689, 0.0, 0.0, 0.0, 0.0, -2559.0959261770163, 0.0]
['beep', 0.0, 753.253788143848, 0.0, 0.0, 0.0, 0.0, -2561.398155855913, 0.0]
['beep', 0.0, 706.449235254435, 0.0, 0.0, 0.0, 0.0, -2562.8957227344185, 0.0]
['beep', 0.0, 737.674622258499, 0.0, 0.0, 0.0, 0.0, -2563.007481456695, 0.0]
['beep', 0.0, 784.2109542144483, 0.0, 0.0, 0.0, 0.0, -2565.6002838135105, 0.0]
['beep', 0.0, 785.2391344593924, 0.0, 0.0, 0.0, 0.0, -2570.7635367826865, 0.0]
['beep', 0.0, 779.2488669453701, 0.0, 0.0, 0.0, 0.0, -2577.133783952449, 0.0]
['beep', 0.0, 772.4315848865015, 0.0, 0.0, 0.0, 0.0, -2581.2241531877703, 0.0]
['beep', 0.0, 764.2955499047697, 0.0, 0.0, 0.0, 0.0, -2589.4719468917783, 0.0]
['beep', 0.0, 756.2936253897698, 0.0, 0.0, 0.0, 0.0, -2595.7974905726305, 0.0]
['beep', 0.0, 743.1731513945045, 0.0, 0.0, 0.0, 0.0, -2601.206612730815, 0.0]
['beep', 0.0, 677.839002351642, 0.0, 0.0, 0.0, 0.0, -2606.816900589097, 0.0]
['beep', 0.0, 636.8011995316982, 0.0, 0.0, 0.0, 0.0, -2612.673057636387, 0.0]
['beep', 0.0, 651.419240405469, 0.0, 0.0, 0.0, 0.0, -2617.970421072295, 0.0]
['beep', 0.0, 706.963325376907, 0.0, 0.0, 0.0, 0.0, -2622.485473452267, 0.0]
['beep', 0.0, 711.0983981011389, 0.0, 0.0, 0.0, 0.0, -2627.872243865996, 0.0]
['beep', 0.0, 704.5716887201893, 0.0, 0.0, 0.0, 0.0, -2632.18613054587, 0.0]
['beep', 0.0, 697.70970317241, 0.0, 0.0, 0.0, 0.0, -2637.5729009595993, 0.0]
['beep', 0.0, 691.0712350691838, 0.0, 0.0, 0.0, 0.0, -2640.299813783147, 0.0]
['beep', 0.0, 684.7233396438766, 0.0, 0.0, 0.0, 0.0, -2643.138485328971, 0.0]
['beep', 0.0, 666.7301853573543, 0.0, 0.0, 0.0, 0.0, -2646.0218603637054, 0.0]
['beep', 0.0, 598.7808822132209, 0.0, 0.0, 0.0, 0.0, -2648.9499388873505, 0.0]
['beep', 0.0, 567.9354748648972, 0.0, 0.0, 0.0, 0.0, -2650.291043554669, 0.0]
['beep', 0.0, 578.2172773143384, 0.0, 0.0, 0.0, 0.0, -2652.1238866000044, 0.0]
['beep', 0.0, 635.9741849868518, 0.0, 0.0, 0.0, 0.0, -2653.196770333859, 0.0]
['beep', 0.0, 648.8264380486534, 0.0, 0.0, 0.0, 0.0, -2652.90619765594, 0.0]
['beep', 0.0, 643.9090542684859, 0.0, 0.0, 0.0, 0.0, -2654.5378750011773, 0.0]
['beep', 0.0, 641.4950658673127, 0.0, 0.0, 0.0, 0.0, -2654.9849098902837, 0.0]
['beep', 0.0, 638.6116908325781, 0.0, 0.0, 0.0, 0.0, -2656.1248488575043, 0.0]
['beep', 0.0, 633.4037343744916, 0.0, 0.0, 0.0, 0.0, -2655.588406990577, 0.0]
['beep', 0.0, 632.3532023850921, 0.0, 0.0, 0.0, 0.0, -2653.912026156429, 0.0]
['beep', 0.0, 594.5116990222573, 0.0, 0.0, 0.0, 0.0, -2655.0519651236496, 0.0]
['beep', 0.0, 540.5769396516013, 0.0, 0.0, 0.0, 0.0, -2655.7672209462194, 0.0]
['beep', 0.0, 571.5117539777463, 0.0, 0.0, 0.0, 0.0, -2654.8060959346412, 0.0]
['beep', 0.0, 628.486350594324, 0.0, 0.0, 0.0, 0.0, -2654.4484680233563, 0.0]
['beep', 0.0, 633.8060657746871, 0.0, 0.0, 0.0, 0.0, -2655.4990000127555, 0.0]
['beep', 0.0, 634.5436733417122, 0.0, 0.0, 0.0, 0.0, -2656.1248488575043, 0.0]
['beep', 0.0, 634.7671907862652, 0.0, 0.0, 0.0, 0.0, -2656.616587235521, 0.0]
['beep', 0.0, 633.582548330134, 0.0, 0.0, 0.0, 0.0, -2657.0859738690824, 0.0]
['beep', 0.0, 632.5320163407346, 0.0, 0.0, 0.0, 0.0, -2656.2142558353253, 0.0]
['beep', 0.0, 633.1355134410279, 0.0, 0.0, 0.0, 0.0, -2656.482476768789, 0.0]
['beep', 0.0, 633.0684582076619, 0.0, 0.0, 0.0, 0.0, -2657.3765465470015, 0.0]
['beep', 0.0, 634.0519349636954, 0.0, 0.0, 0.0, 0.0, -2656.4377732798785, 0.0]
['beep', 0.0, 635.3483361421032, 0.0, 0.0, 0.0, 0.0, -2657.3765465470015, 0.0]
['beep', 0.0, 635.4153913754692, 0.0, 0.0, 0.0, 0.0, -2657.8235814361074, 0.0]
['beep', 0.0, 634.0295832192402, 0.0, 0.0, 0.0, 0.0, -2656.6612907244316, 0.0]
['beep', 0.0, 634.3872111305251, 0.0, 0.0, 0.0, 0.0, -2656.6612907244316, 0.0]
['beep', 0.0, 635.258929164282, 0.0, 0.0, 0.0, 0.0, -2656.326014557602, 0.0]
['beep', 0.0, 635.3930396310138, 0.0, 0.0, 0.0, 0.0, -2656.3036628131467, 0.0]
['beep', 0.0, 634.5436733417122, 0.0, 0.0, 0.0, 0.0, -2656.1472006019594, 0.0]
['beep', 0.0, 632.1743884294497, 0.0, 0.0, 0.0, 0.0, -2657.220084335814, 0.0]
['beep', 0.0, 587.873230919031, 0.0, 0.0, 0.0, 0.0, -2657.1083256135375, 0.0]
['beep', 0.0, 538.878207072998, 0.0, 0.0, 0.0, 0.0, -2657.7341744582864, 0.0]
['beep', 0.0, 565.3873759969922, 0.0, 0.0, 0.0, 0.0, -2657.6671192249205, 0.0]
['beep', 0.0, 626.3405831266145, 0.0, 0.0, 0.0, 0.0, -2657.4659535248225, 0.0]
['beep', 0.0, 633.8507692635977, 0.0, 0.0, 0.0, 0.0, -2656.9518634023507, 0.0]
['beep', 0.0, 635.0354117197289, 0.0, 0.0, 0.0, 0.0, -2657.4436017803673, 0.0]
['beep', 0.0, 635.5271500977457, 0.0, 0.0, 0.0, 0.0, -2657.4436017803673, 0.0]
['beep', 0.0, 635.1695221864608, 0.0, 0.0, 0.0, 0.0, -2658.2706163252137, 0.0]
['beep', 0.0, 634.9683564863631, 0.0, 0.0, 0.0, 0.0, -2658.00239539175, 0.0]
['beep', 0.0, 634.0519349636954, 0.0, 0.0, 0.0, 0.0, -2656.974215146806, 0.0]
['beep', 0.0, 634.74483904181, 0.0, 0.0, 0.0, 0.0, -2657.220084335814, 0.0]
['beep', 0.0, 635.8177227756647, 0.0, 0.0, 0.0, 0.0, -2658.1141541140264, 0.0]
['beep', 0.0, 637.002365231796, 0.0, 0.0, 0.0, 0.0, -2657.0412703801717, 0.0]
['beep', 0.0, 635.5271500977457, 0.0, 0.0, 0.0, 0.0, -2656.2142558353253, 0.0]
['beep', 0.0, 635.1918739309161, 0.0, 0.0, 0.0, 0.0, -2656.258959324236, 0.0]
['beep', 0.0, 635.1248186975502, 0.0, 0.0, 0.0, 0.0, -2656.1472006019594, 0.0]
['beep', 0.0, 632.1743884294497, 0.0, 0.0, 0.0, 0.0, -2657.7565262027415, 0.0]
['beep', 0.0, 629.4921790948129, 0.0, 0.0, 0.0, 0.0, -2656.638938979976, 0.0]
['beep', 0.0, 625.8935482375084, 0.0, 0.0, 0.0, 0.0, -2655.7001657128535, 0.0]
['beep', 0.0, 622.2725656357486, 0.0, 0.0, 0.0, 0.0, -2654.627281978999, 0.0]
['beep', 0.0, 580.4971552487797, 0.0, 0.0, 0.0, 0.0, -2653.3085290561353, 0.0]
['beep', 0.0, 530.8539308135428, 0.0, 0.0, 0.0, 0.0, -2654.1802470898924, 0.0]
['beep', 0.0, 557.2513410152603, 0.0, 0.0, 0.0, 0.0, -2654.359061045535, 0.0]
['beep', 0.0, 618.808045245176, 0.0, 0.0, 0.0, 0.0, -2654.627281978999, 0.0]
['beep', 0.0, 625.3794581150363, 0.0, 0.0, 0.0, 0.0, -2655.4319447793896, 0.0]
['beep', 0.0, 624.6865540369217, 0.0, 0.0, 0.0, 0.0, -2655.1413721014706, 0.0]
['beep', 0.0, 625.357106370581, 0.0, 0.0, 0.0, 0.0, -2657.0636221246273, 0.0]
['beep', 0.0, 625.8041412596872, 0.0, 0.0, 0.0, 0.0, -2659.5670175036216, 0.0]
['beep', 0.0, 625.4688650928575, 0.0, 0.0, 0.0, 0.0, -2657.7565262027415, 0.0]
['beep', 0.0, 624.9324232259302, 0.0, 0.0, 0.0, 0.0, -2655.6331104794876, 0.0]
['beep', 0.0, 625.4465133484023, 0.0, 0.0, 0.0, 0.0, -2655.253130823747, 0.0]
['beep', 0.0, 625.7594377707766, 0.0, 0.0, 0.0, 0.0, -2655.4766482683003, 0.0]
['beep', 0.0, 626.8099697601759, 0.0, 0.0, 0.0, 0.0, -2656.0130901352277, 0.0]
['beep', 0.0, 625.3124028816704, 0.0, 0.0, 0.0, 0.0, -2655.4095930349345, 0.0]
['beep', 0.0, 624.261870892271, 0.0, 0.0, 0.0, 0.0, -2655.2084273348364, 0.0]
['beep', 0.0, 625.6029755595894, 0.0, 0.0, 0.0, 0.0, -2655.253130823747, 0.0]
['beep', 0.0, 625.6029755595894, 0.0, 0.0, 0.0, 0.0, -2655.297834312658, 0.0]
['beep', 0.0, 627.4805220938351, 0.0, 0.0, 0.0, 0.0, -2655.521351757211, 0.0]
['beep', 0.0, 626.6088040600782, 0.0, 0.0, 0.0, 0.0, -2655.7001657128535, 0.0]
['beep', 0.0, 623.3007458806927, 0.0, 0.0, 0.0, 0.0, -2656.6612907244316, 0.0]
['beep', 0.0, 577.7702424252323, 0.0, 0.0, 0.0, 0.0, -2656.3707180465126, 0.0]
['beep', 0.0, 530.6974686023556, 0.0, 0.0, 0.0, 0.0, -2655.7225174573086, 0.0]
['beep', 0.0, 562.1687247954279, 0.0, 0.0, 0.0, 0.0, -2654.9849098902837, 0.0]
['beep', 0.0, 620.3726673570475, 0.0, 0.0, 0.0, 0.0, -2655.253130823747, 0.0]
['beep', 0.0, 625.2453476483045, 0.0, 0.0, 0.0, 0.0, -2655.297834312658, 0.0]
['beep', 0.0, 625.2676993927598, 0.0, 0.0, 0.0, 0.0, -2657.197732591359, 0.0]
['beep', 0.0, 625.871196493053, 0.0, 0.0, 0.0, 0.0, -2656.549532002155, 0.0]
['beep', 0.0, 625.8264930041424, 0.0, 0.0, 0.0, 0.0, -2655.9236831574062, 0.0]
['beep', 0.0, 625.7370860263212, 0.0, 0.0, 0.0, 0.0, -2655.878979668496, 0.0]
['beep', 0.0, 625.8041412596872, 0.0, 0.0, 0.0, 0.0, -2655.1413721014706, 0.0]
['beep', 0.0, 624.9324232259302, 0.0, 0.0, 0.0, 0.0, -2655.0519651236496, 0.0]
['beep', 0.0, 625.4241616039469, 0.0, 0.0, 0.0, 0.0, -2655.744869201764, 0.0]
['beep', 0.0, 625.5582720706788, 0.0, 0.0, 0.0, 0.0, -2655.253130823747, 0.0]
['beep', 0.0, 625.8041412596872, 0.0, 0.0, 0.0, 0.0, -2654.1578953454373, 0.0]
['beep', 0.0, 625.0218302037514, 0.0, 0.0, 0.0, 0.0, -2654.359061045535, 0.0]
['beep', 0.0, 624.9324232259302, 0.0, 0.0, 0.0, 0.0, -2655.0966686125603, 0.0]
['beep', 0.0, 627.1899494159162, 0.0, 0.0, 0.0, 0.0, -2656.1472006019594, 0.0]
['beep', 0.0, 626.5641005711676, 0.0, 0.0, 0.0, 0.0, -2656.1024971130487, 0.0]
['beep', 0.0, 625.6700307929553, 0.0, 0.0, 0.0, 0.0, -2656.5271802577, 0.0]
['beep', 0.0, 625.5359203262235, 0.0, 0.0, 0.0, 0.0, -2657.510657013733, 0.0]
['beep', 0.0, 625.7370860263212, 0.0, 0.0, 0.0, 0.0, -2656.3930697909677, 0.0]
['beep', 0.0, 626.6535075489888, 0.0, 0.0, 0.0, 0.0, -2655.3648895460237, 0.0]
['beep', 0.0, 626.4299901044358, 0.0, 0.0, 0.0, 0.0, -2654.9178546569174, 0.0]
['beep', 0.0, 626.3629348710698, 0.0, 0.0, 0.0, 0.0, -2654.6943372123646, 0.0]
['beep', 0.0, 623.099580180595, 0.0, 0.0, 0.0, 0.0, -2656.638938979976, 0.0]
['beep', 0.0, 573.2328383008049, 0.0, 0.0, 0.0, 0.0, -2656.4154215354233, 0.0]
['beep', 0.0, 530.4739511578025, 0.0, 0.0, 0.0, 0.0, -2656.594235491066, 0.0]
['beep', 0.0, 557.1172305485285, 0.0, 0.0, 0.0, 0.0, -2657.9800436472947, 0.0]
['beep', 0.0, 618.4727690783465, 0.0, 0.0, 0.0, 0.0, -2657.8235814361074, 0.0]
['beep', 0.0, 626.8993767379972, 0.0, 0.0, 0.0, 0.0, -2656.974215146806, 0.0]
['beep', 0.0, 625.5359203262235, 0.0, 0.0, 0.0, 0.0, -2656.7283459577975, 0.0]
['beep', 0.0, 623.5242633252458, 0.0, 0.0, 0.0, 0.0, -2658.4717820253113, 0.0]
['beep', 0.0, 626.9217284824525, 0.0, 0.0, 0.0, 0.0, -2653.554398245144, 0.0]
['beep', 0.0, 631.1015046955949, 0.0, 0.0, 0.0, 0.0, -2649.799305176652, 0.0]
['beep', 0.0, 630.5427110842122, 0.0, 0.0, 0.0, 0.0, -2650.9615958883282, 0.0]
['beep', 0.0, 632.0626297071731, 0.0, 0.0, 0.0, 0.0, -2650.134581343482, 0.0]
['beep', 0.0, 633.7166587968659, 0.0, 0.0, 0.0, 0.0, -2650.2239883213033, 0.0]
['beep', 0.0, 632.6661268074664, 0.0, 0.0, 0.0, 0.0, -2649.6204912210096, 0.0]
['beep', 0.0, 632.6884785519217, 0.0, 0.0, 0.0, 0.0, -2647.787648175675, 0.0]
['beep', 0.0, 631.2803186512374, 0.0, 0.0, 0.0, 0.0, -2649.9334156433843, 0.0]
['beep', 0.0, 631.1909116734162, 0.0, 0.0, 0.0, 0.0, -2650.5592644881326, 0.0]
['beep', 0.0, 631.8167605181648, 0.0, 0.0, 0.0, 0.0, -2650.00047087675, 0.0]
['beep', 0.0, 632.0849814516284, 0.0, 0.0, 0.0, 0.0, -2650.514560999222, 0.0]
['beep', 0.0, 631.5485395847011, 0.0, 0.0, 0.0, 0.0, -2649.2628633097247, 0.0]
['beep', 0.0, 629.7380482838212, 0.0, 0.0, 0.0, 0.0, -2650.156933087937, 0.0]
['beep', 0.0, 584.453414017369, 0.0, 0.0, 0.0, 0.0, -2650.671023210409, 0.0]
['beep', 0.0, 537.2912332166711, 0.0, 0.0, 0.0, 0.0, -2651.6321482219873, 0.0]
['beep', 0.0, 571.0647190886401, 0.0, 0.0, 0.0, 0.0, -2651.296872055158, 0.0]
['beep', 0.0, 626.6535075489888, 0.0, 0.0, 0.0, 0.0, -2649.8887121544735, 0.0]
['beep', 0.0, 631.6602983069776, 0.0, 0.0, 0.0, 0.0, -2651.09570635506, 0.0]
['beep', 0.0, 631.0120977177737, 0.0, 0.0, 0.0, 0.0, -2651.743906944264, 0.0]
['beep', 0.0, 631.4591326068798, 0.0, 0.0, 0.0, 0.0, -2651.676851710898, 0.0]
['beep', 0.0, 631.8167605181648, 0.0, 0.0, 0.0, 0.0, -2650.38045053249, 0.0]
['beep', 0.0, 630.520359339757, 0.0, 0.0, 0.0, 0.0, -2649.5534359876438, 0.0]
['beep', 0.0, 629.7380482838212, 0.0, 0.0, 0.0, 0.0, -2650.782781932686, 0.0]
['beep', 0.0, 631.1015046955949, 0.0, 0.0, 0.0, 0.0, -2650.3133952991243, 0.0]
['beep', 0.0, 632.420257618458, 0.0, 0.0, 0.0, 0.0, -2650.00047087675, 0.0]
['beep', 0.0, 632.3979058740027, 0.0, 0.0, 0.0, 0.0, -2648.458200509334, 0.0]
['beep', 0.0, 631.8167605181648, 0.0, 0.0, 0.0, 0.0, -2649.106401098538, 0.0]
['beep', 0.0, 630.8556355065865, 0.0, 0.0, 0.0, 0.0, -2650.045174365661, 0.0]
['beep', 0.0, 632.0179262182625, 0.0, 0.0, 0.0, 0.0, -2650.2686918102136, 0.0]
['beep', 0.0, 634.1860454304273, 0.0, 0.0, 0.0, 0.0, -2650.38045053249, 0.0]
['beep', 0.0, 634.1860454304273, 0.0, 0.0, 0.0, 0.0, -2648.7264214427973, 0.0]
['beep', 0.0, 632.8672925075641, 0.0, 0.0, 0.0, 0.0, -2648.8605319095295, 0.0]
['beep', 0.0, 632.7555337852876, 0.0, 0.0, 0.0, 0.0, -2650.38045053249, 0.0]
['beep', 0.0, 633.4037343744916, 0.0, 0.0, 0.0, 0.0, -2650.156933087937, 0.0]
['beep', 0.0, 633.4037343744916, 0.0, 0.0, 0.0, 0.0, -2649.5534359876438, 0.0]
['beep', 0.0, 632.2414436628155, 0.0, 0.0, 0.0, 0.0, -2649.396973776457, 0.0]
['beep', 0.0, 632.4649611073686, 0.0, 0.0, 0.0, 0.0, -2648.972290631806, 0.0]
['beep', 0.0, 628.3969436165028, 0.0, 0.0, 0.0, 0.0, -2649.0169941207164, 0.0]
['beep', 0.0, 573.456355745358, 0.0, 0.0, 0.0, 0.0, -2649.106401098538, 0.0]
['beep', 0.0, 536.6653843719225, 0.0, 0.0, 0.0, 0.0, -2649.8216569211077, 0.0]
['beep', 0.0, 563.1298498070062, 0.0, 0.0, 0.0, 0.0, -2649.039345865172, 0.0]
['beep', 0.0, 625.7594377707766, 0.0, 0.0, 0.0, 0.0, -2649.5310842431886, 0.0]
['beep', 0.0, 634.3201558971591, 0.0, 0.0, 0.0, 0.0, -2649.776953432197, 0.0]
['beep', 0.0, 632.8002372741983, 0.0, 0.0, 0.0, 0.0, -2650.4028022769457, 0.0]
['beep', 0.0, 633.4037343744916, 0.0, 0.0, 0.0, 0.0, -2649.329918543091, 0.0]
['beep', 0.0, 633.7390105413211, 0.0, 0.0, 0.0, 0.0, -2649.039345865172, 0.0]
['beep', 0.0, 634.4766181083463, 0.0, 0.0, 0.0, 0.0, -2650.00047087675, 0.0]
['beep', 0.0, 634.9683564863631, 0.0, 0.0, 0.0, 0.0, -2649.1734563319037, 0.0]
['beep', 0.0, 634.8565977640865, 0.0, 0.0, 0.0, 0.0, -2648.167627831415, 0.0]
['beep', 0.0, 636.0412402202178, 0.0, 0.0, 0.0, 0.0, -2648.2570348092363, 0.0]
['beep', 0.0, 637.2035309318937, 0.0, 0.0, 0.0, 0.0, -2648.391145275968, 0.0]
['beep', 0.0, 635.8624262645753, 0.0, 0.0, 0.0, 0.0, -2649.844008665563, 0.0]
['beep', 0.0, 636.9800134873407, 0.0, 0.0, 0.0, 0.0, -2649.106401098538, 0.0]
['beep', 0.0, 636.6670890649664, 0.0, 0.0, 0.0, 0.0, -2648.3687935315124, 0.0]
['beep', 0.0, 637.3823448875362, 0.0, 0.0, 0.0, 0.0, -2647.80999992013, 0.0]
['beep', 0.0, 638.8352082771312, 0.0, 0.0, 0.0, 0.0, -2648.771124931708, 0.0]
['beep', 0.0, 637.7176210543658, 0.0, 0.0, 0.0, 0.0, -2648.748773187253, 0.0]
['beep', 0.0, 637.4717518653574, 0.0, 0.0, 0.0, 0.0, -2648.0111656202275, 0.0]
['beep', 0.0, 637.5388070987234, 0.0, 0.0, 0.0, 0.0, -2649.776953432197, 0.0]
['beep', 0.0, 637.2482344208044, 0.0, 0.0, 0.0, 0.0, -2649.8887121544735, 0.0]
['beep', 0.0, 637.2035309318937, 0.0, 0.0, 0.0, 0.0, -2649.709898198831, 0.0]
['beep', 0.0, 636.644737320511, 0.0, 0.0, 0.0, 0.0, -2649.486380754278, 0.0]
['beep', 0.0, 634.0519349636954, 0.0, 0.0, 0.0, 0.0, -2648.838180165074, 0.0]
['beep', 0.0, 585.4592425178579, 0.0, 0.0, 0.0, 0.0, -2649.5981394765545, 0.0]
['beep', 0.0, 537.4029919389477, 0.0, 0.0, 0.0, 0.0, -2651.8780174109957, 0.0]
['beep', 0.0, 562.6828149179, 0.0, 0.0, 0.0, 0.0, -2650.1792848323926, 0.0]
['beep', 0.0, 628.1510744274943, 0.0, 0.0, 0.0, 0.0, -2646.2453778082586, 0.0]
['beep', 0.0, 637.8964350100083, 0.0, 0.0, 0.0, 0.0, -2643.7643341737194, 0.0]
['beep', 0.0, 635.6389088200223, 0.0, 0.0, 0.0, 0.0, -2642.132656828482, 0.0]
['beep', 0.0, 635.9741849868518, 0.0, 0.0, 0.0, 0.0, -2642.71380218432, 0.0]
['beep', 0.0, 635.8177227756647, 0.0, 0.0, 0.0, 0.0, -2645.463066752323, 0.0]
['beep', 0.0, 634.096638452606, 0.0, 0.0, 0.0, 0.0, -2644.390183018468, 0.0]
['beep', 0.0, 636.3765163870473, 0.0, 0.0, 0.0, 0.0, -2641.842084150563, 0.0]
['beep', 0.0, 635.0130599752737, 0.0, 0.0, 0.0, 0.0, -2641.61856670601, 0.0]
['beep', 0.0, 635.9965367313072, 0.0, 0.0, 0.0, 0.0, -2642.8255609065964, 0.0]
['beep', 0.0, 636.1529989424943, 0.0, 0.0, 0.0, 0.0, -2643.741982429264, 0.0]
['beep', 0.0, 635.2142256753714, 0.0, 0.0, 0.0, 0.0, -2643.0714300956047, 0.0]
['beep', 0.0, 635.5271500977457, 0.0, 0.0, 0.0, 0.0, -2642.6914504398646, 0.0]
['beep', 0.0, 637.1811791874385, 0.0, 0.0, 0.0, 0.0, -2642.624395206499, 0.0]
['beep', 0.0, 637.7176210543658, 0.0, 0.0, 0.0, 0.0, -2642.8255609065964, 0.0]
['beep', 0.0, 636.6670890649664, 0.0, 0.0, 0.0, 0.0, -2642.1773603173924, 0.0]
['beep', 0.0, 636.4435716204133, 0.0, 0.0, 0.0, 0.0, -2642.132656828482, 0.0]
['beep', 0.0, 635.5047983532904, 0.0, 0.0, 0.0, 0.0, -2642.4232295064007, 0.0]
['beep', 0.0, 594.0646641331512, 0.0, 0.0, 0.0, 0.0, -2642.7585056732305, 0.0]
['beep', 0.0, 543.39325945297, 0.0, 0.0, 0.0, 0.0, -2642.356174273035, 0.0]
['beep', 0.0, 572.6069894560563, 0.0, 0.0, 0.0, 0.0, -2641.8644358950182, 0.0]
['beep', 0.0, 631.2803186512374, 0.0, 0.0, 0.0, 0.0, -2642.289119039669, 0.0]
['beep', 0.0, 637.8517315210977, 0.0, 0.0, 0.0, 0.0, -2642.7585056732305, 0.0]
['beep', 0.0, 637.6952693099105, 0.0, 0.0, 0.0, 0.0, -2642.4008777619456, 0.0]
['beep', 0.0, 639.2375396773267, 0.0, 0.0, 0.0, 0.0, -2643.1161335845154, 0.0]
['beep', 0.0, 638.4328768769357, 0.0, 0.0, 0.0, 0.0, -2643.741982429264, 0.0]
['beep', 0.0, 637.3376413986256, 0.0, 0.0, 0.0, 0.0, -2643.9207963849067, 0.0]
['beep', 0.0, 637.4046966319916, 0.0, 0.0, 0.0, 0.0, -2642.222063806303, 0.0]
['beep', 0.0, 638.4328768769357, 0.0, 0.0, 0.0, 0.0, -2640.8362556500742, 0.0]
['beep', 0.0, 639.6845745664328, 0.0, 0.0, 0.0, 0.0, -2641.0150696057167, 0.0]
['beep', 0.0, 639.3492983996032, 0.0, 0.0, 0.0, 0.0, -2642.266767295214, 0.0]
['beep', 0.0, 637.5611588431786, 0.0, 0.0, 0.0, 0.0, -2641.327994028091, 0.0]
['beep', 0.0, 636.6894408094216, 0.0, 0.0, 0.0, 0.0, -2641.573863217099, 0.0]
['beep', 0.0, 637.0694204651619, 0.0, 0.0, 0.0, 0.0, -2641.1044765835377, 0.0]
['beep', 0.0, 639.0810774661395, 0.0, 0.0, 0.0, 0.0, -2641.685621939376, 0.0]
['beep', 0.0, 637.9411384989189, 0.0, 0.0, 0.0, 0.0, -2642.266767295214, 0.0]
['beep', 0.0, 637.3823448875362, 0.0, 0.0, 0.0, 0.0, -2640.657441694432, 0.0]
['beep', 0.0, 637.2035309318937, 0.0, 0.0, 0.0, 0.0, -2639.2492817937473, 0.0]
['beep', 0.0, 618.5621760561677, 0.0, 0.0, 0.0, 0.0, -2641.1044765835377, 0.0]
['beep', 0.0, 554.747945636266, 0.0, 0.0, 0.0, 0.0, -2642.1103050840265, 0.0]
['beep', 0.0, 566.4155562419363, 0.0, 0.0, 0.0, 0.0, -2641.99854636175, 0.0]
['beep', 0.0, 629.2463099058044, 0.0, 0.0, 0.0, 0.0, -2641.484456239278, 0.0]
['beep', 0.0, 638.8575600215864, 0.0, 0.0, 0.0, 0.0, -2642.4008777619456, 0.0]
['beep', 0.0, 639.3940018885138, 0.0, 0.0, 0.0, 0.0, -2642.289119039669, 0.0]
['beep', 0.0, 639.6175193330669, 0.0, 0.0, 0.0, 0.0, -2641.037421350172, 0.0]
['beep', 0.0, 639.4610571218798, 0.0, 0.0, 0.0, 0.0, -2640.90331088344, 0.0]
['beep', 0.0, 639.9080920109859, 0.0, 0.0, 0.0, 0.0, -2639.875130638496, 0.0]
['beep', 0.0, 638.2093594323826, 0.0, 0.0, 0.0, 0.0, -2640.7244969277976, 0.0]
['beep', 0.0, 638.2540629212932, 0.0, 0.0, 0.0, 0.0, -2640.1209998275044, 0.0]
['beep', 0.0, 639.7739815442541, 0.0, 0.0, 0.0, 0.0, -2639.651613193943, 0.0]
['beep', 0.0, 639.550464099701, 0.0, 0.0, 0.0, 0.0, -2640.679793438887, 0.0]
['beep', 0.0, 639.3492983996032, 0.0, 0.0, 0.0, 0.0, -2640.90331088344, 0.0]
['beep', 0.0, 638.1423041990166, 0.0, 0.0, 0.0, 0.0, -2641.842084150563, 0.0]
['beep', 0.0, 638.4328768769357, 0.0, 0.0, 0.0, 0.0, -2641.7303254282865, 0.0]
['beep', 0.0, 639.6845745664328, 0.0, 0.0, 0.0, 0.0, -2642.3114707841246, 0.0]
['beep', 0.0, 640.3998303890027, 0.0, 0.0, 0.0, 0.0, -2642.065601595116, 0.0]
['beep', 0.0, 638.2764146657485, 0.0, 0.0, 0.0, 0.0, -2641.2162353058143, 0.0]
['beep', 0.0, 636.9800134873407, 0.0, 0.0, 0.0, 0.0, -2640.5680347166103, 0.0]
['beep', 0.0, 604.9499636828856, 0.0, 0.0, 0.0, 0.0, -2641.0150696057167, 0.0]
['beep', 0.0, 547.6177391550231, 0.0, 0.0, 0.0, 0.0, -2642.3338225285797, 0.0]
['beep', 0.0, 567.9131231204418, 0.0, 0.0, 0.0, 0.0, -2642.624395206499, 0.0]
['beep', 0.0, 629.5145308392681, 0.0, 0.0, 0.0, 0.0, -2642.7361539287754, 0.0]
['beep', 0.0, 637.7176210543658, 0.0, 0.0, 0.0, 0.0, -2641.7973806616524, 0.0]
['beep', 0.0, 639.6175193330669, 0.0, 0.0, 0.0, 0.0, -2642.5349882286773, 0.0]
['beep', 0.0, 639.7292780553435, 0.0, 0.0, 0.0, 0.0, -2643.205540562337, 0.0]
['beep', 0.0, 640.0198507332624, 0.0, 0.0, 0.0, 0.0, -2642.4455812508563, 0.0]
['beep', 0.0, 639.8410367776199, 0.0, 0.0, 0.0, 0.0, -2642.7808574176856, 0.0]
['beep', 0.0, 639.9080920109859, 0.0, 0.0, 0.0, 0.0, -2643.160837073426, 0.0]
['beep', 0.0, 639.4610571218798, 0.0, 0.0, 0.0, 0.0, -2642.579691717588, 0.0]
['beep', 0.0, 641.8526937785977, 0.0, 0.0, 0.0, 0.0, -2643.7643341737194, 0.0]
['beep', 0.0, 641.6738798229552, 0.0, 0.0, 0.0, 0.0, -2643.9878516182725, 0.0]
['beep', 0.0, 641.8973972675083, 0.0, 0.0, 0.0, 0.0, -2643.5631684736218, 0.0]
['beep', 0.0, 641.7409350563211, 0.0, 0.0, 0.0, 0.0, -2642.557339973133, 0.0]
['beep', 0.0, 642.970281001363, 0.0, 0.0, 0.0, 0.0, -2642.132656828482, 0.0]
['beep', 0.0, 643.8867025240305, 0.0, 0.0, 0.0, 0.0, -2642.959671373328, 0.0]
['beep', 0.0, 644.5572548576897, 0.0, 0.0, 0.0, 0.0, -2642.579691717588, 0.0]
['beep', 0.0, 643.1937984459161, 0.0, 0.0, 0.0, 0.0, -2641.28329053918, 0.0]
['beep', 0.0, 641.1150862115725, 0.0, 0.0, 0.0, 0.0, -2640.009241105228, 0.0]
['beep', 0.0, 610.5155480522571, 0.0, 0.0, 0.0, 0.0, -2641.350345772546, 0.0]
['beep', 0.0, 549.7635066227325, 0.0, 0.0, 0.0, 0.0, -2642.579691717588, 0.0]
['beep', 0.0, 567.9131231204418, 0.0, 0.0, 0.0, 0.0, -2642.6914504398646, 0.0]
['beep', 0.0, 630.2297866618379, 0.0, 0.0, 0.0, 0.0, -2642.8926161399622, 0.0]
['beep', 0.0, 641.1374379560278, 0.0, 0.0, 0.0, 0.0, -2642.289119039669, 0.0]
['beep', 0.0, 641.0703827226619, 0.0, 0.0, 0.0, 0.0, -2641.350345772546, 0.0]
['beep', 0.0, 640.8021617891982, 0.0, 0.0, 0.0, 0.0, -2641.7973806616524, 0.0]
['beep', 0.0, 641.2044931893937, 0.0, 0.0, 0.0, 0.0, -2641.685621939376, 0.0]
['beep', 0.0, 639.8186850331647, 0.0, 0.0, 0.0, 0.0, -2643.0714300956047, 0.0]
['beep', 0.0, 639.3940018885138, 0.0, 0.0, 0.0, 0.0, -2642.557339973133, 0.0]
['beep', 0.0, 638.3434698991144, 0.0, 0.0, 0.0, 0.0, -2642.557339973133, 0.0]
['beep', 0.0, 639.0810774661395, 0.0, 0.0, 0.0, 0.0, -2643.518464984711, 0.0]
['beep', 0.0, 640.355126900092, 0.0, 0.0, 0.0, 0.0, -2643.496113240256, 0.0]
['beep', 0.0, 639.2151879328713, 0.0, 0.0, 0.0, 0.0, -2641.909139383929, 0.0]
['beep', 0.0, 638.678746065944, 0.0, 0.0, 0.0, 0.0, -2641.484456239278, 0.0]
['beep', 0.0, 639.6845745664328, 0.0, 0.0, 0.0, 0.0, -2641.23858705027, 0.0]
['beep', 0.0, 639.5057606107904, 0.0, 0.0, 0.0, 0.0, -2642.646746950954, 0.0]
['beep', 0.0, 639.9527954998965, 0.0, 0.0, 0.0, 0.0, -2642.914967884418, 0.0]
['beep', 0.0, 639.7739815442541, 0.0, 0.0, 0.0, 0.0, -2643.6302237069876, 0.0]
['beep', 0.0, 639.2375396773267, 0.0, 0.0, 0.0, 0.0, -2643.6972789403535, 0.0]
['beep', 0.0, 611.4096178304694, 0.0, 0.0, 0.0, 0.0, -2641.260938794725, 0.0]
['beep', 0.0, 549.8976170894643, 0.0, 0.0, 0.0, 0.0, -2641.4397527503675, 0.0]
['beep', 0.0, 566.5720184531234, 0.0, 0.0, 0.0, 0.0, -2641.61856670601, 0.0]
['beep', 0.0, 629.8051035171871, 0.0, 0.0, 0.0, 0.0, -2640.7915521611635, 0.0]
['beep', 0.0, 638.7234495548546, 0.0, 0.0, 0.0, 0.0, -2643.227892306792, 0.0]
['beep', 0.0, 637.3376413986256, 0.0, 0.0, 0.0, 0.0, -2643.451409751345, 0.0]
['beep', 0.0, 640.064554222173, 0.0, 0.0, 0.0, 0.0, -2641.909139383929, 0.0]
['beep', 0.0, 640.1763129444496, 0.0, 0.0, 0.0, 0.0, -2642.557339973133, 0.0]
['beep', 0.0, 639.9527954998965, 0.0, 0.0, 0.0, 0.0, -2641.8197324061075, 0.0]
['beep', 0.0, 639.9974989888071, 0.0, 0.0, 0.0, 0.0, -2640.590386461066, 0.0]
['beep', 0.0, 640.0869059666284, 0.0, 0.0, 0.0, 0.0, -2640.90331088344, 0.0]
['beep', 0.0, 640.9139205114748, 0.0, 0.0, 0.0, 0.0, -2640.4786277387893, 0.0]
['beep', 0.0, 641.584472845134, 0.0, 0.0, 0.0, 0.0, -2638.37756375999, 0.0]
['beep', 0.0, 641.3162519116703, 0.0, 0.0, 0.0, 0.0, -2639.875130638496, 0.0]
['beep', 0.0, 641.3162519116703, 0.0, 0.0, 0.0, 0.0, -2638.9140056269175, 0.0]
['beep', 0.0, 638.9916704883183, 0.0, 0.0, 0.0, 0.0, -2638.37756375999, 0.0]
['beep', 0.0, 640.9586240003854, 0.0, 0.0, 0.0, 0.0, -2638.7575434157307, 0.0]
['beep', 0.0, 642.2997286677038, 0.0, 0.0, 0.0, 0.0, -2638.6010812045433, 0.0]
['beep', 0.0, 640.0422024777178, 0.0, 0.0, 0.0, 0.0, -2640.8362556500742, 0.0]
['beep', 0.0, 637.292937909715, 0.0, 0.0, 0.0, 0.0, -2642.1103050840265, 0.0]
['beep', 0.0, 602.6477340039891, 0.0, 0.0, 0.0, 0.0, -2643.80903766263, 0.0]
['beep', 0.0, 551.9763293238079, 0.0, 0.0, 0.0, 0.0, -2647.9441103868617, 0.0]
['beep', 0.0, 583.715806450344, 0.0, 0.0, 0.0, 0.0, -2653.263825567225, 0.0]
['beep', 0.0, 637.292937909715, 0.0, 0.0, 0.0, 0.0, -2659.388203547979, 0.0]
['beep', 0.0, 640.6904030669216, 0.0, 0.0, 0.0, 0.0, -2660.416383792923, 0.0]
['beep', 0.0, 639.8633885220753, 0.0, 0.0, 0.0, 0.0, -2660.3716803040124, 0.0]
['beep', 0.0, 636.8459030206088, 0.0, 0.0, 0.0, 0.0, -2662.76331696073, 0.0]
['beep', 0.0, 636.6894408094216, 0.0, 0.0, 0.0, 0.0, -2664.7973257061635, 0.0]
['beep', 0.0, 640.7351065558322, 0.0, 0.0, 0.0, 0.0, -2662.6292064939985, 0.0]
['beep', 0.0, 641.9644525008741, 0.0, 0.0, 0.0, 0.0, -2660.2375698372807, 0.0]
['beep', 0.0, 641.7856385452317, 0.0, 0.0, 0.0, 0.0, -2658.225912836303, 0.0]
['beep', 0.0, 643.551426357201, 0.0, 0.0, 0.0, 0.0, -2658.4717820253113, 0.0]
['beep', 0.0, 643.3726124015585, 0.0, 0.0, 0.0, 0.0, -2659.835238437085, 0.0]
['beep', 0.0, 643.1267432125501, 0.0, 0.0, 0.0, 0.0, -2659.388203547979, 0.0]
['beep', 0.0, 642.7020600678993, 0.0, 0.0, 0.0, 0.0, -2658.2706163252137, 0.0]
['beep', 0.0, 641.6738798229552, 0.0, 0.0, 0.0, 0.0, -2660.4387355373783, 0.0]
['beep', 0.0, 643.1267432125501, 0.0, 0.0, 0.0, 0.0, -2661.9139506714287, 0.0]
['beep', 0.0, 644.4231443909579, 0.0, 0.0, 0.0, 0.0, -2660.0587558816383, 0.0]
['beep', 0.0, 642.8585222790864, 0.0, 0.0, 0.0, 0.0, -2660.3046250706466, 0.0]
['beep', 0.0, 642.0315077342401, 0.0, 0.0, 0.0, 0.0, -2661.3998605489564, 0.0]
['beep', 0.0, 642.7020600678993, 0.0, 0.0, 0.0, 0.0, -2660.796363448663, 0.0]
['beep', 0.0, 644.0208129907624, 0.0, 0.0, 0.0, 0.0, -2660.5951977485656, 0.0]
['beep', 0.0, 645.0936967246172, 0.0, 0.0, 0.0, 0.0, -2660.9528256598505, 0.0]
['beep', 0.0, 643.9314060129411, 0.0, 0.0, 0.0, 0.0, -2659.745831459264, 0.0]
['beep', 0.0, 639.3940018885138, 0.0, 0.0, 0.0, 0.0, -2660.6622529819315, 0.0]
['beep', 0.0, 589.5943152420897, 0.0, 0.0, 0.0, 0.0, -2662.4950960272668, 0.0]
['beep', 0.0, 545.5166751762242, 0.0, 0.0, 0.0, 0.0, -2664.19382860587, 0.0]
['beep', 0.0, 568.3154545206373, 0.0, 0.0, 0.0, 0.0, -2664.5514565171547, 0.0]
['beep', 0.0, 632.5767198296452, 0.0, 0.0, 0.0, 0.0, -2664.0820698835937, 0.0]
['beep', 0.0, 642.7467635568099, 0.0, 0.0, 0.0, 0.0, -2663.456221038845, 0.0]
['beep', 0.0, 642.903225767997, 0.0, 0.0, 0.0, 0.0, -2664.3055873281464, 0.0]
['beep', 0.0, 643.4396676349244, 0.0, 0.0, 0.0, 0.0, -2664.752622217253, 0.0]
['beep', 0.0, 642.9926327458182, 0.0, 0.0, 0.0, 0.0, -2663.679738483398, 0.0]
['beep', 0.0, 641.584472845134, 0.0, 0.0, 0.0, 0.0, -2664.8867326839845, 0.0]
['beep', 0.0, 641.5397693562234, 0.0, 0.0, 0.0, 0.0, -2665.378471062001, 0.0]
['beep', 0.0, 642.7914670457205, 0.0, 0.0, 0.0, 0.0, -2665.8478576955627, 0.0]
['beep', 0.0, 643.7972955462093, 0.0, 0.0, 0.0, 0.0, -2664.707918728342, 0.0]
['beep', 0.0, 644.3784409020473, 0.0, 0.0, 0.0, 0.0, -2664.7973257061635, 0.0]
['beep', 0.0, 643.3726124015585, 0.0, 0.0, 0.0, 0.0, -2664.2161803503254, 0.0]
['beep', 0.0, 643.484371123835, 0.0, 0.0, 0.0, 0.0, -2663.746793716764, 0.0]
['beep', 0.0, 644.2666821797708, 0.0, 0.0, 0.0, 0.0, -2662.9197791719175, 0.0]
['beep', 0.0, 644.9595862578853, 0.0, 0.0, 0.0, 0.0, -2663.9256076724064, 0.0]
['beep', 0.0, 645.1384002135278, 0.0, 0.0, 0.0, 0.0, -2665.132601872993, 0.0]
['beep', 0.0, 643.8643507795753, 0.0, 0.0, 0.0, 0.0, -2665.8478576955627, 0.0]
['beep', 0.0, 643.484371123835, 0.0, 0.0, 0.0, 0.0, -2665.691395484376, 0.0]
['beep', 0.0, 624.7312575258323, 0.0, 0.0, 0.0, 0.0, -2665.423174550912, 0.0]
['beep', 0.0, 561.3417102505816, 0.0, 0.0, 0.0, 0.0, -2666.317244329124, 0.0]
['beep', 0.0, 573.4340040009027, 0.0, 0.0, 0.0, 0.0, -2665.8478576955627, 0.0]
['beep', 0.0, 636.2200541758602, 0.0, 0.0, 0.0, 0.0, -2664.2385320947806, 0.0]
['beep', 0.0, 644.5349031132345, 0.0, 0.0, 0.0, 0.0, -2663.9032559279512, 0.0]
['beep', 0.0, 645.227807191349, 0.0, 0.0, 0.0, 0.0, -2664.4620495393337, 0.0]
['beep', 0.0, 644.8254757911534, 0.0, 0.0, 0.0, 0.0, -2665.356119317546, 0.0]
['beep', 0.0, 644.6690135799663, 0.0, 0.0, 0.0, 0.0, -2665.4902297842777, 0.0]
['beep', 0.0, 570.9976638552743, 0.0, 0.0, 0.0, 0.0, -2652.772087189208, 0.0]
['beep', 0.0, 570.7741464107212, 0.0, 0.0, 0.0, 0.0, -2653.7332122007865, 0.0]
['beep', 0.0, 636.3541646425921, 0.0, 0.0, 0.0, 0.0, -2655.3425378015686, 0.0]
['beep', 0.0, 651.6427578500221, 0.0, 0.0, 0.0, 0.0, -2654.7613924457305, 0.0]
['beep', 0.0, 650.6592810939886, 0.0, 0.0, 0.0, 0.0, -2653.353232545046, 0.0]
['beep', 0.0, 652.1121444835835, 0.0, 0.0, 0.0, 0.0, -2653.4873430117777, 0.0]
['beep', 0.0, 652.0450892502176, 0.0, 0.0, 0.0, 0.0, -2654.4484680233563, 0.0]
['beep', 0.0, 651.776868316754, 0.0, 0.0, 0.0, 0.0, -2653.688508711876, 0.0]
['beep', 0.0, 651.6874613389327, 0.0, 0.0, 0.0, 0.0, -2653.8449709230626, 0.0]
['beep', 0.0, 651.3074816831925, 0.0, 0.0, 0.0, 0.0, -2655.297834312658, 0.0]
['beep', 0.0, 652.000385761307, 0.0, 0.0, 0.0, 0.0, -2655.0966686125603, 0.0]
['beep', 0.0, 653.3638421730808, 0.0, 0.0, 0.0, 0.0, -2654.023784878705, 0.0]
['beep', 0.0, 652.514475883779, 0.0, 0.0, 0.0, 0.0, -2654.314357556624, 0.0]
['beep', 0.0, 650.6369293495333, 0.0, 0.0, 0.0, 0.0, -2654.71668895682, 0.0]
['beep', 0.0, 650.9498537719076, 0.0, 0.0, 0.0, 0.0, -2655.4766482683003, 0.0]
['beep', 0.0, 652.1121444835835, 0.0, 0.0, 0.0, 0.0, -2655.0966686125603, 0.0]
['beep', 0.0, 653.8108770621869, 0.0, 0.0, 0.0, 0.0, -2652.90619765594, 0.0]
['beep', 0.0, 653.967339273374, 0.0, 0.0, 0.0, 0.0, -2652.9509011448504, 0.0]
['beep', 0.0, 651.6874613389327, 0.0, 0.0, 0.0, 0.0, -2654.1355436009817, 0.0]
['beep', 0.0, 644.6913653244216, 0.0, 0.0, 0.0, 0.0, -2654.292005812169, 0.0]
['beep', 0.0, 586.3756640405255, 0.0, 0.0, 0.0, 0.0, -2654.1355436009817, 0.0]
['beep', 0.0, 565.5661899526347, 0.0, 0.0, 0.0, 0.0, -2654.1802470898924, 0.0]
['beep', 0.0, 627.9946122163072, 0.0, 0.0, 0.0, 0.0, -2654.2025988343476, 0.0]
['beep', 0.0, 650.8380950496311, 0.0, 0.0, 0.0, 0.0, -2656.0801453685935, 0.0]
['beep', 0.0, 649.6758043379551, 0.0, 0.0, 0.0, 0.0, -2654.873151168007, 0.0]
['beep', 0.0, 650.9051502829969, 0.0, 0.0, 0.0, 0.0, -2654.1131918565266, 0.0]
['beep', 0.0, 650.4581153938908, 0.0, 0.0, 0.0, 0.0, -2655.521351757211, 0.0]
['beep', 0.0, 649.5863973601339, 0.0, 0.0, 0.0, 0.0, -2656.3707180465126, 0.0]
['beep', 0.0, 649.742859571321, 0.0, 0.0, 0.0, 0.0, -2657.1530291024483, 0.0]
['beep', 0.0, 650.9945572608182, 0.0, 0.0, 0.0, 0.0, -2656.996566891261, 0.0]
['beep', 0.0, 652.2239032058601, 0.0, 0.0, 0.0, 0.0, -2656.929511657895, 0.0]
['beep', 0.0, 652.4697723948684, 0.0, 0.0, 0.0, 0.0, -2656.0801453685935, 0.0]
['beep', 0.0, 651.1733712164606, 0.0, 0.0, 0.0, 0.0, -2656.0801453685935, 0.0]
['beep', 0.0, 650.3016531827037, 0.0, 0.0, 0.0, 0.0, -2656.4154215354233, 0.0]
['beep', 0.0, 650.9722055163629, 0.0, 0.0, 0.0, 0.0, -2657.0859738690824, 0.0]
['beep', 0.0, 650.5698741161674, 0.0, 0.0, 0.0, 0.0, -2657.1083256135375, 0.0]
['beep', 0.0, 651.9109787834858, 0.0, 0.0, 0.0, 0.0, -2656.3707180465126, 0.0]
['beep', 0.0, 651.2404264498266, 0.0, 0.0, 0.0, 0.0, -2658.0918023695713, 0.0]
['beep', 0.0, 650.4804671383462, 0.0, 0.0, 0.0, 0.0, -2657.9576919028395, 0.0]
['beep', 0.0, 622.9878214583184, 0.0, 0.0, 0.0, 0.0, -2657.5330087581883, 0.0]
['beep', 0.0, 561.7216899063218, 0.0, 0.0, 0.0, 0.0, -2657.3094913136356, 0.0]
['beep', 0.0, 572.5399342226904, 0.0, 0.0, 0.0, 0.0, -2655.946034901862, 0.0]
['beep', 0.0, 637.0917722096173, 0.0, 0.0, 0.0, 0.0, -2657.0859738690824, 0.0]
['beep', 0.0, 651.3968886610137, 0.0, 0.0, 0.0, 0.0, -2658.0470988806605, 0.0]
['beep', 0.0, 651.195722960916, 0.0, 0.0, 0.0, 0.0, -2656.9518634023507, 0.0]
['beep', 0.0, 652.2686066947707, 0.0, 0.0, 0.0, 0.0, -2657.6000639915546, 0.0]
['beep', 0.0, 652.4921241393238, 0.0, 0.0, 0.0, 0.0, -2656.7283459577975, 0.0]
['beep', 0.0, 652.8497520506087, 0.0, 0.0, 0.0, 0.0, -2656.169552346415, 0.0]
['beep', 0.0, 651.3298334276478, 0.0, 0.0, 0.0, 0.0, -2656.884808168985, 0.0]
['beep', 0.0, 653.0956212396171, 0.0, 0.0, 0.0, 0.0, -2658.2706163252137, 0.0]
['beep', 0.0, 653.0732694951618, 0.0, 0.0, 0.0, 0.0, -2657.130677357993, 0.0]
['beep', 0.0, 653.1403247285277, 0.0, 0.0, 0.0, 0.0, -2656.8624564245292, 0.0]
['beep', 0.0, 653.3191386841702, 0.0, 0.0, 0.0, 0.0, -2657.577712247099, 0.0]
['beep', 0.0, 652.6709380949662, 0.0, 0.0, 0.0, 0.0, -2658.3823750474903, 0.0]
['beep', 0.0, 652.0674409946729, 0.0, 0.0, 0.0, 0.0, -2657.912988413929, 0.0]
['beep', 0.0, 652.6932898394215, 0.0, 0.0, 0.0, 0.0, -2658.449430280856, 0.0]
['beep', 0.0, 653.3191386841702, 0.0, 0.0, 0.0, 0.0, -2656.8177529356185, 0.0]
['beep', 0.0, 652.872103795064, 0.0, 0.0, 0.0, 0.0, -2658.0918023695713, 0.0]
['beep', 0.0, 652.0450892502176, 0.0, 0.0, 0.0, 0.0, -2658.158857602937, 0.0]
['beep', 0.0, 643.6855368239328, 0.0, 0.0, 0.0, 0.0, -2656.974215146806, 0.0]
['beep', 0.0, 581.681797704911, 0.0, 0.0, 0.0, 0.0, -2657.3988982914566, 0.0]
['beep', 0.0, 570.4835737328021, 0.0, 0.0, 0.0, 0.0, -2659.544665759166, 0.0]
['beep', 0.0, 634.9683564863631, 0.0, 0.0, 0.0, 0.0, -2660.505790770744, 0.0]
['beep', 0.0, 650.5698741161674, 0.0, 0.0, 0.0, 0.0, -2659.2764448257026, 0.0]
['beep', 0.0, 651.8215718056646, 0.0, 0.0, 0.0, 0.0, -2657.9800436472947, 0.0]
['beep', 0.0, 652.4697723948684, 0.0, 0.0, 0.0, 0.0, -2660.3269768151017, 0.0]
['beep', 0.0, 652.872103795064, 0.0, 0.0, 0.0, 0.0, -2659.745831459264, 0.0]
['beep', 0.0, 652.7826968172427, 0.0, 0.0, 0.0, 0.0, -2658.7176512143196, 0.0]
['beep', 0.0, 651.8215718056646, 0.0, 0.0, 0.0, 0.0, -2657.935340158384, 0.0]
['beep', 0.0, 651.3968886610137, 0.0, 0.0, 0.0, 0.0, -2658.6729477254094, 0.0]
['beep', 0.0, 652.5368276282344, 0.0, 0.0, 0.0, 0.0, -2658.516485514222, 0.0]
['beep', 0.0, 651.4639438943797, 0.0, 0.0, 0.0, 0.0, -2658.136505858482, 0.0]
['beep', 0.0, 651.2627781942819, 0.0, 0.0, 0.0, 0.0, -2658.203561091848, 0.0]
['beep', 0.0, 651.7992200612092, 0.0, 0.0, 0.0, 0.0, -2658.851761681052, 0.0]
['beep', 0.0, 651.0616124941841, 0.0, 0.0, 0.0, 0.0, -2658.538837258677, 0.0]
['beep', 0.0, 653.1403247285277, 0.0, 0.0, 0.0, 0.0, -2657.9800436472947, 0.0]
['beep', 0.0, 653.5203043842679, 0.0, 0.0, 0.0, 0.0, -2657.0412703801717, 0.0]
['beep', 0.0, 653.0732694951618, 0.0, 0.0, 0.0, 0.0, -2658.3600233030347, 0.0]
['beep', 0.0, 652.4921241393238, 0.0, 0.0, 0.0, 0.0, -2658.5611890031328, 0.0]
['beep', 0.0, 652.9615107728853, 0.0, 0.0, 0.0, 0.0, -2658.3153198141245, 0.0]
['beep', 0.0, 653.4085456619914, 0.0, 0.0, 0.0, 0.0, -2656.996566891261, 0.0]
['beep', 0.0, 654.0567462511952, 0.0, 0.0, 0.0, 0.0, -2656.929511657895, 0.0]
['beep', 0.0, 653.453249150902, 0.0, 0.0, 0.0, 0.0, -2657.4436017803673, 0.0]
['beep', 0.0, 651.195722960916, 0.0, 0.0, 0.0, 0.0, -2658.292968069669, 0.0]
['beep', 0.0, 608.4144840734582, 0.0, 0.0, 0.0, 0.0, -2658.740002958775, 0.0]
['beep', 0.0, 557.296044504171, 0.0, 0.0, 0.0, 0.0, -2659.544665759166, 0.0]
['beep', 0.0, 572.3611202670479, 0.0, 0.0, 0.0, 0.0, -2657.7565262027415, 0.0]
['beep', 0.0, 636.5553303426898, 0.0, 0.0, 0.0, 0.0, -2657.868284925018, 0.0]
['beep', 0.0, 651.5757026166561, 0.0, 0.0, 0.0, 0.0, -2657.6000639915546, 0.0]
['beep', 0.0, 651.4862956388349, 0.0, 0.0, 0.0, 0.0, -2657.1083256135375, 0.0]
['beep', 0.0, 653.3191386841702, 0.0, 0.0, 0.0, 0.0, -2656.9518634023507, 0.0]
['beep', 0.0, 652.9615107728853, 0.0, 0.0, 0.0, 0.0, -2658.6729477254094, 0.0]
['beep', 0.0, 651.7321648278433, 0.0, 0.0, 0.0, 0.0, -2657.28713956918, 0.0]
['beep', 0.0, 650.9722055163629, 0.0, 0.0, 0.0, 0.0, -2657.3094913136356, 0.0]
['beep', 0.0, 650.7263363273545, 0.0, 0.0, 0.0, 0.0, -2658.292968069669, 0.0]
['beep', 0.0, 654.1238014845612, 0.0, 0.0, 0.0, 0.0, -2657.1530291024483, 0.0]
['beep', 0.0, 655.420202662969, 0.0, 0.0, 0.0, 0.0, -2655.9236831574062, 0.0]
['beep', 0.0, 654.3696706735695, 0.0, 0.0, 0.0, 0.0, -2654.962558145828, 0.0]
['beep', 0.0, 651.7992200612092, 0.0, 0.0, 0.0, 0.0, -2654.873151168007, 0.0]
['beep', 0.0, 653.3414904286254, 0.0, 0.0, 0.0, 0.0, -2655.007261634739, 0.0]
['beep', 0.0, 654.1461532290165, 0.0, 0.0, 0.0, 0.0, -2654.7613924457305, 0.0]
['beep', 0.0, 653.9896910178294, 0.0, 0.0, 0.0, 0.0, -2656.884808168985, 0.0]
['beep', 0.0, 652.6485863505109, 0.0, 0.0, 0.0, 0.0, -2655.6331104794876, 0.0]
['beep', 0.0, 650.9051502829969, 0.0, 0.0, 0.0, 0.0, -2655.163723845926, 0.0]
['beep', 0.0, 652.000385761307, 0.0, 0.0, 0.0, 0.0, -2656.594235491066, 0.0]
['beep', 0.0, 654.03439450674, 0.0, 0.0, 0.0, 0.0, -2656.482476768789, 0.0]
['beep', 0.0, 653.6544148509997, 0.0, 0.0, 0.0, 0.0, -2656.258959324236, 0.0]
['beep', 0.0, 653.3638421730808, 0.0, 0.0, 0.0, 0.0, -2656.974215146806, 0.0]
['beep', 0.0, 651.8886270390304, 0.0, 0.0, 0.0, 0.0, -2655.521351757211, 0.0]
['beep', 0.0, 612.2589841197711, 0.0, 0.0, 0.0, 0.0, -2654.4708197678115, 0.0]
['beep', 0.0, 557.0501753151626, 0.0, 0.0, 0.0, 0.0, -2655.543703501666, 0.0]
['beep', 0.0, 567.9131231204418, 0.0, 0.0, 0.0, 0.0, -2655.878979668496, 0.0]
['beep', 0.0, 632.5990715741004, 0.0, 0.0, 0.0, 0.0, -2656.8177529356185, 0.0]
['beep', 0.0, 653.0732694951618, 0.0, 0.0, 0.0, 0.0, -2656.594235491066, 0.0]
['beep', 0.0, 653.4979526398126, 0.0, 0.0, 0.0, 0.0, -2655.4766482683003, 0.0]
['beep', 0.0, 654.615539862578, 0.0, 0.0, 0.0, 0.0, -2656.3707180465126, 0.0]
['beep', 0.0, 654.8614090515863, 0.0, 0.0, 0.0, 0.0, -2655.7672209462194, 0.0]
['beep', 0.0, 653.8108770621869, 0.0, 0.0, 0.0, 0.0, -2655.230779079292, 0.0]
['beep', 0.0, 653.2744351952596, 0.0, 0.0, 0.0, 0.0, -2654.023784878705, 0.0]
['beep', 0.0, 654.3696706735695, 0.0, 0.0, 0.0, 0.0, -2654.00143313425, 0.0]
['beep', 0.0, 654.9061125404969, 0.0, 0.0, 0.0, 0.0, -2655.878979668496, 0.0]
['beep', 0.0, 655.8895892965304, 0.0, 0.0, 0.0, 0.0, -2655.0966686125603, 0.0]
['beep', 0.0, 655.0402230072287, 0.0, 0.0, 0.0, 0.0, -2655.1860755903813, 0.0]
['beep', 0.0, 653.6320631065445, 0.0, 0.0, 0.0, 0.0, -2655.230779079292, 0.0]
['beep', 0.0, 653.5873596176339, 0.0, 0.0, 0.0, 0.0, -2655.1413721014706, 0.0]
['beep', 0.0, 655.4872578963349, 0.0, 0.0, 0.0, 0.0, -2656.2142558353253, 0.0]
['beep', 0.0, 655.2190369628712, 0.0, 0.0, 0.0, 0.0, -2655.9907383907725, 0.0]
['beep', 0.0, 654.7272985848545, 0.0, 0.0, 0.0, 0.0, -2657.555360502644, 0.0]
['beep', 0.0, 653.9449875289188, 0.0, 0.0, 0.0, 0.0, -2655.297834312658, 0.0]
['beep', 0.0, 652.2462549503153, 0.0, 0.0, 0.0, 0.0, -2654.38141278999, 0.0]
['beep', 0.0, 653.0285660062511, 0.0, 0.0, 0.0, 0.0, -2655.163723845926, 0.0]
['beep', 0.0, 654.03439450674, 0.0, 0.0, 0.0, 0.0, -2654.5602267456325, 0.0]
['beep', 0.0, 653.9002840400082, 0.0, 0.0, 0.0, 0.0, -2652.90619765594, 0.0]
['beep', 0.0, 652.6932898394215, 0.0, 0.0, 0.0, 0.0, -2653.5096947562333, 0.0]
['beep', 0.0, 622.6748970359441, 0.0, 0.0, 0.0, 0.0, -2654.2473023232583, 0.0]
['beep', 0.0, 563.2192567848274, 0.0, 0.0, 0.0, 0.0, -2654.0908401120714, 0.0]
['beep', 0.0, 571.2211812998273, 0.0, 0.0, 0.0, 0.0, -2654.515523256722, 0.0]
['beep', 0.0, 635.258929164282, 0.0, 0.0, 0.0, 0.0, -2654.671985467909, 0.0]
['beep', 0.0, 653.9896910178294, 0.0, 0.0, 0.0, 0.0, -2653.7332122007865, 0.0]
['beep', 0.0, 654.9955195183181, 0.0, 0.0, 0.0, 0.0, -2653.576749989599, 0.0]
['beep', 0.0, 655.3084439406924, 0.0, 0.0, 0.0, 0.0, -2653.66615696742, 0.0]
['beep', 0.0, 656.5601416301896, 0.0, 0.0, 0.0, 0.0, -2653.420287778412, 0.0]
['beep', 0.0, 656.3366241856365, 0.0, 0.0, 0.0, 0.0, -2654.0461366231607, 0.0]
['beep', 0.0, 654.7496503293098, 0.0, 0.0, 0.0, 0.0, -2654.38141278999, 0.0]
['beep', 0.0, 654.1238014845612, 0.0, 0.0, 0.0, 0.0, -2654.4261162789007, 0.0]
['beep', 0.0, 654.8167055626757, 0.0, 0.0, 0.0, 0.0, -2654.2473023232583, 0.0]
['beep', 0.0, 656.4260311634578, 0.0, 0.0, 0.0, 0.0, -2655.253130823747, 0.0]
['beep', 0.0, 655.6437201075221, 0.0, 0.0, 0.0, 0.0, -2655.968386646317, 0.0]
['beep', 0.0, 655.1743334739606, 0.0, 0.0, 0.0, 0.0, -2656.3036628131467, 0.0]
['beep', 0.0, 655.7331270853433, 0.0, 0.0, 0.0, 0.0, -2656.8177529356185, 0.0]
['beep', 0.0, 656.3142724411813, 0.0, 0.0, 0.0, 0.0, -2657.1530291024483, 0.0]
['beep', 0.0, 657.387156175036, 0.0, 0.0, 0.0, 0.0, -2657.510657013733, 0.0]
['beep', 0.0, 656.0236997632622, 0.0, 0.0, 0.0, 0.0, -2657.644767480465, 0.0]
['beep', 0.0, 655.12962998505, 0.0, 0.0, 0.0, 0.0, -2657.2424360802697, 0.0]
['beep', 0.0, 638.0528972211954, 0.0, 0.0, 0.0, 0.0, -2659.7905349481744, 0.0]
['beep', 0.0, 574.1716115679278, 0.0, 0.0, 0.0, 0.0, -2659.3435000590684, 0.0]
['beep', 0.0, 574.4174807569362, 0.0, 0.0, 0.0, 0.0, -2657.1530291024483, 0.0]
['beep', 0.0, 640.0869059666284, 0.0, 0.0, 0.0, 0.0, -2657.3988982914566, 0.0]
['beep', 0.0, 655.6660718519773, 0.0, 0.0, 0.0, 0.0, -2657.220084335814, 0.0]
['beep', 0.0, 654.548484629212, 0.0, 0.0, 0.0, 0.0, -2656.0577936241384, 0.0]
['beep', 0.0, 655.9566445298964, 0.0, 0.0, 0.0, 0.0, -2657.6224157360098, 0.0]
['beep', 0.0, 656.0684032521729, 0.0, 0.0, 0.0, 0.0, -2657.9800436472947, 0.0]
['beep', 0.0, 655.5543131297009, 0.0, 0.0, 0.0, 0.0, -2656.3707180465126, 0.0]
['beep', 0.0, 655.2860921962372, 0.0, 0.0, 0.0, 0.0, -2656.549532002155, 0.0]
['beep', 0.0, 655.0402230072287, 0.0, 0.0, 0.0, 0.0, -2656.929511657895, 0.0]
['beep', 0.0, 657.0742317526617, 0.0, 0.0, 0.0, 0.0, -2657.28713956918, 0.0]
['beep', 0.0, 655.9119410409858, 0.0, 0.0, 0.0, 0.0, -2658.158857602937, 0.0]
['beep', 0.0, 656.3142724411813, 0.0, 0.0, 0.0, 0.0, -2657.7565262027415, 0.0]
['beep', 0.0, 656.3142724411813, 0.0, 0.0, 0.0, 0.0, -2656.974215146806, 0.0]
['beep', 0.0, 657.0071765192959, 0.0, 0.0, 0.0, 0.0, -2657.264787824725, 0.0]
['beep', 0.0, 657.4095079194914, 0.0, 0.0, 0.0, 0.0, -2658.0918023695713, 0.0]
['beep', 0.0, 656.4036794190025, 0.0, 0.0, 0.0, 0.0, -2657.0636221246273, 0.0]
['beep', 0.0, 656.7613073302874, 0.0, 0.0, 0.0, 0.0, -2657.0412703801717, 0.0]
['beep', 0.0, 655.3084439406924, 0.0, 0.0, 0.0, 0.0, -2657.801229691652, 0.0]
['beep', 0.0, 655.7554788297986, 0.0, 0.0, 0.0, 0.0, -2658.4717820253113, 0.0]
['beep', 0.0, 657.2977491972148, 0.0, 0.0, 0.0, 0.0, -2658.9858721477835, 0.0]
['beep', 0.0, 657.2753974527595, 0.0, 0.0, 0.0, 0.0, -2657.644767480465, 0.0]
['beep', 0.0, 656.1131067410835, 0.0, 0.0, 0.0, 0.0, -2657.868284925018, 0.0]
['beep', 0.0, 654.7720020737651, 0.0, 0.0, 0.0, 0.0, -2658.00239539175, 0.0]
['beep', 0.0, 620.6632400349665, 0.0, 0.0, 0.0, 0.0, -2656.840104680074, 0.0]
['beep', 0.0, 563.8004021406654, 0.0, 0.0, 0.0, 0.0, -2658.158857602937, 0.0]
['beep', 0.0, 574.1939633123832, 0.0, 0.0, 0.0, 0.0, -2657.4436017803673, 0.0]
['beep', 0.0, 639.9304437554412, 0.0, 0.0, 0.0, 0.0, -2658.203561091848, 0.0]
['beep', 0.0, 656.0460515077176, 0.0, 0.0, 0.0, 0.0, -2659.187037847881, 0.0]
['beep', 0.0, 655.5319613852455, 0.0, 0.0, 0.0, 0.0, -2657.7341744582864, 0.0]
['beep', 0.0, 656.4260311634578, 0.0, 0.0, 0.0, 0.0, -2659.142334358971, 0.0]
['beep', 0.0, 657.1412869860277, 0.0, 0.0, 0.0, 0.0, -2658.3376715585796, 0.0]
['beep', 0.0, 658.4823916533461, 0.0, 0.0, 0.0, 0.0, -2658.136505858482, 0.0]
['beep', 0.0, 658.7282608423544, 0.0, 0.0, 0.0, 0.0, -2657.264787824725, 0.0]
['beep', 0.0, 659.8234963206645, 0.0, 0.0, 0.0, 0.0, -2654.8507994235515, 0.0]
['beep', 0.0, 660.7175660988768, 0.0, 0.0, 0.0, 0.0, -2655.588406990577, 0.0]
['beep', 0.0, 661.969263788374, 0.0, 0.0, 0.0, 0.0, -2655.744869201764, 0.0]
['beep', 0.0, 659.8011445762091, 0.0, 0.0, 0.0, 0.0, -2655.7672209462194, 0.0]
['beep', 0.0, 657.4765631528572, 0.0, 0.0, 0.0, 0.0, -2655.4766482683003, 0.0]
['beep', 0.0, 657.8788945530528, 0.0, 0.0, 0.0, 0.0, -2654.962558145828, 0.0]
['beep', 0.0, 658.7506125868098, 0.0, 0.0, 0.0, 0.0, -2654.940206401373, 0.0]
['beep', 0.0, 658.7282608423544, 0.0, 0.0, 0.0, 0.0, -2656.2142558353253, 0.0]
['beep', 0.0, 658.2812259532483, 0.0, 0.0, 0.0, 0.0, -2656.326014557602, 0.0]
['beep', 0.0, 658.6165021200779, 0.0, 0.0, 0.0, 0.0, -2655.3648895460237, 0.0]
['beep', 0.0, 657.9906532753294, 0.0, 0.0, 0.0, 0.0, -2657.1530291024483, 0.0]
['beep', 0.0, 657.8565428085975, 0.0, 0.0, 0.0, 0.0, -2657.890636669473, 0.0]
['beep', 0.0, 656.4260311634578, 0.0, 0.0, 0.0, 0.0, -2656.8624564245292, 0.0]
['beep', 0.0, 652.4027171615026, 0.0, 0.0, 0.0, 0.0, -2655.029613379194, 0.0]
['beep', 0.0, 649.4522868934021, 0.0, 0.0, 0.0, 0.0, -2654.2473023232583, 0.0]
['beep', 0.0, 607.6321730175225, 0.0, 0.0, 0.0, 0.0, -2654.8060959346412, 0.0]
['beep', 0.0, 558.4806869603023, 0.0, 0.0, 0.0, 0.0, -2654.9849098902837, 0.0]
['beep', 0.0, 567.6225504425229, 0.0, 0.0, 0.0, 0.0, -2655.521351757211, 0.0]
['beep', 0.0, 632.3979058740027, 0.0, 0.0, 0.0, 0.0, -2655.0519651236496, 0.0]
['beep', 0.0, 652.9168072839747, 0.0, 0.0, 0.0, 0.0, -2654.292005812169, 0.0]
['beep', 0.0, 652.3580136725919, 0.0, 0.0, 0.0, 0.0, -2654.4708197678115, 0.0]
['beep', 0.0, 654.8167055626757, 0.0, 0.0, 0.0, 0.0, -2655.8566279240404, 0.0]
['beep', 0.0, 656.3142724411813, 0.0, 0.0, 0.0, 0.0, -2655.1860755903813, 0.0]
['beep', 0.0, 655.12962998505, 0.0, 0.0, 0.0, 0.0, -2654.4931715122666, 0.0]
['beep', 0.0, 654.8167055626757, 0.0, 0.0, 0.0, 0.0, -2654.7613924457305, 0.0]
['beep', 0.0, 654.6602433514886, 0.0, 0.0, 0.0, 0.0, -2654.8507994235515, 0.0]
['beep', 0.0, 657.0071765192959, 0.0, 0.0, 0.0, 0.0, -2654.4931715122666, 0.0]
['beep', 0.0, 657.4318596639466, 0.0, 0.0, 0.0, 0.0, -2655.878979668496, 0.0]
['beep', 0.0, 656.1578102299941, 0.0, 0.0, 0.0, 0.0, -2654.4261162789007, 0.0]
['beep', 0.0, 654.9955195183181, 0.0, 0.0, 0.0, 0.0, -2653.353232545046, 0.0]
['beep', 0.0, 655.0402230072287, 0.0, 0.0, 0.0, 0.0, -2654.314357556624, 0.0]
['beep', 0.0, 656.2695689522707, 0.0, 0.0, 0.0, 0.0, -2654.068488367616, 0.0]
['beep', 0.0, 656.6942520969214, 0.0, 0.0, 0.0, 0.0, -2655.320186057113, 0.0]
['beep', 0.0, 655.6660718519773, 0.0, 0.0, 0.0, 0.0, -2656.0801453685935, 0.0]
['beep', 0.0, 655.5990166186115, 0.0, 0.0, 0.0, 0.0, -2656.1024971130487, 0.0]
['beep', 0.0, 642.8138187901758, 0.0, 0.0, 0.0, 0.0, -2654.7613924457305, 0.0]
['beep', 0.0, 577.8149459141429, 0.0, 0.0, 0.0, 0.0, -2653.8896744119734, 0.0]
['beep', 0.0, 571.8023266556653, 0.0, 0.0, 0.0, 0.0, -2655.8566279240404, 0.0]
['beep', 0.0, 636.4659233648686, 0.0, 0.0, 0.0, 0.0, -2655.2084273348364, 0.0]
['beep', 0.0, 655.4425544074243, 0.0, 0.0, 0.0, 0.0, -2654.2473023232583, 0.0]
['beep', 0.0, 655.1519817295053, 0.0, 0.0, 0.0, 0.0, -2655.677813968398, 0.0]
['beep', 0.0, 656.8954177970193, 0.0, 0.0, 0.0, 0.0, -2657.197732591359, 0.0]
['beep', 0.0, 657.6106736195891, 0.0, 0.0, 0.0, 0.0, -2656.996566891261, 0.0]
['beep', 0.0, 657.0518800082065, 0.0, 0.0, 0.0, 0.0, -2655.4319447793896, 0.0]
['beep', 0.0, 656.2025137189047, 0.0, 0.0, 0.0, 0.0, -2656.5271802577, 0.0]
['beep', 0.0, 656.2025137189047, 0.0, 0.0, 0.0, 0.0, -2657.3988982914566, 0.0]
['beep', 0.0, 658.0577085086952, 0.0, 0.0, 0.0, 0.0, -2655.1413721014706, 0.0]
['beep', 0.0, 657.5659701306785, 0.0, 0.0, 0.0, 0.0, -2655.029613379194, 0.0]
['beep', 0.0, 656.7836590747427, 0.0, 0.0, 0.0, 0.0, -2655.9907383907725, 0.0]
['beep', 0.0, 657.1859904749383, 0.0, 0.0, 0.0, 0.0, -2656.1472006019594, 0.0]
['beep', 0.0, 657.454211408402, 0.0, 0.0, 0.0, 0.0, -2656.4154215354233, 0.0]
['beep', 0.0, 658.772964331265, 0.0, 0.0, 0.0, 0.0, -2655.7001657128535, 0.0]
['beep', 0.0, 659.5329236427455, 0.0, 0.0, 0.0, 0.0, -2655.878979668496, 0.0]
['beep', 0.0, 658.4823916533461, 0.0, 0.0, 0.0, 0.0, -2655.521351757211, 0.0]
['beep', 0.0, 659.1976474759159, 0.0, 0.0, 0.0, 0.0, -2654.582578490088, 0.0]
['beep', 0.0, 659.4658684093796, 0.0, 0.0, 0.0, 0.0, -2655.1413721014706, 0.0]
['beep', 0.0, 659.9799585318516, 0.0, 0.0, 0.0, 0.0, -2656.169552346415, 0.0]
['beep', 0.0, 660.0693655096728, 0.0, 0.0, 0.0, 0.0, -2656.169552346415, 0.0]
['beep', 0.0, 658.4823916533461, 0.0, 0.0, 0.0, 0.0, -2656.549532002155, 0.0]
['beep', 0.0, 657.8341910641421, 0.0, 0.0, 0.0, 0.0, -2655.543703501666, 0.0]
['beep', 0.0, 628.419295360958, 0.0, 0.0, 0.0, 0.0, -2654.9849098902837, 0.0]
['beep', 0.0, 567.9801783538078, 0.0, 0.0, 0.0, 0.0, -2655.677813968398, 0.0]
['beep', 0.0, 574.6409982014893, 0.0, 0.0, 0.0, 0.0, -2656.4154215354233, 0.0]
['beep', 0.0, 638.3658216435697, 0.0, 0.0, 0.0, 0.0, -2657.6671192249205, 0.0]
['beep', 0.0, 658.3259294421589, 0.0, 0.0, 0.0, 0.0, -2656.3930697909677, 0.0]
['beep', 0.0, 658.6612056089886, 0.0, 0.0, 0.0, 0.0, -2655.1860755903813, 0.0]
['beep', 0.0, 658.3259294421589, 0.0, 0.0, 0.0, 0.0, -2654.8507994235515, 0.0]
['beep', 0.0, 658.7953160757204, 0.0, 0.0, 0.0, 0.0, -2655.4095930349345, 0.0]
['beep', 0.0, 657.163638730483, 0.0, 0.0, 0.0, 0.0, -2657.8235814361074, 0.0]
['beep', 0.0, 656.1354584855388, 0.0, 0.0, 0.0, 0.0, -2656.169552346415, 0.0]
['beep', 0.0, 656.873066052564, 0.0, 0.0, 0.0, 0.0, -2656.4601250243336, 0.0]
['beep', 0.0, 658.0577085086952, 0.0, 0.0, 0.0, 0.0, -2657.644767480465, 0.0]
['beep', 0.0, 658.1694672309718, 0.0, 0.0, 0.0, 0.0, -2656.0801453685935, 0.0]
['beep', 0.0, 656.6719003524662, 0.0, 0.0, 0.0, 0.0, -2657.421250035912, 0.0]
['beep', 0.0, 654.9508160294075, 0.0, 0.0, 0.0, 0.0, -2656.236607579781, 0.0]
['beep', 0.0, 653.453249150902, 0.0, 0.0, 0.0, 0.0, -2658.0247471362054, 0.0]
['beep', 0.0, 650.03343224924, 0.0, 0.0, 0.0, 0.0, -2657.3318430580907, 0.0]
['beep', 0.0, 648.5582171151897, 0.0, 0.0, 0.0, 0.0, -2655.7001657128535, 0.0]
['beep', 0.0, 647.4406298924243, 0.0, 0.0, 0.0, 0.0, -2657.28713956918, 0.0]
['beep', 0.0, 643.4620193793797, 0.0, 0.0, 0.0, 0.0, -2657.555360502644, 0.0]
['beep', 0.0, 603.3629898265589, 0.0, 0.0, 0.0, 0.0, -2656.4377732798785, 0.0]
['beep', 0.0, 552.1551432794504, 0.0, 0.0, 0.0, 0.0, -2655.521351757211, 0.0]
['beep', 0.0, 565.3426725080816, 0.0, 0.0, 0.0, 0.0, -2656.258959324236, 0.0]
['beep', 0.0, 630.1180279395614, 0.0, 0.0, 0.0, 0.0, -2657.6671192249205, 0.0]
['beep', 0.0, 647.2394641923266, 0.0, 0.0, 0.0, 0.0, -2656.8624564245292, 0.0]
['beep', 0.0, 646.5912636031227, 0.0, 0.0, 0.0, 0.0, -2657.6000639915546, 0.0]
['beep', 0.0, 647.1053537255948, 0.0, 0.0, 0.0, 0.0, -2658.158857602937, 0.0]
['beep', 0.0, 646.5018566253015, 0.0, 0.0, 0.0, 0.0, -2658.248264580758, 0.0]
['beep', 0.0, 646.390097903025, 0.0, 0.0, 0.0, 0.0, -2658.851761681052, 0.0]
['beep', 0.0, 646.4571531363908, 0.0, 0.0, 0.0, 0.0, -2657.555360502644, 0.0]
['beep', 0.0, 646.4348013919356, 0.0, 0.0, 0.0, 0.0, -2657.6000639915546, 0.0]
['beep', 0.0, 647.5300368702456, 0.0, 0.0, 0.0, 0.0, -2658.6729477254094, 0.0]
['beep', 0.0, 647.5523886147009, 0.0, 0.0, 0.0, 0.0, -2658.248264580758, 0.0]
['beep', 0.0, 645.9207112694635, 0.0, 0.0, 0.0, 0.0, -2658.7623547032304, 0.0]
['beep', 0.0, 645.4736763803573, 0.0, 0.0, 0.0, 0.0, -2657.6000639915546, 0.0]
['beep', 0.0, 646.323042669659, 0.0, 0.0, 0.0, 0.0, -2658.2706163252137, 0.0]
['beep', 0.0, 646.7253740698545, 0.0, 0.0, 0.0, 0.0, -2660.170514603915, 0.0]
['beep', 0.0, 647.3959264035137, 0.0, 0.0, 0.0, 0.0, -2660.103459370549, 0.0]
['beep', 0.0, 646.2112839473825, 0.0, 0.0, 0.0, 0.0, -2659.3211483146133, 0.0]
['beep', 0.0, 644.2219786908602, 0.0, 0.0, 0.0, 0.0, -2658.158857602937, 0.0]
['beep', 0.0, 645.1831037024384, 0.0, 0.0, 0.0, 0.0, -2657.577712247099, 0.0]
['beep', 0.0, 645.8983595250082, 0.0, 0.0, 0.0, 0.0, -2658.2706163252137, 0.0]
['beep', 0.0, 647.2171124478713, 0.0, 0.0, 0.0, 0.0, -2657.510657013733, 0.0]
['beep', 0.0, 647.1500572145054, 0.0, 0.0, 0.0, 0.0, -2657.6224157360098, 0.0]
['beep', 0.0, 646.5465601142121, 0.0, 0.0, 0.0, 0.0, -2657.7118227138308, 0.0]
['beep', 0.0, 620.2385568903156, 0.0, 0.0, 0.0, 0.0, -2656.7059942133424, 0.0]
['beep', 0.0, 558.972425338319, 0.0, 0.0, 0.0, 0.0, -2656.5271802577, 0.0]
['beep', 0.0, 561.229951528305, 0.0, 0.0, 0.0, 0.0, -2657.890636669473, 0.0]
['beep', 0.0, 624.485388336824, 0.0, 0.0, 0.0, 0.0, -2657.3094913136356, 0.0]
['beep', 0.0, 646.5912636031227, 0.0, 0.0, 0.0, 0.0, -2657.0412703801717, 0.0]
['beep', 0.0, 647.9100165259858, 0.0, 0.0, 0.0, 0.0, -2657.2424360802697, 0.0]
['beep', 0.0, 647.9323682704411, 0.0, 0.0, 0.0, 0.0, -2657.130677357993, 0.0]
['beep', 0.0, 649.0723072376618, 0.0, 0.0, 0.0, 0.0, -2658.874113425507, 0.0]
['beep', 0.0, 648.2229409483601, 0.0, 0.0, 0.0, 0.0, -2658.516485514222, 0.0]
['beep', 0.0, 647.5747403591562, 0.0, 0.0, 0.0, 0.0, -2657.488305269278, 0.0]
['beep', 0.0, 646.9488915144076, 0.0, 0.0, 0.0, 0.0, -2658.248264580758, 0.0]
['beep', 0.0, 647.6194438480668, 0.0, 0.0, 0.0, 0.0, -2658.516485514222, 0.0]
['beep', 0.0, 648.9158450264747, 0.0, 0.0, 0.0, 0.0, -2658.4270785364006, 0.0]
['beep', 0.0, 647.8876647815305, 0.0, 0.0, 0.0, 0.0, -2658.0470988806605, 0.0]
['beep', 0.0, 646.8818362810417, 0.0, 0.0, 0.0, 0.0, -2658.3823750474903, 0.0]
['beep', 0.0, 646.5689118586674, 0.0, 0.0, 0.0, 0.0, -2658.3600233030347, 0.0]
['beep', 0.0, 648.8040863041981, 0.0, 0.0, 0.0, 0.0, -2658.7623547032304, 0.0]
['beep', 0.0, 648.289996181726, 0.0, 0.0, 0.0, 0.0, -2659.2093895923367, 0.0]
['beep', 0.0, 647.0382984922288, 0.0, 0.0, 0.0, 0.0, -2658.225912836303, 0.0]
['beep', 0.0, 646.6583188364887, 0.0, 0.0, 0.0, 0.0, -2658.449430280856, 0.0]
['beep', 0.0, 637.8070280321871, 0.0, 0.0, 0.0, 0.0, -2658.9858721477835, 0.0]
['beep', 0.0, 574.7527569237658, 0.0, 0.0, 0.0, 0.0, -2659.164686103426, 0.0]
['beep', 0.0, 564.1356783074949, 0.0, 0.0, 0.0, 0.0, -2660.2822733261914, 0.0]
['beep', 0.0, 627.0558389491844, 0.0, 0.0, 0.0, 0.0, -2659.522314014711, 0.0]
['beep', 0.0, 648.7817345597427, 0.0, 0.0, 0.0, 0.0, -2659.4776105258, 0.0]
['beep', 0.0, 648.7593828152875, 0.0, 0.0, 0.0, 0.0, -2659.164686103426, 0.0]
['beep', 0.0, 649.5640456156785, 0.0, 0.0, 0.0, 0.0, -2658.292968069669, 0.0]
['beep', 0.0, 650.0557839936953, 0.0, 0.0, 0.0, 0.0, -2659.5670175036216, 0.0]
['beep', 0.0, 649.161714215483, 0.0, 0.0, 0.0, 0.0, -2659.2987965701577, 0.0]
['beep', 0.0, 647.8876647815305, 0.0, 0.0, 0.0, 0.0, -2660.2375698372807, 0.0]
['beep', 0.0, 647.2394641923266, 0.0, 0.0, 0.0, 0.0, -2659.4999622702558, 0.0]
['beep', 0.0, 649.2958246822149, 0.0, 0.0, 0.0, 0.0, -2660.6399012374764, 0.0]
['beep', 0.0, 652.2462549503153, 0.0, 0.0, 0.0, 0.0, -2662.226875093803, 0.0]
['beep', 0.0, 650.7263363273545, 0.0, 0.0, 0.0, 0.0, -2661.0422326376715, 0.0]
['beep', 0.0, 649.8993217825082, 0.0, 0.0, 0.0, 0.0, -2658.494133769767, 0.0]
['beep', 0.0, 650.3463566716143, 0.0, 0.0, 0.0, 0.0, -2660.036404137183, 0.0]
['beep', 0.0, 649.4075834044914, 0.0, 0.0, 0.0, 0.0, -2662.9421309163727, 0.0]
['beep', 0.0, 649.8546182935976, 0.0, 0.0, 0.0, 0.0, -2660.9304739153954, 0.0]
['beep', 0.0, 649.5193421267679, 0.0, 0.0, 0.0, 0.0, -2659.678776225898, 0.0]
['beep', 0.0, 647.9994235038071, 0.0, 0.0, 0.0, 0.0, -2659.455258781345, 0.0]
['beep', 0.0, 638.7681530437652, 0.0, 0.0, 0.0, 0.0, -2660.3269768151017, 0.0]
['beep', 0.0, 576.5632482246457, 0.0, 0.0, 0.0, 0.0, -2660.505790770744, 0.0]
['beep', 0.0, 562.1240213065173, 0.0, 0.0, 0.0, 0.0, -2661.0198808932164, 0.0]
['beep', 0.0, 625.6700307929553, 0.0, 0.0, 0.0, 0.0, -2660.0140523927275, 0.0]
['beep', 0.0, 648.4017549040026, 0.0, 0.0, 0.0, 0.0, -2661.064584382127, 0.0]
['beep', 0.0, 648.1111822260835, 0.0, 0.0, 0.0, 0.0, -2660.9528256598505, 0.0]
['beep', 0.0, 648.9605485153853, 0.0, 0.0, 0.0, 0.0, -2660.90812217094, 0.0]
['beep', 0.0, 649.9663770158741, 0.0, 0.0, 0.0, 0.0, -2660.5728460041105, 0.0]
['beep', 0.0, 649.4522868934021, 0.0, 0.0, 0.0, 0.0, -2661.6680814824203, 0.0]
['beep', 0.0, 648.0441269927177, 0.0, 0.0, 0.0, 0.0, -2662.5845030050878, 0.0]
['beep', 0.0, 649.2734729377596, 0.0, 0.0, 0.0, 0.0, -2661.355157060046, 0.0]
['beep', 0.0, 650.6816328384439, 0.0, 0.0, 0.0, 0.0, -2661.6680814824203, 0.0]
['beep', 0.0, 651.5757026166561, 0.0, 0.0, 0.0, 0.0, -2661.6010262490545, 0.0]
['beep', 0.0, 650.6369293495333, 0.0, 0.0, 0.0, 0.0, -2661.3328053155906, 0.0]
['beep', 0.0, 650.3463566716143, 0.0, 0.0, 0.0, 0.0, -2660.9751774043057, 0.0]
['beep', 0.0, 650.1004874826059, 0.0, 0.0, 0.0, 0.0, -2660.796363448663, 0.0]
['beep', 0.0, 652.0897927391283, 0.0, 0.0, 0.0, 0.0, -2661.6233779935096, 0.0]
['beep', 0.0, 652.5368276282344, 0.0, 0.0, 0.0, 0.0, -2660.2375698372807, 0.0]
['beep', 0.0, 651.9780340168517, 0.0, 0.0, 0.0, 0.0, -2661.131639615493, 0.0]
['beep', 0.0, 652.6709380949662, 0.0, 0.0, 0.0, 0.0, -2661.645729737965, 0.0]
['beep', 0.0, 651.5309991277455, 0.0, 0.0, 0.0, 0.0, -2661.0869361265823, 0.0]
['beep', 0.0, 652.0897927391283, 0.0, 0.0, 0.0, 0.0, -2659.9469971593617, 0.0]
['beep', 0.0, 652.872103795064, 0.0, 0.0, 0.0, 0.0, -2660.6175494930208, 0.0]
['beep', 0.0, 652.0674409946729, 0.0, 0.0, 0.0, 0.0, -2662.6515582384536, 0.0]
['beep', 0.0, 651.4639438943797, 0.0, 0.0, 0.0, 0.0, -2662.159819860437, 0.0]
['beep', 0.0, 623.9489464698967, 0.0, 0.0, 0.0, 0.0, -2661.2657500822247, 0.0]
['beep', 0.0, 562.973387595819, 0.0, 0.0, 0.0, 0.0, -2662.137468115982, 0.0]
['beep', 0.0, 565.8567626305536, 0.0, 0.0, 0.0, 0.0, -2661.9586541603394, 0.0]
['beep', 0.0, 630.1850831729273, 0.0, 0.0, 0.0, 0.0, -2662.450392538356, 0.0]
['beep', 0.0, 652.0897927391283, 0.0, 0.0, 0.0, 0.0, -2661.9810059047945, 0.0]
['beep', 0.0, 651.9109787834858, 0.0, 0.0, 0.0, 0.0, -2661.2433983377696, 0.0]
['beep', 0.0, 652.8497520506087, 0.0, 0.0, 0.0, 0.0, -2659.544665759166, 0.0]
['beep', 0.0, 653.2967869397148, 0.0, 0.0, 0.0, 0.0, -2661.3104535711354, 0.0]
['beep', 0.0, 652.2015514614047, 0.0, 0.0, 0.0, 0.0, -2661.6680814824203, 0.0]
['beep', 0.0, 651.9780340168517, 0.0, 0.0, 0.0, 0.0, -2661.5339710156886, 0.0]
['beep', 0.0, 652.4474206504132, 0.0, 0.0, 0.0, 0.0, -2662.226875093803, 0.0]
['beep', 0.0, 653.3191386841702, 0.0, 0.0, 0.0, 0.0, -2662.3162820716243, 0.0]
['beep', 0.0, 652.5368276282344, 0.0, 0.0, 0.0, 0.0, -2662.472744282811, 0.0]
['beep', 0.0, 651.12866772755, 0.0, 0.0, 0.0, 0.0, -2660.0811076260934, 0.0]
['beep', 0.0, 651.0169090052735, 0.0, 0.0, 0.0, 0.0, -2660.3493285595573, 0.0]
['beep', 0.0, 651.3968886610137, 0.0, 0.0, 0.0, 0.0, -2660.9975291487613, 0.0]
['beep', 0.0, 653.0285660062511, 0.0, 0.0, 0.0, 0.0, -2662.472744282811, 0.0]
['beep', 0.0, 652.872103795064, 0.0, 0.0, 0.0, 0.0, -2661.802191949152, 0.0]
['beep', 0.0, 651.3521851721031, 0.0, 0.0, 0.0, 0.0, -2661.936302415884, 0.0]
['beep', 0.0, 651.5980543611115, 0.0, 0.0, 0.0, 0.0, -2661.936302415884, 0.0]
['beep', 0.0, 652.0450892502176, 0.0, 0.0, 0.0, 0.0, -2660.9975291487613, 0.0]
['beep', 0.0, 652.8274003061534, 0.0, 0.0, 0.0, 0.0, -2660.4387355373783, 0.0]
['beep', 0.0, 654.3473189291143, 0.0, 0.0, 0.0, 0.0, -2660.6846047263866, 0.0]
['beep', 0.0, 653.3638421730808, 0.0, 0.0, 0.0, 0.0, -2661.645729737965, 0.0]
['beep', 0.0, 652.7603450727875, 0.0, 0.0, 0.0, 0.0, -2661.064584382127, 0.0]
['beep', 0.0, 623.5689668141564, 0.0, 0.0, 0.0, 0.0, -2661.355157060046, 0.0]
['beep', 0.0, 562.2357800287939, 0.0, 0.0, 0.0, 0.0, -2661.109287871038, 0.0]
['beep', 0.0, 567.1308120645061, 0.0, 0.0, 0.0, 0.0, -2662.38333730499, 0.0]
['beep', 0.0, 631.6379465625223, 0.0, 0.0, 0.0, 0.0, -2663.5232762722108, 0.0]
['beep', 0.0, 653.2073799618936, 0.0, 0.0, 0.0, 0.0, -2662.5845030050878, 0.0]
['beep', 0.0, 654.1238014845612, 0.0, 0.0, 0.0, 0.0, -2663.165648360926, 0.0]
['beep', 0.0, 653.6991183399103, 0.0, 0.0, 0.0, 0.0, -2663.0538896386493, 0.0]
['beep', 0.0, 654.8837607960417, 0.0, 0.0, 0.0, 0.0, -2663.411517549934, 0.0]
['beep', 0.0, 654.1908567179271, 0.0, 0.0, 0.0, 0.0, -2662.3162820716243, 0.0]
['beep', 0.0, 653.2520834508042, 0.0, 0.0, 0.0, 0.0, -2661.131639615493, 0.0]
['beep', 0.0, 653.6320631065445, 0.0, 0.0, 0.0, 0.0, -2661.2881018266803, 0.0]
['beep', 0.0, 654.2355602068377, 0.0, 0.0, 0.0, 0.0, -2661.2881018266803, 0.0]
['beep', 0.0, 653.4085456619914, 0.0, 0.0, 0.0, 0.0, -2662.00335764925, 0.0]
['beep', 0.0, 653.3191386841702, 0.0, 0.0, 0.0, 0.0, -2661.5563227601438, 0.0]
['beep', 0.0, 652.5368276282344, 0.0, 0.0, 0.0, 0.0, -2660.818715193119, 0.0]
['beep', 0.0, 653.1850282174383, 0.0, 0.0, 0.0, 0.0, -2660.9528256598505, 0.0]
['beep', 0.0, 653.4085456619914, 0.0, 0.0, 0.0, 0.0, -2660.7293082152974, 0.0]
['beep', 0.0, 652.872103795064, 0.0, 0.0, 0.0, 0.0, -2660.19286634837, 0.0]
['beep', 0.0, 651.9556822723964, 0.0, 0.0, 0.0, 0.0, -2661.355157060046, 0.0]
['beep', 0.0, 652.2015514614047, 0.0, 0.0, 0.0, 0.0, -2660.90812217094, 0.0]
['beep', 0.0, 636.3094611536815, 0.0, 0.0, 0.0, 0.0, -2661.153991359948, 0.0]
['beep', 0.0, 570.617684199534, 0.0, 0.0, 0.0, 0.0, -2661.511619271233, 0.0]
['beep', 0.0, 567.197867297872, 0.0, 0.0, 0.0, 0.0, -2661.735136715786, 0.0]
['beep', 0.0, 631.3473738846033, 0.0, 0.0, 0.0, 0.0, -2662.6962617273643, 0.0]
['beep', 0.0, 652.6932898394215, 0.0, 0.0, 0.0, 0.0, -2662.517447771722, 0.0]
['beep', 0.0, 651.9556822723964, 0.0, 0.0, 0.0, 0.0, -2662.00335764925, 0.0]
['beep', 0.0, 653.0956212396171, 0.0, 0.0, 0.0, 0.0, -2662.8527239385517, 0.0]
['beep', 0.0, 652.9615107728853, 0.0, 0.0, 0.0, 0.0, -2661.8915989269735, 0.0]
['beep', 0.0, 652.872103795064, 0.0, 0.0, 0.0, 0.0, -2661.511619271233, 0.0]
['beep', 0.0, 653.0062142617959, 0.0, 0.0, 0.0, 0.0, -2661.779840204697, 0.0]
['beep', 0.0, 652.7156415838768, 0.0, 0.0, 0.0, 0.0, -2661.578674504599, 0.0]
['beep', 0.0, 653.3191386841702, 0.0, 0.0, 0.0, 0.0, -2661.2881018266803, 0.0]
['beep', 0.0, 653.743821828821, 0.0, 0.0, 0.0, 0.0, -2660.036404137183, 0.0]
['beep', 0.0, 654.1014497401059, 0.0, 0.0, 0.0, 0.0, -2661.0198808932164, 0.0]
['beep', 0.0, 653.9226357844634, 0.0, 0.0, 0.0, 0.0, -2661.064584382127, 0.0]
['beep', 0.0, 654.3249671846589, 0.0, 0.0, 0.0, 0.0, -2660.461087281834, 0.0]
['beep', 0.0, 653.6544148509997, 0.0, 0.0, 0.0, 0.0, -2661.3328053155906, 0.0]
['beep', 0.0, 653.6320631065445, 0.0, 0.0, 0.0, 0.0, -2661.221046593314, 0.0]
['beep', 0.0, 653.8779322955528, 0.0, 0.0, 0.0, 0.0, -2660.6846047263866, 0.0]
['beep', 0.0, 652.4027171615026, 0.0, 0.0, 0.0, 0.0, -2661.3328053155906, 0.0]
['beep', 0.0, 651.5757026166561, 0.0, 0.0, 0.0, 0.0, -2662.1151163715263, 0.0]
['beep', 0.0, 652.514475883779, 0.0, 0.0, 0.0, 0.0, -2661.1763431044037, 0.0]
['beep', 0.0, 652.581531117145, 0.0, 0.0, 0.0, 0.0, -2660.0811076260934, 0.0]
['beep', 0.0, 652.5368276282344, 0.0, 0.0, 0.0, 0.0, -2661.444564037867, 0.0]
['beep', 0.0, 653.4085456619914, 0.0, 0.0, 0.0, 0.0, -2661.109287871038, 0.0]
['beep', 0.0, 630.8779872510419, 0.0, 0.0, 0.0, 0.0, -2660.416383792923, 0.0]
['beep', 0.0, 568.002530098263, 0.0, 0.0, 0.0, 0.0, -2660.19286634837, 0.0]
['beep', 0.0, 572.3611202670479, 0.0, 0.0, 0.0, 0.0, -2658.829409936596, 0.0]
['beep', 0.0, 638.6116908325781, 0.0, 0.0, 0.0, 0.0, -2660.3269768151017, 0.0]
['beep', 0.0, 657.163638730483, 0.0, 0.0, 0.0, 0.0, -2658.583540747588, 0.0]
['beep', 0.0, 655.9789962743516, 0.0, 0.0, 0.0, 0.0, -2658.0470988806605, 0.0]
['beep', 0.0, 656.515438141279, 0.0, 0.0, 0.0, 0.0, -2660.2375698372807, 0.0]
['beep', 0.0, 656.0684032521729, 0.0, 0.0, 0.0, 0.0, -2659.9469971593617, 0.0]
['beep', 0.0, 654.6602433514886, 0.0, 0.0, 0.0, 0.0, -2661.6904332268755, 0.0]
['beep', 0.0, 650.7263363273545, 0.0, 0.0, 0.0, 0.0, -2663.679738483398, 0.0]
['beep', 0.0, 647.6641473369774, 0.0, 0.0, 0.0, 0.0, -2663.6350349944873, 0.0]
['beep', 0.0, 654.7720020737651, 0.0, 0.0, 0.0, 0.0, -2665.713747228831, 0.0]
['beep', 0.0, 664.0479760227175, 0.0, 0.0, 0.0, 0.0, -2670.8546484535514, 0.0]
['beep', 0.0, 665.5231911567678, 0.0, 0.0, 0.0, 0.0, -2674.0285961662053, 0.0]
['beep', 0.0, 668.1830487469493, 0.0, 0.0, 0.0, 0.0, -2675.704977000353, 0.0]
['beep', 0.0, 671.9157900709856, 0.0, 0.0, 0.0, 0.0, -2675.257942111247, 0.0]
['beep', 0.0, 672.8322115936533, 0.0, 0.0, 0.0, 0.0, -2674.6320932664985, 0.0]
['beep', 0.0, 671.0440720372286, 0.0, 0.0, 0.0, 0.0, -2674.162706632937, 0.0]
['beep', 0.0, 669.4123946919913, 0.0, 0.0, 0.0, 0.0, -2675.1461833889707, 0.0]
['beep', 0.0, 668.2724557247706, 0.0, 0.0, 0.0, 0.0, -2673.894485699473, 0.0]
['beep', 0.0, 666.7525371018097, 0.0, 0.0, 0.0, 0.0, -2672.486325798789, 0.0]
['beep', 0.0, 667.7136621133878, 0.0, 0.0, 0.0, 0.0, -2674.9673694333283, 0.0]
['beep', 0.0, 668.2724557247706, 0.0, 0.0, 0.0, 0.0, -2674.9450176888727, 0.0]
['beep', 0.0, 667.3336824576477, 0.0, 0.0, 0.0, 0.0, -2673.872133955018, 0.0]
['beep', 0.0, 666.484316168346, 0.0, 0.0, 0.0, 0.0, -2674.475631055311, 0.0]
['beep', 0.0, 655.710775340888, 0.0, 0.0, 0.0, 0.0, -2676.107308400549, 0.0]
['beep', 0.0, 592.7906146991986, 0.0, 0.0, 0.0, 0.0, -2676.420232822923, 0.0]
['beep', 0.0, 580.295989548682, 0.0, 0.0, 0.0, 0.0, -2677.3143026011353, 0.0]
['beep', 0.0, 644.3337374131366, 0.0, 0.0, 0.0, 0.0, -2676.420232822923, 0.0]
['beep', 0.0, 668.4736214248683, 0.0, 0.0, 0.0, 0.0, -2677.1131369010377, 0.0]
['beep', 0.0, 667.9148278134857, 0.0, 0.0, 0.0, 0.0, -2677.6942822568753, 0.0]
['beep', 0.0, 668.7418423583321, 0.0, 0.0, 0.0, 0.0, -2676.2637706117357, 0.0]
['beep', 0.0, 669.4570981809019, 0.0, 0.0, 0.0, 0.0, -2677.783689234697, 0.0]
['beep', 0.0, 669.5241534142677, 0.0, 0.0, 0.0, 0.0, -2678.9012764574622, 0.0]
['beep', 0.0, 669.032415036251, 0.0, 0.0, 0.0, 0.0, -2677.8283927236075, 0.0]
['beep', 0.0, 669.680615625455, 0.0, 0.0, 0.0, 0.0, -2677.3143026011353, 0.0]
['beep', 0.0, 669.0547667807064, 0.0, 0.0, 0.0, 0.0, -2677.738985745786, 0.0]
['beep', 0.0, 669.6582638809996, 0.0, 0.0, 0.0, 0.0, -2678.744814246275, 0.0]
['beep', 0.0, 669.6582638809996, 0.0, 0.0, 0.0, 0.0, -2678.8789247130067, 0.0]
['beep', 0.0, 669.9711883033739, 0.0, 0.0, 0.0, 0.0, -2678.1413171459817, 0.0]
['beep', 0.0, 669.7029673699102, 0.0, 0.0, 0.0, 0.0, -2677.5601717901436, 0.0]
['beep', 0.0, 671.3569964596029, 0.0, 0.0, 0.0, 0.0, -2678.320131101624, 0.0]
['beep', 0.0, 671.1334790150498, 0.0, 0.0, 0.0, 0.0, -2678.9459799463725, 0.0]
['beep', 0.0, 671.3122929706923, 0.0, 0.0, 0.0, 0.0, -2678.0519101681602, 0.0]
['beep', 0.0, 670.7311476148543, 0.0, 0.0, 0.0, 0.0, -2677.783689234697, 0.0]
['beep', 0.0, 670.6193888925778, 0.0, 0.0, 0.0, 0.0, -2678.834221224096, 0.0]
['beep', 0.0, 671.7146243708878, 0.0, 0.0, 0.0, 0.0, -2678.5436485461773, 0.0]
['beep', 0.0, 671.7593278597984, 0.0, 0.0, 0.0, 0.0, -2677.67193051242, 0.0]
['beep', 0.0, 671.6252173930666, 0.0, 0.0, 0.0, 0.0, -2677.8283927236075, 0.0]
['beep', 0.0, 670.9546650594074, 0.0, 0.0, 0.0, 0.0, -2677.6048752790543, 0.0]
['beep', 0.0, 651.0839642386394, 0.0, 0.0, 0.0, 0.0, -2677.873096212518, 0.0]
['beep', 0.0, 586.3086088071595, 0.0, 0.0, 0.0, 0.0, -2677.3143026011353, 0.0]
['beep', 0.0, 580.7877279266987, 0.0, 0.0, 0.0, 0.0, -2677.9401514458837, 0.0]
['beep', 0.0, 639.9751472443518, 0.0, 0.0, 0.0, 0.0, -2679.2142008798364, 0.0]
['beep', 0.0, 669.5018016698125, 0.0, 0.0, 0.0, 0.0, -2677.783689234697, 0.0]
['beep', 0.0, 669.2559324808041, 0.0, 0.0, 0.0, 0.0, -2679.10244215756, 0.0]
['beep', 0.0, 670.194705747927, 0.0, 0.0, 0.0, 0.0, -2679.057738668649, 0.0]
['beep', 0.0, 671.0217202927734, 0.0, 0.0, 0.0, 0.0, -2679.057738668649, 0.0]
['beep', 0.0, 671.222885992871, 0.0, 0.0, 0.0, 0.0, -2678.8789247130067, 0.0]
['beep', 0.0, 669.904133070008, 0.0, 0.0, 0.0, 0.0, -2679.013035179739, 0.0]
['beep', 0.0, 671.222885992871, 0.0, 0.0, 0.0, 0.0, -2678.5436485461773, 0.0]
['beep', 0.0, 672.0051970488068, 0.0, 0.0, 0.0, 0.0, -2679.057738668649, 0.0]
['beep', 0.0, 672.9216185714745, 0.0, 0.0, 0.0, 0.0, -2678.8789247130067, 0.0]
['beep', 0.0, 671.871086582075, 0.0, 0.0, 0.0, 0.0, -2680.5106020582443, 0.0]
['beep', 0.0, 671.2005342484158, 0.0, 0.0, 0.0, 0.0, -2679.4600700688447, 0.0]
['beep', 0.0, 671.804031348709, 0.0, 0.0, 0.0, 0.0, -2678.9459799463725, 0.0]
['beep', 0.0, 672.452231937913, 0.0, 0.0, 0.0, 0.0, -2678.834221224096, 0.0]
['beep', 0.0, 671.289941226237, 0.0, 0.0, 0.0, 0.0, -2679.7282910023087, 0.0]
['beep', 0.0, 671.2452377373264, 0.0, 0.0, 0.0, 0.0, -2679.683587513398, 0.0]
['beep', 0.0, 670.9546650594074, 0.0, 0.0, 0.0, 0.0, -2678.9906834352832, 0.0]
['beep', 0.0, 671.4240516929689, 0.0, 0.0, 0.0, 0.0, -2679.057738668649, 0.0]
['beep', 0.0, 670.999368548318, 0.0, 0.0, 0.0, 0.0, -2679.4600700688447, 0.0]
['beep', 0.0, 671.9381418154409, 0.0, 0.0, 0.0, 0.0, -2679.4377183243896, 0.0]
['beep', 0.0, 672.0275487932621, 0.0, 0.0, 0.0, 0.0, -2678.2083723793476, 0.0]
['beep', 0.0, 670.0158917922845, 0.0, 0.0, 0.0, 0.0, -2679.348311346568, 0.0]
['beep', 0.0, 637.5611588431786, 0.0, 0.0, 0.0, 0.0, -2680.130622402504, 0.0]
['beep', 0.0, 579.8266029151205, 0.0, 0.0, 0.0, 0.0, -2680.5106020582443, 0.0]
['beep', 0.0, 584.4087105284584, 0.0, 0.0, 0.0, 0.0, -2680.8905817139844, 0.0]
['beep', 0.0, 646.9488915144076, 0.0, 0.0, 0.0, 0.0, -2681.4940788142776, 0.0]
['beep', 0.0, 669.8594295810974, 0.0, 0.0, 0.0, 0.0, -2681.1588026474483, 0.0]
['beep', 0.0, 668.8759528250639, 0.0, 0.0, 0.0, 0.0, -2681.4717270698225, 0.0]
['beep', 0.0, 671.222885992871, 0.0, 0.0, 0.0, 0.0, -2680.57765729161, 0.0]
['beep', 0.0, 672.2063627489046, 0.0, 0.0, 0.0, 0.0, -2680.935285202895, 0.0]
['beep', 0.0, 670.7534993593097, 0.0, 0.0, 0.0, 0.0, -2681.002340436261, 0.0]
['beep', 0.0, 670.0829470256505, 0.0, 0.0, 0.0, 0.0, -2680.734119502797, 0.0]
['beep', 0.0, 670.1500022590163, 0.0, 0.0, 0.0, 0.0, -2681.069395669627, 0.0]
['beep', 0.0, 670.0382435367399, 0.0, 0.0, 0.0, 0.0, -2680.2423811247804, 0.0]
['beep', 0.0, 671.3569964596029, 0.0, 0.0, 0.0, 0.0, -2681.3376166030907, 0.0]
['beep', 0.0, 671.3793482040583, 0.0, 0.0, 0.0, 0.0, -2681.9187619589284, 0.0]
['beep', 0.0, 669.7476708588208, 0.0, 0.0, 0.0, 0.0, -2679.8847532134955, 0.0]
['beep', 0.0, 670.41822319248, 0.0, 0.0, 0.0, 0.0, -2679.393014835479, 0.0]
['beep', 0.0, 671.4016999485135, 0.0, 0.0, 0.0, 0.0, -2681.4270235809117, 0.0]
['beep', 0.0, 671.4016999485135, 0.0, 0.0, 0.0, 0.0, -2681.449375325367, 0.0]
['beep', 0.0, 670.8876098260415, 0.0, 0.0, 0.0, 0.0, -2680.9129334584395, 0.0]
['beep', 0.0, 669.3676912030807, 0.0, 0.0, 0.0, 0.0, -2681.359968347546, 0.0]
['beep', 0.0, 669.4347464364465, 0.0, 0.0, 0.0, 0.0, -2681.516430558733, 0.0]
['beep', 0.0, 669.5465051587231, 0.0, 0.0, 0.0, 0.0, -2680.935285202895, 0.0]
['beep', 0.0, 669.5465051587231, 0.0, 0.0, 0.0, 0.0, -2680.667064269431, 0.0]
['beep', 0.0, 670.41822319248, 0.0, 0.0, 0.0, 0.0, -2680.4882503137887, 0.0]
['beep', 0.0, 669.3453394586253, 0.0, 0.0, 0.0, 0.0, -2680.0188636802272, 0.0]
['beep', 0.0, 644.4901996243239, 0.0, 0.0, 0.0, 0.0, -2680.331788102602, 0.0]
['beep', 0.0, 581.4359285159027, 0.0, 0.0, 0.0, 0.0, -2680.3094363581463, 0.0]
['beep', 0.0, 579.0889953480954, 0.0, 0.0, 0.0, 0.0, -2679.8847532134955, 0.0]
['beep', 0.0, 638.902263510497, 0.0, 0.0, 0.0, 0.0, -2680.57765729161, 0.0]
['beep', 0.0, 670.3735197035694, 0.0, 0.0, 0.0, 0.0, -2680.4658985693336, 0.0]
['beep', 0.0, 671.871086582075, 0.0, 0.0, 0.0, 0.0, -2682.2093346368474, 0.0]
['beep', 0.0, 672.4075284490024, 0.0, 0.0, 0.0, 0.0, -2682.4552038258557, 0.0]
['beep', 0.0, 672.5416389157342, 0.0, 0.0, 0.0, 0.0, -2681.67289276992, 0.0]
['beep', 0.0, 671.7593278597984, 0.0, 0.0, 0.0, 0.0, -2683.706901515353, 0.0]
['beep', 0.0, 671.3793482040583, 0.0, 0.0, 0.0, 0.0, -2683.8186602376295, 0.0]
['beep', 0.0, 670.5746854036672, 0.0, 0.0, 0.0, 0.0, -2684.131584660004, 0.0]
['beep', 0.0, 671.2675894817817, 0.0, 0.0, 0.0, 0.0, -2683.0587009261494, 0.0]
['beep', 0.0, 669.680615625455, 0.0, 0.0, 0.0, 0.0, -2684.3998055934676, 0.0]
['beep', 0.0, 666.1490400015164, 0.0, 0.0, 0.0, 0.0, -2688.847802740074, 0.0]
['beep', 0.0, 662.259836466293, 0.0, 0.0, 0.0, 0.0, -2690.39007310749, 0.0]
['beep', 0.0, 665.5008394123125, 0.0, 0.0, 0.0, 0.0, -2692.513488830744, 0.0]
['beep', 0.0, 670.3064644702035, 0.0, 0.0, 0.0, 0.0, -2692.088805686093, 0.0]
['beep', 0.0, 671.871086582075, 0.0, 0.0, 0.0, 0.0, -2692.088805686093, 0.0]
['beep', 0.0, 669.9264848144633, 0.0, 0.0, 0.0, 0.0, -2692.3346748751014, 0.0]
['beep', 0.0, 668.1383452580387, 0.0, 0.0, 0.0, 0.0, -2690.6135905520428, 0.0]
['beep', 0.0, 662.7068713553991, 0.0, 0.0, 0.0, 0.0, -2690.2112591518476, 0.0]
['beep', 0.0, 605.7322747388214, 0.0, 0.0, 0.0, 0.0, -2690.702997529864, 0.0]
['beep', 0.0, 578.4854982478021, 0.0, 0.0, 0.0, 0.0, -2691.686474285898, 0.0]
['beep', 0.0, 639.1704844439607, 0.0, 0.0, 0.0, 0.0, -2692.133509175004, 0.0]
['beep', 0.0, 667.8477725801197, 0.0, 0.0, 0.0, 0.0, -2691.9546952193614, 0.0]
['beep', 0.0, 668.384214447047, 0.0, 0.0, 0.0, 0.0, -2690.792404507685, 0.0]
