['beep', 0.0, -6029.405418563535, 0.0, 0.0, 0.0, 0.0, -3691.3235415605955, 0.0]
['beep', 0.0, -6029.695991241454, 0.0, 0.0, 0.0, 0.0, -3690.9212101604, 0.0]
['beep', 0.0, -6028.980735418884, 0.0, 0.0, 0.0, 0.0, -3690.54123050466, 0.0]
['beep', 0.0, -6029.695991241454, 0.0, 0.0, 0.0, 0.0, -3691.815279938612, 0.0]
['beep', 0.0, -6029.651287752544, 0.0, 0.0, 0.0, 0.0, -3691.7482247052462, 0.0]
['beep', 0.0, -6027.974906918395, 0.0, 0.0, 0.0, 0.0, -3689.3565880485285, 0.0]
['beep', 0.0, -6028.019610407307, 0.0, 0.0, 0.0, 0.0, -3691.7482247052462, 0.0]
['beep', 0.0, -6028.868976696608, 0.0, 0.0, 0.0, 0.0, -3692.150556105442, 0.0]
['beep', 0.0, -6029.986563919373, 0.0, 0.0, 0.0, 0.0, -3690.764747949213, 0.0]
['beep', 0.0, -6031.350020331147, 0.0, 0.0, 0.0, 0.0, -3690.9659136493106, 0.0]
['beep', 0.0, -6028.95838367443, 0.0, 0.0, 0.0, 0.0, -3691.0329688826764, 0.0]
['beep', 0.0, -6029.338363330169, 0.0, 0.0, 0.0, 0.0, -3691.792928194157, 0.0]
['beep', 0.0, -6031.90881394253, 0.0, 0.0, 0.0, 0.0, -3691.480003771783, 0.0]
['beep', 0.0, -6030.523005786301, 0.0, 0.0, 0.0, 0.0, -3691.9270386608887, 0.0]
['beep', 0.0, -6033.093456398661, 0.0, 0.0, 0.0, 0.0, -3692.5975909945478, 0.0]
['beep', 0.0, -6033.451084309946, 0.0, 0.0, 0.0, 0.0, -3692.307018316629, 0.0]
['beep', 0.0, -6034.09928489915, 0.0, 0.0, 0.0, 0.0, -3691.770576449702, 0.0]
['beep', 0.0, -6035.283927355281, 0.0, 0.0, 0.0, 0.0, -3694.1622131064196, 0.0]
['beep', 0.0, -6035.4180378220135, 0.0, 0.0, 0.0, 0.0, -3695.592724751559, 0.0]
['beep', 0.0, -6034.233395365882, 0.0, 0.0, 0.0, 0.0, -3693.8716404285005, 0.0]
['beep', 0.0, -6034.009877921329, 0.0, 0.0, 0.0, 0.0, -3691.5917624940594, 0.0]
['beep', 0.0, -6033.7193052434095, 0.0, 0.0, 0.0, 0.0, -3692.2176113388077, 0.0]
['beep', 0.0, -6034.166340132516, 0.0, 0.0, 0.0, 0.0, -3691.9046869164335, 0.0]
['beep', 0.0, -6034.725133743898, 0.0, 0.0, 0.0, 0.0, -3692.0387973831653, 0.0]
['beep', 0.0, -6034.568671532711, 0.0, 0.0, 0.0, 0.0, -3690.6529892269364, 0.0]
['beep', 0.0, -6033.33932558767, 0.0, 0.0, 0.0, 0.0, -3691.412948538417, 0.0]
['beep', 0.0, -6032.557014531733, 0.0, 0.0, 0.0, 0.0, -3691.6364659829696, 0.0]
['beep', 0.0, -6033.2499186098485, 0.0, 0.0, 0.0, 0.0, -3691.167079349408, 0.0]
['beep', 0.0, -6033.875767454597, 0.0, 0.0, 0.0, 0.0, -3691.9270386608887, 0.0]
['beep', 0.0, -6034.121636643606, 0.0, 0.0, 0.0, 0.0, -3691.9270386608887, 0.0]
['beep', 0.0, -6033.048752909751, 0.0, 0.0, 0.0, 0.0, -3689.513050259716, 0.0]
['beep', 0.0, -6033.764008732321, 0.0, 0.0, 0.0, 0.0, -3688.864849670512, 0.0]
['beep', 0.0, -6035.038058166273, 0.0, 0.0, 0.0, 0.0, -3687.590800236559, 0.0]
['beep', 0.0, -6036.066238411217, 0.0, 0.0, 0.0, 0.0, -3689.513050259716, 0.0]
['beep', 0.0, -6033.674601754499, 0.0, 0.0, 0.0, 0.0, -3690.8094514381232, 0.0]
['beep', 0.0, -6032.557014531733, 0.0, 0.0, 0.0, 0.0, -3690.8094514381232, 0.0]
['beep', 0.0, -6032.6017180206445, 0.0, 0.0, 0.0, 0.0, -3691.3905967939613, 0.0]
['beep', 0.0, -6033.4287325654905, 0.0, 0.0, 0.0, 0.0, -3692.4858322722716, 0.0]
['beep', 0.0, -6035.842720966664, 0.0, 0.0, 0.0, 0.0, -3692.0387973831653, 0.0]
['beep', 0.0, -6035.775665733298, 0.0, 0.0, 0.0, 0.0, -3690.474175271294, 0.0]
['beep', 0.0, -6034.747485488354, 0.0, 0.0, 0.0, 0.0, -3691.167079349408, 0.0]
['beep', 0.0, -6034.09928489915, 0.0, 0.0, 0.0, 0.0, -3690.9435619048554, 0.0]
['beep', 0.0, -6034.546319788256, 0.0, 0.0, 0.0, 0.0, -3691.9940938942545, 0.0]
['beep', 0.0, -6035.440389566468, 0.0, 0.0, 0.0, 0.0, -3692.150556105442, 0.0]
['beep', 0.0, -6035.015706421817, 0.0, 0.0, 0.0, 0.0, -3690.697692715847, 0.0]
['beep', 0.0, -6034.09928489915, 0.0, 0.0, 0.0, 0.0, -3690.854154927034, 0.0]
['beep', 0.0, -6033.562843032222, 0.0, 0.0, 0.0, 0.0, -3691.0329688826764, 0.0]
['beep', 0.0, -6034.09928489915, 0.0, 0.0, 0.0, 0.0, -3689.7365677042685, 0.0]
['beep', 0.0, -6034.702781999444, 0.0, 0.0, 0.0, 0.0, -3689.848326426545, 0.0]
['beep', 0.0, -6032.892290698564, 0.0, 0.0, 0.0, 0.0, -3689.758919448724, 0.0]
['beep', 0.0, -6033.00404942084, 0.0, 0.0, 0.0, 0.0, -3689.267181070707, 0.0]
['beep', 0.0, -6034.278098854792, 0.0, 0.0, 0.0, 0.0, -3690.630637482481, 0.0]
['beep', 0.0, -6035.261575610826, 0.0, 0.0, 0.0, 0.0, -3690.0941956155534, 0.0]
['beep', 0.0, -6035.686258755477, 0.0, 0.0, 0.0, 0.0, -3689.7365677042685, 0.0]
['beep', 0.0, -6035.440389566468, 0.0, 0.0, 0.0, 0.0, -3690.5859339935705, 0.0]
['beep', 0.0, -6034.680430254988, 0.0, 0.0, 0.0, 0.0, -3691.3235415605955, 0.0]
['beep', 0.0, -6034.546319788256, 0.0, 0.0, 0.0, 0.0, -3689.848326426545, 0.0]
['beep', 0.0, -6036.356811089136, 0.0, 0.0, 0.0, 0.0, -3689.6918642153582, 0.0]
['beep', 0.0, -6038.05554366774, 0.0, 0.0, 0.0, 0.0, -3690.2953613156515, 0.0]
['beep', 0.0, -6037.116770400617, 0.0, 0.0, 0.0, 0.0, -3689.267181070707, 0.0]
['beep', 0.0, -6035.038058166273, 0.0, 0.0, 0.0, 0.0, -3690.3624165490173, 0.0]
['beep', 0.0, -6032.3111453427255, 0.0, 0.0, 0.0, 0.0, -3690.3177130601066, 0.0]
['beep', 0.0, -6032.646421509555, 0.0, 0.0, 0.0, 0.0, -3691.2341345827745, 0.0]
['beep', 0.0, -6033.786360476775, 0.0, 0.0, 0.0, 0.0, -3692.150556105442, 0.0]
['beep', 0.0, -6033.048752909751, 0.0, 0.0, 0.0, 0.0, -3691.3235415605955, 0.0]
['beep', 0.0, -6033.00404942084, 0.0, 0.0, 0.0, 0.0, -3692.664646227914, 0.0]
['beep', 0.0, -6035.105113399639, 0.0, 0.0, 0.0, 0.0, -3692.463480527816, 0.0]
['beep', 0.0, -6036.133293644583, 0.0, 0.0, 0.0, 0.0, -3692.664646227914, 0.0]
['beep', 0.0, -6036.759142489332, 0.0, 0.0, 0.0, 0.0, -3691.368245049506, 0.0]
['beep', 0.0, -6035.4180378220135, 0.0, 0.0, 0.0, 0.0, -3690.183602593375, 0.0]
['beep', 0.0, -6033.562843032222, 0.0, 0.0, 0.0, 0.0, -3693.5363642616708, 0.0]
['beep', 0.0, -6034.971002932907, 0.0, 0.0, 0.0, 0.0, -3692.4187770389053, 0.0]
['beep', 0.0, -6036.356811089136, 0.0, 0.0, 0.0, 0.0, -3691.9940938942545, 0.0]
['beep', 0.0, -6036.245052366859, 0.0, 0.0, 0.0, 0.0, -3691.3011898161403, 0.0]
['beep', 0.0, -6034.6580785105325, 0.0, 0.0, 0.0, 0.0, -3690.9659136493106, 0.0]
['beep', 0.0, -6033.629898265588, 0.0, 0.0, 0.0, 0.0, -3690.3624165490173, 0.0]
['beep', 0.0, -6033.361677332125, 0.0, 0.0, 0.0, 0.0, -3689.4236432818943, 0.0]
['beep', 0.0, -6035.105113399639, 0.0, 0.0, 0.0, 0.0, -3688.954256648333, 0.0]
['beep', 0.0, -6036.245052366859, 0.0, 0.0, 0.0, 0.0, -3688.9766083927884, 0.0]
['beep', 0.0, -6035.172168633005, 0.0, 0.0, 0.0, 0.0, -3689.8706781710007, 0.0]
['beep', 0.0, -6034.680430254988, 0.0, 0.0, 0.0, 0.0, -3690.54123050466, 0.0]
['beep', 0.0, -6035.082761655183, 0.0, 0.0, 0.0, 0.0, -3689.401291537439, 0.0]
['beep', 0.0, -6036.133293644583, 0.0, 0.0, 0.0, 0.0, -3689.200125837341, 0.0]
['beep', 0.0, -6036.6250320226, 0.0, 0.0, 0.0, 0.0, -3690.474175271294, 0.0]
['beep', 0.0, -6035.507444799834, 0.0, 0.0, 0.0, 0.0, -3690.8988584159447, 0.0]
['beep', 0.0, -6034.255747110337, 0.0, 0.0, 0.0, 0.0, -3689.5801054930816, 0.0]
['beep', 0.0, -6032.981697676385, 0.0, 0.0, 0.0, 0.0, -3688.507221759227, 0.0]
['beep', 0.0, -6033.38402907658, 0.0, 0.0, 0.0, 0.0, -3689.401291537439, 0.0]
['beep', 0.0, -6033.652250010044, 0.0, 0.0, 0.0, 0.0, -3690.116547360009, 0.0]
['beep', 0.0, -6033.00404942084, 0.0, 0.0, 0.0, 0.0, -3690.9659136493106, 0.0]
['beep', 0.0, -6032.266441853815, 0.0, 0.0, 0.0, 0.0, -3689.7365677042685, 0.0]
['beep', 0.0, -6032.445255809457, 0.0, 0.0, 0.0, 0.0, -3689.9377334043666, 0.0]
['beep', 0.0, -6033.808712221231, 0.0, 0.0, 0.0, 0.0, -3692.150556105442, 0.0]
['beep', 0.0, -6034.568671532711, 0.0, 0.0, 0.0, 0.0, -3689.535402004171, 0.0]
['beep', 0.0, -6032.4899592983675, 0.0, 0.0, 0.0, 0.0, -3687.590800236559, 0.0]
['beep', 0.0, -6031.774703475798, 0.0, 0.0, 0.0, 0.0, -3688.1942973368523, 0.0]
['beep', 0.0, -6031.484130797879, 0.0, 0.0, 0.0, 0.0, -3689.8706781710007, 0.0]
['beep', 0.0, -6031.864110453619, 0.0, 0.0, 0.0, 0.0, -3689.624808981992, 0.0]
['beep', 0.0, -6033.786360476775, 0.0, 0.0, 0.0, 0.0, -3689.0660153706094, 0.0]
['beep', 0.0, -6033.272270354303, 0.0, 0.0, 0.0, 0.0, -3688.3507595480396, 0.0]
['beep', 0.0, -6032.28879359827, 0.0, 0.0, 0.0, 0.0, -3689.468346770805, 0.0]
['beep', 0.0, -6032.154683131538, 0.0, 0.0, 0.0, 0.0, -3690.20595433783, 0.0]
['beep', 0.0, -6032.154683131538, 0.0, 0.0, 0.0, 0.0, -3690.0718438710983, 0.0]
['beep', 0.0, -6033.898119199052, 0.0, 0.0, 0.0, 0.0, -3690.7423962047574, 0.0]
['beep', 0.0, -6034.680430254988, 0.0, 0.0, 0.0, 0.0, -3690.407120037928, 0.0]
['beep', 0.0, -6034.6580785105325, 0.0, 0.0, 0.0, 0.0, -3690.0718438710983, 0.0]
['beep', 0.0, -6035.1274651440945, 0.0, 0.0, 0.0, 0.0, -3689.6918642153582, 0.0]
['beep', 0.0, -6035.90977620003, 0.0, 0.0, 0.0, 0.0, -3687.9707798922996, 0.0]
['beep', 0.0, -6036.379162833591, 0.0, 0.0, 0.0, 0.0, -3689.7812711931792, 0.0]
['beep', 0.0, -6036.893252956063, 0.0, 0.0, 0.0, 0.0, -3689.8036229376344, 0.0]
['beep', 0.0, -6035.887424455575, 0.0, 0.0, 0.0, 0.0, -3690.0271403821876, 0.0]
['beep', 0.0, -6035.462741310924, 0.0, 0.0, 0.0, 0.0, -3691.3235415605955, 0.0]
['beep', 0.0, -6033.987526176873, 0.0, 0.0, 0.0, 0.0, -3690.4518235268383, 0.0]
['beep', 0.0, -6034.591023277167, 0.0, 0.0, 0.0, 0.0, -3689.6695124709026, 0.0]
['beep', 0.0, -6035.328630844192, 0.0, 0.0, 0.0, 0.0, -3689.8706781710007, 0.0]
['beep', 0.0, -6033.182863376483, 0.0, 0.0, 0.0, 0.0, -3690.049492126643, 0.0]
['beep', 0.0, -6033.562843032222, 0.0, 0.0, 0.0, 0.0, -3690.9435619048554, 0.0]
['beep', 0.0, -6035.440389566468, 0.0, 0.0, 0.0, 0.0, -3690.630637482481, 0.0]
['beep', 0.0, -6035.730962244387, 0.0, 0.0, 0.0, 0.0, -3690.429471782383, 0.0]
['beep', 0.0, -6033.965174432418, 0.0, 0.0, 0.0, 0.0, -3689.7365677042685, 0.0]
['beep', 0.0, -6034.211043621426, 0.0, 0.0, 0.0, 0.0, -3689.3118845596177, 0.0]
['beep', 0.0, -6034.993354677362, 0.0, 0.0, 0.0, 0.0, -3688.7530909482352, 0.0]
['beep', 0.0, -6034.881595955086, 0.0, 0.0, 0.0, 0.0, -3687.8366694255674, 0.0]
['beep', 0.0, -6035.775665733298, 0.0, 0.0, 0.0, 0.0, -3689.557753748626, 0.0]
['beep', 0.0, -6036.580328533689, 0.0, 0.0, 0.0, 0.0, -3690.0271403821876, 0.0]
['beep', 0.0, -6035.105113399639, 0.0, 0.0, 0.0, 0.0, -3690.0271403821876, 0.0]
['beep', 0.0, -6036.133293644583, 0.0, 0.0, 0.0, 0.0, -3688.6413322259586, 0.0]
['beep', 0.0, -6036.803845978242, 0.0, 0.0, 0.0, 0.0, -3691.569410749604, 0.0]
['beep', 0.0, -6037.094418656161, 0.0, 0.0, 0.0, 0.0, -3692.3293700610843, 0.0]
['beep', 0.0, -6037.228529122893, 0.0, 0.0, 0.0, 0.0, -3691.412948538417, 0.0]
['beep', 0.0, -6034.345154088158, 0.0, 0.0, 0.0, 0.0, -3691.6588177274252, 0.0]
['beep', 0.0, -6032.534662787279, 0.0, 0.0, 0.0, 0.0, -3693.335198561573, 0.0]
['beep', 0.0, -6032.557014531733, 0.0, 0.0, 0.0, 0.0, -3693.379902050484, 0.0]
['beep', 0.0, -6033.026401165295, 0.0, 0.0, 0.0, 0.0, -3689.9377334043666, 0.0]
['beep', 0.0, -6030.5453575307565, 0.0, 0.0, 0.0, 0.0, -3690.049492126643, 0.0]
['beep', 0.0, -6028.868976696608, 0.0, 0.0, 0.0, 0.0, -3690.183602593375, 0.0]
['beep', 0.0, -6029.450122052446, 0.0, 0.0, 0.0, 0.0, -3689.11071885952, 0.0]
['beep', 0.0, -6031.774703475798, 0.0, 0.0, 0.0, 0.0, -3688.216649081308, 0.0]
['beep', 0.0, -6034.09928489915, 0.0, 0.0, 0.0, 0.0, -3688.9989601372436, 0.0]
['beep', 0.0, -6035.552148288745, 0.0, 0.0, 0.0, 0.0, -3689.557753748626, 0.0]
['beep', 0.0, -6034.456912810435, 0.0, 0.0, 0.0, 0.0, -3691.412948538417, 0.0]
['beep', 0.0, -6034.836892466175, 0.0, 0.0, 0.0, 0.0, -3691.792928194157, 0.0]
['beep', 0.0, -6035.708610499932, 0.0, 0.0, 0.0, 0.0, -3692.9105154169224, 0.0]
['beep', 0.0, -6034.166340132516, 0.0, 0.0, 0.0, 0.0, -3693.625771239492, 0.0]
['beep', 0.0, -6032.981697676385, 0.0, 0.0, 0.0, 0.0, -3692.0387973831653, 0.0]
['beep', 0.0, -6033.115808143117, 0.0, 0.0, 0.0, 0.0, -3691.3011898161403, 0.0]
['beep', 0.0, -6033.2499186098485, 0.0, 0.0, 0.0, 0.0, -3694.4527857843386, 0.0]
['beep', 0.0, -6034.389857577069, 0.0, 0.0, 0.0, 0.0, -3694.989227651266, 0.0]
['beep', 0.0, -6035.663907011021, 0.0, 0.0, 0.0, 0.0, -3694.6092479955255, 0.0]
['beep', 0.0, -6035.932127944485, 0.0, 0.0, 0.0, 0.0, -3693.5587160061264, 0.0]
['beep', 0.0, -6035.283927355281, 0.0, 0.0, 0.0, 0.0, -3691.9493904053443, 0.0]
['beep', 0.0, -6036.177997133494, 0.0, 0.0, 0.0, 0.0, -3691.1000241160423, 0.0]
['beep', 0.0, -6035.462741310924, 0.0, 0.0, 0.0, 0.0, -3692.4858322722716, 0.0]
['beep', 0.0, -6035.440389566468, 0.0, 0.0, 0.0, 0.0, -3693.8716404285005, 0.0]
['beep', 0.0, -6035.105113399639, 0.0, 0.0, 0.0, 0.0, -3694.341027062062, 0.0]
['beep', 0.0, -6035.485093055379, 0.0, 0.0, 0.0, 0.0, -3694.6763032288914, 0.0]
['beep', 0.0, -6034.948651188452, 0.0, 0.0, 0.0, 0.0, -3693.782233450679, 0.0]
['beep', 0.0, -6034.613375021622, 0.0, 0.0, 0.0, 0.0, -3693.692826472858, 0.0]
['beep', 0.0, -6034.792188977264, 0.0, 0.0, 0.0, 0.0, -3694.564544506615, 0.0]
['beep', 0.0, -6030.746523230854, 0.0, 0.0, 0.0, 0.0, -3693.82693693959, 0.0]
['beep', 0.0, -6030.075970897195, 0.0, 0.0, 0.0, 0.0, -3693.11168111702, 0.0]
['beep', 0.0, -6030.321840086203, 0.0, 0.0, 0.0, 0.0, -3693.0669776281093, 0.0]
['beep', 0.0, -6030.411247064024, 0.0, 0.0, 0.0, 0.0, -3693.089329372565, 0.0]
['beep', 0.0, -6030.85828195313, 0.0, 0.0, 0.0, 0.0, -3694.3857305509728, 0.0]
['beep', 0.0, -6030.590061019667, 0.0, 0.0, 0.0, 0.0, -3694.564544506615, 0.0]
['beep', 0.0, -6029.4948255413565, 0.0, 0.0, 0.0, 0.0, -3694.0057508952323, 0.0]
['beep', 0.0, -6030.523005786301, 0.0, 0.0, 0.0, 0.0, -3693.3575503060283, 0.0]
['beep', 0.0, -6031.461779053424, 0.0, 0.0, 0.0, 0.0, -3694.8998206734445, 0.0]
['beep', 0.0, -6032.042924409262, 0.0, 0.0, 0.0, 0.0, -3694.855117184534, 0.0]
['beep', 0.0, -6032.177034875994, 0.0, 0.0, 0.0, 0.0, -3694.8774689289894, 0.0]
['beep', 0.0, -6031.014744164318, 0.0, 0.0, 0.0, 0.0, -3695.346855562551, 0.0]
['beep', 0.0, -6032.065276153717, 0.0, 0.0, 0.0, 0.0, -3694.3857305509728, 0.0]
['beep', 0.0, -6033.115808143117, 0.0, 0.0, 0.0, 0.0, -3693.089329372565, 0.0]
['beep', 0.0, -6033.495787798856, 0.0, 0.0, 0.0, 0.0, -3693.2681433282073, 0.0]
['beep', 0.0, -6034.948651188452, 0.0, 0.0, 0.0, 0.0, -3692.73170146128, 0.0]
['beep', 0.0, -6031.484130797879, 0.0, 0.0, 0.0, 0.0, -3693.379902050484, 0.0]
['beep', 0.0, -6027.7290377293875, 0.0, 0.0, 0.0, 0.0, -3694.3857305509728, 0.0]
['beep', 0.0, -6029.628936008088, 0.0, 0.0, 0.0, 0.0, -3692.6422944834585, 0.0]
['beep', 0.0, -6030.075970897195, 0.0, 0.0, 0.0, 0.0, -3692.9105154169224, 0.0]
['beep', 0.0, -6029.71834298591, 0.0, 0.0, 0.0, 0.0, -3693.6034194950366, 0.0]
['beep', 0.0, -6028.33253482968, 0.0, 0.0, 0.0, 0.0, -3692.1952595943526, 0.0]
['beep', 0.0, -6027.483168540379, 0.0, 0.0, 0.0, 0.0, -3691.5917624940594, 0.0]
['beep', 0.0, -6027.974906918395, 0.0, 0.0, 0.0, 0.0, -3693.6704747284025, 0.0]
['beep', 0.0, -6029.3160115857145, 0.0, 0.0, 0.0, 0.0, -3694.6763032288914, 0.0]
['beep', 0.0, -6027.840796451664, 0.0, 0.0, 0.0, 0.0, -3694.4527857843386, 0.0]
['beep', 0.0, -6028.712514485421, 0.0, 0.0, 0.0, 0.0, -3694.9221724179, 0.0]
['beep', 0.0, -6030.2547848528375, 0.0, 0.0, 0.0, 0.0, -3695.011579395721, 0.0]
['beep', 0.0, -6030.210081363926, 0.0, 0.0, 0.0, 0.0, -3693.1563846059307, 0.0]
['beep', 0.0, -6029.651287752544, 0.0, 0.0, 0.0, 0.0, -3692.9775706502883, 0.0]
['beep', 0.0, -6030.2547848528375, 0.0, 0.0, 0.0, 0.0, -3692.3293700610843, 0.0]
['beep', 0.0, -6029.360715074625, 0.0, 0.0, 0.0, 0.0, -3692.307018316629, 0.0]
['beep', 0.0, -6027.416113307013, 0.0, 0.0, 0.0, 0.0, -3692.821108439101, 0.0]
['beep', 0.0, -6028.913680185518, 0.0, 0.0, 0.0, 0.0, -3694.0057508952323, 0.0]
['beep', 0.0, -6030.210081363926, 0.0, 0.0, 0.0, 0.0, -3693.8716404285005, 0.0]
['beep', 0.0, -6029.986563919373, 0.0, 0.0, 0.0, 0.0, -3692.4858322722716, 0.0]
['beep', 0.0, -6029.740694730365, 0.0, 0.0, 0.0, 0.0, -3691.725872960791, 0.0]
['beep', 0.0, -6030.075970897195, 0.0, 0.0, 0.0, 0.0, -3690.8765066714896, 0.0]
['beep', 0.0, -6030.232433108382, 0.0, 0.0, 0.0, 0.0, -3692.0387973831653, 0.0]
['beep', 0.0, -6030.746523230854, 0.0, 0.0, 0.0, 0.0, -3693.11168111702, 0.0]
['beep', 0.0, -6031.081799397683, 0.0, 0.0, 0.0, 0.0, -3693.82693693959, 0.0]
['beep', 0.0, -6031.417075564513, 0.0, 0.0, 0.0, 0.0, -3693.4469572838498, 0.0]
['beep', 0.0, -6029.919508686007, 0.0, 0.0, 0.0, 0.0, -3693.4469572838498, 0.0]
['beep', 0.0, -6030.634764508577, 0.0, 0.0, 0.0, 0.0, -3692.9328671613775, 0.0]
['beep', 0.0, -6031.148854631049, 0.0, 0.0, 0.0, 0.0, -3693.4469572838498, 0.0]
['beep', 0.0, -6031.014744164318, 0.0, 0.0, 0.0, 0.0, -3691.3011898161403, 0.0]
['beep', 0.0, -6029.874805197097, 0.0, 0.0, 0.0, 0.0, -3690.9212101604, 0.0]
['beep', 0.0, -6030.47830229739, 0.0, 0.0, 0.0, 0.0, -3691.770576449702, 0.0]
['beep', 0.0, -6032.467607553913, 0.0, 0.0, 0.0, 0.0, -3692.2623148277185, 0.0]
['beep', 0.0, -6032.020572664806, 0.0, 0.0, 0.0, 0.0, -3691.9717421497994, 0.0]
['beep', 0.0, -6032.691124998466, 0.0, 0.0, 0.0, 0.0, -3690.854154927034, 0.0]
['beep', 0.0, -6031.148854631049, 0.0, 0.0, 0.0, 0.0, -3690.183602593375, 0.0]
['beep', 0.0, -6031.394723820058, 0.0, 0.0, 0.0, 0.0, -3691.3458933050506, 0.0]
['beep', 0.0, -6030.992392419862, 0.0, 0.0, 0.0, 0.0, -3692.083500872076, 0.0]
['beep', 0.0, -6032.109979642628, 0.0, 0.0, 0.0, 0.0, -3691.882335171978, 0.0]
['beep', 0.0, -6030.567709275211, 0.0, 0.0, 0.0, 0.0, -3692.686997972369, 0.0]
['beep', 0.0, -6030.210081363926, 0.0, 0.0, 0.0, 0.0, -3693.2681433282073, 0.0]
['beep', 0.0, -6028.354886574136, 0.0, 0.0, 0.0, 0.0, -3692.664646227914, 0.0]
['beep', 0.0, -6029.405418563535, 0.0, 0.0, 0.0, 0.0, -3693.0669776281093, 0.0]
['beep', 0.0, -6030.4335988084795, 0.0, 0.0, 0.0, 0.0, -3694.2069165953303, 0.0]
['beep', 0.0, -6030.075970897195, 0.0, 0.0, 0.0, 0.0, -3692.5528875056375, 0.0]
['beep', 0.0, -6029.271308096803, 0.0, 0.0, 0.0, 0.0, -3692.9775706502883, 0.0]
['beep', 0.0, -6028.801921463242, 0.0, 0.0, 0.0, 0.0, -3692.01644563871, 0.0]
['beep', 0.0, -6028.5560522742335, 0.0, 0.0, 0.0, 0.0, -3691.9046869164335, 0.0]
['beep', 0.0, -6029.137197630072, 0.0, 0.0, 0.0, 0.0, -3691.9270386608887, 0.0]
['beep', 0.0, -6029.137197630072, 0.0, 0.0, 0.0, 0.0, -3691.1894310938637, 0.0]
['beep', 0.0, -6027.19259586246, 0.0, 0.0, 0.0, 0.0, -3692.9328671613775, 0.0]
['beep', 0.0, -6027.058485395728, 0.0, 0.0, 0.0, 0.0, -3692.73170146128, 0.0]
['beep', 0.0, -6026.946726673452, 0.0, 0.0, 0.0, 0.0, -3692.4858322722716, 0.0]
['beep', 0.0, -6027.751389473843, 0.0, 0.0, 0.0, 0.0, -3692.2623148277185, 0.0]
['beep', 0.0, -6028.399590063047, 0.0, 0.0, 0.0, 0.0, -3693.2457915837517, 0.0]
['beep', 0.0, -6028.623107507599, 0.0, 0.0, 0.0, 0.0, -3692.73170146128, 0.0]
['beep', 0.0, -6027.393761562558, 0.0, 0.0, 0.0, 0.0, -3691.9940938942545, 0.0]
['beep', 0.0, -6027.237299351371, 0.0, 0.0, 0.0, 0.0, -3692.7093497168244, 0.0]
['beep', 0.0, -6028.779569718787, 0.0, 0.0, 0.0, 0.0, -3693.1563846059307, 0.0]
['beep', 0.0, -6029.248956352349, 0.0, 0.0, 0.0, 0.0, -3692.01644563871, 0.0]
['beep', 0.0, -6028.645459252055, 0.0, 0.0, 0.0, 0.0, -3691.167079349408, 0.0]
['beep', 0.0, -6025.896194684052, 0.0, 0.0, 0.0, 0.0, -3690.563582249115, 0.0]
['beep', 0.0, -6026.834967951175, 0.0, 0.0, 0.0, 0.0, -3691.7482247052462, 0.0]
['beep', 0.0, -6027.974906918395, 0.0, 0.0, 0.0, 0.0, -3693.469309028305, 0.0]
['beep', 0.0, -6029.3160115857145, 0.0, 0.0, 0.0, 0.0, -3695.1233381179977, 0.0]
['beep', 0.0, -6028.28783134077, 0.0, 0.0, 0.0, 0.0, -3692.821108439101, 0.0]
['beep', 0.0, -6028.690162740965, 0.0, 0.0, 0.0, 0.0, -3693.11168111702, 0.0]
['beep', 0.0, -6028.95838367443, 0.0, 0.0, 0.0, 0.0, -3694.497489273249, 0.0]
['beep', 0.0, -6029.181901118983, 0.0, 0.0, 0.0, 0.0, -3694.6092479955255, 0.0]
['beep', 0.0, -6030.210081363926, 0.0, 0.0, 0.0, 0.0, -3694.631599739981, 0.0]
['beep', 0.0, -6029.897156941553, 0.0, 0.0, 0.0, 0.0, -3691.502355516238, 0.0]
['beep', 0.0, -6027.796092962753, 0.0, 0.0, 0.0, 0.0, -3692.0387973831653, 0.0]
['beep', 0.0, -6027.9078516850295, 0.0, 0.0, 0.0, 0.0, -3694.3186753176064, 0.0]
['beep', 0.0, -6028.980735418884, 0.0, 0.0, 0.0, 0.0, -3695.9056491739334, 0.0]
['beep', 0.0, -6029.986563919373, 0.0, 0.0, 0.0, 0.0, -3695.279800329185, 0.0]
['beep', 0.0, -6029.181901118983, 0.0, 0.0, 0.0, 0.0, -3694.4527857843386, 0.0]
['beep', 0.0, -6027.483168540379, 0.0, 0.0, 0.0, 0.0, -3693.2234398392966, 0.0]
['beep', 0.0, -6028.511348785323, 0.0, 0.0, 0.0, 0.0, -3693.5363642616708, 0.0]
['beep', 0.0, -6031.081799397683, 0.0, 0.0, 0.0, 0.0, -3695.659779984925, 0.0]
['beep', 0.0, -6030.7241714863985, 0.0, 0.0, 0.0, 0.0, -3694.1622131064196, 0.0]
['beep', 0.0, -6027.773741218298, 0.0, 0.0, 0.0, 0.0, -3692.9552189058327, 0.0]
['beep', 0.0, -6030.925337186496, 0.0, 0.0, 0.0, 0.0, -3694.5421927621596, 0.0]
['beep', 0.0, -6032.132331387083, 0.0, 0.0, 0.0, 0.0, -3694.497489273249, 0.0]
['beep', 0.0, -6033.115808143117, 0.0, 0.0, 0.0, 0.0, -3696.4197392964056, 0.0]
['beep', 0.0, -6032.445255809457, 0.0, 0.0, 0.0, 0.0, -3698.274934086196, 0.0]
['beep', 0.0, -6031.350020331147, 0.0, 0.0, 0.0, 0.0, -3695.4586142848275, 0.0]
['beep', 0.0, -6030.299488341748, 0.0, 0.0, 0.0, 0.0, -3694.1622131064196, 0.0]
['beep', 0.0, -6031.484130797879, 0.0, 0.0, 0.0, 0.0, -3695.659779984925, 0.0]
['beep', 0.0, -6031.640593009066, 0.0, 0.0, 0.0, 0.0, -3697.336160819073, 0.0]
['beep', 0.0, -6031.707648242432, 0.0, 0.0, 0.0, 0.0, -3696.240925340763, 0.0]
['beep', 0.0, -6031.081799397683, 0.0, 0.0, 0.0, 0.0, -3693.9610474063215, 0.0]
['beep', 0.0, -6030.14302613056, 0.0, 0.0, 0.0, 0.0, -3693.782233450679, 0.0]
['beep', 0.0, -6032.109979642628, 0.0, 0.0, 0.0, 0.0, -3693.9386956618664, 0.0]
['beep', 0.0, -6032.199386620448, 0.0, 0.0, 0.0, 0.0, -3693.9163439174113, 0.0]
['beep', 0.0, -6032.892290698564, 0.0, 0.0, 0.0, 0.0, -3694.653951484436, 0.0]
['beep', 0.0, -6032.109979642628, 0.0, 0.0, 0.0, 0.0, -3694.9221724179, 0.0]
['beep', 0.0, -6031.729999986887, 0.0, 0.0, 0.0, 0.0, -3694.9445241623553, 0.0]
['beep', 0.0, -6031.975869175896, 0.0, 0.0, 0.0, 0.0, -3695.5033177737378, 0.0]
['beep', 0.0, -6032.333497087181, 0.0, 0.0, 0.0, 0.0, -3695.3245038180953, 0.0]
['beep', 0.0, -6032.24409010936, 0.0, 0.0, 0.0, 0.0, -3695.5256695181934, 0.0]
['beep', 0.0, -6031.238261608871, 0.0, 0.0, 0.0, 0.0, -3694.9221724179, 0.0]
['beep', 0.0, -6029.271308096803, 0.0, 0.0, 0.0, 0.0, -3695.011579395721, 0.0]
['beep', 0.0, -6030.388895319569, 0.0, 0.0, 0.0, 0.0, -3695.346855562551, 0.0]
['beep', 0.0, -6030.992392419862, 0.0, 0.0, 0.0, 0.0, -3696.7103119743247, 0.0]
['beep', 0.0, -6030.411247064024, 0.0, 0.0, 0.0, 0.0, -3695.6150764960144, 0.0]
['beep', 0.0, -6030.187729619472, 0.0, 0.0, 0.0, 0.0, -3694.9221724179, 0.0]
['beep', 0.0, -6029.6065842636335, 0.0, 0.0, 0.0, 0.0, -3694.9221724179, 0.0]
['beep', 0.0, -6030.411247064024, 0.0, 0.0, 0.0, 0.0, -3695.1233381179977, 0.0]
['beep', 0.0, -6031.461779053424, 0.0, 0.0, 0.0, 0.0, -3696.7103119743247, 0.0]
['beep', 0.0, -6031.640593009066, 0.0, 0.0, 0.0, 0.0, -3695.8832974294783, 0.0]
['beep', 0.0, -6027.974906918395, 0.0, 0.0, 0.0, 0.0, -3695.6150764960144, 0.0]
['beep', 0.0, -6028.019610407307, 0.0, 0.0, 0.0, 0.0, -3695.056282884632, 0.0]
['beep', 0.0, -6029.4948255413565, 0.0, 0.0, 0.0, 0.0, -3695.011579395721, 0.0]
['beep', 0.0, -6031.014744164318, 0.0, 0.0, 0.0, 0.0, -3695.726835218291, 0.0]
['beep', 0.0, -6030.523005786301, 0.0, 0.0, 0.0, 0.0, -3693.737529961769, 0.0]
['beep', 0.0, -6029.628936008088, 0.0, 0.0, 0.0, 0.0, -3694.1845648508747, 0.0]
['beep', 0.0, -6029.71834298591, 0.0, 0.0, 0.0, 0.0, -3693.5587160061264, 0.0]
['beep', 0.0, -6029.986563919373, 0.0, 0.0, 0.0, 0.0, -3693.089329372565, 0.0]
['beep', 0.0, -6029.852453452641, 0.0, 0.0, 0.0, 0.0, -3692.7093497168244, 0.0]
['beep', 0.0, -6028.734866229876, 0.0, 0.0, 0.0, 0.0, -3693.5363642616708, 0.0]
['beep', 0.0, -6028.623107507599, 0.0, 0.0, 0.0, 0.0, -3693.089329372565, 0.0]
['beep', 0.0, -6028.757217974332, 0.0, 0.0, 0.0, 0.0, -3691.6588177274252, 0.0]
['beep', 0.0, -6028.064313896217, 0.0, 0.0, 0.0, 0.0, -3692.105852616531, 0.0]
['beep', 0.0, -6029.628936008088, 0.0, 0.0, 0.0, 0.0, -3692.77640495019, 0.0]
['beep', 0.0, -6030.5453575307565, 0.0, 0.0, 0.0, 0.0, -3691.8376316830677, 0.0]
['beep', 0.0, -6029.181901118983, 0.0, 0.0, 0.0, 0.0, -3693.089329372565, 0.0]
['beep', 0.0, -6028.801921463242, 0.0, 0.0, 0.0, 0.0, -3693.49166077276, 0.0]
['beep', 0.0, -6029.38306681908, 0.0, 0.0, 0.0, 0.0, -3692.754053205735, 0.0]
['beep', 0.0, -6029.248956352349, 0.0, 0.0, 0.0, 0.0, -3693.379902050484, 0.0]
['beep', 0.0, -6029.628936008088, 0.0, 0.0, 0.0, 0.0, -3693.335198561573, 0.0]
['beep', 0.0, -6030.925337186496, 0.0, 0.0, 0.0, 0.0, -3692.9999223947434, 0.0]
['beep', 0.0, -6028.5560522742335, 0.0, 0.0, 0.0, 0.0, -3692.508184016727, 0.0]
['beep', 0.0, -6027.52787202929, 0.0, 0.0, 0.0, 0.0, -3694.2292683397854, 0.0]
['beep', 0.0, -6028.153720874038, 0.0, 0.0, 0.0, 0.0, -3695.3245038180953, 0.0]
['beep', 0.0, -6029.025438907795, 0.0, 0.0, 0.0, 0.0, -3694.341027062062, 0.0]
['beep', 0.0, -6028.6678109965105, 0.0, 0.0, 0.0, 0.0, -3693.2010880948415, 0.0]
['beep', 0.0, -6028.354886574136, 0.0, 0.0, 0.0, 0.0, -3693.11168111702, 0.0]
['beep', 0.0, -6028.690162740965, 0.0, 0.0, 0.0, 0.0, -3692.821108439101, 0.0]
['beep', 0.0, -6029.740694730365, 0.0, 0.0, 0.0, 0.0, -3693.2234398392966, 0.0]
['beep', 0.0, -6030.366543575114, 0.0, 0.0, 0.0, 0.0, -3693.625771239492, 0.0]
['beep', 0.0, -6028.466645296413, 0.0, 0.0, 0.0, 0.0, -3692.821108439101, 0.0]
['beep', 0.0, -6029.695991241454, 0.0, 0.0, 0.0, 0.0, -3694.0057508952323, 0.0]
['beep', 0.0, -6029.025438907795, 0.0, 0.0, 0.0, 0.0, -3693.6034194950366, 0.0]
['beep', 0.0, -6029.517177285812, 0.0, 0.0, 0.0, 0.0, -3693.379902050484, 0.0]
['beep', 0.0, -6031.998220920351, 0.0, 0.0, 0.0, 0.0, -3692.73170146128, 0.0]
['beep', 0.0, -6029.986563919373, 0.0, 0.0, 0.0, 0.0, -3693.089329372565, 0.0]
['beep', 0.0, -6029.137197630072, 0.0, 0.0, 0.0, 0.0, -3692.77640495019, 0.0]
['beep', 0.0, -6030.031267408284, 0.0, 0.0, 0.0, 0.0, -3692.7093497168244, 0.0]
['beep', 0.0, -6033.115808143117, 0.0, 0.0, 0.0, 0.0, -3693.6704747284025, 0.0]
['beep', 0.0, -6031.484130797879, 0.0, 0.0, 0.0, 0.0, -3693.715178217313, 0.0]
['beep', 0.0, -6027.505520284834, 0.0, 0.0, 0.0, 0.0, -3691.122375860498, 0.0]
['beep', 0.0, -6029.360715074625, 0.0, 0.0, 0.0, 0.0, -3691.368245049506, 0.0]
['beep', 0.0, -6030.679467997488, 0.0, 0.0, 0.0, 0.0, -3691.435300282872, 0.0]
['beep', 0.0, -6031.6629447535215, 0.0, 0.0, 0.0, 0.0, -3691.5917624940594, 0.0]
['beep', 0.0, -6031.126502886594, 0.0, 0.0, 0.0, 0.0, -3691.211782838319, 0.0]
['beep', 0.0, -6031.90881394253, 0.0, 0.0, 0.0, 0.0, -3691.524707260693, 0.0]
['beep', 0.0, -6030.411247064024, 0.0, 0.0, 0.0, 0.0, -3692.2846665721736, 0.0]
['beep', 0.0, -6031.998220920351, 0.0, 0.0, 0.0, 0.0, -3692.2176113388077, 0.0]
['beep', 0.0, -6032.713476742921, 0.0, 0.0, 0.0, 0.0, -3693.178736350386, 0.0]
['beep', 0.0, -6035.105113399639, 0.0, 0.0, 0.0, 0.0, -3693.5363642616708, 0.0]
['beep', 0.0, -6033.942822687963, 0.0, 0.0, 0.0, 0.0, -3692.1282043609867, 0.0]
['beep', 0.0, -6030.925337186496, 0.0, 0.0, 0.0, 0.0, -3691.6811694718804, 0.0]
['beep', 0.0, -6032.445255809457, 0.0, 0.0, 0.0, 0.0, -3691.144727604953, 0.0]
['beep', 0.0, -6033.808712221231, 0.0, 0.0, 0.0, 0.0, -3691.3011898161403, 0.0]
['beep', 0.0, -6032.445255809457, 0.0, 0.0, 0.0, 0.0, -3691.368245049506, 0.0]
['beep', 0.0, -6033.00404942084, 0.0, 0.0, 0.0, 0.0, -3691.859983427523, 0.0]
['beep', 0.0, -6032.422904065002, 0.0, 0.0, 0.0, 0.0, -3691.6364659829696, 0.0]
['beep', 0.0, -6031.059447653228, 0.0, 0.0, 0.0, 0.0, -3691.2564863272296, 0.0]
['beep', 0.0, -6032.065276153717, 0.0, 0.0, 0.0, 0.0, -3692.5528875056375, 0.0]
['beep', 0.0, -6033.38402907658, 0.0, 0.0, 0.0, 0.0, -3692.1282043609867, 0.0]
['beep', 0.0, -6033.026401165295, 0.0, 0.0, 0.0, 0.0, -3691.1894310938637, 0.0]
['beep', 0.0, -6032.4899592983675, 0.0, 0.0, 0.0, 0.0, -3691.412948538417, 0.0]
['beep', 0.0, -6032.378200576091, 0.0, 0.0, 0.0, 0.0, -3692.530535761182, 0.0]
['beep', 0.0, -6031.417075564513, 0.0, 0.0, 0.0, 0.0, -3693.2010880948415, 0.0]
['beep', 0.0, -6031.327668586692, 0.0, 0.0, 0.0, 0.0, -3692.4187770389053, 0.0]
['beep', 0.0, -6032.66877325401, 0.0, 0.0, 0.0, 0.0, -3691.569410749604, 0.0]
['beep', 0.0, -6030.321840086203, 0.0, 0.0, 0.0, 0.0, -3691.859983427523, 0.0]
['beep', 0.0, -6030.500654041845, 0.0, 0.0, 0.0, 0.0, -3692.686997972369, 0.0]
['beep', 0.0, -6032.7805319762865, 0.0, 0.0, 0.0, 0.0, -3693.044625883654, 0.0]
['beep', 0.0, -6032.646421509555, 0.0, 0.0, 0.0, 0.0, -3692.6422944834585, 0.0]
['beep', 0.0, -6029.830101708187, 0.0, 0.0, 0.0, 0.0, -3691.524707260693, 0.0]
['beep', 0.0, -6029.405418563535, 0.0, 0.0, 0.0, 0.0, -3692.105852616531, 0.0]
['beep', 0.0, -6028.8466249521525, 0.0, 0.0, 0.0, 0.0, -3691.770576449702, 0.0]
['beep', 0.0, -6029.181901118983, 0.0, 0.0, 0.0, 0.0, -3689.513050259716, 0.0]
['beep', 0.0, -6030.590061019667, 0.0, 0.0, 0.0, 0.0, -3687.546096747649, 0.0]
['beep', 0.0, -6029.405418563535, 0.0, 0.0, 0.0, 0.0, -3687.0096548807214, 0.0]
['beep', 0.0, -6028.757217974332, 0.0, 0.0, 0.0, 0.0, -3689.11071885952, 0.0]
['beep', 0.0, -6030.4335988084795, 0.0, 0.0, 0.0, 0.0, -3689.6471607264475, 0.0]
['beep', 0.0, -6030.47830229739, 0.0, 0.0, 0.0, 0.0, -3691.055320627132, 0.0]
['beep', 0.0, -6028.913680185518, 0.0, 0.0, 0.0, 0.0, -3691.1000241160423, 0.0]
['beep', 0.0, -6028.891328441064, 0.0, 0.0, 0.0, 0.0, -3690.1612508489197, 0.0]
['beep', 0.0, -6028.086665640672, 0.0, 0.0, 0.0, 0.0, -3690.0271403821876, 0.0]
['beep', 0.0, -6028.064313896217, 0.0, 0.0, 0.0, 0.0, -3688.462518270316, 0.0]
['beep', 0.0, -6028.511348785323, 0.0, 0.0, 0.0, 0.0, -3690.138899104464, 0.0]
['beep', 0.0, -6027.9078516850295, 0.0, 0.0, 0.0, 0.0, -3690.0718438710983, 0.0]
['beep', 0.0, -6026.81261620672, 0.0, 0.0, 0.0, 0.0, -3688.507221759227, 0.0]
['beep', 0.0, -6027.706685984932, 0.0, 0.0, 0.0, 0.0, -3690.0271403821876, 0.0]
['beep', 0.0, -6028.757217974332, 0.0, 0.0, 0.0, 0.0, -3689.155422348431, 0.0]
['beep', 0.0, -6029.628936008088, 0.0, 0.0, 0.0, 0.0, -3688.8424979260562, 0.0]
['beep', 0.0, -6030.14302613056, 0.0, 0.0, 0.0, 0.0, -3688.9989601372436, 0.0]
['beep', 0.0, -6030.4335988084795, 0.0, 0.0, 0.0, 0.0, -3689.11071885952, 0.0]
['beep', 0.0, -6029.472473796902, 0.0, 0.0, 0.0, 0.0, -3689.5801054930816, 0.0]
['beep', 0.0, -6028.645459252055, 0.0, 0.0, 0.0, 0.0, -3688.6860357148694, 0.0]
['beep', 0.0, -6029.070142396706, 0.0, 0.0, 0.0, 0.0, -3689.2895328151626, 0.0]
['beep', 0.0, -6029.38306681908, 0.0, 0.0, 0.0, 0.0, -3689.5801054930816, 0.0]
['beep', 0.0, -6029.472473796902, 0.0, 0.0, 0.0, 0.0, -3691.6141142385145, 0.0]
['beep', 0.0, -6027.751389473843, 0.0, 0.0, 0.0, 0.0, -3690.697692715847, 0.0]
['beep', 0.0, -6028.8466249521525, 0.0, 0.0, 0.0, 0.0, -3691.0329688826764, 0.0]
['beep', 0.0, -6030.5453575307565, 0.0, 0.0, 0.0, 0.0, -3690.9435619048554, 0.0]
['beep', 0.0, -6029.941860430463, 0.0, 0.0, 0.0, 0.0, -3690.6529892269364, 0.0]
['beep', 0.0, -6030.299488341748, 0.0, 0.0, 0.0, 0.0, -3691.3011898161403, 0.0]
['beep', 0.0, -6029.874805197097, 0.0, 0.0, 0.0, 0.0, -3691.3905967939613, 0.0]
['beep', 0.0, -6029.897156941553, 0.0, 0.0, 0.0, 0.0, -3690.474175271294, 0.0]
['beep', 0.0, -6030.746523230854, 0.0, 0.0, 0.0, 0.0, -3690.764747949213, 0.0]
['beep', 0.0, -6030.768874975309, 0.0, 0.0, 0.0, 0.0, -3691.882335171978, 0.0]
['beep', 0.0, -6029.472473796902, 0.0, 0.0, 0.0, 0.0, -3691.8376316830677, 0.0]
['beep', 0.0, -6029.204252863437, 0.0, 0.0, 0.0, 0.0, -3691.412948538417, 0.0]
['beep', 0.0, -6028.824273207698, 0.0, 0.0, 0.0, 0.0, -3691.6811694718804, 0.0]
['beep', 0.0, -6030.008915663829, 0.0, 0.0, 0.0, 0.0, -3692.508184016727, 0.0]
['beep', 0.0, -6032.087627898172, 0.0, 0.0, 0.0, 0.0, -3690.9659136493106, 0.0]
['beep', 0.0, -6032.557014531733, 0.0, 0.0, 0.0, 0.0, -3688.462518270316, 0.0]
['beep', 0.0, -6031.215909864415, 0.0, 0.0, 0.0, 0.0, -3688.909553159422, 0.0]
['beep', 0.0, -6028.757217974332, 0.0, 0.0, 0.0, 0.0, -3689.0883671150646, 0.0]
['beep', 0.0, -6030.210081363926, 0.0, 0.0, 0.0, 0.0, -3691.368245049506, 0.0]
['beep', 0.0, -6030.768874975309, 0.0, 0.0, 0.0, 0.0, -3690.183602593375, 0.0]
['beep', 0.0, -6028.8466249521525, 0.0, 0.0, 0.0, 0.0, -3689.557753748626, 0.0]
['beep', 0.0, -6028.623107507599, 0.0, 0.0, 0.0, 0.0, -3691.859983427523, 0.0]
['beep', 0.0, -6029.159549374527, 0.0, 0.0, 0.0, 0.0, -3691.6811694718804, 0.0]
['beep', 0.0, -6030.2547848528375, 0.0, 0.0, 0.0, 0.0, -3690.138899104464, 0.0]
['beep', 0.0, -6029.986563919373, 0.0, 0.0, 0.0, 0.0, -3689.9600851488217, 0.0]
['beep', 0.0, -6029.3160115857145, 0.0, 0.0, 0.0, 0.0, -3689.5801054930816, 0.0]
['beep', 0.0, -6027.974906918395, 0.0, 0.0, 0.0, 0.0, -3690.3847682934725, 0.0]
['beep', 0.0, -6029.450122052446, 0.0, 0.0, 0.0, 0.0, -3692.530535761182, 0.0]
['beep', 0.0, -6030.344191830658, 0.0, 0.0, 0.0, 0.0, -3692.39642529445, 0.0]
['beep', 0.0, -6030.701819741943, 0.0, 0.0, 0.0, 0.0, -3691.5917624940594, 0.0]
['beep', 0.0, -6030.053619152739, 0.0, 0.0, 0.0, 0.0, -3689.4459950263495, 0.0]
['beep', 0.0, -6029.181901118983, 0.0, 0.0, 0.0, 0.0, -3688.2837043146737, 0.0]
['beep', 0.0, -6029.271308096803, 0.0, 0.0, 0.0, 0.0, -3688.9989601372436, 0.0]
['beep', 0.0, -6031.886462198075, 0.0, 0.0, 0.0, 0.0, -3688.909553159422, 0.0]
['beep', 0.0, -6031.886462198075, 0.0, 0.0, 0.0, 0.0, -3688.3507595480396, 0.0]
['beep', 0.0, -6031.774703475798, 0.0, 0.0, 0.0, 0.0, -3689.468346770805, 0.0]
['beep', 0.0, -6032.154683131538, 0.0, 0.0, 0.0, 0.0, -3689.401291537439, 0.0]
['beep', 0.0, -6032.7805319762865, 0.0, 0.0, 0.0, 0.0, -3689.3789397929836, 0.0]
['beep', 0.0, -6032.378200576091, 0.0, 0.0, 0.0, 0.0, -3690.2953613156515, 0.0]
['beep', 0.0, -6032.221738364904, 0.0, 0.0, 0.0, 0.0, -3692.374073549995, 0.0]
['beep', 0.0, -6032.177034875994, 0.0, 0.0, 0.0, 0.0, -3690.8988584159447, 0.0]
['beep', 0.0, -6030.81357846422, 0.0, 0.0, 0.0, 0.0, -3688.574276992593, 0.0]
['beep', 0.0, -6031.975869175896, 0.0, 0.0, 0.0, 0.0, -3689.0660153706094, 0.0]
['beep', 0.0, -6032.199386620448, 0.0, 0.0, 0.0, 0.0, -3690.20595433783, 0.0]
['beep', 0.0, -6030.411247064024, 0.0, 0.0, 0.0, 0.0, -3692.8434601835565, 0.0]
['beep', 0.0, -6029.76304647482, 0.0, 0.0, 0.0, 0.0, -3693.782233450679, 0.0]
['beep', 0.0, -6029.248956352349, 0.0, 0.0, 0.0, 0.0, -3691.6141142385145, 0.0]
['beep', 0.0, -6031.104151142139, 0.0, 0.0, 0.0, 0.0, -3691.2564863272296, 0.0]
['beep', 0.0, -6032.646421509555, 0.0, 0.0, 0.0, 0.0, -3691.725872960791, 0.0]
['beep', 0.0, -6032.557014531733, 0.0, 0.0, 0.0, 0.0, -3691.0329688826764, 0.0]
['beep', 0.0, -6033.831063965687, 0.0, 0.0, 0.0, 0.0, -3693.089329372565, 0.0]
['beep', 0.0, -6033.562843032222, 0.0, 0.0, 0.0, 0.0, -3693.424605539394, 0.0]
['beep', 0.0, -6034.1886918769715, 0.0, 0.0, 0.0, 0.0, -3693.5810677505815, 0.0]
['beep', 0.0, -6033.764008732321, 0.0, 0.0, 0.0, 0.0, -3693.6034194950366, 0.0]
['beep', 0.0, -6032.109979642628, 0.0, 0.0, 0.0, 0.0, -3691.3458933050506, 0.0]
['beep', 0.0, -6030.612412764122, 0.0, 0.0, 0.0, 0.0, -3688.797794437146, 0.0]
['beep', 0.0, -6029.472473796902, 0.0, 0.0, 0.0, 0.0, -3685.5120880022155, 0.0]
['beep', 0.0, -6029.964212174918, 0.0, 0.0, 0.0, 0.0, -3686.696730458347, 0.0]
['beep', 0.0, -6028.24312785186, 0.0, 0.0, 0.0, 0.0, -3685.8473641690452, 0.0]
['beep', 0.0, -6031.417075564513, 0.0, 0.0, 0.0, 0.0, -3685.4897362577603, 0.0]
['beep', 0.0, -6032.199386620448, 0.0, 0.0, 0.0, 0.0, -3681.82405016709, 0.0]
['beep', 0.0, -6030.634764508577, 0.0, 0.0, 0.0, 0.0, -3676.4149280089055, 0.0]
['beep', 0.0, -6034.255747110337, 0.0, 0.0, 0.0, 0.0, -3672.9727593627886, 0.0]
['beep', 0.0, -6037.966136689918, 0.0, 0.0, 0.0, 0.0, -3665.3284627590733, 0.0]
['beep', 0.0, -6036.870901211608, 0.0, 0.0, 0.0, 0.0, -3659.0029190782216, 0.0]
['beep', 0.0, -6035.350982588647, 0.0, 0.0, 0.0, 0.0, -3651.671546896881, 0.0]
['beep', 0.0, -6032.6017180206445, 0.0, 0.0, 0.0, 0.0, -3644.4072299489058, 0.0]
['beep', 0.0, -6032.6017180206445, 0.0, 0.0, 0.0, 0.0, -3636.986450789744, 0.0]
['beep', 0.0, -6037.630860523089, 0.0, 0.0, 0.0, 0.0, -3627.4199041628726, 0.0]
['beep', 0.0, -6035.798017477753, 0.0, 0.0, 0.0, 0.0, -3616.4451976353166, 0.0]
['beep', 0.0, -6031.439427308968, 0.0, 0.0, 0.0, 0.0, -3606.051636463599, 0.0]
['beep', 0.0, -6031.6629447535215, 0.0, 0.0, 0.0, 0.0, -3597.7144357817697, 0.0]
['beep', 0.0, -6034.501616299345, 0.0, 0.0, 0.0, 0.0, -3588.0808339215323, 0.0]
['beep', 0.0, -6033.831063965687, 0.0, 0.0, 0.0, 0.0, -3581.442365818306, 0.0]
['beep', 0.0, -6032.087627898172, 0.0, 0.0, 0.0, 0.0, -3572.7251854807364, 0.0]
['beep', 0.0, -6028.936031929974, 0.0, 0.0, 0.0, 0.0, -3566.6008074999822, 0.0]
['beep', 0.0, -6027.639630751566, 0.0, 0.0, 0.0, 0.0, -3560.0517463745773, 0.0]
['beep', 0.0, -6028.757217974332, 0.0, 0.0, 0.0, 0.0, -3553.0109468711553, 0.0]
['beep', 0.0, -6030.746523230854, 0.0, 0.0, 0.0, 0.0, -3546.4171822568396, 0.0]
['beep', 0.0, -6030.992392419862, 0.0, 0.0, 0.0, 0.0, -3541.276281032119, 0.0]
['beep', 0.0, -6030.47830229739, 0.0, 0.0, 0.0, 0.0, -3537.8117606415467, 0.0]
['beep', 0.0, -6029.897156941553, 0.0, 0.0, 0.0, 0.0, -3536.738876907692, 0.0]
['beep', 0.0, -6031.014744164318, 0.0, 0.0, 0.0, 0.0, -3535.062496073544, 0.0]
['beep', 0.0, -6030.321840086203, 0.0, 0.0, 0.0, 0.0, -3536.023621085122, 0.0]
['beep', 0.0, -6029.517177285812, 0.0, 0.0, 0.0, 0.0, -3538.124685063921, 0.0]
['beep', 0.0, -6032.400552320547, 0.0, 0.0, 0.0, 0.0, -3540.359859509452, 0.0]
['beep', 0.0, -6031.037095908773, 0.0, 0.0, 0.0, 0.0, -3542.1032955769656, 0.0]
['beep', 0.0, -6029.04779065225, 0.0, 0.0, 0.0, 0.0, -3546.0819060900103, 0.0]
['beep', 0.0, -6029.00308716334, 0.0, 0.0, 0.0, 0.0, -3551.4910282481947, 0.0]
['beep', 0.0, -6030.5453575307565, 0.0, 0.0, 0.0, 0.0, -3557.8836271624123, 0.0]
['beep', 0.0, -6031.864110453619, 0.0, 0.0, 0.0, 0.0, -3566.511400522161, 0.0]
['beep', 0.0, -6032.199386620448, 0.0, 0.0, 0.0, 0.0, -3573.7533657256804, 0.0]
['beep', 0.0, -6032.28879359827, 0.0, 0.0, 0.0, 0.0, -3579.9671506842556, 0.0]
['beep', 0.0, -6033.406380821036, 0.0, 0.0, 0.0, 0.0, -3586.918543209856, 0.0]
['beep', 0.0, -6032.6017180206445, 0.0, 0.0, 0.0, 0.0, -3594.6298950469372, 0.0]
['beep', 0.0, -6035.038058166273, 0.0, 0.0, 0.0, 0.0, -3599.659037549381, 0.0]
['beep', 0.0, -6033.2499186098485, 0.0, 0.0, 0.0, 0.0, -3606.3869126304285, 0.0]
['beep', 0.0, -6033.406380821036, 0.0, 0.0, 0.0, 0.0, -3613.5841743450374, 0.0]
['beep', 0.0, -6036.245052366859, 0.0, 0.0, 0.0, 0.0, -3618.9038895254007, 0.0]
['beep', 0.0, -6036.379162833591, 0.0, 0.0, 0.0, 0.0, -3623.731866327747, 0.0]
['beep', 0.0, -6034.6580785105325, 0.0, 0.0, 0.0, 0.0, -3630.0574100085987, 0.0]
['beep', 0.0, -6033.674601754499, 0.0, 0.0, 0.0, 0.0, -3632.113770498487, 0.0]
['beep', 0.0, -6033.5404912877675, 0.0, 0.0, 0.0, 0.0, -3637.4558374233056, 0.0]
['beep', 0.0, -6033.898119199052, 0.0, 0.0, 0.0, 0.0, -3642.3955729479285, 0.0]
['beep', 0.0, -6033.853415710141, 0.0, 0.0, 0.0, 0.0, -3644.898968326923, 0.0]
['beep', 0.0, -6035.105113399639, 0.0, 0.0, 0.0, 0.0, -3649.43637245135, 0.0]
['beep', 0.0, -6036.177997133494, 0.0, 0.0, 0.0, 0.0, -3653.280872497663, 0.0]
['beep', 0.0, -6035.552148288745, 0.0, 0.0, 0.0, 0.0, -3656.633634165959, 0.0]
['beep', 0.0, -6035.485093055379, 0.0, 0.0, 0.0, 0.0, -3660.478134212272, 0.0]
['beep', 0.0, -6035.887424455575, 0.0, 0.0, 0.0, 0.0, -3663.0709365690873, 0.0]
['beep', 0.0, -6036.446218066957, 0.0, 0.0, 0.0, 0.0, -3664.702613914325, 0.0]
['beep', 0.0, -6035.552148288745, 0.0, 0.0, 0.0, 0.0, -3664.72496565878, 0.0]
['beep', 0.0, -6034.881595955086, 0.0, 0.0, 0.0, 0.0, -3665.887256370456, 0.0]
['beep', 0.0, -6035.283927355281, 0.0, 0.0, 0.0, 0.0, -3670.6481779394367, 0.0]
['beep', 0.0, -6035.261575610826, 0.0, 0.0, 0.0, 0.0, -3672.0339860956656, 0.0]
['beep', 0.0, -6034.85924421063, 0.0, 0.0, 0.0, 0.0, -3670.8493436395343, 0.0]
['beep', 0.0, -6033.562843032222, 0.0, 0.0, 0.0, 0.0, -3672.883352384967, 0.0]
['beep', 0.0, -6034.523968043801, 0.0, 0.0, 0.0, 0.0, -3674.3809192634726, 0.0]
['beep', 0.0, -6034.948651188452, 0.0, 0.0, 0.0, 0.0, -3675.9008378864337, 0.0]
['beep', 0.0, -6035.350982588647, 0.0, 0.0, 0.0, 0.0, -3677.733680931769, 0.0]
['beep', 0.0, -6035.90977620003, 0.0, 0.0, 0.0, 0.0, -3678.694805943347, 0.0]
['beep', 0.0, -6035.663907011021, 0.0, 0.0, 0.0, 0.0, -3679.343006532551, 0.0]
['beep', 0.0, -6034.546319788256, 0.0, 0.0, 0.0, 0.0, -3680.2817797996736, 0.0]
['beep', 0.0, -6035.350982588647, 0.0, 0.0, 0.0, 0.0, -3681.8911054004557, 0.0]
['beep', 0.0, -6036.334459344681, 0.0, 0.0, 0.0, 0.0, -3683.63454146797, 0.0]
['beep', 0.0, -6034.322802343703, 0.0, 0.0, 0.0, 0.0, -3683.209858323319, 0.0]
['beep', 0.0, -6035.105113399639, 0.0, 0.0, 0.0, 0.0, -3680.7735181776907, 0.0]
['beep', 0.0, -6036.692087255966, 0.0, 0.0, 0.0, 0.0, -3680.4158902664058, 0.0]
['beep', 0.0, -6036.66973551151, 0.0, 0.0, 0.0, 0.0, -3682.5393059896596, 0.0]
['beep', 0.0, -6036.356811089136, 0.0, 0.0, 0.0, 0.0, -3683.433375767872, 0.0]
['beep', 0.0, -6035.283927355281, 0.0, 0.0, 0.0, 0.0, -3683.209858323319, 0.0]
['beep', 0.0, -6035.663907011021, 0.0, 0.0, 0.0, 0.0, -3682.4946025007494, 0.0]
['beep', 0.0, -6036.6250320226, 0.0, 0.0, 0.0, 0.0, -3681.8464019115454, 0.0]
['beep', 0.0, -6036.781494233786, 0.0, 0.0, 0.0, 0.0, -3683.723948445791, 0.0]
['beep', 0.0, -6037.407343078536, 0.0, 0.0, 0.0, 0.0, -3684.305093801629, 0.0]
['beep', 0.0, -6037.116770400617, 0.0, 0.0, 0.0, 0.0, -3684.215686823808, 0.0]
['beep', 0.0, -6037.362639589624, 0.0, 0.0, 0.0, 0.0, -3685.2885705576628, 0.0]
['beep', 0.0, -6037.027363422795, 0.0, 0.0, 0.0, 0.0, -3683.7686519347017, 0.0]
['beep', 0.0, -6037.809674478731, 0.0, 0.0, 0.0, 0.0, -3683.1428030899533, 0.0]
['beep', 0.0, -6038.726096001398, 0.0, 0.0, 0.0, 0.0, -3685.2215153242964, 0.0]
['beep', 0.0, -6038.81550297922, 0.0, 0.0, 0.0, 0.0, -3684.4392042683608, 0.0]
['beep', 0.0, -6037.876729712097, 0.0, 0.0, 0.0, 0.0, -3684.4839077572715, 0.0]
['beep', 0.0, -6037.742619245365, 0.0, 0.0, 0.0, 0.0, -3684.7521286907354, 0.0]
['beep', 0.0, -6037.250880867348, 0.0, 0.0, 0.0, 0.0, -3685.266218813207, 0.0]
['beep', 0.0, -6038.167302390016, 0.0, 0.0, 0.0, 0.0, -3685.7356054467687, 0.0]
['beep', 0.0, -6037.608508778633, 0.0, 0.0, 0.0, 0.0, -3686.3838060359726, 0.0]
['beep', 0.0, -6038.010840178828, 0.0, 0.0, 0.0, 0.0, -3685.7356054467687, 0.0]
['beep', 0.0, -6039.24018612387, 0.0, 0.0, 0.0, 0.0, -3686.5179165027043, 0.0]
['beep', 0.0, -6038.7037442569435, 0.0, 0.0, 0.0, 0.0, -3687.210820580819, 0.0]
['beep', 0.0, -6040.514235557823, 0.0, 0.0, 0.0, 0.0, -3688.171945592397, 0.0]
['beep', 0.0, -6039.95544194644, 0.0, 0.0, 0.0, 0.0, -3687.2555240697297, 0.0]
['beep', 0.0, -6038.212005878926, 0.0, 0.0, 0.0, 0.0, -3687.7249107032912, 0.0]
['beep', 0.0, -6039.19548263496, 0.0, 0.0, 0.0, 0.0, -3688.1272421034864, 0.0]
['beep', 0.0, -6040.246014624359, 0.0, 0.0, 0.0, 0.0, -3686.562619991615, 0.0]
['beep', 0.0, -6040.134255902083, 0.0, 0.0, 0.0, 0.0, -3685.8026606801345, 0.0]
['beep', 0.0, -6039.687221012977, 0.0, 0.0, 0.0, 0.0, -3686.2943990581516, 0.0]
['beep', 0.0, -6038.971965190407, 0.0, 0.0, 0.0, 0.0, -3685.82501242459, 0.0]
['beep', 0.0, -6040.134255902083, 0.0, 0.0, 0.0, 0.0, -3686.048529869143, 0.0]
['beep', 0.0, -6039.5307588017895, 0.0, 0.0, 0.0, 0.0, -3685.623846724492, 0.0]
['beep', 0.0, -6040.6259942801, 0.0, 0.0, 0.0, 0.0, -3684.4839077572715, 0.0]
['beep', 0.0, -6038.793151234764, 0.0, 0.0, 0.0, 0.0, -3685.8473641690452, 0.0]
['beep', 0.0, -6038.189654134471, 0.0, 0.0, 0.0, 0.0, -3687.4790415142825, 0.0]
['beep', 0.0, -6038.8825582125855, 0.0, 0.0, 0.0, 0.0, -3686.0038263802326, 0.0]
['beep', 0.0, -6039.664869268521, 0.0, 0.0, 0.0, 0.0, -3687.657855469925, 0.0]
['beep', 0.0, -6040.424828580002, 0.0, 0.0, 0.0, 0.0, -3689.1330706039753, 0.0]
['beep', 0.0, -6040.9389187024735, 0.0, 0.0, 0.0, 0.0, -3689.513050259716, 0.0]
['beep', 0.0, -6040.111904157628, 0.0, 0.0, 0.0, 0.0, -3689.8036229376344, 0.0]
['beep', 0.0, -6040.089552413172, 0.0, 0.0, 0.0, 0.0, -3689.5801054930816, 0.0]
['beep', 0.0, -6040.827159980197, 0.0, 0.0, 0.0, 0.0, -3690.138899104464, 0.0]
['beep', 0.0, -6039.731924501887, 0.0, 0.0, 0.0, 0.0, -3690.6529892269364, 0.0]
['beep', 0.0, -6038.256709367837, 0.0, 0.0, 0.0, 0.0, -3688.1272421034864, 0.0]
['beep', 0.0, -6037.42969482299, 0.0, 0.0, 0.0, 0.0, -3688.6189804815035, 0.0]
['beep', 0.0, -6037.116770400617, 0.0, 0.0, 0.0, 0.0, -3691.3235415605955, 0.0]
['beep', 0.0, -6037.921433201008, 0.0, 0.0, 0.0, 0.0, -3689.624808981992, 0.0]
['beep', 0.0, -6039.3519448461475, 0.0, 0.0, 0.0, 0.0, -3688.4178147814055, 0.0]
['beep', 0.0, -6039.19548263496, 0.0, 0.0, 0.0, 0.0, -3689.401291537439, 0.0]
['beep', 0.0, -6039.664869268521, 0.0, 0.0, 0.0, 0.0, -3690.2283060822856, 0.0]
['beep', 0.0, -6040.7601047468315, 0.0, 0.0, 0.0, 0.0, -3689.557753748626, 0.0]
['beep', 0.0, -6040.134255902083, 0.0, 0.0, 0.0, 0.0, -3689.8036229376344, 0.0]
['beep', 0.0, -6040.067200668717, 0.0, 0.0, 0.0, 0.0, -3690.183602593375, 0.0]
['beep', 0.0, -6040.380125091091, 0.0, 0.0, 0.0, 0.0, -3689.7812711931792, 0.0]
['beep', 0.0, -6039.307241357236, 0.0, 0.0, 0.0, 0.0, -3689.11071885952, 0.0]
['beep', 0.0, -6039.329593101692, 0.0, 0.0, 0.0, 0.0, -3688.1942973368523, 0.0]
['beep', 0.0, -6040.782456491287, 0.0, 0.0, 0.0, 0.0, -3690.5859339935705, 0.0]
['beep', 0.0, -6040.201311135449, 0.0, 0.0, 0.0, 0.0, -3691.412948538417, 0.0]
['beep', 0.0, -6038.8825582125855, 0.0, 0.0, 0.0, 0.0, -3689.9600851488217, 0.0]
['beep', 0.0, -6039.553110546245, 0.0, 0.0, 0.0, 0.0, -3690.0718438710983, 0.0]
['beep', 0.0, -6040.268366368815, 0.0, 0.0, 0.0, 0.0, -3690.1612508489197, 0.0]
['beep', 0.0, -6040.603642535644, 0.0, 0.0, 0.0, 0.0, -3691.9493904053443, 0.0]
['beep', 0.0, -6040.424828580002, 0.0, 0.0, 0.0, 0.0, -3692.798756694646, 0.0]
['beep', 0.0, -6040.402476835547, 0.0, 0.0, 0.0, 0.0, -3690.8094514381232, 0.0]
['beep', 0.0, -6039.6425175240665, 0.0, 0.0, 0.0, 0.0, -3689.6471607264475, 0.0]
['beep', 0.0, -6038.346116345659, 0.0, 0.0, 0.0, 0.0, -3688.909553159422, 0.0]
['beep', 0.0, -6040.156607646538, 0.0, 0.0, 0.0, 0.0, -3689.9600851488217, 0.0]
['beep', 0.0, -6042.168264647516, 0.0, 0.0, 0.0, 0.0, -3692.7093497168244, 0.0]
['beep', 0.0, -6040.827159980197, 0.0, 0.0, 0.0, 0.0, -3690.7423962047574, 0.0]
['beep', 0.0, -6039.486055312879, 0.0, 0.0, 0.0, 0.0, -3690.3177130601066, 0.0]
['beep', 0.0, -6040.7601047468315, 0.0, 0.0, 0.0, 0.0, -3689.848326426545, 0.0]
['beep', 0.0, -6040.424828580002, 0.0, 0.0, 0.0, 0.0, -3688.6413322259586, 0.0]
['beep', 0.0, -6041.38595359158, 0.0, 0.0, 0.0, 0.0, -3689.4459950263495, 0.0]
['beep', 0.0, -6041.050677424751, 0.0, 0.0, 0.0, 0.0, -3689.8036229376344, 0.0]
['beep', 0.0, -6040.067200668717, 0.0, 0.0, 0.0, 0.0, -3690.8094514381232, 0.0]
['beep', 0.0, -6039.374296590602, 0.0, 0.0, 0.0, 0.0, -3689.267181070707, 0.0]
['beep', 0.0, -6040.156607646538, 0.0, 0.0, 0.0, 0.0, -3691.524707260693, 0.0]
['beep', 0.0, -6041.073029169206, 0.0, 0.0, 0.0, 0.0, -3691.9493904053443, 0.0]
['beep', 0.0, -6039.463703568424, 0.0, 0.0, 0.0, 0.0, -3690.5859339935705, 0.0]
['beep', 0.0, -6039.419000079513, 0.0, 0.0, 0.0, 0.0, -3689.3118845596177, 0.0]
['beep', 0.0, -6040.9389187024735, 0.0, 0.0, 0.0, 0.0, -3689.6918642153582, 0.0]
['beep', 0.0, -6041.363601847124, 0.0, 0.0, 0.0, 0.0, -3688.462518270316, 0.0]
['beep', 0.0, -6042.682354769988, 0.0, 0.0, 0.0, 0.0, -3688.239000825763, 0.0]
['beep', 0.0, -6043.017630936817, 0.0, 0.0, 0.0, 0.0, -3686.897896158445, 0.0]
['beep', 0.0, -6040.156607646538, 0.0, 0.0, 0.0, 0.0, -3686.8084891806234, 0.0]
['beep', 0.0, -6041.140084402572, 0.0, 0.0, 0.0, 0.0, -3686.048529869143, 0.0]
['beep', 0.0, -6043.621128037111, 0.0, 0.0, 0.0, 0.0, -3688.4848700147713, 0.0]
['beep', 0.0, -6043.710535014932, 0.0, 0.0, 0.0, 0.0, -3690.049492126643, 0.0]
['beep', 0.0, -6042.257671625337, 0.0, 0.0, 0.0, 0.0, -3689.5801054930816, 0.0]
['beep', 0.0, -6039.866034968619, 0.0, 0.0, 0.0, 0.0, -3688.4848700147713, 0.0]
['beep', 0.0, -6040.491883813368, 0.0, 0.0, 0.0, 0.0, -3688.01548338121, 0.0]
['beep', 0.0, -6041.564767547223, 0.0, 0.0, 0.0, 0.0, -3688.3954630369503, 0.0]
['beep', 0.0, -6042.056505925239, 0.0, 0.0, 0.0, 0.0, -3692.5752392500926, 0.0]
['beep', 0.0, -6040.804808235742, 0.0, 0.0, 0.0, 0.0, -3693.089329372565, 0.0]
['beep', 0.0, -6040.089552413172, 0.0, 0.0, 0.0, 0.0, -3691.435300282872, 0.0]
['beep', 0.0, -6041.050677424751, 0.0, 0.0, 0.0, 0.0, -3692.664646227914, 0.0]
['beep', 0.0, -6040.603642535644, 0.0, 0.0, 0.0, 0.0, -3692.150556105442, 0.0]
['beep', 0.0, -6040.916566958019, 0.0, 0.0, 0.0, 0.0, -3692.01644563871, 0.0]
['beep', 0.0, -6040.782456491287, 0.0, 0.0, 0.0, 0.0, -3692.508184016727, 0.0]
['beep', 0.0, -6040.380125091091, 0.0, 0.0, 0.0, 0.0, -3692.7093497168244, 0.0]
['beep', 0.0, -6040.134255902083, 0.0, 0.0, 0.0, 0.0, -3692.8434601835565, 0.0]
['beep', 0.0, -6040.693049513466, 0.0, 0.0, 0.0, 0.0, -3693.2010880948415, 0.0]
['beep', 0.0, -6043.062334425728, 0.0, 0.0, 0.0, 0.0, -3693.5587160061264, 0.0]
['beep', 0.0, -6041.363601847124, 0.0, 0.0, 0.0, 0.0, -3692.105852616531, 0.0]
['beep', 0.0, -6039.19548263496, 0.0, 0.0, 0.0, 0.0, -3690.8765066714896, 0.0]
['beep', 0.0, -6039.664869268521, 0.0, 0.0, 0.0, 0.0, -3690.116547360009, 0.0]
['beep', 0.0, -6041.095380913661, 0.0, 0.0, 0.0, 0.0, -3690.0271403821876, 0.0]
['beep', 0.0, -6042.5258925588005, 0.0, 0.0, 0.0, 0.0, -3691.077672371587, 0.0]
['beep', 0.0, -6043.621128037111, 0.0, 0.0, 0.0, 0.0, -3693.335198561573, 0.0]
['beep', 0.0, -6043.19644489246, 0.0, 0.0, 0.0, 0.0, -3693.402253794939, 0.0]
['beep', 0.0, -6042.592947792166, 0.0, 0.0, 0.0, 0.0, -3690.9882653937657, 0.0]
['beep', 0.0, -6043.129389659094, 0.0, 0.0, 0.0, 0.0, -3691.792928194157, 0.0]
['beep', 0.0, -6046.012764693829, 0.0, 0.0, 0.0, 0.0, -3691.7035212163355, 0.0]
['beep', 0.0, -6042.8164652367195, 0.0, 0.0, 0.0, 0.0, -3691.9270386608887, 0.0]
['beep', 0.0, -6042.280023369793, 0.0, 0.0, 0.0, 0.0, -3693.134032861475, 0.0]
['beep', 0.0, -6042.078857669694, 0.0, 0.0, 0.0, 0.0, -3693.82693693959, 0.0]
['beep', 0.0, -6043.5764245482005, 0.0, 0.0, 0.0, 0.0, -3695.391559051461, 0.0]
['beep', 0.0, -6043.15174140355, 0.0, 0.0, 0.0, 0.0, -3695.056282884632, 0.0]
['beep', 0.0, -6041.564767547223, 0.0, 0.0, 0.0, 0.0, -3694.8327654400787, 0.0]
['beep', 0.0, -6041.251843124848, 0.0, 0.0, 0.0, 0.0, -3694.698654973347, 0.0]
['beep', 0.0, -6041.363601847124, 0.0, 0.0, 0.0, 0.0, -3694.363378806517, 0.0]
['beep', 0.0, -6043.062334425728, 0.0, 0.0, 0.0, 0.0, -3696.4420910408608, 0.0]
['beep', 0.0, -6045.453971082446, 0.0, 0.0, 0.0, 0.0, -3697.559678263626, 0.0]
['beep', 0.0, -6045.6327850380885, 0.0, 0.0, 0.0, 0.0, -3694.3857305509728, 0.0]
['beep', 0.0, -6044.112866415127, 0.0, 0.0, 0.0, 0.0, -3692.4187770389053, 0.0]
['beep', 0.0, -6044.269328626315, 0.0, 0.0, 0.0, 0.0, -3692.150556105442, 0.0]
['beep', 0.0, -6044.068162926217, 0.0, 0.0, 0.0, 0.0, -3693.6481229839474, 0.0]
['beep', 0.0, -6039.396648335058, 0.0, 0.0, 0.0, 0.0, -3691.368245049506, 0.0]
['beep', 0.0, -6037.496750056356, 0.0, 0.0, 0.0, 0.0, -3689.602457237537, 0.0]
['beep', 0.0, -6035.239223866371, 0.0, 0.0, 0.0, 0.0, -3689.4236432818943, 0.0]
['beep', 0.0, -6035.686258755477, 0.0, 0.0, 0.0, 0.0, -3690.9882653937657, 0.0]
['beep', 0.0, -6037.675564011999, 0.0, 0.0, 0.0, 0.0, -3691.167079349408, 0.0]
['beep', 0.0, -6039.5754622907, 0.0, 0.0, 0.0, 0.0, -3692.2176113388077, 0.0]
['beep', 0.0, -6038.681392512488, 0.0, 0.0, 0.0, 0.0, -3692.2176113388077, 0.0]
['beep', 0.0, -6038.748447745854, 0.0, 0.0, 0.0, 0.0, -3693.6481229839474, 0.0]
['beep', 0.0, -6039.91073845753, 0.0, 0.0, 0.0, 0.0, -3694.0951578730537, 0.0]
['beep', 0.0, -6041.095380913661, 0.0, 0.0, 0.0, 0.0, -3695.4586142848275, 0.0]
['beep', 0.0, -6042.369430347613, 0.0, 0.0, 0.0, 0.0, -3695.436262540372, 0.0]
['beep', 0.0, -6041.810636736231, 0.0, 0.0, 0.0, 0.0, -3694.564544506615, 0.0]
['beep', 0.0, -6039.731924501887, 0.0, 0.0, 0.0, 0.0, -3694.363378806517, 0.0]
['beep', 0.0, -6039.128427401594, 0.0, 0.0, 0.0, 0.0, -3694.653951484436, 0.0]
['beep', 0.0, -6040.067200668717, 0.0, 0.0, 0.0, 0.0, -3695.659779984925, 0.0]
['beep', 0.0, -6041.34125010267, 0.0, 0.0, 0.0, 0.0, -3697.2914573301623, 0.0]
['beep', 0.0, -6042.145912903061, 0.0, 0.0, 0.0, 0.0, -3697.336160819073, 0.0]
['beep', 0.0, -6040.491883813368, 0.0, 0.0, 0.0, 0.0, -3696.039759640665, 0.0]
['beep', 0.0, -6039.508407057334, 0.0, 0.0, 0.0, 0.0, -3695.5033177737378, 0.0]
['beep', 0.0, -6038.681392512488, 0.0, 0.0, 0.0, 0.0, -3697.2020503523413, 0.0]
['beep', 0.0, -6039.6425175240665, 0.0, 0.0, 0.0, 0.0, -3697.716140474813, 0.0]
['beep', 0.0, -6039.664869268521, 0.0, 0.0, 0.0, 0.0, -3695.8385939405675, 0.0]
['beep', 0.0, -6038.4131715790245, 0.0, 0.0, 0.0, 0.0, -3695.4586142848275, 0.0]
['beep', 0.0, -6038.279061112293, 0.0, 0.0, 0.0, 0.0, -3696.4867945297715, 0.0]
['beep', 0.0, -6039.5307588017895, 0.0, 0.0, 0.0, 0.0, -3696.889125929967, 0.0]
['beep', 0.0, -6040.715401257921, 0.0, 0.0, 0.0, 0.0, -3696.956181163333, 0.0]
['beep', 0.0, -6038.346116345659, 0.0, 0.0, 0.0, 0.0, -3696.240925340763, 0.0]
['beep', 0.0, -6037.027363422795, 0.0, 0.0, 0.0, 0.0, -3695.391559051461, 0.0]
['beep', 0.0, -6036.28975585577, 0.0, 0.0, 0.0, 0.0, -3696.2185735963076, 0.0]
['beep', 0.0, -6037.876729712097, 0.0, 0.0, 0.0, 0.0, -3698.051416641643, 0.0]
['beep', 0.0, -6037.876729712097, 0.0, 0.0, 0.0, 0.0, -3699.1019486310424, 0.0]
['beep', 0.0, -6039.24018612387, 0.0, 0.0, 0.0, 0.0, -3700.174832364897, 0.0]
['beep', 0.0, -6039.039020423773, 0.0, 0.0, 0.0, 0.0, -3701.247716098752, 0.0]
['beep', 0.0, -6036.870901211608, 0.0, 0.0, 0.0, 0.0, -3701.3147713321177, 0.0]
['beep', 0.0, -6037.362639589624, 0.0, 0.0, 0.0, 0.0, -3700.5101085317265, 0.0]
['beep', 0.0, -6038.122598901105, 0.0, 0.0, 0.0, 0.0, -3699.951314920344, 0.0]
['beep', 0.0, -6036.66973551151, 0.0, 0.0, 0.0, 0.0, -3701.471233543305, 0.0]
['beep', 0.0, -6035.887424455575, 0.0, 0.0, 0.0, 0.0, -3701.0241986541987, 0.0]
['beep', 0.0, -6034.166340132516, 0.0, 0.0, 0.0, 0.0, -3700.465405042816, 0.0]
['beep', 0.0, -6035.015706421817, 0.0, 0.0, 0.0, 0.0, -3702.9688004218106, 0.0]
['beep', 0.0, -6034.725133743898, 0.0, 0.0, 0.0, 0.0, -3704.0416841556653, 0.0]
['beep', 0.0, -6033.875767454597, 0.0, 0.0, 0.0, 0.0, -3702.477062043794, 0.0]
['beep', 0.0, -6032.28879359827, 0.0, 0.0, 0.0, 0.0, -3701.270067843207, 0.0]
['beep', 0.0, -6031.551186031245, 0.0, 0.0, 0.0, 0.0, -3701.203012609841, 0.0]
['beep', 0.0, -6033.451084309946, 0.0, 0.0, 0.0, 0.0, -3701.694750987858, 0.0]
['beep', 0.0, -6034.747485488354, 0.0, 0.0, 0.0, 0.0, -3702.2535445992407, 0.0]
['beep', 0.0, -6033.495787798856, 0.0, 0.0, 0.0, 0.0, -3701.918268432411, 0.0]
['beep', 0.0, -6031.707648242432, 0.0, 0.0, 0.0, 0.0, -3700.554812020637, 0.0]
['beep', 0.0, -6031.774703475798, 0.0, 0.0, 0.0, 0.0, -3700.0630736426206, 0.0]
['beep', 0.0, -6032.355848831636, 0.0, 0.0, 0.0, 0.0, -3700.599515509548, 0.0]
['beep', 0.0, -6032.713476742921, 0.0, 0.0, 0.0, 0.0, -3700.912439931922, 0.0]
['beep', 0.0, -6032.869938954108, 0.0, 0.0, 0.0, 0.0, -3702.4100068104276, 0.0]
['beep', 0.0, -6031.707648242432, 0.0, 0.0, 0.0, 0.0, -3702.6111725105256, 0.0]
['beep', 0.0, -6031.864110453619, 0.0, 0.0, 0.0, 0.0, -3700.823032954101, 0.0]
['beep', 0.0, -6033.38402907658, 0.0, 0.0, 0.0, 0.0, -3701.337123076573, 0.0]
['beep', 0.0, -6033.227566865393, 0.0, 0.0, 0.0, 0.0, -3700.957143420833, 0.0]
['beep', 0.0, -6031.797055220253, 0.0, 0.0, 0.0, 0.0, -3701.0241986541987, 0.0]
['beep', 0.0, -6031.640593009066, 0.0, 0.0, 0.0, 0.0, -3701.82886145459, 0.0]
['beep', 0.0, -6030.880633697586, 0.0, 0.0, 0.0, 0.0, -3699.884259686978, 0.0]
['beep', 0.0, -6030.455950552935, 0.0, 0.0, 0.0, 0.0, -3701.0018469097436, 0.0]
['beep', 0.0, -6030.5453575307565, 0.0, 0.0, 0.0, 0.0, -3701.694750987858, 0.0]
['beep', 0.0, -6031.417075564513, 0.0, 0.0, 0.0, 0.0, -3700.688922487369, 0.0]
['beep', 0.0, -6029.405418563535, 0.0, 0.0, 0.0, 0.0, -3701.49358528776, 0.0]
['beep', 0.0, -6029.00308716334, 0.0, 0.0, 0.0, 0.0, -3700.979495165288, 0.0]
['beep', 0.0, -6030.47830229739, 0.0, 0.0, 0.0, 0.0, -3702.4547102993383, 0.0]
['beep', 0.0, -6031.707648242432, 0.0, 0.0, 0.0, 0.0, -3701.605344010037, 0.0]
['beep', 0.0, -6031.998220920351, 0.0, 0.0, 0.0, 0.0, -3702.477062043794, 0.0]
['beep', 0.0, -6028.109017385128, 0.0, 0.0, 0.0, 0.0, -3702.7005794883466, 0.0]
['beep', 0.0, -6027.773741218298, 0.0, 0.0, 0.0, 0.0, -3704.4216638114053, 0.0]
['beep', 0.0, -6031.752351731343, 0.0, 0.0, 0.0, 0.0, -3703.505242288738, 0.0]
['beep', 0.0, -6031.707648242432, 0.0, 0.0, 0.0, 0.0, -3702.6558759994364, 0.0]
['beep', 0.0, -6031.148854631049, 0.0, 0.0, 0.0, 0.0, -3702.54411727716, 0.0]
['beep', 0.0, -6029.3160115857145, 0.0, 0.0, 0.0, 0.0, -3702.2982480881515, 0.0]
['beep', 0.0, -6028.690162740965, 0.0, 0.0, 0.0, 0.0, -3702.6111725105256, 0.0]
['beep', 0.0, -6030.075970897195, 0.0, 0.0, 0.0, 0.0, -3702.3205998326066, 0.0]
['beep', 0.0, -6030.47830229739, 0.0, 0.0, 0.0, 0.0, -3702.9240969329, 0.0]
['beep', 0.0, -6030.4335988084795, 0.0, 0.0, 0.0, 0.0, -3702.6111725105256, 0.0]
['beep', 0.0, -6028.980735418884, 0.0, 0.0, 0.0, 0.0, -3702.477062043794, 0.0]
['beep', 0.0, -6028.690162740965, 0.0, 0.0, 0.0, 0.0, -3702.9240969329, 0.0]
['beep', 0.0, -6030.5453575307565, 0.0, 0.0, 0.0, 0.0, -3705.0698644006093, 0.0]
['beep', 0.0, -6031.104151142139, 0.0, 0.0, 0.0, 0.0, -3704.6675330004136, 0.0]
['beep', 0.0, -6028.399590063047, 0.0, 0.0, 0.0, 0.0, -3702.3653033215173, 0.0]
['beep', 0.0, -6028.153720874038, 0.0, 0.0, 0.0, 0.0, -3700.8677364430114, 0.0]
['beep', 0.0, -6029.025438907795, 0.0, 0.0, 0.0, 0.0, -3701.985323665777, 0.0]
['beep', 0.0, -6029.695991241454, 0.0, 0.0, 0.0, 0.0, -3702.8123382106232, 0.0]
['beep', 0.0, -6031.975869175896, 0.0, 0.0, 0.0, 0.0, -3703.952277177844, 0.0]
['beep', 0.0, -6031.998220920351, 0.0, 0.0, 0.0, 0.0, -3703.438187055372, 0.0]
['beep', 0.0, -6029.897156941553, 0.0, 0.0, 0.0, 0.0, -3700.621867254003, 0.0]
['beep', 0.0, -6030.657116253033, 0.0, 0.0, 0.0, 0.0, -3699.504280031238, 0.0]
['beep', 0.0, -6031.305316842237, 0.0, 0.0, 0.0, 0.0, -3701.7618062212237, 0.0]
['beep', 0.0, -6031.260613353326, 0.0, 0.0, 0.0, 0.0, -3701.1359573764753, 0.0]
['beep', 0.0, -6031.305316842237, 0.0, 0.0, 0.0, 0.0, -3701.605344010037, 0.0]
['beep', 0.0, -6031.215909864415, 0.0, 0.0, 0.0, 0.0, -3701.694750987858, 0.0]
['beep', 0.0, -6029.4948255413565, 0.0, 0.0, 0.0, 0.0, -3703.7064079888355, 0.0]
['beep', 0.0, -6031.707648242432, 0.0, 0.0, 0.0, 0.0, -3702.946448677355, 0.0]
['beep', 0.0, -6032.333497087181, 0.0, 0.0, 0.0, 0.0, -3702.432358554883, 0.0]
['beep', 0.0, -6031.640593009066, 0.0, 0.0, 0.0, 0.0, -3702.3205998326066, 0.0]
['beep', 0.0, -6031.640593009066, 0.0, 0.0, 0.0, 0.0, -3699.8172044536122, 0.0]
['beep', 0.0, -6030.232433108382, 0.0, 0.0, 0.0, 0.0, -3700.688922487369, 0.0]
['beep', 0.0, -6032.266441853815, 0.0, 0.0, 0.0, 0.0, -3701.046550398654, 0.0]
['beep', 0.0, -6032.4899592983675, 0.0, 0.0, 0.0, 0.0, -3700.7112742318245, 0.0]
['beep', 0.0, -6031.461779053424, 0.0, 0.0, 0.0, 0.0, -3702.3205998326066, 0.0]
['beep', 0.0, -6031.439427308968, 0.0, 0.0, 0.0, 0.0, -3701.7841579656792, 0.0]
['beep', 0.0, -6031.081799397683, 0.0, 0.0, 0.0, 0.0, -3703.0358556551764, 0.0]
['beep', 0.0, -6030.210081363926, 0.0, 0.0, 0.0, 0.0, -3703.3934835664613, 0.0]
['beep', 0.0, -6030.411247064024, 0.0, 0.0, 0.0, 0.0, -3701.3594748210285, 0.0]
['beep', 0.0, -6028.936031929974, 0.0, 0.0, 0.0, 0.0, -3701.1359573764753, 0.0]
['beep', 0.0, -6028.086665640672, 0.0, 0.0, 0.0, 0.0, -3701.6500474989475, 0.0]
['beep', 0.0, -6029.137197630072, 0.0, 0.0, 0.0, 0.0, -3702.7676347217125, 0.0]
['beep', 0.0, -6029.070142396706, 0.0, 0.0, 0.0, 0.0, -3702.857041699534, 0.0]
['beep', 0.0, -6030.031267408284, 0.0, 0.0, 0.0, 0.0, -3701.3147713321177, 0.0]
['beep', 0.0, -6029.360715074625, 0.0, 0.0, 0.0, 0.0, -3701.605344010037, 0.0]
['beep', 0.0, -6030.075970897195, 0.0, 0.0, 0.0, 0.0, -3701.0241986541987, 0.0]
['beep', 0.0, -6030.590061019667, 0.0, 0.0, 0.0, 0.0, -3701.82886145459, 0.0]
['beep', 0.0, -6032.981697676385, 0.0, 0.0, 0.0, 0.0, -3702.0076754102324, 0.0]
['beep', 0.0, -6032.936994187474, 0.0, 0.0, 0.0, 0.0, -3702.6111725105256, 0.0]
['beep', 0.0, -6030.925337186496, 0.0, 0.0, 0.0, 0.0, -3703.080559144087, 0.0]
['beep', 0.0, -6031.707648242432, 0.0, 0.0, 0.0, 0.0, -3701.694750987858, 0.0]
['beep', 0.0, -6030.187729619472, 0.0, 0.0, 0.0, 0.0, -3702.3205998326066, 0.0]
['beep', 0.0, -6030.321840086203, 0.0, 0.0, 0.0, 0.0, -3702.3653033215173, 0.0]
['beep', 0.0, -6033.674601754499, 0.0, 0.0, 0.0, 0.0, -3702.6558759994364, 0.0]
['beep', 0.0, -6032.6240697651, 0.0, 0.0, 0.0, 0.0, -3700.9347916763777, 0.0]
['beep', 0.0, -6031.148854631049, 0.0, 0.0, 0.0, 0.0, -3700.823032954101, 0.0]
['beep', 0.0, -6031.864110453619, 0.0, 0.0, 0.0, 0.0, -3702.1641376214193, 0.0]
['beep', 0.0, -6032.333497087181, 0.0, 0.0, 0.0, 0.0, -3704.801643467146, 0.0]
['beep', 0.0, -6034.792188977264, 0.0, 0.0, 0.0, 0.0, -3704.6451812559585, 0.0]
['beep', 0.0, -6034.389857577069, 0.0, 0.0, 0.0, 0.0, -3703.9299254333887, 0.0]
['beep', 0.0, -6032.132331387083, 0.0, 0.0, 0.0, 0.0, -3703.8405184555672, 0.0]
['beep', 0.0, -6032.534662787279, 0.0, 0.0, 0.0, 0.0, -3704.3099050891287, 0.0]
['beep', 0.0, -6033.316973843214, 0.0, 0.0, 0.0, 0.0, -3704.6451812559585, 0.0]
['beep', 0.0, -6034.166340132516, 0.0, 0.0, 0.0, 0.0, -3705.405140567439, 0.0]
['beep', 0.0, -6032.445255809457, 0.0, 0.0, 0.0, 0.0, -3703.9969806667546, 0.0]
['beep', 0.0, -6030.2547848528375, 0.0, 0.0, 0.0, 0.0, -3704.7792917226902, 0.0]
['beep', 0.0, -6031.640593009066, 0.0, 0.0, 0.0, 0.0, -3706.455672556838, 0.0]
['beep', 0.0, -6031.327668586692, 0.0, 0.0, 0.0, 0.0, -3707.148576634953, 0.0]
['beep', 0.0, -6033.026401165295, 0.0, 0.0, 0.0, 0.0, -3708.467329557816, 0.0]
['beep', 0.0, -6032.869938954108, 0.0, 0.0, 0.0, 0.0, -3709.137881891475, 0.0]
['beep', 0.0, -6031.729999986887, 0.0, 0.0, 0.0, 0.0, -3707.1262248904977, 0.0]
['beep', 0.0, -6030.590061019667, 0.0, 0.0, 0.0, 0.0, -3706.790948723668, 0.0]
['beep', 0.0, -6032.154683131538, 0.0, 0.0, 0.0, 0.0, -3707.5732597796036, 0.0]
['beep', 0.0, -6034.300450599248, 0.0, 0.0, 0.0, 0.0, -3707.2379836127743, 0.0]
['beep', 0.0, -6032.981697676385, 0.0, 0.0, 0.0, 0.0, -3706.075692901098, 0.0]
['beep', 0.0, -6030.970040675407, 0.0, 0.0, 0.0, 0.0, -3706.343913834562, 0.0]
['beep', 0.0, -6032.087627898172, 0.0, 0.0, 0.0, 0.0, -3707.1262248904977, 0.0]
['beep', 0.0, -6031.707648242432, 0.0, 0.0, 0.0, 0.0, -3706.768596979213, 0.0]
['beep', 0.0, -6031.417075564513, 0.0, 0.0, 0.0, 0.0, -3707.1932801238636, 0.0]
['beep', 0.0, -6031.707648242432, 0.0, 0.0, 0.0, 0.0, -3706.9027074459445, 0.0]
['beep', 0.0, -6029.673639496999, 0.0, 0.0, 0.0, 0.0, -3707.796777224157, 0.0]
['beep', 0.0, -6030.09832264165, 0.0, 0.0, 0.0, 0.0, -3707.819128968612, 0.0]
['beep', 0.0, -6031.1935581199605, 0.0, 0.0, 0.0, 0.0, -3708.422626068905, 0.0]
['beep', 0.0, -6031.975869175896, 0.0, 0.0, 0.0, 0.0, -3708.5120330467266, 0.0]
['beep', 0.0, -6031.707648242432, 0.0, 0.0, 0.0, 0.0, -3706.9921144237655, 0.0]
['beep', 0.0, -6031.238261608871, 0.0, 0.0, 0.0, 0.0, -3705.561602778626, 0.0]
['beep', 0.0, -6031.305316842237, 0.0, 0.0, 0.0, 0.0, -3706.500376045749, 0.0]
['beep', 0.0, -6030.567709275211, 0.0, 0.0, 0.0, 0.0, -3706.8356522125787, 0.0]
['beep', 0.0, -6029.7853982192755, 0.0, 0.0, 0.0, 0.0, -3708.8473092135564, 0.0]
['beep', 0.0, -6030.634764508577, 0.0, 0.0, 0.0, 0.0, -3707.729721990791, 0.0]
['beep', 0.0, -6028.064313896217, 0.0, 0.0, 0.0, 0.0, -3707.148576634953, 0.0]
['beep', 0.0, -6026.209119106426, 0.0, 0.0, 0.0, 0.0, -3708.2885156021734, 0.0]
['beep', 0.0, -6029.38306681908, 0.0, 0.0, 0.0, 0.0, -3708.40027432445, 0.0]
['beep', 0.0, -6030.411247064024, 0.0, 0.0, 0.0, 0.0, -3708.2438121132627, 0.0]
['beep', 0.0, -6029.807749963731, 0.0, 0.0, 0.0, 0.0, -3708.5343847911818, 0.0]
['beep', 0.0, -6028.824273207698, 0.0, 0.0, 0.0, 0.0, -3708.6461435134584, 0.0]
['beep', 0.0, -6029.628936008088, 0.0, 0.0, 0.0, 0.0, -3709.5849167805814, 0.0]
['beep', 0.0, -6029.76304647482, 0.0, 0.0, 0.0, 0.0, -3709.2943441026623, 0.0]
['beep', 0.0, -6028.511348785323, 0.0, 0.0, 0.0, 0.0, -3707.68501850188, 0.0]
['beep', 0.0, -6028.399590063047, 0.0, 0.0, 0.0, 0.0, -3708.8026057246457, 0.0]
['beep', 0.0, -6028.690162740965, 0.0, 0.0, 0.0, 0.0, -3709.2272888692964, 0.0]
['beep', 0.0, -6029.137197630072, 0.0, 0.0, 0.0, 0.0, -3709.763730736224, 0.0]
['beep', 0.0, -6030.210081363926, 0.0, 0.0, 0.0, 0.0, -3711.4177598259166, 0.0]
['beep', 0.0, -6031.52883428679, 0.0, 0.0, 0.0, 0.0, -3712.3788848374948, 0.0]
['beep', 0.0, -6031.305316842237, 0.0, 0.0, 0.0, 0.0, -3710.8142627256234, 0.0]
['beep', 0.0, -6031.864110453619, 0.0, 0.0, 0.0, 0.0, -3710.702504003347, 0.0]
['beep', 0.0, -6031.864110453619, 0.0, 0.0, 0.0, 0.0, -3710.1884138808746, 0.0]
['beep', 0.0, -6031.417075564513, 0.0, 0.0, 0.0, 0.0, -3709.920192947411, 0.0]
['beep', 0.0, -6031.104151142139, 0.0, 0.0, 0.0, 0.0, -3712.4459400708606, 0.0]
['beep', 0.0, -6031.774703475798, 0.0, 0.0, 0.0, 0.0, -3713.1388441489753, 0.0]
['beep', 0.0, -6031.148854631049, 0.0, 0.0, 0.0, 0.0, -3712.1553673929416, 0.0]
['beep', 0.0, -6031.148854631049, 0.0, 0.0, 0.0, 0.0, -3712.311829604129, 0.0]
['beep', 0.0, -6032.221738364904, 0.0, 0.0, 0.0, 0.0, -3712.7141610043245, 0.0]
['beep', 0.0, -6034.456912810435, 0.0, 0.0, 0.0, 0.0, -3712.982381937788, 0.0]
['beep', 0.0, -6032.892290698564, 0.0, 0.0, 0.0, 0.0, -3711.8424429705674, 0.0]
['beep', 0.0, -6029.852453452641, 0.0, 0.0, 0.0, 0.0, -3712.0883121595757, 0.0]
['beep', 0.0, -6030.210081363926, 0.0, 0.0, 0.0, 0.0, -3712.602402282048, 0.0]
['beep', 0.0, -6031.148854631049, 0.0, 0.0, 0.0, 0.0, -3712.244774370763, 0.0]
['beep', 0.0, -6032.3111453427255, 0.0, 0.0, 0.0, 0.0, -3710.7472074922575, 0.0]
['beep', 0.0, -6032.065276153717, 0.0, 0.0, 0.0, 0.0, -3711.8200912261123, 0.0]
['beep', 0.0, -6032.154683131538, 0.0, 0.0, 0.0, 0.0, -3712.3565330930396, 0.0]
['beep', 0.0, -6031.260613353326, 0.0, 0.0, 0.0, 0.0, -3711.4177598259166, 0.0]
['beep', 0.0, -6031.975869175896, 0.0, 0.0, 0.0, 0.0, -3711.9318499483884, 0.0]
['beep', 0.0, -6033.406380821036, 0.0, 0.0, 0.0, 0.0, -3711.663629014925, 0.0]
['beep', 0.0, -6033.920470943507, 0.0, 0.0, 0.0, 0.0, -3710.344876092062, 0.0]
['beep', 0.0, -6032.7805319762865, 0.0, 0.0, 0.0, 0.0, -3710.434283069883, 0.0]
['beep', 0.0, -6034.09928489915, 0.0, 0.0, 0.0, 0.0, -3708.8026057246457, 0.0]
['beep', 0.0, -6034.389857577069, 0.0, 0.0, 0.0, 0.0, -3708.02029466871, 0.0]
['beep', 0.0, -6035.462741310924, 0.0, 0.0, 0.0, 0.0, -3709.5178615472155, 0.0]
['beep', 0.0, -6035.52979654429, 0.0, 0.0, 0.0, 0.0, -3713.898803460456, 0.0]
['beep', 0.0, -6033.920470943507, 0.0, 0.0, 0.0, 0.0, -3712.1553673929416, 0.0]
['beep', 0.0, -6032.579366276189, 0.0, 0.0, 0.0, 0.0, -3709.137881891475, 0.0]
['beep', 0.0, -6031.640593009066, 0.0, 0.0, 0.0, 0.0, -3709.137881891475, 0.0]
['beep', 0.0, -6030.634764508577, 0.0, 0.0, 0.0, 0.0, -3708.9143644469223, 0.0]
['beep', 0.0, -6029.584232519178, 0.0, 0.0, 0.0, 0.0, -3708.310867346629, 0.0]
['beep', 0.0, -6028.801921463242, 0.0, 0.0, 0.0, 0.0, -3705.628658011992, 0.0]
['beep', 0.0, -6027.170244118005, 0.0, 0.0, 0.0, 0.0, -3704.891050444967, 0.0]
['beep', 0.0, -6028.868976696608, 0.0, 0.0, 0.0, 0.0, -3706.2545068567406, 0.0]
['beep', 0.0, -6032.959345931929, 0.0, 0.0, 0.0, 0.0, -3704.823995211601, 0.0]
['beep', 0.0, -6032.825235465198, 0.0, 0.0, 0.0, 0.0, -3705.9639341788215, 0.0]
['beep', 0.0, -6033.451084309946, 0.0, 0.0, 0.0, 0.0, -3705.7404167342684, 0.0]
['beep', 0.0, -6031.90881394253, 0.0, 0.0, 0.0, 0.0, -3705.5839545230815, 0.0]
['beep', 0.0, -6032.66877325401, 0.0, 0.0, 0.0, 0.0, -3706.6121347680255, 0.0]
['beep', 0.0, -6032.221738364904, 0.0, 0.0, 0.0, 0.0, -3704.7792917226902, 0.0]
['beep', 0.0, -6031.1935581199605, 0.0, 0.0, 0.0, 0.0, -3703.6170010110145, 0.0]
['beep', 0.0, -6031.595889520156, 0.0, 0.0, 0.0, 0.0, -3704.533422533682, 0.0]
['beep', 0.0, -6030.321840086203, 0.0, 0.0, 0.0, 0.0, -3704.2204981113077, 0.0]
['beep', 0.0, -6030.14302613056, 0.0, 0.0, 0.0, 0.0, -3704.153442877942, 0.0]
['beep', 0.0, -6032.221738364904, 0.0, 0.0, 0.0, 0.0, -3705.0028091672434, 0.0]
['beep', 0.0, -6031.551186031245, 0.0, 0.0, 0.0, 0.0, -3705.785120223179, 0.0]
['beep', 0.0, -6031.126502886594, 0.0, 0.0, 0.0, 0.0, -3703.5499457776486, 0.0]
['beep', 0.0, -6031.104151142139, 0.0, 0.0, 0.0, 0.0, -3702.231192854785, 0.0]
['beep', 0.0, -6031.864110453619, 0.0, 0.0, 0.0, 0.0, -3701.1359573764753, 0.0]
['beep', 0.0, -6032.579366276189, 0.0, 0.0, 0.0, 0.0, -3702.1641376214193, 0.0]
['beep', 0.0, -6033.38402907658, 0.0, 0.0, 0.0, 0.0, -3702.3653033215173, 0.0]
['beep', 0.0, -6031.864110453619, 0.0, 0.0, 0.0, 0.0, -3700.9347916763777, 0.0]
['beep', 0.0, -6032.199386620448, 0.0, 0.0, 0.0, 0.0, -3701.270067843207, 0.0]
['beep', 0.0, -6031.931165686985, 0.0, 0.0, 0.0, 0.0, -3701.605344010037, 0.0]
['beep', 0.0, -6031.126502886594, 0.0, 0.0, 0.0, 0.0, -3701.6500474989475, 0.0]
['beep', 0.0, -6030.992392419862, 0.0, 0.0, 0.0, 0.0, -3700.890088187467, 0.0]
['beep', 0.0, -6029.651287752544, 0.0, 0.0, 0.0, 0.0, -3700.0630736426206, 0.0]
['beep', 0.0, -6027.818444707209, 0.0, 0.0, 0.0, 0.0, -3699.928963175889, 0.0]
['beep', 0.0, -6027.863148196119, 0.0, 0.0, 0.0, 0.0, -3701.270067843207, 0.0]
['beep', 0.0, -6031.081799397683, 0.0, 0.0, 0.0, 0.0, -3701.694750987858, 0.0]
['beep', 0.0, -6030.85828195313, 0.0, 0.0, 0.0, 0.0, -3701.627695754492, 0.0]
['beep', 0.0, -6028.980735418884, 0.0, 0.0, 0.0, 0.0, -3699.616038753514, 0.0]
['beep', 0.0, -6028.019610407307, 0.0, 0.0, 0.0, 0.0, -3699.973666664799, 0.0]
['beep', 0.0, -6029.427770307991, 0.0, 0.0, 0.0, 0.0, -3701.582992265581, 0.0]
['beep', 0.0, -6030.075970897195, 0.0, 0.0, 0.0, 0.0, -3701.82886145459, 0.0]
['beep', 0.0, -6029.584232519178, 0.0, 0.0, 0.0, 0.0, -3703.661704499925, 0.0]
['beep', 0.0, -6028.019610407307, 0.0, 0.0, 0.0, 0.0, -3701.0912538875646, 0.0]
['beep', 0.0, -6028.8466249521525, 0.0, 0.0, 0.0, 0.0, -3699.973666664799, 0.0]
['beep', 0.0, -6029.226604607893, 0.0, 0.0, 0.0, 0.0, -3700.599515509548, 0.0]
['beep', 0.0, -6030.321840086203, 0.0, 0.0, 0.0, 0.0, -3699.8172044536122, 0.0]
['beep', 0.0, -6030.85828195313, 0.0, 0.0, 0.0, 0.0, -3698.4537480418385, 0.0]
['beep', 0.0, -6029.874805197097, 0.0, 0.0, 0.0, 0.0, -3700.1524806204416, 0.0]
['beep', 0.0, -6029.3160115857145, 0.0, 0.0, 0.0, 0.0, -3698.654913741936, 0.0]
['beep', 0.0, -6029.584232519178, 0.0, 0.0, 0.0, 0.0, -3699.1913556088634, 0.0]
['beep', 0.0, -6030.679467997488, 0.0, 0.0, 0.0, 0.0, -3698.565506764115, 0.0]
['beep', 0.0, -6030.031267408284, 0.0, 0.0, 0.0, 0.0, -3698.856079442034, 0.0]
['beep', 0.0, -6030.344191830658, 0.0, 0.0, 0.0, 0.0, -3700.174832364897, 0.0]
['beep', 0.0, -6031.350020331147, 0.0, 0.0, 0.0, 0.0, -3700.3536463205396, 0.0]
['beep', 0.0, -6031.595889520156, 0.0, 0.0, 0.0, 0.0, -3699.616038753514, 0.0]
['beep', 0.0, -6030.835930208676, 0.0, 0.0, 0.0, 0.0, -3699.951314920344, 0.0]
['beep', 0.0, -6029.740694730365, 0.0, 0.0, 0.0, 0.0, -3698.654913741936, 0.0]
['beep', 0.0, -6028.801921463242, 0.0, 0.0, 0.0, 0.0, -3697.8502509415453, 0.0]
['beep', 0.0, -6030.612412764122, 0.0, 0.0, 0.0, 0.0, -3698.7890242086683, 0.0]
['beep', 0.0, -6030.366543575114, 0.0, 0.0, 0.0, 0.0, -3699.1243003754976, 0.0]
['beep', 0.0, -6029.695991241454, 0.0, 0.0, 0.0, 0.0, -3699.593687009059, 0.0]
['beep', 0.0, -6029.561880774722, 0.0, 0.0, 0.0, 0.0, -3699.571335264604, 0.0]
['beep', 0.0, -6028.779569718787, 0.0, 0.0, 0.0, 0.0, -3698.9678381643107, 0.0]
['beep', 0.0, -6027.818444707209, 0.0, 0.0, 0.0, 0.0, -3698.006713152732, 0.0]
['beep', 0.0, -6027.684334240477, 0.0, 0.0, 0.0, 0.0, -3700.241887598263, 0.0]
['beep', 0.0, -6028.95838367443, 0.0, 0.0, 0.0, 0.0, -3700.1971841093523, 0.0]
['beep', 0.0, -6028.399590063047, 0.0, 0.0, 0.0, 0.0, -3700.0854253870757, 0.0]
['beep', 0.0, -6027.080837140184, 0.0, 0.0, 0.0, 0.0, -3701.0241986541987, 0.0]
['beep', 0.0, -6027.751389473843, 0.0, 0.0, 0.0, 0.0, -3700.8006812096455, 0.0]
['beep', 0.0, -6027.483168540379, 0.0, 0.0, 0.0, 0.0, -3700.0630736426206, 0.0]
['beep', 0.0, -6028.511348785323, 0.0, 0.0, 0.0, 0.0, -3701.8065097101344, 0.0]
['beep', 0.0, -6030.075970897195, 0.0, 0.0, 0.0, 0.0, -3700.890088187467, 0.0]
['beep', 0.0, -6028.444293551957, 0.0, 0.0, 0.0, 0.0, -3699.1019486310424, 0.0]
['beep', 0.0, -6027.7290377293875, 0.0, 0.0, 0.0, 0.0, -3699.8172044536122, 0.0]
['beep', 0.0, -6027.684334240477, 0.0, 0.0, 0.0, 0.0, -3699.0572451421317, 0.0]
['beep', 0.0, -6028.623107507599, 0.0, 0.0, 0.0, 0.0, -3697.4702712858048, 0.0]
['beep', 0.0, -6029.092494141161, 0.0, 0.0, 0.0, 0.0, -3697.604381752537, 0.0]
['beep', 0.0, -6028.6678109965105, 0.0, 0.0, 0.0, 0.0, -3696.7103119743247, 0.0]
['beep', 0.0, -6027.371409818103, 0.0, 0.0, 0.0, 0.0, -3695.391559051461, 0.0]
['beep', 0.0, -6027.304354584737, 0.0, 0.0, 0.0, 0.0, -3695.436262540372, 0.0]
['beep', 0.0, -6028.913680185518, 0.0, 0.0, 0.0, 0.0, -3695.726835218291, 0.0]
['beep', 0.0, -6028.712514485421, 0.0, 0.0, 0.0, 0.0, -3694.3186753176064, 0.0]
['beep', 0.0, -6028.086665640672, 0.0, 0.0, 0.0, 0.0, -3694.8327654400787, 0.0]
['beep', 0.0, -6027.393761562558, 0.0, 0.0, 0.0, 0.0, -3694.3857305509728, 0.0]
['beep', 0.0, -6027.661982496022, 0.0, 0.0, 0.0, 0.0, -3695.1903933513636, 0.0]
['beep', 0.0, -6028.131369129583, 0.0, 0.0, 0.0, 0.0, -3695.436262540372, 0.0]
['beep', 0.0, -6028.533700529779, 0.0, 0.0, 0.0, 0.0, -3695.8385939405675, 0.0]
['beep', 0.0, -6027.863148196119, 0.0, 0.0, 0.0, 0.0, -3695.8609456850227, 0.0]
['beep', 0.0, -6027.6172790071105, 0.0, 0.0, 0.0, 0.0, -3696.1738701073973, 0.0]
['beep', 0.0, -6027.930203429485, 0.0, 0.0, 0.0, 0.0, -3697.5820300080813, 0.0]
['beep', 0.0, -6028.600755763145, 0.0, 0.0, 0.0, 0.0, -3697.358512563528, 0.0]
['beep', 0.0, -6027.796092962753, 0.0, 0.0, 0.0, 0.0, -3695.4586142848275, 0.0]
['beep', 0.0, -6026.85731969563, 0.0, 0.0, 0.0, 0.0, -3694.1622131064196, 0.0]
['beep', 0.0, -6025.963249917419, 0.0, 0.0, 0.0, 0.0, -3696.73266371878, 0.0]
['beep', 0.0, -6027.013781906818, 0.0, 0.0, 0.0, 0.0, -3697.11264337452, 0.0]
['beep', 0.0, -6027.416113307013, 0.0, 0.0, 0.0, 0.0, -3696.620904996503, 0.0]
['beep', 0.0, -6027.416113307013, 0.0, 0.0, 0.0, 0.0, -3696.7773672076905, 0.0]
['beep', 0.0, -6026.6114505066225, 0.0, 0.0, 0.0, 0.0, -3696.5762015075925, 0.0]
['beep', 0.0, -6026.7902644622645, 0.0, 0.0, 0.0, 0.0, -3696.375035807495, 0.0]
['beep', 0.0, -6029.114845885617, 0.0, 0.0, 0.0, 0.0, -3695.793890451657, 0.0]
['beep', 0.0, -6028.690162740965, 0.0, 0.0, 0.0, 0.0, -3696.1738701073973, 0.0]
['beep', 0.0, -6028.488997040868, 0.0, 0.0, 0.0, 0.0, -3698.0961201305536, 0.0]
['beep', 0.0, -6028.041962151762, 0.0, 0.0, 0.0, 0.0, -3698.2302305972853, 0.0]
['beep', 0.0, -6027.7290377293875, 0.0, 0.0, 0.0, 0.0, -3696.7997189521457, 0.0]
['beep', 0.0, -6028.444293551957, 0.0, 0.0, 0.0, 0.0, -3696.3526840630398, 0.0]
['beep', 0.0, -6029.025438907795, 0.0, 0.0, 0.0, 0.0, -3696.8444224410564, 0.0]
['beep', 0.0, -6028.913680185518, 0.0, 0.0, 0.0, 0.0, -3698.2302305972853, 0.0]
['beep', 0.0, -6029.3160115857145, 0.0, 0.0, 0.0, 0.0, -3696.5538497631374, 0.0]
['beep', 0.0, -6026.7902644622645, 0.0, 0.0, 0.0, 0.0, -3695.592724751559, 0.0]
['beep', 0.0, -6028.533700529779, 0.0, 0.0, 0.0, 0.0, -3696.3526840630398, 0.0]
['beep', 0.0, -6031.1935581199605, 0.0, 0.0, 0.0, 0.0, -3698.297285830651, 0.0]
['beep', 0.0, -6030.053619152739, 0.0, 0.0, 0.0, 0.0, -3696.956181163333, 0.0]
['beep', 0.0, -6028.623107507599, 0.0, 0.0, 0.0, 0.0, -3697.1349951189754, 0.0]
['beep', 0.0, -6028.779569718787, 0.0, 0.0, 0.0, 0.0, -3697.4479195413496, 0.0]
['beep', 0.0, -6027.483168540379, 0.0, 0.0, 0.0, 0.0, -3697.671436985903, 0.0]
['beep', 0.0, -6028.6678109965105, 0.0, 0.0, 0.0, 0.0, -3698.9231346754, 0.0]
['beep', 0.0, -6028.936031929974, 0.0, 0.0, 0.0, 0.0, -3699.9066114314332, 0.0]
['beep', 0.0, -6028.019610407307, 0.0, 0.0, 0.0, 0.0, -3698.2302305972853, 0.0]
['beep', 0.0, -6028.3772383185915, 0.0, 0.0, 0.0, 0.0, -3698.8113759531234, 0.0]
['beep', 0.0, -6028.310183085226, 0.0, 0.0, 0.0, 0.0, -3697.2244020967964, 0.0]
['beep', 0.0, -6029.941860430463, 0.0, 0.0, 0.0, 0.0, -3696.330332318584, 0.0]
['beep', 0.0, -6030.701819741943, 0.0, 0.0, 0.0, 0.0, -3694.4527857843386, 0.0]
['beep', 0.0, -6030.590061019667, 0.0, 0.0, 0.0, 0.0, -3693.5363642616708, 0.0]
['beep', 0.0, -6030.455950552935, 0.0, 0.0, 0.0, 0.0, -3694.5868962510704, 0.0]
['beep', 0.0, -6030.679467997488, 0.0, 0.0, 0.0, 0.0, -3695.7715387072017, 0.0]
['beep', 0.0, -6030.590061019667, 0.0, 0.0, 0.0, 0.0, -3697.7831957081794, 0.0]
['beep', 0.0, -6030.880633697586, 0.0, 0.0, 0.0, 0.0, -3696.1738701073973, 0.0]
['beep', 0.0, -6028.801921463242, 0.0, 0.0, 0.0, 0.0, -3696.39738755195, 0.0]
['beep', 0.0, -6029.092494141161, 0.0, 0.0, 0.0, 0.0, -3696.1738701073973, 0.0]
['beep', 0.0, -6030.411247064024, 0.0, 0.0, 0.0, 0.0, -3696.4420910408608, 0.0]
['beep', 0.0, -6030.47830229739, 0.0, 0.0, 0.0, 0.0, -3695.5033177737378, 0.0]
['beep', 0.0, -6030.5453575307565, 0.0, 0.0, 0.0, 0.0, -3694.273971828696, 0.0]
['beep', 0.0, -6030.366543575114, 0.0, 0.0, 0.0, 0.0, -3693.3575503060283, 0.0]
['beep', 0.0, -6029.092494141161, 0.0, 0.0, 0.0, 0.0, -3693.9386956618664, 0.0]
['beep', 0.0, -6031.52883428679, 0.0, 0.0, 0.0, 0.0, -3696.7773672076905, 0.0]
['beep', 0.0, -6031.975869175896, 0.0, 0.0, 0.0, 0.0, -3697.4479195413496, 0.0]
['beep', 0.0, -6032.087627898172, 0.0, 0.0, 0.0, 0.0, -3696.73266371878, 0.0]
['beep', 0.0, -6030.590061019667, 0.0, 0.0, 0.0, 0.0, -3696.531498018682, 0.0]
['beep', 0.0, -6028.600755763145, 0.0, 0.0, 0.0, 0.0, -3696.39738755195, 0.0]
['beep', 0.0, -6027.863148196119, 0.0, 0.0, 0.0, 0.0, -3696.1291666184866, 0.0]
['beep', 0.0, -6027.706685984932, 0.0, 0.0, 0.0, 0.0, -3695.704483473836, 0.0]
['beep', 0.0, -6027.349058073647, 0.0, 0.0, 0.0, 0.0, -3695.5033177737378, 0.0]
['beep', 0.0, -6028.198424362949, 0.0, 0.0, 0.0, 0.0, -3694.8774689289894, 0.0]
['beep', 0.0, -6027.930203429485, 0.0, 0.0, 0.0, 0.0, -3696.7997189521457, 0.0]
['beep', 0.0, -6027.326706329192, 0.0, 0.0, 0.0, 0.0, -3697.1796986078857, 0.0]
['beep', 0.0, -6028.24312785186, 0.0, 0.0, 0.0, 0.0, -3695.659779984925, 0.0]
['beep', 0.0, -6029.137197630072, 0.0, 0.0, 0.0, 0.0, -3694.6763032288914, 0.0]
['beep', 0.0, -6028.690162740965, 0.0, 0.0, 0.0, 0.0, -3694.6092479955255, 0.0]
['beep', 0.0, -6028.131369129583, 0.0, 0.0, 0.0, 0.0, -3694.497489273249, 0.0]
['beep', 0.0, -6028.041962151762, 0.0, 0.0, 0.0, 0.0, -3693.82693693959, 0.0]
['beep', 0.0, -6027.393761562558, 0.0, 0.0, 0.0, 0.0, -3694.8998206734445, 0.0]
['beep', 0.0, -6027.9078516850295, 0.0, 0.0, 0.0, 0.0, -3695.8385939405675, 0.0]
['beep', 0.0, -6027.080837140184, 0.0, 0.0, 0.0, 0.0, -3693.8045851951347, 0.0]
['beep', 0.0, -6024.95742141693, 0.0, 0.0, 0.0, 0.0, -3695.704483473836, 0.0]
['beep', 0.0, -6026.298526084248, 0.0, 0.0, 0.0, 0.0, -3696.39738755195, 0.0]
['beep', 0.0, -6027.684334240477, 0.0, 0.0, 0.0, 0.0, -3697.358512563528, 0.0]
['beep', 0.0, -6026.700857484443, 0.0, 0.0, 0.0, 0.0, -3697.2244020967964, 0.0]
['beep', 0.0, -6024.7339039723765, 0.0, 0.0, 0.0, 0.0, -3696.1515183629417, 0.0]
['beep', 0.0, -6025.784435961776, 0.0, 0.0, 0.0, 0.0, -3694.072806128598, 0.0]
['beep', 0.0, -6025.739732472865, 0.0, 0.0, 0.0, 0.0, -3693.49166077276, 0.0]
['beep', 0.0, -6026.276174339792, 0.0, 0.0, 0.0, 0.0, -3694.3857305509728, 0.0]
['beep', 0.0, -6027.505520284834, 0.0, 0.0, 0.0, 0.0, -3693.2681433282073, 0.0]
['beep', 0.0, -6026.164415617516, 0.0, 0.0, 0.0, 0.0, -3693.2234398392966, 0.0]
['beep', 0.0, -6027.058485395728, 0.0, 0.0, 0.0, 0.0, -3693.2681433282073, 0.0]
['beep', 0.0, -6027.661982496022, 0.0, 0.0, 0.0, 0.0, -3693.5587160061264, 0.0]
['beep', 0.0, -6027.282002840281, 0.0, 0.0, 0.0, 0.0, -3694.9445241623553, 0.0]
['beep', 0.0, -6026.767912717809, 0.0, 0.0, 0.0, 0.0, -3693.9386956618664, 0.0]
['beep', 0.0, -6026.723209228899, 0.0, 0.0, 0.0, 0.0, -3693.089329372565, 0.0]
['beep', 0.0, -6026.387933062069, 0.0, 0.0, 0.0, 0.0, -3693.737529961769, 0.0]
['beep', 0.0, -6026.365581317614, 0.0, 0.0, 0.0, 0.0, -3692.150556105442, 0.0]
['beep', 0.0, -6026.365581317614, 0.0, 0.0, 0.0, 0.0, -3691.9046869164335, 0.0]
['beep', 0.0, -6025.247994094849, 0.0, 0.0, 0.0, 0.0, -3694.2292683397854, 0.0]
['beep', 0.0, -6027.52787202929, 0.0, 0.0, 0.0, 0.0, -3692.754053205735, 0.0]
['beep', 0.0, -6027.125540629094, 0.0, 0.0, 0.0, 0.0, -3690.7200444603022, 0.0]
['beep', 0.0, -6026.656153995533, 0.0, 0.0, 0.0, 0.0, -3691.3905967939613, 0.0]
['beep', 0.0, -6028.176072618494, 0.0, 0.0, 0.0, 0.0, -3694.8327654400787, 0.0]
['beep', 0.0, -6028.310183085226, 0.0, 0.0, 0.0, 0.0, -3694.8774689289894, 0.0]
['beep', 0.0, -6027.170244118005, 0.0, 0.0, 0.0, 0.0, -3693.2457915837517, 0.0]
['beep', 0.0, -6026.745560973354, 0.0, 0.0, 0.0, 0.0, -3692.5752392500926, 0.0]
['beep', 0.0, -6026.6114505066225, 0.0, 0.0, 0.0, 0.0, -3692.4187770389053, 0.0]
['beep', 0.0, -6027.751389473843, 0.0, 0.0, 0.0, 0.0, -3693.49166077276, 0.0]
['beep', 0.0, -6027.19259586246, 0.0, 0.0, 0.0, 0.0, -3695.5480212626485, 0.0]
['beep', 0.0, -6024.175110360994, 0.0, 0.0, 0.0, 0.0, -3694.721006717802, 0.0]
['beep', 0.0, -6023.884537683075, 0.0, 0.0, 0.0, 0.0, -3692.821108439101, 0.0]
['beep', 0.0, -6024.6221452500995, 0.0, 0.0, 0.0, 0.0, -3695.369207307006, 0.0]
['beep', 0.0, -6026.343229573158, 0.0, 0.0, 0.0, 0.0, -3696.2856288296734, 0.0]
['beep', 0.0, -6025.71738072841, 0.0, 0.0, 0.0, 0.0, -3695.793890451657, 0.0]
['beep', 0.0, -6026.298526084248, 0.0, 0.0, 0.0, 0.0, -3696.4420910408608, 0.0]
['beep', 0.0, -6026.678505739988, 0.0, 0.0, 0.0, 0.0, -3696.0621113851207, 0.0]
['beep', 0.0, -6027.259651095826, 0.0, 0.0, 0.0, 0.0, -3694.430434039883, 0.0]
['beep', 0.0, -6027.237299351371, 0.0, 0.0, 0.0, 0.0, -3695.011579395721, 0.0]
['beep', 0.0, -6027.7290377293875, 0.0, 0.0, 0.0, 0.0, -3695.8832974294783, 0.0]
['beep', 0.0, -6027.594927262656, 0.0, 0.0, 0.0, 0.0, -3694.788061951168, 0.0]
['beep', 0.0, -6027.997258662851, 0.0, 0.0, 0.0, 0.0, -3693.9610474063215, 0.0]
['beep', 0.0, -6028.578404018689, 0.0, 0.0, 0.0, 0.0, -3695.592724751559, 0.0]
['beep', 0.0, -6029.651287752544, 0.0, 0.0, 0.0, 0.0, -3695.056282884632, 0.0]
['beep', 0.0, -6028.757217974332, 0.0, 0.0, 0.0, 0.0, -3695.2350968402743, 0.0]
['beep', 0.0, -6027.237299351371, 0.0, 0.0, 0.0, 0.0, -3695.2127450958187, 0.0]
['beep', 0.0, -6026.276174339792, 0.0, 0.0, 0.0, 0.0, -3694.8774689289894, 0.0]
['beep', 0.0, -6028.198424362949, 0.0, 0.0, 0.0, 0.0, -3695.436262540372, 0.0]
['beep', 0.0, -6029.3160115857145, 0.0, 0.0, 0.0, 0.0, -3695.9056491739334, 0.0]
['beep', 0.0, -6027.103188884639, 0.0, 0.0, 0.0, 0.0, -3696.1738701073973, 0.0]
['beep', 0.0, -6026.834967951175, 0.0, 0.0, 0.0, 0.0, -3694.989227651266, 0.0]
['beep', 0.0, -6026.834967951175, 0.0, 0.0, 0.0, 0.0, -3694.3186753176064, 0.0]
['beep', 0.0, -6024.823310950197, 0.0, 0.0, 0.0, 0.0, -3694.273971828696, 0.0]
['beep', 0.0, -6024.018648149807, 0.0, 0.0, 0.0, 0.0, -3695.2350968402743, 0.0]
['beep', 0.0, -6024.555090016734, 0.0, 0.0, 0.0, 0.0, -3696.084463129576, 0.0]
['beep', 0.0, -6023.951592916441, 0.0, 0.0, 0.0, 0.0, -3695.056282884632, 0.0]
['beep', 0.0, -6025.024476650296, 0.0, 0.0, 0.0, 0.0, -3693.49166077276, 0.0]
['beep', 0.0, -6028.533700529779, 0.0, 0.0, 0.0, 0.0, -3694.4527857843386, 0.0]
['beep', 0.0, -6029.00308716334, 0.0, 0.0, 0.0, 0.0, -3693.2457915837517, 0.0]
['beep', 0.0, -6027.9078516850295, 0.0, 0.0, 0.0, 0.0, -3694.0951578730537, 0.0]
['beep', 0.0, -6027.706685984932, 0.0, 0.0, 0.0, 0.0, -3694.8998206734445, 0.0]
['beep', 0.0, -6028.757217974332, 0.0, 0.0, 0.0, 0.0, -3695.1233381179977, 0.0]
['beep', 0.0, -6030.232433108382, 0.0, 0.0, 0.0, 0.0, -3694.653951484436, 0.0]
['beep', 0.0, -6031.6629447535215, 0.0, 0.0, 0.0, 0.0, -3695.056282884632, 0.0]
['beep', 0.0, -6030.925337186496, 0.0, 0.0, 0.0, 0.0, -3695.5256695181934, 0.0]
['beep', 0.0, -6030.590061019667, 0.0, 0.0, 0.0, 0.0, -3696.4420910408608, 0.0]
['beep', 0.0, -6030.299488341748, 0.0, 0.0, 0.0, 0.0, -3696.665608485414, 0.0]
['beep', 0.0, -6031.729999986887, 0.0, 0.0, 0.0, 0.0, -3696.464442785316, 0.0]
['beep', 0.0, -6031.685296497977, 0.0, 0.0, 0.0, 0.0, -3696.2185735963076, 0.0]
['beep', 0.0, -6031.640593009066, 0.0, 0.0, 0.0, 0.0, -3696.7103119743247, 0.0]
['beep', 0.0, -6030.09832264165, 0.0, 0.0, 0.0, 0.0, -3697.246753841252, 0.0]
['beep', 0.0, -6029.71834298591, 0.0, 0.0, 0.0, 0.0, -3696.9114776744223, 0.0]
['beep', 0.0, -6031.104151142139, 0.0, 0.0, 0.0, 0.0, -3697.358512563528, 0.0]
['beep', 0.0, -6030.880633697586, 0.0, 0.0, 0.0, 0.0, -3698.1855271083746, 0.0]
['beep', 0.0, -6030.746523230854, 0.0, 0.0, 0.0, 0.0, -3697.11264337452, 0.0]
['beep', 0.0, -6031.417075564513, 0.0, 0.0, 0.0, 0.0, -3695.5480212626485, 0.0]
['beep', 0.0, -6030.5453575307565, 0.0, 0.0, 0.0, 0.0, -3696.0621113851207, 0.0]
['beep', 0.0, -6031.215909864415, 0.0, 0.0, 0.0, 0.0, -3696.73266371878, 0.0]
['beep', 0.0, -6030.925337186496, 0.0, 0.0, 0.0, 0.0, -3697.7384922192687, 0.0]
['beep', 0.0, -6031.484130797879, 0.0, 0.0, 0.0, 0.0, -3698.341989319562, 0.0]
['beep', 0.0, -6030.4335988084795, 0.0, 0.0, 0.0, 0.0, -3698.297285830651, 0.0]
['beep', 0.0, -6029.830101708187, 0.0, 0.0, 0.0, 0.0, -3698.7443207197575, 0.0]
['beep', 0.0, -6030.634764508577, 0.0, 0.0, 0.0, 0.0, -3697.671436985903, 0.0]
['beep', 0.0, -6031.282965097781, 0.0, 0.0, 0.0, 0.0, -3697.1796986078857, 0.0]
['beep', 0.0, -6031.752351731343, 0.0, 0.0, 0.0, 0.0, -3696.9338294188774, 0.0]
['beep', 0.0, -6029.830101708187, 0.0, 0.0, 0.0, 0.0, -3695.4586142848275, 0.0]
['beep', 0.0, -6028.712514485421, 0.0, 0.0, 0.0, 0.0, -3695.346855562551, 0.0]
['beep', 0.0, -6029.226604607893, 0.0, 0.0, 0.0, 0.0, -3695.5033177737378, 0.0]
['beep', 0.0, -6031.484130797879, 0.0, 0.0, 0.0, 0.0, -3696.3526840630398, 0.0]
['beep', 0.0, -6031.953517431441, 0.0, 0.0, 0.0, 0.0, -3698.4537480418385, 0.0]
['beep', 0.0, -6030.835930208676, 0.0, 0.0, 0.0, 0.0, -3698.610210253026, 0.0]
['beep', 0.0, -6030.14302613056, 0.0, 0.0, 0.0, 0.0, -3697.2020503523413, 0.0]
['beep', 0.0, -6028.578404018689, 0.0, 0.0, 0.0, 0.0, -3698.252582341741, 0.0]
['beep', 0.0, -6031.551186031245, 0.0, 0.0, 0.0, 0.0, -3699.7501492202464, 0.0]
['beep', 0.0, -6031.6629447535215, 0.0, 0.0, 0.0, 0.0, -3700.465405042816, 0.0]
['beep', 0.0, -6031.126502886594, 0.0, 0.0, 0.0, 0.0, -3696.5538497631374, 0.0]
['beep', 0.0, -6030.411247064024, 0.0, 0.0, 0.0, 0.0, -3694.8998206734445, 0.0]
['beep', 0.0, -6031.975869175896, 0.0, 0.0, 0.0, 0.0, -3696.39738755195, 0.0]
['beep', 0.0, -6033.786360476775, 0.0, 0.0, 0.0, 0.0, -3697.917306174911, 0.0]
['beep', 0.0, -6032.6017180206445, 0.0, 0.0, 0.0, 0.0, -3698.252582341741, 0.0]
['beep', 0.0, -6031.394723820058, 0.0, 0.0, 0.0, 0.0, -3696.375035807495, 0.0]
['beep', 0.0, -6030.09832264165, 0.0, 0.0, 0.0, 0.0, -3696.5091462742266, 0.0]
['beep', 0.0, -6031.327668586692, 0.0, 0.0, 0.0, 0.0, -3697.917306174911, 0.0]
['beep', 0.0, -6031.350020331147, 0.0, 0.0, 0.0, 0.0, -3696.889125929967, 0.0]
['beep', 0.0, -6030.366543575114, 0.0, 0.0, 0.0, 0.0, -3699.280762586685, 0.0]
['beep', 0.0, -6029.76304647482, 0.0, 0.0, 0.0, 0.0, -3699.2584108422293, 0.0]
['beep', 0.0, -6028.980735418884, 0.0, 0.0, 0.0, 0.0, -3698.5208032752043, 0.0]
['beep', 0.0, -6030.053619152739, 0.0, 0.0, 0.0, 0.0, -3698.498451530749, 0.0]
['beep', 0.0, -6029.874805197097, 0.0, 0.0, 0.0, 0.0, -3698.3196375751068, 0.0]
['beep', 0.0, -6029.025438907795, 0.0, 0.0, 0.0, 0.0, -3698.4537480418385, 0.0]
['beep', 0.0, -6028.801921463242, 0.0, 0.0, 0.0, 0.0, -3699.63839049797, 0.0]
['beep', 0.0, -6027.639630751566, 0.0, 0.0, 0.0, 0.0, -3699.8172044536122, 0.0]
['beep', 0.0, -6027.639630751566, 0.0, 0.0, 0.0, 0.0, -3700.4430532983606, 0.0]
['beep', 0.0, -6029.4948255413565, 0.0, 0.0, 0.0, 0.0, -3701.3594748210285, 0.0]
['beep', 0.0, -6030.4335988084795, 0.0, 0.0, 0.0, 0.0, -3699.7054457313357, 0.0]
['beep', 0.0, -6027.840796451664, 0.0, 0.0, 0.0, 0.0, -3701.2253643542963, 0.0]
['beep', 0.0, -6027.237299351371, 0.0, 0.0, 0.0, 0.0, -3700.308942831629, 0.0]
['beep', 0.0, -6028.578404018689, 0.0, 0.0, 0.0, 0.0, -3700.1301288759864, 0.0]
['beep', 0.0, -6029.114845885617, 0.0, 0.0, 0.0, 0.0, -3699.7725009647015, 0.0]
['beep', 0.0, -6029.941860430463, 0.0, 0.0, 0.0, 0.0, -3699.3478178200508, 0.0]
['beep', 0.0, -6029.807749963731, 0.0, 0.0, 0.0, 0.0, -3699.571335264604, 0.0]
['beep', 0.0, -6029.070142396706, 0.0, 0.0, 0.0, 0.0, -3698.4760997862936, 0.0]
['beep', 0.0, -6030.657116253033, 0.0, 0.0, 0.0, 0.0, -3699.861907942523, 0.0]
['beep', 0.0, -6031.215909864415, 0.0, 0.0, 0.0, 0.0, -3700.465405042816, 0.0]
['beep', 0.0, -6030.880633697586, 0.0, 0.0, 0.0, 0.0, -3698.9007829309444, 0.0]
['beep', 0.0, -6030.411247064024, 0.0, 0.0, 0.0, 0.0, -3699.1690038644083, 0.0]
['beep', 0.0, -6029.852453452641, 0.0, 0.0, 0.0, 0.0, -3698.1408236194643, 0.0]
['beep', 0.0, -6030.5453575307565, 0.0, 0.0, 0.0, 0.0, -3698.364341064017, 0.0]
['beep', 0.0, -6031.3723720756025, 0.0, 0.0, 0.0, 0.0, -3699.951314920344, 0.0]
['beep', 0.0, -6031.104151142139, 0.0, 0.0, 0.0, 0.0, -3699.616038753514, 0.0]
['beep', 0.0, -6029.405418563535, 0.0, 0.0, 0.0, 0.0, -3699.526631775693, 0.0]
['beep', 0.0, -6030.075970897195, 0.0, 0.0, 0.0, 0.0, -3699.5489835201483, 0.0]
['beep', 0.0, -6029.651287752544, 0.0, 0.0, 0.0, 0.0, -3699.370169564506, 0.0]
['beep', 0.0, -6030.590061019667, 0.0, 0.0, 0.0, 0.0, -3701.1583091209304, 0.0]
['beep', 0.0, -6031.752351731343, 0.0, 0.0, 0.0, 0.0, -3702.432358554883, 0.0]
['beep', 0.0, -6028.868976696608, 0.0, 0.0, 0.0, 0.0, -3702.119434132509, 0.0]
['beep', 0.0, -6029.830101708187, 0.0, 0.0, 0.0, 0.0, -3700.3983498094503, 0.0]
['beep', 0.0, -6031.640593009066, 0.0, 0.0, 0.0, 0.0, -3699.571335264604, 0.0]
['beep', 0.0, -6031.104151142139, 0.0, 0.0, 0.0, 0.0, -3699.30311433114, 0.0]
['beep', 0.0, -6030.187729619472, 0.0, 0.0, 0.0, 0.0, -3700.01837015371, 0.0]
['beep', 0.0, -6029.7853982192755, 0.0, 0.0, 0.0, 0.0, -3699.370169564506, 0.0]
['beep', 0.0, -6028.801921463242, 0.0, 0.0, 0.0, 0.0, -3700.331294576084, 0.0]
['beep', 0.0, -6029.7853982192755, 0.0, 0.0, 0.0, 0.0, -3700.7112742318245, 0.0]
['beep', 0.0, -6030.880633697586, 0.0, 0.0, 0.0, 0.0, -3698.856079442034, 0.0]
['beep', 0.0, -6030.768874975309, 0.0, 0.0, 0.0, 0.0, -3699.4595765423273, 0.0]
['beep', 0.0, -6028.5560522742335, 0.0, 0.0, 0.0, 0.0, -3698.1855271083746, 0.0]
['beep', 0.0, -6028.578404018689, 0.0, 0.0, 0.0, 0.0, -3697.023236396699, 0.0]
['beep', 0.0, -6029.919508686007, 0.0, 0.0, 0.0, 0.0, -3697.3808643079838, 0.0]
['beep', 0.0, -6030.321840086203, 0.0, 0.0, 0.0, 0.0, -3698.7890242086683, 0.0]
['beep', 0.0, -6030.5453575307565, 0.0, 0.0, 0.0, 0.0, -3698.20787885283, 0.0]
['beep', 0.0, -6030.4335988084795, 0.0, 0.0, 0.0, 0.0, -3697.2244020967964, 0.0]
['beep', 0.0, -6030.075970897195, 0.0, 0.0, 0.0, 0.0, -3697.693788730358, 0.0]
['beep', 0.0, -6030.500654041845, 0.0, 0.0, 0.0, 0.0, -3697.9396579193663, 0.0]
['beep', 0.0, -6029.919508686007, 0.0, 0.0, 0.0, 0.0, -3697.2914573301623, 0.0]
['beep', 0.0, -6029.137197630072, 0.0, 0.0, 0.0, 0.0, -3698.1408236194643, 0.0]
['beep', 0.0, -6030.880633697586, 0.0, 0.0, 0.0, 0.0, -3698.4090445529278, 0.0]
['beep', 0.0, -6033.227566865393, 0.0, 0.0, 0.0, 0.0, -3697.7831957081794, 0.0]
['beep', 0.0, -6034.322802343703, 0.0, 0.0, 0.0, 0.0, -3698.6772654863917, 0.0]
['beep', 0.0, -6032.869938954108, 0.0, 0.0, 0.0, 0.0, -3699.2584108422293, 0.0]
['beep', 0.0, -6031.797055220253, 0.0, 0.0, 0.0, 0.0, -3699.6830939868805, 0.0]
['beep', 0.0, -6031.484130797879, 0.0, 0.0, 0.0, 0.0, -3698.364341064017, 0.0]
['beep', 0.0, -6030.210081363926, 0.0, 0.0, 0.0, 0.0, -3697.8726026860004, 0.0]
['beep', 0.0, -6030.7241714863985, 0.0, 0.0, 0.0, 0.0, -3697.760843963724, 0.0]
['beep', 0.0, -6034.211043621426, 0.0, 0.0, 0.0, 0.0, -3698.9678381643107, 0.0]
['beep', 0.0, -6032.713476742921, 0.0, 0.0, 0.0, 0.0, -3699.7054457313357, 0.0]
['beep', 0.0, -6031.6629447535215, 0.0, 0.0, 0.0, 0.0, -3699.571335264604, 0.0]
['beep', 0.0, -6030.075970897195, 0.0, 0.0, 0.0, 0.0, -3699.593687009059, 0.0]
['beep', 0.0, -6030.835930208676, 0.0, 0.0, 0.0, 0.0, -3699.727797475791, 0.0]
['beep', 0.0, -6032.378200576091, 0.0, 0.0, 0.0, 0.0, -3699.1690038644083, 0.0]
['beep', 0.0, -6032.28879359827, 0.0, 0.0, 0.0, 0.0, -3698.4537480418385, 0.0]
['beep', 0.0, -6030.992392419862, 0.0, 0.0, 0.0, 0.0, -3697.7831957081794, 0.0]
['beep', 0.0, -6030.366543575114, 0.0, 0.0, 0.0, 0.0, -3698.990189908766, 0.0]
['beep', 0.0, -6029.964212174918, 0.0, 0.0, 0.0, 0.0, -3699.079596886587, 0.0]
['beep', 0.0, -6031.52883428679, 0.0, 0.0, 0.0, 0.0, -3697.2244020967964, 0.0]
['beep', 0.0, -6033.227566865393, 0.0, 0.0, 0.0, 0.0, -3697.4479195413496, 0.0]
['beep', 0.0, -6032.333497087181, 0.0, 0.0, 0.0, 0.0, -3698.297285830651, 0.0]
['beep', 0.0, -6031.819406964709, 0.0, 0.0, 0.0, 0.0, -3698.5208032752043, 0.0]
['beep', 0.0, -6032.087627898172, 0.0, 0.0, 0.0, 0.0, -3699.3478178200508, 0.0]
['beep', 0.0, -6032.959345931929, 0.0, 0.0, 0.0, 0.0, -3700.4207015539055, 0.0]
['beep', 0.0, -6033.987526176873, 0.0, 0.0, 0.0, 0.0, -3698.1408236194643, 0.0]
['beep', 0.0, -6033.5404912877675, 0.0, 0.0, 0.0, 0.0, -3698.632561997481, 0.0]
['beep', 0.0, -6033.048752909751, 0.0, 0.0, 0.0, 0.0, -3697.8278991970897, 0.0]
['beep', 0.0, -6032.646421509555, 0.0, 0.0, 0.0, 0.0, -3698.0290648971877, 0.0]
['beep', 0.0, -6033.115808143117, 0.0, 0.0, 0.0, 0.0, -3699.1690038644083, 0.0]
['beep', 0.0, -6033.5404912877675, 0.0, 0.0, 0.0, 0.0, -3698.699617230847, 0.0]
['beep', 0.0, -6033.227566865393, 0.0, 0.0, 0.0, 0.0, -3698.6772654863917, 0.0]
['beep', 0.0, -6031.797055220253, 0.0, 0.0, 0.0, 0.0, -3698.856079442034, 0.0]
['beep', 0.0, -6033.38402907658, 0.0, 0.0, 0.0, 0.0, -3699.079596886587, 0.0]
['beep', 0.0, -6034.121636643606, 0.0, 0.0, 0.0, 0.0, -3700.174832364897, 0.0]
['beep', 0.0, -6032.691124998466, 0.0, 0.0, 0.0, 0.0, -3699.63839049797, 0.0]
['beep', 0.0, -6033.562843032222, 0.0, 0.0, 0.0, 0.0, -3698.610210253026, 0.0]
['beep', 0.0, -6033.495787798856, 0.0, 0.0, 0.0, 0.0, -3698.498451530749, 0.0]
['beep', 0.0, -6034.278098854792, 0.0, 0.0, 0.0, 0.0, -3699.012541653221, 0.0]
['beep', 0.0, -6034.05458141024, 0.0, 0.0, 0.0, 0.0, -3700.2865910871737, 0.0]
['beep', 0.0, -6033.294622098759, 0.0, 0.0, 0.0, 0.0, -3700.532460276182, 0.0]
['beep', 0.0, -6030.81357846422, 0.0, 0.0, 0.0, 0.0, -3700.0407218981654, 0.0]
['beep', 0.0, -6031.126502886594, 0.0, 0.0, 0.0, 0.0, -3699.9066114314332, 0.0]
['beep', 0.0, -6031.1935581199605, 0.0, 0.0, 0.0, 0.0, -3699.951314920344, 0.0]
['beep', 0.0, -6031.774703475798, 0.0, 0.0, 0.0, 0.0, -3699.884259686978, 0.0]
['beep', 0.0, -6031.506482542334, 0.0, 0.0, 0.0, 0.0, -3699.504280031238, 0.0]
['beep', 0.0, -6031.931165686985, 0.0, 0.0, 0.0, 0.0, -3698.4537480418385, 0.0]
['beep', 0.0, -6031.8417587091635, 0.0, 0.0, 0.0, 0.0, -3699.7948527091567, 0.0]
['beep', 0.0, -6033.205215120937, 0.0, 0.0, 0.0, 0.0, -3700.9347916763777, 0.0]
['beep', 0.0, -6033.272270354303, 0.0, 0.0, 0.0, 0.0, -3701.4041783099387, 0.0]
['beep', 0.0, -6032.66877325401, 0.0, 0.0, 0.0, 0.0, -3700.264239342718, 0.0]
['beep', 0.0, -6031.350020331147, 0.0, 0.0, 0.0, 0.0, -3699.8395561980674, 0.0]
['beep', 0.0, -6031.864110453619, 0.0, 0.0, 0.0, 0.0, -3698.654913741936, 0.0]
['beep', 0.0, -6031.886462198075, 0.0, 0.0, 0.0, 0.0, -3700.0854253870757, 0.0]
['beep', 0.0, -6031.640593009066, 0.0, 0.0, 0.0, 0.0, -3702.6558759994364, 0.0]
['beep', 0.0, -6030.590061019667, 0.0, 0.0, 0.0, 0.0, -3701.605344010037, 0.0]
['beep', 0.0, -6030.2547848528375, 0.0, 0.0, 0.0, 0.0, -3699.7725009647015, 0.0]
['beep', 0.0, -6029.695991241454, 0.0, 0.0, 0.0, 0.0, -3700.264239342718, 0.0]
['beep', 0.0, -6029.76304647482, 0.0, 0.0, 0.0, 0.0, -3701.247716098752, 0.0]
['beep', 0.0, -6031.238261608871, 0.0, 0.0, 0.0, 0.0, -3701.270067843207, 0.0]
['beep', 0.0, -6030.701819741943, 0.0, 0.0, 0.0, 0.0, -3699.973666664799, 0.0]
['beep', 0.0, -6030.075970897195, 0.0, 0.0, 0.0, 0.0, -3698.58785850857, 0.0]
['beep', 0.0, -6028.511348785323, 0.0, 0.0, 0.0, 0.0, -3698.3196375751068, 0.0]
['beep', 0.0, -6029.584232519178, 0.0, 0.0, 0.0, 0.0, -3700.4207015539055, 0.0]
['beep', 0.0, -6029.740694730365, 0.0, 0.0, 0.0, 0.0, -3699.4595765423273, 0.0]
['beep', 0.0, -6029.76304647482, 0.0, 0.0, 0.0, 0.0, -3699.4819282867825, 0.0]
['beep', 0.0, -6029.517177285812, 0.0, 0.0, 0.0, 0.0, -3698.632561997481, 0.0]
['beep', 0.0, -6028.265479596314, 0.0, 0.0, 0.0, 0.0, -3697.403216052439, 0.0]
['beep', 0.0, -6029.76304647482, 0.0, 0.0, 0.0, 0.0, -3697.7384922192687, 0.0]
['beep', 0.0, -6031.931165686985, 0.0, 0.0, 0.0, 0.0, -3698.6772654863917, 0.0]
['beep', 0.0, -6031.729999986887, 0.0, 0.0, 0.0, 0.0, -3699.280762586685, 0.0]
['beep', 0.0, -6030.768874975309, 0.0, 0.0, 0.0, 0.0, -3699.5489835201483, 0.0]
['beep', 0.0, -6029.204252863437, 0.0, 0.0, 0.0, 0.0, -3699.079596886587, 0.0]
['beep', 0.0, -6030.523005786301, 0.0, 0.0, 0.0, 0.0, -3701.985323665777, 0.0]
['beep', 0.0, -6031.327668586692, 0.0, 0.0, 0.0, 0.0, -3701.895916687956, 0.0]
['beep', 0.0, -6031.350020331147, 0.0, 0.0, 0.0, 0.0, -3700.6442189984587, 0.0]
['beep', 0.0, -6029.964212174918, 0.0, 0.0, 0.0, 0.0, -3699.951314920344, 0.0]
['beep', 0.0, -6029.360715074625, 0.0, 0.0, 0.0, 0.0, -3700.264239342718, 0.0]
['beep', 0.0, -6030.411247064024, 0.0, 0.0, 0.0, 0.0, -3699.593687009059, 0.0]
['beep', 0.0, -6031.6629447535215, 0.0, 0.0, 0.0, 0.0, -3700.6442189984587, 0.0]
['beep', 0.0, -6031.171206375505, 0.0, 0.0, 0.0, 0.0, -3701.9406201768666, 0.0]
['beep', 0.0, -6031.037095908773, 0.0, 0.0, 0.0, 0.0, -3702.432358554883, 0.0]
['beep', 0.0, -6026.946726673452, 0.0, 0.0, 0.0, 0.0, -3700.308942831629, 0.0]
['beep', 0.0, -6026.410284806524, 0.0, 0.0, 0.0, 0.0, -3700.1301288759864, 0.0]
['beep', 0.0, -6025.873842939597, 0.0, 0.0, 0.0, 0.0, -3700.6442189984587, 0.0]
['beep', 0.0, -6027.550223773745, 0.0, 0.0, 0.0, 0.0, -3701.0912538875646, 0.0]
['beep', 0.0, -6027.058485395728, 0.0, 0.0, 0.0, 0.0, -3701.0912538875646, 0.0]
['beep', 0.0, -6027.5725755182, 0.0, 0.0, 0.0, 0.0, -3701.694750987858, 0.0]
['beep', 0.0, -6026.075008639695, 0.0, 0.0, 0.0, 0.0, -3701.4265300543943, 0.0]
['beep', 0.0, -6025.359752817125, 0.0, 0.0, 0.0, 0.0, -3701.7618062212237, 0.0]
['beep', 0.0, -6026.723209228899, 0.0, 0.0, 0.0, 0.0, -3703.505242288738, 0.0]
['beep', 0.0, -6029.159549374527, 0.0, 0.0, 0.0, 0.0, -3702.58882076607, 0.0]
['beep', 0.0, -6029.04779065225, 0.0, 0.0, 0.0, 0.0, -3702.275896343696, 0.0]
['beep', 0.0, -6027.796092962753, 0.0, 0.0, 0.0, 0.0, -3702.4100068104276, 0.0]
['beep', 0.0, -6028.533700529779, 0.0, 0.0, 0.0, 0.0, -3703.147614377453, 0.0]
['beep', 0.0, -6028.533700529779, 0.0, 0.0, 0.0, 0.0, -3701.582992265581, 0.0]
['beep', 0.0, -6027.639630751566, 0.0, 0.0, 0.0, 0.0, -3701.180660865386, 0.0]
['beep', 0.0, -6026.879671440086, 0.0, 0.0, 0.0, 0.0, -3700.957143420833, 0.0]
['beep', 0.0, -6026.052656895239, 0.0, 0.0, 0.0, 0.0, -3700.599515509548, 0.0]
['beep', 0.0, -6026.946726673452, 0.0, 0.0, 0.0, 0.0, -3702.9240969329, 0.0]
['beep', 0.0, -6028.95838367443, 0.0, 0.0, 0.0, 0.0, -3703.3487800775506, 0.0]
['beep', 0.0, -6028.645459252055, 0.0, 0.0, 0.0, 0.0, -3701.4488817988495, 0.0]
['beep', 0.0, -6027.594927262656, 0.0, 0.0, 0.0, 0.0, -3700.4207015539055, 0.0]
['beep', 0.0, -6027.974906918395, 0.0, 0.0, 0.0, 0.0, -3701.1359573764753, 0.0]
['beep', 0.0, -6028.198424362949, 0.0, 0.0, 0.0, 0.0, -3701.0689021431094, 0.0]
['beep', 0.0, -6029.986563919373, 0.0, 0.0, 0.0, 0.0, -3700.8677364430114, 0.0]
['beep', 0.0, -6028.310183085226, 0.0, 0.0, 0.0, 0.0, -3700.577163765093, 0.0]
['beep', 0.0, -6029.76304647482, 0.0, 0.0, 0.0, 0.0, -3700.599515509548, 0.0]
['beep', 0.0, -6029.584232519178, 0.0, 0.0, 0.0, 0.0, -3701.5159370322153, 0.0]
['beep', 0.0, -6029.181901118983, 0.0, 0.0, 0.0, 0.0, -3702.477062043794, 0.0]
['beep', 0.0, -6030.277136597292, 0.0, 0.0, 0.0, 0.0, -3703.2817248441847, 0.0]
['beep', 0.0, -6030.500654041845, 0.0, 0.0, 0.0, 0.0, -3705.0698644006093, 0.0]
['beep', 0.0, -6029.807749963731, 0.0, 0.0, 0.0, 0.0, -3705.0922161450644, 0.0]
['beep', 0.0, -6029.427770307991, 0.0, 0.0, 0.0, 0.0, -3705.271030100707, 0.0]
['beep', 0.0, -6029.3160115857145, 0.0, 0.0, 0.0, 0.0, -3704.9581056783327, 0.0]
['beep', 0.0, -6029.181901118983, 0.0, 0.0, 0.0, 0.0, -3704.466367300316, 0.0]
['beep', 0.0, -6028.354886574136, 0.0, 0.0, 0.0, 0.0, -3704.39931206695, 0.0]
['beep', 0.0, -6027.505520284834, 0.0, 0.0, 0.0, 0.0, -3704.7345882337795, 0.0]
['beep', 0.0, -6027.080837140184, 0.0, 0.0, 0.0, 0.0, -3705.7404167342684, 0.0]
['beep', 0.0, -6026.6114505066225, 0.0, 0.0, 0.0, 0.0, -3705.6733615009025, 0.0]
['beep', 0.0, -6028.511348785323, 0.0, 0.0, 0.0, 0.0, -3706.1650998789196, 0.0]
['beep', 0.0, -6028.578404018689, 0.0, 0.0, 0.0, 0.0, -3705.49454754526, 0.0]
['beep', 0.0, -6027.080837140184, 0.0, 0.0, 0.0, 0.0, -3703.952277177844, 0.0]
['beep', 0.0, -6025.940898172963, 0.0, 0.0, 0.0, 0.0, -3703.885221944478, 0.0]
['beep', 0.0, -6026.186767361971, 0.0, 0.0, 0.0, 0.0, -3703.8405184555672, 0.0]
['beep', 0.0, -6027.19259586246, 0.0, 0.0, 0.0, 0.0, -3704.444015555861, 0.0]
['beep', 0.0, -6026.969078417907, 0.0, 0.0, 0.0, 0.0, -3704.444015555861, 0.0]
['beep', 0.0, -6027.9078516850295, 0.0, 0.0, 0.0, 0.0, -3705.2263266117966, 0.0]
['beep', 0.0, -6027.5725755182, 0.0, 0.0, 0.0, 0.0, -3704.9357539338775, 0.0]
['beep', 0.0, -6027.237299351371, 0.0, 0.0, 0.0, 0.0, -3704.555774278137, 0.0]
['beep', 0.0, -6027.304354584737, 0.0, 0.0, 0.0, 0.0, -3707.081521401587, 0.0]
['beep', 0.0, -6027.751389473843, 0.0, 0.0, 0.0, 0.0, -3705.49454754526, 0.0]
['beep', 0.0, -6027.863148196119, 0.0, 0.0, 0.0, 0.0, -3703.147614377453, 0.0]
['beep', 0.0, -6027.125540629094, 0.0, 0.0, 0.0, 0.0, -3702.879393443989, 0.0]
['beep', 0.0, -6026.678505739988, 0.0, 0.0, 0.0, 0.0, -3703.7064079888355, 0.0]
['beep', 0.0, -6027.52787202929, 0.0, 0.0, 0.0, 0.0, -3702.7676347217125, 0.0]
['beep', 0.0, -6027.349058073647, 0.0, 0.0, 0.0, 0.0, -3702.879393443989, 0.0]
['beep', 0.0, -6027.349058073647, 0.0, 0.0, 0.0, 0.0, -3704.242849855763, 0.0]
['beep', 0.0, -6026.633802251077, 0.0, 0.0, 0.0, 0.0, -3702.9017451884447, 0.0]
['beep', 0.0, -6026.231470850882, 0.0, 0.0, 0.0, 0.0, -3703.8405184555672, 0.0]
['beep', 0.0, -6028.466645296413, 0.0, 0.0, 0.0, 0.0, -3703.30407658864, 0.0]
['beep', 0.0, -6028.354886574136, 0.0, 0.0, 0.0, 0.0, -3704.2875533446736, 0.0]
['beep', 0.0, -6027.639630751566, 0.0, 0.0, 0.0, 0.0, -3705.338085334073, 0.0]
['beep', 0.0, -6027.5725755182, 0.0, 0.0, 0.0, 0.0, -3705.561602778626, 0.0]
['beep', 0.0, -6025.963249917419, 0.0, 0.0, 0.0, 0.0, -3705.5839545230815, 0.0]
['beep', 0.0, -6026.566747017711, 0.0, 0.0, 0.0, 0.0, -3703.7064079888355, 0.0]
['beep', 0.0, -6026.522043528801, 0.0, 0.0, 0.0, 0.0, -3703.169966121908, 0.0]
['beep', 0.0, -6024.845662694653, 0.0, 0.0, 0.0, 0.0, -3701.627695754492, 0.0]
['beep', 0.0, -6024.644496994555, 0.0, 0.0, 0.0, 0.0, -3703.0582073996316, 0.0]
['beep', 0.0, -6024.398627805546, 0.0, 0.0, 0.0, 0.0, -3703.237021355274, 0.0]
['beep', 0.0, -6026.902023184541, 0.0, 0.0, 0.0, 0.0, -3702.8123382106232, 0.0]
['beep', 0.0, -6028.198424362949, 0.0, 0.0, 0.0, 0.0, -3703.5499457776486, 0.0]
['beep', 0.0, -6027.013781906818, 0.0, 0.0, 0.0, 0.0, -3702.2535445992407, 0.0]
['beep', 0.0, -6026.209119106426, 0.0, 0.0, 0.0, 0.0, -3703.9969806667546, 0.0]
['beep', 0.0, -6027.818444707209, 0.0, 0.0, 0.0, 0.0, -3705.852175456545, 0.0]
['beep', 0.0, -6028.086665640672, 0.0, 0.0, 0.0, 0.0, -3704.6898847448692, 0.0]
['beep', 0.0, -6027.393761562558, 0.0, 0.0, 0.0, 0.0, -3704.0193324112097, 0.0]
['beep', 0.0, -6026.142063873061, 0.0, 0.0, 0.0, 0.0, -3703.505242288738, 0.0]
['beep', 0.0, -6026.723209228899, 0.0, 0.0, 0.0, 0.0, -3702.9240969329, 0.0]
['beep', 0.0, -6027.9078516850295, 0.0, 0.0, 0.0, 0.0, -3703.080559144087, 0.0]
['beep', 0.0, -6028.28783134077, 0.0, 0.0, 0.0, 0.0, -3703.30407658864, 0.0]
['beep', 0.0, -6028.95838367443, 0.0, 0.0, 0.0, 0.0, -3702.8123382106232, 0.0]
['beep', 0.0, -6027.304354584737, 0.0, 0.0, 0.0, 0.0, -3701.046550398654, 0.0]
['beep', 0.0, -6026.007953406329, 0.0, 0.0, 0.0, 0.0, -3700.599515509548, 0.0]
['beep', 0.0, -6026.6114505066225, 0.0, 0.0, 0.0, 0.0, -3700.688922487369, 0.0]
['beep', 0.0, -6027.080837140184, 0.0, 0.0, 0.0, 0.0, -3700.823032954101, 0.0]
['beep', 0.0, -6026.745560973354, 0.0, 0.0, 0.0, 0.0, -3700.688922487369, 0.0]
['beep', 0.0, -6025.940898172963, 0.0, 0.0, 0.0, 0.0, -3701.6500474989475, 0.0]
['beep', 0.0, -6024.599793505645, 0.0, 0.0, 0.0, 0.0, -3702.3876550659725, 0.0]
['beep', 0.0, -6026.745560973354, 0.0, 0.0, 0.0, 0.0, -3701.582992265581, 0.0]
['beep', 0.0, -6027.6172790071105, 0.0, 0.0, 0.0, 0.0, -3702.186489365875, 0.0]
['beep', 0.0, -6027.416113307013, 0.0, 0.0, 0.0, 0.0, -3703.661704499925, 0.0]
['beep', 0.0, -6025.04682839475, 0.0, 0.0, 0.0, 0.0, -3702.3429515770617, 0.0]
['beep', 0.0, -6024.309220827726, 0.0, 0.0, 0.0, 0.0, -3701.694750987858, 0.0]
['beep', 0.0, -6026.075008639695, 0.0, 0.0, 0.0, 0.0, -3702.0523788991427, 0.0]
['beep', 0.0, -6027.058485395728, 0.0, 0.0, 0.0, 0.0, -3704.153442877942, 0.0]
['beep', 0.0, -6027.751389473843, 0.0, 0.0, 0.0, 0.0, -3704.7122364893244, 0.0]
['beep', 0.0, -6026.454988295435, 0.0, 0.0, 0.0, 0.0, -3703.6393527554696, 0.0]
['beep', 0.0, -6026.007953406329, 0.0, 0.0, 0.0, 0.0, -3703.0135039107213, 0.0]
['beep', 0.0, -6024.599793505645, 0.0, 0.0, 0.0, 0.0, -3702.20884111033, 0.0]
['beep', 0.0, -6022.901060927041, 0.0, 0.0, 0.0, 0.0, -3703.0582073996316, 0.0]
['beep', 0.0, -6023.616316749611, 0.0, 0.0, 0.0, 0.0, -3702.6111725105256, 0.0]
['beep', 0.0, -6024.264517338815, 0.0, 0.0, 0.0, 0.0, -3702.0747306435983, 0.0]
['beep', 0.0, -6024.4433312944575, 0.0, 0.0, 0.0, 0.0, -3699.30311433114, 0.0]
['beep', 0.0, -6025.739732472865, 0.0, 0.0, 0.0, 0.0, -3698.9678381643107, 0.0]
['beep', 0.0, -6027.550223773745, 0.0, 0.0, 0.0, 0.0, -3700.4877567872713, 0.0]
['beep', 0.0, -6027.237299351371, 0.0, 0.0, 0.0, 0.0, -3701.0241986541987, 0.0]
['beep', 0.0, -6025.829139450686, 0.0, 0.0, 0.0, 0.0, -3700.979495165288, 0.0]
['beep', 0.0, -6023.7951307052535, 0.0, 0.0, 0.0, 0.0, -3699.63839049797, 0.0]
['beep', 0.0, -6023.951592916441, 0.0, 0.0, 0.0, 0.0, -3700.465405042816, 0.0]
['beep', 0.0, -6026.4996917843455, 0.0, 0.0, 0.0, 0.0, -3699.9066114314332, 0.0]
['beep', 0.0, -6026.633802251077, 0.0, 0.0, 0.0, 0.0, -3698.297285830651, 0.0]
['beep', 0.0, -6025.158587117027, 0.0, 0.0, 0.0, 0.0, -3698.6772654863917, 0.0]
['beep', 0.0, -6026.09736038415, 0.0, 0.0, 0.0, 0.0, -3697.8502509415453, 0.0]
['beep', 0.0, -6024.465683038912, 0.0, 0.0, 0.0, 0.0, -3698.252582341741, 0.0]
['beep', 0.0, -6027.19259586246, 0.0, 0.0, 0.0, 0.0, -3698.632561997481, 0.0]
['beep', 0.0, -6027.416113307013, 0.0, 0.0, 0.0, 0.0, -3698.2302305972853, 0.0]
['beep', 0.0, -6024.599793505645, 0.0, 0.0, 0.0, 0.0, -3700.0407218981654, 0.0]
['beep', 0.0, -6023.929241171985, 0.0, 0.0, 0.0, 0.0, -3700.01837015371, 0.0]
['beep', 0.0, -6022.47637778239, 0.0, 0.0, 0.0, 0.0, -3699.4148730534166, 0.0]
['beep', 0.0, -6023.929241171985, 0.0, 0.0, 0.0, 0.0, -3699.7501492202464, 0.0]
['beep', 0.0, -6024.175110360994, 0.0, 0.0, 0.0, 0.0, -3699.951314920344, 0.0]
['beep', 0.0, -6023.370447560603, 0.0, 0.0, 0.0, 0.0, -3699.7054457313357, 0.0]
['beep', 0.0, -6023.7951307052535, 0.0, 0.0, 0.0, 0.0, -3700.219535853808, 0.0]
['beep', 0.0, -6025.136235372572, 0.0, 0.0, 0.0, 0.0, -3701.046550398654, 0.0]
['beep', 0.0, -6024.33157257218, 0.0, 0.0, 0.0, 0.0, -3701.270067843207, 0.0]
['beep', 0.0, -6025.203290605938, 0.0, 0.0, 0.0, 0.0, -3699.504280031238, 0.0]
['beep', 0.0, -6024.063351638717, 0.0, 0.0, 0.0, 0.0, -3699.1913556088634, 0.0]
['beep', 0.0, -6023.169281860505, 0.0, 0.0, 0.0, 0.0, -3700.308942831629, 0.0]
['beep', 0.0, -6023.52690977179, 0.0, 0.0, 0.0, 0.0, -3700.0407218981654, 0.0]
['beep', 0.0, -6024.7339039723765, 0.0, 0.0, 0.0, 0.0, -3700.4207015539055, 0.0]
['beep', 0.0, -6025.225642350393, 0.0, 0.0, 0.0, 0.0, -3700.308942831629, 0.0]
['beep', 0.0, -6023.817482449709, 0.0, 0.0, 0.0, 0.0, -3699.2584108422293, 0.0]
['beep', 0.0, -6021.381142304081, 0.0, 0.0, 0.0, 0.0, -3699.1690038644083, 0.0]
['beep', 0.0, -6021.112921370616, 0.0, 0.0, 0.0, 0.0, -3698.6772654863917, 0.0]
['beep', 0.0, -6023.616316749611, 0.0, 0.0, 0.0, 0.0, -3699.504280031238, 0.0]
['beep', 0.0, -6024.555090016734, 0.0, 0.0, 0.0, 0.0, -3701.9629719213217, 0.0]
['beep', 0.0, -6023.52690977179, 0.0, 0.0, 0.0, 0.0, -3700.9347916763777, 0.0]
['beep', 0.0, -6023.169281860505, 0.0, 0.0, 0.0, 0.0, -3699.4148730534166, 0.0]
['beep', 0.0, -6024.711552227921, 0.0, 0.0, 0.0, 0.0, -3701.203012609841, 0.0]
['beep', 0.0, -6025.896194684052, 0.0, 0.0, 0.0, 0.0, -3703.795814966657, 0.0]
['beep', 0.0, -6027.170244118005, 0.0, 0.0, 0.0, 0.0, -3702.0076754102324, 0.0]
['beep', 0.0, -6026.6114505066225, 0.0, 0.0, 0.0, 0.0, -3701.270067843207, 0.0]
['beep', 0.0, -6024.7339039723765, 0.0, 0.0, 0.0, 0.0, -3702.499413788249, 0.0]
['beep', 0.0, -6025.71738072841, 0.0, 0.0, 0.0, 0.0, -3703.0135039107213, 0.0]
['beep', 0.0, -6027.974906918395, 0.0, 0.0, 0.0, 0.0, -3703.3487800775506, 0.0]
['beep', 0.0, -6028.623107507599, 0.0, 0.0, 0.0, 0.0, -3703.728759733291, 0.0]
['beep', 0.0, -6026.834967951175, 0.0, 0.0, 0.0, 0.0, -3702.7005794883466, 0.0]
['beep', 0.0, -6024.95742141693, 0.0, 0.0, 0.0, 0.0, -3703.214669610819, 0.0]
['beep', 0.0, -6023.728075471888, 0.0, 0.0, 0.0, 0.0, -3702.3876550659725, 0.0]
['beep', 0.0, -6022.81165394922, 0.0, 0.0, 0.0, 0.0, -3701.9406201768666, 0.0]
['beep', 0.0, -6022.208156848927, 0.0, 0.0, 0.0, 0.0, -3702.9911521662657, 0.0]
['beep', 0.0, -6020.6882382259655, 0.0, 0.0, 0.0, 0.0, -3702.946448677355, 0.0]
['beep', 0.0, -6019.213023091916, 0.0, 0.0, 0.0, 0.0, -3701.337123076573, 0.0]
['beep', 0.0, -6020.956459159429, 0.0, 0.0, 0.0, 0.0, -3701.6723992434027, 0.0]
['beep', 0.0, -6024.577441761189, 0.0, 0.0, 0.0, 0.0, -3702.834689955079, 0.0]
['beep', 0.0, -6025.605622006134, 0.0, 0.0, 0.0, 0.0, -3702.7229312328022, 0.0]
['beep', 0.0, -6025.605622006134, 0.0, 0.0, 0.0, 0.0, -3700.577163765093, 0.0]
['beep', 0.0, -6026.6114505066225, 0.0, 0.0, 0.0, 0.0, -3701.0912538875646, 0.0]
['beep', 0.0, -6027.840796451664, 0.0, 0.0, 0.0, 0.0, -3701.694750987858, 0.0]
['beep', 0.0, -6028.578404018689, 0.0, 0.0, 0.0, 0.0, -3702.4547102993383, 0.0]
['beep', 0.0, -6028.734866229876, 0.0, 0.0, 0.0, 0.0, -3704.175794622397, 0.0]
['beep', 0.0, -6028.511348785323, 0.0, 0.0, 0.0, 0.0, -3704.3769603224946, 0.0]
['beep', 0.0, -6026.924374928996, 0.0, 0.0, 0.0, 0.0, -3703.3934835664613, 0.0]
['beep', 0.0, -6027.282002840281, 0.0, 0.0, 0.0, 0.0, -3702.20884111033, 0.0]
['beep', 0.0, -6028.824273207698, 0.0, 0.0, 0.0, 0.0, -3702.7229312328022, 0.0]
['beep', 0.0, -6029.740694730365, 0.0, 0.0, 0.0, 0.0, -3703.952277177844, 0.0]
['beep', 0.0, -6028.913680185518, 0.0, 0.0, 0.0, 0.0, -3703.1252626329974, 0.0]
['beep', 0.0, -6026.052656895239, 0.0, 0.0, 0.0, 0.0, -3703.1029108885423, 0.0]
['beep', 0.0, -6026.052656895239, 0.0, 0.0, 0.0, 0.0, -3703.371131822006, 0.0]
['beep', 0.0, -6027.125540629094, 0.0, 0.0, 0.0, 0.0, -3703.169966121908, 0.0]
['beep', 0.0, -6025.896194684052, 0.0, 0.0, 0.0, 0.0, -3704.086387644576, 0.0]
['beep', 0.0, -6025.8514911951415, 0.0, 0.0, 0.0, 0.0, -3704.0640359001204, 0.0]
['beep', 0.0, -6026.09736038415, 0.0, 0.0, 0.0, 0.0, -3703.594649266559, 0.0]
['beep', 0.0, -6025.471511539401, 0.0, 0.0, 0.0, 0.0, -3702.0970823880534, 0.0]
['beep', 0.0, -6026.767912717809, 0.0, 0.0, 0.0, 0.0, -3702.9688004218106, 0.0]
['beep', 0.0, -6025.985601661873, 0.0, 0.0, 0.0, 0.0, -3702.7005794883466, 0.0]
['beep', 0.0, -6026.231470850882, 0.0, 0.0, 0.0, 0.0, -3702.3653033215173, 0.0]
['beep', 0.0, -6025.247994094849, 0.0, 0.0, 0.0, 0.0, -3701.3818265654836, 0.0]
['beep', 0.0, -6024.6221452500995, 0.0, 0.0, 0.0, 0.0, -3702.857041699534, 0.0]
['beep', 0.0, -6025.516215028312, 0.0, 0.0, 0.0, 0.0, -3703.2817248441847, 0.0]
['beep', 0.0, -6026.946726673452, 0.0, 0.0, 0.0, 0.0, -3701.6723992434027, 0.0]
['beep', 0.0, -6026.387933062069, 0.0, 0.0, 0.0, 0.0, -3702.0300271546876, 0.0]
['beep', 0.0, -6025.449159794946, 0.0, 0.0, 0.0, 0.0, -3702.2535445992407, 0.0]
['beep', 0.0, -6026.410284806524, 0.0, 0.0, 0.0, 0.0, -3701.471233543305, 0.0]
['beep', 0.0, -6028.176072618494, 0.0, 0.0, 0.0, 0.0, -3702.6558759994364, 0.0]
['beep', 0.0, -6028.533700529779, 0.0, 0.0, 0.0, 0.0, -3703.2593730997296, 0.0]
['beep', 0.0, -6028.824273207698, 0.0, 0.0, 0.0, 0.0, -3702.6782277438915, 0.0]
['beep', 0.0, -6027.773741218298, 0.0, 0.0, 0.0, 0.0, -3703.0582073996316, 0.0]
['beep', 0.0, -6027.930203429485, 0.0, 0.0, 0.0, 0.0, -3702.9688004218106, 0.0]
['beep', 0.0, -6028.064313896217, 0.0, 0.0, 0.0, 0.0, -3702.9240969329, 0.0]
['beep', 0.0, -6026.767912717809, 0.0, 0.0, 0.0, 0.0, -3700.688922487369, 0.0]
['beep', 0.0, -6025.270345839303, 0.0, 0.0, 0.0, 0.0, -3702.231192854785, 0.0]
['beep', 0.0, -6024.108055127627, 0.0, 0.0, 0.0, 0.0, -3704.0416841556653, 0.0]
['beep', 0.0, -6025.3821045615805, 0.0, 0.0, 0.0, 0.0, -3704.175794622397, 0.0]
['beep', 0.0, -6026.85731969563, 0.0, 0.0, 0.0, 0.0, -3704.511070789227, 0.0]
['beep', 0.0, -6027.863148196119, 0.0, 0.0, 0.0, 0.0, -3703.9746289222994, 0.0]
['beep', 0.0, -6027.974906918395, 0.0, 0.0, 0.0, 0.0, -3704.2875533446736, 0.0]
['beep', 0.0, -6028.8466249521525, 0.0, 0.0, 0.0, 0.0, -3705.3157335896176, 0.0]
['beep', 0.0, -6030.075970897195, 0.0, 0.0, 0.0, 0.0, -3704.7345882337795, 0.0]
['beep', 0.0, -6028.623107507599, 0.0, 0.0, 0.0, 0.0, -3705.5839545230815, 0.0]
['beep', 0.0, -6028.757217974332, 0.0, 0.0, 0.0, 0.0, -3704.6675330004136, 0.0]
['beep', 0.0, -6028.913680185518, 0.0, 0.0, 0.0, 0.0, -3704.466367300316, 0.0]
['beep', 0.0, -6027.796092962753, 0.0, 0.0, 0.0, 0.0, -3704.511070789227, 0.0]
['beep', 0.0, -6027.416113307013, 0.0, 0.0, 0.0, 0.0, -3705.2486783562517, 0.0]
['beep', 0.0, -6027.460816795924, 0.0, 0.0, 0.0, 0.0, -3706.5227277902045, 0.0]
['beep', 0.0, -6028.153720874038, 0.0, 0.0, 0.0, 0.0, -3706.053341156643, 0.0]
['beep', 0.0, -6027.237299351371, 0.0, 0.0, 0.0, 0.0, -3705.4498440563493, 0.0]
['beep', 0.0, -6027.393761562558, 0.0, 0.0, 0.0, 0.0, -3704.153442877942, 0.0]
['beep', 0.0, -6026.119712128605, 0.0, 0.0, 0.0, 0.0, -3703.7064079888355, 0.0]
['beep', 0.0, -6026.276174339792, 0.0, 0.0, 0.0, 0.0, -3703.214669610819, 0.0]
['beep', 0.0, -6027.751389473843, 0.0, 0.0, 0.0, 0.0, -3702.58882076607, 0.0]
['beep', 0.0, -6026.454988295435, 0.0, 0.0, 0.0, 0.0, -3701.6500474989475, 0.0]
['beep', 0.0, -6026.946726673452, 0.0, 0.0, 0.0, 0.0, -3701.1359573764753, 0.0]
['beep', 0.0, -6027.997258662851, 0.0, 0.0, 0.0, 0.0, -3700.577163765093, 0.0]
['beep', 0.0, -6027.661982496022, 0.0, 0.0, 0.0, 0.0, -3703.7064079888355, 0.0]
['beep', 0.0, -6029.673639496999, 0.0, 0.0, 0.0, 0.0, -3703.5499457776486, 0.0]
['beep', 0.0, -6028.824273207698, 0.0, 0.0, 0.0, 0.0, -3703.5499457776486, 0.0]
['beep', 0.0, -6027.4384650514685, 0.0, 0.0, 0.0, 0.0, -3702.633524254981, 0.0]
['beep', 0.0, -6029.293659841259, 0.0, 0.0, 0.0, 0.0, -3702.9911521662657, 0.0]
['beep', 0.0, -6030.031267408284, 0.0, 0.0, 0.0, 0.0, -3702.834689955079, 0.0]
['beep', 0.0, -6030.388895319569, 0.0, 0.0, 0.0, 0.0, -3702.54411727716, 0.0]
['beep', 0.0, -6030.523005786301, 0.0, 0.0, 0.0, 0.0, -3701.7618062212237, 0.0]
['beep', 0.0, -6030.388895319569, 0.0, 0.0, 0.0, 0.0, -3702.231192854785, 0.0]
['beep', 0.0, -6030.14302613056, 0.0, 0.0, 0.0, 0.0, -3702.54411727716, 0.0]
['beep', 0.0, -6031.305316842237, 0.0, 0.0, 0.0, 0.0, -3704.153442877942, 0.0]
['beep', 0.0, -6030.14302613056, 0.0, 0.0, 0.0, 0.0, -3702.633524254981, 0.0]
['beep', 0.0, -6029.964212174918, 0.0, 0.0, 0.0, 0.0, -3701.1583091209304, 0.0]
['beep', 0.0, -6030.008915663829, 0.0, 0.0, 0.0, 0.0, -3701.627695754492, 0.0]
['beep', 0.0, -6028.801921463242, 0.0, 0.0, 0.0, 0.0, -3700.912439931922, 0.0]
['beep', 0.0, -6029.427770307991, 0.0, 0.0, 0.0, 0.0, -3701.0241986541987, 0.0]
['beep', 0.0, -6029.472473796902, 0.0, 0.0, 0.0, 0.0, -3702.7452829772574, 0.0]
['beep', 0.0, -6030.075970897195, 0.0, 0.0, 0.0, 0.0, -3701.0912538875646, 0.0]
['beep', 0.0, -6028.801921463242, 0.0, 0.0, 0.0, 0.0, -3701.0689021431094, 0.0]
['beep', 0.0, -6028.198424362949, 0.0, 0.0, 0.0, 0.0, -3701.851213199045, 0.0]
['beep', 0.0, -6029.181901118983, 0.0, 0.0, 0.0, 0.0, -3702.3429515770617, 0.0]
['beep', 0.0, -6029.114845885617, 0.0, 0.0, 0.0, 0.0, -3703.0582073996316, 0.0]
['beep', 0.0, -6028.533700529779, 0.0, 0.0, 0.0, 0.0, -3702.499413788249, 0.0]
['beep', 0.0, -6028.24312785186, 0.0, 0.0, 0.0, 0.0, -3700.957143420833, 0.0]
['beep', 0.0, -6028.019610407307, 0.0, 0.0, 0.0, 0.0, -3701.985323665777, 0.0]
['beep', 0.0, -6029.248956352349, 0.0, 0.0, 0.0, 0.0, -3703.5499457776486, 0.0]
['beep', 0.0, -6028.757217974332, 0.0, 0.0, 0.0, 0.0, -3702.7452829772574, 0.0]
['beep', 0.0, -6028.3772383185915, 0.0, 0.0, 0.0, 0.0, -3702.0523788991427, 0.0]
['beep', 0.0, -6026.767912717809, 0.0, 0.0, 0.0, 0.0, -3702.58882076607, 0.0]
['beep', 0.0, -6026.142063873061, 0.0, 0.0, 0.0, 0.0, -3702.789986466168, 0.0]
['beep', 0.0, -6026.991430162362, 0.0, 0.0, 0.0, 0.0, -3701.1583091209304, 0.0]
['beep', 0.0, -6028.131369129583, 0.0, 0.0, 0.0, 0.0, -3703.2817248441847, 0.0]
['beep', 0.0, -6027.796092962753, 0.0, 0.0, 0.0, 0.0, -3703.0135039107213, 0.0]
['beep', 0.0, -6026.85731969563, 0.0, 0.0, 0.0, 0.0, -3702.3429515770617, 0.0]
['beep', 0.0, -6026.4996917843455, 0.0, 0.0, 0.0, 0.0, -3701.337123076573, 0.0]
['beep', 0.0, -6027.751389473843, 0.0, 0.0, 0.0, 0.0, -3702.58882076607, 0.0]
['beep', 0.0, -6026.276174339792, 0.0, 0.0, 0.0, 0.0, -3702.7676347217125, 0.0]
['beep', 0.0, -6027.147892373549, 0.0, 0.0, 0.0, 0.0, -3702.9240969329, 0.0]
['beep', 0.0, -6029.6065842636335, 0.0, 0.0, 0.0, 0.0, -3703.7064079888355, 0.0]
['beep', 0.0, -6028.310183085226, 0.0, 0.0, 0.0, 0.0, -3703.0582073996316, 0.0]
['beep', 0.0, -6027.550223773745, 0.0, 0.0, 0.0, 0.0, -3704.9581056783327, 0.0]
['beep', 0.0, -6028.980735418884, 0.0, 0.0, 0.0, 0.0, -3705.11456788952, 0.0]
['beep', 0.0, -6028.444293551957, 0.0, 0.0, 0.0, 0.0, -3704.488719044771, 0.0]
['beep', 0.0, -6027.885499940575, 0.0, 0.0, 0.0, 0.0, -3704.3099050891287, 0.0]
['beep', 0.0, -6028.24312785186, 0.0, 0.0, 0.0, 0.0, -3704.3769603224946, 0.0]
['beep', 0.0, -6028.734866229876, 0.0, 0.0, 0.0, 0.0, -3705.1592713784307, 0.0]
['beep', 0.0, -6029.472473796902, 0.0, 0.0, 0.0, 0.0, -3704.488719044771, 0.0]
['beep', 0.0, -6028.779569718787, 0.0, 0.0, 0.0, 0.0, -3702.834689955079, 0.0]
['beep', 0.0, -6028.24312785186, 0.0, 0.0, 0.0, 0.0, -3702.7676347217125, 0.0]
['beep', 0.0, -6028.578404018689, 0.0, 0.0, 0.0, 0.0, -3702.834689955079, 0.0]
['beep', 0.0, -6029.226604607893, 0.0, 0.0, 0.0, 0.0, -3703.147614377453, 0.0]
['beep', 0.0, -6030.5453575307565, 0.0, 0.0, 0.0, 0.0, -3704.6675330004136, 0.0]
['beep', 0.0, -6030.746523230854, 0.0, 0.0, 0.0, 0.0, -3703.8405184555672, 0.0]
['beep', 0.0, -6029.986563919373, 0.0, 0.0, 0.0, 0.0, -3703.7511114777462, 0.0]
['beep', 0.0, -6029.897156941553, 0.0, 0.0, 0.0, 0.0, -3704.5781260225926, 0.0]
['beep', 0.0, -6031.126502886594, 0.0, 0.0, 0.0, 0.0, -3705.181623122886, 0.0]
['beep', 0.0, -6032.266441853815, 0.0, 0.0, 0.0, 0.0, -3705.181623122886, 0.0]
['beep', 0.0, -6030.187729619472, 0.0, 0.0, 0.0, 0.0, -3705.136919633975, 0.0]
['beep', 0.0, -6028.153720874038, 0.0, 0.0, 0.0, 0.0, -3704.6675330004136, 0.0]
['beep', 0.0, -6029.248956352349, 0.0, 0.0, 0.0, 0.0, -3705.2486783562517, 0.0]
['beep', 0.0, -6031.037095908773, 0.0, 0.0, 0.0, 0.0, -3707.1262248904977, 0.0]
['beep', 0.0, -6031.305316842237, 0.0, 0.0, 0.0, 0.0, -3705.181623122886, 0.0]
['beep', 0.0, -6029.651287752544, 0.0, 0.0, 0.0, 0.0, -3703.505242288738, 0.0]
['beep', 0.0, -6029.986563919373, 0.0, 0.0, 0.0, 0.0, -3702.566469021615, 0.0]
['beep', 0.0, -6028.868976696608, 0.0, 0.0, 0.0, 0.0, -3701.605344010037, 0.0]
['beep', 0.0, -6030.411247064024, 0.0, 0.0, 0.0, 0.0, -3702.6558759994364, 0.0]
['beep', 0.0, -6030.321840086203, 0.0, 0.0, 0.0, 0.0, -3702.499413788249, 0.0]
['beep', 0.0, -6027.974906918395, 0.0, 0.0, 0.0, 0.0, -3702.7452829772574, 0.0]
['beep', 0.0, -6028.086665640672, 0.0, 0.0, 0.0, 0.0, -3704.488719044771, 0.0]
['beep', 0.0, -6029.651287752544, 0.0, 0.0, 0.0, 0.0, -3705.7404167342684, 0.0]
['beep', 0.0, -6029.830101708187, 0.0, 0.0, 0.0, 0.0, -3704.39931206695, 0.0]
['beep', 0.0, -6029.070142396706, 0.0, 0.0, 0.0, 0.0, -3704.511070789227, 0.0]
['beep', 0.0, -6029.897156941553, 0.0, 0.0, 0.0, 0.0, -3703.3264283330955, 0.0]
['beep', 0.0, -6029.472473796902, 0.0, 0.0, 0.0, 0.0, -3702.834689955079, 0.0]
['beep', 0.0, -6029.114845885617, 0.0, 0.0, 0.0, 0.0, -3702.879393443989, 0.0]
['beep', 0.0, -6030.634764508577, 0.0, 0.0, 0.0, 0.0, -3704.6675330004136, 0.0]
['beep', 0.0, -6029.986563919373, 0.0, 0.0, 0.0, 0.0, -3705.0922161450644, 0.0]
['beep', 0.0, -6029.830101708187, 0.0, 0.0, 0.0, 0.0, -3703.237021355274, 0.0]
['beep', 0.0, -6029.3160115857145, 0.0, 0.0, 0.0, 0.0, -3703.7734632222014, 0.0]
