[[-20504.52923828712, -20551.69141908782, -20554.753608078197, -20507.233799366215, -20472.879168138406, -20496.99670040568, -20544.136529461925, -20546.5505178631, -20498.091935883993, -20462.507958711143, -20485.172627588825, -20530.837241511017, -20533.027712467636, -20483.831522921508, -20447.688752137274, -20469.928737870305, -20515.883924470418, -20518.1414506604, -20469.369944258924, -20433.76361534162, -20456.607098174944, -20503.322244086536, -20506.540895288097, -20458.70816215374, -20423.593571614456, -20446.302943981045, -20492.213427092247, -20495.052098638072, -20447.375827714903, -20411.858905775418, -20433.94242929726, -20479.13765658589, -20481.350479286968, -20432.824842074497, -20395.60918755641, -20415.457536632723, -20459.915156354327, -20462.753827900153, -20414.205838943224, -20376.49844604712, -20396.346795123434, -20440.491490422668, -20442.99488580166, -20395.072745689482, -20358.326477804956, -20379.113600148394, -20424.062958248014, -20427.236905960668, -20379.962966437695, -20343.864899142372, -20364.897890674816, -20411.47892611968, -20417.29037967806, -20372.743352978632, -20338.25461128409, -20360.69576271722, -20408.975530740685, -20416.932751766773, -20372.877463445362, -20338.88046012884, -20361.32161156197, -20409.064937718504, -20416.23984768866, -20371.379896566857, -20335.773567649554, -20358.03590512704, -20406.449783617234, -20412.99884474264, -20367.334230820445, -20330.92323910275, -20351.88917540183, -20398.5149143356, -20403.812277771507, -20356.940669648728, -20319.63560815282, -20339.148681062303, -20385.215626384692, -20390.714155520698, -20343.484919486633, -20305.19638123469, -20324.016550066062, -20368.94355642123, -20373.682126245752, -20326.676407656243, -20287.896131026286, -20305.710471357164, -20350.302201545503, -20355.107826603395, -20307.275093469038, -20267.310174382947, -20284.655128080267, -20329.559782690976, -20335.147718804805, -20288.946663015686, -20250.367552085823, -20268.42776160571, -20313.801802849986, -20319.814422108462, -20272.942813985686, -20234.453110033646, -20253.04976142046, -20299.183761976215, -20305.82223007944, -20260.20231964616, -20221.511449994025, -20240.353970569846, -20287.426744392724, -20295.36161367436, -20250.546366041468, -20212.95073186764, -20231.972066399107, -20279.402468133267, -20288.320814170937, -20244.511395038535, -20206.893409120254, -20226.33942679637, -20274.86506400884, -20284.386907146803, -20239.750473469554, -20202.08778406236, -20221.13147033828, -20269.031258706007, -20278.977784988616, -20235.414235045224, -20197.192752026647, -20215.85645864683, -20264.67266853722, -20274.976822731118, -20230.943886154164, -20193.28119674697, -20212.52604872299, -20261.230499891102, -20271.646412807277, -20228.52989775299, -20190.219007756594, -20208.14510680975, -20256.760151000042, -20267.913671483242, -20224.327769795393, -20185.391030954248, -20202.780688140476, -20250.30049685246, -20260.783465001998, -20218.00222611454, -20179.266652973492, -20196.343385737346, -20244.042008404973, -20254.77084574352, -20211.27435103349, -20171.577652880867, -20188.408516455715, -20235.615400745322, -20245.360761327836, -20201.19371428415, -20160.826463797865, -20177.74673435053, -20225.758281440532, -20237.470595535113, -20193.8176386139, -20153.830367783354, -20170.79534182493, -20219.164516826215, -20230.98858964307, -20187.737964122054, -20147.258954913494, -20163.911004532696, -20212.056662089428, -20224.216011073117, -20181.300661718924, -20140.866355999275, -20156.713742818087, -20204.680586419177, -20215.744699924555, -20172.04703951443, -20130.51749831647, -20145.806091523897, -20194.130563036273, -20206.848705631342, -20164.268632443982, -20123.14142264622, -20138.720588531567, -20187.24622574404, -20199.38322298327, -20156.490225373534, -20115.65358825369, -20130.226925638548, -20178.506693662013, -20191.291891490448, -20148.22007992507, -20106.82464919384, -20122.247352868006, -20171.018859269483, -20184.049926286927, -20142.47568160006, -20101.72845145803, -20117.106451643285, -20165.877958044763, -20179.89250181824, -20137.804167008897, -20096.58755023331, -20111.98790216302, -20161.452312642614, -20176.293870960937, -20135.88191698574, -20095.514666499457, -20111.40675680718, -20161.407609153703, -20176.94207155014, -19983.95710992302, -20032.907430280142, -20062.21056726105, -20033.399168658158, -19987.801609969334, -19989.075659403286, -20036.327247181805, -20064.646907406677, -20034.58381111429, -19988.025127413886, -19988.226293113985, -20034.24853494746, -20061.785884116398, -20031.365159912726, -19983.10774363372, -19982.884226189166, -20029.375854656202, -20056.823796847322, -20026.58188659929, -19979.03972614285, -19978.212711598007, -20024.346712153758, -20052.59931714527, -20023.407938886638, -19976.08929587475, -19974.837598185255, -20021.44098537457, -20050.453549677557, -20021.82096503031, -19974.681135974068, -19973.988231895954, -20021.932723752587, -20052.420503189624, -20024.525526109403, -19978.01154589791, -19978.346822064737, -20027.028921488396, -20058.16490151464, -20031.320456423815, -19985.946415179544, -19986.39345006865, -20034.33794192528, -20064.579852173312, -20037.556593126847, -19991.176723382083, -19991.355537337728, -20038.987104771986, -20068.849035364277, -20040.283505950392, -19992.696642005045, -19990.260301859416, -20036.036674503885, -20065.026887062417, -20036.237840203983, -19987.399278569137, -19983.71124073401, -20028.459433133536, -20057.427293947614, -20027.58771509978, -19977.922138920087, -19973.407086540115, -20017.19415392806, -20046.58669788679, -20017.775299283898, -19967.28270855936, -19963.304098046316, -20008.00758695693, -20036.684875093088, -20008.141697423664, -19959.48194974446, -19955.43628399805, -20000.787973497867, -20031.096938979263, -20003.313720621314, -19954.028124097364, -19950.071865328773, -19996.027051928886, -20026.827755788298, -19999.75979325292, -19952.239984540938, -19949.066036828284, -19995.222389128496, -20026.514831365923, -20000.519752564403, -19952.441150241037, -19949.311906017294, -19996.04940367334, -20027.654770333145, -20001.14560140915, -19953.37992350816, -19949.647182184122, -19995.222389128496, -20027.11832846622, -20001.592636298257, -19953.603440952713, -19950.116568817684, -19996.585845540267, -20028.884116278186, -20003.42547934359, -19955.39158050914, -19951.70354267401, -19998.373985096692, -20030.895773279164, -20005.884171233676, -19958.006734610408, -19953.312868274792, -19999.58097929728, -20032.86272679123, -20007.739366023467, -19959.817225911287, -19955.302173531316, -20001.212656642518, -20034.270886691917, -20010.086299191273, -19961.672420701077, -19956.84444389873, -20001.68204327608, -20033.980314013996, -20008.588732312768, -19959.437246255548, -19953.625792697167, -19998.262226374416, -20031.38751165718, -20007.091165434264, -19958.14084507714, -19952.441150241037, -19997.792839740854, -20031.163994212628, -20006.688834034067, -19958.744342177433, -19953.08935083024, -19997.748136251943, -20031.074587234805, -20007.493496834457, -19958.364362521694, -19951.70354267401, -19996.47408681799, -20030.694607579066, -20006.979406711987, -19958.18554856605, -19951.636487440646, -19995.91529320661, -20029.19704070056, -20005.325377622292, -19956.732685176456, -19949.870699628675, -19993.657767016623, -20026.96186625503, -20003.29136887686, -19954.676324686567, -19947.434359483046, -19991.53435129337, -20025.754872054444, -20002.844333987756, -19953.536385719348, -19945.445054226526, -19988.695679747543, -20022.558572597336, -19999.737441508467, -19950.65301068461, -19942.382865236148, -19986.415801813102, -20021.463337119025, -19999.33511010827, -19950.764769406887, -19943.165176292085, -19987.354575080226, -20022.267999919415, -19999.692738019556, -19951.457673485, -19944.171004792574, -19988.650976258636, -20024.7266918095, -20003.91721772161, -19955.19041480904, -19946.56264144929, -19990.930854193077, -20026.91716276612, -20005.90652297813, -19958.23025205496, -19951.301211273814, -19996.451735073537, -20032.996837257964, -20013.282598648384, -19965.762789936398, -19957.85027239922, -20002.509057820924, -20039.322380938815, -20019.362273140225, -19972.33420280626, -19964.935775391554, -20009.795726513355, -20046.96667754253, -20027.408901144136, -19979.710278476512, -19971.976574894976, -20017.350616139247, -20054.789788101887, -20035.58963961478, -19988.67332800309, -19980.760810465912, -20025.777223798897, -20063.775189372922, -20045.513814152935, -19998.306929863327, -19989.72385999249, -20034.360293669735, -20071.643003421188, -20053.00164854546, -20006.33120612278, -19997.90459846313, -20042.406921673646, -20079.957852358562, -20061.092980038284, -20012.433232359082, -20002.598464798746, -20046.4302356756, -20084.07057333834, -20064.31163123985, -20015.540124838368, -20005.9735782115, -20049.73829385499, -20087.892721640197, -20069.608994675757, -20021.753909796942, -20011.874438747698, -20056.466168936036, -20096.16286708866, -20078.572044202334, -20031.00753200144, -20021.843316774764, -20066.41269521865, -20106.042338137908, -20089.144419329696, -20041.691665851078, -20032.10276747975, -20076.158055801163, -20115.586533020323, -20098.46509676756, -20050.54295665538, -20040.529375139402, -20084.159980316163, -20122.98496043503, -20105.5953032488, -20058.41077070365, -20048.44189267658, -20091.781925175423, -20130.606905294288, -20112.703157985587, -20064.244576006484, -20052.800482845367, -20095.246445565994, -20133.64674254021, -20115.899457442698, -20066.904433596665, -20055.192119502084, -20097.369861289248, -20136.26189664148, -20118.916942944164, -20070.771285387433, -20059.282488737404, -20102.399003791692, -20142.36392287778, -20126.382425592237, -20078.773209902432, -20067.038544063395, -20110.110355628774, -20150.678771815154, -20135.79251000792, -20088.58562571831, -20077.87914012422, -20121.956780190085, -20163.642783599233, -20149.695295059122, -20103.516591014457, -20093.54771298739, -20138.340608875824, -20181.07714427437, -20167.666097601188, -20121.330931345336, -20110.490335284514, -20154.724437561566, -20196.94688283764, -20183.93816756465, -20137.89357398672, -20126.56123954788, -20170.303603446915, -20212.503696978536, -20199.13735379426, -20152.04222822693, -20139.771120520963, -20181.814751841397, -20221.734967438577, -20206.222856786593, -20157.496053874023, -20142.8556612558, -20183.446429186635, -20222.941961639164, -20206.58048469788, -20156.490225373534, -20140.732245532545, -20180.071315773883, -20218.829240659386, -20202.557170695924, -20152.243393927027, -20135.434882096637, -20174.438676171147, -20213.107194078828, -20196.790420626454, -20146.968382235573, -20131.36686460577, -20171.13061799176, -20210.91672312221, -20195.337557236857, -20145.94020199063, -20130.07046342736, -20170.03538251345, -20210.62615044429, -20196.52219969299, -20147.884803758243, -20132.305637872894, -20171.912929047696, -20212.548400467444, -20199.360871238812, -20151.952821249106, -20137.290076886427, -20178.439638428645, -20220.639731960266, -20208.346272509847, -20161.36290566479, -20147.437768869135, -20188.632033900267, -20231.770900699008, -20220.773842427, -20174.684545360156, -20159.999449253017, -20201.149010795238, -20244.109063638338, -20232.888487921773, -20185.6145483988, -20170.79534182493, -20212.034310344974, -20255.754322499553, -20245.45016830566, -20198.869132860797, -20183.669946631187, -20224.841859917862, -20269.120665683826, -20259.19649114567, -20212.32488302289, -20197.304510748927, -20237.67176123521, -20281.21295943415, -20271.601709318365, -20225.355950040335, -20210.156763810726, -20251.842767219874, -20296.903884041774, -20286.823247292432, -20239.705769980643, -20224.126604095294, -20264.516206326032, -20308.50443941408, -20298.24498870909, -20251.35102884186, -20234.944848411662, -20274.77565703102, -20318.54037267451, -20308.415032436256, -20260.470540579623, -20244.15376712725, -20283.850465279873, -20326.96698033416, -20316.528715673532, -20267.95837497215, -20249.451130563157, -20287.78437230401, -20329.850355368897, -20318.54037267451, -20269.25477615056, -20250.546366041468, -20287.96318625965, -20330.476204213646, -20320.172050019748, -20272.29461339648, -20253.787368987487, -20292.031203750517, -20335.482994971633, -20325.581172177932, -20276.87672100982, -20257.944793456172, -20295.58513111891, -20338.522832217557, -20328.665712912763, -20281.59293908989, -20263.48802608109, -20301.73186084412, -20345.92125963226, -20336.93585836123, -20289.058421737962, -20270.327659884413, -20307.945645802694, -20351.419788768268, -20341.808538652487, -20293.193494462193, -20273.34514538588, -20310.225523737136, -20353.386742280334, -20344.043713098017, -20295.182799718714, -20274.95447098666, -20311.79014584901, -20354.97371613666, -20346.234184054636, -20297.19445671969, -20277.077886709918, -20313.131250516326, -20356.337172548436, -20347.37412302186, -20298.535561387012, -20277.524921599022, -20314.382948205825, -20359.108788860893, -20351.665657957277, -20304.078794011926, -20283.895168768784, -20321.289637242513, -20365.814312197486, -20358.348829549413, -20310.78431734852, -20291.047726994482, -20328.151622790294, -20373.480960545658, -20367.06600988698, -20321.40139596479, -20301.240122466104, -20338.232259539636, -20384.098039161927, -20377.906605947806, -20331.012646080573, -20310.694910370697, -20347.84350965542, -20393.03873694405, -20386.914358963295, -20340.4003787518, -20319.903829086285, -20357.16418709328, -20403.052318460028, -20397.173809668282, -20350.01162886758, -20329.582134435434, -20366.26134708659, -20411.836554030964, -20405.980396983672, -20358.84056792743, -20337.338189761424, -20372.69864948972, -20417.312731422513, -20411.970664497694, -20365.166111608283, -20342.79201540852, -20377.526626292067, -20421.581914613478, -20415.055205232526, -20367.46834128718, -20344.043713098017, -20377.884254203353, -20423.101833236437, -20417.692711078253, -20370.307012833004, -20348.491710244623, -20383.807466484006, -20429.539135639567, -20424.66645534831, -20377.437219314244, -20355.152530092302, -20390.46828633169, -20436.51287990962, -20432.28840020757, -20385.640309529343, -20363.333268562947, -20399.073707946984, -20445.43122594729, -20440.983228800684, -20393.6645857888, -20370.485826788645, -20405.488658605656, -20452.539080684077, -20449.2757259936, -20402.828801015476, -20380.745277493632, -20415.725757566186, -20462.127979055404, -20458.99873483166, -20411.99301624215, -20388.45662933071, -20423.23594370317, -20469.6828686813, -20465.972479101718, -20418.743243067653, -20394.40219335582, -20427.929810038782, -20473.95205187226, -20470.10755182595, -20422.721853580697, -20397.911417235307, -20430.81318507352, -20476.656612951352, -20472.454484993756, -20423.66062684782, -20397.50908583511, -20428.622714116897, -20472.678002438308, -20468.408819247346, -20419.99494075715, -20392.636405543853, -20423.638275103363, -20467.850025635962, -20462.217386033226, -20412.551809853532, -20384.880350217863, -20414.652873832332, -20457.72468539771, -20451.868528350416, -20402.67233880429, -20375.157341379803, -20405.108678949917, -20448.806339360042, -20443.66543813532, -20394.42454510028, -20366.976602909162, -20397.196161412736, -20441.787891601074, -20438.14455725486, -20389.596568297933, -20361.433370284245, -20391.69763227673, -20436.468176420713, -20432.71308335222, -20384.500370562124, -20357.432408026747, -20388.680146775263, -20434.612981630922, -20432.198993229747, -20385.61795778489, -20358.795864438518, -20389.864789231397, -20437.04932177655, -20436.13290025388, -20389.79773399803, -20363.84735868542, -20395.89976023433, -20444.17952825779, -20444.157176513338, -20398.5149143356, -20373.07862914546, -20405.198085927736, -20452.740246384175, -20453.299039995556, -20407.679129562275, -20380.991146682638, -20412.216533686704, -20460.026915076603, -20460.518653454623, -20415.65870233282, -20389.596568297933, -20421.447804146745, -20469.90638612585, -20471.202787304257, -20426.387539671367, -20400.906550992317, -20433.33893219697, -20482.266900809635, -20484.032688621606, -20438.926868310795, -20412.32829240898, -20443.263106735125, -20491.140543358393, -20492.48164802571, -20446.86173759243, -20419.346740167945, -20449.990981816172, -20498.114287628447, -20499.43304055131, -20453.38844697338, -20425.42641465979, -20455.53421444109, -20504.39512782039, -20505.780935976618, -20460.317487754524, -20432.869545563408, -20463.312621511534, -20511.681796512818, -20514.408709336367, -20470.28636578159, -20443.777196857598, -20474.80141816156, -20523.595276307497, -20526.657465297874, -20481.842217664984, -20453.723723140207, -20483.920929899326, -20531.664256055865, -20533.63120956793, -20488.994775890682, -20461.166854043826, -20491.274653825123, -20540.73906430472, -20543.667142828363, -20498.49426728419, -20469.61581344793, -20499.72361322923, -20548.271602186156, -20551.087921987524, -20506.45148831028, -20477.461275751743, -20505.40095632088, -20553.792483066616, -20557.59227962402, -20512.57586629103, -20484.077392110514, -20512.933494202316, -20560.96739303677, -20564.186044238337, -20518.29791287159, -20487.988947390193, -20515.25807562567, -20563.001401782203, -20565.97418379476, -20520.331921617024, -20489.82179043553, -20517.247380882192, -20564.63307912744, -20567.292936717622, -20521.62832279543, -20490.939377658295, -20517.761471004662, -20565.84007332803, -20569.5057594187, -20523.97525596324, -20493.174552103825, -20520.667197783852, -20568.4552274293, -20572.724410620263, -20528.043273454103, -20497.600197505977, -20524.77991876363, -20574.132570520946, -20579.318175234577, -20534.726445046243, -20504.35042433148, -20532.759491534172, -20582.536826436142, -20588.527093950164, -20545.07530272905, -20515.77216574814, -20543.845956784007, -20593.869160874983, -20600.731146422764, -20557.346410435013, -20527.05979669807, -20554.999477267203, -20604.419184257888, -20610.02947211617, -20566.08594251704, -20534.659389812874, -20560.49800640321, -20609.135402337957, -20615.103318107525, -20571.15978850839, -20538.995628237204, -20564.856596571994, -20613.18106808437, -20618.523135009185, -20574.31138447659, -20542.661314327874, -20567.963489051283, -20616.779698941675, -20622.41233854441, -20578.17823626736, -20546.416407396366, -20573.08203853155, -20622.099414122036, -20627.32972232458, -20582.290957247133, -20548.740988819718, -20571.964451308784, -20619.484260020767, -20624.93808566786, -20580.368707223977, -20547.243421941213, -20571.2044919973, -20619.03722513166, -20624.60280950103, -20579.58639616804, -20546.014075996172, -20569.72927686325, -20618.724300709284, -20625.742748468252, -20582.827399114063, -20550.3503144205, -20575.473675188266, -20625.161603112414, -20633.431748560877, -20591.298710262625, -20560.855634314496, -20587.387154982946, -20638.572649785598, -20648.116844668013, -20607.146097081437, -20576.72537287776, -20603.681576690862, -20654.732961026784, -20664.791246031673, -20624.04401588965, -20593.332719008056, -20618.791355942652, -20670.26742342322, -20680.728039828307, -20638.952629441337, -20606.430841258865, -20631.196574115347, -20681.532702628698, -20690.383993433, -20647.692161523362, -20614.857448918516, -20638.729111996785, -20688.081763754104, -20696.24015048029, -20653.101283681546, -20618.90311466493, -20642.08187366508, -20691.300414955665, -20699.212932492846, -20654.911774982425, -20619.305446065122, -20640.740768997763, -20689.869903310526, -20698.587083648097, -20655.157644171435, -20619.730129209773, -20641.008989931226, -20689.71344109934, -20698.117697014535, -20653.83889124857, -20618.187858842357, -20639.46671956381, -20688.77466783222, -20698.43062143691, -20655.314106382622, -20619.819536187595, -20642.12657715399, -20691.65804286695, -20701.71632787184, -20659.80680701814, -20625.60863800152, -20647.915678967915, -20698.81060109265, -20710.14293553149, -20669.105132711546, -20635.063425906115, -20658.13042618399, -20709.137107031, -20720.760014147763, -20680.23630145029, -20646.70868476733, -20670.021554234216, -20721.944656603893, -20734.908668387972, -20695.167266746434, -20661.751408785753, -20685.3324991861, -20737.47911900033, -20750.174909850946, -20710.075880298125, -20676.23533919279, -20698.90000807047, -20750.286668573222, -20763.563604779676, -20723.73279616032, -20689.82519982162, -20712.892200099493, -20764.904709446993, -20777.891072975526, -20737.702636444883, -20702.990377305792, -20724.51510721625, -20776.237043885834, -20789.78220102575, -20749.325543561645, -20714.076842555623, -20735.758034677274], [-17708.661283095036, -17672.898491966545, -17658.727485981883, -17663.935442439968, -17659.82272146019, -17630.20666005691, -17594.555627650694, -17580.38462166603, -17586.62075836906, -17583.42445891195, -17553.51782483075, -17516.302170312665, -17501.214742805332, -17505.998016118767, -17502.354681772555, -17472.828027347092, -17435.433558873363, -17419.96615171029, -17425.710550035306, -17421.977808711268, -17391.221808340768, -17353.33560148902, -17337.845842581493, -17342.785578106115, -17338.56109840406, -17307.603932333463, -17268.823655703505, -17251.769274684106, -17256.306678808534, -17252.41747527331, -17222.667303403297, -17185.4069453963, -17169.738372533127, -17175.192198180222, -17172.73350629014, -17143.96681117616, -17106.818211891437, -17091.864894850838, -17098.2351420206, -17096.089374552892, -17067.85912130584, -17031.671647032697, -17016.852440458828, -17022.730949250574, -17020.763995738507, -16992.511390747, -16955.87688158475, -16940.20830872158, -16946.109169257783, -16943.762236089973, -16915.48727935401, -16878.048107391372, -16861.507816494443, -16867.25221481946, -16865.218206074023, -16836.764435382418, -16799.4146703976, -16783.36611787869, -16789.244626670436, -16787.188266180547, -16758.399219322113, -16721.07180608175, -16705.31382624076, -16710.87941061013, -16708.6442361646, -16680.101058495173, -16642.48307257689, -16626.054540402238, -16632.24597361636, -16630.7260549934, -16601.95935987942, -16564.743705361332, -16549.365705176082, -16555.825359323666, -16554.126626745063, -16525.8516700091, -16488.63601549101, -16472.296890294183, -16478.823599675132, -16477.996585130284, -16450.481587705803, -16414.025892499198, -16397.8208777691, -16402.91707550491, -16401.218342926306, -16373.47982805727, -16336.510042728192, -16319.813289620077, -16325.602391434002, -16324.574211189058, -16296.411013175371, -16258.278937134617, -16240.621059014924, -16245.516091050637, -16243.325620094016, -16214.760090680134, -16175.555130905526, -16156.980831263165, -16162.658174354814, -16161.786456321057, -16133.846775751923, -16095.871161922356, -16079.08500183642, -16084.717641439158, -16083.689461194213, -16056.46503644765, -16019.338788907384, -16002.574980565905, -16009.414614369229, -16009.615780069325, -15982.369003578307, -15944.795721148936, -15927.651933151716, -15932.859889609801, -15932.323447742874, -15905.747223585515, -15868.777438256437, -15852.058333403867, -15858.629746273728, -15859.143836396199, -15832.478205261017, -15795.240198998476, -15779.035184268378, -15785.69600411606, -15786.299501216354, -15759.566814847805, -15721.63590450715, -15704.358006043198, -15710.43768053504, -15710.080052623756, -15682.967386599468, -15645.081179747724, -15627.468005116942, -15633.659438331062, -15634.218231942445, -15607.574952551719, -15570.046373611258, -15552.3214402582, -15558.2223007944, -15558.803446150238, -15532.428387692975, -15495.011567474792, -15477.44309633292, -15482.651052791007, -15482.718108024374, -15456.499511778298, -15419.507374704765, -15402.385938451998, -15408.71148213285, -15409.650255399974, -15383.476362642808, -15346.238356380269, -15329.18397536087, -15335.576574275086, -15337.36471383151, -15311.548448985632, -15274.489256678733, -15256.093770992014, -15262.240500717224, -15263.335736195533, -15237.675933560842, -15199.499154031177, -15180.880150899906, -15187.272749814125, -15188.569150992531, -15163.222272780213, -15126.140728728858, -15107.879353508873, -15113.154365200326, -15113.668455322797, -15087.31574860999, -15049.720114436164, -15031.481090960633, -15036.957268352184, -15037.560765452477, -15011.58803839541, -14973.478314099111, -14954.43462782319, -14960.670764526221, -14961.96716570463, -14936.776749703498, -14898.979949829574, -14880.98679554305, -14887.04411829044, -14888.362871213303, -14863.150103467717, -14825.55446929389, -14807.181335351628, -14813.484527288025, -14815.719701733555, -14790.21636131005, -14752.307802713849, -14734.091130982773, -14740.550785130357, -14742.24951770896, -14716.656770307634, -14679.15054311163, -14660.889167891643, -14667.170008083584, -14669.181665084561, -14644.058304316797, -14606.663835843068, -14588.60362632318, -14594.437431626015, -14596.560847349268, -14572.018631937342, -14534.802977419255, -14515.803994632244, -10998.600542378492, -10961.720164027234, -10937.088541637486, -10939.100198638464, -10945.671611508324, -10928.34900955546, -10891.602741670937, -10867.19463672574, -10869.34040419345, -10876.068279274497, -10859.080953488465, -10822.982886193144, -10798.686539970224, -10801.23463883813, -10808.007217408087, -10790.729318944135, -10754.117161526343, -10729.329076925407, -10731.74306532658, -10739.141492741286, -10722.31062916644, -10685.854933959834, -10661.11155284781, -10662.922044148689, -10670.141657607754, -10653.690773688648, -10617.212726737587, -10592.178772947642, -10594.324540415351, -10601.901781785702, -10585.540304844417, -10548.928147426623, -10523.357751769752, -10524.631801203705, -10531.404379773663, -10514.12648130971, -10476.843771558259, -10451.586300323761, -10453.553253835827, -10460.750515550437, -10444.098465931233, -10408.045102124823, -10383.681700668538, -10385.514543713874, -10393.091785084223, -10377.66908141006, -10341.191034459, -10316.04532194678, -10317.095853936178, -10323.868432506137, -10307.663417776039, -10271.721812691905, -10246.576100179685, -10248.07366705819, -10254.734486905872, -10238.2165477534, -10201.559686846696, -10176.01164293428, -10177.553913301697, -10185.10880292759, -10168.68027075294, -10132.269279035245, -10106.385958956, -10107.57060141213, -10115.661932904952, -10099.211048985846, -10062.911815990426, -10037.676696500384, -10039.241318612256, -10046.975022193792, -10030.524138274686, -9993.330835501056, -9966.888721810428, -9967.693384610819, -9975.4047364479, -9960.093791496014, -9923.682799778318, -9897.598313998975, -9898.24651458818, -9905.443776302789, -9889.462279017243, -9852.850121599451, -9826.452711397733, -9827.167967220303, -9835.32635394649, -9820.37303690589, -9784.386728332845, -9758.59281523142, -9759.576291987454, -9767.175885102259, -9751.59671921691, -9715.565707154956, -9689.548276608977, -9690.44234638719, -9698.131346479815, -9683.178029439216, -9647.415238310723, -9621.37545602029, -9621.956601376129, -9629.578546235389, -9615.09461582835, -9579.75650784451, -9553.850836020809, -9554.521388354467, -9562.389202402735, -9547.346478384314, -9511.31546632236, -9485.320387520836, -9486.281512532416, -9495.289265547905, -9481.028852585418, -9445.131950990195, -9419.025113466396, -9419.62861056669, -9427.585831592778, -9412.744273274455, -9376.422688534582, -9349.600595188213, -9350.09233356623, -9357.893092381131, -9343.051534062808, -9306.551135367292, -9278.74556526489, -9278.700861775978, -9286.926303735532, -9272.509428561858, -9236.277250799805, -9208.672846397501, -9207.711721385924, -9215.557183689736, -9201.587343405168, -9165.533979598758, -9138.309554852194, -9137.773112985267, -9145.86444447809, -9132.118121638076, -9096.400033998494, -9068.817981340646, -9068.974443551831, -9077.646920400492, -9063.65472837147, -9027.243736653774, -8999.907553184934, -9000.01931190721, -9008.580030033592, -8995.414852549417, -8960.277910265673, -8933.254651219208, -8933.321706452574, -8941.457741434306, -8927.554956383105, -8891.680406532336, -8863.964243407756, -8862.846656184991, -8870.245083599697, -8856.632871226415, -8820.55715567555, -8792.796289062058, -8792.192791961765, -8799.59121937647, -8784.995530247155, -8748.696297251738, -8719.996657371123, -8718.34262828143, -8726.121035351878, -8712.687636934237, -8676.611921383372, -8648.471075114141, -8646.749990791082, -8653.90254901678, -8639.843301754392, -8603.767586203527, -8575.380870745286, -8574.1738765447, -8582.488725482073, -8569.301196253444, -8533.44899814713, -8505.464614089085, -8504.436433844141, -8513.01950371498, -8500.30136111991, -8464.695032202606, -8436.397723722188, -8436.19655802209, -8445.24901452649, -8433.089665542802, -8398.019778492426, -8370.258911878933, -8369.253083378444, -8377.791449760372, -8365.676804265595, -8330.204585815023, -8301.773166867873, -8300.387358711643, -8309.193946027035, -8296.721672620974, -8261.092991959214, -8232.303945100779, -8229.91230844406, -8237.86952947015, -8225.687828742008, -8190.282665524801, -8161.985357044382, -8160.174865743503, -8168.579121658698, -8156.330365697189, -8120.634629802064, -8092.3373213216455, -8090.727995720863, -8098.394644069033, -8085.609446240598, -8050.1372277900255, -8020.834090809119, -8018.934192530417, -8027.4949106568, -8015.514375628755, -7980.24332287828, -7951.320165553113, -7950.023764374705, -7959.4785522793, -7948.436790518379, -7913.501013934734, -7884.711967076299, -7883.326158920069, -7892.2892084466475, -7880.822763541075, -7846.043449168617, -7817.209698821271, -7814.97452437574, -7823.043504124106, -7810.97356211824, -7775.858971578953, -7747.047572976062, -7745.415895630825, -7754.222482946216, -7743.068962463018, -7708.021427157096, -7678.51712447609, -7675.454935485714, -7683.56861872299, -7671.8786563728645, -7636.384086177837, -7606.544507330002, -7604.1975741621945, -7612.870051010854, -7601.6941787832, -7567.183085344206, -7538.639907674779, -7536.650602418256, -7545.881872878298, -7535.153035539751, -7500.86545954531, -7471.875246986777, -7469.461258585604, -7478.424308112181, -7467.6060637958135, -7433.765522690478, -7404.931772343132, -7402.428376964138, -7412.061978824375, -7402.316618241861, -7368.274911436429, -7339.016477944431, -7336.446027332071, -7345.722001281024, -7336.334268609795, -7302.672541460102, -7273.995253323943, -7271.5589131783145, -7280.834887127267, -7271.178933522575, -7237.696020328524, -7208.951676959, -7207.09648216921, -7217.132415429643, -7207.811737991779, -7173.770031186346, -7144.891577350089, -7142.03055405981, -7151.261824519852, -7141.449408703972, -7108.145309465565, -7078.976282951389, -7076.316425361208, -7085.525344076794, -7075.4447073274505, -7041.5147592442945, -7012.122215285566, -7008.724750128359, -7018.425407221963, -7008.769453617269, -6974.347767156097, -6943.971746441334, -6940.328412095119, -6949.3585168550635, -6939.680211505915, -6906.107891334044, -6876.31301597512, -6872.803792095637, -6882.415042211419, -6873.563751407118, -6840.661983568905, -6810.867108209981, -6807.357884330498, -6816.879727468458, -6808.25195410871, -6775.014910103669, -6745.689421378305, -6742.336659710009, -6752.171427270345, -6743.342488210498, -6709.636057571895, -6679.729423490695, -6676.153144377845, -6684.9820834376915, -6676.220199611212, -6642.223196294689, -6611.847175579927, -6607.779158089061, -6617.368056460387, -6608.717931356184, -6574.877390250849, -6543.741410224607, -6539.919261922749, -6549.888139949816, -6541.662697990263, -6507.419825484732, -6476.753232092051, -6472.461697156632, -6481.42474668321, -6473.288711701479, -6440.744571774551, -6410.748530715529, -6406.45699578011, -6416.180004618169, -6408.781577203462, -6375.9915680875265, -6346.241396217513, -6343.179207227136, -6353.796285843407, -6346.68843110662, -6314.278401646424, -6284.215305354036, -6280.303750074358, -6290.920828690628, -6284.282360587402, -6251.805275893841, -6221.13868250116, -6217.115368499204, -6227.218356993003, -6220.42342667859, -6188.840411763241, -6158.956129426495, -6155.133981124638, -6165.348728340713, -6158.5537980263, -6126.389637755113, -6096.259486229359, -6091.677378616021, -6101.10981477616, -6093.242000727892, -6059.826142767209, -6029.293659841259, -6025.516215028312, -6035.3062790997365, -6027.997258662851, -5995.654284436022, -5965.054746276706, -5960.740859596832, -5971.201476001916, -5964.384193943048, -5931.88475750503, -5901.396978067992, -5896.770166965744, -5906.046140914696, -5898.580658266623, -5866.505904973257, -5835.504035413746, -5830.29607895566, -5840.242605238272, -5833.224157479305, -5800.680017552379, -5769.029947403664, -5763.732583967756, -5774.2155521172945, -5767.66649099189, -5736.016420843175, -5705.930972806332, -5701.639437870913, -5711.921240320354, -5705.774510595144, -5674.079736957519, -5643.122570886919, -5637.981669662198, -5648.039954667086, -5641.960280175243, -5610.287858282073, -5579.665968378302, -5574.681529364769, -5585.097442280941, -5578.973064300188, -5547.233587173651, -5516.9022699478, -5512.52132803456, -5523.943069451221, -5518.802168226501, -5488.068519600453, -5457.491333185593, -5453.043336038988, -5464.375670477828, -5458.787734364001, -5427.271774682018, -5396.672236522703, -5392.11248065382, -5402.751911014547, -5396.828698733891, -5365.49155300755, -5334.936718337145, -5329.549947923416, -5339.831750372858, -5334.288517747941, -5302.772558065958, -5272.798868751392, -5268.350871604785, -5278.789136265414, -5273.245903640497, -5242.288737569897, -5211.443330221574, -5206.101263296755, -5217.344190757774, -5212.98560058899, -5182.162544985121, -5151.138323681155, -5145.751553267426, -5155.921596994591, -5151.048916703334, -5120.6058407552055, -5089.62632294015, -5083.658407170583, -5094.499003231407, -5090.140413062622, -5059.362060947664, -5028.583708832706, -5023.487511096896, -5034.126941457623, -5028.963688488447, -4998.051225906757, -4966.803487158238, -4961.0590888332235, -4971.4526500049415, -4967.094059836157, -4937.656812388517, -4906.900812018015, -4900.374102637065, -4911.080588231157, -4907.034922484747, -4877.06123317018, -4846.260529310766, -4839.398543762987, -4849.970918890348, -4845.947604888393, -4814.833976606605, -4783.318016924622, -4777.5065633662425, -4788.145993726968, -4783.943865769371, -4754.037231688169, -4721.582498739064, -4714.273478302179, -4724.689391218351, -4720.487263260754, -4690.759443135195, -4659.869332297961, -4653.812009550573, -4664.943178289316, -4661.702175343296, -4632.197872662291, -4600.793671702584, -4594.445776277277, -4605.621648504931, -4603.00649440366, -4573.90452312285, -4542.679136118786, -4536.308888949024, -4547.484761176677, -4544.489627419666, -4514.806510783018, -4483.447013312222, -4477.3226353314685, -4488.386748836845, -4485.235152868647, -4455.641443209821, -4424.080780038927, -4417.352904957879, -4427.478245196134, -4423.879614338829, -4393.704759324165, -4361.4511920751565, -4354.611558271832, -4365.228636888103, -4362.211151386637, -4332.304517305436, -4300.050950056428, -4292.2501912415255, -4302.174365779682, -4298.933362833663, -4269.27259794147, -4237.197844648104, -4229.777065488943, -4240.774123760953, -4237.93545221513, -4208.0735216228395, -4175.7305473960105, -4168.242713003482, -4178.524515452924, -4175.127050295717, -4145.354526681248, -4112.653924543134, -4104.38377909467, -4113.726808276989, -4109.859956486221, -4079.3945287936367, -4046.3362987442374, -4037.999098062408, -4047.5209412003687, -4043.519978942869, -4013.4345309060254, -3980.421004345537, -3971.2791408633166, -3980.711577023456, -3977.001187443875, -3946.6922219624785, -3913.589288424169, -3905.006218553331, -3914.7962826247553, -3911.935259334476, -3881.983921764365, -3848.8586364815997, -3840.1861596329404, -3850.110334171097, -3847.0928486696303, -3817.4767872663488, -3784.6420746615026, -3775.433155945916, -3784.9997025727876, -3782.339844982606, -3753.394335912983, -3720.5372715636818, -3711.663629014925, -3721.8336727420897, -3719.486739574282, -3690.54123050466, -3658.242959766741, -3649.8387038515457, -3659.7852301341572, -3657.4382969663498, -3628.537491385638, -3596.373331114451, -3587.991426943711, -3597.6473805484034, -3595.3227991250515, -3567.1596011113647, -3534.7048681622587, -3526.7923506250804, -3537.431780985806, -3536.2024350407646, -3507.7486643491584, -3475.2939314000528, -3466.9120272293126, -3477.2385331676646, -3475.897428500346, -3447.0860298974553, -3414.1619103147877, -3405.8247096329583, -3416.1288638268547, -3414.2736690370643, -3385.5293256675395, -3352.3369851514085, -3343.2398251580985, -3354.2145316856545, -3353.2534066740764, -3325.3137261049424, -3292.546068733462, -3283.113632573323, -3292.970751878113, -3291.942571633169, -3264.516981186507, -3232.039896492946, -3222.652163821717, -3232.4198761486864, -3231.5258063704737, -3204.167271157178, -3171.8690004192595, -3162.525971236941, -3171.8690004192595, -3169.9467503961027, -3142.074125060335, -3109.5746886223187, -3100.8798600292043, -3111.6310491122067, -3111.228717712011, -3084.2501621544557, -3051.7507257164393, -3042.720620956495, -3053.181237361579, -3052.3542228167325, -3025.3533155147215, -2992.697416865518, -2983.3767394276547, -2993.7032453660067, -2992.8091755877945, -2965.5176956078644, -2932.1912446250017, -2922.24471834239, -2932.5265207918314, -2932.012430669359, -2903.983343122404, -2870.3216159727117, -2859.6151303786196, -2868.444069438466, -2866.991206048871, -2838.4927318683544, -2804.2051558739136, -2792.9845801573492, -2802.9758099288715, -2801.9699814283827, -2773.9185421369725, -2739.8097800981736, -2728.611556126065, -2738.1557510084813, -2737.284032974724, -2709.769035550241, -2675.6379217669873, -2664.3726425615123, -2673.849782210563, -2673.4698025548223, -2645.7312876857864, -2611.846043091541, -2601.4077784309125, -2610.32612446858, -2609.588516901555, -2582.65466483291, -2548.2776818606476, -2536.78888521062, -2546.3107283485806, -2545.7966382261084, -2517.789902423609, -2483.2564572401593, -2471.365329189936, -2480.39543394988, -2479.9707508052293, -2453.5062853701456, -2420.0680756650063, -2408.981610415174, -2418.7716744865984, -2418.592860530956, -2391.3237322954815, -2357.594949912423, -2346.620243384867, -2357.1926185122275, -2357.5055429346016, -2330.8175600549653, -2297.178184649728, -2285.1529461327727, -2293.7136642591554, -2293.110167158862, -2265.7516319455663, -2231.1064280398405, -2219.0588377784297, -2227.999535560553, -2228.044239049463, -2201.669180592201, -2167.6498255312235, -2155.7810492254557, -2165.146430152229, -2165.861685974799, -2139.799551939911, -2106.1154730457633, -2093.8220135953443, -2102.8521183552884, -2102.7180078885567, -2076.4100046646604, -2042.54711181487, -2030.6559837646466, -2039.9543094580545, -2040.9824897029985, -2014.7191899680126, -1981.4597942185158, -1970.261570246407, -1979.8281168732783, -1980.3645587402057, -1954.3694799386835, -1919.813683010779, -1907.3190578602623, -1916.259755642385, -1917.556156820793, -1892.2092786084747, -1858.4134409920505, -1846.3434989861846, -1856.3794322466174, -1857.8993508695783, -1832.1501412570647, -1798.041379218266, -1785.6138093011152, -1795.8062047727353, -1797.4378821179728, -1771.3086928497187, -1737.3787447665627, -1725.7781893942583, -1736.015288354789, -1737.4457999999286, -1712.3447909766187, -1678.5489533601944, -1666.3001973986861, -1675.7326335588257, -1676.984331248323, -1651.4809908248176, -1617.7522084417592, -1605.8163769026253, -1616.1875863298878, -1618.3557055420526, -1593.209993029832, -1559.4141554134078, -1547.277158174176, -1557.1789809678771, -1559.21298971331, -1534.022573712179, -1499.958515162291, -1487.4638900117743, -1496.896326171914, -1498.05861688359, -1472.510572971174, -1437.865369065448, -1425.2813369371102, -1435.4066771753642, -1437.574796387529, -1412.1832146863003, -1377.8956386918592, -1364.5963507409515, -1373.6935107342615, -1375.839278201971, -1351.4311732567755, -1317.5682804069854, -1304.872489556371, -1314.2378704831447, -1315.936603061748, -1290.7461870606169, -1256.7491837440948, -1243.941634171204, -1253.418773820254, -1254.9833959321256, -1229.9941456310924, -1195.4383487031876, -1182.4966886635648, -1192.2420492460788, -1194.588982413886, -1170.2479327020565, -1136.1615224077134, -1122.4822548010654, -1131.914690961205, -1134.395734595744, -1110.2334988395571, -1076.303550756401, -1062.691338383119, -1071.7437948875183, -1073.3531204883004, -1048.9897190320157, -1014.6127360597535, -1001.0228754309268, -1010.500015079977, -1013.1822244146139, -989.2882095918906, -955.0676888308154, -941.7907526243631, -951.0443748288602, -953.9948050969607, -931.0619152858156, -896.9308015025618, -883.4526995960116, -893.3321706452574, -896.8413945247406, -873.863801224685, -840.1797223305372, -827.0816000797272, -836.2234635619478, -839.9115013970735, -817.1574255415709, -783.6968640919762, -769.9281895075071, -779.4947361343785, -783.0039600138617, -760.0487184582613]]
[[-21382.84103665841, -21410.154868382797, -21379.823551156947, -21338.07049251443, -21346.787672852002, -21397.414374043274, -21424.080005178454, -21393.636929230324, -21351.66035314326, -21359.595222424894, -21411.183048627743, -21439.0109704746, -21408.76906022657, -21366.792484139503, -21374.95087086569, -21425.48816507914, -21452.33261016996, -21421.688368521736, -21379.220054056652, -21387.065516360464, -21438.67569430777, -21467.308278955017, -21438.094548951933, -21396.67676647625, -21404.566932268972, -21456.11005498291, -21485.43554370827, -21457.741732328144, -21417.24037137513, -21425.532868568047, -21477.366563959906, -21506.535590474083, -21477.67948838228, -21435.94878148422, -21444.241278677142, -21495.694994413258, -21525.15459360535, -21496.946692102756, -21454.500729382125, -21460.82627306298, -21511.20710506524, -21539.571468779024, -21510.514200987127, -21467.665906866303, -21473.566767402503, -21523.05352962655, -21550.993210195687, -21521.623017981412, -21478.86413083841, -21484.720287885702, -21535.481099543704, -21564.672477802334, -21536.106948388453, -21493.035136823077, -21499.11481131492, -21549.562698550548, -21578.97759425373, -21551.484948573703, -21508.904875386343, -21513.889314399876, -21564.381905124417, -21594.22148397225, -21566.21474816975, -21522.517087759625, -21527.613285495438, -21578.21763494225, -21608.638359145923, -21581.011602999166, -21537.045721655577, -21541.426663568815, -21591.248701959696, -21620.52948719615, -21591.98630952672, -21547.953372949767, -21552.69194277429, -21602.51398116517, -21632.398263501917, -21605.12913526644, -21561.9902684677, -21566.728838292223, -21617.89198135042, -21650.123196854973, -21624.128118053453, -21581.257472188172, -21586.063097246064, -21636.913315881888, -21669.90449069792, -21644.669371207878, -21602.290463720616, -21607.409013200882, -21658.90743242591, -21691.33981363056, -21666.261156351706, -21623.61402793098, -21627.682045421847, -21677.615842535, -21709.15415396144, -21683.024964693184, -21638.544993227126, -21641.249554306218, -21690.781020019178, -21722.00640702324, -21695.787810777165, -21651.397246288925, -21654.079455623563, -21702.6721480694, -21733.875183329008, -21707.187200449374, -21662.05902839411, -21663.48954003925, -21712.506915629736, -21743.911116589443, -21716.977264520796, -21672.38553433246, -21674.91128145591, -21724.219229724316, -21755.891651617487, -21729.58364839359, -21684.67899378288, -21686.265967639207, -21735.752729863256, -21768.028648856718, -21742.748825877767, -21697.978281733787, -21699.20762767883, -21748.11324454704, -21780.478570518324, -21755.802244639664, -21711.478735384793, -21712.238694696272, -21760.965497608842, -21794.135486380517, -21769.16858782394, -21724.576857635602, -21726.499107658758, -21776.388201283004, -21810.631073788532, -21786.73705896581, -21742.301790988662, -21743.799357867167, -21793.889617191508, -21828.244248419316, -21805.043137674707, -21761.814863898144, -21763.915927876944, -21814.56498081267, -21849.836033563144, -21827.551344341202, -21784.703050220378, -21786.960576410365, -21837.922553768465, -21873.32771698567, -21850.95362078591, -21807.79240224271, -21810.116983666063, -21860.095484268128, -21894.85244689613, -21872.388943718546, -21828.400710630503, -21828.847745519608, -21877.976879832375, -21912.75619420483, -21889.420972993492, -21844.98570501634, -21845.56685037218, -21894.89715038504, -21930.212906624427, -21907.727051702386, -21863.448245936426, -21862.889452325042, -21912.063290126716, -21948.049598699763, -21925.809612966732, -21882.00019383433, -21882.290766512248, -21931.24108686937, -21966.713305319943, -21945.076816687208, -21900.328624287682, -21898.831057409177, -21947.11082543264, -21982.404229927568, -21959.717209305432, -21914.991368650364, -21913.00206339384, -21960.097188961172, -21994.854151589174, -21972.59181411169, -21927.53069728979, -21925.876668200097, -21974.02232575683, -22010.232151774428, -21989.221511986438, -21944.87565098711, -21943.556898064246, -21991.479038176425, -22027.44299500501, -22006.45470696148, -21961.4829971174, -21959.314877905235, -22007.393480228602, -22043.625657990655, -22021.74330016891, -21976.54807288028, -21973.955270523464, -22021.92211412455, -22058.288402353337, -22037.881259665643, -21992.820142843742, -21989.534436408812, -22036.78602418733, -22073.152312416114, -22052.767521472877, -22008.30990175127, -22005.78415462782, -22053.03574240634, -22090.050231224326, -22069.754847258908, -22024.492564736913, -22021.251561790894, -22069.263108880892, -22107.23872271046, -22087.971518989983, -22044.095044624217, -22041.949277156506, -22090.18434169106, -22128.62934215419, -22109.47389715599, -22065.016277434384, -22062.289364610835, -22110.457373912024, -22148.94707786406, -22130.730406132985, -22087.36802188969, -22084.104667199215, -22131.937400333572, -22170.225938585514, -22151.4281214986, -22105.62939710968, -22100.600254607234, -22147.67302843011, -22186.3862498267, -22168.124874606714, -22122.683778129074, -22118.056967026827, -22164.660354216143, -22202.3900988567, -22183.994613169983, -22138.978199836994, -22134.351388734747, -22182.072363146828, -22221.523192110442, -22203.038299445903, -22157.217223312524, -22152.478653488, -22199.30555812187, -22237.907020796185, -22220.807936287874, -22175.947985166073, -22170.449456030066, -22217.075194963836, -22256.056637293892, -22238.77873882994, -22194.119953408237, -22188.979052183517, -22236.387102173223, -22276.329669514857, -22259.431750706644, -22214.862372262764, -22209.050918704383, -22255.83311984934, -22295.75333544652, -22279.235396294047, -22234.084872494328, -22227.714625324563, -22273.893329369228, -22313.61237926631, -22297.385012791758, -22251.96626805857, -22915.477802214362, -22871.355458659586, -22859.419627120453, -22903.76548811978, -22949.83243344217, -22942.366950794098, -22898.62458689506, -22886.599348378106, -22930.028787854768, -22976.229843643887, -22969.010230184824, -22924.329093018663, -22911.119212045578, -22954.68276198897, -23000.41443114453, -22993.194817685464, -22949.743026464348, -22937.15899433601, -22980.0743436902, -23026.40950994605, -23019.346358698174, -22975.089904676664, -22962.10354114813, -23005.51062888034, -23052.248126536386, -23045.27438226633, -23000.54854161126, -22986.53399783778, -23028.22000124693, -23074.063429124766, -23067.268498810354, -23023.54848665577, -23009.265721948832, -23051.309353269262, -23098.024499180854, -23091.721307244457, -23048.47068172344, -23035.12669028362, -23076.633879737125, -23123.68430181555, -23118.34223489073, -23074.28694656932, -23060.048885351287, -23102.696013772013, -23149.925249806078, -23144.58318288126, -23101.24315038242, -23087.76504847587, -23130.0098454964, -23177.90963386412, -23173.528691950884, -23130.23336294095, -23115.99530172292, -23158.754188865925, -23206.631625489194, -23202.429497531593, -23159.894127833144, -23145.589011381748, -23187.498532235448, -23235.331265369805, -23230.771509500923, -23187.185607813073, -23172.25464251693, -23214.79001221538, -23263.740332572503, -23259.404094148173, -23215.840544204777, -23201.244855075463, -23243.623762562725, -23292.328213730838, -23289.08721078482, -23246.574192830827, -23231.64322753468, -23273.396286177194, -23321.63135071175, -23318.23388555454, -23275.69851585609, -23260.61108834876, -23301.89476035771, -23350.465101059093, -23347.53702253545, -23304.062879569876, -23287.634347395226, -23328.672150215167, -23376.90721474972, -23373.82267401489, -23330.9073246607, -23315.46226924208, -23356.701237762125, -23406.165648241717, -23405.338633696872, -23363.76438901, -23348.52049929148, -23390.362964911816, -23441.21318354764, -23439.40269224676, -23396.8226190594, -23381.422267129692, -23423.30943623894, -23473.623213007835, -23472.483274040613, -23429.612628175335, -23412.222970989107, -23452.478462753115, -23501.562893576967, -23498.880684242333, -23455.697113954677, -23438.35216025736, -23478.093561898895, -23527.245047956116, -23525.52396363306, -23482.429800323225, -23464.302535569972, -23503.55219883349, -23552.23429825715, -23550.446158700724, -23507.486105857624, -23489.425896337736, -23529.346111934916, -23579.726943937178, -23579.704592192724, -23536.476318416157, -23517.924370518253, -23556.928164592766, -23606.571389028002, -23605.878484949888, -23563.231356529162, -23545.126443520363, -23584.398458528336, -23634.421662619312, -23634.779290530598, -23593.04858363254, -23575.256595046118, -23615.377976343392, -23666.183491490305, -23666.96580254624, -23625.413909603823, -23607.77838322859, -23647.475081381213, -23698.37000350595, -23699.934625617818, -23658.53919488659, -23640.993075489176, -23681.092105041997, -23732.769338222664, -23734.401015567903, -23693.16204704786, -23675.034782294606, -23714.17268683585, -23765.894623505428, -23767.816873528587, -23725.639131741424, -23706.77425942114, -23745.08514941754, -23795.153056997427, -23795.711850608808, -23753.02001869917, -23732.299951589102, -23768.777998540165, -23817.43774621937, -23816.722490396798, -23772.890719519943, -23751.678914031854, -23787.061725504605, -23834.87210689451, -23832.99456036026, -23787.642870860444, -23764.955850238308, -23799.981033799773, -23848.01493263423, -23847.456139022845, -23802.015042545205, -23777.741048066742, -23811.067499049605, -23857.939107172384, -23856.39683680497, -23810.352243227037, -23786.52528363768, -23821.081080565582, -23869.785531733698, -23870.21021487835, -23825.66318817892, -23801.74682161174, -23836.14615632846, -23885.990546463796, -23887.130485431015, -23843.90221165445, -23821.930446854883, -23857.29090658318, -23907.11294497406, -23909.50458163078, -23867.013915421237, -23844.997447132762, -23881.654308039466, -23933.152727264493, -23935.58906741012, -23892.696069800386, -23870.76900848973, -23907.336462418614, -23959.55013746621, -23963.72991367935, -23922.312131203667, -23900.63093908202, -23936.371378466058, -23988.42859130247, -23992.854236704618, -23951.21293678438, -23928.950599306896, -23964.847500902117, -24016.927065482985, -24022.69381555245, -23981.65601273251, -23958.633715943542, -23993.725954738376, -24045.872574552606, -24050.6781996105, -24010.020376446293, -23988.115666880094, -24022.917332997007, -24074.303993499758, -24078.99785983537, -24037.781243059784, -24013.820173003696, -24047.86187980913, -24099.472057756433, -24104.188275836503, -24062.01053404934, -24037.311856426222, -24070.660659153542, -24121.756746978375, -24126.942351692003, -24085.032830838303, -24060.445911937466, -24093.68295594251, -24144.376712367146, -24148.265915902368, -24105.618787481642, -24079.579005191208, -24111.318482317743, -24162.146349209113, -24167.913099278583, -24126.070633658248, -24100.3884792791, -24132.172659894546, -24183.112285508192, -24188.297890221824, -24146.43307285703, -24120.840325455705, -24153.07154096026, -24203.83235261826, -24208.995605587435, -24166.862567289183, -24141.046302443305, -24172.91989003657, -24224.239495305956, -24229.93919014206, -24187.649689632617, -24161.69931432001, -24194.042288546836, -24245.719521727508, -24252.55915553083, -24211.007262588413, -24185.012183786894, -24217.109288824715, -24269.23355689449, -24276.4308186091, -24235.862402422717, -24210.493172465944, -24241.629152492187, -24293.015812994938, -24300.123667731725, -24259.28703061188, -24233.470765766, -24264.740856258974, -24317.356862706765, -24324.978807566025, -24284.14217044618, -24258.28120211139, -24290.400658893665, -24343.687217675117, -24353.097302090802, -24313.490010915997, -24287.204359436557, -24318.452098185076, -24371.828063944347, -24380.54524428192, -24340.58032519583, -24314.115859760746, -24345.76592990946, -24399.54422706893, -24409.423698118175, -24369.81640694337, -24343.10607231928, -24373.951479667605, -24427.68507333816, -24437.78806183196, -24398.62780554626, -24372.498616278008, -24403.96987247108, -24457.167024274713, -24467.60528893534, -24429.02617800548, -24402.1593811702, -24432.11071874031, -24485.017297866023, -24494.89676891527, -24455.110663784824, -24427.863887293803, -24457.748169630548, -24510.431231311708, -24520.80244073897, -24481.977460620103, -24454.909498084726, -24484.79378042147, -24539.197926425688, -24550.351446908888, -24510.94532143418, -24483.676193198706, -24513.404013324263, -24566.779979083538, -24578.693458878217, -24540.0919962039, -24511.973501679124, -24541.231935171123, -24594.67495616376, -24605.560255713495, -24566.109426749877, -24537.76741478055, -24566.3999994278, -24619.15011634232, -24630.30363682552, -24591.143380539823, -24562.10846449238, -24590.42812471725, -24643.44646256524, -24654.890555726357, -24616.311444796498, -24588.036488060534, -24616.847886663425, -24671.073218712, -24684.707782829737, -24647.78270098957, -24619.239523320142, -24647.916811456304, -24702.477419671708, -24715.910818089345, -24678.091666470966, -24649.101453912433, -24676.683506570283, -24729.79125139609, -24742.531745735618, -24704.198503994765, -24673.68837281327, -24699.951672548257, -24753.908783663366, -24767.453940803283, -24729.523030462628, -24699.9293208038, -24727.265504272644, -24781.80376074359, -24796.220635917263, -24759.22849884373, -24730.573562452028, -24758.51324302116, -24813.09620298102, -24827.133098498954, -24789.895092236413, -24761.08369363352, -24789.24689164721, -24844.67921789637, -24859.900755870432, -24823.48976415274, -24794.43249636084, -24822.30512169661, -24876.955136889832, -24891.506122530238, -24854.20106103433, -24824.115612997488, -24851.317685999595, -24906.079459915098, -24922.060957200643, -24884.800599193648, -24853.48580521176, -24878.87738691299, -24932.588628839094, -24946.84904180158, -24909.387518094485, -24878.519759001705, -24903.352547091552, -24956.683809361915, -24971.346553724594, -24933.013311983745, -24900.64798601246, -24924.45259385736, -24977.158007282975, -24991.46312373437, -24953.196937226887, -24920.49633508877, -24943.7868528112, -24996.04523134771, -25010.015071632275, -24971.614774658057, -24939.204745197865, -24963.478739676328, -25017.547609513716, -25033.842031221633, -24997.095763337107, -24965.333934466118, -24989.85379813359, -25043.67679878197, -25060.082979212166, -25023.873153194567, -24992.46895223486, -25017.122926369066, -25072.68936308496, -25090.503703415838, -25054.71856054289, -25023.850801450113, -25048.504775584315, -25103.02068031081, -25120.58915145268, -25085.318098702206, -25054.09271169814, -25078.456113154425, -25134.179012081506, -25153.20034661297, -25119.046881085265, -25088.402639437038, -25113.570703693713, -25170.03121018782, -25189.65604181958, -25155.614335014146, -25124.903038132554, -25149.758177966854, -25206.866885050167, -25227.18462076004, -25193.098210465698, -25162.386913584105, -25187.331460396228, -25243.99313259043, -25264.400275278127, -25230.380920217147, -25198.820257046256, -25222.75897535789, -25278.99596440744, -25298.866665228208, -25263.95324038902, -25231.52085918437, -25254.610211206702, -25310.087240944773, -25330.38262491019, -25296.89971171614, -25264.824958422778, -25287.959013934018, -25343.905430305655, -25363.55261368187, -25329.376796409702, -25296.944415205053, -25319.810249782833, -25375.35433475427, -25395.873236164243, -25361.49625319198, -25328.505078375947, -25350.78976759789, -25406.31150082487, -25426.942160957118, -25392.45341926258, -25358.434064201603, -25380.11525632325, -25435.636989550232, -25456.401760149212, -25422.404756832693, -25388.92184363864, -25409.75366947099, -25464.247222453025, -25485.302565729926, -25451.573783346867, -25418.426146319645, -25439.727358785556, -25495.025574567986, -25517.176153323195, -25484.162626762703, -25450.120919957273, -25471.13155974526, -25527.122679605804, -25549.76499673903, -25516.930284134185, -25483.201501751126, -25504.368603750303, -25559.48800557709, -25581.482122121113, -25548.759168238543, -25515.231551555582, -25535.7281012211, -25591.227482703627, -25614.048613792493, -25581.325659909926, -25546.881621704295, -25566.908784736253, -25621.759965629575, -25644.469337996168, -25612.796916102998, -25578.889319764297, -25598.983538029617, -25655.041713123526, -25678.55574829051, -25645.989256619127, -25611.79108760251, -25631.460622723178, -25686.870597227884, -25710.563446350512, -25678.734562246154, -25644.581096718444, -25665.21175685069, -25721.58285636698, -25746.102720034447, -25714.631463841375, -25680.03096342456, -25699.499332845135, -25755.222231772215, -25779.71974369523, -25748.89668809136, -25715.592588852953, -25734.882144317886, -25790.470932778233, -25815.34842435699, -25784.458313519757, -25749.790757869574, -25768.25329878966, -25824.043252950105, -25849.300724184603, -25819.21527614776, -25784.77123794213, -25803.457296306766, -25859.06843651157, -25884.638832168443, -25854.754549831698, -25820.556380815076, -25839.48830836872, -25895.65824218491, -25922.12270761999, -25893.244253783734, -25859.515471400675, -25878.201529765312, -25935.623161270996, -25963.495786606763, -25934.013835670215, -25899.480390486766, -25917.89822791794, -25973.308202422646, -25998.85624633506, -25968.726094809306, -25933.678559503387, -25950.95645796734, -26007.081688294613, -26033.501450240787, -26002.209008003356, -25965.99918198576, -25982.98650777179, -26038.35177878759, -26065.509148300785, -26036.340121786612, -26001.136124269502, -26018.458726222365, -26074.49454957182, -26102.0095469963, -26073.10874141559, -26038.597647976596, -26055.897898185005, -26112.44781165693, -26140.611009670618, -26112.224294212378, -26076.17093040597, -26092.621814325074, -26148.83645163017, -26176.776132199306, -26147.45064347394, -26111.576093623175, -26127.468183930898, -26182.967565413426, -26210.728432026917, -26181.581757257198, -26145.081358561678, -26159.900565135547, -26215.24348440689, -26244.345455687697, -26215.91403674055, -26179.234824089388, -26194.47871380791, -26249.687522612516, -26278.029534581845, -26250.58159239073, -26214.70704253996, -26230.263856680856, -26286.97023236397, -26316.653349000615, -26289.183055065045, -26254.001409292392, -26270.251127511397, -26326.39870958313, -26356.46180587552, -26330.422023585084, -26295.665060957082, -26310.998357653425, -26367.83884380327, -26398.75130638496, -26371.616288616216, -26334.959427709513, -26349.26454416091, -26404.875684365714, -26435.117594613745, -26408.384908245196, -26371.92921303859, -26385.206149245045, -26439.610295249262, -26468.734618274524, -26439.811460949357, -26401.299405252863, -26413.83873389229, -26467.61703105176, -26496.450781399108, -26468.645211296705, -26430.066100366843, -26441.599600505782, -26494.99791800951, -26524.39046196824, -26496.070801743368, -26457.67050476915, -26469.695743286105, -26523.83166835686, -26553.44772976014, -26526.335063735853, -26488.694726073114, -26500.697612845615, -26555.59349722785, -26586.751828998546, -26560.130901352277, -26522.28939798944, -26534.67226441768, -26590.17164590021, -26621.128811970808, -26594.9772709581, -26557.96278214011, -26569.809206701426, -26624.36981491683, -26656.55632693247, -26631.88000105381, -26595.446657591663, -26608.8800560093, -26665.206452036677, -26697.750591963602, -26673.297783529495, -26636.998550534077, -26649.917858829245, -26706.1548478788, -26740.218906428687, -26716.19078113923, -26678.349277776397, -26690.441571526717, -26746.38798789835, -26780.09441853695, -26756.580383369972, -26719.8564672299, -26732.0605197025, -26788.141046540863, -26822.585084746494, -26799.227511790697, -26762.280078206073, -26774.126502767387, -26830.519954028125, -26865.36632363395, -26842.45578556726, -26806.424773505303, -26817.511238755138, -26872.83180628202, -26907.56641716557, -26884.544120376602, -26846.769672247134, -26858.21376540825, -26914.607216668992, -26949.09595836353, -26925.827792385557, -26888.433323911828, -26899.162161250373, -26954.23685958825, -26989.463208849815, -26967.089112650054, -26929.672292431867, -26940.267019303683, -26995.96756648631, -27031.43978493688, -27009.356261415036, -26972.319420852593, -26982.690630279856, -27038.54763967367, -27074.6904104579, -27052.293962513682, -27014.00542426174, -27023.571970888614, -27078.490207015304, -27112.978948709842, -27090.336631576614, -27051.154023546464, -27059.40181725047, -27113.73890802132, -27149.680513105457, -27127.596989583613, -27089.21904435385, -27098.182093880427, -27153.18973698494, -27189.80189440273, -27168.478330192367, -27130.458012873893, -27139.778690311756, -27195.05455434973, -27232.069043167718, -27211.48308652438, -27174.021562817285, -27183.00696408832, -27238.707511270943, -27276.325497189224], [2219.930555812187, 2240.382401988793, 2234.570948430413, 2226.6137274043235, 2244.025736335008, 2278.2909605849936, 2298.4969375725914, 2292.864297969854, 2284.9741321771303, 2302.207327152172, 2335.9361095352306, 2355.5609411669902, 2349.794191097521, 2341.8369700714316, 2357.7961156125207, 2391.591953228945, 2412.33437208347, 2407.484043536668, 2400.7785202000764, 2417.855252963931, 2451.9416632582743, 2472.661730368344, 2467.364366932436, 2459.518904628623, 2476.148602503372, 2510.4138267533576, 2531.536225263623, 2526.395324038902, 2518.751027435187, 2535.5371875211226, 2569.355376882002, 2589.3378364250466, 2583.682845077854, 2576.2397141742367, 2592.9811707712615, 2627.224043276792, 2648.0111656202275, 2642.289119039669, 2633.3707730020014, 2648.972290631806, 2682.8351834815962, 2703.577602336121, 2698.5037563447663, 2690.4347765964003, 2706.975067493328, 2741.35205046559, 2762.1391728090257, 2756.6629954174755, 2748.728126135841, 2765.000196099305, 2798.9748476713717, 2819.9854874593602, 2815.448083334933, 2807.669676264486, 2823.5617665722093, 2857.3576041886336, 2878.927037588005, 2873.9649503189266, 2865.5606944037313, 2881.7880608782843, 2916.209747339457, 2937.7121255054626, 2932.9065004475715, 2924.256375343368, 2939.544968550798, 2973.340806167222, 2995.312570966789, 2990.596352886719, 2982.0803382492472, 2997.435986690043, 3031.5894522177523, 3053.1588856171234, 3048.956757659526, 3040.88777791116, 3056.6010542632407, 3090.4862988574864, 3112.3239531903214, 3107.85360429926, 3100.0304937399023, 3115.5873078807963, 3149.6960699195947, 3171.8913521637146, 3168.180962584134, 3159.7990584133936, 3175.355872554287, 3209.5093380819962, 3231.749323815027, 3227.770713301982, 3218.8970707532253, 3233.4704081380855, 3267.0874317988673, 3288.522754731507, 3283.8288883958926, 3275.26817026951, 3290.0873768433785, 3324.2408423710876, 3347.129028693322, 3343.1727699247326, 3334.388534353797, 3349.2747961610316, 3382.9812267996344, 3404.617715432372, 3400.348532241408, 3391.0502065480005, 3406.249392777609, 3441.006355405612, 3463.514562072106, 3459.290082370053, 3450.483495054662, 3464.7886115060583, 3498.048007255555, 3520.578565666505, 3517.1363970203874, 3508.732141105192, 3523.6184029124265, 3557.928330651323, 3581.3306070960293, 3578.3578250834735, 3570.1547348683757, 3585.0633484200657, 3620.177938959353, 3644.0272502931657, 3641.210930491797, 3633.3654681879843, 3648.408192206406, 3682.4946025007494, 3705.0922161450644, 3701.4265300543943, 3692.530535761182, 3707.372094079506, 3742.3525741520616, 3765.6430918744913, 3762.402088928472, 3753.371984168528, 3767.207713986363, 3800.8023859026894, 3823.4447030359156, 3819.9354791564324, 3810.950077885399, 3824.5399385142255, 3858.425183108471, 3881.1345554750633, 3876.9994827508312, 3867.4329361239597, 3881.1792589639736, 3914.751579135845, 3938.1315038360963, 3936.008088112842, 3927.000335097353, 3940.523140492814, 3973.849591475677, 3997.1848126870173, 3994.4355481190146, 3985.4054433590704, 3998.3023999097827, 4031.070057281263, 4053.645319181123, 4050.2702057683714, 4040.6366039081345, 4054.0252988368634, 4087.8881916866535, 4111.29046813136, 4108.429444841081, 4098.9523051920305, 4112.184537909572, 4146.114485992728, 4169.807335115353, 4166.946311825074, 4157.960910554041, 4170.902570593664, 4204.609001232267, 4228.771236988454, 4227.273670109948, 4218.087103138817, 4231.095818411805, 4264.846952539319, 4288.584505150856, 4286.70695861661, 4277.676853856666, 4290.685569129654, 4324.481406746078, 4348.844808202363, 4346.833151201386, 4337.378363296791, 4350.074154147405, 4383.132384196804, 4407.24991646408, 4405.864108307852, 4397.526907626022, 4410.736788599109, 4444.599681448899, 4469.700690472208, 4468.203123593703, 4459.642405467321, 4473.053452140504, 4507.3186763904905, 4532.598499369443, 4531.167987724303, 4522.249641686635, 4534.856025559428, 4568.562456198032, 4593.641113476886, 4592.277657065112, 4583.180497071802, 4596.05510187806, 4630.365029616956, 4655.622500851453, 4653.92376827285, 4644.91601525736, 4657.231826452235, 4690.02183556817, 4714.899327146927, 4713.513518990698, 4703.611696196997, 4715.033437613659, 4748.426943829888, 4773.349138897555, 4771.918627252416, 4762.3073771366335, 4773.930284253393, 4807.18968000289, 4832.8047791486715, 4831.8660058815485, 4821.964183087848, 4833.654145437974, 4866.980596420836, 4892.059253699691, 4891.008721710292, 4881.486878572331, 4893.5568205781965, 4927.620879128084, 4953.414792229509, 4952.967757340402, 4944.2729287472885, 4956.633443431073, 4990.250467091855, 5016.312601126743, 5015.574993559718, 5006.589592288684, 5018.838348250192, 5052.701241099982, 5078.71867164596, 5078.249285012399, 5068.839200596714, 5080.775032135848, 5114.861442430191, 5141.191797398544, 5141.214149142998, 5131.066457160289, 5141.460018332007, 5174.495896636951, 5200.133347527189, 5199.21692600452, 5189.538620655372, 5200.513327182928, 5234.13035084371, 5260.214836623053, 5259.119601144744, 5248.457819039562, 5259.253711611475, 5292.580162594338, 5319.022276284966, 5318.597593140315, 5308.449901157606, 5319.335200707341, 5352.39343075674, 5378.746137469547, 5378.567323513905, 5368.665500720203, 5378.723785725091, 5412.027884963499, 5439.386420176795, 5439.9228620437225, 5430.043390994477, 5441.018097522032, 5474.456307227172, 5501.077234873443, 5501.99365639611, 5493.120013847353, 7008.255363494798, 6997.52652615625, 7004.567325659672, 7036.664430697493, 7065.878160700579, 7068.560370035216, 7057.429201296473, 7064.157076377521, 7095.807146526236, 7125.534966651794, 7129.021838786822, 7118.136539237087, 7124.864414318135, 7156.648594933581, 7185.70586272548, 7189.2597900938745, 7178.821525433246, 7186.37641505914, 7218.540575330327, 7248.268395455885, 7250.995308279433, 7239.864139540689, 7246.703773344014, 7278.644416170647, 7308.7075124630355, 7312.574364253804, 7302.15845133763, 7308.68516071858, 7339.5305680669035, 7368.677242836624, 7371.806487060367, 7361.323518910828, 7367.425545147127, 7398.852097851289, 7429.116359843774, 7433.720819201568, 7423.908403385688, 7430.256298810995, 7461.481685815059, 7491.209505940617, 7495.456337387126, 7484.906314004221, 7490.583657095869, 7522.0772650333965, 7552.118009581329, 7555.962509627642, 7545.300727522461, 7550.888663636287, 7581.398794817781, 7610.880745754332, 7614.971114989653, 7604.666960795756, 7610.880745754332, 7641.793208336021, 7671.52102846158, 7675.790211652543, 7665.329595247459, 7670.80577263901, 7701.651179987333, 7731.602517557445, 7736.162273426327, 7725.545194810056, 7730.14965416785, 7760.324509182515, 7790.611122919456, 7795.819079377542, 7785.425518205824, 7790.991102575195, 7822.1494343458935, 7852.391344593924, 7857.17461790736, 7846.9822224357395, 7852.9054347163965, 7883.996711253729, 7914.1268627794825, 7919.401874470935, 7908.941258065851, 7914.663304646409, 7945.285194550181, 7975.3482908425685, 7980.265674622736, 7969.805058217652, 7975.080069909105, 8006.01488423525, 8036.748532861297, 8042.02354455275, 8031.965259547861, 8036.748532861297, 8066.610463453587, 8096.718263234886, 8101.725053992875, 8091.331492821157, 8095.801841712218, 8125.663772304509, 8156.687993608474, 8162.030060533293, 8150.317746438712, 8154.6763366074965, 8184.940598599983, 8216.121282115137, 8221.955087417971, 8210.712159956951, 8214.981343147916, 8245.647936540596, 8276.292178188824, 8281.343672435722, 8270.234855441435, 8274.414631654578, 8304.902411091616, 8336.485426006964, 8342.855673176728, 8331.523338737887, 8334.831396917272, 8364.939196698571, 8395.80695579135, 8401.529002371908, 8390.598999333262, 8394.264685423934, 8423.94780206058, 8455.284947786922, 8461.72225019005, 8450.926357618137, 8454.502636730986, 8484.029291156447, 8515.299381649422, 8521.803739285915, 8510.806681013904, 8514.718236293584, 8544.177835485678, 8575.313815511921, 8581.50524872604, 8570.21761777611, 8573.257455022032, 8602.135908858289, 8632.42252259523, 8638.613955809351, 8627.75100800407, 8630.85790048336, 8659.937520019714, 8690.872334345859, 8697.309636748987, 8686.75961336608, 8690.000616312102, 8718.923773637269, 8749.67977400777, 8756.430000833274, 8746.59523327294, 8750.462085063707, 8780.391070889364, 8811.862327082436, 8818.389036463384, 8807.973123547212, 8810.878850326402, 8840.31609777404, 8872.36849932295, 8879.498705804195, 8869.440420799307, 8872.90494118988, 8903.124499693455, 8935.48982566474, 8943.134122268453, 8933.522872152671, 8936.853282076512, 8966.067012079598, 8998.25352409524, 9006.25544861024, 8996.577143261093, 8999.795794462658, 9028.78600702119, 9061.307795203662, 9069.533237163216, 9060.234911469808, 9063.990004538298, 9093.494307219304, 9126.172557612963, 9134.845034461623, 9125.27848783475, 9128.228918102852, 9157.420296361483, 9190.210305477418, 9198.525154414792, 9188.556276387724, 9191.551410144737, 9221.167471548019, 9254.15864636405, 9263.255806357362, 9254.44921904197, 9257.600815010168, 9286.903951991077, 9319.537498895825, 9327.248850732905, 9316.385902927626, 9318.218745972961, 9347.007792831397, 9379.507229269413, 9387.57620901778, 9377.42851703507, 9379.373118802681, 9408.363331361215, 9441.175692221606, 9449.87052081472, 9439.879291043198, 9442.136817233184, 9470.858808858253, 9503.6935214631, 9512.634219245223, 9502.866506918253, 9504.676998219133, 9532.79549274391, 9565.473743137569, 9574.570903130878, 9564.84789429282, 9566.770144315977, 9594.821583607387, 9626.985743878573, 9635.635868982778, 9625.309363044425, 9627.14220608976, 9655.260700614537, 9687.760137052554, 9696.767890068042, 9687.15663995226, 9689.10124171987, 9717.465605433656, 9750.635594205332, 9759.464533265178, 9749.070972093461, 9750.412076760778, 9778.239998607636, 9810.962952490205, 9820.574202605987, 9810.627676323376, 9812.460519368711, 9840.824883082496, 9873.90546487635, 9883.67317720332, 9874.419554998822, 9876.252398044158, 9903.856802446462, 9936.87032900695, 9947.107427967481, 9937.496177851699, 9939.194910430302, 9967.648681121907, 10001.824498394073, 10012.307466543612, 10003.299713528122, 10005.378425762467, 10033.854548198527, 10067.248054414757, 10077.395746397466, 10067.762144537228, 10068.879731759993, 10096.327673951111, 10129.341200511599, 10138.907747138472, 10128.692999922396, 10129.341200511599, 10156.878549680538, 10190.517925085775, 10201.11265195759, 10192.015491964281, 10192.931913486947, 10219.798710322228, 10253.058106071723, 10263.31755677671, 10253.393382238553, 10253.818065383204, 10280.886027918581, 10314.927734724013, 10325.701275551472, 10316.022970202324, 10316.715874280439, 10343.85089204918, 10377.825543621248, 10389.224933293455, 10379.837200622225, 10380.440697722519, 10407.240439324432, 10440.522186818383, 10451.206320668021, 10441.259794385409, 10441.192739152044, 10467.679556331583, 10500.98365556999, 10511.17605104161, 10501.162469525632, 10501.140117781177, 10527.828100660814, 10561.512179554962, 10572.911569227168, 10563.52383655594, 10563.836760978313, 10590.658854324682, 10623.739436118536, 10634.311811245896, 10624.857023341301, 10625.035837296944, 10651.477950987572, 10684.960864181623, 10696.472012576105, 10687.285445604974, 10686.503134549039, 10712.185288928187, 10745.690553866692, 10757.156998772263, 10747.568100400937, 10746.852844578367, 10772.490295468604, 10805.459118540182, 10816.880859956844, 10807.940162174722, 10807.537830774527, 10834.136406676342, 10868.312223948506, 10880.359814209916, 10871.128543749875, 10870.68150886077, 10896.765994640113, 10930.450073534259, 10943.279974851606, 10933.959297413743, 10932.68524797979, 10958.143884914385, 10992.073832997541, 11004.635513381423, 10996.186553977317, 10995.784222577122, 11021.891060100921, 11056.648022728923, 11069.164999623896, 11060.045487886131, 11059.441990785837, 11085.213552142806, 11118.897631036954, 11131.124035254006, 11122.876241549999, 11122.29509619416, 11147.910195339942, 11182.041309123197, 11194.468879040347, 11185.394070791492, 11184.567056246646, 11210.919762959453, 11245.252042442804, 11258.394868182526, 11249.94590877842, 11249.364763422582, 11274.733993379354, 11308.216906573405, 11320.689179979467, 11311.636723475067, 11310.452081018935, 11335.463683064423, 11369.527741614313, 11382.245884209382, 11373.215779449438, 11371.762916059843, 11396.662759383054, 11430.324486532747, 11442.84146342772, 11433.11845458966, 11431.30796328878, 11456.02899265635, 11490.51773435089, 11504.37581591318, 11495.792746042342, 11493.89284776364, 11518.323304453292, 11552.230900791992, 11564.881988153695, 11555.069572337816, 11553.057915336838, 11578.158924360148, 11612.401796865679, 11625.835195283318, 11617.565049834855, 11615.575744578331, 11639.894442545707, 11674.673756918164, 11689.045928602925, 11680.440506987634, 11678.69707092012, 11703.574562498876, 11738.443283849154, 11752.077847966892, 11743.56183332942, 11741.952507728638, 11766.807647562939, 11801.09522355738, 11815.310933030956, 11806.481993971109, 11804.246819525579, 11829.14666284879, 11865.043564444013, 11880.01923322907, 11871.905549991794, 11870.20681741319, 11894.726681080661, 11929.148367541835, 11943.677001437783, 11935.004524589125, 11932.635239676863, 11956.864530666415, 11991.956769461247, 12006.820679524028, 11998.371720119922, 11996.494173585676, 12020.924630275325, 12055.994517325702, 12070.970186110759, 12063.1470755514, 12060.800142383594, 12085.2529508177, 12120.233430890255, 12134.78441653066, 12126.983657715757, 12124.726131525771, 12148.463684137307, 12183.019481065212, 12197.659873683438, 12189.45678346834, 12186.08167005559, 12209.349836033563, 12244.822054484137, 12261.205883169876, 12253.762752266259, 12251.214653398354, 12274.706336820882, 12309.060968048689, 12324.0589885782, 12315.587677429638, 12312.301970994708, 12335.279564294764, 12369.723602500391, 12385.392175363562, 12377.814933993213, 12374.886855469567, 12397.439765624973, 12432.375542208618, 12447.865301116146, 12439.729266134415, 12436.756484121857, 12460.114057077653, 12494.982778427933, 12510.360778613183, 12501.464784319973, 12497.66498776257, 12520.843746762723, 12555.62306113518, 12571.425744465083, 12563.423819950083, 12559.86989258169, 12582.534561459372, 12617.693855487569, 12633.965925451032, 12625.852242213756, 12622.387721823183, 12645.208852912052, 12679.898760306689, 12696.617865159258, 12689.331196466828, 12685.866676076255, 12708.508993209482, 12744.182377360152, 12760.8120752349, 12753.81597922039, 12750.574976274369, 12773.105534685319, 12808.331883946883, 12825.319209732916, 12818.546631162959, 12816.445567184159, 12840.473692473613, 12876.258835346562, 12893.335568110415, 12886.07125116244, 12882.852599960876, 12905.427861860737, 12940.520100655569, 12957.395667719326, 12950.243109493627, 12946.488016425135, 12969.219740536182, 13004.781365964576, 13022.483947573179, 13015.66666551431, 13011.933924190274, 13034.643296556867, 13070.24962547417, 13088.01926231614, 13081.11257327945, 13076.888093577398, 13098.658692676867, 13133.952097171796, 13151.878196224952, 13145.351486844003, 13141.685800753332, 13164.216359164282, 13200.716757859798, 13219.13459529097, 13212.630237654477, 13209.456289941823, 13231.80803439713, 13267.392011569978, 13284.893427478484, 13277.673814019421, 13273.091706406083, 13295.152878183471, 13330.379227445035, 13347.523015442255, 13340.437512449922, 13336.481253681333, 13358.855349881096, 13394.88636194305, 13412.477184829377, 13405.45873707041, 13401.189553879447, 13422.535469834265, 13458.365316196123, 13477.00667107185, 13470.256444246346, 13465.741391866373, 13487.57904619921, 13523.386540816611, 13541.96084045897, 13535.38942758911, 13530.986133931416, 13552.73438128643, 13588.385413692644, 13605.685663901051, 13599.136602775647, 13595.31445447379, 13617.152108806624, 13653.317231335312, 13671.980937955492, 13665.923615208105, 13661.855597717238, 13683.022699716414, 13717.958476300058, 13736.219851520045, 13729.62608690573, 13724.395778703187, 13745.071142324347, 13780.766878219472, 13799.2070673951, 13792.859171969792, 13788.075898656358, 13809.44416635563, 13845.542233650951, 13864.02712631549, 13858.1709692682, 13854.147655266244, 13874.979481098591, 13911.122251882822, 13931.0376561925, 13924.957981700658, 13919.459452564652, 13940.268926652543, 13975.76349684757, 13995.343624990419, 13989.800392365503, 13985.486505685629, 14007.122994318366, 14043.288116847054, 14062.845893245447, 14057.325012364987, 14052.385276840363, 14073.127695694888, 14109.382225201396, 14129.208222533254, 14123.374417230418, 14118.054702050054, 14138.484196482206, 14174.649319010892, 14194.274150642652, 14188.350938361997, 14183.098278414998, 14203.259551913687, 14239.089398275542, 14259.608299685515, 14254.57915718307, 14249.259442002707, 14268.928977123378, 14304.35649208504, 14324.204841161352, 14318.639256791981, 14313.096024167065, 14332.78791103219, 14367.768391104746, 14386.99089133631, 14381.358251733573, 14375.725612130835, 14395.37279550705, 14430.912069190988, 14450.961583967399, 14446.24536588733, 14441.372685596072, 14461.355145139116, 14497.140288012062, 14517.525078955303, 14512.227715519395, 14506.595075916657, 14527.069273837718, 14563.457913810958, 14584.088573943207, 14579.014727951853, 14573.583254049214, 14593.230437425429, 14629.283801231839, 14649.936813108543, 14645.399408984114, 14639.163272281085, 14657.692868434533, 14693.343900840748, 14714.041616206363, 14709.079528937285, 14703.62570329019, 14723.317590155315, 14759.281546983904, 14780.605111194267, 14776.35827974776, 14770.949157589575, 14789.903436887675, 14825.487414060524, 14846.98979222653, 14842.98882996903, 14838.160853166683, 14857.919795265174, 14894.576656171877, 14916.883697138275, 14912.592162202856, 14906.780708644475, 14926.38318853178, 14962.77182850502, 14985.01181423805, 14980.899093258275, 14974.864122255341, 14993.751346320076, 15030.229393271136, 15052.357620281891, 15048.244899302113, 15042.388742254823, 15061.4547802752, 15097.619902803888, 15120.12810947038, 15116.216554190703, 15109.689844809753, 15127.95122002974, 15163.825769880506, 15185.506962002155, 15181.282482300101, 15174.91223513034, 15194.224142339724, 15231.171575924347, 15253.813893057573, 15250.103503477992, 15243.308573163578, 15261.63700361693, 15297.64566393443, 15319.952704900827, 15316.331722299066, 15309.22386756228, 15326.211193348312, 15361.728115287795, 15384.415135909932, 15380.704746330352, 15373.70865031584, 15391.724156346818, 15427.688113175407, 15450.553947753186, 15447.2458895738, 15440.696828448396, 15458.466465290365, 15495.34684364162, 15518.704416597417, 15514.748157828828, 15508.042634492236, 15526.661637623507, 15562.916167130015, 15585.55848426324, 15582.406888295041, 15575.880178914093, 15593.582760522695, 15629.56906909574, 15652.725476351437, 15649.640935616606, 15642.95776402447, 15660.347421210698, 15696.065508850279, 15719.06545389479, 15716.271485837877, 15708.940113656536, 15725.815680720292, 15761.533768359874, 15785.830114582792, 15783.706698859538, 15777.381155178686, 15794.301425731353, 15829.684237204105, 15853.310031093364, 15850.560766525361, 15844.011705399957, 15861.244900374997, 15897.119450225766, 15921.035816792944, 15918.510069669495, 15912.072767266365, 15929.127148285765, 15964.755828947526, 15988.627492025793, 15986.526428046995, 15979.73149773258, 15996.629416540793, 16032.660428602747, 16056.822664358935, 16054.632193402314, 16047.390228198796, 16063.684649906714, 16099.156868357286, 16123.09558666892]]
