[[-26552.799529170934, -26553.559488482417, -26499.825894811856, -26456.687028013115, -26475.127217188743, -26520.54596192193, -26521.39532821123, -26467.19234790711, -26423.539390985894, -26442.158394117167, -26488.47120862856, -26490.371106907263, -26437.28571382591, -26393.52099818242, -26411.871780380225, -26457.84931872479, -26459.928030959134, -26406.37325124422, -26361.937983267067, -26379.439399175575, -26425.215771820043, -26427.763870687948, -26374.566718884318, -26330.131450907167, -26347.364645882208, -26393.8786260937, -26397.454905206552, -26345.15182318113, -26301.34240404873, -26318.48619204595, -26365.11193097972, -26369.31405893732, -26317.81563971229, -26273.82740662425, -26290.9041393881, -26338.491003333453, -26343.207221413522, -26291.52998823285, -26247.34058944471, -26264.327915230744, -26311.40068905362, -26316.072203644777, -26263.63501115263, -26218.506839097365, -26234.778909060828, -26281.62816543915, -26286.500845730407, -26234.913019527557, -26189.42721956101, -26204.782868001806, -26250.87216506865, -26255.186051748522, -26202.972376700924, -26156.74896916735, -26171.0764373632, -26217.299844896777, -26223.200705432977, -26172.95398389745, -26127.64699788654, -26142.93559109397, -26189.784847472292, -26195.037507419293, -26143.472032960897, -26097.136866705045, -26111.799611067727, -26159.297068035256, -26166.494329749865, -26116.314663447698, -26070.717104758874, -26085.96099447739, -26134.30781773422, -26141.728596893383, -26091.50422710231, -26045.48198526883, -26059.809453464684, -26107.329262176667, -26114.906503547016, -26064.83859596713, -26018.794002389193, -26032.428566506933, -26079.099008929614, -26086.497436344318, -26036.340121786612, -25989.58027238611, -26002.94661557038, -26050.68994172692, -26059.518880786763, -26010.56856042964, -25964.367504640522, -25978.024420502716, -26025.834801892615, -26035.714272941863, -25987.590967129585, -25941.5240218072, -25955.560917325132, -26004.779458615718, -26015.91062735446, -25968.86020527604, -25923.530867520676, -25938.014797927714, -25987.300394451668, -25998.543321912686, -25950.844699245063, -25903.88368414446, -25917.205323839826, -25966.155644196948, -25977.24210944678, -25929.677597245885, -25882.671878656376, -25895.4123729959, -25944.31798986411, -25956.343228381065, -25909.136344091457, -25862.22003247977, -25874.558195419097, -25923.55321926513, -25935.980789182282, -25889.958547348804, -25843.578677604044, -25856.252116710202, -25905.917692889892, -25919.641663985454, -25874.334677974544, -25828.468898352254, -25841.83524153653, -25892.73016366126, -25907.45996325731, -25863.203509235802, -25818.20944764727, -25831.374625131444, -25882.046029811627, -25896.59701545203, -25851.155918974393, -25805.44660156329, -25818.187095902813, -25868.903204071907, -25884.147093790423, -25839.15303220189, -25792.795514201585, -25804.53018004062, -25853.659314353386, -25867.74091336023, -25822.031595949127, -25773.99769711467, -25783.966575141738, -25831.888715253917, -25845.72444507175, -25799.25516834917, -25749.455481702746, -25757.4797579622, -25804.4407730628, -25817.561247058064, -25770.756694168653, -25720.733490077673, -25728.08721400347, -25774.62354595942, -25786.693487965287, -25738.458423430733, -25686.669431527785, -25692.70440253072, -25738.726644364197, -25751.3777317259, -25704.640234069855, -25653.253573567104, -25660.13791085934, -25706.830705026474, -25721.18052496678, -25675.381800577856, -25624.866858108864, -25632.041768079016, -25679.78509423555, -25695.319556631992, -25650.12432934336, -25600.592863630398, -25608.527732912033, -25657.6568672248, -25674.420675566278, -25630.54420120051, -25581.39271514329, -25589.282880936014, -25639.30608502699, -25657.925088158263, -25615.568532415455, -25567.512281836545, -25576.229462174117, -25626.252666265093, -25645.542221730022, -25604.191494487703, -25556.559927053444, -25565.053589946463, -25616.55200917149, -25637.048558837007, -25595.7425350836, -25547.418063571226, -25555.576450297413, -25606.44902067769, -25626.766756387566, -25586.131284967814, -25538.455014044644, -25546.523993793013, -25596.368383928348, -25616.373195215845, -25575.78242728501, -25526.653292972245, -25532.28593257498, -25580.54334885399, -25598.87177930734, -25555.934078208695, -24477.663573940226, -24453.79191086196, -24396.97377645657, -24381.036982659934, -24422.722986069082, -24459.156329531233, -24434.83763156386, -24377.997145414014, -24361.92624115065, -24403.79105851544, -24440.60438163333, -24418.185581944657, -24362.93206965114, -24347.24114504351, -24388.681279263652, -24426.343968670844, -24403.45578234861, -24346.503537476485, -24329.33739773481, -24371.11280812178, -24408.373166128775, -24384.948537939614, -24328.19745876759, -24310.450173670077, -24351.130348578736, -24389.418886830677, -24368.07297087586, -24311.85833357076, -24294.37926940671, -24335.081796059825, -24373.280927333944, -24351.935011379126, -24295.698022329572, -24277.838978509782, -24317.759194106962, -24355.66775270316, -24334.277133259435, -24277.704868043053, -24260.158748645634, -24301.62123461023, -24340.513269962463, -24319.56968540784, -24262.684495769085, -24243.573754259796, -24283.650432068163, -24321.648397642184, -24300.302481687366, -24243.819623448806, -24224.12773658368, -24262.393923091167, -24300.280129942912, -24279.113027943735, -24221.71374818251, -24201.2619020059, -24239.773957702397, -24278.509530843443, -24258.147091644656, -24199.87609384967, -24178.26195696139, -24216.036405090857, -24254.816681720815, -24235.124794855692, -24178.1054947502, -24156.580764839742, -24194.846951347226, -24234.36483554421, -24214.829410890274, -24157.653648573596, -24136.263029129866, -24173.657497603595, -24211.99073934445, -24191.784762356852, -24132.93261920603, -24109.843267183696, -24147.081273446238, -24186.040364031836, -24166.929622522548, -24108.949197405484, -24085.47986572741, -24122.114374889657, -24161.386389897634, -24142.096834432705, -24084.42933373801, -24061.608202649142, -24098.39917402258, -24138.2970378753, -24120.683863244518, -24064.3798189616, -24041.80455706174, -24079.28843251329, -24120.370938822143, -24103.607130480665, -24047.593658875663, -24025.80070803174, -24064.24570849487, -24106.848133426683, -24091.693650685986, -24037.110690726127, -24015.965940471404, -24055.01443803483, -24098.510932744855, -24084.5857959492, -24029.779318544784, -24007.405222345024, -24045.38083617459, -24088.407944251056, -24072.694667898973, -24016.211809660414, -23992.831884960164, -24029.95813250043, -24071.822949865218, -24056.46730142442, -23999.000966429827, -23972.78237018375, -24007.874608978585, -24048.644190865063, -24032.014492990314, -23973.18470158395, -23945.89322160402, -23979.89022492054, -24019.89984749554, -24002.912521709506, -23943.903916347495, -23915.62895961153, -23948.12839604955, -23987.93685292445, -23971.26245156079, -23912.700881087887, -23884.895310985485, -23917.573561379144, -23957.918460120974, -23942.763977380273, -23884.76120051875, -23856.888575182984, -23889.92445348793, -23931.096366774604, -23916.523029389744, -23858.85552869505, -23831.80991790413, -23865.896328198472, -23908.185828707916, -23894.215988423348, -23837.308447040137, -23810.128725782484, -23844.48335701029, -23888.31512788715, -23877.519235315234, -23823.13744105547, -23797.790562843154, -23833.19572606036, -23877.787456248698, -23866.745694487774, -23812.67682465039, -23788.067554005094, -23824.590304445068, -23870.478435811812, -23861.24716535177, -23808.18412401487, -23782.747838824733, -23818.555333442135, -23864.041133408682, -23855.078083882105, -23800.830400089075, -23774.209472442803, -23809.52522868219, -23854.541642015178, -23843.969266887816, -23788.671051105386, -23760.88783274744, -23794.52720815268, -23838.649551707455, -23829.060653336128, -23773.673030575876, -23745.46512907328, -23778.74687656723, -23824.14326955596, -23815.247275262747, -23760.127873435962, -23731.137660877426, -23763.57004208208, -23807.75944087022, -23797.544693654145, -23741.26300111568, -23710.775221678643, -23741.30770460459, -23784.021888258685, -23773.5612718536, -23716.63137872593, -23684.288404499104, -23713.435079268824, -23756.104559434007, -23745.17455639536, -23686.858855111463, -23653.331238428502, -23681.226215508726, -23722.129907861938, -23710.149372833894, -23651.364284916435, -23616.54026705507, -23643.71998831272, -23685.227177766228, -23674.408933449857, -23616.33910135497, -23582.073877104984, -23610.460592563224, -23653.040665750585, -23642.557697601045, -23584.644327717346, -23550.580269167458, -23578.698763692235, -23621.703520024243, -23612.740470497665, -23556.056446559007, -23522.17120196476, -23550.60262091191, -23594.94848191124, -23587.103019607428, -23530.37429217986, -23496.98078596363, -23525.859239799887, -23569.780417654565, -23561.800844884023, -23506.23440816813, -23473.13147462982, -23502.188742421717, -23546.91458307679, -23539.247934728617, -23483.390925334803, -23450.042122607487, -23478.250024110082, -23522.79705080951, -23516.359748406383, -23461.486215768604, -23427.958599085643, -23456.680590710712, -23502.166390677263, -23495.974957463142, -23440.989666103087, -23407.663215120225, -23436.273448023017, -23482.139227645308, -23476.528939787026, -23421.655407149246, -23387.054906732432, -23414.25697973454, -23459.765131445543, -23454.892451154286, -23400.220084216606, -23366.088970433353, -23393.49220913556, -23439.82737539141, -23436.273448023017, -23382.539854352457, -23347.984057424554, -23375.543758337946, -23422.080090293897, -23418.950846070155, -23365.977211711077, -23331.734339205545, -23358.82465348538, -23405.42804067469, -23401.896465050755, -23347.782891724455, -23312.8024116519, -23339.66920848718, -23386.317299165406, -23382.80807528592, -23328.76155719299, -23293.66931839816, -23321.005501867, -23369.15115942373, -23367.72064777859, -23315.015234352977, -23280.213568236064, -23308.175600549654, -23356.164795895194, -23354.33195284986, -23301.157152790685, -23265.573175617836, -23292.685841642124, -23341.032664898954, -23339.84802244282, -23286.919091572654, -23250.64221032169, -23276.16790248965, -23322.637179212237, -23319.843211155323, -23264.679105839623, -23227.105823410253, -23251.916259755642, -23297.73733588902, -23295.0998300433, -23240.382759616707, -23201.580131242292, -23224.513021053437, -23270.088227997807, -23267.69659134109, -23213.8288872038, -23174.82509312929, -23198.137962596174, -23244.74134978549, -23243.735521285, -23189.934872381076, -23151.780444595868, -23175.808569885325, -23222.277846607907, -23221.94257044108, -23168.745418637445, -23130.456880385504, -23153.590935896747, -23200.484895763984, -23200.864875419724, -23148.09240676074, -23109.267426641873, -23132.446185642028, -23179.9212908651, -23181.798837399347, -23130.09925247422, -23092.41421132257, -23116.397633123117, -23165.258546502417, -23167.560776181315, -23116.66585405658, -23079.830179194236, -23105.19940915101, -23155.803758597824, -23160.117645277696, -23110.89910398711, -23074.354001802683, -23099.209141636988, -23148.852366072224, -23152.87568007418, -23103.210103894486, -23065.256841809376, -23088.65911825408, -23138.145880478132, -23141.923325291078, -23091.56484503327, -23053.030437592322, -23075.98567914792, -23125.76301404989, -23130.501583874415, -23079.606661749684, -23039.440576963494, -23060.7417894294, -23108.596874308216, -23111.234380153943, -23058.774835917335, -23016.619445874625, -23035.573725172726, -23081.171283861553, -23082.55709201778, -23028.376463458117, -22983.985898969877, -23002.090811978676, -23047.08487356721, -23047.956591600967, -22993.73125955239, -22949.027770641776, -22965.299840605243, -23010.092736493676, -23011.27737894981, -22956.672067245494, -22911.789764379235, -22928.77709016527, -22974.173483153998, -22976.721582021903, -22923.43502324045, -22879.647955852506, -22897.842275839124, -22945.272677573288, -22949.675971230983, -22899.2057322509, -22857.206804419377, -22877.18926396242, -22926.988950608844, -22934.052101856723, -22885.99585127781, -22846.90265022548, -22869.23204293633, -22921.266904028285, -22931.705168688914, -22887.225197222855, -22850.27776363823, -22874.127074972042, -22928.084186087155, -22940.10942460411, -22895.651804882506, -22858.72672304234, -22882.307813442687, -22935.952000135425, -22947.55255550773, -22902.24556949682, -22863.577051589138, -22886.599348378106, -22940.176479837475, -22951.508814276316, -22905.754793376305, -22865.789874290214, -22886.778162333747, -22939.30476180372, -22950.502985775827, -22903.96665381988, -22863.174720188945, -22882.799551820703, -22933.78388092326, -22943.97627639488, -22896.59057814963, -22853.965801473358, -22872.182473204433, -22921.915104617492, -22931.34754077763, -22883.738325087827, -22840.308885611164, -22856.91623174146, -22906.20182826541, -22914.44962196942, -22864.873452767548, -22819.812335945648, -22835.011522175257, -22882.39722042051, -22890.77912459125, -22841.940562956403, -22796.521818223217, -22811.162210841445, -22859.061999209167, -22868.09210396911, -22819.119431867533, -22773.74539062326, -22788.65400417495, -22836.062054164657, -22844.980400202323, -22796.566521712128, -22750.857204301024, -22765.22937598579, -22814.067937620635, -22824.12622262552, -22775.89115809097, -22729.801861024127, -22743.39172165295, -22791.55973095414, -22801.55096072566, -22752.84650955755, -22705.863142712493, -22719.229485896765, -22767.330439964586, -22777.94751858086, -22730.338302891054, -22683.690212212827, -22696.877741441458, -22746.40920715442, -22758.479149160285, -22711.898113715426, -22666.14409281541, -22680.605671477995, -22731.388834880454, -22744.44225364235, -22698.464715297785, -22653.58241243153, -22667.373438760453, -22717.530753318162, -22731.25472441372, -22684.58428199104, -22638.450281435285, -22651.86132810847, -22701.2586833547, -22714.06623292759, -22667.239328293723, -22619.22778120372, -22630.671874364838, -22678.996345877214, -22691.312157072087, -22644.597011160495, -22596.205484414757, -22606.688452564296, -22655.19173803231, -22668.2004533053, -22621.32884518252, -22573.339649836977, -22584.69433602027, -22633.91287731086, -22648.508566440174, -22602.79924902907, -22555.391199039364, -22566.567071267018, -22615.696205579785, -22629.219010975245, -22583.643804030875, -22535.565201707508, -22546.0705216015, -22595.46787684773, -22610.264731677144, -22565.449484044253, -22517.437936954255, -22527.138594047858, -22575.75363823815, -22590.438734345287, -22545.109396589924, -22496.047317510525, -22505.077422270468, -22552.552527493543, -22566.254146844643, -22519.74016663315, -22468.845244508415, -22475.953099245206, -22522.64589341234, -22536.191050552257, -22490.034698252046, -22439.38564531632, -22445.97940993064, -22493.096887242424, -22507.379651949366, -22460.753913015596, -22409.657825190763, -22416.475107249633, -22463.659639794787, -22477.741238801627, -22431.026092890035, -22379.170045753723, -22384.199188256167, -22430.132023111826, -22443.945401185203, -22396.269130262033, -22342.84846101385, -22346.402388382245, -22391.23998775959, -22404.516923966043, -22357.62296409881, -22304.60462625082, -22308.538533274954, -22354.33725766388, -22369.312926448933, -22323.670664271198, -22271.300527012412, -22276.35202125931, -22323.55890554892, -22340.434472612676, -22296.848570924827, -22245.819538333362, -22251.139253513724, -22299.687242470653, -22317.635693268265, -22274.675640425165, -22224.45127063409, -22230.285075936925, -22279.481265483057, -22298.79317269244, -22257.01776230547, -22206.793392514395, -22211.978997228027, -22260.258765251492, -22279.794189905428, -22238.666980107664, -22189.023755672428, -22195.61752028674, -22245.79718658891, -22266.4054949767, -22225.367692156757, -22174.986860154495, -22180.038354401393, -22228.184011958125, -22248.613506390277, -22207.285130892415, -22155.250269800457, -22157.686609946086, -22204.602921557776, -22223.19957294459, -22179.34545032328, -22125.120118274703, -22126.036539797373, -22170.181235096603, -22186.67682250462, -22141.459243471534, -22085.5128270999, -22084.998736977428, -22129.590467165766, -22147.33775226328, -22103.52833313088, -22048.475986537458, -22048.07365513726, -22092.508923114412, -22110.367966934202, -22066.960879201997, -22012.154401797583, -22011.863829119662, -22057.595498275223, -22076.952108973517, -22035.06493986427, -21981.19723572698, -21981.510160149355, -22028.538230483322, -22049.727684226953, -22009.44984071849, -21956.699723803966, -21958.510215104845, -22006.7452796394, -22030.281666550836, -21993.222474243936, -21943.5792498087, -21948.071950444217, -21998.7433551244, -22024.8501926482, -21989.73560210891, -21941.187613151982, -21945.63561029859, -21997.26813999035, -22024.134936825627, -21989.601491642177, -21940.91939221852, -21944.92035447602, -21995.748221367387, -22021.765651913363, -21986.069916018238, -21935.733787504887, -21938.48305207289, -21989.623843386635, -22016.60239894419, -21980.951366537975, -21930.43642406898, -21932.6268950256, -21983.141837494593, -22010.63448317462, -21976.168093224536, -21925.831964711186, -21927.5754007787, -21976.704535091467, -22002.319634237247, -21965.64042158609, -21914.47727852789, -21915.19253435046, -21963.315840162737, -21988.550959652777, -21951.536470834788, -21898.13815333106, -21896.52882773028, -21942.95340096395, -21966.780360553308, -21928.33536009018, -21873.238310007848, -21869.684382639454, -21914.90196167254, -21938.505403817344, -21899.836885909663, -21843.71165558239, -21838.704864824398, -21883.341298501648, -21906.654167968532, -21868.43268494996, -21812.955655211885, -21808.46295457637, -21853.479367909356, -21876.971051331886, -21838.74956831331, -21782.601986241578, -21776.902291405477, -21821.98575997183, -21846.349161428116, -21808.7982307432, -21752.74005564929, -21746.63802941299, -21790.670965989946, -21815.883733735533, -21779.517445506746, -21724.085119257586, -21719.279494199694, -21764.988811610798, -21791.140352623504, -21756.33868650659, -21701.800430035644, -21697.598302078048, -21744.134634033995, -21772.40959076996, -21739.68663688739, -21686.221264150296, -21682.644985037445, -21731.505898416748, -21761.434884242404, -21728.935447804386, -21676.25238612323, -21672.43023782137, -21720.084157000085, -21750.34841899257, -21718.72070058831, -21665.47884529577, -21661.00849640471, -21708.260084183228, -21737.92084907542, -21706.24842718225, -21653.56536550109, -21649.117368354484, -21696.39130787746, -21726.72262510331, -21695.54194158816, -21642.545955484624, -21637.8073856601, -21684.902511227432, -21715.09971798655, -21684.567235060604, -21631.906525123897, -21627.52558321066, -21675.447723322835, -21706.896627771453, -21676.028868678673, -21622.831716875044, -21618.27196100616, -21666.52937728517, -21698.894703256454, -21669.949194186833, -21618.160202283885, -21614.203943515295, -21662.774284216677, -21696.81599102211, -21668.786903475157, -21616.528524938647, -21611.61114115848, -21659.980316159763, -21693.53028458718, -21664.7635894732, -21610.918237080365, -21603.877437576943, -21649.989086388243, -21682.443819337346, -21652.783054445157, -21597.909521807378, -21589.594672870004, -21635.035769347644, -21666.797598218633, -21636.823908904065, -21582.12919022193, -21573.36730639545, -21619.255437762196, -21652.268964322684, -21623.390510486428, -21569.36634413795, -21561.69969578978, -21608.437193445825, -21642.434196762348, -21614.673330148857, -21560.582108567014, -21552.423721840827, -21598.423611929848, -21632.018283846177, -21603.564513154568, -21548.243945627684, -21538.54328853408, -21583.6938123338, -21616.148545282907, -21587.40420191338, -21532.195393108774, -21522.181811592796, -21567.198224925785, -21600.524675908648, -21572.02620172813, -21516.526820245603, -21506.222666051708, -21551.93198346281, -21586.912463535366, -21559.866852744442, -21506.110907329432, -21497.661947925324, -21545.047646170577, -21582.03978324411, -21558.302230632573, -21506.423831751807, -21498.26544502562, -21546.36639909344, -21584.207902456274, -21560.760922522655, -21509.240151553175, -21501.72996541619, -21549.495643317183, -21586.51013213517, -21562.30319289007, -21509.597779464457, -21500.85824738243, -21548.534518305605, -21586.443076901804, -21563.286669646106, -21510.49184924267, -21500.142991559864, -21545.338218848494, -21581.88332103292, -21557.676381787824, -21503.808677650533, -21492.230474022686, -21537.380997822405, -21572.584995339515, -21546.45580607126, -21490.688203655267, -21477.21010174872, -21520.483079014193, -21555.262393386653], [-26361.803872800338, -26328.58918053975, -26372.353896183242, -26417.660882194148, -26386.211977745534, -26306.192732595533, -26272.06161881228, -26315.267540844387, -26360.21689894401, -26328.946808451037, -26248.704045856484, -26214.28235939531, -26257.220060493953, -26302.907026160603, -26272.933336846036, -26193.27171960732, -26158.38064651259, -26201.184237144502, -26247.251182466887, -26217.053975707768, -26137.12413753559, -26103.373003408076, -26146.98125684038, -26194.724582996918, -26166.963716383427, -26087.771485778274, -26053.3497993171, -26097.02510798277, -26144.254344016834, -26115.73351809186, -26037.077729353638, -26001.89608358098, -26044.185584090425, -26091.68304105795, -26063.899822700005, -25984.685240350394, -25948.631876543986, -25990.295528208677, -26037.591819476107, -26010.5909121741, -25932.136289135968, -25895.546483462633, -25937.344245594057, -25985.176978728414, -25958.220774915313, -25879.676744899363, -25842.88577352593, -25883.968279834782, -25932.248047858247, -25906.208265567813, -25827.708939040775, -25790.87326417843, -25832.06752920956, -25880.816683866586, -25855.626267865453, -25776.344630282478, -25737.676112374797, -25778.06571460554, -25826.524296584645, -25800.81979046104, -25721.873429044896, -25684.255443126614, -25724.980321524185, -25774.802359915062, -25750.95304858125, -25672.744294732132, -25634.343997757915, -25673.861881954897, -25722.164001722813, -25697.062992699506, -25618.16133477227, -25579.381058142313, -25619.055404550483, -25668.631573752355, -25644.849317651908, -25566.305287635958, -25527.167383094715, -25567.02054345853, -25617.91546558326, -25596.033107761516, -25518.785478923975, -25480.340478460846, -25520.618321969312, -25571.759113283053, -25549.876755461308, -25471.46683591209, -25431.390158103724, -25470.684524856155, -25521.266522558515, -25499.56297869241, -25420.549562042903, -25378.796503400386, -25416.638006763224, -25466.258879454002, -25442.923658242664, -25363.597317170777, -25321.374871894703, -25357.651753145667, -25406.6467769917, -25384.11621858075, -25304.76752576441, -25261.919231643587, -25298.687851272567, -25348.35342745226, -25326.694587075068, -25247.636466936645, -25203.961158270977, -25239.94746684402, -25289.456580812526, -25267.61892647969, -25187.689088307514, -25142.829137185712, -25178.68133529202, -25228.83864984973, -25207.157457728084, -25126.91469513353, -25081.7194678449, -25116.185857794986, -25165.627916530124, -25144.79609069778, -25065.62621183708, -25020.073356637164, -25053.77978727577, -25103.333604733183, -25082.568834134203, -25002.70605119539, -24956.88497506201, -24990.770219656257, -25040.793423747233, -25021.28035083775, -24942.468099888338, -24896.02117491021, -24929.34762589307, -24979.661402661968, -24959.857757074566, -24879.994974135756, -24833.279828224164, -24866.87450014049, -24917.478849587304, -24898.703384244847, -24819.846429806523, -24772.594842028004, -24805.831886033047, -24856.793863391147, -24838.688950382348, -24759.787292455112, -24711.55222792056, -24743.31405679155, -24794.47719984975, -24777.981612441734, -24700.64457662637, -24653.79532024805, -24687.971137520213, -24741.90589689087, -24726.438489727796, -24649.414378334808, -24603.034508590044, -24636.852697950926, -24690.675698599305, -24676.616451336915, -24600.91109286679, -24555.00060975559, -24588.81879911647, -24643.379407331875, -24630.817726947993, -24555.380589411332, -24507.99489116608, -24540.76254853756, -24594.496142208118, -24581.219206001664, -24505.200923109165, -24458.061094052922, -24491.901635158258, -24546.28342941802, -24533.073548444936, -24457.144672530256, -24409.669567307184, -24443.13012875678, -24498.338937561388, -24487.051306611458, -24412.038852219448, -24363.87084291826, -24396.079706678356, -24451.176756760688, -24439.419739177196, -24363.91554640717, -24315.278150472423, -24346.548240965396, -24401.35471836981, -24390.290604864433, -24313.937045805105, -24263.533862058386, -24294.46867638453, -24349.0963398333, -24338.747482150495, -24263.98089694749, -24213.93534111206, -24243.685512982072, -24298.00025200847, -24288.009022236947, -24212.70599516702, -24161.811073042285, -24191.337727467744, -24246.390074061164, -24236.801175689838, -24161.609907342186, -24110.379709050623, -24140.263991387368, -21862.129493013563, -21867.739780871845, -21927.329531589694, -21947.20023241046, -21887.632833437066, -21820.08586169313, -21825.517335595767, -21885.263548524803, -21905.62598772359, -21846.639734106033, -21778.35515479507, -21782.467875774848, -21842.214088703884, -21863.202376747417, -21804.998434185796, -21736.713854874833, -21741.54183167718, -21802.159762639974, -21824.153879183996, -21767.179282567417, -21699.63231082348, -21704.661453325924, -21765.100570333074, -21787.184093854918, -21730.72358736081, -21663.24367085024, -21667.982240674763, -21729.00250303775, -21752.941221349385, -21697.37478463349, -21629.827812889554, -21633.962885613786, -21694.759630532222, -21718.944218032866, -21663.48954003925, -21595.517885150657, -21598.71418460777, -21659.488577781747, -21684.63429029397, -21628.553763455602, -21558.70456203277, -21560.26918414464, -21620.104804051498, -21643.75294968521, -21588.253568202683, -21519.45489876925, -21520.863058669933, -21579.84931228749, -21603.94449281031, -21547.774558994122, -21477.835950593468, -21479.221758749696, -21539.347951334472, -21565.20891966926, -21511.072994598508, -21441.268496664587, -21441.156737942307, -21500.277102026594, -21525.93690466129, -21471.957441801722, -21402.17529561225, -21402.37646131235, -21462.837930063957, -21489.30239549904, -21435.97113322868, -21366.188987039208, -21365.40667598327, -21424.459984834193, -21451.237374691653, -21398.420202543763, -21328.749815076568, -21328.45924239865, -21388.406621027785, -21416.167487641276, -21362.970335837643, -21292.45058208115, -21290.41657333572, -21349.17930950872, -21376.582548210925, -21324.257114441054, -21254.00558161802, -21251.79275891695, -21311.11428870133, -21339.32219020393, -21286.706183756138, -21215.96291255509, -21214.018310787476, -21272.848102193846, -21301.234817652086, -21249.937564127158, -21178.926071992646, -21175.685069046627, -21235.09600580883, -21264.48854976756, -21213.571275898372, -21143.140929119698, -21140.61518199625, -21200.115525736277, -21230.290380750943, -21179.909548748677, -21109.546257203372, -21106.193495535077, -21165.47032183055, -21196.069859989868, -21146.225469854533, -21076.21980622051, -21072.75528582994, -21132.546202247882, -21164.24097588551, -21115.111841572743, -21044.77090177189, -21040.747587769936, -21100.247931509966, -21131.94270514759, -21082.858274323735, -21011.24328508893, -21006.52706700886, -21065.535672370872, -21097.386908219687, -21049.12949194068, -20978.609738184183, -20973.44648521501, -21032.611552788207, -21066.094465982256, -21018.86522994819, -20948.01020002487, -20942.265801699854, -21001.900255906614, -21035.561983056305, -20988.645671444618, -20917.56712407674, -20912.113298429646, -20971.85951135868, -21006.52706700886, -20961.041267042314, -20891.482638297395, -20886.2299783504, -20946.08795000171, -20981.87309287466, -20936.81197605276, -20866.895719396558, -20862.0230391053, -20922.506859601363, -20959.05196178579, -20914.28141764181, -20843.225222018387, -20836.3185329817, -20895.50595229935, -20931.51461261685, -20887.0793446397, -20816.20196297192, -20809.183515212957, -20868.281527552786, -20904.80427799276, -20860.637230949073, -20788.88813124754, -20780.81915149917, -20840.341846983654, -20877.736315457383, -20834.64215214755, -20763.87652920205, -20755.852252942594, -20815.084375749157, -20852.702361667438, -20810.099936735623, -20739.066092856658, -20731.28768578621, -20791.436230115443, -20831.04352129025, -20789.156352181002, -20718.413080979954, -20709.807659364662, -20768.48098855984, -20806.255436689313, -20764.122398391057, -20693.3344237011, -20683.99139451878, -20742.463558013864, -20781.623814299564, -20740.72012194635, -20668.94867050036, -20658.75627502874, -20717.5413629462, -20757.26041284328, -20716.602589679074, -20645.255821377734, -20634.95166718384, -20693.692051612386, -20734.416930009953, -20694.496714412777, -20622.859373433515, -20612.21994307279, -20670.982679245793, -20711.282874498713, -20671.31795541262, -20600.060594089104, -20588.772963139174, -20646.909850467426, -20688.014708520735, -20649.100321424048, -20577.999422311714, -20565.750666350206, -20623.37346355599, -20664.23245242029, -20625.385120556966, -20553.457206899788, -20541.00728523818, -20599.345338266532, -20641.65719052043, -20603.547466224132, -20531.574849078042, -20518.499078571687, -20576.36774496648, -20618.858411176017, -20581.799218869117, -20509.983063934214, -20496.169685860837, -20553.457206899788, -20596.50666672071, -20559.69334360282, -20487.251339823168, -20473.303851283057, -20530.323151388544, -20572.143265264425, -20534.3464653905, -20461.591537188477, -20446.638220147877, -20503.746927231186, -20546.48346262973, -20509.4913255562, -20437.09402526546, -20421.76072856912, -20478.221235063225, -20521.784785006617, -20485.798476433574, -20413.915266265307, -20399.14076318035, -20456.33887724148, -20501.377642318923, -20467.313583769035, -20396.056222445517, -20380.432353071257, -20436.80345258754, -20481.61870022043, -20446.526461425598, -20374.822065212975, -20358.907623160794, -20415.65870233282, -20461.25626102165, -20426.812222816017, -20354.459626014188, -20338.209907795183, -20394.826876500472, -20440.491490422668, -20406.338024894958, -20333.851317626395, -20316.26049474007, -20371.916338433784, -20417.64800758934, -20383.89687346183, -20310.940779559707, -20293.193494462193, -20348.26819280007, -20393.08344043296, -20359.444065027725, -20287.225578692625, -20268.91949998373, -20323.413052965767, -20368.98825991014, -20336.46647172767, -20263.66684003673, -20243.617325260322, -20298.222636964638, -20345.206003809693, -20313.39947144979, -20240.175156614205, -20219.969179626605, -20274.39567737528, -20320.529677931034, -20288.276110682025, -20215.23060980208, -20195.605778170324, -20249.831110218896, -20297.306215441968, -20266.885491238296, -20194.398783969737, -20173.678716859667, -20227.546420996958, -20274.86506400884, -20243.751435727052, -20171.04121101394, -20150.544661348424, -20204.94880735264, -20252.602726531357, -20221.33263603838, -20147.594231080322, -20125.55541104739, -20179.266652973492, -20227.792290185964, -20197.75154563803, -20123.767271490964, -20100.92378865764, -20154.210347439093, -20202.534818951466, -20173.09757150383, -20100.186181090616, -20077.812084890855, -20131.12099541676, -20180.540702407445, -20152.46691137158, -20080.047259336385, -20057.695514881078, -20110.98207366253, -20161.36290566479, -20133.13265241774, -20059.930689326608, -20036.729578582, -20089.323233285337, -20138.809995509386, -20110.847963195796, -20037.601296615758, -20013.059081203828, -20064.44574170658, -20114.133669630726, -20086.037526850407, -20012.09795619225, -19986.326394835283, -20036.64017160418, -20085.97047161704, -20058.746046870478, -19985.074697145785, -19958.878452644167, -20009.01341545742, -20058.991916059484, -20031.991008757475, -19958.05143809932, -19931.36345521968, -19981.833694199766, -20032.34863666876, -20005.995929955952, -19931.966952319974, -19904.809582806778, -19954.542214219837, -20005.258322388927, -19979.822037198788, -19906.21774270746, -19879.663870294557, -19930.357626719193, -19982.995984911442, -19959.191377066538, -19886.54820758679, -19859.748465984878, -19910.352815431692, -19963.125284090675, -19939.36537973468, -19866.051657921274, -19837.888459907586, -19887.37522213164, -19939.74535939042, -19916.164268990073, -19843.45404427696, -19815.357901496638, -19865.045829420786, -19918.153574246597, -19895.60066409119, -19823.40452950055, -19795.755421609334, -19845.711570466945, -19899.243998437407, -19877.138123171106, -19804.53965718027, -19776.48821788886, -19825.595000457168, -19878.92626272753, -19857.446236305983, -19785.227749970883, -19755.902261245523, -19804.562008924724, -19858.094436895186, -19836.189727328983, -19762.607784582113, -19732.09765340062, -19779.125723734585, -19831.49586099337, -19809.188820026975, -19735.115138902085, -19703.532123986737, -19750.135511176053, -19803.846753102156, -19783.05963075872, -19709.678853711946, -19678.006431818776, -19724.453356796905, -19778.544578378747, -19758.740932791345, -19686.120115056052, -19654.805321074167, -19702.772164675258, -19758.00332522432, -19739.09374941513, -19666.78585610221, -19635.091082464587, -19682.253263265284, -19737.417368580984, -19718.28427532724, -19645.41758840294, -19612.515820564728, -19658.18043448692, -19713.0539671247, -19694.32320527115, -19621.054186946654, -19587.50421851924, -19633.12412895252, -19688.42234473495, -19670.004507303776, -19597.137820379474, -19563.498444974237, -19609.0289484297, -19664.818902590145, -19648.010390759755, -19575.7695526802, -19542.62191565298, -19588.666509230916, -19644.8364430471, -19628.56437308364, -19555.742389648247, -19521.454813653807, -19566.471226986796, -19622.484698591794, -19605.92205595041, -19533.927087059867, -19499.371290131963, -19543.739502875746, -19600.334119836585, -19584.8220091846, -19512.558819360594, -19477.10895265448, -19521.43246190935, -19578.16118933692, -19563.565500207606, -19491.369365616963, -19455.874795421936, -19499.818325021068, -19556.59175593755, -19541.34786621903, -19468.83880720601, -19432.874850377422, -19477.33247009903, -19535.111729516, -19521.164240975886, -19449.12456859643, -19412.55711466755, -19456.1430163554, -19513.89992402791, -19499.9524354878, -19427.711597408248, -19391.12179173491, -19434.171251555832, -19491.19055166132, -19477.220711376754, -19404.1305070079, -19365.730210033682, -19408.39969019886, -19466.00013566019, -19453.080827365022, -19381.778762552593, -19344.518404545594, -19386.45027714375, -19444.341295282997, -19433.053664333067, -19361.908061731825, -19324.02185488008, -19365.707858289225, -19424.872925862423, -19413.920571079325, -19342.529099289073, -19303.882933125846, -19346.038323168556, -19405.024576786112, -19394.40749816984, -19323.284247313055, -19284.079287538443, -19325.34060780294, -19384.21510269822, -19373.64272757086, -19302.38536624734, -19262.53220588353, -19303.59236044793, -19362.73507627667, -19353.30264011653, -19282.402906704297, -19241.990952729102, -19282.2017410042, -19341.1656428773, -19331.666151483794, -19260.542900627006, -19219.169821640233, -19258.464188392663, -19317.20457282121, -19307.146287816322, -19235.28542939251, -19193.84529517237, -19233.1396619248, -19293.019985320567, -19284.66043289428, -19212.866629703836, -19170.733591405584, -19209.245647102078, -19269.30478445349, -19262.08517099442, -19192.45948701614, -19150.617021395807, -19188.927911392202, -19248.607069087873, -19241.655676562274, -19170.666536172215, -19127.50531762902, -19164.631565169282, -19223.751929253573, -19215.79470822748, -19144.760864348515, -19101.510238827497, -19138.636486367763, -19198.3826992968, -19190.917216648726, -19119.369282647287, -19074.86695943677, -19111.099137198824, -19170.577129194397, -19164.22923376909, -19094.089459668336, -19050.168281813658, -19086.445163064618, -19146.772521349492, -19141.184585235667, -19071.558901257384, -19027.168336769144, -19062.841720919816, -19123.392596649242, -19119.2128204361, -19049.028342846435, -19004.213095213545, -19039.86412761976, -19100.325596371367, -19095.87759922476, -19025.938990824103, -18980.341432135276, -19015.3889674412, -19076.453933293098, -19072.743543713517, -19003.251970201967, -18957.02856266839, -18991.584359596298, -19052.82813940384, -19049.76595041346, -18980.341432135276, -18934.877983913182, -18970.28314713039, -19032.53275543842, -19030.744615881995, -18961.968298193016, -18915.431966237065, -18949.138396875667, -19010.829211572316, -19009.152830738167, -18939.59420199325, -18892.07439328127, -18924.93145763057, -18986.354051393755, -18984.677670559606, -18915.811945892805, -18868.046267991813, -18900.612759663196, -18961.36480109272, -18959.911937703127, -18890.912102569593, -18842.833500246226, -18874.796494817318, -18935.995571135947, -18935.03444612437, -18865.274651679356, -18815.519668521843, -18847.236793903925, -18908.36881498919, -18907.430041722066, -18838.25139263289, -18788.451705986467, -18818.71596797895, -18879.870340808673, -18879.803285575304, -18811.09402311969, -18761.204929495445, -18791.558598465755, -18852.82473001775, -18853.20470967349, -18784.71896466243, -18734.539298360265, -18764.535339419286, -18826.36026458267, -18827.96959018345, -18760.534377161788, -18710.578228304177, -18740.976600763395, -18802.779174182317, -18804.075575360726, -18735.723940816395, -18685.186646602946, -18714.802708006227, -18777.342888992178, -18779.779229137806, -18711.98638820486, -18660.93500386894, -18689.992271660838, -18752.15247299105, -18754.477054414398, -18686.32658557017, -18634.98462855633, -18663.460750992388, -18725.509193600323, -18728.794900035253, -18661.73966666933, -18609.92832302193, -18637.756244868786, -18700.050556665727, -18703.47037356739, -18636.3480849681, -18584.715555276343, -18612.230552700825, -18674.36840228658, -18679.531655255756, -18612.945808523396, -18560.463912542335, -18588.96238672285, -18652.46369272038, -18658.096332323115, -18592.00222396877, -18539.58738322108, -18566.074200400617, -18628.435567430923, -18634.001151800294, -18568.62229926852, -18515.827478865085, -18542.962496633827, -18607.58138985412, -18614.935113779917, -18549.95859264834, -18497.61080713401, -18524.56701094711, -18588.828276256118, -18596.941959493393, -18532.099548828548, -18479.148266213928, -18504.919827570895, -18568.465837057334, -18575.998374938772, -18510.686577640365, -18456.32713512506, -18481.137571470448, -18543.610697223034, -18551.14323510447, -18486.14436222844, -18430.756739468186, -18454.404885101903, -18517.52621144369, -18525.550487703145, -18459.79165551563, -18403.621721699445, -18426.778128955142, -18489.51947564119, -18497.700214111832, -18431.4496435463, -18374.028012040617, -18396.06683207355, -18458.897585737417, -18467.36889688598, -18401.788878654108, -18344.791930293075, -18366.182549736805, -18428.476861533745, -18437.439911060323, -18372.44103818429, -18315.444089823257, -18337.013523222628, -18400.26896003115, -18410.97544562524, -18347.228270438703, -18290.544246500045, -18312.091328154962, -18375.011488796652, -18386.165009279848, -18323.53542131608, -18267.946632855732, -18290.00780463312, -18353.375000163913, -18365.06496251404, -18302.077746638985, -18245.46077793369, -18267.119618310884, -18331.00090396415, -18343.316715159024, -18281.067106850995, -18224.09251023442, -18245.304315722504, -18309.677339753787, -18322.440185837768, -18260.23528101865, -18201.986634968118, -18221.119728221864, -18283.816371418998, -18296.154534358328, -18233.480242905647, -18174.91867243274, -18193.805896497477, -18256.70370539471, -18269.28773752305, -18206.255818159083, -18146.889584885786, -18164.50275951657, -18227.13234748034, -18240.856318575898, -18179.25491085707, -18120.603933406346, -18138.7311981596, -18203.08187044643, -18218.482222376137, -18157.193739079685, -18097.738098828566, -18115.15010775925, -18178.472599801134, -18193.425916841737, -18132.316247500927, -18072.99471771654, -18090.183209202674, -18153.55040473347, -18168.459018285157, -18107.05877626643, -18046.86552844829, -18063.696392023136, -18127.532974187492, -18143.670933684225, -18082.762430043513, -18022.03274035844, -18037.701313221613, -18101.20261921914, -18118.234648494083, -18058.466083820593, -17998.026966813442, -18013.8520018878, -18077.465066607605, -18094.430040649182, -18034.99675214252, -17974.17765547963, -17988.974510309043, -18052.766388984488, -18069.887825237256, -18009.33694950783, -17946.908527244155, -17961.12423671773, -18024.692597948622, -18042.305772579406, -17981.79960033889, -17918.767680974925, -17931.619934036724, -17994.003652811487, -18011.907400120188, -17951.98237323551, -17889.464543994018, -17902.428555778093, -17965.46047514206, -17983.81125733987, -17924.15445138865, -17861.144883769142, -17873.617157175202, -17936.380855605705, -17954.865748270244, -17895.052480107843, -17831.66293283259, -17843.53170913836, -17906.36246280223, -17925.540259544883, -17865.972860571488, -17802.203333640497, -17813.312150634785, -17875.58411068727, -17894.985424874478, -17836.490909634937, -17773.66015597107, -17784.836028198722, -17847.376209184673, -17867.53748268336, -17809.445298844017, -17745.586364935203]]
