[[-30565.697618210033, -30613.172723433105, -30570.369132801192, -30495.08845747572, -30489.947556250998, -30561.786062930354, -30609.5740925758, -30567.28459206636, -30491.936861507522, -30486.483035860427, -30557.04749310583, -30604.25437739544, -30561.249621063427, -30484.583137581725, -30478.011724711865, -30549.5596587133, -30598.33116511478, -30555.929905883066, -30480.26925090185, -30474.346038621195, -30545.53634471135, -30594.777237746388, -30553.85119364872, -30478.302297389782, -30472.401436853583, -30544.9104958666, -30595.134865657674, -30554.76761517139, -30479.598698568192, -30473.11669267615, -30544.016426088387, -30593.704354012534, -30553.202993059516, -30477.005896211376, -30469.31689611875, -30540.19427778653, -30589.52457779939, -30548.263257534894, -30471.954401964475, -30463.527794304824, -30533.13112653865, -30583.71312424101, -30544.53051621086, -30468.40047459608, -30458.9903901804, -30529.107812536695, -30579.95803117252, -30540.082519064254, -30462.924297204532, -30453.26834359984, -30522.491696177924, -30572.827824691278, -30532.348815482717, -30454.140061633596, -30443.053596383765, -30511.248768716905, -30561.47313850798, -30521.687033377533, -30443.79120395079, -30432.59297997868, -30501.481056389937, -30552.174812814574, -30512.455762917492, -30434.962264890943, -30423.87579964111, -30492.31684116326, -30543.636446432647, -30504.99028026942, -30428.033224109797, -30417.84082863818, -30486.907719005078, -30539.791946386333, -30502.688050590525, -30426.11097408664, -30415.337433259185, -30485.90189050459, -30540.015463830885, -30503.38095466864, -30427.228561309406, -30416.991462348877, -30487.488864360916, -30541.20010628702, -30505.347908180705, -30428.74847993237, -30416.678537926502, -30485.45485561548, -30539.27785626386, -30503.202140712994, -30426.043918853276, -30412.789334391276, -30480.336306135217, -30532.639388160635, -30494.999050497896, -30416.723241415413, -30403.155732531042, -30470.65800078607, -30524.413946201083, -30487.444160872004, -30409.123648300607, -30394.997345804855, -30462.20904138196, -30516.344966452714, -30480.60452706868, -30402.44047670847, -30387.800084090246, -30454.20711686696, -30508.208931470985, -30472.8931752316, -30394.997345804855, -30379.418179919503, -30444.819384195733, -30498.932957522033, -30464.22069838294, -30385.699020111446, -30370.030447248275, -30437.577418992212, -30493.45678013048, -30459.705646002967, -30382.10038925414, -30366.834147791167, -30434.649340468568, -30490.819274284757, -30457.470471557437, -30379.86521480861, -30363.57079310069, -30430.715433444435, -30486.93007074953, -30453.31304708875, -30374.567851372703, -30357.513470353304, -30423.764040918835, -30480.157492179573, -30447.41218655255, -30369.62811584808, -30352.28316215076, -30418.69019492748, -30475.59773631069, -30443.54533476178, -30365.560098357215, -30348.39395861554, -30414.689232669978, -30471.574422308735, -30439.87964867111, -30362.564964600202, -30345.085900436152, -30411.582340190693, -30469.093378674195, -30437.532715503305, -30359.10044420963, -30340.839068989644, -30406.955529088442, -30464.019532682843, -30433.174125334517, -30354.943019740942, -30335.161725897997, -30399.802970862744, -30457.425768068526, -30426.7815264203, -30348.729234782368, -30328.992644428334, -30393.455075437436, -30451.54725927678, -30421.17123856202, -30342.068414934685, -30320.38722281304, -30384.58143288868, -30442.427747539015, -30412.096430313162, -30333.172420641473, -30312.117077364575, -30376.624211862592, -30434.515230001838, -30404.139209287074, -30325.10344089311, -30303.668117960467, -30367.68351408047, -30425.82040140872, -30396.271395238808, -30317.81677220068, -30297.096705090607, -30360.687418065958, -30419.226636794407, -30390.25877598033, -30312.25118783131, -30290.547643965205, -30354.54068834075, -30413.661052425035, -30384.849653822144, -30305.523312750258, -30282.746885150304, -30346.203487658917, -30405.212093020928, -30376.087769995665, -30296.314394034674, -30272.42037921195, -30334.692339264435, -30393.63388939308, -30364.978953001377, -30284.691486917913, -30260.059864528164, -30322.153010625007, -30381.653354365037, -30354.026598218275, -30275.482568202326, -30251.901477801977, -30314.24049308783, -30374.43374090597, -30347.455185348415, -30269.000562310288, -29986.16158797283, -29989.827274063504, -29917.184104583754, -29869.48548191613, -29912.82551441497, -29989.201425218755, -29995.012878777135, -29923.755517453614, -29875.43104594124, -29918.83813367345, -29995.191692732777, -30001.763105602637, -29931.35511056842, -29883.455322200698, -29926.325968065976, -30002.74658235867, -30008.781553361605, -29937.479488549172, -29888.618575169872, -29931.01983440159, -30006.591082404982, -30011.88844584089, -29940.474622306185, -29891.144322293323, -29932.9644361692, -30009.02742255061, -30015.17415227582, -29943.559163041016, -29893.848883372415, -29935.40077631483, -30011.977852818713, -30018.8845418554, -29947.60482878743, -29898.140418307834, -29939.468793805696, -30015.442373209284, -30022.37141399043, -29950.8681834779, -29899.72739216416, -29939.871125205893, -30015.777649376116, -30023.89133261339, -29953.438634090264, -29902.476656732164, -29941.949837440236, -30018.392803477385, -30026.70765241476, -29956.187898658267, -29905.292976533532, -29945.436709575264, -30022.282007012607, -30031.155649561366, -29960.837061504968, -29909.092773090935, -29948.230677632175, -30024.807754136058, -30033.837858896004, -29963.675733050793, -29911.752630681116, -29950.845831733448, -30028.115812315446, -30037.972931620236, -29968.011971475124, -29915.2618545606, -29952.790433501057, -30029.345158260487, -30039.67166419884, -29969.64364882036, -29916.71471795019, -29955.092663179956, -30032.161478061855, -30042.51033574466, -29972.41526513282, -29919.508686007106, -29957.618410303407, -30034.351949018474, -30045.125489845934, -29974.89630876736, -29920.87214241888, -29957.797224259048, -30034.0390245961, -30045.147841590388, -29975.94684075676, -29922.772040697582, -29959.473605093197, -30036.028329852623, -30047.42771952483, -29978.070256480012, -29923.755517453614, -29959.9206399823, -30037.101213586477, -30049.08174861452, -29979.88074778089, -29925.76717445459, -29961.641724305362, -30039.090518843, -30051.227516082232, -29981.490073381672, -29926.39302329934, -29962.78166327258, -30040.1410508324, -30052.836841683013, -29983.99346876067, -29930.014005901103, -29964.994485973657, -30041.66096945536, -30054.8932021729, -29986.765085073126, -29931.802145457525, -29967.184956930276, -30045.147841590388, -30059.56471676406, -29991.83893106448, -29937.30067459353, -29972.21409943272, -30050.221687581743, -30064.727969733238, -29996.51044565564, -29940.988712428658, -29975.678619823295, -30053.440338783308, -30067.924269190346, -29999.41617243483, -29944.20736363022, -29979.2772506806, -30057.418949296352, -30072.305211103587, -30004.333556215, -29948.096567165445, -29981.51242512613, -30059.162385363867, -30074.070998915555, -30006.255806238154, -29950.46585207771, -29983.41232340483, -30061.37520806494, -30077.379057094942, -30009.250939995163, -29952.432805589775, -29985.64749785036, -30063.85625169948, -30080.664763529872, -30014.347137730976, -29957.97603821469, -29990.386067674885, -30068.885394201923, -30086.52092057716, -30020.158591289353, -29963.385160372876, -29995.75048634416, -30073.221632626253, -30090.38777236793, -30024.18190529131, -29966.782625530082, -29998.56680614553, -30077.33435360603, -30095.103990448, -30028.495791971185, -29970.537718598574, -30001.539588158084, -30079.167196651364, -30097.830903271548, -30032.005015850667, -29973.89048026687, -30005.227625993208, -30084.352801364996, -30103.418839385373, -30036.967103119747, -29977.489111124174, -30006.70284112726, -30084.218690898266, -30102.122438206967, -30034.240190296197, -29973.51050061113, -30002.679527125303, -30080.1506734074, -30098.792028283126, -30031.446222239283, -29969.911869753825, -29997.963309045233, -30074.741551249215, -30093.204092169297, -30026.685300670306, -29965.955610985235, -29994.163512487834, -30071.47819655874, -30090.946565979313, -30025.65712042536, -29965.866204007412, -29995.102285754954, -30073.95924019328, -30095.640432314925, -30031.64738793938, -29971.923526754803, -30001.27136722462, -30081.67059203036, -30104.491723119227, -30041.124527588432, -29981.534776870583, -30009.720326628725, -30088.063190944576, -30110.079659233055, -30046.42189102434, -29986.2286432062, -30013.78834411959, -30091.66182180188, -30113.566531368084, -30049.14880384789, -29986.876843795402, -30012.290777241087, -30089.33724037853, -30110.236121444243, -30044.901972401378, -29982.0265152486, -30006.79224810508, -30083.302269375596, -30104.312909163586, -30038.978760120724, -29975.9244890123, -30001.159608502345, -30078.183719895333, -30100.848388773014, -30037.347082775486, -29974.49397736716, -29999.639689879383, -30078.228423384244, -30102.18949344033, -30038.66583569835, -29976.617393090415, -30002.07603002501, -30080.888280974425, -30105.76577255318, -30043.449109011784, -29981.668887337317, -30006.74754461617, -30085.313926376573, -30109.96790051078, -30046.935981146813, -29983.904061782847, -30007.75337311666, -30086.029182199145, -30111.465467389284, -30048.90293465888, -29985.245166450164, -30008.9827190617, -30087.28087988864, -30113.320662179074, -30051.965123649257, -29988.70968684074, -30012.17901851881, -30091.05832470159, -30117.656900603404, -30056.189603351308, -29992.93416654279, -30016.02351856512, -30094.545196836618, -30121.501400649715, -30060.95052492029, -29997.35981194494, -30019.979777333712, -30099.1049527055, -30127.558723397105, -30067.9466209348, -30005.093515526478, -30028.27227452663, -30107.15158070941, -30135.381833956464, -30075.725028005247, -30012.73781213019, -30035.76010891916, -30115.399374413417, -30144.188421271854, -30084.48691183173, -30021.410288978852, -30044.343178789997, -30123.848333817525, -30153.196174287343, -30094.254624158697, -30030.641559438893, -30052.903896916378, -30132.78903159965, -30163.34386627005, -30105.586958597538, -30043.00207412268, -30065.71144648927, -30145.596581172536, -30176.464340265316, -30118.34980468152, -30054.80379519508, -30076.730856505736, -30156.59363944455, -30187.796674704157, -30130.419746687385, -30066.650219756393, -30087.660859544383, -30167.16601457191, -30198.994898676265, -30141.305046237117, -30077.401408839396, -30098.456752116294, -30178.677162966393, -30210.193122648376, -30152.48091846477, -30088.443170600316, -30109.274996432665, -30188.713096226824, -30220.92195998692, -30164.416750003908, -30099.820208528068, -30119.24387445973, -30199.106657398544, -30231.31552115864, -30174.67620070889, -30110.280824933154, -30129.369214697985, -30208.539093558684, -30241.664378841448, -30184.823892691602, -30119.19917097082, -30138.019339802187, -30218.150343674464, -30251.856774313066, -30195.999764919256, -30131.067947276588, -30149.709302152314, -30229.41562287994, -30263.390274452006, -30207.287395869185, -30141.39445321494, -30159.164090056907, -30239.049224740178, -30273.80618736818, -30217.926826229912, -30151.87742136448, -30169.44589250635, -30249.30867544516, -30283.7974171397, -30227.873352512524, -30161.10869182452, -30178.297183310653, -30258.204669738374, -30294.347440522608, -30239.742128818292, -30173.290392552663, -30190.344773572062, -30270.0957977886, -30306.082106361642, -30251.432091168415, -30184.64507873596, -30200.537169043684, -30279.774103137745, -30315.71570822188, -30261.400969195485, -30194.859825952033, -30210.573102304115, -30289.877091631544, -30326.109269393597, -30272.75565537878, -30205.633366779493, -30220.586683820093, -30299.935376636433, -30336.43577533195, -30281.875167116545, -30213.8811604835, -30228.02981472371, -30306.216216828376, -30341.75549051231, -30287.351344508093, -30219.156172174953, -30232.90249501497, -30311.75944945329, -30348.61747606009, -30295.040344600722, -30227.582779834604, -30241.060881741156, -30320.029594901753, -30358.094615709142, -30305.299795305706, -30237.886934028502, -30251.9908847798, -30331.29487410723, -30369.873985037088, -30317.32503382266, -30249.889820801, -30263.50203317428, -30342.33663586815, -30380.44636016445, -30327.539781038737, -30258.18231799392, -30269.782873366225, -30347.56694407069, -30385.184929988973, -30332.412461329994, -30263.74790236329, -30276.309582747173, -30354.853612763123, -30393.656241137534, -30341.219048645384, -30272.241565256307, -30283.46214097287, -30361.53678435526, -30400.33941272967, -30348.416310359993, -30279.058847315177, -30289.586518953627, -30366.767092557802, -30405.30149999875, -30353.49015635135, -30283.350382250595, -30292.648707944, -30370.075150737186, -30409.280110511794, -30357.714636053403, -30288.04424858621, -30298.124885335554, -30376.73597058487, -30417.39379374907, -30366.744740813345, -30297.47668474635, -30307.557321495693, -30386.235461978373, -30427.049747353765, -30376.311287440218, -30306.529141250747, -30316.319205322172, -30395.042049293763, -30436.817459680733, -30387.464807923414, -30318.487324534337, -30328.456202561403, -30407.648433166556, -30450.720244731936, -30402.909863342033, -30334.647635775524, -30344.14712716903, -30422.40058450706, -30464.93595420551, -30416.298558270762, -30345.510583580803, -30353.467804606895, -30430.60367472216, -30471.797939753287, -30421.9311978735, -30351.34438888364, -30358.228726175872, -30434.26936081283, -30475.083646188217, -30424.0322618523, -30351.76907202829, -30357.312304653206, -30432.50357300086, -30473.675486287535, -30423.741689174378, -30351.880830750568, -30356.932324997466, -30432.50357300086, -30475.195404910497, -30426.31213978674, -30354.16070868501, -30359.30160990973, -30436.236314324895, -30479.419884612547, -30431.16246833354, -30359.52512735428, -30365.04600823474, -30442.226581838917, -30486.572442838245, -30438.918523659533, -30367.661162336015, -30373.651429850037, -30452.150756377076, -30497.70361157699, -30451.74842497688, -30381.63100262058, -30387.464807923414, -30464.8912507166, -30510.444105916515, -30464.108939660662, -30392.695116125957, -30397.791313861766, -30475.6424397996, -30521.575274655257, -30475.731846777424, -30404.653299409547, -30409.861255867632, -30488.31587890576, -30534.651045161612, -30489.12054170615, -30418.31021527174, -30422.668805440524, -30500.832855800734, -30548.41971974608, -30503.8503413022, -30433.375291034616, -30438.560895748247, -30517.484905419937, -30565.697618210033, -30521.32940546625, -30450.004988909364, -30453.804785466767, -30531.365338726682, -30579.57805151678, -30535.925094595565, -30464.73478850541, -30468.311067618262, -30545.312827266793, -30593.324374356795, -30549.447899991024, -30477.207061911475, -30479.08460844572, -30555.415815760593, -30603.136790172673, -30559.014446617897, -30487.041829471807, -30489.16524519506, -30565.362342043205, -30612.90450249964, -30569.631525234166, -30497.480094132436, -30498.70944007748, -30574.68301948107, -30623.00749099344, -30579.555699772325, -30506.621957614658, -30507.13604773713, -30582.90846144062, -30631.21058120854, -30587.267051609404, -30513.23807397343, -30512.65692861759, -30588.22817662098, -30637.133793489196, -30594.330202857283, -30520.61414964368, -30519.921245565565, -30595.783066246877, -30644.487517414993, -30600.409877349124, -30525.978568312952, -30524.77157411237, -30599.62756629319, -30648.980218050507, -30605.506075084937, -30530.180696270552, -30527.967873569476, -30602.779162261388, -30652.5341454189, -30609.976423975997, -30535.81333587329, -30534.069899805774, -30609.417630364613, -30659.709055389056, -30617.553665346346, -30542.518859209882, -30539.546077197323, -30613.686813555578, -30663.464148457548, -30621.308758414838, -30546.072786578276, -30541.490678964936, -30615.20673217854, -30665.341694991792, -30623.946264260565, -30549.067920335285, -30544.888144122142, -30618.04540372436, -30667.82273862633, -30626.561418361835, -30550.789004658345, -30546.117490067183, -30619.744136302965, -30671.331962505814, -30630.40591840815, -30554.94642912703, -30550.00669360241, -30623.700395071555, -30676.182291052617, -30636.619703366723, -30561.674304208078, -30555.95225762752, -30628.68483408509, -30680.764398665953, -30641.470031913526, -30566.770501943887, -30561.830766419265, -30635.792688821875, -30688.095770847296, -30647.795575594377, -30571.75494095742, -30565.60821123221, -30639.145450490174, -30692.163788338163, -30653.7858431084, -30578.549871271836, -30572.403141546627, -30646.07449127132, -30700.053954130886, -30662.4359682126, -30588.38463883217, -30582.327316084782, -30655.551630920367, -30709.486390291026, -30671.533128205912, -30596.09599066925, -30589.882205710677, -30663.218279268538, -30717.421259572657, -30680.607936454766, -30606.15427567414, -30598.91231047062, -30671.6895904171, -30725.870218976765, -30688.49810224749, -30613.06096471083, -30605.14844717365, -30678.68568643161, -30733.536867324936, -30697.014116884962, -30621.33111015929, -30612.47981935499, -30684.944174879096, -30739.7059487946, -30702.892625676708, -30627.388432906682, -30618.939473502574, -30691.157959837674, -30746.478527364558, -30710.827494958343, -30635.16683997713, -30625.510886372434, -30696.947061651597, -30752.379387900757, -30716.907169450187, -30641.358273191247, -30631.948188775565, -30702.870273932254, -30758.593172859335, -30723.7020997646, -30648.130851761205, -30638.050215011863, -30709.75461122449, -30766.215117718595, -30731.99459695752, -30656.31159023185, -30646.230953482504, -30718.40473632869, -30775.647553878734, -30742.27639940696, -30667.465110715046, -30657.764453621443, -30730.56408531238, -30789.080952296372, -30756.760329814, -30682.954869622576, -30673.88006137372, -30747.529059353958, -30807.118810071806, -30775.80401608992, -30701.819741942854, -30692.11908484925, -30765.23164096256, -30824.642577724768, -30792.94780408714, -30718.22592237305, -30707.117105378762, -30778.396818446738, -30836.846630197364, -30805.598891448844, -30730.27351263446, -30717.533018294936, -30787.829254606877, -30845.317941345926, -30812.70674618563, -30736.353187126304, -30723.009195686485, -30792.634879664765, -30850.235325126094, -30817.087688098873, -30739.95181798361, -30725.8031637434, -30795.25003376604, -30853.722197261122, -30822.09447885686, -30745.47269886407, -30731.79343125742, -30802.268481525003, -30861.925287476217, -30831.728080717097, -30756.5591641139, -30743.751614541008, -30815.299548542447, -30877.079770216915, -30849.005979181053, -30774.84289107834, -30762.840004305843, -30834.834973196386, -30896.77165708204, -30868.988438724096, -30794.892405854753, -30782.017801048496, -30853.990418194586, -30916.083564291428, -30888.859139544864, -30815.679528198187, -30802.62610943629, -30874.01758122654, -30936.714224423675, -30909.512151421568, -30835.39376680777, -30822.250941068047, -30894.000040769584, -30957.300181067014, -30930.768660398564, -30857.05260718496, -30842.92630468921, -30913.870741590352, -30976.835605720953, -30949.74529144112, -30874.82224402693, -30859.980685708608, -30929.762831898075, -30992.37006811739, -30965.726788726664, -30890.267299445546, -30874.73283704911, -30944.291465794024, -31006.94340550225, -30980.881271467362, -30905.935872308717, -30889.864968045353, -30959.64711423482, -31022.85784755443, -30997.13098968637, -30922.565570183466, -30907.053459531482, -30976.857957465407, -31040.940408818773, -31015.74999281764, -30941.385739014833, -30925.203076029193, -30994.962870474206, -31058.821804383017, -31033.81020233753, -30959.44594853472, -30943.129175082348, -31012.08430672697, -31076.591441224988, -31052.697426402265, -30978.109655154905, -30960.719997968674, -31029.965702291218, -31095.210444356257, -31071.651705700366, -30997.2651001531, -30979.495463311134, -31048.629408911398, -31113.4941713207, -31090.136598364905, -31015.682937584275, -30997.622728064387, -31066.28728703109, -31131.68849130732, -31108.152104395882, -31033.2737604706, -31015.347661417447, -31084.213386084248, -31150.44160490532, -31128.2463226612, -31053.658551413842, -31034.816030838017, -31103.279424104625, -31169.284125481146, -31146.64180834792, -31071.67405744482, -31051.62454266841, -31118.3444998675, -31184.483311710756, -31162.377436444454, -31087.186168096803, -31066.488452731188, -31132.71667155226, -31198.251986295225, -31176.36962847348, -31100.26193860316, -31079.564223237543, -31147.647636848407, -31214.54640800314, -31193.35695425951, -31118.72447952324, -31098.02676415763, -31166.06547427958], [-20712.132240788014, -20676.525911870707, -20684.885464296993, -20704.66675813994, -20687.500618398266, -20635.778681728683, -20599.390041755443, -20607.99546337074, -20628.916696180906, -20612.443460517345, -20560.67682035885, -20524.712863530265, -20532.893602000906, -20553.636020855432, -20537.74393054771, -20486.133752600403, -20450.080388793995, -20458.23877552018, -20478.936490885793, -20463.200862789257, -20411.791850542053, -20374.866768701886, -20382.376954838866, -20402.381766126367, -20386.824951985473, -20336.01943683856, -20299.161410231758, -20305.844581823898, -20326.095262300405, -20310.851372581885, -20259.86704347933, -20223.344293039358, -20230.80977568743, -20251.932174197696, -20237.314133323925, -20186.553321665924, -20149.538832847935, -20156.780798051455, -20177.299699461426, -20162.301678931915, -20111.943198674107, -20075.375744745226, -20083.44472449359, -20105.617654993257, -20092.228960064527, -20042.451625162557, -20005.012453199917, -20012.14265968116, -20034.069720991818, -20020.658674318634, -19970.903691161122, -19934.24683025442, -19941.980533835955, -19963.639374213144, -19949.80364439531, -19899.489867626413, -19861.35779158566, -19868.108018411163, -19889.073954710242, -19875.03705919231, -19824.522116723314, -19786.25593021583, -19792.603825641138, -19813.882686362587, -19800.44928794495, -19749.95669722041, -19711.712862457378, -19717.971350904867, -19739.652543026514, -19726.643827753524, -19676.732382384824, -19638.667361577434, -19645.574050614126, -19668.350478214084, -19656.101722252577, -19606.21262862833, -19568.54993922114, -19575.434276513373, -19598.031890157687, -19585.760782451725, -19535.759930105203, -19497.560798831084, -19503.707528556293, -19525.411072422394, -19512.894095527423, -19463.13911236991, -19425.141146795886, -19431.444338732283, -19453.974897143235, -19442.195527815285, -19392.507599891138, -19354.040247683555, -19360.16462566431, -19383.298681175555, -19372.07810545899, -19323.10543335741, -19284.68278463874, -19290.136610285834, -19312.39894776332, -19301.312482513487, -19252.272755178543, -19213.157202381757, -19218.72278675113, -19241.47686260663, -19230.23393514561, -19181.596539210863, -19143.017428281, -19148.560660905918, -19171.918233861714, -19161.50232094554, -19112.730814544062, -19073.950537914105, -19079.694936239117, -19103.25367489501, -19093.128334656758, -19044.289773021912, -19005.487144647497, -19010.963322039046, -19034.030322316925, -19023.90498207867, -18974.70879253254, -18934.85563216873, -18939.661257226617, -18962.41533308212, -18952.424103310597, -18903.630245164662, -18863.91119526758, -18868.582709858743, -18891.850875836717, -18882.21727397648, -18834.16102339757, -18794.710194433952, -18799.649929958574, -18822.91809593655, -18812.5915899982, -18764.22241499691, -18724.212792421913, -18727.90083025704, -18750.85607181264, -18741.066007741214, -18692.227446106368, -18651.770788642265, -18656.151730555503, -18680.02339363377, -18670.94858538492, -18622.132375494526, -18581.809828497153, -18585.900197732473, -18608.654273587978, -18599.82533452813, -18552.059656627138, -18512.318254985603, -18517.01212132122, -18540.86143265503, -18532.323066273104, -18484.490333138747, -18444.23484137474, -18448.07934142105, -18470.90047250992, -18462.026829961163, -18414.104689848984, -18373.82684634052, -18377.984270809207, -18402.16885830985, -18394.01047158366, -18346.468311127224, -18305.788136218565, -18309.163249631318, -18332.699636542755, -18324.876525983396, -18277.490827738147, -18236.833004573942, -18240.051655775507, -18263.94567059823, -18256.502539694615, -18208.98273098263, -18168.6378322408, -18172.012945653554, -18196.242236643106, -18188.910864461766, -18141.50281447206, -18100.934398285677, -18103.86247680932, -18127.64473290977, -18120.358064217337, -18073.329993883373, -18032.51570850798, -18036.09198762083, -18060.164816399196, -18053.14636864023, -18005.648911672703, -17964.722867575034, -17967.762704820958, -17992.37197546625, -17986.493466674503, -17940.65003879667, -17899.858105165735, -17902.58501798928, -17926.747253745467, -17920.86874495372, -17874.10889555322, -17833.29461017783, -17836.177985212566, -17860.25081399093, -17854.14878775463, -17807.500697076404, -17765.971155878444, -17767.625184968136, -17791.80977246878, -13233.484415231278, -13221.302714503136, -13244.839101414575, -13252.617508485022, -13215.826537111585, -13167.4573621103, -13155.454475337801, -13178.476772126767, -13186.74691757523, -13150.894719468919, -13102.30202702308, -13090.030919317118, -13113.433195761823, -13122.619762732955, -13086.25347450417, -13037.258450658137, -13024.853232485442, -13048.300212419059, -13056.615061356433, -13020.00290393864, -12970.337327758949, -12957.75329563061, -12981.870827897887, -12992.063223369507, -12956.389839218837, -12907.059539205973, -12893.73789951061, -12916.491975366114, -12924.98563825913, -12889.200495386183, -12840.227823284606, -12826.928535333698, -12849.59320421138, -12858.109218848851, -12822.502889931548, -12772.993775963043, -12759.202749634118, -12781.755659789522, -12791.657482583223, -12756.721705999578, -12707.592571686813, -12693.578027913336, -12715.57214445736, -12724.624600961757, -12689.062975533365, -12639.732675520501, -12626.098111402764, -12648.896890747177, -12658.418733885139, -12623.68412300159, -12575.113782300208, -12561.434514693561, -12584.859142882722, -12595.431518010082, -12561.210997249007, -12511.701883280502, -12497.66498776257, -12519.86027000669, -12529.76209280039, -12495.005130172389, -12445.56307143725, -12431.682638130504, -12454.973155852933, -12465.344365280196, -12431.257954985853, -12382.195875906453, -12367.376669332585, -12389.54959983225, -12400.367844148619, -12366.54965478774, -12316.72761639686, -12302.109575523089, -12324.550726956217, -12335.234860805853, -12301.528430167251, -12251.773447009737, -12236.909536946958, -12259.507150591273, -12270.593615841106, -12237.960068936358, -12188.98739683478, -12173.855265838536, -12196.050548082656, -12206.89114414348, -12173.341175716065, -12123.563840814095, -12108.766985984683, -12131.364599628998, -12143.389838145953, -12111.091567408033, -12062.05184007309, -12046.964412565758, -12069.316157021065, -12080.492029248719, -12047.3443922215, -11998.774051520117, -11983.865437968427, -12006.127775445912, -12017.773034307127, -11985.47476356921, -11936.055056578525, -11920.699408137729, -11942.849986892938, -11954.964632387715, -11922.666361649795, -11872.889026747827, -11857.73454400713, -11880.376861140354, -11892.245637446124, -11860.260291130578, -11810.505307973064, -11794.277941498513, -11816.272058042534, -11828.476110515132, -11796.401357221766, -11746.534615341976, -11730.664876778708, -11753.173083445203, -11765.71241208463, -11733.592955302352, -11684.575579711865, -11668.571730681864, -11691.079937348359, -11704.356873554812, -11672.706803406098, -11622.951820248583, -11606.322122373835, -11628.249183684491, -11640.989678024016, -11609.741939275496, -11560.009307862438, -11543.156092543137, -11564.658470709142, -11576.169619103626, -11544.966583844016, -11495.122193708683, -11478.090164433737, -11499.346673410735, -11512.154222983627, -11481.286463890847, -11432.090274344717, -11415.192355536505, -11436.73943719142, -11449.994021653418, -11418.96980034945, -11368.611320091644, -11351.020497205318, -11372.656985838055, -11385.643349366588, -11355.021459462818, -11305.512345494313, -11287.988577841352, -11309.178031584983, -11322.14204336906, -11291.788374398753, -11242.122798219061, -11224.397864866003, -11245.922594776464, -11260.071249016673, -11230.432835868936, -11180.92372190043, -11162.930567613908, -11184.276483568727, -11197.59812326409, -11167.289157782694, -11117.020084502708, -11098.378729626982, -11119.635238603978, -11133.783892844189, -11104.72662505229, -11055.351621550515, -11037.045542841619, -11058.816141941088, -11074.529418293168, -11046.723848190768, -10997.304141200084, -10978.863952024454, -10999.8969435569, -11014.514984430669, -10985.569475361048, -10935.054532892053, -10916.390826271872, -10937.803797460056, -10952.131265655908, -10923.11870135292, -10874.213084484707, -10855.683488331259, -10876.738831608156, -10891.714500393213, -10863.48424714616, -10813.550450033004, -10793.970321890154, -10814.153947133296, -10829.464892085183, -10801.435804538227, -10751.524359169527, -10731.787768815491, -10752.306670225462, -10767.259987266063, -10739.499120652572, -10689.475916561594, -10669.471105274095, -10690.526448550994, -10706.35148362535, -10678.568265267404, -10629.036799554444, -10609.121395244765, -10629.886165843745, -10645.286517773453, -10617.77152034897, -10568.284758124919, -10548.972850915534, -10569.84938023679, -10585.80852577788, -10557.980603931022, -10507.93504809559, -10487.706719363538, -10508.22562077351, -10524.497690736973, -10497.720300879515, -10447.920614233091, -10427.73698898995, -10448.21118691101, -10464.840884785759, -10437.616460039195, -10387.280331525842, -10366.828485349237, -10387.503848970397, -10403.798270678315, -10376.730308142938, -10327.265897663343, -10306.545830553274, -10325.969496484935, -10341.794531559293, -10315.263010890843, -10264.971585866402, -10244.028001311779, -10264.725716677394, -10281.578931996695, -10254.488617716863, -10204.577172348163, -10183.834753493638, -10204.152489203512, -10220.78218707826, -10194.362425132087, -10144.38392453002, -10123.038008575202, -10142.640488462506, -10159.91838692646, -10134.057418591668, -10084.391842411977, -10062.777705523695, -10082.51429587773, -10099.859249575049, -10074.020632984715, -10023.438635282355, -10001.3104082716, -10020.421149780888, -10037.69904824484, -10011.949838632327, -9962.351317686, -9940.91599475336, -9959.870274051462, -9976.030585292649, -9950.3484309135, -9900.235819844702, -9877.749964922663, -9897.10657562096, -9914.809157229562, -9889.886962161894, -9840.064923771015, -9817.780234549075, -9837.382714436379, -9855.085296044981, -9829.783121321574, -9779.156420130304, -9755.709440196686, -9774.328443327957, -9792.120431914382, -9767.30999556899, -9717.219736244648, -9694.085680733406, -9713.129367009327, -9731.100169551393, -9706.692064606199, -9656.646508770766, -9633.937136404174, -9652.757305235542, -9669.789334510486, -9645.023601654006, -9595.223915007582, -9571.888693796242, -9590.731214372065, -9609.28316226997, -9585.366795702792, -9534.941260211619, -9511.06959713335, -9529.912117709175, -9548.08408595134, -9523.005428672484, -9471.886989103197, -9448.194139980573, -9466.947253578575, -9485.029814842917, -9461.7840006094, -9412.185479663072, -9388.872610196187, -9407.759834260922, -9426.512947858924, -9403.356540603227, -9353.46744697898, -9328.947583311508, -9347.27601376486, -9365.716202940488, -9342.604499173702, -9292.804812527278, -9268.933149449009, -9287.59685606919, -9306.84170804521, -9284.065280445253, -9234.936146132488, -9211.422110965505, -9230.309335030239, -9249.35302130616, -9226.35307626165, -9176.106354726118, -9151.586491058648, -9170.406659890015, -9189.562104888213, -9166.942139499442, -9117.790653442224, -9093.471955474848, -9111.912144650478, -9131.961659426888, -9110.459281260883, -9060.950167292378, -9036.184434435896, -9054.065830000143, -9073.333033720617, -9051.204806709864, -9001.874506697, -8977.06407035161, -8995.459556038328, -9015.509070814738, -8993.53730601517, -8943.804674602112, -8918.770720812168, -8936.361543698495, -8956.053430563621, -8934.796921586623, -8885.37721459594, -8860.186798594808, -8878.269359859152, -8898.274171146651, -8876.972958680744, -8827.84382436798, -8802.943981044767, -8820.89243184238, -8841.120760574433, -8820.490100442184, -8771.584483573972, -8745.835273961458, -8763.180227658777, -8783.721480813203, -8763.314338125509, -8714.542831724028, -8688.771270367059, -8706.026817086557, -8726.836291174448, -8706.71972116467, -8657.881159529825, -8632.064894683945, -8649.074572214433, -8669.10173524639, -8648.493426858597, -8599.364292545832, -8573.704489911139, -8590.870629652814, -8611.545993273974, -8590.89298139727, -8541.227405217578, -8514.964105482592, -8532.756094069016, -8554.414934446208, -8534.924213281181, -8486.1527068797, -8459.844703655805, -8477.167305608667, -8498.803794241405, -8479.53659052093, -8430.519214930442, -8404.65824659565, -8422.539642159896, -8444.466703470553, -8425.735941617006, -8377.299711382355, -8351.706963981029, -8369.141324656168, -8391.493069111475, -8373.142286913668, -8324.482539234465, -8298.241591243934, -8315.675951919075, -8337.64771671864, -8319.699265921028, -8271.3524426642, -8244.865625484661, -8262.188227437524, -8284.584675381742, -8266.345651906211, -8217.775311204829, -8190.908514369549, -8207.605267477664, -8230.180529377523, -8212.723816957929, -8164.511104167832, -8138.091342221659, -8155.23513021888, -8178.168020030024, -8160.599548888154, -8111.626876786576, -8084.000120639816, -8100.0263214142715, -8122.758045525318, -8105.390740083545, -8056.3510127486015, -8028.232518223825, -8044.526939931744, -8066.990443109327, -8049.220806267358, -8000.628113821521, -7973.157819885948, -7989.67575903842, -8012.407483149467, -7995.464860852345, -7947.542720740166, -7919.75950238222, -7935.85275839004, -7958.76329645673, -7942.290060793169, -7894.233810214259, -7866.361184878491, -7882.297978675125, -7904.627371385976, -7887.975321766773, -7839.986126421229, -7812.4040737633795, -7829.279640827137, -7852.771324249665, -7836.856882197486, -7788.599465918478, -7760.2798056936035, -7776.216599490238, -7799.3730067459355, -7782.832715849008, -7734.664706547822, -7706.14388062285, -7721.365418596914, -7744.432418874791, -7728.607383800434, -7680.528781477068, -7652.343231718926, -7667.56476969299, -7690.765880437599, -7674.784383152054, -7626.325801172949, -7596.821498491943, -7611.931277743731, -7634.618298365867, -7618.390931891315, -7569.909998167754, -7540.405695486748, -7555.202550316161, -7578.3142540829485, -7562.377460286315, -7513.583602140379, -7483.229933170072, -7497.736215321567, -7521.205546999639, -7506.073416003396, -7458.330089846861, -7428.6916766991235, -7443.33206931735, -7466.577883550869, -7451.311642087894, -7403.009522319976, -7373.460516150059, -7388.123260512742, -7411.637295679724, -7396.8180891058555, -7348.7394867824905, -7319.369294568217, -7334.456722075549, -7359.1330479542075, -7345.096152436275, -7298.11278559122, -7268.653186399125, -7282.623026683692, -7306.204117084041, -7291.831945399278, -7244.021564009377, -7213.7349502724355, -7227.570680090271, -7251.978785035466, -7238.411276151094, -7190.3773773166395, -7159.956653112967, -7173.9935486309, -7198.200487875997, -7184.3871098026175, -7136.822597601724, -7106.401873398051, -7120.058789260243, -7143.751638382869, -7130.429998687506, -7083.3125213757185, -7052.735334960858, -7066.615768267605, -7090.576838323694, -7076.919922461501, -7029.3107067716965, -6998.062968023178, -7011.094035040622, -7035.904471386012, -7022.783997390748, -6975.353595656586, -6943.390601085496, -6956.37696461403, -6980.42744164794, -6966.94933974139, -6919.138958351488, -6888.405309725441, -6902.151632565455, -6926.716199721837, -6914.1992228268655, -6867.059393770623, -6835.20815792181, -6848.038059239157, -6871.909722317425, -6858.1186959885, -6810.330666343054, -6778.0770990940455, -6790.482317266741, -6815.203346634311, -6802.5522592726065, -6755.278319749632, -6723.002400756169, -6735.161749739856, -6759.458095962775, -6746.784656856616, -6699.08603418899, -6666.676004728795, -6678.3436153344655, -6702.7070167907505, -6690.748833507161, -6643.586652706463, -6610.97545754617, -6622.97834431867, -6647.565263219508, -6634.936527602259, -6587.372015401365, -6554.693765007707, -6566.406079102288, -6590.858887536394, -6578.833649019439, -6531.67146821874, -6498.590886424886, -6510.213793541646, -6534.95717465367, -6523.133101836813, -6475.23331346909, -6442.353897375334, -6453.932101003183, -6478.85429607085, -6467.387851165277, -6420.046856408937, -6386.273370536968, -6396.97985613106, -6421.522071542987, -6410.100330126325, -6362.893445836717, -6329.589346598309, -6340.094666492304, -6364.301605737402, -6352.7457538540075, -6304.823613741829, -6270.491334258478, -6281.175468108114, -6306.052959686871, -6295.1006049037705, -6247.80431363634, -6213.986124275461, -6224.737313358464, -6249.815970637318, -6239.064781554316, -6192.170821687081, -6158.062059648283, -6168.142696397626, -6192.997836231928, -6182.6936820380315, -6135.822073915252, -6101.892125832096, -6111.995114325895, -6137.274937304847, -6126.881376133129, -6080.143878477083, -6046.191578649471, -6056.473381098912, -6081.932018033507, -6072.276064428815, -6025.270345839303, -5990.5133832113015, -6000.23639204936, -6024.823310950197, -6014.541508500756, -5968.049880033717, -5933.427027872447, -5942.904167521497, -5968.3851562005475, -5958.975071784863, -5912.3269811066375, -5877.8158876676425, -5887.695358716889, -5913.310457862671, -5904.056835658173, -5857.20757927985, -5822.4059131629365, -5831.994811534263, -5857.073468813118, -5847.5292739307015, -5800.724721041289, -5765.878351435465, -5775.802525973621, -5801.52938384168, -5792.5216308261915, -5745.538263981136, -5709.417844941359, -5717.911507834377, -5743.772476169166, -5735.2341097872395, -5688.496612131192, -5653.046745425075, -5661.003966451164, -5686.328492919028, -5677.767774792645, -5631.410256792338, -5595.736872641668, -5604.2752390235955, -5629.331544557995, -5620.659067709335, -5574.010977031109, -5537.912909735788, -5546.0489447175205, -5571.462878163205, -5563.282139692562, -5516.991676925621, -5480.670092185747, -5488.426147511738, -5514.041246657521, -5505.927563420244, -5460.1735425202305, -5424.209585691641, -5431.7644753175355, -5457.424277952227, -5450.025850537521, -5403.958905215133, -5367.883189664268, -5376.198038601642, -5401.991951703067, -5394.347655099351, -5348.414820243695, -5312.361456437285, -5320.698657119115, -5346.9619568541, -5339.630584672759, -5293.988322495023, -5257.376165077229, -5264.908702958668, -5291.2390579270195, -5284.220610168053, -5239.047734623878, -5202.167356272621, -5209.096397053766, -5234.756199688459, -5227.536586229395, -5181.536696140372, -5145.192759656044, -5152.9488149820345, -5178.742728083459, -5171.92544602459, -5126.260832102398, -5089.201639795499, -5095.974218365457, -5122.058704144801, -5115.599049997217, -5070.090898286212, -5033.054057723768, -5040.1395607161, -5066.492267428907, -5060.680813870527, -5014.904441226058, -4977.331158796687, -4984.908400167036, -5011.618734791128, -5005.695522510472, -4960.165019055012, -4922.7258470923725, -4929.006687284314, -4954.97941434138, -4948.7879811272605, -4902.721035804872, -4864.544256275208, -4870.668634255962, -4896.619009568573, -4890.874611243559, -4845.858197910571, -4808.3296189701105, -4814.342238228588, -4840.739648430306, -4835.665802438951, -4790.2470577057675, -4752.450257831843, -4758.909911979426, -4785.441432647876, -4780.166420956423, -4734.993545412248, -4696.615600182486, -4701.801204896117, -4726.768103452695, -4721.4483882723325, -4677.035472039637, -4638.7469337876955, -4643.01611697866, -4668.16182949088, -4663.244445710712, -4619.144453900391, -4581.258247048646, -4586.488555251188, -4612.371875330434, -4607.655657250364, -4562.795706128562, -4524.685981832264, -4529.826883056985, -4555.933720580783, -4551.686889134275, -4507.385731623856, -4468.605454993899, -4473.12050737387, -4499.1602896643035, -4495.069920428982, -4450.83581815193, -4411.384989188313, -4415.184785745715, -4440.978698847139, -4437.2906610120135, -4393.257724435059, -4354.611558271832, -4358.3442995958685, -4384.272323164025, -4380.427823117712, -4335.545520251456, -4295.670008143188, -4299.268639000492, -4324.95079337964, -4321.173348566693, -4277.118060245283, -4237.756638259487, -4241.087048183328, -4266.880961284753, -4263.259978682992, -4219.159986872672, -4179.329178253314, -4182.503125965968, -4208.207632089571, -4205.190146588105, -4161.447782689069, -4122.153415936639, -4125.707343305033, -4151.747125595466, -4148.7296400939995, -4105.009627939418, -4064.575322219768, -4067.1457728321284, -4093.297313844838, -4090.5704010212903, -4047.006851077897, -4007.623077347646, -4010.908783782576, -4037.485007939936, -4035.1827782610394, -3991.4404143620036]]
