[[-28885.069952615497, -28881.873653158385, -28827.670672854267, -28805.631852821334, -28855.744463890132, -28918.39640359836, -28916.876484975397, -28862.874670371377, -28839.315931715482, -28885.9193189048, -28943.273895177117, -28935.853116017952, -28874.519929232592, -28842.869859083876, -28882.18657758076, -28933.57323808351, -28919.111659420927, -28849.977713820663, -28810.88451276833, -28842.355768961403, -28886.634574727366, -28867.6132401959, -28795.797085260998, -28754.714578952146, -28785.82820723393, -28831.939856045232, -28816.6512628378, -28749.93130563871, -28715.420212199715, -28754.759282441057, -28810.146905201305, -28805.095410954407, -28747.807889915453, -28721.58929366938, -28769.109102381364, -28832.118670000873, -28833.549181646013, -28781.380210087325, -28758.670837720736, -28807.12941969984, -28869.24491754114, -28868.28379252956, -28812.091506968918, -28782.654259521278, -28824.496725141613, -28880.82312116899, -28873.62585945438, -28811.30919591298, -28775.9934396736, -28811.17508544625, -28860.99712383713, -28848.681312642257, -28781.380210087325, -28740.6329799453, -28769.958468670666, -28816.450097137702, -28800.915634741265, -28729.72532865111, -28686.497054874548, -28715.040232543975, -28759.833128432412, -28743.35989276885, -28672.43780761216, -28629.99184489153, -28660.211403395107, -28708.938206307677, -28698.030555013487, -28633.56812400438, -28597.023021819954, -28633.836344937845, -28690.49801713205, -28688.48636013107, -28632.67405422617, -28604.667318423668, -28649.750786990022, -28714.43673544368, -28719.890561090775, -28669.8673569998, -28645.794528221435, -28694.096647989354, -28760.481329021615, -28766.046913390986, -28714.324976721404, -28686.452351385637, -28730.12766005131, -28791.93023347023, -28791.863178236865, -28733.45806997515, -28699.48341840308, -28737.459032232648, -28794.590091060414, -28791.885529981322, -28732.765165897035, -28697.24824395755, -28733.078090319406, -28788.957451457674, -28785.64939327829, -28725.34438673787, -28688.553415364437, -28724.092689048375, -28779.50266355308, -28775.434646062215, -28714.459087188137, -28677.019915225497, -28712.469781931613, -28768.773826214532, -28766.046913390986, -28705.8760173173, -28669.397970366237, -28705.987776039576, -28763.476462778624, -28762.247116833583, -28702.679717860192, -28666.268726142494, -28701.20450272614, -28756.92740165322, -28753.77580568502, -28691.50384563254, -28651.71774050209, -28683.703086817633, -28737.280218277006, -28732.295779263473, -28668.369790121294, -28627.019062878975, -28657.797414993933, -28712.380374953795, -28709.385241196782, -28647.582667777857, -28608.735335914535, -28642.933504931156, -28700.221025970106, -28700.980985281585, -28643.984036920552, -28608.824742892357, -28646.04039741044, -28706.703031862144, -28710.01109004153, -28653.975266692076, -28619.08419359734, -28655.986923693054, -28715.755488366543, -28717.297758733963, -28659.160871405707, -28621.274664553963, -28654.62346728128, -28712.179209253696, -28712.69329937617, -28653.52823180297, -28615.351452273306, -28649.32610384537, -28708.178246996195, -28710.659290630734, -28653.81880448089, -28617.13959182973, -28652.745920747035, -28713.20738949864, -28717.186000011683, -28661.351342362326, -28625.34268204483, -28661.083121428863, -28721.991625069575, -28726.283160004994, -28669.934412233164, -28632.71875771508, -28667.00633370952, -28725.478497204604, -28727.423098972216, -28668.48154884357, -28628.04724312392, -28659.71966501709, -28716.627206400302, -28717.029537800496, -28656.8139382379, -28614.278568539452, -28642.084138641854, -28695.884787545776, -28693.73902007807, -28629.99184489153, -28583.56727165786, -28608.66828068117, -28660.278458628472, -28656.925696960177, -28592.485617695525, -28545.524602594927, -28571.922012796644, -28626.14734484522, -28626.75084194551, -28567.56342262786, -28525.877419218712, -28556.85693703377, -28616.647853451712, -28622.839286665832, -28567.630477861225, -28530.280712876407, -28566.17761447163, -28630.9082664142, -28641.72651073057, -28591.278623494938, -28557.75100681198, -28596.46422820857, -28663.47475808558, -28676.30465940293, -28626.52732450096, -28591.546844428405, -28627.689615212636, -28692.017935755008, -28702.411496926725, -28649.32610384537, -28688.06167698642, -28751.853555661866, -28777.066323407453, -28732.8322211304, -28684.66421182921, -28703.529084149493, -28768.662067492256, -28795.618271305357, -28753.149956840272, -28706.323052206404, -28727.26663676103, -28794.254814893582, -28822.060384995984, -28779.70382925318, -28733.25690427505, -28753.12760509582, -28818.975844261153, -28846.915524830285, -28803.620195820356, -28754.714578952146, -28773.26652685005, -28838.198344492717, -28865.400417494824, -28821.501591384604, -28771.254869849072, -28787.50458806808, -28850.894135343333, -28877.42565601178, -28832.990388034632, -28781.6931345097, -28795.88649223882, -28857.912583102298, -28882.767722936598, -28836.968998547676, -28784.397695588792, -28797.674631795246, -28858.672542413777, -28883.52768224808, -28837.7066061147, -28784.17417814424, -28796.73585852812, -28857.42084472428, -28882.343039791947, -28836.94664680322, -28784.084771166417, -28796.579396316934, -28857.57730693547, -28882.90183340333, -28836.499611914114, -28783.213053132662, -28795.953547472185, -28857.443196468736, -28882.67831595878, -28836.678425869755, -28783.36951534385, -28795.797085260998, -28857.42084472428, -28884.28764155956, -28839.159469504295, -28785.202358389182, -28797.585224817423, -28858.918411602786, -28885.695801460246, -28841.685216627746, -28787.906919468274, -28799.17219867375, -28860.84066162594, -28888.042734628052, -28844.27801898456, -28791.37143985885, -28802.949643486696, -28864.796920394532, -28893.228339341684, -28850.58121092096, -28798.32283238445, -28810.88451276833, -28873.67056294329, -28903.756010980134, -28861.824138381977, -28809.364594145372, -28822.17214371826, -28886.276946816084, -28916.608264041934, -28875.704571688722, -28823.826172807956, -28836.164335747286, -28899.375069066893, -28929.77344152611, -28889.04856312854, -28836.678425869755, -28848.256629497606, -28911.221493628203, -28941.709273065244, -28901.14085687886, -28849.418920209282, -28861.555917448513, -28925.526610079603, -28957.40019767287, -28917.43527858678, -28865.087493072453, -28876.889214144852, -28940.301113164558, -28971.750017613176, -28931.472174104714, -28878.38678102336, -28889.070914872995, -28951.454633647758, -28982.54591018509, -28942.20101144326, -28887.886272416865, -28897.072839387994, -28958.87541280692, -28989.474950966236, -28948.705369079755, -28895.083534131474, -28904.717135991712, -28967.413779188846, -28999.73440167122, -28960.14946224087, -28905.275929603093, -28914.037813429575, -28976.55564267107, -29008.60804421998, -28969.20191874527, -28915.133048907883, -28924.252560645647, -28986.50216895368, -29019.225122836247, -28979.908404339363, -28925.19133391277, -28933.19325842777, -28995.30875626907, -29027.78584096263, -28987.843273620998, -28933.550886339057, -28942.15630795435, -29004.6964889403, -29037.754718989698, -28999.130904570928, -28944.860869033444, -28951.96872377023, -29013.324262300048, -29045.913105715885, -29005.79172441861, -28950.02412200262, -28956.170851727828, -29016.386451290426, -29049.019998195174, -29009.368003531457, -28953.06395924854, -28958.651895362367, -29019.202771091794, -29051.545745318625, -29011.93845414382, -28956.21555521674, -28962.183470986307, -29023.27078858266, -29057.267791899183, -29018.800439691597, -28962.40698843086, -28967.905517566865, -29029.484573541235, -29064.107425702507, -29026.64590199541, -28971.414741446348, -28977.293250238094, -29038.84995446801, -29073.629268840465, -29036.324207344558, -28981.31656424005, -28986.949203842785, -29048.46120458379, -29083.62049861199, -29046.784823749644, -28991.35249750048, -28996.158122558372, -29057.446605854824, -29092.672955116388, -29056.664294798888, -29001.321375527546, -29005.478799996235, -29066.65552457041, -29102.12774302098, -29065.448530369824, -29009.368003531457, -29012.653709966387, -29072.891661273443, -29108.34152797956, -29071.058818228106, -29014.17362858935, -29017.660500724378, -29078.032562498163, -29113.795353626654, -29076.691457830842, -29018.50986701368, -29019.51569551417, -29078.300783431627, -29113.23656001527, -29075.640925841442, -29016.766430946165, -29017.45933502428, -29075.104483974515, -29108.94502507985, -29071.416446139392, -29012.430192521835, -29012.005509377184, -29069.114216460493, -29103.357088966026, -29065.98497223675, -29007.17753257484, -29006.41757326336, -29064.152129191418, -29098.28324297467, -29059.726483789265, -28999.801456904588, -28998.616814448455, -29056.12785293196, -29091.130684748972, -29054.004437208707, -28994.280576024124, -28993.274747523636, -29050.6069720515, -29086.36976317999, -29049.7576057622, -28990.36902074445, -28989.07261956604, -29046.69541677182, -29083.173463722884, -29047.768300505675, -28988.558529443566, -28986.792741631598, -29044.102614415006, -29080.46890264379, -29044.482594070745, -28985.49634045319, -28985.094009052995, -29044.12496615946, -29082.391152666947, -29049.51173657319, -28992.40302948988, -28991.6430701784, -29050.897544729418, -29090.48248415977, -29057.871288999475, -29000.561416216067, -29000.941395871807, -29061.447568112322, -29101.412487198413, -29069.427140882868, -29012.36313728847, -29011.6478814659, -29070.768245550185, -29110.867275103006, -29078.680763087366, -29021.192076348318, -29019.538047258622, -29078.479597387268, -29118.712737406822, -29086.883853302465, -29028.344634574016, -29025.774183961654, -29084.80514106812, -29125.060632832126, -29092.449437671836, -29033.574942776555, -29031.384471819936, -29090.437780670858, -29131.229714301793, -29099.6690511309, -29041.08512891354, -29037.84412596752, -29095.511626662214, -29135.185973070384, -29103.24533024375, -29044.16966964837, -29040.03459692414, -29097.366821452004, -29137.66701670492, -29106.173408767394, -29047.03069293865, -29042.38153009195, -29098.86438833051, -29138.315217294126, -29105.748725622743, -29045.80134699361, -29040.816907980075, -29097.61269064101, -29138.00229287175, -29106.128705278483, -29046.31543711608, -29041.599219036012, -29098.931443563873, -29140.14806033946, -29110.062612302616, -29051.523393574167, -29046.963637705285, -29104.362917466515, -29146.6300662315, -29117.282225761683, -29058.43008261086, -29053.579754064056, -29111.4707722033, -29153.5814587571, -29124.501839220746, -29065.672047814376, -29060.128815189462, -29117.014004828216, -29158.811766959643, -29128.882781133987, -29069.69536181633, -29064.12977744696, -29121.66316767492, -29164.5338135402, -29135.208324814837, -29075.775036308176, -29069.427140882868, -29125.708833421333, -29167.931278697408, -29139.164583583428, -29079.820702054585, -29073.159882206906, -29129.799202656654, -29172.356924099557, -29143.590228985577, -29084.581623623566, -29077.965507264795, -29135.208324814837, -29177.83310149111, -29148.887592421484, -29089.05197251463, -29082.212338711302, -29138.71754869432, -29181.454084092868, -29153.424996545913, -29094.461094672813, -29087.42029516939, -29143.701987707853, -29187.958441729363, -29161.270458849725, -29101.881873831975, -29093.589376639055, -29150.38515929999, -29195.222758677337, -29168.557127542157, -29110.531998936178, -29104.22880699978, -29161.493976294278, -29206.711555327365, -29180.939993970394, -29122.378423497492, -29115.181161782883, -29172.759255499754, -29219.206180477882, -29194.172226687937, -29136.191801570872, -29129.195705556358, -29186.61733706204, -29232.59487540661, -29208.119715228047, -29150.29575232217, -29143.25495281875, -29200.676584324432, -29247.369378491567, -29223.050680524193, -29164.377351329014, -29155.34724656907, -29211.561883874165, -29257.807643152195, -29233.578352162644, -29175.039133434195, -29166.232546118805, -29222.469535168355, -29268.536480490744, -29244.21778252337, -29186.19265391739, -29177.564880557646, -29233.399538207002, -29279.80175969622, -29256.51124197379, -29197.949671500883, -29188.271366151737, -29244.508355201287, -29292.22932961337, -29267.865928157084, -29208.16441871696, -29198.10613371207, -29253.2031837944, -29300.253605872826, -29276.85132942812, -29217.06041301017, -29205.661023337965, -29260.154576320005, -29306.780315253774, -29282.998059153328, -29223.78828809122, -29212.21008446337, -29266.74834093432, -29313.37407986809, -29290.105913890115, -29229.5997416496, -29217.21687522136, -29271.5092625033, -29318.738498537365, -29295.80560872622, -29235.813526608174, -29223.78828809122, -29278.281841073258, -29325.98046374088, -29304.008698941318, -29244.910686601484, -29232.773689362253, -29287.155483622013, -29336.262266190322, -29315.65395780253, -29257.293553029725, -29245.961218590885, -29301.684117517965, -29351.975542542405, -29332.104841721637, -29273.83384392665, -29262.03212285425, -29317.03976595876, -29366.86180434964, -29346.76758608432, -29288.80951271171, -29276.784274194753, -29331.61310334362, -29381.166920801035, -29360.3797984576, -29300.387716339555, -29286.239062099346, -29339.77149006981, -29388.788865660295, -29367.24178400538, -29306.13211466457, -29291.5140737908, -29343.45952790493, -29391.1357988281, -29369.320496239725, -29307.920254220993, -29291.424666812978, -29342.744272082364, -29391.29226103929, -29370.102807295658, -29308.054364687727, -29291.424666812978, -29342.788975571275, -29390.465246494445, -29369.164034028538, -29308.255530387825, -29292.363440080102, -29344.66652210552, -29393.929766885016, -29373.76849338633, -29312.323547878692, -29295.582091281667, -29347.549897140256, -29397.05901110876, -29377.76945564383, -29317.19622816995, -29301.170027395492, -29354.367179199122, -29405.597377490685, -29387.738333670895, -29328.796783542253, -29313.731707779374, -29366.638286905087, -29418.695499741498, -29402.222264077936, -29343.124251738103, -29328.215638186415, -29382.172749301524, -29434.96756970496, -29419.276645097336, -29361.743254869376, -29346.85699306214, -29400.85880766616, -29453.810090280786, -29438.141517417615, -29380.451664978467, -29365.967734571426, -29420.193066620002, -29473.993715523928, -29458.59336359422, -29400.411772777057, -29384.854958636162, -29438.767366262364, -29492.25509074391, -29477.994677781426, -29420.52834278683, -29405.239749579403, -29459.129805461147, -29513.444544487542, -29499.07237280278, -29441.516630830367, -29424.86458121116, -29477.659401614597, -29531.258884818424, -29517.087878833758, -29459.509785116887, -29443.21536340897, -29495.719611134486, -29548.93911468257, -29533.628169730684, -29475.044247513324, -29457.386369393633, -29509.37652699668, -29562.864251478226, -29548.737948982474, -29489.505826175908, -29471.512671889388, -29523.480477747977, -29577.214071418533, -29562.55132705585, -29503.877997860673, -29485.4601604295, -29536.75741395443, -29590.781580302904, -29577.415237118632, -29518.80896315682, -29500.74875363693, -29552.18011762859, -29606.71837409954, -29592.413257648142, -29532.711748208018, -29512.572826453787, -29563.04306543387, -29617.380156204723, -29604.013813020447, -29544.736986724973, -29525.64859696014, -29576.029428962403, -29629.83007786633, -29617.201342249078, -29559.153861898645, -29539.260809333424, -29589.932214013603, -29644.693987929106, -29632.556990689875, -29574.442455106077, -29555.063492663325, -29605.824304321326, -29661.591906737318, -29649.2984472869, -29590.5357111139, -29569.636830048184, -29620.57645566183, -29676.791092966927, -29666.06225562838, -29607.500685155475, -29587.361763401244, -29637.116746558757, -29693.376087352764, -29683.11663664778, -29625.203266764078, -29604.639661865196, -29655.378121778744, -29711.59275908384, -29702.003860712513, -29643.732862917528, -29622.722223129538, -29672.700723731607, -29729.809430814916, -29720.68991907715, -29663.402398038197, -29642.548220461398, -29692.593776296828, -29748.473137435096, -29738.92894255268, -29681.663773258184, -29660.42961602564, -29710.11754394979, -29767.919155111213, -29759.64900966275, -29702.98733746855, -29681.864938958282, -29732.446936660643, -29790.650879222263, -29783.90065239676, -29728.08834649186, -29708.30705264891, -29759.358436984832, -29818.65761502476, -29812.66734751074, -29757.302076494943, -29736.358491940322, -29787.588690231885, -29847.87134502785, -29842.886906014315, -29787.365172787333, -29766.622753932807, -29817.00358593507, -29877.263888986578, -29871.854766828394, -29816.556551045964, -29795.143579857777, -29844.920914759747, -29903.080153832456, -29896.173464795767, -29838.774185034537, -29815.28250161201, -29862.355275434886, -29919.240465073643, -29910.34447078043, -29850.352388662388, -29823.262074382554, -29868.122025504355, -29922.704985464217, -29912.914921392792, -29851.58173460743, -29823.954978460668, -29867.58558363743, -29921.788563941547, -29911.126781836367, -29849.257153184077, -29819.775202247525, -29861.505909145584, -29913.67488070427, -29901.850807887415, -29838.95299899018, -29809.135771886802, -29850.240629940112, -29902.655470687805, -29890.92080484877, -29827.66536804025, -29796.305870569453, -29837.43308036722, -29889.847921114913, -29878.649697142806, -29815.394260334288, -29784.280632052498, -29825.385490105808, -29879.29789773201, -29869.798406338505, -29809.113420142345, -29779.922041883714, -29823.552647060475, -29880.01315355458, -29874.15699650729, -29816.198923134678, -29789.51094025504, -29834.974388477134, -29895.659374673294, -29893.87123511687, -29839.71295830166, -29814.924873700726, -29862.62349636835, -29925.051918632023, -29924.381366298363, -29870.58071739444, -29847.67017932775, -29896.57579619596, -29960.25591614913, -29961.440558605264, -29909.137476579843, -29886.33869723543, -29935.959569926214, -29999.527931157107, -30000.690221868783, -29947.940104954258, -29924.470773276185, -29973.197576188755, -30037.212972308753, -30037.81646940905, -29985.513387383628, -29961.999352216644, -30010.50263768466, -30073.71337100427, -30074.80860648258, -30021.32088200103, -29996.733963100192, -30044.276123556632, -30106.950415009313, -30107.330394665052, -30053.261524827663, -30027.31114951505, -30073.691019259815, -30135.471240934283, -30135.82886884557, -30081.111798418977, -30054.177946350334, -30099.06024921659, -30160.996933102244, -30161.578078458082, -30107.19628419832, -30080.485949574228, -30125.792935585134, -30187.707267726335, -30188.288413082173, -30133.2137147443, -30105.832827786548, -30150.469261463793, -30212.227131393807, -30213.188256405385, -30159.097034823542, -30130.799726343124, -30175.190290831364, -30236.99286425029, -30237.886934028502, -30182.812235690624, -30154.894906865946, -30199.129009143, -30261.84800408459, -30262.965591307355, -30208.382631347496, -30179.548881000148, -30223.17948617691, -30284.691486917913, -30286.479626474338, -30231.807259536658, -30203.666413267427, -30247.587591122105, -30310.910083163988, -30313.458182031893, -30259.478719172326, -30230.667320569435, -30275.28140250223, -30338.849763733124, -30342.023711445778, -30288.33482126413, -30260.21632673935, -30304.539835994226, -30368.823453047688, -30372.802063560735, -30319.85078094611, -30290.838216643122, -30334.535877053248, -30398.05953479523, -30402.44047670847, -30348.885696993555, -30319.18022861245, -30362.14028145555, -30425.842753153178, -30428.97199737692, -30374.836072306167, -30344.974141713876, -30388.29182246826, -30452.26251509935, -30456.375236079126, -30402.038145308277, -30371.796235060247, -30413.817514636223, -30477.005896211376, -30481.99033522491, -30428.949645632467, -30398.30540398424, -30440.974884149422, -30504.900873291597, -30510.37705068315, -30456.911677946053, -30425.50747698635, -30466.36646585065, -30530.314806737282, -30537.109737051695, -30484.784303281824, -30453.558916277758, -30495.51314062037, -30560.154385585116, -30567.10577811072, -30514.400364685105, -30483.152625936586, -30524.74922236791, -30589.457522566026, -30595.961880202518, -30543.23411503245, -30512.455762917492, -30554.47704249347, -30619.25239792495, -30626.87434278421, -30574.414798547605, -30543.323522010272, -30585.300098097337, -30651.30479947386, -30660.111386789253, -30609.596444320257, -30578.505167782925, -30620.258226425438, -30686.240576057506, -30695.74006745101, -30644.688683115088, -30612.30100539935, -30652.82471809682, -30718.31532935087, -30726.250198632504, -30674.34944800728, -30641.648845869167, -30682.41842775565, -30748.579591343358, -30757.699103081122, -30706.245387345003, -30673.7906543959, -30714.02379441545], [-18246.46660643418, -18237.7047226077, -18254.692048393732, -18254.781455371554, -18218.571629353955, -18178.249082356582, -18171.20828285316, -18188.821457483944, -18189.044974928496, -18154.131550089307, -18114.412500192226, -18106.49998265505, -18123.17438401871, -18122.079148540397, -18084.77408704449, -18042.037551645943, -18031.129900351752, -18045.09974063632, -18042.37282781277, -18002.542019193414, -17957.32444016033, -17944.74040803199, -17957.25738492696, -17952.898794758177, -17912.68800648308, -17868.029221061377, -17856.562776155803, -17870.554968184828, -17868.744476883945, -17831.394711899127, -17789.440487556516, -17780.56684500776, -17797.107135904687, -17797.308301604786, -17762.126655832133, -17720.910039056544, -17711.254085451852, -17727.25793448185, -17727.570858904226, -17692.478620109396, -17651.19494810044, -17641.82956717367, -17658.794541215248, -17659.755666226825, -17623.948171609423, -17582.262168200275, -17571.890958773012, -17587.268958958266, -17586.933682791434, -17550.209766651365, -17506.825030663615, -17495.135068313488, -17509.686053953894, -17508.501411497764, -17471.97866105779, -17428.63862855895, -17416.322817364075, -17430.113843693, -17428.750387281227, -17390.797125196117, -17344.90899382937, -17330.71563610025, -17343.679647884328, -17341.690342627804, -17303.200638675768, -17257.513673009118, -17243.99086761366, -17257.84894917595, -17257.55837649803, -17220.767405124596, -17176.287433658534, -17163.613994552376, -17178.07557321496, -17178.2543871706, -17142.91627918676, -17100.112688554847, -17089.67442389422, -17106.549990957974, -17108.76281365905, -17075.72693535411, -17034.644429045253, -17024.89906846274, -17042.154615182237, -17044.61330707232, -17010.50454503352, -16968.125637546258, -16956.972117063062, -16973.713573660087, -16975.61347193879, -16940.87886105524, -16898.008215189962, -16885.40183131717, -16900.846886735784, -16902.500915825476, -16867.319270052823, -16823.576906153787, -16811.015225769905, -16826.057949788326, -16827.24259224446, -16792.262112171902, -16748.810320950786, -16736.226288822447, -16751.380771563145, -16752.677172741554, -16717.78609964682, -16674.088439236693, -16661.213834430437, -16676.211854959947, -16677.73177358291, -16642.840700488174, -16598.539542977756, -16584.90497886002, -16599.590074967156, -16600.372386023093, -16565.861292584097, -16521.783652518232, -16507.389129089013, -16521.31426588467, -16522.275390896248, -16487.920759668443, -16444.513671936234, -16431.10262526305, -16446.50297719276, -16449.118131294028, -16414.830555299588, -16370.730563489267, -16356.268984826684, -16370.842322211543, -16373.971566435286, -16340.175728818862, -16296.612178875468, -16283.044669991097, -16298.534428898625, -16301.663673122368, -16268.31487039505, -16225.153651851851, -16212.055529601043, -16227.634695486391, -16231.389788554883, -16199.091517816963, -16156.064409740498, -16142.251031667118, -16156.779665563068, -16159.77479932008, -16126.582458803949, -16082.61657746036, -16068.043240075498, -16082.415411760261, -16084.56117922797, -16050.586527655903, -16006.374777123307, -15992.36023334983, -16007.380605623795, -16010.621608569814, -15978.50215178754, -15936.100892555822, -15923.092177282833, -15939.498357713028, -15944.169872304186, -15912.63156087775, -15869.872673734746, -15856.28281310592, -15872.130199924732, -15875.9970517155, -15843.609373999761, -15800.090527545277, -15785.763059349425, -15801.31987349032, -15805.343187492275, -15773.000213265446, -15728.833166221759, -15714.215125347988, -15729.146090644133, -15732.722369756983, -15699.999415874412, -15655.541796152807, -15640.543775623295, -15655.05005777479, -15659.00631654338, -15626.238659171899, -15581.222245838911, -15564.637251453074, -15577.1765800925, -15579.434106282486, -15545.526509943786, -15500.174820443968, -15483.142791169024, -15496.509134353297, -15500.174820443968, -15467.049535161203, -15422.1895840394, -15406.565714665141, -15421.228459027823, -15426.369360252544, -15395.456897670854, -15352.362734361022, -15336.962382431315, -15351.938051216372, -15357.525987330198, -15327.194670104345, -15284.50283819471, -15270.801218843606, -15287.07328880707, -15293.555294699108, -15263.78277108464, -15220.733311263719, -15205.422366311834, -15220.375683352433, -12225.264278085742, -12180.851361853047, -12157.963175530813, -12170.45780068133, -12183.622978165506, -12162.1205999995, -12118.244125633732, -12095.378291055953, -12107.78350922865, -12121.172204157378, -12099.91569518038, -12056.463903959264, -12033.62042112594, -12045.824473598537, -12059.48138946073, -12038.783674095115, -11994.862496240437, -11972.08606864048, -11984.983025191192, -11999.466955598231, -11979.462144310732, -11936.41268448981, -11913.524498167575, -11925.572088428986, -11938.781969402073, -11918.2630679921, -11875.124201193357, -11851.409000326277, -11862.383706853832, -11875.68299480474, -11855.141741650314, -11811.466432984644, -11787.594769906374, -11798.792993878484, -11811.198212051178, -11789.896999585271, -11745.640545563763, -11720.830109218372, -11731.782464001473, -11745.08175195238, -11723.98170518657, -11679.92641686516, -11655.473608431055, -11666.202445769602, -11679.680547676153, -11659.474570688555, -11614.949895733584, -11589.58066577681, -11600.711834515552, -11614.34639863329, -11593.67103501213, -11549.079304823794, -11524.648848134142, -11535.400037217145, -11548.654621679143, -11528.672162136098, -11484.75098428142, -11459.225292113459, -11469.797667240819, -11484.169838925582, -11464.142675893627, -11419.819166638752, -11395.008730293363, -11405.603457165178, -11420.199146294493, -11400.59666640719, -11356.474322852413, -11331.552127784746, -11342.638593034577, -11357.077819952705, -11337.251822620849, -11292.973016854885, -11267.08969677564, -11277.483257947357, -11291.095470320639, -11271.113010777595, -11227.057722456184, -11201.889658199509, -11212.104405415585, -11225.470748599857, -11205.644751268, -11161.54475945768, -11135.706142867344, -11145.786779616688, -11160.069544323629, -11141.607003403546, -11098.155212182428, -11072.495409547737, -11083.023081186186, -11097.328197637582, -11078.597435784035, -11035.436217240836, -11009.776414606145, -11019.61118216648, -11034.27392652916, -11015.744330375712, -10972.113725198953, -10945.805721975055, -10955.506379068658, -10970.124419942429, -10950.656050521857, -10906.399596500349, -10880.382165954372, -10890.596913170448, -10905.282009277584, -10887.065337546508, -10842.965345736187, -10815.696217500714, -10825.307467616496, -10840.685467801746, -10823.0052379376, -10779.531094972026, -10752.977222559122, -10762.70023139718, -10777.474734482139, -10759.191007517697, -10715.292181407474, -10687.97834968309, -10697.030806187488, -10712.632323817292, -10694.840335230869, -10650.91915737619, -10623.404159951706, -10632.255450756009, -10646.58291895186, -10628.857985598801, -10585.38384263323, -10558.13706614221, -10567.23422613552, -10582.031080964933, -10564.440258078606, -10520.832004646303, -10492.847620588258, -10501.564800925828, -10516.048731332867, -10498.927295080102, -10455.184931181066, -10427.401712823119, -10436.409465838608, -10452.078038701778, -10435.53774780485, -10392.667101939573, -10366.269691737854, -10376.171514531556, -10392.220067050466, -10375.590369175718, -10332.272688421332, -10304.84709797467, -10313.743092267883, -10329.27755466432, -10312.267877133832, -10269.12901033509, -10241.032867554768, -10248.721867647395, -10263.451667243442, -10246.12906529058, -10202.25259092481, -10174.692890011418, -10182.91833197097, -10197.581076333652, -10180.146715658513, -10136.04672384819, -10107.660008389952, -10115.349008482577, -10130.682305178918, -10114.186717770901, -10070.265539916223, -10041.163568635413, -10048.830216983582, -10064.252920657746, -10048.092609416559, -10004.260838539702, -9975.292977725623, -9983.294902240623, -9999.321103015078, -9983.54077142963, -9939.977221486239, -9911.143471138892, -9919.3912648429, -9935.104541194982, -9919.480671820722, -9877.034709100093, -9848.200958752746, -9855.487627445178, -9871.111496819436, -9855.487627445178, -9811.99113273515, -9782.822106220974, -9790.600513291422, -9806.760824532608, -9791.762804003096, -9749.36154477138, -9720.885422335317, -9728.373256727846, -9744.69003018022, -9730.317858495458, -9687.24604693008, -9657.272357615515, -9664.201398396659, -9679.892323004286, -9664.402564096757, -9621.017828109007, -9592.385243461758, -9600.23070576557, -9616.592182706856, -9602.555287188923, -9559.75169655701, -9530.202690387094, -9537.422303846157, -9552.956766242596, -9538.517539324468, -9495.959817881563, -9466.723736134021, -9473.518666448435, -9489.231942800516, -9474.390384482193, -9431.609145594733, -9401.903677213631, -9408.76566276141, -9424.993029235964, -9410.620857551201, -9367.481990752458, -9337.262432248883, -9343.61032767419, -9360.172970315572, -9346.806627131298, -9303.779519054833, -9273.492905317891, -9279.97491120993, -9297.252809673882, -9284.042928700797, -9240.948765390965, -9210.259820253828, -9216.473605212404, -9233.30446878725, -9219.8263668807, -9177.223941948885, -9146.691459022935, -9152.458209092405, -9168.506761611314, -9155.632156805057, -9113.61087722908, -9083.100746047587, -9088.711033905869, -9105.407787013983, -9092.622589185547, -9050.511902631748, -9020.78408250619, -9027.333143631595, -9044.387524650994, -9031.915251244933, -8989.625750735493, -8958.378011986973, -8963.29539576714, -8980.126259341987, -8967.586930702559, -8925.632706359947, -8894.697892033802, -8900.196421169809, -8917.206098700297, -8904.800880527602, -8862.109048617966, -8830.861309869446, -8836.382190749908, -8853.682440958315, -8841.612498952449, -8799.635922865382, -8768.388184116862, -8773.797306275048, -8791.745757072658, -8779.36289064442, -8737.095741879433, -8705.311561263987, -8710.072482832968, -8726.63512547435, -8714.811052657491, -8672.834476570426, -8641.653793055271, -8646.951156491179, -8664.161999721766, -8652.449685627185, -8610.540164773485, -8578.912446369224, -8583.762774916027, -8601.599466991362, -8590.848277908359, -8549.408143688219, -8517.422797372676, -8522.004904986014, -8539.662783105705, -8528.68807657815, -8486.733852235539, -8454.48028498653, -8459.665889700162, -8476.988491653025, -8465.700860703095, -8423.56782240484, -8391.358958644743, -8395.628141835707, -8413.733054844506, -8403.026569250414, -8360.737068740973, -8328.259984047412, -8332.88679514966, -8350.969356414003, -8341.358106298221, -8300.297951733823, -8268.647881585108, -8273.028823498347, -8290.194963240023, -8279.3543671792, -8237.19897713649, -8204.408968020554, -8207.828784922218, -8224.905517686071, -8214.377846047622, -8172.356566471645, -8139.5889091001645, -8143.589871357664, -8161.895950066561, -8151.725906339397, -8109.861088974606, -8076.914617647483, -8080.826172927163, -8098.6181615135865, -8088.246952086324, -8047.119742288559, -8014.173270961437, -8017.391922163001, -8035.474483427344, -8025.885585056018, -7985.071299680627, -7952.393049286968, -7955.119962110515, -7971.906122196451, -7961.713726724831, -7920.161833782415, -7886.745975821731, -7889.919923534385, -7907.42133944289, -7897.743034093743, -7856.548769062611, -7822.887041912919, -7825.993934392207, -7843.696516000809, -7833.928803673841, -7792.578076431522, -7758.893997537375, -7761.956186527752, -7779.524657669624, -7769.8463523204755, -7728.607383800434, -7694.85624967292, -7697.896086918841, -7717.0738836614955, -7709.407235313325, -7669.308205760504, -7635.7805890775435, -7638.46279841218, -7656.523007932068, -7648.364621205881, -7607.751501530588, -7574.201533103173, -7577.040204648996, -7595.636856035812, -7587.679635009723, -7547.5582537124465, -7514.500023663048, -7517.0928260198625, -7535.890643106776, -7527.531090680492, -7486.694453560645, -7452.563339777392, -7455.178493878662, -7473.976310965576, -7465.639110283746, -7424.511900485981, -7390.201972747085, -7392.03481579242, -7409.446824723104, -7401.08727229682, -7360.205931688062, -7325.270155104417, -7325.806596971345, -7343.531530324403, -7335.864881976233, -7295.184707067574, -7260.248930483929, -7261.612386895703, -7279.8290586267785, -7272.229465511974, -7232.063380725787, -7197.753452986891, -7198.669874509558, -7216.104235184698, -7208.079958925243, -7167.690356694503, -7133.2016149999645, -7134.341553967185, -7152.446466975984, -7145.673888406025, -7105.820728042213, -7070.326157847186, -7070.996710180844, -7089.436899356473, -7082.4855068308725, -7043.034677867256, -7009.015322806278, -7009.797633862214, -7028.640154438038, -7022.113445057088, -6982.3496916710965, -6947.615080787549, -6949.023240688234, -6967.910464752968, -6961.763735027759, -6922.424664786418, -6887.354777736042, -6888.070033558612, -6906.823147156614, -6900.966990109324, -6861.694975101349, -6826.759198517704, -6827.742675273737, -6846.585195849561, -6840.594928335539, -6800.942933671825, -6765.3366047545205, -6765.738936154716, -6784.559104986085, -6778.591189216518, -6738.693325363794, -6702.259981901644, -6701.321208634521, -6719.09084547649, -6712.720598306728, -6672.979196665192, -6637.126998558879, -6637.149350303334, -6656.036574368069, -6650.515693487608, -6611.288381968544, -6575.3020733955, -6575.34677688441, -6593.921076526771, -6587.908457268293, -6548.2117591156675, -6511.57724995342, -6511.040808086492, -6529.548052495486, -6524.38479952631, -6485.224543240613, -6449.148827689747, -6448.232406167079, -6466.717298831618, -6461.643452840263, -6423.131397143769, -6387.435661248644, -6386.4074810037, -6404.60180099032, -6399.751472443518, -6361.418230702667, -6324.940183751605, -6323.755541295474, -6342.35219268229, -6337.59127111331, -6298.766290994441, -6262.869389399218, -6262.556464976843, -6281.488392530488, -6277.487430272989, -6239.221243765503, -6203.234935192459, -6202.586734603255, -6221.697476112542, -6218.098845255237, -6180.167934914582, -6143.265204818869, -6141.857044918185, -6160.990138171928, -6157.257396847892, -6119.147672551593, -6082.5578668782555, -6081.328520933213, -6100.2828002313145, -6096.5277071628225, -6058.797962522264, -6021.984639404373, -6020.576479503689, -6039.754276246343, -6035.820369222209, -5997.129499570072, -5960.584397385645, -5959.84678981862, -5979.024586561273, -5974.889513837042, -5936.600975585101, -5899.2959140891935, -5896.6584082434665, -5914.74096950781, -5911.45526307288, -5873.144373076484, -5835.705201113845, -5833.91706155742, -5853.005451322252, -5850.099724543063, -5813.040532236163, -5776.80835447411, -5774.372014328482, -5793.393348859948, -5790.018235447197, -5751.953214639809, -5714.424635699348, -5711.898888575899, -5730.56259519608, -5727.947441094809, -5690.240048198706, -5652.443248324782, -5649.202245378762, -5667.195399665285, -5664.356728119461, -5627.252832323651, -5590.05952955002, -5587.980817315676, -5607.2703727806065, -5605.035198335076, -5568.020709517087, -5531.1403311658305, -5529.195729398219, -5548.775857541068, -5546.965366240188, -5510.286153589029, -5472.802278137479, -5469.829496124923, -5488.493202745104, -5486.928580633233, -5449.556463903959, -5411.9831814745885, -5409.099806439854, -5427.472940382117, -5425.528338614505, -5388.9161811967115, -5351.611119700804, -5348.414820243695, -5367.033823374966, -5365.424497774184, -5328.588822911838, -5291.2390579270195, -5287.7745375364475, -5306.728816834548, -5304.9183255336675, -5268.395575093696, -5231.358734531252, -5227.93891762959, -5246.490865527495, -5244.747429459981, -5208.157623786643, -5170.6737483350935, -5166.695137822048, -5185.180030486587, -5183.950684541546, -5147.092657934744, -5108.53589874934, -5104.490233002929, -5124.070361145778, -5124.092712890233, -5088.396976995108, -5050.980156776924, -5047.493284641896, -5066.33580521772, -5064.927645317036, -5028.226080921421, -4989.378749058098, -4985.064862378224, -5003.7956242317705, -5003.437996320486, -4967.585798214173, -4929.3643151955985, -4924.35752443761, -4942.797713613238, -4942.5741961686845, -4906.721998062372, -4867.561741776674, -4862.063212640669, -4880.659864027484, -4880.749271005306, -4845.254700810278, -4807.010866047248, -4802.071130522625, -4821.204223776367, -4821.00305807627, -4786.022578003714, -4748.002260685237, -4743.531911794175, -4762.732060281284, -4763.447316103854, -4729.137388364958, -4691.541754191131, -4686.490259944232, -4704.863393886494, -4704.8410421420385, -4669.771155091662, -4631.035581950615, -4625.000610947682, -4643.105523956481, -4643.217282678757, -4608.013285161649, -4569.501229465154, -4563.242741017669, -4580.900619137361, -4580.900619137361, -4545.13782800887, -4504.74822577813, -4497.685074530253, -4514.895917760839, -4513.755978793619, -4476.987359164638, -4436.396591233801, -4428.796998118996, -4445.516102971566, -4444.063239581971, -4408.076931008927, -4367.843790989375, -4359.238369374081, -4375.398680615268, -4374.281093392503, -4337.177197596693, -4295.580601165367, -4286.997531294529, -4303.80604312492, -4302.867269857797, -4266.411574651191, -4225.463178809068, -4217.193033360605, -4234.023896935451, -4233.710972513077, -4197.299980795381, -4156.798619842365, -4149.0202127719185, -4166.186352513594, -4167.080422291806, -4132.748142808455, -4092.738520233455, -4085.161278863106, -4104.093206416751, -4107.267154129405, -4073.3148543017933, -4034.1769497605505, -4027.2702607238607, -4046.090429555229, -4047.61034817819, -4013.0545512502854, -3973.3802048421153, -3966.9205506945314, -3985.807774759266, -3987.9982457158862, -3954.515332521836, -3915.712704147423, -3908.7613116218226, -3928.3637915091267, -3931.515387477325, -3898.166584750007, -3859.520418586781, -3852.7031365279126, -3870.7409943033454, -3873.0879274711524, -3839.3814968325496, -3799.3495225130946, -3791.3252462536393, -3810.0560081071867, -3812.693513952913, -3778.852972847578, -3738.6421845724803, -3730.3720391240167, -3747.918158521433, -3750.041574244687, -3716.40219883945, -3677.3537012760285, -3669.4188319943946, -3687.791965936657, -3690.3847682934725, -3656.655985910414, -3616.4451976353166, -3607.6162585754705, -3624.8718052949675, -3626.950517529311, -3592.864107234968, -3551.7816009261137, -3542.662089188348, -3561.0575748750657, -3564.432688287817, -3531.553272194061, -3491.6330565968824, -3482.759414048125, -3499.8584985564353, -3502.697170102259, -3469.2142569082093, -3428.288212810542, -3419.123997583866, -3437.6312419928604, -3441.5204455280837, -3408.9092503677907, -3367.804392314481, -3358.1037352208778, -3375.0910610069113, -3377.929732552735, -3344.6032815698723, -3303.7889961944816, -3294.0883391008783, -3312.1485486207666, -3315.1213306333225, -3281.772527906004, -3240.712373341605, -3231.101123225823, -3249.250739723532, -3252.5364461584627, -3219.008829475502, -3178.4180615446644, -3168.225666073044, -3185.77178547046, -3189.616285516773, -3157.34036652331, -3116.391970681187, -3106.4454443985755, -3124.259784729455, -3128.3278022203212, -3095.537793104386, -3054.164714117612, -3044.3299465572773, -3062.6136735217183, -3066.882856712682, -3034.405772019121, -2993.59148664373, -2983.6449603611186, -3001.369893714177, -3005.728483882962, -2973.474916633954, -2932.347706836189, -2921.082427630714, -2938.695602261496, -2943.0765441747362, -2911.0017908813707, -2869.628711894597, -2858.2963774557566, -2874.791964863773, -2878.994092821371, -2847.0087465058264, -2806.12740589707, -2795.3985685585226, -2813.2352606338577, -2817.79501650274, -2785.899077165017, -2743.9448528224057, -2732.0537247721822, -2748.8845883470285, -2753.1984750269025, -2720.5202246332437, -2678.610703779543, -2667.1889623628813, -2684.802136993663, -2690.0771486851154, -2658.5611890031328, -2617.0539995496274, -2605.453444177323, -2622.731342641275, -2628.0957613105493, -2597.004484773217, -2556.391365097924, -2545.0813824035386, -2562.6051500564995, -2568.4389553593346, -2537.8617689444745, -2496.2204690242374, -2484.4858031852013, -2501.87546037143, -2507.8657278854525, -2477.6685211263325, -2436.362497372925, -2424.851348978442, -2443.0903724539726, -2449.2818056680926, -2418.7716744865984, -2377.5774094554677, -2366.84857211692, -2385.2887612925483, -2392.597781729434, -2362.914665092786, -2321.3851238948255, -2309.181071422228, -2326.749542564099, -2332.7174583336664, -2302.3637893633595]]
