[[-3716.7374750062795, -3716.536309306182, -3716.692771517369, -3716.5139575617263, -3717.1621581509303, -3716.893937217467, -3716.335143606084, -3717.3186203621176, -3718.4138558404275, -3717.9444692068664, -3718.3020971181513, -3716.849233728556, -3715.821053483612, -3717.586841295581, -3718.3468006070616, -3716.7374750062795, -3715.955163950344, -3716.1563296504414, -3718.570318051615, -3718.0115244402323, -3716.7374750062795, -3717.519786062215, -3717.0280476841986, -3718.078579673598, -3717.6762482734025, -3717.229213384296, -3716.0669226726204, -3717.0056959397434, -3716.2904401171736, -3717.0280476841986, -3717.3633238510283, -3716.893937217467, -3717.6986000178576, -3718.458559329338, -3716.469254072816, -3717.229213384296, -3716.0222191837097, -3716.692771517369, -3718.167986651419, -3718.570318051615, -3717.922117462411, -3717.4527308288493, -3717.0951029175644, -3717.6986000178576, -3718.4138558404275, -3718.9055942184445, -3717.631544784492, -3716.558661050637, -3718.21269014033, -3718.145634906964, -3718.235041884785, -3716.2904401171736, -3717.4527308288493, -3717.4527308288493, -3717.542137806671, -3717.4527308288493, -3718.369152351517, -3718.3244488626065, -3718.458559329338, -3718.123283162509, -3718.0338761846874, -3716.469254072816, -3715.977515694799, -3716.111626161531, -3716.5810127950926, -3716.558661050637, -3715.7539982502462, -3713.652934271447, -3715.150501149953, -3715.8434052280672, -3715.0610941721316, -3715.8434052280672, -3716.0669226726204, -3716.335143606084, -3716.536309306182, -3715.910460461433, -3715.8434052280672, -3716.469254072816, -3716.7821784951902, -3716.916288961922, -3716.3574953505395, -3717.139806406475, -3716.759826750735, -3717.3409721065727, -3718.3020971181513, -3717.8774139735, -3719.106759918542, -3718.6150215405255, -3719.9114227189334, -3718.480911073794, -3714.7481697497574, -3713.049437171154, -3711.4624633148273, -3712.3788848374948, -3713.0717889156094, -3713.630582526992, -3715.239908127774, -3716.0222191837097, -3715.977515694799, -3716.7821784951902, -3715.910460461433, -3714.725818005302, -3714.59170753857, -3715.7316465057906, -3716.0669226726204, -3716.245736628263, -3715.664591272425, -3714.792873238668, -3715.7987017391565, -3716.4469023283605, -3716.0669226726204, -3715.575184294604, -3715.016390683221, -3716.2233848838077, -3715.7987017391565, -3715.0610941721316, -3715.7763499947014, -3715.7316465057906, -3716.111626161531, -3716.245736628263, -3715.30696336114, -3714.7034662608467, -3716.916288961922, -3715.977515694799, -3715.9328122058887, -3715.4410738278716, -3715.552832550148, -3715.7092947613355, -3715.8434052280672, -3715.6422395279697, -3716.40219883945, -3716.335143606084, -3716.0222191837097, -3716.9609924508327, -3716.983344195288, -3718.9279459628997, -3716.9609924508327, -3710.8142627256234, -3713.921155204911, -3717.564489551126, -3716.3574953505395, -3715.0834459165867, -3714.5470040496593, -3715.6422395279697, -3714.7034662608467, -3714.59170753857, -3714.301134860651, -3714.0776174160983, -3714.4128935829276, -3714.7705214942125, -3713.943506949366, -3713.2282511267963, -3714.949335449855, -3714.6811145163915, -3713.898803460456, -3713.8317482270895, -3713.585879038081, -3713.1164924045197, -3713.3176581046177, -3714.301134860651, -3714.0776174160983, -3713.8093964826344, -3714.4128935829276, -3715.016390683221, -3714.9940389387657, -3713.719989504813, -3714.7481697497574, -3714.1223209050086, -3713.898803460456, -3715.8434052280672, -3715.3293151055955, -3715.0387424276764, -3715.865756972523, -3716.335143606084, -3715.217556383319, -3715.217556383319, -3714.1223209050086, -3713.5411755491705, -3713.943506949366, -3714.4575970718383, -3713.4294168268943, -3714.0552656716427, -3714.502300560749, -3713.652934271447, -3715.1952046388633, -3715.4410738278716, -3714.569355794115, -3714.3234866051066, -3714.725818005302, -3714.8375767275784, -3714.4575970718383, -3713.7870447381792, -3714.4575970718383, -3715.239908127774, -3715.7987017391565, -3714.524652305204, -3713.585879038081, -3713.5188238047153, -3715.172852894408, -3714.1670243939193, -3713.8093964826344, -3713.608230782537, -3713.652934271447, -3713.7870447381792, -3714.3458383495617, -3714.9940389387657, -3715.217556383319, -3715.7092947613355, -3715.6422395279697, -3715.2846116166847, -3715.530480805693, -3716.5810127950926, -3715.955163950344, -3716.3798470949946, -3716.245736628263, -3715.6869430168804, -3717.139806406475, -3717.229213384296, -3716.7374750062795, -3715.7539982502462, -3716.625716284003, -3716.491605817271, -3717.519786062215, -3715.7763499947014, -3716.0669226726204, -3716.245736628263, -3716.335143606084, -3717.8997657179557, -3716.40219883945, -3716.7821784951902, -3716.692771517369, -3716.268088372718, -3717.430379084394, -3717.0280476841986, -3717.586841295581, -3718.570318051615, -3718.145634906964, -3718.2573936292406, -3717.564489551126, -3718.078579673598, -3718.793835496168, -3717.9444692068664, -3718.235041884785, -3718.3020971181513, -3718.6373732849806, -3718.816187240623, -3718.860890729534, -3718.525614562704, -3717.3409721065727, -3717.8103587401342, -3718.6820767738914, -3719.1961668963636, -3719.2185186408187, -3718.7044285183465, -3717.0503994286537, -3717.4527308288493, -3718.6820767738914, -3717.7656552512235, -3716.558661050637, -3716.6704197729136, -3717.4527308288493, -3716.893937217467, -3717.3409721065727, -3718.21269014033, -3718.145634906964, -3717.922117462411, -3717.922117462411, -3717.564489551126, -3716.759826750735, -3716.5139575617263, -3717.788006995679, -3717.9444692068664, -3717.631544784492, -3717.0503994286537, -3716.983344195288, -3717.11745466202, -3717.0056959397434, -3715.888108716978, -3716.5810127950926, -3715.552832550148, -3716.0222191837097, -3717.49743431776, -3717.2962686176625, -3716.3798470949946, -3715.508129061238, -3717.184509895386, -3717.7433035067684, -3717.139806406475, -3717.788006995679, -3716.692771517369, -3715.977515694799, -3716.625716284003, -3716.3574953505395, -3715.9998674392546, -3715.7316465057906, -3715.9998674392546, -3716.5810127950926, -3716.335143606084, -3716.7151232618244, -3717.11745466202, -3717.6762482734025, -3717.2962686176625, -3716.9609924508327, -3714.882280216489, -3713.3847133379836, -3712.2000708818523, -3712.311829604129, -3711.5518702926483, -3710.657800514436, -3711.7977394816567, -3714.368190094017, -3717.586841295581, -3716.916288961922, -3717.3856755954835, -3718.21269014033, -3716.893937217467, -3717.2515651287517, -3717.2515651287517, -3716.40219883945, -3715.977515694799, -3716.558661050637, -3716.4469023283605, -3717.3409721065727, -3717.184509895386, -3716.603364539548, -3716.3798470949946, -3718.503262818249, -3717.7433035067684, -3717.3856755954835, -3716.916288961922, -3716.469254072816, -3718.145634906964, -3717.2515651287517, -3715.888108716978, -3715.3293151055955, -3715.508129061238, -3716.5810127950926, -3717.0280476841986, -3716.625716284003, -3716.3798470949946, -3716.7374750062795, -3717.922117462411, -3715.888108716978, -3716.6704197729136, -3717.4080273399386, -3716.7374750062795, -3718.145634906964, -3718.1903383958747, -3717.4527308288493, -3716.916288961922, -3716.5810127950926, -3718.145634906964, -3717.7433035067684, -3716.469254072816, -3716.603364539548, -3718.1903383958747, -3717.542137806671, -3717.2515651287517, -3717.139806406475, -3715.6422395279697, -3715.1057976610423, -3717.229213384296, -3716.4469023283605, -3716.4469023283605, -3716.201033139352, -3716.8715854730112, -3716.916288961922, -3716.469254072816, -3717.3186203621176, -3716.4245505839053, -3717.8997657179557, -3719.1961668963636, -3719.509091318738, -3720.1572919079417, -3717.542137806671, -3715.463425572327, -3715.3516668500506, -3714.6140592830257, -3713.205899382341, -3710.993076681266, -3711.8424429705674, -3711.7977394816567, -3711.7083325038357, -3711.4848150592825, -3709.428454569394, -3710.702504003347, -3710.277820858696, -3709.406102824939, -3710.2554691142404, -3709.048474913654, -3707.662666757425, -3708.0649981576203, -3708.9143644469223, -3706.9697626793104, -3706.500376045749, -3706.4780243012938, -3707.953239435344, -3707.9755911797993, -3707.752073735246, -3706.790948723668, -3706.9474109348553, -3707.953239435344, -3707.2379836127743, -3706.1650998789196, -3705.695713245358, -3705.3827888229835, -3706.723893490302, -3706.2768586011957, -3706.2545068567406, -3706.3886173234723, -3706.120396390009, -3706.858003957034, -3707.5732597796036, -3707.394445823961, -3707.081521401587, -3707.372094079506, -3707.6403150129695, -3707.439149312872, -3707.059169657132, -3706.9697626793104, -3709.026123169199, -3706.9027074459445, -3706.2768586011957, -3705.1592713784307, -3705.6063062675366, -3705.785120223179, -3705.8968789454557, -3706.1874516233747, -3705.49454754526, -3705.0922161450644, -3703.6840562443804, -3704.488719044771, -3704.6675330004136, -3703.9969806667546, -3703.2817248441847, -3702.58882076607, -3703.0582073996316, -3703.0135039107213, -3702.9688004218106, -3703.6393527554696, -3704.086387644576, -3703.505242288738, -3702.499413788249, -3701.985323665777, -3702.7676347217125, -3701.1359573764753, -3702.6111725105256, -3701.918268432411, -3702.0076754102324, -3702.633524254981, -3702.54411727716, -3702.1641376214193, -3701.918268432411, -3701.4265300543943, -3700.979495165288, -3702.275896343696, -3702.7005794883466, -3701.851213199045, -3701.694750987858, -3702.499413788249, -3702.7005794883466, -3702.2982480881515, -3701.605344010037, -3702.3429515770617, -3701.8735649435002, -3701.6723992434027, -3702.0076754102324, -3704.242849855763, -3700.308942831629, -3698.856079442034, -3700.890088187467, -3707.9979429242544, -3711.1048354035424, -3706.075692901098, -3704.488719044771, -3707.8638324575227, -3708.8026057246457, -3707.729721990791, -3705.7404167342684, -3706.2768586011957, -3707.6403150129695, -3709.651972013947, -3711.2165941258186, -3709.629620269492, -3709.2272888692964, -3710.680152258891, -3709.8754894585004, -3710.2554691142404, -3710.0319516696877, -3709.2496406137516, -3710.143710391964, -3711.8647947150225, -3711.618925526014, -3710.2554691142404, -3709.853137714045, -3711.1942423813634, -3711.753035992746, -3711.9094982039333, -3711.7083325038357, -3711.596573781559, -3712.4682918153158, -3712.758864493235, -3711.4848150592825, -3712.1553673929416, -3712.02125692621, -3711.3507045925508, -3712.043608670665, -3711.596573781559, -3711.2612976147293, -3708.6461435134584, -3708.6014400245476, -3710.5460417921595, -3711.082483659087, -3709.9648964363214, -3710.635448769981, -3710.367227836517, -3712.892974959967, -3712.043608670665, -3711.1495388924527, -3711.1495388924527, -3711.529518548193, -3712.8259197266007, -3712.9376784488773, -3712.557698793137, -3712.7365127487797, -3712.267126115218, -3713.250602871252, -3713.8764517160002, -3713.1611958934304, -3713.340009849073, -3713.272954615707, -3713.8764517160002, -3714.9940389387657, -3714.010562182732, -3713.988210438277, -3714.5470040496593, -3715.150501149953, -3715.1281494054974, -3714.9716871943106, -3713.8317482270895, -3713.9658586938217, -3714.6811145163915, -3715.821053483612, -3714.7705214942125, -3716.0222191837097, -3716.826881984101, -3715.597536039059, -3713.988210438277, -3712.758864493235, -3710.277820858696, -3708.713198746824, -3708.757902235735, -3710.680152258891, -3711.5518702926483, -3712.7812162376904, -3712.267126115218, -3713.585879038081, -3715.7987017391565, -3715.3293151055955, -3714.9046319609442, -3715.150501149953, -3714.0999691605534, -3714.502300560749, -3713.988210438277, -3713.1835476378856, -3712.647105770958, -3712.8259197266007, -3711.9318499483884, -3714.1670243939193, -3716.2233848838077, -3715.6422395279697, -3716.0222191837097, -3714.882280216489, -3714.7481697497574, -3714.3234866051066, -3714.8375767275784, -3715.8434052280672, -3715.7316465057906, -3715.1281494054974, -3714.7034662608467, -3714.7705214942125, -3714.792873238668, -3715.552832550148, -3715.239908127774, -3713.8764517160002, -3714.0776174160983, -3715.4857773167823, -3715.463425572327, -3715.2846116166847, -3715.1281494054974, -3715.239908127774, -3715.664591272425, -3715.463425572327, -3716.0222191837097, -3715.150501149953, -3715.552832550148, -3715.9998674392546, -3715.597536039059, -3715.4187220834165, -3714.3905418384725, -3713.652934271447, -3715.508129061238, -3713.8093964826344, -3714.435245327383, -3714.010562182732, -3713.3176581046177, -3713.898803460456, -3713.943506949366, -3714.0776174160983, -3715.0610941721316, -3715.6422395279697, -3714.0776174160983, -3713.7646929937237, -3713.5411755491705, -3712.8706232155114, -3713.6752860159027, -3713.8764517160002, -3713.921155204911, -3714.435245327383, -3713.1164924045197, -3713.9658586938217, -3714.9940389387657, -3714.6140592830257, -3714.3458383495617, -3713.4294168268943, -3714.1223209050086, -3714.9046319609442, -3715.0610941721316, -3714.502300560749, -3713.4741203158046, -3714.502300560749, -3714.144672649464, -3714.1893761383744, -3714.0552656716427, -3713.0270854266987, -3713.205899382341, -3713.2282511267963, -3712.960030193333, -3713.0941406600646, -3712.311829604129, -3713.608230782537, -3713.8317482270895, -3715.0610941721316, -3714.949335449855, -3713.943506949366, -3713.8764517160002, -3714.278783116196, -3714.9046319609442, -3714.21172788283, -3713.943506949366, -3713.988210438277, -3714.59170753857, -3714.234079627285, -3714.524652305204, -3713.272954615707, -3713.3847133379836, -3712.758864493235, -3712.647105770958, -3713.0717889156094, -3713.8317482270895, -3714.3234866051066, -3714.010562182732, -3714.658762771936, -3713.8764517160002, -3712.691809259869, -3713.630582526992, -3713.3176581046177, -3713.4294168268943, -3714.010562182732, -3713.3847133379836, -3713.3176581046177, -3713.652934271447, -3714.524652305204, -3714.792873238668, -3713.563527293626, -3713.943506949366, -3715.4857773167823, -3715.552832550148, -3715.463425572327, -3713.608230782537, -3714.5470040496593, -3715.3293151055955, -3715.1952046388633, -3715.3293151055955, -3714.524652305204, -3715.3963703389613, -3715.0610941721316, -3715.3293151055955, -3715.0834459165867, -3714.9046319609442, -3714.1670243939193, -3715.3516668500506, -3716.1339779059863, -3715.2846116166847, -3714.4799488162935, -3714.9716871943106, -3715.3516668500506, -3715.4410738278716, -3715.1952046388633, -3715.0834459165867, -3715.30696336114, -3715.4410738278716, -3715.0387424276764, -3715.575184294604, -3715.664591272425, -3715.4187220834165, -3716.2233848838077, -3715.664591272425, -3714.882280216489, -3714.278783116196, -3714.144672649464, -3713.5411755491705, -3714.1893761383744, -3714.0999691605534, -3711.976553437299, -3712.9376784488773, -3713.8093964826344, -3710.8142627256234, -3708.109701646531, -3708.5343847911818, -3708.0649981576203, -3708.176756879897, -3707.148576634953, -3707.752073735246, -3707.752073735246, -3708.9367161913774, -3709.048474913654, -3708.6461435134584, -3708.73555049128, -3708.1544051354417, -3708.087349902076, -3707.30503884614, -3708.981419680288, -3708.623791769003, -3706.455672556838, -3707.2156318683187, -3708.8473092135564, -3708.1991086243524, -3708.176756879897, -3707.953239435344, -3707.6403150129695, -3708.713198746824, -3709.696675502858, -3708.8026057246457, -3707.9979429242544, -3707.014466168221, -3707.394445823961, -3707.8414807130675, -3708.3555708355393, -3707.461501057327, -3708.422626068905, -3707.662666757425, -3707.394445823961, -3706.1650998789196, -3706.813300468123, -3706.6121347680255, -3705.785120223179, -3706.6344865124806, -3705.6063062675366, -3705.6510097564474, -3704.7792917226902, -3704.823995211601, -3706.343913834562, -3706.2545068567406, -3704.7122364893244, -3703.7064079888355, -3704.444015555861, -3704.7345882337795, -3705.1592713784307, -3705.4498440563493, -3705.852175456545, -3706.9474109348553, -3706.455672556838, -3706.656838256936, -3705.405140567439, -3705.181623122886, -3705.7180649898132, -3706.3215620901065, -3705.7180649898132, -3705.852175456545, -3705.3827888229835, -3706.433320812383, -3705.8968789454557, -3705.9639341788215, -3706.701541745847, -3705.2486783562517, -3706.6121347680255, -3705.181623122886, -3703.594649266559, -3701.4265300543943, -3700.264239342718, -3699.5489835201483, -3699.3254660755956, -3700.9347916763777, -3703.214669610819, -3703.8405184555672, -3706.1650998789196, -3706.6791900013914, -3706.2768586011957, -3706.5897830235704, -3706.0309894121874, -3706.6121347680255, -3707.886184201978, -3706.8356522125787, -3707.059169657132, -3706.3886173234723, -3706.4780243012938, -3706.120396390009, -3705.7180649898132, -3706.410969067928, -3704.9581056783327, -3704.108739389031, -3705.271030100707, -3705.5839545230815, -3704.6228295115034, -3704.891050444967, -3703.9299254333887, -3703.9299254333887, -3704.2652016002185, -3703.661704499925, -3704.3769603224946, -3704.823995211601, -3704.9581056783327, -3704.0193324112097, -3704.0193324112097, -3703.3264283330955, -3704.0416841556653, -3703.080559144087, -3702.2535445992407, -3702.946448677355, -3702.231192854785, -3702.4100068104276, -3703.371131822006, -3703.2817248441847, -3703.214669610819, -3703.438187055372, -3703.214669610819, -3704.9357539338775, -3703.4158353109165, -3702.9240969329, -3701.895916687956, -3702.275896343696, -3702.0300271546876, -3701.5159370322153, -3701.49358528776, -3700.7783294651904, -3701.3818265654836, -3702.6782277438915, -3702.275896343696, -3702.477062043794, -3702.20884111033, -3703.147614377453, -3704.2204981113077, -3702.879393443989, -3702.1641376214193, -3701.918268432411, -3701.7171027323134, -3702.141785876964, -3701.918268432411, -3701.3147713321177, -3700.4207015539055, -3702.275896343696, -3703.505242288738, -3702.789986466168, -3702.186489365875, -3702.0300271546876, -3702.7005794883466, -3703.9299254333887, -3703.214669610819, -3702.2535445992407, -3702.20884111033, -3703.9969806667546, -3703.1029108885423, -3703.1252626329974, -3702.141785876964, -3702.0970823880534, -3702.9688004218106, -3702.432358554883, -3701.538288776671, -3702.9240969329, -3702.6111725105256, -3702.141785876964, -3702.3429515770617, -3702.499413788249, -3702.432358554883, -3702.54411727716, -3703.1923178663637, -3703.0358556551764, -3702.477062043794, -3702.521765532704, -3702.4547102993383, -3702.3653033215173, -3704.6228295115034, -3704.7122364893244, -3704.1310911334863, -3703.5499457776486, -3703.169966121908, -3704.0416841556653, -3705.338085334073, -3703.7734632222014, -3703.795814966657, -3704.600477767048, -3703.4158353109165, -3704.6898847448692, -3704.0416841556653, -3702.9240969329, -3702.9688004218106, -3703.661704499925, -3703.885221944478, -3704.39931206695, -3704.7345882337795, -3704.39931206695, -3705.0922161450644, -3704.7122364893244, -3703.9969806667546, -3703.3264283330955, -3703.572297522104, -3704.846346956056, -3703.594649266559, -3702.857041699534, -3702.857041699534, -3702.566469021615, -3703.3934835664613, -3703.30407658864, -3702.2535445992407, -3703.0358556551764, -3704.086387644576, -3703.9969806667546, -3704.488719044771, -3703.7064079888355, -3704.39931206695, -3704.6675330004136, -3703.594649266559, -3703.3264283330955, -3703.9075736889336, -3704.086387644576, -3704.9804574227883, -3705.4498440563493, -3703.9969806667546, -3704.0640359001204, -3704.3322568335843, -3704.6228295115034, -3705.0028091672434, -3704.600477767048, -3704.086387644576, -3704.511070789227, -3704.0416841556653, -3703.728759733291, -3702.477062043794, -3701.6500474989475, -3703.3264283330955, -3703.1029108885423, -3703.0582073996316, -3703.1923178663637, -3704.108739389031, -3704.2875533446736, -3703.885221944478, -3704.3769603224946, -3704.0640359001204, -3703.214669610819, -3702.879393443989, -3702.946448677355, -3702.6111725105256, -3702.7005794883466, -3702.20884111033, -3701.49358528776, -3702.633524254981, -3703.661704499925, -3703.7064079888355, -3703.862870200023, -3702.7005794883466, -3703.4828905442823, -3703.147614377453, -3703.795814966657, -3703.594649266559, -3702.9240969329, -3702.7005794883466, -3703.0358556551764, -3702.7676347217125, -3703.2817248441847, -3701.9406201768666, -3702.6782277438915, -3703.594649266559, -3703.2593730997296, -3703.169966121908, -3701.203012609841, -3702.4100068104276, -3702.789986466168, -3701.8735649435002, -3700.912439931922, -3700.666570742914, -3702.9240969329, -3702.6782277438915, -3702.7229312328022, -3702.432358554883, -3701.471233543305, -3700.979495165288, -3702.6111725105256, -3702.9911521662657, -3702.0076754102324], [-2743.4307626999334, -2742.894320833006, -2744.503646433788, -2743.9448528224057, -2742.3802307105343, -2742.6484516439978, -2744.548349922699, -2745.285957489724, -2746.3364894791234, -2745.0400883007155, -2744.838922600618, -2743.251948744291, -2743.386059211023, -2744.928329578439, -2743.7213353778525, -2743.6319284000315, -2746.5600069236766, -2745.9788615678385, -2745.2636057452687, -2745.1741987674477, -2746.0012133122937, -2745.6435854010087, -2743.4307626999334, -2743.1178382775593, -2745.6659371454643, -2745.442419700911, -2744.168370266959, -2744.2801289892354, -2745.777695867741, -2744.838922600618, -2744.928329578439, -2744.7495156227965, -2745.151847022992, -2744.503646433788, -2744.1460185225033, -2744.9730330673497, -2744.7271638783413, -2744.838922600618, -2744.928329578439, -2744.168370266959, -2743.386059211023, -2744.3918877115116, -2745.2636057452687, -2746.157675523481, -2746.425896456945, -2745.151847022992, -2742.6484516439978, -2743.5872249111208, -2745.5318266787326, -2745.6659371454643, -2745.487123189822, -2745.3977162120004, -2744.9506813228945, -2743.609576655576, -2742.156713265981, -2744.101315033593, -2745.129495278537, -2744.7271638783413, -2743.7213353778525, -2744.6154051560648, -2744.3248324781457, -2742.581396410632, -2741.3967539545006, -2744.1460185225033, -2743.6319284000315, -2741.9778993103387, -2742.536692921721, -2742.804913855185, -2742.4696376883553, -2743.0284312997383, -2742.0896580326153, -2741.35205046559, -2741.4191056989557, -2742.6931551329085, -2742.581396410632, -2741.553216165688, -2742.82726559964, -2743.766038866763, -2743.5872249111208, -2744.548349922699, -2745.218902256358, -2743.810742355674, -2742.603748155087, -2745.285957489724, -2745.934158078928, -2745.8894545900175, -2745.6659371454643, -2744.816570856163, -2746.224730756847, -2745.5541784231878, -2744.3471842226013, -2742.581396410632, -2744.481294689333, -2744.168370266959, -2744.481294689333, -2744.0342598002267, -2741.955547565883, -2740.905015576484, -2744.6601086449755, -2744.771867367252, -2744.213073755869, -2742.5590446661768, -2743.475466188844, -2742.7825621107295, -2744.4365912004223, -2745.129495278537, -2745.8894545900175, -2745.800047612196, -2744.7271638783413, -2745.1071435340814, -2743.0507830441934, -2744.0342598002267, -2745.6882888899195, -2745.822399356651, -2744.458942944878, -2744.3695359670564, -2745.062440045171, -2743.87779758904, -2744.3024807336906, -2744.3918877115116, -2743.6989836333973, -2744.481294689333, -2743.2966522332017, -2742.894320833006, -2743.609576655576, -2744.3695359670564, -2744.190722011414, -2744.3248324781457, -2744.0789632891374, -2743.6989836333973, -2745.5541784231878, -2744.168370266959, -2742.6484516439978, -2744.1460185225033, -2744.7271638783413, -2744.9953848118053, -2743.6319284000315, -2742.581396410632, -2742.6931551329085, -2743.16254176647, -2742.2684719882577, -2742.4472859439, -2742.536692921721, -2743.475466188844, -2746.0012133122937, -2744.928329578439, -2743.453114444389, -2743.6766318889418, -2743.810742355674, -2743.0284312997383, -2742.156713265981, -2742.4696376883553, -2743.0731347886485, -2743.6319284000315, -2743.9448528224057, -2743.16254176647, -2743.967204566861, -2742.290823732713, -2741.933195821428, -2742.0226027992494, -2742.9837278108275, -2742.9837278108275, -2742.1343615215255, -2743.833094100129, -2744.548349922699, -2743.520169677755, -2742.3802307105343, -2743.520169677755, -2745.487123189822, -2744.548349922699, -2743.0507830441934, -2743.2743004887466, -2742.737858621819, -2742.6931551329085, -2741.0391260432157, -2742.6708033884534, -2741.933195821428, -2741.866140588062, -2742.0896580326153, -2741.597919654598, -2741.7096783768748, -2742.581396410632, -2741.1508847654923, -2740.8156085986625, -2740.0780010316375, -2741.4191056989557, -2743.2072452553807, -2743.833094100129, -2742.894320833006, -2741.910844076973, -2742.156713265981, -2742.0226027992494, -2740.905015576484, -2743.1401900220144, -2743.0507830441934, -2742.246120243802, -2742.201416754892, -2741.888492332517, -2742.246120243802, -2742.2684719882577, -2742.3578789660787, -2742.0226027992494, -2743.2072452553807, -2742.1343615215255, -2741.9778993103387, -2742.82726559964, -2742.82726559964, -2742.7602103662744, -2741.486160932322, -2742.0449545437045, -2743.2743004887466, -2742.4919894328104, -2741.195588254403, -2742.2684719882577, -2741.933195821428, -2742.1343615215255, -2742.804913855185, -2742.804913855185, -2742.4472859439, -2742.9166725774617, -2742.939024321917, -2742.4472859439, -2742.6931551329085, -2742.7602103662744, -2742.9166725774617, -2741.508512676777, -2739.899187075995, -2740.770905109752, -2741.0391260432157, -2740.3909254540117, -2740.927367320939, -2740.5250359207434, -2741.5308644212323, -2740.6591463874756, -2738.871006831051, -2740.0556492871824, -2740.9497190653947, -2740.569739409654, -2741.35205046559, -2740.703849876386, -2741.933195821428, -2741.553216165688, -2741.6873266324196, -2741.866140588062, -2741.2402917433133, -2741.9778993103387, -2742.0226027992494, -2741.508512676777, -2742.3802307105343, -2741.0167742987605, -2739.5639109091653, -2738.356916708579, -2740.3685737095566, -2741.3967539545006, -2741.061477787671, -2741.6873266324196, -2741.597919654598, -2741.575567910143, -2740.2121114983693, -2739.1392277645145, -2739.250986486791, -2740.8156085986625, -2740.927367320939, -2741.9778993103387, -2741.2402917433133, -2740.4132771984673, -2740.1227045205483, -2740.279166731735, -2740.1227045205483, -2738.9157103199614, -2740.1227045205483, -2740.5026841762883, -2739.4745039313443, -2740.7485533652966, -2741.2402917433133, -2740.860312087573, -2741.2402917433133, -2741.4191056989557, -2741.3296987211347, -2742.603748155087, -2741.6873266324196, -2741.7767336102406, -2741.5308644212323, -2740.189759753914, -2740.7932568542074, -2742.3578789660787, -2742.0896580326153, -2742.2684719882577, -2742.1343615215255, -2740.5250359207434, -2740.6814981319308, -2740.4132771984673, -2739.586262653621, -2739.3403934646126, -2739.630966142531, -2738.9157103199614, -2740.569739409654, -2741.4191056989557, -2740.3685737095566, -2740.4579806873776, -2740.547387665199, -2739.6980213758975, -2740.0109457982717, -2741.0167742987605, -2739.4521521868887, -2738.1110475195705, -2736.5687771521543, -2736.1664457519587, -2735.4288381849337, -2736.2782044742353, -2737.8875300750174, -2738.06634403066, -2738.6921928754086, -2738.7815998532296, -2739.0721725311487, -2739.228634742336, -2739.3627452090677, -2739.0721725311487, -2738.960413808872, -2738.9157103199614, -2738.2675097307574, -2739.3403934646126, -2740.5026841762883, -2739.1168760200594, -2738.06634403066, -2738.580434153132, -2738.647489386498, -2741.061477787671, -2741.0391260432157, -2740.1227045205483, -2740.346221965101, -2741.5308644212323, -2741.597919654598, -2740.8826638320284, -2741.217939998858, -2740.994422554305, -2740.905015576484, -2741.195588254403, -2742.1343615215255, -2740.6814981319308, -2741.888492332517, -2741.5308644212323, -2740.860312087573, -2741.262643487769, -2741.7096783768748, -2741.262643487769, -2742.201416754892, -2741.0838295321264, -2741.0167742987605, -2741.6873266324196, -2741.35205046559, -2740.5920911541098, -2741.7320301213304, -2744.0342598002267, -2743.3413557221124, -2743.1178382775593, -2742.3802307105343, -2742.3578789660787, -2742.536692921721, -2741.799085354696, -2740.927367320939, -2743.16254176647, -2742.290823732713, -2741.553216165688, -2741.4638091878664, -2742.603748155087, -2742.894320833006, -2741.7320301213304, -2742.1790650104363, -2742.201416754892, -2741.7320301213304, -2741.799085354696, -2739.318041720157, -2738.669841130953, -2734.2665474732576, -2724.5658903796543, -2718.6203263545426, -2712.026561740227, -2701.811814524152, -2693.7875382646967, -2688.6242852955206, -2684.6680265269315, -2676.152011889459, -2672.218104865325, -2669.3794333195015, -2666.607817007043, -2661.0422326376715, -2661.0869361265823, -2657.890636669473, -2655.4990000127555, -2656.7059942133424, -2657.0412703801717, -2658.292968069669, -2660.5728460041105, -2662.4056890494453, -2665.2220088508143, -2666.0490233956607, -2667.5242385297106, -2668.8876949414844, -2669.602950764054, -2671.4357938093895, -2673.000415921261, -2672.19575312087, -2674.252113610758, -2674.4309275664004, -2674.877962455507, -2675.9284944449064, -2675.5038113002556, -2676.19671537837, -2676.19671537837, -2676.777860734208, -2677.0460816676714, -2678.0519101681602, -2677.9401514458837, -2677.448413067867, -2678.0519101681602, -2677.426061323412, -2676.2190671228254, -2677.761337490241, -2677.873096212518, -2678.7895177351857, -2674.4085758219453, -2671.234628109292, -2669.7370612307864, -2665.4902297842777, -2663.769145461219, -2662.472744282811, -2659.902293670451, -2658.7623547032304, -2659.6340727369875, -2658.494133769767, -2661.2881018266803, -2661.153991359948, -2660.9975291487613, -2660.9751774043057, -2662.137468115982, -2661.2433983377696, -2661.578674504599, -2662.6292064939985, -2662.9421309163727, -2662.472744282811, -2662.808020449641, -2663.0538896386493, -2660.2375698372807, -2660.2375698372807, -2661.422212293412, -2661.869247182518, -2661.802191949152, -2660.3269768151017, -2660.0587558816383, -2660.550494259655, -2660.2152180928256, -2661.1763431044037, -2659.5893692480768, -2657.555360502644, -2658.0918023695713, -2658.807058192141, -2659.4329070368894, -2659.09763087006, -2657.6671192249205, -2660.1481628594593, -2658.941168658873, -2658.851761681052, -2657.3765465470015, -2659.902293670451, -2661.0869361265823, -2663.076241383105, -2662.226875093803, -2667.1442588739706, -2679.3706630910237, -2690.2112591518476, -2702.258849413258, -2712.451244884878, -2722.0177915117492, -2732.321945705646, -2742.6931551329085, -2752.0808878041375, -2758.7864111407293, -2765.5142862217767, -2771.21398105788, -2774.8573154040955, -2779.1488503395144, -2777.1371933385367, -2778.254780561302, -2777.2489520608133, -2775.729033437852, -2776.511344493788, -2775.796088671218, -2776.0419578602264, -2774.902018893006, -2774.4326322594443, -2775.5725712266653, -2775.5725712266653, -2774.164411325981, -2773.672672947964, -2773.538562481232, -2774.745556681819, -2775.416109015478, -2774.11970783707, -2774.164411325981, -2773.2926932922237, -2772.778603169752, -2772.5997892141095, -2772.1080508360924, -2771.996292113816, -2772.6444927030198, -2771.9739403693607, -2771.504553735799, -2769.828172901651, -2766.944797866917, -2764.8884373770284, -2766.296597277713, -2763.0779460761487, -2758.3617279960786, -2755.0536698166934, -2753.9807860828387, -2752.5949779266093, -2750.382155225534, -2750.4715622033555, -2750.650376158998, -2750.292748247713, -2752.7737918822518, -2753.0867163046264, -2750.806838370185, -2750.650376158998, -2751.767963381763, -2752.036184315227, -2750.9856523258272, -2750.4492104589, -2750.6280244145423, -2750.315099992168, -2751.2762250037463, -2751.611501170576, -2751.343280237112, -2751.4997424482995, -2751.2315215148355, -2751.54444593721, -2750.8738936035506, -2750.963300581372, -2750.8291901146404, -2749.5327889362325, -2748.5716639246543, -2749.3986784695007, -2750.4268587144447, -2749.7563063807856, -2750.3374517366233, -2749.421030213956, -2748.8175331136626, -2748.750477880297, -2747.811704613174, -2745.5988819120985, -2746.2023790123917, -2748.348146480101, -2747.834056357629, -2749.5998441695983, -2747.811704613174, -2749.9574720808832, -2750.8515418590955, -2749.6892511474193, -2749.1081057915817, -2749.9127685919725, -2749.6892511474193, -2749.9574720808832, -2750.7621348812745, -2751.5667976816653, -2749.421030213956, -2749.4880854473217, -2749.8457133586066, -2748.9739953248495, -2748.772829624752, -2748.9739953248495, -2748.9739953248495, -2747.5658354241655, -2749.9798238253384, -2750.1362860365257, -2748.5940156691095, -2749.3092714916793, -2748.2363877578246, -2749.130457536037, -2748.325794735646, -2748.795181369207, -2750.292748247713, -2750.5386174367213, -2749.063402302671, -2746.8952830905064, -2747.185855768425, -2746.671765645953, -2746.82822785714, -2747.0070418127825, -2747.2976144907016, -2747.677594146442, -2748.728126135841, -2748.9739953248495, -2747.968166824361, -2746.381192968034, -2746.671765645953, -2747.54348367971, -2746.8952830905064, -2746.738820879319, -2746.425896456945, -2746.9846900683274, -2746.6047104125873, -2745.844751101107, -2746.9623383238722, -2746.224730756847, -2746.9176348349615, -2746.0459168012044, -2746.224730756847, -2746.2694342457576, -2745.934158078928, -2745.844751101107, -2746.157675523481, -2745.151847022992, -2744.6154051560648, -2746.381192968034, -2745.710640634375, -2744.838922600618, -2743.2966522332017, -2742.9166725774617, -2743.095486533104, -2743.5872249111208, -2743.251948744291, -2745.0847917896263, -2745.129495278537, -2744.123666778048, -2744.8836260895287, -2744.548349922699, -2743.6989836333973, -2742.939024321917, -2742.6708033884534, -2742.000251054794, -2743.386059211023, -2744.414239455967, -2742.9166725774617, -2743.5872249111208, -2743.2743004887466, -2741.933195821428, -2742.536692921721, -2740.860312087573, -2742.871969088551, -2743.810742355674, -2743.54252142221, -2744.7271638783413, -2742.4249341994446, -2742.581396410632, -2742.4249341994446, -2742.6484516439978, -2742.7155068773636, -2741.7096783768748, -2741.9778993103387, -2742.9837278108275, -2743.0731347886485, -2742.4919894328104, -2742.290823732713, -2742.313175477168, -2741.6873266324196, -2740.860312087573, -2741.4414574434113, -2742.0896580326153, -2740.7262016208415, -2740.1450562650034, -2741.553216165688, -2743.0731347886485, -2742.7155068773636, -2740.4132771984673, -2739.586262653621, -2738.7815998532296, -2740.234463242825, -2741.061477787671, -2740.927367320939, -2742.1790650104363, -2741.35205046559, -2741.262643487769, -2741.8214370991514, -2739.385096953523, -2740.569739409654, -2741.9778993103387, -2741.195588254403, -2741.0391260432157, -2740.1674080094585, -2741.2402917433133, -2741.642623143509, -2741.7543818657855, -2739.5639109091653, -2738.9827655533277, -2739.3627452090677, -2740.4579806873776, -2740.480332431833, -2739.7650766092634, -2739.4521521868887, -2739.005117297783, -2739.608614398076, -2739.7203731203526, -2738.0439922862047, -2736.97110855235, -2739.318041720157, -2739.7874283537185, -2739.0721725311487, -2738.893358575506, -2738.312213219668, -2738.379268453034, -2738.021640541749, -2740.033297542727, -2741.575567910143, -2740.2121114983693, -2739.4074486979785, -2739.1839312534253, -2738.222806241847, -2738.9157103199614, -2739.027469042238, -2739.1839312534253, -2738.8486550865955, -2739.7203731203526, -2738.5357306642213, -2737.5075504192773, -2737.619309141554, -2736.9487568078944, -2736.322907963146, -2739.519207420255, -2739.519207420255, -2736.904053318984, -2739.228634742336, -2739.318041720157, -2737.2169777413583, -2736.479370174333, -2736.1664457519587, -2737.932233563928, -2738.4686754308555, -2739.228634742336, -2739.1168760200594, -2736.904053318984, -2737.418143441456, -2737.9545853083832, -2736.389963196512, -2738.513378919766, -2736.8817015745285, -2737.1722742524476, -2738.4910271753106, -2737.3957916970007, -2736.7252393633416, -2736.8593498300734, -2737.3957916970007, -2737.68636437492, -2737.127570763537, -2737.664012630464, -2736.613480641065, -2737.8651783305622, -2737.641660886009, -2737.35108820809, -2736.904053318984, -2737.1052190190817, -2737.664012630464, -2737.5969573970983, -2738.06634403066, -2737.641660886009, -2736.9487568078944, -2736.032335285227, -2734.9818032958274, -2735.764114351763, -2736.389963196512, -2736.345259707601, -2735.719410862853, -2737.5969573970983, -2737.0158120412602, -2734.1994922398917, -2735.361782951568, -2736.032335285227, -2736.613480641065, -2736.769942852252, -2736.8593498300734, -2736.479370174333, -2735.6300038850313, -2736.9264050634392, -2736.054687029682, -2736.904053318984, -2737.4404951859115, -2736.4570184298777, -2736.322907963146, -2735.9876317963162, -2735.607652140576, -2736.121742263048, -2738.2004544973915, -2740.860312087573, -2741.6873266324196, -2740.1227045205483, -2739.7203731203526, -2740.3685737095566, -2740.569739409654, -2740.837960343118, -2738.7815998532296, -2736.2782044742353, -2736.546425407699, -2737.664012630464, -2736.1440940075036, -2735.093562018104, -2735.451189929389, -2735.764114351763, -2735.808817840674, -2737.9545853083832, -2737.8428265861066, -2737.775771352741, -2738.714544619864, -2738.1110475195705, -2735.8982248184952, -2736.904053318984, -2739.4745039313443, -2738.7815998532296, -2737.68636437492, -2737.2393294858134, -2736.904053318984, -2736.8593498300734, -2737.1052190190817, -2737.5299021637325, -2738.222806241847, -2737.3957916970007, -2736.904053318984, -2737.1722742524476, -2737.73106786383, -2736.9487568078944, -2738.1781027529364, -2737.73106786383, -2737.328736463635, -2737.619309141554, -2738.4463236864, -2739.027469042238, -2737.8651783305622, -2738.289861475213, -2739.027469042238, -2737.8875300750174, -2736.6581841299753, -2737.284032974724, -2739.586262653621, -2737.7981230971964, -2738.021640541749, -2738.602785897587, -2737.8651783305622, -2737.9098818194725, -2737.73106786383, -2737.708716119375, -2737.3957916970007, -2738.580434153132, -2738.3345649641237, -2738.088695775115, -2737.574605652643, -2736.479370174333, -2737.2393294858134, -2738.356916708579, -2737.4851986748217, -2737.3957916970007, -2738.938062064417, -2739.005117297783, -2738.5357306642213, -2739.005117297783, -2738.9157103199614, -2737.8875300750174, -2736.054687029682, -2736.054687029682, -2737.1052190190817, -2737.68636437492, -2737.35108820809, -2735.764114351763, -2736.9264050634392, -2736.2335009853246, -2734.7582858512746, -2734.3112509621683, -2734.8476928290956, -2735.2500242292913, -2737.574605652643, -2736.613480641065, -2735.7864660962186, -2735.719410862853, -2736.613480641065, -2735.2723759737464, -2732.8583875725735, -2733.3054224616794, -2735.4288381849337, -2735.026506784738, -2735.1382655070147, -2734.937099806917, -2734.9147480624615, -2734.5347684067215, -2734.3336027066234, -2734.3336027066234, -2733.2160154838584, -2732.9924980393052, -2734.512416662266, -2736.2782044742353, -2735.2053207403806, -2734.713582362364, -2734.802989340185, -2734.713582362364, -2734.5571201511766, -2733.104256761582, -2735.1159137625596, -2736.345259707601, -2735.093562018104, -2735.1829689959254, -2735.1159137625596, -2735.2276724848357, -2734.7582858512746, -2734.4006579399893, -2734.713582362364, -2735.7864660962186, -2736.1664457519587, -2735.2276724848357, -2735.7864660962186, -2736.412314940967, -2735.361782951568, -2734.087733517615, -2735.026506784738, -2735.4288381849337, -2735.764114351763, -2736.099390518593, -2735.7864660962186, -2736.680535874431, -2736.389963196512, -2735.9429283074055, -2735.384134696023, -2736.345259707601, -2736.546425407699, -2735.9205765629504, -2735.4735416738445, -2736.2111492408694, -2735.7864660962186, -2735.451189929389, -2735.2053207403806, -2734.423009684445, -2735.451189929389, -2736.5911288966095, -2736.1664457519587, -2736.054687029682, -2733.439532928411, -2732.701925361386, -2734.9147480624615, -2734.0206782842492, -2733.439532928411, -2735.2053207403806, -2736.322907963146, -2734.2665474732576, -2733.2607189727687, -2732.813684083663, -2735.4288381849337, -2736.121742263048, -2735.1382655070147, -2734.5347684067215, -2734.802989340185, -2734.2665474732576, -2734.9818032958274, -2734.132437006526, -2734.4453614289, -2734.2441957288024, -2734.9818032958274, -2734.713582362364, -2733.5736433951433, -2734.288899217713, -2733.1713119949477, -2732.411352683467, -2733.8195125841517, -2732.9701462948497, -2733.417181183956, -2734.6018236400873, -2733.9089195619727, -2732.6348701280203, -2732.768980594752, -2731.6290416275315, -2732.0537247721822, -2732.768980594752, -2734.0206782842492, -2735.1829689959254, -2735.2276724848357, -2734.5794718956317, -2735.004155040283, -2734.78063759573, -2734.2665474732576, -2734.9147480624615, -2734.668878873453, -2733.8195125841517, -2733.1713119949477, -2733.0148497837604, -2731.472579416344, -2732.3442974501013, -2733.104256761582, -2733.193663739403, -2733.417181183956, -2733.640698628509, -2733.9759747953385, -2733.774809095241, -2732.031373027727, -2731.472579416344, -2731.15965499397, -2732.165483494459, -2733.752457350786, -2734.2441957288024, -2734.78063759573, -2735.004155040283, -2734.0430300287044, -2734.4453614289, -2733.3277742061346, -2732.5231114057437, -2732.0760765166374]]
[[-3697.962009663822, -3697.4255677968945, -3698.1184718750087, -3698.5431550196595, -3698.0290648971877, -3698.7443207197575, -3698.4090445529278, -3698.341989319562, -3697.8502509415453, -3694.788061951168, -3692.5975909945478, -3690.8765066714896, -3691.7035212163355, -3692.508184016727, -3693.5140125172156, -3694.0057508952323, -3695.9727044072993, -3697.313809074618, -3697.2244020967964, -3697.1796986078857, -3697.962009663822, -3697.2244020967964, -3698.297285830651, -3697.649085241447, -3696.5091462742266, -3694.9221724179, -3695.1009863735426, -3694.4527857843386, -3695.749186962746, -3695.5703730071036, -3694.8104136956235, -3694.363378806517, -3694.363378806517, -3694.989227651266, -3694.5868962510704, -3695.1233381179977, -3694.721006717802, -3696.330332318584, -3695.950352662844, -3695.995056151755, -3696.73266371878, -3696.330332318584, -3696.755015463235, -3697.11264337452, -3698.274934086196, -3695.7715387072017, -3696.039759640665, -3697.246753841252, -3697.962009663822, -3696.73266371878, -3697.11264337452, -3696.620904996503, -3695.995056151755, -3697.0679398856096, -3697.2244020967964, -3697.403216052439, -3697.1796986078857, -3697.5149747747155, -3698.2302305972853, -3697.4926230302603, -3696.7103119743247, -3696.464442785316, -3697.559678263626, -3698.1855271083746, -3697.8949544304555, -3697.2914573301623, -3697.4926230302603, -3698.4090445529278, -3698.20787885283, -3697.336160819073, -3697.11264337452, -3695.8832974294783, -3697.8949544304555, -3697.0008846522433, -3697.246753841252, -3696.4420910408608, -3697.7384922192687, -3698.4537480418385, -3697.8949544304555, -3697.671436985903, -3697.693788730358, -3696.330332318584, -3698.9678381643107, -3698.699617230847, -3697.693788730358, -3697.2020503523413, -3697.045588141154, -3698.4760997862936, -3698.0737683860984, -3697.984361408277, -3696.8667741855115, -3697.023236396699, -3697.5373265191706, -3698.20787885283, -3698.1408236194643, -3696.7773672076905, -3698.4090445529278, -3699.079596886587, -3699.0572451421317, -3699.7501492202464, -3698.051416641643, -3698.4090445529278, -3698.8113759531234, -3699.2584108422293, -3698.0961201305536, -3697.626733496992, -3697.1573468634306, -3697.1349951189754, -3697.336160819073, -3696.8667741855115, -3697.1796986078857, -3697.358512563528, -3697.9396579193663, -3698.051416641643, -3697.4479195413496, -3697.5149747747155, -3697.403216052439, -3697.0902916300647, -3697.4702712858048, -3697.1349951189754, -3695.950352662844, -3696.2856288296734, -3697.671436985903, -3697.671436985903, -3696.7103119743247, -3695.4586142848275, -3696.1291666184866, -3696.464442785316, -3696.39738755195, -3695.749186962746, -3696.1962218518524, -3696.2185735963076, -3696.6432567409583, -3697.0902916300647, -3696.330332318584, -3696.1291666184866, -3697.023236396699, -3697.336160819073, -3697.671436985903, -3697.4479195413496, -3697.11264337452, -3697.11264337452, -3697.11264337452, -3697.559678263626, -3696.4197392964056, -3695.726835218291, -3696.620904996503, -3696.9114776744223, -3697.2914573301623, -3698.1184718750087, -3697.0008846522433, -3697.962009663822, -3698.341989319562, -3697.1796986078857, -3696.5091462742266, -3696.620904996503, -3696.7773672076905, -3696.620904996503, -3695.6150764960144, -3695.369207307006, -3694.4751375287938, -3695.279800329185, -3696.620904996503, -3696.01740789621, -3694.631599739981, -3694.8774689289894, -3694.8104136956235, -3694.8774689289894, -3696.2185735963076, -3695.145689862453, -3693.715178217313, -3694.698654973347, -3696.039759640665, -3694.9445241623553, -3694.9445241623553, -3694.788061951168, -3694.6092479955255, -3696.1738701073973, -3695.68213172938, -3694.989227651266, -3695.68213172938, -3695.30215207364, -3695.1680416069084, -3695.6150764960144, -3694.430434039883, -3694.3857305509728, -3695.3245038180953, -3695.2350968402743, -3695.3245038180953, -3694.788061951168, -3695.30215207364, -3694.788061951168, -3695.1903933513636, -3696.01740789621, -3696.01740789621, -3694.6092479955255, -3694.2516200842406, -3694.9668759068104, -3695.369207307006, -3694.6763032288914, -3694.765710206713, -3693.9386956618664, -3695.056282884632, -3695.4139107959168, -3694.9221724179, -3695.2127450958187, -3695.8832974294783, -3696.7773672076905, -3697.1349951189754, -3696.330332318584, -3695.8832974294783, -3695.279800329185, -3696.01740789621, -3695.950352662844, -3695.279800329185, -3695.4586142848275, -3694.989227651266, -3695.9056491739334, -3696.956181163333, -3696.1962218518524, -3695.011579395721, -3696.889125929967, -3696.2856288296734, -3696.889125929967, -3696.73266371878, -3696.039759640665, -3696.665608485414, -3696.8444224410564, -3696.889125929967, -3695.6150764960144, -3693.089329372565, -3690.831803182579, -3691.077672371587, -3691.1894310938637, -3690.8765066714896, -3693.424605539394, -3696.039759640665, -3697.649085241447, -3695.279800329185, -3695.391559051461, -3697.917306174911, -3696.7997189521457, -3696.5091462742266, -3696.665608485414, -3695.391559051461, -3695.63742824047, -3694.989227651266, -3695.63742824047, -3694.8327654400787, -3695.726835218291, -3694.765710206713, -3694.721006717802, -3696.1291666184866, -3694.8998206734445, -3693.782233450679, -3694.8774689289894, -3695.391559051461, -3696.01740789621, -3697.3808643079838, -3696.106814874031, -3694.8327654400787, -3695.078634629087, -3696.1962218518524, -3698.006713152732, -3697.403216052439, -3696.375035807495, -3696.978532907788, -3697.1573468634306, -3696.1738701073973, -3696.375035807495, -3695.279800329185, -3696.01740789621, -3695.7715387072017, -3695.369207307006, -3695.2127450958187, -3695.2350968402743, -3695.8832974294783, -3695.391559051461, -3694.765710206713, -3694.788061951168, -3697.1796986078857, -3697.246753841252, -3697.4479195413496, -3697.2914573301623, -3696.7997189521457, -3696.375035807495, -3697.403216052439, -3698.0737683860984, -3696.620904996503, -3696.978532907788, -3697.626733496992, -3698.58785850857, -3698.4313962973833, -3696.4197392964056, -3696.5091462742266, -3696.464442785316, -3696.531498018682, -3696.5762015075925, -3696.307980574129, -3695.8832974294783, -3696.1738701073973, -3696.531498018682, -3695.950352662844, -3694.139861361964, -3693.089329372565, -3691.144727604953, -3690.3624165490173, -3690.630637482481, -3689.3342363040733, -3689.893029915456, -3692.798756694646, -3693.715178217313, -3695.659779984925, -3694.631599739981, -3695.2350968402743, -3696.956181163333, -3696.01740789621, -3694.8327654400787, -3695.68213172938, -3695.726835218291, -3696.084463129576, -3695.726835218291, -3696.755015463235, -3695.726835218291, -3695.704483473836, -3696.375035807495, -3697.1796986078857, -3698.341989319562, -3697.1796986078857, -3696.8667741855115, -3697.8055474526345, -3697.5820300080813, -3697.358512563528, -3696.620904996503, -3696.330332318584, -3697.0679398856096, -3697.716140474813, -3696.4420910408608, -3695.0339311401763, -3694.9221724179, -3694.721006717802, -3695.592724751559, -3695.995056151755, -3694.9668759068104, -3694.497489273249, -3695.2127450958187, -3695.2127450958187, -3694.653951484436, -3694.653951484436, -3694.5421927621596, -3692.821108439101, -3694.430434039883, -3694.6763032288914, -3694.989227651266, -3694.050454384143, -3693.134032861475, -3693.6481229839474, -3694.273971828696, -3693.044625883654, -3692.9105154169224, -3694.050454384143, -3694.765710206713, -3694.4527857843386, -3694.117509617509, -3693.2010880948415, -3694.117509617509, -3694.497489273249, -3695.2350968402743, -3694.497489273249, -3693.759881706224, -3694.3857305509728, -3693.983399150777, -3694.273971828696, -3694.6092479955255, -3694.497489273249, -3695.1233381179977, -3694.1622131064196, -3693.8716404285005, -3694.2292683397854, -3693.8045851951347, -3695.1009863735426, -3696.665608485414, -3696.687960229869, -3694.6092479955255, -3695.1680416069084, -3695.68213172938, -3695.5703730071036, -3696.106814874031, -3695.4586142848275, -3696.889125929967, -3696.7773672076905, -3696.2856288296734, -3696.3526840630398, -3696.889125929967, -3695.995056151755, -3695.011579395721, -3696.687960229869, -3695.9056491739334, -3695.7715387072017, -3695.5703730071036, -3695.2350968402743, -3695.68213172938, -3695.1903933513636, -3693.3128468171176, -3693.82693693959, -3694.631599739981, -3695.5256695181934, -3695.5480212626485, -3695.3245038180953, -3694.9668759068104, -3695.391559051461, -3695.9280009183885, -3695.5703730071036, -3695.2127450958187, -3695.4809660292826, -3695.2127450958187, -3695.8832974294783, -3694.430434039883, -3694.4527857843386, -3695.5033177737378, -3693.715178217313, -3694.8998206734445, -3693.6481229839474, -3693.849288684045, -3694.653951484436, -3696.1962218518524, -3695.793890451657, -3695.2574485847294, -3695.0339311401763, -3693.8939921729557, -3693.8939921729557, -3694.7433584622577, -3693.9386956618664, -3693.9163439174113, -3694.0057508952323, -3694.139861361964, -3693.8716404285005, -3695.1009863735426, -3694.721006717802, -3694.2516200842406, -3694.3186753176064, -3694.117509617509, -3694.117509617509, -3694.5868962510704, -3694.721006717802, -3694.5198410177045, -3694.430434039883, -3695.8832974294783, -3695.2350968402743, -3693.4469572838498, -3694.2292683397854, -3694.721006717802, -3695.68213172938, -3694.5868962510704, -3694.3186753176064, -3695.0339311401763, -3695.2574485847294, -3694.9221724179, -3695.1233381179977, -3694.8327654400787, -3695.279800329185, -3696.7773672076905, -3696.1738701073973, -3695.5033177737378, -3695.011579395721, -3694.8998206734445, -3695.9727044072993, -3695.391559051461, -3694.698654973347, -3693.759881706224, -3694.1845648508747, -3695.5480212626485, -3695.793890451657, -3695.2127450958187, -3695.2127450958187, -3694.9221724179, -3695.1680416069084, -3696.3526840630398, -3695.1233381179977, -3693.5140125172156, -3690.0718438710983, -3695.4809660292826, -3702.879393443989, -3706.9027074459445, -3711.082483659087, -3717.8774139735, -3724.2923646321733, -3730.081466446098, -3736.339954893584, -3741.1679316959303, -3747.7393445657904, -3752.7684870682347, -3757.305891192662, -3760.1892662273967, -3765.5089814077596, -3771.231027988318, -3774.852010590078, -3779.9705600703433, -3782.853935105078, -3786.4525659623823, -3789.917086352955, -3792.4428334764048, -3795.8402986336114, -3797.7625486567676, -3799.215412046363, -3803.0599120926754, -3805.2503830492956, -3807.619667961558, -3808.692551695413, -3808.0890545951197, -3807.9325923839324, -3808.334923784128, -3808.267868550762, -3807.4855574948265, -3807.306743539184, -3806.882060394533, -3806.7703016722567, -3807.41850226146, -3807.329095283639, -3807.1949848169074, -3807.105577839086, -3808.1561098284856, -3808.714903439868, -3807.9996476172983, -3808.021999361754, -3806.9714673723543, -3807.75377842829, -3808.5807929731363, -3808.9384208844212, -3808.983124373332, -3807.776130172745, -3807.731426683835, -3808.1784615729407, -3808.6701999509573, -3806.8597086500777, -3807.5526127281923, -3809.273697051251, -3809.3184005401613, -3806.435025505427, -3806.4797289943376, -3809.4748627513486, -3813.140548842019, -3813.073493608653, -3813.1852523309294, -3811.7994441747005, -3812.9617348863767, -3812.559403486181, -3811.955906385888, -3811.75474068579, -3811.240650563318, -3811.0618366076756, -3812.559403486181, -3812.8723279085552, -3812.4699965083596, -3812.0229616192537, -3811.2853540522283, -3811.1512435854966, -3810.4359877629267, -3807.6420197060133, -3806.077397594142, -3806.144452827508, -3807.105577839086, -3808.2231650618514, -3809.4525110068935, -3810.5477464852033, -3812.3135342971727, -3812.1123685970747, -3812.8052726751894, -3813.207604075385, -3810.8159674186672, -3811.397112774505, -3813.4534732643933, -3812.939383141921, -3810.9277261409434, -3811.2182988188624, -3810.8383191631224, -3812.1347203415303, -3811.0841883521307, -3811.03948486322, -3812.0676651081644, -3812.917031397466, -3812.604106975092, -3812.9617348863767, -3811.397112774505, -3811.3524092855946, -3811.330057541139, -3811.4641680078707, -3812.045313363709, -3812.3135342971727, -3811.620630219058, -3811.307705796684, -3812.5370517417255, -3813.297011053206, -3812.984086630832, -3812.7605691862786, -3812.7829209307342, -3813.2523075642953, -3816.1580343434853, -3821.1871768459296, -3819.779016945245, -3807.4408540059158, -3795.37091200005, -3787.570153185148, -3779.300007736684, -3771.6780628774245, -3763.4749726623268, -3757.618815615036, -3750.4439056448828, -3743.0231264857207, -3736.0270304712094, -3730.21557691283, -3723.957088465344, -3718.3244488626065, -3710.5013383032488, -3704.756939978235, -3698.7443207197575, -3695.5256695181934, -3694.3186753176064, -3692.3293700610843, -3692.441128783361, -3694.028102639688, -3694.2292683397854, -3694.0057508952323, -3693.6034194950366, -3693.2234398392966, -3692.77640495019, -3692.754053205735, -3694.341027062062, -3693.8716404285005, -3692.6422944834585, -3693.0669776281093, -3693.9386956618664, -3693.2904950726625, -3693.379902050484, -3693.49166077276, -3694.5421927621596, -3694.4751375287938, -3695.63742824047, -3694.989227651266, -3694.564544506615, -3695.056282884632, -3694.8774689289894, -3695.6150764960144, -3694.5421927621596, -3693.6481229839474, -3694.8104136956235, -3694.1845648508747, -3694.430434039883, -3692.754053205735, -3693.49166077276, -3692.3517218055395, -3693.49166077276, -3694.5421927621596, -3693.044625883654, -3693.044625883654, -3693.625771239492, -3694.5421927621596, -3694.3186753176064, -3694.341027062062, -3694.5421927621596, -3695.68213172938, -3695.1680416069084, -3695.1680416069084, -3695.4139107959168, -3695.145689862453, -3695.68213172938, -3695.704483473836, -3695.391559051461, -3696.2632770852183, -3697.336160819073, -3696.39738755195, -3695.793890451657, -3696.8444224410564, -3695.8832974294783, -3695.726835218291, -3696.5762015075925, -3698.0737683860984, -3697.962009663822, -3697.2914573301623, -3696.7773672076905, -3696.6432567409583, -3696.9114776744223, -3698.632561997481, -3698.856079442034, -3696.9114776744223, -3696.7773672076905, -3697.604381752537, -3697.0902916300647, -3696.73266371878, -3697.8502509415453, -3698.1855271083746, -3698.341989319562, -3698.699617230847, -3698.699617230847, -3698.341989319562, -3698.051416641643, -3698.1184718750087, -3698.4760997862936, -3698.7666724642127, -3697.4479195413496, -3698.2302305972853, -3698.610210253026, -3699.146652119953, -3699.370169564506, -3698.654913741936, -3698.252582341741, -3699.370169564506, -3700.264239342718, -3698.1855271083746, -3697.962009663822, -3698.6772654863917, -3698.5431550196595, -3698.4760997862936, -3698.051416641643, -3696.307980574129, -3695.8609456850227, -3696.1962218518524, -3696.2856288296734, -3695.4586142848275, -3696.5091462742266, -3695.5703730071036, -3696.464442785316, -3697.4702712858048, -3696.084463129576, -3696.665608485414, -3696.8667741855115, -3696.9114776744223, -3697.917306174911, -3697.8949544304555, -3696.5091462742266, -3695.995056151755, -3695.793890451657, -3697.649085241447, -3697.760843963724, -3696.889125929967, -3696.8667741855115, -3697.760843963724, -3696.2185735963076, -3696.4420910408608, -3696.0621113851207, -3696.6432567409583, -3697.1796986078857, -3695.8385939405675, -3696.4867945297715, -3696.73266371878, -3696.5762015075925, -3698.0290648971877, -3697.962009663822, -3697.1573468634306, -3697.1796986078857, -3697.1796986078857, -3696.1515183629417, -3696.978532907788, -3697.0008846522433, -3696.687960229869, -3696.01740789621, -3697.917306174911, -3698.297285830651, -3696.7997189521457, -3697.2914573301623, -3697.358512563528, -3697.962009663822, -3698.341989319562, -3696.5091462742266, -3696.620904996503, -3698.0290648971877, -3697.626733496992, -3697.0679398856096, -3696.620904996503, -3696.978532907788, -3696.1738701073973, -3696.0621113851207, -3696.2632770852183, -3696.620904996503, -3696.1515183629417, -3696.240925340763, -3698.9231346754, -3699.7725009647015, -3698.565506764115, -3698.4537480418385, -3697.8502509415453, -3697.671436985903, -3697.4479195413496, -3697.8726026860004, -3697.626733496992, -3698.0737683860984, -3697.626733496992, -3697.984361408277, -3698.341989319562, -3697.4702712858048, -3698.58785850857, -3699.4819282867825, -3699.3254660755956, -3698.364341064017, -3697.5149747747155, -3695.346855562551, -3693.335198561573, -3692.150556105442, -3691.882335171978, -3691.7482247052462, -3693.022274139199, -3695.592724751559, -3697.5149747747155, -3696.889125929967, -3696.330332318584, -3696.330332318584, -3697.1349951189754, -3695.995056151755, -3696.39738755195, -3696.330332318584, -3694.6763032288914, -3695.8832974294783, -3696.106814874031, -3695.145689862453, -3695.63742824047, -3695.5033177737378, -3696.620904996503, -3697.2914573301623, -3696.9114776744223, -3696.73266371878, -3696.1738701073973, -3696.7103119743247, -3697.2244020967964, -3696.8667741855115, -3696.01740789621, -3696.665608485414, -3697.8726026860004, -3698.1184718750087, -3697.4255677968945, -3698.0737683860984, -3697.1349951189754, -3697.269105585707, -3697.4479195413496, -3697.358512563528, -3697.2914573301623, -3698.1184718750087, -3698.4760997862936, -3698.4313962973833, -3697.671436985903, -3697.0008846522433, -3697.0679398856096, -3696.755015463235, -3697.4479195413496, -3696.620904996503, -3696.2856288296734, -3696.2632770852183, -3697.045588141154, -3696.665608485414, -3696.8444224410564, -3697.5820300080813, -3695.6150764960144, -3695.279800329185, -3696.7773672076905, -3696.2185735963076, -3695.8385939405675, -3695.68213172938, -3695.9056491739334, -3695.8385939405675, -3696.687960229869, -3695.950352662844, -3695.5256695181934, -3696.2185735963076, -3695.704483473836, -3695.659779984925, -3695.078634629087, -3695.2127450958187, -3697.649085241447, -3698.0290648971877, -3696.240925340763, -3697.0679398856096, -3697.1796986078857, -3697.2914573301623, -3697.7384922192687, -3697.0679398856096, -3697.1573468634306, -3697.4702712858048, -3698.5208032752043, -3699.012541653221, -3698.6772654863917, -3698.7443207197575, -3698.6772654863917, -3699.1243003754976, -3701.0241986541987, -3699.571335264604, -3699.7501492202464, -3698.9007829309444, -3699.4819282867825, -3698.7666724642127, -3697.7384922192687, -3697.5820300080813, -3696.822070696601, -3698.0290648971877, -3698.699617230847, -3697.8055474526345, -3697.4255677968945, -3698.2302305972853, -3698.1631753639194, -3699.213707353319, -3698.1855271083746, -3697.693788730358, -3698.58785850857, -3698.565506764115, -3699.0348933976766, -3698.58785850857, -3698.6772654863917, -3699.012541653221, -3699.236059097774, -3699.526631775693, -3698.6772654863917, -3698.4537480418385, -3698.4090445529278, -3698.297285830651, -3698.8113759531234, -3698.498451530749, -3698.4760997862936, -3698.7890242086683, -3699.1690038644083, -3700.0407218981654, -3699.973666664799, -3700.1524806204416, -3699.727797475791, -3699.571335264604, -3701.582992265581, -3699.7725009647015, -3698.945486419855, -3699.7054457313357, -3699.593687009059, -3699.928963175889, -3700.8677364430114, -3699.8395561980674, -3699.63839049797, -3699.7054457313357, -3700.5101085317265, -3699.973666664799, -3698.252582341741, -3698.632561997481, -3699.526631775693, -3699.8395561980674, -3698.8337276975785, -3699.3478178200508, -3698.5208032752043, -3698.498451530749, -3698.990189908766, -3699.9066114314332, -3699.63839049797, -3698.945486419855, -3699.079596886587, -3700.01837015371, -3699.079596886587, -3698.1184718750087, -3698.7666724642127, -3699.280762586685, -3698.7666724642127, -3699.280762586685, -3699.2584108422293, -3698.4090445529278, -3698.1184718750087, -3698.58785850857, -3697.4255677968945, -3697.604381752537, -3697.962009663822, -3698.6772654863917, -3698.9007829309444, -3698.5208032752043, -3698.3866928084726, -3698.341989319562, -3698.9678381643107, -3700.264239342718, -3700.264239342718, -3699.079596886587, -3699.2584108422293, -3700.465405042816, -3702.0970823880534, -3701.8065097101344, -3700.264239342718, -3700.0630736426206, -3701.046550398654, -3702.141785876964, -3701.7171027323134, -3700.979495165288, -3700.532460276182, -3700.979495165288, -3701.82886145459, -3700.9347916763777, -3700.7336259762797, -3699.63839049797, -3700.6442189984587, -3699.861907942523, -3700.1971841093523, -3700.979495165288, -3700.1301288759864, -3700.7559777207352, -3701.1583091209304, -3701.270067843207, -3700.5101085317265, -3700.3759980649947, -3701.538288776671, -3701.4041783099387, -3700.688922487369, -3699.7948527091567], [-2730.6679166159533, -2730.6455648714978, -2731.4949311607998, -2731.7184486053525, -2730.422047426945, -2731.2490619717914, -2732.2101869833696, -2732.098428261093, -2732.768980594752, -2732.5231114057437, -2732.6348701280203, -2731.4949311607998, -2731.517282905255, -2730.802027082685, -2728.566852637154, -2728.2986317036907, -2728.164521236959, -2729.8856055600177, -2731.6960968608973, -2732.120780005548, -2731.4055241829783, -2730.533806149221, -2732.321945705646, -2730.9584892938724, -2730.5561578936768, -2731.070248016149, -2731.53963464971, -2731.427875927434, -2731.7184486053525, -2731.4055241829783, -2731.2937654607017, -2731.137303249515, -2731.2043584828807, -2732.746628850297, -2732.411352683467, -2732.679573616931, -2732.9924980393052, -2733.059553272671, -2732.5007596612886, -2730.1091230045704, -2731.0478962716934, -2732.701925361386, -2732.321945705646, -2732.031373027727, -2731.427875927434, -2730.802027082685, -2731.9196143054505, -2731.740800349808, -2730.7573235937743, -2732.187835238914, -2732.5901666391096, -2731.5843381386208, -2733.0819050171262, -2731.9643177943612, -2731.53963464971, -2730.9584892938724, -2731.0031927827827, -2731.4055241829783, -2731.807855583174, -2731.226710227336, -2732.0760765166374, -2732.031373027727, -2732.6572218724755, -2731.6513933719866, -2730.846730571596, -2730.511454404766, -2731.6290416275315, -2733.3724776950453, -2732.9254428059394, -2731.53963464971, -2729.773846837741, -2731.4949311607998, -2732.9477945503945, -2733.104256761582, -2732.25489047228, -2732.2325387278247, -2732.746628850297, -2732.6348701280203, -2732.0760765166374, -2730.533806149221, -2730.131474749026, -2731.6513933719866, -2731.763152094263, -2732.4337044279223, -2732.5231114057437, -2732.0537247721822, -2731.6960968608973, -2731.87491081654, -2731.2043584828807, -2730.9808410383275, -2731.3161172051573, -2731.9643177943612, -2732.120780005548, -2731.9196143054505, -2732.903091061484, -2731.6290416275315, -2730.6008613825875, -2731.2937654607017, -2731.6513933719866, -2730.533806149221, -2730.7573235937743, -2732.6125183835647, -2732.9701462948497, -2733.484236417322, -2732.478407916833, -2732.746628850297, -2732.903091061484, -2732.098428261093, -2732.768980594752, -2731.6513933719866, -2730.153826493481, -2730.2655852157577, -2732.1431317500037, -2732.2101869833696, -2732.9924980393052, -2732.5007596612886, -2732.3666491945564, -2732.768980594752, -2731.9419660499057, -2731.830207327629, -2732.0760765166374, -2733.104256761582, -2732.813684083663, -2732.791332339207, -2732.8807393170287, -2732.746628850297, -2732.2101869833696, -2730.9584892938724, -2731.517282905255, -2730.6902683604085, -2729.930309048928, -2729.4609224153664, -2730.9808410383275, -2733.2160154838584, -2732.120780005548, -2731.763152094263, -2731.87491081654, -2732.3666491945564, -2732.321945705646, -2730.846730571596, -2729.5279776487328, -2731.6513933719866, -2731.3384689496124, -2731.450227671889, -2730.6232131270426, -2730.3102887046684, -2730.6232131270426, -2730.6455648714978, -2730.9584892938724, -2730.131474749026, -2729.6844398599196, -2733.037201528216, -2734.288899217713, -2733.193663739403, -2732.6348701280203, -2731.472579416344, -2731.3161172051573, -2730.9584892938724, -2730.9584892938724, -2729.0585910151713, -2730.198529982392, -2731.4055241829783, -2731.2937654607017, -2731.092599760604, -2731.53963464971, -2731.53963464971, -2730.3773439380343, -2731.3161172051573, -2731.5843381386208, -2730.846730571596, -2732.4337044279223, -2732.031373027727, -2731.6066898830763, -2731.7184486053525, -2730.4667509158553, -2730.869082316051, -2731.070248016149, -2730.802027082685, -2730.9584892938724, -2730.6232131270426, -2730.6232131270426, -2729.840902071107, -2730.846730571596, -2729.863253815562, -2729.9526607933835, -2729.550329393188, -2728.5892043816098, -2730.578509638132, -2729.7514950932855, -2729.3715154375454, -2728.9468322928947, -2729.0362392707157, -2729.6173846265538, -2729.4385706709113, -2730.3549921935787, -2730.06441951566, -2729.483274159822, -2731.807855583174, -2733.148960250492, -2731.472579416344, -2729.639736371009, -2730.422047426945, -2730.3996956824894, -2730.2432334713026, -2729.2374049708137, -2730.511454404766, -2731.0255445272383, -2730.6455648714978, -2730.734971849319, -2730.82437882714, -2730.712620104864, -2730.77967533823, -2730.2432334713026, -2730.4443991714, -2730.6455648714978, -2731.6960968608973, -2732.0537247721822, -2730.802027082685, -2729.3938671820006, -2730.3326404491236, -2730.6455648714978, -2730.846730571596, -2731.0031927827827, -2729.572681137643, -2730.0420677712045, -2730.2655852157577, -2729.6173846265538, -2729.4609224153664, -2730.0197160267494, -2729.416218926456, -2728.902128803984, -2728.231576470325, -2728.2986317036907, -2727.605727625576, -2724.990573524305, -2726.1528642359813, -2727.0916375031043, -2726.510492147266, -2727.896300303495, -2728.544500892699, -2728.6339078705205, -2727.896300303495, -2727.4045619254784, -2727.896300303495, -2729.840902071107, -2729.6844398599196, -2726.7787130807296, -2726.7787130807296, -2729.3491636930903, -2729.259756715269, -2727.7174863478526, -2728.566852637154, -2729.6173846265538, -2728.455093914878, -2728.0751142591375, -2729.550329393188, -2730.1761782379363, -2728.857425315073, -2728.2092247258693, -2728.25392821478, -2728.3433351926014, -2728.835073570618, -2728.522149148244, -2729.505625904277, -2729.863253815562, -2730.06441951566, -2729.550329393188, -2728.1421694925034, -2728.7009631038864, -2729.3715154375454, -2729.0138875262605, -2728.6786113594308, -2728.544500892699, -2729.282108459724, -2729.416218926456, -2728.164521236959, -2729.0138875262605, -2729.3044602041796, -2729.3044602041796, -2729.505625904277, -2726.957527036372, -2727.225747969836, -2727.002230525283, -2727.829245070129, -2727.963355536861, -2727.315154947657, -2727.5610241366658, -2726.644602613998, -2725.5940706245983, -2727.53867239221, -2726.890471803006, -2727.0692857586487, -2727.2704514587467, -2727.4269136699336, -2726.0187537692495, -2726.7787130807296, -2727.6951346033975, -2727.516320647755, -2725.4376084134115, -2724.7670560797524, -2727.87394855904, -2729.3491636930903, -2727.449265414389, -2727.225747969836, -2727.002230525283, -2725.5940706245983, -2724.655297357476, -2724.8788148020285, -2722.8671578010512, -2721.615460111554, -2724.655297357476, -2724.945870035395, -2724.2082624683694, -2724.8341113131182, -2724.610593868565, -2726.3763816805345, -2725.482311902322, -2726.1752159804364, -2725.906995046973, -2724.7223525908416, -2727.4939689032994, -2727.7845415812185, -2727.7845415812185, -2725.7728845802408, -2725.3705531800456, -2726.3987334249896, -2727.1810444809253, -2726.0411055137047, -2725.7505328357856, -2725.7952363246964, -2726.3316781916237, -2727.4045619254784, -2727.292803203202, -2726.510492147266, -2724.9235182909392, -2725.1693874799475, -2726.219919469347, -2724.8341113131182, -2723.6941723458976, -2723.604765368076, -2724.945870035395, -2726.2422712138023, -2726.0858090026154, -2724.9235182909392, -2724.58824212411, -2725.0799805021265, -2725.1693874799475, -2723.8282828126294, -2724.8341113131182, -2724.8564630575734, -2726.4434369139003, -2725.8846433025174, -2725.862291558062, -2725.6611258579646, -2724.1635589794587, -2725.705829346875, -2726.7116578473638, -2725.7952363246964, -2724.744704335297, -2726.06345725816, -2726.666954358453, -2726.7340095918194, -2726.890471803006, -2725.549367135688, -2726.0858090026154, -2725.974050280339, -2725.951698535883, -2726.264622958258, -2724.9235182909392, -2725.549367135688, -2726.555195636177, -2727.1363409920145, -2727.292803203202, -2726.666954358453, -2726.845768314096, -2726.510492147266, -2726.3316781916237, -2725.5940706245983, -2724.4988351462885, -2726.510492147266, -2727.672782858942, -2728.3880386815117, -2726.957527036372, -2724.7670560797524, -2726.0187537692495, -2726.1081607470705, -2724.9235182909392, -2725.839939813607, -2726.555195636177, -2726.8234165696404, -2727.6504311144868, -2727.4939689032994, -2727.2704514587467, -2725.951698535883, -2725.549367135688, -2725.906995046973, -2725.281146202224, -2726.7787130807296, -2727.4045619254784, -2725.5940706245983, -2725.549367135688, -2726.0187537692495, -2725.3705531800456, -2724.901166546484, -2723.6271171125313, -2724.342372935101, -2726.06345725816, -2726.286974702713, -2725.057628757671, -2725.3034979466797, -2725.996402024794, -2725.7728845802408, -2725.035277013216, -2725.5046636467773, -2725.1693874799475, -2724.8788148020285, -2725.7281810913305, -2724.58824212411, -2724.7670560797524, -2724.8341113131182, -2725.4376084134115, -2725.7728845802408, -2725.6834776024198, -2724.7670560797524, -2723.649468856987, -2724.8341113131182, -2726.1305124915257, -2725.1023322465817, -2724.655297357476, -2724.677649101931, -2724.5211868907436, -2725.325849691135, -2725.5046636467773, -2724.029448512727, -2723.604765368076, -2722.4424746564, -2723.805931068174, -2724.655297357476, -2724.8117595686626, -2724.387076424012, -2724.25296595728, -2725.8846433025174, -2724.7894078242075, -2724.25296595728, -2724.0518002571825, -2722.665992100953, -2725.281146202224, -2726.1305124915257, -2725.2140909688583, -2724.4764834018333, -2724.5211868907436, -2724.677649101931, -2724.543538635199, -2725.057628757671, -2724.8341113131182, -2723.2694892012464, -2722.733047334319, -2723.9847450238162, -2724.4988351462885, -2724.945870035395, -2724.8117595686626, -2725.482311902322, -2724.4988351462885, -2723.87298630154, -2723.8953380459952, -2723.582413623621, -2724.387076424012, -2724.297669446191, -2723.090675245604, -2724.096503746093, -2725.34820143559, -2724.4988351462885, -2724.4988351462885, -2724.543538635199, -2725.482311902322, -2724.8117595686626, -2725.2364427133134, -2724.029448512727, -2723.090675245604, -2722.1966054673917, -2721.973088022839, -2723.4035996679786, -2723.8953380459952, -2724.320021190646, -2722.1519019784814, -2722.375419423034, -2722.3083641896683, -2720.8555008000735, -2720.095541488593, -2718.419160654445, -2719.9837827663164, -2719.9167275329505, -2720.5202246332437, -2719.9167275329505, -2718.1732914654367, -2719.648506599487, -2719.5590996216656, -2719.8496722995847, -2718.9556025213724, -2718.9332507769172, -2718.575622865632, -2717.5921461095986, -2716.385151909012, -2717.547442620688, -2718.0168292542494, -2717.6368495985093, -2716.4075036534673, -2716.9439455203947, -2716.2733931867356, -2716.742779820297, -2717.2792216872244, -2717.770960065241, -2718.3744571655343, -2717.3686286650454, -2718.3297536766236, -2719.1120647325597, -2718.4638641433557, -2719.067361243649, -2717.5697943651435, -2718.106236232071, -2719.4696926438446, -2718.2626984432577, -2719.715561832853, -2719.067361243649, -2717.2345181983137, -2718.866195543551, -2720.8778525445287, -2718.709733332364, -2719.1120647325597, -2718.217994954347, -2717.3015734316796, -2717.6815530874196, -2718.9779542658275, -2718.3297536766236, -2718.575622865632, -2718.2403466988026, -2718.9108990324617, -2719.000306010283, -2718.0168292542494, -2718.217994954347, -2717.703904831875, -2717.0110007537605, -2717.2345181983137, -2714.4629018858554, -2713.524128618733, -2713.7029425743754, -2713.859404785562, -2714.6640675859535, -2715.15580596397, -2716.228689697825, -2716.0498757421824, -2715.53578561971, -2714.999343752783, -2714.865233286051, -2716.4298553979224, -2717.2121664538586, -2717.6592013429645, -2716.2063379533697, -2715.222861197336, -2713.904108274473, -2712.58535535161, -2712.384189651512, -2713.568832107643, -2714.127625719026, -2714.261736185758, -2714.6640675859535, -2715.848710042085, -2715.781654808719, -2715.848710042085, -2715.446378641889, -2715.446378641889, -2716.541614120199, -2716.2063379533697, -2715.0887507306043, -2714.9769920083277, -2714.3287914191237, -2716.0722274866375, -2716.161634464459, -2715.6251925975316, -2715.513433875255, -2716.3180966756463, -2716.452207142378, -2716.0498757421824, -2715.3793234085233, -2715.53578561971, -2715.200509452881, -2714.552308863677, -2716.2733931867356, -2715.9828205088165, -2716.25104144228, -2715.826358297629, -2717.4356838984113, -2716.094579231093, -2716.4298553979224, -2716.899242031484, -2715.4910821308, -2716.228689697825, -2716.25104144228, -2716.0275239977273, -2717.033352498216, -2715.9604687643614, -2712.920631518439, -2715.781654808719, -2714.9546402638725, -2716.0498757421824, -2716.228689697825, -2719.067361243649, -2721.0790182446267, -2721.324887433635, -2719.424989154934, -2720.9225560334394, -2722.3977711674897, -2722.4871781453107, -2722.643640356498, -2722.710695589864, -2722.1519019784814, -2722.934213034417, -2724.655297357476, -2722.8224543121405, -2723.1577304789703, -2723.805931068174, -2724.5211868907436, -2725.7728845802408, -2723.9847450238162, -2722.353067678579, -2723.314192690157, -2723.090675245604, -2722.643640356498, -2719.9167275329505, -2721.101369989082, -2722.8895095455064, -2723.4706549013445, -2723.090675245604, -2723.2471374567913, -2723.805931068174, -2724.1635589794587, -2724.029448512727, -2722.8224543121405, -2722.2636607007576, -2723.9176897904504, -2725.2140909688583, -2724.4988351462885, -2723.1130269900596, -2723.1577304789703, -2722.576585123132, -2722.0177915117492, -2720.766093822252, -2722.1519019784814, -2723.9847450238162, -2723.604765368076, -2722.040143256205, -2723.671820601442, -2722.710695589864, -2721.8166258116516, -2721.9060327894726, -2721.8166258116516, -2721.5707566226433, -2721.615460111554, -2721.4589979003667, -2722.643640356498, -2722.688343845409, -2722.129550234026, -2722.688343845409, -2722.2636607007576, -2721.123721733537, -2721.034314755716, -2723.805931068174, -2723.1577304789703, -2723.87298630154, -2723.314192690157, -2721.414294411456, -2722.040143256205, -2722.4424746564, -2722.978916523328, -2721.8166258116516, -2721.8613293005624, -2723.582413623621, -2722.643640356498, -2721.771922322741, -2721.8166258116516, -2721.68251534492, -2722.7553990787746, -2722.2413089563024, -2721.749570578286, -2721.68251534492, -2720.453169399878, -2719.782617066219, -2720.2520036997803, -2720.8555008000735, -2720.5202246332437, -2721.414294411456, -2721.8166258116516, -2721.324887433635, -2722.06249500066, -2721.72721883383, -2721.1460734779926, -2721.5707566226433, -2723.358896179068, -2722.688343845409, -2722.0177915117492, -2721.4589979003667, -2722.353067678579, -2721.123721733537, -2721.749570578286, -2721.615460111554, -2720.5649281221545, -2721.1684252224477, -2718.709733332364, -2719.447340899389, -2720.7884455667077, -2719.715561832853, -2721.414294411456, -2720.6319833555203, -2720.162596721959, -2719.4026374104783, -2718.1732914654367, -2717.860367043062, -2719.8943757884954, -2720.833149055618, -2719.447340899389, -2720.8778525445287, -2721.68251534492, -2720.6319833555203, -2719.9167275329505, -2719.000306010283, -2718.642678098998, -2718.3744571655343, -2719.0226577547382, -2720.5649281221545, -2718.9779542658275, -2718.3297536766236, -2719.223823454836, -2719.804968810674, -2717.9944775097943, -2718.1732914654367, -2719.8943757884954, -2719.670858343942, -2719.4696926438446, -2718.754436821275, -2717.502739131777, -2719.223823454836, -2718.4638641433557, -2719.8496722995847, -2720.5649281221545, -2719.3132304326573, -2719.15676822147, -2719.9614310218612, -2718.9556025213724, -2718.352105421079, -2718.06153274316, -2719.1120647325597, -2720.2296519553247, -2720.117893233048, -2718.799140310185, -2718.8885472880065, -2718.3968089099894, -2718.77678856573, -2716.9439455203947, -2716.608669353565, -2719.5814513661207, -2719.8496722995847, -2720.5649281221545, -2718.9779542658275, -2718.8885472880065, -2718.709733332364, -2717.2345181983137, -2717.3462769205903, -2719.804968810674, -2718.575622865632, -2717.9944775097943, -2717.458035642867, -2717.167462964948, -2715.87106178654, -2715.781654808719, -2718.732085076819, -2718.77678856573, -2717.5697943651435, -2716.228689697825, -2717.3015734316796, -2717.122759476037, -2716.9439455203947, -2717.793311809696, -2717.7262565763303, -2718.6650298434533, -2717.458035642867, -2718.9556025213724, -2719.715561832853, -2717.9497740208835, -2718.3074019321684, -2718.217994954347, -2716.765131564752, -2718.106236232071, -2720.5202246332437, -2720.117893233048, -2718.754436821275, -2718.2850501877133, -2717.3015734316796, -2716.0498757421824, -2714.9769920083277, -2713.5017768742773, -2715.133454219515, -2715.6028408530765, -2715.0440472416935, -2716.6533728424756, -2716.2063379533697, -2716.541614120199, -2717.3239251761347, -2716.899242031484, -2716.6310210980205, -2717.6368495985093, -2717.256869942769, -2717.2345181983137, -2717.9944775097943, -2717.9497740208835, -2717.0110007537605, -2717.6592013429645, -2718.843843799096, -2718.0838844876153, -2716.765131564752, -2715.938117019906, -2716.0275239977273, -2716.9439455203947, -2716.4969106312888, -2715.3122681751574, -2717.189814709403, -2717.458035642867, -2717.547442620688, -2717.6815530874196, -2716.4298553979224, -2717.9944775097943, -2717.167462964948, -2715.893413530995, -2716.7874833092073, -2717.3239251761347, -2717.6144978540538, -2717.3239251761347, -2717.547442620688, -2718.77678856573, -2718.06153274316, -2717.122759476037, -2717.9944775097943, -2717.5921461095986, -2718.06153274316, -2718.352105421079, -2718.8885472880065, -2718.3968089099894, -2718.9556025213724, -2718.128587976526, -2719.067361243649, -2718.6650298434533, -2717.2345181983137, -2718.3297536766236, -2718.3968089099894, -2717.167462964948, -2717.815663554152, -2717.2792216872244, -2716.3628001645566, -2716.765131564752, -2719.290878688202, -2718.9332507769172, -2717.3239251761347, -2718.217994954347, -2717.3686286650454, -2717.9497740208835, -2717.502739131777, -2716.8545385425737, -2716.96629726485, -2716.765131564752, -2717.167462964948, -2716.675724586931, -2715.1111024750594, -2716.899242031484, -2716.385151909012, -2716.675724586931, -2716.2063379533697, -2716.2063379533697, -2716.0051722532717, -2715.1781577084253, -2716.541614120199, -2716.4075036534673, -2716.3180966756463, -2717.2345181983137, -2716.161634464459, -2716.541614120199, -2717.7262565763303, -2717.2345181983137, -2716.1169309755483, -2717.703904831875, -2718.2403466988026, -2717.502739131777, -2716.094579231093, -2716.3404484201014, -2717.0110007537605, -2715.580489108621, -2716.385151909012, -2716.3404484201014, -2716.876890287029, -2717.167462964948, -2715.7593030642633, -2715.424026897434, -2714.284087930213, -2715.1781577084253, -2717.547442620688, -2717.167462964948, -2715.4016751529784, -2716.4969106312888, -2716.2063379533697, -2716.3180966756463, -2716.9439455203947, -2716.25104144228, -2715.736951319808, -2715.1111024750594, -2716.4969106312888, -2717.122759476037, -2716.4969106312888, -2714.6864193304086, -2714.552308863677, -2716.9439455203947, -2716.765131564752, -2715.0887507306043, -2714.351143163579, -2717.189814709403, -2717.8827187875177, -2716.5639658646546, -2714.798178052685, -2714.9769920083277, -2716.765131564752, -2716.3404484201014, -2716.094579231093, -2715.0887507306043, -2715.87106178654, -2716.608669353565, -2716.832186798118, -2715.7145995753526, -2715.133454219515, -2715.53578561971, -2715.424026897434, -2715.7593030642633, -2714.3958466524896, -2713.993515252294, -2716.452207142378, -2717.100407731582, -2715.200509452881, -2715.4910821308, -2714.842881541596, -2714.0382187412047, -2715.3346199196126, -2715.0887507306043, -2714.1723292079364, -2714.865233286051, -2714.8205297971404, -2713.3676664075456, -2714.217032696847, -2716.541614120199, -2716.0722274866375, -2714.8205297971404, -2714.9769920083277, -2716.519262375744, -2717.7262565763303, -2715.87106178654, -2715.0440472416935, -2716.474558886833, -2716.6980763313863, -2716.6980763313863, -2716.5863176091098, -2715.4016751529784, -2713.904108274473, -2715.3346199196126, -2715.1781577084253, -2715.2452129417916, -2714.7087710748638, -2714.7087710748638, -2715.1111024750594, -2715.87106178654, -2716.2063379533697, -2715.1111024750594, -2715.3793234085233, -2716.809835053663, -2717.547442620688, -2716.0498757421824, -2716.3180966756463, -2716.2733931867356, -2716.608669353565, -2716.4969106312888, -2714.3287914191237, -2716.2957449311907, -2718.2403466988026, -2717.838015298607, -2717.6815530874196, -2716.7204280758415, -2716.541614120199, -2715.9828205088165, -2714.6640675859535, -2715.3346199196126, -2716.0275239977273, -2716.2957449311907, -2718.352105421079, -2718.3968089099894, -2718.3297536766236, -2717.5921461095986]]
