[[-3622.86014829399, -3621.5860988600375, -3620.3567529149955, -3619.7532558147022, -3618.635668591937, -3617.115749968976, -3616.7134185687805, -3617.607488346993, -3620.7814360596462, -3621.787264560135, -3621.6084506044926, -3623.463645394283, -3622.9048517829006, -3623.2177762052747, -3623.8883285389343, -3623.754218072202, -3623.6424593499255, -3623.307183183096, -3622.368409915973, -3622.502520382705, -3623.5530523721045, -3623.150720971909, -3621.697857582314, -3621.76491281568, -3622.9495552718113, -3621.9437267713224, -3622.368409915973, -3621.787264560135, -3622.569575616071, -3621.831968049046, -3622.703686082803, -3623.5307006276494, -3622.2566511936966, -3622.8154448050796, -3622.8377965495347, -3619.462683136783, -3618.7250755697582, -3618.9932965032217, -3618.434502891839, -3617.9427645138226, -3619.0156482476773, -3619.462683136783, -3618.0992267250094, -3618.278040680652, -3617.4286743913503, -3617.272212180163, -3617.7415988137245, -3618.1662819583753, -3617.3616191579845, -3618.14393021392, -3618.6803720808475, -3618.792130803124, -3619.57444185906, -3620.4238081483613, -3620.3120494260847, -3620.1332354704423, -3619.9320697703447, -3619.7532558147022, -3619.887366281434, -3620.021476748166, -3620.893194781923, -3620.513215126183, -3619.0603517365876, -3620.2002907038086, -3619.2838691811407, -3619.57444185906, -3620.1332354704423, -3619.23916569223, -3617.9427645138226, -3618.1662819583753, -3617.562784858082, -3614.210023189786, -3617.4510261358055, -3626.3246686845628, -3627.8445873075234, -3630.3926861754285, -3635.108904255498, -3635.824160078068, -3639.9145293133893, -3641.859131081001, -3645.591872405037, -3648.9669858177886, -3650.2410352517413, -3651.6268434079702, -3654.085535298054, -3656.6783376548697, -3655.4266399653725, -3654.4431632093388, -3655.4489917098276, -3653.3255759865733, -3654.1302387869646, -3656.0971922990316, -3654.8007911206237, -3653.9737765757773, -3653.303224242118, -3653.0350033086543, -3652.699727141825, -3651.537436430149, -3650.8668840964897, -3652.431506208361, -3652.2079887638083, -3652.923244586378, -3651.336270730051, -3651.448029452328, -3651.783305619157, -3652.7444306307357, -3653.3255759865733, -3653.1020585420206, -3652.766782375191, -3653.370279475484, -3652.498561441727, -3652.9008928419225, -3652.3197474860845, -3651.8056573636127, -3652.2303405082635, -3651.738602130247, -3651.9621195747995, -3652.7444306307357, -3651.537436430149, -3651.9174160858893, -3652.0068230637103, -3651.738602130247, -3652.2526922527186, -3651.6268434079702, -3652.3197474860845, -3652.5432649306376, -3652.0068230637103, -3650.732773629758, -3651.2692154966853, -3651.693898641336, -3651.2245120077746, -3652.34209923054, -3651.6268434079702, -3652.8785410974674, -3653.280872497663, -3648.9669858177886, -3648.497599184227, -3650.0398695516433, -3650.106924785009, -3651.3586224745063, -3650.755125374213, -3651.6491951524254, -3651.448029452328, -3651.403325963417, -3650.1963317628306, -3650.956291074311, -3650.9115875854004, -3651.2245120077746, -3652.2303405082635, -3651.537436430149, -3650.7774771186687, -3651.5150846856936, -3650.799828863124, -3650.017517807188, -3651.1574567744087, -3651.0680497965873, -3650.1963317628306, -3650.755125374213, -3649.9504625738223, -3651.2245120077746, -3650.889235840945, -3650.7774771186687, -3648.9669858177886, -3649.726945129269, -3651.313918985596, -3650.464552696294, -3649.5481311736266, -3649.3916689624393, -3650.017517807188, -3650.2186835072857, -3650.799828863124, -3650.2857387406516, -3649.9728143182774, -3650.2633869961965, -3648.855227095512, -3650.2410352517413, -3650.956291074311, -3649.794000362635, -3648.832875351057, -3648.4528956953163, -3648.788171862146, -3648.2517299952187, -3648.9669858177886, -3649.6822416403584, -3650.2633869961965, -3649.078744540065, -3647.6258811504704, -3649.525779429171, -3652.923244586378, -3652.9679480752884, -3650.9786428187663, -3652.3197474860845, -3651.5150846856936, -3650.822180607579, -3650.9115875854004, -3650.53160792966, -3650.375145718473, -3651.8727125969785, -3651.090401541043, -3650.2410352517413, -3651.403325963417, -3650.53160792966, -3650.0398695516433, -3649.3022619846183, -3650.173980018375, -3650.53160792966, -3650.2410352517413, -3649.9728143182774, -3650.1292765294647, -3646.664756138892, -3649.0340410511544, -3650.106924785009, -3650.308090485107, -3648.7211166287802, -3650.0398695516433, -3650.509256185205, -3650.375145718473, -3650.2857387406516, -3650.755125374213, -3650.1963317628306, -3650.755125374213, -3650.9786428187663, -3650.799828863124, -3650.397497462928, -3649.81635210709, -3648.9446340733334, -3650.084573040554, -3650.8668840964897, -3650.308090485107, -3649.9504625738223, -3650.0398695516433, -3650.2410352517413, -3650.2410352517413, -3650.0622212960984, -3649.2799102401627, -3650.2186835072857, -3650.084573040554, -3650.6210149074814, -3650.1963317628306, -3650.5986631630262, -3651.336270730051, -3650.3304422295623, -3650.8668840964897, -3650.53160792966, -3650.017517807188, -3650.0622212960984, -3650.9786428187663, -3650.419849207384, -3650.2633869961965, -3649.2799102401627, -3649.05639279561, -3648.8775788399676, -3649.77164861818, -3649.883407340456, -3649.8387038515457, -3650.799828863124, -3650.6433666519365, -3650.464552696294, -3649.503427684716, -3650.084573040554, -3649.7492968737242, -3649.2799102401627, -3651.0009945632214, -3649.570482918082, -3648.8999305844227, -3650.15162827392, -3650.084573040554, -3649.3916689624393, -3648.564654417593, -3647.514122428194, -3647.804695106113, -3648.832875351057, -3649.6598898959032, -3649.861055596001, -3649.9057590849116, -3650.397497462928, -3650.15162827392, -3650.5539596741155, -3650.2410352517413, -3649.414020706895, -3650.732773629758, -3651.537436430149, -3650.442200951839, -3650.464552696294, -3650.419849207384, -3650.8668840964897, -3651.470381196783, -3652.2303405082635, -3651.8503608525234, -3650.53160792966, -3650.3304422295623, -3651.6268434079702, -3651.5150846856936, -3651.179808518864, -3652.0068230637103, -3651.738602130247, -3651.6044916635146, -3651.8056573636127, -3651.6044916635146, -3651.1574567744087, -3651.313918985596, -3652.1856370193527, -3652.140933530442, -3650.7104218853024, -3650.9339393298555, -3651.2021602633195, -3651.8503608525234, -3651.5821399190595, -3651.2468637522297, -3650.755125374213, -3651.2021602633195, -3651.760953874702, -3652.4762096972718, -3651.8727125969785, -3651.9174160858893, -3651.828009108068, -3650.3527939740175, -3651.090401541043, -3650.4869044407496, -3649.9951660627326, -3650.9786428187663, -3652.5209131861825, -3652.2973957416293, -3651.760953874702, -3651.0680497965873, -3652.5432649306376, -3652.4538579528166, -3652.073878297076, -3651.783305619157, -3650.732773629758, -3651.3586224745063, -3650.755125374213, -3651.023346307677, -3650.8668840964897, -3650.308090485107, -3650.8445323520345, -3651.023346307677, -3649.5928346625374, -3649.9728143182774, -3650.017517807188, -3649.726945129269, -3649.2799102401627, -3649.8387038515457, -3649.1905032623417, -3648.8105236066012, -3649.726945129269, -3649.6822416403584, -3650.2410352517413, -3649.8387038515457, -3649.1905032623417, -3650.419849207384, -3650.755125374213, -3650.9115875854004, -3652.431506208361, -3651.3586224745063, -3650.8445323520345, -3650.308090485107, -3649.861055596001, -3650.3304422295623, -3651.5150846856936, -3650.5763114185706, -3651.5150846856936, -3651.2245120077746, -3649.7045933848135, -3650.2410352517413, -3652.632671908459, -3652.140933530442, -3651.403325963417, -3651.6491951524254, -3652.632671908459, -3651.5150846856936, -3651.090401541043, -3650.8668840964897, -3650.799828863124, -3651.2915672411405, -3649.369317217984, -3650.1963317628306, -3649.8387038515457, -3649.7492968737242, -3651.313918985596, -3651.5597881746044, -3651.3586224745063, -3650.889235840945, -3652.0068230637103, -3650.2186835072857, -3651.403325963417, -3651.9174160858893, -3651.693898641336, -3651.403325963417, -3651.179808518864, -3650.6210149074814, -3651.760953874702, -3650.956291074311, -3648.7434683732354, -3648.6764131398695, -3649.81635210709, -3649.861055596001, -3649.6151864069925, -3649.570482918082, -3647.849398595023, -3645.524817171671, -3645.211892749297, -3652.409154463906, -3657.3265382440736, -3661.863942368501, -3667.6083406935145, -3673.4868494852603, -3679.6782826993804, -3683.656893212425, -3688.6413322259586, -3694.788061951168, -3700.241887598263, -3705.0922161450644, -3710.568393536615, -3714.6811145163915, -3721.453693086349, -3725.432303599394, -3728.203919911852, -3733.233062414296, -3736.988155482788, -3738.955108994855, -3744.6101003420476, -3748.208731199352, -3751.9414725233883, -3753.014356257243, -3754.8024958136675, -3757.0600220036536, -3757.864684804045, -3755.942434780888, -3755.048365002676, -3755.36128942505, -3756.0318417587096, -3755.69656559188, -3754.2213504578294, -3753.684908590902, -3753.014356257243, -3755.1154202360417, -3755.294234191684, -3754.8471993025782, -3754.7801440692124, -3752.433210901405, -3749.9298155224105, -3749.3486701665724, -3747.918158521433, -3748.5887108550924, -3749.2816149332066, -3749.661594588947, -3752.701431834869, -3753.4390394018938, -3753.8190190576343, -3754.333109180106, -3754.623681858025, -3754.109591735553, -3753.8190190576343, -3752.8355423016005, -3751.8297138011117, -3753.4390394018938, -3753.4390394018938, -3753.684908590902, -3752.679080090413, -3751.9638242678434, -3752.679080090413, -3757.3505946815726, -3760.6139493720475, -3761.485667405804, -3762.200923228374, -3764.2796354627176, -3765.978368041321, -3764.749022096279, -3763.0055860287653, -3763.5867313846034, -3763.139696495497, -3764.391394184994, -3762.3797371840164, -3762.4467924173828, -3762.715013350846, -3763.407917428961, -3763.340862195595, -3762.849123817578, -3763.117344751042, -3763.74319359579, -3763.407917428961, -3764.1231732515307, -3763.3185104511394, -3763.2738069622287, -3763.9443592958883, -3763.340862195595, -3762.8938273064887, -3761.887998806, -3760.882170305511, -3761.396260427983, -3761.843295317089, -3761.6197778725364, -3761.2174464723407, -3761.440963916894, -3761.3739086835276, -3760.569245883137, -3761.239798216796, -3762.178571483919, -3761.0162807722427, -3762.6479581174804, -3763.0949930065863, -3761.731536594813, -3761.8656470615447, -3760.9045220499665, -3760.949225538877, -3760.949225538877, -3760.2563214607626, -3760.3233766941285, -3759.585769127103, -3759.630472616014, -3759.585769127103, -3760.9715772833324, -3760.2563214607626, -3760.949225538877, -3761.6421296169915, -3761.9774057838213, -3761.3515569390725, -3761.17274298343, -3760.6139493720475, -3762.4467924173828, -3764.1231732515307, -3763.430269173416, -3762.6703098619355, -3761.820943572634, -3763.117344751042, -3763.117344751042, -3763.36321394005, -3762.6032546285696, -3763.653786617969, -3764.5702081406366, -3765.620740130036, -3764.9278360519215, -3764.681966862913, -3762.178571483919, -3763.9443592958883, -3764.659615118458, -3764.2125802293517, -3763.117344751042, -3764.011414529254, -3764.301987207173, -3764.726670351824, -3764.4137459294498, -3764.301987207173, -3764.2349319738073, -3764.525504651726, -3764.8384290741005, -3765.17370524093, -3765.307815707662, -3771.3204349661396, -3773.9579408118657, -3764.950187796377, -3749.661594588947, -3741.5032078627596, -3735.5129403487376, -3728.4050856119497, -3719.598498296559, -3713.49647206026, -3704.2204981113077, -3697.7831957081794, -3691.2564863272296, -3685.266218813207, -3678.471288498794, -3672.1010413290314, -3665.2837592701626, -3661.4169074793945, -3661.215741779297, -3656.1195440434867, -3658.0417940666434, -3658.019442322188, -3655.2254742652744, -3655.113715542998, -3654.666680653892, -3655.5831021765594, -3655.4266399653725, -3655.5831021765594, -3654.666680653892, -3653.705555642314, -3654.040831809143, -3653.5267416866714, -3654.756087631713, -3654.957253331811, -3655.2254742652744, -3654.621977164981, -3652.923244586378, -3653.3255759865733, -3653.4596864533055, -3653.5267416866714, -3654.890198098445, -3654.9349015873554, -3654.4208114648836, -3655.024308565177, -3653.8843695979563, -3653.4149829643948, -3655.270177754185, -3656.208951021308, -3655.180770776364, -3655.113715542998, -3655.2031225208193, -3654.4208114648836, -3653.4820381977606, -3653.9737765757773, -3656.276006254674, -3656.611282421504, -3655.24782600973, -3650.7774771186687, -3646.597700905526, -3648.184674761853, -3651.336270730051, -3650.464552696294, -3649.503427684716, -3650.4869044407496, -3650.5986631630262, -3650.0622212960984, -3650.5763114185706, -3650.509256185205, -3650.017517807188, -3649.078744540065, -3650.0622212960984, -3649.7492968737242, -3649.3022619846183, -3649.3246137290735, -3649.3022619846183, -3648.3858404619505, -3648.34113697304, -3649.0340410511544, -3649.3246137290735, -3648.9893375622437, -3648.7434683732354, -3648.8105236066012, -3648.564654417593, -3649.6822416403584, -3650.375145718473, -3649.9728143182774, -3649.9504625738223, -3650.308090485107, -3649.458724195805, -3650.6880701408472, -3650.8445323520345, -3650.397497462928, -3650.084573040554, -3650.956291074311, -3651.8727125969785, -3651.6044916635146, -3651.425677707872, -3651.5821399190595, -3652.632671908459, -3651.984471319255, -3653.0350033086543, -3653.146762030931, -3652.990299819744, -3652.7444306307357, -3651.8503608525234, -3652.0068230637103, -3650.799828863124, -3651.112753285498, -3651.9621195747995, -3651.738602130247, -3651.9621195747995, -3651.313918985596, -3651.984471319255, -3652.5432649306376, -3653.1020585420206, -3653.1020585420206, -3651.671546896881, -3648.5199509286826, -3647.916453828389, -3647.0447357946323, -3644.6530991379145, -3645.211892749297, -3646.664756138892, -3648.9669858177886, -3650.956291074311, -3650.9786428187663, -3652.2079887638083, -3651.828009108068, -3652.364450974995, -3652.0068230637103, -3651.1351050299536, -3650.442200951839, -3650.6880701408472, -3651.8503608525234, -3650.822180607579, -3650.9786428187663, -3651.112753285498, -3651.783305619157, -3651.8503608525234, -3650.1292765294647, -3652.2973957416293, -3653.5267416866714, -3651.9621195747995, -3651.537436430149, -3652.431506208361, -3652.1856370193527, -3651.6491951524254, -3652.029174808166, -3651.112753285498, -3650.0398695516433, -3650.397497462928, -3650.6433666519365, -3651.425677707872, -3651.448029452328, -3651.8727125969785, -3651.8056573636127, -3650.084573040554, -3649.481075940261, -3650.7774771186687, -3650.2857387406516, -3650.6880701408472, -3650.3527939740175, -3650.5763114185706, -3649.726945129269, -3650.2410352517413, -3649.43637245135, -3649.6151864069925, -3648.855227095512, -3649.794000362635, -3649.369317217984, -3648.0282125506656, -3648.4528956953163, -3647.894102083934, -3648.5199509286826, -3649.458724195805, -3649.1010962845203, -3648.5199509286826, -3647.9388055728446, -3648.050564295121, -3649.458724195805, -3648.4528956953163, -3648.631709650959, -3648.2517299952187, -3648.8775788399676, -3649.414020706895, -3649.0116893066993, -3648.1623230173977, -3648.139971272942, -3648.698764884325, -3649.525779429171, -3649.168151517886, -3649.3246137290735, -3648.3858404619505, -3648.3634887174953, -3648.2964334841295, -3649.2352067512525, -3650.1963317628306, -3650.2410352517413, -3650.755125374213, -3651.5150846856936, -3650.755125374213, -3650.9339393298555, -3651.112753285498, -3651.448029452328, -3652.5209131861825, -3651.8503608525234, -3651.403325963417, -3651.9397678303444, -3651.2915672411405, -3651.738602130247, -3651.6491951524254, -3650.9786428187663, -3652.565616675093, -3652.118581785987, -3652.3197474860845, -3651.8056573636127, -3651.0680497965873, -3651.537436430149, -3650.732773629758, -3650.0622212960984, -3650.5986631630262, -3650.956291074311, -3651.6491951524254, -3650.1292765294647, -3650.2186835072857, -3650.2186835072857, -3648.184674761853, -3649.481075940261, -3650.464552696294, -3651.4927329412385, -3651.6268434079702, -3650.106924785009, -3651.5150846856936, -3651.2915672411405, -3650.6433666519365, -3651.2021602633195, -3651.8950643414337, -3650.308090485107, -3650.1292765294647, -3651.3586224745063, -3649.9728143182774, -3649.77164861818, -3649.9728143182774, -3649.570482918082, -3650.5986631630262, -3650.822180607579, -3649.369317217984, -3649.7492968737242, -3651.2915672411405, -3650.397497462928, -3649.503427684716, -3649.9281108293667, -3650.2410352517413, -3650.3304422295623, -3650.0398695516433, -3648.855227095512, -3650.173980018375, -3649.726945129269, -3649.8387038515457, -3651.2021602633195, -3651.2468637522297, -3650.3304422295623, -3649.168151517886, -3650.2633869961965, -3651.403325963417, -3652.409154463906, -3652.029174808166, -3651.0680497965873, -3651.3586224745063, -3651.2021602633195, -3650.8668840964897, -3648.788171862146, -3650.0622212960984, -3650.464552696294, -3650.889235840945, -3648.9446340733334, -3648.050564295121, -3647.6705846393806, -3649.794000362635, -3648.788171862146, -3648.9893375622437, -3647.603529406015, -3648.2293782507636, -3648.408192206406, -3648.788171862146, -3648.9446340733334, -3649.7492968737242, -3647.491770683738, -3647.514122428194, -3647.6482328949255, -3648.6764131398695, -3648.6093579065036, -3649.3916689624393, -3650.2633869961965, -3649.0116893066993, -3648.3187852285846, -3648.0952677840314, -3649.0116893066993, -3649.1905032623417, -3648.922282328878, -3650.308090485107, -3651.5821399190595, -3650.308090485107, -3650.1292765294647, -3650.017517807188, -3649.570482918082, -3649.078744540065, -3649.3022619846183, -3648.6540613954144, -3648.564654417593, -3649.525779429171, -3649.0116893066993, -3649.3022619846183, -3648.8775788399676, -3649.414020706895, -3648.6764131398695, -3647.3800119614616, -3649.2352067512525, -3649.8387038515457, -3648.788171862146, -3649.1905032623417, -3649.6375381514476, -3650.017517807188, -3649.9504625738223, -3651.313918985596, -3651.9621195747995, -3650.8445323520345, -3650.2633869961965, -3651.5150846856936, -3649.458724195805, -3646.083610783054, -3647.3353084725513, -3648.5870061620485, -3649.145799773431, -3650.755125374213, -3650.3527939740175, -3648.7211166287802, -3648.922282328878, -3650.9339393298555, -3651.2245120077746, -3649.3022619846183, -3650.6433666519365, -3649.3022619846183, -3647.7823433616572, -3646.2847764831517, -3644.7201543712804, -3643.893139826434, -3644.0272502931657, -3645.0107270491994, -3647.849398595023, -3649.9728143182774, -3649.7492968737242, -3650.6210149074814, -3650.6210149074814, -3650.442200951839, -3650.419849207384, -3649.458724195805, -3649.43637245135, -3649.1905032623417, -3649.0116893066993, -3648.3634887174953, -3648.855227095512, -3647.491770683738, -3649.168151517886, -3649.8387038515457, -3648.6764131398695, -3647.536474172649, -3648.2293782507636, -3650.106924785009, -3648.8775788399676, -3647.894102083934, -3647.603529406015, -3648.34113697304, -3648.8105236066012, -3648.4528956953163, -3648.855227095512, -3648.922282328878, -3648.497599184227, -3648.1623230173977, -3648.9669858177886, -3648.7211166287802, -3649.503427684716, -3648.1623230173977, -3648.832875351057, -3648.832875351057, -3648.5870061620485, -3648.788171862146, -3647.849398595023, -3646.731811372258, -3647.3800119614616, -3647.7823433616572, -3645.793038105135, -3645.3683549604843, -3645.927148571867, -3645.8377415940454, -3645.9942038052327, -3645.524817171671, -3645.0777822825653, -3645.949500316322, -3646.0389072941434, -3645.860093338501, -3644.049602037621, -3644.586043904548, -3644.697802626825, -3645.43541019385, -3644.831913093557, -3644.943671815833, -3644.586043904548, -3644.831913093557, -3646.374183460973, -3646.6424043944367, -3645.0777822825653, -3645.3683549604843, -3644.988375304744, -3646.2624247386966, -3645.3683549604843, -3645.8377415940454, -3645.1671892603863, -3644.0943055265316, -3645.6142241494927, -3645.3236514715736, -3644.049602037621, -3645.144837515931, -3645.278947982663, -3644.854264838012, -3645.591872405037, -3644.586043904548, -3644.7201543712804, -3645.278947982663, -3645.43541019385, -3645.6142241494927, -3645.3683549604843, -3646.7765148611684, -3646.888273583445, -3647.111791027998, -3647.536474172649, -3647.2682532391855, -3647.447067194828, -3647.491770683738, -3648.4528956953163, -3648.274081739674, -3647.2682532391855, -3647.7152881282914, -3648.564654417593, -3649.9504625738223, -3649.794000362635, -3649.123448028976, -3649.1905032623417, -3648.2293782507636, -3649.123448028976, -3649.6375381514476, -3649.458724195805], [-2796.3596935701007, -2795.9797139143607, -2796.247934847824, -2794.571554013676, -2793.3645598130897, -2794.3703883135786, -2794.4597952913996, -2793.677484235464, -2793.9457051689274, -2793.8786499355615, -2793.5210220242766, -2794.1915743579357, -2795.1079958806035, -2796.1138243810924, -2795.2421063473353, -2795.3985685585226, -2796.225583103369, -2794.057463891204, -2794.571554013676, -2794.2362778468464, -2794.616257502587, -2794.7280162248635, -2794.1021673801147, -2794.5939057581313, -2794.7280162248635, -2793.632780746553, -2794.660960991497, -2793.2975045797234, -2794.12451912457, -2792.7834144572516, -2793.4316150464556, -2794.571554013676, -2794.012760402293, -2794.4374435469445, -2794.4374435469445, -2794.280981335757, -2793.1633941129917, -2791.1964406009247, -2792.738710968341, -2793.699835979919, -2792.64930399052, -2792.0458068902262, -2790.771757456274, -2792.001103401316, -2792.9845801573492, -2794.3703883135786, -2793.8562981911064, -2792.001103401316, -2792.9175249239834, -2793.5880772576425, -2793.4986702798215, -2794.258629591302, -2793.6551324910083, -2792.291676079235, -2793.610429002098, -2795.018588902782, -2794.8844784360504, -2793.006931901805, -2792.4704900348775, -2791.777585956763, -2791.777585956763, -2793.096338879626, -2794.1692226134805, -2793.252801090813, -2793.2080976019024, -2793.006931901805, -2793.4316150464556, -2792.716359223886, -2791.039978389738, -2792.4928417793326, -2790.8611644340954, -2789.2965423222236, -2791.419958045478, -2785.608504487098, -2770.968111868872, -2759.859294874584, -2746.761172623774, -2733.104256761582, -2718.866195543551, -2705.119872703537, -2693.4299103534117, -2683.0587009261494, -2672.173401376415, -2666.4737065403115, -2665.1102501285377, -2661.802191949152, -2661.131639615493, -2665.356119317546, -2668.8876949414844, -2673.9838926772945, -2678.2083723793476, -2680.4435468248785, -2682.254038125758, -2684.9809509493057, -2687.4396428393893, -2689.071320184627, -2689.6301137960095, -2691.2394393967916, -2693.094634186582, -2694.6592562984533, -2695.665084798942, -2695.978009221317, -2695.9556574768612, -2696.223878410325, -2697.0508929551715, -2697.2073551663584, -2697.8332040111072, -2698.1684801779365, -2698.4590528558556, -2699.6660470564425, -2697.4532243553667, -2698.1237766890263, -2698.5931633225878, -2696.96148597735, -2698.570811578132, -2698.4590528558556, -2699.263715656247, -2696.872078999529, -2695.7544917767636, -2696.1568231769593, -2696.357988877057, -2695.642733054487, -2697.1179481885374, -2697.4308726109116, -2696.737968532797, -2696.5368028326993, -2697.006189466261, -2697.6990935443755, -2696.8944307439842, -2695.978009221317, -2696.8050237661632, -2696.8944307439842, -2695.3074568876573, -2691.842936497085, -2692.804061508663, -2687.5961050505766, -2683.7292532598085, -2679.2365526242916, -2673.805078721652, -2673.738023488286, -2671.905180442951, -2669.4464885528673, -2670.809944964641, -2673.2462851102696, -2675.257942111247, -2674.9673694333283, -2675.548514789166, -2675.034424666694, -2675.190886877881, -2675.3697008335234, -2676.19671537837, -2676.777860734208, -2675.3026456001576, -2675.839087467085, -2676.4649363118338, -2674.810907222141, -2674.609741522043, -2674.4085758219453, -2675.4814595558, -2676.152011889459, -2675.6602735114425, -2675.548514789166, -2676.040253167183, -2676.9566746898504, -2676.5319915451996, -2675.2132386223366, -2674.9226659444175, -2675.324997344613, -2673.939189188384, -2674.4085758219453, -2676.0849566560933, -2675.3697008335234, -2674.9450176888727, -2674.2074101218477, -2674.2968170996687, -2674.5873897775878, -2676.0179014227274, -2675.6155700225318, -2674.810907222141, -2674.5873897775878, -2675.0791281556044, -2673.9168374439287, -2674.2074101218477, -2676.3084741006464, -2675.906142700451, -2675.324997344613, -2673.894485699473, -2674.3191688441243, -2674.3191688441243, -2673.492154299278, -2673.2462851102696, -2672.8216019656184, -2673.223933365814, -2672.285160098691, -2671.458145553845, -2673.201581621359, -2673.4027473214564, -2674.2074101218477, -2673.000415921261, -2673.201581621359, -2673.0898228990823, -2671.189924620381, -2672.0616426541383, -2672.57573277661, -2673.6486165104648, -2672.933360687895, -2672.9557124323505, -2673.134526387993, -2672.2404566097807, -2674.9897211777834, -2676.6884537563865, -2677.157840389948, -2677.157840389948, -2676.442584567378, -2676.6661020119313, -2677.649578767965, -2677.8954479569734, -2677.2695991122246, -2677.4931165567777, -2677.67193051242, -2677.2025438788587, -2677.4931165567777, -2678.811869479641, -2677.426061323412, -2676.2190671228254, -2676.3308258451016, -2676.442584567378, -2677.359006090046, -2677.716634001331, -2678.2307241238027, -2678.2083723793476, -2677.5825235345987, -2674.475631055311, -2676.487288056289, -2676.710805500842, -2678.118965401526, -2678.364834590535, -2678.096613657071, -2677.9848549347944, -2677.224895623314, -2677.873096212518, -2678.2307241238027, -2678.2307241238027, -2679.393014835479, -2677.9848549347944, -2677.806040979152, -2678.5660002906325, -2679.325959602113, -2678.320131101624, -2679.5718287911213, -2679.996511935772, -2679.4600700688447, -2679.393014835479, -2678.454241568356, -2677.359006090046, -2679.4600700688447, -2679.8176979801297, -2679.616532280032, -2679.2365526242916, -2679.5718287911213, -2678.454241568356, -2677.6942822568753, -2678.7895177351857, -2677.135488645493, -2677.224895623314, -2679.057738668649, -2679.772994491219, -2679.996511935772, -2678.8789247130067, -2678.096613657071, -2678.811869479641, -2679.974160191317, -2678.700110757364, -2677.224895623314, -2678.834221224096, -2679.772994491219, -2677.9177997014285, -2678.163668890437, -2677.9848549347944, -2679.013035179739, -2678.5212968017217, -2677.738985745786, -2678.409538079445, -2677.8283927236075, -2677.6272270235095, -2677.001378178761, -2677.4931165567777, -2677.6048752790543, -2677.448413067867, -2677.3143026011353, -2678.677759012909, -2678.2977793571686, -2677.426061323412, -2677.761337490241, -2678.5660002906325, -2678.968331690828, -2677.9848549347944, -2677.738985745786, -2680.2200293803253, -2677.738985745786, -2677.2695991122246, -2678.2754276127134, -2676.6884537563865, -2676.4649363118338, -2678.5883520350876, -2678.6330555239983, -2679.705939257853, -2677.5601717901436, -2677.8954479569734, -2678.38718633499, -2679.035386924194, -2679.2365526242916, -2678.2530758682583, -2678.744814246275, -2678.5660002906325, -2678.163668890437, -2677.716634001331, -2678.5436485461773, -2679.348311346568, -2679.5718287911213, -2679.2142008798364, -2678.4989450572666, -2678.5436485461773, -2678.9906834352832, -2679.907104957951, -2679.6612357689423, -2680.041215424683, -2679.9518084468614, -2678.72246250182, -2678.72246250182, -2679.750642746764, -2679.415366579934, -2680.2423811247804, -2681.002340436261, -2680.376491591512, -2679.772994491219, -2679.258904368747, -2678.7895177351857, -2679.907104957951, -2679.638884024487, -2679.258904368747, -2680.421195080423, -2680.264732869236, -2679.2812561132023, -2677.738985745786, -2678.610703779543, -2680.622360780521, -2679.996511935772, -2679.638884024487, -2680.2200293803253, -2679.8847532134955, -2679.5718287911213, -2679.5941805355765, -2679.549477046666, -2679.750642746764, -2679.616532280032, -2680.8458782250736, -2680.1529741469594, -2679.907104957951, -2679.8847532134955, -2680.1082706580487, -2681.1811543919034, -2682.634017781498, -2681.1364509029927, -2680.0188636802272, -2681.8293549811074, -2681.9187619589284, -2681.9858171922942, -2681.67289276992, -2681.4717270698225, -2678.9236282019174, -2681.1588026474483, -2682.343445103579, -2681.359968347546, -2681.1364509029927, -2681.359968347546, -2681.963465447839, -2683.1481079039704, -2682.030520681205, -2682.3657968480347, -2682.678721270409, -2682.4552038258557, -2680.979988691806, -2679.907104957951, -2680.1976776358697, -2681.6281892810093, -2682.231686381303, -2682.991645692783, -2681.583485792099, -2682.3657968480347, -2683.550439304166, -2684.220991637825, -2683.1257561595153, -2681.1364509029927, -2682.4105003369455, -2683.1481079039704, -2682.8128317371406, -2681.739948003286, -2681.963465447839, -2682.1199276590264, -2681.605837536554, -2682.4105003369455, -2683.8186602376295, -2682.5222590592216, -2683.0139974372387, -2683.1257561595153, -2683.0810526706045, -2683.572791048621, -2686.0761864276155, -2684.645674782476, -2686.478517827811, -2688.065491684138, -2689.071320184627, -2689.764224262741, -2688.4007678509674, -2692.513488830744, -2692.088805686093, -2692.8487649975737, -2692.8487649975737, -2690.680645785409, -2692.357026619557, -2693.8769452425176, -2694.122814431526, -2692.5358405751995, -2693.072282442127, -2691.8652882415404, -2693.1840411644034, -2694.256924898258, -2692.5358405751995, -2692.8934684864844, -2694.413387109445, -2695.3745121210236, -2695.620381310032, -2693.765186520241, -2692.7593580197527, -2693.809890009152, -2694.033407453705, -2694.033407453705, -2695.039235954194, -2694.994532465283, -2695.1509946764704, -2694.8827737430065, -2693.4746138423225, -2693.29579988668, -2693.9216487314284, -2694.1898696648923, -2694.2792766427133, -2694.6592562984533, -2694.256924898258, -2693.765186520241, -2694.0781109426157, -2694.636904553998, -2694.3686836205347, -2695.419215609934, -2696.4026923659676, -2696.1121196880486, -2696.6932650438866, -2696.4697475993335, -2694.77101502073, -2694.3016283871684, -2694.033407453705, -2694.1898696648923, -2696.2015266658696, -2693.8992969869732, -2690.457128340856, -2689.3618928625456, -2689.183078906903, -2690.479480085311, -2688.490174828789, -2687.551401561666, -2690.5018318297666, -2690.3006661296686, -2690.255962640758, -2689.6524655404646, -2689.875982985018, -2690.2783143852134, -2689.5630585626436, -2690.323017874124, -2689.898334729473, -2690.412424851945, -2690.0100934517495, -2688.490174828789, -2689.1160236735373, -2689.898334729473, -2689.4065963514563, -2689.6301137960095, -2689.9206864739285, -2688.9819132068055, -2688.490174828789, -2689.2948376291797, -2688.847802740074, -2689.2724858847246, -2689.384244607001, -2689.9430382183837, -2690.255962640758, -2688.7583957622523, -2689.67481728492, -2690.837107996596, -2690.2112591518476, -2690.5241835742218, -2690.188907407392, -2690.4347765964003, -2691.418253352434, -2689.5854103070988, -2689.5630585626436, -2690.971218463328, -2690.479480085311, -2690.3006661296686, -2689.9877417072944, -2689.808927751652, -2689.6971690293753, -2690.6135905520428, -2691.0829771856042, -2690.099500429571, -2690.747701018775, -2690.837107996596, -2690.323017874124, -2690.837107996596, -2690.9265149744174, -2690.6359422964983, -2691.395901607979, -2691.5076603302555, -2689.741872518286, -2689.875982985018, -2689.875982985018, -2690.5018318297666, -2690.6359422964983, -2690.121852174026, -2688.5572300621548, -2688.825450995618, -2690.6135905520428, -2690.9488667188725, -2690.5912388075876, -2690.7253492743193, -2689.4960033292778, -2690.5241835742218, -2692.6252475530205, -2691.395901607979, -2691.1723841634257, -2690.412424851945, -2691.2394393967916, -2691.5747155636213, -2690.2783143852134, -2689.786576007197, -2690.9935702077833, -2690.412424851945, -2690.0547969406603, -2691.2841428857023, -2692.4911370862887, -2692.647599297476, -2692.3123231306463, -2689.2501341402694, -2687.2831806282024, -2688.2443056397806, -2687.5290498172108, -2686.2102968943473, -2684.936247460395, -2686.0538346831604, -2683.8633637265402, -2685.4950410717775, -2683.282218370702, -2682.1869828923923, -2681.6281892810093, -2680.421195080423, -2679.6612357689423, -2680.421195080423, -2681.8964102144732, -2679.996511935772, -2682.0752241701157, -2680.8011747361634, -2680.778822991708, -2680.778822991708, -2679.2365526242916, -2680.5553055471546, -2681.069395669627, -2681.5611340476435, -2681.225857880814, -2680.1976776358697, -2678.9459799463725, -2680.5329538026995, -2680.287084613691, -2680.3988433359677, -2681.516430558733, -2680.4882503137887, -2680.4882503137887, -2680.063567169138, -2679.9518084468614, -2680.8905817139844, -2679.750642746764, -2680.2200293803253, -2681.739948003286, -2680.8682299695292, -2681.359968347546, -2680.8235264806185, -2681.1140991585376, -2680.689416013887, -2679.035386924194, -2680.734119502797, -2681.9187619589284, -2680.041215424683, -2679.5718287911213, -2680.3988433359677, -2680.8011747361634, -2680.1082706580487, -2678.72246250182, -2678.834221224096, -2680.421195080423, -2680.689416013887, -2679.7953462356745, -2679.2812561132023, -2678.38718633499, -2679.2365526242916, -2678.9906834352832, -2678.8789247130067, -2680.130622402504, -2681.1364509029927, -2681.4046718364566, -2682.00816893675, -2680.287084613691, -2680.264732869236, -2679.683587513398, -2679.124793902015, -2679.057738668649, -2678.2977793571686, -2677.2025438788587, -2678.9012764574622, -2678.096613657071, -2678.320131101624, -2678.454241568356, -2678.8565729685515, -2679.10244215756, -2678.3424828460793, -2678.00720667925, -2678.4318898239007, -2678.320131101624, -2678.5660002906325, -2678.9459799463725, -2678.2754276127134, -2678.6330555239983, -2678.8789247130067, -2678.6554072684535, -2678.2307241238027, -2679.4600700688447, -2680.3988433359677, -2679.683587513398, -2679.7953462356745, -2680.354139847057, -2678.2307241238027, -2677.2025438788587, -2678.9236282019174, -2678.320131101624, -2677.9401514458837, -2678.677759012909, -2677.3143026011353, -2675.0791281556044, -2675.6379217669873, -2677.448413067867, -2678.1413171459817, -2677.5601717901436, -2677.4931165567777, -2677.67193051242, -2677.783689234697, -2678.2754276127134, -2678.610703779543, -2678.5436485461773, -2677.783689234697, -2678.029558423705, -2677.761337490241, -2677.2025438788587, -2677.783689234697, -2676.129660145004, -2676.9790264343055, -2679.057738668649, -2678.163668890437, -2678.00720667925, -2676.755508989753, -2677.5601717901436, -2678.5212968017217, -2678.3424828460793, -2678.364834590535, -2677.8283927236075, -2677.6048752790543, -2678.5436485461773, -2677.8283927236075, -2677.3143026011353, -2678.118965401526, -2677.806040979152, -2677.8954479569734, -2678.9459799463725, -2678.364834590535, -2679.4824218133, -2680.5553055471546, -2679.705939257853, -2678.610703779543, -2678.2754276127134, -2678.4318898239007, -2678.409538079445, -2679.2365526242916, -2679.2365526242916, -2678.677759012909, -2677.8954479569734, -2677.381357834501, -2677.9848549347944, -2677.3143026011353, -2676.755508989753, -2678.610703779543, -2678.744814246275, -2677.761337490241, -2677.068433412127, -2676.2861223561913, -2676.800212478663, -2678.163668890437, -2678.2307241238027, -2677.8283927236075, -2677.67193051242, -2679.348311346568, -2678.5660002906325, -2677.6048752790543, -2676.6213985230206, -2676.643750267476, -2676.2190671228254, -2675.6379217669873, -2677.783689234697, -2677.359006090046, -2676.3084741006464, -2677.2695991122246, -2677.2025438788587, -2675.034424666694, -2675.190886877881, -2676.3755293340123, -2676.6884537563865, -2676.844915967574, -2676.643750267476, -2676.107308400549, -2675.414404322434, -2676.062604911638, -2674.9226659444175, -2677.0460816676714, -2676.5990467785655, -2675.414404322434, -2675.5261630447108, -2676.353177589557, -2676.710805500842, -2676.3084741006464, -2675.9284944449064, -2676.509639800744, -2676.509639800744, -2676.2190671228254, -2676.152011889459, -2676.2190671228254, -2676.4649363118338, -2677.0460816676714, -2676.9343229453953, -2675.1461833889707, -2676.3084741006464, -2676.777860734208, -2676.2637706117357, -2676.19671537837, -2676.5766950341103, -2676.5319915451996, -2676.107308400549, -2676.5319915451996, -2676.9790264343055, -2676.487288056289, -2676.19671537837, -2676.777860734208, -2676.9566746898504, -2677.4037095789563, -2677.157840389948, -2676.755508989753, -2676.2861223561913, -2675.5261630447108, -2676.8896194564845, -2676.867267712029, -2676.19671537837, -2677.6048752790543, -2676.2414188672806, -2676.867267712029, -2676.867267712029, -2676.3084741006464, -2677.426061323412, -2676.6213985230206, -2675.6379217669873, -2675.2355903667917, -2673.581561277099, -2674.8556107110517, -2676.152011889459, -2676.19671537837, -2677.1801921344036, -2675.794383978174, -2675.034424666694, -2675.839087467085, -2676.2414188672806, -2675.682625255898, -2675.9731979338167, -2676.487288056289, -2675.9731979338167, -2675.190886877881, -2676.19671537837, -2675.168535133426, -2675.10147990006, -2675.749680489264, -2675.9955496782723, -2675.257942111247, -2673.849782210563, -2674.833258966596, -2677.515468301233, -2678.0519101681602, -2675.5708665336215, -2675.2132386223366, -2675.9955496782723, -2676.420232822923, -2677.068433412127, -2677.3143026011353, -2675.9284944449064, -2674.9673694333283, -2676.5766950341103, -2676.5990467785655, -2675.0791281556044, -2675.3026456001576, -2675.5261630447108, -2676.3084741006464, -2676.040253167183, -2674.877962455507, -2675.3473490890683, -2676.062604911638, -2676.3755293340123, -2675.749680489264, -2675.414404322434, -2674.475631055311, -2675.8837909559957, -2677.1131369010377, -2676.9343229453953, -2676.0179014227274, -2676.4649363118338, -2675.10147990006, -2675.10147990006, -2675.9955496782723, -2676.3084741006464, -2674.6320932664985, -2674.76620373323, -2675.772032233719, -2676.5319915451996, -2675.9284944449064, -2676.152011889459, -2675.548514789166, -2674.8556107110517, -2676.0179014227274, -2676.4649363118338, -2674.900314199962, -2674.9450176888727, -2675.6379217669873, -2675.5038113002556, -2674.9226659444175, -2674.542686288677, -2674.9673694333283, -2674.4085758219453, -2675.772032233719, -2675.6379217669873, -2674.810907222141, -2675.8614392115405, -2674.1180031440263, -2674.3191688441243, -2675.5038113002556, -2672.843953710074, -2675.168535133426, -2675.682625255898, -2674.7885554776853, -2674.609741522043, -2674.542686288677, -2674.2074101218477, -2675.168535133426, -2675.190886877881, -2675.190886877881, -2675.6602735114425, -2674.6544450109536, -2674.0732996551155, -2673.9615409328394, -2674.76620373323, -2674.877962455507, -2674.676796755409, -2673.581561277099, -2676.152011889459, -2675.8837909559957, -2675.0791281556044, -2675.5261630447108, -2675.0791281556044, -2675.9731979338167, -2674.7215002443195, -2675.257942111247, -2675.4367560668893, -2674.2074101218477, -2674.6544450109536, -2673.9838926772945, -2672.3969188209676, -2672.9780641768057, -2672.285160098691, -2671.7263664873085, -2669.960578675339, -2670.899351942462, -2671.6816629983978, -2671.3463868315685, -2671.7934217206744, -2672.285160098691, -2672.5310292876998, -2672.8886571989847, -2673.201581621359, -2673.514506043733, -2673.067471154627, -2672.5980845210656, -2671.882828698496, -2673.805078721652, -2673.2462851102696, -2672.9557124323505, -2672.5980845210656, -2672.866305454529, -2672.799250221163, -2671.234628109292, -2672.285160098691, -2672.0616426541383, -2673.6933199993755, -2673.0898228990823, -2671.5028490427553, -2670.452317053356, -2671.614607765032, -2672.0169391652275, -2672.262808354236, -2672.285160098691, -2671.7934217206744, -2672.1510496319593, -2672.173401376415, -2672.2404566097807, -2671.86047695404, -2673.6933199993755, -2674.0509479106604, -2671.2793315982026, -2671.4134420649343, -2673.0898228990823, -2672.6874914988866, -2671.972235676317, -2672.4639740543334, -2673.1792298769033, -2673.6262647660096, -2672.419270565423, -2671.569904276121, -2671.525200787211, -2672.19575312087, -2672.4639740543334, -2672.799250221163, -2672.218104865325, -2672.419270565423, -2672.5980845210656, -2672.4639740543334, -2671.7487182317636, -2671.7487182317636, -2671.882828698496, -2671.4134420649343, -2672.91100894344, -2673.3356920880906, -2671.86047695404, -2672.173401376415, -2671.167572875926, -2671.0781658981045, -2671.167572875926, -2670.3405583310796, -2671.3910903204787, -2670.318206586624, -2671.4134420649343, -2671.167572875926, -2670.9887589202835, -2669.4017850639566, -2670.5640757756323, -2671.5028490427553, -2671.614607765032, -2671.6593112539426, -2671.189924620381, -2669.714709486331, -2670.7205379868196, -2669.8488199530625, -2669.1335641304927, -2671.525200787211, -2671.1228693870153, -2671.771069976219, -2671.4134420649343, -2670.6311310089986, -2670.586427520088, -2671.3016833426577, -2670.921703686917, -2672.57573277661, -2672.173401376415, -2672.3745670765124, -2671.5028490427553, -2670.6311310089986, -2671.7263664873085, -2672.776898476708, -2673.134526387993, -2672.6874914988866, -2674.3638723330346, -2674.542686288677, -2672.19575312087]]
[[-3647.469418939283, -3647.2906049836406, -3646.6200526499815, -3646.6200526499815, -3647.849398595023, -3647.201198005819, -3647.0447357946323, -3647.111791027998, -3647.514122428194, -3645.6142241494927, -3646.441238694339, -3646.508293927705, -3647.24590149473, -3647.3800119614616, -3646.1059625275093, -3647.2906049836406, -3646.8435700945342, -3647.491770683738, -3648.4528956953163, -3647.0223840501767, -3646.821218350079, -3648.6540613954144, -3648.855227095512, -3647.558825917104, -3641.0991717695206, -3643.535511915149, -3645.502465427216, -3644.3178229710848, -3644.1613607598974, -3644.3625264599955, -3643.669622381881, -3645.636575893948, -3645.144837515931, -3644.116657270987, -3644.2284159932633, -3643.311994470596, -3643.62491889297, -3643.8484363375233, -3644.3625264599955, -3644.4072299489058, -3643.4461049373276, -3643.3790497039618, -3644.3178229710848, -3643.8037328486125, -3644.250767737719, -3644.206064248808, -3644.9660235602887, -3643.826084593068, -3643.8037328486125, -3644.8095613491014, -3643.7143258707915, -3644.4519334378165, -3645.43541019385, -3646.173017760875, -3645.547168916127, -3645.0330787936546, -3645.4801136827605, -3645.7036311273137, -3645.6142241494927, -3644.7425061157355, -3644.854264838012, -3644.183712504353, -3645.278947982663, -3643.8707880819784, -3644.273119482174, -3643.915491570889, -3644.0719537820764, -3644.474285182272, -3643.8707880819784, -3643.826084593068, -3644.183712504353, -3643.1331805149534, -3644.0943055265316, -3643.7590293597023, -3643.4908084262383, -3643.1555322594086, -3641.590910147537, -3642.283814225652, -3642.976718303766, -3643.0437735371324, -3642.7532008592134, -3644.0272502931657, -3641.926186314367, -3642.1497037589197, -3643.468456681783, -3644.0719537820764, -3644.2954712266296, -3645.211892749297, -3644.7201543712804, -3643.4237531928725, -3643.7590293597023, -3644.250767737719, -3643.267290981685, -3644.1613607598974, -3643.58021540406, -3643.0884770260427, -3643.8484363375233, -3644.5189886711823, -3645.211892749297, -3645.4801136827605, -3645.1224857714756, -3644.3625264599955, -3643.334346215051, -3641.8367793365455, -3640.249805480219, -3638.282851968152, -3638.5287211571604, -3640.696840369325, -3643.0884770260427, -3644.049602037621, -3643.4237531928725, -3644.563692160093, -3644.5189886711823, -3644.4072299489058, -3644.697802626825, -3643.4237531928725, -3645.0554305381097, -3645.4130584493946, -3644.7425061157355, -3644.0048985487106, -3643.0884770260427, -3644.049602037621, -3644.541340415638, -3644.8095613491014, -3644.4519334378165, -3643.915491570889, -3643.7366776152467, -3644.1390090154423, -3644.496636926727, -3643.9378433153447, -3643.9378433153447, -3644.1390090154423, -3643.0884770260427, -3643.826084593068, -3644.0943055265316, -3643.4461049373276, -3643.4014014484173, -3645.189541004842, -3644.921320071378, -3643.7590293597023, -3643.691974126336, -3643.0437735371324, -3643.0661252815876, -3642.7084973703027, -3641.993241547733, -3642.976718303766, -3642.1720555033753, -3641.635613636448, -3643.4237531928725, -3644.6530991379145, -3643.58021540406, -3643.222587492775, -3644.183712504353, -3644.1390090154423, -3643.557863659604, -3642.574386903571, -3643.2002357483193, -3642.082648525554, -3641.635613636448, -3643.334346215051, -3641.7697241031797, -3640.920357813878, -3641.993241547733, -3643.1555322594086, -3642.1944072478304, -3641.345040958529, -3642.976718303766, -3642.373221203473, -3641.9038345699114, -3641.2556339807074, -3641.1215235139757, -3640.920357813878, -3641.568558403082, -3641.4567996808055, -3641.1438752584313, -3642.7532008592134, -3642.7979043481237, -3642.3285177145626, -3642.7532008592134, -3642.52968341466, -3642.954366559311, -3643.557863659604, -3644.3625264599955, -3643.58021540406, -3643.0437735371324, -3644.4072299489058, -3642.86495958149, -3642.373221203473, -3643.9601950598, -3642.8426078370344, -3641.3897444474396, -3643.0437735371324, -3642.1273520144646, -3643.8707880819784, -3643.826084593068, -3644.586043904548, -3643.9378433153447, -3642.596738648026, -3644.586043904548, -3645.43541019385, -3643.7143258707915, -3641.2332822362523, -3641.3226892140738, -3642.9096630704003, -3644.943671815833, -3644.8095613491014, -3644.4072299489058, -3645.4801136827605, -3646.9329770723557, -3642.976718303766, -3640.3839159469508, -3641.5462066586265, -3642.8202560925793, -3644.3848782044506, -3642.7979043481237, -3641.8814828254563, -3641.9708898032773, -3642.4626281812943, -3641.367392702984, -3641.9038345699114, -3641.7473723587245, -3643.691974126336, -3645.7706863606795, -3645.0330787936546, -3641.7697241031797, -3640.361564202495, -3640.7862473471464, -3638.752238601713, -3640.7415438582357, -3643.468456681783, -3643.557863659604, -3644.049602037621, -3643.021421792677, -3642.6861456258475, -3641.702668869814, -3641.6803171253587, -3640.361564202495, -3641.0991717695206, -3641.4791514252606, -3640.7862473471464, -3638.2605002236965, -3638.4616659237945, -3638.2381484792413, -3638.707535112803, -3639.8027705911127, -3639.24397697973, -3640.4509711803166, -3640.7415438582357, -3641.300337469618, -3640.048639780121, -3639.3557357020068, -3639.5569014021044, -3638.439314179339, -3639.4227909353726, -3638.104038012509, -3637.1652647453866, -3638.729886857258, -3637.1652647453866, -3637.277023467663, -3637.5452444011266, -3638.305203712607, -3637.478189167761, -3637.209968234297, -3639.1769217463643, -3638.2381484792413, -3636.427657178361, -3636.2041397338085, -3637.277023467663, -3636.405305433906, -3633.9913170327327, -3635.2206629777747, -3638.662831623892, -3642.9096630704003, -3643.7590293597023, -3641.1662270028864, -3640.1380467579424, -3639.62395663547, -3640.652136880414, -3642.976718303766, -3641.501503169716, -3640.3839159469508, -3640.2051019913083, -3639.691011868836, -3640.026288035666, -3639.62395663547, -3639.333383957551, -3639.892177568934, -3639.1769217463643, -3637.8805205679564, -3638.8416455795345, -3639.467494424283, -3638.5734246460706, -3638.5063694127048, -3639.1322182574536, -3639.24397697973, -3638.349907201518, -3638.595776390526, -3637.9475758013223, -3638.9757560462663, -3638.707535112803, -3638.1263897569647, -3638.5287211571604, -3638.349907201518, -3638.8192938350794, -3639.5569014021044, -3639.9145293133893, -3640.5403781581376, -3641.1215235139757, -3639.735715357747, -3640.0039362912103, -3641.4567996808055, -3640.8533025805123, -3641.1885787473416, -3641.345040958529, -3641.210930491797, -3641.4120961918948, -3641.4567996808055, -3640.5850816470484, -3639.400439190917, -3640.7862473471464, -3641.501503169716, -3640.249805480219, -3639.825122335568, -3639.2216252352746, -3639.109866512998, -3639.0651630240877, -3638.5510729016155, -3638.685183368347, -3638.752238601713, -3638.8639973239897, -3639.62395663547, -3640.1827502468527, -3639.4451426798278, -3640.0039362912103, -3639.668660124381, -3640.4956746692274, -3639.8027705911127, -3639.333383957551, -3640.0933432690317, -3640.115695013487, -3642.3955729479285, -3641.1215235139757, -3640.607433391504, -3639.691011868836, -3640.2274537357634, -3641.1215235139757, -3640.8980060694225, -3640.1380467579424, -3640.316860713585, -3639.8698258244785, -3640.361564202495, -3642.1497037589197, -3642.4179246923836, -3642.373221203473, -3641.702668869814, -3642.1720555033753, -3642.1050002700094, -3640.965061302789, -3641.009764791699, -3642.3508694590178, -3641.5462066586265, -3641.009764791699, -3641.948538058822, -3641.6803171253587, -3641.859131081001, -3642.641442136937, -3640.8980060694225, -3640.71919211378, -3640.8533025805123, -3641.009764791699, -3641.501503169716, -3641.590910147537, -3640.5403781581376, -3640.361564202495, -3640.1827502468527, -3640.8980060694225, -3640.763895602691, -3642.0379450366436, -3640.0039362912103, -3641.0991717695206, -3640.965061302789, -3640.0933432690317, -3640.562729902593, -3640.1380467579424, -3640.2274537357634, -3640.406267691406, -3639.825122335568, -3639.4898461687385, -3640.406267691406, -3640.2274537357634, -3639.601604891015, -3639.9145293133893, -3639.8474740800234, -3640.4733229247718, -3639.042811279632, -3640.8533025805123, -3640.1827502468527, -3638.8192938350794, -3640.048639780121, -3640.562729902593, -3640.629785135959, -3641.1438752584313, -3640.562729902593, -3639.7804188466575, -3640.763895602691, -3640.1827502468527, -3639.333383957551, -3639.7804188466575, -3639.4898461687385, -3640.048639780121, -3640.696840369325, -3639.5792531465595, -3639.4898461687385, -3638.998107790722, -3638.752238601713, -3638.998107790722, -3639.2886804686405, -3639.601604891015, -3639.042811279632, -3639.8027705911127, -3640.249805480219, -3639.3557357020068, -3639.1769217463643, -3639.735715357747, -3640.2051019913083, -3640.7862473471464, -3641.43444793635, -3642.239110736741, -3640.2274537357634, -3640.696840369325, -3641.2556339807074, -3640.8980060694225, -3639.9368810578444, -3640.5180264136825, -3641.367392702984, -3641.0321165361547, -3641.702668869814, -3640.920357813878, -3640.562729902593, -3641.1438752584313, -3640.629785135959, -3638.998107790722, -3636.405305433906, -3635.757104844702, -3635.600642633515, -3636.1594362448977, -3635.310069955596, -3634.460703666294, -3636.472360667272, -3639.020459535177, -3638.953404301811, -3640.316860713585, -3640.8756543249674, -3640.4509711803166, -3640.4733229247718, -3640.8533025805123, -3640.696840369325, -3640.7862473471464, -3640.4733229247718, -3640.7415438582357, -3640.249805480219, -3641.345040958529, -3638.2605002236965, -3637.411133934395, -3643.468456681783, -3649.6375381514476, -3656.253654510219, -3661.4169074793945, -3666.602512193026, -3673.263332040707, -3679.2312478102745, -3685.3556257910286, -3689.200125837341, -3694.1622131064196, -3699.4595765423273, -3705.7404167342684, -3710.9707249368103, -3715.955163950344, -3720.8725477305115, -3725.0970274325646, -3730.953184479855, -3734.395353125972, -3737.5693008386256, -3740.6091380845473, -3743.246643930274, -3746.889978276489, -3748.40989689945, -3749.818056800134, -3751.5391411231926, -3752.79083881269, -3754.914254535944, -3754.0648882466426, -3756.143600480986, -3755.0707167471314, -3752.142638223486, -3751.8967690344775, -3752.9025975349664, -3752.8802457905113, -3752.2320452013073, -3752.8355423016005, -3753.237873701796, -3752.2320452013073, -3751.9414725233883, -3751.2262167008184, -3753.237873701796, -3752.9025975349664, -3752.4555626458605, -3751.6732515899243, -3751.337975423095, -3752.5449696236815, -3752.5673213681366, -3752.589673112592, -3751.8297138011117, -3751.3156236786394, -3752.388507412494, -3752.2320452013073, -3751.8744172900224, -3751.8967690344775, -3751.494437634282, -3752.433210901405, -3752.8131905571454, -3751.9414725233883, -3753.1261149795196, -3752.2543969457624, -3750.689774833891, -3753.8413708020894, -3756.6800423479135, -3758.0434987596873, -3757.4847051483043, -3757.6858708484024, -3757.3729464260277, -3757.17178072593, -3754.400164413472, -3755.294234191684, -3755.249530702774, -3756.009490014254, -3756.4118214144496, -3755.562455125148, -3755.495399891782, -3755.1154202360417, -3755.8306760586115, -3755.7412690807905, -3755.36128942505, -3755.271882447229, -3755.8083243141564, -3756.300062692173, -3756.0318417587096, -3756.7023940923686, -3756.367117925539, -3756.4565249033603, -3757.529408637215, -3758.0882022485976, -3757.462353403849, -3758.3117196931507, -3758.3117196931507, -3757.7082225928575, -3757.3729464260277, -3758.1552574819634, -3758.6693476044356, -3758.3117196931507, -3759.0493272601757, -3758.3117196931507, -3757.462353403849, -3757.574112126126, -3757.596463870581, -3757.976443526321, -3758.4234784154273, -3757.9987952707766, -3757.976443526321, -3756.925911536922, -3756.7918010701896, -3756.858856303556, -3757.596463870581, -3757.2835394482067, -3757.4847051483043, -3757.4847051483043, -3757.7976295706785, -3756.9929667702877, -3757.9317400374107, -3757.7976295706785, -3757.596463870581, -3757.3505946815726, -3756.300062692173, -3756.612987114547, -3757.7752778262234, -3757.9317400374107, -3759.474010404827, -3758.5128853932483, -3757.864684804045, -3757.1494289814746, -3758.334071437606, -3757.7976295706785, -3757.7752778262234, -3757.2835394482067, -3757.618815615036, -3758.9599202823547, -3760.166914482941, -3759.205789471363, -3758.3787749265166, -3759.3622516825503, -3758.915216793444, -3760.2563214607626, -3760.1222109940304, -3760.502190649771, -3759.7645830827455, -3759.3175481936396, -3760.4798389053153, -3759.1610859824523, -3759.3846034270055, -3759.228141215818, -3758.848161560078, -3760.3233766941285, -3759.6975278493796, -3758.848161560078, -3759.138734237997, -3761.3292051946173, -3760.3233766941285, -3760.0328040162094, -3759.3846034270055, -3758.490533648793, -3759.3846034270055, -3759.6975278493796, -3758.244664459785, -3758.1329057375083, -3758.6469958599805, -3758.3787749265166, -3759.1610859824523, -3757.8870365485, -3757.1270772370194, -3757.9317400374107, -3759.3622516825503, -3759.6975278493796, -3764.8607808185557, -3769.4875919208043, -3766.425402930427, -3751.2262167008184, -3741.659670073947, -3735.9152717489333, -3728.181568167397, -3718.458559329338, -3710.702504003347, -3702.20884111033, -3696.2856288296734, -3688.239000825763, -3682.2934368006513, -3676.079651842076, -3671.341082017551, -3664.814372636601, -3658.600587678026, -3653.9067213424114, -3649.5481311736266, -3647.0000323057216, -3645.3236514715736, -3644.854264838012, -3645.144837515931, -3644.898968326923, -3644.0943055265316, -3644.6530991379145, -3644.3848782044506, -3644.474285182272, -3644.4295816933613, -3644.3178229710848, -3642.7979043481237, -3643.1108287704983, -3642.373221203473, -3642.663793881392, -3642.641442136937, -3642.4849799257495, -3642.1497037589197, -3641.5238549141714, -3641.657965380903, -3642.1944072478304, -3641.657965380903, -3641.657965380903, -3643.2896427261408, -3642.730849114758, -3643.3790497039618, -3642.596738648026, -3641.568558403082, -3641.9708898032773, -3642.4402764368388, -3642.373221203473, -3641.300337469618, -3641.590910147537, -3641.5238549141714, -3641.926186314367, -3643.7813811041574, -3642.4626281812943, -3641.8814828254563, -3641.993241547733, -3642.082648525554, -3643.1555322594086, -3643.982546804255, -3642.7084973703027, -3640.763895602691, -3640.0039362912103, -3639.4451426798278, -3638.2381484792413, -3637.3217269565735, -3635.9806222892553, -3638.595776390526, -3639.735715357747, -3640.5180264136825, -3641.635613636448, -3641.859131081001, -3642.6861456258475, -3643.826084593068, -3641.9038345699114, -3641.568558403082, -3643.893139826434, -3643.7590293597023, -3641.8144275920904, -3642.373221203473, -3643.1331805149534, -3643.1331805149534, -3643.62491889297, -3643.334346215051, -3643.915491570889, -3643.4237531928725, -3642.574386903571, -3644.4072299489058, -3643.267290981685, -3642.976718303766, -3643.2002357483193, -3643.177884003864, -3643.1331805149534, -3642.86495958149, -3642.4179246923836, -3641.1215235139757, -3641.9038345699114, -3644.206064248808, -3644.273119482174, -3643.691974126336, -3643.311994470596, -3641.300337469618, -3642.3508694590178, -3643.0437735371324, -3641.7697241031797, -3641.3897444474396, -3641.9038345699114, -3643.0437735371324, -3642.373221203473, -3641.6803171253587, -3640.5180264136825, -3640.607433391504, -3640.987413047244, -3640.8533025805123, -3640.33921245804, -3640.562729902593, -3640.4509711803166, -3641.926186314367, -3642.7979043481237, -3641.1885787473416, -3641.210930491797, -3641.8144275920904, -3642.373221203473, -3642.7755526036685, -3643.021421792677, -3642.596738648026, -3642.2614624811963, -3643.691974126336, -3645.4130584493946, -3644.474285182272, -3643.8484363375233, -3644.608395649004, -3643.8707880819784, -3642.596738648026, -3643.1108287704983, -3643.267290981685, -3642.641442136937, -3642.7979043481237, -3642.663793881392, -3642.015593292188, -3640.965061302789, -3642.0379450366436, -3644.0048985487106, -3643.915491570889, -3644.250767737719, -3644.1613607598974, -3642.7532008592134, -3642.932014814856, -3642.86495958149, -3643.1555322594086, -3642.932014814856, -3642.663793881392, -3643.468456681783, -3642.932014814856, -3642.730849114758, -3644.183712504353, -3643.1108287704983, -3642.4179246923836, -3641.9038345699114, -3642.6861456258475, -3643.4461049373276, -3642.9096630704003, -3642.7532008592134, -3644.206064248808, -3643.915491570889, -3643.267290981685, -3643.4908084262383, -3643.021421792677, -3645.144837515931, -3642.7084973703027, -3642.7979043481237, -3642.9990700482217, -3643.5131601706935, -3644.1613607598974, -3644.049602037621, -3644.250767737719, -3643.334346215051, -3642.976718303766, -3643.021421792677, -3642.596738648026, -3642.7084973703027, -3642.2614624811963, -3642.7755526036685, -3643.2896427261408, -3642.283814225652, -3643.2002357483193, -3641.4120961918948, -3641.8814828254563, -3642.1497037589197, -3642.932014814856, -3642.306165970107, -3641.9038345699114, -3642.887311325945, -3642.9096630704003, -3642.7755526036685, -3642.4849799257495, -3642.86495958149, -3643.8037328486125, -3644.0272502931657, -3643.0437735371324, -3643.9378433153447, -3643.8037328486125, -3644.2954712266296, -3644.697802626825, -3643.4237531928725, -3643.8037328486125, -3643.468456681783, -3642.596738648026, -3643.8707880819784, -3645.189541004842, -3644.4295816933613, -3642.596738648026, -3643.4237531928725, -3642.5520351591153, -3642.9990700482217, -3643.5131601706935, -3643.1331805149534, -3643.557863659604, -3643.691974126336, -3642.9990700482217, -3641.993241547733, -3641.702668869814, -3644.854264838012, -3644.8095613491014, -3644.1613607598974, -3645.0554305381097, -3645.1224857714756, -3645.860093338501, -3644.9660235602887, -3643.893139826434, -3643.557863659604, -3643.535511915149, -3642.2614624811963, -3643.24493923723, -3642.9096630704003, -3642.1273520144646, -3643.311994470596, -3643.691974126336, -3643.691974126336, -3643.535511915149, -3643.3790497039618, -3643.0437735371324, -3643.557863659604, -3644.273119482174, -3642.663793881392, -3641.948538058822, -3641.2332822362523, -3642.932014814856, -3642.9096630704003, -3642.1497037589197, -3643.4908084262383, -3642.7979043481237, -3643.0661252815876, -3644.34017471554, -3643.982546804255, -3642.3508694590178, -3641.9038345699114, -3643.1555322594086, -3643.691974126336, -3643.311994470596, -3642.976718303766, -3642.932014814856, -3643.535511915149, -3643.3790497039618, -3642.1050002700094, -3642.2614624811963, -3642.082648525554, -3643.6472706374257, -3644.250767737719, -3643.7143258707915, -3643.1555322594086, -3642.574386903571, -3642.4179246923836, -3642.7084973703027, -3642.574386903571, -3642.619090392481, -3641.993241547733, -3643.0437735371324, -3644.0943055265316, -3643.8037328486125, -3643.24493923723, -3644.3178229710848, -3634.8406833220347, -3590.3383601115183, -3552.2956910485855, -3546.3948305123845, -3546.7301066792143, -3548.495894491183, -3547.89239739089, -3547.9371008798007, -3546.9089206348567, -3547.825342157524, -3548.8758741469237, -3549.278205547119, -3547.9147491353456, -3547.2665485461416, -3546.193664812287, -3543.9137868778453, -3543.5561589665604, -3543.4891037331945, -3542.7961996550803, -3543.4891037331945, -3546.238368301197, -3545.545464223083, -3546.0819060900103, -3546.528940979116, -3546.841865401491, -3546.551292723572, -3546.573644468027, -3546.640699701393, -3545.4560572452615, -3546.3501270234738, -3548.2723770466305, -3548.6970601912813, -3547.087734590499, -3547.6465282018817, -3547.4900659906943, -3547.6465282018817, -3547.9147491353456, -3546.1266095789206, -3546.6183479569377, -3549.7252404362252, -3550.172275325331, -3550.2840340476077, -3547.445362501784, -3549.188798569298, -3549.4570195027613, -3548.808818913558, -3550.373441025429, -3550.3287375365185, -3549.836999158502, -3548.473542746728, -3549.188798569298, -3549.0099846136554, -3547.89239739089, -3548.3617840244515, -3547.534769479605, -3547.244196801686, -3547.6241764574265, -3549.0099846136554, -3546.506589234661, -3546.4618857457504, -3548.6300049579154, -3548.3394322799963, -3548.473542746728, -3546.3724787679294, -3546.4842374902055, -3547.7135834352475, -3547.7135834352475, -3548.2276735577198, -3548.451191002273, -3550.6193102144375, -3549.278205547119, -3548.2723770466305, -3548.3617840244515, -3547.3336037795075, -3546.0372026010996, -3547.601824712971, -3549.278205547119, -3549.792295669591, -3548.60765321346, -3548.495894491183, -3549.434667758306, -3549.8146474140462, -3549.3676125249403, -3550.5969584699824, -3548.6747084468257], [-2669.0441571526717, -2668.932398430395, -2669.3794333195015, -2669.8935234419732, -2669.915875186429, -2669.200619363859, -2668.1724391189146, -2669.8041164641522, -2669.066508897127, -2667.9265699299062, -2668.57477051911, -2667.904218185451, -2668.284197841191, -2669.4911920417776, -2667.993625163272, -2668.5971222635653, -2668.932398430395, -2669.29002634168, -2668.8876949414844, -2669.513543786233, -2668.932398430395, -2667.256017596247, -2668.8206397081185, -2669.29002634168, -2667.1442588739706, -2667.613645507532, -2666.451354795856, -2666.697223984864, -2668.641825752476, -2667.256017596247, -2666.38429956249, -2666.5631135181325, -2667.7701077187194, -2667.1442588739706, -2667.323072829613, -2666.7642792182305, -2667.0548518961496, -2669.4464885528673, -2669.7817647196966, -2668.5077152857443, -2668.060680396638, -2669.222971108314, -2669.066508897127, -2668.3736048190126, -2668.3065495856467, -2668.1053838855487, -2668.552418774655, -2668.91004668594, -2669.513543786233, -2668.552418774655, -2667.9265699299062, -2669.0218054082166, -2668.9547501748502, -2668.1500873744594, -2667.546590274166, -2666.4290030514007, -2668.2171426078253, -2668.4406600523785, -2668.3065495856467, -2667.4124798074345, -2668.1053838855487, -2667.5018867852555, -2668.1277356300043, -2667.904218185451, -2667.256017596247, -2667.1442588739706, -2667.948921674362, -2667.8148112076296, -2667.993625163272, -2669.558247275144, -2669.1782676194034, -2667.1666106184257, -2667.1442588739706, -2668.5077152857443, -2666.965444918328, -2665.7584507177417, -2668.9547501748502, -2667.7701077187194, -2667.0548518961496, -2667.4348315518896, -2667.323072829613, -2667.4795350408003, -2667.7701077187194, -2669.29002634168, -2668.1277356300043, -2668.5077152857443, -2668.8206397081185, -2668.351253074557, -2668.3065495856467, -2668.8876949414844, -2668.038328652183, -2669.0441571526717, -2668.1053838855487, -2667.7701077187194, -2666.808982707141, -2667.256017596247, -2668.2171426078253, -2668.5300670301995, -2668.708880985842, -2668.3959565634677, -2667.4124798074345, -2666.9207414294174, -2667.390128062979, -2666.317244329124, -2665.356119317546, -2664.417346050423, -2666.2725408402134, -2667.3677763185237, -2665.2667123397246, -2665.713747228831, -2666.4737065403115, -2666.4737065403115, -2667.2783693407023, -2666.607817007043, -2667.256017596247, -2669.066508897127, -2668.7982879636634, -2667.7254042298086, -2668.4630117968336, -2668.261846096736, -2668.418308307923, -2668.8876949414844, -2668.7312327302975, -2668.7312327302975, -2667.7701077187194, -2666.943093173873, -2667.8818664409955, -2667.2783693407023, -2668.1053838855487, -2668.8876949414844, -2667.546590274166, -2667.9265699299062, -2667.635997251987, -2670.318206586624, -2669.066508897127, -2668.2394943522804, -2669.1335641304927, -2667.7924594631745, -2666.585465262588, -2666.7866309626856, -2668.2171426078253, -2669.357081575046, -2668.708880985842, -2668.3065495856467, -2668.261846096736, -2666.585465262588, -2666.6301687514983, -2668.3959565634677, -2668.19479086337, -2667.8818664409955, -2668.1724391189146, -2667.1889623628813, -2666.71957572932, -2667.8818664409955, -2669.2453228527693, -2669.8041164641522, -2669.4911920417776, -2667.390128062979, -2668.1053838855487, -2668.1500873744594, -2667.9265699299062, -2668.3736048190126, -2668.977101919306, -2669.222971108314, -2667.1442588739706, -2666.6301687514983, -2666.361947818035, -2667.032500151694, -2666.5407617736773, -2666.361947818035, -2665.0208431507162, -2665.713747228831, -2668.1724391189146, -2667.010148407239, -2665.087898384082, -2666.741927473775, -2665.691395484376, -2665.7584507177417, -2665.4902297842777, -2666.093726884571, -2665.4678780398226, -2665.4902297842777, -2664.707918728342, -2664.2161803503254, -2664.260883839236, -2661.3775088045013, -2660.5728460041105, -2661.4669157823228, -2661.9139506714287, -2659.2093895923367, -2657.4436017803673, -2654.3367093010797, -2649.754601687742, -2648.458200509334, -2644.3678312740126, -2638.578729460088, -2634.868339880507, -2630.3532875005353, -2625.8158833761076, -2621.7925693741527, -2617.0316478051723, -2612.4271884473787, -2607.4651011783008, -2604.157042998915, -2601.5642406421, -2599.1279004964713, -2593.4952608937338, -2589.7625195696974, -2586.297999179125, -2580.5983043430215, -2579.726586309265, -2578.65370257541, -2575.166830440382, -2572.2164001722813, -2570.0482809601167, -2566.9190367363735, -2565.2873593911363, -2565.644987302421, -2564.415641357379, -2563.3204058790693, -2564.8850279909407, -2564.3485861240133, -2561.509914578189, -2563.007481456695, -2564.6615105463875, -2563.767440768175, -2564.9520832243065, -2568.0813274480497, -2570.8082402715972, -2574.853906018008, -2578.9219235088735, -2581.671188076876, -2588.622580602477, -2593.3387986825464, -2597.1609469844043, -2603.0841592650604, -2607.0851215225603, -2612.717761125298, -2617.679848394376, -2621.032610062672, -2624.742999642253, -2627.8945956104512, -2630.0180113337055, -2633.9295666133844, -2636.5894242035656, -2637.5952527040545, -2639.1598748159263, -2642.356174273035, -2644.90427314094, -2645.775991174697, -2645.9771568747947, -2647.877055153496, -2648.9499388873505, -2651.654499966443, -2652.749735444753, -2653.28617731168, -2653.28617731168, -2654.224950578803, -2655.3648895460237, -2655.7225174573086, -2656.19190409087, -2655.9236831574062, -2656.549532002155, -2657.912988413929, -2657.3318430580907, -2655.0966686125603, -2657.4436017803673, -2658.225912836303, -2657.5330087581883, -2658.6729477254094, -2657.130677357993, -2655.878979668496, -2657.644767480465, -2657.0412703801717, -2656.19190409087, -2657.4659535248225, -2658.203561091848, -2658.1141541140264, -2658.0470988806605, -2658.5611890031328, -2663.612683250032, -2663.746793716764, -2661.802191949152, -2662.0257093937053, -2663.366814061024, -2662.0257093937053, -2662.137468115982, -2663.456221038845, -2662.450392538356, -2662.71861347182, -2664.685566983887, -2663.81384895013, -2662.2939303271687, -2660.3493285595573, -2663.0538896386493, -2664.0820698835937, -2663.2774070832024, -2663.2550553387473, -2661.8915989269735, -2661.221046593314, -2662.472744282811, -2662.1821716048926, -2661.1763431044037, -2661.8915989269735, -2662.2715785827136, -2662.5621512606326, -2662.00335764925, -2661.131639615493, -2663.2327035942917, -2663.411517549934, -2663.322110572113, -2663.6350349944873, -2664.5291047726996, -2663.4338692943898, -2663.456221038845, -2664.2385320947806, -2663.165648360926, -2662.9644826608283, -2663.411517549934, -2663.702090227853, -2662.76331696073, -2661.3998605489564, -2662.070412882616, -2661.779840204697, -2662.070412882616, -2661.7574884602413, -2662.517447771722, -2662.5845030050878, -2660.0587558816383, -2661.0198808932164, -2663.076241383105, -2662.1151163715263, -2661.153991359948, -2660.90812217094, -2661.109287871038, -2661.9586541603394, -2662.472744282811, -2661.846895438063, -2661.578674504599, -2661.6904332268755, -2661.869247182518, -2662.2492268382584, -2661.779840204697, -2661.6680814824203, -2661.578674504599, -2661.6904332268755, -2661.8915989269735, -2662.0257093937053, -2662.3386338160794, -2662.070412882616, -2661.9810059047945, -2662.00335764925, -2660.9528256598505, -2660.170514603915, -2660.505790770744, -2661.9586541603394, -2661.578674504599, -2661.489267526778, -2660.6622529819315, -2660.170514603915, -2660.6399012374764, -2662.5621512606326, -2661.735136715786, -2660.8857704264847, -2661.2881018266803, -2662.137468115982, -2661.444564037867, -2660.125811115004, -2660.4387355373783, -2660.0140523927275, -2660.774011704208, -2661.1763431044037, -2661.6233779935096, -2660.0140523927275, -2659.4105552924343, -2660.394032048468, -2660.6399012374764, -2660.5951977485656, -2659.231741336792, -2658.6505959809538, -2659.8575901815407, -2658.7847064476855, -2659.388203547979, -2661.131639615493, -2661.0869361265823, -2659.2093895923367, -2658.9858721477835, -2658.829409936596, -2659.611720992532, -2659.6564244814426, -2659.8575901815407, -2662.3386338160794, -2661.1763431044037, -2660.19286634837, -2659.9469971593617, -2660.3716803040124, -2659.611720992532, -2660.19286634837, -2660.0587558816383, -2660.6175494930208, -2661.355157060046, -2660.90812217094, -2660.3493285595573, -2660.8857704264847, -2660.9751774043057, -2659.3211483146133, -2660.4387355373783, -2661.2657500822247, -2659.9917006482724, -2660.2152180928256, -2661.4669157823228, -2661.869247182518, -2659.969348903817, -2659.835238437085, -2659.3658518035236, -2659.835238437085, -2659.4776105258, -2659.7905349481744, -2659.3211483146133, -2660.751659959753, -2661.869247182518, -2662.2939303271687, -2660.7293082152974, -2659.768183203719, -2661.221046593314, -2661.9139506714287, -2662.00335764925, -2662.2939303271687, -2662.740965216275, -2662.137468115982, -2661.846895438063, -2662.070412882616, -2661.6680814824203, -2662.2492268382584, -2662.6962617273643, -2662.71861347182, -2662.6292064939985, -2662.3162820716243, -2661.9139506714287, -2663.009186149739, -2662.517447771722, -2663.2774070832024, -2663.165648360926, -2660.6846047263866, -2660.90812217094, -2660.706956470842, -2659.7905349481744, -2660.125811115004, -2660.5728460041105, -2659.879941925996, -2660.6846047263866, -2660.774011704208, -2660.6175494930208, -2660.103459370549, -2660.6622529819315, -2662.517447771722, -2662.2939303271687, -2660.863418682029, -2662.673909982909, -2661.3998605489564, -2659.7905349481744, -2662.6068547495433, -2661.9139506714287, -2660.19286634837, -2661.5563227601438, -2662.2939303271687, -2662.9644826608283, -2661.3998605489564, -2662.9421309163727, -2662.00335764925, -2663.8809041834957, -2663.746793716764, -2663.2774070832024, -2664.484401283789, -2665.2443605952694, -2664.484401283789, -2665.780802462197, -2667.256017596247, -2666.943093173873, -2666.361947818035, -2668.5300670301995, -2669.67000599742, -2670.1840961198923, -2669.4464885528673, -2670.519372286722, -2670.251151353258, -2671.10051764256, -2673.4698025548223, -2671.5028490427553, -2671.614607765032, -2672.0616426541383, -2672.0839943985934, -2674.6320932664985, -2672.0616426541383, -2674.5650380331326, -2674.6991484998644, -2674.229761866303, -2674.6544450109536, -2673.782726977197, -2675.749680489264, -2674.9897211777834, -2674.4979827997668, -2673.29098859918, -2674.0732996551155, -2675.8614392115405, -2675.0791281556044, -2675.4814595558, -2674.185058377392, -2673.581561277099, -2673.2462851102696, -2673.9615409328394, -2674.0285961662053, -2674.140354888482, -2675.9284944449064, -2674.542686288677, -2675.704977000353, -2675.9731979338167, -2674.676796755409, -2673.872133955018, -2673.7603752327414, -2675.0791281556044, -2676.107308400549, -2675.3697008335234, -2673.3580438325457, -2673.872133955018, -2674.185058377392, -2675.9731979338167, -2674.810907222141, -2673.514506043733, -2673.4027473214564, -2674.520334544222, -2672.7321949877974, -2674.4085758219453, -2674.9897211777834, -2673.492154299278, -2674.162706632937, -2674.6991484998644, -2674.0509479106604, -2673.425099065912, -2673.6486165104648, -2673.7603752327414, -2673.805078721652, -2672.866305454529, -2673.581561277099, -2673.6933199993755, -2673.849782210563, -2674.743851988775, -2673.6933199993755, -2673.067471154627, -2673.156878132448, -2674.185058377392, -2674.3191688441243, -2674.8556107110517, -2674.8556107110517, -2674.743851988775, -2673.2462851102696, -2672.7321949877974, -2674.2074101218477, -2674.229761866303, -2674.743851988775, -2674.5873897775878, -2674.2074101218477, -2673.9615409328394, -2674.3638723330346, -2673.6262647660096, -2673.536857788188, -2674.3638723330346, -2674.4979827997668, -2675.168535133426, -2675.3697008335234, -2673.201581621359, -2673.0227676657164, -2674.542686288677, -2674.140354888482, -2674.2968170996687, -2673.29098859918, -2674.6320932664985, -2675.190886877881, -2673.447450810367, -2672.3075118431466, -2672.91100894344, -2673.0898228990823, -2673.514506043733, -2675.10147990006, -2674.9897211777834, -2674.9897211777834, -2672.6204362655208, -2671.234628109292, -2671.5922560205768, -2672.3075118431466, -2673.6039130215545, -2673.939189188384, -2673.9168374439287, -2673.4698025548223, -2672.843953710074, -2673.201581621359, -2673.3133403436354, -2673.201581621359, -2673.9838926772945, -2674.2074101218477, -2672.91100894344, -2673.29098859918, -2673.3133403436354, -2673.1792298769033, -2674.4085758219453, -2674.76620373323, -2674.0285961662053, -2674.095651399571, -2673.7603752327414, -2673.0227676657164, -2673.6933199993755, -2673.4698025548223, -2673.29098859918, -2673.849782210563, -2674.0285961662053, -2674.676796755409, -2672.57573277661, -2672.262808354236, -2671.838125209585, -2672.9780641768057, -2672.709843243342, -2671.838125209585, -2671.771069976219, -2671.1228693870153, -2670.6311310089986, -2670.944055431373, -2672.0839943985934, -2671.0781658981045, -2670.2735030977137, -2670.899351942462, -2671.7263664873085, -2670.0499856531605, -2671.4134420649343, -2674.4309275664004, -2672.843953710074, -2670.6534827534538, -2669.6923577418756, -2671.3910903204787, -2669.066508897127, -2669.714709486331, -2671.838125209585, -2670.2735030977137, -2673.156878132448, -2671.5028490427553, -2670.608779264543, -2669.7817647196966, -2670.38526181999, -2668.8876949414844, -2667.613645507532, -2668.708880985842, -2666.4737065403115, -2667.1666106184257, -2667.323072829613, -2666.2501890957583, -2668.9547501748502, -2669.1782676194034, -2668.6641774969316, -2668.284197841191, -2667.8148112076296, -2666.4066513069456, -2665.803154206652, -2667.4795350408003, -2667.591293763077, -2666.4960582847666, -2666.071375140116, -2665.803154206652, -2666.1384303734817, -2665.28906408418, -2664.618511750521, -2663.5232762722108, -2666.71957572932, -2666.9207414294174, -2667.1889623628813, -2667.345424574068, -2666.652520495954, -2668.2171426078253, -2667.1666106184257, -2666.9207414294174, -2666.607817007043, -2667.4124798074345, -2667.9265699299062, -2667.658348996443, -2668.1277356300043, -2668.328901330102, -2666.7642792182305, -2668.3736048190126, -2667.546590274166, -2666.607817007043, -2665.713747228831, -2665.803154206652, -2666.00431990675, -2666.585465262588, -2666.4737065403115, -2666.697223984864, -2666.4066513069456, -2666.5407617736773, -2666.38429956249, -2665.378471062001, -2664.640863494976, -2663.389165805479, -2664.640863494976, -2665.736098973286, -2664.484401283789, -2664.0820698835937, -2664.5067530282445, -2664.8196774506187, -2664.5738082616103, -2664.9537879173504, -2665.4902297842777, -2665.646691995465, -2665.6019885065543, -2667.3677763185237, -2666.2054856068476, -2664.9090844284397, -2665.8702094400182, -2665.4902297842777, -2665.8478576955627, -2666.38429956249, -2665.1773053619036, -2665.646691995465, -2666.808982707141, -2665.4008228064567, -2665.579636762099, -2665.8702094400182, -2664.4396977948786, -2665.1549536174484, -2665.646691995465, -2664.8196774506187, -2664.9314361728952, -2664.7973257061635, -2666.2501890957583, -2664.6632152394313, -2663.81384895013, -2664.3726425615123, -2664.0820698835937, -2663.6350349944873, -2664.417346050423, -2665.043194895172, -2664.9090844284397, -2665.065546639627, -2664.640863494976, -2666.00431990675, -2665.803154206652, -2664.1714768614147, -2664.752622217253, -2665.0208431507162, -2664.6632152394313, -2664.2385320947806, -2663.2774070832024, -2662.8974274274624, -2664.685566983887, -2664.484401283789, -2664.037366394683, -2663.2550553387473, -2663.3444623165683, -2663.4338692943898, -2665.378471062001, -2664.4620495393337, -2663.456221038845, -2664.2385320947806, -2664.685566983887, -2664.350290817057, -2663.6350349944873, -2663.09859312756, -2663.9256076724064, -2663.9926629057722, -2663.5232762722108, -2664.394994305968, -2663.9926629057722, -2662.740965216275, -2663.8585524390405, -2665.736098973286, -2665.1996571063587, -2663.6350349944873, -2662.6292064939985, -2662.1821716048926, -2662.5397995161775, -2662.2715785827136, -2662.9644826608283, -2662.3386338160794, -2662.2492268382584, -2663.5232762722108, -2662.38333730499, -2662.00335764925, -2660.416383792923, -2661.8915989269735, -2662.472744282811, -2663.8585524390405, -2663.165648360926, -2663.702090227853, -2663.679738483398, -2662.9868344052834, -2662.0257093937053, -2662.2492268382584, -2661.8245436936077, -2662.4950960272668, -2664.126773372504, -2663.3444623165683, -2662.159819860437, -2661.489267526778, -2661.802191949152, -2663.009186149739, -2662.2492268382584, -2663.2327035942917, -2662.1821716048926, -2661.4669157823228, -2661.221046593314, -2662.1821716048926, -2662.070412882616, -2661.8915989269735, -2661.2881018266803, -2661.712784971331, -2662.00335764925, -2662.2939303271687, -2662.450392538356, -2661.9139506714287, -2662.092764627071, -2663.1432966164707, -2662.360985560535, -2661.3775088045013, -2660.774011704208, -2660.9528256598505, -2661.869247182518, -2661.9586541603394, -2661.578674504599, -2662.137468115982, -2662.3162820716243, -2661.511619271233, -2661.779840204697, -2661.936302415884, -2663.2997588276576, -2662.8974274274624, -2662.1151163715263, -2660.9528256598505, -2661.735136715786, -2662.1821716048926, -2662.673909982909, -2661.802191949152, -2661.355157060046, -2661.578674504599, -2660.706956470842, -2661.6904332268755, -2661.846895438063, -2660.2822733261914, -2660.6175494930208, -2659.879941925996, -2659.3435000590684, -2660.90812217094, -2660.8857704264847, -2660.2152180928256, -2659.879941925996, -2660.3493285595573, -2659.902293670451, -2659.388203547979, -2660.103459370549, -2659.4999622702558, -2660.036404137183, -2660.90812217094, -2659.544665759166, -2659.164686103426, -2660.0140523927275, -2661.422212293412, -2660.103459370549, -2658.00239539175, -2658.1141541140264, -2659.2764448257026, -2660.2375698372807, -2659.0305756366943, -2659.09763087006, -2659.09763087006, -2658.829409936596, -2659.164686103426, -2659.768183203719, -2658.225912836303, -2659.4999622702558, -2660.0811076260934, -2661.109287871038, -2660.2822733261914, -2658.740002958775, -2659.0529273811494, -2658.874113425507, -2659.254093081247, -2659.7011279703534, -2660.170514603915, -2660.1481628594593, -2659.6564244814426, -2659.7234797148085, -2660.3493285595573, -2659.7234797148085, -2660.125811115004, -2661.3328053155906, -2661.131639615493, -2660.103459370549, -2660.170514603915, -2659.745831459264, -2658.538837258677, -2660.259921581736, -2661.0422326376715, -2660.7293082152974, -2660.3716803040124, -2660.8857704264847, -2661.221046593314, -2658.874113425507, -2658.3600233030347, -2660.774011704208, -2659.902293670451, -2658.494133769767, -2660.5281425151998, -2659.835238437085, -2659.4329070368894, -2658.6729477254094, -2658.874113425507, -2658.538837258677, -2659.3435000590684, -2660.170514603915, -2660.3716803040124, -2659.902293670451, -2659.9917006482724, -2660.9304739153954, -2659.388203547979, -2659.9469971593617, -2660.6622529819315, -2659.678776225898, -2659.0082238922387, -2659.388203547979, -2659.0752791256045, -2660.505790770744, -2661.802191949152, -2661.3328053155906, -2660.4387355373783, -2660.7293082152974, -2658.7847064476855, -2658.538837258677, -2658.3153198141245, -2658.6729477254094, -2658.0918023695713, -2657.4436017803673, -2657.3765465470015, -2657.912988413929, -2657.130677357993, -2657.3988982914566, -2659.3435000590684, -2659.388203547979, -2658.605892492043, -2658.248264580758, -2657.868284925018, -2658.00239539175, -2659.0082238922387, -2658.9858721477835, -2658.807058192141, -2659.0529273811494, -2660.2375698372807, -2658.5611890031328, -2659.2093895923367, -2658.896465169962, -2658.829409936596, -2659.2093895923367, -2657.4436017803673, -2658.538837258677, -2658.6505959809538, -2659.1199826145153, -2668.1724391189146, -2717.0780559871264, -2735.004155040283, -2736.680535874431, -2736.099390518593, -2734.9147480624615, -2735.3394312071123, -2735.8758730740396, -2736.680535874431, -2735.2723759737464, -2734.423009684445, -2734.735934106819, -2732.8583875725735, -2733.6183468840536, -2734.2665474732576, -2734.154788750981, -2735.384134696023, -2733.439532928411, -2734.668878873453, -2737.328736463635, -2736.8817015745285, -2734.802989340185, -2734.3336027066234, -2720.9225560334394, -2669.7817647196966, -2660.6175494930208, -2686.5902765500878, -2733.439532928411, -2737.1946259969027, -2736.121742263048, -2737.619309141554, -2736.054687029682, -2736.4570184298777, -2738.4016201974896, -2737.261681230269, -2735.8982248184952, -2735.8311695851294, -2735.764114351763, -2734.1771404954366]]
