['beep', 0.0, -4196.651780206177, 0.0, 0.0, 0.0, 0.0, -3034.651641208129, 0.0]
['beep', 0.0, -4195.9812278725185, 0.0, 0.0, 0.0, 0.0, -3034.7410481859506, 0.0]
['beep', 0.0, -4197.5905534733, 0.0, 0.0, 0.0, 0.0, -3034.115199341202, 0.0]
['beep', 0.0, -4197.724663940032, 0.0, 0.0, 0.0, 0.0, -3033.2658330519002, 0.0]
['beep', 0.0, -4197.367036028747, 0.0, 0.0, 0.0, 0.0, -3034.629289463674, 0.0]
['beep', 0.0, -4198.864602907253, 0.0, 0.0, 0.0, 0.0, -3035.1657313306014, 0.0]
['beep', 0.0, -4199.289286051904, 0.0, 0.0, 0.0, 0.0, -3032.6176324626963, 0.0]
['beep', 0.0, -4199.602210474278, 0.0, 0.0, 0.0, 0.0, -3030.2483475504337, 0.0]
['beep', 0.0, -4200.3845215302135, 0.0, 0.0, 0.0, 0.0, -3028.9295946275706, 0.0]
['beep', 0.0, -4200.049245363384, 0.0, 0.0, 0.0, 0.0, -3028.817835905294, 0.0]
['beep', 0.0, -4197.255277306471, 0.0, 0.0, 0.0, 0.0, -3029.6001469612297, 0.0]
['beep', 0.0, -4201.569163986345, 0.0, 0.0, 0.0, 0.0, -3028.1919870605457, 0.0]
['beep', 0.0, -4202.709102953566, 0.0, 0.0, 0.0, 0.0, -3028.370801016188, 0.0]
['beep', 0.0, -4200.3845215302135, 0.0, 0.0, 0.0, 0.0, -3026.8061789043163, 0.0]
['beep', 0.0, -4197.724663940032, 0.0, 0.0, 0.0, 0.0, -3028.236690549456, 0.0]
['beep', 0.0, -4196.584724972811, 0.0, 0.0, 0.0, 0.0, -3024.436893992054, 0.0]
['beep', 0.0, -4198.417568018147, 0.0, 0.0, 0.0, 0.0, -3022.5146439688974, 0.0]
['beep', 0.0, -4198.529326740423, 0.0, 0.0, 0.0, 0.0, -3021.7770364018725, 0.0]
['beep', 0.0, -4195.35537902777, 0.0, 0.0, 0.0, 0.0, -3020.0336003343587, 0.0]
['beep', 0.0, -4197.92582964013, 0.0, 0.0, 0.0, 0.0, -3019.363048000699, 0.0]
['beep', 0.0, -4201.882088408719, 0.0, 0.0, 0.0, 0.0, -3018.5136817113976, 0.0]
['beep', 0.0, -4200.563335485856, 0.0, 0.0, 0.0, 0.0, -3016.5467281993306, 0.0]
['beep', 0.0, -4196.092986594795, 0.0, 0.0, 0.0, 0.0, -3014.9374025985485, 0.0]
['beep', 0.0, -4194.796585416387, 0.0, 0.0, 0.0, 0.0, -3014.9150508540934, 0.0]
['beep', 0.0, -4195.556544727868, 0.0, 0.0, 0.0, 0.0, -3014.445664220532, 0.0]
['beep', 0.0, -4198.26110580696, 0.0, 0.0, 0.0, 0.0, -3010.757626385406, 0.0]
['beep', 0.0, -4198.551678484879, 0.0, 0.0, 0.0, 0.0, -3010.221184518479, 0.0]
['beep', 0.0, -4197.92582964013, 0.0, 0.0, 0.0, 0.0, -3010.8023298743165, 0.0]
['beep', 0.0, -4196.897649395186, 0.0, 0.0, 0.0, 0.0, -3008.857728106705, 0.0]
['beep', 0.0, -4196.405911017169, 0.0, 0.0, 0.0, 0.0, -3011.0034955744145, 0.0]
['beep', 0.0, -4196.517669739445, 0.0, 0.0, 0.0, 0.0, -3011.629344419163, 0.0]
['beep', 0.0, -4197.814070917853, 0.0, 0.0, 0.0, 0.0, -3013.752760142417, 0.0]
['beep', 0.0, -4198.1493470846835, 0.0, 0.0, 0.0, 0.0, -3019.273641022878, 0.0]
['beep', 0.0, -4197.679960451122, 0.0, 0.0, 0.0, 0.0, -3024.8392253922493, 0.0]
['beep', 0.0, -4198.372864529236, 0.0, 0.0, 0.0, 0.0, -3022.916975369093, 0.0]
['beep', 0.0, -4199.691617452099, 0.0, 0.0, 0.0, 0.0, -3026.761475415406, 0.0]
['beep', 0.0, -4197.50114649548, 0.0, 0.0, 0.0, 0.0, -3033.042315607347, 0.0]
['beep', 0.0, -4196.674131950633, 0.0, 0.0, 0.0, 0.0, -3036.7527051869283, 0.0]
['beep', 0.0, -4198.484623251513, 0.0, 0.0, 0.0, 0.0, -3043.5923389902523, 0.0]
['beep', 0.0, -4197.747015684487, 0.0, 0.0, 0.0, 0.0, -3049.3590890597216, 0.0]
['beep', 0.0, -4195.2212685610375, 0.0, 0.0, 0.0, 0.0, -3053.918844928604, 0.0]
['beep', 0.0, -4197.299980795381, 0.0, 0.0, 0.0, 0.0, -3058.74682173095, 0.0]
['beep', 0.0, -4198.462271507057, 0.0, 0.0, 0.0, 0.0, -3063.4630398110203, 0.0]
['beep', 0.0, -4198.551678484879, 0.0, 0.0, 0.0, 0.0, -3068.6933480135617, 0.0]
['beep', 0.0, -4199.110472096261, 0.0, 0.0, 0.0, 0.0, -3072.2249236375005, 0.0]
['beep', 0.0, -4199.758672685465, 0.0, 0.0, 0.0, 0.0, -3079.042205696369, 0.0]
['beep', 0.0, -4198.886954651708, 0.0, 0.0, 0.0, 0.0, -3084.518383087919, 0.0]
['beep', 0.0, -4198.551678484879, 0.0, 0.0, 0.0, 0.0, -3089.4134151236317, 0.0]
['beep', 0.0, -4197.791719173399, 0.0, 0.0, 0.0, 0.0, -3095.537793104386, 0.0]
['beep', 0.0, -4197.679960451122, 0.0, 0.0, 0.0, 0.0, -3098.108243716746, 0.0]
['beep', 0.0, -4197.143518584195, 0.0, 0.0, 0.0, 0.0, -3099.3599414062433, 0.0]
['beep', 0.0, -4198.68578895161, 0.0, 0.0, 0.0, 0.0, -3104.7690635644276, 0.0]
['beep', 0.0, -4200.429225019125, 0.0, 0.0, 0.0, 0.0, -3109.4182264111314, 0.0]
['beep', 0.0, -4199.512803496457, 0.0, 0.0, 0.0, 0.0, -3112.4133601681424, 0.0]
['beep', 0.0, -4198.909306396164, 0.0, 0.0, 0.0, 0.0, -3116.7943020813827, 0.0]
['beep', 0.0, -4199.177527329627, 0.0, 0.0, 0.0, 0.0, -3119.342400949288, 0.0]
['beep', 0.0, -4199.1551755851715, 0.0, 0.0, 0.0, 0.0, -3122.0469620283798, 0.0]
['beep', 0.0, -4197.8587744067645, 0.0, 0.0, 0.0, 0.0, -3125.5785376523186, 0.0]
['beep', 0.0, -4197.948181384585, 0.0, 0.0, 0.0, 0.0, -3127.9925260534915, 0.0]
['beep', 0.0, -4197.903477895675, 0.0, 0.0, 0.0, 0.0, -3130.205348754567, 0.0]
['beep', 0.0, -4197.568201728845, 0.0, 0.0, 0.0, 0.0, -3131.5464534218854, 0.0]
['beep', 0.0, -4197.076463350829, 0.0, 0.0, 0.0, 0.0, -3135.1897877681004, 0.0]
['beep', 0.0, -4196.405911017169, 0.0, 0.0, 0.0, 0.0, -3137.536720935908, 0.0]
['beep', 0.0, -4197.568201728845, 0.0, 0.0, 0.0, 0.0, -3137.223796513533, 0.0]
['beep', 0.0, -4196.852945906276, 0.0, 0.0, 0.0, 0.0, -3140.9565378375696, 0.0]
['beep', 0.0, -4196.294152294892, 0.0, 0.0, 0.0, 0.0, -3143.1917122831005, 0.0]
['beep', 0.0, -4195.847117405787, 0.0, 0.0, 0.0, 0.0, -3143.236415772011, 0.0]
['beep', 0.0, -4195.891820894697, 0.0, 0.0, 0.0, 0.0, -3144.488113461508, 0.0]
['beep', 0.0, -4195.668303450144, 0.0, 0.0, 0.0, 0.0, -3145.270424517444, 0.0]
['beep', 0.0, -4196.227097061526, 0.0, 0.0, 0.0, 0.0, -3147.3491367517877, 0.0]
['beep', 0.0, -4197.232925562015, 0.0, 0.0, 0.0, 0.0, -3147.7738198964385, 0.0]
['beep', 0.0, -4197.411739517658, 0.0, 0.0, 0.0, 0.0, -3148.9584623525698, 0.0]
['beep', 0.0, -4196.338855783803, 0.0, 0.0, 0.0, 0.0, -3147.952633852081, 0.0]
['beep', 0.0, -4196.003579616974, 0.0, 0.0, 0.0, 0.0, -3149.0478693303908, 0.0]
['beep', 0.0, -4196.137690083706, 0.0, 0.0, 0.0, 0.0, -3150.612491442262, 0.0]
['beep', 0.0, -4196.87529765073, 0.0, 0.0, 0.0, 0.0, -3151.3500990092875, 0.0]
['beep', 0.0, -4196.1600418281605, 0.0, 0.0, 0.0, 0.0, -3150.4113257421645, 0.0]
['beep', 0.0, -4195.265972049949, 0.0, 0.0, 0.0, 0.0, -3150.500732719986, 0.0]
['beep', 0.0, -4195.333027283315, 0.0, 0.0, 0.0, 0.0, -3150.657194931173, 0.0]
['beep', 0.0, -4194.997751116485, 0.0, 0.0, 0.0, 0.0, -3153.138238565712, 0.0]
['beep', 0.0, -4194.997751116485, 0.0, 0.0, 0.0, 0.0, -3153.227645543533, 0.0]
['beep', 0.0, -4194.148384827183, 0.0, 0.0, 0.0, 0.0, -3153.138238565712, 0.0]
['beep', 0.0, -4195.064806349851, 0.0, 0.0, 0.0, 0.0, -3153.875846132737, 0.0]
['beep', 0.0, -4194.818937160842, 0.0, 0.0, 0.0, 0.0, -3153.272349032444, 0.0]
['beep', 0.0, -4193.746053426988, 0.0, 0.0, 0.0, 0.0, -3155.462819989064, 0.0]
['beep', 0.0, -4194.215440060549, 0.0, 0.0, 0.0, 0.0, -3156.111020578268, 0.0]
['beep', 0.0, -4194.908344138664, 0.0, 0.0, 0.0, 0.0, -3155.172247311145, 0.0]
['beep', 0.0, -4195.780062172421, 0.0, 0.0, 0.0, 0.0, -3157.3180147788544, 0.0]
['beep', 0.0, -4195.489489494502, 0.0, 0.0, 0.0, 0.0, -3155.842799644804, 0.0]
['beep', 0.0, -4194.796585416387, 0.0, 0.0, 0.0, 0.0, -3155.753392666983, 0.0]
['beep', 0.0, -4196.204745317072, 0.0, 0.0, 0.0, 0.0, -3155.9545583670806, 0.0]
['beep', 0.0, -4195.176565072127, 0.0, 0.0, 0.0, 0.0, -3157.8768083902373, 0.0]
['beep', 0.0, -4193.097852837784, 0.0, 0.0, 0.0, 0.0, -3157.8991601346925, 0.0]
['beep', 0.0, -4190.102719080773, 0.0, 0.0, 0.0, 0.0, -3157.9215118791476, 0.0]
['beep', 0.0, -4193.142556326694, 0.0, 0.0, 0.0, 0.0, -3160.357852024776, 0.0]
['beep', 0.0, -4197.679960451122, 0.0, 0.0, 0.0, 0.0, -3160.000224113491, 0.0]
['beep', 0.0, -4198.708140696066, 0.0, 0.0, 0.0, 0.0, -3157.5191804789524, 0.0]
['beep', 0.0, -4197.814070917853, 0.0, 0.0, 0.0, 0.0, -3158.2344363015222, 0.0]
['beep', 0.0, -4196.674131950633, 0.0, 0.0, 0.0, 0.0, -3157.8991601346925, 0.0]
['beep', 0.0, -4197.679960451122, 0.0, 0.0, 0.0, 0.0, -3158.949692124092, 0.0]
['beep', 0.0, -4196.607076717267, 0.0, 0.0, 0.0, 0.0, -3158.6144159572623, 0.0]
['beep', 0.0, -4196.472966250535, 0.0, 0.0, 0.0, 0.0, -3159.5755409688404, 0.0]
['beep', 0.0, -4195.578896472322, 0.0, 0.0, 0.0, 0.0, -3161.967177625558, 0.0]
['beep', 0.0, -4197.188222073105, 0.0, 0.0, 0.0, 0.0, -3161.430735758631, 0.0]
['beep', 0.0, -4197.031759861918, 0.0, 0.0, 0.0, 0.0, -3162.905950892681, 0.0]
['beep', 0.0, -4197.165870328649, 0.0, 0.0, 0.0, 0.0, -3162.369509025754, 0.0]
['beep', 0.0, -4197.791719173399, 0.0, 0.0, 0.0, 0.0, -3161.8107154143713, 0.0]
['beep', 0.0, -4197.478794751024, 0.0, 0.0, 0.0, 0.0, -3162.749488681494, 0.0]
['beep', 0.0, -4197.009408117462, 0.0, 0.0, 0.0, 0.0, -3164.1129450932676, 0.0]
['beep', 0.0, -4197.54584998439, 0.0, 0.0, 0.0, 0.0, -3164.62703521574, 0.0]
['beep', 0.0, -4196.092986594795, 0.0, 0.0, 0.0, 0.0, -3164.3141107933657, 0.0]
['beep', 0.0, -4194.461309249557, 0.0, 0.0, 0.0, 0.0, -3164.62703521574, 0.0]
['beep', 0.0, -4195.265972049949, 0.0, 0.0, 0.0, 0.0, -3165.297587549399, 0.0]
['beep', 0.0, -4196.025931361429, 0.0, 0.0, 0.0, 0.0, -3165.878732905237, 0.0]
['beep', 0.0, -4196.405911017169, 0.0, 0.0, 0.0, 0.0, -3165.588160227318, 0.0]
['beep', 0.0, -4196.696483695088, 0.0, 0.0, 0.0, 0.0, -3167.3762997837425, 0.0]
['beep', 0.0, -4197.791719173399, 0.0, 0.0, 0.0, 0.0, -3168.4044800286865, 0.0]
['beep', 0.0, -4197.8587744067645, 0.0, 0.0, 0.0, 0.0, -3166.9292648946366, 0.0]
['beep', 0.0, -4197.188222073105, 0.0, 0.0, 0.0, 0.0, -3167.3539480392874, 0.0]
['beep', 0.0, -4196.07063485034, 0.0, 0.0, 0.0, 0.0, -3169.8573434182817, 0.0]
['beep', 0.0, -4196.674131950633, 0.0, 0.0, 0.0, 0.0, -3169.9914538850135, 0.0]
['beep', 0.0, -4197.255277306471, 0.0, 0.0, 0.0, 0.0, -3169.9243986516476, 0.0]
['beep', 0.0, -4196.674131950633, 0.0, 0.0, 0.0, 0.0, -3170.773764940949, 0.0]
['beep', 0.0, -4196.9200011396415, 0.0, 0.0, 0.0, 0.0, -3170.527895751941, 0.0]
['beep', 0.0, -4196.316504039348, 0.0, 0.0, 0.0, 0.0, -3170.5949509853067, 0.0]
['beep', 0.0, -4197.367036028747, 0.0, 0.0, 0.0, 0.0, -3169.879695162737, 0.0]
['beep', 0.0, -4197.724663940032, 0.0, 0.0, 0.0, 0.0, -3170.43848877412, 0.0]
['beep', 0.0, -4197.255277306471, 0.0, 0.0, 0.0, 0.0, -3170.751413196494, 0.0]
['beep', 0.0, -4197.054111606373, 0.0, 0.0, 0.0, 0.0, -3170.036157373924, 0.0]
['beep', 0.0, -4196.271800550438, 0.0, 0.0, 0.0, 0.0, -3171.846648674804, 0.0]
['beep', 0.0, -4195.623599961234, 0.0, 0.0, 0.0, 0.0, -3172.494849264008, 0.0]
['beep', 0.0, -4196.227097061526, 0.0, 0.0, 0.0, 0.0, -3173.5453812534074, 0.0]
['beep', 0.0, -4195.802413916876, 0.0, 0.0, 0.0, 0.0, -3174.2606370759772, 0.0]
['beep', 0.0, -4195.936524383607, 0.0, 0.0, 0.0, 0.0, -3173.2324568310332, 0.0]
['beep', 0.0, -4195.198916816583, 0.0, 0.0, 0.0, 0.0, -3173.746546953505, 0.0]
['beep', 0.0, -4195.958876128063, 0.0, 0.0, 0.0, 0.0, -3176.0487766324018, 0.0]
['beep', 0.0, -4196.78589067291, 0.0, 0.0, 0.0, 0.0, -3175.4899830210193, 0.0]
['beep', 0.0, -4197.411739517658, 0.0, 0.0, 0.0, 0.0, -3174.998244643002, 0.0]
['beep', 0.0, -4196.852945906276, 0.0, 0.0, 0.0, 0.0, -3174.1488783537006, 0.0]
['beep', 0.0, -4196.405911017169, 0.0, 0.0, 0.0, 0.0, -3175.8699626767593, 0.0]
['beep', 0.0, -4197.232925562015, 0.0, 0.0, 0.0, 0.0, -3177.211067344078, 0.0]
['beep', 0.0, -4197.3893877732025, 0.0, 0.0, 0.0, 0.0, -3175.981721399036, 0.0]
['beep', 0.0, -4197.814070917853, 0.0, 0.0, 0.0, 0.0, -3175.422927787653, 0.0]
['beep', 0.0, -4198.484623251513, 0.0, 0.0, 0.0, 0.0, -3175.1100033652788, 0.0]
['beep', 0.0, -4197.121166839739, 0.0, 0.0, 0.0, 0.0, -3176.562866754874, 0.0]
['beep', 0.0, -4197.948181384585, 0.0, 0.0, 0.0, 0.0, -3177.7251574665497, 0.0]
['beep', 0.0, -4197.568201728845, 0.0, 0.0, 0.0, 0.0, -3177.367529555265, 0.0]
['beep', 0.0, -4196.316504039348, 0.0, 0.0, 0.0, 0.0, -3176.853439432793, 0.0]
['beep', 0.0, -4196.249448805982, 0.0, 0.0, 0.0, 0.0, -3177.658102233184, 0.0]
['beep', 0.0, -4196.249448805982, 0.0, 0.0, 0.0, 0.0, -3177.881619677737, 0.0]
['beep', 0.0, -4196.964704628552, 0.0, 0.0, 0.0, 0.0, -3179.334483067332, 0.0]
['beep', 0.0, -4196.11533833925, 0.0, 0.0, 0.0, 0.0, -3178.552172011396, 0.0]
['beep', 0.0, -4195.02010286094, 0.0, 0.0, 0.0, 0.0, -3178.9545034115918, 0.0]
['beep', 0.0, -4195.310675538859, 0.0, 0.0, 0.0, 0.0, -3178.4404132891195, 0.0]
['beep', 0.0, -4197.478794751024, 0.0, 0.0, 0.0, 0.0, -3180.005035400991, 0.0]
['beep', 0.0, -4197.8587744067645, 0.0, 0.0, 0.0, 0.0, -3180.563829012374, 0.0]
['beep', 0.0, -4196.338855783803, 0.0, 0.0, 0.0, 0.0, -3180.362663312276, 0.0]
['beep', 0.0, -4194.885992394208, 0.0, 0.0, 0.0, 0.0, -3180.1167941232675, 0.0]
['beep', 0.0, -4194.215440060549, 0.0, 0.0, 0.0, 0.0, -3179.6921109786167, 0.0]
['beep', 0.0, -4192.941390626596, 0.0, 0.0, 0.0, 0.0, -3179.848573189804, 0.0]
['beep', 0.0, -4191.779099914921, 0.0, 0.0, 0.0, 0.0, -3179.9826836565358, 0.0]
['beep', 0.0, -4191.1085475812615, 0.0, 0.0, 0.0, 0.0, -3179.245076089511, 0.0]
['beep', 0.0, -4190.6391609477, 0.0, 0.0, 0.0, 0.0, -3178.6639307336727, 0.0]
['beep', 0.0, -4191.041492347896, 0.0, 0.0, 0.0, 0.0, -3177.4569365330863, 0.0]
['beep', 0.0, -4192.494355737491, 0.0, 0.0, 0.0, 0.0, -3177.7475092110053, 0.0]
['beep', 0.0, -4194.9306958831185, 0.0, 0.0, 0.0, 0.0, -3178.7980412004044, 0.0]
['beep', 0.0, -4195.2212685610375, 0.0, 0.0, 0.0, 0.0, -3178.552172011396, 0.0]
['beep', 0.0, -4196.1600418281605, 0.0, 0.0, 0.0, 0.0, -3180.6979394791056, 0.0]
['beep', 0.0, -4196.45061450608, 0.0, 0.0, 0.0, 0.0, -3179.222724345055, 0.0]
['beep', 0.0, -4195.02010286094, 0.0, 0.0, 0.0, 0.0, -3179.8262214453484, 0.0]
['beep', 0.0, -4195.467137750046, 0.0, 0.0, 0.0, 0.0, -3181.9943406575135, 0.0]
['beep', 0.0, -4195.511841238957, 0.0, 0.0, 0.0, 0.0, -3180.7649947124714, 0.0]
['beep', 0.0, -4194.215440060549, 0.0, 0.0, 0.0, 0.0, -3179.8038697008933, 0.0]
['beep', 0.0, -4195.131861583217, 0.0, 0.0, 0.0, 0.0, -3178.619227244762, 0.0]
['beep', 0.0, -4196.897649395186, 0.0, 0.0, 0.0, 0.0, -3178.194544100111, 0.0]
['beep', 0.0, -4197.344684284292, 0.0, 0.0, 0.0, 0.0, -3178.10513712229, 0.0]
['beep', 0.0, -4197.076463350829, 0.0, 0.0, 0.0, 0.0, -3178.6415789892176, 0.0]
['beep', 0.0, -4197.232925562015, 0.0, 0.0, 0.0, 0.0, -3180.228552845544, 0.0]
['beep', 0.0, -4196.741187183999, 0.0, 0.0, 0.0, 0.0, -3181.301436579399, 0.0]
['beep', 0.0, -4196.942352884096, 0.0, 0.0, 0.0, 0.0, -3180.3179598233655, 0.0]
['beep', 0.0, -4197.367036028747, 0.0, 0.0, 0.0, 0.0, -3179.0662621338683, 0.0]
['beep', 0.0, -4196.741187183999, 0.0, 0.0, 0.0, 0.0, -3179.6697592341616, 0.0]
['beep', 0.0, -4196.897649395186, 0.0, 0.0, 0.0, 0.0, -3178.9545034115918, 0.0]
['beep', 0.0, -4196.517669739445, 0.0, 0.0, 0.0, 0.0, -3179.558000511885, 0.0]
['beep', 0.0, -4195.6906551945995, 0.0, 0.0, 0.0, 0.0, -3181.457898790586, 0.0]
['beep', 0.0, -4197.523498239934, 0.0, 0.0, 0.0, 0.0, -3181.547305768407, 0.0]
['beep', 0.0, -4198.350512784781, 0.0, 0.0, 0.0, 0.0, -3179.91562842317, 0.0]
['beep', 0.0, -4196.025931361429, 0.0, 0.0, 0.0, 0.0, -3179.1556691116893, 0.0]
['beep', 0.0, -4195.6906551945995, 0.0, 0.0, 0.0, 0.0, -3177.591046999818, 0.0]
['beep', 0.0, -4197.747015684487, 0.0, 0.0, 0.0, 0.0, -3177.3451778108097, 0.0]
['beep', 0.0, -4196.07063485034, 0.0, 0.0, 0.0, 0.0, -3178.7980412004044, 0.0]
['beep', 0.0, -4196.405911017169, 0.0, 0.0, 0.0, 0.0, -3179.133317367234, 0.0]
['beep', 0.0, -4195.288323794403, 0.0, 0.0, 0.0, 0.0, -3178.7309859670386, 0.0]
['beep', 0.0, -4195.847117405787, 0.0, 0.0, 0.0, 0.0, -3178.1274888667454, 0.0]
['beep', 0.0, -4197.143518584195, 0.0, 0.0, 0.0, 0.0, -3178.2168958445664, 0.0]
['beep', 0.0, -4197.322332539837, 0.0, 0.0, 0.0, 0.0, -3179.7368144675274, 0.0]
['beep', 0.0, -4198.529326740423, 0.0, 0.0, 0.0, 0.0, -3181.212029601578, 0.0]
['beep', 0.0, -4199.892783152197, 0.0, 0.0, 0.0, 0.0, -3179.6697592341616, 0.0]
['beep', 0.0, -4199.557506985368, 0.0, 0.0, 0.0, 0.0, -3176.4734597770525, 0.0]
['beep', 0.0, -4199.132823840717, 0.0, 0.0, 0.0, 0.0, -3176.4511080325974, 0.0]
['beep', 0.0, -4200.004541874474, 0.0, 0.0, 0.0, 0.0, -3178.909799922681, 0.0]
['beep', 0.0, -4199.758672685465, 0.0, 0.0, 0.0, 0.0, -3179.9826836565358, 0.0]
['beep', 0.0, -4199.691617452099, 0.0, 0.0, 0.0, 0.0, -3178.3510063112985, 0.0]
['beep', 0.0, -4198.082291851317, 0.0, 0.0, 0.0, 0.0, -3178.596875500307, 0.0]
['beep', 0.0, -4198.708140696066, 0.0, 0.0, 0.0, 0.0, -3178.2839510779327, 0.0]
['beep', 0.0, -4198.462271507057, 0.0, 0.0, 0.0, 0.0, -3178.328654566843, 0.0]
['beep', 0.0, -4197.970533129041, 0.0, 0.0, 0.0, 0.0, -3179.334483067332, 0.0]
['beep', 0.0, -4197.635256962211, 0.0, 0.0, 0.0, 0.0, -3178.7533377114937, 0.0]
['beep', 0.0, -4198.194050573594, 0.0, 0.0, 0.0, 0.0, -3178.328654566843, 0.0]
['beep', 0.0, -4197.50114649548, 0.0, 0.0, 0.0, 0.0, -3179.58035225634, 0.0]
['beep', 0.0, -4198.596381973789, 0.0, 0.0, 0.0, 0.0, -3178.7086342225834, 0.0]
['beep', 0.0, -4197.2105738175605, 0.0, 0.0, 0.0, 0.0, -3177.5463435109073, 0.0]
['beep', 0.0, -4197.121166839739, 0.0, 0.0, 0.0, 0.0, -3178.0604336333795, 0.0]
['beep', 0.0, -4196.11533833925, 0.0, 0.0, 0.0, 0.0, -3177.7922126999156, 0.0]
['beep', 0.0, -4195.578896472322, 0.0, 0.0, 0.0, 0.0, -3177.568695255363, 0.0]
['beep', 0.0, -4195.936524383607, 0.0, 0.0, 0.0, 0.0, -3178.306302822388, 0.0]
['beep', 0.0, -4196.808242417364, 0.0, 0.0, 0.0, 0.0, -3177.8369161888263, 0.0]
['beep', 0.0, -4197.367036028747, 0.0, 0.0, 0.0, 0.0, -3176.8087359438823, 0.0]
['beep', 0.0, -4197.478794751024, 0.0, 0.0, 0.0, 0.0, -3178.7980412004044, 0.0]
['beep', 0.0, -4196.517669739445, 0.0, 0.0, 0.0, 0.0, -3178.306302822388, 0.0]
['beep', 0.0, -4196.562373228357, 0.0, 0.0, 0.0, 0.0, -3178.328654566843, 0.0]
['beep', 0.0, -4196.294152294892, 0.0, 0.0, 0.0, 0.0, -3177.5463435109073, 0.0]
['beep', 0.0, -4196.182393572616, 0.0, 0.0, 0.0, 0.0, -3176.1381836102228, 0.0]
['beep', 0.0, -4195.780062172421, 0.0, 0.0, 0.0, 0.0, -3176.316997565865, 0.0]
['beep', 0.0, -4194.818937160842, 0.0, 0.0, 0.0, 0.0, -3176.8087359438823, 0.0]
['beep', 0.0, -4197.277629050926, 0.0, 0.0, 0.0, 0.0, -3177.1887155996224, 0.0]
['beep', 0.0, -4197.478794751024, 0.0, 0.0, 0.0, 0.0, -3176.4064045436867, 0.0]
['beep', 0.0, -4194.841288905298, 0.0, 0.0, 0.0, 0.0, -3173.075994619846, 0.0]
['beep', 0.0, -4192.516707481946, 0.0, 0.0, 0.0, 0.0, -3173.2548085754884, 0.0]
['beep', 0.0, -4194.148384827183, 0.0, 0.0, 0.0, 0.0, -3172.8971806642035, 0.0]
['beep', 0.0, -4194.885992394208, 0.0, 0.0, 0.0, 0.0, -3174.305340564888, 0.0]
['beep', 0.0, -4196.07063485034, 0.0, 0.0, 0.0, 0.0, -3175.847610932304, 0.0]
['beep', 0.0, -4195.713006939055, 0.0, 0.0, 0.0, 0.0, -3175.3782242987427, 0.0]
['beep', 0.0, -4193.567239471346, 0.0, 0.0, 0.0, 0.0, -3174.1935818426114, 0.0]
['beep', 0.0, -4194.483660994013, 0.0, 0.0, 0.0, 0.0, -3175.9593696545803, 0.0]
['beep', 0.0, -4195.73535868351, 0.0, 0.0, 0.0, 0.0, -3173.813602186871, 0.0]
['beep', 0.0, -4195.377730772225, 0.0, 0.0, 0.0, 0.0, -3173.3218638088542, 0.0]
['beep', 0.0, -4194.617771460745, 0.0, 0.0, 0.0, 0.0, -3174.5288580094407, 0.0]
['beep', 0.0, -4195.377730772225, 0.0, 0.0, 0.0, 0.0, -3173.143049853212, 0.0]
['beep', 0.0, -4195.847117405787, 0.0, 0.0, 0.0, 0.0, -3174.171230098156, 0.0]
['beep', 0.0, -4195.780062172421, 0.0, 0.0, 0.0, 0.0, -3175.8252591878486, 0.0]
['beep', 0.0, -4195.377730772225, 0.0, 0.0, 0.0, 0.0, -3175.355872554287, 0.0]
['beep', 0.0, -4196.11533833925, 0.0, 0.0, 0.0, 0.0, -3176.62992198824, 0.0]
['beep', 0.0, -4194.818937160842, 0.0, 0.0, 0.0, 0.0, -3176.316997565865, 0.0]
['beep', 0.0, -4195.333027283315, 0.0, 0.0, 0.0, 0.0, -3175.422927787653, 0.0]
['beep', 0.0, -4196.540021483901, 0.0, 0.0, 0.0, 0.0, -3175.5123347654744, 0.0]
['beep', 0.0, -4196.11533833925, 0.0, 0.0, 0.0, 0.0, -3176.942846410614, 0.0]
['beep', 0.0, -4194.997751116485, 0.0, 0.0, 0.0, 0.0, -3176.1605353546784, 0.0]
['beep', 0.0, -4194.550716227379, 0.0, 0.0, 0.0, 0.0, -3175.422927787653, 0.0]
['beep', 0.0, -4195.064806349851, 0.0, 0.0, 0.0, 0.0, -3173.5006777644967, 0.0]
['beep', 0.0, -4194.774233671932, 0.0, 0.0, 0.0, 0.0, -3173.813602186871, 0.0]
['beep', 0.0, -4194.908344138664, 0.0, 0.0, 0.0, 0.0, -3175.0876516208236, 0.0]
['beep', 0.0, -4194.908344138664, 0.0, 0.0, 0.0, 0.0, -3174.8641341762705, 0.0]
['beep', 0.0, -4195.0424546053955, 0.0, 0.0, 0.0, 0.0, -3174.5735614983514, 0.0]
['beep', 0.0, -4195.35537902777, 0.0, 0.0, 0.0, 0.0, -3175.0205963874578, 0.0]
['beep', 0.0, -4195.154213327672, 0.0, 0.0, 0.0, 0.0, -3176.8310876883374, 0.0]
['beep', 0.0, -4200.3845215302135, 0.0, 0.0, 0.0, 0.0, -3177.4569365330863, 0.0]
['beep', 0.0, -4201.278591308426, 0.0, 0.0, 0.0, 0.0, -3178.842744689315, 0.0]
['beep', 0.0, -4200.675094208133, 0.0, 0.0, 0.0, 0.0, -3180.563829012374, 0.0]
['beep', 0.0, -4201.1444808416945, 0.0, 0.0, 0.0, 0.0, -3181.5696575128627, 0.0]
['beep', 0.0, -4202.195012831094, 0.0, 0.0, 0.0, 0.0, -3181.748471468505, 0.0]
['beep', 0.0, -4202.463233764557, 0.0, 0.0, 0.0, 0.0, -3179.848573189804, 0.0]
['beep', 0.0, -4200.272762807937, 0.0, 0.0, 0.0, 0.0, -3179.1109656227786, 0.0]
['beep', 0.0, -4199.535155240912, 0.0, 0.0, 0.0, 0.0, -3180.072090634357, 0.0]
['beep', 0.0, -4199.199879074083, 0.0, 0.0, 0.0, 0.0, -3180.228552845544, 0.0]
['beep', 0.0, -4198.462271507057, 0.0, 0.0, 0.0, 0.0, -3180.4073668011865, 0.0]
['beep', 0.0, -4198.372864529236, 0.0, 0.0, 0.0, 0.0, -3180.563829012374, 0.0]
['beep', 0.0, -4198.708140696066, 0.0, 0.0, 0.0, 0.0, -3180.29560807891, 0.0]
['beep', 0.0, -4197.5905534733, 0.0, 0.0, 0.0, 0.0, -3180.273256334455, 0.0]
['beep', 0.0, -4197.724663940032, 0.0, 0.0, 0.0, 0.0, -3180.161497612178, 0.0]
['beep', 0.0, -4198.238754062504, 0.0, 0.0, 0.0, 0.0, -3179.4685935340635, 0.0]
['beep', 0.0, -4199.244582562993, 0.0, 0.0, 0.0, 0.0, -3179.3121313228767, 0.0]
['beep', 0.0, -4199.043416862895, 0.0, 0.0, 0.0, 0.0, -3180.072090634357, 0.0]
['beep', 0.0, -4198.417568018147, 0.0, 0.0, 0.0, 0.0, -3179.91562842317, 0.0]
['beep', 0.0, -4198.462271507057, 0.0, 0.0, 0.0, 0.0, -3181.077919134846, 0.0]
['beep', 0.0, -4199.579858729823, 0.0, 0.0, 0.0, 0.0, -3182.0613958908793, 0.0]
['beep', 0.0, -4199.2669343074485, 0.0, 0.0, 0.0, 0.0, -3180.206201101089, 0.0]
['beep', 0.0, -4198.752844184976, 0.0, 0.0, 0.0, 0.0, -3179.781517956438, 0.0]
['beep', 0.0, -4197.255277306471, 0.0, 0.0, 0.0, 0.0, -3179.3568348117874, 0.0]
['beep', 0.0, -4195.645951705689, 0.0, 0.0, 0.0, 0.0, -3178.6415789892176, 0.0]
['beep', 0.0, -4195.288323794403, 0.0, 0.0, 0.0, 0.0, -3180.0497388899016, 0.0]
['beep', 0.0, -4195.623599961234, 0.0, 0.0, 0.0, 0.0, -3179.2003726006, 0.0]
['beep', 0.0, -4193.678998193622, 0.0, 0.0, 0.0, 0.0, -3177.00990164398, 0.0]
['beep', 0.0, -4192.203783059572, 0.0, 0.0, 0.0, 0.0, -3175.937017910125, 0.0]
['beep', 0.0, -4194.997751116485, 0.0, 0.0, 0.0, 0.0, -3175.4899830210193, 0.0]
['beep', 0.0, -4197.523498239934, 0.0, 0.0, 0.0, 0.0, -3175.5793899988403, 0.0]
['beep', 0.0, -4199.40104477418, 0.0, 0.0, 0.0, 0.0, -3175.981721399036, 0.0]
['beep', 0.0, -4200.518631996945, 0.0, 0.0, 0.0, 0.0, -3175.981721399036, 0.0]
['beep', 0.0, -4200.540983741401, 0.0, 0.0, 0.0, 0.0, -3175.266465576466, 0.0]
['beep', 0.0, -4200.764501185954, 0.0, 0.0, 0.0, 0.0, -3176.562866754874, 0.0]
['beep', 0.0, -4201.904440153175, 0.0, 0.0, 0.0, 0.0, -3177.1440121107116, 0.0]
['beep', 0.0, -4202.329123297825, 0.0, 0.0, 0.0, 0.0, -3176.8981429217033, 0.0]
['beep', 0.0, -4200.07159710784, 0.0, 0.0, 0.0, 0.0, -3178.3733580557537, 0.0]
['beep', 0.0, -4198.484623251513, 0.0, 0.0, 0.0, 0.0, -3176.652273732695, 0.0]
['beep', 0.0, -4199.289286051904, 0.0, 0.0, 0.0, 0.0, -3175.333520809832, 0.0]
['beep', 0.0, -4199.378693029725, 0.0, 0.0, 0.0, 0.0, -3176.853439432793, 0.0]
['beep', 0.0, -4200.675094208133, 0.0, 0.0, 0.0, 0.0, -3176.071128376857, 0.0]
['beep', 0.0, -4200.585687230312, 0.0, 0.0, 0.0, 0.0, -3176.4511080325974, 0.0]
['beep', 0.0, -4199.35634128527, 0.0, 0.0, 0.0, 0.0, -3175.065299876368, 0.0]
['beep', 0.0, -4199.870431407742, 0.0, 0.0, 0.0, 0.0, -3175.3782242987427, 0.0]
['beep', 0.0, -4200.362169785759, 0.0, 0.0, 0.0, 0.0, -3177.7922126999156, 0.0]
['beep', 0.0, -4201.479757008524, 0.0, 0.0, 0.0, 0.0, -3176.6969772216057, 0.0]
['beep', 0.0, -4200.362169785759, 0.0, 0.0, 0.0, 0.0, -3176.7863841994267, 0.0]
['beep', 0.0, -4199.468100007546, 0.0, 0.0, 0.0, 0.0, -3175.713500465572, 0.0]
['beep', 0.0, -4198.954009885074, 0.0, 0.0, 0.0, 0.0, -3174.707671965083, 0.0]
['beep', 0.0, -4199.535155240912, 0.0, 0.0, 0.0, 0.0, -3175.646445232206, 0.0]
['beep', 0.0, -4198.886954651708, 0.0, 0.0, 0.0, 0.0, -3177.322826066354, 0.0]
['beep', 0.0, -4197.724663940032, 0.0, 0.0, 0.0, 0.0, -3176.875791177248, 0.0]
['beep', 0.0, -4196.07063485034, 0.0, 0.0, 0.0, 0.0, -3175.065299876368, 0.0]
['beep', 0.0, -4196.1600418281605, 0.0, 0.0, 0.0, 0.0, -3175.1100033652788, 0.0]
['beep', 0.0, -4197.992884873496, 0.0, 0.0, 0.0, 0.0, -3175.4676312765637, 0.0]
['beep', 0.0, -4197.344684284292, 0.0, 0.0, 0.0, 0.0, -3175.2217620875554, 0.0]
['beep', 0.0, -4196.9200011396415, 0.0, 0.0, 0.0, 0.0, -3175.5346865099295, 0.0]
['beep', 0.0, -4196.808242417364, 0.0, 0.0, 0.0, 0.0, -3175.7582039544827, 0.0]
['beep', 0.0, -4196.383559272714, 0.0, 0.0, 0.0, 0.0, -3175.065299876368, 0.0]
['beep', 0.0, -4196.808242417364, 0.0, 0.0, 0.0, 0.0, -3174.975892898547, 0.0]
['beep', 0.0, -4197.456443006568, 0.0, 0.0, 0.0, 0.0, -3175.2217620875554, 0.0]
['beep', 0.0, -4195.713006939055, 0.0, 0.0, 0.0, 0.0, -3176.316997565865, 0.0]
['beep', 0.0, -4195.444786005591, 0.0, 0.0, 0.0, 0.0, -3177.1440121107116, 0.0]
['beep', 0.0, -4196.182393572616, 0.0, 0.0, 0.0, 0.0, -3176.339349310321, 0.0]
['beep', 0.0, -4196.78589067291, 0.0, 0.0, 0.0, 0.0, -3177.0546051328906, 0.0]
['beep', 0.0, -4197.769367428943, 0.0, 0.0, 0.0, 0.0, -3176.29464582141, 0.0]
['beep', 0.0, -4197.2105738175605, 0.0, 0.0, 0.0, 0.0, -3176.8310876883374, 0.0]
['beep', 0.0, -4196.674131950633, 0.0, 0.0, 0.0, 0.0, -3176.3840527992315, 0.0]
['beep', 0.0, -4196.83059416182, 0.0, 0.0, 0.0, 0.0, -3176.316997565865, 0.0]
['beep', 0.0, -4197.791719173399, 0.0, 0.0, 0.0, 0.0, -3177.568695255363, 0.0]
['beep', 0.0, -4196.9200011396415, 0.0, 0.0, 0.0, 0.0, -3178.4404132891195, 0.0]
['beep', 0.0, -4196.204745317072, 0.0, 0.0, 0.0, 0.0, -3178.5745237558513, 0.0]
['beep', 0.0, -4195.73535868351, 0.0, 0.0, 0.0, 0.0, -3177.4792882775414, 0.0]
['beep', 0.0, -4196.517669739445, 0.0, 0.0, 0.0, 0.0, -3177.568695255363, 0.0]
['beep', 0.0, -4196.517669739445, 0.0, 0.0, 0.0, 0.0, -3176.9875498995248, 0.0]
['beep', 0.0, -4196.11533833925, 0.0, 0.0, 0.0, 0.0, -3175.0876516208236, 0.0]
['beep', 0.0, -4194.885992394208, 0.0, 0.0, 0.0, 0.0, -3175.7582039544827, 0.0]
['beep', 0.0, -4193.321370282337, 0.0, 0.0, 0.0, 0.0, -3176.6746254771506, 0.0]
['beep', 0.0, -4193.857812149264, 0.0, 0.0, 0.0, 0.0, -3176.272294076955, 0.0]
['beep', 0.0, -4193.947219127085, 0.0, 0.0, 0.0, 0.0, -3175.5793899988403, 0.0]
['beep', 0.0, -4193.902515638175, 0.0, 0.0, 0.0, 0.0, -3174.7970789429046, 0.0]
['beep', 0.0, -4194.461309249557, 0.0, 0.0, 0.0, 0.0, -3173.6124364867733, 0.0]
['beep', 0.0, -4192.382597015214, 0.0, 0.0, 0.0, 0.0, -3174.1265266092455, 0.0]
['beep', 0.0, -4193.008445859962, 0.0, 0.0, 0.0, 0.0, -3173.9253609091475, 0.0]
['beep', 0.0, -4192.762576670954, 0.0, 0.0, 0.0, 0.0, -3174.5288580094407, 0.0]
['beep', 0.0, -4192.8743353932305, 0.0, 0.0, 0.0, 0.0, -3174.908837665181, 0.0]
['beep', 0.0, -4191.957913870563, 0.0, 0.0, 0.0, 0.0, -3173.970064398058, 0.0]
['beep', 0.0, -4191.175602814627, 0.0, 0.0, 0.0, 0.0, -3174.372395798254, 0.0]
['beep', 0.0, -4190.326236525326, 0.0, 0.0, 0.0, 0.0, -3173.9924161425133, 0.0]
['beep', 0.0, -4190.616809203245, 0.0, 0.0, 0.0, 0.0, -3173.34421555331, 0.0]
['beep', 0.0, -4191.421472003635, 0.0, 0.0, 0.0, 0.0, -3173.143049853212, 0.0]
['beep', 0.0, -4190.795623158887, 0.0, 0.0, 0.0, 0.0, -3173.4783260200415, 0.0]
['beep', 0.0, -4189.789794658398, 0.0, 0.0, 0.0, 0.0, -3172.6066079862844, 0.0]
['beep', 0.0, -4189.901553380675, 0.0, 0.0, 0.0, 0.0, -3171.846648674804, 0.0]
['beep', 0.0, -4191.890858637197, 0.0, 0.0, 0.0, 0.0, -3171.466669019064, 0.0]
['beep', 0.0, -4190.773271414432, 0.0, 0.0, 0.0, 0.0, -3172.070166119357, 0.0]
['beep', 0.0, -4190.482698736513, 0.0, 0.0, 0.0, 0.0, -3171.712538208072, 0.0]
['beep', 0.0, -4189.409815002658, 0.0, 0.0, 0.0, 0.0, -3173.4112707866757, 0.0]
['beep', 0.0, -4189.54392546939, 0.0, 0.0, 0.0, 0.0, -3173.455974275586, 0.0]
['beep', 0.0, -4190.97443711453, 0.0, 0.0, 0.0, 0.0, -3173.2324568310332, 0.0]
['beep', 0.0, -4191.443823748091, 0.0, 0.0, 0.0, 0.0, -3173.031291130935, 0.0]
['beep', 0.0, -4190.460346992058, 0.0, 0.0, 0.0, 0.0, -3172.137221352723, 0.0]
['beep', 0.0, -4189.387463258203, 0.0, 0.0, 0.0, 0.0, -3172.450145775097, 0.0]
['beep', 0.0, -4189.20864930256, 0.0, 0.0, 0.0, 0.0, -3174.4394510316197, 0.0]
['beep', 0.0, -4189.521573724935, 0.0, 0.0, 0.0, 0.0, -3175.2217620875554, 0.0]
['beep', 0.0, -4190.6391609477, 0.0, 0.0, 0.0, 0.0, -3175.780555698938, 0.0]
['beep', 0.0, -4189.812146402854, 0.0, 0.0, 0.0, 0.0, -3174.998244643002, 0.0]
['beep', 0.0, -4188.560448713356, 0.0, 0.0, 0.0, 0.0, -3173.9253609091475, 0.0]
['beep', 0.0, -4190.013312102951, 0.0, 0.0, 0.0, 0.0, -3172.986587642025, 0.0]
['beep', 0.0, -4190.6391609477, 0.0, 0.0, 0.0, 0.0, -3173.5230295089523, 0.0]
['beep', 0.0, -4190.527402225423, 0.0, 0.0, 0.0, 0.0, -3174.7300237095387, 0.0]
['beep', 0.0, -4189.54392546939, 0.0, 0.0, 0.0, 0.0, -3174.8641341762705, 0.0]
['beep', 0.0, -4190.370940014236, 0.0, 0.0, 0.0, 0.0, -3173.5006777644967, 0.0]
['beep', 0.0, -4192.069672592839, 0.0, 0.0, 0.0, 0.0, -3173.5230295089523, 0.0]
['beep', 0.0, -4190.862678392253, 0.0, 0.0, 0.0, 0.0, -3175.8923144212145, 0.0]
['beep', 0.0, -4191.175602814627, 0.0, 0.0, 0.0, 0.0, -3175.333520809832, 0.0]
['beep', 0.0, -4191.823803403831, 0.0, 0.0, 0.0, 0.0, -3174.752375453994, 0.0]
['beep', 0.0, -4191.488527237002, 0.0, 0.0, 0.0, 0.0, -3174.4170992871645, 0.0]
['beep', 0.0, -4191.9355621261075, 0.0, 0.0, 0.0, 0.0, -3176.1158318657676, 0.0]
['beep', 0.0, -4192.337893526304, 0.0, 0.0, 0.0, 0.0, -3176.428756288142, 0.0]
['beep', 0.0, -4191.622637703734, 0.0, 0.0, 0.0, 0.0, -3175.5346865099295, 0.0]
['beep', 0.0, -4193.187259815605, 0.0, 0.0, 0.0, 0.0, -3175.937017910125, 0.0]
['beep', 0.0, -4193.053149348873, 0.0, 0.0, 0.0, 0.0, -3173.7688986979606, 0.0]
['beep', 0.0, -4193.231963304515, 0.0, 0.0, 0.0, 0.0, -3173.813602186871, 0.0]
['beep', 0.0, -4194.327198782826, 0.0, 0.0, 0.0, 0.0, -3175.6017417432954, 0.0]
['beep', 0.0, -4194.215440060549, 0.0, 0.0, 0.0, 0.0, -3176.8310876883374, 0.0]
['beep', 0.0, -4193.388425515703, 0.0, 0.0, 0.0, 0.0, -3177.322826066354, 0.0]
['beep', 0.0, -4192.382597015214, 0.0, 0.0, 0.0, 0.0, -3178.0157301444688, 0.0]
['beep', 0.0, -4192.650817948677, 0.0, 0.0, 0.0, 0.0, -3176.6746254771506, 0.0]
['beep', 0.0, -4193.209611560061, 0.0, 0.0, 0.0, 0.0, -3175.2217620875554, 0.0]
['beep', 0.0, -4193.678998193622, 0.0, 0.0, 0.0, 0.0, -3176.227590588044, 0.0]
['beep', 0.0, -4192.896687137686, 0.0, 0.0, 0.0, 0.0, -3176.272294076955, 0.0]
['beep', 0.0, -4191.980265615019, 0.0, 0.0, 0.0, 0.0, -3176.428756288142, 0.0]
['beep', 0.0, -4192.561410970857, 0.0, 0.0, 0.0, 0.0, -3177.233419088533, 0.0]
['beep', 0.0, -4193.231963304515, 0.0, 0.0, 0.0, 0.0, -3176.965198155069, 0.0]
['beep', 0.0, -4193.433129004613, 0.0, 0.0, 0.0, 0.0, -3176.495811521508, 0.0]
['beep', 0.0, -4193.366073771247, 0.0, 0.0, 0.0, 0.0, -3175.8029074433935, 0.0]
['beep', 0.0, -4193.343722026792, 0.0, 0.0, 0.0, 0.0, -3175.6017417432954, 0.0]
['beep', 0.0, -4193.880163893719, 0.0, 0.0, 0.0, 0.0, -3174.7300237095387, 0.0]
['beep', 0.0, -4193.746053426988, 0.0, 0.0, 0.0, 0.0, -3175.266465576466, 0.0]
['beep', 0.0, -4194.014274360451, 0.0, 0.0, 0.0, 0.0, -3175.5123347654744, 0.0]
['beep', 0.0, -4194.26014354946, 0.0, 0.0, 0.0, 0.0, -3174.394747542709, 0.0]
['beep', 0.0, -4194.394254016192, 0.0, 0.0, 0.0, 0.0, -3173.00893938648, 0.0]
['beep', 0.0, -4195.064806349851, 0.0, 0.0, 0.0, 0.0, -3172.9642358975693, 0.0]
['beep', 0.0, -4194.506012738468, 0.0, 0.0, 0.0, 0.0, -3174.685320220628, 0.0]
['beep', 0.0, -4195.556544727868, 0.0, 0.0, 0.0, 0.0, -3174.5512097538963, 0.0]
['beep', 0.0, -4195.467137750046, 0.0, 0.0, 0.0, 0.0, -3173.590084742318, 0.0]
['beep', 0.0, -4194.327198782826, 0.0, 0.0, 0.0, 0.0, -3172.003110885991, 0.0]
['beep', 0.0, -4193.857812149264, 0.0, 0.0, 0.0, 0.0, -3172.3160353083654, 0.0]
['beep', 0.0, -4194.394254016192, 0.0, 0.0, 0.0, 0.0, -3173.366567297765, 0.0]
['beep', 0.0, -4193.231963304515, 0.0, 0.0, 0.0, 0.0, -3173.7688986979606, 0.0]
['beep', 0.0, -4193.656646449166, 0.0, 0.0, 0.0, 0.0, -3171.7348899525273, 0.0]
['beep', 0.0, -4193.276666793427, 0.0, 0.0, 0.0, 0.0, -3169.3432532958095, 0.0]
['beep', 0.0, -4192.002617359473, 0.0, 0.0, 0.0, 0.0, -3171.2878550634214, 0.0]
['beep', 0.0, -4192.82963190432, 0.0, 0.0, 0.0, 0.0, -3171.690186463617, 0.0]
['beep', 0.0, -4192.9860941155075, 0.0, 0.0, 0.0, 0.0, -3171.086689363324, 0.0]
['beep', 0.0, -4193.991922615996, 0.0, 0.0, 0.0, 0.0, -3169.4103085291754, 0.0]
['beep', 0.0, -4193.656646449166, 0.0, 0.0, 0.0, 0.0, -3168.3374247953207, 0.0]
['beep', 0.0, -4192.427300504124, 0.0, 0.0, 0.0, 0.0, -3169.2538463179885, 0.0]
['beep', 0.0, -4192.494355737491, 0.0, 0.0, 0.0, 0.0, -3170.2596748184774, 0.0]
['beep', 0.0, -4192.941390626596, 0.0, 0.0, 0.0, 0.0, -3169.455012018086, 0.0]
['beep', 0.0, -4192.896687137686, 0.0, 0.0, 0.0, 0.0, -3168.3821282842314, 0.0]
['beep', 0.0, -4192.539059226401, 0.0, 0.0, 0.0, 0.0, -3166.3481195387985, 0.0]
['beep', 0.0, -4192.784928415409, 0.0, 0.0, 0.0, 0.0, -3166.0798986053346, 0.0]
['beep', 0.0, -4193.120204582239, 0.0, 0.0, 0.0, 0.0, -3166.839857916815, 0.0]
['beep', 0.0, -4193.008445859962, 0.0, 0.0, 0.0, 0.0, -3165.0293666159355, 0.0]
['beep', 0.0, -4191.957913870563, 0.0, 0.0, 0.0, 0.0, -3163.9564828820808, 0.0]
['beep', 0.0, -4192.203783059572, 0.0, 0.0, 0.0, 0.0, -3165.7222706940497, 0.0]
['beep', 0.0, -4192.315541781848, 0.0, 0.0, 0.0, 0.0, -3165.208180571578, 0.0]
['beep', 0.0, -4193.053149348873, 0.0, 0.0, 0.0, 0.0, -3164.7164421935613, 0.0]
['beep', 0.0, -4195.243620305493, 0.0, 0.0, 0.0, 0.0, -3164.0905933488125, 0.0]
['beep', 0.0, -4194.595419716289, 0.0, 0.0, 0.0, 0.0, -3163.978834626536, 0.0]
['beep', 0.0, -4192.9860941155075, 0.0, 0.0, 0.0, 0.0, -3164.917607893659, 0.0]
['beep', 0.0, -4194.237791805004, 0.0, 0.0, 0.0, 0.0, -3165.5434567384073, 0.0]
['beep', 0.0, -4193.768405171443, 0.0, 0.0, 0.0, 0.0, -3165.655215460684, 0.0]
['beep', 0.0, -4193.790756915898, 0.0, 0.0, 0.0, 0.0, -3163.8000206708934, 0.0]
['beep', 0.0, -4193.768405171443, 0.0, 0.0, 0.0, 0.0, -3163.7776689264383, 0.0]
['beep', 0.0, -4194.327198782826, 0.0, 0.0, 0.0, 0.0, -3164.001186370991, 0.0]
['beep', 0.0, -4194.30484703837, 0.0, 0.0, 0.0, 0.0, -3164.5376282379184, 0.0]
['beep', 0.0, -4193.880163893719, 0.0, 0.0, 0.0, 0.0, -3164.4705730045525, 0.0]
['beep', 0.0, -4193.097852837784, 0.0, 0.0, 0.0, 0.0, -3165.5434567384073, 0.0]
['beep', 0.0, -4194.684826694111, 0.0, 0.0, 0.0, 0.0, -3163.0847648483236, 0.0]
['beep', 0.0, -4193.120204582239, 0.0, 0.0, 0.0, 0.0, -3162.0789363478348, 0.0]
['beep', 0.0, -4192.159079570661, 0.0, 0.0, 0.0, 0.0, -3163.0177096149578, 0.0]
['beep', 0.0, -4191.533230725912, 0.0, 0.0, 0.0, 0.0, -3162.525971236941, 0.0]
['beep', 0.0, -4191.7567481704655, 0.0, 0.0, 0.0, 0.0, -3161.073107847346, 0.0]
['beep', 0.0, -4193.030797604418, 0.0, 0.0, 0.0, 0.0, -3160.6707764471507, 0.0]
['beep', 0.0, -4193.678998193622, 0.0, 0.0, 0.0, 0.0, -3158.7708781684496, 0.0]
['beep', 0.0, -4192.9860941155075, 0.0, 0.0, 0.0, 0.0, -3157.3180147788544, 0.0]
['beep', 0.0, -4195.333027283315, 0.0, 0.0, 0.0, 0.0, -3158.9943956130023, 0.0]
['beep', 0.0, -4196.338855783803, 0.0, 0.0, 0.0, 0.0, -3159.3520235242872, 0.0]
['beep', 0.0, -4195.556544727868, 0.0, 0.0, 0.0, 0.0, -3159.419078757653, 0.0]
['beep', 0.0, -4194.438957505102, 0.0, 0.0, 0.0, 0.0, -3159.396727013198, 0.0]
['beep', 0.0, -4194.282495293915, 0.0, 0.0, 0.0, 0.0, -3158.167381068156, 0.0]
['beep', 0.0, -4195.131861583217, 0.0, 0.0, 0.0, 0.0, -3155.7086891780723, 0.0]
['beep', 0.0, -4196.45061450608, 0.0, 0.0, 0.0, 0.0, -3154.5463984663966, 0.0]
['beep', 0.0, -4195.9812278725185, 0.0, 0.0, 0.0, 0.0, -3153.518218221452, 0.0]
['beep', 0.0, -4192.44965224858, 0.0, 0.0, 0.0, 0.0, -3154.81461939986, 0.0]
['beep', 0.0, -4193.231963304515, 0.0, 0.0, 0.0, 0.0, -3153.6970321770946, 0.0]
['beep', 0.0, -4195.40008251668, 0.0, 0.0, 0.0, 0.0, -3152.2441687875, 0.0]
['beep', 0.0, -4196.11533833925, 0.0, 0.0, 0.0, 0.0, -3153.9205496216478, 0.0]
['beep', 0.0, -4194.573067971834, 0.0, 0.0, 0.0, 0.0, -3155.4181165001532, 0.0]
['beep', 0.0, -4193.366073771247, 0.0, 0.0, 0.0, 0.0, -3152.870017632248, 0.0]
['beep', 0.0, -4191.7567481704655, 0.0, 0.0, 0.0, 0.0, -3152.579444954329, 0.0]
['beep', 0.0, -4191.600285959278, 0.0, 0.0, 0.0, 0.0, -3150.7913053979046, 0.0]
['beep', 0.0, -4190.97443711453, 0.0, 0.0, 0.0, 0.0, -3150.143104808701, 0.0]
['beep', 0.0, -4186.526439967924, 0.0, 0.0, 0.0, 0.0, -3149.6066629417737, 0.0]
['beep', 0.0, -4185.408852745158, 0.0, 0.0, 0.0, 0.0, -3149.226683286033, 0.0]
['beep', 0.0, -4185.677073678622, 0.0, 0.0, 0.0, 0.0, -3148.7125931635615, 0.0]
['beep', 0.0, -4186.6381986902, 0.0, 0.0, 0.0, 0.0, -3148.9584623525698, 0.0]
['beep', 0.0, -4190.25918129196, 0.0, 0.0, 0.0, 0.0, -3148.8020001413825, 0.0]
['beep', 0.0, -4191.197954559083, 0.0, 0.0, 0.0, 0.0, -3148.891407119204, 0.0]
['beep', 0.0, -4191.801451659376, 0.0, 0.0, 0.0, 0.0, -3149.1149245637566, 0.0]
['beep', 0.0, -4192.270838292938, 0.0, 0.0, 0.0, 0.0, -3147.90793036317, 0.0]
['beep', 0.0, -4191.868506892742, 0.0, 0.0, 0.0, 0.0, -3149.249035030489, 0.0]
['beep', 0.0, -4192.606114459767, 0.0, 0.0, 0.0, 0.0, -3150.277215275433, 0.0]
['beep', 0.0, -4189.856849891764, 0.0, 0.0, 0.0, 0.0, -3150.7913053979046, 0.0]
['beep', 0.0, -4189.096890580284, 0.0, 0.0, 0.0, 0.0, -3149.494904219497, 0.0]
['beep', 0.0, -4190.6391609477, 0.0, 0.0, 0.0, 0.0, -3149.1149245637566, 0.0]
['beep', 0.0, -4192.2261348040265, 0.0, 0.0, 0.0, 0.0, -3149.9642908530586, 0.0]
['beep', 0.0, -4192.539059226401, 0.0, 0.0, 0.0, 0.0, -3148.3773169967317, 0.0]
['beep', 0.0, -4192.203783059572, 0.0, 0.0, 0.0, 0.0, -3150.6348431867177, 0.0]
['beep', 0.0, -4191.197954559083, 0.0, 0.0, 0.0, 0.0, -3150.008994341969, 0.0]
['beep', 0.0, -4191.957913870563, 0.0, 0.0, 0.0, 0.0, -3150.277215275433, 0.0]
['beep', 0.0, -4190.907381881164, 0.0, 0.0, 0.0, 0.0, -3153.6299769437287, 0.0]
['beep', 0.0, -4191.488527237002, 0.0, 0.0, 0.0, 0.0, -3153.6299769437287, 0.0]
['beep', 0.0, -4191.6896929371, 0.0, 0.0, 0.0, 0.0, -3154.5463984663966, 0.0]
['beep', 0.0, -4191.309713281359, 0.0, 0.0, 0.0, 0.0, -3155.3510612667874, 0.0]
['beep', 0.0, -4190.3485882697805, 0.0, 0.0, 0.0, 0.0, -3155.52987522243, 0.0]
['beep', 0.0, -4190.750919669977, 0.0, 0.0, 0.0, 0.0, -3155.0157850999576, 0.0]
['beep', 0.0, -4191.220306303538, 0.0, 0.0, 0.0, 0.0, -3153.8311426438268, 0.0]
['beep', 0.0, -4192.494355737491, 0.0, 0.0, 0.0, 0.0, -3152.6912036766057, 0.0]
['beep', 0.0, -4192.293190037392, 0.0, 0.0, 0.0, 0.0, -3153.0264798434355, 0.0]
['beep', 0.0, -4189.968608614041, 0.0, 0.0, 0.0, 0.0, -3153.0935350768013, 0.0]
['beep', 0.0, -4189.8792016362195, 0.0, 0.0, 0.0, 0.0, -3155.820447900349, 0.0]
['beep', 0.0, -4192.159079570661, 0.0, 0.0, 0.0, 0.0, -3155.9322066226255, 0.0]
['beep', 0.0, -4192.516707481946, 0.0, 0.0, 0.0, 0.0, -3154.09936357729, 0.0]
['beep', 0.0, -4190.147422569683, 0.0, 0.0, 0.0, 0.0, -3155.038136844413, 0.0]
['beep', 0.0, -4188.716910924543, 0.0, 0.0, 0.0, 0.0, -3155.2169508000557, 0.0]
['beep', 0.0, -4189.476870236024, 0.0, 0.0, 0.0, 0.0, -3155.5745787113406, 0.0]
['beep', 0.0, -4190.773271414432, 0.0, 0.0, 0.0, 0.0, -3158.167381068156, 0.0]
['beep', 0.0, -4190.370940014236, 0.0, 0.0, 0.0, 0.0, -3157.72034617905, 0.0]
['beep', 0.0, -4189.722739425032, 0.0, 0.0, 0.0, 0.0, -3155.5745787113406, 0.0]
['beep', 0.0, -4189.432166747113, 0.0, 0.0, 0.0, 0.0, -3153.71938392155, 0.0]
['beep', 0.0, -4188.068710335339, 0.0, 0.0, 0.0, 0.0, -3155.082840333324, 0.0]
['beep', 0.0, -4188.247524290982, 0.0, 0.0, 0.0, 0.0, -3155.753392666983, 0.0]
['beep', 0.0, -4188.851021391275, 0.0, 0.0, 0.0, 0.0, -3155.775744411438, 0.0]
['beep', 0.0, -4188.582800457812, 0.0, 0.0, 0.0, 0.0, -3155.485171733519, 0.0]
['beep', 0.0, -4188.471041735535, 0.0, 0.0, 0.0, 0.0, -3156.111020578268, 0.0]
['beep', 0.0, -4188.515745224446, 0.0, 0.0, 0.0, 0.0, -3157.5638839678627, 0.0]
['beep', 0.0, -4188.716910924543, 0.0, 0.0, 0.0, 0.0, -3157.6085874567734, 0.0]
['beep', 0.0, -4189.5886289583, 0.0, 0.0, 0.0, 0.0, -3157.6309392012286, 0.0]
['beep', 0.0, -4188.985131858008, 0.0, 0.0, 0.0, 0.0, -3158.2120845570666, 0.0]
['beep', 0.0, -4188.82866964682, 0.0, 0.0, 0.0, 0.0, -3156.066317089357, 0.0]
['beep', 0.0, -4188.135765568705, 0.0, 0.0, 0.0, 0.0, -3159.307320035377, 0.0]
['beep', 0.0, -4189.275704535926, 0.0, 0.0, 0.0, 0.0, -3158.8826368907257, 0.0]
['beep', 0.0, -4190.505050480968, 0.0, 0.0, 0.0, 0.0, -3156.1557240671787, 0.0]
['beep', 0.0, -4192.024969103929, 0.0, 0.0, 0.0, 0.0, -3156.178075811634, 0.0]
['beep', 0.0, -4188.2922277798925, 0.0, 0.0, 0.0, 0.0, -3160.134334580223, 0.0]
['beep', 0.0, -4189.298056280381, 0.0, 0.0, 0.0, 0.0, -3160.335500280321, 0.0]
['beep', 0.0, -4192.0473208483845, 0.0, 0.0, 0.0, 0.0, -3159.754354924483, 0.0]
['beep', 0.0, -4190.25918129196, 0.0, 0.0, 0.0, 0.0, -3159.4861339910194, 0.0]
['beep', 0.0, -4189.767442913943, 0.0, 0.0, 0.0, 0.0, -3158.7932299129047, 0.0]
['beep', 0.0, -4188.806317902365, 0.0, 0.0, 0.0, 0.0, -3159.106154335279, 0.0]
['beep', 0.0, -4189.186297558105, 0.0, 0.0, 0.0, 0.0, -3161.4754392475415, 0.0]
['beep', 0.0, -4191.175602814627, 0.0, 0.0, 0.0, 0.0, -3161.654253203184, 0.0]
['beep', 0.0, -4190.862678392253, 0.0, 0.0, 0.0, 0.0, -3160.0896310913126, 0.0]
['beep', 0.0, -4191.868506892742, 0.0, 0.0, 0.0, 0.0, -3159.106154335279, 0.0]
['beep', 0.0, -4192.069672592839, 0.0, 0.0, 0.0, 0.0, -3159.4861339910194, 0.0]
['beep', 0.0, -4191.376768514725, 0.0, 0.0, 0.0, 0.0, -3160.335500280321, 0.0]
['beep', 0.0, -4192.092024337295, 0.0, 0.0, 0.0, 0.0, -3160.268445046955, 0.0]
['beep', 0.0, -4192.44965224858, 0.0, 0.0, 0.0, 0.0, -3160.111982835768, 0.0]
['beep', 0.0, -4190.773271414432, 0.0, 0.0, 0.0, 0.0, -3162.0789363478348, 0.0]
['beep', 0.0, -4190.370940014236, 0.0, 0.0, 0.0, 0.0, -3161.654253203184, 0.0]
['beep', 0.0, -4191.801451659376, 0.0, 0.0, 0.0, 0.0, -3161.654253203184, 0.0]
['beep', 0.0, -4193.366073771247, 0.0, 0.0, 0.0, 0.0, -3163.7553171819827, 0.0]
['beep', 0.0, -4195.511841238957, 0.0, 0.0, 0.0, 0.0, -3163.688261948617, 0.0]
['beep', 0.0, -4192.941390626596, 0.0, 0.0, 0.0, 0.0, -3164.492924749008, 0.0]
['beep', 0.0, -4191.421472003635, 0.0, 0.0, 0.0, 0.0, -3164.8282009158374, 0.0]
['beep', 0.0, -4193.209611560061, 0.0, 0.0, 0.0, 0.0, -3165.3422910383097, 0.0]
['beep', 0.0, -4193.567239471346, 0.0, 0.0, 0.0, 0.0, -3164.358814282276, 0.0]
['beep', 0.0, -4192.963742371052, 0.0, 0.0, 0.0, 0.0, -3164.3141107933657, 0.0]
['beep', 0.0, -4192.2261348040265, 0.0, 0.0, 0.0, 0.0, -3164.850552660293, 0.0]
['beep', 0.0, -4194.1036813382725, 0.0, 0.0, 0.0, 0.0, -3164.649386960195, 0.0]
['beep', 0.0, -4194.684826694111, 0.0, 0.0, 0.0, 0.0, -3164.917607893659, 0.0]
['beep', 0.0, -4193.5895912158, 0.0, 0.0, 0.0, 0.0, -3165.141125338212, 0.0]
['beep', 0.0, -4193.388425515703, 0.0, 0.0, 0.0, 0.0, -3165.141125338212, 0.0]
['beep', 0.0, -4193.5895912158, 0.0, 0.0, 0.0, 0.0, -3166.4375265166195, 0.0]
['beep', 0.0, -4192.092024337295, 0.0, 0.0, 0.0, 0.0, -3165.9234363941478, 0.0]
['beep', 0.0, -4194.461309249557, 0.0, 0.0, 0.0, 0.0, -3164.7164421935613, 0.0]
['beep', 0.0, -4193.656646449166, 0.0, 0.0, 0.0, 0.0, -3168.516238750963, 0.0]
['beep', 0.0, -4193.053149348873, 0.0, 0.0, 0.0, 0.0, -3167.465706761564, 0.0]
['beep', 0.0, -4194.148384827183, 0.0, 0.0, 0.0, 0.0, -3165.945788138603, 0.0]
['beep', 0.0, -4193.611942960256, 0.0, 0.0, 0.0, 0.0, -3167.488058506019, 0.0]
['beep', 0.0, -4193.9248673826305, 0.0, 0.0, 0.0, 0.0, -3168.2927213064104, 0.0]
['beep', 0.0, -4193.768405171443, 0.0, 0.0, 0.0, 0.0, -3168.113907350768, 0.0]
['beep', 0.0, -4193.254315048971, 0.0, 0.0, 0.0, 0.0, -3168.717404451061, 0.0]
['beep', 0.0, -4193.567239471346, 0.0, 0.0, 0.0, 0.0, -3167.9350933951255, 0.0]
['beep', 0.0, -4193.500184237979, 0.0, 0.0, 0.0, 0.0, -3168.6279974732397, 0.0]
['beep', 0.0, -4192.516707481946, 0.0, 0.0, 0.0, 0.0, -3171.4443172746087, 0.0]
['beep', 0.0, -4193.678998193622, 0.0, 0.0, 0.0, 0.0, -3171.0196341299575, 0.0]
['beep', 0.0, -4194.818937160842, 0.0, 0.0, 0.0, 0.0, -3170.080860862835, 0.0]
['beep', 0.0, -4194.483660994013, 0.0, 0.0, 0.0, 0.0, -3171.1537445966896, 0.0]
['beep', 0.0, -4195.668303450144, 0.0, 0.0, 0.0, 0.0, -3170.147916096201, 0.0]
['beep', 0.0, -4196.294152294892, 0.0, 0.0, 0.0, 0.0, -3172.092517863812, 0.0]
['beep', 0.0, -4192.784928415409, 0.0, 0.0, 0.0, 0.0, -3174.5512097538963, 0.0]
['beep', 0.0, -4192.784928415409, 0.0, 0.0, 0.0, 0.0, -3173.2771603199435, 0.0]
['beep', 0.0, -4194.148384827183, 0.0, 0.0, 0.0, 0.0, -3171.690186463617, 0.0]
['beep', 0.0, -4195.891820894697, 0.0, 0.0, 0.0, 0.0, -3170.460840518575, 0.0]
['beep', 0.0, -4195.176565072127, 0.0, 0.0, 0.0, 0.0, -3172.651311475195, 0.0]
['beep', 0.0, -4194.237791805004, 0.0, 0.0, 0.0, 0.0, -3174.1935818426114, 0.0]
['beep', 0.0, -4194.193088316094, 0.0, 0.0, 0.0, 0.0, -3174.10417486479, 0.0]
['beep', 0.0, -4193.790756915898, 0.0, 0.0, 0.0, 0.0, -3172.8524771752927, 0.0]
['beep', 0.0, -4194.349550527281, 0.0, 0.0, 0.0, 0.0, -3173.8359539313265, 0.0]
['beep', 0.0, -4192.82963190432, 0.0, 0.0, 0.0, 0.0, -3174.8641341762705, 0.0]
['beep', 0.0, -4193.611942960256, 0.0, 0.0, 0.0, 0.0, -3173.9924161425133, 0.0]
['beep', 0.0, -4196.562373228357, 0.0, 0.0, 0.0, 0.0, -3174.8641341762705, 0.0]
['beep', 0.0, -4194.684826694111, 0.0, 0.0, 0.0, 0.0, -3175.1100033652788, 0.0]
['beep', 0.0, -4193.991922615996, 0.0, 0.0, 0.0, 0.0, -3175.557038254385, 0.0]
['beep', 0.0, -4194.461309249557, 0.0, 0.0, 0.0, 0.0, -3175.1994103431, 0.0]
['beep', 0.0, -4195.288323794403, 0.0, 0.0, 0.0, 0.0, -3177.3451778108097, 0.0]
['beep', 0.0, -4194.841288905298, 0.0, 0.0, 0.0, 0.0, -3178.7533377114937, 0.0]
['beep', 0.0, -4194.774233671932, 0.0, 0.0, 0.0, 0.0, -3179.490945278519, 0.0]
['beep', 0.0, -4194.885992394208, 0.0, 0.0, 0.0, 0.0, -3178.619227244762, 0.0]
['beep', 0.0, -4196.495317994991, 0.0, 0.0, 0.0, 0.0, -3180.0497388899016, 0.0]
['beep', 0.0, -4195.467137750046, 0.0, 0.0, 0.0, 0.0, -3181.1226226237563, 0.0]
['beep', 0.0, -4196.696483695088, 0.0, 0.0, 0.0, 0.0, -3180.4073668011865, 0.0]
['beep', 0.0, -4196.383559272714, 0.0, 0.0, 0.0, 0.0, -3181.7037679795944, 0.0]
['beep', 0.0, -4194.885992394208, 0.0, 0.0, 0.0, 0.0, -3182.7095964800833, 0.0]
['beep', 0.0, -4198.082291851317, 0.0, 0.0, 0.0, 0.0, -3183.6930732361166, 0.0]
['beep', 0.0, -4196.78589067291, 0.0, 0.0, 0.0, 0.0, -3186.2188203595665, 0.0]
['beep', 0.0, -4196.338855783803, 0.0, 0.0, 0.0, 0.0, -3186.1517651262006, 0.0]
['beep', 0.0, -4197.121166839739, 0.0, 0.0, 0.0, 0.0, -3183.715424980572, 0.0]
['beep', 0.0, -4197.814070917853, 0.0, 0.0, 0.0, 0.0, -3184.207163358589, 0.0]
['beep', 0.0, -4199.1551755851715, 0.0, 0.0, 0.0, 0.0, -3185.436509303631, 0.0]
['beep', 0.0, -4196.204745317072, 0.0, 0.0, 0.0, 0.0, -3186.844669204315, 0.0]
['beep', 0.0, -4194.997751116485, 0.0, 0.0, 0.0, 0.0, -3184.0507011474015, 0.0]
['beep', 0.0, -4195.109509838761, 0.0, 0.0, 0.0, 0.0, -3183.2236866025555, 0.0]
['beep', 0.0, -4195.578896472322, 0.0, 0.0, 0.0, 0.0, -3181.9719889130583, 0.0]
['beep', 0.0, -4196.562373228357, 0.0, 0.0, 0.0, 0.0, -3180.9661604125695, 0.0]
['beep', 0.0, -4197.0988150952835, 0.0, 0.0, 0.0, 0.0, -3181.3461400683095, 0.0]
['beep', 0.0, -4196.405911017169, 0.0, 0.0, 0.0, 0.0, -3181.1226226237563, 0.0]
['beep', 0.0, -4196.249448805982, 0.0, 0.0, 0.0, 0.0, -3180.362663312276, 0.0]
['beep', 0.0, -4195.422434261136, 0.0, 0.0, 0.0, 0.0, -3182.240209846522, 0.0]
['beep', 0.0, -4194.7518819274765, 0.0, 0.0, 0.0, 0.0, -3183.514259280474, 0.0]
['beep', 0.0, -4195.713006939055, 0.0, 0.0, 0.0, 0.0, -3184.430680803142, 0.0]
['beep', 0.0, -4196.9200011396415, 0.0, 0.0, 0.0, 0.0, -3184.207163358589, 0.0]
['beep', 0.0, -4196.294152294892, 0.0, 0.0, 0.0, 0.0, -3182.5754860133516, 0.0]
['beep', 0.0, -4195.936524383607, 0.0, 0.0, 0.0, 0.0, -3182.262561590977, 0.0]
['beep', 0.0, -4196.249448805982, 0.0, 0.0, 0.0, 0.0, -3184.6094947587844, 0.0]
['beep', 0.0, -4196.45061450608, 0.0, 0.0, 0.0, 0.0, -3184.140108125223, 0.0]
['beep', 0.0, -4196.763538928454, 0.0, 0.0, 0.0, 0.0, -3183.5366110249297, 0.0]
['beep', 0.0, -4194.885992394208, 0.0, 0.0, 0.0, 0.0, -3184.363625569776, 0.0]
['beep', 0.0, -4197.456443006568, 0.0, 0.0, 0.0, 0.0, -3182.6425412467174, 0.0]
['beep', 0.0, -4198.372864529236, 0.0, 0.0, 0.0, 0.0, -3185.145936625712, 0.0]
['beep', 0.0, -4197.456443006568, 0.0, 0.0, 0.0, 0.0, -3183.849535447304, 0.0]
['beep', 0.0, -4195.802413916876, 0.0, 0.0, 0.0, 0.0, -3182.9778174135467, 0.0]
['beep', 0.0, -4194.215440060549, 0.0, 0.0, 0.0, 0.0, -3185.1235848812566, 0.0]
['beep', 0.0, -4196.025931361429, 0.0, 0.0, 0.0, 0.0, -3184.721253481061, 0.0]
['beep', 0.0, -4198.26110580696, 0.0, 0.0, 0.0, 0.0, -3183.156631369189, 0.0]
['beep', 0.0, -4194.327198782826, 0.0, 0.0, 0.0, 0.0, -3184.944770925614, 0.0]
['beep', 0.0, -4195.2212685610375, 0.0, 0.0, 0.0, 0.0, -3183.491907536019, 0.0]
['beep', 0.0, -4197.299980795381, 0.0, 0.0, 0.0, 0.0, -3182.262561590977, 0.0]
['beep', 0.0, -4197.814070917853, 0.0, 0.0, 0.0, 0.0, -3182.195506357611, 0.0]
['beep', 0.0, -4196.651780206177, 0.0, 0.0, 0.0, 0.0, -3182.4190238021642, 0.0]
['beep', 0.0, -4196.674131950633, 0.0, 0.0, 0.0, 0.0, -3181.3684918127647, 0.0]
['beep', 0.0, -4197.724663940032, 0.0, 0.0, 0.0, 0.0, -3181.301436579399, 0.0]
['beep', 0.0, -4196.897649395186, 0.0, 0.0, 0.0, 0.0, -3182.150802868701, 0.0]
['beep', 0.0, -4196.428262761625, 0.0, 0.0, 0.0, 0.0, -3183.402500558198, 0.0]
['beep', 0.0, -4196.45061450608, 0.0, 0.0, 0.0, 0.0, -3182.687244735628, 0.0]
['beep', 0.0, -4198.596381973789, 0.0, 0.0, 0.0, 0.0, -3182.3072650798877, 0.0]
['beep', 0.0, -4198.819899418342, 0.0, 0.0, 0.0, 0.0, -3181.904933679692, 0.0]
['beep', 0.0, -4196.651780206177, 0.0, 0.0, 0.0, 0.0, -3180.854401690293, 0.0]
['beep', 0.0, -4196.584724972811, 0.0, 0.0, 0.0, 0.0, -3181.2567330904885, 0.0]
['beep', 0.0, -4198.864602907253, 0.0, 0.0, 0.0, 0.0, -3180.5414772679187, 0.0]
['beep', 0.0, -4197.814070917853, 0.0, 0.0, 0.0, 0.0, -3182.9778174135467, 0.0]
['beep', 0.0, -4196.07063485034, 0.0, 0.0, 0.0, 0.0, -3182.910762180181, 0.0]
['beep', 0.0, -4197.299980795381, 0.0, 0.0, 0.0, 0.0, -3181.1226226237563, 0.0]
['beep', 0.0, -4197.2105738175605, 0.0, 0.0, 0.0, 0.0, -3181.144974368212, 0.0]
['beep', 0.0, -4195.958876128063, 0.0, 0.0, 0.0, 0.0, -3181.7037679795944, 0.0]
['beep', 0.0, -4194.215440060549, 0.0, 0.0, 0.0, 0.0, -3180.2509045899997, 0.0]
['beep', 0.0, -4192.0473208483845, 0.0, 0.0, 0.0, 0.0, -3177.7028057220946, 0.0]
['beep', 0.0, -4189.54392546939, 0.0, 0.0, 0.0, 0.0, -3176.853439432793, 0.0]
['beep', 0.0, -4188.471041735535, 0.0, 0.0, 0.0, 0.0, -3177.881619677737, 0.0]
['beep', 0.0, -4190.415643503147, 0.0, 0.0, 0.0, 0.0, -3178.3733580557537, 0.0]
['beep', 0.0, -4193.187259815605, 0.0, 0.0, 0.0, 0.0, -3175.5123347654744, 0.0]
['beep', 0.0, -4193.6342947047115, 0.0, 0.0, 0.0, 0.0, -3175.5123347654744, 0.0]
['beep', 0.0, -4194.394254016192, 0.0, 0.0, 0.0, 0.0, -3175.713500465572, 0.0]
['beep', 0.0, -4196.562373228357, 0.0, 0.0, 0.0, 0.0, -3177.211067344078, 0.0]
['beep', 0.0, -4194.215440060549, 0.0, 0.0, 0.0, 0.0, -3175.646445232206, 0.0]
['beep', 0.0, -4195.623599961234, 0.0, 0.0, 0.0, 0.0, -3174.752375453994, 0.0]
['beep', 0.0, -4195.064806349851, 0.0, 0.0, 0.0, 0.0, -3174.305340564888, 0.0]
['beep', 0.0, -4195.40008251668, 0.0, 0.0, 0.0, 0.0, -3173.2548085754884, 0.0]
['beep', 0.0, -4197.143518584195, 0.0, 0.0, 0.0, 0.0, -3173.433622531131, 0.0]
['beep', 0.0, -4197.747015684487, 0.0, 0.0, 0.0, 0.0, -3176.4511080325974, 0.0]
['beep', 0.0, -4198.484623251513, 0.0, 0.0, 0.0, 0.0, -3178.7980412004044, 0.0]
['beep', 0.0, -4197.277629050926, 0.0, 0.0, 0.0, 0.0, -3180.1167941232675, 0.0]
['beep', 0.0, -4194.684826694111, 0.0, 0.0, 0.0, 0.0, -3180.206201101089, 0.0]
['beep', 0.0, -4193.6342947047115, 0.0, 0.0, 0.0, 0.0, -3179.781517956438, 0.0]
['beep', 0.0, -4195.6906551945995, 0.0, 0.0, 0.0, 0.0, -3179.4685935340635, 0.0]
['beep', 0.0, -4198.1493470846835, 0.0, 0.0, 0.0, 0.0, -3178.5745237558513, 0.0]
['beep', 0.0, -4196.294152294892, 0.0, 0.0, 0.0, 0.0, -3178.2839510779327, 0.0]
['beep', 0.0, -4194.327198782826, 0.0, 0.0, 0.0, 0.0, -3176.8087359438823, 0.0]
['beep', 0.0, -4194.237791805004, 0.0, 0.0, 0.0, 0.0, -3177.322826066354, 0.0]
['beep', 0.0, -4196.562373228357, 0.0, 0.0, 0.0, 0.0, -3177.8592679332814, 0.0]
['beep', 0.0, -4195.713006939055, 0.0, 0.0, 0.0, 0.0, -3177.814564444371, 0.0]
['beep', 0.0, -4193.991922615996, 0.0, 0.0, 0.0, 0.0, -3176.4511080325974, 0.0]
['beep', 0.0, -4195.891820894697, 0.0, 0.0, 0.0, 0.0, -3175.400576043198, 0.0]
['beep', 0.0, -4196.182393572616, 0.0, 0.0, 0.0, 0.0, -3176.1158318657676, 0.0]
['beep', 0.0, -4196.6294284617225, 0.0, 0.0, 0.0, 0.0, -3177.7922126999156, 0.0]
['beep', 0.0, -4197.724663940032, 0.0, 0.0, 0.0, 0.0, -3178.4404132891195, 0.0]
['beep', 0.0, -4198.931658140619, 0.0, 0.0, 0.0, 0.0, -3177.0769568773458, 0.0]
['beep', 0.0, -4196.964704628552, 0.0, 0.0, 0.0, 0.0, -3178.172192355656, 0.0]
['beep', 0.0, -4198.059940106862, 0.0, 0.0, 0.0, 0.0, -3177.8369161888263, 0.0]
['beep', 0.0, -4196.808242417364, 0.0, 0.0, 0.0, 0.0, -3179.289779578421, 0.0]
['beep', 0.0, -4196.338855783803, 0.0, 0.0, 0.0, 0.0, -3178.3733580557537, 0.0]
['beep', 0.0, -4197.881126151219, 0.0, 0.0, 0.0, 0.0, -3177.4569365330863, 0.0]
['beep', 0.0, -4197.054111606373, 0.0, 0.0, 0.0, 0.0, -3178.4851167780303, 0.0]
['beep', 0.0, -4198.484623251513, 0.0, 0.0, 0.0, 0.0, -3177.4122330441755, 0.0]
['beep', 0.0, -4199.848079663287, 0.0, 0.0, 0.0, 0.0, -3178.0157301444688, 0.0]
['beep', 0.0, -4198.1493470846835, 0.0, 0.0, 0.0, 0.0, -3179.222724345055, 0.0]
['beep', 0.0, -4200.138652341206, 0.0, 0.0, 0.0, 0.0, -3178.909799922681, 0.0]
['beep', 0.0, -4200.138652341206, 0.0, 0.0, 0.0, 0.0, -3178.5074685224854, 0.0]
['beep', 0.0, -4197.5905534733, 0.0, 0.0, 0.0, 0.0, -3179.0662621338683, 0.0]
['beep', 0.0, -4198.842251162798, 0.0, 0.0, 0.0, 0.0, -3179.91562842317, 0.0]
['beep', 0.0, -4200.138652341206, 0.0, 0.0, 0.0, 0.0, -3179.625055745251, 0.0]
['beep', 0.0, -4199.825727918831, 0.0, 0.0, 0.0, 0.0, -3179.5132970229743, 0.0]
['beep', 0.0, -4200.518631996945, 0.0, 0.0, 0.0, 0.0, -3178.5745237558513, 0.0]
['beep', 0.0, -4198.194050573594, 0.0, 0.0, 0.0, 0.0, -3179.222724345055, 0.0]
['beep', 0.0, -4198.998713373985, 0.0, 0.0, 0.0, 0.0, -3180.6308842457397, 0.0]
['beep', 0.0, -4201.256239563971, 0.0, 0.0, 0.0, 0.0, -3181.457898790586, 0.0]
['beep', 0.0, -4199.9151348966525, 0.0, 0.0, 0.0, 0.0, -3181.0332156459353, 0.0]
['beep', 0.0, -4199.043416862895, 0.0, 0.0, 0.0, 0.0, -3181.0108639014798, 0.0]
['beep', 0.0, -4198.529326740423, 0.0, 0.0, 0.0, 0.0, -3181.7708232129603, 0.0]
['beep', 0.0, -4199.9151348966525, 0.0, 0.0, 0.0, 0.0, -3180.228552845544, 0.0]
['beep', 0.0, -4201.703274453077, 0.0, 0.0, 0.0, 0.0, -3180.5414772679187, 0.0]
['beep', 0.0, -4200.920963397141, 0.0, 0.0, 0.0, 0.0, -3181.7708232129603, 0.0]
['beep', 0.0, -4200.83155641932, 0.0, 0.0, 0.0, 0.0, -3180.4073668011865, 0.0]
['beep', 0.0, -4199.468100007546, 0.0, 0.0, 0.0, 0.0, -3180.809698201382, 0.0]
['beep', 0.0, -4200.742149441498, 0.0, 0.0, 0.0, 0.0, -3180.139145867723, 0.0]
['beep', 0.0, -4202.016198875452, 0.0, 0.0, 0.0, 0.0, -3180.273256334455, 0.0]
['beep', 0.0, -4200.920963397141, 0.0, 0.0, 0.0, 0.0, -3181.301436579399, 0.0]
['beep', 0.0, -4199.870431407742, 0.0, 0.0, 0.0, 0.0, -3180.3179598233655, 0.0]
['beep', 0.0, -4199.2669343074485, 0.0, 0.0, 0.0, 0.0, -3180.854401690293, 0.0]
['beep', 0.0, -4202.373826786737, 0.0, 0.0, 0.0, 0.0, -3180.0273871454465, 0.0]
['beep', 0.0, -4202.709102953566, 0.0, 0.0, 0.0, 0.0, -3179.558000511885, 0.0]
['beep', 0.0, -4201.278591308426, 0.0, 0.0, 0.0, 0.0, -3181.457898790586, 0.0]
['beep', 0.0, -4199.35634128527, 0.0, 0.0, 0.0, 0.0, -3181.0108639014798, 0.0]
['beep', 0.0, -4200.920963397141, 0.0, 0.0, 0.0, 0.0, -3180.206201101089, 0.0]
['beep', 0.0, -4200.630390719222, 0.0, 0.0, 0.0, 0.0, -3179.4685935340635, 0.0]
['beep', 0.0, -4200.250411063482, 0.0, 0.0, 0.0, 0.0, -3179.8932766787148, 0.0]
['beep', 0.0, -4200.3845215302135, 0.0, 0.0, 0.0, 0.0, -3181.189677857122, 0.0]
['beep', 0.0, -4200.540983741401, 0.0, 0.0, 0.0, 0.0, -3180.6979394791056, 0.0]
['beep', 0.0, -4200.026893618929, 0.0, 0.0, 0.0, 0.0, -3180.1167941232675, 0.0]
['beep', 0.0, -4201.9714953865405, 0.0, 0.0, 0.0, 0.0, -3179.4685935340635, 0.0]
['beep', 0.0, -4202.7314546980215, 0.0, 0.0, 0.0, 0.0, -3179.5132970229743, 0.0]
['beep', 0.0, -4200.764501185954, 0.0, 0.0, 0.0, 0.0, -3179.558000511885, 0.0]
['beep', 0.0, -4200.675094208133, 0.0, 0.0, 0.0, 0.0, -3179.848573189804, 0.0]
['beep', 0.0, -4201.479757008524, 0.0, 0.0, 0.0, 0.0, -3180.3403115678207, 0.0]
['beep', 0.0, -4203.066730864851, 0.0, 0.0, 0.0, 0.0, -3178.887448178226, 0.0]
['beep', 0.0, -4203.178489587127, 0.0, 0.0, 0.0, 0.0, -3179.3568348117874, 0.0]
['beep', 0.0, -4202.552640742379, 0.0, 0.0, 0.0, 0.0, -3179.6697592341616, 0.0]
['beep', 0.0, -4201.435053519614, 0.0, 0.0, 0.0, 0.0, -3178.3510063112985, 0.0]
['beep', 0.0, -4199.423396518636, 0.0, 0.0, 0.0, 0.0, -3178.4404132891195, 0.0]
['beep', 0.0, -4202.709102953566, 0.0, 0.0, 0.0, 0.0, -3178.172192355656, 0.0]
['beep', 0.0, -4201.949143642085, 0.0, 0.0, 0.0, 0.0, -3178.2168958445664, 0.0]
['beep', 0.0, -4200.898611652686, 0.0, 0.0, 0.0, 0.0, -3177.4345847886307, 0.0]
['beep', 0.0, -4198.68578895161, 0.0, 0.0, 0.0, 0.0, -3178.596875500307, 0.0]
['beep', 0.0, -4199.468100007546, 0.0, 0.0, 0.0, 0.0, -3179.8038697008933, 0.0]
['beep', 0.0, -4201.613867475256, 0.0, 0.0, 0.0, 0.0, -3177.0993086218014, 0.0]
['beep', 0.0, -4203.558469242867, 0.0, 0.0, 0.0, 0.0, -3176.920494666159, 0.0]
['beep', 0.0, -4202.440882020102, 0.0, 0.0, 0.0, 0.0, -3178.395709800209, 0.0]
['beep', 0.0, -4202.060902364362, 0.0, 0.0, 0.0, 0.0, -3177.5463435109073, 0.0]
['beep', 0.0, -4203.245544820493, 0.0, 0.0, 0.0, 0.0, -3176.0487766324018, 0.0]
['beep', 0.0, -4202.530288997923, 0.0, 0.0, 0.0, 0.0, -3177.300474321899, 0.0]
['beep', 0.0, -4201.949143642085, 0.0, 0.0, 0.0, 0.0, -3177.4569365330863, 0.0]
['beep', 0.0, -4202.105605853272, 0.0, 0.0, 0.0, 0.0, -3178.4404132891195, 0.0]
['beep', 0.0, -4202.127957597728, 0.0, 0.0, 0.0, 0.0, -3177.523991766452, 0.0]
['beep', 0.0, -4200.317466296848, 0.0, 0.0, 0.0, 0.0, -3177.322826066354, 0.0]
['beep', 0.0, -4201.21153607506, 0.0, 0.0, 0.0, 0.0, -3176.29464582141, 0.0]
['beep', 0.0, -4202.127957597728, 0.0, 0.0, 0.0, 0.0, -3176.920494666159, 0.0]
['beep', 0.0, -4203.781986687421, 0.0, 0.0, 0.0, 0.0, -3176.0487766324018, 0.0]
['beep', 0.0, -4203.35730354277, 0.0, 0.0, 0.0, 0.0, -3173.9030091646923, 0.0]
['beep', 0.0, -4203.290248309404, 0.0, 0.0, 0.0, 0.0, -3174.7970789429046, 0.0]
['beep', 0.0, -4203.759634942965, 0.0, 0.0, 0.0, 0.0, -3175.1994103431, 0.0]
['beep', 0.0, -4203.558469242867, 0.0, 0.0, 0.0, 0.0, -3175.2441138320105, 0.0]
['beep', 0.0, -4205.011332632463, 0.0, 0.0, 0.0, 0.0, -3174.8641341762705, 0.0]
['beep', 0.0, -4203.446710520591, 0.0, 0.0, 0.0, 0.0, -3174.975892898547, 0.0]
['beep', 0.0, -4201.7926814308985, 0.0, 0.0, 0.0, 0.0, -3176.4511080325974, 0.0]
['beep', 0.0, -4202.530288997923, 0.0, 0.0, 0.0, 0.0, -3174.707671965083, 0.0]
['beep', 0.0, -4202.7314546980215, 0.0, 0.0, 0.0, 0.0, -3172.137221352723, 0.0]
['beep', 0.0, -4202.329123297825, 0.0, 0.0, 0.0, 0.0, -3174.2159335870665, 0.0]
['beep', 0.0, -4201.435053519614, 0.0, 0.0, 0.0, 0.0, -3174.7747271984495, 0.0]
['beep', 0.0, -4201.390350030702, 0.0, 0.0, 0.0, 0.0, -3172.718366708561, 0.0]
['beep', 0.0, -4200.652742463678, 0.0, 0.0, 0.0, 0.0, -3173.7688986979606, 0.0]
['beep', 0.0, -4200.2057075745715, 0.0, 0.0, 0.0, 0.0, -3173.9253609091475, 0.0]
['beep', 0.0, -4201.725626197533, 0.0, 0.0, 0.0, 0.0, -3173.7912504424157, 0.0]
['beep', 0.0, -4201.613867475256, 0.0, 0.0, 0.0, 0.0, -3173.5006777644967, 0.0]
['beep', 0.0, -4200.518631996945, 0.0, 0.0, 0.0, 0.0, -3173.9924161425133, 0.0]
['beep', 0.0, -4201.725626197533, 0.0, 0.0, 0.0, 0.0, -3174.4170992871645, 0.0]
['beep', 0.0, -4202.664399464655, 0.0, 0.0, 0.0, 0.0, -3174.595913242807, 0.0]
['beep', 0.0, -4202.172661086638, 0.0, 0.0, 0.0, 0.0, -3172.986587642025, 0.0]
['beep', 0.0, -4200.965666886052, 0.0, 0.0, 0.0, 0.0, -3172.4724975195527, 0.0]
['beep', 0.0, -4201.233887819515, 0.0, 0.0, 0.0, 0.0, -3172.137221352723, 0.0]
['beep', 0.0, -4201.3232947973365, 0.0, 0.0, 0.0, 0.0, -3172.7630701974717, 0.0]
['beep', 0.0, -4201.300943052882, 0.0, 0.0, 0.0, 0.0, -3173.433622531131, 0.0]
['beep', 0.0, -4200.429225019125, 0.0, 0.0, 0.0, 0.0, -3172.204276586089, 0.0]
['beep', 0.0, -4198.68578895161, 0.0, 0.0, 0.0, 0.0, -3173.1877533421225, 0.0]
['beep', 0.0, -4199.959838385563, 0.0, 0.0, 0.0, 0.0, -3173.3218638088542, 0.0]
['beep', 0.0, -4200.540983741401, 0.0, 0.0, 0.0, 0.0, -3173.433622531131, 0.0]
['beep', 0.0, -4199.423396518636, 0.0, 0.0, 0.0, 0.0, -3174.2606370759772, 0.0]
['beep', 0.0, -4198.30580929587, 0.0, 0.0, 0.0, 0.0, -3173.2771603199435, 0.0]
['beep', 0.0, -4197.411739517658, 0.0, 0.0, 0.0, 0.0, -3172.450145775097, 0.0]
['beep', 0.0, -4198.529326740423, 0.0, 0.0, 0.0, 0.0, -3171.712538208072, 0.0]
['beep', 0.0, -4199.959838385563, 0.0, 0.0, 0.0, 0.0, -3171.064337618868, 0.0]
['beep', 0.0, -4200.920963397141, 0.0, 0.0, 0.0, 0.0, -3171.466669019064, 0.0]
['beep', 0.0, -4200.764501185954, 0.0, 0.0, 0.0, 0.0, -3171.5784277413404, 0.0]
['beep', 0.0, -4198.998713373985, 0.0, 0.0, 0.0, 0.0, -3172.8524771752927, 0.0]
['beep', 0.0, -4199.490451752002, 0.0, 0.0, 0.0, 0.0, -3173.075994619846, 0.0]
['beep', 0.0, -4201.54681224189, 0.0, 0.0, 0.0, 0.0, -3172.137221352723, 0.0]
['beep', 0.0, -4202.373826786737, 0.0, 0.0, 0.0, 0.0, -3173.38891904222, 0.0]
['beep', 0.0, -4201.0327221194175, 0.0, 0.0, 0.0, 0.0, -3173.433622531131, 0.0]
['beep', 0.0, -4198.708140696066, 0.0, 0.0, 0.0, 0.0, -3172.8301254308376, 0.0]
['beep', 0.0, -4198.238754062504, 0.0, 0.0, 0.0, 0.0, -3175.1100033652788, 0.0]
['beep', 0.0, -4199.222230818538, 0.0, 0.0, 0.0, 0.0, -3174.5288580094407, 0.0]
['beep', 0.0, -4200.652742463678, 0.0, 0.0, 0.0, 0.0, -3173.7018434645947, 0.0]
['beep', 0.0, -4200.16100408566, 0.0, 0.0, 0.0, 0.0, -3173.657139975684, 0.0]
['beep', 0.0, -4199.311637796359, 0.0, 0.0, 0.0, 0.0, -3174.5512097538963, 0.0]
['beep', 0.0, -4201.21153607506, 0.0, 0.0, 0.0, 0.0, -3174.662968476173, 0.0]
['beep', 0.0, -4202.776158186932, 0.0, 0.0, 0.0, 0.0, -3175.9593696545803, 0.0]
['beep', 0.0, -4203.111434353761, 0.0, 0.0, 0.0, 0.0, -3177.1887155996224, 0.0]
['beep', 0.0, -4201.837384919809, 0.0, 0.0, 0.0, 0.0, -3176.495811521508, 0.0]
['beep', 0.0, -4202.887916909208, 0.0, 0.0, 0.0, 0.0, -3175.8699626767593, 0.0]
['beep', 0.0, -4205.436015777113, 0.0, 0.0, 0.0, 0.0, -3175.4899830210193, 0.0]
['beep', 0.0, -4203.826690176331, 0.0, 0.0, 0.0, 0.0, -3175.422927787653, 0.0]
['beep', 0.0, -4198.126995340228, 0.0, 0.0, 0.0, 0.0, -3173.433622531131, 0.0]
['beep', 0.0, -4196.540021483901, 0.0, 0.0, 0.0, 0.0, -3172.137221352723, 0.0]
['beep', 0.0, -4198.819899418342, 0.0, 0.0, 0.0, 0.0, -3172.4724975195527, 0.0]
['beep', 0.0, -4198.372864529236, 0.0, 0.0, 0.0, 0.0, -3172.114869608268, 0.0]
['beep', 0.0, -4201.7926814308985, 0.0, 0.0, 0.0, 0.0, -3171.8913521637146, 0.0]
['beep', 0.0, -4201.5915157308, 0.0, 0.0, 0.0, 0.0, -3172.204276586089, 0.0]
['beep', 0.0, -4198.998713373985, 0.0, 0.0, 0.0, 0.0, -3172.9195324086586, 0.0]
['beep', 0.0, -4199.870431407742, 0.0, 0.0, 0.0, 0.0, -3173.455974275586, 0.0]
['beep', 0.0, -4198.395216273691, 0.0, 0.0, 0.0, 0.0, -3173.1877533421225, 0.0]
['beep', 0.0, -4199.02106511844, 0.0, 0.0, 0.0, 0.0, -3172.785421941927, 0.0]
['beep', 0.0, -4200.988018630507, 0.0, 0.0, 0.0, 0.0, -3171.3772620412424, 0.0]
['beep', 0.0, -4200.742149441498, 0.0, 0.0, 0.0, 0.0, -3171.421965530153, 0.0]
['beep', 0.0, -4201.099777352783, 0.0, 0.0, 0.0, 0.0, -3171.8690004192595, 0.0]
['beep', 0.0, -4200.585687230312, 0.0, 0.0, 0.0, 0.0, -3171.131392852234, 0.0]
['beep', 0.0, -4201.278591308426, 0.0, 0.0, 0.0, 0.0, -3171.1984480856, 0.0]
['beep', 0.0, -4202.105605853272, 0.0, 0.0, 0.0, 0.0, -3171.466669019064, 0.0]
['beep', 0.0, -4201.569163986345, 0.0, 0.0, 0.0, 0.0, -3171.421965530153, 0.0]
['beep', 0.0, -4200.429225019125, 0.0, 0.0, 0.0, 0.0, -3171.399613785698, 0.0]
['beep', 0.0, -4198.864602907253, 0.0, 0.0, 0.0, 0.0, -3171.4443172746087, 0.0]
['beep', 0.0, -4197.434091262114, 0.0, 0.0, 0.0, 0.0, -3171.980759141536, 0.0]
['beep', 0.0, -4196.025931361429, 0.0, 0.0, 0.0, 0.0, -3170.7961166854047, 0.0]
['beep', 0.0, -4193.991922615996, 0.0, 0.0, 0.0, 0.0, -3172.2936835639102, 0.0]
['beep', 0.0, -4192.494355737491, 0.0, 0.0, 0.0, 0.0, -3170.6620062186726, 0.0]
['beep', 0.0, -4193.678998193622, 0.0, 0.0, 0.0, 0.0, -3169.6338259737286, 0.0]
['beep', 0.0, -4197.344684284292, 0.0, 0.0, 0.0, 0.0, -3169.2761980624437, 0.0]
['beep', 0.0, -4197.255277306471, 0.0, 0.0, 0.0, 0.0, -3169.075032362346, 0.0]
['beep', 0.0, -4196.741187183999, 0.0, 0.0, 0.0, 0.0, -3169.097384106801, 0.0]
['beep', 0.0, -4197.3893877732025, 0.0, 0.0, 0.0, 0.0, -3169.2538463179885, 0.0]
['beep', 0.0, -4198.931658140619, 0.0, 0.0, 0.0, 0.0, -3169.0526806178905, 0.0]
['beep', 0.0, -4201.5915157308, 0.0, 0.0, 0.0, 0.0, -3169.5667707403627, 0.0]
['beep', 0.0, -4201.613867475256, 0.0, 0.0, 0.0, 0.0, -3170.751413196494, 0.0]
['beep', 0.0, -4199.490451752002, 0.0, 0.0, 0.0, 0.0, -3170.460840518575, 0.0]
['beep', 0.0, -4197.992884873496, 0.0, 0.0, 0.0, 0.0, -3169.0526806178905, 0.0]
['beep', 0.0, -4198.238754062504, 0.0, 0.0, 0.0, 0.0, -3169.6338259737286, 0.0]
['beep', 0.0, -4198.708140696066, 0.0, 0.0, 0.0, 0.0, -3169.790288184916, 0.0]
['beep', 0.0, -4199.02106511844, 0.0, 0.0, 0.0, 0.0, -3168.516238750963, 0.0]
['beep', 0.0, -4197.747015684487, 0.0, 0.0, 0.0, 0.0, -3168.6056457287846, 0.0]
['beep', 0.0, -4195.131861583217, 0.0, 0.0, 0.0, 0.0, -3168.8291631733377, 0.0]
['beep', 0.0, -4195.40008251668, 0.0, 0.0, 0.0, 0.0, -3169.6338259737286, 0.0]
['beep', 0.0, -4196.025931361429, 0.0, 0.0, 0.0, 0.0, -3170.527895751941, 0.0]
['beep', 0.0, -4196.6294284617225, 0.0, 0.0, 0.0, 0.0, -3171.399613785698, 0.0]
['beep', 0.0, -4196.584724972811, 0.0, 0.0, 0.0, 0.0, -3170.6396544742174, 0.0]
['beep', 0.0, -4194.953047627574, 0.0, 0.0, 0.0, 0.0, -3170.527895751941, 0.0]
['beep', 0.0, -4195.713006939055, 0.0, 0.0, 0.0, 0.0, -3171.6678347191614, 0.0]
['beep', 0.0, -4195.534192983412, 0.0, 0.0, 0.0, 0.0, -3171.556075996885, 0.0]
['beep', 0.0, -4195.8694691502415, 0.0, 0.0, 0.0, 0.0, -3171.712538208072, 0.0]
['beep', 0.0, -4194.796585416387, 0.0, 0.0, 0.0, 0.0, -3171.109041107779, 0.0]
['beep', 0.0, -4194.483660994013, 0.0, 0.0, 0.0, 0.0, -3169.790288184916, 0.0]
['beep', 0.0, -4195.02010286094, 0.0, 0.0, 0.0, 0.0, -3168.560942239874, 0.0]
['beep', 0.0, -4194.1036813382725, 0.0, 0.0, 0.0, 0.0, -3170.2820265629325, 0.0]
['beep', 0.0, -4192.963742371052, 0.0, 0.0, 0.0, 0.0, -3171.8690004192595, 0.0]
['beep', 0.0, -4194.349550527281, 0.0, 0.0, 0.0, 0.0, -3171.3549102967872, 0.0]
['beep', 0.0, -4197.478794751024, 0.0, 0.0, 0.0, 0.0, -3169.1867910846227, 0.0]
['beep', 0.0, -4198.68578895161, 0.0, 0.0, 0.0, 0.0, -3169.9020469071925, 0.0]
['beep', 0.0, -4198.417568018147, 0.0, 0.0, 0.0, 0.0, -3170.9525788965916, 0.0]
['beep', 0.0, -4197.255277306471, 0.0, 0.0, 0.0, 0.0, -3172.2266283305444, 0.0]
['beep', 0.0, -4198.238754062504, 0.0, 0.0, 0.0, 0.0, -3173.880657420237, 0.0]
['beep', 0.0, -4197.814070917853, 0.0, 0.0, 0.0, 0.0, -3173.2101050865776, 0.0]
['beep', 0.0, -4197.881126151219, 0.0, 0.0, 0.0, 0.0, -3174.10417486479, 0.0]
['beep', 0.0, -4198.395216273691, 0.0, 0.0, 0.0, 0.0, -3173.7688986979606, 0.0]
['beep', 0.0, -4198.730492440521, 0.0, 0.0, 0.0, 0.0, -3173.947712653603, 0.0]
['beep', 0.0, -4198.9763616295295, 0.0, 0.0, 0.0, 0.0, -3174.327692309343, 0.0]
['beep', 0.0, -4199.535155240912, 0.0, 0.0, 0.0, 0.0, -3173.8583056757816, 0.0]
['beep', 0.0, -4198.842251162798, 0.0, 0.0, 0.0, 0.0, -3175.333520809832, 0.0]
['beep', 0.0, -4199.73632094101, 0.0, 0.0, 0.0, 0.0, -3174.4841545205304, 0.0]
['beep', 0.0, -4199.959838385563, 0.0, 0.0, 0.0, 0.0, -3174.595913242807, 0.0]
['beep', 0.0, -4200.742149441498, 0.0, 0.0, 0.0, 0.0, -3174.5512097538963, 0.0]
['beep', 0.0, -4199.9151348966525, 0.0, 0.0, 0.0, 0.0, -3174.1488783537006, 0.0]
['beep', 0.0, -4199.602210474278, 0.0, 0.0, 0.0, 0.0, -3175.1547068541895, 0.0]
['beep', 0.0, -4201.122129097239, 0.0, 0.0, 0.0, 0.0, -3175.713500465572, 0.0]
['beep', 0.0, -4201.21153607506, 0.0, 0.0, 0.0, 0.0, -3176.875791177248, 0.0]
['beep', 0.0, -4201.233887819515, 0.0, 0.0, 0.0, 0.0, -3175.691148721117, 0.0]
['beep', 0.0, -4200.473928508035, 0.0, 0.0, 0.0, 0.0, -3174.707671965083, 0.0]
['beep', 0.0, -4200.183355830116, 0.0, 0.0, 0.0, 0.0, -3175.0205963874578, 0.0]
['beep', 0.0, -4200.3845215302135, 0.0, 0.0, 0.0, 0.0, -3175.0876516208236, 0.0]
['beep', 0.0, -4200.473928508035, 0.0, 0.0, 0.0, 0.0, -3174.685320220628, 0.0]
['beep', 0.0, -4199.423396518636, 0.0, 0.0, 0.0, 0.0, -3174.953541154092, 0.0]
['beep', 0.0, -4199.177527329627, 0.0, 0.0, 0.0, 0.0, -3174.9311894096363, 0.0]
['beep', 0.0, -4199.378693029725, 0.0, 0.0, 0.0, 0.0, -3173.5230295089523, 0.0]
['beep', 0.0, -4199.9151348966525, 0.0, 0.0, 0.0, 0.0, -3172.5842562418293, 0.0]
['beep', 0.0, -4200.451576763579, 0.0, 0.0, 0.0, 0.0, -3174.081823120335, 0.0]
['beep', 0.0, -4201.233887819515, 0.0, 0.0, 0.0, 0.0, -3173.746546953505, 0.0]
['beep', 0.0, -4201.1444808416945, 0.0, 0.0, 0.0, 0.0, -3172.5172010084634, 0.0]
['beep', 0.0, -4199.602210474278, 0.0, 0.0, 0.0, 0.0, -3173.075994619846, 0.0]
['beep', 0.0, -4200.429225019125, 0.0, 0.0, 0.0, 0.0, -3173.6124364867733, 0.0]
['beep', 0.0, -4201.502108752979, 0.0, 0.0, 0.0, 0.0, -3172.8301254308376, 0.0]
['beep', 0.0, -4200.16100408566, 0.0, 0.0, 0.0, 0.0, -3171.176096341145, 0.0]
['beep', 0.0, -4198.819899418342, 0.0, 0.0, 0.0, 0.0, -3170.527895751941, 0.0]
['beep', 0.0, -4198.574030229334, 0.0, 0.0, 0.0, 0.0, -3170.5725992408516, 0.0]
['beep', 0.0, -4199.110472096261, 0.0, 0.0, 0.0, 0.0, -3171.131392852234, 0.0]
['beep', 0.0, -4199.646913963189, 0.0, 0.0, 0.0, 0.0, -3173.455974275586, 0.0]
['beep', 0.0, -4200.742149441498, 0.0, 0.0, 0.0, 0.0, -3173.813602186871, 0.0]
['beep', 0.0, -4199.982190130018, 0.0, 0.0, 0.0, 0.0, -3173.813602186871, 0.0]
['beep', 0.0, -4199.825727918831, 0.0, 0.0, 0.0, 0.0, -3172.9642358975693, 0.0]
['beep', 0.0, -4201.099777352783, 0.0, 0.0, 0.0, 0.0, -3171.399613785698, 0.0]
['beep', 0.0, -4201.680922708621, 0.0, 0.0, 0.0, 0.0, -3171.421965530153, 0.0]
['beep', 0.0, -4200.429225019125, 0.0, 0.0, 0.0, 0.0, -3170.7067097075833, 0.0]
['beep', 0.0, -4199.848079663287, 0.0, 0.0, 0.0, 0.0, -3171.2431515745106, 0.0]
['beep', 0.0, -4200.07159710784, 0.0, 0.0, 0.0, 0.0, -3172.092517863812, 0.0]
['beep', 0.0, -4200.585687230312, 0.0, 0.0, 0.0, 0.0, -3171.5784277413404, 0.0]
['beep', 0.0, -4199.803376174375, 0.0, 0.0, 0.0, 0.0, -3171.5113725079746, 0.0]
['beep', 0.0, -4200.0939488522945, 0.0, 0.0, 0.0, 0.0, -3170.9302271521365, 0.0]
['beep', 0.0, -4200.004541874474, 0.0, 0.0, 0.0, 0.0, -3171.176096341145, 0.0]
['beep', 0.0, -4200.3845215302135, 0.0, 0.0, 0.0, 0.0, -3171.0196341299575, 0.0]
['beep', 0.0, -4201.300943052882, 0.0, 0.0, 0.0, 0.0, -3170.9302271521365, 0.0]
['beep', 0.0, -4201.5915157308, 0.0, 0.0, 0.0, 0.0, -3172.427794030642, 0.0]
['beep', 0.0, -4201.859736664264, 0.0, 0.0, 0.0, 0.0, -3172.8748289197483, 0.0]
['beep', 0.0, -4201.3232947973365, 0.0, 0.0, 0.0, 0.0, -3172.6736632196503, 0.0]
['beep', 0.0, -4200.138652341206, 0.0, 0.0, 0.0, 0.0, -3172.8077736863825, 0.0]
['beep', 0.0, -4200.317466296848, 0.0, 0.0, 0.0, 0.0, -3171.6454829747063, 0.0]
['beep', 0.0, -4201.435053519614, 0.0, 0.0, 0.0, 0.0, -3171.5784277413404, 0.0]
['beep', 0.0, -4201.859736664264, 0.0, 0.0, 0.0, 0.0, -3173.970064398058, 0.0]
['beep', 0.0, -4200.295114552393, 0.0, 0.0, 0.0, 0.0, -3173.031291130935, 0.0]
['beep', 0.0, -4199.870431407742, 0.0, 0.0, 0.0, 0.0, -3172.003110885991, 0.0]
['beep', 0.0, -4198.708140696066, 0.0, 0.0, 0.0, 0.0, -3172.6066079862844, 0.0]
['beep', 0.0, -4198.439919762602, 0.0, 0.0, 0.0, 0.0, -3173.2101050865776, 0.0]
['beep', 0.0, -4199.2669343074485, 0.0, 0.0, 0.0, 0.0, -3173.4112707866757, 0.0]
['beep', 0.0, -4198.730492440521, 0.0, 0.0, 0.0, 0.0, -3171.690186463617, 0.0]
['beep', 0.0, -4199.490451752002, 0.0, 0.0, 0.0, 0.0, -3171.0196341299575, 0.0]
['beep', 0.0, -4200.585687230312, 0.0, 0.0, 0.0, 0.0, -3171.2207998300555, 0.0]
['beep', 0.0, -4199.691617452099, 0.0, 0.0, 0.0, 0.0, -3171.3772620412424, 0.0]
['beep', 0.0, -4198.30580929587, 0.0, 0.0, 0.0, 0.0, -3174.1935818426114, 0.0]
['beep', 0.0, -4198.819899418342, 0.0, 0.0, 0.0, 0.0, -3175.042948131913, 0.0]
['beep', 0.0, -4199.222230818538, 0.0, 0.0, 0.0, 0.0, -3172.3160353083654, 0.0]
['beep', 0.0, -4199.579858729823, 0.0, 0.0, 0.0, 0.0, -3173.4112707866757, 0.0]
['beep', 0.0, -4201.479757008524, 0.0, 0.0, 0.0, 0.0, -3172.3830905417312, 0.0]
['beep', 0.0, -4200.272762807937, 0.0, 0.0, 0.0, 0.0, -3172.047814374902, 0.0]
['beep', 0.0, -4199.713969196555, 0.0, 0.0, 0.0, 0.0, -3172.6736632196503, 0.0]
['beep', 0.0, -4200.339818041303, 0.0, 0.0, 0.0, 0.0, -3171.8690004192595, 0.0]
['beep', 0.0, -4201.3232947973365, 0.0, 0.0, 0.0, 0.0, -3173.2324568310332, 0.0]
['beep', 0.0, -4201.256239563971, 0.0, 0.0, 0.0, 0.0, -3175.2217620875554, 0.0]
['beep', 0.0, -4199.132823840717, 0.0, 0.0, 0.0, 0.0, -3175.937017910125, 0.0]
['beep', 0.0, -4197.791719173399, 0.0, 0.0, 0.0, 0.0, -3175.0876516208236, 0.0]
['beep', 0.0, -4198.238754062504, 0.0, 0.0, 0.0, 0.0, -3175.311169065377, 0.0]
['beep', 0.0, -4198.462271507057, 0.0, 0.0, 0.0, 0.0, -3176.227590588044, 0.0]
['beep', 0.0, -4199.02106511844, 0.0, 0.0, 0.0, 0.0, -3175.981721399036, 0.0]
['beep', 0.0, -4199.490451752002, 0.0, 0.0, 0.0, 0.0, -3175.4452795321085, 0.0]
['beep', 0.0, -4198.864602907253, 0.0, 0.0, 0.0, 0.0, -3175.981721399036, 0.0]
['beep', 0.0, -4197.724663940032, 0.0, 0.0, 0.0, 0.0, -3177.1440121107116, 0.0]
['beep', 0.0, -4197.523498239934, 0.0, 0.0, 0.0, 0.0, -3177.971026655558, 0.0]
['beep', 0.0, -4196.741187183999, 0.0, 0.0, 0.0, 0.0, -3178.842744689315, 0.0]
['beep', 0.0, -4196.338855783803, 0.0, 0.0, 0.0, 0.0, -3178.3510063112985, 0.0]
['beep', 0.0, -4196.562373228357, 0.0, 0.0, 0.0, 0.0, -3177.5016400219965, 0.0]
['beep', 0.0, -4194.9306958831185, 0.0, 0.0, 0.0, 0.0, -3178.1274888667454, 0.0]
['beep', 0.0, -4195.243620305493, 0.0, 0.0, 0.0, 0.0, -3179.133317367234, 0.0]
['beep', 0.0, -4197.009408117462, 0.0, 0.0, 0.0, 0.0, -3178.9992069005025, 0.0]
['beep', 0.0, -4195.958876128063, 0.0, 0.0, 0.0, 0.0, -3179.7368144675274, 0.0]
['beep', 0.0, -4196.763538928454, 0.0, 0.0, 0.0, 0.0, -3179.58035225634, 0.0]
['beep', 0.0, -4196.003579616974, 0.0, 0.0, 0.0, 0.0, -3178.3510063112985, 0.0]
['beep', 0.0, -4195.154213327672, 0.0, 0.0, 0.0, 0.0, -3178.2168958445664, 0.0]
['beep', 0.0, -4195.511841238957, 0.0, 0.0, 0.0, 0.0, -3178.462765033575, 0.0]
['beep', 0.0, -4196.137690083706, 0.0, 0.0, 0.0, 0.0, -3179.4015383006977, 0.0]
['beep', 0.0, -4196.607076717267, 0.0, 0.0, 0.0, 0.0, -3177.881619677737, 0.0]
['beep', 0.0, -4196.897649395186, 0.0, 0.0, 0.0, 0.0, -3178.529820266941, 0.0]
['beep', 0.0, -4197.2105738175605, 0.0, 0.0, 0.0, 0.0, -3178.462765033575, 0.0]
['beep', 0.0, -4197.679960451122, 0.0, 0.0, 0.0, 0.0, -3178.7309859670386, 0.0]
['beep', 0.0, -4197.903477895675, 0.0, 0.0, 0.0, 0.0, -3178.3510063112985, 0.0]
['beep', 0.0, -4197.031759861918, 0.0, 0.0, 0.0, 0.0, -3178.5745237558513, 0.0]
['beep', 0.0, -4196.092986594795, 0.0, 0.0, 0.0, 0.0, -3178.529820266941, 0.0]
['beep', 0.0, -4196.584724972811, 0.0, 0.0, 0.0, 0.0, -3178.462765033575, 0.0]
['beep', 0.0, -4197.814070917853, 0.0, 0.0, 0.0, 0.0, -3178.82039294486, 0.0]
['beep', 0.0, -4197.612905217756, 0.0, 0.0, 0.0, 0.0, -3178.686282478128, 0.0]
['beep', 0.0, -4195.914172639153, 0.0, 0.0, 0.0, 0.0, -3179.178020856145, 0.0]
['beep', 0.0, -4195.064806349851, 0.0, 0.0, 0.0, 0.0, -3180.787346456927, 0.0]
['beep', 0.0, -4195.891820894697, 0.0, 0.0, 0.0, 0.0, -3180.273256334455, 0.0]
['beep', 0.0, -4196.942352884096, 0.0, 0.0, 0.0, 0.0, -3180.4520702900973, 0.0]
['beep', 0.0, -4196.1600418281605, 0.0, 0.0, 0.0, 0.0, -3180.4744220345524, 0.0]
['beep', 0.0, -4195.534192983412, 0.0, 0.0, 0.0, 0.0, -3179.9603319120806, 0.0]
['beep', 0.0, -4195.0424546053955, 0.0, 0.0, 0.0, 0.0, -3178.328654566843, 0.0]
['beep', 0.0, -4194.908344138664, 0.0, 0.0, 0.0, 0.0, -3177.7698609554604, 0.0]
['beep', 0.0, -4194.7518819274765, 0.0, 0.0, 0.0, 0.0, -3180.139145867723, 0.0]
['beep', 0.0, -4196.227097061526, 0.0, 0.0, 0.0, 0.0, -3179.7144627230723, 0.0]
['beep', 0.0, -4198.0375883624065, 0.0, 0.0, 0.0, 0.0, -3178.395709800209, 0.0]
['beep', 0.0, -4196.472966250535, 0.0, 0.0, 0.0, 0.0, -3178.3510063112985, 0.0]
['beep', 0.0, -4196.562373228357, 0.0, 0.0, 0.0, 0.0, -3177.7922126999156, 0.0]
['beep', 0.0, -4197.031759861918, 0.0, 0.0, 0.0, 0.0, -3178.82039294486, 0.0]
['beep', 0.0, -4196.07063485034, 0.0, 0.0, 0.0, 0.0, -3180.9885121570246, 0.0]
['beep', 0.0, -4196.092986594795, 0.0, 0.0, 0.0, 0.0, -3179.222724345055, 0.0]
['beep', 0.0, -4194.997751116485, 0.0, 0.0, 0.0, 0.0, -3177.1440121107116, 0.0]
['beep', 0.0, -4195.2212685610375, 0.0, 0.0, 0.0, 0.0, -3177.903971422192, 0.0]
['beep', 0.0, -4195.310675538859, 0.0, 0.0, 0.0, 0.0, -3177.658102233184, 0.0]
['beep', 0.0, -4194.774233671932, 0.0, 0.0, 0.0, 0.0, -3177.3451778108097, 0.0]
['beep', 0.0, -4194.506012738468, 0.0, 0.0, 0.0, 0.0, -3177.278122577444, 0.0]
['beep', 0.0, -4193.768405171443, 0.0, 0.0, 0.0, 0.0, -3178.0604336333795, 0.0]
['beep', 0.0, -4195.176565072127, 0.0, 0.0, 0.0, 0.0, -3179.1556691116893, 0.0]
['beep', 0.0, -4196.048283105884, 0.0, 0.0, 0.0, 0.0, -3178.8650964337703, 0.0]
['beep', 0.0, -4196.45061450608, 0.0, 0.0, 0.0, 0.0, -3179.3121313228767, 0.0]
['beep', 0.0, -4195.623599961234, 0.0, 0.0, 0.0, 0.0, -3179.245076089511, 0.0]
['beep', 0.0, -4195.176565072127, 0.0, 0.0, 0.0, 0.0, -3180.0273871454465, 0.0]
['beep', 0.0, -4195.6906551945995, 0.0, 0.0, 0.0, 0.0, -3181.234381346033, 0.0]
['beep', 0.0, -4196.674131950633, 0.0, 0.0, 0.0, 0.0, -3180.519125523463, 0.0]
['beep', 0.0, -4196.271800550438, 0.0, 0.0, 0.0, 0.0, -3180.4073668011865, 0.0]
['beep', 0.0, -4196.294152294892, 0.0, 0.0, 0.0, 0.0, -3179.647407489706, 0.0]
['beep', 0.0, -4194.684826694111, 0.0, 0.0, 0.0, 0.0, -3181.1226226237563, 0.0]
['beep', 0.0, -4196.87529765073, 0.0, 0.0, 0.0, 0.0, -3179.781517956438, 0.0]
['beep', 0.0, -4199.311637796359, 0.0, 0.0, 0.0, 0.0, -3179.0215586449576, 0.0]
['beep', 0.0, -4199.959838385563, 0.0, 0.0, 0.0, 0.0, -3180.7426429680163, 0.0]
['beep', 0.0, -4198.082291851317, 0.0, 0.0, 0.0, 0.0, -3179.6027040007957, 0.0]
['beep', 0.0, -4196.562373228357, 0.0, 0.0, 0.0, 0.0, -3181.4802505350413, 0.0]
['beep', 0.0, -4196.048283105884, 0.0, 0.0, 0.0, 0.0, -3182.262561590977, 0.0]
['beep', 0.0, -4194.863640649753, 0.0, 0.0, 0.0, 0.0, -3180.519125523463, 0.0]
['beep', 0.0, -4193.611942960256, 0.0, 0.0, 0.0, 0.0, -3180.0273871454465, 0.0]
['beep', 0.0, -4192.11437608175, 0.0, 0.0, 0.0, 0.0, -3180.586180756829, 0.0]
['beep', 0.0, -4191.9355621261075, 0.0, 0.0, 0.0, 0.0, -3179.8262214453484, 0.0]
['beep', 0.0, -4192.740224926499, 0.0, 0.0, 0.0, 0.0, -3180.4520702900973, 0.0]
['beep', 0.0, -4195.131861583217, 0.0, 0.0, 0.0, 0.0, -3180.519125523463, 0.0]
['beep', 0.0, -4197.456443006568, 0.0, 0.0, 0.0, 0.0, -3179.647407489706, 0.0]
['beep', 0.0, -4196.763538928454, 0.0, 0.0, 0.0, 0.0, -3179.6697592341616, 0.0]
['beep', 0.0, -4197.255277306471, 0.0, 0.0, 0.0, 0.0, -3181.144974368212, 0.0]
['beep', 0.0, -4198.842251162798, 0.0, 0.0, 0.0, 0.0, -3181.6143610017734, 0.0]
['beep', 0.0, -4199.378693029725, 0.0, 0.0, 0.0, 0.0, -3180.9885121570246, 0.0]
['beep', 0.0, -4198.216402318049, 0.0, 0.0, 0.0, 0.0, -3181.3461400683095, 0.0]
['beep', 0.0, -4196.674131950633, 0.0, 0.0, 0.0, 0.0, -3181.2567330904885, 0.0]
['beep', 0.0, -4196.718835439544, 0.0, 0.0, 0.0, 0.0, -3182.7095964800833, 0.0]
['beep', 0.0, -4197.769367428943, 0.0, 0.0, 0.0, 0.0, -3184.162459869678, 0.0]
['beep', 0.0, -4197.5905534733, 0.0, 0.0, 0.0, 0.0, -3184.229515103044, 0.0]
['beep', 0.0, -4197.612905217756, 0.0, 0.0, 0.0, 0.0, -3184.6318465032396, 0.0]
['beep', 0.0, -4197.121166839739, 0.0, 0.0, 0.0, 0.0, -3184.5424395254186, 0.0]
['beep', 0.0, -4196.741187183999, 0.0, 0.0, 0.0, 0.0, -3182.776651713449, 0.0]
['beep', 0.0, -4196.964704628552, 0.0, 0.0, 0.0, 0.0, -3183.6930732361166, 0.0]
['beep', 0.0, -4197.165870328649, 0.0, 0.0, 0.0, 0.0, -3184.8330122033376, 0.0]
['beep', 0.0, -4196.45061450608, 0.0, 0.0, 0.0, 0.0, -3185.4141575591752, 0.0]
['beep', 0.0, -4195.936524383607, 0.0, 0.0, 0.0, 0.0, -3184.7659569699717, 0.0]
['beep', 0.0, -4195.265972049949, 0.0, 0.0, 0.0, 0.0, -3183.849535447304, 0.0]
['beep', 0.0, -4196.607076717267, 0.0, 0.0, 0.0, 0.0, -3183.6930732361166, 0.0]
['beep', 0.0, -4197.702312195577, 0.0, 0.0, 0.0, 0.0, -3183.9612941695805, 0.0]
['beep', 0.0, -4197.3893877732025, 0.0, 0.0, 0.0, 0.0, -3183.7377767250273, 0.0]
['beep', 0.0, -4197.143518584195, 0.0, 0.0, 0.0, 0.0, -3184.4753842920527, 0.0]
['beep', 0.0, -4196.383559272714, 0.0, 0.0, 0.0, 0.0, -3184.229515103044, 0.0]
['beep', 0.0, -4196.294152294892, 0.0, 0.0, 0.0, 0.0, -3184.7659569699717, 0.0]
['beep', 0.0, -4197.2105738175605, 0.0, 0.0, 0.0, 0.0, -3185.8835441927367, 0.0]
['beep', 0.0, -4196.025931361429, 0.0, 0.0, 0.0, 0.0, -3187.626980260251, 0.0]
['beep', 0.0, -4195.198916816583, 0.0, 0.0, 0.0, 0.0, -3185.9953029150133, 0.0]
['beep', 0.0, -4194.997751116485, 0.0, 0.0, 0.0, 0.0, -3184.944770925614, 0.0]
['beep', 0.0, -4196.316504039348, 0.0, 0.0, 0.0, 0.0, -3185.39180581472, 0.0]
['beep', 0.0, -4197.232925562015, 0.0, 0.0, 0.0, 0.0, -3185.101233136801, 0.0]
['beep', 0.0, -4197.367036028747, 0.0, 0.0, 0.0, 0.0, -3184.7659569699717, 0.0]
['beep', 0.0, -4195.668303450144, 0.0, 0.0, 0.0, 0.0, -3184.7659569699717, 0.0]
['beep', 0.0, -4194.483660994013, 0.0, 0.0, 0.0, 0.0, -3185.2576953479884, 0.0]
['beep', 0.0, -4195.444786005591, 0.0, 0.0, 0.0, 0.0, -3185.9505994261026, 0.0]
['beep', 0.0, -4197.076463350829, 0.0, 0.0, 0.0, 0.0, -3185.77178547046, 0.0]
['beep', 0.0, -4196.942352884096, 0.0, 0.0, 0.0, 0.0, -3186.129413381745, 0.0]
['beep', 0.0, -4195.064806349851, 0.0, 0.0, 0.0, 0.0, -3186.2858755929324, 0.0]
['beep', 0.0, -4195.73535868351, 0.0, 0.0, 0.0, 0.0, -3185.1906401146225, 0.0]
['beep', 0.0, -4196.6294284617225, 0.0, 0.0, 0.0, 0.0, -3184.7659569699717, 0.0]
['beep', 0.0, -4197.814070917853, 0.0, 0.0, 0.0, 0.0, -3184.0507011474015, 0.0]
['beep', 0.0, -4197.8587744067645, 0.0, 0.0, 0.0, 0.0, -3184.453032547597, 0.0]
['beep', 0.0, -4196.07063485034, 0.0, 0.0, 0.0, 0.0, -3185.168288370167, 0.0]
['beep', 0.0, -4196.45061450608, 0.0, 0.0, 0.0, 0.0, -3185.0565296478903, 0.0]
['beep', 0.0, -4196.361207528259, 0.0, 0.0, 0.0, 0.0, -3185.369454070265, 0.0]
['beep', 0.0, -4196.137690083706, 0.0, 0.0, 0.0, 0.0, -3186.10706163729, 0.0]
['beep', 0.0, -4196.852945906276, 0.0, 0.0, 0.0, 0.0, -3185.660026748184, 0.0]
['beep', 0.0, -4195.35537902777, 0.0, 0.0, 0.0, 0.0, -3183.424852302653, 0.0]
['beep', 0.0, -4194.148384827183, 0.0, 0.0, 0.0, 0.0, -3182.776651713449, 0.0]
['beep', 0.0, -4194.438957505102, 0.0, 0.0, 0.0, 0.0, -3185.101233136801, 0.0]
['beep', 0.0, -4194.573067971834, 0.0, 0.0, 0.0, 0.0, -3185.369454070265, 0.0]
['beep', 0.0, -4194.528364482923, 0.0, 0.0, 0.0, 0.0, -3184.095404636312, 0.0]
['beep', 0.0, -4194.327198782826, 0.0, 0.0, 0.0, 0.0, -3183.3801488137424, 0.0]
['beep', 0.0, -4194.550716227379, 0.0, 0.0, 0.0, 0.0, -3183.8942389362146, 0.0]
['beep', 0.0, -4195.02010286094, 0.0, 0.0, 0.0, 0.0, -3185.078881392346, 0.0]
['beep', 0.0, -4196.249448805982, 0.0, 0.0, 0.0, 0.0, -3186.5540965263963, 0.0]
['beep', 0.0, -4195.623599961234, 0.0, 0.0, 0.0, 0.0, -3185.8388407038265, 0.0]
['beep', 0.0, -4194.6401232052, 0.0, 0.0, 0.0, 0.0, -3185.682378492639, 0.0]
['beep', 0.0, -4194.528364482923, 0.0, 0.0, 0.0, 0.0, -3185.8835441927367, 0.0]
['beep', 0.0, -4195.377730772225, 0.0, 0.0, 0.0, 0.0, -3185.6153232592733, 0.0]
['beep', 0.0, -4195.914172639153, 0.0, 0.0, 0.0, 0.0, -3185.5482680259074, 0.0]
['beep', 0.0, -4195.154213327672, 0.0, 0.0, 0.0, 0.0, -3185.2576953479884, 0.0]
['beep', 0.0, -4195.780062172421, 0.0, 0.0, 0.0, 0.0, -3186.040006403924, 0.0]
['beep', 0.0, -4196.204745317072, 0.0, 0.0, 0.0, 0.0, -3186.5764482708514, 0.0]
['beep', 0.0, -4194.707178438566, 0.0, 0.0, 0.0, 0.0, -3185.7047302370943, 0.0]
['beep', 0.0, -4196.048283105884, 0.0, 0.0, 0.0, 0.0, -3184.5647912698737, 0.0]
['beep', 0.0, -4196.852945906276, 0.0, 0.0, 0.0, 0.0, -3183.3801488137424, 0.0]
['beep', 0.0, -4195.176565072127, 0.0, 0.0, 0.0, 0.0, -3183.2907418359214, 0.0]
['beep', 0.0, -4194.170736571638, 0.0, 0.0, 0.0, 0.0, -3183.156631369189, 0.0]
['beep', 0.0, -4195.02010286094, 0.0, 0.0, 0.0, 0.0, -3185.101233136801, 0.0]
['beep', 0.0, -4196.696483695088, 0.0, 0.0, 0.0, 0.0, -3185.5482680259074, 0.0]
['beep', 0.0, -4197.903477895675, 0.0, 0.0, 0.0, 0.0, -3184.810660458882, 0.0]
['beep', 0.0, -4197.635256962211, 0.0, 0.0, 0.0, 0.0, -3184.9671226700693, 0.0]
['beep', 0.0, -4197.5905534733, 0.0, 0.0, 0.0, 0.0, -3184.8553639477927, 0.0]
['beep', 0.0, -4198.551678484879, 0.0, 0.0, 0.0, 0.0, -3185.235343603533, 0.0]
['beep', 0.0, -4199.088120351806, 0.0, 0.0, 0.0, 0.0, -3184.5424395254186, 0.0]
['beep', 0.0, -4198.752844184976, 0.0, 0.0, 0.0, 0.0, -3184.810660458882, 0.0]
['beep', 0.0, -4198.417568018147, 0.0, 0.0, 0.0, 0.0, -3185.458861048086, 0.0]
['beep', 0.0, -4197.411739517658, 0.0, 0.0, 0.0, 0.0, -3183.3577970692872, 0.0]
['beep', 0.0, -4198.0375883624065, 0.0, 0.0, 0.0, 0.0, -3182.910762180181, 0.0]
['beep', 0.0, -4198.663437207155, 0.0, 0.0, 0.0, 0.0, -3183.760128469483, 0.0]
['beep', 0.0, -4197.791719173399, 0.0, 0.0, 0.0, 0.0, -3184.6318465032396, 0.0]
['beep', 0.0, -4196.718835439544, 0.0, 0.0, 0.0, 0.0, -3183.3577970692872, 0.0]
['beep', 0.0, -4195.914172639153, 0.0, 0.0, 0.0, 0.0, -3182.48607903553, 0.0]
['beep', 0.0, -4196.495317994991, 0.0, 0.0, 0.0, 0.0, -3184.207163358589, 0.0]
['beep', 0.0, -4197.121166839739, 0.0, 0.0, 0.0, 0.0, -3184.3412738253205, 0.0]
['beep', 0.0, -4197.948181384585, 0.0, 0.0, 0.0, 0.0, -3183.8942389362146, 0.0]
['beep', 0.0, -4196.897649395186, 0.0, 0.0, 0.0, 0.0, -3183.4472040471082, 0.0]
['beep', 0.0, -4196.517669739445, 0.0, 0.0, 0.0, 0.0, -3183.782480213938, 0.0]
['beep', 0.0, -4197.2105738175605, 0.0, 0.0, 0.0, 0.0, -3184.721253481061, 0.0]
['beep', 0.0, -4197.255277306471, 0.0, 0.0, 0.0, 0.0, -3185.2800470924435, 0.0]
['beep', 0.0, -4197.076463350829, 0.0, 0.0, 0.0, 0.0, -3184.6094947587844, 0.0]
['beep', 0.0, -4196.540021483901, 0.0, 0.0, 0.0, 0.0, -3183.6036662582956, 0.0]
['beep', 0.0, -4196.11533833925, 0.0, 0.0, 0.0, 0.0, -3183.514259280474, 0.0]
['beep', 0.0, -4196.897649395186, 0.0, 0.0, 0.0, 0.0, -3183.6483697472063, 0.0]
['beep', 0.0, -4198.283457551415, 0.0, 0.0, 0.0, 0.0, -3183.871887191759, 0.0]
['beep', 0.0, -4198.842251162798, 0.0, 0.0, 0.0, 0.0, -3183.514259280474, 0.0]
['beep', 0.0, -4197.54584998439, 0.0, 0.0, 0.0, 0.0, -3183.3577970692872, 0.0]
['beep', 0.0, -4195.958876128063, 0.0, 0.0, 0.0, 0.0, -3182.7319482245384, 0.0]
['beep', 0.0, -4196.9200011396415, 0.0, 0.0, 0.0, 0.0, -3182.0613958908793, 0.0]
['beep', 0.0, -4197.679960451122, 0.0, 0.0, 0.0, 0.0, -3182.463727291075, 0.0]
['beep', 0.0, -4197.992884873496, 0.0, 0.0, 0.0, 0.0, -3183.268390091466, 0.0]
['beep', 0.0, -4196.204745317072, 0.0, 0.0, 0.0, 0.0, -3183.0225209024575, 0.0]
['beep', 0.0, -4195.780062172421, 0.0, 0.0, 0.0, 0.0, -3181.524954023952, 0.0]
['beep', 0.0, -4197.367036028747, 0.0, 0.0, 0.0, 0.0, -3181.144974368212, 0.0]
['beep', 0.0, -4198.015236617951, 0.0, 0.0, 0.0, 0.0, -3182.4190238021642, 0.0]
['beep', 0.0, -4197.970533129041, 0.0, 0.0, 0.0, 0.0, -3183.156631369189, 0.0]
['beep', 0.0, -4196.562373228357, 0.0, 0.0, 0.0, 0.0, -3183.9165906806697, 0.0]
['beep', 0.0, -4194.997751116485, 0.0, 0.0, 0.0, 0.0, -3182.9331139246365, 0.0]
['beep', 0.0, -4195.333027283315, 0.0, 0.0, 0.0, 0.0, -3181.837878446326, 0.0]
['beep', 0.0, -4196.45061450608, 0.0, 0.0, 0.0, 0.0, -3179.7368144675274, 0.0]
['beep', 0.0, -4197.188222073105, 0.0, 0.0, 0.0, 0.0, -3180.139145867723, 0.0]
['beep', 0.0, -4196.07063485034, 0.0, 0.0, 0.0, 0.0, -3181.301436579399, 0.0]
['beep', 0.0, -4195.02010286094, 0.0, 0.0, 0.0, 0.0, -3181.1226226237563, 0.0]
['beep', 0.0, -4197.121166839739, 0.0, 0.0, 0.0, 0.0, -3180.787346456927, 0.0]
['beep', 0.0, -4196.852945906276, 0.0, 0.0, 0.0, 0.0, -3181.234381346033, 0.0]
['beep', 0.0, -4195.936524383607, 0.0, 0.0, 0.0, 0.0, -3181.7037679795944, 0.0]
['beep', 0.0, -4195.467137750046, 0.0, 0.0, 0.0, 0.0, -3181.592009257318, 0.0]
['beep', 0.0, -4195.8694691502415, 0.0, 0.0, 0.0, 0.0, -3181.592009257318, 0.0]
['beep', 0.0, -4195.958876128063, 0.0, 0.0, 0.0, 0.0, -3180.0273871454465, 0.0]
['beep', 0.0, -4196.025931361429, 0.0, 0.0, 0.0, 0.0, -3180.6308842457397, 0.0]
['beep', 0.0, -4196.495317994991, 0.0, 0.0, 0.0, 0.0, -3180.161497612178, 0.0]
['beep', 0.0, -4194.885992394208, 0.0, 0.0, 0.0, 0.0, -3179.490945278519, 0.0]
['beep', 0.0, -4194.1036813382725, 0.0, 0.0, 0.0, 0.0, -3179.3121313228767, 0.0]
['beep', 0.0, -4194.885992394208, 0.0, 0.0, 0.0, 0.0, -3178.82039294486, 0.0]
['beep', 0.0, -4195.467137750046, 0.0, 0.0, 0.0, 0.0, -3179.5132970229743, 0.0]
['beep', 0.0, -4195.310675538859, 0.0, 0.0, 0.0, 0.0, -3179.1556691116893, 0.0]
['beep', 0.0, -4194.7518819274765, 0.0, 0.0, 0.0, 0.0, -3180.586180756829, 0.0]
['beep', 0.0, -4194.237791805004, 0.0, 0.0, 0.0, 0.0, -3180.519125523463, 0.0]
['beep', 0.0, -4195.467137750046, 0.0, 0.0, 0.0, 0.0, -3179.2003726006, 0.0]
['beep', 0.0, -4195.489489494502, 0.0, 0.0, 0.0, 0.0, -3179.3568348117874, 0.0]
['beep', 0.0, -4194.684826694111, 0.0, 0.0, 0.0, 0.0, -3179.6697592341616, 0.0]
['beep', 0.0, -4193.991922615996, 0.0, 0.0, 0.0, 0.0, -3178.619227244762, 0.0]
['beep', 0.0, -4193.388425515703, 0.0, 0.0, 0.0, 0.0, -3179.1556691116893, 0.0]
['beep', 0.0, -4194.014274360451, 0.0, 0.0, 0.0, 0.0, -3179.178020856145, 0.0]
['beep', 0.0, -4195.444786005591, 0.0, 0.0, 0.0, 0.0, -3179.848573189804, 0.0]
['beep', 0.0, -4196.271800550438, 0.0, 0.0, 0.0, 0.0, -3179.91562842317, 0.0]
['beep', 0.0, -4195.8694691502415, 0.0, 0.0, 0.0, 0.0, -3179.781517956438, 0.0]
['beep', 0.0, -4195.02010286094, 0.0, 0.0, 0.0, 0.0, -3179.53564876743, 0.0]
['beep', 0.0, -4195.444786005591, 0.0, 0.0, 0.0, 0.0, -3179.4015383006977, 0.0]
['beep', 0.0, -4196.964704628552, 0.0, 0.0, 0.0, 0.0, -3180.6308842457397, 0.0]
['beep', 0.0, -4196.316504039348, 0.0, 0.0, 0.0, 0.0, -3181.7037679795944, 0.0]
['beep', 0.0, -4195.668303450144, 0.0, 0.0, 0.0, 0.0, -3182.10609937979, 0.0]
['beep', 0.0, -4195.556544727868, 0.0, 0.0, 0.0, 0.0, -3180.29560807891, 0.0]
['beep', 0.0, -4196.78589067291, 0.0, 0.0, 0.0, 0.0, -3179.6921109786167, 0.0]
['beep', 0.0, -4197.344684284292, 0.0, 0.0, 0.0, 0.0, -3180.0944423788123, 0.0]
['beep', 0.0, -4197.478794751024, 0.0, 0.0, 0.0, 0.0, -3180.005035400991, 0.0]
['beep', 0.0, -4197.344684284292, 0.0, 0.0, 0.0, 0.0, -3180.1167941232675, 0.0]
['beep', 0.0, -4197.992884873496, 0.0, 0.0, 0.0, 0.0, -3180.720291223561, 0.0]
['beep', 0.0, -4197.411739517658, 0.0, 0.0, 0.0, 0.0, -3181.6143610017734, 0.0]
['beep', 0.0, -4198.238754062504, 0.0, 0.0, 0.0, 0.0, -3181.592009257318, 0.0]
['beep', 0.0, -4198.819899418342, 0.0, 0.0, 0.0, 0.0, -3181.882581935237, 0.0]
['beep', 0.0, -4198.372864529236, 0.0, 0.0, 0.0, 0.0, -3181.5696575128627, 0.0]
['beep', 0.0, -4197.948181384585, 0.0, 0.0, 0.0, 0.0, -3182.128451124245, 0.0]
['beep', 0.0, -4199.110472096261, 0.0, 0.0, 0.0, 0.0, -3183.424852302653, 0.0]
['beep', 0.0, -4198.171698829138, 0.0, 0.0, 0.0, 0.0, -3182.396672057709, 0.0]
['beep', 0.0, -4195.444786005591, 0.0, 0.0, 0.0, 0.0, -3182.0166924019686, 0.0]
['beep', 0.0, -4196.07063485034, 0.0, 0.0, 0.0, 0.0, -3181.748471468505, 0.0]
['beep', 0.0, -4197.92582964013, 0.0, 0.0, 0.0, 0.0, -3181.435547046131, 0.0]
['beep', 0.0, -4198.551678484879, 0.0, 0.0, 0.0, 0.0, -3181.3684918127647, 0.0]
['beep', 0.0, -4198.015236617951, 0.0, 0.0, 0.0, 0.0, -3182.0166924019686, 0.0]
['beep', 0.0, -4196.808242417364, 0.0, 0.0, 0.0, 0.0, -3182.5978377578067, 0.0]
['beep', 0.0, -4196.07063485034, 0.0, 0.0, 0.0, 0.0, -3183.849535447304, 0.0]
['beep', 0.0, -4195.40008251668, 0.0, 0.0, 0.0, 0.0, -3184.9000674367035, 0.0]
['beep', 0.0, -4195.422434261136, 0.0, 0.0, 0.0, 0.0, -3183.6483697472063, 0.0]
['beep', 0.0, -4196.405911017169, 0.0, 0.0, 0.0, 0.0, -3182.3519685687984, 0.0]
['beep', 0.0, -4196.562373228357, 0.0, 0.0, 0.0, 0.0, -3183.8271837028487, 0.0]
['beep', 0.0, -4195.109509838761, 0.0, 0.0, 0.0, 0.0, -3184.2518668474995, 0.0]
['beep', 0.0, -4195.0424546053955, 0.0, 0.0, 0.0, 0.0, -3184.9894744145245, 0.0]
['beep', 0.0, -4196.227097061526, 0.0, 0.0, 0.0, 0.0, -3184.944770925614, 0.0]
['beep', 0.0, -4196.83059416182, 0.0, 0.0, 0.0, 0.0, -3184.3859773142312, 0.0]
['beep', 0.0, -4196.227097061526, 0.0, 0.0, 0.0, 0.0, -3186.397634315209, 0.0]
['beep', 0.0, -4195.511841238957, 0.0, 0.0, 0.0, 0.0, -3187.4481663046085, 0.0]
['beep', 0.0, -4194.707178438566, 0.0, 0.0, 0.0, 0.0, -3187.8728494492593, 0.0]
['beep', 0.0, -4194.662474949655, 0.0, 0.0, 0.0, 0.0, -3187.3811110712422, 0.0]
['beep', 0.0, -4195.73535868351, 0.0, 0.0, 0.0, 0.0, -3188.588105271829, 0.0]
['beep', 0.0, -4195.713006939055, 0.0, 0.0, 0.0, 0.0, -3187.984608171536, 0.0]
['beep', 0.0, -4195.556544727868, 0.0, 0.0, 0.0, 0.0, -3186.710558737583, 0.0]
['beep', 0.0, -4194.573067971834, 0.0, 0.0, 0.0, 0.0, -3186.9340761821363, 0.0]
['beep', 0.0, -4195.422434261136, 0.0, 0.0, 0.0, 0.0, -3187.5152215379744, 0.0]
['beep', 0.0, -4196.338855783803, 0.0, 0.0, 0.0, 0.0, -3188.878677949748, 0.0]
['beep', 0.0, -4196.137690083706, 0.0, 0.0, 0.0, 0.0, -3189.39276807222, 0.0]
['beep', 0.0, -4195.333027283315, 0.0, 0.0, 0.0, 0.0, -3188.6998639941057, 0.0]
['beep', 0.0, -4196.092986594795, 0.0, 0.0, 0.0, 0.0, -3187.8728494492593, 0.0]
['beep', 0.0, -4196.11533833925, 0.0, 0.0, 0.0, 0.0, -3189.258657605488, 0.0]
['beep', 0.0, -4197.434091262114, 0.0, 0.0, 0.0, 0.0, -3190.4433000616195, 0.0]
['beep', 0.0, -4196.987056373007, 0.0, 0.0, 0.0, 0.0, -3190.7338727395386, 0.0]
['beep', 0.0, -4195.40008251668, 0.0, 0.0, 0.0, 0.0, -3190.8679832062703, 0.0]
['beep', 0.0, -4194.9306958831185, 0.0, 0.0, 0.0, 0.0, -3190.1527273837005, 0.0]
['beep', 0.0, -4195.176565072127, 0.0, 0.0, 0.0, 0.0, -3189.1245471387565, 0.0]
['beep', 0.0, -4194.841288905298, 0.0, 0.0, 0.0, 0.0, -3189.7950994724156, 0.0]
['beep', 0.0, -4196.003579616974, 0.0, 0.0, 0.0, 0.0, -3189.303361094399, 0.0]
['beep', 0.0, -4195.780062172421, 0.0, 0.0, 0.0, 0.0, -3191.359721584287, 0.0]
['beep', 0.0, -4195.847117405787, 0.0, 0.0, 0.0, 0.0, -3192.4102535736865, 0.0]
['beep', 0.0, -4195.6906551945995, 0.0, 0.0, 0.0, 0.0, -3190.8009279729044, 0.0]
['beep', 0.0, -4195.6906551945995, 0.0, 0.0, 0.0, 0.0, -3189.035140160935, 0.0]
['beep', 0.0, -4194.438957505102, 0.0, 0.0, 0.0, 0.0, -3188.63280876074, 0.0]
['beep', 0.0, -4192.2261348040265, 0.0, 0.0, 0.0, 0.0, -3188.29753259391, 0.0]
['beep', 0.0, -4190.683864436611, 0.0, 0.0, 0.0, 0.0, -3188.2751808494545, 0.0]
['beep', 0.0, -4189.365111513747, 0.0, 0.0, 0.0, 0.0, -3188.029311660446, 0.0]
['beep', 0.0, -4188.314579524348, 0.0, 0.0, 0.0, 0.0, -3187.626980260251, 0.0]
['beep', 0.0, -4188.515745224446, 0.0, 0.0, 0.0, 0.0, -3187.3140558378764, 0.0]
['beep', 0.0, -4189.54392546939, 0.0, 0.0, 0.0, 0.0, -3186.621151759762, 0.0]
['beep', 0.0, -4190.102719080773, 0.0, 0.0, 0.0, 0.0, -3185.5035645369967, 0.0]
['beep', 0.0, -4191.376768514725, 0.0, 0.0, 0.0, 0.0, -3185.72708198155, 0.0]
['beep', 0.0, -4193.343722026792, 0.0, 0.0, 0.0, 0.0, -3186.5093930374856, 0.0]
['beep', 0.0, -4193.880163893719, 0.0, 0.0, 0.0, 0.0, -3188.5657535273735, 0.0]
['beep', 0.0, -4194.885992394208, 0.0, 0.0, 0.0, 0.0, -3188.5210500384633, 0.0]
['beep', 0.0, -4194.528364482923, 0.0, 0.0, 0.0, 0.0, -3188.9233814386585, 0.0]
['beep', 0.0, -4194.193088316094, 0.0, 0.0, 0.0, 0.0, -3189.1916023721224, 0.0]
['beep', 0.0, -4194.841288905298, 0.0, 0.0, 0.0, 0.0, -3187.939904682625, 0.0]
['beep', 0.0, -4195.265972049949, 0.0, 0.0, 0.0, 0.0, -3187.6046285157954, 0.0]
['beep', 0.0, -4194.997751116485, 0.0, 0.0, 0.0, 0.0, -3189.3480645833097, 0.0]
['beep', 0.0, -4194.282495293915, 0.0, 0.0, 0.0, 0.0, -3189.4374715611307, 0.0]
['beep', 0.0, -4193.947219127085, 0.0, 0.0, 0.0, 0.0, -3189.1245471387565, 0.0]
['beep', 0.0, -4194.126033082728, 0.0, 0.0, 0.0, 0.0, -3190.4656518060747, 0.0]
['beep', 0.0, -4194.506012738468, 0.0, 0.0, 0.0, 0.0, -3190.599762272807, 0.0]
['beep', 0.0, -4193.723701682532, 0.0, 0.0, 0.0, 0.0, -3188.968084927569, 0.0]
['beep', 0.0, -4193.477832493524, 0.0, 0.0, 0.0, 0.0, -3189.951561683603, 0.0]
['beep', 0.0, -4194.327198782826, 0.0, 0.0, 0.0, 0.0, -3191.0244454174576, 0.0]
['beep', 0.0, -4193.8131086603535, 0.0, 0.0, 0.0, 0.0, -3192.209087873589, 0.0]
['beep', 0.0, -4195.377730772225, 0.0, 0.0, 0.0, 0.0, -3190.0633204058795, 0.0]
['beep', 0.0, -4194.774233671932, 0.0, 0.0, 0.0, 0.0, -3188.67751224965, 0.0]
['beep', 0.0, -4194.997751116485, 0.0, 0.0, 0.0, 0.0, -3186.8893726932256, 0.0]
['beep', 0.0, -4194.662474949655, 0.0, 0.0, 0.0, 0.0, -3187.783442471438, 0.0]
['beep', 0.0, -4196.227097061526, 0.0, 0.0, 0.0, 0.0, -3189.035140160935, 0.0]
['beep', 0.0, -4197.411739517658, 0.0, 0.0, 0.0, 0.0, -3188.9010296942033, 0.0]
['beep', 0.0, -4195.891820894697, 0.0, 0.0, 0.0, 0.0, -3187.5152215379744, 0.0]
['beep', 0.0, -4194.818937160842, 0.0, 0.0, 0.0, 0.0, -3187.1575936266895, 0.0]
['beep', 0.0, -4195.891820894697, 0.0, 0.0, 0.0, 0.0, -3189.1916023721224, 0.0]
['beep', 0.0, -4195.243620305493, 0.0, 0.0, 0.0, 0.0, -3190.1750791281556, 0.0]
['beep', 0.0, -4196.249448805982, 0.0, 0.0, 0.0, 0.0, -3189.7950994724156, 0.0]
['beep', 0.0, -4195.288323794403, 0.0, 0.0, 0.0, 0.0, -3188.4092913161867, 0.0]
['beep', 0.0, -4195.623599961234, 0.0, 0.0, 0.0, 0.0, -3187.783442471438, 0.0]
['beep', 0.0, -4196.964704628552, 0.0, 0.0, 0.0, 0.0, -3188.051663404902, 0.0]
['beep', 0.0, -4197.255277306471, 0.0, 0.0, 0.0, 0.0, -3187.3140558378764, 0.0]
['beep', 0.0, -4197.255277306471, 0.0, 0.0, 0.0, 0.0, -3187.5599250268847, 0.0]
['beep', 0.0, -4196.338855783803, 0.0, 0.0, 0.0, 0.0, -3187.716387238072, 0.0]
['beep', 0.0, -4195.444786005591, 0.0, 0.0, 0.0, 0.0, -3188.2528291049994, 0.0]
['beep', 0.0, -4195.333027283315, 0.0, 0.0, 0.0, 0.0, -3187.783442471438, 0.0]
['beep', 0.0, -4195.2212685610375, 0.0, 0.0, 0.0, 0.0, -3187.269352348966, 0.0]
['beep', 0.0, -4195.578896472322, 0.0, 0.0, 0.0, 0.0, -3187.783442471438, 0.0]
['beep', 0.0, -4196.137690083706, 0.0, 0.0, 0.0, 0.0, -3188.878677949748, 0.0]
['beep', 0.0, -4197.478794751024, 0.0, 0.0, 0.0, 0.0, -3186.9564279265915, 0.0]
['beep', 0.0, -4198.529326740423, 0.0, 0.0, 0.0, 0.0, -3186.688206993128, 0.0]
['beep', 0.0, -4198.506974995968, 0.0, 0.0, 0.0, 0.0, -3186.911724437681, 0.0]
['beep', 0.0, -4197.523498239934, 0.0, 0.0, 0.0, 0.0, -3187.1575936266895, 0.0]
['beep', 0.0, -4196.1600418281605, 0.0, 0.0, 0.0, 0.0, -3186.5317447819407, 0.0]
['beep', 0.0, -4195.914172639153, 0.0, 0.0, 0.0, 0.0, -3186.10706163729, 0.0]
['beep', 0.0, -4196.07063485034, 0.0, 0.0, 0.0, 0.0, -3187.5152215379744, 0.0]
['beep', 0.0, -4196.338855783803, 0.0, 0.0, 0.0, 0.0, -3188.722215738561, 0.0]
['beep', 0.0, -4197.255277306471, 0.0, 0.0, 0.0, 0.0, -3186.062358148379, 0.0]
['beep', 0.0, -4196.808242417364, 0.0, 0.0, 0.0, 0.0, -3186.3529308262982, 0.0]
['beep', 0.0, -4195.958876128063, 0.0, 0.0, 0.0, 0.0, -3186.3529308262982, 0.0]
['beep', 0.0, -4196.495317994991, 0.0, 0.0, 0.0, 0.0, -3184.877715692248, 0.0]
['beep', 0.0, -4196.808242417364, 0.0, 0.0, 0.0, 0.0, -3183.156631369189, 0.0]
['beep', 0.0, -4196.204745317072, 0.0, 0.0, 0.0, 0.0, -3184.5647912698737, 0.0]
['beep', 0.0, -4196.182393572616, 0.0, 0.0, 0.0, 0.0, -3184.2742185919547, 0.0]
['beep', 0.0, -4196.517669739445, 0.0, 0.0, 0.0, 0.0, -3183.134279624734, 0.0]
['beep', 0.0, -4196.9200011396415, 0.0, 0.0, 0.0, 0.0, -3183.6930732361166, 0.0]
['beep', 0.0, -4197.076463350829, 0.0, 0.0, 0.0, 0.0, -3182.7095964800833, 0.0]
['beep', 0.0, -4197.299980795381, 0.0, 0.0, 0.0, 0.0, -3181.0555673903905, 0.0]
['beep', 0.0, -4196.964704628552, 0.0, 0.0, 0.0, 0.0, -3182.128451124245, 0.0]
['beep', 0.0, -4196.696483695088, 0.0, 0.0, 0.0, 0.0, -3180.7426429680163, 0.0]
['beep', 0.0, -4196.294152294892, 0.0, 0.0, 0.0, 0.0, -3178.0157301444688, 0.0]
['beep', 0.0, -4196.87529765073, 0.0, 0.0, 0.0, 0.0, -3176.8310876883374, 0.0]
['beep', 0.0, -4196.718835439544, 0.0, 0.0, 0.0, 0.0, -3175.7582039544827, 0.0]
['beep', 0.0, -4196.651780206177, 0.0, 0.0, 0.0, 0.0, -3170.974930641047, 0.0]
['beep', 0.0, -4195.131861583217, 0.0, 0.0, 0.0, 0.0, -3167.488058506019, 0.0]
['beep', 0.0, -4194.617771460745, 0.0, 0.0, 0.0, 0.0, -3164.872904404748, 0.0]
['beep', 0.0, -4195.73535868351, 0.0, 0.0, 0.0, 0.0, -3157.8321049013266, 0.0]
['beep', 0.0, -4197.0988150952835, 0.0, 0.0, 0.0, 0.0, -3152.6017966987847, 0.0]
['beep', 0.0, -4198.574030229334, 0.0, 0.0, 0.0, 0.0, -3147.662061174162, 0.0]
['beep', 0.0, -4199.646913963189, 0.0, 0.0, 0.0, 0.0, -3143.817561127849, 0.0]
['beep', 0.0, -4192.941390626596, 0.0, 0.0, 0.0, 0.0, -3137.782590124916, 0.0]
['beep', 0.0, -4190.035663847407, 0.0, 0.0, 0.0, 0.0, -3132.082895288813, 0.0]
['beep', 0.0, -4190.6391609477, 0.0, 0.0, 0.0, 0.0, -3125.5785376523186, 0.0]
['beep', 0.0, -4192.11437608175, 0.0, 0.0, 0.0, 0.0, -3119.342400949288, 0.0]
['beep', 0.0, -4192.650817948677, 0.0, 0.0, 0.0, 0.0, -3114.04503751338, 0.0]
['beep', 0.0, -4189.54392546939, 0.0, 0.0, 0.0, 0.0, -3105.1713949646232, 0.0]
['beep', 0.0, -4188.247524290982, 0.0, 0.0, 0.0, 0.0, -3099.2928861728774, 0.0]
['beep', 0.0, -4190.214477803049, 0.0, 0.0, 0.0, 0.0, -3096.431862882598, 0.0]
['beep', 0.0, -4186.191163801094, 0.0, 0.0, 0.0, 0.0, -3089.5251738459083, 0.0]
['beep', 0.0, -4188.538096968901, 0.0, 0.0, 0.0, 0.0, -3079.533944074386, 0.0]
['beep', 0.0, -4190.482698736513, 0.0, 0.0, 0.0, 0.0, -3073.4542695825426, 0.0]
['beep', 0.0, -4187.509916723957, 0.0, 0.0, 0.0, 0.0, -3066.1899526345674, 0.0]
['beep', 0.0, -4186.794660901387, 0.0, 0.0, 0.0, 0.0, -3059.976167675992, 0.0]
['beep', 0.0, -4188.024006846429, 0.0, 0.0, 0.0, 0.0, -3054.164714117612, 0.0]
['beep', 0.0, -4188.694559180089, 0.0, 0.0, 0.0, 0.0, -3046.788638447361, 0.0]
['beep', 0.0, -4187.934599868608, 0.0, 0.0, 0.0, 0.0, -3042.139475600657, 0.0]
['beep', 0.0, -4185.565314956345, 0.0, 0.0, 0.0, 0.0, -3039.07728661028, 0.0]
['beep', 0.0, -4185.185335300605, 0.0, 0.0, 0.0, 0.0, -3035.277490052878, 0.0]
['beep', 0.0, -4184.894762622686, 0.0, 0.0, 0.0, 0.0, -3031.0977138397357, 0.0]
['beep', 0.0, -4182.033739332407, 0.0, 0.0, 0.0, 0.0, -3026.4485509930314, 0.0]
['beep', 0.0, -4180.156192798161, 0.0, 0.0, 0.0, 0.0, -3022.8052166468165, 0.0]
['beep', 0.0, -4185.677073678622, 0.0, 0.0, 0.0, 0.0, -3024.1239695696795, 0.0]
['beep', 0.0, -4186.772309156931, 0.0, 0.0, 0.0, 0.0, -3023.8333968917605, 0.0]
['beep', 0.0, -4183.106623066262, 0.0, 0.0, 0.0, 0.0, -3022.559347457808, 0.0]
['beep', 0.0, -4180.849096876275, 0.0, 0.0, 0.0, 0.0, -3020.8606148792046, 0.0]
['beep', 0.0, -4181.586704443301, 0.0, 0.0, 0.0, 0.0, -3019.07247532278, 0.0]
['beep', 0.0, -4186.079405078817, 0.0, 0.0, 0.0, 0.0, -3016.725542154973, 0.0]
['beep', 0.0, -4186.325274267826, 0.0, 0.0, 0.0, 0.0, -3017.016114832892, 0.0]
['beep', 0.0, -4181.765518398943, 0.0, 0.0, 0.0, 0.0, -3018.044295077836, 0.0]
['beep', 0.0, -4182.100794565773, 0.0, 0.0, 0.0, 0.0, -3019.698324167529, 0.0]
['beep', 0.0, -4183.374843999725, 0.0, 0.0, 0.0, 0.0, -3018.178405544568, 0.0]
['beep', 0.0, -4184.49243122249, 0.0, 0.0, 0.0, 0.0, -3017.172577044079, 0.0]
['beep', 0.0, -4184.581838200312, 0.0, 0.0, 0.0, 0.0, -3015.8091206323056, 0.0]
['beep', 0.0, -4182.436070732602, 0.0, 0.0, 0.0, 0.0, -3016.5914316882413, 0.0]
['beep', 0.0, -4181.050262576373, 0.0, 0.0, 0.0, 0.0, -3016.6361351771516, 0.0]
['beep', 0.0, -4183.01721608844, 0.0, 0.0, 0.0, 0.0, -3015.78676888785, 0.0]
['beep', 0.0, -4185.051224833873, 0.0, 0.0, 0.0, 0.0, -3016.5914316882413, 0.0]
['beep', 0.0, -4185.855887634264, 0.0, 0.0, 0.0, 0.0, -3016.3902659881433, 0.0]
['beep', 0.0, -4183.397195744181, 0.0, 0.0, 0.0, 0.0, -3014.6691816650846, 0.0]
['beep', 0.0, -4184.8277073893205, 0.0, 0.0, 0.0, 0.0, -3015.093864809736, 0.0]
['beep', 0.0, -4185.610018445256, 0.0, 0.0, 0.0, 0.0, -3016.3232107547774, 0.0]
['beep', 0.0, -4185.520611467435, 0.0, 0.0, 0.0, 0.0, -3015.2726787653783, 0.0]
['beep', 0.0, -4186.705253923566, 0.0, 0.0, 0.0, 0.0, -3014.5127194538977, 0.0]
['beep', 0.0, -4190.1697743141385, 0.0, 0.0, 0.0, 0.0, -3012.813986875294, 0.0]
['beep', 0.0, -4187.0628818348505, 0.0, 0.0, 0.0, 0.0, -3010.981143829959, 0.0]
['beep', 0.0, -4181.854925376764, 0.0, 0.0, 0.0, 0.0, -3009.4165217180876, 0.0]
['beep', 0.0, -4183.576009699823, 0.0, 0.0, 0.0, 0.0, -3010.4223502185764, 0.0]
['beep', 0.0, -4190.080367336317, 0.0, 0.0, 0.0, 0.0, -3010.914088596593, 0.0]
['beep', 0.0, -4190.080367336317, 0.0, 0.0, 0.0, 0.0, -3011.472882207976, 0.0]
['beep', 0.0, -4184.268913777937, 0.0, 0.0, 0.0, 0.0, -3008.3883414731436, 0.0]
['beep', 0.0, -4181.609056187756, 0.0, 0.0, 0.0, 0.0, -3005.7955391163277, 0.0]
['beep', 0.0, -4184.1795068001165, 0.0, 0.0, 0.0, 0.0, -3007.918954839582, 0.0]
['beep', 0.0, -4188.694559180089, 0.0, 0.0, 0.0, 0.0, -3009.59533567373, 0.0]
['beep', 0.0, -4187.934599868608, 0.0, 0.0, 0.0, 0.0, -3008.567155428786, 0.0]
['beep', 0.0, -4185.9452946120855, 0.0, 0.0, 0.0, 0.0, -3006.2202222609785, 0.0]
['beep', 0.0, -4187.711082424054, 0.0, 0.0, 0.0, 0.0, -3005.4155594605877, 0.0]
['beep', 0.0, -4187.755785912966, 0.0, 0.0, 0.0, 0.0, -3006.242574005434, 0.0]
['beep', 0.0, -4185.341797511792, 0.0, 0.0, 0.0, 0.0, -3005.3261524827662, 0.0]
['beep', 0.0, -4186.995826601485, 0.0, 0.0, 0.0, 0.0, -3005.884946094149, 0.0]
['beep', 0.0, -4188.538096968901, 0.0, 0.0, 0.0, 0.0, -3003.9626960709925, 0.0]
['beep', 0.0, -4183.77717539992, 0.0, 0.0, 0.0, 0.0, -3003.3591989706993, 0.0]
['beep', 0.0, -4182.6595881771555, 0.0, 0.0, 0.0, 0.0, -3004.029751304359, 0.0]
['beep', 0.0, -4188.985131858008, 0.0, 0.0, 0.0, 0.0, -3003.113329781691, 0.0]
['beep', 0.0, -4191.868506892742, 0.0, 0.0, 0.0, 0.0, -3004.946172827026, 0.0]
['beep', 0.0, -4191.265009792449, 0.0, 0.0, 0.0, 0.0, -3005.035579804847, 0.0]
['beep', 0.0, -4185.788832400898, 0.0, 0.0, 0.0, 0.0, -3003.5827164152524, 0.0]
['beep', 0.0, -4184.939466111597, 0.0, 0.0, 0.0, 0.0, -3003.694475137529, 0.0]
['beep', 0.0, -4187.01817834594, 0.0, 0.0, 0.0, 0.0, -3002.6439431481294, 0.0]
['beep', 0.0, -4187.375806257225, 0.0, 0.0, 0.0, 0.0, -3003.113329781691, 0.0]
['beep', 0.0, -4189.029835346918, 0.0, 0.0, 0.0, 0.0, -3002.755701870406, 0.0]
['beep', 0.0, -4189.812146402854, 0.0, 0.0, 0.0, 0.0, -2999.693512880029, 0.0]
['beep', 0.0, -4187.6887306796, 0.0, 0.0, 0.0, 0.0, -3001.012265802892, 0.0]
['beep', 0.0, -4188.2922277798925, 0.0, 0.0, 0.0, 0.0, -3000.274658235867, 0.0]
['beep', 0.0, -4189.521573724935, 0.0, 0.0, 0.0, 0.0, -2999.246477990923, 0.0]
['beep', 0.0, -4189.566277213845, 0.0, 0.0, 0.0, 0.0, -2998.9782570574594, 0.0]
['beep', 0.0, -4185.051224833873, 0.0, 0.0, 0.0, 0.0, -2997.8383180902388, 0.0]
['beep', 0.0, -4184.000692844474, 0.0, 0.0, 0.0, 0.0, -2997.793614601328, 0.0]
['beep', 0.0, -4190.326236525326, 0.0, 0.0, 0.0, 0.0, -2996.9666000564816, 0.0]
['beep', 0.0, -4192.024969103929, 0.0, 0.0, 0.0, 0.0, -2996.541916911831, 0.0]
['beep', 0.0, -4190.862678392253, 0.0, 0.0, 0.0, 0.0, -2994.7314256109507, 0.0]
['beep', 0.0, -4188.649855691177, 0.0, 0.0, 0.0, 0.0, -2995.1561087556015, 0.0]
['beep', 0.0, -4187.219344046038, 0.0, 0.0, 0.0, 0.0, -2996.83248958975, 0.0]
['beep', 0.0, -4188.2922277798925, 0.0, 0.0, 0.0, 0.0, -2996.11723376718, 0.0]
['beep', 0.0, -4191.644989448188, 0.0, 0.0, 0.0, 0.0, -2994.7090738664956, 0.0]
['beep', 0.0, -4191.309713281359, 0.0, 0.0, 0.0, 0.0, -2994.597315144219, 0.0]
['beep', 0.0, -4186.8840678792085, 0.0, 0.0, 0.0, 0.0, -2994.5526116553083, 0.0]
['beep', 0.0, -4184.3583207557585, 0.0, 0.0, 0.0, 0.0, -2994.3290942107556, 0.0]
['beep', 0.0, -4187.576971957323, 0.0, 0.0, 0.0, 0.0, -2993.077396521258, 0.0]
['beep', 0.0, -4187.398158001681, 0.0, 0.0, 0.0, 0.0, -2991.982161042948, 0.0]
['beep', 0.0, -4182.525477710424, 0.0, 0.0, 0.0, 0.0, -2989.4564139194986, 0.0]
['beep', 0.0, -4182.145498054683, 0.0, 0.0, 0.0, 0.0, -2987.40005342961, 0.0]
['beep', 0.0, -4188.783966157909, 0.0, 0.0, 0.0, 0.0, -2989.5458208973196, 0.0]
['beep', 0.0, -4189.7003876805775, 0.0, 0.0, 0.0, 0.0, -2987.6235708741633, 0.0]
['beep', 0.0, -4192.002617359473, 0.0, 0.0, 0.0, 0.0, -2987.02007377387, 0.0]
['beep', 0.0, -4194.438957505102, 0.0, 0.0, 0.0, 0.0, -2986.6400941181296, 0.0]
['beep', 0.0, -4190.25918129196, 0.0, 0.0, 0.0, 0.0, -2984.5166783948757, 0.0]
['beep', 0.0, -4190.214477803049, 0.0, 0.0, 0.0, 0.0, -2985.3883964286324, 0.0]
['beep', 0.0, -4193.5895912158, 0.0, 0.0, 0.0, 0.0, -2985.0978237507134, 0.0]
['beep', 0.0, -4194.371902271736, 0.0, 0.0, 0.0, 0.0, -2984.3378644392333, 0.0]
['beep', 0.0, -4193.611942960256, 0.0, 0.0, 0.0, 0.0, -2982.1250417381575, 0.0]
['beep', 0.0, -4191.823803403831, 0.0, 0.0, 0.0, 0.0, -2981.298027193311, 0.0]
['beep', 0.0, -4190.125070825228, 0.0, 0.0, 0.0, 0.0, -2982.437966160532, 0.0]
['beep', 0.0, -4191.197954559083, 0.0, 0.0, 0.0, 0.0, -2981.879172549149, 0.0]
['beep', 0.0, -4192.8743353932305, 0.0, 0.0, 0.0, 0.0, -2981.566248126775, 0.0]
['beep', 0.0, -4190.527402225423, 0.0, 0.0, 0.0, 0.0, -2980.403957415099, 0.0]
['beep', 0.0, -4189.387463258203, 0.0, 0.0, 0.0, 0.0, -2978.7946318143167, 0.0]
['beep', 0.0, -4190.415643503147, 0.0, 0.0, 0.0, 0.0, -2980.1133847371802, 0.0]
['beep', 0.0, -4191.555582470368, 0.0, 0.0, 0.0, 0.0, -2977.2970649358112, 0.0]
['beep', 0.0, -4189.186297558105, 0.0, 0.0, 0.0, 0.0, -2977.006492257892, 0.0]
['beep', 0.0, -4189.767442913943, 0.0, 0.0, 0.0, 0.0, -2976.760623068884, 0.0]
['beep', 0.0, -4193.880163893719, 0.0, 0.0, 0.0, 0.0, -2977.609989358186, 0.0]
['beep', 0.0, -4197.635256962211, 0.0, 0.0, 0.0, 0.0, -2975.9336085240375, 0.0]
['beep', 0.0, -4195.668303450144, 0.0, 0.0, 0.0, 0.0, -2972.0667567332694, 0.0]
['beep', 0.0, -4187.621675446234, 0.0, 0.0, 0.0, 0.0, -2972.5137916223757, 0.0]
['beep', 0.0, -4188.269876035438, 0.0, 0.0, 0.0, 0.0, -2972.6255503446523, 0.0]
['beep', 0.0, -4192.717873182043, 0.0, 0.0, 0.0, 0.0, -2970.569189854764, 0.0]
['beep', 0.0, -4192.9860941155075, 0.0, 0.0, 0.0, 0.0, -2969.563361354275, 0.0]
['beep', 0.0, -4193.857812149264, 0.0, 0.0, 0.0, 0.0, -2969.563361354275, 0.0]
['beep', 0.0, -4196.383559272714, 0.0, 0.0, 0.0, 0.0, -2969.5186578653647, 0.0]
['beep', 0.0, -4196.07063485034, 0.0, 0.0, 0.0, 0.0, -2969.496306120909, 0.0]
['beep', 0.0, -4195.333027283315, 0.0, 0.0, 0.0, 0.0, -2966.1435444526132, 0.0]
['beep', 0.0, -4195.6906551945995, 0.0, 0.0, 0.0, 0.0, -2968.021090986859, 0.0]
['beep', 0.0, -4194.349550527281, 0.0, 0.0, 0.0, 0.0, -2968.0881462202246, 0.0]
['beep', 0.0, -4191.980265615019, 0.0, 0.0, 0.0, 0.0, -2965.7635647968727, 0.0]
['beep', 0.0, -4192.539059226401, 0.0, 0.0, 0.0, 0.0, -2966.0094339858815, 0.0]
['beep', 0.0, -4196.294152294892, 0.0, 0.0, 0.0, 0.0, -2965.54004735232, 0.0]
['beep', 0.0, -4197.0988150952835, 0.0, 0.0, 0.0, 0.0, -2965.2047711854902, 0.0]
['beep', 0.0, -4189.320408024837, 0.0, 0.0, 0.0, 0.0, -2962.790782784317, 0.0]
['beep', 0.0, -4189.990960358496, 0.0, 0.0, 0.0, 0.0, -2964.288349662823, 0.0]
['beep', 0.0, -4194.014274360451, 0.0, 0.0, 0.0, 0.0, -2964.981253740937, 0.0]
['beep', 0.0, -4193.902515638175, 0.0, 0.0, 0.0, 0.0, -2965.2271229299454, 0.0]
['beep', 0.0, -4196.852945906276, 0.0, 0.0, 0.0, 0.0, -2963.8413147737165, 0.0]
['beep', 0.0, -4198.730492440521, 0.0, 0.0, 0.0, 0.0, -2964.2659979183672, 0.0]
['beep', 0.0, -4195.847117405787, 0.0, 0.0, 0.0, 0.0, -2964.981253740937, 0.0]
['beep', 0.0, -4196.718835439544, 0.0, 0.0, 0.0, 0.0, -2964.8694950186605, 0.0]
['beep', 0.0, -4196.1600418281605, 0.0, 0.0, 0.0, 0.0, -2961.2485124169007, 0.0]
['beep', 0.0, -4191.622637703734, 0.0, 0.0, 0.0, 0.0, -2962.366099639666, 0.0]
['beep', 0.0, -4191.6896929371, 0.0, 0.0, 0.0, 0.0, -2962.2096374284793, 0.0]
['beep', 0.0, -4195.578896472322, 0.0, 0.0, 0.0, 0.0, -2962.656672317585, 0.0]
['beep', 0.0, -4195.467137750046, 0.0, 0.0, 0.0, 0.0, -2961.963768239471, 0.0]
['beep', 0.0, -4194.7518819274765, 0.0, 0.0, 0.0, 0.0, -2961.2932159058114, 0.0]
['beep', 0.0, -4191.332065025815, 0.0, 0.0, 0.0, 0.0, -2960.019166471859, 0.0]
['beep', 0.0, -4193.120204582239, 0.0, 0.0, 0.0, 0.0, -2961.404974628088, 0.0]
['beep', 0.0, -4196.495317994991, 0.0, 0.0, 0.0, 0.0, -2960.8014775277948, 0.0]
['beep', 0.0, -4195.35537902777, 0.0, 0.0, 0.0, 0.0, -2959.505076349387, 0.0]
['beep', 0.0, -4188.7616144134545, 0.0, 0.0, 0.0, 0.0, -2958.476896104443, 0.0]
['beep', 0.0, -4187.554620212868, 0.0, 0.0, 0.0, 0.0, -2960.309739149778, 0.0]
['beep', 0.0, -4192.337893526304, 0.0, 0.0, 0.0, 0.0, -2959.505076349387, 0.0]
['beep', 0.0, -4194.774233671932, 0.0, 0.0, 0.0, 0.0, -2958.186323426524, 0.0]
['beep', 0.0, -4194.908344138664, 0.0, 0.0, 0.0, 0.0, -2960.175628683046, 0.0]
['beep', 0.0, -4192.9860941155075, 0.0, 0.0, 0.0, 0.0, -2959.818000771761, 0.0]
['beep', 0.0, -4191.086195836806, 0.0, 0.0, 0.0, 0.0, -2958.2980821488004, 0.0]
['beep', 0.0, -4191.779099914921, 0.0, 0.0, 0.0, 0.0, -2958.119268193158, 0.0]
['beep', 0.0, -4191.06384409235, 0.0, 0.0, 0.0, 0.0, -2957.9628059819706, 0.0]
['beep', 0.0, -4190.907381881164, 0.0, 0.0, 0.0, 0.0, -2957.046384459303, 0.0]
['beep', 0.0, -4193.276666793427, 0.0, 0.0, 0.0, 0.0, -2957.471067603954, 0.0]
['beep', 0.0, -4194.461309249557, 0.0, 0.0, 0.0, 0.0, -2956.82286701475, 0.0]
['beep', 0.0, -4190.192126058594, 0.0, 0.0, 0.0, 0.0, -2955.928797236538, 0.0]
['beep', 0.0, -4187.666378935144, 0.0, 0.0, 0.0, 0.0, -2955.817038514261, 0.0]
['beep', 0.0, -4189.476870236024, 0.0, 0.0, 0.0, 0.0, -2955.884093747627, 0.0]
['beep', 0.0, -4192.807280159865, 0.0, 0.0, 0.0, 0.0, -2956.465239103465, 0.0]
['beep', 0.0, -4191.779099914921, 0.0, 0.0, 0.0, 0.0, -2956.4205356145544, 0.0]
['beep', 0.0, -4189.566277213845, 0.0, 0.0, 0.0, 0.0, -2955.280596647334, 0.0]
['beep', 0.0, -4188.515745224446, 0.0, 0.0, 0.0, 0.0, -2954.4312303580323, 0.0]
['beep', 0.0, -4189.54392546939, 0.0, 0.0, 0.0, 0.0, -2954.1406576801132, 0.0]
['beep', 0.0, -4191.712044681554, 0.0, 0.0, 0.0, 0.0, -2954.6547478025855, 0.0]
['beep', 0.0, -4194.885992394208, 0.0, 0.0, 0.0, 0.0, -2954.3641751246664, 0.0]
['beep', 0.0, -4196.472966250535, 0.0, 0.0, 0.0, 0.0, -2952.4642768459653, 0.0]
['beep', 0.0, -4190.192126058594, 0.0, 0.0, 0.0, 0.0, -2949.983233211426, 0.0]
['beep', 0.0, -4184.917114367141, 0.0, 0.0, 0.0, 0.0, -2950.273805889345, 0.0]
['beep', 0.0, -4187.889896379697, 0.0, 0.0, 0.0, 0.0, -2950.5867303117193, 0.0]
['beep', 0.0, -4195.109509838761, 0.0, 0.0, 0.0, 0.0, -2951.9725384679487, 0.0]
['beep', 0.0, -4194.617771460745, 0.0, 0.0, 0.0, 0.0, -2949.8714744891495, 0.0]
['beep', 0.0, -4190.437995247602, 0.0, 0.0, 0.0, 0.0, -2950.273805889345, 0.0]
['beep', 0.0, -4189.16394581365, 0.0, 0.0, 0.0, 0.0, -2951.570207067753, 0.0]
['beep', 0.0, -4190.840326647798, 0.0, 0.0, 0.0, 0.0, -2950.7431925229066, 0.0]
['beep', 0.0, -4194.327198782826, 0.0, 0.0, 0.0, 0.0, -2950.96670996746, 0.0]
['beep', 0.0, -4194.170736571638, 0.0, 0.0, 0.0, 0.0, -2950.609082056175, 0.0]
['beep', 0.0, -4187.465213235047, 0.0, 0.0, 0.0, 0.0, -2950.609082056175, 0.0]
['beep', 0.0, -4187.420509746135, 0.0, 0.0, 0.0, 0.0, -2953.2018844129902, 0.0]
['beep', 0.0, -4192.539059226401, 0.0, 0.0, 0.0, 0.0, -2954.0512507022922, 0.0]
['beep', 0.0, -4189.119242324739, 0.0, 0.0, 0.0, 0.0, -2953.313643135267, 0.0]
['beep', 0.0, -4184.335969011303, 0.0, 0.0, 0.0, 0.0, -2951.927834979038, 0.0]
['beep', 0.0, -4185.431204489613, 0.0, 0.0, 0.0, 0.0, -2952.82190475725, 0.0]
['beep', 0.0, -4189.655684191666, 0.0, 0.0, 0.0, 0.0, -2957.8957507486048, 0.0]
['beep', 0.0, -4188.336931268804, 0.0, 0.0, 0.0, 0.0, -2960.06386996077, 0.0]
['beep', 0.0, -4187.398158001681, 0.0, 0.0, 0.0, 0.0, -2960.82382927225, 0.0]
['beep', 0.0, -4190.750919669977, 0.0, 0.0, 0.0, 0.0, -2964.377756640644, 0.0]
['beep', 0.0, -4191.846155148287, 0.0, 0.0, 0.0, 0.0, -2967.7305183089397, 0.0]
['beep', 0.0, -4189.387463258203, 0.0, 0.0, 0.0, 0.0, -2970.859762532683, 0.0]
['beep', 0.0, -4189.454518491569, 0.0, 0.0, 0.0, 0.0, -2972.44673638901, 0.0]
['beep', 0.0, -4190.147422569683, 0.0, 0.0, 0.0, 0.0, -2977.855858547194, 0.0]
['beep', 0.0, -4189.499221980479, 0.0, 0.0, 0.0, 0.0, -2982.281503949345, 0.0]
['beep', 0.0, -4186.057053334362, 0.0, 0.0, 0.0, 0.0, -2987.78003308535, 0.0]
['beep', 0.0, -4189.074538835828, 0.0, 0.0, 0.0, 0.0, -2994.7314256109507, 0.0]
['beep', 0.0, -4190.013312102951, 0.0, 0.0, 0.0, 0.0, -2999.40294020211, 0.0]
['beep', 0.0, -4189.745091169488, 0.0, 0.0, 0.0, 0.0, -3007.1366437836464, 0.0]
['beep', 0.0, -4190.080367336317, 0.0, 0.0, 0.0, 0.0, -3012.7692833863834, 0.0]
['beep', 0.0, -4191.600285959278, 0.0, 0.0, 0.0, 0.0, -3020.078303823269, 0.0]
['beep', 0.0, -4190.572105714334, 0.0, 0.0, 0.0, 0.0, -3026.560309715308, 0.0]
['beep', 0.0, -4191.1085475812615, 0.0, 0.0, 0.0, 0.0, -3033.2658330519002, 0.0]
['beep', 0.0, -4193.1649080711495, 0.0, 0.0, 0.0, 0.0, -3040.306632555322, 0.0]
['beep', 0.0, -4191.9355621261075, 0.0, 0.0, 0.0, 0.0, -3046.69923146954, 0.0]
['beep', 0.0, -4191.6896929371, 0.0, 0.0, 0.0, 0.0, -3053.181237361579, 0.0]
['beep', 0.0, -4192.2261348040265, 0.0, 0.0, 0.0, 0.0, -3058.74682173095, 0.0]
['beep', 0.0, -4192.494355737491, 0.0, 0.0, 0.0, 0.0, -3063.8653712112155, 0.0]
['beep', 0.0, -4193.611942960256, 0.0, 0.0, 0.0, 0.0, -3069.721528258506, 0.0]
['beep', 0.0, -4192.762576670954, 0.0, 0.0, 0.0, 0.0, -3074.460098083031, 0.0]
['beep', 0.0, -4192.0473208483845, 0.0, 0.0, 0.0, 0.0, -3079.1316126741904, 0.0]
['beep', 0.0, -4191.488527237002, 0.0, 0.0, 0.0, 0.0, -3082.171449920112, 0.0]
['beep', 0.0, -4191.01914060344, 0.0, 0.0, 0.0, 0.0, -3085.5465633328636, 0.0]
['beep', 0.0, -4191.197954559083, 0.0, 0.0, 0.0, 0.0, -3090.8439267687713, 0.0]
['beep', 0.0, -4191.533230725912, 0.0, 0.0, 0.0, 0.0, -3095.9848279934918, 0.0]
['beep', 0.0, -4191.153251070172, 0.0, 0.0, 0.0, 0.0, -3099.4493483840643, 0.0]
['beep', 0.0, -4190.97443711453, 0.0, 0.0, 0.0, 0.0, -3103.3162001748324, 0.0]
['beep', 0.0, -4189.92390512513, 0.0, 0.0, 0.0, 0.0, -3107.250107198967, 0.0]
['beep', 0.0, -4190.415643503147, 0.0, 0.0, 0.0, 0.0, -3111.9216217901258, 0.0]
['beep', 0.0, -4190.594457458789, 0.0, 0.0, 0.0, 0.0, -3115.2967352028772, 0.0]
['beep', 0.0, -4191.488527237002, 0.0, 0.0, 0.0, 0.0, -3119.4988631604747, 0.0]
['beep', 0.0, -4190.728567925521, 0.0, 0.0, 0.0, 0.0, -3123.6786393736174, 0.0]
['beep', 0.0, -4191.220306303538, 0.0, 0.0, 0.0, 0.0, -3126.3161452193435, 0.0]
['beep', 0.0, -4191.846155148287, 0.0, 0.0, 0.0, 0.0, -3129.5347964209077, 0.0]
['beep', 0.0, -4191.980265615019, 0.0, 0.0, 0.0, 0.0, -3133.8039796118715, 0.0]
['beep', 0.0, -4191.712044681554, 0.0, 0.0, 0.0, 0.0, -3137.469665702542, 0.0]
['beep', 0.0, -4190.773271414432, 0.0, 0.0, 0.0, 0.0, -3139.6601366591617, 0.0]
['beep', 0.0, -4190.370940014236, 0.0, 0.0, 0.0, 0.0, -3141.5823866823184, 0.0]
['beep', 0.0, -4191.667341192644, 0.0, 0.0, 0.0, 0.0, -3143.459933216564, 0.0]
['beep', 0.0, -4192.248486548482, 0.0, 0.0, 0.0, 0.0, -3145.359831495265, 0.0]
['beep', 0.0, -4190.929733625619, 0.0, 0.0, 0.0, 0.0, -3147.460895474064, 0.0]
['beep', 0.0, -4190.214477803049, 0.0, 0.0, 0.0, 0.0, -3148.556130952374, 0.0]
['beep', 0.0, -4189.320408024837, 0.0, 0.0, 0.0, 0.0, -3149.1819797971225, 0.0]
['beep', 0.0, -4188.739262668999, 0.0, 0.0, 0.0, 0.0, -3151.1936367981, 0.0]
['beep', 0.0, -4189.521573724935, 0.0, 0.0, 0.0, 0.0, -3152.9817763545248, 0.0]
['beep', 0.0, -4189.946256869585, 0.0, 0.0, 0.0, 0.0, -3155.0604885888683, 0.0]
['beep', 0.0, -4189.54392546939, 0.0, 0.0, 0.0, 0.0, -3155.7310409225274, 0.0]
['beep', 0.0, -4189.812146402854, 0.0, 0.0, 0.0, 0.0, -3156.5133519784636, 0.0]
['beep', 0.0, -4190.326236525326, 0.0, 0.0, 0.0, 0.0, -3157.5415322234076, 0.0]
['beep', 0.0, -4190.25918129196, 0.0, 0.0, 0.0, 0.0, -3156.9156833786587, 0.0]
['beep', 0.0, -4188.560448713356, 0.0, 0.0, 0.0, 0.0, -3158.9943956130023, 0.0]
['beep', 0.0, -4188.2922277798925, 0.0, 0.0, 0.0, 0.0, -3159.7990584133936, 0.0]
