['beep', 0.0, -3861.420316865482, 0.0, 0.0, 0.0, 0.0, -2918.467273529443, 0.0]
['beep', 0.0, -3860.682709298457, 0.0, 0.0, 0.0, 0.0, -2917.9308316625156, 0.0]
['beep', 0.0, -3861.129744187563, 0.0, 0.0, 0.0, 0.0, -2920.121302619136, 0.0]
['beep', 0.0, -3861.174447676474, 0.0, 0.0, 0.0, 0.0, -2920.6800962305188, 0.0]
['beep', 0.0, -3860.1239156870743, 0.0, 0.0, 0.0, 0.0, -2918.6237357406303, 0.0]
['beep', 0.0, -3861.5097238433036, 0.0, 0.0, 0.0, 0.0, -2918.668439229541, 0.0]
['beep', 0.0, -3860.8615232540997, 0.0, 0.0, 0.0, 0.0, -2920.411875297055, 0.0]
['beep', 0.0, -3860.6156540650913, 0.0, 0.0, 0.0, 0.0, -2919.629564241119, 0.0]
['beep', 0.0, -3859.855694753611, 0.0, 0.0, 0.0, 0.0, -2918.2437560848903, 0.0]
['beep', 0.0, -3859.498066842326, 0.0, 0.0, 0.0, 0.0, -2917.506148517865, 0.0]
['beep', 0.0, -3860.1239156870743, 0.0, 0.0, 0.0, 0.0, -2918.8696049296386, 0.0]
['beep', 0.0, -3861.7332412878563, 0.0, 0.0, 0.0, 0.0, -2919.115474118647, 0.0]
['beep', 0.0, -3857.776982519267, 0.0, 0.0, 0.0, 0.0, -2920.277764830323, 0.0]
['beep', 0.0, -3857.978148219365, 0.0, 0.0, 0.0, 0.0, -2920.7471514638846, 0.0]
['beep', 0.0, -3860.2803778982616, 0.0, 0.0, 0.0, 0.0, -2920.6130409971524, 0.0]
['beep', 0.0, -3861.397965121027, 0.0, 0.0, 0.0, 0.0, -2920.1660061080465, 0.0]
['beep', 0.0, -3862.5155523437925, 0.0, 0.0, 0.0, 0.0, -2922.3564770646667, 0.0]
['beep', 0.0, -3862.1802761769627, 0.0, 0.0, 0.0, 0.0, -2920.367171808144, 0.0]
['beep', 0.0, -3861.4426686099378, 0.0, 0.0, 0.0, 0.0, -2918.735494462907, 0.0]
['beep', 0.0, -3861.710889543401, 0.0, 0.0, 0.0, 0.0, -2919.1378258631025, 0.0]
['beep', 0.0, -3861.6438343100353, 0.0, 0.0, 0.0, 0.0, -2920.367171808144, 0.0]
['beep', 0.0, -3861.0179854652865, 0.0, 0.0, 0.0, 0.0, -2919.629564241119, 0.0]
['beep', 0.0, -3863.2084564219067, 0.0, 0.0, 0.0, 0.0, -2919.093122374192, 0.0]
['beep', 0.0, -3861.688537798946, 0.0, 0.0, 0.0, 0.0, -2918.5566805072644, 0.0]
['beep', 0.0, -3862.0908691991413, 0.0, 0.0, 0.0, 0.0, -2918.668439229541, 0.0]
['beep', 0.0, -3861.6661860544905, 0.0, 0.0, 0.0, 0.0, -2917.8414246846946, 0.0]
['beep', 0.0, -3860.9509302319207, 0.0, 0.0, 0.0, 0.0, -2918.1990525959795, 0.0]
['beep', 0.0, -3860.5933023206358, 0.0, 0.0, 0.0, 0.0, -2918.9143084185494, 0.0]
['beep', 0.0, -3860.0568604537084, 0.0, 0.0, 0.0, 0.0, -2919.4507502854767, 0.0]
['beep', 0.0, -3860.548598831725, 0.0, 0.0, 0.0, 0.0, -2919.0707706297367, 0.0]
['beep', 0.0, -3860.682709298457, 0.0, 0.0, 0.0, 0.0, -2919.3613433076553, 0.0]
['beep', 0.0, -3861.0626889541973, 0.0, 0.0, 0.0, 0.0, -2919.5625090077533, 0.0]
['beep', 0.0, -3860.2580261538064, 0.0, 0.0, 0.0, 0.0, -2919.0707706297367, 0.0]
['beep', 0.0, -3858.9616249753985, 0.0, 0.0, 0.0, 0.0, -2919.607212496664, 0.0]
['beep', 0.0, -3858.1569621750073, 0.0, 0.0, 0.0, 0.0, -2920.277764830323, 0.0]
['beep', 0.0, -3859.833343009155, 0.0, 0.0, 0.0, 0.0, -2922.1329596201135, 0.0]
['beep', 0.0, -3861.5767790766695, 0.0, 0.0, 0.0, 0.0, -2920.277764830323, 0.0]
['beep', 0.0, -3860.7050610429123, 0.0, 0.0, 0.0, 0.0, -2920.0989508746807, 0.0]
['beep', 0.0, -3858.782811019756, 0.0, 0.0, 0.0, 0.0, -2919.3389915632, 0.0]
['beep', 0.0, -3859.162790675496, 0.0, 0.0, 0.0, 0.0, -2918.400218296077, 0.0]
['beep', 0.0, -3860.5933023206358, 0.0, 0.0, 0.0, 0.0, -2917.707314217963, 0.0]
['beep', 0.0, -3862.359090132605, 0.0, 0.0, 0.0, 0.0, -2918.109645618158, 0.0]
['beep', 0.0, -3860.9732819763763, 0.0, 0.0, 0.0, 0.0, -2918.1990525959795, 0.0]
['beep', 0.0, -3860.2803778982616, 0.0, 0.0, 0.0, 0.0, -2917.5732037512307, 0.0]
['beep', 0.0, -3861.979110476865, 0.0, 0.0, 0.0, 0.0, -2917.6849624735073, 0.0]
['beep', 0.0, -3862.2249796658734, 0.0, 0.0, 0.0, 0.0, -2918.4896252738986, 0.0]
['beep', 0.0, -3860.392136620538, 0.0, 0.0, 0.0, 0.0, -2920.8365584417056, 0.0]
['beep', 0.0, -3859.6545290535128, 0.0, 0.0, 0.0, 0.0, -2920.5012822748763, 0.0]
['beep', 0.0, -3859.207494164407, 0.0, 0.0, 0.0, 0.0, -2917.8861281736054, 0.0]
['beep', 0.0, -3858.782811019756, 0.0, 0.0, 0.0, 0.0, -2917.5285002623204, 0.0]
['beep', 0.0, -3860.2133226648957, 0.0, 0.0, 0.0, 0.0, -2917.126168862125, 0.0]
['beep', 0.0, -3859.743936031334, 0.0, 0.0, 0.0, 0.0, -2917.4837967734097, 0.0]
['beep', 0.0, -3860.548598831725, 0.0, 0.0, 0.0, 0.0, -2918.3331630627113, 0.0]
['beep', 0.0, -3860.9956337208314, 0.0, 0.0, 0.0, 0.0, -2917.8414246846946, 0.0]
['beep', 0.0, -3859.073383697675, 0.0, 0.0, 0.0, 0.0, -2918.5119770183537, 0.0]
['beep', 0.0, -3860.6380058095465, 0.0, 0.0, 0.0, 0.0, -2919.406046796566, 0.0]
['beep', 0.0, -3860.8615232540997, 0.0, 0.0, 0.0, 0.0, -2919.71897121894, 0.0]
['beep', 0.0, -3859.7662877757894, 0.0, 0.0, 0.0, 0.0, -2918.668439229541, 0.0]
['beep', 0.0, -3860.0121569647977, 0.0, 0.0, 0.0, 0.0, -2916.6791339730185, 0.0]
['beep', 0.0, -3861.465020354393, 0.0, 0.0, 0.0, 0.0, -2918.5119770183537, 0.0]
['beep', 0.0, -3860.3474331316274, 0.0, 0.0, 0.0, 0.0, -2919.2942880742894, 0.0]
['beep', 0.0, -3861.040337209742, 0.0, 0.0, 0.0, 0.0, -2918.064942129248, 0.0]
['beep', 0.0, -3861.688537798946, 0.0, 0.0, 0.0, 0.0, -2916.1650438505467, 0.0]
['beep', 0.0, -3861.2415029098397, 0.0, 0.0, 0.0, 0.0, -2915.4274362835213, 0.0]
['beep', 0.0, -3860.7050610429123, 0.0, 0.0, 0.0, 0.0, -2915.695657216985, 0.0]
['beep', 0.0, -3860.14626743153, 0.0, 0.0, 0.0, 0.0, -2916.3662095506443, 0.0]
['beep', 0.0, -3862.2696831547837, 0.0, 0.0, 0.0, 0.0, -2918.3331630627113, 0.0]
['beep', 0.0, -3862.0908691991413, 0.0, 0.0, 0.0, 0.0, -2920.1883578525017, 0.0]
['beep', 0.0, -3861.4426686099378, 0.0, 0.0, 0.0, 0.0, -2919.3389915632, 0.0]
['beep', 0.0, -3860.459191853904, 0.0, 0.0, 0.0, 0.0, -2919.406046796566, 0.0]
['beep', 0.0, -3861.0179854652865, 0.0, 0.0, 0.0, 0.0, -2919.964840407949, 0.0]
['beep', 0.0, -3862.0238139657754, 0.0, 0.0, 0.0, 0.0, -2919.920136919038, 0.0]
['beep', 0.0, -3862.739069788345, 0.0, 0.0, 0.0, 0.0, -2919.182529352013, 0.0]
['beep', 0.0, -3859.878046498066, 0.0, 0.0, 0.0, 0.0, -2919.2272328409235, 0.0]
['beep', 0.0, -3858.224017408373, 0.0, 0.0, 0.0, 0.0, -2918.042590384792, 0.0]
['beep', 0.0, -3857.978148219365, 0.0, 0.0, 0.0, 0.0, -2919.1601776075577, 0.0]
['beep', 0.0, -3857.4193546079823, 0.0, 0.0, 0.0, 0.0, -2917.9308316625156, 0.0]
['beep', 0.0, -3856.5029330853145, 0.0, 0.0, 0.0, 0.0, -2916.3885612950994, 0.0]
['beep', 0.0, -3854.647738295524, 0.0, 0.0, 0.0, 0.0, -2915.8744711726276, 0.0]
['beep', 0.0, -3854.983014462354, 0.0, 0.0, 0.0, 0.0, -2914.756883949862, 0.0]
['beep', 0.0, -3858.0675551971863, 0.0, 0.0, 0.0, 0.0, -2915.8744711726276, 0.0]
['beep', 0.0, -3859.743936031334, 0.0, 0.0, 0.0, 0.0, -2916.6120787396526, 0.0]
['beep', 0.0, -3860.168619175985, 0.0, 0.0, 0.0, 0.0, -2916.3215060617335, 0.0]
['beep', 0.0, -3860.90622674301, 0.0, 0.0, 0.0, 0.0, -2917.439093284499, 0.0]
['beep', 0.0, -3860.4144883649933, 0.0, 0.0, 0.0, 0.0, -2915.986229894904, 0.0]
['beep', 0.0, -3860.6603575540016, 0.0, 0.0, 0.0, 0.0, -2917.8414246846946, 0.0]
['beep', 0.0, -3860.6380058095465, 0.0, 0.0, 0.0, 0.0, -2917.8637764291498, 0.0]
['beep', 0.0, -3860.5038953428148, 0.0, 0.0, 0.0, 0.0, -2914.466311271943, 0.0]
['beep', 0.0, -3860.459191853904, 0.0, 0.0, 0.0, 0.0, -2913.125206604625, 0.0]
['beep', 0.0, -3859.43101160896, 0.0, 0.0, 0.0, 0.0, -2914.7121804609515, 0.0]
['beep', 0.0, -3860.6380058095465, 0.0, 0.0, 0.0, 0.0, -2915.472139772432, 0.0]
['beep', 0.0, -3860.9509302319207, 0.0, 0.0, 0.0, 0.0, -2915.181567094513, 0.0]
['beep', 0.0, -3859.721584286879, 0.0, 0.0, 0.0, 0.0, -2915.6733054725296, 0.0]
['beep', 0.0, -3859.6992325424235, 0.0, 0.0, 0.0, 0.0, -2915.159215350058, 0.0]
['beep', 0.0, -3860.9732819763763, 0.0, 0.0, 0.0, 0.0, -2915.852119428172, 0.0]
['beep', 0.0, -3861.755593032312, 0.0, 0.0, 0.0, 0.0, -2916.790892695295, 0.0]
['beep', 0.0, -3860.5933023206358, 0.0, 0.0, 0.0, 0.0, -2916.5450235062867, 0.0]
['beep', 0.0, -3860.839171509644, 0.0, 0.0, 0.0, 0.0, -2913.9969246383816, 0.0]
['beep', 0.0, -3858.425183108471, 0.0, 0.0, 0.0, 0.0, -2915.829767683717, 0.0]
['beep', 0.0, -3858.514590086292, 0.0, 0.0, 0.0, 0.0, -2915.9415264059935, 0.0]
['beep', 0.0, -3860.794468020734, 0.0, 0.0, 0.0, 0.0, -2915.8744711726276, 0.0]
['beep', 0.0, -3858.71575578639, 0.0, 0.0, 0.0, 0.0, -2917.372038051133, 0.0]
['beep', 0.0, -3858.8945697420327, 0.0, 0.0, 0.0, 0.0, -2915.449788027977, 0.0]
['beep', 0.0, -3859.3863081200493, 0.0, 0.0, 0.0, 0.0, -2916.120340361636, 0.0]
['beep', 0.0, -3859.6545290535128, 0.0, 0.0, 0.0, 0.0, -2917.3943897955883, 0.0]
['beep', 0.0, -3859.6768807979684, 0.0, 0.0, 0.0, 0.0, -2916.410913039555, 0.0]
['beep', 0.0, -3859.6768807979684, 0.0, 0.0, 0.0, 0.0, -2917.014410139848, 0.0]
['beep', 0.0, -3859.140438931041, 0.0, 0.0, 0.0, 0.0, -2916.2991543172784, 0.0]
['beep', 0.0, -3859.43101160896, 0.0, 0.0, 0.0, 0.0, -2914.376904294122, 0.0]
['beep', 0.0, -3857.2852441412506, 0.0, 0.0, 0.0, 0.0, -2916.8355961842058, 0.0]
['beep', 0.0, -3857.553465074714, 0.0, 0.0, 0.0, 0.0, -2917.8190729402395, 0.0]
['beep', 0.0, -3858.134610430552, 0.0, 0.0, 0.0, 0.0, -2916.5226717618316, 0.0]
['beep', 0.0, -3857.262892396795, 0.0, 0.0, 0.0, 0.0, -2916.5226717618316, 0.0]
['beep', 0.0, -3856.5699883186808, 0.0, 0.0, 0.0, 0.0, -2916.723837461929, 0.0]
['beep', 0.0, -3856.9276162299657, 0.0, 0.0, 0.0, 0.0, -2916.9250031620268, 0.0]
['beep', 0.0, -3857.7099272859014, 0.0, 0.0, 0.0, 0.0, -2917.1708723510355, 0.0]
['beep', 0.0, -3858.6263488085688, 0.0, 0.0, 0.0, 0.0, -2915.8744711726276, 0.0]
['beep', 0.0, -3856.7264505298676, 0.0, 0.0, 0.0, 0.0, -2915.807415939262, 0.0]
['beep', 0.0, -3857.5981685636248, 0.0, 0.0, 0.0, 0.0, -2916.701485717474, 0.0]
['beep', 0.0, -3857.6652237969906, 0.0, 0.0, 0.0, 0.0, -2915.852119428172, 0.0]
['beep', 0.0, -3857.1511336745184, 0.0, 0.0, 0.0, 0.0, -2916.76854095084, 0.0]
['beep', 0.0, -3856.838209252144, 0.0, 0.0, 0.0, 0.0, -2917.14852060658, 0.0]
['beep', 0.0, -3856.4358778519486, 0.0, 0.0, 0.0, 0.0, -2917.3273345622224, 0.0]
['beep', 0.0, -3856.324119129672, 0.0, 0.0, 0.0, 0.0, -2917.3049828177673, 0.0]
['beep', 0.0, -3856.4135261074935, 0.0, 0.0, 0.0, 0.0, -2915.2933258167895, 0.0]
['beep', 0.0, -3855.8994359850212, 0.0, 0.0, 0.0, 0.0, -2915.785064194806, 0.0]
['beep', 0.0, -3858.268720897284, 0.0, 0.0, 0.0, 0.0, -2916.8132444397506, 0.0]
['beep', 0.0, -3858.224017408373, 0.0, 0.0, 0.0, 0.0, -2914.868642672139, 0.0]
['beep', 0.0, -3855.7429737738344, 0.0, 0.0, 0.0, 0.0, -2916.723837461929, 0.0]
['beep', 0.0, -3856.2794156407617, 0.0, 0.0, 0.0, 0.0, -2916.9250031620268, 0.0]
['beep', 0.0, -3857.9557964749097, 0.0, 0.0, 0.0, 0.0, -2917.3943897955883, 0.0]
['beep', 0.0, -3859.207494164407, 0.0, 0.0, 0.0, 0.0, -2916.3215060617335, 0.0]
['beep', 0.0, -3857.5981685636248, 0.0, 0.0, 0.0, 0.0, -2916.9250031620268, 0.0]
['beep', 0.0, -3858.872217997577, 0.0, 0.0, 0.0, 0.0, -2917.372038051133, 0.0]
['beep', 0.0, -3858.7381075308454, 0.0, 0.0, 0.0, 0.0, -2916.2991543172784, 0.0]
['beep', 0.0, -3858.0452034527307, 0.0, 0.0, 0.0, 0.0, -2916.477968272921, 0.0]
['beep', 0.0, -3857.888741241544, 0.0, 0.0, 0.0, 0.0, -2916.3662095506443, 0.0]
['beep', 0.0, -3858.201665663918, 0.0, 0.0, 0.0, 0.0, -2915.159215350058, 0.0]
['beep', 0.0, -3859.453363353415, 0.0, 0.0, 0.0, 0.0, -2915.248622327879, 0.0]
['beep', 0.0, -3858.0675551971863, 0.0, 0.0, 0.0, 0.0, -2915.2039188389685, 0.0]
['beep', 0.0, -3857.4193546079823, 0.0, 0.0, 0.0, 0.0, -2916.187395595002, 0.0]
['beep', 0.0, -3856.9946714633315, 0.0, 0.0, 0.0, 0.0, -2916.43326478401, 0.0]
['beep', 0.0, -3859.073383697675, 0.0, 0.0, 0.0, 0.0, -2915.3603810501554, 0.0]
['beep', 0.0, -3859.2521976533176, 0.0, 0.0, 0.0, 0.0, -2917.6849624735073, 0.0]
['beep', 0.0, -3858.9616249753985, 0.0, 0.0, 0.0, 0.0, -2915.785064194806, 0.0]
['beep', 0.0, -3858.514590086292, 0.0, 0.0, 0.0, 0.0, -2914.2651455718456, 0.0]
['beep', 0.0, -3860.168619175985, 0.0, 0.0, 0.0, 0.0, -2916.075636872725, 0.0]
['beep', 0.0, -3860.235674409351, 0.0, 0.0, 0.0, 0.0, -2916.075636872725, 0.0]
['beep', 0.0, -3858.827514508667, 0.0, 0.0, 0.0, 0.0, -2914.600421738675, 0.0]
['beep', 0.0, -3859.788639520245, 0.0, 0.0, 0.0, 0.0, -2915.7180089614403, 0.0]
['beep', 0.0, -3860.436840109449, 0.0, 0.0, 0.0, 0.0, -2915.6062502391637, 0.0]
['beep', 0.0, -3859.743936031334, 0.0, 0.0, 0.0, 0.0, -2916.6120787396526, 0.0]
['beep', 0.0, -3859.5651220756918, 0.0, 0.0, 0.0, 0.0, -2916.343857806189, 0.0]
['beep', 0.0, -3859.3863081200493, 0.0, 0.0, 0.0, 0.0, -2915.785064194806, 0.0]
['beep', 0.0, -3858.8945697420327, 0.0, 0.0, 0.0, 0.0, -2916.3662095506443, 0.0]
['beep', 0.0, -3859.498066842326, 0.0, 0.0, 0.0, 0.0, -2916.701485717474, 0.0]
['beep', 0.0, -3860.235674409351, 0.0, 0.0, 0.0, 0.0, -2918.3331630627113, 0.0]
['beep', 0.0, -3860.4144883649933, 0.0, 0.0, 0.0, 0.0, -2915.9191746615384, 0.0]
['beep', 0.0, -3860.4144883649933, 0.0, 0.0, 0.0, 0.0, -2916.6791339730185, 0.0]
['beep', 0.0, -3860.2133226648957, 0.0, 0.0, 0.0, 0.0, -2915.181567094513, 0.0]
['beep', 0.0, -3860.481543598359, 0.0, 0.0, 0.0, 0.0, -2914.9804013944154, 0.0]
['beep', 0.0, -3861.6438343100353, 0.0, 0.0, 0.0, 0.0, -2916.0309333838145, 0.0]
['beep', 0.0, -3860.8615232540997, 0.0, 0.0, 0.0, 0.0, -2917.215575839946, 0.0]
['beep', 0.0, -3859.162790675496, 0.0, 0.0, 0.0, 0.0, -2917.662610729052, 0.0]
['beep', 0.0, -3860.749764531823, 0.0, 0.0, 0.0, 0.0, -2918.2661078293454, 0.0]
['beep', 0.0, -3859.3416046311386, 0.0, 0.0, 0.0, 0.0, -2918.1767008515244, 0.0]
['beep', 0.0, -3858.849866253122, 0.0, 0.0, 0.0, 0.0, -2917.707314217963, 0.0]
['beep', 0.0, -3860.459191853904, 0.0, 0.0, 0.0, 0.0, -2917.506148517865, 0.0]
['beep', 0.0, -3860.816819765189, 0.0, 0.0, 0.0, 0.0, -2915.5168432613427, 0.0]
['beep', 0.0, -3859.6321773090576, 0.0, 0.0, 0.0, 0.0, -2916.6567822285633, 0.0]
['beep', 0.0, -3859.43101160896, 0.0, 0.0, 0.0, 0.0, -2917.3049828177673, 0.0]
['beep', 0.0, -3859.6545290535128, 0.0, 0.0, 0.0, 0.0, -2916.6567822285633, 0.0]
['beep', 0.0, -3858.8945697420327, 0.0, 0.0, 0.0, 0.0, -2918.042590384792, 0.0]
['beep', 0.0, -3860.2803778982616, 0.0, 0.0, 0.0, 0.0, -2917.796721195784, 0.0]
['beep', 0.0, -3861.0626889541973, 0.0, 0.0, 0.0, 0.0, -2916.992058395393, 0.0]
['beep', 0.0, -3860.2133226648957, 0.0, 0.0, 0.0, 0.0, -2918.064942129248, 0.0]
['beep', 0.0, -3860.079212198164, 0.0, 0.0, 0.0, 0.0, -2918.7131427184518, 0.0]
['beep', 0.0, -3859.162790675496, 0.0, 0.0, 0.0, 0.0, -2917.662610729052, 0.0]
['beep', 0.0, -3857.911092985999, 0.0, 0.0, 0.0, 0.0, -2916.43326478401, 0.0]
['beep', 0.0, -3858.224017408373, 0.0, 0.0, 0.0, 0.0, -2915.8968229170828, 0.0]
['beep', 0.0, -3858.112258686097, 0.0, 0.0, 0.0, 0.0, -2916.477968272921, 0.0]
['beep', 0.0, -3858.3134243861946, 0.0, 0.0, 0.0, 0.0, -2917.215575839946, 0.0]
['beep', 0.0, -3858.6487005530244, 0.0, 0.0, 0.0, 0.0, -2918.7131427184518, 0.0]
['beep', 0.0, -3858.6487005530244, 0.0, 0.0, 0.0, 0.0, -2916.142692106091, 0.0]
['beep', 0.0, -3858.71575578639, 0.0, 0.0, 0.0, 0.0, -2915.248622327879, 0.0]
['beep', 0.0, -3858.4475348529263, 0.0, 0.0, 0.0, 0.0, -2917.4837967734097, 0.0]
['beep', 0.0, -3859.5651220756918, 0.0, 0.0, 0.0, 0.0, -2916.723837461929, 0.0]
['beep', 0.0, -3858.224017408373, 0.0, 0.0, 0.0, 0.0, -2916.9250031620268, 0.0]
['beep', 0.0, -3858.492238341837, 0.0, 0.0, 0.0, 0.0, -2916.76854095084, 0.0]
['beep', 0.0, -3859.363956375594, 0.0, 0.0, 0.0, 0.0, -2915.2039188389685, 0.0]
['beep', 0.0, -3859.4086598645044, 0.0, 0.0, 0.0, 0.0, -2915.5615467502535, 0.0]
['beep', 0.0, -3857.911092985999, 0.0, 0.0, 0.0, 0.0, -2916.3215060617335, 0.0]
['beep', 0.0, -3857.464058096893, 0.0, 0.0, 0.0, 0.0, -2916.410913039555, 0.0]
['beep', 0.0, -3858.3134243861946, 0.0, 0.0, 0.0, 0.0, -2915.5838984947086, 0.0]
['beep', 0.0, -3858.7604592753005, 0.0, 0.0, 0.0, 0.0, -2915.762712450351, 0.0]
['beep', 0.0, -3857.329947630161, 0.0, 0.0, 0.0, 0.0, -2916.3662095506443, 0.0]
['beep', 0.0, -3859.453363353415, 0.0, 0.0, 0.0, 0.0, -2916.2544508283677, 0.0]
['beep', 0.0, -3858.1569621750073, 0.0, 0.0, 0.0, 0.0, -2916.500320017376, 0.0]
['beep', 0.0, -3857.464058096893, 0.0, 0.0, 0.0, 0.0, -2917.8861281736054, 0.0]
['beep', 0.0, -3857.7322790303565, 0.0, 0.0, 0.0, 0.0, -2917.3943897955883, 0.0]
['beep', 0.0, -3857.7099272859014, 0.0, 0.0, 0.0, 0.0, -2915.8744711726276, 0.0]
['beep', 0.0, -3859.0063284643093, 0.0, 0.0, 0.0, 0.0, -2914.376904294122, 0.0]
['beep', 0.0, -3859.3192528866834, 0.0, 0.0, 0.0, 0.0, -2916.0085816393594, 0.0]
['beep', 0.0, -3856.815857507689, 0.0, 0.0, 0.0, 0.0, -2916.5897269951975, 0.0]
['beep', 0.0, -3856.3688226185827, 0.0, 0.0, 0.0, 0.0, -2917.2826310733117, 0.0]
['beep', 0.0, -3857.3075958857057, 0.0, 0.0, 0.0, 0.0, -2918.042590384792, 0.0]
['beep', 0.0, -3858.268720897284, 0.0, 0.0, 0.0, 0.0, -2918.7801979518176, 0.0]
['beep', 0.0, -3858.514590086292, 0.0, 0.0, 0.0, 0.0, -2918.735494462907, 0.0]
['beep', 0.0, -3858.939273230943, 0.0, 0.0, 0.0, 0.0, -2915.3156775612447, 0.0]
['beep', 0.0, -3858.4028313640156, 0.0, 0.0, 0.0, 0.0, -2915.494491516887, 0.0]
['beep', 0.0, -3858.2910726417394, 0.0, 0.0, 0.0, 0.0, -2917.103817117669, 0.0]
['beep', 0.0, -3858.7381075308454, 0.0, 0.0, 0.0, 0.0, -2916.2991543172784, 0.0]
['beep', 0.0, -3857.5087615858033, 0.0, 0.0, 0.0, 0.0, -2915.6286019836193, 0.0]
['beep', 0.0, -3859.43101160896, 0.0, 0.0, 0.0, 0.0, -2915.762712450351, 0.0]
['beep', 0.0, -3856.257063896306, 0.0, 0.0, 0.0, 0.0, -2914.6898287164963, 0.0]
['beep', 0.0, -3856.324119129672, 0.0, 0.0, 0.0, 0.0, -2917.9755351514264, 0.0]
['beep', 0.0, -3859.3416046311386, 0.0, 0.0, 0.0, 0.0, -2917.8861281736054, 0.0]
['beep', 0.0, -3858.827514508667, 0.0, 0.0, 0.0, 0.0, -2916.9250031620268, 0.0]
['beep', 0.0, -3857.7099272859014, 0.0, 0.0, 0.0, 0.0, -2917.4837967734097, 0.0]
['beep', 0.0, -3858.849866253122, 0.0, 0.0, 0.0, 0.0, -2915.449788027977, 0.0]
['beep', 0.0, -3859.743936031334, 0.0, 0.0, 0.0, 0.0, -2914.823939183228, 0.0]
['beep', 0.0, -3858.1569621750073, 0.0, 0.0, 0.0, 0.0, -2916.9250031620268, 0.0]
['beep', 0.0, -3859.296901142228, 0.0, 0.0, 0.0, 0.0, -2917.126168862125, 0.0]
['beep', 0.0, -3860.19097092044, 0.0, 0.0, 0.0, 0.0, -2915.405084539066, 0.0]
['beep', 0.0, -3858.849866253122, 0.0, 0.0, 0.0, 0.0, -2916.6120787396526, 0.0]
['beep', 0.0, -3859.296901142228, 0.0, 0.0, 0.0, 0.0, -2916.500320017376, 0.0]
['beep', 0.0, -3859.229845908862, 0.0, 0.0, 0.0, 0.0, -2917.2379275844014, 0.0]
['beep', 0.0, -3860.3474331316274, 0.0, 0.0, 0.0, 0.0, -2916.8132444397506, 0.0]
['beep', 0.0, -3857.464058096893, 0.0, 0.0, 0.0, 0.0, -2913.929869405016, 0.0]
['beep', 0.0, -3857.62052030808, 0.0, 0.0, 0.0, 0.0, -2914.4216077830324, 0.0]
['beep', 0.0, -3857.9557964749097, 0.0, 0.0, 0.0, 0.0, -2915.6062502391637, 0.0]
['beep', 0.0, -3857.776982519267, 0.0, 0.0, 0.0, 0.0, -2915.3156775612447, 0.0]
['beep', 0.0, -3858.805162764211, 0.0, 0.0, 0.0, 0.0, -2914.0192763828372, 0.0]
['beep', 0.0, -3857.486409841348, 0.0, 0.0, 0.0, 0.0, -2914.5780699942197, 0.0]
['beep', 0.0, -3856.8605609965994, 0.0, 0.0, 0.0, 0.0, -2914.3545525496666, 0.0]
['beep', 0.0, -3858.492238341837, 0.0, 0.0, 0.0, 0.0, -2913.795758938284, 0.0]
['beep', 0.0, -3858.112258686097, 0.0, 0.0, 0.0, 0.0, -2913.6169449826416, 0.0]
['beep', 0.0, -3858.1569621750073, 0.0, 0.0, 0.0, 0.0, -2912.633468226608, 0.0]
['beep', 0.0, -3856.9276162299657, 0.0, 0.0, 0.0, 0.0, -2913.52753800482, 0.0]
['beep', 0.0, -3857.776982519267, 0.0, 0.0, 0.0, 0.0, -2913.505186260365, 0.0]
['beep', 0.0, -3859.0063284643093, 0.0, 0.0, 0.0, 0.0, -2911.895860659583, 0.0]
['beep', 0.0, -3857.9557964749097, 0.0, 0.0, 0.0, 0.0, -2911.471177514932, 0.0]
['beep', 0.0, -3858.0452034527307, 0.0, 0.0, 0.0, 0.0, -2913.0581513712586, 0.0]
['beep', 0.0, -3860.749764531823, 0.0, 0.0, 0.0, 0.0, -2913.728703704918, 0.0]
['beep', 0.0, -3860.0345087092533, 0.0, 0.0, 0.0, 0.0, -2912.6111164821527, 0.0]
['beep', 0.0, -3859.3416046311386, 0.0, 0.0, 0.0, 0.0, -2913.7063519604626, 0.0]
['beep', 0.0, -3860.794468020734, 0.0, 0.0, 0.0, 0.0, -2912.208785081957, 0.0]
['beep', 0.0, -3860.3474331316274, 0.0, 0.0, 0.0, 0.0, -2914.6898287164963, 0.0]
['beep', 0.0, -3860.9509302319207, 0.0, 0.0, 0.0, 0.0, -2914.9804013944154, 0.0]
['beep', 0.0, -3861.3085581432056, 0.0, 0.0, 0.0, 0.0, -2913.6169449826416, 0.0]
['beep', 0.0, -3860.816819765189, 0.0, 0.0, 0.0, 0.0, -2914.2651455718456, 0.0]
['beep', 0.0, -3861.6438343100353, 0.0, 0.0, 0.0, 0.0, -2915.159215350058, 0.0]
['beep', 0.0, -3859.7662877757894, 0.0, 0.0, 0.0, 0.0, -2915.7180089614403, 0.0]
['beep', 0.0, -3859.743936031334, 0.0, 0.0, 0.0, 0.0, -2915.762712450351, 0.0]
['beep', 0.0, -3860.2803778982616, 0.0, 0.0, 0.0, 0.0, -2914.4216077830324, 0.0]
['beep', 0.0, -3859.3416046311386, 0.0, 0.0, 0.0, 0.0, -2914.086331616203, 0.0]
['beep', 0.0, -3858.6710522974795, 0.0, 0.0, 0.0, 0.0, -2913.9969246383816, 0.0]
['beep', 0.0, -3858.6039970641136, 0.0, 0.0, 0.0, 0.0, -2913.48283451591, 0.0]
['beep', 0.0, -3859.9003982425215, 0.0, 0.0, 0.0, 0.0, -2913.236965326901, 0.0]
['beep', 0.0, -3860.14626743153, 0.0, 0.0, 0.0, 0.0, -2912.566412993242, 0.0]
['beep', 0.0, -3858.514590086292, 0.0, 0.0, 0.0, 0.0, -2911.515881003843, 0.0]
['beep', 0.0, -3858.849866253122, 0.0, 0.0, 0.0, 0.0, -2911.962915892949, 0.0]
['beep', 0.0, -3858.6263488085688, 0.0, 0.0, 0.0, 0.0, -2912.186433337502, 0.0]
['beep', 0.0, -3858.849866253122, 0.0, 0.0, 0.0, 0.0, -2911.4488257704766, 0.0]
['beep', 0.0, -3859.162790675496, 0.0, 0.0, 0.0, 0.0, -2911.515881003843, 0.0]
['beep', 0.0, -3858.849866253122, 0.0, 0.0, 0.0, 0.0, -2909.6830379585076, 0.0]
['beep', 0.0, -3859.3416046311386, 0.0, 0.0, 0.0, 0.0, -2908.610154224653, 0.0]
['beep', 0.0, -3861.040337209742, 0.0, 0.0, 0.0, 0.0, -2908.7666164358398, 0.0]
['beep', 0.0, -3860.0568604537084, 0.0, 0.0, 0.0, 0.0, -2908.1407675910914, 0.0]
['beep', 0.0, -3860.1239156870743, 0.0, 0.0, 0.0, 0.0, -2905.995000123382, 0.0]
['beep', 0.0, -3861.196799420929, 0.0, 0.0, 0.0, 0.0, -2906.218517567935, 0.0]
['beep', 0.0, -3861.174447676474, 0.0, 0.0, 0.0, 0.0, -2903.178680322013, 0.0]
['beep', 0.0, -3860.19097092044, 0.0, 0.0, 0.0, 0.0, -2898.887145386594, 0.0]
['beep', 0.0, -3861.912055243499, 0.0, 0.0, 0.0, 0.0, -2897.4342819969993, 0.0]
['beep', 0.0, -3861.174447676474, 0.0, 0.0, 0.0, 0.0, -2895.7131976739406, 0.0]
['beep', 0.0, -3861.465020354393, 0.0, 0.0, 0.0, 0.0, -2892.5616017057423, 0.0]
['beep', 0.0, -3864.773078533778, 0.0, 0.0, 0.0, 0.0, -2889.432357481999, 0.0]
['beep', 0.0, -3864.4825058558595, 0.0, 0.0, 0.0, 0.0, -2886.5266307028096, 0.0]
['beep', 0.0, -3861.2191511653846, 0.0, 0.0, 0.0, 0.0, -2881.966874833927, 0.0]
['beep', 0.0, -3856.4135261074935, 0.0, 0.0, 0.0, 0.0, -2877.675339898508, 0.0]
['beep', 0.0, -3859.073383697675, 0.0, 0.0, 0.0, 0.0, -2876.691863142474, 0.0]
['beep', 0.0, -3861.845000010133, 0.0, 0.0, 0.0, 0.0, -2873.160287518536, 0.0]
['beep', 0.0, -3860.7274127873675, 0.0, 0.0, 0.0, 0.0, -2870.8133543507283, 0.0]
['beep', 0.0, -3860.0121569647977, 0.0, 0.0, 0.0, 0.0, -2866.343005459667, 0.0]
['beep', 0.0, -3859.5427703312366, 0.0, 0.0, 0.0, 0.0, -2862.342043202167, 0.0]
['beep', 0.0, -3858.849866253122, 0.0, 0.0, 0.0, 0.0, -2861.5597321462315, 0.0]
['beep', 0.0, -3860.459191853904, 0.0, 0.0, 0.0, 0.0, -2857.2681972108126, 0.0]
['beep', 0.0, -3858.559293575203, 0.0, 0.0, 0.0, 0.0, -2853.4013454200444, 0.0]
['beep', 0.0, -3856.257063896306, 0.0, 0.0, 0.0, 0.0, -2848.8862930400724, 0.0]
['beep', 0.0, -3859.6768807979684, 0.0, 0.0, 0.0, 0.0, -2844.7512203158403, 0.0]
['beep', 0.0, -3861.6438343100353, 0.0, 0.0, 0.0, 0.0, -2844.4606476379213, 0.0]
['beep', 0.0, -3854.9606627178987, 0.0, 0.0, 0.0, 0.0, -2838.604490590631, 0.0]
['beep', 0.0, -3854.6700900399796, 0.0, 0.0, 0.0, 0.0, -2829.9990689753377, 0.0]
['beep', 0.0, -3858.3357761306497, 0.0, 0.0, 0.0, 0.0, -2825.3946096175446, 0.0]
['beep', 0.0, -3855.3182906291836, 0.0, 0.0, 0.0, 0.0, -2819.4266938479777, 0.0]
['beep', 0.0, -3853.038412694742, 0.0, 0.0, 0.0, 0.0, -2812.162376900003, 0.0]
['beep', 0.0, -3854.1559999175074, 0.0, 0.0, 0.0, 0.0, -2811.6482867775308, 0.0]
['beep', 0.0, -3856.4135261074935, 0.0, 0.0, 0.0, 0.0, -2805.635667519053, 0.0]
['beep', 0.0, -3856.0335464517534, 0.0, 0.0, 0.0, 0.0, -2798.907792438006, 0.0]
['beep', 0.0, -3856.1006016851193, 0.0, 0.0, 0.0, 0.0, -2793.5657255131873, 0.0]
['beep', 0.0, -3856.681747040957, 0.0, 0.0, 0.0, 0.0, -2789.4306527889553, 0.0]
['beep', 0.0, -3855.3182906291836, 0.0, 0.0, 0.0, 0.0, -2786.279056820757, 0.0]
['beep', 0.0, -3853.8430754951332, 0.0, 0.0, 0.0, 0.0, -2782.1663358409805, 0.0]
['beep', 0.0, -3853.7089650284015, 0.0, 0.0, 0.0, 0.0, -2778.902981150506, 0.0]
['beep', 0.0, -3858.3357761306497, 0.0, 0.0, 0.0, 0.0, -2778.187725327936, 0.0]
['beep', 0.0, -3852.747840016823, 0.0, 0.0, 0.0, 0.0, -2778.12067009457, 0.0]
['beep', 0.0, -3851.786715005245, 0.0, 0.0, 0.0, 0.0, -2780.1099753510925, 0.0]
['beep', 0.0, -3854.9606627178987, 0.0, 0.0, 0.0, 0.0, -2781.942818396428, 0.0]
['beep', 0.0, -3858.3357761306497, 0.0, 0.0, 0.0, 0.0, -2783.909771908495, 0.0]
['beep', 0.0, -3858.3134243861946, 0.0, 0.0, 0.0, 0.0, -2786.413167287489, 0.0]
['beep', 0.0, -3854.8712557400772, 0.0, 0.0, 0.0, 0.0, -2789.0506731332152, 0.0]
['beep', 0.0, -3853.2172266503844, 0.0, 0.0, 0.0, 0.0, -2793.342208068634, 0.0]
['beep', 0.0, -3856.838209252144, 0.0, 0.0, 0.0, 0.0, -2795.6891412364416, 0.0]
['beep', 0.0, -3856.882912741055, 0.0, 0.0, 0.0, 0.0, -2801.2994290947236, 0.0]
['beep', 0.0, -3859.453363353415, 0.0, 0.0, 0.0, 0.0, -2806.9767721863714, 0.0]
['beep', 0.0, -3858.559293575203, 0.0, 0.0, 0.0, 0.0, -2811.4024175885224, 0.0]
['beep', 0.0, -3859.833343009155, 0.0, 0.0, 0.0, 0.0, -2815.1128071681032, 0.0]
['beep', 0.0, -3861.5320755877588, 0.0, 0.0, 0.0, 0.0, -2819.002010703327, 0.0]
['beep', 0.0, -3860.0568604537084, 0.0, 0.0, 0.0, 0.0, -2825.7298857843743, 0.0]
['beep', 0.0, -3862.850828510622, 0.0, 0.0, 0.0, 0.0, -2830.7143247979075, 0.0]
['beep', 0.0, -3862.6273110660686, 0.0, 0.0, 0.0, 0.0, -2833.128313199081, 0.0]
['beep', 0.0, -3861.2638546542953, 0.0, 0.0, 0.0, 0.0, -2837.665717323508, 0.0]
['beep', 0.0, -3859.9674534758874, 0.0, 0.0, 0.0, 0.0, -2841.867845281106, 0.0]
['beep', 0.0, -3860.459191853904, 0.0, 0.0, 0.0, 0.0, -2845.4888278828657, 0.0]
['beep', 0.0, -3859.6545290535128, 0.0, 0.0, 0.0, 0.0, -2851.926130285994, 0.0]
['beep', 0.0, -3860.5709505761806, 0.0, 0.0, 0.0, 0.0, -2855.189484976469, 0.0]
['beep', 0.0, -3859.162790675496, 0.0, 0.0, 0.0, 0.0, -2857.4023076775443, 0.0]
['beep', 0.0, -3858.71575578639, 0.0, 0.0, 0.0, 0.0, -2861.2691594683124, 0.0]
['beep', 0.0, -3858.268720897284, 0.0, 0.0, 0.0, 0.0, -2863.9066653140385, 0.0]
['beep', 0.0, -3859.5651220756918, 0.0, 0.0, 0.0, 0.0, -2867.4605926824324, 0.0]
['beep', 0.0, -3859.3863081200493, 0.0, 0.0, 0.0, 0.0, -2870.634540395086, 0.0]
['beep', 0.0, -3859.1851424199517, 0.0, 0.0, 0.0, 0.0, -2871.3274444732006, 0.0]
['beep', 0.0, -3860.2133226648957, 0.0, 0.0, 0.0, 0.0, -2873.182639262991, 0.0]
['beep', 0.0, -3861.3532616321163, 0.0, 0.0, 0.0, 0.0, -2876.356586975645, 0.0]
['beep', 0.0, -3859.6098255646025, 0.0, 0.0, 0.0, 0.0, -2879.3964242215666, 0.0]
['beep', 0.0, -3859.6098255646025, 0.0, 0.0, 0.0, 0.0, -2881.542191689276, 0.0]
['beep', 0.0, -3859.453363353415, 0.0, 0.0, 0.0, 0.0, -2882.279799256301, 0.0]
['beep', 0.0, -3859.363956375594, 0.0, 0.0, 0.0, 0.0, -2883.732662645896, 0.0]
['beep', 0.0, -3859.2521976533176, 0.0, 0.0, 0.0, 0.0, -2886.0795958137032, 0.0]
['beep', 0.0, -3858.939273230943, 0.0, 0.0, 0.0, 0.0, -2889.6782266710075, 0.0]
['beep', 0.0, -3858.849866253122, 0.0, 0.0, 0.0, 0.0, -2891.5110697163427, 0.0]
['beep', 0.0, -3858.782811019756, 0.0, 0.0, 0.0, 0.0, -2891.7122354164408, 0.0]
['beep', 0.0, -3858.559293575203, 0.0, 0.0, 0.0, 0.0, -2890.996979593871, 0.0]
['beep', 0.0, -3859.3416046311386, 0.0, 0.0, 0.0, 0.0, -2892.1592703055467, 0.0]
['beep', 0.0, -3859.1851424199517, 0.0, 0.0, 0.0, 0.0, -2896.473156985421, 0.0]
['beep', 0.0, -3859.9674534758874, 0.0, 0.0, 0.0, 0.0, -2897.0990058301695, 0.0]
['beep', 0.0, -3858.1569621750073, 0.0, 0.0, 0.0, 0.0, -2897.926020375016, 0.0]
['beep', 0.0, -3859.2521976533176, 0.0, 0.0, 0.0, 0.0, -2900.094139587181, 0.0]
['beep', 0.0, -3858.0004999638204, 0.0, 0.0, 0.0, 0.0, -2901.0776163432142, 0.0]
['beep', 0.0, -3859.0286802087644, 0.0, 0.0, 0.0, 0.0, -2901.3011337877674, 0.0]
['beep', 0.0, -3858.7381075308454, 0.0, 0.0, 0.0, 0.0, -2902.5304797328095, 0.0]
['beep', 0.0, -3856.9946714633315, 0.0, 0.0, 0.0, 0.0, -2902.9775146219154, 0.0]
['beep', 0.0, -3858.6263488085688, 0.0, 0.0, 0.0, 0.0, -2902.8657558996388, 0.0]
['beep', 0.0, -3858.514590086292, 0.0, 0.0, 0.0, 0.0, -2902.1057965881582, 0.0]
['beep', 0.0, -3858.268720897284, 0.0, 0.0, 0.0, 0.0, -2903.178680322013, 0.0]
['beep', 0.0, -3856.3911743630383, 0.0, 0.0, 0.0, 0.0, -2904.8997646450716, 0.0]
['beep', 0.0, -3856.5029330853145, 0.0, 0.0, 0.0, 0.0, -2903.67041870003, 0.0]
['beep', 0.0, -3857.3075958857057, 0.0, 0.0, 0.0, 0.0, -2904.4974332448764, 0.0]
['beep', 0.0, -3858.0004999638204, 0.0, 0.0, 0.0, 0.0, -2905.704427445463, 0.0]
['beep', 0.0, -3857.173485418974, 0.0, 0.0, 0.0, 0.0, -2906.3302762902113, 0.0]
['beep', 0.0, -3857.1511336745184, 0.0, 0.0, 0.0, 0.0, -2909.4371687694993, 0.0]
['beep', 0.0, -3856.7264505298676, 0.0, 0.0, 0.0, 0.0, -2907.7831396798065, 0.0]
['beep', 0.0, -3857.039374952242, 0.0, 0.0, 0.0, 0.0, -2907.9396018909933, 0.0]
['beep', 0.0, -3856.5029330853145, 0.0, 0.0, 0.0, 0.0, -2908.565450735742, 0.0]
['beep', 0.0, -3858.805162764211, 0.0, 0.0, 0.0, 0.0, -2907.2019943239684, 0.0]
['beep', 0.0, -3858.1569621750073, 0.0, 0.0, 0.0, 0.0, -2907.246697812879, 0.0]
['beep', 0.0, -3856.547636574225, 0.0, 0.0, 0.0, 0.0, -2908.654857713563, 0.0]
['beep', 0.0, -3855.8323807516554, 0.0, 0.0, 0.0, 0.0, -2911.0017908813707, 0.0]
['beep', 0.0, -3856.838209252144, 0.0, 0.0, 0.0, 0.0, -2911.3594187926556, 0.0]
['beep', 0.0, -3858.0228517082755, 0.0, 0.0, 0.0, 0.0, -2910.2641833143457, 0.0]
['beep', 0.0, -3857.553465074714, 0.0, 0.0, 0.0, 0.0, -2908.4536920134656, 0.0]
['beep', 0.0, -3855.877084240566, 0.0, 0.0, 0.0, 0.0, -2906.7773111793176, 0.0]
['beep', 0.0, -3856.9946714633315, 0.0, 0.0, 0.0, 0.0, -2908.6772094580188, 0.0]
['beep', 0.0, -3857.5758168191696, 0.0, 0.0, 0.0, 0.0, -2909.794796680784, 0.0]
['beep', 0.0, -3858.268720897284, 0.0, 0.0, 0.0, 0.0, -2909.7724449363286, 0.0]
['beep', 0.0, -3856.9276162299657, 0.0, 0.0, 0.0, 0.0, -2910.2641833143457, 0.0]
['beep', 0.0, -3857.821686008178, 0.0, 0.0, 0.0, 0.0, -2910.822976925728, 0.0]
['beep', 0.0, -3856.011194707298, 0.0, 0.0, 0.0, 0.0, -2911.5829362372087, 0.0]
['beep', 0.0, -3856.4358778519486, 0.0, 0.0, 0.0, 0.0, -2909.7053897029627, 0.0]
['beep', 0.0, -3854.848903995622, 0.0, 0.0, 0.0, 0.0, -2910.4877007588984, 0.0]
['beep', 0.0, -3853.0607644391976, 0.0, 0.0, 0.0, 0.0, -2909.012485624848, 0.0]
['beep', 0.0, -3850.6691277824793, 0.0, 0.0, 0.0, 0.0, -2908.341933291189, 0.0]
['beep', 0.0, -3851.719659771879, 0.0, 0.0, 0.0, 0.0, -2908.7442646913846, 0.0]
['beep', 0.0, -3853.4630958393927, 0.0, 0.0, 0.0, 0.0, -2907.2690495573343, 0.0]
['beep', 0.0, -3853.1501714170186, 0.0, 0.0, 0.0, 0.0, -2906.57614547922, 0.0]
['beep', 0.0, -3854.4018691065157, 0.0, 0.0, 0.0, 0.0, -2904.8997646450716, 0.0]
['beep', 0.0, -3854.4242208509713, 0.0, 0.0, 0.0, 0.0, -2902.3963692660773, 0.0]
['beep', 0.0, -3856.324119129672, 0.0, 0.0, 0.0, 0.0, -2905.011523367348, 0.0]
['beep', 0.0, -3856.9276162299657, 0.0, 0.0, 0.0, 0.0, -2905.659723956552, 0.0]
['beep', 0.0, -3858.1569621750073, 0.0, 0.0, 0.0, 0.0, -2906.285572801301, 0.0]
['beep', 0.0, -3857.106430185608, 0.0, 0.0, 0.0, 0.0, -2907.7384361908958, 0.0]
['beep', 0.0, -3858.0452034527307, 0.0, 0.0, 0.0, 0.0, -2907.4702152574323, 0.0]
['beep', 0.0, -3857.6875755414458, 0.0, 0.0, 0.0, 0.0, -2909.571279236231, 0.0]
['beep', 0.0, -3857.9334447304545, 0.0, 0.0, 0.0, 0.0, -2909.6159827251417, 0.0]
['beep', 0.0, -3858.5369418307478, 0.0, 0.0, 0.0, 0.0, -2907.5149187463426, 0.0]
['beep', 0.0, -3859.6098255646025, 0.0, 0.0, 0.0, 0.0, -2909.4148170250437, 0.0]
['beep', 0.0, -3858.9616249753985, 0.0, 0.0, 0.0, 0.0, -2909.951258891971, 0.0]
['beep', 0.0, -3859.0063284643093, 0.0, 0.0, 0.0, 0.0, -2909.86185191415, 0.0]
['beep', 0.0, -3859.0510319532195, 0.0, 0.0, 0.0, 0.0, -2910.0630176142477, 0.0]
['beep', 0.0, -3860.0121569647977, 0.0, 0.0, 0.0, 0.0, -2910.286535058801, 0.0]
['beep', 0.0, -3860.749764531823, 0.0, 0.0, 0.0, 0.0, -2913.48283451591, 0.0]
['beep', 0.0, -3860.9509302319207, 0.0, 0.0, 0.0, 0.0, -2912.4546542709654, 0.0]
['beep', 0.0, -3860.749764531823, 0.0, 0.0, 0.0, 0.0, -2910.95708739246, 0.0]
['beep', 0.0, -3861.9567587324095, 0.0, 0.0, 0.0, 0.0, -2910.7782734368175, 0.0]
['beep', 0.0, -3860.839171509644, 0.0, 0.0, 0.0, 0.0, -2910.8453286701833, 0.0]
['beep', 0.0, -3860.235674409351, 0.0, 0.0, 0.0, 0.0, -2911.6499914705746, 0.0]
['beep', 0.0, -3859.9898052203425, 0.0, 0.0, 0.0, 0.0, -2912.3205438042337, 0.0]
['beep', 0.0, -3858.9616249753985, 0.0, 0.0, 0.0, 0.0, -2911.851157170672, 0.0]
['beep', 0.0, -3858.939273230943, 0.0, 0.0, 0.0, 0.0, -2912.633468226608, 0.0]
['beep', 0.0, -3860.19097092044, 0.0, 0.0, 0.0, 0.0, -2912.0076193818595, 0.0]
['beep', 0.0, -3859.788639520245, 0.0, 0.0, 0.0, 0.0, -2912.186433337502, 0.0]
['beep', 0.0, -3857.7322790303565, 0.0, 0.0, 0.0, 0.0, -2911.0464943702814, 0.0]
['beep', 0.0, -3858.201665663918, 0.0, 0.0, 0.0, 0.0, -2911.3370670482004, 0.0]
['beep', 0.0, -3859.7662877757894, 0.0, 0.0, 0.0, 0.0, -2912.499357759876, 0.0]
['beep', 0.0, -3859.9003982425215, 0.0, 0.0, 0.0, 0.0, -2912.566412993242, 0.0]
['beep', 0.0, -3859.498066842326, 0.0, 0.0, 0.0, 0.0, -2911.247660070379, 0.0]
['beep', 0.0, -3858.827514508667, 0.0, 0.0, 0.0, 0.0, -2911.7170467039405, 0.0]
['beep', 0.0, -3859.4086598645044, 0.0, 0.0, 0.0, 0.0, -2912.8122821822503, 0.0]
['beep', 0.0, -3859.0510319532195, 0.0, 0.0, 0.0, 0.0, -2912.186433337502, 0.0]
['beep', 0.0, -3858.805162764211, 0.0, 0.0, 0.0, 0.0, -2913.3710757936333, 0.0]
['beep', 0.0, -3858.916921486488, 0.0, 0.0, 0.0, 0.0, -2913.3487240491777, 0.0]
['beep', 0.0, -3859.207494164407, 0.0, 0.0, 0.0, 0.0, -2912.8122821822503, 0.0]
['beep', 0.0, -3861.7332412878563, 0.0, 0.0, 0.0, 0.0, -2910.1077211031584, 0.0]
['beep', 0.0, -3860.14626743153, 0.0, 0.0, 0.0, 0.0, -2911.8064536817615, 0.0]
['beep', 0.0, -3860.3027296427167, 0.0, 0.0, 0.0, 0.0, -2913.192261837991, 0.0]
['beep', 0.0, -3861.397965121027, 0.0, 0.0, 0.0, 0.0, -2912.3652472931444, 0.0]
['beep', 0.0, -3860.4144883649933, 0.0, 0.0, 0.0, 0.0, -2912.7005234599737, 0.0]
['beep', 0.0, -3858.782811019756, 0.0, 0.0, 0.0, 0.0, -2913.236965326901, 0.0]
['beep', 0.0, -3861.6438343100353, 0.0, 0.0, 0.0, 0.0, -2914.6451252275856, 0.0]
['beep', 0.0, -3859.453363353415, 0.0, 0.0, 0.0, 0.0, -2914.086331616203, 0.0]
['beep', 0.0, -3859.140438931041, 0.0, 0.0, 0.0, 0.0, -2913.438131026999, 0.0]
['beep', 0.0, -3860.19097092044, 0.0, 0.0, 0.0, 0.0, -2913.236965326901, 0.0]
['beep', 0.0, -3860.9956337208314, 0.0, 0.0, 0.0, 0.0, -2913.9745728939265, 0.0]
['beep', 0.0, -3859.6098255646025, 0.0, 0.0, 0.0, 0.0, -2913.438131026999, 0.0]
['beep', 0.0, -3859.229845908862, 0.0, 0.0, 0.0, 0.0, -2913.0134478823484, 0.0]
['beep', 0.0, -3859.4086598645044, 0.0, 0.0, 0.0, 0.0, -2913.192261837991, 0.0]
['beep', 0.0, -3859.5427703312366, 0.0, 0.0, 0.0, 0.0, -2912.6111164821527, 0.0]
['beep', 0.0, -3858.71575578639, 0.0, 0.0, 0.0, 0.0, -2913.281668815812, 0.0]
['beep', 0.0, -3859.833343009155, 0.0, 0.0, 0.0, 0.0, -2912.253488570868, 0.0]
['beep', 0.0, -3860.548598831725, 0.0, 0.0, 0.0, 0.0, -2913.7510554493733, 0.0]
['beep', 0.0, -3859.0510319532195, 0.0, 0.0, 0.0, 0.0, -2914.086331616203, 0.0]
['beep', 0.0, -3858.134610430552, 0.0, 0.0, 0.0, 0.0, -2912.275840315323, 0.0]
['beep', 0.0, -3858.0452034527307, 0.0, 0.0, 0.0, 0.0, -2912.186433337502, 0.0]
['beep', 0.0, -3859.0510319532195, 0.0, 0.0, 0.0, 0.0, -2914.24279382739, 0.0]
['beep', 0.0, -3859.2745493977727, 0.0, 0.0, 0.0, 0.0, -2915.382732794611, 0.0]
['beep', 0.0, -3858.6263488085688, 0.0, 0.0, 0.0, 0.0, -2914.1980903384797, 0.0]
['beep', 0.0, -3858.581645319658, 0.0, 0.0, 0.0, 0.0, -2912.7228752044293, 0.0]
['beep', 0.0, -3859.207494164407, 0.0, 0.0, 0.0, 0.0, -2912.0746746152254, 0.0]
['beep', 0.0, -3858.849866253122, 0.0, 0.0, 0.0, 0.0, -2911.9405641484936, 0.0]
['beep', 0.0, -3858.939273230943, 0.0, 0.0, 0.0, 0.0, -2913.1028548601694, 0.0]
['beep', 0.0, -3859.721584286879, 0.0, 0.0, 0.0, 0.0, -2913.7510554493733, 0.0]
['beep', 0.0, -3858.9839767198537, 0.0, 0.0, 0.0, 0.0, -2914.376904294122, 0.0]
['beep', 0.0, -3859.743936031334, 0.0, 0.0, 0.0, 0.0, -2915.3156775612447, 0.0]
['beep', 0.0, -3858.514590086292, 0.0, 0.0, 0.0, 0.0, -2915.8744711726276, 0.0]
['beep', 0.0, -3858.939273230943, 0.0, 0.0, 0.0, 0.0, -2913.885165916105, 0.0]
['beep', 0.0, -3859.229845908862, 0.0, 0.0, 0.0, 0.0, -2913.214613582446, 0.0]
['beep', 0.0, -3858.2910726417394, 0.0, 0.0, 0.0, 0.0, -2911.895860659583, 0.0]
['beep', 0.0, -3858.4028313640156, 0.0, 0.0, 0.0, 0.0, -2912.633468226608, 0.0]
['beep', 0.0, -3859.162790675496, 0.0, 0.0, 0.0, 0.0, -2913.52753800482, 0.0]
['beep', 0.0, -3860.0568604537084, 0.0, 0.0, 0.0, 0.0, -2914.3322008052114, 0.0]
['beep', 0.0, -3860.0568604537084, 0.0, 0.0, 0.0, 0.0, -2913.773407193829, 0.0]
['beep', 0.0, -3860.3474331316274, 0.0, 0.0, 0.0, 0.0, -2912.834633926706, 0.0]
['beep', 0.0, -3859.3416046311386, 0.0, 0.0, 0.0, 0.0, -2911.895860659583, 0.0]
['beep', 0.0, -3860.0345087092533, 0.0, 0.0, 0.0, 0.0, -2911.471177514932, 0.0]
['beep', 0.0, -3859.9227499869767, 0.0, 0.0, 0.0, 0.0, -2913.3040205602674, 0.0]
['beep', 0.0, -3862.0908691991413, 0.0, 0.0, 0.0, 0.0, -2912.5887647376976, 0.0]
['beep', 0.0, -3859.9003982425215, 0.0, 0.0, 0.0, 0.0, -2914.466311271943, 0.0]
['beep', 0.0, -3858.514590086292, 0.0, 0.0, 0.0, 0.0, -2914.0192763828372, 0.0]
['beep', 0.0, -3861.0179854652865, 0.0, 0.0, 0.0, 0.0, -2913.0357996268035, 0.0]
['beep', 0.0, -3860.9732819763763, 0.0, 0.0, 0.0, 0.0, -2911.560584492753, 0.0]
['beep', 0.0, -3859.43101160896, 0.0, 0.0, 0.0, 0.0, -2914.3545525496666, 0.0]
['beep', 0.0, -3861.174447676474, 0.0, 0.0, 0.0, 0.0, -2912.789930437795, 0.0]
['beep', 0.0, -3859.3863081200493, 0.0, 0.0, 0.0, 0.0, -2912.901689160072, 0.0]
['beep', 0.0, -3858.9839767198537, 0.0, 0.0, 0.0, 0.0, -2913.125206604625, 0.0]
['beep', 0.0, -3860.3474331316274, 0.0, 0.0, 0.0, 0.0, -2913.0134478823484, 0.0]
['beep', 0.0, -3859.9674534758874, 0.0, 0.0, 0.0, 0.0, -2914.1980903384797, 0.0]
['beep', 0.0, -3859.9003982425215, 0.0, 0.0, 0.0, 0.0, -2913.1699100935352, 0.0]
['beep', 0.0, -3859.0286802087644, 0.0, 0.0, 0.0, 0.0, -2912.6558199710635, 0.0]
['beep', 0.0, -3859.0510319532195, 0.0, 0.0, 0.0, 0.0, -2913.192261837991, 0.0]
['beep', 0.0, -3860.5933023206358, 0.0, 0.0, 0.0, 0.0, -2912.6111164821527, 0.0]
['beep', 0.0, -3859.721584286879, 0.0, 0.0, 0.0, 0.0, -2913.52753800482, 0.0]
['beep', 0.0, -3858.4475348529263, 0.0, 0.0, 0.0, 0.0, -2914.0192763828372, 0.0]
['beep', 0.0, -3859.0286802087644, 0.0, 0.0, 0.0, 0.0, -2913.4604827714543, 0.0]
['beep', 0.0, -3857.866389497088, 0.0, 0.0, 0.0, 0.0, -2914.0639798717475, 0.0]
['beep', 0.0, -3859.6321773090576, 0.0, 0.0, 0.0, 0.0, -2914.153386849569, 0.0]
['beep', 0.0, -3860.6603575540016, 0.0, 0.0, 0.0, 0.0, -2914.823939183228, 0.0]
['beep', 0.0, -3859.5651220756918, 0.0, 0.0, 0.0, 0.0, -2913.281668815812, 0.0]
['beep', 0.0, -3859.073383697675, 0.0, 0.0, 0.0, 0.0, -2912.186433337502, 0.0]
['beep', 0.0, -3858.3804796195604, 0.0, 0.0, 0.0, 0.0, -2913.48283451591, 0.0]
['beep', 0.0, -3860.2803778982616, 0.0, 0.0, 0.0, 0.0, -2916.097988617181, 0.0]
['beep', 0.0, -3860.9285784874655, 0.0, 0.0, 0.0, 0.0, -2912.2311368264127, 0.0]
['beep', 0.0, -3859.6992325424235, 0.0, 0.0, 0.0, 0.0, -2912.119378104136, 0.0]
['beep', 0.0, -3860.9509302319207, 0.0, 0.0, 0.0, 0.0, -2911.024142625826, 0.0]
['beep', 0.0, -3859.9674534758874, 0.0, 0.0, 0.0, 0.0, -2912.0746746152254, 0.0]
['beep', 0.0, -3860.3027296427167, 0.0, 0.0, 0.0, 0.0, -2912.789930437795, 0.0]
['beep', 0.0, -3861.487372098848, 0.0, 0.0, 0.0, 0.0, -2911.8064536817615, 0.0]
['beep', 0.0, -3859.7662877757894, 0.0, 0.0, 0.0, 0.0, -2913.3710757936333, 0.0]
['beep', 0.0, -3861.710889543401, 0.0, 0.0, 0.0, 0.0, -2913.572241493731, 0.0]
['beep', 0.0, -3860.3027296427167, 0.0, 0.0, 0.0, 0.0, -2913.0134478823484, 0.0]
['beep', 0.0, -3860.1239156870743, 0.0, 0.0, 0.0, 0.0, -2913.192261837991, 0.0]
['beep', 0.0, -3860.1239156870743, 0.0, 0.0, 0.0, 0.0, -2912.0523228707702, 0.0]
['beep', 0.0, -3859.4086598645044, 0.0, 0.0, 0.0, 0.0, -2912.0299711263146, 0.0]
['beep', 0.0, -3858.805162764211, 0.0, 0.0, 0.0, 0.0, -2911.962915892949, 0.0]
['beep', 0.0, -3859.3192528866834, 0.0, 0.0, 0.0, 0.0, -2913.14755834908, 0.0]
['beep', 0.0, -3859.3863081200493, 0.0, 0.0, 0.0, 0.0, -2914.175738594024, 0.0]
['beep', 0.0, -3860.3697848760826, 0.0, 0.0, 0.0, 0.0, -2914.0416281272924, 0.0]
['beep', 0.0, -3860.6156540650913, 0.0, 0.0, 0.0, 0.0, -2912.275840315323, 0.0]
['beep', 0.0, -3859.3192528866834, 0.0, 0.0, 0.0, 0.0, -2912.1417298485912, 0.0]
['beep', 0.0, -3859.721584286879, 0.0, 0.0, 0.0, 0.0, -2912.4323025265103, 0.0]
['beep', 0.0, -3859.140438931041, 0.0, 0.0, 0.0, 0.0, -2913.594593238186, 0.0]
['beep', 0.0, -3859.3863081200493, 0.0, 0.0, 0.0, 0.0, -2914.6898287164963, 0.0]
['beep', 0.0, -3859.6098255646025, 0.0, 0.0, 0.0, 0.0, -2911.7393984483956, 0.0]
['beep', 0.0, -3860.436840109449, 0.0, 0.0, 0.0, 0.0, -2911.962915892949, 0.0]
['beep', 0.0, -3860.6156540650913, 0.0, 0.0, 0.0, 0.0, -2912.9687443934376, 0.0]
['beep', 0.0, -3861.465020354393, 0.0, 0.0, 0.0, 0.0, -2913.0357996268035, 0.0]
['beep', 0.0, -3862.0238139657754, 0.0, 0.0, 0.0, 0.0, -2912.2981920597786, 0.0]
['beep', 0.0, -3861.554427332214, 0.0, 0.0, 0.0, 0.0, -2912.7452269488845, 0.0]
['beep', 0.0, -3862.761421532801, 0.0, 0.0, 0.0, 0.0, -2912.0523228707702, 0.0]
['beep', 0.0, -3861.107392443108, 0.0, 0.0, 0.0, 0.0, -2913.572241493731, 0.0]
['beep', 0.0, -3862.850828510622, 0.0, 0.0, 0.0, 0.0, -2913.505186260365, 0.0]
['beep', 0.0, -3860.7274127873675, 0.0, 0.0, 0.0, 0.0, -2914.9133461610495, 0.0]
['beep', 0.0, -3860.1239156870743, 0.0, 0.0, 0.0, 0.0, -2915.1368636056022, 0.0]
['beep', 0.0, -3860.7274127873675, 0.0, 0.0, 0.0, 0.0, -2912.0523228707702, 0.0]
['beep', 0.0, -3860.5038953428148, 0.0, 0.0, 0.0, 0.0, -2913.505186260365, 0.0]
['beep', 0.0, -3861.6661860544905, 0.0, 0.0, 0.0, 0.0, -2914.9356979055046, 0.0]
['beep', 0.0, -3860.3250813871723, 0.0, 0.0, 0.0, 0.0, -2912.834633926706, 0.0]
['beep', 0.0, -3860.19097092044, 0.0, 0.0, 0.0, 0.0, -2912.0299711263146, 0.0]
['beep', 0.0, -3859.3192528866834, 0.0, 0.0, 0.0, 0.0, -2912.6111164821527, 0.0]
['beep', 0.0, -3860.52624708727, 0.0, 0.0, 0.0, 0.0, -2913.0134478823484, 0.0]
['beep', 0.0, -3862.135572688052, 0.0, 0.0, 0.0, 0.0, -2913.192261837991, 0.0]
['beep', 0.0, -3860.481543598359, 0.0, 0.0, 0.0, 0.0, -2913.192261837991, 0.0]
['beep', 0.0, -3858.0675551971863, 0.0, 0.0, 0.0, 0.0, -2914.2651455718456, 0.0]
['beep', 0.0, -3859.3192528866834, 0.0, 0.0, 0.0, 0.0, -2912.7452269488845, 0.0]
['beep', 0.0, -3859.5651220756918, 0.0, 0.0, 0.0, 0.0, -2911.6723432150297, 0.0]
['beep', 0.0, -3859.073383697675, 0.0, 0.0, 0.0, 0.0, -2913.773407193829, 0.0]
['beep', 0.0, -3859.788639520245, 0.0, 0.0, 0.0, 0.0, -2913.0581513712586, 0.0]
['beep', 0.0, -3860.5933023206358, 0.0, 0.0, 0.0, 0.0, -2912.3652472931444, 0.0]
['beep', 0.0, -3861.9567587324095, 0.0, 0.0, 0.0, 0.0, -2913.3710757936333, 0.0]
['beep', 0.0, -3862.5379040882476, 0.0, 0.0, 0.0, 0.0, -2912.924040904527, 0.0]
['beep', 0.0, -3862.5155523437925, 0.0, 0.0, 0.0, 0.0, -2913.6392967270967, 0.0]
['beep', 0.0, -3861.8673517545885, 0.0, 0.0, 0.0, 0.0, -2914.1980903384797, 0.0]
['beep', 0.0, -3861.2415029098397, 0.0, 0.0, 0.0, 0.0, -2914.443959527488, 0.0]
['beep', 0.0, -3861.554427332214, 0.0, 0.0, 0.0, 0.0, -2913.236965326901, 0.0]
['beep', 0.0, -3860.794468020734, 0.0, 0.0, 0.0, 0.0, -2912.924040904527, 0.0]
['beep', 0.0, -3859.43101160896, 0.0, 0.0, 0.0, 0.0, -2913.3487240491777, 0.0]
['beep', 0.0, -3860.3250813871723, 0.0, 0.0, 0.0, 0.0, -2912.633468226608, 0.0]
['beep', 0.0, -3861.62148256558, 0.0, 0.0, 0.0, 0.0, -2913.840462427195, 0.0]
['beep', 0.0, -3860.52624708727, 0.0, 0.0, 0.0, 0.0, -2916.8355961842058, 0.0]
['beep', 0.0, -3860.883874998555, 0.0, 0.0, 0.0, 0.0, -2914.890994416594, 0.0]
['beep', 0.0, -3861.0626889541973, 0.0, 0.0, 0.0, 0.0, -2912.789930437795, 0.0]
['beep', 0.0, -3861.0850406986524, 0.0, 0.0, 0.0, 0.0, -2913.52753800482, 0.0]
['beep', 0.0, -3861.0850406986524, 0.0, 0.0, 0.0, 0.0, -2915.025104883326, 0.0]
['beep', 0.0, -3861.107392443108, 0.0, 0.0, 0.0, 0.0, -2914.667476972041, 0.0]
['beep', 0.0, -3861.688537798946, 0.0, 0.0, 0.0, 0.0, -2913.1699100935352, 0.0]
['beep', 0.0, -3860.101563942619, 0.0, 0.0, 0.0, 0.0, -2911.4488257704766, 0.0]
['beep', 0.0, -3861.8673517545885, 0.0, 0.0, 0.0, 0.0, -2911.6946949594853, 0.0]
['beep', 0.0, -3861.9344069879544, 0.0, 0.0, 0.0, 0.0, -2911.605287981664, 0.0]
['beep', 0.0, -3858.8945697420327, 0.0, 0.0, 0.0, 0.0, -2911.7393984483956, 0.0]
['beep', 0.0, -3859.5651220756918, 0.0, 0.0, 0.0, 0.0, -2913.0581513712586, 0.0]
['beep', 0.0, -3859.3416046311386, 0.0, 0.0, 0.0, 0.0, -2913.6616484715523, 0.0]
['beep', 0.0, -3860.5038953428148, 0.0, 0.0, 0.0, 0.0, -2914.086331616203, 0.0]
['beep', 0.0, -3861.487372098848, 0.0, 0.0, 0.0, 0.0, -2913.6616484715523, 0.0]
['beep', 0.0, -3860.749764531823, 0.0, 0.0, 0.0, 0.0, -2912.4323025265103, 0.0]
['beep', 0.0, -3859.743936031334, 0.0, 0.0, 0.0, 0.0, -2911.0688461147365, 0.0]
['beep', 0.0, -3860.682709298457, 0.0, 0.0, 0.0, 0.0, -2912.0076193818595, 0.0]
['beep', 0.0, -3861.0626889541973, 0.0, 0.0, 0.0, 0.0, -2911.024142625826, 0.0]
['beep', 0.0, -3860.9956337208314, 0.0, 0.0, 0.0, 0.0, -2911.515881003843, 0.0]
['beep', 0.0, -3858.7604592753005, 0.0, 0.0, 0.0, 0.0, -2910.0630176142477, 0.0]
['beep', 0.0, -3859.4757150978703, 0.0, 0.0, 0.0, 0.0, -2909.6159827251417, 0.0]
['beep', 0.0, -3859.2521976533176, 0.0, 0.0, 0.0, 0.0, -2911.851157170672, 0.0]
['beep', 0.0, -3858.827514508667, 0.0, 0.0, 0.0, 0.0, -2910.442997269988, 0.0]
['beep', 0.0, -3861.0179854652865, 0.0, 0.0, 0.0, 0.0, -2911.180604837013, 0.0]
['beep', 0.0, -3859.520418586781, 0.0, 0.0, 0.0, 0.0, -2911.0688461147365, 0.0]
['beep', 0.0, -3860.459191853904, 0.0, 0.0, 0.0, 0.0, -2910.7335699479067, 0.0]
['beep', 0.0, -3861.979110476865, 0.0, 0.0, 0.0, 0.0, -2910.4653490144433, 0.0]
['beep', 0.0, -3859.833343009155, 0.0, 0.0, 0.0, 0.0, -2909.370113536133, 0.0]
['beep', 0.0, -3860.2803778982616, 0.0, 0.0, 0.0, 0.0, -2910.8453286701833, 0.0]
['beep', 0.0, -3860.6603575540016, 0.0, 0.0, 0.0, 0.0, -2909.057189113759, 0.0]
['beep', 0.0, -3859.229845908862, 0.0, 0.0, 0.0, 0.0, -2911.9405641484936, 0.0]
['beep', 0.0, -3860.19097092044, 0.0, 0.0, 0.0, 0.0, -2911.5829362372087, 0.0]
['beep', 0.0, -3860.772116276278, 0.0, 0.0, 0.0, 0.0, -2909.4595205139544, 0.0]
['beep', 0.0, -3860.392136620538, 0.0, 0.0, 0.0, 0.0, -2909.794796680784, 0.0]
['beep', 0.0, -3860.5709505761806, 0.0, 0.0, 0.0, 0.0, -2909.7500931918735, 0.0]
['beep', 0.0, -3860.749764531823, 0.0, 0.0, 0.0, 0.0, -2910.8453286701833, 0.0]
['beep', 0.0, -3860.682709298457, 0.0, 0.0, 0.0, 0.0, -2912.566412993242, 0.0]
['beep', 0.0, -3860.2580261538064, 0.0, 0.0, 0.0, 0.0, -2912.633468226608, 0.0]
['beep', 0.0, -3859.073383697675, 0.0, 0.0, 0.0, 0.0, -2913.125206604625, 0.0]
['beep', 0.0, -3861.174447676474, 0.0, 0.0, 0.0, 0.0, -2911.8064536817615, 0.0]
['beep', 0.0, -3861.822648265678, 0.0, 0.0, 0.0, 0.0, -2910.912383903549, 0.0]
['beep', 0.0, -3861.979110476865, 0.0, 0.0, 0.0, 0.0, -2913.3040205602674, 0.0]
['beep', 0.0, -3862.9625872328984, 0.0, 0.0, 0.0, 0.0, -2913.3040205602674, 0.0]
['beep', 0.0, -3862.783773277256, 0.0, 0.0, 0.0, 0.0, -2910.934735648005, 0.0]
['beep', 0.0, -3861.8002965212227, 0.0, 0.0, 0.0, 0.0, -2912.9463926489825, 0.0]
['beep', 0.0, -3861.196799420929, 0.0, 0.0, 0.0, 0.0, -2915.0027531388705, 0.0]
['beep', 0.0, -3863.2084564219067, 0.0, 0.0, 0.0, 0.0, -2914.153386849569, 0.0]
['beep', 0.0, -3862.2696831547837, 0.0, 0.0, 0.0, 0.0, -2913.14755834908, 0.0]
['beep', 0.0, -3859.855694753611, 0.0, 0.0, 0.0, 0.0, -2913.125206604625, 0.0]
['beep', 0.0, -3858.782811019756, 0.0, 0.0, 0.0, 0.0, -2911.8064536817615, 0.0]
['beep', 0.0, -3857.329947630161, 0.0, 0.0, 0.0, 0.0, -2910.5547559922643, 0.0]
['beep', 0.0, -3856.0558981962085, 0.0, 0.0, 0.0, 0.0, -2911.1359013481024, 0.0]
['beep', 0.0, -3854.580683062158, 0.0, 0.0, 0.0, 0.0, -2911.515881003843, 0.0]
['beep', 0.0, -3851.585549305147, 0.0, 0.0, 0.0, 0.0, -2911.180604837013, 0.0]
['beep', 0.0, -3854.625386551069, 0.0, 0.0, 0.0, 0.0, -2907.4702152574323, 0.0]
['beep', 0.0, -3858.0452034527307, 0.0, 0.0, 0.0, 0.0, -2909.8171484252393, 0.0]
['beep', 0.0, -3859.1180871865854, 0.0, 0.0, 0.0, 0.0, -2910.018314125337, 0.0]
['beep', 0.0, -3859.5427703312366, 0.0, 0.0, 0.0, 0.0, -2910.57710773672, 0.0]
['beep', 0.0, -3859.162790675496, 0.0, 0.0, 0.0, 0.0, -2910.24183156989, 0.0]
['beep', 0.0, -3860.3474331316274, 0.0, 0.0, 0.0, 0.0, -2912.6111164821527, 0.0]
['beep', 0.0, -3860.548598831725, 0.0, 0.0, 0.0, 0.0, -2914.3098490607563, 0.0]
['beep', 0.0, -3859.7662877757894, 0.0, 0.0, 0.0, 0.0, -2912.119378104136, 0.0]
['beep', 0.0, -3860.749764531823, 0.0, 0.0, 0.0, 0.0, -2909.794796680784, 0.0]
['beep', 0.0, -3860.0121569647977, 0.0, 0.0, 0.0, 0.0, -2910.800625181273, 0.0]
['beep', 0.0, -3858.5369418307478, 0.0, 0.0, 0.0, 0.0, -2909.951258891971, 0.0]
['beep', 0.0, -3860.079212198164, 0.0, 0.0, 0.0, 0.0, -2910.1077211031584, 0.0]
['beep', 0.0, -3860.9509302319207, 0.0, 0.0, 0.0, 0.0, -2912.275840315323, 0.0]
['beep', 0.0, -3860.0345087092533, 0.0, 0.0, 0.0, 0.0, -2914.0416281272924, 0.0]
['beep', 0.0, -3861.0626889541973, 0.0, 0.0, 0.0, 0.0, -2914.667476972041, 0.0]
['beep', 0.0, -3860.392136620538, 0.0, 0.0, 0.0, 0.0, -2914.153386849569, 0.0]
['beep', 0.0, -3860.5038953428148, 0.0, 0.0, 0.0, 0.0, -2914.376904294122, 0.0]
['beep', 0.0, -3861.174447676474, 0.0, 0.0, 0.0, 0.0, -2913.728703704918, 0.0]
['beep', 0.0, -3859.833343009155, 0.0, 0.0, 0.0, 0.0, -2913.6616484715523, 0.0]
['beep', 0.0, -3859.2745493977727, 0.0, 0.0, 0.0, 0.0, -2914.868642672139, 0.0]
['beep', 0.0, -3861.0850406986524, 0.0, 0.0, 0.0, 0.0, -2912.7228752044293, 0.0]
['beep', 0.0, -3860.9509302319207, 0.0, 0.0, 0.0, 0.0, -2912.253488570868, 0.0]
['beep', 0.0, -3861.5767790766695, 0.0, 0.0, 0.0, 0.0, -2912.901689160072, 0.0]
['beep', 0.0, -3861.420316865482, 0.0, 0.0, 0.0, 0.0, -2913.773407193829, 0.0]
['beep', 0.0, -3860.7274127873675, 0.0, 0.0, 0.0, 0.0, -2913.214613582446, 0.0]
['beep', 0.0, -3859.5427703312366, 0.0, 0.0, 0.0, 0.0, -2912.499357759876, 0.0]
['beep', 0.0, -3861.487372098848, 0.0, 0.0, 0.0, 0.0, -2913.6840002160075, 0.0]
['beep', 0.0, -3861.62148256558, 0.0, 0.0, 0.0, 0.0, -2913.3487240491777, 0.0]
['beep', 0.0, -3862.1802761769627, 0.0, 0.0, 0.0, 0.0, -2914.4216077830324, 0.0]
['beep', 0.0, -3860.5709505761806, 0.0, 0.0, 0.0, 0.0, -2913.6392967270967, 0.0]
['beep', 0.0, -3859.1180871865854, 0.0, 0.0, 0.0, 0.0, -2913.773407193829, 0.0]
['beep', 0.0, -3861.5320755877588, 0.0, 0.0, 0.0, 0.0, -2913.728703704918, 0.0]
['beep', 0.0, -3860.235674409351, 0.0, 0.0, 0.0, 0.0, -2913.3487240491777, 0.0]
['beep', 0.0, -3861.912055243499, 0.0, 0.0, 0.0, 0.0, -2911.9405641484936, 0.0]
['beep', 0.0, -3859.3863081200493, 0.0, 0.0, 0.0, 0.0, -2914.175738594024, 0.0]
['beep', 0.0, -3858.8945697420327, 0.0, 0.0, 0.0, 0.0, -2912.5887647376976, 0.0]
['beep', 0.0, -3859.945101731432, 0.0, 0.0, 0.0, 0.0, -2912.253488570868, 0.0]
['beep', 0.0, -3860.5709505761806, 0.0, 0.0, 0.0, 0.0, -2913.594593238186, 0.0]
['beep', 0.0, -3861.330909887661, 0.0, 0.0, 0.0, 0.0, -2913.438131026999, 0.0]
['beep', 0.0, -3861.0179854652865, 0.0, 0.0, 0.0, 0.0, -2913.818110682739, 0.0]
['beep', 0.0, -3859.9227499869767, 0.0, 0.0, 0.0, 0.0, -2913.3040205602674, 0.0]
['beep', 0.0, -3859.5651220756918, 0.0, 0.0, 0.0, 0.0, -2914.600421738675, 0.0]
['beep', 0.0, -3861.845000010133, 0.0, 0.0, 0.0, 0.0, -2912.7005234599737, 0.0]
['beep', 0.0, -3861.9567587324095, 0.0, 0.0, 0.0, 0.0, -2913.505186260365, 0.0]
['beep', 0.0, -3859.229845908862, 0.0, 0.0, 0.0, 0.0, -2914.3992560385773, 0.0]
['beep', 0.0, -3860.8615232540997, 0.0, 0.0, 0.0, 0.0, -2913.4157792825436, 0.0]
['beep', 0.0, -3859.9898052203425, 0.0, 0.0, 0.0, 0.0, -2913.86281417165, 0.0]
['beep', 0.0, -3861.487372098848, 0.0, 0.0, 0.0, 0.0, -2913.192261837991, 0.0]
['beep', 0.0, -3862.5826075771583, 0.0, 0.0, 0.0, 0.0, -2914.8462909276836, 0.0]
['beep', 0.0, -3861.2415029098397, 0.0, 0.0, 0.0, 0.0, -2913.818110682739, 0.0]
['beep', 0.0, -3860.14626743153, 0.0, 0.0, 0.0, 0.0, -2911.962915892949, 0.0]
['beep', 0.0, -3860.1239156870743, 0.0, 0.0, 0.0, 0.0, -2912.5887647376976, 0.0]
['beep', 0.0, -3861.777944776767, 0.0, 0.0, 0.0, 0.0, -2913.6169449826416, 0.0]
['beep', 0.0, -3862.2696831547837, 0.0, 0.0, 0.0, 0.0, -2913.0357996268035, 0.0]
['beep', 0.0, -3860.3250813871723, 0.0, 0.0, 0.0, 0.0, -2911.962915892949, 0.0]
['beep', 0.0, -3858.3804796195604, 0.0, 0.0, 0.0, 0.0, -2912.9687443934376, 0.0]
['beep', 0.0, -3859.6992325424235, 0.0, 0.0, 0.0, 0.0, -2912.633468226608, 0.0]
['beep', 0.0, -3861.174447676474, 0.0, 0.0, 0.0, 0.0, -2910.800625181273, 0.0]
['beep', 0.0, -3860.1239156870743, 0.0, 0.0, 0.0, 0.0, -2911.0688461147365, 0.0]
['beep', 0.0, -3860.6156540650913, 0.0, 0.0, 0.0, 0.0, -2912.477006015421, 0.0]
['beep', 0.0, -3859.498066842326, 0.0, 0.0, 0.0, 0.0, -2912.5887647376976, 0.0]
['beep', 0.0, -3860.5933023206358, 0.0, 0.0, 0.0, 0.0, -2913.192261837991, 0.0]
['beep', 0.0, -3861.3756133765714, 0.0, 0.0, 0.0, 0.0, -2911.828805426217, 0.0]
['beep', 0.0, -3861.5991308211246, 0.0, 0.0, 0.0, 0.0, -2911.962915892949, 0.0]
['beep', 0.0, -3861.688537798946, 0.0, 0.0, 0.0, 0.0, -2912.3205438042337, 0.0]
['beep', 0.0, -3861.3085581432056, 0.0, 0.0, 0.0, 0.0, -2911.0688461147365, 0.0]
['beep', 0.0, -3859.855694753611, 0.0, 0.0, 0.0, 0.0, -2912.1417298485912, 0.0]
['beep', 0.0, -3861.397965121027, 0.0, 0.0, 0.0, 0.0, -2912.9687443934376, 0.0]
['beep', 0.0, -3862.135572688052, 0.0, 0.0, 0.0, 0.0, -2913.6392967270967, 0.0]
['beep', 0.0, -3862.426145365971, 0.0, 0.0, 0.0, 0.0, -2913.192261837991, 0.0]
['beep', 0.0, -3861.3756133765714, 0.0, 0.0, 0.0, 0.0, -2913.192261837991, 0.0]
['beep', 0.0, -3862.359090132605, 0.0, 0.0, 0.0, 0.0, -2912.9687443934376, 0.0]
['beep', 0.0, -3862.202627921418, 0.0, 0.0, 0.0, 0.0, -2914.533366505309, 0.0]
['beep', 0.0, -3860.7050610429123, 0.0, 0.0, 0.0, 0.0, -2914.0639798717475, 0.0]
['beep', 0.0, -3860.0345087092533, 0.0, 0.0, 0.0, 0.0, -2912.0523228707702, 0.0]
['beep', 0.0, -3861.2191511653846, 0.0, 0.0, 0.0, 0.0, -2913.3710757936333, 0.0]
['beep', 0.0, -3860.9509302319207, 0.0, 0.0, 0.0, 0.0, -2913.1699100935352, 0.0]
['beep', 0.0, -3861.5767790766695, 0.0, 0.0, 0.0, 0.0, -2912.4323025265103, 0.0]
['beep', 0.0, -3863.9013605000214, 0.0, 0.0, 0.0, 0.0, -2911.1359013481024, 0.0]
['beep', 0.0, -3861.8673517545885, 0.0, 0.0, 0.0, 0.0, -2912.499357759876, 0.0]
['beep', 0.0, -3859.6768807979684, 0.0, 0.0, 0.0, 0.0, -2912.499357759876, 0.0]
['beep', 0.0, -3860.2580261538064, 0.0, 0.0, 0.0, 0.0, -2911.4488257704766, 0.0]
['beep', 0.0, -3861.7332412878563, 0.0, 0.0, 0.0, 0.0, -2911.6946949594853, 0.0]
['beep', 0.0, -3862.2249796658734, 0.0, 0.0, 0.0, 0.0, -2913.7063519604626, 0.0]
['beep', 0.0, -3861.2191511653846, 0.0, 0.0, 0.0, 0.0, -2912.76757869334, 0.0]
['beep', 0.0, -3859.4086598645044, 0.0, 0.0, 0.0, 0.0, -2911.225308325924, 0.0]
['beep', 0.0, -3862.3143866436944, 0.0, 0.0, 0.0, 0.0, -2912.186433337502, 0.0]
['beep', 0.0, -3862.649662810524, 0.0, 0.0, 0.0, 0.0, -2914.2874973163007, 0.0]
['beep', 0.0, -3861.196799420929, 0.0, 0.0, 0.0, 0.0, -2913.929869405016, 0.0]
['beep', 0.0, -3860.8615232540997, 0.0, 0.0, 0.0, 0.0, -2912.789930437795, 0.0]
['beep', 0.0, -3861.62148256558, 0.0, 0.0, 0.0, 0.0, -2911.895860659583, 0.0]
['beep', 0.0, -3861.710889543401, 0.0, 0.0, 0.0, 0.0, -2911.5829362372087, 0.0]
['beep', 0.0, -3862.8284767661667, 0.0, 0.0, 0.0, 0.0, -2912.566412993242, 0.0]
['beep', 0.0, -3862.068517454686, 0.0, 0.0, 0.0, 0.0, -2913.6169449826416, 0.0]
['beep', 0.0, -3862.0238139657754, 0.0, 0.0, 0.0, 0.0, -2913.192261837991, 0.0]
['beep', 0.0, -3862.0908691991413, 0.0, 0.0, 0.0, 0.0, -2911.918212404038, 0.0]
['beep', 0.0, -3862.3143866436944, 0.0, 0.0, 0.0, 0.0, -2911.985267637404, 0.0]
['beep', 0.0, -3860.9509302319207, 0.0, 0.0, 0.0, 0.0, -2913.3040205602674, 0.0]
['beep', 0.0, -3861.2191511653846, 0.0, 0.0, 0.0, 0.0, -2915.0474566277812, 0.0]
['beep', 0.0, -3861.174447676474, 0.0, 0.0, 0.0, 0.0, -2913.6840002160075, 0.0]
['beep', 0.0, -3861.196799420929, 0.0, 0.0, 0.0, 0.0, -2913.14755834908, 0.0]
['beep', 0.0, -3860.2803778982616, 0.0, 0.0, 0.0, 0.0, -2911.2923635592897, 0.0]
['beep', 0.0, -3860.9732819763763, 0.0, 0.0, 0.0, 0.0, -2913.0581513712586, 0.0]
['beep', 0.0, -3861.2862063987504, 0.0, 0.0, 0.0, 0.0, -2912.5887647376976, 0.0]
['beep', 0.0, -3860.168619175985, 0.0, 0.0, 0.0, 0.0, -2911.627639726119, 0.0]
['beep', 0.0, -3860.0121569647977, 0.0, 0.0, 0.0, 0.0, -2913.0357996268035, 0.0]
['beep', 0.0, -3859.453363353415, 0.0, 0.0, 0.0, 0.0, -2913.4157792825436, 0.0]
['beep', 0.0, -3862.2696831547837, 0.0, 0.0, 0.0, 0.0, -2913.6392967270967, 0.0]
['beep', 0.0, -3861.755593032312, 0.0, 0.0, 0.0, 0.0, -2913.1028548601694, 0.0]
['beep', 0.0, -3863.454325610915, 0.0, 0.0, 0.0, 0.0, -2911.5829362372087, 0.0]
['beep', 0.0, -3862.8284767661667, 0.0, 0.0, 0.0, 0.0, -2911.6723432150297, 0.0]
['beep', 0.0, -3861.979110476865, 0.0, 0.0, 0.0, 0.0, -2911.4488257704766, 0.0]
['beep', 0.0, -3862.493200599337, 0.0, 0.0, 0.0, 0.0, -2912.0970263596805, 0.0]
['beep', 0.0, -3864.728375044868, 0.0, 0.0, 0.0, 0.0, -2912.186433337502, 0.0]
['beep', 0.0, -3863.8343052666555, 0.0, 0.0, 0.0, 0.0, -2912.119378104136, 0.0]
['beep', 0.0, -3861.465020354393, 0.0, 0.0, 0.0, 0.0, -2914.220442082935, 0.0]
['beep', 0.0, -3860.392136620538, 0.0, 0.0, 0.0, 0.0, -2914.511014760854, 0.0]
['beep', 0.0, -3862.9402354884432, 0.0, 0.0, 0.0, 0.0, -2913.0805031157142, 0.0]
['beep', 0.0, -3862.113220943597, 0.0, 0.0, 0.0, 0.0, -2913.6169449826416, 0.0]
['beep', 0.0, -3862.0908691991413, 0.0, 0.0, 0.0, 0.0, -2914.6898287164963, 0.0]
['beep', 0.0, -3860.6603575540016, 0.0, 0.0, 0.0, 0.0, -2914.5557182497646, 0.0]
['beep', 0.0, -3861.3532616321163, 0.0, 0.0, 0.0, 0.0, -2912.409950782055, 0.0]
['beep', 0.0, -3862.6720145549793, 0.0, 0.0, 0.0, 0.0, -2910.6888664589965, 0.0]
['beep', 0.0, -3861.174447676474, 0.0, 0.0, 0.0, 0.0, -2912.1417298485912, 0.0]
['beep', 0.0, -3861.3532616321163, 0.0, 0.0, 0.0, 0.0, -2913.594593238186, 0.0]
['beep', 0.0, -3861.5320755877588, 0.0, 0.0, 0.0, 0.0, -2912.8122821822503, 0.0]
['beep', 0.0, -3861.62148256558, 0.0, 0.0, 0.0, 0.0, -2913.929869405016, 0.0]
['beep', 0.0, -3862.3143866436944, 0.0, 0.0, 0.0, 0.0, -2913.6616484715523, 0.0]
['beep', 0.0, -3863.8566570111107, 0.0, 0.0, 0.0, 0.0, -2912.8122821822503, 0.0]
['beep', 0.0, -3861.040337209742, 0.0, 0.0, 0.0, 0.0, -2912.924040904527, 0.0]
['beep', 0.0, -3862.202627921418, 0.0, 0.0, 0.0, 0.0, -2912.789930437795, 0.0]
['beep', 0.0, -3860.6380058095465, 0.0, 0.0, 0.0, 0.0, -2913.4157792825436, 0.0]
['beep', 0.0, -3861.1520959320187, 0.0, 0.0, 0.0, 0.0, -2911.6946949594853, 0.0]
['beep', 0.0, -3863.879008755566, 0.0, 0.0, 0.0, 0.0, -2911.270011814834, 0.0]
['beep', 0.0, -3863.387270377549, 0.0, 0.0, 0.0, 0.0, -2912.0076193818595, 0.0]
['beep', 0.0, -3861.129744187563, 0.0, 0.0, 0.0, 0.0, -2911.851157170672, 0.0]
['beep', 0.0, -3862.5379040882476, 0.0, 0.0, 0.0, 0.0, -2909.8171484252393, 0.0]
['beep', 0.0, -3861.845000010133, 0.0, 0.0, 0.0, 0.0, -2910.018314125337, 0.0]
['beep', 0.0, -3862.5155523437925, 0.0, 0.0, 0.0, 0.0, -2913.7510554493733, 0.0]
['beep', 0.0, -3861.3085581432056, 0.0, 0.0, 0.0, 0.0, -2914.175738594024, 0.0]
['beep', 0.0, -3861.0626889541973, 0.0, 0.0, 0.0, 0.0, -2912.2311368264127, 0.0]
['beep', 0.0, -3859.833343009155, 0.0, 0.0, 0.0, 0.0, -2910.4653490144433, 0.0]
['beep', 0.0, -3860.19097092044, 0.0, 0.0, 0.0, 0.0, -2912.3652472931444, 0.0]
['beep', 0.0, -3859.9674534758874, 0.0, 0.0, 0.0, 0.0, -2912.4546542709654, 0.0]
['beep', 0.0, -3859.3863081200493, 0.0, 0.0, 0.0, 0.0, -2911.225308325924, 0.0]
['beep', 0.0, -3861.4426686099378, 0.0, 0.0, 0.0, 0.0, -2910.5547559922643, 0.0]
['beep', 0.0, -3858.4475348529263, 0.0, 0.0, 0.0, 0.0, -2912.0970263596805, 0.0]
['beep', 0.0, -3859.743936031334, 0.0, 0.0, 0.0, 0.0, -2912.0076193818595, 0.0]
['beep', 0.0, -3863.2531599108174, 0.0, 0.0, 0.0, 0.0, -2911.627639726119, 0.0]
['beep', 0.0, -3861.0850406986524, 0.0, 0.0, 0.0, 0.0, -2913.214613582446, 0.0]
['beep', 0.0, -3854.1783516619626, 0.0, 0.0, 0.0, 0.0, -2911.4488257704766, 0.0]
['beep', 0.0, -3852.747840016823, 0.0, 0.0, 0.0, 0.0, -2910.666514714541, 0.0]
['beep', 0.0, -3857.754630774812, 0.0, 0.0, 0.0, 0.0, -2911.270011814834, 0.0]
['beep', 0.0, -3859.0510319532195, 0.0, 0.0, 0.0, 0.0, -2911.828805426217, 0.0]
['beep', 0.0, -3857.5087615858033, 0.0, 0.0, 0.0, 0.0, -2912.7005234599737, 0.0]
['beep', 0.0, -3857.4417063524374, 0.0, 0.0, 0.0, 0.0, -2910.800625181273, 0.0]
['beep', 0.0, -3856.7264505298676, 0.0, 0.0, 0.0, 0.0, -2911.8064536817615, 0.0]
['beep', 0.0, -3858.9616249753985, 0.0, 0.0, 0.0, 0.0, -2913.9075176605606, 0.0]
['beep', 0.0, -3859.3863081200493, 0.0, 0.0, 0.0, 0.0, -2913.0134478823484, 0.0]
['beep', 0.0, -3857.866389497088, 0.0, 0.0, 0.0, 0.0, -2913.0134478823484, 0.0]
['beep', 0.0, -3858.559293575203, 0.0, 0.0, 0.0, 0.0, -2913.728703704918, 0.0]
['beep', 0.0, -3859.6768807979684, 0.0, 0.0, 0.0, 0.0, -2913.52753800482, 0.0]
['beep', 0.0, -3859.2745493977727, 0.0, 0.0, 0.0, 0.0, -2913.7510554493733, 0.0]
['beep', 0.0, -3858.5369418307478, 0.0, 0.0, 0.0, 0.0, -2914.667476972041, 0.0]
['beep', 0.0, -3858.6934040419346, 0.0, 0.0, 0.0, 0.0, -2912.7452269488845, 0.0]
['beep', 0.0, -3858.0004999638204, 0.0, 0.0, 0.0, 0.0, -2913.4157792825436, 0.0]
['beep', 0.0, -3857.821686008178, 0.0, 0.0, 0.0, 0.0, -2915.382732794611, 0.0]
['beep', 0.0, -3857.821686008178, 0.0, 0.0, 0.0, 0.0, -2915.6733054725296, 0.0]
['beep', 0.0, -3858.469886597382, 0.0, 0.0, 0.0, 0.0, -2914.756883949862, 0.0]
['beep', 0.0, -3859.520418586781, 0.0, 0.0, 0.0, 0.0, -2913.0805031157142, 0.0]
['beep', 0.0, -3859.363956375594, 0.0, 0.0, 0.0, 0.0, -2913.236965326901, 0.0]
['beep', 0.0, -3857.262892396795, 0.0, 0.0, 0.0, 0.0, -2914.153386849569, 0.0]
['beep', 0.0, -3856.972319718876, 0.0, 0.0, 0.0, 0.0, -2914.131035105114, 0.0]
['beep', 0.0, -3857.754630774812, 0.0, 0.0, 0.0, 0.0, -2913.7510554493733, 0.0]
['beep', 0.0, -3858.939273230943, 0.0, 0.0, 0.0, 0.0, -2913.6616484715523, 0.0]
['beep', 0.0, -3857.6875755414458, 0.0, 0.0, 0.0, 0.0, -2913.52753800482, 0.0]
['beep', 0.0, -3857.911092985999, 0.0, 0.0, 0.0, 0.0, -2912.834633926706, 0.0]
['beep', 0.0, -3858.6263488085688, 0.0, 0.0, 0.0, 0.0, -2911.7393984483956, 0.0]
['beep', 0.0, -3856.815857507689, 0.0, 0.0, 0.0, 0.0, -2913.840462427195, 0.0]
['beep', 0.0, -3857.173485418974, 0.0, 0.0, 0.0, 0.0, -2912.1640815930464, 0.0]
['beep', 0.0, -3857.754630774812, 0.0, 0.0, 0.0, 0.0, -2912.477006015421, 0.0]
['beep', 0.0, -3857.754630774812, 0.0, 0.0, 0.0, 0.0, -2912.8122821822503, 0.0]
['beep', 0.0, -3857.1511336745184, 0.0, 0.0, 0.0, 0.0, -2914.6451252275856, 0.0]
['beep', 0.0, -3859.6992325424235, 0.0, 0.0, 0.0, 0.0, -2913.0581513712586, 0.0]
['beep', 0.0, -3859.453363353415, 0.0, 0.0, 0.0, 0.0, -2913.14755834908, 0.0]
['beep', 0.0, -3858.71575578639, 0.0, 0.0, 0.0, 0.0, -2914.6451252275856, 0.0]
['beep', 0.0, -3858.4028313640156, 0.0, 0.0, 0.0, 0.0, -2913.1699100935352, 0.0]
['beep', 0.0, -3858.4028313640156, 0.0, 0.0, 0.0, 0.0, -2911.962915892949, 0.0]
['beep', 0.0, -3858.3134243861946, 0.0, 0.0, 0.0, 0.0, -2911.7841019373063, 0.0]
['beep', 0.0, -3855.720622029379, 0.0, 0.0, 0.0, 0.0, -2912.186433337502, 0.0]
['beep', 0.0, -3858.9616249753985, 0.0, 0.0, 0.0, 0.0, -2912.633468226608, 0.0]
['beep', 0.0, -3861.196799420929, 0.0, 0.0, 0.0, 0.0, -2912.477006015421, 0.0]
['beep', 0.0, -3860.3474331316274, 0.0, 0.0, 0.0, 0.0, -2912.633468226608, 0.0]
['beep', 0.0, -3860.4144883649933, 0.0, 0.0, 0.0, 0.0, -2913.192261837991, 0.0]
['beep', 0.0, -3859.6545290535128, 0.0, 0.0, 0.0, 0.0, -2913.795758938284, 0.0]
['beep', 0.0, -3858.9839767198537, 0.0, 0.0, 0.0, 0.0, -2912.924040904527, 0.0]
['beep', 0.0, -3860.0121569647977, 0.0, 0.0, 0.0, 0.0, -2911.024142625826, 0.0]
['beep', 0.0, -3860.749764531823, 0.0, 0.0, 0.0, 0.0, -2913.9075176605606, 0.0]
['beep', 0.0, -3858.4028313640156, 0.0, 0.0, 0.0, 0.0, -2914.5780699942197, 0.0]
['beep', 0.0, -3856.7711540187784, 0.0, 0.0, 0.0, 0.0, -2913.929869405016, 0.0]
['beep', 0.0, -3855.8994359850212, 0.0, 0.0, 0.0, 0.0, -2912.7452269488845, 0.0]
['beep', 0.0, -3855.005366206809, 0.0, 0.0, 0.0, 0.0, -2911.851157170672, 0.0]
['beep', 0.0, -3854.983014462354, 0.0, 0.0, 0.0, 0.0, -2911.8064536817615, 0.0]
['beep', 0.0, -3856.815857507689, 0.0, 0.0, 0.0, 0.0, -2911.4041222815663, 0.0]
['beep', 0.0, -3859.363956375594, 0.0, 0.0, 0.0, 0.0, -2910.24183156989, 0.0]
['beep', 0.0, -3859.5651220756918, 0.0, 0.0, 0.0, 0.0, -2910.3982937810774, 0.0]
['beep', 0.0, -3859.3863081200493, 0.0, 0.0, 0.0, 0.0, -2911.851157170672, 0.0]
['beep', 0.0, -3859.6768807979684, 0.0, 0.0, 0.0, 0.0, -2913.86281417165, 0.0]
['beep', 0.0, -3860.0568604537084, 0.0, 0.0, 0.0, 0.0, -2912.186433337502, 0.0]
['beep', 0.0, -3859.229845908862, 0.0, 0.0, 0.0, 0.0, -2911.7170467039405, 0.0]
['beep', 0.0, -3858.268720897284, 0.0, 0.0, 0.0, 0.0, -2912.856985671161, 0.0]
['beep', 0.0, -3858.827514508667, 0.0, 0.0, 0.0, 0.0, -2911.6499914705746, 0.0]
['beep', 0.0, -3859.073383697675, 0.0, 0.0, 0.0, 0.0, -2912.6781717155186, 0.0]
['beep', 0.0, -3858.2910726417394, 0.0, 0.0, 0.0, 0.0, -2911.024142625826, 0.0]
['beep', 0.0, -3858.179313919463, 0.0, 0.0, 0.0, 0.0, -2909.370113536133, 0.0]
['beep', 0.0, -3857.106430185608, 0.0, 0.0, 0.0, 0.0, -2910.5547559922643, 0.0]
['beep', 0.0, -3858.9839767198537, 0.0, 0.0, 0.0, 0.0, -2913.9522211494714, 0.0]
['beep', 0.0, -3857.776982519267, 0.0, 0.0, 0.0, 0.0, -2914.086331616203, 0.0]
['beep', 0.0, -3858.7604592753005, 0.0, 0.0, 0.0, 0.0, -2910.912383903549, 0.0]
['beep', 0.0, -3857.0840784411525, 0.0, 0.0, 0.0, 0.0, -2912.3205438042337, 0.0]
['beep', 0.0, -3858.6039970641136, 0.0, 0.0, 0.0, 0.0, -2911.0464943702814, 0.0]
['beep', 0.0, -3856.882912741055, 0.0, 0.0, 0.0, 0.0, -2911.270011814834, 0.0]
['beep', 0.0, -3858.805162764211, 0.0, 0.0, 0.0, 0.0, -2912.0299711263146, 0.0]
['beep', 0.0, -3859.855694753611, 0.0, 0.0, 0.0, 0.0, -2912.119378104136, 0.0]
['beep', 0.0, -3859.520418586781, 0.0, 0.0, 0.0, 0.0, -2913.3487240491777, 0.0]
['beep', 0.0, -3859.1851424199517, 0.0, 0.0, 0.0, 0.0, -2911.8064536817615, 0.0]
['beep', 0.0, -3858.782811019756, 0.0, 0.0, 0.0, 0.0, -2910.890032159094, 0.0]
['beep', 0.0, -3858.581645319658, 0.0, 0.0, 0.0, 0.0, -2911.851157170672, 0.0]
['beep', 0.0, -3857.866389497088, 0.0, 0.0, 0.0, 0.0, -2909.9736106364267, 0.0]
['beep', 0.0, -3857.173485418974, 0.0, 0.0, 0.0, 0.0, -2910.666514714541, 0.0]
['beep', 0.0, -3858.4475348529263, 0.0, 0.0, 0.0, 0.0, -2910.4877007588984, 0.0]
['beep', 0.0, -3857.844037752633, 0.0, 0.0, 0.0, 0.0, -2910.510052503354, 0.0]
['beep', 0.0, -3857.9334447304545, 0.0, 0.0, 0.0, 0.0, -2910.867680414639, 0.0]
['beep', 0.0, -3858.827514508667, 0.0, 0.0, 0.0, 0.0, -2912.544061248787, 0.0]
['beep', 0.0, -3858.6039970641136, 0.0, 0.0, 0.0, 0.0, -2912.342895548689, 0.0]
['beep', 0.0, -3858.4028313640156, 0.0, 0.0, 0.0, 0.0, -2909.4148170250437, 0.0]
['beep', 0.0, -3859.363956375594, 0.0, 0.0, 0.0, 0.0, -2908.565450735742, 0.0]
['beep', 0.0, -3859.6768807979684, 0.0, 0.0, 0.0, 0.0, -2909.213651324946, 0.0]
['beep', 0.0, -3859.520418586781, 0.0, 0.0, 0.0, 0.0, -2909.370113536133, 0.0]
['beep', 0.0, -3860.3474331316274, 0.0, 0.0, 0.0, 0.0, -2910.5547559922643, 0.0]
['beep', 0.0, -3861.2415029098397, 0.0, 0.0, 0.0, 0.0, -2910.5547559922643, 0.0]
['beep', 0.0, -3860.235674409351, 0.0, 0.0, 0.0, 0.0, -2909.995962380882, 0.0]
['beep', 0.0, -3859.1851424199517, 0.0, 0.0, 0.0, 0.0, -2910.6441629700857, 0.0]
['beep', 0.0, -3859.9898052203425, 0.0, 0.0, 0.0, 0.0, -2911.0911978591917, 0.0]
['beep', 0.0, -3860.5038953428148, 0.0, 0.0, 0.0, 0.0, -2909.5265757473203, 0.0]
['beep', 0.0, -3859.453363353415, 0.0, 0.0, 0.0, 0.0, -2909.571279236231, 0.0]
['beep', 0.0, -3860.0568604537084, 0.0, 0.0, 0.0, 0.0, -2908.3866367800997, 0.0]
['beep', 0.0, -3858.5369418307478, 0.0, 0.0, 0.0, 0.0, -2908.5878024801973, 0.0]
['beep', 0.0, -3858.6710522974795, 0.0, 0.0, 0.0, 0.0, -2910.0853693587032, 0.0]
['beep', 0.0, -3859.073383697675, 0.0, 0.0, 0.0, 0.0, -2909.884203658605, 0.0]
['beep', 0.0, -3859.073383697675, 0.0, 0.0, 0.0, 0.0, -2910.442997269988, 0.0]
['beep', 0.0, -3857.2852441412506, 0.0, 0.0, 0.0, 0.0, -2911.1135496036472, 0.0]
['beep', 0.0, -3858.4475348529263, 0.0, 0.0, 0.0, 0.0, -2910.1300728476135, 0.0]
['beep', 0.0, -3859.073383697675, 0.0, 0.0, 0.0, 0.0, -2910.7782734368175, 0.0]
['beep', 0.0, -3858.916921486488, 0.0, 0.0, 0.0, 0.0, -2909.951258891971, 0.0]
['beep', 0.0, -3857.5758168191696, 0.0, 0.0, 0.0, 0.0, -2910.3535902921667, 0.0]
['beep', 0.0, -3858.7381075308454, 0.0, 0.0, 0.0, 0.0, -2908.565450735742, 0.0]
['beep', 0.0, -3858.71575578639, 0.0, 0.0, 0.0, 0.0, -2907.8054914242616, 0.0]
['beep', 0.0, -3856.9276162299657, 0.0, 0.0, 0.0, 0.0, -2910.2641833143457, 0.0]
['beep', 0.0, -3858.3134243861946, 0.0, 0.0, 0.0, 0.0, -2911.3370670482004, 0.0]
['beep', 0.0, -3856.949967974421, 0.0, 0.0, 0.0, 0.0, -2909.884203658605, 0.0]
['beep', 0.0, -3858.3357761306497, 0.0, 0.0, 0.0, 0.0, -2907.2019943239684, 0.0]
['beep', 0.0, -3857.397002863527, 0.0, 0.0, 0.0, 0.0, -2907.8725466576275, 0.0]
['beep', 0.0, -3859.743936031334, 0.0, 0.0, 0.0, 0.0, -2909.012485624848, 0.0]
['beep', 0.0, -3857.397002863527, 0.0, 0.0, 0.0, 0.0, -2909.8171484252393, 0.0]
['beep', 0.0, -3858.224017408373, 0.0, 0.0, 0.0, 0.0, -2909.571279236231, 0.0]
['beep', 0.0, -3856.1229534295744, 0.0, 0.0, 0.0, 0.0, -2909.6159827251417, 0.0]
['beep', 0.0, -3858.9616249753985, 0.0, 0.0, 0.0, 0.0, -2908.8336716692056, 0.0]
['beep', 0.0, -3859.0063284643093, 0.0, 0.0, 0.0, 0.0, -2910.2641833143457, 0.0]
['beep', 0.0, -3858.6710522974795, 0.0, 0.0, 0.0, 0.0, -2908.699561202474, 0.0]
['beep', 0.0, -3859.3863081200493, 0.0, 0.0, 0.0, 0.0, -2909.2360030694012, 0.0]
['beep', 0.0, -3858.6039970641136, 0.0, 0.0, 0.0, 0.0, -2910.1077211031584, 0.0]
['beep', 0.0, -3859.833343009155, 0.0, 0.0, 0.0, 0.0, -2910.0630176142477, 0.0]
['beep', 0.0, -3858.3357761306497, 0.0, 0.0, 0.0, 0.0, -2912.275840315323, 0.0]
['beep', 0.0, -3860.1239156870743, 0.0, 0.0, 0.0, 0.0, -2912.342895548689, 0.0]
['beep', 0.0, -3860.7274127873675, 0.0, 0.0, 0.0, 0.0, -2911.1359013481024, 0.0]
['beep', 0.0, -3859.207494164407, 0.0, 0.0, 0.0, 0.0, -2910.1971280809794, 0.0]
['beep', 0.0, -3857.195837163429, 0.0, 0.0, 0.0, 0.0, -2909.4818722584096, 0.0]
['beep', 0.0, -3858.827514508667, 0.0, 0.0, 0.0, 0.0, -2911.560584492753, 0.0]
['beep', 0.0, -3858.2910726417394, 0.0, 0.0, 0.0, 0.0, -2909.7053897029627, 0.0]
['beep', 0.0, -3858.0228517082755, 0.0, 0.0, 0.0, 0.0, -2909.7053897029627, 0.0]
['beep', 0.0, -3859.3416046311386, 0.0, 0.0, 0.0, 0.0, -2909.347761791678, 0.0]
['beep', 0.0, -3859.6098255646025, 0.0, 0.0, 0.0, 0.0, -2910.666514714541, 0.0]
['beep', 0.0, -3858.9616249753985, 0.0, 0.0, 0.0, 0.0, -2912.0746746152254, 0.0]
['beep', 0.0, -3859.721584286879, 0.0, 0.0, 0.0, 0.0, -2909.1018926026695, 0.0]
['beep', 0.0, -3860.19097092044, 0.0, 0.0, 0.0, 0.0, -2907.8501949131723, 0.0]
['beep', 0.0, -3857.9557964749097, 0.0, 0.0, 0.0, 0.0, -2908.3866367800997, 0.0]
['beep', 0.0, -3859.520418586781, 0.0, 0.0, 0.0, 0.0, -2909.906555403061, 0.0]
['beep', 0.0, -3860.9509302319207, 0.0, 0.0, 0.0, 0.0, -2911.2923635592897, 0.0]
['beep', 0.0, -3860.5038953428148, 0.0, 0.0, 0.0, 0.0, -2911.4488257704766, 0.0]
['beep', 0.0, -3858.6934040419346, 0.0, 0.0, 0.0, 0.0, -2907.693732701985, 0.0]
['beep', 0.0, -3860.1239156870743, 0.0, 0.0, 0.0, 0.0, -2908.3642850356446, 0.0]
['beep', 0.0, -3860.5038953428148, 0.0, 0.0, 0.0, 0.0, -2909.9736106364267, 0.0]
['beep', 0.0, -3860.14626743153, 0.0, 0.0, 0.0, 0.0, -2910.1971280809794, 0.0]
['beep', 0.0, -3861.7332412878563, 0.0, 0.0, 0.0, 0.0, -2909.6830379585076, 0.0]
['beep', 0.0, -3860.0121569647977, 0.0, 0.0, 0.0, 0.0, -2908.8336716692056, 0.0]
['beep', 0.0, -3860.1239156870743, 0.0, 0.0, 0.0, 0.0, -2908.856023413661, 0.0]
['beep', 0.0, -3860.0121569647977, 0.0, 0.0, 0.0, 0.0, -2909.6830379585076, 0.0]
['beep', 0.0, -3860.436840109449, 0.0, 0.0, 0.0, 0.0, -2910.95708739246, 0.0]
['beep', 0.0, -3860.2580261538064, 0.0, 0.0, 0.0, 0.0, -2910.152424592069, 0.0]
['beep', 0.0, -3861.8673517545885, 0.0, 0.0, 0.0, 0.0, -2909.1465960915802, 0.0]
['beep', 0.0, -3860.6156540650913, 0.0, 0.0, 0.0, 0.0, -2910.3535902921667, 0.0]
['beep', 0.0, -3860.816819765189, 0.0, 0.0, 0.0, 0.0, -2910.7559216923623, 0.0]
['beep', 0.0, -3859.3863081200493, 0.0, 0.0, 0.0, 0.0, -2911.024142625826, 0.0]
['beep', 0.0, -3860.816819765189, 0.0, 0.0, 0.0, 0.0, -2912.477006015421, 0.0]
['beep', 0.0, -3860.3474331316274, 0.0, 0.0, 0.0, 0.0, -2911.1359013481024, 0.0]
['beep', 0.0, -3859.833343009155, 0.0, 0.0, 0.0, 0.0, -2912.0076193818595, 0.0]
['beep', 0.0, -3860.6380058095465, 0.0, 0.0, 0.0, 0.0, -2910.8453286701833, 0.0]
['beep', 0.0, -3860.794468020734, 0.0, 0.0, 0.0, 0.0, -2909.995962380882, 0.0]
['beep', 0.0, -3859.2745493977727, 0.0, 0.0, 0.0, 0.0, -2911.3594187926556, 0.0]
['beep', 0.0, -3858.9616249753985, 0.0, 0.0, 0.0, 0.0, -2910.9794391369155, 0.0]
['beep', 0.0, -3860.235674409351, 0.0, 0.0, 0.0, 0.0, -2909.1689478360354, 0.0]
['beep', 0.0, -3859.0510319532195, 0.0, 0.0, 0.0, 0.0, -2910.018314125337, 0.0]
['beep', 0.0, -3858.179313919463, 0.0, 0.0, 0.0, 0.0, -2911.024142625826, 0.0]
['beep', 0.0, -3859.788639520245, 0.0, 0.0, 0.0, 0.0, -2909.258354813857, 0.0]
['beep', 0.0, -3858.3804796195604, 0.0, 0.0, 0.0, 0.0, -2907.8725466576275, 0.0]
['beep', 0.0, -3858.872217997577, 0.0, 0.0, 0.0, 0.0, -2907.917250146538, 0.0]
['beep', 0.0, -3858.849866253122, 0.0, 0.0, 0.0, 0.0, -2908.632505969108, 0.0]
['beep', 0.0, -3859.3863081200493, 0.0, 0.0, 0.0, 0.0, -2911.538232748298, 0.0]
['beep', 0.0, -3860.459191853904, 0.0, 0.0, 0.0, 0.0, -2912.0076193818595, 0.0]
['beep', 0.0, -3859.0510319532195, 0.0, 0.0, 0.0, 0.0, -2911.761750192851, 0.0]
['beep', 0.0, -3858.514590086292, 0.0, 0.0, 0.0, 0.0, -2911.3817705371107, 0.0]
['beep', 0.0, -3858.514590086292, 0.0, 0.0, 0.0, 0.0, -2911.5829362372087, 0.0]
['beep', 0.0, -3860.14626743153, 0.0, 0.0, 0.0, 0.0, -2911.7170467039405, 0.0]
['beep', 0.0, -3859.6545290535128, 0.0, 0.0, 0.0, 0.0, -2911.180604837013, 0.0]
['beep', 0.0, -3859.743936031334, 0.0, 0.0, 0.0, 0.0, -2911.0464943702814, 0.0]
['beep', 0.0, -3858.71575578639, 0.0, 0.0, 0.0, 0.0, -2911.024142625826, 0.0]
['beep', 0.0, -3859.6098255646025, 0.0, 0.0, 0.0, 0.0, -2912.544061248787, 0.0]
['beep', 0.0, -3859.3192528866834, 0.0, 0.0, 0.0, 0.0, -2912.253488570868, 0.0]
['beep', 0.0, -3859.7662877757894, 0.0, 0.0, 0.0, 0.0, -2911.560584492753, 0.0]
['beep', 0.0, -3860.7050610429123, 0.0, 0.0, 0.0, 0.0, -2913.818110682739, 0.0]
['beep', 0.0, -3859.3863081200493, 0.0, 0.0, 0.0, 0.0, -2911.6499914705746, 0.0]
['beep', 0.0, -3859.855694753611, 0.0, 0.0, 0.0, 0.0, -2910.599459481175, 0.0]
['beep', 0.0, -3859.833343009155, 0.0, 0.0, 0.0, 0.0, -2911.471177514932, 0.0]
['beep', 0.0, -3857.039374952242, 0.0, 0.0, 0.0, 0.0, -2911.873508915128, 0.0]
['beep', 0.0, -3857.9557964749097, 0.0, 0.0, 0.0, 0.0, -2911.605287981664, 0.0]
['beep', 0.0, -3858.4475348529263, 0.0, 0.0, 0.0, 0.0, -2909.593630980686, 0.0]
['beep', 0.0, -3857.0617266966974, 0.0, 0.0, 0.0, 0.0, -2912.3652472931444, 0.0]
['beep', 0.0, -3857.4417063524374, 0.0, 0.0, 0.0, 0.0, -2912.0746746152254, 0.0]
['beep', 0.0, -3857.262892396795, 0.0, 0.0, 0.0, 0.0, -2911.3370670482004, 0.0]
['beep', 0.0, -3858.3581278751053, 0.0, 0.0, 0.0, 0.0, -2909.8395001696945, 0.0]
['beep', 0.0, -3857.6652237969906, 0.0, 0.0, 0.0, 0.0, -2912.7452269488845, 0.0]
['beep', 0.0, -3857.7322790303565, 0.0, 0.0, 0.0, 0.0, -2913.9075176605606, 0.0]
['beep', 0.0, -3857.1511336745184, 0.0, 0.0, 0.0, 0.0, -2911.515881003843, 0.0]
['beep', 0.0, -3858.4028313640156, 0.0, 0.0, 0.0, 0.0, -2912.3652472931444, 0.0]
['beep', 0.0, -3858.0675551971863, 0.0, 0.0, 0.0, 0.0, -2913.192261837991, 0.0]
['beep', 0.0, -3858.0452034527307, 0.0, 0.0, 0.0, 0.0, -2910.532404247809, 0.0]
['beep', 0.0, -3859.0510319532195, 0.0, 0.0, 0.0, 0.0, -2910.2641833143457, 0.0]
['beep', 0.0, -3859.6768807979684, 0.0, 0.0, 0.0, 0.0, -2911.7393984483956, 0.0]
['beep', 0.0, -3858.3357761306497, 0.0, 0.0, 0.0, 0.0, -2913.6840002160075, 0.0]
['beep', 0.0, -3859.6321773090576, 0.0, 0.0, 0.0, 0.0, -2911.3594187926556, 0.0]
['beep', 0.0, -3859.4086598645044, 0.0, 0.0, 0.0, 0.0, -2911.5829362372087, 0.0]
['beep', 0.0, -3859.2745493977727, 0.0, 0.0, 0.0, 0.0, -2912.9687443934376, 0.0]
['beep', 0.0, -3859.855694753611, 0.0, 0.0, 0.0, 0.0, -2912.3652472931444, 0.0]
['beep', 0.0, -3859.6768807979684, 0.0, 0.0, 0.0, 0.0, -2913.505186260365, 0.0]
['beep', 0.0, -3859.3192528866834, 0.0, 0.0, 0.0, 0.0, -2913.1699100935352, 0.0]
['beep', 0.0, -3858.425183108471, 0.0, 0.0, 0.0, 0.0, -2912.901689160072, 0.0]
['beep', 0.0, -3857.866389497088, 0.0, 0.0, 0.0, 0.0, -2913.52753800482, 0.0]
['beep', 0.0, -3859.073383697675, 0.0, 0.0, 0.0, 0.0, -2913.1028548601694, 0.0]
['beep', 0.0, -3860.2803778982616, 0.0, 0.0, 0.0, 0.0, -2913.281668815812, 0.0]
['beep', 0.0, -3859.1180871865854, 0.0, 0.0, 0.0, 0.0, -2911.314715303745, 0.0]
['beep', 0.0, -3858.6487005530244, 0.0, 0.0, 0.0, 0.0, -2911.605287981664, 0.0]
['beep', 0.0, -3859.9003982425215, 0.0, 0.0, 0.0, 0.0, -2912.5887647376976, 0.0]
['beep', 0.0, -3861.3085581432056, 0.0, 0.0, 0.0, 0.0, -2913.0134478823484, 0.0]
['beep', 0.0, -3861.5767790766695, 0.0, 0.0, 0.0, 0.0, -2911.225308325924, 0.0]
['beep', 0.0, -3860.079212198164, 0.0, 0.0, 0.0, 0.0, -2911.2923635592897, 0.0]
['beep', 0.0, -3859.4086598645044, 0.0, 0.0, 0.0, 0.0, -2913.4604827714543, 0.0]
['beep', 0.0, -3859.721584286879, 0.0, 0.0, 0.0, 0.0, -2913.818110682739, 0.0]
['beep', 0.0, -3861.420316865482, 0.0, 0.0, 0.0, 0.0, -2912.2311368264127, 0.0]
['beep', 0.0, -3861.0850406986524, 0.0, 0.0, 0.0, 0.0, -2912.633468226608, 0.0]
['beep', 0.0, -3861.196799420929, 0.0, 0.0, 0.0, 0.0, -2912.566412993242, 0.0]
['beep', 0.0, -3860.9509302319207, 0.0, 0.0, 0.0, 0.0, -2913.14755834908, 0.0]
['beep', 0.0, -3861.3532616321163, 0.0, 0.0, 0.0, 0.0, -2912.6111164821527, 0.0]
['beep', 0.0, -3859.3863081200493, 0.0, 0.0, 0.0, 0.0, -2913.3040205602674, 0.0]
['beep', 0.0, -3860.772116276278, 0.0, 0.0, 0.0, 0.0, -2911.985267637404, 0.0]
['beep', 0.0, -3859.833343009155, 0.0, 0.0, 0.0, 0.0, -2913.728703704918, 0.0]
['beep', 0.0, -3860.749764531823, 0.0, 0.0, 0.0, 0.0, -2914.1980903384797, 0.0]
['beep', 0.0, -3860.0568604537084, 0.0, 0.0, 0.0, 0.0, -2912.834633926706, 0.0]
['beep', 0.0, -3859.6321773090576, 0.0, 0.0, 0.0, 0.0, -2913.438131026999, 0.0]
['beep', 0.0, -3860.459191853904, 0.0, 0.0, 0.0, 0.0, -2913.7063519604626, 0.0]
['beep', 0.0, -3859.9003982425215, 0.0, 0.0, 0.0, 0.0, -2913.6392967270967, 0.0]
['beep', 0.0, -3860.459191853904, 0.0, 0.0, 0.0, 0.0, -2911.1135496036472, 0.0]
['beep', 0.0, -3859.945101731432, 0.0, 0.0, 0.0, 0.0, -2909.5489274917754, 0.0]
['beep', 0.0, -3859.6768807979684, 0.0, 0.0, 0.0, 0.0, -2912.5217095043313, 0.0]
['beep', 0.0, -3859.9674534758874, 0.0, 0.0, 0.0, 0.0, -2912.566412993242, 0.0]
['beep', 0.0, -3858.8945697420327, 0.0, 0.0, 0.0, 0.0, -2911.962915892949, 0.0]
['beep', 0.0, -3857.754630774812, 0.0, 0.0, 0.0, 0.0, -2912.9687443934376, 0.0]
['beep', 0.0, -3859.2745493977727, 0.0, 0.0, 0.0, 0.0, -2913.7063519604626, 0.0]
['beep', 0.0, -3858.7604592753005, 0.0, 0.0, 0.0, 0.0, -2913.125206604625, 0.0]
['beep', 0.0, -3859.0063284643093, 0.0, 0.0, 0.0, 0.0, -2911.6946949594853, 0.0]
['beep', 0.0, -3857.329947630161, 0.0, 0.0, 0.0, 0.0, -2912.7228752044293, 0.0]
['beep', 0.0, -3858.3357761306497, 0.0, 0.0, 0.0, 0.0, -2912.119378104136, 0.0]
['beep', 0.0, -3860.839171509644, 0.0, 0.0, 0.0, 0.0, -2910.7335699479067, 0.0]
['beep', 0.0, -3858.9616249753985, 0.0, 0.0, 0.0, 0.0, -2912.6781717155186, 0.0]
['beep', 0.0, -3858.782811019756, 0.0, 0.0, 0.0, 0.0, -2910.7782734368175, 0.0]
['beep', 0.0, -3857.776982519267, 0.0, 0.0, 0.0, 0.0, -2911.515881003843, 0.0]
['beep', 0.0, -3858.1569621750073, 0.0, 0.0, 0.0, 0.0, -2912.4323025265103, 0.0]
['beep', 0.0, -3858.3581278751053, 0.0, 0.0, 0.0, 0.0, -2912.0299711263146, 0.0]
['beep', 0.0, -3858.3134243861946, 0.0, 0.0, 0.0, 0.0, -2911.225308325924, 0.0]
['beep', 0.0, -3859.162790675496, 0.0, 0.0, 0.0, 0.0, -2911.6723432150297, 0.0]
['beep', 0.0, -3858.6263488085688, 0.0, 0.0, 0.0, 0.0, -2911.2923635592897, 0.0]
['beep', 0.0, -3857.5087615858033, 0.0, 0.0, 0.0, 0.0, -2910.018314125337, 0.0]
['beep', 0.0, -3856.949967974421, 0.0, 0.0, 0.0, 0.0, -2912.186433337502, 0.0]
['beep', 0.0, -3858.9616249753985, 0.0, 0.0, 0.0, 0.0, -2912.3875990375996, 0.0]
['beep', 0.0, -3859.6768807979684, 0.0, 0.0, 0.0, 0.0, -2913.0581513712586, 0.0]
['beep', 0.0, -3858.6710522974795, 0.0, 0.0, 0.0, 0.0, -2912.9687443934376, 0.0]
['beep', 0.0, -3855.273587140273, 0.0, 0.0, 0.0, 0.0, -2912.5217095043313, 0.0]
['beep', 0.0, -3852.8595987390995, 0.0, 0.0, 0.0, 0.0, -2910.0630176142477, 0.0]
['beep', 0.0, -3852.52432257227, 0.0, 0.0, 0.0, 0.0, -2909.8395001696945, 0.0]
['beep', 0.0, -3853.23957839484, 0.0, 0.0, 0.0, 0.0, -2909.1242443471247, 0.0]
['beep', 0.0, -3853.1278196725634, 0.0, 0.0, 0.0, 0.0, -2909.213651324946, 0.0]
['beep', 0.0, -3853.887778984044, 0.0, 0.0, 0.0, 0.0, -2909.347761791678, 0.0]
['beep', 0.0, -3854.4465725954265, 0.0, 0.0, 0.0, 0.0, -2908.8336716692056, 0.0]
['beep', 0.0, -3855.497104584826, 0.0, 0.0, 0.0, 0.0, -2910.510052503354, 0.0]
['beep', 0.0, -3858.5369418307478, 0.0, 0.0, 0.0, 0.0, -2910.1300728476135, 0.0]
['beep', 0.0, -3859.520418586781, 0.0, 0.0, 0.0, 0.0, -2909.906555403061, 0.0]
['beep', 0.0, -3858.1569621750073, 0.0, 0.0, 0.0, 0.0, -2908.274878057823, 0.0]
['beep', 0.0, -3857.6652237969906, 0.0, 0.0, 0.0, 0.0, -2909.258354813857, 0.0]
['beep', 0.0, -3856.949967974421, 0.0, 0.0, 0.0, 0.0, -2910.8453286701833, 0.0]
['beep', 0.0, -3854.245406895329, 0.0, 0.0, 0.0, 0.0, -2909.660686214052, 0.0]
['beep', 0.0, -3852.747840016823, 0.0, 0.0, 0.0, 0.0, -2909.4371687694993, 0.0]
['beep', 0.0, -3857.0617266966974, 0.0, 0.0, 0.0, 0.0, -2908.4760437579207, 0.0]
['beep', 0.0, -3858.8945697420327, 0.0, 0.0, 0.0, 0.0, -2907.5596222352533, 0.0]
['beep', 0.0, -3856.1453051740295, 0.0, 0.0, 0.0, 0.0, -2909.0348373693037, 0.0]
['beep', 0.0, -3855.8323807516554, 0.0, 0.0, 0.0, 0.0, -2908.3642850356446, 0.0]
['beep', 0.0, -3856.2794156407617, 0.0, 0.0, 0.0, 0.0, -2908.2972298022783, 0.0]
['beep', 0.0, -3857.7993342637224, 0.0, 0.0, 0.0, 0.0, -2908.654857713563, 0.0]
['beep', 0.0, -3855.497104584826, 0.0, 0.0, 0.0, 0.0, -2909.7500931918735, 0.0]
['beep', 0.0, -3856.1006016851193, 0.0, 0.0, 0.0, 0.0, -2907.67138095753, 0.0]
['beep', 0.0, -3855.921787729477, 0.0, 0.0, 0.0, 0.0, -2908.0066571243597, 0.0]
['beep', 0.0, -3856.592340063136, 0.0, 0.0, 0.0, 0.0, -2908.274878057823, 0.0]
['beep', 0.0, -3854.692441784435, 0.0, 0.0, 0.0, 0.0, -2909.4371687694993, 0.0]
['beep', 0.0, -3855.653566796013, 0.0, 0.0, 0.0, 0.0, -2909.906555403061, 0.0]
['beep', 0.0, -3856.3911743630383, 0.0, 0.0, 0.0, 0.0, -2910.7112182034516, 0.0]
['beep', 0.0, -3856.815857507689, 0.0, 0.0, 0.0, 0.0, -2909.4595205139544, 0.0]
['beep', 0.0, -3856.3688226185827, 0.0, 0.0, 0.0, 0.0, -2907.3584565351557, 0.0]
['beep', 0.0, -3856.234712151851, 0.0, 0.0, 0.0, 0.0, -2907.604325724164, 0.0]
['beep', 0.0, -3855.608863307102, 0.0, 0.0, 0.0, 0.0, -2907.7831396798065, 0.0]
['beep', 0.0, -3856.0335464517534, 0.0, 0.0, 0.0, 0.0, -2908.319581546734, 0.0]
['beep', 0.0, -3856.2794156407617, 0.0, 0.0, 0.0, 0.0, -2907.313753046245, 0.0]
['beep', 0.0, -3855.8323807516554, 0.0, 0.0, 0.0, 0.0, -2908.4536920134656, 0.0]
['beep', 0.0, -3855.877084240566, 0.0, 0.0, 0.0, 0.0, -2909.928907147516, 0.0]
['beep', 0.0, -3856.4358778519486, 0.0, 0.0, 0.0, 0.0, -2909.660686214052, 0.0]
['beep', 0.0, -3857.106430185608, 0.0, 0.0, 0.0, 0.0, -2908.8783751581163, 0.0]
['beep', 0.0, -3857.888741241544, 0.0, 0.0, 0.0, 0.0, -2908.8783751581163, 0.0]
['beep', 0.0, -3856.3688226185827, 0.0, 0.0, 0.0, 0.0, -2908.319581546734, 0.0]
['beep', 0.0, -3856.212360407396, 0.0, 0.0, 0.0, 0.0, -2906.889069901594, 0.0]
['beep', 0.0, -3857.397002863527, 0.0, 0.0, 0.0, 0.0, -2907.693732701985, 0.0]
['beep', 0.0, -3856.9276162299657, 0.0, 0.0, 0.0, 0.0, -2910.5547559922643, 0.0]
['beep', 0.0, -3856.5029330853145, 0.0, 0.0, 0.0, 0.0, -2908.8336716692056, 0.0]
['beep', 0.0, -3857.7099272859014, 0.0, 0.0, 0.0, 0.0, -2909.347761791678, 0.0]
['beep', 0.0, -3857.5981685636248, 0.0, 0.0, 0.0, 0.0, -2908.7889681802953, 0.0]
['beep', 0.0, -3855.7429737738344, 0.0, 0.0, 0.0, 0.0, -2909.1465960915802, 0.0]
['beep', 0.0, -3856.547636574225, 0.0, 0.0, 0.0, 0.0, -2909.6830379585076, 0.0]
['beep', 0.0, -3857.24054065234, 0.0, 0.0, 0.0, 0.0, -2909.0348373693037, 0.0]
['beep', 0.0, -3856.257063896306, 0.0, 0.0, 0.0, 0.0, -2909.571279236231, 0.0]
['beep', 0.0, -3855.631215051558, 0.0, 0.0, 0.0, 0.0, -2909.8171484252393, 0.0]
['beep', 0.0, -3855.653566796013, 0.0, 0.0, 0.0, 0.0, -2910.442997269988, 0.0]
['beep', 0.0, -3855.3182906291836, 0.0, 0.0, 0.0, 0.0, -2909.3254100472227, 0.0]
['beep', 0.0, -3856.1453051740295, 0.0, 0.0, 0.0, 0.0, -2910.6218112256306, 0.0]
['beep', 0.0, -3856.234712151851, 0.0, 0.0, 0.0, 0.0, -2911.3594187926556, 0.0]
['beep', 0.0, -3855.4747528403705, 0.0, 0.0, 0.0, 0.0, -2910.6441629700857, 0.0]
['beep', 0.0, -3856.1453051740295, 0.0, 0.0, 0.0, 0.0, -2907.3584565351557, 0.0]
['beep', 0.0, -3855.139476673541, 0.0, 0.0, 0.0, 0.0, -2909.4371687694993, 0.0]
['beep', 0.0, -3854.044241195231, 0.0, 0.0, 0.0, 0.0, -2910.0406658697925, 0.0]
['beep', 0.0, -3854.1559999175074, 0.0, 0.0, 0.0, 0.0, -2909.213651324946, 0.0]
['beep', 0.0, -3854.8265522511665, 0.0, 0.0, 0.0, 0.0, -2908.8113199247505, 0.0]
['beep', 0.0, -3855.206531906907, 0.0, 0.0, 0.0, 0.0, -2909.8395001696945, 0.0]
['beep', 0.0, -3854.625386551069, 0.0, 0.0, 0.0, 0.0, -2908.900726902572, 0.0]
['beep', 0.0, -3857.0840784411525, 0.0, 0.0, 0.0, 0.0, -2907.760787935351, 0.0]
['beep', 0.0, -3855.720622029379, 0.0, 0.0, 0.0, 0.0, -2907.67138095753, 0.0]
['beep', 0.0, -3854.491276084337, 0.0, 0.0, 0.0, 0.0, -2907.5819739797084, 0.0]
['beep', 0.0, -3855.4076976070046, 0.0, 0.0, 0.0, 0.0, -2907.29140130179, 0.0]
['beep', 0.0, -3854.692441784435, 0.0, 0.0, 0.0, 0.0, -2908.0066571243597, 0.0]
['beep', 0.0, -3856.0335464517534, 0.0, 0.0, 0.0, 0.0, -2907.2243460684235, 0.0]
['beep', 0.0, -3855.519456329281, 0.0, 0.0, 0.0, 0.0, -2907.5596222352533, 0.0]
['beep', 0.0, -3855.0947731846304, 0.0, 0.0, 0.0, 0.0, -2907.3584565351557, 0.0]
['beep', 0.0, -3857.329947630161, 0.0, 0.0, 0.0, 0.0, -2908.6772094580188, 0.0]
['beep', 0.0, -3855.228883651362, 0.0, 0.0, 0.0, 0.0, -2910.934735648005, 0.0]
['beep', 0.0, -3856.212360407396, 0.0, 0.0, 0.0, 0.0, -2909.4595205139544, 0.0]
['beep', 0.0, -3855.944139473932, 0.0, 0.0, 0.0, 0.0, -2909.5265757473203, 0.0]
['beep', 0.0, -3855.0277179512645, 0.0, 0.0, 0.0, 0.0, -2909.727741447418, 0.0]
['beep', 0.0, -3853.9324824729542, 0.0, 0.0, 0.0, 0.0, -2908.05136061327, 0.0]
['beep', 0.0, -3855.519456329281, 0.0, 0.0, 0.0, 0.0, -2908.05136061327, 0.0]
['beep', 0.0, -3856.0335464517534, 0.0, 0.0, 0.0, 0.0, -2907.9396018909933, 0.0]
['beep', 0.0, -3856.212360407396, 0.0, 0.0, 0.0, 0.0, -2909.1018926026695, 0.0]
['beep', 0.0, -3855.0500696957197, 0.0, 0.0, 0.0, 0.0, -2910.510052503354, 0.0]
['beep', 0.0, -3854.938310973443, 0.0, 0.0, 0.0, 0.0, -2908.632505969108, 0.0]
['beep', 0.0, -3857.106430185608, 0.0, 0.0, 0.0, 0.0, -2910.5547559922643, 0.0]
['beep', 0.0, -3857.173485418974, 0.0, 0.0, 0.0, 0.0, -2909.571279236231, 0.0]
['beep', 0.0, -3856.0558981962085, 0.0, 0.0, 0.0, 0.0, -2909.370113536133, 0.0]
['beep', 0.0, -3856.4805813408593, 0.0, 0.0, 0.0, 0.0, -2909.280706558312, 0.0]
['beep', 0.0, -3854.2230551508733, 0.0, 0.0, 0.0, 0.0, -2907.403160024066, 0.0]
['beep', 0.0, -3854.7371452733455, 0.0, 0.0, 0.0, 0.0, -2910.8453286701833, 0.0]
['beep', 0.0, -3855.608863307102, 0.0, 0.0, 0.0, 0.0, -2909.5489274917754, 0.0]
['beep', 0.0, -3855.4076976070046, 0.0, 0.0, 0.0, 0.0, -2907.626677468619, 0.0]
['beep', 0.0, -3853.7760202617674, 0.0, 0.0, 0.0, 0.0, -2908.319581546734, 0.0]
['beep', 0.0, -3855.586511562647, 0.0, 0.0, 0.0, 0.0, -2908.341933291189, 0.0]
['beep', 0.0, -3855.921787729477, 0.0, 0.0, 0.0, 0.0, -2909.3924652805886, 0.0]
['beep', 0.0, -3855.7429737738344, 0.0, 0.0, 0.0, 0.0, -2909.303058302767, 0.0]
['beep', 0.0, -3856.614691807591, 0.0, 0.0, 0.0, 0.0, -2909.057189113759, 0.0]
['beep', 0.0, -3857.5758168191696, 0.0, 0.0, 0.0, 0.0, -2910.3982937810774, 0.0]
['beep', 0.0, -3856.838209252144, 0.0, 0.0, 0.0, 0.0, -2910.286535058801, 0.0]
['beep', 0.0, -3854.692441784435, 0.0, 0.0, 0.0, 0.0, -2910.57710773672, 0.0]
['beep', 0.0, -3856.815857507689, 0.0, 0.0, 0.0, 0.0, -2909.660686214052, 0.0]
['beep', 0.0, -3854.692441784435, 0.0, 0.0, 0.0, 0.0, -2908.923078647027, 0.0]
['beep', 0.0, -3855.631215051558, 0.0, 0.0, 0.0, 0.0, -2906.665552457041, 0.0]
['beep', 0.0, -3856.0335464517534, 0.0, 0.0, 0.0, 0.0, -2909.0795408582144, 0.0]
['beep', 0.0, -3855.921787729477, 0.0, 0.0, 0.0, 0.0, -2911.180604837013, 0.0]
['beep', 0.0, -3856.592340063136, 0.0, 0.0, 0.0, 0.0, -2910.286535058801, 0.0]
['beep', 0.0, -3856.7711540187784, 0.0, 0.0, 0.0, 0.0, -2909.884203658605, 0.0]
['beep', 0.0, -3856.9276162299657, 0.0, 0.0, 0.0, 0.0, -2908.923078647027, 0.0]
['beep', 0.0, -3855.944139473932, 0.0, 0.0, 0.0, 0.0, -2909.7500931918735, 0.0]
['beep', 0.0, -3857.6428720525355, 0.0, 0.0, 0.0, 0.0, -2909.504224002865, 0.0]
['beep', 0.0, -3856.3464708741276, 0.0, 0.0, 0.0, 0.0, -2908.3642850356446, 0.0]
['beep', 0.0, -3854.4242208509713, 0.0, 0.0, 0.0, 0.0, -2909.4148170250437, 0.0]
['beep', 0.0, -3854.9606627178987, 0.0, 0.0, 0.0, 0.0, -2910.95708739246, 0.0]
['beep', 0.0, -3855.362994118094, 0.0, 0.0, 0.0, 0.0, -2909.1018926026695, 0.0]
['beep', 0.0, -3854.200703406418, 0.0, 0.0, 0.0, 0.0, -2909.6830379585076, 0.0]
['beep', 0.0, -3854.7594970178006, 0.0, 0.0, 0.0, 0.0, -2910.6888664589965, 0.0]
['beep', 0.0, -3853.7313167728566, 0.0, 0.0, 0.0, 0.0, -2909.8395001696945, 0.0]
['beep', 0.0, -3853.887778984044, 0.0, 0.0, 0.0, 0.0, -2909.213651324946, 0.0]
['beep', 0.0, -3855.720622029379, 0.0, 0.0, 0.0, 0.0, -2907.2243460684235, 0.0]
['beep', 0.0, -3854.200703406418, 0.0, 0.0, 0.0, 0.0, -2907.1572908350577, 0.0]
['beep', 0.0, -3852.747840016823, 0.0, 0.0, 0.0, 0.0, -2907.4255117685216, 0.0]
['beep', 0.0, -3853.3513371171166, 0.0, 0.0, 0.0, 0.0, -2907.760787935351, 0.0]
['beep', 0.0, -3853.038412694742, 0.0, 0.0, 0.0, 0.0, -2906.7102559459518, 0.0]
['beep', 0.0, -3854.044241195231, 0.0, 0.0, 0.0, 0.0, -2907.760787935351, 0.0]
['beep', 0.0, -3854.9606627178987, 0.0, 0.0, 0.0, 0.0, -2907.7160844464406, 0.0]
['beep', 0.0, -3857.2181889078847, 0.0, 0.0, 0.0, 0.0, -2908.990133880393, 0.0]
['beep', 0.0, -3854.580683062158, 0.0, 0.0, 0.0, 0.0, -2909.258354813857, 0.0]
['beep', 0.0, -3854.7594970178006, 0.0, 0.0, 0.0, 0.0, -2907.4255117685216, 0.0]
['beep', 0.0, -3854.8265522511665, 0.0, 0.0, 0.0, 0.0, -2907.3584565351557, 0.0]
['beep', 0.0, -3854.2230551508733, 0.0, 0.0, 0.0, 0.0, -2909.280706558312, 0.0]
['beep', 0.0, -3854.692441784435, 0.0, 0.0, 0.0, 0.0, -2909.3924652805886, 0.0]
['beep', 0.0, -3853.7313167728566, 0.0, 0.0, 0.0, 0.0, -2909.057189113759, 0.0]
['beep', 0.0, -3853.7983720062225, 0.0, 0.0, 0.0, 0.0, -2910.0630176142477, 0.0]
['beep', 0.0, -3857.4193546079823, 0.0, 0.0, 0.0, 0.0, -2908.4983955023763, 0.0]
['beep', 0.0, -3856.7264505298676, 0.0, 0.0, 0.0, 0.0, -2910.4877007588984, 0.0]
['beep', 0.0, -3854.0218894507757, 0.0, 0.0, 0.0, 0.0, -2910.8453286701833, 0.0]
['beep', 0.0, -3854.2230551508733, 0.0, 0.0, 0.0, 0.0, -2910.822976925728, 0.0]
['beep', 0.0, -3856.2794156407617, 0.0, 0.0, 0.0, 0.0, -2908.4536920134656, 0.0]
['beep', 0.0, -3855.9888429628427, 0.0, 0.0, 0.0, 0.0, -2907.537270490798, 0.0]
['beep', 0.0, -3855.295938884728, 0.0, 0.0, 0.0, 0.0, -2909.4371687694993, 0.0]
['beep', 0.0, -3855.7429737738344, 0.0, 0.0, 0.0, 0.0, -2907.4478635129767, 0.0]
['beep', 0.0, -3854.8712557400772, 0.0, 0.0, 0.0, 0.0, -2906.7773111793176, 0.0]
['beep', 0.0, -3854.7594970178006, 0.0, 0.0, 0.0, 0.0, -2907.4925670018874, 0.0]
['beep', 0.0, -3856.0335464517534, 0.0, 0.0, 0.0, 0.0, -2907.604325724164, 0.0]
['beep', 0.0, -3856.949967974421, 0.0, 0.0, 0.0, 0.0, -2907.7831396798065, 0.0]
['beep', 0.0, -3855.519456329281, 0.0, 0.0, 0.0, 0.0, -2907.961953635449, 0.0]
['beep', 0.0, -3854.4689243398816, 0.0, 0.0, 0.0, 0.0, -2909.3254100472227, 0.0]
['beep', 0.0, -3855.608863307102, 0.0, 0.0, 0.0, 0.0, -2908.7889681802953, 0.0]
['beep', 0.0, -3854.848903995622, 0.0, 0.0, 0.0, 0.0, -2908.4536920134656, 0.0]
['beep', 0.0, -3856.167656918485, 0.0, 0.0, 0.0, 0.0, -2908.2078228244573, 0.0]
['beep', 0.0, -3856.1900086629403, 0.0, 0.0, 0.0, 0.0, -2909.280706558312, 0.0]
['beep', 0.0, -3854.71479352889, 0.0, 0.0, 0.0, 0.0, -2909.3254100472227, 0.0]
['beep', 0.0, -3855.273587140273, 0.0, 0.0, 0.0, 0.0, -2908.185471080002, 0.0]
['beep', 0.0, -3855.0947731846304, 0.0, 0.0, 0.0, 0.0, -2907.604325724164, 0.0]
['beep', 0.0, -3855.295938884728, 0.0, 0.0, 0.0, 0.0, -2908.5878024801973, 0.0]
['beep', 0.0, -3856.6370435520466, 0.0, 0.0, 0.0, 0.0, -2908.4536920134656, 0.0]
['beep', 0.0, -3856.011194707298, 0.0, 0.0, 0.0, 0.0, -2907.3361047907, 0.0]
['beep', 0.0, -3855.4524010959153, 0.0, 0.0, 0.0, 0.0, -2907.380808279611, 0.0]
['beep', 0.0, -3854.580683062158, 0.0, 0.0, 0.0, 0.0, -2908.319581546734, 0.0]
['beep', 0.0, -3856.4358778519486, 0.0, 0.0, 0.0, 0.0, -2908.2301745689124, 0.0]
['beep', 0.0, -3855.9888429628427, 0.0, 0.0, 0.0, 0.0, -2909.057189113759, 0.0]
['beep', 0.0, -3856.257063896306, 0.0, 0.0, 0.0, 0.0, -2907.8054914242616, 0.0]
['beep', 0.0, -3855.2512353958173, 0.0, 0.0, 0.0, 0.0, -2907.827843168717, 0.0]
['beep', 0.0, -3856.8605609965994, 0.0, 0.0, 0.0, 0.0, -2907.537270490798, 0.0]
['beep', 0.0, -3855.072421440175, 0.0, 0.0, 0.0, 0.0, -2907.246697812879, 0.0]
['beep', 0.0, -3855.0277179512645, 0.0, 0.0, 0.0, 0.0, -2906.7996629237728, 0.0]
['beep', 0.0, -3854.357165617605, 0.0, 0.0, 0.0, 0.0, -2907.4255117685216, 0.0]
['beep', 0.0, -3853.016060950287, 0.0, 0.0, 0.0, 0.0, -2906.4867385013986, 0.0]
['beep', 0.0, -3854.0665929396864, 0.0, 0.0, 0.0, 0.0, -2907.8725466576275, 0.0]
['beep', 0.0, -3854.915959228988, 0.0, 0.0, 0.0, 0.0, -2906.889069901594, 0.0]
['beep', 0.0, -3854.1336481730523, 0.0, 0.0, 0.0, 0.0, -2908.900726902572, 0.0]
['beep', 0.0, -3856.1900086629403, 0.0, 0.0, 0.0, 0.0, -2909.347761791678, 0.0]
['beep', 0.0, -3856.0558981962085, 0.0, 0.0, 0.0, 0.0, -2909.4148170250437, 0.0]
['beep', 0.0, -3855.4076976070046, 0.0, 0.0, 0.0, 0.0, -2907.6490292130748, 0.0]
['beep', 0.0, -3856.1006016851193, 0.0, 0.0, 0.0, 0.0, -2907.827843168717, 0.0]
['beep', 0.0, -3856.0558981962085, 0.0, 0.0, 0.0, 0.0, -2908.4536920134656, 0.0]
['beep', 0.0, -3855.8100290072002, 0.0, 0.0, 0.0, 0.0, -2908.5207472468314, 0.0]
['beep', 0.0, -3855.1171249290855, 0.0, 0.0, 0.0, 0.0, -2908.990133880393, 0.0]
['beep', 0.0, -3856.7264505298676, 0.0, 0.0, 0.0, 0.0, -2908.118415846636, 0.0]
['beep', 0.0, -3857.106430185608, 0.0, 0.0, 0.0, 0.0, -2909.258354813857, 0.0]
['beep', 0.0, -3854.647738295524, 0.0, 0.0, 0.0, 0.0, -2910.599459481175, 0.0]
['beep', 0.0, -3856.7040987854125, 0.0, 0.0, 0.0, 0.0, -2910.442997269988, 0.0]
['beep', 0.0, -3857.5087615858033, 0.0, 0.0, 0.0, 0.0, -2910.7559216923623, 0.0]
['beep', 0.0, -3857.2181889078847, 0.0, 0.0, 0.0, 0.0, -2909.794796680784, 0.0]
['beep', 0.0, -3857.5981685636248, 0.0, 0.0, 0.0, 0.0, -2910.1747763365242, 0.0]
['beep', 0.0, -3858.179313919463, 0.0, 0.0, 0.0, 0.0, -2909.347761791678, 0.0]
['beep', 0.0, -3856.4805813408593, 0.0, 0.0, 0.0, 0.0, -2908.118415846636, 0.0]
['beep', 0.0, -3856.5029330853145, 0.0, 0.0, 0.0, 0.0, -2908.029008868815, 0.0]
['beep', 0.0, -3856.167656918485, 0.0, 0.0, 0.0, 0.0, -2909.5489274917754, 0.0]
['beep', 0.0, -3856.949967974421, 0.0, 0.0, 0.0, 0.0, -2910.57710773672, 0.0]
['beep', 0.0, -3856.838209252144, 0.0, 0.0, 0.0, 0.0, -2910.8453286701833, 0.0]
['beep', 0.0, -3856.167656918485, 0.0, 0.0, 0.0, 0.0, -2910.24183156989, 0.0]
['beep', 0.0, -3855.921787729477, 0.0, 0.0, 0.0, 0.0, -2910.912383903549, 0.0]
['beep', 0.0, -3857.531113330259, 0.0, 0.0, 0.0, 0.0, -2908.3642850356446, 0.0]
['beep', 0.0, -3857.397002863527, 0.0, 0.0, 0.0, 0.0, -2906.7549594348625, 0.0]
['beep', 0.0, -3857.866389497088, 0.0, 0.0, 0.0, 0.0, -2907.7160844464406, 0.0]
['beep', 0.0, -3856.4805813408593, 0.0, 0.0, 0.0, 0.0, -2908.945430391482, 0.0]
['beep', 0.0, -3854.5359795732475, 0.0, 0.0, 0.0, 0.0, -2909.9736106364267, 0.0]
['beep', 0.0, -3856.212360407396, 0.0, 0.0, 0.0, 0.0, -2909.593630980686, 0.0]
['beep', 0.0, -3856.0558981962085, 0.0, 0.0, 0.0, 0.0, -2909.4371687694993, 0.0]
['beep', 0.0, -3855.944139473932, 0.0, 0.0, 0.0, 0.0, -2909.7724449363286, 0.0]
['beep', 0.0, -3854.3124621286947, 0.0, 0.0, 0.0, 0.0, -2909.280706558312, 0.0]
['beep', 0.0, -3854.3124621286947, 0.0, 0.0, 0.0, 0.0, -2909.571279236231, 0.0]
['beep', 0.0, -3854.7594970178006, 0.0, 0.0, 0.0, 0.0, -2909.213651324946, 0.0]
['beep', 0.0, -3854.8936074845324, 0.0, 0.0, 0.0, 0.0, -2909.303058302767, 0.0]
['beep', 0.0, -3855.362994118094, 0.0, 0.0, 0.0, 0.0, -2909.1912995804905, 0.0]
['beep', 0.0, -3855.4524010959153, 0.0, 0.0, 0.0, 0.0, -2908.8783751581163, 0.0]
['beep', 0.0, -3855.497104584826, 0.0, 0.0, 0.0, 0.0, -2907.3361047907, 0.0]
['beep', 0.0, -3853.597206306125, 0.0, 0.0, 0.0, 0.0, -2910.1077211031584, 0.0]
['beep', 0.0, -3855.4300493514597, 0.0, 0.0, 0.0, 0.0, -2909.057189113759, 0.0]
['beep', 0.0, -3852.4796190833595, 0.0, 0.0, 0.0, 0.0, -2908.4536920134656, 0.0]
['beep', 0.0, -3850.8032382492115, 0.0, 0.0, 0.0, 0.0, -2907.537270490798, 0.0]
['beep', 0.0, -3852.077287683164, 0.0, 0.0, 0.0, 0.0, -2907.604325724164, 0.0]
['beep', 0.0, -3853.597206306125, 0.0, 0.0, 0.0, 0.0, -2906.8667181571386, 0.0]
['beep', 0.0, -3853.753668517312, 0.0, 0.0, 0.0, 0.0, -2907.1125873461474, 0.0]
['beep', 0.0, -3851.8984737275214, 0.0, 0.0, 0.0, 0.0, -2906.598497223675, 0.0]
['beep', 0.0, -3852.010232449798, 0.0, 0.0, 0.0, 0.0, -2907.313753046245, 0.0]
['beep', 0.0, -3853.8207237506776, 0.0, 0.0, 0.0, 0.0, -2907.3361047907, 0.0]
['beep', 0.0, -3853.9324824729542, 0.0, 0.0, 0.0, 0.0, -2908.0737123577255, 0.0]
['beep', 0.0, -3853.641909795035, 0.0, 0.0, 0.0, 0.0, -2909.1689478360354, 0.0]
['beep', 0.0, -3852.591377805636, 0.0, 0.0, 0.0, 0.0, -2907.2690495573343, 0.0]
['beep', 0.0, -3851.697308027424, 0.0, 0.0, 0.0, 0.0, -2907.5819739797084, 0.0]
['beep', 0.0, -3853.2842818837503, 0.0, 0.0, 0.0, 0.0, -2908.252526313368, 0.0]
['beep', 0.0, -3853.23957839484, 0.0, 0.0, 0.0, 0.0, -2908.565450735742, 0.0]
['beep', 0.0, -3853.753668517312, 0.0, 0.0, 0.0, 0.0, -2909.0795408582144, 0.0]
['beep', 0.0, -3853.641909795035, 0.0, 0.0, 0.0, 0.0, -2908.408988524555, 0.0]
['beep', 0.0, -3853.1725231614737, 0.0, 0.0, 0.0, 0.0, -2909.057189113759, 0.0]
['beep', 0.0, -3852.4796190833595, 0.0, 0.0, 0.0, 0.0, -2908.4983955023763, 0.0]
['beep', 0.0, -3850.9597004603984, 0.0, 0.0, 0.0, 0.0, -2910.1300728476135, 0.0]
['beep', 0.0, -3851.630252794058, 0.0, 0.0, 0.0, 0.0, -2909.727741447418, 0.0]
['beep', 0.0, -3852.949005716921, 0.0, 0.0, 0.0, 0.0, -2908.5207472468314, 0.0]
['beep', 0.0, -3852.881950483555, 0.0, 0.0, 0.0, 0.0, -2906.5090902458537, 0.0]
['beep', 0.0, -3850.8702934825774, 0.0, 0.0, 0.0, 0.0, -2906.1961658234795, 0.0]
['beep', 0.0, -3851.9655289608872, 0.0, 0.0, 0.0, 0.0, -2907.045532112781, 0.0]
['beep', 0.0, -3852.2784533832614, 0.0, 0.0, 0.0, 0.0, -2908.319581546734, 0.0]
['beep', 0.0, -3854.0889446841416, 0.0, 0.0, 0.0, 0.0, -2907.4255117685216, 0.0]
['beep', 0.0, -3854.357165617605, 0.0, 0.0, 0.0, 0.0, -2907.2019943239684, 0.0]
['beep', 0.0, -3854.0218894507757, 0.0, 0.0, 0.0, 0.0, -2908.7219129469295, 0.0]
['beep', 0.0, -3853.664261539491, 0.0, 0.0, 0.0, 0.0, -2909.638334469597, 0.0]
['beep', 0.0, -3853.95483421741, 0.0, 0.0, 0.0, 0.0, -2910.286535058801, 0.0]
['beep', 0.0, -3851.987880705343, 0.0, 0.0, 0.0, 0.0, -2910.57710773672, 0.0]
['beep', 0.0, -3852.4349155944487, 0.0, 0.0, 0.0, 0.0, -2907.9396018909933, 0.0]
['beep', 0.0, -3853.4854475838483, 0.0, 0.0, 0.0, 0.0, -2906.7549594348625, 0.0]
['beep', 0.0, -3854.5359795732475, 0.0, 0.0, 0.0, 0.0, -2907.1125873461474, 0.0]
['beep', 0.0, -3853.753668517312, 0.0, 0.0, 0.0, 0.0, -2908.543098991287, 0.0]
['beep', 0.0, -3854.6700900399796, 0.0, 0.0, 0.0, 0.0, -2909.258354813857, 0.0]
['beep', 0.0, -3853.8654272395884, 0.0, 0.0, 0.0, 0.0, -2909.1689478360354, 0.0]
['beep', 0.0, -3852.52432257227, 0.0, 0.0, 0.0, 0.0, -2909.1689478360354, 0.0]
['beep', 0.0, -3855.720622029379, 0.0, 0.0, 0.0, 0.0, -2908.945430391482, 0.0]
['beep', 0.0, -3856.1453051740295, 0.0, 0.0, 0.0, 0.0, -2909.660686214052, 0.0]
['beep', 0.0, -3855.4524010959153, 0.0, 0.0, 0.0, 0.0, -2908.7666164358398, 0.0]
['beep', 0.0, -3854.647738295524, 0.0, 0.0, 0.0, 0.0, -2909.1689478360354, 0.0]
['beep', 0.0, -3855.720622029379, 0.0, 0.0, 0.0, 0.0, -2908.967782135938, 0.0]
['beep', 0.0, -3856.0558981962085, 0.0, 0.0, 0.0, 0.0, -2908.543098991287, 0.0]
['beep', 0.0, -3854.647738295524, 0.0, 0.0, 0.0, 0.0, -2907.045532112781, 0.0]
['beep', 0.0, -3854.5136278287923, 0.0, 0.0, 0.0, 0.0, -2907.7160844464406, 0.0]
['beep', 0.0, -3855.8323807516554, 0.0, 0.0, 0.0, 0.0, -2908.8113199247505, 0.0]
['beep', 0.0, -3854.4689243398816, 0.0, 0.0, 0.0, 0.0, -2909.280706558312, 0.0]
['beep', 0.0, -3855.362994118094, 0.0, 0.0, 0.0, 0.0, -2910.0630176142477, 0.0]
['beep', 0.0, -3856.301767385217, 0.0, 0.0, 0.0, 0.0, -2909.1689478360354, 0.0]
['beep', 0.0, -3855.497104584826, 0.0, 0.0, 0.0, 0.0, -2908.8336716692056, 0.0]
['beep', 0.0, -3855.944139473932, 0.0, 0.0, 0.0, 0.0, -2908.856023413661, 0.0]
['beep', 0.0, -3854.200703406418, 0.0, 0.0, 0.0, 0.0, -2908.319581546734, 0.0]
['beep', 0.0, -3854.0218894507757, 0.0, 0.0, 0.0, 0.0, -2910.0630176142477, 0.0]
['beep', 0.0, -3854.200703406418, 0.0, 0.0, 0.0, 0.0, -2909.593630980686, 0.0]
['beep', 0.0, -3853.641909795035, 0.0, 0.0, 0.0, 0.0, -2908.7666164358398, 0.0]
['beep', 0.0, -3853.8654272395884, 0.0, 0.0, 0.0, 0.0, -2907.8725466576275, 0.0]
['beep', 0.0, -3853.3513371171166, 0.0, 0.0, 0.0, 0.0, -2907.4478635129767, 0.0]
['beep', 0.0, -3855.564159818192, 0.0, 0.0, 0.0, 0.0, -2907.403160024066, 0.0]
['beep', 0.0, -3855.139476673541, 0.0, 0.0, 0.0, 0.0, -2906.889069901594, 0.0]
['beep', 0.0, -3854.200703406418, 0.0, 0.0, 0.0, 0.0, -2908.654857713563, 0.0]
['beep', 0.0, -3855.1618284179963, 0.0, 0.0, 0.0, 0.0, -2909.951258891971, 0.0]
['beep', 0.0, -3855.4300493514597, 0.0, 0.0, 0.0, 0.0, -2909.3924652805886, 0.0]
['beep', 0.0, -3856.011194707298, 0.0, 0.0, 0.0, 0.0, -2907.380808279611, 0.0]
['beep', 0.0, -3855.0500696957197, 0.0, 0.0, 0.0, 0.0, -2907.090235601692, 0.0]
['beep', 0.0, -3854.3124621286947, 0.0, 0.0, 0.0, 0.0, -2907.6490292130748, 0.0]
['beep', 0.0, -3854.1783516619626, 0.0, 0.0, 0.0, 0.0, -2908.4983955023763, 0.0]
['beep', 0.0, -3854.848903995622, 0.0, 0.0, 0.0, 0.0, -2908.05136061327, 0.0]
['beep', 0.0, -3854.5136278287923, 0.0, 0.0, 0.0, 0.0, -2908.319581546734, 0.0]
['beep', 0.0, -3853.8207237506776, 0.0, 0.0, 0.0, 0.0, -2910.152424592069, 0.0]
['beep', 0.0, -3855.4076976070046, 0.0, 0.0, 0.0, 0.0, -2909.012485624848, 0.0]
['beep', 0.0, -3852.814895250189, 0.0, 0.0, 0.0, 0.0, -2909.1242443471247, 0.0]
['beep', 0.0, -3855.2512353958173, 0.0, 0.0, 0.0, 0.0, -2908.2972298022783, 0.0]
['beep', 0.0, -3855.3853458625495, 0.0, 0.0, 0.0, 0.0, -2909.995962380882, 0.0]
['beep', 0.0, -3855.2512353958173, 0.0, 0.0, 0.0, 0.0, -2910.800625181273, 0.0]
['beep', 0.0, -3856.0558981962085, 0.0, 0.0, 0.0, 0.0, -2909.1242443471247, 0.0]
['beep', 0.0, -3853.95483421741, 0.0, 0.0, 0.0, 0.0, -2908.5207472468314, 0.0]
['beep', 0.0, -3854.2230551508733, 0.0, 0.0, 0.0, 0.0, -2910.24183156989, 0.0]
['beep', 0.0, -3855.4300493514597, 0.0, 0.0, 0.0, 0.0, -2909.1018926026695, 0.0]
['beep', 0.0, -3854.8265522511665, 0.0, 0.0, 0.0, 0.0, -2909.7724449363286, 0.0]
['beep', 0.0, -3852.591377805636, 0.0, 0.0, 0.0, 0.0, -2911.0911978591917, 0.0]
['beep', 0.0, -3852.52432257227, 0.0, 0.0, 0.0, 0.0, -2909.012485624848, 0.0]
['beep', 0.0, -3853.8654272395884, 0.0, 0.0, 0.0, 0.0, -2908.7442646913846, 0.0]
['beep', 0.0, -3854.290110384239, 0.0, 0.0, 0.0, 0.0, -2909.727741447418, 0.0]
['beep', 0.0, -3853.306633628206, 0.0, 0.0, 0.0, 0.0, -2908.408988524555, 0.0]
['beep', 0.0, -3854.1559999175074, 0.0, 0.0, 0.0, 0.0, -2907.4255117685216, 0.0]
['beep', 0.0, -3853.7089650284015, 0.0, 0.0, 0.0, 0.0, -2909.3254100472227, 0.0]
['beep', 0.0, -3853.910130728499, 0.0, 0.0, 0.0, 0.0, -2910.890032159094, 0.0]
['beep', 0.0, -3854.245406895329, 0.0, 0.0, 0.0, 0.0, -2907.2243460684235, 0.0]
['beep', 0.0, -3854.1783516619626, 0.0, 0.0, 0.0, 0.0, -2906.3302762902113, 0.0]
['beep', 0.0, -3854.4242208509713, 0.0, 0.0, 0.0, 0.0, -2907.3361047907, 0.0]
['beep', 0.0, -3853.887778984044, 0.0, 0.0, 0.0, 0.0, -2906.0397036122927, 0.0]
['beep', 0.0, -3853.105467928108, 0.0, 0.0, 0.0, 0.0, -2906.5537937347644, 0.0]
['beep', 0.0, -3853.7313167728566, 0.0, 0.0, 0.0, 0.0, -2906.95612513496, 0.0]
['beep', 0.0, -3853.7313167728566, 0.0, 0.0, 0.0, 0.0, -2908.543098991287, 0.0]
['beep', 0.0, -3855.0500696957197, 0.0, 0.0, 0.0, 0.0, -2908.6772094580188, 0.0]
['beep', 0.0, -3853.641909795035, 0.0, 0.0, 0.0, 0.0, -2909.928907147516, 0.0]
['beep', 0.0, -3852.7031365279126, 0.0, 0.0, 0.0, 0.0, -2907.984305379904, 0.0]
['beep', 0.0, -3854.5136278287923, 0.0, 0.0, 0.0, 0.0, -2905.6150204676414, 0.0]
['beep', 0.0, -3854.692441784435, 0.0, 0.0, 0.0, 0.0, -2906.4867385013986, 0.0]
['beep', 0.0, -3854.245406895329, 0.0, 0.0, 0.0, 0.0, -2907.693732701985, 0.0]
['beep', 0.0, -3854.8712557400772, 0.0, 0.0, 0.0, 0.0, -2906.8667181571386, 0.0]
['beep', 0.0, -3854.2230551508733, 0.0, 0.0, 0.0, 0.0, -2907.4925670018874, 0.0]
['beep', 0.0, -3854.3795173620606, 0.0, 0.0, 0.0, 0.0, -2909.4595205139544, 0.0]
['beep', 0.0, -3854.4242208509713, 0.0, 0.0, 0.0, 0.0, -2909.213651324946, 0.0]
['beep', 0.0, -3854.044241195231, 0.0, 0.0, 0.0, 0.0, -2908.4313402690104, 0.0]
['beep', 0.0, -3852.747840016823, 0.0, 0.0, 0.0, 0.0, -2909.0795408582144, 0.0]
['beep', 0.0, -3854.1112964285967, 0.0, 0.0, 0.0, 0.0, -2906.5537937347644, 0.0]
['beep', 0.0, -3854.0218894507757, 0.0, 0.0, 0.0, 0.0, -2907.827843168717, 0.0]
['beep', 0.0, -3854.491276084337, 0.0, 0.0, 0.0, 0.0, -2909.794796680784, 0.0]
['beep', 0.0, -3855.206531906907, 0.0, 0.0, 0.0, 0.0, -2910.152424592069, 0.0]
['beep', 0.0, -3854.7818487622562, 0.0, 0.0, 0.0, 0.0, -2908.118415846636, 0.0]
['beep', 0.0, -3853.2842818837503, 0.0, 0.0, 0.0, 0.0, -2907.827843168717, 0.0]
['beep', 0.0, -3852.613729550091, 0.0, 0.0, 0.0, 0.0, -2909.370113536133, 0.0]
['beep', 0.0, -3853.1725231614737, 0.0, 0.0, 0.0, 0.0, -2910.24183156989, 0.0]
['beep', 0.0, -3853.2842818837503, 0.0, 0.0, 0.0, 0.0, -2907.7831396798065, 0.0]
['beep', 0.0, -3852.5019708278146, 0.0, 0.0, 0.0, 0.0, -2906.062055356748, 0.0]
['beep', 0.0, -3850.914996971488, 0.0, 0.0, 0.0, 0.0, -2908.05136061327, 0.0]
['beep', 0.0, -3852.010232449798, 0.0, 0.0, 0.0, 0.0, -2909.303058302767, 0.0]
['beep', 0.0, -3852.747840016823, 0.0, 0.0, 0.0, 0.0, -2909.3924652805886, 0.0]
['beep', 0.0, -3852.725488272368, 0.0, 0.0, 0.0, 0.0, -2908.610154224653, 0.0]
['beep', 0.0, -3851.8090667497004, 0.0, 0.0, 0.0, 0.0, -2908.7442646913846, 0.0]
['beep', 0.0, -3853.1278196725634, 0.0, 0.0, 0.0, 0.0, -2909.6159827251417, 0.0]
['beep', 0.0, -3853.887778984044, 0.0, 0.0, 0.0, 0.0, -2908.7666164358398, 0.0]
['beep', 0.0, -3852.6360812945463, 0.0, 0.0, 0.0, 0.0, -2908.341933291189, 0.0]
['beep', 0.0, -3852.390212105538, 0.0, 0.0, 0.0, 0.0, -2908.252526313368, 0.0]
['beep', 0.0, -3851.2279213938623, 0.0, 0.0, 0.0, 0.0, -2908.856023413661, 0.0]
['beep', 0.0, -3851.4514388384155, 0.0, 0.0, 0.0, 0.0, -2908.319581546734, 0.0]
['beep', 0.0, -3851.943177216432, 0.0, 0.0, 0.0, 0.0, -2907.537270490798, 0.0]
['beep', 0.0, -3852.52432257227, 0.0, 0.0, 0.0, 0.0, -2907.7384361908958, 0.0]
['beep', 0.0, -3853.4854475838483, 0.0, 0.0, 0.0, 0.0, -2909.4595205139544, 0.0]
['beep', 0.0, -3853.105467928108, 0.0, 0.0, 0.0, 0.0, -2909.727741447418, 0.0]
['beep', 0.0, -3853.3736888615717, 0.0, 0.0, 0.0, 0.0, -2908.3866367800997, 0.0]
['beep', 0.0, -3854.8265522511665, 0.0, 0.0, 0.0, 0.0, -2908.408988524555, 0.0]
['beep', 0.0, -3854.8712557400772, 0.0, 0.0, 0.0, 0.0, -2907.9396018909933, 0.0]
['beep', 0.0, -3854.200703406418, 0.0, 0.0, 0.0, 0.0, -2907.984305379904, 0.0]
['beep', 0.0, -3855.295938884728, 0.0, 0.0, 0.0, 0.0, -2908.0066571243597, 0.0]
['beep', 0.0, -3854.603034806614, 0.0, 0.0, 0.0, 0.0, -2908.0066571243597, 0.0]
['beep', 0.0, -3854.692441784435, 0.0, 0.0, 0.0, 0.0, -2909.995962380882, 0.0]
['beep', 0.0, -3854.267758639784, 0.0, 0.0, 0.0, 0.0, -2910.867680414639, 0.0]
['beep', 0.0, -3853.4183923504825, 0.0, 0.0, 0.0, 0.0, -2909.303058302767, 0.0]
['beep', 0.0, -3853.8654272395884, 0.0, 0.0, 0.0, 0.0, -2908.923078647027, 0.0]
['beep', 0.0, -3852.747840016823, 0.0, 0.0, 0.0, 0.0, -2909.012485624848, 0.0]
['beep', 0.0, -3852.9266539724654, 0.0, 0.0, 0.0, 0.0, -2908.4313402690104, 0.0]
['beep', 0.0, -3855.0277179512645, 0.0, 0.0, 0.0, 0.0, -2907.2243460684235, 0.0]
['beep', 0.0, -3854.1336481730523, 0.0, 0.0, 0.0, 0.0, -2908.185471080002, 0.0]
['beep', 0.0, -3853.5748545616693, 0.0, 0.0, 0.0, 0.0, -2908.990133880393, 0.0]
['beep', 0.0, -3854.580683062158, 0.0, 0.0, 0.0, 0.0, -2908.1631193355465, 0.0]
['beep', 0.0, -3855.0277179512645, 0.0, 0.0, 0.0, 0.0, -2909.593630980686, 0.0]
['beep', 0.0, -3854.647738295524, 0.0, 0.0, 0.0, 0.0, -2909.5265757473203, 0.0]
['beep', 0.0, -3853.887778984044, 0.0, 0.0, 0.0, 0.0, -2909.593630980686, 0.0]
['beep', 0.0, -3854.290110384239, 0.0, 0.0, 0.0, 0.0, -2908.4536920134656, 0.0]
['beep', 0.0, -3854.7371452733455, 0.0, 0.0, 0.0, 0.0, -2908.4983955023763, 0.0]
['beep', 0.0, -3855.921787729477, 0.0, 0.0, 0.0, 0.0, -2907.894898402083, 0.0]
['beep', 0.0, -3855.3182906291836, 0.0, 0.0, 0.0, 0.0, -2908.565450735742, 0.0]
['beep', 0.0, -3853.4407440949376, 0.0, 0.0, 0.0, 0.0, -2908.945430391482, 0.0]
['beep', 0.0, -3853.261930139295, 0.0, 0.0, 0.0, 0.0, -2909.906555403061, 0.0]
['beep', 0.0, -3854.1112964285967, 0.0, 0.0, 0.0, 0.0, -2908.4983955023763, 0.0]
['beep', 0.0, -3854.1336481730523, 0.0, 0.0, 0.0, 0.0, -2909.4595205139544, 0.0]
['beep', 0.0, -3855.3406423736387, 0.0, 0.0, 0.0, 0.0, -2909.504224002865, 0.0]
['beep', 0.0, -3853.753668517312, 0.0, 0.0, 0.0, 0.0, -2908.408988524555, 0.0]
['beep', 0.0, -3853.4407440949376, 0.0, 0.0, 0.0, 0.0, -2909.1689478360354, 0.0]
['beep', 0.0, -3853.3513371171166, 0.0, 0.0, 0.0, 0.0, -2909.1018926026695, 0.0]
['beep', 0.0, -3853.641909795035, 0.0, 0.0, 0.0, 0.0, -2909.9736106364267, 0.0]
['beep', 0.0, -3854.357165617605, 0.0, 0.0, 0.0, 0.0, -2909.660686214052, 0.0]
['beep', 0.0, -3853.3513371171166, 0.0, 0.0, 0.0, 0.0, -2910.0630176142477, 0.0]
['beep', 0.0, -3852.7701917612785, 0.0, 0.0, 0.0, 0.0, -2910.018314125337, 0.0]
['beep', 0.0, -3853.530151072759, 0.0, 0.0, 0.0, 0.0, -2908.990133880393, 0.0]
['beep', 0.0, -3853.4854475838483, 0.0, 0.0, 0.0, 0.0, -2909.951258891971, 0.0]
['beep', 0.0, -3855.1171249290855, 0.0, 0.0, 0.0, 0.0, -2911.0688461147365, 0.0]
['beep', 0.0, -3852.5466743167253, 0.0, 0.0, 0.0, 0.0, -2909.5489274917754, 0.0]
['beep', 0.0, -3852.010232449798, 0.0, 0.0, 0.0, 0.0, -2906.643200712586, 0.0]
['beep', 0.0, -3849.5962440486246, 0.0, 0.0, 0.0, 0.0, -2906.9114216460493, 0.0]
['beep', 0.0, -3848.3445463591274, 0.0, 0.0, 0.0, 0.0, -2907.9396018909933, 0.0]
['beep', 0.0, -3848.5010085703148, 0.0, 0.0, 0.0, 0.0, -2910.3535902921667, 0.0]
['beep', 0.0, -3848.6351190370465, 0.0, 0.0, 0.0, 0.0, -2910.934735648005, 0.0]
['beep', 0.0, -3850.9597004603984, 0.0, 0.0, 0.0, 0.0, -2909.7053897029627, 0.0]
['beep', 0.0, -3852.52432257227, 0.0, 0.0, 0.0, 0.0, -2908.274878057823, 0.0]
['beep', 0.0, -3852.949005716921, 0.0, 0.0, 0.0, 0.0, -2907.894898402083, 0.0]
['beep', 0.0, -3853.641909795035, 0.0, 0.0, 0.0, 0.0, -2908.4313402690104, 0.0]
['beep', 0.0, -3855.273587140273, 0.0, 0.0, 0.0, 0.0, -2909.1689478360354, 0.0]
['beep', 0.0, -3853.3736888615717, 0.0, 0.0, 0.0, 0.0, -2909.593630980686, 0.0]
['beep', 0.0, -3853.1948749059293, 0.0, 0.0, 0.0, 0.0, -2910.7782734368175, 0.0]
['beep', 0.0, -3854.245406895329, 0.0, 0.0, 0.0, 0.0, -2911.4488257704766, 0.0]
['beep', 0.0, -3855.0947731846304, 0.0, 0.0, 0.0, 0.0, -2910.8453286701833, 0.0]
['beep', 0.0, -3851.04910743822, 0.0, 0.0, 0.0, 0.0, -2908.7666164358398, 0.0]
['beep', 0.0, -3850.3785551045607, 0.0, 0.0, 0.0, 0.0, -2908.118415846636, 0.0]
['beep', 0.0, -3853.7089650284015, 0.0, 0.0, 0.0, 0.0, -2908.7666164358398, 0.0]
['beep', 0.0, -3853.3513371171166, 0.0, 0.0, 0.0, 0.0, -2910.018314125337, 0.0]
['beep', 0.0, -3853.3513371171166, 0.0, 0.0, 0.0, 0.0, -2909.884203658605, 0.0]
['beep', 0.0, -3852.367860361083, 0.0, 0.0, 0.0, 0.0, -2911.3370670482004, 0.0]
['beep', 0.0, -3853.0831161836527, 0.0, 0.0, 0.0, 0.0, -2910.219479825435, 0.0]
['beep', 0.0, -3854.647738295524, 0.0, 0.0, 0.0, 0.0, -2910.666514714541, 0.0]
['beep', 0.0, -3854.4465725954265, 0.0, 0.0, 0.0, 0.0, -2909.057189113759, 0.0]
['beep', 0.0, -3855.854732496111, 0.0, 0.0, 0.0, 0.0, -2909.8395001696945, 0.0]
['beep', 0.0, -3854.625386551069, 0.0, 0.0, 0.0, 0.0, -2908.654857713563, 0.0]
['beep', 0.0, -3853.105467928108, 0.0, 0.0, 0.0, 0.0, -2908.610154224653, 0.0]
['beep', 0.0, -3852.747840016823, 0.0, 0.0, 0.0, 0.0, -2909.906555403061, 0.0]
['beep', 0.0, -3853.0831161836527, 0.0, 0.0, 0.0, 0.0, -2909.6830379585076, 0.0]
['beep', 0.0, -3852.5019708278146, 0.0, 0.0, 0.0, 0.0, -2909.571279236231, 0.0]
['beep', 0.0, -3851.2055696494067, 0.0, 0.0, 0.0, 0.0, -2909.4371687694993, 0.0]
['beep', 0.0, -3851.7643632607897, 0.0, 0.0, 0.0, 0.0, -2908.2301745689124, 0.0]
['beep', 0.0, -3852.3455086166277, 0.0, 0.0, 0.0, 0.0, -2910.0853693587032, 0.0]
['beep', 0.0, -3852.2561016388063, 0.0, 0.0, 0.0, 0.0, -2909.794796680784, 0.0]
['beep', 0.0, -3852.591377805636, 0.0, 0.0, 0.0, 0.0, -2907.0678838572367, 0.0]
['beep', 0.0, -3850.4456103379266, 0.0, 0.0, 0.0, 0.0, -2908.654857713563, 0.0]
['beep', 0.0, -3852.747840016823, 0.0, 0.0, 0.0, 0.0, -2908.945430391482, 0.0]
['beep', 0.0, -3852.7031365279126, 0.0, 0.0, 0.0, 0.0, -2908.990133880393, 0.0]
['beep', 0.0, -3853.977185961865, 0.0, 0.0, 0.0, 0.0, -2908.654857713563, 0.0]
['beep', 0.0, -3853.887778984044, 0.0, 0.0, 0.0, 0.0, -2909.1689478360354, 0.0]
['beep', 0.0, -3851.674956282968, 0.0, 0.0, 0.0, 0.0, -2909.1242443471247, 0.0]
['beep', 0.0, -3850.9597004603984, 0.0, 0.0, 0.0, 0.0, -2908.856023413661, 0.0]
['beep', 0.0, -3851.5184940717813, 0.0, 0.0, 0.0, 0.0, -2909.347761791678, 0.0]
['beep', 0.0, -3852.52432257227, 0.0, 0.0, 0.0, 0.0, -2909.9736106364267, 0.0]
['beep', 0.0, -3852.971357461376, 0.0, 0.0, 0.0, 0.0, -2912.2981920597786, 0.0]
['beep', 0.0, -3852.4125638499936, 0.0, 0.0, 0.0, 0.0, -2912.879337415616, 0.0]
['beep', 0.0, -3854.625386551069, 0.0, 0.0, 0.0, 0.0, -2908.4313402690104, 0.0]
['beep', 0.0, -3852.457267338904, 0.0, 0.0, 0.0, 0.0, -2907.917250146538, 0.0]
['beep', 0.0, -3851.8090667497004, 0.0, 0.0, 0.0, 0.0, -2907.693732701985, 0.0]
['beep', 0.0, -3851.786715005245, 0.0, 0.0, 0.0, 0.0, -2907.760787935351, 0.0]
['beep', 0.0, -3850.2891481267393, 0.0, 0.0, 0.0, 0.0, -2908.6772094580188, 0.0]
['beep', 0.0, -3851.3173283716833, 0.0, 0.0, 0.0, 0.0, -2907.29140130179, 0.0]
['beep', 0.0, -3850.8926452270325, 0.0, 0.0, 0.0, 0.0, -2907.917250146538, 0.0]
['beep', 0.0, -3850.400906849016, 0.0, 0.0, 0.0, 0.0, -2908.699561202474, 0.0]
['beep', 0.0, -3851.1608661604964, 0.0, 0.0, 0.0, 0.0, -2908.0960641021807, 0.0]
['beep', 0.0, -3851.5184940717813, 0.0, 0.0, 0.0, 0.0, -2908.0960641021807, 0.0]
['beep', 0.0, -3851.004403949309, 0.0, 0.0, 0.0, 0.0, -2908.4536920134656, 0.0]
['beep', 0.0, -3851.6079010496023, 0.0, 0.0, 0.0, 0.0, -2907.8725466576275, 0.0]
['beep', 0.0, -3851.786715005245, 0.0, 0.0, 0.0, 0.0, -2908.8783751581163, 0.0]
['beep', 0.0, -3851.674956282968, 0.0, 0.0, 0.0, 0.0, -2909.1018926026695, 0.0]
['beep', 0.0, -3852.1219911720746, 0.0, 0.0, 0.0, 0.0, -2906.978476879415, 0.0]
['beep', 0.0, -3853.7983720062225, 0.0, 0.0, 0.0, 0.0, -2907.9396018909933, 0.0]
['beep', 0.0, -3853.641909795035, 0.0, 0.0, 0.0, 0.0, -2907.7384361908958, 0.0]
['beep', 0.0, -3853.641909795035, 0.0, 0.0, 0.0, 0.0, -2908.654857713563, 0.0]
['beep', 0.0, -3852.323156872172, 0.0, 0.0, 0.0, 0.0, -2908.2301745689124, 0.0]
['beep', 0.0, -3850.780886504756, 0.0, 0.0, 0.0, 0.0, -2909.4818722584096, 0.0]
['beep', 0.0, -3850.2891481267393, 0.0, 0.0, 0.0, 0.0, -2908.2078228244573, 0.0]
['beep', 0.0, -3850.1550376600076, 0.0, 0.0, 0.0, 0.0, -2908.4760437579207, 0.0]
['beep', 0.0, -3851.4961423273257, 0.0, 0.0, 0.0, 0.0, -2908.7442646913846, 0.0]
['beep', 0.0, -3850.6020725491135, 0.0, 0.0, 0.0, 0.0, -2909.4595205139544, 0.0]
['beep', 0.0, -3851.004403949309, 0.0, 0.0, 0.0, 0.0, -2910.1300728476135, 0.0]
['beep', 0.0, -3851.630252794058, 0.0, 0.0, 0.0, 0.0, -2910.0853693587032, 0.0]
['beep', 0.0, -3853.105467928108, 0.0, 0.0, 0.0, 0.0, -2908.7889681802953, 0.0]
['beep', 0.0, -3852.971357461376, 0.0, 0.0, 0.0, 0.0, -2910.3982937810774, 0.0]
['beep', 0.0, -3854.4689243398816, 0.0, 0.0, 0.0, 0.0, -2909.303058302767, 0.0]
['beep', 0.0, -3853.7983720062225, 0.0, 0.0, 0.0, 0.0, -2907.045532112781, 0.0]
['beep', 0.0, -3854.044241195231, 0.0, 0.0, 0.0, 0.0, -2909.280706558312, 0.0]
['beep', 0.0, -3854.245406895329, 0.0, 0.0, 0.0, 0.0, -2908.1407675910914, 0.0]
['beep', 0.0, -3852.457267338904, 0.0, 0.0, 0.0, 0.0, -2908.185471080002, 0.0]
['beep', 0.0, -3853.530151072759, 0.0, 0.0, 0.0, 0.0, -2907.67138095753, 0.0]
['beep', 0.0, -3853.306633628206, 0.0, 0.0, 0.0, 0.0, -2908.029008868815, 0.0]
['beep', 0.0, -3851.6079010496023, 0.0, 0.0, 0.0, 0.0, -2909.995962380882, 0.0]
['beep', 0.0, -3853.977185961865, 0.0, 0.0, 0.0, 0.0, -2910.532404247809, 0.0]
['beep', 0.0, -3855.228883651362, 0.0, 0.0, 0.0, 0.0, -2910.1077211031584, 0.0]
['beep', 0.0, -3854.915959228988, 0.0, 0.0, 0.0, 0.0, -2909.571279236231, 0.0]
['beep', 0.0, -3854.71479352889, 0.0, 0.0, 0.0, 0.0, -2909.5265757473203, 0.0]
['beep', 0.0, -3853.686613283946, 0.0, 0.0, 0.0, 0.0, -2909.928907147516, 0.0]
['beep', 0.0, -3852.7031365279126, 0.0, 0.0, 0.0, 0.0, -2909.2360030694012, 0.0]
['beep', 0.0, -3854.245406895329, 0.0, 0.0, 0.0, 0.0, -2910.375942036622, 0.0]
['beep', 0.0, -3853.8207237506776, 0.0, 0.0, 0.0, 0.0, -2911.0688461147365, 0.0]
['beep', 0.0, -3852.52432257227, 0.0, 0.0, 0.0, 0.0, -2911.1135496036472, 0.0]
['beep', 0.0, -3851.5631975606916, 0.0, 0.0, 0.0, 0.0, -2910.3312385477116, 0.0]
['beep', 0.0, -3853.328985372661, 0.0, 0.0, 0.0, 0.0, -2909.504224002865, 0.0]
['beep', 0.0, -3854.200703406418, 0.0, 0.0, 0.0, 0.0, -2909.1242443471247, 0.0]
['beep', 0.0, -3853.4854475838483, 0.0, 0.0, 0.0, 0.0, -2910.1747763365242, 0.0]
['beep', 0.0, -3851.987880705343, 0.0, 0.0, 0.0, 0.0, -2910.912383903549, 0.0]
['beep', 0.0, -3853.23957839484, 0.0, 0.0, 0.0, 0.0, -2907.4925670018874, 0.0]
['beep', 0.0, -3851.8090667497004, 0.0, 0.0, 0.0, 0.0, -2908.0960641021807, 0.0]
['beep', 0.0, -3852.7031365279126, 0.0, 0.0, 0.0, 0.0, -2908.2972298022783, 0.0]
['beep', 0.0, -3853.4630958393927, 0.0, 0.0, 0.0, 0.0, -2908.990133880393, 0.0]
['beep', 0.0, -3852.4796190833595, 0.0, 0.0, 0.0, 0.0, -2908.7666164358398, 0.0]
['beep', 0.0, -3851.3173283716833, 0.0, 0.0, 0.0, 0.0, -2908.565450735742, 0.0]
['beep', 0.0, -3851.2279213938623, 0.0, 0.0, 0.0, 0.0, -2909.571279236231, 0.0]
['beep', 0.0, -3852.680784783457, 0.0, 0.0, 0.0, 0.0, -2909.4148170250437, 0.0]
['beep', 0.0, -3852.2561016388063, 0.0, 0.0, 0.0, 0.0, -2908.856023413661, 0.0]
['beep', 0.0, -3852.1890464054404, 0.0, 0.0, 0.0, 0.0, -2907.3361047907, 0.0]
['beep', 0.0, -3852.4125638499936, 0.0, 0.0, 0.0, 0.0, -2908.6772094580188, 0.0]
['beep', 0.0, -3852.591377805636, 0.0, 0.0, 0.0, 0.0, -2911.560584492753, 0.0]
['beep', 0.0, -3852.949005716921, 0.0, 0.0, 0.0, 0.0, -2910.7782734368175, 0.0]
['beep', 0.0, -3853.597206306125, 0.0, 0.0, 0.0, 0.0, -2907.827843168717, 0.0]
['beep', 0.0, -3853.23957839484, 0.0, 0.0, 0.0, 0.0, -2909.1018926026695, 0.0]
['beep', 0.0, -3850.4456103379266, 0.0, 0.0, 0.0, 0.0, -2908.3866367800997, 0.0]
['beep', 0.0, -3852.8372469946444, 0.0, 0.0, 0.0, 0.0, -2908.274878057823, 0.0]
