['beep', 0.0, -5468.3319292464175, 0.0, 0.0, 0.0, 0.0, -2615.869357093496, 0.0]
['beep', 0.0, -5466.007347823066, 0.0, 0.0, 0.0, 0.0, -2615.578784415577, 0.0]
['beep', 0.0, -5465.850885611879, 0.0, 0.0, 0.0, 0.0, -2616.9645925718064, 0.0]
['beep', 0.0, -5468.644853668792, 0.0, 0.0, 0.0, 0.0, -2618.6409734059544, 0.0]
['beep', 0.0, -5468.935426346711, 0.0, 0.0, 0.0, 0.0, -2617.679848394376, 0.0]
['beep', 0.0, -5467.437859468206, 0.0, 0.0, 0.0, 0.0, -2617.746903627742, 0.0]
['beep', 0.0, -5466.32027224544, 0.0, 0.0, 0.0, 0.0, -2616.6516681494318, 0.0]
['beep', 0.0, -5467.46021121266, 0.0, 0.0, 0.0, 0.0, -2617.255165249725, 0.0]
['beep', 0.0, -5469.091888557898, 0.0, 0.0, 0.0, 0.0, -2619.80326411763, 0.0]
['beep', 0.0, -5470.500048458583, 0.0, 0.0, 0.0, 0.0, -2619.2668222507027, 0.0]
['beep', 0.0, -5467.817839123945, 0.0, 0.0, 0.0, 0.0, -2617.098703038538, 0.0]
['beep', 0.0, -5464.8897606003, 0.0, 0.0, 0.0, 0.0, -2614.483548937267, 0.0]
['beep', 0.0, -5467.259045512563, 0.0, 0.0, 0.0, 0.0, -2577.5808188415554, 0.0]
['beep', 0.0, -5470.075365313932, 0.0, 0.0, 0.0, 0.0, -2544.656699258888, 0.0]
['beep', 0.0, -5469.628330424825, 0.0, 0.0, 0.0, 0.0, -2583.5040311222115, 0.0]
['beep', 0.0, -5467.929597846222, 0.0, 0.0, 0.0, 0.0, -2613.008333803217, 0.0]
['beep', 0.0, -5466.70025190118, 0.0, 0.0, 0.0, 0.0, -2612.069560536094, 0.0]
['beep', 0.0, -5466.834362367912, 0.0, 0.0, 0.0, 0.0, -2613.94710707034, 0.0]
['beep', 0.0, -5469.98595833611, 0.0, 0.0, 0.0, 0.0, -2616.5622611716108, 0.0]
['beep', 0.0, -5469.673033913736, 0.0, 0.0, 0.0, 0.0, -2616.741075127253, 0.0]
['beep', 0.0, -5468.622501924337, 0.0, 0.0, 0.0, 0.0, -2616.3610954715127, 0.0]
['beep', 0.0, -5467.259045512563, 0.0, 0.0, 0.0, 0.0, -2615.288211737658, 0.0]
['beep', 0.0, -5468.0413565684985, 0.0, 0.0, 0.0, 0.0, -2613.880051836974, 0.0]
['beep', 0.0, -5470.276531014029, 0.0, 0.0, 0.0, 0.0, -2614.595307659544, 0.0]
['beep', 0.0, -5471.908208359267, 0.0, 0.0, 0.0, 0.0, -2615.0423425486497, 0.0]
['beep', 0.0, -5470.276531014029, 0.0, 0.0, 0.0, 0.0, -2615.288211737658, 0.0]
['beep', 0.0, -5469.494219958094, 0.0, 0.0, 0.0, 0.0, -2615.0870460375604, 0.0]
['beep', 0.0, -5472.422298481739, 0.0, 0.0, 0.0, 0.0, -2614.640011148454, 0.0]
['beep', 0.0, -5473.405775237772, 0.0, 0.0, 0.0, 0.0, -2614.4611971928116, 0.0]
['beep', 0.0, -5473.584589193415, 0.0, 0.0, 0.0, 0.0, -2613.9918105592506, 0.0]
['beep', 0.0, -5471.9752635926325, 0.0, 0.0, 0.0, 0.0, -2613.008333803217, 0.0]
['beep', 0.0, -5470.634158925314, 0.0, 0.0, 0.0, 0.0, -2612.3377814695577, 0.0]
['beep', 0.0, -5471.46117347016, 0.0, 0.0, 0.0, 0.0, -2612.7624646142085, 0.0]
['beep', 0.0, -5473.22696128213, 0.0, 0.0, 0.0, 0.0, -2614.483548937267, 0.0]
['beep', 0.0, -5474.188086293708, 0.0, 0.0, 0.0, 0.0, -2615.623487904488, 0.0]
['beep', 0.0, -5472.13172580382, 0.0, 0.0, 0.0, 0.0, -2613.7906448591525, 0.0]
['beep', 0.0, -5469.337757746906, 0.0, 0.0, 0.0, 0.0, -2612.6954093808426, 0.0]
['beep', 0.0, -5470.120068802842, 0.0, 0.0, 0.0, 0.0, -2612.8518715920295, 0.0]
['beep', 0.0, -5472.84698162639, 0.0, 0.0, 0.0, 0.0, -2612.918926825396, 0.0]
['beep', 0.0, -5474.545714204993, 0.0, 0.0, 0.0, 0.0, -2611.8236913470855, 0.0]
['beep', 0.0, -5470.991786836599, 0.0, 0.0, 0.0, 0.0, -2612.4942436807446, 0.0]
['beep', 0.0, -5470.276531014029, 0.0, 0.0, 0.0, 0.0, -2612.628354147477, 0.0]
['beep', 0.0, -5470.3882897363055, 0.0, 0.0, 0.0, 0.0, -2611.8907465804514, 0.0]
['beep', 0.0, -5471.617635681348, 0.0, 0.0, 0.0, 0.0, -2611.778987858175, 0.0]
['beep', 0.0, -5471.841153125901, 0.0, 0.0, 0.0, 0.0, -2611.287249480158, 0.0]
['beep', 0.0, -5471.550580447982, 0.0, 0.0, 0.0, 0.0, -2611.488415180256, 0.0]
['beep', 0.0, -5469.203647280175, 0.0, 0.0, 0.0, 0.0, -2612.606002403021, 0.0]
['beep', 0.0, -5469.717737402647, 0.0, 0.0, 0.0, 0.0, -2612.941278569851, 0.0]
['beep', 0.0, -5470.142420547298, 0.0, 0.0, 0.0, 0.0, -2612.874223336485, 0.0]
['beep', 0.0, -5469.896551358289, 0.0, 0.0, 0.0, 0.0, -2612.9859820587617, 0.0]
['beep', 0.0, -5468.711908902158, 0.0, 0.0, 0.0, 0.0, -2611.6001739025323, 0.0]
['beep', 0.0, -5468.667205413247, 0.0, 0.0, 0.0, 0.0, -2611.555470413622, 0.0]
['beep', 0.0, -5469.9189031027445, 0.0, 0.0, 0.0, 0.0, -2611.264897735703, 0.0]
['beep', 0.0, -5472.601112437381, 0.0, 0.0, 0.0, 0.0, -2610.8178628465967, 0.0]
['beep', 0.0, -5473.115202559853, 0.0, 0.0, 0.0, 0.0, -2611.5107669247113, 0.0]
['beep', 0.0, -5471.684690914713, 0.0, 0.0, 0.0, 0.0, -2609.7673308571975, 0.0]
['beep', 0.0, -5470.276531014029, 0.0, 0.0, 0.0, 0.0, -2607.4427494338456, 0.0]
['beep', 0.0, -5470.187124036208, 0.0, 0.0, 0.0, 0.0, -2575.0327199736503, 0.0]
['beep', 0.0, -5472.623464181836, 0.0, 0.0, 0.0, 0.0, -2540.387516067924, 0.0]
['beep', 0.0, -5472.578760692926, 0.0, 0.0, 0.0, 0.0, -2577.357301397002, 0.0]
['beep', 0.0, -5471.394118236794, 0.0, 0.0, 0.0, 0.0, -2610.66140063541, 0.0]
['beep', 0.0, -5470.142420547298, 0.0, 0.0, 0.0, 0.0, -2611.488415180256, 0.0]
['beep', 0.0, -5470.947083347689, 0.0, 0.0, 0.0, 0.0, -2610.8849180799625, 0.0]
['beep', 0.0, -5472.17642929273, 0.0, 0.0, 0.0, 0.0, -2611.331952969069, 0.0]
['beep', 0.0, -5472.109374059364, 0.0, 0.0, 0.0, 0.0, -2610.32612446858, 0.0]
['beep', 0.0, -5471.751746148079, 0.0, 0.0, 0.0, 0.0, -2610.102607024027, 0.0]
['beep', 0.0, -5469.069536813443, 0.0, 0.0, 0.0, 0.0, -2611.935450069362, 0.0]
['beep', 0.0, -5469.494219958094, 0.0, 0.0, 0.0, 0.0, -2612.226022747281, 0.0]
['beep', 0.0, -5469.9189031027445, 0.0, 0.0, 0.0, 0.0, -2611.6001739025323, 0.0]
['beep', 0.0, -5468.577798435426, 0.0, 0.0, 0.0, 0.0, -2610.4602349353117, 0.0]
['beep', 0.0, -5465.828533867423, 0.0, 0.0, 0.0, 0.0, -2609.454406434823, 0.0]
['beep', 0.0, -5462.766344877046, 0.0, 0.0, 0.0, 0.0, -2609.9237930683844, 0.0]
['beep', 0.0, -5462.185199521208, 0.0, 0.0, 0.0, 0.0, -2609.4320546903677, 0.0]
['beep', 0.0, -5463.41454546625, 0.0, 0.0, 0.0, 0.0, -2608.8509093345297, 0.0]
['beep', 0.0, -5466.387327478806, 0.0, 0.0, 0.0, 0.0, -2609.364999457002, 0.0]
['beep', 0.0, -5466.566141434449, 0.0, 0.0, 0.0, 0.0, -2608.4709296787896, 0.0]
['beep', 0.0, -5464.956815833666, 0.0, 0.0, 0.0, 0.0, -2608.2250604897813, 0.0]
['beep', 0.0, -5464.710946644658, 0.0, 0.0, 0.0, 0.0, -2608.716798867798, 0.0]
['beep', 0.0, -5466.610844923359, 0.0, 0.0, 0.0, 0.0, -2608.381522700968, 0.0]
['beep', 0.0, -5468.443687968694, 0.0, 0.0, 0.0, 0.0, -2609.029723290172, 0.0]
['beep', 0.0, -5468.600150179881, 0.0, 0.0, 0.0, 0.0, -2608.1133017675047, 0.0]
['beep', 0.0, -5466.387327478806, 0.0, 0.0, 0.0, 0.0, -2606.5710314000885, 0.0]
['beep', 0.0, -5467.147286790287, 0.0, 0.0, 0.0, 0.0, -2606.682790122365, 0.0]
['beep', 0.0, -5469.069536813443, 0.0, 0.0, 0.0, 0.0, -2606.1463482554377, 0.0]
['beep', 0.0, -5469.60597868037, 0.0, 0.0, 0.0, 0.0, -2609.588516901555, 0.0]
['beep', 0.0, -5467.639025168303, 0.0, 0.0, 0.0, 0.0, -2609.812034346108, 0.0]
['beep', 0.0, -5465.269740256041, 0.0, 0.0, 0.0, 0.0, -2608.336819212058, 0.0]
['beep', 0.0, -5466.409679223261, 0.0, 0.0, 0.0, 0.0, -2609.074426779083, 0.0]
['beep', 0.0, -5469.673033913736, 0.0, 0.0, 0.0, 0.0, -2609.655572134921, 0.0]
['beep', 0.0, -5471.282359514518, 0.0, 0.0, 0.0, 0.0, -2610.1249587684824, 0.0]
['beep', 0.0, -5469.4495164691825, 0.0, 0.0, 0.0, 0.0, -2608.9179645678955, 0.0]
['beep', 0.0, -5466.230865267618, 0.0, 0.0, 0.0, 0.0, -2605.475795921778, 0.0]
['beep', 0.0, -5467.03552806801, 0.0, 0.0, 0.0, 0.0, -2577.849039775019, 0.0]
['beep', 0.0, -5469.628330424825, 0.0, 0.0, 0.0, 0.0, -2535.447780543301, 0.0]
['beep', 0.0, -5471.081193814421, 0.0, 0.0, 0.0, 0.0, -2561.3534523670023, 0.0]
['beep', 0.0, -5468.108411801864, 0.0, 0.0, 0.0, 0.0, -2603.821766832086, 0.0]
['beep', 0.0, -5466.812010623456, 0.0, 0.0, 0.0, 0.0, -2607.643915133943, 0.0]
['beep', 0.0, -5467.706080401669, 0.0, 0.0, 0.0, 0.0, -2609.297944223636, 0.0]
['beep', 0.0, -5469.293054257996, 0.0, 0.0, 0.0, 0.0, -2610.8178628465967, 0.0]
['beep', 0.0, -5470.790621136502, 0.0, 0.0, 0.0, 0.0, -2610.1696622573927, 0.0]
['beep', 0.0, -5469.181295535719, 0.0, 0.0, 0.0, 0.0, -2609.5438134126443, 0.0]
['beep', 0.0, -5466.812010623456, 0.0, 0.0, 0.0, 0.0, -2608.7615023567087, 0.0]
['beep', 0.0, -5467.907246101767, 0.0, 0.0, 0.0, 0.0, -2606.973362800284, 0.0]
['beep', 0.0, -5469.181295535719, 0.0, 0.0, 0.0, 0.0, -2607.9568395563174, 0.0]
['beep', 0.0, -5469.963606591655, 0.0, 0.0, 0.0, 0.0, -2609.163833756904, 0.0]
['beep', 0.0, -5468.466039713149, 0.0, 0.0, 0.0, 0.0, -2608.8285575900745, 0.0]
['beep', 0.0, -5467.571969934937, 0.0, 0.0, 0.0, 0.0, -2607.129825011471, 0.0]
['beep', 0.0, -5467.884894357311, 0.0, 0.0, 0.0, 0.0, -2607.487452922756, 0.0]
['beep', 0.0, -5469.091888557898, 0.0, 0.0, 0.0, 0.0, -2609.23088899027, 0.0]
['beep', 0.0, -5470.500048458583, 0.0, 0.0, 0.0, 0.0, -2609.297944223636, 0.0]
['beep', 0.0, -5469.315406002451, 0.0, 0.0, 0.0, 0.0, -2607.4651011783008, 0.0]
['beep', 0.0, -5467.527266446026, 0.0, 0.0, 0.0, 0.0, -2606.548679655633, 0.0]
['beep', 0.0, -5468.086060057409, 0.0, 0.0, 0.0, 0.0, -2608.13565351196, 0.0]
['beep', 0.0, -5469.9189031027445, 0.0, 0.0, 0.0, 0.0, -2609.320295968091, 0.0]
['beep', 0.0, -5470.32123450294, 0.0, 0.0, 0.0, 0.0, -2609.1414820124487, 0.0]
['beep', 0.0, -5469.22599902463, 0.0, 0.0, 0.0, 0.0, -2608.001543045228, 0.0]
['beep', 0.0, -5467.03552806801, 0.0, 0.0, 0.0, 0.0, -2608.426226189879, 0.0]
['beep', 0.0, -5467.549618190482, 0.0, 0.0, 0.0, 0.0, -2609.4320546903677, 0.0]
['beep', 0.0, -5469.427164724728, 0.0, 0.0, 0.0, 0.0, -2609.7673308571975, 0.0]
['beep', 0.0, -5470.678862414225, 0.0, 0.0, 0.0, 0.0, -2608.940316312351, 0.0]
['beep', 0.0, -5468.8907228578, 0.0, 0.0, 0.0, 0.0, -2608.9179645678955, 0.0]
['beep', 0.0, -5468.220170524141, 0.0, 0.0, 0.0, 0.0, -2610.2143657463034, 0.0]
['beep', 0.0, -5467.817839123945, 0.0, 0.0, 0.0, 0.0, -2611.846043091541, 0.0]
['beep', 0.0, -5468.8907228578, 0.0, 0.0, 0.0, 0.0, -2611.04138029115, 0.0]
['beep', 0.0, -5470.254179269574, 0.0, 0.0, 0.0, 0.0, -2610.3708279574907, 0.0]
['beep', 0.0, -5467.259045512563, 0.0, 0.0, 0.0, 0.0, -2609.1191302679936, 0.0]
['beep', 0.0, -5464.979167578122, 0.0, 0.0, 0.0, 0.0, -2607.5545081561218, 0.0]
['beep', 0.0, -5465.2250367671295, 0.0, 0.0, 0.0, 0.0, -2572.7528420392086, 0.0]
['beep', 0.0, -5467.326100745929, 0.0, 0.0, 0.0, 0.0, -2537.302975333092, 0.0]
['beep', 0.0, -5467.281397257018, 0.0, 0.0, 0.0, 0.0, -2568.036623959139, 0.0]
['beep', 0.0, -5466.32027224544, 0.0, 0.0, 0.0, 0.0, -2608.582688401066, 0.0]
['beep', 0.0, -5467.437859468206, 0.0, 0.0, 0.0, 0.0, -2609.655572134921, 0.0]
['beep', 0.0, -5467.706080401669, 0.0, 0.0, 0.0, 0.0, -2611.711932624809, 0.0]
['beep', 0.0, -5468.063708312954, 0.0, 0.0, 0.0, 0.0, -2611.9578018138172, 0.0]
['beep', 0.0, -5468.600150179881, 0.0, 0.0, 0.0, 0.0, -2612.4271884473787, 0.0]
['beep', 0.0, -5467.706080401669, 0.0, 0.0, 0.0, 0.0, -2611.264897735703, 0.0]
['beep', 0.0, -5465.917940845245, 0.0, 0.0, 0.0, 0.0, -2612.270726236192, 0.0]
['beep', 0.0, -5467.124935045831, 0.0, 0.0, 0.0, 0.0, -2612.203671002826, 0.0]
['beep', 0.0, -5469.360109491362, 0.0, 0.0, 0.0, 0.0, -2611.9578018138172, 0.0]
['beep', 0.0, -5469.315406002451, 0.0, 0.0, 0.0, 0.0, -2612.5165954252, 0.0]
['beep', 0.0, -5469.203647280175, 0.0, 0.0, 0.0, 0.0, -2611.1084355245157, 0.0]
['beep', 0.0, -5468.622501924337, 0.0, 0.0, 0.0, 0.0, -2609.655572134921, 0.0]
['beep', 0.0, -5467.437859468206, 0.0, 0.0, 0.0, 0.0, -2610.8178628465967, 0.0]
['beep', 0.0, -5470.075365313932, 0.0, 0.0, 0.0, 0.0, -2611.8907465804514, 0.0]
['beep', 0.0, -5469.22599902463, 0.0, 0.0, 0.0, 0.0, -2611.130787268971, 0.0]
['beep', 0.0, -5468.801315879979, 0.0, 0.0, 0.0, 0.0, -2611.42135994689, 0.0]
['beep', 0.0, -5467.884894357311, 0.0, 0.0, 0.0, 0.0, -2610.3708279574907, 0.0]
['beep', 0.0, -5469.22599902463, 0.0, 0.0, 0.0, 0.0, -2610.259069235214, 0.0]
['beep', 0.0, -5470.008310080566, 0.0, 0.0, 0.0, 0.0, -2611.8236913470855, 0.0]
['beep', 0.0, -5471.617635681348, 0.0, 0.0, 0.0, 0.0, -2610.7284558687757, 0.0]
['beep', 0.0, -5469.293054257996, 0.0, 0.0, 0.0, 0.0, -2610.616697146499, 0.0]
['beep', 0.0, -5467.504914701572, 0.0, 0.0, 0.0, 0.0, -2609.7673308571975, 0.0]
['beep', 0.0, -5467.840190868401, 0.0, 0.0, 0.0, 0.0, -2609.588516901555, 0.0]
['beep', 0.0, -5470.187124036208, 0.0, 0.0, 0.0, 0.0, -2611.4660634358006, 0.0]
['beep', 0.0, -5469.740089147102, 0.0, 0.0, 0.0, 0.0, -2612.9859820587617, 0.0]
['beep', 0.0, -5468.711908902158, 0.0, 0.0, 0.0, 0.0, -2611.644877391443, 0.0]
['beep', 0.0, -5467.236693768107, 0.0, 0.0, 0.0, 0.0, -2610.8625663355074, 0.0]
['beep', 0.0, -5469.784792636013, 0.0, 0.0, 0.0, 0.0, -2588.3767114134685, 0.0]
['beep', 0.0, -5471.729394403625, 0.0, 0.0, 0.0, 0.0, -2542.0862486465276, 0.0]
['beep', 0.0, -5471.863504870356, 0.0, 0.0, 0.0, 0.0, -2568.2824931481473, 0.0]
['beep', 0.0, -5470.902379858778, 0.0, 0.0, 0.0, 0.0, -2609.9237930683844, 0.0]
['beep', 0.0, -5469.1589437912635, 0.0, 0.0, 0.0, 0.0, -2611.644877391443, 0.0]
['beep', 0.0, -5468.108411801864, 0.0, 0.0, 0.0, 0.0, -2611.8907465804514, 0.0]
['beep', 0.0, -5470.477696714127, 0.0, 0.0, 0.0, 0.0, -2611.8907465804514, 0.0]
['beep', 0.0, -5470.947083347689, 0.0, 0.0, 0.0, 0.0, -2611.9578018138172, 0.0]
['beep', 0.0, -5471.0364903255095, 0.0, 0.0, 0.0, 0.0, -2612.069560536094, 0.0]
['beep', 0.0, -5469.1589437912635, 0.0, 0.0, 0.0, 0.0, -2610.102607024027, 0.0]
['beep', 0.0, -5467.639025168303, 0.0, 0.0, 0.0, 0.0, -2608.4038744454238, 0.0]
['beep', 0.0, -5469.56127519146, 0.0, 0.0, 0.0, 0.0, -2609.2085372458146, 0.0]
['beep', 0.0, -5470.969435092144, 0.0, 0.0, 0.0, 0.0, -2609.9908483017502, 0.0]
['beep', 0.0, -5470.343586247395, 0.0, 0.0, 0.0, 0.0, -2610.9519733133284, 0.0]
['beep', 0.0, -5469.717737402647, 0.0, 0.0, 0.0, 0.0, -2609.588516901555, 0.0]
['beep', 0.0, -5469.963606591655, 0.0, 0.0, 0.0, 0.0, -2610.2367174907586, 0.0]
['beep', 0.0, -5471.058842069965, 0.0, 0.0, 0.0, 0.0, -2611.3766564579796, 0.0]
['beep', 0.0, -5471.617635681348, 0.0, 0.0, 0.0, 0.0, -2610.996676802239, 0.0]
['beep', 0.0, -5470.343586247395, 0.0, 0.0, 0.0, 0.0, -2610.5049384242225, 0.0]
['beep', 0.0, -5469.091888557898, 0.0, 0.0, 0.0, 0.0, -2608.582688401066, 0.0]
['beep', 0.0, -5469.673033913736, 0.0, 0.0, 0.0, 0.0, -2609.9237930683844, 0.0]
['beep', 0.0, -5471.751746148079, 0.0, 0.0, 0.0, 0.0, -2611.6672291358987, 0.0]
['beep', 0.0, -5472.534057204015, 0.0, 0.0, 0.0, 0.0, -2611.2425459912474, 0.0]
['beep', 0.0, -5470.74591764759, 0.0, 0.0, 0.0, 0.0, -2611.935450069362, 0.0]
['beep', 0.0, -5468.3319292464175, 0.0, 0.0, 0.0, 0.0, -2609.387351201457, 0.0]
['beep', 0.0, -5468.398984479783, 0.0, 0.0, 0.0, 0.0, -2577.2455426747256, 0.0]
['beep', 0.0, -5470.0977170583865, 0.0, 0.0, 0.0, 0.0, -2537.2582718441813, 0.0]
['beep', 0.0, -5472.13172580382, 0.0, 0.0, 0.0, 0.0, -2565.4438216023236, 0.0]
['beep', 0.0, -5472.377594992829, 0.0, 0.0, 0.0, 0.0, -2607.75567385622, 0.0]
['beep', 0.0, -5470.343586247395, 0.0, 0.0, 0.0, 0.0, -2610.0802552795717, 0.0]
['beep', 0.0, -5469.695385658191, 0.0, 0.0, 0.0, 0.0, -2610.8178628465967, 0.0]
['beep', 0.0, -5472.355243248373, 0.0, 0.0, 0.0, 0.0, -2611.1754907578816, 0.0]
['beep', 0.0, -5472.757574648568, 0.0, 0.0, 0.0, 0.0, -2610.7284558687757, 0.0]
['beep', 0.0, -5471.997615337088, 0.0, 0.0, 0.0, 0.0, -2609.9237930683844, 0.0]
['beep', 0.0, -5469.628330424825, 0.0, 0.0, 0.0, 0.0, -2609.0520750346277, 0.0]
['beep', 0.0, -5469.56127519146, 0.0, 0.0, 0.0, 0.0, -2609.94614481284, 0.0]
['beep', 0.0, -5471.505876959071, 0.0, 0.0, 0.0, 0.0, -2612.4495401918343, 0.0]
['beep', 0.0, -5472.2658362705515, 0.0, 0.0, 0.0, 0.0, -2612.270726236192, 0.0]
['beep', 0.0, -5469.851847869379, 0.0, 0.0, 0.0, 0.0, -2611.3990082024347, 0.0]
['beep', 0.0, -5468.0413565684985, 0.0, 0.0, 0.0, 0.0, -2610.5719936575883, 0.0]
['beep', 0.0, -5468.086060057409, 0.0, 0.0, 0.0, 0.0, -2610.1696622573927, 0.0]
['beep', 0.0, -5468.354280990873, 0.0, 0.0, 0.0, 0.0, -2609.8790895794737, 0.0]
['beep', 0.0, -5469.069536813443, 0.0, 0.0, 0.0, 0.0, -2609.8343860905634, 0.0]
['beep', 0.0, -5469.404812980272, 0.0, 0.0, 0.0, 0.0, -2607.9121360674067, 0.0]
['beep', 0.0, -5467.303749001473, 0.0, 0.0, 0.0, 0.0, -2607.8674325784964, 0.0]
['beep', 0.0, -5467.594321679392, 0.0, 0.0, 0.0, 0.0, -2608.046246534139, 0.0]
['beep', 0.0, -5469.047185068987, 0.0, 0.0, 0.0, 0.0, -2608.4709296787896, 0.0]
['beep', 0.0, -5470.790621136502, 0.0, 0.0, 0.0, 0.0, -2609.61086864601, 0.0]
['beep', 0.0, -5470.812972880956, 0.0, 0.0, 0.0, 0.0, -2609.0520750346277, 0.0]
['beep', 0.0, -5470.008310080566, 0.0, 0.0, 0.0, 0.0, -2606.5263279111778, 0.0]
['beep', 0.0, -5469.069536813443, 0.0, 0.0, 0.0, 0.0, -2607.2415837337476, 0.0]
['beep', 0.0, -5470.0977170583865, 0.0, 0.0, 0.0, 0.0, -2608.9850198012614, 0.0]
['beep', 0.0, -5470.924731603233, 0.0, 0.0, 0.0, 0.0, -2609.4767581792785, 0.0]
['beep', 0.0, -5469.628330424825, 0.0, 0.0, 0.0, 0.0, -2609.4991099237336, 0.0]
['beep', 0.0, -5469.203647280175, 0.0, 0.0, 0.0, 0.0, -2609.320295968091, 0.0]
['beep', 0.0, -5470.343586247395, 0.0, 0.0, 0.0, 0.0, -2584.0181212446837, 0.0]
['beep', 0.0, -5471.282359514518, 0.0, 0.0, 0.0, 0.0, -2539.35933582298, 0.0]
['beep', 0.0, -5474.0316240825205, 0.0, 0.0, 0.0, 0.0, -2565.108545435494, 0.0]
['beep', 0.0, -5472.645815926292, 0.0, 0.0, 0.0, 0.0, -2606.749845355731, 0.0]
['beep', 0.0, -5469.874199613834, 0.0, 0.0, 0.0, 0.0, -2608.5379849121555, 0.0]
['beep', 0.0, -5469.404812980272, 0.0, 0.0, 0.0, 0.0, -2609.3426477125463, 0.0]
['beep', 0.0, -5470.634158925314, 0.0, 0.0, 0.0, 0.0, -2612.1142640250046, 0.0]
['beep', 0.0, -5471.304711258974, 0.0, 0.0, 0.0, 0.0, -2612.1813192583704, 0.0]
['beep', 0.0, -5469.9412548472, 0.0, 0.0, 0.0, 0.0, -2611.555470413622, 0.0]
['beep', 0.0, -5468.622501924337, 0.0, 0.0, 0.0, 0.0, -2611.644877391443, 0.0]
['beep', 0.0, -5468.17546703523, 0.0, 0.0, 0.0, 0.0, -2610.4825866797673, 0.0]
['beep', 0.0, -5469.829496124923, 0.0, 0.0, 0.0, 0.0, -2609.722627368287, 0.0]
['beep', 0.0, -5472.377594992829, 0.0, 0.0, 0.0, 0.0, -2611.4437116913455, 0.0]
['beep', 0.0, -5470.432993225217, 0.0, 0.0, 0.0, 0.0, -2610.2814209796693, 0.0]
['beep', 0.0, -5468.667205413247, 0.0, 0.0, 0.0, 0.0, -2607.688618622854, 0.0]
['beep', 0.0, -5469.091888557898, 0.0, 0.0, 0.0, 0.0, -2608.4709296787896, 0.0]
['beep', 0.0, -5469.22599902463, 0.0, 0.0, 0.0, 0.0, -2610.2143657463034, 0.0]
['beep', 0.0, -5470.053013569476, 0.0, 0.0, 0.0, 0.0, -2611.8236913470855, 0.0]
['beep', 0.0, -5468.108411801864, 0.0, 0.0, 0.0, 0.0, -2610.32612446858, 0.0]
['beep', 0.0, -5466.387327478806, 0.0, 0.0, 0.0, 0.0, -2609.4320546903677, 0.0]
['beep', 0.0, -5466.521437945537, 0.0, 0.0, 0.0, 0.0, -2609.8343860905634, 0.0]
['beep', 0.0, -5467.795487379491, 0.0, 0.0, 0.0, 0.0, -2609.94614481284, 0.0]
['beep', 0.0, -5469.2707025135405, 0.0, 0.0, 0.0, 0.0, -2610.348476213035, 0.0]
['beep', 0.0, -5467.326100745929, 0.0, 0.0, 0.0, 0.0, -2609.9237930683844, 0.0]
['beep', 0.0, -5464.5768361779255, 0.0, 0.0, 0.0, 0.0, -2609.655572134921, 0.0]
['beep', 0.0, -5465.359147233862, 0.0, 0.0, 0.0, 0.0, -2598.1891272293483, 0.0]
['beep', 0.0, -5468.242522268596, 0.0, 0.0, 0.0, 0.0, -2550.0211179281614, 0.0]
['beep', 0.0, -5468.600150179881, 0.0, 0.0, 0.0, 0.0, -2568.349548381513, 0.0]
['beep', 0.0, -5467.281397257018, 0.0, 0.0, 0.0, 0.0, -2609.7673308571975, 0.0]
['beep', 0.0, -5466.610844923359, 0.0, 0.0, 0.0, 0.0, -2610.66140063541, 0.0]
['beep', 0.0, -5464.979167578122, 0.0, 0.0, 0.0, 0.0, -2612.069560536094, 0.0]
['beep', 0.0, -5467.236693768107, 0.0, 0.0, 0.0, 0.0, -2613.522423925689, 0.0]
['beep', 0.0, -5467.080231556921, 0.0, 0.0, 0.0, 0.0, -2614.3941419594457, 0.0]
['beep', 0.0, -5464.487429200105, 0.0, 0.0, 0.0, 0.0, -2613.3436099700466, 0.0]
['beep', 0.0, -5464.018042566543, 0.0, 0.0, 0.0, 0.0, -2612.8295198475744, 0.0]
['beep', 0.0, -5465.090926300398, 0.0, 0.0, 0.0, 0.0, -2614.1482727704374, 0.0]
['beep', 0.0, -5465.917940845245, 0.0, 0.0, 0.0, 0.0, -2615.6681913933985, 0.0]
['beep', 0.0, -5468.913074602256, 0.0, 0.0, 0.0, 0.0, -2614.640011148454, 0.0]
['beep', 0.0, -5468.242522268596, 0.0, 0.0, 0.0, 0.0, -2613.7682931146974, 0.0]
['beep', 0.0, -5466.074403056432, 0.0, 0.0, 0.0, 0.0, -2612.0919122805494, 0.0]
['beep', 0.0, -5467.169638534741, 0.0, 0.0, 0.0, 0.0, -2612.4048367029236, 0.0]
['beep', 0.0, -5467.996653079588, 0.0, 0.0, 0.0, 0.0, -2613.6341826479656, 0.0]
['beep', 0.0, -5468.734260646613, 0.0, 0.0, 0.0, 0.0, -2613.23185124777, 0.0]
['beep', 0.0, -5468.421336224239, 0.0, 0.0, 0.0, 0.0, -2612.1589675139153, 0.0]
['beep', 0.0, -5467.057879812465, 0.0, 0.0, 0.0, 0.0, -2610.639048890954, 0.0]
['beep', 0.0, -5468.264874013052, 0.0, 0.0, 0.0, 0.0, -2614.7741216151862, 0.0]
['beep', 0.0, -5466.432030967717, 0.0, 0.0, 0.0, 0.0, -2613.254202992225, 0.0]
['beep', 0.0, -5466.029699567521, 0.0, 0.0, 0.0, 0.0, -2612.0472087916387, 0.0]
['beep', 0.0, -5464.420373966739, 0.0, 0.0, 0.0, 0.0, -2612.270726236192, 0.0]
['beep', 0.0, -5464.800353622479, 0.0, 0.0, 0.0, 0.0, -2614.640011148454, 0.0]
['beep', 0.0, -5464.375670477828, 0.0, 0.0, 0.0, 0.0, -2612.7848163586636, 0.0]
['beep', 0.0, -5463.258083255063, 0.0, 0.0, 0.0, 0.0, -2612.2483744917363, 0.0]
['beep', 0.0, -5461.246426254085, 0.0, 0.0, 0.0, 0.0, -2611.711932624809, 0.0]
['beep', 0.0, -5460.46411519815, 0.0, 0.0, 0.0, 0.0, -2612.8965750809402, 0.0]
['beep', 0.0, -5461.469943698638, 0.0, 0.0, 0.0, 0.0, -2612.3377814695577, 0.0]
['beep', 0.0, -5461.469943698638, 0.0, 0.0, 0.0, 0.0, -2611.9578018138172, 0.0]
['beep', 0.0, -5461.067612298442, 0.0, 0.0, 0.0, 0.0, -2611.331952969069, 0.0]
['beep', 0.0, -5460.620577409337, 0.0, 0.0, 0.0, 0.0, -2611.1754907578816, 0.0]
['beep', 0.0, -5461.693461143192, 0.0, 0.0, 0.0, 0.0, -2610.5049384242225, 0.0]
['beep', 0.0, -5463.593359421892, 0.0, 0.0, 0.0, 0.0, -2610.750807613231, 0.0]
['beep', 0.0, -5465.694423400691, 0.0, 0.0, 0.0, 0.0, -2613.0977407810383, 0.0]
['beep', 0.0, -5465.739126889602, 0.0, 0.0, 0.0, 0.0, -2613.0977407810383, 0.0]
['beep', 0.0, -5463.906283844267, 0.0, 0.0, 0.0, 0.0, -2610.9519733133284, 0.0]
['beep', 0.0, -5463.79452512199, 0.0, 0.0, 0.0, 0.0, -2581.2241531877703, 0.0]
['beep', 0.0, -5465.582664678414, 0.0, 0.0, 0.0, 0.0, -2542.332117835536, 0.0]
['beep', 0.0, -5467.057879812465, 0.0, 0.0, 0.0, 0.0, -2564.9520832243065, 0.0]
['beep', 0.0, -5465.381498978317, 0.0, 0.0, 0.0, 0.0, -2610.1696622573927, 0.0]
['beep', 0.0, -5463.79452512199, 0.0, 0.0, 0.0, 0.0, -2613.656534392421, 0.0]
['beep', 0.0, -5464.17450477773, 0.0, 0.0, 0.0, 0.0, -2613.455368692323, 0.0]
['beep', 0.0, -5465.873237356333, 0.0, 0.0, 0.0, 0.0, -2614.7294181262755, 0.0]
['beep', 0.0, -5466.744955390091, 0.0, 0.0, 0.0, 0.0, -2614.3494384705355, 0.0]
['beep', 0.0, -5465.157981533764, 0.0, 0.0, 0.0, 0.0, -2612.673057636387, 0.0]
['beep', 0.0, -5463.839228610901, 0.0, 0.0, 0.0, 0.0, -2611.7342843692645, 0.0]
['beep', 0.0, -5462.27460649903, 0.0, 0.0, 0.0, 0.0, -2612.4495401918343, 0.0]
['beep', 0.0, -5465.761478634057, 0.0, 0.0, 0.0, 0.0, -2611.264897735703, 0.0]
['beep', 0.0, -5466.789658879002, 0.0, 0.0, 0.0, 0.0, -2612.360133214013, 0.0]
['beep', 0.0, -5465.023871067032, 0.0, 0.0, 0.0, 0.0, -2611.4437116913455, 0.0]
['beep', 0.0, -5464.733298389113, 0.0, 0.0, 0.0, 0.0, -2610.2814209796693, 0.0]
['beep', 0.0, -5464.018042566543, 0.0, 0.0, 0.0, 0.0, -2610.549641913133, 0.0]
['beep', 0.0, -5465.873237356333, 0.0, 0.0, 0.0, 0.0, -2611.331952969069, 0.0]
['beep', 0.0, -5467.348452490384, 0.0, 0.0, 0.0, 0.0, -2611.935450069362, 0.0]
['beep', 0.0, -5466.2755687565295, 0.0, 0.0, 0.0, 0.0, -2612.1589675139153, 0.0]
['beep', 0.0, -5463.995690822088, 0.0, 0.0, 0.0, 0.0, -2611.063732035605, 0.0]
['beep', 0.0, -5463.571007677438, 0.0, 0.0, 0.0, 0.0, -2611.5107669247113, 0.0]
['beep', 0.0, -5466.543789689993, 0.0, 0.0, 0.0, 0.0, -2613.0977407810383, 0.0]
['beep', 0.0, -5467.370804234839, 0.0, 0.0, 0.0, 0.0, -2611.711932624809, 0.0]
['beep', 0.0, -5465.60501642287, 0.0, 0.0, 0.0, 0.0, -2611.264897735703, 0.0]
['beep', 0.0, -5463.682766399714, 0.0, 0.0, 0.0, 0.0, -2613.030685547672, 0.0]
['beep', 0.0, -5464.8897606003, 0.0, 0.0, 0.0, 0.0, -2612.5389471696553, 0.0]
['beep', 0.0, -5466.9237693457335, 0.0, 0.0, 0.0, 0.0, -2613.5671274145993, 0.0]
['beep', 0.0, -5466.543789689993, 0.0, 0.0, 0.0, 0.0, -2614.282383237169, 0.0]
['beep', 0.0, -5464.643891411292, 0.0, 0.0, 0.0, 0.0, -2614.1259210259823, 0.0]
['beep', 0.0, -5463.1686762772415, 0.0, 0.0, 0.0, 0.0, -2614.1482727704374, 0.0]
['beep', 0.0, -5463.258083255063, 0.0, 0.0, 0.0, 0.0, -2582.945237510829, 0.0]
['beep', 0.0, -5465.9849960786105, 0.0, 0.0, 0.0, 0.0, -2541.1921788683153, 0.0]
['beep', 0.0, -5466.521437945537, 0.0, 0.0, 0.0, 0.0, -2569.355376882002, 0.0]
['beep', 0.0, -5464.599187922381, 0.0, 0.0, 0.0, 0.0, -2611.6672291358987, 0.0]
['beep', 0.0, -5462.431068710216, 0.0, 0.0, 0.0, 0.0, -2613.5000721812335, 0.0]
['beep', 0.0, -5463.861580355356, 0.0, 0.0, 0.0, 0.0, -2613.254202992225, 0.0]
['beep', 0.0, -5465.806182122968, 0.0, 0.0, 0.0, 0.0, -2614.885880337463, 0.0]
['beep', 0.0, -5466.253217012074, 0.0, 0.0, 0.0, 0.0, -2614.1259210259823, 0.0]
['beep', 0.0, -5465.269740256041, 0.0, 0.0, 0.0, 0.0, -2612.1589675139153, 0.0]
['beep', 0.0, -5464.062746055454, 0.0, 0.0, 0.0, 0.0, -2611.0190285466947, 0.0]
['beep', 0.0, -5463.705118144169, 0.0, 0.0, 0.0, 0.0, -2611.1531390134264, 0.0]
['beep', 0.0, -5466.096754800887, 0.0, 0.0, 0.0, 0.0, -2612.8295198475744, 0.0]
['beep', 0.0, -5467.1025833013755, 0.0, 0.0, 0.0, 0.0, -2614.170624514893, 0.0]
['beep', 0.0, -5466.074403056432, 0.0, 0.0, 0.0, 0.0, -2613.0977407810383, 0.0]
['beep', 0.0, -5464.532132689015, 0.0, 0.0, 0.0, 0.0, -2612.7848163586636, 0.0]
['beep', 0.0, -5464.12980128882, 0.0, 0.0, 0.0, 0.0, -2613.522423925689, 0.0]
['beep', 0.0, -5464.487429200105, 0.0, 0.0, 0.0, 0.0, -2614.7070663818204, 0.0]
['beep', 0.0, -5465.023871067032, 0.0, 0.0, 0.0, 0.0, -2613.8577000925184, 0.0]
['beep', 0.0, -5464.93446408921, 0.0, 0.0, 0.0, 0.0, -2612.1589675139153, 0.0]
['beep', 0.0, -5463.973339077633, 0.0, 0.0, 0.0, 0.0, -2610.5272901686776, 0.0]
['beep', 0.0, -5463.056917554965, 0.0, 0.0, 0.0, 0.0, -2611.3990082024347, 0.0]
['beep', 0.0, -5463.347490232884, 0.0, 0.0, 0.0, 0.0, -2613.3659617145017, 0.0]
['beep', 0.0, -5465.180333278219, 0.0, 0.0, 0.0, 0.0, -2613.969458814795, 0.0]
['beep', 0.0, -5462.676937899225, 0.0, 0.0, 0.0, 0.0, -2612.9859820587617, 0.0]
['beep', 0.0, -5459.771211120035, 0.0, 0.0, 0.0, 0.0, -2612.293077980647, 0.0]
['beep', 0.0, -5458.9889000641, 0.0, 0.0, 0.0, 0.0, -2612.8965750809402, 0.0]
['beep', 0.0, -5458.385402963806, 0.0, 0.0, 0.0, 0.0, -2612.8965750809402, 0.0]
['beep', 0.0, -5460.955853576166, 0.0, 0.0, 0.0, 0.0, -2613.2094995033144, 0.0]
['beep', 0.0, -5461.179371020719, 0.0, 0.0, 0.0, 0.0, -2613.164796014404, 0.0]
['beep', 0.0, -5459.100658786376, 0.0, 0.0, 0.0, 0.0, -2612.002505302728, 0.0]
['beep', 0.0, -5460.330004731418, 0.0, 0.0, 0.0, 0.0, -2578.6984060643204, 0.0]
['beep', 0.0, -5461.179371020719, 0.0, 0.0, 0.0, 0.0, -2538.331155578036, 0.0]
['beep', 0.0, -5462.475772199127, 0.0, 0.0, 0.0, 0.0, -2558.6935947768206, 0.0]
['beep', 0.0, -5463.123972788331, 0.0, 0.0, 0.0, 0.0, -2606.392217444446, 0.0]
['beep', 0.0, -5461.9393303321995, 0.0, 0.0, 0.0, 0.0, -2610.70610412432, 0.0]
['beep', 0.0, -5461.738164632102, 0.0, 0.0, 0.0, 0.0, -2612.2483744917363, 0.0]
['beep', 0.0, -5464.442725711194, 0.0, 0.0, 0.0, 0.0, -2614.0141623037057, 0.0]
['beep', 0.0, -5464.666243155747, 0.0, 0.0, 0.0, 0.0, -2612.7848163586636, 0.0]
['beep', 0.0, -5462.766344877046, 0.0, 0.0, 0.0, 0.0, -2612.4271884473787, 0.0]
['beep', 0.0, -5460.84409485389, 0.0, 0.0, 0.0, 0.0, -2612.360133214013, 0.0]
['beep', 0.0, -5461.067612298442, 0.0, 0.0, 0.0, 0.0, -2612.5165954252, 0.0]
['beep', 0.0, -5462.36401347685, 0.0, 0.0, 0.0, 0.0, -2613.388313458957, 0.0]
['beep', 0.0, -5464.84505711139, 0.0, 0.0, 0.0, 0.0, -2614.4164937039013, 0.0]
['beep', 0.0, -5463.682766399714, 0.0, 0.0, 0.0, 0.0, -2613.23185124777, 0.0]
['beep', 0.0, -5461.827571609923, 0.0, 0.0, 0.0, 0.0, -2611.778987858175, 0.0]
['beep', 0.0, -5462.408716965761, 0.0, 0.0, 0.0, 0.0, -2609.8790895794737, 0.0]
['beep', 0.0, -5463.369841977339, 0.0, 0.0, 0.0, 0.0, -2611.2425459912474, 0.0]
['beep', 0.0, -5465.9849960786105, 0.0, 0.0, 0.0, 0.0, -2612.1813192583704, 0.0]
['beep', 0.0, -5464.487429200105, 0.0, 0.0, 0.0, 0.0, -2611.3990082024347, 0.0]
['beep', 0.0, -5464.040394310999, 0.0, 0.0, 0.0, 0.0, -2612.0919122805494, 0.0]
['beep', 0.0, -5463.660414655258, 0.0, 0.0, 0.0, 0.0, -2612.5165954252, 0.0]
['beep', 0.0, -5464.621539666837, 0.0, 0.0, 0.0, 0.0, -2612.0472087916387, 0.0]
['beep', 0.0, -5466.677900156725, 0.0, 0.0, 0.0, 0.0, -2612.7401128697534, 0.0]
['beep', 0.0, -5465.135629789309, 0.0, 0.0, 0.0, 0.0, -2614.0588657926164, 0.0]
['beep', 0.0, -5463.03456581051, 0.0, 0.0, 0.0, 0.0, -2612.226022747281, 0.0]
['beep', 0.0, -5463.995690822088, 0.0, 0.0, 0.0, 0.0, -2612.1142640250046, 0.0]
['beep', 0.0, -5466.32027224544, 0.0, 0.0, 0.0, 0.0, -2613.388313458957, 0.0]
['beep', 0.0, -5466.610844923359, 0.0, 0.0, 0.0, 0.0, -2614.483548937267, 0.0]
['beep', 0.0, -5463.816876866445, 0.0, 0.0, 0.0, 0.0, -2613.745941370242, 0.0]
['beep', 0.0, -5463.861580355356, 0.0, 0.0, 0.0, 0.0, -2610.102607024027, 0.0]
['beep', 0.0, -5462.833400110412, 0.0, 0.0, 0.0, 0.0, -2579.5477723536223, 0.0]
['beep', 0.0, -5463.347490232884, 0.0, 0.0, 0.0, 0.0, -2538.845245700508, 0.0]
['beep', 0.0, -5465.113278044853, 0.0, 0.0, 0.0, 0.0, -2562.225170400759, 0.0]
['beep', 0.0, -5463.705118144169, 0.0, 0.0, 0.0, 0.0, -2607.8674325784964, 0.0]
['beep', 0.0, -5461.22407450963, 0.0, 0.0, 0.0, 0.0, -2610.057903535116, 0.0]
['beep', 0.0, -5460.754687876069, 0.0, 0.0, 0.0, 0.0, -2609.8343860905634, 0.0]
['beep', 0.0, -5462.073440798931, 0.0, 0.0, 0.0, 0.0, -2610.616697146499, 0.0]
['beep', 0.0, -5463.883932099811, 0.0, 0.0, 0.0, 0.0, -2611.6001739025323, 0.0]
['beep', 0.0, -5464.018042566543, 0.0, 0.0, 0.0, 0.0, -2611.1084355245157, 0.0]
['beep', 0.0, -5462.140496032298, 0.0, 0.0, 0.0, 0.0, -2609.700275623831, 0.0]
['beep', 0.0, -5462.475772199127, 0.0, 0.0, 0.0, 0.0, -2608.716798867798, 0.0]
['beep', 0.0, -5464.353318733373, 0.0, 0.0, 0.0, 0.0, -2609.9014413239292, 0.0]
['beep', 0.0, -5466.186161778708, 0.0, 0.0, 0.0, 0.0, -2610.393179701946, 0.0]
['beep', 0.0, -5465.359147233862, 0.0, 0.0, 0.0, 0.0, -2610.8178628465967, 0.0]
['beep', 0.0, -5463.302786743973, 0.0, 0.0, 0.0, 0.0, -2610.8402145910522, 0.0]
['beep', 0.0, -5464.599187922381, 0.0, 0.0, 0.0, 0.0, -2612.293077980647, 0.0]
['beep', 0.0, -5466.208513523164, 0.0, 0.0, 0.0, 0.0, -2614.170624514893, 0.0]
['beep', 0.0, -5466.9237693457335, 0.0, 0.0, 0.0, 0.0, -2615.3552669710243, 0.0]
['beep', 0.0, -5464.12980128882, 0.0, 0.0, 0.0, 0.0, -2614.7517698707306, 0.0]
['beep', 0.0, -5463.727469888624, 0.0, 0.0, 0.0, 0.0, -2612.5389471696553, 0.0]
['beep', 0.0, -5464.532132689015, 0.0, 0.0, 0.0, 0.0, -2611.577822158077, 0.0]
['beep', 0.0, -5465.023871067032, 0.0, 0.0, 0.0, 0.0, -2613.1871477588593, 0.0]
['beep', 0.0, -5466.342623989895, 0.0, 0.0, 0.0, 0.0, -2612.963630314306, 0.0]
['beep', 0.0, -5465.135629789309, 0.0, 0.0, 0.0, 0.0, -2612.2483744917363, 0.0]
['beep', 0.0, -5462.542827432493, 0.0, 0.0, 0.0, 0.0, -2611.9578018138172, 0.0]
['beep', 0.0, -5462.27460649903, 0.0, 0.0, 0.0, 0.0, -2613.969458814795, 0.0]
['beep', 0.0, -5465.068574555943, 0.0, 0.0, 0.0, 0.0, -2613.880051836974, 0.0]
['beep', 0.0, -5466.2755687565295, 0.0, 0.0, 0.0, 0.0, -2614.617659403999, 0.0]
['beep', 0.0, -5465.716775145147, 0.0, 0.0, 0.0, 0.0, -2614.3717902149906, 0.0]
['beep', 0.0, -5464.152153033275, 0.0, 0.0, 0.0, 0.0, -2613.0753890365827, 0.0]
['beep', 0.0, -5463.973339077633, 0.0, 0.0, 0.0, 0.0, -2589.807223058608, 0.0]
['beep', 0.0, -5466.655548412269, 0.0, 0.0, 0.0, 0.0, -2544.0755539030497, 0.0]
['beep', 0.0, -5467.929597846222, 0.0, 0.0, 0.0, 0.0, -2558.6935947768206, 0.0]
['beep', 0.0, -5467.41550772375, 0.0, 0.0, 0.0, 0.0, -2605.0511127771274, 0.0]
['beep', 0.0, -5464.778001878024, 0.0, 0.0, 0.0, 0.0, -2610.9519733133284, 0.0]
['beep', 0.0, -5465.314443744951, 0.0, 0.0, 0.0, 0.0, -2612.226022747281, 0.0]
['beep', 0.0, -5467.996653079588, 0.0, 0.0, 0.0, 0.0, -2613.254202992225, 0.0]
['beep', 0.0, -5467.594321679392, 0.0, 0.0, 0.0, 0.0, -2613.1424442699486, 0.0]
['beep', 0.0, -5465.9849960786105, 0.0, 0.0, 0.0, 0.0, -2612.561298914111, 0.0]
['beep', 0.0, -5464.375670477828, 0.0, 0.0, 0.0, 0.0, -2612.650705891932, 0.0]
['beep', 0.0, -5464.912112344756, 0.0, 0.0, 0.0, 0.0, -2612.7401128697534, 0.0]
['beep', 0.0, -5466.32027224544, 0.0, 0.0, 0.0, 0.0, -2613.8577000925184, 0.0]
['beep', 0.0, -5467.482562957116, 0.0, 0.0, 0.0, 0.0, -2614.4388454483565, 0.0]
['beep', 0.0, -5466.812010623456, 0.0, 0.0, 0.0, 0.0, -2614.237679748259, 0.0]
['beep', 0.0, -5464.621539666837, 0.0, 0.0, 0.0, 0.0, -2614.2153280038033, 0.0]
['beep', 0.0, -5464.755650133568, 0.0, 0.0, 0.0, 0.0, -2614.1035692815267, 0.0]
['beep', 0.0, -5465.649719911781, 0.0, 0.0, 0.0, 0.0, -2616.204633260326, 0.0]
['beep', 0.0, -5468.734260646613, 0.0, 0.0, 0.0, 0.0, -2616.0258193046834, 0.0]
['beep', 0.0, -5467.504914701572, 0.0, 0.0, 0.0, 0.0, -2615.131749526471, 0.0]
['beep', 0.0, -5464.979167578122, 0.0, 0.0, 0.0, 0.0, -2614.6623628929096, 0.0]
['beep', 0.0, -5466.2755687565295, 0.0, 0.0, 0.0, 0.0, -2613.6341826479656, 0.0]
['beep', 0.0, -5467.236693768107, 0.0, 0.0, 0.0, 0.0, -2614.237679748259, 0.0]
['beep', 0.0, -5468.264874013052, 0.0, 0.0, 0.0, 0.0, -2613.522423925689, 0.0]
['beep', 0.0, -5468.3319292464175, 0.0, 0.0, 0.0, 0.0, -2613.7906448591525, 0.0]
['beep', 0.0, -5467.370804234839, 0.0, 0.0, 0.0, 0.0, -2613.812996603608, 0.0]
['beep', 0.0, -5467.504914701572, 0.0, 0.0, 0.0, 0.0, -2613.1424442699486, 0.0]
['beep', 0.0, -5468.555446690971, 0.0, 0.0, 0.0, 0.0, -2614.170624514893, 0.0]
['beep', 0.0, -5470.589455436404, 0.0, 0.0, 0.0, 0.0, -2613.7906448591525, 0.0]
['beep', 0.0, -5468.220170524141, 0.0, 0.0, 0.0, 0.0, -2613.6341826479656, 0.0]
['beep', 0.0, -5465.895589100789, 0.0, 0.0, 0.0, 0.0, -2612.5165954252, 0.0]
['beep', 0.0, -5465.9849960786105, 0.0, 0.0, 0.0, 0.0, -2587.4155864018903, 0.0]
['beep', 0.0, -5469.1589437912635, 0.0, 0.0, 0.0, 0.0, -2541.5721585240553, 0.0]
['beep', 0.0, -5470.835324625412, 0.0, 0.0, 0.0, 0.0, -2556.7936964981195, 0.0]
['beep', 0.0, -5468.398984479783, 0.0, 0.0, 0.0, 0.0, -2606.5263279111778, 0.0]
['beep', 0.0, -5467.281397257018, 0.0, 0.0, 0.0, 0.0, -2613.23185124777, 0.0]
['beep', 0.0, -5468.264874013052, 0.0, 0.0, 0.0, 0.0, -2613.388313458957, 0.0]
['beep', 0.0, -5469.98595833611, 0.0, 0.0, 0.0, 0.0, -2615.3105634821136, 0.0]
['beep', 0.0, -5471.684690914713, 0.0, 0.0, 0.0, 0.0, -2615.131749526471, 0.0]
['beep', 0.0, -5469.337757746906, 0.0, 0.0, 0.0, 0.0, -2615.7352466267644, 0.0]
['beep', 0.0, -5467.616673423848, 0.0, 0.0, 0.0, 0.0, -2615.556432671122, 0.0]
['beep', 0.0, -5467.817839123945, 0.0, 0.0, 0.0, 0.0, -2615.847005349041, 0.0]
['beep', 0.0, -5469.784792636013, 0.0, 0.0, 0.0, 0.0, -2616.003467560228, 0.0]
['beep', 0.0, -5470.589455436404, 0.0, 0.0, 0.0, 0.0, -2615.779950115675, 0.0]
['beep', 0.0, -5469.293054257996, 0.0, 0.0, 0.0, 0.0, -2615.2435082487477, 0.0]
['beep', 0.0, -5466.2755687565295, 0.0, 0.0, 0.0, 0.0, -2613.2765547366807, 0.0]
['beep', 0.0, -5466.499086201083, 0.0, 0.0, 0.0, 0.0, -2613.5671274145993, 0.0]
['beep', 0.0, -5468.063708312954, 0.0, 0.0, 0.0, 0.0, -2615.131749526471, 0.0]
['beep', 0.0, -5468.622501924337, 0.0, 0.0, 0.0, 0.0, -2616.9198890828957, 0.0]
['beep', 0.0, -5468.242522268596, 0.0, 0.0, 0.0, 0.0, -2615.1764530153814, 0.0]
['beep', 0.0, -5466.767307134546, 0.0, 0.0, 0.0, 0.0, -2614.3047349816247, 0.0]
['beep', 0.0, -5467.191990279197, 0.0, 0.0, 0.0, 0.0, -2614.1482727704374, 0.0]
['beep', 0.0, -5468.51074320206, 0.0, 0.0, 0.0, 0.0, -2616.3834472159683, 0.0]
['beep', 0.0, -5469.427164724728, 0.0, 0.0, 0.0, 0.0, -2617.2998687386357, 0.0]
['beep', 0.0, -5469.784792636013, 0.0, 0.0, 0.0, 0.0, -2617.143406527449, 0.0]
['beep', 0.0, -5468.17546703523, 0.0, 0.0, 0.0, 0.0, -2616.4057989604235, 0.0]
['beep', 0.0, -5467.728432146124, 0.0, 0.0, 0.0, 0.0, -2615.6905431378536, 0.0]
['beep', 0.0, -5469.851847869379, 0.0, 0.0, 0.0, 0.0, -2614.975287315284, 0.0]
['beep', 0.0, -5471.349414747884, 0.0, 0.0, 0.0, 0.0, -2614.975287315284, 0.0]
['beep', 0.0, -5470.880028114322, 0.0, 0.0, 0.0, 0.0, -2615.6905431378536, 0.0]
['beep', 0.0, -5468.935426346711, 0.0, 0.0, 0.0, 0.0, -2615.511729182211, 0.0]
['beep', 0.0, -5469.695385658191, 0.0, 0.0, 0.0, 0.0, -2583.7722520556754, 0.0]
['beep', 0.0, -5471.438821725706, 0.0, 0.0, 0.0, 0.0, -2541.4156963128685, 0.0]
['beep', 0.0, -5471.528228703526, 0.0, 0.0, 0.0, 0.0, -2555.005556941695, 0.0]
['beep', 0.0, -5469.315406002451, 0.0, 0.0, 0.0, 0.0, -2605.676961621876, 0.0]
['beep', 0.0, -5467.996653079588, 0.0, 0.0, 0.0, 0.0, -2615.3105634821136, 0.0]
['beep', 0.0, -5465.9849960786105, 0.0, 0.0, 0.0, 0.0, -2615.3105634821136, 0.0]
['beep', 0.0, -5465.537961189504, 0.0, 0.0, 0.0, 0.0, -2614.997639059739, 0.0]
['beep', 0.0, -5466.812010623456, 0.0, 0.0, 0.0, 0.0, -2616.6293164049766, 0.0]
['beep', 0.0, -5465.739126889602, 0.0, 0.0, 0.0, 0.0, -2616.294040238147, 0.0]
['beep', 0.0, -5465.269740256041, 0.0, 0.0, 0.0, 0.0, -2615.8023018601302, 0.0]
['beep', 0.0, -5467.750783890579, 0.0, 0.0, 0.0, 0.0, -2614.908232081918, 0.0]
['beep', 0.0, -5470.3882897363055, 0.0, 0.0, 0.0, 0.0, -2615.7575983712195, 0.0]
['beep', 0.0, -5472.310539759462, 0.0, 0.0, 0.0, 0.0, -2616.0481710491385, 0.0]
['beep', 0.0, -5471.7964496369905, 0.0, 0.0, 0.0, 0.0, -2614.617659403999, 0.0]
['beep', 0.0, -5471.081193814421, 0.0, 0.0, 0.0, 0.0, -2615.1764530153814, 0.0]
['beep', 0.0, -5470.790621136502, 0.0, 0.0, 0.0, 0.0, -2615.288211737658, 0.0]
['beep', 0.0, -5472.019967081544, 0.0, 0.0, 0.0, 0.0, -2615.7575983712195, 0.0]
['beep', 0.0, -5471.707042659169, 0.0, 0.0, 0.0, 0.0, -2616.85283384953, 0.0]
['beep', 0.0, -5471.282359514518, 0.0, 0.0, 0.0, 0.0, -2616.4057989604235, 0.0]
['beep', 0.0, -5469.60597868037, 0.0, 0.0, 0.0, 0.0, -2615.3105634821136, 0.0]
['beep', 0.0, -5469.717737402647, 0.0, 0.0, 0.0, 0.0, -2616.2493367492366, 0.0]
['beep', 0.0, -5471.7964496369905, 0.0, 0.0, 0.0, 0.0, -2618.7303803837754, 0.0]
['beep', 0.0, -5473.450478726683, 0.0, 0.0, 0.0, 0.0, -2618.775083872686, 0.0]
['beep', 0.0, -5473.696347915691, 0.0, 0.0, 0.0, 0.0, -2616.6516681494318, 0.0]
['beep', 0.0, -5471.058842069965, 0.0, 0.0, 0.0, 0.0, -2615.8023018601302, 0.0]
['beep', 0.0, -5470.500048458583, 0.0, 0.0, 0.0, 0.0, -2604.805243588119, 0.0]
['beep', 0.0, -5472.623464181836, 0.0, 0.0, 0.0, 0.0, -2556.4807720757453, 0.0]
['beep', 0.0, -5473.875161871334, 0.0, 0.0, 0.0, 0.0, -2562.6722052898654, 0.0]
['beep', 0.0, -5473.070499070943, 0.0, 0.0, 0.0, 0.0, -2610.2814209796693, 0.0]
['beep', 0.0, -5470.120068802842, 0.0, 0.0, 0.0, 0.0, -2618.193938516848, 0.0]
['beep', 0.0, -5471.058842069965, 0.0, 0.0, 0.0, 0.0, -2618.3056972391246, 0.0]
['beep', 0.0, -5472.601112437381, 0.0, 0.0, 0.0, 0.0, -2619.110360039516, 0.0]
['beep', 0.0, -5473.2046095376745, 0.0, 0.0, 0.0, 0.0, -2620.362057729013, 0.0]
['beep', 0.0, -5473.2046095376745, 0.0, 0.0, 0.0, 0.0, -2620.2726507511916, 0.0]
['beep', 0.0, -5470.298882758485, 0.0, 0.0, 0.0, 0.0, -2619.3115257396134, 0.0]
['beep', 0.0, -5469.762440891557, 0.0, 0.0, 0.0, 0.0, -2620.295002495647, 0.0]
['beep', 0.0, -5471.505876959071, 0.0, 0.0, 0.0, 0.0, -2620.429112962379, 0.0]
['beep', 0.0, -5473.070499070943, 0.0, 0.0, 0.0, 0.0, -2620.4738164512896, 0.0]
['beep', 0.0, -5472.9140368597555, 0.0, 0.0, 0.0, 0.0, -2618.9538978283285, 0.0]
['beep', 0.0, -5472.17642929273, 0.0, 0.0, 0.0, 0.0, -2616.428150704879, 0.0]
['beep', 0.0, -5471.617635681348, 0.0, 0.0, 0.0, 0.0, -2616.428150704879, 0.0]
['beep', 0.0, -5473.338720004406, 0.0, 0.0, 0.0, 0.0, -2616.3834472159683, 0.0]
['beep', 0.0, -5474.478658971627, 0.0, 0.0, 0.0, 0.0, -2617.4116274609123, 0.0]
['beep', 0.0, -5473.562237448959, 0.0, 0.0, 0.0, 0.0, -2618.5739181725885, 0.0]
['beep', 0.0, -5470.8576763698675, 0.0, 0.0, 0.0, 0.0, -2617.6574966499206, 0.0]
['beep', 0.0, -5470.32123450294, 0.0, 0.0, 0.0, 0.0, -2617.769255372197, 0.0]
['beep', 0.0, -5470.969435092144, 0.0, 0.0, 0.0, 0.0, -2619.3785809729793, 0.0]
['beep', 0.0, -5472.310539759462, 0.0, 0.0, 0.0, 0.0, -2620.13854028446, 0.0]
['beep', 0.0, -5472.019967081544, 0.0, 0.0, 0.0, 0.0, -2619.2221187617924, 0.0]
['beep', 0.0, -5471.014138581055, 0.0, 0.0, 0.0, 0.0, -2617.456330949823, 0.0]
['beep', 0.0, -5470.8576763698675, 0.0, 0.0, 0.0, 0.0, -2604.8275953325747, 0.0]
['beep', 0.0, -5472.534057204015, 0.0, 0.0, 0.0, 0.0, -2555.8325714865414, 0.0]
['beep', 0.0, -5473.428126982228, 0.0, 0.0, 0.0, 0.0, -2558.514780821178, 0.0]
['beep', 0.0, -5471.41646998125, 0.0, 0.0, 0.0, 0.0, -2607.75567385622, 0.0]
['beep', 0.0, -5469.002481580077, 0.0, 0.0, 0.0, 0.0, -2617.2104617608147, 0.0]
['beep', 0.0, -5468.84601936889, 0.0, 0.0, 0.0, 0.0, -2616.204633260326, 0.0]
['beep', 0.0, -5469.471868213638, 0.0, 0.0, 0.0, 0.0, -2616.226985004781, 0.0]
['beep', 0.0, -5470.164772291752, 0.0, 0.0, 0.0, 0.0, -2615.511729182211, 0.0]
['beep', 0.0, -5470.589455436404, 0.0, 0.0, 0.0, 0.0, -2615.288211737658, 0.0]
['beep', 0.0, -5469.382461235817, 0.0, 0.0, 0.0, 0.0, -2616.5175576827, 0.0]
['beep', 0.0, -5468.913074602256, 0.0, 0.0, 0.0, 0.0, -2616.428150704879, 0.0]
['beep', 0.0, -5471.0364903255095, 0.0, 0.0, 0.0, 0.0, -2618.193938516848, 0.0]
['beep', 0.0, -5474.277493271529, 0.0, 0.0, 0.0, 0.0, -2618.7303803837754, 0.0]
['beep', 0.0, -5473.025795582032, 0.0, 0.0, 0.0, 0.0, -2617.5010344387338, 0.0]
['beep', 0.0, -5469.60597868037, 0.0, 0.0, 0.0, 0.0, -2615.847005349041, 0.0]
['beep', 0.0, -5468.51074320206, 0.0, 0.0, 0.0, 0.0, -2615.9811158157727, 0.0]
['beep', 0.0, -5469.494219958094, 0.0, 0.0, 0.0, 0.0, -2615.288211737658, 0.0]
['beep', 0.0, -5470.432993225217, 0.0, 0.0, 0.0, 0.0, -2614.3047349816247, 0.0]
['beep', 0.0, -5469.114240302353, 0.0, 0.0, 0.0, 0.0, -2613.544775670144, 0.0]
['beep', 0.0, -5467.706080401669, 0.0, 0.0, 0.0, 0.0, -2614.0141623037057, 0.0]
['beep', 0.0, -5468.3319292464175, 0.0, 0.0, 0.0, 0.0, -2614.975287315284, 0.0]
['beep', 0.0, -5470.298882758485, 0.0, 0.0, 0.0, 0.0, -2616.6069646605215, 0.0]
['beep', 0.0, -5472.84698162639, 0.0, 0.0, 0.0, 0.0, -2616.9645925718064, 0.0]
['beep', 0.0, -5471.438821725706, 0.0, 0.0, 0.0, 0.0, -2615.3776187154795, 0.0]
['beep', 0.0, -5469.807144380467, 0.0, 0.0, 0.0, 0.0, -2614.260031492714, 0.0]
['beep', 0.0, -5470.455344969671, 0.0, 0.0, 0.0, 0.0, -2601.854813320019, 0.0]
['beep', 0.0, -5471.058842069965, 0.0, 0.0, 0.0, 0.0, -2550.445801072812, 0.0]
['beep', 0.0, -5473.070499070943, 0.0, 0.0, 0.0, 0.0, -2552.5021615627006, 0.0]
['beep', 0.0, -5472.623464181836, 0.0, 0.0, 0.0, 0.0, -2603.3300284540687, 0.0]
['beep', 0.0, -5469.829496124923, 0.0, 0.0, 0.0, 0.0, -2614.1035692815267, 0.0]
['beep', 0.0, -5469.047185068987, 0.0, 0.0, 0.0, 0.0, -2613.7682931146974, 0.0]
['beep', 0.0, -5472.802278137479, 0.0, 0.0, 0.0, 0.0, -2616.5622611716108, 0.0]
['beep', 0.0, -5472.869333370845, 0.0, 0.0, 0.0, 0.0, -2616.9645925718064, 0.0]
['beep', 0.0, -5471.237656025607, 0.0, 0.0, 0.0, 0.0, -2614.8635285930072, 0.0]
['beep', 0.0, -5471.550580447982, 0.0, 0.0, 0.0, 0.0, -2616.0258193046834, 0.0]
['beep', 0.0, -5471.192952536697, 0.0, 0.0, 0.0, 0.0, -2615.914060582407, 0.0]
['beep', 0.0, -5472.467001970649, 0.0, 0.0, 0.0, 0.0, -2616.584612916066, 0.0]
['beep', 0.0, -5474.277493271529, 0.0, 0.0, 0.0, 0.0, -2617.5904414165548, 0.0]
['beep', 0.0, -5472.690519415202, 0.0, 0.0, 0.0, 0.0, -2616.0928745380493, 0.0]
['beep', 0.0, -5471.7964496369905, 0.0, 0.0, 0.0, 0.0, -2614.975287315284, 0.0]
['beep', 0.0, -5471.7964496369905, 0.0, 0.0, 0.0, 0.0, -2614.684714637365, 0.0]
['beep', 0.0, -5473.361071748862, 0.0, 0.0, 0.0, 0.0, -2615.1093977820155, 0.0]
['beep', 0.0, -5473.428126982228, 0.0, 0.0, 0.0, 0.0, -2615.623487904488, 0.0]
['beep', 0.0, -5473.27166477104, 0.0, 0.0, 0.0, 0.0, -2616.875185593985, 0.0]
['beep', 0.0, -5471.438821725706, 0.0, 0.0, 0.0, 0.0, -2614.595307659544, 0.0]
['beep', 0.0, -5470.70121415868, 0.0, 0.0, 0.0, 0.0, -2614.1482727704374, 0.0]
['beep', 0.0, -5471.774097892535, 0.0, 0.0, 0.0, 0.0, -2614.170624514893, 0.0]
['beep', 0.0, -5472.310539759462, 0.0, 0.0, 0.0, 0.0, -2615.914060582407, 0.0]
['beep', 0.0, -5471.751746148079, 0.0, 0.0, 0.0, 0.0, -2615.534080926667, 0.0]
['beep', 0.0, -5468.019004824043, 0.0, 0.0, 0.0, 0.0, -2613.678886136876, 0.0]
['beep', 0.0, -5465.716775145147, 0.0, 0.0, 0.0, 0.0, -2604.8946505659405, 0.0]
['beep', 0.0, -5467.549618190482, 0.0, 0.0, 0.0, 0.0, -2556.1231441644604, 0.0]
['beep', 0.0, -5469.60597868037, 0.0, 0.0, 0.0, 0.0, -2558.64889128791, 0.0]
['beep', 0.0, -5470.365937991851, 0.0, 0.0, 0.0, 0.0, -2607.9344878118623, 0.0]
['beep', 0.0, -5469.494219958094, 0.0, 0.0, 0.0, 0.0, -2616.294040238147, 0.0]
['beep', 0.0, -5470.053013569476, 0.0, 0.0, 0.0, 0.0, -2615.42232220439, 0.0]
['beep', 0.0, -5471.41646998125, 0.0, 0.0, 0.0, 0.0, -2617.0763512940825, 0.0]
['beep', 0.0, -5472.467001970649, 0.0, 0.0, 0.0, 0.0, -2618.104531539027, 0.0]
['beep', 0.0, -5471.528228703526, 0.0, 0.0, 0.0, 0.0, -2615.2435082487477, 0.0]
['beep', 0.0, -5469.114240302353, 0.0, 0.0, 0.0, 0.0, -2614.640011148454, 0.0]
['beep', 0.0, -5469.516571702549, 0.0, 0.0, 0.0, 0.0, -2616.1822815158703, 0.0]
['beep', 0.0, -5471.349414747884, 0.0, 0.0, 0.0, 0.0, -2617.836310605563, 0.0]
['beep', 0.0, -5472.243484526096, 0.0, 0.0, 0.0, 0.0, -2618.6409734059544, 0.0]
['beep', 0.0, -5470.343586247395, 0.0, 0.0, 0.0, 0.0, -2617.836310605563, 0.0]
['beep', 0.0, -5468.0413565684985, 0.0, 0.0, 0.0, 0.0, -2617.5904414165548, 0.0]
['beep', 0.0, -5468.17546703523, 0.0, 0.0, 0.0, 0.0, -2618.2833454946694, 0.0]
['beep', 0.0, -5470.3882897363055, 0.0, 0.0, 0.0, 0.0, -2618.3056972391246, 0.0]
['beep', 0.0, -5471.058842069965, 0.0, 0.0, 0.0, 0.0, -2617.6574966499206, 0.0]
['beep', 0.0, -5470.567103691948, 0.0, 0.0, 0.0, 0.0, -2618.037476305661, 0.0]
['beep', 0.0, -5467.840190868401, 0.0, 0.0, 0.0, 0.0, -2618.4398077058563, 0.0]
['beep', 0.0, -5466.946121090188, 0.0, 0.0, 0.0, 0.0, -2619.713857139809, 0.0]
['beep', 0.0, -5467.795487379491, 0.0, 0.0, 0.0, 0.0, -2620.004429817728, 0.0]
['beep', 0.0, -5469.650682169281, 0.0, 0.0, 0.0, 0.0, -2620.3397059845574, 0.0]
['beep', 0.0, -5468.644853668792, 0.0, 0.0, 0.0, 0.0, -2619.780912373175, 0.0]
['beep', 0.0, -5466.968472834644, 0.0, 0.0, 0.0, 0.0, -2618.775083872686, 0.0]
['beep', 0.0, -5467.974301335133, 0.0, 0.0, 0.0, 0.0, -2607.3086389671134, 0.0]
['beep', 0.0, -5470.053013569476, 0.0, 0.0, 0.0, 0.0, -2555.676109275354, 0.0]
['beep', 0.0, -5472.13172580382, 0.0, 0.0, 0.0, 0.0, -2556.0784406755497, 0.0]
['beep', 0.0, -5470.74591764759, 0.0, 0.0, 0.0, 0.0, -2605.9675342997953, 0.0]
['beep', 0.0, -5469.2707025135405, 0.0, 0.0, 0.0, 0.0, -2615.578784415577, 0.0]
['beep', 0.0, -5469.4495164691825, 0.0, 0.0, 0.0, 0.0, -2613.254202992225, 0.0]
['beep', 0.0, -5470.611807180859, 0.0, 0.0, 0.0, 0.0, -2608.672095378887, 0.0]
['beep', 0.0, -5471.952911848177, 0.0, 0.0, 0.0, 0.0, -2605.5652028995996, 0.0]
['beep', 0.0, -5471.125897303331, 0.0, 0.0, 0.0, 0.0, -2601.94422029784, 0.0]
['beep', 0.0, -5468.466039713149, 0.0, 0.0, 0.0, 0.0, -2595.8198423170857, 0.0]
['beep', 0.0, -5469.494219958094, 0.0, 0.0, 0.0, 0.0, -2590.0530922476164, 0.0]
['beep', 0.0, -5475.0821560719205, 0.0, 0.0, 0.0, 0.0, -2584.0181212446837, 0.0]
['beep', 0.0, -5475.618597938847, 0.0, 0.0, 0.0, 0.0, -2577.6925775638315, 0.0]
['beep', 0.0, -5468.935426346711, 0.0, 0.0, 0.0, 0.0, -2570.5400193381333, 0.0]
['beep', 0.0, -5464.17450477773, 0.0, 0.0, 0.0, 0.0, -2563.432164601346, 0.0]
['beep', 0.0, -5466.476734456627, 0.0, 0.0, 0.0, 0.0, -2524.8083501825754, 0.0]
['beep', 0.0, -5472.377594992829, 0.0, 0.0, 0.0, 0.0, -2477.7132246152432, 0.0]
['beep', 0.0, -5476.579722950426, 0.0, 0.0, 0.0, 0.0, -2479.0543292825614, 0.0]
['beep', 0.0, -5474.545714204993, 0.0, 0.0, 0.0, 0.0, -2521.9026234033854, 0.0]
['beep', 0.0, -5470.477696714127, 0.0, 0.0, 0.0, 0.0, -2533.0561438865834, 0.0]
['beep', 0.0, -5468.8907228578, 0.0, 0.0, 0.0, 0.0, -2530.2174723407593, 0.0]
['beep', 0.0, -5471.081193814421, 0.0, 0.0, 0.0, 0.0, -2527.1105798614717, 0.0]
['beep', 0.0, -5471.908208359267, 0.0, 0.0, 0.0, 0.0, -2520.852091413986, 0.0]
['beep', 0.0, -5469.382461235817, 0.0, 0.0, 0.0, 0.0, -2516.225280311737, 0.0]
['beep', 0.0, -5465.0462228114875, 0.0, 0.0, 0.0, 0.0, -2512.4031320098798, 0.0]
['beep', 0.0, -5465.314443744951, 0.0, 0.0, 0.0, 0.0, -2483.30116072907, 0.0]
['beep', 0.0, -5472.645815926292, 0.0, 0.0, 0.0, 0.0, -2434.6861165387772, 0.0]
['beep', 0.0, -5476.333853761417, 0.0, 0.0, 0.0, 0.0, -2436.34014562847, 0.0]
['beep', 0.0, -5472.377594992829, 0.0, 0.0, 0.0, 0.0, -2481.5800764060114, 0.0]
['beep', 0.0, -5470.567103691948, 0.0, 0.0, 0.0, 0.0, -2493.471204456235, 0.0]
['beep', 0.0, -5468.622501924337, 0.0, 0.0, 0.0, 0.0, -2490.6772363993214, 0.0]
['beep', 0.0, -5467.795487379491, 0.0, 0.0, 0.0, 0.0, -2488.978503820718, 0.0]
['beep', 0.0, -5470.902379858778, 0.0, 0.0, 0.0, 0.0, -2489.582000921011, 0.0]
['beep', 0.0, -5471.863504870356, 0.0, 0.0, 0.0, 0.0, -2489.3808352209135, 0.0]
['beep', 0.0, -5470.008310080566, 0.0, 0.0, 0.0, 0.0, -2490.520774188134, 0.0]
['beep', 0.0, -5470.812972880956, 0.0, 0.0, 0.0, 0.0, -2497.2486492691814, 0.0]
['beep', 0.0, -5473.964568849155, 0.0, 0.0, 0.0, 0.0, -2502.0989778159833, 0.0]
['beep', 0.0, -5473.539885704504, 0.0, 0.0, 0.0, 0.0, -2506.5693267070446, 0.0]
['beep', 0.0, -5471.930560103722, 0.0, 0.0, 0.0, 0.0, -2511.978448865229, 0.0]
['beep', 0.0, -5469.516571702549, 0.0, 0.0, 0.0, 0.0, -2519.2874693021145, 0.0]
['beep', 0.0, -5467.571969934937, 0.0, 0.0, 0.0, 0.0, -2525.680068216332, 0.0]
['beep', 0.0, -5469.136592046809, 0.0, 0.0, 0.0, 0.0, -2531.200949096793, 0.0]
['beep', 0.0, -5469.896551358289, 0.0, 0.0, 0.0, 0.0, -2537.459437544279, 0.0]
['beep', 0.0, -5472.2658362705515, 0.0, 0.0, 0.0, 0.0, -2545.684879503832, 0.0]
['beep', 0.0, -5471.103545558875, 0.0, 0.0, 0.0, 0.0, -2552.3456993515133, 0.0]
['beep', 0.0, -5470.231827525119, 0.0, 0.0, 0.0, 0.0, -2556.45842033129, 0.0]
['beep', 0.0, -5473.048147326487, 0.0, 0.0, 0.0, 0.0, -2561.487562833734, 0.0]
['beep', 0.0, -5474.366900249351, 0.0, 0.0, 0.0, 0.0, -2567.522533836667, 0.0]
['beep', 0.0, -5473.070499070943, 0.0, 0.0, 0.0, 0.0, -2573.8927810064297, 0.0]
['beep', 0.0, -5471.081193814421, 0.0, 0.0, 0.0, 0.0, -2577.2231909302704, 0.0]
['beep', 0.0, -5470.343586247395, 0.0, 0.0, 0.0, 0.0, -2580.911228765396, 0.0]
['beep', 0.0, -5470.74591764759, 0.0, 0.0, 0.0, 0.0, -2586.007426501206, 0.0]
['beep', 0.0, -5470.634158925314, 0.0, 0.0, 0.0, 0.0, -2587.907324779907, 0.0]
['beep', 0.0, -5470.835324625412, 0.0, 0.0, 0.0, 0.0, -2591.03656900365, 0.0]
['beep', 0.0, -5468.801315879979, 0.0, 0.0, 0.0, 0.0, -2591.461252148301, 0.0]
['beep', 0.0, -5467.884894357311, 0.0, 0.0, 0.0, 0.0, -2593.785833571653, 0.0]
['beep', 0.0, -5470.924731603233, 0.0, 0.0, 0.0, 0.0, -2597.4515196623233, 0.0]
['beep', 0.0, -5472.757574648568, 0.0, 0.0, 0.0, 0.0, -2599.1279004964713, 0.0]
['beep', 0.0, -5473.048147326487, 0.0, 0.0, 0.0, 0.0, -2600.491356908245, 0.0]
['beep', 0.0, -5471.662339170259, 0.0, 0.0, 0.0, 0.0, -2602.1230342534823, 0.0]
['beep', 0.0, -5470.567103691948, 0.0, 0.0, 0.0, 0.0, -2603.2406214762477, 0.0]
['beep', 0.0, -5472.064670570454, 0.0, 0.0, 0.0, 0.0, -2604.8275953325747, 0.0]
['beep', 0.0, -5474.389251993805, 0.0, 0.0, 0.0, 0.0, -2606.682790122365, 0.0]
['beep', 0.0, -5473.651644426781, 0.0, 0.0, 0.0, 0.0, -2608.426226189879, 0.0]
['beep', 0.0, -5472.221132781641, 0.0, 0.0, 0.0, 0.0, -2608.068598278594, 0.0]
['beep', 0.0, -5472.0870223149095, 0.0, 0.0, 0.0, 0.0, -2608.9179645678955, 0.0]
['beep', 0.0, -5472.824629881934, 0.0, 0.0, 0.0, 0.0, -2611.0190285466947, 0.0]
['beep', 0.0, -5473.897513615789, 0.0, 0.0, 0.0, 0.0, -2612.628354147477, 0.0]
['beep', 0.0, -5473.60694093787, 0.0, 0.0, 0.0, 0.0, -2612.918926825396, 0.0]
['beep', 0.0, -5472.601112437381, 0.0, 0.0, 0.0, 0.0, -2613.2765547366807, 0.0]
['beep', 0.0, -5471.572932192437, 0.0, 0.0, 0.0, 0.0, -2613.969458814795, 0.0]
['beep', 0.0, -5471.550580447982, 0.0, 0.0, 0.0, 0.0, -2614.1035692815267, 0.0]
['beep', 0.0, -5471.7964496369905, 0.0, 0.0, 0.0, 0.0, -2614.4388454483565, 0.0]
['beep', 0.0, -5470.634158925314, 0.0, 0.0, 0.0, 0.0, -2613.812996603608, 0.0]
['beep', 0.0, -5467.281397257018, 0.0, 0.0, 0.0, 0.0, -2612.673057636387, 0.0]
['beep', 0.0, -5467.41550772375, 0.0, 0.0, 0.0, 0.0, -2611.1084355245157, 0.0]
['beep', 0.0, -5469.404812980272, 0.0, 0.0, 0.0, 0.0, -2610.348476213035, 0.0]
['beep', 0.0, -5471.41646998125, 0.0, 0.0, 0.0, 0.0, -2609.2532407347253, 0.0]
['beep', 0.0, -5471.774097892535, 0.0, 0.0, 0.0, 0.0, -2607.4427494338456, 0.0]
['beep', 0.0, -5470.812972880956, 0.0, 0.0, 0.0, 0.0, -2608.046246534139, 0.0]
['beep', 0.0, -5472.17642929273, 0.0, 0.0, 0.0, 0.0, -2608.649743634432, 0.0]
['beep', 0.0, -5473.629292682325, 0.0, 0.0, 0.0, 0.0, -2608.6273918899765, 0.0]
['beep', 0.0, -5474.076327571432, 0.0, 0.0, 0.0, 0.0, -2610.9296215688732, 0.0]
['beep', 0.0, -5473.22696128213, 0.0, 0.0, 0.0, 0.0, -2610.639048890954, 0.0]
['beep', 0.0, -5471.952911848177, 0.0, 0.0, 0.0, 0.0, -2609.9908483017502, 0.0]
['beep', 0.0, -5471.617635681348, 0.0, 0.0, 0.0, 0.0, -2606.973362800284, 0.0]
['beep', 0.0, -5472.645815926292, 0.0, 0.0, 0.0, 0.0, -2564.5050483352006, 0.0]
['beep', 0.0, -5472.578760692926, 0.0, 0.0, 0.0, 0.0, -2547.2495016157036, 0.0]
['beep', 0.0, -5470.187124036208, 0.0, 0.0, 0.0, 0.0, -2596.5127463952003, 0.0]
['beep', 0.0, -5469.9412548472, 0.0, 0.0, 0.0, 0.0, -2611.9578018138172, 0.0]
['beep', 0.0, -5467.795487379491, 0.0, 0.0, 0.0, 0.0, -2612.8965750809402, 0.0]
['beep', 0.0, -5469.583626935915, 0.0, 0.0, 0.0, 0.0, -2614.237679748259, 0.0]
['beep', 0.0, -5471.46117347016, 0.0, 0.0, 0.0, 0.0, -2615.0423425486497, 0.0]
['beep', 0.0, -5472.645815926292, 0.0, 0.0, 0.0, 0.0, -2614.3047349816247, 0.0]
['beep', 0.0, -5472.064670570454, 0.0, 0.0, 0.0, 0.0, -2612.4718919362895, 0.0]
['beep', 0.0, -5470.455344969671, 0.0, 0.0, 0.0, 0.0, -2614.1035692815267, 0.0]
['beep', 0.0, -5471.192952536697, 0.0, 0.0, 0.0, 0.0, -2617.255165249725, 0.0]
['beep', 0.0, -5473.316368259951, 0.0, 0.0, 0.0, 0.0, -2617.813958861108, 0.0]
['beep', 0.0, -5472.17642929273, 0.0, 0.0, 0.0, 0.0, -2617.746903627742, 0.0]
['beep', 0.0, -5471.930560103722, 0.0, 0.0, 0.0, 0.0, -2616.875185593985, 0.0]
['beep', 0.0, -5471.505876959071, 0.0, 0.0, 0.0, 0.0, -2615.1764530153814, 0.0]
['beep', 0.0, -5472.824629881934, 0.0, 0.0, 0.0, 0.0, -2615.914060582407, 0.0]
['beep', 0.0, -5474.076327571432, 0.0, 0.0, 0.0, 0.0, -2615.578784415577, 0.0]
['beep', 0.0, -5472.377594992829, 0.0, 0.0, 0.0, 0.0, -2612.7848163586636, 0.0]
['beep', 0.0, -5473.137554304309, 0.0, 0.0, 0.0, 0.0, -2614.1035692815267, 0.0]
['beep', 0.0, -5477.384385750817, 0.0, 0.0, 0.0, 0.0, -2614.5059006817223, 0.0]
['beep', 0.0, -5479.172525307242, 0.0, 0.0, 0.0, 0.0, -2615.1764530153814, 0.0]
['beep', 0.0, -5476.602074694882, 0.0, 0.0, 0.0, 0.0, -2617.8586623500187, 0.0]
['beep', 0.0, -5475.171563049742, 0.0, 0.0, 0.0, 0.0, -2614.0588657926164, 0.0]
['beep', 0.0, -5472.467001970649, 0.0, 0.0, 0.0, 0.0, -2612.673057636387, 0.0]
['beep', 0.0, -5471.550580447982, 0.0, 0.0, 0.0, 0.0, -2599.686694107854, 0.0]
['beep', 0.0, -5473.517533960049, 0.0, 0.0, 0.0, 0.0, -2550.356394094991, 0.0]
['beep', 0.0, -5475.596246194393, 0.0, 0.0, 0.0, 0.0, -2553.619748785466, 0.0]
['beep', 0.0, -5473.495182215594, 0.0, 0.0, 0.0, 0.0, -2604.201746487826, 0.0]
['beep', 0.0, -5472.310539759462, 0.0, 0.0, 0.0, 0.0, -2616.741075127253, 0.0]
['beep', 0.0, -5470.991786836599, 0.0, 0.0, 0.0, 0.0, -2617.4116274609123, 0.0]
['beep', 0.0, -5473.9422171047, 0.0, 0.0, 0.0, 0.0, -2618.506862939222, 0.0]
['beep', 0.0, -5474.590417693904, 0.0, 0.0, 0.0, 0.0, -2619.445636206345, 0.0]
['beep', 0.0, -5474.299845015985, 0.0, 0.0, 0.0, 0.0, -2619.6691536508984, 0.0]
['beep', 0.0, -5473.316368259951, 0.0, 0.0, 0.0, 0.0, -2618.551566428133, 0.0]
['beep', 0.0, -5472.064670570454, 0.0, 0.0, 0.0, 0.0, -2616.0928745380493, 0.0]
['beep', 0.0, -5472.578760692926, 0.0, 0.0, 0.0, 0.0, -2616.7634268717084, 0.0]
['beep', 0.0, -5474.74687990509, 0.0, 0.0, 0.0, 0.0, -2618.864490850507, 0.0]
['beep', 0.0, -5473.2046095376745, 0.0, 0.0, 0.0, 0.0, -2618.3056972391246, 0.0]
['beep', 0.0, -5471.058842069965, 0.0, 0.0, 0.0, 0.0, -2618.3280489835797, 0.0]
['beep', 0.0, -5469.851847869379, 0.0, 0.0, 0.0, 0.0, -2618.909194339418, 0.0]
['beep', 0.0, -5473.2046095376745, 0.0, 0.0, 0.0, 0.0, -2620.5185199402, 0.0]
['beep', 0.0, -5474.74687990509, 0.0, 0.0, 0.0, 0.0, -2621.5243484406888, 0.0]
['beep', 0.0, -5473.897513615789, 0.0, 0.0, 0.0, 0.0, -2620.4067612179233, 0.0]
['beep', 0.0, -5472.690519415202, 0.0, 0.0, 0.0, 0.0, -2619.2444705062476, 0.0]
['beep', 0.0, -5472.064670570454, 0.0, 0.0, 0.0, 0.0, -2619.9150228399067, 0.0]
['beep', 0.0, -5473.517533960049, 0.0, 0.0, 0.0, 0.0, -2619.0433048061495, 0.0]
['beep', 0.0, -5475.104507816375, 0.0, 0.0, 0.0, 0.0, -2618.104531539027, 0.0]
['beep', 0.0, -5474.7915833940015, 0.0, 0.0, 0.0, 0.0, -2616.9869443162615, 0.0]
['beep', 0.0, -5472.0870223149095, 0.0, 0.0, 0.0, 0.0, -2616.741075127253, 0.0]
['beep', 0.0, -5470.164772291752, 0.0, 0.0, 0.0, 0.0, -2597.2056504733146, 0.0]
['beep', 0.0, -5472.019967081544, 0.0, 0.0, 0.0, 0.0, -2549.3058621055916, 0.0]
['beep', 0.0, -5473.182257793219, 0.0, 0.0, 0.0, 0.0, -2555.36318485298, 0.0]
['beep', 0.0, -5472.288188015007, 0.0, 0.0, 0.0, 0.0, -2607.5768599005773, 0.0]
['beep', 0.0, -5469.851847869379, 0.0, 0.0, 0.0, 0.0, -2618.864490850507, 0.0]
['beep', 0.0, -5467.169638534741, 0.0, 0.0, 0.0, 0.0, -2617.188110016359, 0.0]
['beep', 0.0, -5470.2094757806635, 0.0, 0.0, 0.0, 0.0, -2617.7022001388314, 0.0]
['beep', 0.0, -5471.1482490477865, 0.0, 0.0, 0.0, 0.0, -2618.3056972391246, 0.0]
['beep', 0.0, -5471.125897303331, 0.0, 0.0, 0.0, 0.0, -2617.9927728167504, 0.0]
['beep', 0.0, -5470.3882897363055, 0.0, 0.0, 0.0, 0.0, -2617.813958861108, 0.0]
['beep', 0.0, -5469.896551358289, 0.0, 0.0, 0.0, 0.0, -2618.4398077058563, 0.0]
['beep', 0.0, -5472.623464181836, 0.0, 0.0, 0.0, 0.0, -2618.506862939222, 0.0]
['beep', 0.0, -5473.316368259951, 0.0, 0.0, 0.0, 0.0, -2617.7022001388314, 0.0]
['beep', 0.0, -5472.981092093121, 0.0, 0.0, 0.0, 0.0, -2616.942240827351, 0.0]
['beep', 0.0, -5471.930560103722, 0.0, 0.0, 0.0, 0.0, -2615.623487904488, 0.0]
['beep', 0.0, -5471.37176649234, 0.0, 0.0, 0.0, 0.0, -2614.7741216151862, 0.0]
['beep', 0.0, -5473.137554304309, 0.0, 0.0, 0.0, 0.0, -2615.8023018601302, 0.0]
['beep', 0.0, -5476.780888650524, 0.0, 0.0, 0.0, 0.0, -2616.785778616164, 0.0]
['beep', 0.0, -5477.496144473093, 0.0, 0.0, 0.0, 0.0, -2616.9645925718064, 0.0]
['beep', 0.0, -5474.3221967604395, 0.0, 0.0, 0.0, 0.0, -2618.842139106052, 0.0]
['beep', 0.0, -5473.651644426781, 0.0, 0.0, 0.0, 0.0, -2619.490339695256, 0.0]
['beep', 0.0, -5475.328025260928, 0.0, 0.0, 0.0, 0.0, -2620.3397059845574, 0.0]
['beep', 0.0, -5475.216266538652, 0.0, 0.0, 0.0, 0.0, -2621.680810651876, 0.0]
['beep', 0.0, -5476.333853761417, 0.0, 0.0, 0.0, 0.0, -2621.2561275072253, 0.0]
['beep', 0.0, -5475.976225850132, 0.0, 0.0, 0.0, 0.0, -2620.384409473468, 0.0]
['beep', 0.0, -5475.618597938847, 0.0, 0.0, 0.0, 0.0, -2614.841176848552, 0.0]
['beep', 0.0, -5476.780888650524, 0.0, 0.0, 0.0, 0.0, -2570.7411850382314, 0.0]
['beep', 0.0, -5478.166696806753, 0.0, 0.0, 0.0, 0.0, -2556.391365097924, 0.0]
['beep', 0.0, -5478.054938084476, 0.0, 0.0, 0.0, 0.0, -2605.1852232438596, 0.0]
['beep', 0.0, -5475.931522361222, 0.0, 0.0, 0.0, 0.0, -2619.75856062872, 0.0]
['beep', 0.0, -5475.216266538652, 0.0, 0.0, 0.0, 0.0, -2619.4679879508008, 0.0]
['beep', 0.0, -5476.222095039141, 0.0, 0.0, 0.0, 0.0, -2620.8314443625745, 0.0]
['beep', 0.0, -5477.652606684281, 0.0, 0.0, 0.0, 0.0, -2622.127845540982, 0.0]
['beep', 0.0, -5476.445612483694, 0.0, 0.0, 0.0, 0.0, -2622.731342641275, 0.0]
['beep', 0.0, -5474.098679315887, 0.0, 0.0, 0.0, 0.0, -2621.2784792516804, 0.0]
['beep', 0.0, -5472.2658362705515, 0.0, 0.0, 0.0, 0.0, -2619.6691536508984, 0.0]
['beep', 0.0, -5474.545714204993, 0.0, 0.0, 0.0, 0.0, -2622.686639152365, 0.0]
['beep', 0.0, -5475.886818872312, 0.0, 0.0, 0.0, 0.0, -2622.753694385731, 0.0]
['beep', 0.0, -5475.216266538652, 0.0, 0.0, 0.0, 0.0, -2622.4631217078118, 0.0]
['beep', 0.0, -5473.919865360244, 0.0, 0.0, 0.0, 0.0, -2621.725514140787, 0.0]
['beep', 0.0, -5469.628330424825, 0.0, 0.0, 0.0, 0.0, -2620.9879065737614, 0.0]
['beep', 0.0, -5468.019004824043, 0.0, 0.0, 0.0, 0.0, -2621.479644951778, 0.0]
['beep', 0.0, -5472.332891503917, 0.0, 0.0, 0.0, 0.0, -2620.786740873664, 0.0]
['beep', 0.0, -5473.875161871334, 0.0, 0.0, 0.0, 0.0, -2621.814921118608, 0.0]
['beep', 0.0, -5472.064670570454, 0.0, 0.0, 0.0, 0.0, -2622.396066474446, 0.0]
['beep', 0.0, -5472.84698162639, 0.0, 0.0, 0.0, 0.0, -2623.737171141764, 0.0]
['beep', 0.0, -5473.629292682325, 0.0, 0.0, 0.0, 0.0, -2621.8819763519737, 0.0]
['beep', 0.0, -5475.216266538652, 0.0, 0.0, 0.0, 0.0, -2621.61375541851, 0.0]
['beep', 0.0, -5474.053975826976, 0.0, 0.0, 0.0, 0.0, -2621.479644951778, 0.0]
['beep', 0.0, -5471.192952536697, 0.0, 0.0, 0.0, 0.0, -2620.9208513403955, 0.0]
['beep', 0.0, -5470.634158925314, 0.0, 0.0, 0.0, 0.0, -2614.170624514893, 0.0]
['beep', 0.0, -5473.875161871334, 0.0, 0.0, 0.0, 0.0, -2567.7907547701307, 0.0]
['beep', 0.0, -5476.244446783597, 0.0, 0.0, 0.0, 0.0, -2556.592530798022, 0.0]
['beep', 0.0, -5473.8528101268785, 0.0, 0.0, 0.0, 0.0, -2605.22992673277, 0.0]
['beep', 0.0, -5471.9752635926325, 0.0, 0.0, 0.0, 0.0, -2621.9937350742503, 0.0]
['beep', 0.0, -5472.109374059364, 0.0, 0.0, 0.0, 0.0, -2620.9879065737614, 0.0]
['beep', 0.0, -5473.472830471138, 0.0, 0.0, 0.0, 0.0, -2622.351362985535, 0.0]
['beep', 0.0, -5473.808106637968, 0.0, 0.0, 0.0, 0.0, -2623.1113222970157, 0.0]
['beep', 0.0, -5472.958740348666, 0.0, 0.0, 0.0, 0.0, -2623.8936333529514, 0.0]
['beep', 0.0, -5472.221132781641, 0.0, 0.0, 0.0, 0.0, -2622.396066474446, 0.0]
['beep', 0.0, -5472.869333370845, 0.0, 0.0, 0.0, 0.0, -2620.719685640298, 0.0]
['beep', 0.0, -5473.98692059361, 0.0, 0.0, 0.0, 0.0, -2620.2726507511916, 0.0]
['beep', 0.0, -5474.925693860733, 0.0, 0.0, 0.0, 0.0, -2621.122017040493, 0.0]
['beep', 0.0, -5474.880990371823, 0.0, 0.0, 0.0, 0.0, -2622.1725490298927, 0.0]
['beep', 0.0, -5474.299845015985, 0.0, 0.0, 0.0, 0.0, -2623.1783775303816, 0.0]
['beep', 0.0, -5472.288188015007, 0.0, 0.0, 0.0, 0.0, -2622.4631217078118, 0.0]
['beep', 0.0, -5474.210438038163, 0.0, 0.0, 0.0, 0.0, -2622.619583918999, 0.0]
['beep', 0.0, -5475.7303566611245, 0.0, 0.0, 0.0, 0.0, -2622.686639152365, 0.0]
['beep', 0.0, -5475.149211305286, 0.0, 0.0, 0.0, 0.0, -2621.390237973957, 0.0]
['beep', 0.0, -5472.869333370845, 0.0, 0.0, 0.0, 0.0, -2619.8256158620857, 0.0]
['beep', 0.0, -5472.0870223149095, 0.0, 0.0, 0.0, 0.0, -2620.5408716846555, 0.0]
['beep', 0.0, -5472.9140368597555, 0.0, 0.0, 0.0, 0.0, -2621.8819763519737, 0.0]
['beep', 0.0, -5474.74687990509, 0.0, 0.0, 0.0, 0.0, -2620.384409473468, 0.0]
['beep', 0.0, -5473.98692059361, 0.0, 0.0, 0.0, 0.0, -2620.9208513403955, 0.0]
['beep', 0.0, -5472.042318825998, 0.0, 0.0, 0.0, 0.0, -2619.80326411763, 0.0]
['beep', 0.0, -5470.634158925314, 0.0, 0.0, 0.0, 0.0, -2614.975287315284, 0.0]
['beep', 0.0, -5472.869333370845, 0.0, 0.0, 0.0, 0.0, -2569.5341908376445, 0.0]
['beep', 0.0, -5473.98692059361, 0.0, 0.0, 0.0, 0.0, -2555.653757530899, 0.0]
['beep', 0.0, -5473.249313026585, 0.0, 0.0, 0.0, 0.0, -2604.805243588119, 0.0]
['beep', 0.0, -5470.65651066977, 0.0, 0.0, 0.0, 0.0, -2620.9655548293063, 0.0]
['beep', 0.0, -5469.874199613834, 0.0, 0.0, 0.0, 0.0, -2622.1725490298927, 0.0]
['beep', 0.0, -5473.092850815398, 0.0, 0.0, 0.0, 0.0, -2622.4631217078118, 0.0]
['beep', 0.0, -5474.836286882912, 0.0, 0.0, 0.0, 0.0, -2621.9490315853395, 0.0]
['beep', 0.0, -5473.718699660147, 0.0, 0.0, 0.0, 0.0, -2622.1501972854376, 0.0]
['beep', 0.0, -5473.629292682325, 0.0, 0.0, 0.0, 0.0, -2621.1443687849487, 0.0]
['beep', 0.0, -5474.545714204993, 0.0, 0.0, 0.0, 0.0, -2623.0219153191942, 0.0]
['beep', 0.0, -5476.490315972605, 0.0, 0.0, 0.0, 0.0, -2623.1783775303816, 0.0]
['beep', 0.0, -5477.27262702854, 0.0, 0.0, 0.0, 0.0, -2623.066618808105, 0.0]
['beep', 0.0, -5477.27262702854, 0.0, 0.0, 0.0, 0.0, -2623.1783775303816, 0.0]
['beep', 0.0, -5475.104507816375, 0.0, 0.0, 0.0, 0.0, -2622.1725490298927, 0.0]
['beep', 0.0, -5474.635121182814, 0.0, 0.0, 0.0, 0.0, -2622.9548600858284, 0.0]
['beep', 0.0, -5476.266798528051, 0.0, 0.0, 0.0, 0.0, -2622.3066594966244, 0.0]
['beep', 0.0, -5476.602074694882, 0.0, 0.0, 0.0, 0.0, -2622.2843077521693, 0.0]
['beep', 0.0, -5476.17739155023, 0.0, 0.0, 0.0, 0.0, -2622.3737147299903, 0.0]
['beep', 0.0, -5476.467964228149, 0.0, 0.0, 0.0, 0.0, -2622.060790307616, 0.0]
['beep', 0.0, -5475.931522361222, 0.0, 0.0, 0.0, 0.0, -2623.2007292748367, 0.0]
['beep', 0.0, -5477.652606684281, 0.0, 0.0, 0.0, 0.0, -2622.3066594966244, 0.0]
['beep', 0.0, -5477.853772384378, 0.0, 0.0, 0.0, 0.0, -2623.42424671939, 0.0]
['beep', 0.0, -5477.540847962004, 0.0, 0.0, 0.0, 0.0, -2622.5078251967225, 0.0]
['beep', 0.0, -5476.758536906068, 0.0, 0.0, 0.0, 0.0, -2620.4738164512896, 0.0]
['beep', 0.0, -5475.46213572766, 0.0, 0.0, 0.0, 0.0, -2622.5748804300883, 0.0]
['beep', 0.0, -5476.9597026061665, 0.0, 0.0, 0.0, 0.0, -2623.066618808105, 0.0]
['beep', 0.0, -5479.060766584965, 0.0, 0.0, 0.0, 0.0, -2622.5078251967225, 0.0]
['beep', 0.0, -5478.010234595566, 0.0, 0.0, 0.0, 0.0, -2622.0831420520717, 0.0]
['beep', 0.0, -5475.998577594588, 0.0, 0.0, 0.0, 0.0, -2621.5019966962336, 0.0]
['beep', 0.0, -5474.813935138457, 0.0, 0.0, 0.0, 0.0, -2613.23185124777, 0.0]
['beep', 0.0, -5477.1385165618085, 0.0, 0.0, 0.0, 0.0, -2562.6722052898654, 0.0]
['beep', 0.0, -5479.0160630960545, 0.0, 0.0, 0.0, 0.0, -2555.4972953197116, 0.0]
['beep', 0.0, -5477.809068895468, 0.0, 0.0, 0.0, 0.0, -2605.095816266038, 0.0]
['beep', 0.0, -5476.624426439336, 0.0, 0.0, 0.0, 0.0, -2621.9043280964293, 0.0]
['beep', 0.0, -5475.104507816375, 0.0, 0.0, 0.0, 0.0, -2622.5748804300883, 0.0]
['beep', 0.0, -5474.411603738261, 0.0, 0.0, 0.0, 0.0, -2622.5078251967225, 0.0]
['beep', 0.0, -5475.752708405579, 0.0, 0.0, 0.0, 0.0, -2622.731342641275, 0.0]
['beep', 0.0, -5475.0821560719205, 0.0, 0.0, 0.0, 0.0, -2624.5194821977, 0.0]
['beep', 0.0, -5472.9140368597555, 0.0, 0.0, 0.0, 0.0, -2623.2454327637474, 0.0]
['beep', 0.0, -5472.578760692926, 0.0, 0.0, 0.0, 0.0, -2621.2114240183146, 0.0]
['beep', 0.0, -5472.51170545956, 0.0, 0.0, 0.0, 0.0, -2621.814921118608, 0.0]
['beep', 0.0, -5474.232789782619, 0.0, 0.0, 0.0, 0.0, -2622.32901124108, 0.0]
['beep', 0.0, -5474.612769438359, 0.0, 0.0, 0.0, 0.0, -2622.1501972854376, 0.0]
['beep', 0.0, -5473.830458382423, 0.0, 0.0, 0.0, 0.0, -2623.1560257859264, 0.0]
['beep', 0.0, -5474.74687990509, 0.0, 0.0, 0.0, 0.0, -2622.9101565969177, 0.0]
['beep', 0.0, -5476.467964228149, 0.0, 0.0, 0.0, 0.0, -2622.5525286856328, 0.0]
['beep', 0.0, -5478.725490418135, 0.0, 0.0, 0.0, 0.0, -2622.3066594966244, 0.0]
['beep', 0.0, -5478.926656118233, 0.0, 0.0, 0.0, 0.0, -2621.5690519295995, 0.0]
['beep', 0.0, -5477.742013662102, 0.0, 0.0, 0.0, 0.0, -2621.2114240183146, 0.0]
['beep', 0.0, -5475.819763638945, 0.0, 0.0, 0.0, 0.0, -2619.9373745843623, 0.0]
['beep', 0.0, -5475.596246194393, 0.0, 0.0, 0.0, 0.0, -2620.764389129208, 0.0]
['beep', 0.0, -5475.0821560719205, 0.0, 0.0, 0.0, 0.0, -2622.105493796527, 0.0]
['beep', 0.0, -5474.098679315887, 0.0, 0.0, 0.0, 0.0, -2621.390237973957, 0.0]
['beep', 0.0, -5471.774097892535, 0.0, 0.0, 0.0, 0.0, -2620.0491333066384, 0.0]
['beep', 0.0, -5471.192952536697, 0.0, 0.0, 0.0, 0.0, -2619.9597263288174, 0.0]
['beep', 0.0, -5472.0870223149095, 0.0, 0.0, 0.0, 0.0, -2621.747865885242, 0.0]
['beep', 0.0, -5474.255141527074, 0.0, 0.0, 0.0, 0.0, -2622.6642874079093, 0.0]
['beep', 0.0, -5476.803240394979, 0.0, 0.0, 0.0, 0.0, -2622.0160868187054, 0.0]
['beep', 0.0, -5476.1997432946855, 0.0, 0.0, 0.0, 0.0, -2620.5632234291106, 0.0]
['beep', 0.0, -5474.433955482717, 0.0, 0.0, 0.0, 0.0, -2621.032610062672, 0.0]
['beep', 0.0, -5477.317330517451, 0.0, 0.0, 0.0, 0.0, -2590.388368414446, 0.0]
['beep', 0.0, -5480.51362997456, 0.0, 0.0, 0.0, 0.0, -2554.133838907938, 0.0]
['beep', 0.0, -5479.396042751795, 0.0, 0.0, 0.0, 0.0, -2598.1444237404376, 0.0]
['beep', 0.0, -5477.160868306264, 0.0, 0.0, 0.0, 0.0, -2623.2454327637474, 0.0]
['beep', 0.0, -5477.697310173191, 0.0, 0.0, 0.0, 0.0, -2622.977211830284, 0.0]
['beep', 0.0, -5478.859600884867, 0.0, 0.0, 0.0, 0.0, -2622.843101363552, 0.0]
['beep', 0.0, -5481.094775330398, 0.0, 0.0, 0.0, 0.0, -2622.8878048524625, 0.0]
['beep', 0.0, -5480.848906141389, 0.0, 0.0, 0.0, 0.0, -2621.010258318217, 0.0]
['beep', 0.0, -5479.172525307242, 0.0, 0.0, 0.0, 0.0, -2619.9597263288174, 0.0]
['beep', 0.0, -5478.479621229127, 0.0, 0.0, 0.0, 0.0, -2620.3173542401023, 0.0]
['beep', 0.0, -5479.887781129812, 0.0, 0.0, 0.0, 0.0, -2621.3008309961356, 0.0]
['beep', 0.0, -5480.334816018917, 0.0, 0.0, 0.0, 0.0, -2623.379543230479, 0.0]
['beep', 0.0, -5479.731318918624, 0.0, 0.0, 0.0, 0.0, -2622.70899089682, 0.0]
['beep', 0.0, -5478.390214251306, 0.0, 0.0, 0.0, 0.0, -2620.429112962379, 0.0]
['beep', 0.0, -5475.573894449937, 0.0, 0.0, 0.0, 0.0, -2623.5136536972113, 0.0]
['beep', 0.0, -5475.685653172213, 0.0, 0.0, 0.0, 0.0, -2622.9101565969177, 0.0]
['beep', 0.0, -5478.792545651501, 0.0, 0.0, 0.0, 0.0, -2624.8994618534402, 0.0]
['beep', 0.0, -5478.010234595566, 0.0, 0.0, 0.0, 0.0, -2624.2512612642363, 0.0]
['beep', 0.0, -5474.478658971627, 0.0, 0.0, 0.0, 0.0, -2623.2007292748367, 0.0]
['beep', 0.0, -5474.255141527074, 0.0, 0.0, 0.0, 0.0, -2623.334839741569, 0.0]
['beep', 0.0, -5475.886818872312, 0.0, 0.0, 0.0, 0.0, -2624.1842060308704, 0.0]
['beep', 0.0, -5478.524324718038, 0.0, 0.0, 0.0, 0.0, -2624.742999642253, 0.0]
['beep', 0.0, -5479.105470073876, 0.0, 0.0, 0.0, 0.0, -2624.5418339421553, 0.0]
['beep', 0.0, -5476.825592139434, 0.0, 0.0, 0.0, 0.0, -2624.1171507975046, 0.0]
['beep', 0.0, -5475.46213572766, 0.0, 0.0, 0.0, 0.0, -2624.094799053049, 0.0]
['beep', 0.0, -5477.026757839532, 0.0, 0.0, 0.0, 0.0, -2622.8207496190967, 0.0]
['beep', 0.0, -5479.1948770516965, 0.0, 0.0, 0.0, 0.0, -2625.0782758090827, 0.0]
['beep', 0.0, -5477.965531106655, 0.0, 0.0, 0.0, 0.0, -2626.1735112873926, 0.0]
['beep', 0.0, -5476.0209293390435, 0.0, 0.0, 0.0, 0.0, -2624.6312409199763, 0.0]
['beep', 0.0, -5475.953874105678, 0.0, 0.0, 0.0, 0.0, -2620.4961681957448, 0.0]
['beep', 0.0, -5476.8926473728, 0.0, 0.0, 0.0, 0.0, -2578.2513711752144, 0.0]
['beep', 0.0, -5478.345510762395, 0.0, 0.0, 0.0, 0.0, -2553.4409348298236, 0.0]
['beep', 0.0, -5478.099641573387, 0.0, 0.0, 0.0, 0.0, -2597.4738714067785, 0.0]
['beep', 0.0, -5473.8528101268785, 0.0, 0.0, 0.0, 0.0, -2623.8489298640407, 0.0]
['beep', 0.0, -5473.517533960049, 0.0, 0.0, 0.0, 0.0, -2624.072447308594, 0.0]
['beep', 0.0, -5476.0209293390435, 0.0, 0.0, 0.0, 0.0, -2623.4913019527557, 0.0]
['beep', 0.0, -5476.222095039141, 0.0, 0.0, 0.0, 0.0, -2623.3124879971133, 0.0]
['beep', 0.0, -5475.037452583009, 0.0, 0.0, 0.0, 0.0, -2622.8207496190967, 0.0]
['beep', 0.0, -5473.405775237772, 0.0, 0.0, 0.0, 0.0, -2621.2337757627697, 0.0]
['beep', 0.0, -5473.182257793219, 0.0, 0.0, 0.0, 0.0, -2621.166720529404, 0.0]
['beep', 0.0, -5475.149211305286, 0.0, 0.0, 0.0, 0.0, -2621.6584589074205, 0.0]
['beep', 0.0, -5476.780888650524, 0.0, 0.0, 0.0, 0.0, -2622.843101363552, 0.0]
['beep', 0.0, -5476.467964228149, 0.0, 0.0, 0.0, 0.0, -2621.5690519295995, 0.0]
['beep', 0.0, -5472.8916851153, 0.0, 0.0, 0.0, 0.0, -2620.8314443625745, 0.0]
['beep', 0.0, -5471.438821725706, 0.0, 0.0, 0.0, 0.0, -2622.194900774348, 0.0]
['beep', 0.0, -5473.450478726683, 0.0, 0.0, 0.0, 0.0, -2621.412589718412, 0.0]
['beep', 0.0, -5475.864467127856, 0.0, 0.0, 0.0, 0.0, -2620.674982151387, 0.0]
['beep', 0.0, -5474.925693860733, 0.0, 0.0, 0.0, 0.0, -2620.674982151387, 0.0]
['beep', 0.0, -5472.7352229041135, 0.0, 0.0, 0.0, 0.0, -2620.5855751735658, 0.0]
['beep', 0.0, -5472.936388604211, 0.0, 0.0, 0.0, 0.0, -2619.42328446189, 0.0]
['beep', 0.0, -5473.539885704504, 0.0, 0.0, 0.0, 0.0, -2620.384409473468, 0.0]
['beep', 0.0, -5475.350377005384, 0.0, 0.0, 0.0, 0.0, -2620.429112962379, 0.0]
['beep', 0.0, -5477.540847962004, 0.0, 0.0, 0.0, 0.0, -2621.8596246075185, 0.0]
['beep', 0.0, -5476.490315972605, 0.0, 0.0, 0.0, 0.0, -2620.786740873664, 0.0]
['beep', 0.0, -5473.98692059361, 0.0, 0.0, 0.0, 0.0, -2621.010258318217, 0.0]
['beep', 0.0, -5474.0316240825205, 0.0, 0.0, 0.0, 0.0, -2622.127845540982, 0.0]
['beep', 0.0, -5476.378557250328, 0.0, 0.0, 0.0, 0.0, -2622.731342641275, 0.0]
['beep', 0.0, -5475.216266538652, 0.0, 0.0, 0.0, 0.0, -2622.977211830284, 0.0]
['beep', 0.0, -5473.316368259951, 0.0, 0.0, 0.0, 0.0, -2621.2114240183146, 0.0]
['beep', 0.0, -5472.444650226194, 0.0, 0.0, 0.0, 0.0, -2616.0258193046834, 0.0]
['beep', 0.0, -5473.249313026585, 0.0, 0.0, 0.0, 0.0, -2569.981225726751, 0.0]
['beep', 0.0, -5475.149211305286, 0.0, 0.0, 0.0, 0.0, -2553.977376696751, 0.0]
['beep', 0.0, -5475.059804327465, 0.0, 0.0, 0.0, 0.0, -2601.1842609863593, 0.0]
['beep', 0.0, -5473.696347915691, 0.0, 0.0, 0.0, 0.0, -2622.2396042632586, 0.0]
['beep', 0.0, -5471.170600792241, 0.0, 0.0, 0.0, 0.0, -2621.6361071629653, 0.0]
['beep', 0.0, -5471.282359514518, 0.0, 0.0, 0.0, 0.0, -2622.396066474446, 0.0]
['beep', 0.0, -5472.601112437381, 0.0, 0.0, 0.0, 0.0, -2622.9101565969177, 0.0]
['beep', 0.0, -5472.489353715105, 0.0, 0.0, 0.0, 0.0, -2622.5525286856328, 0.0]
['beep', 0.0, -5469.9412548472, 0.0, 0.0, 0.0, 0.0, -2622.8207496190967, 0.0]
['beep', 0.0, -5469.2707025135405, 0.0, 0.0, 0.0, 0.0, -2621.7925693741527, 0.0]
['beep', 0.0, -5471.349414747884, 0.0, 0.0, 0.0, 0.0, -2622.8878048524625, 0.0]
['beep', 0.0, -5473.830458382423, 0.0, 0.0, 0.0, 0.0, -2623.9606885863172, 0.0]
['beep', 0.0, -5473.361071748862, 0.0, 0.0, 0.0, 0.0, -2621.4349414628678, 0.0]
['beep', 0.0, -5471.304711258974, 0.0, 0.0, 0.0, 0.0, -2619.4679879508008, 0.0]
['beep', 0.0, -5471.528228703526, 0.0, 0.0, 0.0, 0.0, -2619.2668222507027, 0.0]
['beep', 0.0, -5471.46117347016, 0.0, 0.0, 0.0, 0.0, -2620.004429817728, 0.0]
['beep', 0.0, -5473.539885704504, 0.0, 0.0, 0.0, 0.0, -2622.5748804300883, 0.0]
['beep', 0.0, -5474.210438038163, 0.0, 0.0, 0.0, 0.0, -2622.7983978746415, 0.0]
['beep', 0.0, -5472.534057204015, 0.0, 0.0, 0.0, 0.0, -2620.6079269180213, 0.0]
['beep', 0.0, -5471.841153125901, 0.0, 0.0, 0.0, 0.0, -2620.4961681957448, 0.0]
['beep', 0.0, -5472.467001970649, 0.0, 0.0, 0.0, 0.0, -2622.2396042632586, 0.0]
['beep', 0.0, -5473.562237448959, 0.0, 0.0, 0.0, 0.0, -2624.1842060308704, 0.0]
['beep', 0.0, -5472.981092093121, 0.0, 0.0, 0.0, 0.0, -2623.5136536972113, 0.0]
['beep', 0.0, -5472.556408948471, 0.0, 0.0, 0.0, 0.0, -2624.1171507975046, 0.0]
['beep', 0.0, -5472.0870223149095, 0.0, 0.0, 0.0, 0.0, -2619.3785809729793, 0.0]
['beep', 0.0, -5473.98692059361, 0.0, 0.0, 0.0, 0.0, -2577.2455426747256, 0.0]
['beep', 0.0, -5476.937350861711, 0.0, 0.0, 0.0, 0.0, -2554.1114871634827, 0.0]
['beep', 0.0, -5476.378557250328, 0.0, 0.0, 0.0, 0.0, -2601.139557497449, 0.0]
['beep', 0.0, -5472.623464181836, 0.0, 0.0, 0.0, 0.0, -2623.9159850974065, 0.0]
['beep', 0.0, -5471.014138581055, 0.0, 0.0, 0.0, 0.0, -2623.5583571861216, 0.0]
['beep', 0.0, -5473.249313026585, 0.0, 0.0, 0.0, 0.0, -2623.1783775303816, 0.0]
['beep', 0.0, -5475.596246194393, 0.0, 0.0, 0.0, 0.0, -2623.290136252658, 0.0]
['beep', 0.0, -5475.819763638945, 0.0, 0.0, 0.0, 0.0, -2623.2454327637474, 0.0]
['beep', 0.0, -5474.836286882912, 0.0, 0.0, 0.0, 0.0, -2623.267784508203, 0.0]
['beep', 0.0, -5472.623464181836, 0.0, 0.0, 0.0, 0.0, -2622.194900774348, 0.0]
['beep', 0.0, -5473.517533960049, 0.0, 0.0, 0.0, 0.0, -2623.8489298640407, 0.0]
['beep', 0.0, -5475.439783983205, 0.0, 0.0, 0.0, 0.0, -2624.742999642253, 0.0]
['beep', 0.0, -5476.646778183792, 0.0, 0.0, 0.0, 0.0, -2623.133674041471, 0.0]
['beep', 0.0, -5474.568065949448, 0.0, 0.0, 0.0, 0.0, -2622.6642874079093, 0.0]
['beep', 0.0, -5473.2046095376745, 0.0, 0.0, 0.0, 0.0, -2622.2396042632586, 0.0]
['beep', 0.0, -5475.216266538652, 0.0, 0.0, 0.0, 0.0, -2621.9043280964293, 0.0]
['beep', 0.0, -5476.51266771706, 0.0, 0.0, 0.0, 0.0, -2622.127845540982, 0.0]
['beep', 0.0, -5475.059804327465, 0.0, 0.0, 0.0, 0.0, -2621.703162396331, 0.0]
['beep', 0.0, -5474.389251993805, 0.0, 0.0, 0.0, 0.0, -2620.9879065737614, 0.0]
['beep', 0.0, -5475.216266538652, 0.0, 0.0, 0.0, 0.0, -2620.786740873664, 0.0]
['beep', 0.0, -5476.490315972605, 0.0, 0.0, 0.0, 0.0, -2620.9879065737614, 0.0]
['beep', 0.0, -5477.473792728638, 0.0, 0.0, 0.0, 0.0, -2621.0549618071273, 0.0]
['beep', 0.0, -5477.049109583987, 0.0, 0.0, 0.0, 0.0, -2621.9490315853395, 0.0]
['beep', 0.0, -5475.395080494294, 0.0, 0.0, 0.0, 0.0, -2621.837272863063, 0.0]
['beep', 0.0, -5473.629292682325, 0.0, 0.0, 0.0, 0.0, -2619.713857139809, 0.0]
['beep', 0.0, -5474.612769438359, 0.0, 0.0, 0.0, 0.0, -2620.764389129208, 0.0]
['beep', 0.0, -5474.880990371823, 0.0, 0.0, 0.0, 0.0, -2622.843101363552, 0.0]
['beep', 0.0, -5474.925693860733, 0.0, 0.0, 0.0, 0.0, -2624.005392075228, 0.0]
['beep', 0.0, -5472.623464181836, 0.0, 0.0, 0.0, 0.0, -2624.1395025419597, 0.0]
['beep', 0.0, -5470.276531014029, 0.0, 0.0, 0.0, 0.0, -2617.389275716457, 0.0]
['beep', 0.0, -5473.182257793219, 0.0, 0.0, 0.0, 0.0, -2571.590551327533, 0.0]
['beep', 0.0, -5475.708004916669, 0.0, 0.0, 0.0, 0.0, -2551.6080917844884, 0.0]
['beep', 0.0, -5475.193914794197, 0.0, 0.0, 0.0, 0.0, -2593.159984726904, 0.0]
['beep', 0.0, -5472.981092093121, 0.0, 0.0, 0.0, 0.0, -2619.8256158620857, 0.0]
['beep', 0.0, -5472.109374059364, 0.0, 0.0, 0.0, 0.0, -2619.8256158620857, 0.0]
['beep', 0.0, -5475.059804327465, 0.0, 0.0, 0.0, 0.0, -2620.0491333066384, 0.0]
['beep', 0.0, -5475.708004916669, 0.0, 0.0, 0.0, 0.0, -2620.6079269180213, 0.0]
['beep', 0.0, -5476.55737120597, 0.0, 0.0, 0.0, 0.0, -2622.4407699633566, 0.0]
['beep', 0.0, -5475.775060150035, 0.0, 0.0, 0.0, 0.0, -2622.105493796527, 0.0]
['beep', 0.0, -5474.813935138457, 0.0, 0.0, 0.0, 0.0, -2622.32901124108, 0.0]
['beep', 0.0, -5476.110336316864, 0.0, 0.0, 0.0, 0.0, -2623.2007292748367, 0.0]
['beep', 0.0, -5477.60790319537, 0.0, 0.0, 0.0, 0.0, -2623.4465984638455, 0.0]
['beep', 0.0, -5477.652606684281, 0.0, 0.0, 0.0, 0.0, -2622.2843077521693, 0.0]
['beep', 0.0, -5476.155039805775, 0.0, 0.0, 0.0, 0.0, -2621.166720529404, 0.0]
['beep', 0.0, -5474.0316240825205, 0.0, 0.0, 0.0, 0.0, -2621.2561275072253, 0.0]
['beep', 0.0, -5473.584589193415, 0.0, 0.0, 0.0, 0.0, -2623.2007292748367, 0.0]
['beep', 0.0, -5476.17739155023, 0.0, 0.0, 0.0, 0.0, -2623.9159850974065, 0.0]
['beep', 0.0, -5477.764365406557, 0.0, 0.0, 0.0, 0.0, -2623.066618808105, 0.0]
['beep', 0.0, -5476.602074694882, 0.0, 0.0, 0.0, 0.0, -2621.3008309961356, 0.0]
['beep', 0.0, -5476.110336316864, 0.0, 0.0, 0.0, 0.0, -2623.737171141764, 0.0]
['beep', 0.0, -5476.870295628345, 0.0, 0.0, 0.0, 0.0, -2623.781874630675, 0.0]
['beep', 0.0, -5477.563199706459, 0.0, 0.0, 0.0, 0.0, -2624.2065577753256, 0.0]
['beep', 0.0, -5478.010234595566, 0.0, 0.0, 0.0, 0.0, -2623.9606885863172, 0.0]
['beep', 0.0, -5476.55737120597, 0.0, 0.0, 0.0, 0.0, -2622.5748804300883, 0.0]
['beep', 0.0, -5475.484487472116, 0.0, 0.0, 0.0, 0.0, -2618.842139106052, 0.0]
['beep', 0.0, -5476.356205505873, 0.0, 0.0, 0.0, 0.0, -2577.2231909302704, 0.0]
['beep', 0.0, -5478.32315901794, 0.0, 0.0, 0.0, 0.0, -2551.2504638732034, 0.0]
['beep', 0.0, -5477.764365406557, 0.0, 0.0, 0.0, 0.0, -2594.411682416401, 0.0]
['beep', 0.0, -5475.819763638945, 0.0, 0.0, 0.0, 0.0, -2621.077313551583, 0.0]
['beep', 0.0, -5475.41743223875, 0.0, 0.0, 0.0, 0.0, -2620.5408716846555, 0.0]
['beep', 0.0, -5475.2609700275625, 0.0, 0.0, 0.0, 0.0, -2623.5583571861216, 0.0]
['beep', 0.0, -5476.982054350621, 0.0, 0.0, 0.0, 0.0, -2624.1842060308704, 0.0]
['beep', 0.0, -5476.8479438838895, 0.0, 0.0, 0.0, 0.0, -2623.2230810192923, 0.0]
['beep', 0.0, -5475.506839216571, 0.0, 0.0, 0.0, 0.0, -2621.457293207323, 0.0]
['beep', 0.0, -5474.366900249351, 0.0, 0.0, 0.0, 0.0, -2620.9655548293063, 0.0]
['beep', 0.0, -5474.635121182814, 0.0, 0.0, 0.0, 0.0, -2623.4913019527557, 0.0]
['beep', 0.0, -5474.948045605189, 0.0, 0.0, 0.0, 0.0, -2623.8265781195855, 0.0]
['beep', 0.0, -5474.478658971627, 0.0, 0.0, 0.0, 0.0, -2623.983040330773, 0.0]
['beep', 0.0, -5474.098679315887, 0.0, 0.0, 0.0, 0.0, -2623.267784508203, 0.0]
['beep', 0.0, -5472.355243248373, 0.0, 0.0, 0.0, 0.0, -2622.5748804300883, 0.0]
['beep', 0.0, -5472.668167670747, 0.0, 0.0, 0.0, 0.0, -2622.8207496190967, 0.0]
['beep', 0.0, -5473.495182215594, 0.0, 0.0, 0.0, 0.0, -2622.753694385731, 0.0]
['beep', 0.0, -5471.908208359267, 0.0, 0.0, 0.0, 0.0, -2622.843101363552, 0.0]
['beep', 0.0, -5471.0364903255095, 0.0, 0.0, 0.0, 0.0, -2622.776046130186, 0.0]
['beep', 0.0, -5470.70121415868, 0.0, 0.0, 0.0, 0.0, -2623.737171141764, 0.0]
['beep', 0.0, -5470.410641480761, 0.0, 0.0, 0.0, 0.0, -2624.877110108985, 0.0]
['beep', 0.0, -5472.042318825998, 0.0, 0.0, 0.0, 0.0, -2624.9218135978954, 0.0]
['beep', 0.0, -5471.528228703526, 0.0, 0.0, 0.0, 0.0, -2624.1171507975046, 0.0]
['beep', 0.0, -5470.432993225217, 0.0, 0.0, 0.0, 0.0, -2624.9218135978954, 0.0]
['beep', 0.0, -5468.398984479783, 0.0, 0.0, 0.0, 0.0, -2623.625412419488, 0.0]
['beep', 0.0, -5467.437859468206, 0.0, 0.0, 0.0, 0.0, -2624.9888688312612, 0.0]
['beep', 0.0, -5469.4495164691825, 0.0, 0.0, 0.0, 0.0, -2626.486435709767, 0.0]
['beep', 0.0, -5469.98595833611, 0.0, 0.0, 0.0, 0.0, -2625.8382351205632, 0.0]
['beep', 0.0, -5466.9237693457335, 0.0, 0.0, 0.0, 0.0, -2625.1900345313593, 0.0]
['beep', 0.0, -5465.403850722772, 0.0, 0.0, 0.0, 0.0, -2618.037476305661, 0.0]
['beep', 0.0, -5467.549618190482, 0.0, 0.0, 0.0, 0.0, -2569.2436181597254, 0.0]
['beep', 0.0, -5469.181295535719, 0.0, 0.0, 0.0, 0.0, -2552.032774929139, 0.0]
['beep', 0.0, -5469.784792636013, 0.0, 0.0, 0.0, 0.0, -2598.1220719959824, 0.0]
['beep', 0.0, -5469.002481580077, 0.0, 0.0, 0.0, 0.0, -2624.072447308594, 0.0]
['beep', 0.0, -5468.443687968694, 0.0, 0.0, 0.0, 0.0, -2623.334839741569, 0.0]
['beep', 0.0, -5469.069536813443, 0.0, 0.0, 0.0, 0.0, -2622.8207496190967, 0.0]
['beep', 0.0, -5470.902379858778, 0.0, 0.0, 0.0, 0.0, -2623.580708930577, 0.0]
['beep', 0.0, -5471.572932192437, 0.0, 0.0, 0.0, 0.0, -2624.318316497602, 0.0]
['beep', 0.0, -5468.466039713149, 0.0, 0.0, 0.0, 0.0, -2623.938336841862, 0.0]
['beep', 0.0, -5468.0413565684985, 0.0, 0.0, 0.0, 0.0, -2623.2230810192923, 0.0]
['beep', 0.0, -5468.689557157702, 0.0, 0.0, 0.0, 0.0, -2624.452426964334, 0.0]
['beep', 0.0, -5466.432030967717, 0.0, 0.0, 0.0, 0.0, -2623.0219153191942, 0.0]
['beep', 0.0, -5464.710946644658, 0.0, 0.0, 0.0, 0.0, -2621.323182740591, 0.0]
['beep', 0.0, -5463.03456581051, 0.0, 0.0, 0.0, 0.0, -2621.032610062672, 0.0]
['beep', 0.0, -5464.375670477828, 0.0, 0.0, 0.0, 0.0, -2620.384409473468, 0.0]
['beep', 0.0, -5467.2143420236525, 0.0, 0.0, 0.0, 0.0, -2621.2784792516804, 0.0]
['beep', 0.0, -5469.1589437912635, 0.0, 0.0, 0.0, 0.0, -2622.1501972854376, 0.0]
['beep', 0.0, -5470.947083347689, 0.0, 0.0, 0.0, 0.0, -2622.060790307616, 0.0]
['beep', 0.0, -5469.56127519146, 0.0, 0.0, 0.0, 0.0, -2621.837272863063, 0.0]
['beep', 0.0, -5469.60597868037, 0.0, 0.0, 0.0, 0.0, -2622.1501972854376, 0.0]
['beep', 0.0, -5470.969435092144, 0.0, 0.0, 0.0, 0.0, -2622.5748804300883, 0.0]
['beep', 0.0, -5472.623464181836, 0.0, 0.0, 0.0, 0.0, -2623.9159850974065, 0.0]
['beep', 0.0, -5470.768269392046, 0.0, 0.0, 0.0, 0.0, -2624.6312409199763, 0.0]
['beep', 0.0, -5468.063708312954, 0.0, 0.0, 0.0, 0.0, -2624.094799053049, 0.0]
['beep', 0.0, -5468.778964135524, 0.0, 0.0, 0.0, 0.0, -2615.7575983712195, 0.0]
['beep', 0.0, -5471.282359514518, 0.0, 0.0, 0.0, 0.0, -2567.4107751143906, 0.0]
['beep', 0.0, -5472.355243248373, 0.0, 0.0, 0.0, 0.0, -2554.1114871634827, 0.0]
['beep', 0.0, -5472.332891503917, 0.0, 0.0, 0.0, 0.0, -2600.5137086527, 0.0]
['beep', 0.0, -5471.550580447982, 0.0, 0.0, 0.0, 0.0, -2622.2843077521693, 0.0]
['beep', 0.0, -5470.969435092144, 0.0, 0.0, 0.0, 0.0, -2620.5632234291106, 0.0]
['beep', 0.0, -5471.617635681348, 0.0, 0.0, 0.0, 0.0, -2620.719685640298, 0.0]
['beep', 0.0, -5472.981092093121, 0.0, 0.0, 0.0, 0.0, -2622.9548600858284, 0.0]
['beep', 0.0, -5472.645815926292, 0.0, 0.0, 0.0, 0.0, -2621.7925693741527, 0.0]
['beep', 0.0, -5471.572932192437, 0.0, 0.0, 0.0, 0.0, -2621.7925693741527, 0.0]
['beep', 0.0, -5469.784792636013, 0.0, 0.0, 0.0, 0.0, -2621.2337757627697, 0.0]
['beep', 0.0, -5470.500048458583, 0.0, 0.0, 0.0, 0.0, -2619.713857139809, 0.0]
['beep', 0.0, -5473.22696128213, 0.0, 0.0, 0.0, 0.0, -2622.127845540982, 0.0]
['beep', 0.0, -5473.316368259951, 0.0, 0.0, 0.0, 0.0, -2621.5467001851443, 0.0]
['beep', 0.0, -5469.628330424825, 0.0, 0.0, 0.0, 0.0, -2620.9432030848507, 0.0]
['beep', 0.0, -5468.84601936889, 0.0, 0.0, 0.0, 0.0, -2620.5185199402, 0.0]
['beep', 0.0, -5470.343586247395, 0.0, 0.0, 0.0, 0.0, -2621.166720529404, 0.0]
['beep', 0.0, -5472.51170545956, 0.0, 0.0, 0.0, 0.0, -2620.876147851485, 0.0]
['beep', 0.0, -5472.757574648568, 0.0, 0.0, 0.0, 0.0, -2620.3397059845574, 0.0]
['beep', 0.0, -5471.684690914713, 0.0, 0.0, 0.0, 0.0, -2622.1725490298927, 0.0]
['beep', 0.0, -5471.639987425803, 0.0, 0.0, 0.0, 0.0, -2621.9490315853395, 0.0]
['beep', 0.0, -5471.841153125901, 0.0, 0.0, 0.0, 0.0, -2621.457293207323, 0.0]
['beep', 0.0, -5471.729394403625, 0.0, 0.0, 0.0, 0.0, -2624.586537431066, 0.0]
['beep', 0.0, -5472.84698162639, 0.0, 0.0, 0.0, 0.0, -2623.9606885863172, 0.0]
['beep', 0.0, -5471.125897303331, 0.0, 0.0, 0.0, 0.0, -2622.2843077521693, 0.0]
['beep', 0.0, -5471.014138581055, 0.0, 0.0, 0.0, 0.0, -2623.1783775303816, 0.0]
['beep', 0.0, -5471.9752635926325, 0.0, 0.0, 0.0, 0.0, -2623.625412419488, 0.0]
['beep', 0.0, -5473.092850815398, 0.0, 0.0, 0.0, 0.0, -2624.3406682420577, 0.0]
['beep', 0.0, -5473.294016515496, 0.0, 0.0, 0.0, 0.0, -2626.0170490762057, 0.0]
['beep', 0.0, -5471.617635681348, 0.0, 0.0, 0.0, 0.0, -2623.8936333529514, 0.0]
['beep', 0.0, -5470.276531014029, 0.0, 0.0, 0.0, 0.0, -2613.030685547672, 0.0]
['beep', 0.0, -5471.37176649234, 0.0, 0.0, 0.0, 0.0, -2563.722737279265, 0.0]
['beep', 0.0, -5473.025795582032, 0.0, 0.0, 0.0, 0.0, -2550.9822429397395, 0.0]
['beep', 0.0, -5472.981092093121, 0.0, 0.0, 0.0, 0.0, -2596.579801628566, 0.0]
['beep', 0.0, -5471.394118236794, 0.0, 0.0, 0.0, 0.0, -2624.072447308594, 0.0]
['beep', 0.0, -5470.522400203037, 0.0, 0.0, 0.0, 0.0, -2622.5525286856328, 0.0]
['beep', 0.0, -5471.617635681348, 0.0, 0.0, 0.0, 0.0, -2622.977211830284, 0.0]
['beep', 0.0, -5472.623464181836, 0.0, 0.0, 0.0, 0.0, -2623.42424671939, 0.0]
['beep', 0.0, -5473.98692059361, 0.0, 0.0, 0.0, 0.0, -2621.747865885242, 0.0]
['beep', 0.0, -5472.422298481739, 0.0, 0.0, 0.0, 0.0, -2621.0549618071273, 0.0]
['beep', 0.0, -5469.650682169281, 0.0, 0.0, 0.0, 0.0, -2621.2337757627697, 0.0]
['beep', 0.0, -5471.505876959071, 0.0, 0.0, 0.0, 0.0, -2620.876147851485, 0.0]
['beep', 0.0, -5473.003443837577, 0.0, 0.0, 0.0, 0.0, -2621.077313551583, 0.0]
['beep', 0.0, -5472.9140368597555, 0.0, 0.0, 0.0, 0.0, -2622.6642874079093, 0.0]
['beep', 0.0, -5472.869333370845, 0.0, 0.0, 0.0, 0.0, -2621.2114240183146, 0.0]
['beep', 0.0, -5472.399946737283, 0.0, 0.0, 0.0, 0.0, -2622.4407699633566, 0.0]
['beep', 0.0, -5472.51170545956, 0.0, 0.0, 0.0, 0.0, -2622.5078251967225, 0.0]
['beep', 0.0, -5473.249313026585, 0.0, 0.0, 0.0, 0.0, -2621.166720529404, 0.0]
['beep', 0.0, -5472.645815926292, 0.0, 0.0, 0.0, 0.0, -2621.814921118608, 0.0]
['beep', 0.0, -5471.125897303331, 0.0, 0.0, 0.0, 0.0, -2620.0491333066384, 0.0]
['beep', 0.0, -5471.908208359267, 0.0, 0.0, 0.0, 0.0, -2620.652630406932, 0.0]
['beep', 0.0, -5473.249313026585, 0.0, 0.0, 0.0, 0.0, -2620.764389129208, 0.0]
['beep', 0.0, -5474.501010716082, 0.0, 0.0, 0.0, 0.0, -2622.351362985535, 0.0]
['beep', 0.0, -5475.998577594588, 0.0, 0.0, 0.0, 0.0, -2622.6642874079093, 0.0]
['beep', 0.0, -5474.411603738261, 0.0, 0.0, 0.0, 0.0, -2622.4631217078118, 0.0]
['beep', 0.0, -5472.690519415202, 0.0, 0.0, 0.0, 0.0, -2617.4116274609123, 0.0]
['beep', 0.0, -5474.076327571432, 0.0, 0.0, 0.0, 0.0, -2573.6022083285106, 0.0]
['beep', 0.0, -5476.266798528051, 0.0, 0.0, 0.0, 0.0, -2552.703327262798, 0.0]
['beep', 0.0, -5476.490315972605, 0.0, 0.0, 0.0, 0.0, -2598.099720251527, 0.0]
['beep', 0.0, -5476.043281083498, 0.0, 0.0, 0.0, 0.0, -2621.390237973957, 0.0]
['beep', 0.0, -5474.925693860733, 0.0, 0.0, 0.0, 0.0, -2621.099665296038, 0.0]
['beep', 0.0, -5476.490315972605, 0.0, 0.0, 0.0, 0.0, -2621.5914036740546, 0.0]
['beep', 0.0, -5477.898475873289, 0.0, 0.0, 0.0, 0.0, -2623.692467652854, 0.0]
['beep', 0.0, -5478.144345062297, 0.0, 0.0, 0.0, 0.0, -2622.686639152365, 0.0]
['beep', 0.0, -5475.551542705482, 0.0, 0.0, 0.0, 0.0, -2621.703162396331, 0.0]
['beep', 0.0, -5473.673996171236, 0.0, 0.0, 0.0, 0.0, -2621.6584589074205, 0.0]
['beep', 0.0, -5475.350377005384, 0.0, 0.0, 0.0, 0.0, -2623.0219153191942, 0.0]
['beep', 0.0, -5476.400908994783, 0.0, 0.0, 0.0, 0.0, -2621.814921118608, 0.0]
['beep', 0.0, -5476.1997432946855, 0.0, 0.0, 0.0, 0.0, -2620.786740873664, 0.0]
['beep', 0.0, -5474.3221967604395, 0.0, 0.0, 0.0, 0.0, -2620.384409473468, 0.0]
['beep', 0.0, -5474.1433828047975, 0.0, 0.0, 0.0, 0.0, -2622.3737147299903, 0.0]
['beep', 0.0, -5474.880990371823, 0.0, 0.0, 0.0, 0.0, -2622.261956007714, 0.0]
['beep', 0.0, -5475.328025260928, 0.0, 0.0, 0.0, 0.0, -2622.2396042632586, 0.0]
['beep', 0.0, -5475.216266538652, 0.0, 0.0, 0.0, 0.0, -2622.1725490298927, 0.0]
['beep', 0.0, -5474.076327571432, 0.0, 0.0, 0.0, 0.0, -2621.479644951778, 0.0]
['beep', 0.0, -5473.8528101268785, 0.0, 0.0, 0.0, 0.0, -2622.0160868187054, 0.0]
['beep', 0.0, -5473.182257793219, 0.0, 0.0, 0.0, 0.0, -2621.3008309961356, 0.0]
['beep', 0.0, -5473.115202559853, 0.0, 0.0, 0.0, 0.0, -2622.351362985535, 0.0]
['beep', 0.0, -5473.517533960049, 0.0, 0.0, 0.0, 0.0, -2621.9043280964293, 0.0]
['beep', 0.0, -5471.841153125901, 0.0, 0.0, 0.0, 0.0, -2620.8314443625745, 0.0]
['beep', 0.0, -5470.835324625412, 0.0, 0.0, 0.0, 0.0, -2621.1443687849487, 0.0]
['beep', 0.0, -5471.617635681348, 0.0, 0.0, 0.0, 0.0, -2623.7595228862197, 0.0]
['beep', 0.0, -5472.9140368597555, 0.0, 0.0, 0.0, 0.0, -2625.637069420465, 0.0]
['beep', 0.0, -5473.8528101268785, 0.0, 0.0, 0.0, 0.0, -2625.5253106981886, 0.0]
['beep', 0.0, -5474.456307227172, 0.0, 0.0, 0.0, 0.0, -2624.385371730968, 0.0]
['beep', 0.0, -5473.629292682325, 0.0, 0.0, 0.0, 0.0, -2617.6574966499206, 0.0]
['beep', 0.0, -5472.556408948471, 0.0, 0.0, 0.0, 0.0, -2572.5069728502003, 0.0]
['beep', 0.0, -5475.551542705482, 0.0, 0.0, 0.0, 0.0, -2553.753859252198, 0.0]
['beep', 0.0, -5475.931522361222, 0.0, 0.0, 0.0, 0.0, -2597.965609784795, 0.0]
['beep', 0.0, -5472.936388604211, 0.0, 0.0, 0.0, 0.0, -2624.5194821977, 0.0]
['beep', 0.0, -5471.7964496369905, 0.0, 0.0, 0.0, 0.0, -2624.5641856866105, 0.0]
['beep', 0.0, -5472.064670570454, 0.0, 0.0, 0.0, 0.0, -2625.8605868650184, 0.0]
['beep', 0.0, -5473.428126982228, 0.0, 0.0, 0.0, 0.0, -2624.318316497602, 0.0]
['beep', 0.0, -5475.193914794197, 0.0, 0.0, 0.0, 0.0, -2623.133674041471, 0.0]
['beep', 0.0, -5474.188086293708, 0.0, 0.0, 0.0, 0.0, -2621.8596246075185, 0.0]
['beep', 0.0, -5471.237656025607, 0.0, 0.0, 0.0, 0.0, -2622.3066594966244, 0.0]
['beep', 0.0, -5471.550580447982, 0.0, 0.0, 0.0, 0.0, -2621.770217629697, 0.0]
['beep', 0.0, -5473.405775237772, 0.0, 0.0, 0.0, 0.0, -2623.0219153191942, 0.0]
['beep', 0.0, -5473.8528101268785, 0.0, 0.0, 0.0, 0.0, -2623.2007292748367, 0.0]
['beep', 0.0, -5471.081193814421, 0.0, 0.0, 0.0, 0.0, -2621.2784792516804, 0.0]
['beep', 0.0, -5470.075365313932, 0.0, 0.0, 0.0, 0.0, -2620.5632234291106, 0.0]
['beep', 0.0, -5470.164772291752, 0.0, 0.0, 0.0, 0.0, -2620.4961681957448, 0.0]
['beep', 0.0, -5473.070499070943, 0.0, 0.0, 0.0, 0.0, -2622.261956007714, 0.0]
['beep', 0.0, -5473.405775237772, 0.0, 0.0, 0.0, 0.0, -2623.4465984638455, 0.0]
['beep', 0.0, -5472.019967081544, 0.0, 0.0, 0.0, 0.0, -2621.680810651876, 0.0]
['beep', 0.0, -5470.65651066977, 0.0, 0.0, 0.0, 0.0, -2621.9043280964293, 0.0]
['beep', 0.0, -5471.751746148079, 0.0, 0.0, 0.0, 0.0, -2621.6361071629653, 0.0]
['beep', 0.0, -5474.098679315887, 0.0, 0.0, 0.0, 0.0, -2622.3066594966244, 0.0]
['beep', 0.0, -5475.439783983205, 0.0, 0.0, 0.0, 0.0, -2622.9101565969177, 0.0]
['beep', 0.0, -5474.098679315887, 0.0, 0.0, 0.0, 0.0, -2622.8878048524625, 0.0]
['beep', 0.0, -5471.841153125901, 0.0, 0.0, 0.0, 0.0, -2622.5972321745435, 0.0]
['beep', 0.0, -5472.310539759462, 0.0, 0.0, 0.0, 0.0, -2608.806205845619, 0.0]
['beep', 0.0, -5474.679824671724, 0.0, 0.0, 0.0, 0.0, -2561.487562833734, 0.0]
['beep', 0.0, -5474.188086293708, 0.0, 0.0, 0.0, 0.0, -2585.0239497451726, 0.0]
['beep', 0.0, -5473.361071748862, 0.0, 0.0, 0.0, 0.0, -2622.396066474446, 0.0]
['beep', 0.0, -5471.595283936892, 0.0, 0.0, 0.0, 0.0, -2624.4971304532446, 0.0]
['beep', 0.0, -5470.835324625412, 0.0, 0.0, 0.0, 0.0, -2626.8887671099624, 0.0]
['beep', 0.0, -5471.863504870356, 0.0, 0.0, 0.0, 0.0, -2627.291098510158, 0.0]
['beep', 0.0, -5473.405775237772, 0.0, 0.0, 0.0, 0.0, -2627.201691532337, 0.0]
['beep', 0.0, -5472.310539759462, 0.0, 0.0, 0.0, 0.0, -2627.0228775766946, 0.0]
['beep', 0.0, -5469.695385658191, 0.0, 0.0, 0.0, 0.0, -2624.653592664432, 0.0]
['beep', 0.0, -5470.276531014029, 0.0, 0.0, 0.0, 0.0, -2625.324144998091, 0.0]
['beep', 0.0, -5472.802278137479, 0.0, 0.0, 0.0, 0.0, -2624.4747787087895, 0.0]
['beep', 0.0, -5471.46117347016, 0.0, 0.0, 0.0, 0.0, -2625.1900345313593, 0.0]
['beep', 0.0, -5470.008310080566, 0.0, 0.0, 0.0, 0.0, -2624.675944408887, 0.0]
['beep', 0.0, -5470.187124036208, 0.0, 0.0, 0.0, 0.0, -2624.5194821977, 0.0]
['beep', 0.0, -5470.567103691948, 0.0, 0.0, 0.0, 0.0, -2627.1569880434263, 0.0]
['beep', 0.0, -5471.394118236794, 0.0, 0.0, 0.0, 0.0, -2628.296927010647, 0.0]
['beep', 0.0, -5472.288188015007, 0.0, 0.0, 0.0, 0.0, -2626.687601409865, 0.0]
['beep', 0.0, -5470.522400203037, 0.0, 0.0, 0.0, 0.0, -2624.452426964334, 0.0]
['beep', 0.0, -5468.84601936889, 0.0, 0.0, 0.0, 0.0, -2623.5136536972113, 0.0]
['beep', 0.0, -5469.851847869379, 0.0, 0.0, 0.0, 0.0, -2601.3183714530915, 0.0]
['beep', 0.0, -5472.958740348666, 0.0, 0.0, 0.0, 0.0, -2557.3077866205917, 0.0]
['beep', 0.0, -5473.875161871334, 0.0, 0.0, 0.0, 0.0, -2591.5059556372116, 0.0]
['beep', 0.0, -5469.9412548472, 0.0, 0.0, 0.0, 0.0, -2623.781874630675, 0.0]
['beep', 0.0, -5468.823667624434, 0.0, 0.0, 0.0, 0.0, -2624.5641856866105, 0.0]
['beep', 0.0, -5469.9412548472, 0.0, 0.0, 0.0, 0.0, -2626.419380476401, 0.0]
['beep', 0.0, -5470.567103691948, 0.0, 0.0, 0.0, 0.0, -2627.0899328100604, 0.0]
['beep', 0.0, -5471.394118236794, 0.0, 0.0, 0.0, 0.0, -2626.8217118765965, 0.0]
['beep', 0.0, -5470.902379858778, 0.0, 0.0, 0.0, 0.0, -2625.99469733175, 0.0]
['beep', 0.0, -5469.673033913736, 0.0, 0.0, 0.0, 0.0, -2625.4582554648227, 0.0]
['beep', 0.0, -5470.74591764759, 0.0, 0.0, 0.0, 0.0, -2625.637069420465, 0.0]
['beep', 0.0, -5472.578760692926, 0.0, 0.0, 0.0, 0.0, -2625.7935316316525, 0.0]
['beep', 0.0, -5472.958740348666, 0.0, 0.0, 0.0, 0.0, -2625.972345587295, 0.0]
['beep', 0.0, -5471.9752635926325, 0.0, 0.0, 0.0, 0.0, -2624.675944408887, 0.0]
['beep', 0.0, -5471.729394403625, 0.0, 0.0, 0.0, 0.0, -2623.0219153191942, 0.0]
['beep', 0.0, -5472.690519415202, 0.0, 0.0, 0.0, 0.0, -2624.8994618534402, 0.0]
['beep', 0.0, -5473.517533960049, 0.0, 0.0, 0.0, 0.0, -2626.8664153655072, 0.0]
['beep', 0.0, -5473.897513615789, 0.0, 0.0, 0.0, 0.0, -2627.1569880434263, 0.0]
['beep', 0.0, -5472.757574648568, 0.0, 0.0, 0.0, 0.0, -2627.7828368881746, 0.0]
['beep', 0.0, -5470.142420547298, 0.0, 0.0, 0.0, 0.0, -2628.3639822440127, 0.0]
['beep', 0.0, -5470.455344969671, 0.0, 0.0, 0.0, 0.0, -2628.7663136442084, 0.0]
['beep', 0.0, -5473.2046095376745, 0.0, 0.0, 0.0, 0.0, -2628.2745752661917, 0.0]
['beep', 0.0, -5474.65747292727, 0.0, 0.0, 0.0, 0.0, -2627.3805054879795, 0.0]
['beep', 0.0, -5473.808106637968, 0.0, 0.0, 0.0, 0.0, -2626.3746769874906, 0.0]
['beep', 0.0, -5472.534057204015, 0.0, 0.0, 0.0, 0.0, -2625.257089764725, 0.0]
['beep', 0.0, -5473.361071748862, 0.0, 0.0, 0.0, 0.0, -2593.383502171457, 0.0]
['beep', 0.0, -5475.328025260928, 0.0, 0.0, 0.0, 0.0, -2553.999728441206, 0.0]
['beep', 0.0, -5475.328025260928, 0.0, 0.0, 0.0, 0.0, -2589.717816080787, 0.0]
['beep', 0.0, -5472.623464181836, 0.0, 0.0, 0.0, 0.0, -2625.3688484870017, 0.0]
['beep', 0.0, -5471.41646998125, 0.0, 0.0, 0.0, 0.0, -2626.933470598873, 0.0]
['beep', 0.0, -5472.422298481739, 0.0, 0.0, 0.0, 0.0, -2627.358153743524, 0.0]
['beep', 0.0, -5474.1433828047975, 0.0, 0.0, 0.0, 0.0, -2628.1851682883703, 0.0]
['beep', 0.0, -5472.399946737283, 0.0, 0.0, 0.0, 0.0, -2629.481569466778, 0.0]
['beep', 0.0, -5470.8576763698675, 0.0, 0.0, 0.0, 0.0, -2628.654554921932, 0.0]
['beep', 0.0, -5468.935426346711, 0.0, 0.0, 0.0, 0.0, -2626.3076217541247, 0.0]
['beep', 0.0, -5468.17546703523, 0.0, 0.0, 0.0, 0.0, -2627.0452293211497, 0.0]
['beep', 0.0, -5470.164772291752, 0.0, 0.0, 0.0, 0.0, -2627.916947354907, 0.0]
['beep', 0.0, -5470.74591764759, 0.0, 0.0, 0.0, 0.0, -2626.4417322208565, 0.0]
['beep', 0.0, -5470.65651066977, 0.0, 0.0, 0.0, 0.0, -2625.5700141870993, 0.0]
['beep', 0.0, -5470.3882897363055, 0.0, 0.0, 0.0, 0.0, -2624.675944408887, 0.0]
['beep', 0.0, -5472.467001970649, 0.0, 0.0, 0.0, 0.0, -2624.675944408887, 0.0]
['beep', 0.0, -5471.1482490477865, 0.0, 0.0, 0.0, 0.0, -2623.692467652854, 0.0]
['beep', 0.0, -5471.1482490477865, 0.0, 0.0, 0.0, 0.0, -2624.4747787087895, 0.0]
['beep', 0.0, -5472.51170545956, 0.0, 0.0, 0.0, 0.0, -2623.737171141764, 0.0]
['beep', 0.0, -5472.936388604211, 0.0, 0.0, 0.0, 0.0, -2623.2230810192923, 0.0]
['beep', 0.0, -5471.282359514518, 0.0, 0.0, 0.0, 0.0, -2622.5748804300883, 0.0]
['beep', 0.0, -5470.231827525119, 0.0, 0.0, 0.0, 0.0, -2620.0267815621833, 0.0]
['beep', 0.0, -5470.924731603233, 0.0, 0.0, 0.0, 0.0, -2581.268856676681, 0.0]
['beep', 0.0, -5472.355243248373, 0.0, 0.0, 0.0, 0.0, -2549.3505655945023, 0.0]
['beep', 0.0, -5472.601112437381, 0.0, 0.0, 0.0, 0.0, -2583.7051968223095, 0.0]
['beep', 0.0, -5471.483525214616, 0.0, 0.0, 0.0, 0.0, -2622.351362985535, 0.0]
['beep', 0.0, -5471.684690914713, 0.0, 0.0, 0.0, 0.0, -2622.731342641275, 0.0]
['beep', 0.0, -5471.260007770063, 0.0, 0.0, 0.0, 0.0, -2622.9325083413733, 0.0]
['beep', 0.0, -5473.629292682325, 0.0, 0.0, 0.0, 0.0, -2622.7983978746415, 0.0]
['beep', 0.0, -5474.813935138457, 0.0, 0.0, 0.0, 0.0, -2622.0160868187054, 0.0]
['beep', 0.0, -5473.517533960049, 0.0, 0.0, 0.0, 0.0, -2622.9548600858284, 0.0]
['beep', 0.0, -5472.288188015007, 0.0, 0.0, 0.0, 0.0, -2622.2843077521693, 0.0]
['beep', 0.0, -5472.958740348666, 0.0, 0.0, 0.0, 0.0, -2623.04426706365, 0.0]
['beep', 0.0, -5474.277493271529, 0.0, 0.0, 0.0, 0.0, -2622.686639152365, 0.0]
['beep', 0.0, -5476.1997432946855, 0.0, 0.0, 0.0, 0.0, -2620.9432030848507, 0.0]
['beep', 0.0, -5474.679824671724, 0.0, 0.0, 0.0, 0.0, -2621.837272863063, 0.0]
['beep', 0.0, -5471.9752635926325, 0.0, 0.0, 0.0, 0.0, -2621.9490315853395, 0.0]
['beep', 0.0, -5473.875161871334, 0.0, 0.0, 0.0, 0.0, -2621.2784792516804, 0.0]
['beep', 0.0, -5475.775060150035, 0.0, 0.0, 0.0, 0.0, -2621.747865885242, 0.0]
['beep', 0.0, -5475.79741189449, 0.0, 0.0, 0.0, 0.0, -2623.580708930577, 0.0]
['beep', 0.0, -5476.311502016963, 0.0, 0.0, 0.0, 0.0, -2622.2843077521693, 0.0]
['beep', 0.0, -5474.165734549253, 0.0, 0.0, 0.0, 0.0, -2621.5914036740546, 0.0]
['beep', 0.0, -5471.841153125901, 0.0, 0.0, 0.0, 0.0, -2623.5583571861216, 0.0]
['beep', 0.0, -5474.1433828047975, 0.0, 0.0, 0.0, 0.0, -2624.4747787087895, 0.0]
['beep', 0.0, -5476.579722950426, 0.0, 0.0, 0.0, 0.0, -2623.5136536972113, 0.0]
['beep', 0.0, -5474.948045605189, 0.0, 0.0, 0.0, 0.0, -2621.5019966962336, 0.0]
['beep', 0.0, -5475.0821560719205, 0.0, 0.0, 0.0, 0.0, -2621.2337757627697, 0.0]
['beep', 0.0, -5475.037452583009, 0.0, 0.0, 0.0, 0.0, -2623.2454327637474, 0.0]
['beep', 0.0, -5475.350377005384, 0.0, 0.0, 0.0, 0.0, -2623.4689502083006, 0.0]
['beep', 0.0, -5474.366900249351, 0.0, 0.0, 0.0, 0.0, -2622.686639152365, 0.0]
['beep', 0.0, -5473.696347915691, 0.0, 0.0, 0.0, 0.0, -2621.725514140787, 0.0]
['beep', 0.0, -5473.003443837577, 0.0, 0.0, 0.0, 0.0, -2618.104531539027, 0.0]
['beep', 0.0, -5474.523362460538, 0.0, 0.0, 0.0, 0.0, -2575.9714932407733, 0.0]
['beep', 0.0, -5476.065632827954, 0.0, 0.0, 0.0, 0.0, -2550.065821417072, 0.0]
['beep', 0.0, -5476.535019461515, 0.0, 0.0, 0.0, 0.0, -2585.850964290019, 0.0]
['beep', 0.0, -5474.74687990509, 0.0, 0.0, 0.0, 0.0, -2620.3397059845574, 0.0]
['beep', 0.0, -5474.165734549253, 0.0, 0.0, 0.0, 0.0, -2621.4349414628678, 0.0]
['beep', 0.0, -5475.7303566611245, 0.0, 0.0, 0.0, 0.0, -2622.4407699633566, 0.0]
['beep', 0.0, -5476.378557250328, 0.0, 0.0, 0.0, 0.0, -2624.452426964334, 0.0]
['beep', 0.0, -5477.451440984183, 0.0, 0.0, 0.0, 0.0, -2624.8547583645295, 0.0]
['beep', 0.0, -5476.311502016963, 0.0, 0.0, 0.0, 0.0, -2623.334839741569, 0.0]
['beep', 0.0, -5474.478658971627, 0.0, 0.0, 0.0, 0.0, -2621.9043280964293, 0.0]
['beep', 0.0, -5473.808106637968, 0.0, 0.0, 0.0, 0.0, -2622.9101565969177, 0.0]
['beep', 0.0, -5474.366900249351, 0.0, 0.0, 0.0, 0.0, -2624.318316497602, 0.0]
['beep', 0.0, -5474.925693860733, 0.0, 0.0, 0.0, 0.0, -2624.6312409199763, 0.0]
['beep', 0.0, -5473.741051404602, 0.0, 0.0, 0.0, 0.0, -2624.1395025419597, 0.0]
['beep', 0.0, -5473.673996171236, 0.0, 0.0, 0.0, 0.0, -2623.2007292748367, 0.0]
['beep', 0.0, -5473.741051404602, 0.0, 0.0, 0.0, 0.0, -2624.1171507975046, 0.0]
['beep', 0.0, -5476.13268806132, 0.0, 0.0, 0.0, 0.0, -2625.592365931555, 0.0]
['beep', 0.0, -5476.758536906068, 0.0, 0.0, 0.0, 0.0, -2624.586537431066, 0.0]
['beep', 0.0, -5476.155039805775, 0.0, 0.0, 0.0, 0.0, -2623.1783775303816, 0.0]
['beep', 0.0, -5475.596246194393, 0.0, 0.0, 0.0, 0.0, -2622.753694385731, 0.0]
['beep', 0.0, -5473.919865360244, 0.0, 0.0, 0.0, 0.0, -2623.692467652854, 0.0]
['beep', 0.0, -5475.149211305286, 0.0, 0.0, 0.0, 0.0, -2625.100627553538, 0.0]
['beep', 0.0, -5474.948045605189, 0.0, 0.0, 0.0, 0.0, -2626.8887671099624, 0.0]
['beep', 0.0, -5473.629292682325, 0.0, 0.0, 0.0, 0.0, -2624.6312409199763, 0.0]
['beep', 0.0, -5473.808106637968, 0.0, 0.0, 0.0, 0.0, -2620.0491333066384, 0.0]
['beep', 0.0, -5473.539885704504, 0.0, 0.0, 0.0, 0.0, -2581.291208421136, 0.0]
['beep', 0.0, -5475.775060150035, 0.0, 0.0, 0.0, 0.0, -2553.105658662994, 0.0]
['beep', 0.0, -5477.317330517451, 0.0, 0.0, 0.0, 0.0, -2591.8635835484965, 0.0]
['beep', 0.0, -5474.255141527074, 0.0, 0.0, 0.0, 0.0, -2623.334839741569, 0.0]
['beep', 0.0, -5473.048147326487, 0.0, 0.0, 0.0, 0.0, -2624.363019986513, 0.0]
['beep', 0.0, -5474.568065949448, 0.0, 0.0, 0.0, 0.0, -2625.61471767601, 0.0]
['beep', 0.0, -5475.640949683303, 0.0, 0.0, 0.0, 0.0, -2624.7877031311637, 0.0]
['beep', 0.0, -5476.1997432946855, 0.0, 0.0, 0.0, 0.0, -2624.966517086806, 0.0]
['beep', 0.0, -5473.98692059361, 0.0, 0.0, 0.0, 0.0, -2626.039400820661, 0.0]
['beep', 0.0, -5473.294016515496, 0.0, 0.0, 0.0, 0.0, -2625.94999384284, 0.0]
['beep', 0.0, -5473.159906048764, 0.0, 0.0, 0.0, 0.0, -2626.262918265214, 0.0]
['beep', 0.0, -5474.813935138457, 0.0, 0.0, 0.0, 0.0, -2626.70995315432, 0.0]
['beep', 0.0, -5476.087984572409, 0.0, 0.0, 0.0, 0.0, -2626.70995315432, 0.0]
['beep', 0.0, -5474.545714204993, 0.0, 0.0, 0.0, 0.0, -2627.1793397878814, 0.0]
['beep', 0.0, -5474.255141527074, 0.0, 0.0, 0.0, 0.0, -2628.0510578216386, 0.0]
['beep', 0.0, -5475.79741189449, 0.0, 0.0, 0.0, 0.0, -2627.492264210256, 0.0]
['beep', 0.0, -5476.780888650524, 0.0, 0.0, 0.0, 0.0, -2627.224043276792, 0.0]
['beep', 0.0, -5477.339682261906, 0.0, 0.0, 0.0, 0.0, -2627.268746765703, 0.0]
['beep', 0.0, -5477.9431793622, 0.0, 0.0, 0.0, 0.0, -2626.8217118765965, 0.0]
['beep', 0.0, -5474.74687990509, 0.0, 0.0, 0.0, 0.0, -2626.352325243035, 0.0]
['beep', 0.0, -5475.015100838555, 0.0, 0.0, 0.0, 0.0, -2627.581671188077, 0.0]
['beep', 0.0, -5478.278455529029, 0.0, 0.0, 0.0, 0.0, -2626.0841043095716, 0.0]
['beep', 0.0, -5478.211400295663, 0.0, 0.0, 0.0, 0.0, -2626.352325243035, 0.0]
['beep', 0.0, -5476.55737120597, 0.0, 0.0, 0.0, 0.0, -2626.978174087784, 0.0]
['beep', 0.0, -5475.216266538652, 0.0, 0.0, 0.0, 0.0, -2625.905290353929, 0.0]
['beep', 0.0, -5477.429089239728, 0.0, 0.0, 0.0, 0.0, -2597.518574895689, 0.0]
['beep', 0.0, -5479.776022407535, 0.0, 0.0, 0.0, 0.0, -2556.8383999870302, 0.0]
['beep', 0.0, -5480.111298574365, 0.0, 0.0, 0.0, 0.0, -2586.9238480238737, 0.0]
['beep', 0.0, -5476.266798528051, 0.0, 0.0, 0.0, 0.0, -2626.262918265214, 0.0]
['beep', 0.0, -5474.74687990509, 0.0, 0.0, 0.0, 0.0, -2625.681772909376, 0.0]
['beep', 0.0, -5475.484487472116, 0.0, 0.0, 0.0, 0.0, -2627.5369676991663, 0.0]
['beep', 0.0, -5478.054938084476, 0.0, 0.0, 0.0, 0.0, -2628.4310374773786, 0.0]
['beep', 0.0, -5479.239580540608, 0.0, 0.0, 0.0, 0.0, -2629.034534577672, 0.0]
['beep', 0.0, -5477.339682261906, 0.0, 0.0, 0.0, 0.0, -2629.906252611429, 0.0]
['beep', 0.0, -5475.2609700275625, 0.0, 0.0, 0.0, 0.0, -2628.811017133119, 0.0]
['beep', 0.0, -5476.535019461515, 0.0, 0.0, 0.0, 0.0, -2627.939299099362, 0.0]
['beep', 0.0, -5478.725490418135, 0.0, 0.0, 0.0, 0.0, -2628.453389221834, 0.0]
['beep', 0.0, -5479.507801474071, 0.0, 0.0, 0.0, 0.0, -2629.593328189055, 0.0]
['beep', 0.0, -5477.183220050719, 0.0, 0.0, 0.0, 0.0, -2628.90042411094, 0.0]
['beep', 0.0, -5477.049109583987, 0.0, 0.0, 0.0, 0.0, -2625.94999384284, 0.0]
['beep', 0.0, -5476.155039805775, 0.0, 0.0, 0.0, 0.0, -2626.039400820661, 0.0]
['beep', 0.0, -5477.049109583987, 0.0, 0.0, 0.0, 0.0, -2627.7828368881746, 0.0]
['beep', 0.0, -5477.719661917647, 0.0, 0.0, 0.0, 0.0, -2629.9956595892504, 0.0]
['beep', 0.0, -5476.222095039141, 0.0, 0.0, 0.0, 0.0, -2629.861549122518, 0.0]
['beep', 0.0, -5475.886818872312, 0.0, 0.0, 0.0, 0.0, -2629.459217722323, 0.0]
['beep', 0.0, -5475.506839216571, 0.0, 0.0, 0.0, 0.0, -2630.509749711722, 0.0]
['beep', 0.0, -5476.155039805775, 0.0, 0.0, 0.0, 0.0, -2630.6662119229095, 0.0]
['beep', 0.0, -5477.116164817353, 0.0, 0.0, 0.0, 0.0, -2629.325107255591, 0.0]
['beep', 0.0, -5475.149211305286, 0.0, 0.0, 0.0, 0.0, -2628.1404647994596, 0.0]
['beep', 0.0, -5473.741051404602, 0.0, 0.0, 0.0, 0.0, -2623.5583571861216, 0.0]
['beep', 0.0, -5473.808106637968, 0.0, 0.0, 0.0, 0.0, -2584.7333770672535, 0.0]
['beep', 0.0, -5474.9703973496435, 0.0, 0.0, 0.0, 0.0, -2556.011385442184, 0.0]
['beep', 0.0, -5475.976225850132, 0.0, 0.0, 0.0, 0.0, -2591.7965283151307, 0.0]
['beep', 0.0, -5475.328025260928, 0.0, 0.0, 0.0, 0.0, -2625.637069420465, 0.0]
['beep', 0.0, -5472.467001970649, 0.0, 0.0, 0.0, 0.0, -2626.844063621052, 0.0]
['beep', 0.0, -5473.450478726683, 0.0, 0.0, 0.0, 0.0, -2628.587499688566, 0.0]
['beep', 0.0, -5475.216266538652, 0.0, 0.0, 0.0, 0.0, -2629.168645044404, 0.0]
['beep', 0.0, -5477.026757839532, 0.0, 0.0, 0.0, 0.0, -2627.514615954711, 0.0]
['beep', 0.0, -5475.819763638945, 0.0, 0.0, 0.0, 0.0, -2627.1793397878814, 0.0]
['beep', 0.0, -5474.568065949448, 0.0, 0.0, 0.0, 0.0, -2627.849892121541, 0.0]
['beep', 0.0, -5475.216266538652, 0.0, 0.0, 0.0, 0.0, -2628.811017133119, 0.0]
['beep', 0.0, -5476.780888650524, 0.0, 0.0, 0.0, 0.0, -2628.7216101552976, 0.0]
['beep', 0.0, -5477.809068895468, 0.0, 0.0, 0.0, 0.0, -2628.4757409662893, 0.0]
['beep', 0.0, -5474.635121182814, 0.0, 0.0, 0.0, 0.0, -2627.715781654809, 0.0]
['beep', 0.0, -5473.450478726683, 0.0, 0.0, 0.0, 0.0, -2627.201691532337, 0.0]
['beep', 0.0, -5475.104507816375, 0.0, 0.0, 0.0, 0.0, -2626.6652496654096, 0.0]
['beep', 0.0, -5477.093813072898, 0.0, 0.0, 0.0, 0.0, -2626.419380476401, 0.0]
['beep', 0.0, -5478.881952629323, 0.0, 0.0, 0.0, 0.0, -2627.581671188077, 0.0]
['beep', 0.0, -5477.071461328443, 0.0, 0.0, 0.0, 0.0, -2627.4699124658005, 0.0]
['beep', 0.0, -5476.758536906068, 0.0, 0.0, 0.0, 0.0, -2626.3076217541247, 0.0]
['beep', 0.0, -5474.232789782619, 0.0, 0.0, 0.0, 0.0, -2598.010313273706, 0.0]
['beep', 0.0, -5473.361071748862, 0.0, 0.0, 0.0, 0.0, -2555.02790868615, 0.0]
['beep', 0.0, -5476.535019461515, 0.0, 0.0, 0.0, 0.0, -2582.229981688259, 0.0]
['beep', 0.0, -5475.46213572766, 0.0, 0.0, 0.0, 0.0, -2622.396066474446, 0.0]
['beep', 0.0, -5472.556408948471, 0.0, 0.0, 0.0, 0.0, -2623.1113222970157, 0.0]
['beep', 0.0, -5471.751746148079, 0.0, 0.0, 0.0, 0.0, -2625.1453310424486, 0.0]
['beep', 0.0, -5473.9422171047, 0.0, 0.0, 0.0, 0.0, -2623.8042263751304, 0.0]
['beep', 0.0, -5477.384385750817, 0.0, 0.0, 0.0, 0.0, -2623.290136252658, 0.0]
['beep', 0.0, -5477.339682261906, 0.0, 0.0, 0.0, 0.0, -2622.7983978746415, 0.0]
['beep', 0.0, -5476.400908994783, 0.0, 0.0, 0.0, 0.0, -2621.837272863063, 0.0]
['beep', 0.0, -5476.602074694882, 0.0, 0.0, 0.0, 0.0, -2622.8878048524625, 0.0]
['beep', 0.0, -5477.116164817353, 0.0, 0.0, 0.0, 0.0, -2624.6312409199763, 0.0]
['beep', 0.0, -5478.233752040119, 0.0, 0.0, 0.0, 0.0, -2624.586537431066, 0.0]
['beep', 0.0, -5477.22792353963, 0.0, 0.0, 0.0, 0.0, -2622.9101565969177, 0.0]
['beep', 0.0, -5474.925693860733, 0.0, 0.0, 0.0, 0.0, -2622.7983978746415, 0.0]
['beep', 0.0, -5474.456307227172, 0.0, 0.0, 0.0, 0.0, -2625.1229792979934, 0.0]
['beep', 0.0, -5476.535019461515, 0.0, 0.0, 0.0, 0.0, -2624.586537431066, 0.0]
['beep', 0.0, -5478.680786929225, 0.0, 0.0, 0.0, 0.0, -2623.42424671939, 0.0]
['beep', 0.0, -5475.305673516474, 0.0, 0.0, 0.0, 0.0, -2624.7877031311637, 0.0]
['beep', 0.0, -5477.250275284086, 0.0, 0.0, 0.0, 0.0, -2622.038438563161, 0.0]
['beep', 0.0, -5476.624426439336, 0.0, 0.0, 0.0, 0.0, -2591.3718451704794, 0.0]
['beep', 0.0, -5475.551542705482, 0.0, 0.0, 0.0, 0.0, -2551.5410365511225, 0.0]
['beep', 0.0, -5474.1433828047975, 0.0, 0.0, 0.0, 0.0, -2577.6925775638315, 0.0]
['beep', 0.0, -5473.048147326487, 0.0, 0.0, 0.0, 0.0, -2620.674982151387, 0.0]
['beep', 0.0, -5474.65747292727, 0.0, 0.0, 0.0, 0.0, -2622.3066594966244, 0.0]
['beep', 0.0, -5478.300807273485, 0.0, 0.0, 0.0, 0.0, -2623.4913019527557, 0.0]
['beep', 0.0, -5476.535019461515, 0.0, 0.0, 0.0, 0.0, -2623.5583571861216, 0.0]
['beep', 0.0, -5474.880990371823, 0.0, 0.0, 0.0, 0.0, -2624.742999642253, 0.0]
['beep', 0.0, -5475.238618283108, 0.0, 0.0, 0.0, 0.0, -2624.2512612642363, 0.0]
['beep', 0.0, -5473.696347915691, 0.0, 0.0, 0.0, 0.0, -2622.5525286856328, 0.0]
['beep', 0.0, -5473.361071748862, 0.0, 0.0, 0.0, 0.0, -2621.9266798408844, 0.0]
['beep', 0.0, -5476.065632827954, 0.0, 0.0, 0.0, 0.0, -2623.42424671939, 0.0]
['beep', 0.0, -5476.1997432946855, 0.0, 0.0, 0.0, 0.0, -2623.4018949749347, 0.0]
['beep', 0.0, -5476.13268806132, 0.0, 0.0, 0.0, 0.0, -2621.0549618071273, 0.0]
['beep', 0.0, -5474.478658971627, 0.0, 0.0, 0.0, 0.0, -2618.0151245612055, 0.0]
['beep', 0.0, -5473.60694093787, 0.0, 0.0, 0.0, 0.0, -2599.3737696854796, 0.0]
['beep', 0.0, -5476.535019461515, 0.0, 0.0, 0.0, 0.0, -2552.5468650516113, 0.0]
['beep', 0.0, -5477.22792353963, 0.0, 0.0, 0.0, 0.0, -2570.1376879379377, 0.0]
['beep', 0.0, -5474.545714204993, 0.0, 0.0, 0.0, 0.0, -2616.428150704879, 0.0]
['beep', 0.0, -5474.344548504895, 0.0, 0.0, 0.0, 0.0, -2622.060790307616, 0.0]
['beep', 0.0, -5475.171563049742, 0.0, 0.0, 0.0, 0.0, -2622.753694385731, 0.0]
['beep', 0.0, -5474.568065949448, 0.0, 0.0, 0.0, 0.0, -2624.9218135978954, 0.0]
['beep', 0.0, -5476.155039805775, 0.0, 0.0, 0.0, 0.0, -2624.9888688312612, 0.0]
['beep', 0.0, -5473.696347915691, 0.0, 0.0, 0.0, 0.0, -2625.1229792979934, 0.0]
['beep', 0.0, -5471.505876959071, 0.0, 0.0, 0.0, 0.0, -2623.5583571861216, 0.0]
['beep', 0.0, -5473.003443837577, 0.0, 0.0, 0.0, 0.0, -2621.837272863063, 0.0]
['beep', 0.0, -5476.825592139434, 0.0, 0.0, 0.0, 0.0, -2623.5136536972113, 0.0]
['beep', 0.0, -5475.551542705482, 0.0, 0.0, 0.0, 0.0, -2625.301793253636, 0.0]
['beep', 0.0, -5474.433955482717, 0.0, 0.0, 0.0, 0.0, -2623.8042263751304, 0.0]
['beep', 0.0, -5473.60694093787, 0.0, 0.0, 0.0, 0.0, -2623.334839741569, 0.0]
['beep', 0.0, -5475.0821560719205, 0.0, 0.0, 0.0, 0.0, -2624.4300752198787, 0.0]
['beep', 0.0, -5477.585551450915, 0.0, 0.0, 0.0, 0.0, -2625.3688484870017, 0.0]
['beep', 0.0, -5475.2609700275625, 0.0, 0.0, 0.0, 0.0, -2625.346496742546, 0.0]
['beep', 0.0, -5472.7352229041135, 0.0, 0.0, 0.0, 0.0, -2624.385371730968, 0.0]
['beep', 0.0, -5470.70121415868, 0.0, 0.0, 0.0, 0.0, -2624.3406682420577, 0.0]
['beep', 0.0, -5471.081193814421, 0.0, 0.0, 0.0, 0.0, -2624.608889175521, 0.0]
['beep', 0.0, -5471.639987425803, 0.0, 0.0, 0.0, 0.0, -2625.4806072092783, 0.0]
['beep', 0.0, -5473.629292682325, 0.0, 0.0, 0.0, 0.0, -2624.7653513867085, 0.0]
['beep', 0.0, -5475.216266538652, 0.0, 0.0, 0.0, 0.0, -2622.686639152365, 0.0]
['beep', 0.0, -5473.98692059361, 0.0, 0.0, 0.0, 0.0, -2615.2435082487477, 0.0]
['beep', 0.0, -5473.517533960049, 0.0, 0.0, 0.0, 0.0, -2568.014272214684, 0.0]
['beep', 0.0, -5474.992749094099, 0.0, 0.0, 0.0, 0.0, -2550.401097583902, 0.0]
['beep', 0.0, -5474.769231649546, 0.0, 0.0, 0.0, 0.0, -2578.743109553231, 0.0]
['beep', 0.0, -5473.741051404602, 0.0, 0.0, 0.0, 0.0, -2622.3066594966244, 0.0]
['beep', 0.0, -5474.478658971627, 0.0, 0.0, 0.0, 0.0, -2626.2405665207584, 0.0]
['beep', 0.0, -5473.919865360244, 0.0, 0.0, 0.0, 0.0, -2625.905290353929, 0.0]
['beep', 0.0, -5473.808106637968, 0.0, 0.0, 0.0, 0.0, -2627.581671188077, 0.0]
['beep', 0.0, -5473.696347915691, 0.0, 0.0, 0.0, 0.0, -2627.626374676988, 0.0]
['beep', 0.0, -5471.37176649234, 0.0, 0.0, 0.0, 0.0, -2627.1346362989707, 0.0]
['beep', 0.0, -5468.734260646613, 0.0, 0.0, 0.0, 0.0, -2627.7604851437195, 0.0]
['beep', 0.0, -5470.902379858778, 0.0, 0.0, 0.0, 0.0, -2627.849892121541, 0.0]
['beep', 0.0, -5473.651644426781, 0.0, 0.0, 0.0, 0.0, -2627.1569880434263, 0.0]
['beep', 0.0, -5473.8528101268785, 0.0, 0.0, 0.0, 0.0, -2627.604022932532, 0.0]
['beep', 0.0, -5475.484487472116, 0.0, 0.0, 0.0, 0.0, -2626.419380476401, 0.0]
['beep', 0.0, -5473.539885704504, 0.0, 0.0, 0.0, 0.0, -2625.7935316316525, 0.0]
['beep', 0.0, -5473.048147326487, 0.0, 0.0, 0.0, 0.0, -2626.1511595429374, 0.0]
['beep', 0.0, -5475.2609700275625, 0.0, 0.0, 0.0, 0.0, -2626.5981944320433, 0.0]
['beep', 0.0, -5474.858638627367, 0.0, 0.0, 0.0, 0.0, -2626.642897920954, 0.0]
['beep', 0.0, -5473.673996171236, 0.0, 0.0, 0.0, 0.0, -2626.687601409865, 0.0]
['beep', 0.0, -5473.249313026585, 0.0, 0.0, 0.0, 0.0, -2626.7323048987755, 0.0]
['beep', 0.0, -5472.355243248373, 0.0, 0.0, 0.0, 0.0, -2626.8664153655072, 0.0]
['beep', 0.0, -5473.8528101268785, 0.0, 0.0, 0.0, 0.0, -2627.067581065605, 0.0]
['beep', 0.0, -5472.556408948471, 0.0, 0.0, 0.0, 0.0, -2628.945127599851, 0.0]
['beep', 0.0, -5473.383423493317, 0.0, 0.0, 0.0, 0.0, -2627.492264210256, 0.0]
['beep', 0.0, -5474.478658971627, 0.0, 0.0, 0.0, 0.0, -2624.027743819683, 0.0]
['beep', 0.0, -5469.22599902463, 0.0, 0.0, 0.0, 0.0, -2626.575842687588, 0.0]
['beep', 0.0, -5473.584589193415, 0.0, 0.0, 0.0, 0.0, -2627.715781654809, 0.0]
['beep', 0.0, -5473.517533960049, 0.0, 0.0, 0.0, 0.0, -2627.9840025882727, 0.0]
['beep', 0.0, -5472.757574648568, 0.0, 0.0, 0.0, 0.0, -2628.207520032826, 0.0]
['beep', 0.0, -5470.902379858778, 0.0, 0.0, 0.0, 0.0, -2628.2745752661917, 0.0]
['beep', 0.0, -5471.170600792241, 0.0, 0.0, 0.0, 0.0, -2627.5369676991663, 0.0]
['beep', 0.0, -5472.422298481739, 0.0, 0.0, 0.0, 0.0, -2625.23473802027, 0.0]
['beep', 0.0, -5472.668167670747, 0.0, 0.0, 0.0, 0.0, -2626.486435709767, 0.0]
['beep', 0.0, -5473.696347915691, 0.0, 0.0, 0.0, 0.0, -2627.514615954711, 0.0]
['beep', 0.0, -5470.120068802842, 0.0, 0.0, 0.0, 0.0, -2625.5253106981886, 0.0]
['beep', 0.0, -5470.120068802842, 0.0, 0.0, 0.0, 0.0, -2603.486490665256, 0.0]
['beep', 0.0, -5473.629292682325, 0.0, 0.0, 0.0, 0.0, -2556.301958120103, 0.0]
['beep', 0.0, -5472.042318825998, 0.0, 0.0, 0.0, 0.0, -2574.451574617812, 0.0]
['beep', 0.0, -5470.410641480761, 0.0, 0.0, 0.0, 0.0, -2621.2561275072253, 0.0]
['beep', 0.0, -5470.231827525119, 0.0, 0.0, 0.0, 0.0, -2624.810054875619, 0.0]
['beep', 0.0, -5468.84601936889, 0.0, 0.0, 0.0, 0.0, -2625.1453310424486, 0.0]
['beep', 0.0, -5469.404812980272, 0.0, 0.0, 0.0, 0.0, -2626.575842687588, 0.0]
['beep', 0.0, -5472.17642929273, 0.0, 0.0, 0.0, 0.0, -2626.5981944320433, 0.0]
['beep', 0.0, -5470.924731603233, 0.0, 0.0, 0.0, 0.0, -2625.346496742546, 0.0]
['beep', 0.0, -5467.057879812465, 0.0, 0.0, 0.0, 0.0, -2623.4913019527557, 0.0]
['beep', 0.0, -5463.906283844267, 0.0, 0.0, 0.0, 0.0, -2625.748828142742, 0.0]
['beep', 0.0, -5466.364975734351, 0.0, 0.0, 0.0, 0.0, -2625.9276420983842, 0.0]
['beep', 0.0, -5473.98692059361, 0.0, 0.0, 0.0, 0.0, -2622.8878048524625, 0.0]
['beep', 0.0, -5473.539885704504, 0.0, 0.0, 0.0, 0.0, -2624.1618542864153, 0.0]
['beep', 0.0, -5471.617635681348, 0.0, 0.0, 0.0, 0.0, -2624.094799053049, 0.0]
['beep', 0.0, -5470.343586247395, 0.0, 0.0, 0.0, 0.0, -2624.005392075228, 0.0]
['beep', 0.0, -5473.137554304309, 0.0, 0.0, 0.0, 0.0, -2623.8265781195855, 0.0]
['beep', 0.0, -5475.328025260928, 0.0, 0.0, 0.0, 0.0, -2623.5583571861216, 0.0]
['beep', 0.0, -5474.255141527074, 0.0, 0.0, 0.0, 0.0, -2621.3455344850463, 0.0]
['beep', 0.0, -5468.935426346711, 0.0, 0.0, 0.0, 0.0, -2622.619583918999, 0.0]
['beep', 0.0, -5469.829496124923, 0.0, 0.0, 0.0, 0.0, -2622.843101363552, 0.0]
['beep', 0.0, -5470.835324625412, 0.0, 0.0, 0.0, 0.0, -2622.2396042632586, 0.0]
['beep', 0.0, -5472.578760692926, 0.0, 0.0, 0.0, 0.0, -2622.4407699633566, 0.0]
['beep', 0.0, -5471.952911848177, 0.0, 0.0, 0.0, 0.0, -2621.5243484406888, 0.0]
['beep', 0.0, -5470.410641480761, 0.0, 0.0, 0.0, 0.0, -2619.646801906443, 0.0]
['beep', 0.0, -5471.41646998125, 0.0, 0.0, 0.0, 0.0, -2621.2784792516804, 0.0]
['beep', 0.0, -5473.249313026585, 0.0, 0.0, 0.0, 0.0, -2623.08897055256, 0.0]
['beep', 0.0, -5471.595283936892, 0.0, 0.0, 0.0, 0.0, -2620.652630406932, 0.0]
['beep', 0.0, -5471.505876959071, 0.0, 0.0, 0.0, 0.0, -2620.093836795549, 0.0]
['beep', 0.0, -5469.2707025135405, 0.0, 0.0, 0.0, 0.0, -2619.512691439711, 0.0]
['beep', 0.0, -5467.773135635035, 0.0, 0.0, 0.0, 0.0, -2621.166720529404, 0.0]
['beep', 0.0, -5472.198781037186, 0.0, 0.0, 0.0, 0.0, -2621.9490315853395, 0.0]
['beep', 0.0, -5473.785754893513, 0.0, 0.0, 0.0, 0.0, -2622.6642874079093, 0.0]
['beep', 0.0, -5471.349414747884, 0.0, 0.0, 0.0, 0.0, -2621.5019966962336, 0.0]
['beep', 0.0, -5469.784792636013, 0.0, 0.0, 0.0, 0.0, -2619.5797466730774, 0.0]
['beep', 0.0, -5470.768269392046, 0.0, 0.0, 0.0, 0.0, -2621.5019966962336, 0.0]
['beep', 0.0, -5471.260007770063, 0.0, 0.0, 0.0, 0.0, -2622.9548600858284, 0.0]
['beep', 0.0, -5472.288188015007, 0.0, 0.0, 0.0, 0.0, -2623.8489298640407, 0.0]
['beep', 0.0, -5473.338720004406, 0.0, 0.0, 0.0, 0.0, -2622.5078251967225, 0.0]
['beep', 0.0, -5467.8625426128565, 0.0, 0.0, 0.0, 0.0, -2621.9043280964293, 0.0]
['beep', 0.0, -5469.315406002451, 0.0, 0.0, 0.0, 0.0, -2593.674074849376, 0.0]
['beep', 0.0, -5472.645815926292, 0.0, 0.0, 0.0, 0.0, -2549.0152894276725, 0.0]
['beep', 0.0, -5472.534057204015, 0.0, 0.0, 0.0, 0.0, -2570.718833293776, 0.0]
['beep', 0.0, -5471.125897303331, 0.0, 0.0, 0.0, 0.0, -2616.3610954715127, 0.0]
['beep', 0.0, -5468.756612391068, 0.0, 0.0, 0.0, 0.0, -2620.4961681957448, 0.0]
['beep', 0.0, -5469.695385658191, 0.0, 0.0, 0.0, 0.0, -2619.80326411763, 0.0]
['beep', 0.0, -5471.215304281152, 0.0, 0.0, 0.0, 0.0, -2622.4631217078118, 0.0]
['beep', 0.0, -5469.069536813443, 0.0, 0.0, 0.0, 0.0, -2622.843101363552, 0.0]
['beep', 0.0, -5466.990824579099, 0.0, 0.0, 0.0, 0.0, -2621.4349414628678, 0.0]
['beep', 0.0, -5467.639025168303, 0.0, 0.0, 0.0, 0.0, -2620.809092618119, 0.0]
['beep', 0.0, -5468.287225757507, 0.0, 0.0, 0.0, 0.0, -2619.5573949286218, 0.0]
['beep', 0.0, -5471.081193814421, 0.0, 0.0, 0.0, 0.0, -2619.2444705062476, 0.0]
['beep', 0.0, -5471.952911848177, 0.0, 0.0, 0.0, 0.0, -2620.2055955178257, 0.0]
['beep', 0.0, -5470.835324625412, 0.0, 0.0, 0.0, 0.0, -2620.3397059845574, 0.0]
['beep', 0.0, -5468.488391457605, 0.0, 0.0, 0.0, 0.0, -2620.227947262281, 0.0]
['beep', 0.0, -5470.120068802842, 0.0, 0.0, 0.0, 0.0, -2619.780912373175, 0.0]
['beep', 0.0, -5472.17642929273, 0.0, 0.0, 0.0, 0.0, -2621.2784792516804, 0.0]
['beep', 0.0, -5472.042318825998, 0.0, 0.0, 0.0, 0.0, -2621.457293207323, 0.0]
['beep', 0.0, -5473.249313026585, 0.0, 0.0, 0.0, 0.0, -2622.2396042632586, 0.0]
['beep', 0.0, -5472.288188015007, 0.0, 0.0, 0.0, 0.0, -2622.038438563161, 0.0]
['beep', 0.0, -5469.762440891557, 0.0, 0.0, 0.0, 0.0, -2620.4738164512896, 0.0]
['beep', 0.0, -5472.399946737283, 0.0, 0.0, 0.0, 0.0, -2621.770217629697, 0.0]
['beep', 0.0, -5473.696347915691, 0.0, 0.0, 0.0, 0.0, -2621.122017040493, 0.0]
['beep', 0.0, -5475.0821560719205, 0.0, 0.0, 0.0, 0.0, -2619.80326411763, 0.0]
['beep', 0.0, -5472.198781037186, 0.0, 0.0, 0.0, 0.0, -2621.837272863063, 0.0]
['beep', 0.0, -5470.790621136502, 0.0, 0.0, 0.0, 0.0, -2622.5078251967225, 0.0]
['beep', 0.0, -5472.869333370845, 0.0, 0.0, 0.0, 0.0, -2622.1725490298927, 0.0]
