['beep', 0.0, -4976.861772163126, 0.0, 0.0, 0.0, 0.0, -3553.5473887380826, 0.0]
['beep', 0.0, -4977.465269263419, 0.0, 0.0, 0.0, 0.0, -3553.9050166493676, 0.0]
['beep', 0.0, -4976.928827396492, 0.0, 0.0, 0.0, 0.0, -3553.2121125712533, 0.0]
['beep', 0.0, -4977.0852896076785, 0.0, 0.0, 0.0, 0.0, -3552.9885951267, 0.0]
['beep', 0.0, -4976.548847740752, 0.0, 0.0, 0.0, 0.0, -3554.6202724719374, 0.0]
['beep', 0.0, -4977.621731474606, 0.0, 0.0, 0.0, 0.0, -3554.0391271160993, 0.0]
['beep', 0.0, -4975.811240173726, 0.0, 0.0, 0.0, 0.0, -3554.441458516295, 0.0]
['beep', 0.0, -4976.235923318377, 0.0, 0.0, 0.0, 0.0, -3553.0109468711553, 0.0]
['beep', 0.0, -4976.034757618279, 0.0, 0.0, 0.0, 0.0, -3552.8768364044236, 0.0]
['beep', 0.0, -4976.772365185305, 0.0, 0.0, 0.0, 0.0, -3553.7485544381807, 0.0]
['beep', 0.0, -4976.280626807288, 0.0, 0.0, 0.0, 0.0, -3553.502685249172, 0.0]
['beep', 0.0, -4975.811240173726, 0.0, 0.0, 0.0, 0.0, -3553.5473887380826, 0.0]
['beep', 0.0, -4975.922998896003, 0.0, 0.0, 0.0, 0.0, -3552.7203741932362, 0.0]
['beep', 0.0, -4976.302978551743, 0.0, 0.0, 0.0, 0.0, -3554.396755027384, 0.0]
['beep', 0.0, -4977.465269263419, 0.0, 0.0, 0.0, 0.0, -3553.636795715904, 0.0]
['beep', 0.0, -4977.331158796687, 0.0, 0.0, 0.0, 0.0, -3552.318042793041, 0.0]
['beep', 0.0, -4977.241751818866, 0.0, 0.0, 0.0, 0.0, -3553.413278271351, 0.0]
['beep', 0.0, -4977.644083219062, 0.0, 0.0, 0.0, 0.0, -3555.044955616588, 0.0]
['beep', 0.0, -4978.404042530542, 0.0, 0.0, 0.0, 0.0, -3554.1285340939207, 0.0]
['beep', 0.0, -4978.694615208461, 0.0, 0.0, 0.0, 0.0, -3552.8991881488787, 0.0]
['beep', 0.0, -4977.979359385891, 0.0, 0.0, 0.0, 0.0, -3553.793257927091, 0.0]
['beep', 0.0, -4977.88995240807, 0.0, 0.0, 0.0, 0.0, -3552.6309672154152, 0.0]
['beep', 0.0, -4977.420565774509, 0.0, 0.0, 0.0, 0.0, -3553.1897608267977, 0.0]
['beep', 0.0, -4977.711138452428, 0.0, 0.0, 0.0, 0.0, -3552.698022448781, 0.0]
['beep', 0.0, -4977.934655896981, 0.0, 0.0, 0.0, 0.0, -3551.736897437203, 0.0]
['beep', 0.0, -4978.761670441827, 0.0, 0.0, 0.0, 0.0, -3553.122705593432, 0.0]
['beep', 0.0, -4979.007539630836, 0.0, 0.0, 0.0, 0.0, -3553.9050166493676, 0.0]
['beep', 0.0, -4978.94048439747, 0.0, 0.0, 0.0, 0.0, -3554.307348049563, 0.0]
['beep', 0.0, -4980.169830342511, 0.0, 0.0, 0.0, 0.0, -3553.3015195490743, 0.0]
['beep', 0.0, -4980.79567918726, 0.0, 0.0, 0.0, 0.0, -3554.4638102607505, 0.0]
['beep', 0.0, -4981.51093500983, 0.0, 0.0, 0.0, 0.0, -3554.441458516295, 0.0]
['beep', 0.0, -4981.577990243196, 0.0, 0.0, 0.0, 0.0, -3553.726202693725, 0.0]
['beep', 0.0, -4979.946312897959, 0.0, 0.0, 0.0, 0.0, -3552.6086154709596, 0.0]
['beep', 0.0, -4980.683920464983, 0.0, 0.0, 0.0, 0.0, -3554.1285340939207, 0.0]
['beep', 0.0, -4982.002673387847, 0.0, 0.0, 0.0, 0.0, -3554.284996305108, 0.0]
['beep', 0.0, -4982.360301299132, 0.0, 0.0, 0.0, 0.0, -3552.787429426602, 0.0]
['beep', 0.0, -4981.89091466557, 0.0, 0.0, 0.0, 0.0, -3552.6086154709596, 0.0]
['beep', 0.0, -4981.242714076366, 0.0, 0.0, 0.0, 0.0, -3552.9215398933343, 0.0]
['beep', 0.0, -4980.527458253796, 0.0, 0.0, 0.0, 0.0, -3553.055650360066, 0.0]
['beep', 0.0, -4980.885086165081, 0.0, 0.0, 0.0, 0.0, -3553.4579817602616, 0.0]
['beep', 0.0, -4981.421528032009, 0.0, 0.0, 0.0, 0.0, -3553.6144439714485, 0.0]
['beep', 0.0, -4980.102775109145, 0.0, 0.0, 0.0, 0.0, -3552.0721736040323, 0.0]
['beep', 0.0, -4979.186353586478, 0.0, 0.0, 0.0, 0.0, -3553.122705593432, 0.0]
['beep', 0.0, -4978.761670441827, 0.0, 0.0, 0.0, 0.0, -3553.145057337887, 0.0]
['beep', 0.0, -4979.6110367311285, 0.0, 0.0, 0.0, 0.0, -3551.9380631373006, 0.0]
['beep', 0.0, -4980.326292553698, 0.0, 0.0, 0.0, 0.0, -3552.787429426602, 0.0]
['beep', 0.0, -4980.169830342511, 0.0, 0.0, 0.0, 0.0, -3553.770906182636, 0.0]
['beep', 0.0, -4981.063900120724, 0.0, 0.0, 0.0, 0.0, -3552.429801515317, 0.0]
['beep', 0.0, -4980.348644298154, 0.0, 0.0, 0.0, 0.0, -3553.9497201382783, 0.0]
['beep', 0.0, -4979.879257664592, 0.0, 0.0, 0.0, 0.0, -3552.7203741932362, 0.0]
['beep', 0.0, -4980.438051275975, 0.0, 0.0, 0.0, 0.0, -3552.1615805818537, 0.0]
['beep', 0.0, -4979.119298353112, 0.0, 0.0, 0.0, 0.0, -3551.669842203837, 0.0]
['beep', 0.0, -4978.7840221862825, 0.0, 0.0, 0.0, 0.0, -3550.9545863812673, 0.0]
['beep', 0.0, -4978.716966952917, 0.0, 0.0, 0.0, 0.0, -3552.9438916377894, 0.0]
['beep', 0.0, -4979.923961153503, 0.0, 0.0, 0.0, 0.0, -3552.2062840707645, 0.0]
['beep', 0.0, -4979.409871031031, 0.0, 0.0, 0.0, 0.0, -3552.094525348488, 0.0]
['beep', 0.0, -4978.918132653014, 0.0, 0.0, 0.0, 0.0, -3553.793257927091, 0.0]
['beep', 0.0, -4978.336987297176, 0.0, 0.0, 0.0, 0.0, -3553.6814992048144, 0.0]
['beep', 0.0, -4978.091118108167, 0.0, 0.0, 0.0, 0.0, -3554.6873277053032, 0.0]
['beep', 0.0, -4978.515801252818, 0.0, 0.0, 0.0, 0.0, -3554.08383060501, 0.0]
['beep', 0.0, -4979.9016094090475, 0.0, 0.0, 0.0, 0.0, -3553.9497201382783, 0.0]
['beep', 0.0, -4980.438051275975, 0.0, 0.0, 0.0, 0.0, -3553.636795715904, 0.0]
['beep', 0.0, -4980.616865231617, 0.0, 0.0, 0.0, 0.0, -3553.2121125712533, 0.0]
['beep', 0.0, -4979.499278008852, 0.0, 0.0, 0.0, 0.0, -3553.055650360066, 0.0]
['beep', 0.0, -4978.739318697371, 0.0, 0.0, 0.0, 0.0, -3552.8768364044236, 0.0]
['beep', 0.0, -4978.828725675193, 0.0, 0.0, 0.0, 0.0, -3554.08383060501, 0.0]
['beep', 0.0, -4979.812202431226, 0.0, 0.0, 0.0, 0.0, -3554.1955893272866, 0.0]
['beep', 0.0, -4979.4322227754865, 0.0, 0.0, 0.0, 0.0, -3552.9438916377894, 0.0]
['beep', 0.0, -4978.873429164103, 0.0, 0.0, 0.0, 0.0, -3553.793257927091, 0.0]
['beep', 0.0, -4979.6110367311285, 0.0, 0.0, 0.0, 0.0, -3554.5532172385715, 0.0]
['beep', 0.0, -4980.035719875779, 0.0, 0.0, 0.0, 0.0, -3553.502685249172, 0.0]
['beep', 0.0, -4979.879257664592, 0.0, 0.0, 0.0, 0.0, -3554.6202724719374, 0.0]
['beep', 0.0, -4977.621731474606, 0.0, 0.0, 0.0, 0.0, -3554.9779003832223, 0.0]
['beep', 0.0, -4977.957007641436, 0.0, 0.0, 0.0, 0.0, -3554.352051538474, 0.0]
['beep', 0.0, -4979.4322227754865, 0.0, 0.0, 0.0, 0.0, -3553.346223037985, 0.0]
['beep', 0.0, -4980.035719875779, 0.0, 0.0, 0.0, 0.0, -3555.089659105499, 0.0]
['beep', 0.0, -4979.946312897959, 0.0, 0.0, 0.0, 0.0, -3553.5697404825382, 0.0]
['beep', 0.0, -4981.7791559432935, 0.0, 0.0, 0.0, 0.0, -3552.5192084931386, 0.0]
['beep', 0.0, -4980.728623953894, 0.0, 0.0, 0.0, 0.0, -3551.9380631373006, 0.0]
['beep', 0.0, -4981.220362331911, 0.0, 0.0, 0.0, 0.0, -3552.385098026407, 0.0]
['beep', 0.0, -4980.8403826761705, 0.0, 0.0, 0.0, 0.0, -3553.8826649049124, 0.0]
['beep', 0.0, -4980.907437909536, 0.0, 0.0, 0.0, 0.0, -3554.396755027384, 0.0]
['beep', 0.0, -4981.019196631813, 0.0, 0.0, 0.0, 0.0, -3553.70385094927, 0.0]
['beep', 0.0, -4979.923961153503, 0.0, 0.0, 0.0, 0.0, -3552.6309672154152, 0.0]
['beep', 0.0, -4978.60520823064, 0.0, 0.0, 0.0, 0.0, -3553.636795715904, 0.0]
['beep', 0.0, -4979.9016094090475, 0.0, 0.0, 0.0, 0.0, -3555.402583527873, 0.0]
['beep', 0.0, -4978.895780908559, 0.0, 0.0, 0.0, 0.0, -3553.2568160601636, 0.0]
['beep', 0.0, -4978.202876830444, 0.0, 0.0, 0.0, 0.0, -3552.742725937692, 0.0]
['beep', 0.0, -4978.2252285749, 0.0, 0.0, 0.0, 0.0, -3552.9885951267, 0.0]
['beep', 0.0, -4979.4322227754865, 0.0, 0.0, 0.0, 0.0, -3552.7203741932362, 0.0]
['beep', 0.0, -4981.019196631813, 0.0, 0.0, 0.0, 0.0, -3551.7816009261137, 0.0]
['beep', 0.0, -4980.058071620235, 0.0, 0.0, 0.0, 0.0, -3552.9885951267, 0.0]
['beep', 0.0, -4979.812202431226, 0.0, 0.0, 0.0, 0.0, -3552.7203741932362, 0.0]
['beep', 0.0, -4979.096946608656, 0.0, 0.0, 0.0, 0.0, -3552.675670704326, 0.0]
['beep', 0.0, -4980.058071620235, 0.0, 0.0, 0.0, 0.0, -3553.346223037985, 0.0]
['beep', 0.0, -4979.9016094090475, 0.0, 0.0, 0.0, 0.0, -3554.1955893272866, 0.0]
['beep', 0.0, -4979.208705330933, 0.0, 0.0, 0.0, 0.0, -3553.413278271351, 0.0]
['beep', 0.0, -4978.649911719551, 0.0, 0.0, 0.0, 0.0, -3553.6814992048144, 0.0]
['beep', 0.0, -4979.4322227754865, 0.0, 0.0, 0.0, 0.0, -3553.5697404825382, 0.0]
['beep', 0.0, -4980.79567918726, 0.0, 0.0, 0.0, 0.0, -3553.480333504717, 0.0]
['beep', 0.0, -4980.974493142902, 0.0, 0.0, 0.0, 0.0, -3553.9497201382783, 0.0]
['beep', 0.0, -4980.058071620235, 0.0, 0.0, 0.0, 0.0, -3554.41910677184, 0.0]
['beep', 0.0, -4979.186353586478, 0.0, 0.0, 0.0, 0.0, -3551.51337999265, 0.0]
['beep', 0.0, -4979.476926264397, 0.0, 0.0, 0.0, 0.0, -3551.6921939482922, 0.0]
['beep', 0.0, -4980.438051275975, 0.0, 0.0, 0.0, 0.0, -3553.4579817602616, 0.0]
['beep', 0.0, -4980.41569953152, 0.0, 0.0, 0.0, 0.0, -3553.793257927091, 0.0]
['beep', 0.0, -4980.46040302043, 0.0, 0.0, 0.0, 0.0, -3552.407449770862, 0.0]
['beep', 0.0, -4980.393347787064, 0.0, 0.0, 0.0, 0.0, -3551.401621270373, 0.0]
['beep', 0.0, -4980.3709960426095, 0.0, 0.0, 0.0, 0.0, -3553.122705593432, 0.0]
['beep', 0.0, -4981.063900120724, 0.0, 0.0, 0.0, 0.0, -3552.6309672154152, 0.0]
['beep', 0.0, -4980.728623953894, 0.0, 0.0, 0.0, 0.0, -3550.5969584699824, 0.0]
['beep', 0.0, -4980.3709960426095, 0.0, 0.0, 0.0, 0.0, -3549.479371247217, 0.0]
['beep', 0.0, -4979.320464053209, 0.0, 0.0, 0.0, 0.0, -3552.0051183706664, 0.0]
['beep', 0.0, -4980.102775109145, 0.0, 0.0, 0.0, 0.0, -3553.6591474603592, 0.0]
['beep', 0.0, -4980.102775109145, 0.0, 0.0, 0.0, 0.0, -3553.5250369936275, 0.0]
['beep', 0.0, -4980.996844887358, 0.0, 0.0, 0.0, 0.0, -3553.6814992048144, 0.0]
['beep', 0.0, -4980.527458253796, 0.0, 0.0, 0.0, 0.0, -3554.08383060501, 0.0]
['beep', 0.0, -4979.231057075388, 0.0, 0.0, 0.0, 0.0, -3552.6309672154152, 0.0]
['beep', 0.0, -4979.208705330933, 0.0, 0.0, 0.0, 0.0, -3552.6533189598704, 0.0]
['beep', 0.0, -4978.98518788638, 0.0, 0.0, 0.0, 0.0, -3552.6309672154152, 0.0]
['beep', 0.0, -4980.773327442805, 0.0, 0.0, 0.0, 0.0, -3551.960414881756, 0.0]
['beep', 0.0, -4980.527458253796, 0.0, 0.0, 0.0, 0.0, -3552.6309672154152, 0.0]
['beep', 0.0, -4981.063900120724, 0.0, 0.0, 0.0, 0.0, -3552.2286358152196, 0.0]
['beep', 0.0, -4981.466231520919, 0.0, 0.0, 0.0, 0.0, -3551.9157113928454, 0.0]
['beep', 0.0, -4981.287417565277, 0.0, 0.0, 0.0, 0.0, -3552.407449770862, 0.0]
['beep', 0.0, -4980.952141398447, 0.0, 0.0, 0.0, 0.0, -3552.9885951267, 0.0]
['beep', 0.0, -4979.275760564299, 0.0, 0.0, 0.0, 0.0, -3553.435630015806, 0.0]
['beep', 0.0, -4976.146516340556, 0.0, 0.0, 0.0, 0.0, -3551.9380631373006, 0.0]
['beep', 0.0, -4975.721833195906, 0.0, 0.0, 0.0, 0.0, -3550.485199747706, 0.0]
['beep', 0.0, -4975.274798306799, 0.0, 0.0, 0.0, 0.0, -3551.155752081365, 0.0]
['beep', 0.0, -4975.74418494036, 0.0, 0.0, 0.0, 0.0, -3549.70288869177, 0.0]
['beep', 0.0, -4976.772365185305, 0.0, 0.0, 0.0, 0.0, -3549.3676125249403, 0.0]
['beep', 0.0, -4977.621731474606, 0.0, 0.0, 0.0, 0.0, -3551.2228073147307, 0.0]
['beep', 0.0, -4979.342815797665, 0.0, 0.0, 0.0, 0.0, -3552.2956910485855, 0.0]
['beep', 0.0, -4980.281589064788, 0.0, 0.0, 0.0, 0.0, -3552.318042793041, 0.0]
['beep', 0.0, -4981.399176287553, 0.0, 0.0, 0.0, 0.0, -3551.6251387149264, 0.0]
['beep', 0.0, -4981.108603609634, 0.0, 0.0, 0.0, 0.0, -3552.2286358152196, 0.0]
['beep', 0.0, -4980.6615687205285, 0.0, 0.0, 0.0, 0.0, -3552.407449770862, 0.0]
['beep', 0.0, -4980.974493142902, 0.0, 0.0, 0.0, 0.0, -3552.2956910485855, 0.0]
['beep', 0.0, -4981.287417565277, 0.0, 0.0, 0.0, 0.0, -3553.346223037985, 0.0]
['beep', 0.0, -4983.142612355067, 0.0, 0.0, 0.0, 0.0, -3551.2451590591863, 0.0]
['beep', 0.0, -4982.94144665497, 0.0, 0.0, 0.0, 0.0, -3551.736897437203, 0.0]
['beep', 0.0, -4982.807336188238, 0.0, 0.0, 0.0, 0.0, -3551.111048592454, 0.0]
['beep', 0.0, -4981.600341987651, 0.0, 0.0, 0.0, 0.0, -3550.708717192259, 0.0]
['beep', 0.0, -4981.622693732106, 0.0, 0.0, 0.0, 0.0, -3552.8097811710577, 0.0]
['beep', 0.0, -4984.260199577832, 0.0, 0.0, 0.0, 0.0, -3553.3015195490743, 0.0]
['beep', 0.0, -4982.583818743685, 0.0, 0.0, 0.0, 0.0, -3551.7145456927474, 0.0]
['beep', 0.0, -4982.248542576855, 0.0, 0.0, 0.0, 0.0, -3552.1392288373986, 0.0]
['beep', 0.0, -4982.203839087944, 0.0, 0.0, 0.0, 0.0, -3551.669842203837, 0.0]
['beep', 0.0, -4982.293246065766, 0.0, 0.0, 0.0, 0.0, -3552.4968567486835, 0.0]
['beep', 0.0, -4983.455536777441, 0.0, 0.0, 0.0, 0.0, -3554.396755027384, 0.0]
['beep', 0.0, -4982.628522232595, 0.0, 0.0, 0.0, 0.0, -3553.9720718827334, 0.0]
['beep', 0.0, -4981.443879776464, 0.0, 0.0, 0.0, 0.0, -3552.2733393041303, 0.0]
['beep', 0.0, -4981.980321643391, 0.0, 0.0, 0.0, 0.0, -3551.0439933590883, 0.0]
['beep', 0.0, -4982.472060021408, 0.0, 0.0, 0.0, 0.0, -3551.6921939482922, 0.0]
['beep', 0.0, -4983.187315843978, 0.0, 0.0, 0.0, 0.0, -3552.452153259773, 0.0]
['beep', 0.0, -4983.388481544075, 0.0, 0.0, 0.0, 0.0, -3552.832132915513, 0.0]
['beep', 0.0, -4983.522592010808, 0.0, 0.0, 0.0, 0.0, -3552.787429426602, 0.0]
['beep', 0.0, -4982.919094910514, 0.0, 0.0, 0.0, 0.0, -3552.1615805818537, 0.0]
['beep', 0.0, -4983.634350733084, 0.0, 0.0, 0.0, 0.0, -3552.385098026407, 0.0]
['beep', 0.0, -4983.410833288531, 0.0, 0.0, 0.0, 0.0, -3552.6533189598704, 0.0]
['beep', 0.0, -4983.410833288531, 0.0, 0.0, 0.0, 0.0, -3552.2062840707645, 0.0]
['beep', 0.0, -4983.388481544075, 0.0, 0.0, 0.0, 0.0, -3553.145057337887, 0.0]
['beep', 0.0, -4984.014330388824, 0.0, 0.0, 0.0, 0.0, -3552.9662433822446, 0.0]
['beep', 0.0, -4984.930751911492, 0.0, 0.0, 0.0, 0.0, -3554.5308654941164, 0.0]
['beep', 0.0, -4984.997807144858, 0.0, 0.0, 0.0, 0.0, -3554.2402928161973, 0.0]
['beep', 0.0, -4984.439013533475, 0.0, 0.0, 0.0, 0.0, -3553.390926526896, 0.0]
['beep', 0.0, -4983.74610945536, 0.0, 0.0, 0.0, 0.0, -3552.340394537496, 0.0]
['beep', 0.0, -4982.852039677148, 0.0, 0.0, 0.0, 0.0, -3551.401621270373, 0.0]
['beep', 0.0, -4984.349606555654, 0.0, 0.0, 0.0, 0.0, -3551.669842203837, 0.0]
['beep', 0.0, -4984.41666178902, 0.0, 0.0, 0.0, 0.0, -3553.0109468711553, 0.0]
['beep', 0.0, -4983.5449437552625, 0.0, 0.0, 0.0, 0.0, -3553.122705593432, 0.0]
['beep', 0.0, -4982.2261908324, 0.0, 0.0, 0.0, 0.0, -3552.3627462819513, 0.0]
['beep', 0.0, -4983.567295499718, 0.0, 0.0, 0.0, 0.0, -3552.832132915513, 0.0]
['beep', 0.0, -4983.187315843978, 0.0, 0.0, 0.0, 0.0, -3552.7203741932362, 0.0]
['beep', 0.0, -4983.880219922093, 0.0, 0.0, 0.0, 0.0, -3555.1343625944096, 0.0]
['beep', 0.0, -4982.695577465961, 0.0, 0.0, 0.0, 0.0, -3553.9497201382783, 0.0]
['beep', 0.0, -4982.2261908324, 0.0, 0.0, 0.0, 0.0, -3553.8379614160017, 0.0]
['beep', 0.0, -4981.443879776464, 0.0, 0.0, 0.0, 0.0, -3554.2626445606525, 0.0]
['beep', 0.0, -4980.929789653992, 0.0, 0.0, 0.0, 0.0, -3554.6873277053032, 0.0]
['beep', 0.0, -4981.577990243196, 0.0, 0.0, 0.0, 0.0, -3555.603749227971, 0.0]
['beep', 0.0, -4981.689748965472, 0.0, 0.0, 0.0, 0.0, -3553.636795715904, 0.0]
['beep', 0.0, -4980.750975698349, 0.0, 0.0, 0.0, 0.0, -3553.145057337887, 0.0]
['beep', 0.0, -4980.125126853601, 0.0, 0.0, 0.0, 0.0, -3553.5250369936275, 0.0]
['beep', 0.0, -4981.041548376268, 0.0, 0.0, 0.0, 0.0, -3552.3627462819513, 0.0]
['beep', 0.0, -4981.9579698989355, 0.0, 0.0, 0.0, 0.0, -3553.4579817602616, 0.0]
['beep', 0.0, -4980.79567918726, 0.0, 0.0, 0.0, 0.0, -3554.307348049563, 0.0]
['beep', 0.0, -4980.013368131325, 0.0, 0.0, 0.0, 0.0, -3554.352051538474, 0.0]
['beep', 0.0, -4980.46040302043, 0.0, 0.0, 0.0, 0.0, -3553.2344643157085, 0.0]
['beep', 0.0, -4980.326292553698, 0.0, 0.0, 0.0, 0.0, -3554.374403282929, 0.0]
['beep', 0.0, -4981.287417565277, 0.0, 0.0, 0.0, 0.0, -3555.089659105499, 0.0]
['beep', 0.0, -4980.773327442805, 0.0, 0.0, 0.0, 0.0, -3553.793257927091, 0.0]
['beep', 0.0, -4979.454574519941, 0.0, 0.0, 0.0, 0.0, -3553.3015195490743, 0.0]
['beep', 0.0, -4979.65574022004, 0.0, 0.0, 0.0, 0.0, -3552.675670704326, 0.0]
['beep', 0.0, -4981.063900120724, 0.0, 0.0, 0.0, 0.0, -3553.927368393823, 0.0]
['beep', 0.0, -4981.9579698989355, 0.0, 0.0, 0.0, 0.0, -3555.044955616588, 0.0]
['beep', 0.0, -4981.801507687749, 0.0, 0.0, 0.0, 0.0, -3553.502685249172, 0.0]
['beep', 0.0, -4980.8403826761705, 0.0, 0.0, 0.0, 0.0, -3553.279167804619, 0.0]
['beep', 0.0, -4980.6615687205285, 0.0, 0.0, 0.0, 0.0, -3554.732031194214, 0.0]
['beep', 0.0, -4980.326292553698, 0.0, 0.0, 0.0, 0.0, -3553.9497201382783, 0.0]
['beep', 0.0, -4981.868562921115, 0.0, 0.0, 0.0, 0.0, -3554.6202724719374, 0.0]
['beep', 0.0, -4980.79567918726, 0.0, 0.0, 0.0, 0.0, -3553.70385094927, 0.0]
['beep', 0.0, -4980.058071620235, 0.0, 0.0, 0.0, 0.0, -3553.1897608267977, 0.0]
['beep', 0.0, -4980.952141398447, 0.0, 0.0, 0.0, 0.0, -3554.41910677184, 0.0]
['beep', 0.0, -4982.561466999229, 0.0, 0.0, 0.0, 0.0, -3553.078002104521, 0.0]
['beep', 0.0, -4983.321426310709, 0.0, 0.0, 0.0, 0.0, -3553.770906182636, 0.0]
['beep', 0.0, -4983.5449437552625, 0.0, 0.0, 0.0, 0.0, -3554.3296997940183, 0.0]
['beep', 0.0, -4982.784984443782, 0.0, 0.0, 0.0, 0.0, -3554.5755689830266, 0.0]
['beep', 0.0, -4981.913266410025, 0.0, 0.0, 0.0, 0.0, -3555.357880038963, 0.0]
['beep', 0.0, -4982.069728621213, 0.0, 0.0, 0.0, 0.0, -3554.955548638767, 0.0]
['beep', 0.0, -4982.98615014388, 0.0, 0.0, 0.0, 0.0, -3553.8379614160017, 0.0]
['beep', 0.0, -4982.807336188238, 0.0, 0.0, 0.0, 0.0, -3554.441458516295, 0.0]
['beep', 0.0, -4981.533286754285, 0.0, 0.0, 0.0, 0.0, -3554.374403282929, 0.0]
['beep', 0.0, -4981.354472798643, 0.0, 0.0, 0.0, 0.0, -3554.2402928161973, 0.0]
['beep', 0.0, -4982.561466999229, 0.0, 0.0, 0.0, 0.0, -3554.08383060501, 0.0]
['beep', 0.0, -4981.399176287553, 0.0, 0.0, 0.0, 0.0, -3556.0954876059877, 0.0]
['beep', 0.0, -4981.198010587455, 0.0, 0.0, 0.0, 0.0, -3556.4307637728175, 0.0]
['beep', 0.0, -4980.907437909536, 0.0, 0.0, 0.0, 0.0, -3554.508513749661, 0.0]
['beep', 0.0, -4980.46040302043, 0.0, 0.0, 0.0, 0.0, -3554.8884934054013, 0.0]
['beep', 0.0, -4980.438051275975, 0.0, 0.0, 0.0, 0.0, -3554.7543829386696, 0.0]
['beep', 0.0, -4981.6673972210165, 0.0, 0.0, 0.0, 0.0, -3555.5813974835155, 0.0]
['beep', 0.0, -4981.376824543098, 0.0, 0.0, 0.0, 0.0, -3555.4696387612394, 0.0]
['beep', 0.0, -4980.236885575877, 0.0, 0.0, 0.0, 0.0, -3554.6873277053032, 0.0]
['beep', 0.0, -4980.996844887358, 0.0, 0.0, 0.0, 0.0, -3555.737859694703, 0.0]
['beep', 0.0, -4981.376824543098, 0.0, 0.0, 0.0, 0.0, -3556.0731358615326, 0.0]
['beep', 0.0, -4982.740280954871, 0.0, 0.0, 0.0, 0.0, -3554.016775371644, 0.0]
['beep', 0.0, -4981.51093500983, 0.0, 0.0, 0.0, 0.0, -3553.5250369936275, 0.0]
['beep', 0.0, -4980.259237320332, 0.0, 0.0, 0.0, 0.0, -3555.4249352723286, 0.0]
['beep', 0.0, -4979.02989137529, 0.0, 0.0, 0.0, 0.0, -3553.726202693725, 0.0]
['beep', 0.0, -4979.879257664592, 0.0, 0.0, 0.0, 0.0, -3552.8544846599684, 0.0]
['beep', 0.0, -4981.063900120724, 0.0, 0.0, 0.0, 0.0, -3553.7485544381807, 0.0]
['beep', 0.0, -4981.108603609634, 0.0, 0.0, 0.0, 0.0, -3553.5697404825382, 0.0]
['beep', 0.0, -4981.175658843, 0.0, 0.0, 0.0, 0.0, -3554.2626445606525, 0.0]
['beep', 0.0, -4981.913266410025, 0.0, 0.0, 0.0, 0.0, -3554.016775371644, 0.0]
['beep', 0.0, -4982.472060021408, 0.0, 0.0, 0.0, 0.0, -3554.284996305108, 0.0]
['beep', 0.0, -4982.472060021408, 0.0, 0.0, 0.0, 0.0, -3556.564874239549, 0.0]
['beep', 0.0, -4981.980321643391, 0.0, 0.0, 0.0, 0.0, -3555.7155079502477, 0.0]
['beep', 0.0, -4982.449708276953, 0.0, 0.0, 0.0, 0.0, -3553.9497201382783, 0.0]
['beep', 0.0, -4980.996844887358, 0.0, 0.0, 0.0, 0.0, -3553.078002104521, 0.0]
['beep', 0.0, -4982.002673387847, 0.0, 0.0, 0.0, 0.0, -3553.2121125712533, 0.0]
['beep', 0.0, -4983.455536777441, 0.0, 0.0, 0.0, 0.0, -3555.6261009724262, 0.0]
['beep', 0.0, -4983.299074566255, 0.0, 0.0, 0.0, 0.0, -3555.8049149280687, 0.0]
['beep', 0.0, -4982.6061704881395, 0.0, 0.0, 0.0, 0.0, -3553.078002104521, 0.0]
['beep', 0.0, -4981.756804198838, 0.0, 0.0, 0.0, 0.0, -3553.1897608267977, 0.0]
['beep', 0.0, -4982.516763510319, 0.0, 0.0, 0.0, 0.0, -3554.508513749661, 0.0]
['beep', 0.0, -4982.852039677148, 0.0, 0.0, 0.0, 0.0, -3554.0391271160993, 0.0]
['beep', 0.0, -4983.254371077343, 0.0, 0.0, 0.0, 0.0, -3553.793257927091, 0.0]
['beep', 0.0, -4982.8967431660585, 0.0, 0.0, 0.0, 0.0, -3555.1790660833203, 0.0]
['beep', 0.0, -4982.673225721505, 0.0, 0.0, 0.0, 0.0, -3554.732031194214, 0.0]
['beep', 0.0, -4982.092080365668, 0.0, 0.0, 0.0, 0.0, -3553.994423627189, 0.0]
['beep', 0.0, -4982.516763510319, 0.0, 0.0, 0.0, 0.0, -3554.061478860555, 0.0]
['beep', 0.0, -4983.74610945536, 0.0, 0.0, 0.0, 0.0, -3554.352051538474, 0.0]
['beep', 0.0, -4983.232019332889, 0.0, 0.0, 0.0, 0.0, -3552.5639119820494, 0.0]
['beep', 0.0, -4982.114432110123, 0.0, 0.0, 0.0, 0.0, -3552.116877092943, 0.0]
['beep', 0.0, -4982.561466999229, 0.0, 0.0, 0.0, 0.0, -3551.89335964839, 0.0]
['beep', 0.0, -4983.254371077343, 0.0, 0.0, 0.0, 0.0, -3552.116877092943, 0.0]
['beep', 0.0, -4983.008501888336, 0.0, 0.0, 0.0, 0.0, -3552.9215398933343, 0.0]
['beep', 0.0, -4982.852039677148, 0.0, 0.0, 0.0, 0.0, -3551.51337999265, 0.0]
['beep', 0.0, -4982.360301299132, 0.0, 0.0, 0.0, 0.0, -3552.6086154709596, 0.0]
['beep', 0.0, -4983.477888521897, 0.0, 0.0, 0.0, 0.0, -3553.413278271351, 0.0]
['beep', 0.0, -4983.924923411003, 0.0, 0.0, 0.0, 0.0, -3552.2733393041303, 0.0]
['beep', 0.0, -4982.449708276953, 0.0, 0.0, 0.0, 0.0, -3552.340394537496, 0.0]
['beep', 0.0, -4981.734452454383, 0.0, 0.0, 0.0, 0.0, -3552.787429426602, 0.0]
['beep', 0.0, -4984.103737366645, 0.0, 0.0, 0.0, 0.0, -3555.1343625944096, 0.0]
['beep', 0.0, -4984.08138562219, 0.0, 0.0, 0.0, 0.0, -3554.352051538474, 0.0]
['beep', 0.0, -4983.634350733084, 0.0, 0.0, 0.0, 0.0, -3554.1061823494656, 0.0]
['beep', 0.0, -4983.723757710905, 0.0, 0.0, 0.0, 0.0, -3552.4968567486835, 0.0]
['beep', 0.0, -4983.567295499718, 0.0, 0.0, 0.0, 0.0, -3551.535731737105, 0.0]
['beep', 0.0, -4983.500240266352, 0.0, 0.0, 0.0, 0.0, -3552.5639119820494, 0.0]
['beep', 0.0, -4983.611998988628, 0.0, 0.0, 0.0, 0.0, -3552.9662433822446, 0.0]
['beep', 0.0, -4983.187315843978, 0.0, 0.0, 0.0, 0.0, -3552.9215398933343, 0.0]
['beep', 0.0, -4982.248542576855, 0.0, 0.0, 0.0, 0.0, -3553.8379614160017, 0.0]
['beep', 0.0, -4982.7179292104165, 0.0, 0.0, 0.0, 0.0, -3552.765077682147, 0.0]
['beep', 0.0, -4983.120260610612, 0.0, 0.0, 0.0, 0.0, -3552.698022448781, 0.0]
['beep', 0.0, -4983.209667588433, 0.0, 0.0, 0.0, 0.0, -3552.094525348488, 0.0]
['beep', 0.0, -4982.360301299132, 0.0, 0.0, 0.0, 0.0, -3553.793257927091, 0.0]
['beep', 0.0, -4981.51093500983, 0.0, 0.0, 0.0, 0.0, -3553.2568160601636, 0.0]
['beep', 0.0, -4980.952141398447, 0.0, 0.0, 0.0, 0.0, -3551.021641614633, 0.0]
['beep', 0.0, -4981.9579698989355, 0.0, 0.0, 0.0, 0.0, -3551.088696847999, 0.0]
['beep', 0.0, -4982.181487343489, 0.0, 0.0, 0.0, 0.0, -3552.8544846599684, 0.0]
['beep', 0.0, -4982.337949554676, 0.0, 0.0, 0.0, 0.0, -3553.3238712935295, 0.0]
['beep', 0.0, -4982.2261908324, 0.0, 0.0, 0.0, 0.0, -3553.078002104521, 0.0]
['beep', 0.0, -4982.829687932693, 0.0, 0.0, 0.0, 0.0, -3553.7485544381807, 0.0]
['beep', 0.0, -4982.784984443782, 0.0, 0.0, 0.0, 0.0, -3554.374403282929, 0.0]
['beep', 0.0, -4983.902571666547, 0.0, 0.0, 0.0, 0.0, -3553.5473887380826, 0.0]
['beep', 0.0, -4983.120260610612, 0.0, 0.0, 0.0, 0.0, -3553.346223037985, 0.0]
['beep', 0.0, -4982.002673387847, 0.0, 0.0, 0.0, 0.0, -3553.346223037985, 0.0]
['beep', 0.0, -4981.7791559432935, 0.0, 0.0, 0.0, 0.0, -3553.6814992048144, 0.0]
['beep', 0.0, -4982.002673387847, 0.0, 0.0, 0.0, 0.0, -3553.6814992048144, 0.0]
['beep', 0.0, -4983.075557121701, 0.0, 0.0, 0.0, 0.0, -3552.675670704326, 0.0]
['beep', 0.0, -4983.299074566255, 0.0, 0.0, 0.0, 0.0, -3552.8768364044236, 0.0]
['beep', 0.0, -4982.136783854578, 0.0, 0.0, 0.0, 0.0, -3552.429801515317, 0.0]
['beep', 0.0, -4981.175658843, 0.0, 0.0, 0.0, 0.0, -3552.2062840707645, 0.0]
['beep', 0.0, -4981.935618154481, 0.0, 0.0, 0.0, 0.0, -3553.390926526896, 0.0]
['beep', 0.0, -4981.354472798643, 0.0, 0.0, 0.0, 0.0, -3554.08383060501, 0.0]
['beep', 0.0, -4982.181487343489, 0.0, 0.0, 0.0, 0.0, -3554.1955893272866, 0.0]
['beep', 0.0, -4981.89091466557, 0.0, 0.0, 0.0, 0.0, -3554.1285340939207, 0.0]
['beep', 0.0, -4980.862734420626, 0.0, 0.0, 0.0, 0.0, -3552.318042793041, 0.0]
['beep', 0.0, -4982.114432110123, 0.0, 0.0, 0.0, 0.0, -3552.2956910485855, 0.0]
['beep', 0.0, -4982.360301299132, 0.0, 0.0, 0.0, 0.0, -3553.078002104521, 0.0]
['beep', 0.0, -4982.874391421604, 0.0, 0.0, 0.0, 0.0, -3554.1732375828315, 0.0]
['beep', 0.0, -4982.740280954871, 0.0, 0.0, 0.0, 0.0, -3553.4579817602616, 0.0]
['beep', 0.0, -4982.31559781022, 0.0, 0.0, 0.0, 0.0, -3552.094525348488, 0.0]
['beep', 0.0, -4980.683920464983, 0.0, 0.0, 0.0, 0.0, -3552.541560237594, 0.0]
['beep', 0.0, -4980.3709960426095, 0.0, 0.0, 0.0, 0.0, -3552.832132915513, 0.0]
['beep', 0.0, -4980.348644298154, 0.0, 0.0, 0.0, 0.0, -3552.2509875596747, 0.0]
['beep', 0.0, -4979.879257664592, 0.0, 0.0, 0.0, 0.0, -3552.2956910485855, 0.0]
['beep', 0.0, -4980.505106509341, 0.0, 0.0, 0.0, 0.0, -3551.312214292552, 0.0]
['beep', 0.0, -4981.399176287553, 0.0, 0.0, 0.0, 0.0, -3552.5639119820494, 0.0]
['beep', 0.0, -4980.907437909536, 0.0, 0.0, 0.0, 0.0, -3553.927368393823, 0.0]
['beep', 0.0, -4980.438051275975, 0.0, 0.0, 0.0, 0.0, -3553.6144439714485, 0.0]
['beep', 0.0, -4981.019196631813, 0.0, 0.0, 0.0, 0.0, -3553.636795715904, 0.0]
['beep', 0.0, -4981.354472798643, 0.0, 0.0, 0.0, 0.0, -3553.36857478244, 0.0]
['beep', 0.0, -4980.5498099982515, 0.0, 0.0, 0.0, 0.0, -3551.8486561594796, 0.0]
['beep', 0.0, -4979.298112308755, 0.0, 0.0, 0.0, 0.0, -3551.423973014829, 0.0]
['beep', 0.0, -4979.543981497763, 0.0, 0.0, 0.0, 0.0, -3551.8486561594796, 0.0]
['beep', 0.0, -4979.499278008852, 0.0, 0.0, 0.0, 0.0, -3551.4910282481947, 0.0]
['beep', 0.0, -4979.566333242218, 0.0, 0.0, 0.0, 0.0, -3552.049821859577, 0.0]
['beep', 0.0, -4979.4322227754865, 0.0, 0.0, 0.0, 0.0, -3553.122705593432, 0.0]
['beep', 0.0, -4980.281589064788, 0.0, 0.0, 0.0, 0.0, -3551.6921939482922, 0.0]
['beep', 0.0, -4980.639216976073, 0.0, 0.0, 0.0, 0.0, -3551.2898625480966, 0.0]
['beep', 0.0, -4981.041548376268, 0.0, 0.0, 0.0, 0.0, -3551.6251387149264, 0.0]
['beep', 0.0, -4979.543981497763, 0.0, 0.0, 0.0, 0.0, -3552.2956910485855, 0.0]
['beep', 0.0, -4980.3709960426095, 0.0, 0.0, 0.0, 0.0, -3552.4968567486835, 0.0]
['beep', 0.0, -4981.063900120724, 0.0, 0.0, 0.0, 0.0, -3552.2733393041303, 0.0]
['beep', 0.0, -4981.712100709928, 0.0, 0.0, 0.0, 0.0, -3552.787429426602, 0.0]
['beep', 0.0, -4980.616865231617, 0.0, 0.0, 0.0, 0.0, -3550.775772425625, 0.0]
['beep', 0.0, -4978.98518788638, 0.0, 0.0, 0.0, 0.0, -3550.46284800325, 0.0]
['beep', 0.0, -4979.096946608656, 0.0, 0.0, 0.0, 0.0, -3551.826304415024, 0.0]
['beep', 0.0, -4980.348644298154, 0.0, 0.0, 0.0, 0.0, -3550.149923580876, 0.0]
['beep', 0.0, -4980.862734420626, 0.0, 0.0, 0.0, 0.0, -3551.2675108036415, 0.0]
['beep', 0.0, -4980.147478598056, 0.0, 0.0, 0.0, 0.0, -3552.116877092943, 0.0]
['beep', 0.0, -4979.566333242218, 0.0, 0.0, 0.0, 0.0, -3552.049821859577, 0.0]
['beep', 0.0, -4979.543981497763, 0.0, 0.0, 0.0, 0.0, -3553.994423627189, 0.0]
['beep', 0.0, -4980.750975698349, 0.0, 0.0, 0.0, 0.0, -3553.8379614160017, 0.0]
['beep', 0.0, -4980.46040302043, 0.0, 0.0, 0.0, 0.0, -3553.5250369936275, 0.0]
['beep', 0.0, -4980.438051275975, 0.0, 0.0, 0.0, 0.0, -3552.5192084931386, 0.0]
['beep', 0.0, -4979.543981497763, 0.0, 0.0, 0.0, 0.0, -3551.736897437203, 0.0]
['beep', 0.0, -4980.885086165081, 0.0, 0.0, 0.0, 0.0, -3551.17810382582, 0.0]
['beep', 0.0, -4982.181487343489, 0.0, 0.0, 0.0, 0.0, -3551.7816009261137, 0.0]
['beep', 0.0, -4981.622693732106, 0.0, 0.0, 0.0, 0.0, -3552.6533189598704, 0.0]
['beep', 0.0, -4980.236885575877, 0.0, 0.0, 0.0, 0.0, -3552.0051183706664, 0.0]
['beep', 0.0, -4980.572161742707, 0.0, 0.0, 0.0, 0.0, -3550.9992898701776, 0.0]
['beep', 0.0, -4982.181487343489, 0.0, 0.0, 0.0, 0.0, -3552.787429426602, 0.0]
['beep', 0.0, -4982.8967431660585, 0.0, 0.0, 0.0, 0.0, -3552.8991881488787, 0.0]
['beep', 0.0, -4981.9579698989355, 0.0, 0.0, 0.0, 0.0, -3550.6640137033482, 0.0]
['beep', 0.0, -4981.980321643391, 0.0, 0.0, 0.0, 0.0, -3550.060516603055, 0.0]
['beep', 0.0, -4981.89091466557, 0.0, 0.0, 0.0, 0.0, -3550.440496258795, 0.0]
['beep', 0.0, -4978.538152997274, 0.0, 0.0, 0.0, 0.0, -3550.708717192259, 0.0]
['beep', 0.0, -4975.990054129369, 0.0, 0.0, 0.0, 0.0, -3549.501722991672, 0.0]
['beep', 0.0, -4976.548847740752, 0.0, 0.0, 0.0, 0.0, -3548.6523567023705, 0.0]
['beep', 0.0, -4975.36420528462, 0.0, 0.0, 0.0, 0.0, -3547.7135834352475, 0.0]
['beep', 0.0, -4973.12903083909, 0.0, 0.0, 0.0, 0.0, -3547.534769479605, 0.0]
['beep', 0.0, -4974.358376784132, 0.0, 0.0, 0.0, 0.0, -3549.7252404362252, 0.0]
['beep', 0.0, -4977.040586118768, 0.0, 0.0, 0.0, 0.0, -3550.2616823031526, 0.0]
['beep', 0.0, -4978.001711130347, 0.0, 0.0, 0.0, 0.0, -3548.6747084468257, 0.0]
['beep', 0.0, -4977.688786707972, 0.0, 0.0, 0.0, 0.0, -3548.7194119357364, 0.0]
['beep', 0.0, -4978.001711130347, 0.0, 0.0, 0.0, 0.0, -3548.5853014690047, 0.0]
['beep', 0.0, -4978.292283808266, 0.0, 0.0, 0.0, 0.0, -3547.2665485461416, 0.0]
['beep', 0.0, -4980.505106509341, 0.0, 0.0, 0.0, 0.0, -3549.8146474140462, 0.0]
['beep', 0.0, -4979.678091964494, 0.0, 0.0, 0.0, 0.0, -3551.155752081365, 0.0]
['beep', 0.0, -4978.739318697371, 0.0, 0.0, 0.0, 0.0, -3550.9322346368117, 0.0]
['beep', 0.0, -4979.789850686771, 0.0, 0.0, 0.0, 0.0, -3550.149923580876, 0.0]
['beep', 0.0, -4980.348644298154, 0.0, 0.0, 0.0, 0.0, -3550.172275325331, 0.0]
['beep', 0.0, -4980.348644298154, 0.0, 0.0, 0.0, 0.0, -3551.2004555702756, 0.0]
['beep', 0.0, -4979.119298353112, 0.0, 0.0, 0.0, 0.0, -3549.7252404362252, 0.0]
['beep', 0.0, -4978.158173341533, 0.0, 0.0, 0.0, 0.0, -3548.1382665798983, 0.0]
['beep', 0.0, -4977.062937863224, 0.0, 0.0, 0.0, 0.0, -3548.495894491183, 0.0]
['beep', 0.0, -4976.817068674215, 0.0, 0.0, 0.0, 0.0, -3549.3676125249403, 0.0]
['beep', 0.0, -4977.711138452428, 0.0, 0.0, 0.0, 0.0, -3547.89239739089, 0.0]
['beep', 0.0, -4978.404042530542, 0.0, 0.0, 0.0, 0.0, -3547.601824712971, 0.0]
['beep', 0.0, -4977.532324496785, 0.0, 0.0, 0.0, 0.0, -3547.221845057231, 0.0]
['beep', 0.0, -4977.420565774509, 0.0, 0.0, 0.0, 0.0, -3547.7582869241583, 0.0]
['beep', 0.0, -4977.822897174704, 0.0, 0.0, 0.0, 0.0, -3547.6912316907924, 0.0]
['beep', 0.0, -4977.934655896981, 0.0, 0.0, 0.0, 0.0, -3548.182970068809, 0.0]
['beep', 0.0, -4979.342815797665, 0.0, 0.0, 0.0, 0.0, -3548.1382665798983, 0.0]
['beep', 0.0, -4979.007539630836, 0.0, 0.0, 0.0, 0.0, -3547.17714156832, 0.0]
['beep', 0.0, -4978.6722634640055, 0.0, 0.0, 0.0, 0.0, -3548.473542746728, 0.0]
['beep', 0.0, -4978.180525085989, 0.0, 0.0, 0.0, 0.0, -3550.2393305586975, 0.0]
['beep', 0.0, -4978.2252285749, 0.0, 0.0, 0.0, 0.0, -3548.495894491183, 0.0]
['beep', 0.0, -4978.716966952917, 0.0, 0.0, 0.0, 0.0, -3548.6970601912813, 0.0]
['beep', 0.0, -4978.314635552721, 0.0, 0.0, 0.0, 0.0, -3547.825342157524, 0.0]
['beep', 0.0, -4978.046414619257, 0.0, 0.0, 0.0, 0.0, -3548.808818913558, 0.0]
['beep', 0.0, -4977.979359385891, 0.0, 0.0, 0.0, 0.0, -3549.434667758306, 0.0]
['beep', 0.0, -4978.828725675193, 0.0, 0.0, 0.0, 0.0, -3550.3287375365185, 0.0]
['beep', 0.0, -4978.4934495083635, 0.0, 0.0, 0.0, 0.0, -3550.708717192259, 0.0]
['beep', 0.0, -4977.778193685794, 0.0, 0.0, 0.0, 0.0, -3550.0381648585994, 0.0]
['beep', 0.0, -4976.817068674215, 0.0, 0.0, 0.0, 0.0, -3550.0158131141443, 0.0]
['beep', 0.0, -4977.442917518963, 0.0, 0.0, 0.0, 0.0, -3552.6309672154152, 0.0]
['beep', 0.0, -4978.091118108167, 0.0, 0.0, 0.0, 0.0, -3551.423973014829, 0.0]
['beep', 0.0, -4978.761670441827, 0.0, 0.0, 0.0, 0.0, -3551.0439933590883, 0.0]
['beep', 0.0, -4978.806373930737, 0.0, 0.0, 0.0, 0.0, -3549.501722991672, 0.0]
['beep', 0.0, -4978.739318697371, 0.0, 0.0, 0.0, 0.0, -3548.8758741469237, 0.0]
['beep', 0.0, -4978.202876830444, 0.0, 0.0, 0.0, 0.0, -3550.127571836421, 0.0]
['beep', 0.0, -4978.247580319355, 0.0, 0.0, 0.0, 0.0, -3552.027470115122, 0.0]
['beep', 0.0, -4977.711138452428, 0.0, 0.0, 0.0, 0.0, -3551.4910282481947, 0.0]
['beep', 0.0, -4978.381690786086, 0.0, 0.0, 0.0, 0.0, -3550.6193102144375, 0.0]
['beep', 0.0, -4977.867600663615, 0.0, 0.0, 0.0, 0.0, -3551.535731737105, 0.0]
['beep', 0.0, -4979.320464053209, 0.0, 0.0, 0.0, 0.0, -3551.669842203837, 0.0]
['beep', 0.0, -4980.46040302043, 0.0, 0.0, 0.0, 0.0, -3552.116877092943, 0.0]
['beep', 0.0, -4979.387519286575, 0.0, 0.0, 0.0, 0.0, -3550.6193102144375, 0.0]
['beep', 0.0, -4977.8452489191595, 0.0, 0.0, 0.0, 0.0, -3549.3229090360296, 0.0]
['beep', 0.0, -4978.001711130347, 0.0, 0.0, 0.0, 0.0, -3549.4570195027613, 0.0]
['beep', 0.0, -4978.806373930737, 0.0, 0.0, 0.0, 0.0, -3550.172275325331, 0.0]
['beep', 0.0, -4978.4934495083635, 0.0, 0.0, 0.0, 0.0, -3552.027470115122, 0.0]
['beep', 0.0, -4977.8452489191595, 0.0, 0.0, 0.0, 0.0, -3552.340394537496, 0.0]
['beep', 0.0, -4977.264103563321, 0.0, 0.0, 0.0, 0.0, -3550.529903236616, 0.0]
['beep', 0.0, -4978.001711130347, 0.0, 0.0, 0.0, 0.0, -3549.769943925136, 0.0]
['beep', 0.0, -4977.442917518963, 0.0, 0.0, 0.0, 0.0, -3551.0439933590883, 0.0]
['beep', 0.0, -4977.331158796687, 0.0, 0.0, 0.0, 0.0, -3551.6921939482922, 0.0]
['beep', 0.0, -4978.314635552721, 0.0, 0.0, 0.0, 0.0, -3550.507551492161, 0.0]
['beep', 0.0, -4977.465269263419, 0.0, 0.0, 0.0, 0.0, -3551.0439933590883, 0.0]
['beep', 0.0, -4976.593551229662, 0.0, 0.0, 0.0, 0.0, -3549.345260780485, 0.0]
['beep', 0.0, -4978.158173341533, 0.0, 0.0, 0.0, 0.0, -3550.3063857920633, 0.0]
['beep', 0.0, -4978.180525085989, 0.0, 0.0, 0.0, 0.0, -3549.9487578807784, 0.0]
['beep', 0.0, -4977.979359385891, 0.0, 0.0, 0.0, 0.0, -3550.775772425625, 0.0]
['beep', 0.0, -4977.12999309659, 0.0, 0.0, 0.0, 0.0, -3550.5522549810717, 0.0]
['beep', 0.0, -4976.928827396492, 0.0, 0.0, 0.0, 0.0, -3550.8875311479014, 0.0]
['beep', 0.0, -4977.688786707972, 0.0, 0.0, 0.0, 0.0, -3551.021641614633, 0.0]
['beep', 0.0, -4977.666434963517, 0.0, 0.0, 0.0, 0.0, -3550.6193102144375, 0.0]
['beep', 0.0, -4978.4934495083635, 0.0, 0.0, 0.0, 0.0, -3551.8486561594796, 0.0]
['beep', 0.0, -4977.532324496785, 0.0, 0.0, 0.0, 0.0, -3551.5580834815605, 0.0]
['beep', 0.0, -4976.884123907581, 0.0, 0.0, 0.0, 0.0, -3551.066345103544, 0.0]
['beep', 0.0, -4976.638254718573, 0.0, 0.0, 0.0, 0.0, -3551.2004555702756, 0.0]
['beep', 0.0, -4977.599379730151, 0.0, 0.0, 0.0, 0.0, -3550.9098828923566, 0.0]
['beep', 0.0, -4977.666434963517, 0.0, 0.0, 0.0, 0.0, -3550.9992898701776, 0.0]
['beep', 0.0, -4976.280626807288, 0.0, 0.0, 0.0, 0.0, -3550.3957927698843, 0.0]
['beep', 0.0, -4975.274798306799, 0.0, 0.0, 0.0, 0.0, -3550.440496258795, 0.0]
['beep', 0.0, -4975.766536684816, 0.0, 0.0, 0.0, 0.0, -3550.6193102144375, 0.0]
['beep', 0.0, -4977.979359385891, 0.0, 0.0, 0.0, 0.0, -3550.5522549810717, 0.0]
['beep', 0.0, -4977.532324496785, 0.0, 0.0, 0.0, 0.0, -3551.8486561594796, 0.0]
['beep', 0.0, -4977.0852896076785, 0.0, 0.0, 0.0, 0.0, -3552.0051183706664, 0.0]
['beep', 0.0, -4977.062937863224, 0.0, 0.0, 0.0, 0.0, -3552.0721736040323, 0.0]
['beep', 0.0, -4978.448746019452, 0.0, 0.0, 0.0, 0.0, -3551.468676503739, 0.0]
['beep', 0.0, -4979.074594864202, 0.0, 0.0, 0.0, 0.0, -3552.5862637265045, 0.0]
['beep', 0.0, -4979.65574022004, 0.0, 0.0, 0.0, 0.0, -3552.0051183706664, 0.0]
['beep', 0.0, -4977.934655896981, 0.0, 0.0, 0.0, 0.0, -3551.7145456927474, 0.0]
['beep', 0.0, -4978.046414619257, 0.0, 0.0, 0.0, 0.0, -3551.6251387149264, 0.0]
['beep', 0.0, -4978.806373930737, 0.0, 0.0, 0.0, 0.0, -3552.0051183706664, 0.0]
['beep', 0.0, -4979.298112308755, 0.0, 0.0, 0.0, 0.0, -3553.2344643157085, 0.0]
['beep', 0.0, -4981.175658843, 0.0, 0.0, 0.0, 0.0, -3551.7145456927474, 0.0]
['beep', 0.0, -4979.320464053209, 0.0, 0.0, 0.0, 0.0, -3552.2956910485855, 0.0]
['beep', 0.0, -4977.487621007875, 0.0, 0.0, 0.0, 0.0, -3552.698022448781, 0.0]
['beep', 0.0, -4978.046414619257, 0.0, 0.0, 0.0, 0.0, -3551.89335964839, 0.0]
['beep', 0.0, -4978.314635552721, 0.0, 0.0, 0.0, 0.0, -3553.1674090823426, 0.0]
['beep', 0.0, -4978.26993206381, 0.0, 0.0, 0.0, 0.0, -3553.726202693725, 0.0]
['beep', 0.0, -4977.353510541143, 0.0, 0.0, 0.0, 0.0, -3551.8710079039347, 0.0]
['beep', 0.0, -4976.504144251841, 0.0, 0.0, 0.0, 0.0, -3549.9711096252336, 0.0]
['beep', 0.0, -4976.682958207483, 0.0, 0.0, 0.0, 0.0, -3551.155752081365, 0.0]
['beep', 0.0, -4978.202876830444, 0.0, 0.0, 0.0, 0.0, -3551.312214292552, 0.0]
['beep', 0.0, -4980.102775109145, 0.0, 0.0, 0.0, 0.0, -3551.401621270373, 0.0]
['beep', 0.0, -4979.164001842022, 0.0, 0.0, 0.0, 0.0, -3553.36857478244, 0.0]
['beep', 0.0, -4978.60520823064, 0.0, 0.0, 0.0, 0.0, -3552.0721736040323, 0.0]
['beep', 0.0, -4977.666434963517, 0.0, 0.0, 0.0, 0.0, -3552.116877092943, 0.0]
['beep', 0.0, -4978.404042530542, 0.0, 0.0, 0.0, 0.0, -3551.8486561594796, 0.0]
['beep', 0.0, -4978.135821597079, 0.0, 0.0, 0.0, 0.0, -3553.122705593432, 0.0]
['beep', 0.0, -4978.2252285749, 0.0, 0.0, 0.0, 0.0, -3553.6591474603592, 0.0]
['beep', 0.0, -4977.442917518963, 0.0, 0.0, 0.0, 0.0, -3553.413278271351, 0.0]
['beep', 0.0, -4978.091118108167, 0.0, 0.0, 0.0, 0.0, -3552.8991881488787, 0.0]
['beep', 0.0, -4980.169830342511, 0.0, 0.0, 0.0, 0.0, -3552.5862637265045, 0.0]
['beep', 0.0, -4980.236885575877, 0.0, 0.0, 0.0, 0.0, -3552.787429426602, 0.0]
['beep', 0.0, -4978.761670441827, 0.0, 0.0, 0.0, 0.0, -3551.803952670569, 0.0]
['beep', 0.0, -4978.426394274998, 0.0, 0.0, 0.0, 0.0, -3554.41910677184, 0.0]
['beep', 0.0, -4978.94048439747, 0.0, 0.0, 0.0, 0.0, -3554.4861620052056, 0.0]
['beep', 0.0, -4979.789850686771, 0.0, 0.0, 0.0, 0.0, -3553.9497201382783, 0.0]
['beep', 0.0, -4978.918132653014, 0.0, 0.0, 0.0, 0.0, -3554.508513749661, 0.0]
['beep', 0.0, -4978.918132653014, 0.0, 0.0, 0.0, 0.0, -3553.346223037985, 0.0]
['beep', 0.0, -4977.8452489191595, 0.0, 0.0, 0.0, 0.0, -3552.5862637265045, 0.0]
['beep', 0.0, -4978.560504741729, 0.0, 0.0, 0.0, 0.0, -3554.08383060501, 0.0]
['beep', 0.0, -4979.9016094090475, 0.0, 0.0, 0.0, 0.0, -3553.390926526896, 0.0]
['beep', 0.0, -4978.98518788638, 0.0, 0.0, 0.0, 0.0, -3553.994423627189, 0.0]
['beep', 0.0, -4978.247580319355, 0.0, 0.0, 0.0, 0.0, -3553.36857478244, 0.0]
['beep', 0.0, -4978.873429164103, 0.0, 0.0, 0.0, 0.0, -3553.9720718827334, 0.0]
['beep', 0.0, -4979.186353586478, 0.0, 0.0, 0.0, 0.0, -3553.055650360066, 0.0]
['beep', 0.0, -4978.426394274998, 0.0, 0.0, 0.0, 0.0, -3553.4579817602616, 0.0]
['beep', 0.0, -4978.649911719551, 0.0, 0.0, 0.0, 0.0, -3555.402583527873, 0.0]
['beep', 0.0, -4978.716966952917, 0.0, 0.0, 0.0, 0.0, -3553.9497201382783, 0.0]
['beep', 0.0, -4977.420565774509, 0.0, 0.0, 0.0, 0.0, -3552.6086154709596, 0.0]
['beep', 0.0, -4978.448746019452, 0.0, 0.0, 0.0, 0.0, -3554.1285340939207, 0.0]
['beep', 0.0, -4979.74514719786, 0.0, 0.0, 0.0, 0.0, -3553.9720718827334, 0.0]
['beep', 0.0, -4979.454574519941, 0.0, 0.0, 0.0, 0.0, -3553.9050166493676, 0.0]
['beep', 0.0, -4978.068766363713, 0.0, 0.0, 0.0, 0.0, -3553.122705593432, 0.0]
['beep', 0.0, -4978.649911719551, 0.0, 0.0, 0.0, 0.0, -3552.385098026407, 0.0]
['beep', 0.0, -4978.7840221862825, 0.0, 0.0, 0.0, 0.0, -3553.5697404825382, 0.0]
['beep', 0.0, -4978.60520823064, 0.0, 0.0, 0.0, 0.0, -3553.9497201382783, 0.0]
['beep', 0.0, -4979.543981497763, 0.0, 0.0, 0.0, 0.0, -3553.6591474603592, 0.0]
['beep', 0.0, -4979.74514719786, 0.0, 0.0, 0.0, 0.0, -3553.435630015806, 0.0]
['beep', 0.0, -4979.02989137529, 0.0, 0.0, 0.0, 0.0, -3552.8544846599684, 0.0]
['beep', 0.0, -4979.566333242218, 0.0, 0.0, 0.0, 0.0, -3552.5639119820494, 0.0]
['beep', 0.0, -4979.70044370895, 0.0, 0.0, 0.0, 0.0, -3553.5250369936275, 0.0]
['beep', 0.0, -4978.336987297176, 0.0, 0.0, 0.0, 0.0, -3553.3238712935295, 0.0]
['beep', 0.0, -4978.448746019452, 0.0, 0.0, 0.0, 0.0, -3552.318042793041, 0.0]
['beep', 0.0, -4978.336987297176, 0.0, 0.0, 0.0, 0.0, -3552.094525348488, 0.0]
['beep', 0.0, -4977.308807052232, 0.0, 0.0, 0.0, 0.0, -3552.832132915513, 0.0]
['beep', 0.0, -4978.001711130347, 0.0, 0.0, 0.0, 0.0, -3553.2121125712533, 0.0]
['beep', 0.0, -4978.716966952917, 0.0, 0.0, 0.0, 0.0, -3553.9720718827334, 0.0]
['beep', 0.0, -4977.688786707972, 0.0, 0.0, 0.0, 0.0, -3552.5639119820494, 0.0]
['beep', 0.0, -4977.979359385891, 0.0, 0.0, 0.0, 0.0, -3551.401621270373, 0.0]
['beep', 0.0, -4978.7840221862825, 0.0, 0.0, 0.0, 0.0, -3552.787429426602, 0.0]
['beep', 0.0, -4979.879257664592, 0.0, 0.0, 0.0, 0.0, -3552.698022448781, 0.0]
['beep', 0.0, -4981.063900120724, 0.0, 0.0, 0.0, 0.0, -3553.055650360066, 0.0]
['beep', 0.0, -4980.41569953152, 0.0, 0.0, 0.0, 0.0, -3552.8991881488787, 0.0]
['beep', 0.0, -4978.851077419648, 0.0, 0.0, 0.0, 0.0, -3551.17810382582, 0.0]
['beep', 0.0, -4979.4322227754865, 0.0, 0.0, 0.0, 0.0, -3551.3345660370073, 0.0]
['beep', 0.0, -4979.856905920137, 0.0, 0.0, 0.0, 0.0, -3550.8875311479014, 0.0]
['beep', 0.0, -4979.991016386869, 0.0, 0.0, 0.0, 0.0, -3550.9992898701776, 0.0]
['beep', 0.0, -4979.7227954534055, 0.0, 0.0, 0.0, 0.0, -3551.088696847999, 0.0]
['beep', 0.0, -4980.348644298154, 0.0, 0.0, 0.0, 0.0, -3551.9827666262113, 0.0]
['beep', 0.0, -4980.348644298154, 0.0, 0.0, 0.0, 0.0, -3554.41910677184, 0.0]
['beep', 0.0, -4980.192182086967, 0.0, 0.0, 0.0, 0.0, -3552.8544846599684, 0.0]
['beep', 0.0, -4979.7227954534055, 0.0, 0.0, 0.0, 0.0, -3552.2509875596747, 0.0]
['beep', 0.0, -4980.728623953894, 0.0, 0.0, 0.0, 0.0, -3553.502685249172, 0.0]
['beep', 0.0, -4980.013368131325, 0.0, 0.0, 0.0, 0.0, -3553.078002104521, 0.0]
['beep', 0.0, -4979.834554175682, 0.0, 0.0, 0.0, 0.0, -3553.994423627189, 0.0]
['beep', 0.0, -4980.236885575877, 0.0, 0.0, 0.0, 0.0, -3554.6873277053032, 0.0]
['beep', 0.0, -4979.476926264397, 0.0, 0.0, 0.0, 0.0, -3554.1285340939207, 0.0]
['beep', 0.0, -4978.761670441827, 0.0, 0.0, 0.0, 0.0, -3553.145057337887, 0.0]
['beep', 0.0, -4978.94048439747, 0.0, 0.0, 0.0, 0.0, -3553.2344643157085, 0.0]
['beep', 0.0, -4978.381690786086, 0.0, 0.0, 0.0, 0.0, -3554.4638102607505, 0.0]
['beep', 0.0, -4980.281589064788, 0.0, 0.0, 0.0, 0.0, -3555.380231783418, 0.0]
['beep', 0.0, -4979.543981497763, 0.0, 0.0, 0.0, 0.0, -3555.246121316686, 0.0]
['beep', 0.0, -4978.2252285749, 0.0, 0.0, 0.0, 0.0, -3555.357880038963, 0.0]
['beep', 0.0, -4978.381690786086, 0.0, 0.0, 0.0, 0.0, -3553.9050166493676, 0.0]
['beep', 0.0, -4979.65574022004, 0.0, 0.0, 0.0, 0.0, -3552.9662433822446, 0.0]
['beep', 0.0, -4979.7227954534055, 0.0, 0.0, 0.0, 0.0, -3555.000252127678, 0.0]
['beep', 0.0, -4979.208705330933, 0.0, 0.0, 0.0, 0.0, -3554.79908642758, 0.0]
['beep', 0.0, -4979.231057075388, 0.0, 0.0, 0.0, 0.0, -3552.2509875596747, 0.0]
['beep', 0.0, -4979.543981497763, 0.0, 0.0, 0.0, 0.0, -3551.6027869704712, 0.0]
['beep', 0.0, -4980.728623953894, 0.0, 0.0, 0.0, 0.0, -3552.3627462819513, 0.0]
['beep', 0.0, -4980.393347787064, 0.0, 0.0, 0.0, 0.0, -3554.2179410717417, 0.0]
['beep', 0.0, -4979.879257664592, 0.0, 0.0, 0.0, 0.0, -3553.7485544381807, 0.0]
['beep', 0.0, -4979.275760564299, 0.0, 0.0, 0.0, 0.0, -3553.122705593432, 0.0]
['beep', 0.0, -4977.88995240807, 0.0, 0.0, 0.0, 0.0, -3552.2286358152196, 0.0]
['beep', 0.0, -4978.94048439747, 0.0, 0.0, 0.0, 0.0, -3553.413278271351, 0.0]
['beep', 0.0, -4980.102775109145, 0.0, 0.0, 0.0, 0.0, -3553.8379614160017, 0.0]
['beep', 0.0, -4980.438051275975, 0.0, 0.0, 0.0, 0.0, -3553.2121125712533, 0.0]
['beep', 0.0, -4979.4322227754865, 0.0, 0.0, 0.0, 0.0, -3552.027470115122, 0.0]
['beep', 0.0, -4979.923961153503, 0.0, 0.0, 0.0, 0.0, -3551.4910282481947, 0.0]
['beep', 0.0, -4979.454574519941, 0.0, 0.0, 0.0, 0.0, -3551.3569177814625, 0.0]
['beep', 0.0, -4980.058071620235, 0.0, 0.0, 0.0, 0.0, -3552.541560237594, 0.0]
['beep', 0.0, -4979.65574022004, 0.0, 0.0, 0.0, 0.0, -3552.7203741932362, 0.0]
['beep', 0.0, -4978.895780908559, 0.0, 0.0, 0.0, 0.0, -3552.9662433822446, 0.0]
['beep', 0.0, -4978.202876830444, 0.0, 0.0, 0.0, 0.0, -3551.468676503739, 0.0]
['beep', 0.0, -4977.822897174704, 0.0, 0.0, 0.0, 0.0, -3551.9380631373006, 0.0]
['beep', 0.0, -4978.515801252818, 0.0, 0.0, 0.0, 0.0, -3554.352051538474, 0.0]
['beep', 0.0, -4979.342815797665, 0.0, 0.0, 0.0, 0.0, -3553.3015195490743, 0.0]
['beep', 0.0, -4979.342815797665, 0.0, 0.0, 0.0, 0.0, -3551.066345103544, 0.0]
['beep', 0.0, -4979.879257664592, 0.0, 0.0, 0.0, 0.0, -3550.8428276589907, 0.0]
['beep', 0.0, -4980.348644298154, 0.0, 0.0, 0.0, 0.0, -3549.9711096252336, 0.0]
['beep', 0.0, -4980.348644298154, 0.0, 0.0, 0.0, 0.0, -3550.5522549810717, 0.0]
['beep', 0.0, -4979.7227954534055, 0.0, 0.0, 0.0, 0.0, -3552.4968567486835, 0.0]
['beep', 0.0, -4979.231057075388, 0.0, 0.0, 0.0, 0.0, -3553.5697404825382, 0.0]
['beep', 0.0, -4978.7840221862825, 0.0, 0.0, 0.0, 0.0, -3551.423973014829, 0.0]
['beep', 0.0, -4979.74514719786, 0.0, 0.0, 0.0, 0.0, -3550.529903236616, 0.0]
['beep', 0.0, -4979.834554175682, 0.0, 0.0, 0.0, 0.0, -3551.2898625480966, 0.0]
['beep', 0.0, -4981.265065820821, 0.0, 0.0, 0.0, 0.0, -3552.452153259773, 0.0]
['beep', 0.0, -4980.08042336469, 0.0, 0.0, 0.0, 0.0, -3550.9769381257224, 0.0]
['beep', 0.0, -4978.806373930737, 0.0, 0.0, 0.0, 0.0, -3550.775772425625, 0.0]
['beep', 0.0, -4978.873429164103, 0.0, 0.0, 0.0, 0.0, -3551.401621270373, 0.0]
['beep', 0.0, -4980.438051275975, 0.0, 0.0, 0.0, 0.0, -3550.6193102144375, 0.0]
['beep', 0.0, -4980.773327442805, 0.0, 0.0, 0.0, 0.0, -3550.574606725527, 0.0]
['beep', 0.0, -4980.639216976073, 0.0, 0.0, 0.0, 0.0, -3550.1052200919653, 0.0]
['beep', 0.0, -4981.019196631813, 0.0, 0.0, 0.0, 0.0, -3549.836999158502, 0.0]
['beep', 0.0, -4980.348644298154, 0.0, 0.0, 0.0, 0.0, -3551.379269525918, 0.0]
['beep', 0.0, -4980.192182086967, 0.0, 0.0, 0.0, 0.0, -3552.474505004228, 0.0]
['beep', 0.0, -4982.405004788042, 0.0, 0.0, 0.0, 0.0, -3552.541560237594, 0.0]
['beep', 0.0, -4980.885086165081, 0.0, 0.0, 0.0, 0.0, -3550.5522549810717, 0.0]
['beep', 0.0, -4980.6615687205285, 0.0, 0.0, 0.0, 0.0, -3548.8758741469237, 0.0]
['beep', 0.0, -4981.689748965472, 0.0, 0.0, 0.0, 0.0, -3550.149923580876, 0.0]
['beep', 0.0, -4981.868562921115, 0.0, 0.0, 0.0, 0.0, -3551.17810382582, 0.0]
['beep', 0.0, -4981.242714076366, 0.0, 0.0, 0.0, 0.0, -3548.808818913558, 0.0]
['beep', 0.0, -4982.136783854578, 0.0, 0.0, 0.0, 0.0, -3550.3287375365185, 0.0]
['beep', 0.0, -4981.063900120724, 0.0, 0.0, 0.0, 0.0, -3551.066345103544, 0.0]
['beep', 0.0, -4981.712100709928, 0.0, 0.0, 0.0, 0.0, -3552.183932326309, 0.0]
['beep', 0.0, -4981.13095535409, 0.0, 0.0, 0.0, 0.0, -3552.452153259773, 0.0]
['beep', 0.0, -4979.320464053209, 0.0, 0.0, 0.0, 0.0, -3551.111048592454, 0.0]
['beep', 0.0, -4977.465269263419, 0.0, 0.0, 0.0, 0.0, -3550.507551492161, 0.0]
['beep', 0.0, -4976.079461107191, 0.0, 0.0, 0.0, 0.0, -3551.6027869704712, 0.0]
['beep', 0.0, -4976.884123907581, 0.0, 0.0, 0.0, 0.0, -3550.440496258795, 0.0]
['beep', 0.0, -4976.928827396492, 0.0, 0.0, 0.0, 0.0, -3549.5240747361277, 0.0]
['beep', 0.0, -4978.314635552721, 0.0, 0.0, 0.0, 0.0, -3551.960414881756, 0.0]
['beep', 0.0, -4980.616865231617, 0.0, 0.0, 0.0, 0.0, -3550.127571836421, 0.0]
['beep', 0.0, -4981.756804198838, 0.0, 0.0, 0.0, 0.0, -3549.278205547119, 0.0]
['beep', 0.0, -4980.192182086967, 0.0, 0.0, 0.0, 0.0, -3550.3510892809736, 0.0]
['beep', 0.0, -4980.996844887358, 0.0, 0.0, 0.0, 0.0, -3550.79812417008, 0.0]
['beep', 0.0, -4982.94144665497, 0.0, 0.0, 0.0, 0.0, -3550.9322346368117, 0.0]
['beep', 0.0, -4983.857868177637, 0.0, 0.0, 0.0, 0.0, -3551.17810382582, 0.0]
['beep', 0.0, -4982.874391421604, 0.0, 0.0, 0.0, 0.0, -3550.6416619588927, 0.0]
['beep', 0.0, -4981.7791559432935, 0.0, 0.0, 0.0, 0.0, -3550.41814451434, 0.0]
['beep', 0.0, -4981.51093500983, 0.0, 0.0, 0.0, 0.0, -3551.17810382582, 0.0]
['beep', 0.0, -4981.175658843, 0.0, 0.0, 0.0, 0.0, -3551.4910282481947, 0.0]
['beep', 0.0, -4980.885086165081, 0.0, 0.0, 0.0, 0.0, -3550.060516603055, 0.0]
['beep', 0.0, -4980.527458253796, 0.0, 0.0, 0.0, 0.0, -3550.775772425625, 0.0]
['beep', 0.0, -4980.393347787064, 0.0, 0.0, 0.0, 0.0, -3551.669842203837, 0.0]
['beep', 0.0, -4981.175658843, 0.0, 0.0, 0.0, 0.0, -3551.7816009261137, 0.0]
['beep', 0.0, -4980.527458253796, 0.0, 0.0, 0.0, 0.0, -3552.0721736040323, 0.0]
['beep', 0.0, -4980.6615687205285, 0.0, 0.0, 0.0, 0.0, -3551.0439933590883, 0.0]
['beep', 0.0, -4978.716966952917, 0.0, 0.0, 0.0, 0.0, -3551.423973014829, 0.0]
['beep', 0.0, -4977.979359385891, 0.0, 0.0, 0.0, 0.0, -3551.7145456927474, 0.0]
['beep', 0.0, -4979.164001842022, 0.0, 0.0, 0.0, 0.0, -3551.4910282481947, 0.0]
['beep', 0.0, -4980.572161742707, 0.0, 0.0, 0.0, 0.0, -3551.066345103544, 0.0]
['beep', 0.0, -4980.326292553698, 0.0, 0.0, 0.0, 0.0, -3551.401621270373, 0.0]
['beep', 0.0, -4979.834554175682, 0.0, 0.0, 0.0, 0.0, -3550.9992898701776, 0.0]
['beep', 0.0, -4979.543981497763, 0.0, 0.0, 0.0, 0.0, -3551.446324759284, 0.0]
['beep', 0.0, -4979.923961153503, 0.0, 0.0, 0.0, 0.0, -3552.1615805818537, 0.0]
['beep', 0.0, -4979.879257664592, 0.0, 0.0, 0.0, 0.0, -3550.9098828923566, 0.0]
['beep', 0.0, -4980.616865231617, 0.0, 0.0, 0.0, 0.0, -3551.021641614633, 0.0]
['beep', 0.0, -4979.275760564299, 0.0, 0.0, 0.0, 0.0, -3550.46284800325, 0.0]
['beep', 0.0, -4979.65574022004, 0.0, 0.0, 0.0, 0.0, -3549.3899642693955, 0.0]
['beep', 0.0, -4979.4322227754865, 0.0, 0.0, 0.0, 0.0, -3551.17810382582, 0.0]
['beep', 0.0, -4979.7227954534055, 0.0, 0.0, 0.0, 0.0, -3551.960414881756, 0.0]
['beep', 0.0, -4979.74514719786, 0.0, 0.0, 0.0, 0.0, -3552.832132915513, 0.0]
['beep', 0.0, -4980.8403826761705, 0.0, 0.0, 0.0, 0.0, -3551.088696847999, 0.0]
['beep', 0.0, -4981.198010587455, 0.0, 0.0, 0.0, 0.0, -3549.8817026474126, 0.0]
['beep', 0.0, -4981.935618154481, 0.0, 0.0, 0.0, 0.0, -3550.6193102144375, 0.0]
['beep', 0.0, -4981.55563849874, 0.0, 0.0, 0.0, 0.0, -3551.803952670569, 0.0]
['beep', 0.0, -4980.728623953894, 0.0, 0.0, 0.0, 0.0, -3551.6027869704712, 0.0]
['beep', 0.0, -4979.767498942316, 0.0, 0.0, 0.0, 0.0, -3549.792295669591, 0.0]
['beep', 0.0, -4981.913266410025, 0.0, 0.0, 0.0, 0.0, -3549.836999158502, 0.0]
['beep', 0.0, -4981.89091466557, 0.0, 0.0, 0.0, 0.0, -3550.6416619588927, 0.0]
['beep', 0.0, -4982.248542576855, 0.0, 0.0, 0.0, 0.0, -3551.89335964839, 0.0]
['beep', 0.0, -4981.421528032009, 0.0, 0.0, 0.0, 0.0, -3551.51337999265, 0.0]
['beep', 0.0, -4980.348644298154, 0.0, 0.0, 0.0, 0.0, -3550.060516603055, 0.0]
['beep', 0.0, -4981.287417565277, 0.0, 0.0, 0.0, 0.0, -3551.6251387149264, 0.0]
['beep', 0.0, -4980.750975698349, 0.0, 0.0, 0.0, 0.0, -3550.708717192259, 0.0]
['beep', 0.0, -4982.852039677148, 0.0, 0.0, 0.0, 0.0, -3549.635833458404, 0.0]
['beep', 0.0, -4981.153307098545, 0.0, 0.0, 0.0, 0.0, -3549.211150313753, 0.0]
['beep', 0.0, -4979.65574022004, 0.0, 0.0, 0.0, 0.0, -3547.087734590499, 0.0]
['beep', 0.0, -4979.7227954534055, 0.0, 0.0, 0.0, 0.0, -3546.305423534563, 0.0]
['beep', 0.0, -4980.818030931715, 0.0, 0.0, 0.0, 0.0, -3545.5231124786274, 0.0]
['beep', 0.0, -4980.438051275975, 0.0, 0.0, 0.0, 0.0, -3544.7184496782365, 0.0]
['beep', 0.0, -4979.096946608656, 0.0, 0.0, 0.0, 0.0, -3541.4997984766724, 0.0]
['beep', 0.0, -4979.499278008852, 0.0, 0.0, 0.0, 0.0, -3537.2753187746193, 0.0]
['beep', 0.0, -4980.683920464983, 0.0, 0.0, 0.0, 0.0, -3534.1684262953313, 0.0]
['beep', 0.0, -4982.472060021408, 0.0, 0.0, 0.0, 0.0, -3531.7320861497033, 0.0]
['beep', 0.0, -4985.780118200793, 0.0, 0.0, 0.0, 0.0, -3526.702943647259, 0.0]
['beep', 0.0, -4982.919094910514, 0.0, 0.0, 0.0, 0.0, -3519.3045162325525, 0.0]
['beep', 0.0, -4975.36420528462, 0.0, 0.0, 0.0, 0.0, -3513.336600462985, 0.0]
['beep', 0.0, -4972.503181994341, 0.0, 0.0, 0.0, 0.0, -3509.6932661167702, 0.0]
['beep', 0.0, -4980.46040302043, 0.0, 0.0, 0.0, 0.0, -3501.870155557413, 0.0]
['beep', 0.0, -4983.120260610612, 0.0, 0.0, 0.0, 0.0, -3494.0023415091446, 0.0]
['beep', 0.0, -4979.6110367311285, 0.0, 0.0, 0.0, 0.0, -3487.229762939187, 0.0]
['beep', 0.0, -4977.867600663615, 0.0, 0.0, 0.0, 0.0, -3481.0159779806113, 0.0]
['beep', 0.0, -4978.001711130347, 0.0, 0.0, 0.0, 0.0, -3475.6515593113377, 0.0]
['beep', 0.0, -4973.240789561366, 0.0, 0.0, 0.0, 0.0, -3469.8177540085026, 0.0]
['beep', 0.0, -4975.36420528462, 0.0, 0.0, 0.0, 0.0, -3463.9168934723016, 0.0]
['beep', 0.0, -4978.135821597079, 0.0, 0.0, 0.0, 0.0, -3456.7196317576927, 0.0]
['beep', 0.0, -4979.499278008852, 0.0, 0.0, 0.0, 0.0, -3451.2658061105976, 0.0]
['beep', 0.0, -4980.8403826761705, 0.0, 0.0, 0.0, 0.0, -3446.7284019861704, 0.0]
['beep', 0.0, -4979.9016094090475, 0.0, 0.0, 0.0, 0.0, -3441.699259483726, 0.0]
['beep', 0.0, -4978.94048439747, 0.0, 0.0, 0.0, 0.0, -3437.2736140815755, 0.0]
['beep', 0.0, -4979.923961153503, 0.0, 0.0, 0.0, 0.0, -3432.9150239127907, 0.0]
['beep', 0.0, -4980.281589064788, 0.0, 0.0, 0.0, 0.0, -3429.4281517777627, 0.0]
['beep', 0.0, -4977.666434963517, 0.0, 0.0, 0.0, 0.0, -3424.801340675514, 0.0]
['beep', 0.0, -4980.125126853601, 0.0, 0.0, 0.0, 0.0, -3423.3261255414636, 0.0]
['beep', 0.0, -4981.9579698989355, 0.0, 0.0, 0.0, 0.0, -3421.4262272627625, 0.0]
['beep', 0.0, -4979.70044370895, 0.0, 0.0, 0.0, 0.0, -3419.191052817232, 0.0]
['beep', 0.0, -4977.308807052232, 0.0, 0.0, 0.0, 0.0, -3416.330029526953, 0.0]
['beep', 0.0, -4979.409871031031, 0.0, 0.0, 0.0, 0.0, -3417.3358580274416, 0.0]
['beep', 0.0, -4981.89091466557, 0.0, 0.0, 0.0, 0.0, -3419.9510121287126, 0.0]
['beep', 0.0, -4981.9579698989355, 0.0, 0.0, 0.0, 0.0, -3419.9733638731677, 0.0]
['beep', 0.0, -4982.203839087944, 0.0, 0.0, 0.0, 0.0, -3419.1687010727765, 0.0]
['beep', 0.0, -4981.063900120724, 0.0, 0.0, 0.0, 0.0, -3421.0238958625673, 0.0]
['beep', 0.0, -4982.673225721505, 0.0, 0.0, 0.0, 0.0, -3426.388314531841, 0.0]
['beep', 0.0, -4982.695577465961, 0.0, 0.0, 0.0, 0.0, -3429.96459364469, 0.0]
['beep', 0.0, -4980.572161742707, 0.0, 0.0, 0.0, 0.0, -3434.1443698578323, 0.0]
['beep', 0.0, -4979.164001842022, 0.0, 0.0, 0.0, 0.0, -3442.1462943728325, 0.0]
['beep', 0.0, -4979.633388475584, 0.0, 0.0, 0.0, 0.0, -3446.862512452902, 0.0]
['beep', 0.0, -4980.683920464983, 0.0, 0.0, 0.0, 0.0, -3452.517503800095, 0.0]
['beep', 0.0, -4982.628522232595, 0.0, 0.0, 0.0, 0.0, -3459.4241928367846, 0.0]
['beep', 0.0, -4983.969626899913, 0.0, 0.0, 0.0, 0.0, -3463.469858583195, 0.0]
['beep', 0.0, -4984.5954757446625, 0.0, 0.0, 0.0, 0.0, -3467.6496347963375, 0.0]
['beep', 0.0, -4985.467193778419, 0.0, 0.0, 0.0, 0.0, -3473.952826732734, 0.0]
['beep', 0.0, -4983.03085363279, 0.0, 0.0, 0.0, 0.0, -3479.093727957455, 0.0]
['beep', 0.0, -4981.823859432204, 0.0, 0.0, 0.0, 0.0, -3483.899353015346, 0.0]
['beep', 0.0, -4982.382653043586, 0.0, 0.0, 0.0, 0.0, -3488.570867606505, 0.0]
['beep', 0.0, -4982.516763510319, 0.0, 0.0, 0.0, 0.0, -3494.5834868649827, 0.0]
['beep', 0.0, -4983.455536777441, 0.0, 0.0, 0.0, 0.0, -3498.8750218004016, 0.0]
['beep', 0.0, -4982.337949554676, 0.0, 0.0, 0.0, 0.0, -3502.9430392912677, 0.0]
['beep', 0.0, -4982.136783854578, 0.0, 0.0, 0.0, 0.0, -3508.3074579605413, 0.0]
['beep', 0.0, -4982.405004788042, 0.0, 0.0, 0.0, 0.0, -3511.995495795667, 0.0]
['beep', 0.0, -4982.673225721505, 0.0, 0.0, 0.0, 0.0, -3513.604821396449, 0.0]
['beep', 0.0, -4982.405004788042, 0.0, 0.0, 0.0, 0.0, -3517.2034522537533, 0.0]
['beep', 0.0, -4982.136783854578, 0.0, 0.0, 0.0, 0.0, -3521.1373592778873, 0.0]
['beep', 0.0, -4982.159135599034, 0.0, 0.0, 0.0, 0.0, -3524.110141290443, 0.0]
['beep', 0.0, -4982.516763510319, 0.0, 0.0, 0.0, 0.0, -3523.8866238458904, 0.0]
['beep', 0.0, -4982.2261908324, 0.0, 0.0, 0.0, 0.0, -3525.6300599134042, 0.0]
['beep', 0.0, -4982.382653043586, 0.0, 0.0, 0.0, 0.0, -3526.9488128362673, 0.0]
['beep', 0.0, -4982.025025132301, 0.0, 0.0, 0.0, 0.0, -3529.2063390262533, 0.0]
['beep', 0.0, -4983.120260610612, 0.0, 0.0, 0.0, 0.0, -3532.670859416826, 0.0]
['beep', 0.0, -4982.874391421604, 0.0, 0.0, 0.0, 0.0, -3533.766094895136, 0.0]
['beep', 0.0, -4982.360301299132, 0.0, 0.0, 0.0, 0.0, -3533.6766879173147, 0.0]
['beep', 0.0, -4981.4885832653745, 0.0, 0.0, 0.0, 0.0, -3534.4589989732503, 0.0]
['beep', 0.0, -4980.773327442805, 0.0, 0.0, 0.0, 0.0, -3534.9060338623567, 0.0]
['beep', 0.0, -4981.242714076366, 0.0, 0.0, 0.0, 0.0, -3536.6941734187812, 0.0]
['beep', 0.0, -4981.376824543098, 0.0, 0.0, 0.0, 0.0, -3536.6271181854154, 0.0]
['beep', 0.0, -4980.996844887358, 0.0, 0.0, 0.0, 0.0, -3536.9623943522447, 0.0]
['beep', 0.0, -4980.41569953152, 0.0, 0.0, 0.0, 0.0, -3538.147036808376, 0.0]
['beep', 0.0, -4980.438051275975, 0.0, 0.0, 0.0, 0.0, -3538.3034990195633, 0.0]
['beep', 0.0, -4980.996844887358, 0.0, 0.0, 0.0, 0.0, -3536.9847460967003, 0.0]
['beep', 0.0, -4980.683920464983, 0.0, 0.0, 0.0, 0.0, -3537.141208307887, 0.0]
['beep', 0.0, -4980.79567918726, 0.0, 0.0, 0.0, 0.0, -3539.644603686882, 0.0]
['beep', 0.0, -4980.996844887358, 0.0, 0.0, 0.0, 0.0, -3540.248100787175, 0.0]
['beep', 0.0, -4980.281589064788, 0.0, 0.0, 0.0, 0.0, -3539.8681211314347, 0.0]
['beep', 0.0, -4981.309769309732, 0.0, 0.0, 0.0, 0.0, -3540.7845426541026, 0.0]
['beep', 0.0, -4981.399176287553, 0.0, 0.0, 0.0, 0.0, -3541.119818820932, 0.0]
['beep', 0.0, -4981.7791559432935, 0.0, 0.0, 0.0, 0.0, -3542.304461277063, 0.0]
['beep', 0.0, -4980.974493142902, 0.0, 0.0, 0.0, 0.0, -3541.768019410136, 0.0]
['beep', 0.0, -4980.46040302043, 0.0, 0.0, 0.0, 0.0, -3542.215054299242, 0.0]
['beep', 0.0, -4980.996844887358, 0.0, 0.0, 0.0, 0.0, -3542.952661866267, 0.0]
['beep', 0.0, -4980.862734420626, 0.0, 0.0, 0.0, 0.0, -3543.645565944382, 0.0]
['beep', 0.0, -4981.55563849874, 0.0, 0.0, 0.0, 0.0, -3543.1091240774545, 0.0]
['beep', 0.0, -4981.287417565277, 0.0, 0.0, 0.0, 0.0, -3544.025545600122, 0.0]
['beep', 0.0, -4980.862734420626, 0.0, 0.0, 0.0, 0.0, -3544.4055252558624, 0.0]
['beep', 0.0, -4981.622693732106, 0.0, 0.0, 0.0, 0.0, -3544.629042700415, 0.0]
['beep', 0.0, -4981.734452454383, 0.0, 0.0, 0.0, 0.0, -3546.439534001295, 0.0]
['beep', 0.0, -4981.689748965472, 0.0, 0.0, 0.0, 0.0, -3547.4900659906943, 0.0]
['beep', 0.0, -4980.885086165081, 0.0, 0.0, 0.0, 0.0, -3546.439534001295, 0.0]
['beep', 0.0, -4981.287417565277, 0.0, 0.0, 0.0, 0.0, -3545.0984293339766, 0.0]
['beep', 0.0, -4981.734452454383, 0.0, 0.0, 0.0, 0.0, -3545.344298522985, 0.0]
['beep', 0.0, -4982.136783854578, 0.0, 0.0, 0.0, 0.0, -3545.70192643427, 0.0]
['beep', 0.0, -4981.443879776464, 0.0, 0.0, 0.0, 0.0, -3545.7466299231805, 0.0]
['beep', 0.0, -4980.862734420626, 0.0, 0.0, 0.0, 0.0, -3546.7524584236694, 0.0]
['beep', 0.0, -4981.9579698989355, 0.0, 0.0, 0.0, 0.0, -3546.79716191258, 0.0]
['beep', 0.0, -4981.332121054187, 0.0, 0.0, 0.0, 0.0, -3546.439534001295, 0.0]
['beep', 0.0, -4980.996844887358, 0.0, 0.0, 0.0, 0.0, -3545.120781078432, 0.0]
['beep', 0.0, -4979.4322227754865, 0.0, 0.0, 0.0, 0.0, -3543.623214199926, 0.0]
['beep', 0.0, -4978.292283808266, 0.0, 0.0, 0.0, 0.0, -3544.472580489228, 0.0]
['beep', 0.0, -4980.6615687205285, 0.0, 0.0, 0.0, 0.0, -3545.2995950340746, 0.0]
['beep', 0.0, -4983.388481544075, 0.0, 0.0, 0.0, 0.0, -3546.3501270234738, 0.0]
['beep', 0.0, -4981.846211176659, 0.0, 0.0, 0.0, 0.0, -3545.947795623278, 0.0]
['beep', 0.0, -4980.326292553698, 0.0, 0.0, 0.0, 0.0, -3545.1431328228873, 0.0]
['beep', 0.0, -4979.566333242218, 0.0, 0.0, 0.0, 0.0, -3545.70192643427, 0.0]
['beep', 0.0, -4979.6110367311285, 0.0, 0.0, 0.0, 0.0, -3545.8136851565464, 0.0]
['beep', 0.0, -4981.108603609634, 0.0, 0.0, 0.0, 0.0, -3547.2889002905968, 0.0]
['beep', 0.0, -4981.198010587455, 0.0, 0.0, 0.0, 0.0, -3548.9429293802896, 0.0]
['beep', 0.0, -4980.8403826761705, 0.0, 0.0, 0.0, 0.0, -3548.831170658013, 0.0]
['beep', 0.0, -4980.683920464983, 0.0, 0.0, 0.0, 0.0, -3546.4171822568396, 0.0]
['beep', 0.0, -4980.482754764886, 0.0, 0.0, 0.0, 0.0, -3545.7913334120913, 0.0]
['beep', 0.0, -4979.946312897959, 0.0, 0.0, 0.0, 0.0, -3545.925443878823, 0.0]
['beep', 0.0, -4979.834554175682, 0.0, 0.0, 0.0, 0.0, -3548.0265078576217, 0.0]
['beep', 0.0, -4980.505106509341, 0.0, 0.0, 0.0, 0.0, -3547.17714156832, 0.0]
['beep', 0.0, -4979.208705330933, 0.0, 0.0, 0.0, 0.0, -3546.79716191258, 0.0]
['beep', 0.0, -4978.895780908559, 0.0, 0.0, 0.0, 0.0, -3547.4230107573285, 0.0]
['beep', 0.0, -4979.342815797665, 0.0, 0.0, 0.0, 0.0, -3548.764115424647, 0.0]
['beep', 0.0, -4980.683920464983, 0.0, 0.0, 0.0, 0.0, -3548.831170658013, 0.0]
['beep', 0.0, -4979.70044370895, 0.0, 0.0, 0.0, 0.0, -3550.216978814242, 0.0]
['beep', 0.0, -4979.141650097567, 0.0, 0.0, 0.0, 0.0, -3548.5853014690047, 0.0]
['beep', 0.0, -4978.582856486185, 0.0, 0.0, 0.0, 0.0, -3548.4288392578173, 0.0]
['beep', 0.0, -4980.572161742707, 0.0, 0.0, 0.0, 0.0, -3550.9098828923566, 0.0]
['beep', 0.0, -4981.645045476562, 0.0, 0.0, 0.0, 0.0, -3551.088696847999, 0.0]
['beep', 0.0, -4981.242714076366, 0.0, 0.0, 0.0, 0.0, -3548.451191002273, 0.0]
['beep', 0.0, -4979.387519286575, 0.0, 0.0, 0.0, 0.0, -3549.3899642693955, 0.0]
['beep', 0.0, -4980.773327442805, 0.0, 0.0, 0.0, 0.0, -3550.6193102144375, 0.0]
['beep', 0.0, -4981.55563849874, 0.0, 0.0, 0.0, 0.0, -3549.7475921806804, 0.0]
['beep', 0.0, -4980.616865231617, 0.0, 0.0, 0.0, 0.0, -3551.111048592454, 0.0]
['beep', 0.0, -4980.885086165081, 0.0, 0.0, 0.0, 0.0, -3552.094525348488, 0.0]
['beep', 0.0, -4980.79567918726, 0.0, 0.0, 0.0, 0.0, -3551.468676503739, 0.0]
['beep', 0.0, -4981.13095535409, 0.0, 0.0, 0.0, 0.0, -3551.066345103544, 0.0]
['beep', 0.0, -4982.025025132301, 0.0, 0.0, 0.0, 0.0, -3550.820475914535, 0.0]
['beep', 0.0, -4981.712100709928, 0.0, 0.0, 0.0, 0.0, -3550.775772425625, 0.0]
['beep', 0.0, -4981.466231520919, 0.0, 0.0, 0.0, 0.0, -3550.6640137033482, 0.0]
['beep', 0.0, -4981.041548376268, 0.0, 0.0, 0.0, 0.0, -3550.2840340476077, 0.0]
['beep', 0.0, -4980.952141398447, 0.0, 0.0, 0.0, 0.0, -3549.3676125249403, 0.0]
['beep', 0.0, -4981.734452454383, 0.0, 0.0, 0.0, 0.0, -3550.172275325331, 0.0]
['beep', 0.0, -4982.472060021408, 0.0, 0.0, 0.0, 0.0, -3553.0109468711553, 0.0]
['beep', 0.0, -4981.220362331911, 0.0, 0.0, 0.0, 0.0, -3551.669842203837, 0.0]
['beep', 0.0, -4980.572161742707, 0.0, 0.0, 0.0, 0.0, -3549.8146474140462, 0.0]
['beep', 0.0, -4981.913266410025, 0.0, 0.0, 0.0, 0.0, -3550.6193102144375, 0.0]
['beep', 0.0, -4980.862734420626, 0.0, 0.0, 0.0, 0.0, -3550.08286834751, 0.0]
['beep', 0.0, -4980.683920464983, 0.0, 0.0, 0.0, 0.0, -3550.149923580876, 0.0]
['beep', 0.0, -4980.505106509341, 0.0, 0.0, 0.0, 0.0, -3551.8486561594796, 0.0]
['beep', 0.0, -4980.035719875779, 0.0, 0.0, 0.0, 0.0, -3549.859350902957, 0.0]
['beep', 0.0, -4981.019196631813, 0.0, 0.0, 0.0, 0.0, -3550.172275325331, 0.0]
['beep', 0.0, -4982.31559781022, 0.0, 0.0, 0.0, 0.0, -3550.3063857920633, 0.0]
['beep', 0.0, -4980.348644298154, 0.0, 0.0, 0.0, 0.0, -3551.1334003369097, 0.0]
['beep', 0.0, -4980.236885575877, 0.0, 0.0, 0.0, 0.0, -3551.51337999265, 0.0]
['beep', 0.0, -4979.164001842022, 0.0, 0.0, 0.0, 0.0, -3551.7145456927474, 0.0]
['beep', 0.0, -4979.879257664592, 0.0, 0.0, 0.0, 0.0, -3553.6144439714485, 0.0]
['beep', 0.0, -4980.6615687205285, 0.0, 0.0, 0.0, 0.0, -3552.318042793041, 0.0]
['beep', 0.0, -4980.6615687205285, 0.0, 0.0, 0.0, 0.0, -3550.9769381257224, 0.0]
['beep', 0.0, -4980.8403826761705, 0.0, 0.0, 0.0, 0.0, -3551.2004555702756, 0.0]
['beep', 0.0, -4979.789850686771, 0.0, 0.0, 0.0, 0.0, -3552.1615805818537, 0.0]
['beep', 0.0, -4980.326292553698, 0.0, 0.0, 0.0, 0.0, -3551.6251387149264, 0.0]
['beep', 0.0, -4980.952141398447, 0.0, 0.0, 0.0, 0.0, -3552.5639119820494, 0.0]
['beep', 0.0, -4981.689748965472, 0.0, 0.0, 0.0, 0.0, -3551.9157113928454, 0.0]
['beep', 0.0, -4981.913266410025, 0.0, 0.0, 0.0, 0.0, -3551.379269525918, 0.0]
['beep', 0.0, -4981.801507687749, 0.0, 0.0, 0.0, 0.0, -3551.669842203837, 0.0]
['beep', 0.0, -4981.399176287553, 0.0, 0.0, 0.0, 0.0, -3551.9380631373006, 0.0]
['beep', 0.0, -4982.002673387847, 0.0, 0.0, 0.0, 0.0, -3549.501722991672, 0.0]
['beep', 0.0, -4982.248542576855, 0.0, 0.0, 0.0, 0.0, -3552.9438916377894, 0.0]
['beep', 0.0, -4981.913266410025, 0.0, 0.0, 0.0, 0.0, -3553.122705593432, 0.0]
['beep', 0.0, -4981.689748965472, 0.0, 0.0, 0.0, 0.0, -3553.927368393823, 0.0]
['beep', 0.0, -4981.689748965472, 0.0, 0.0, 0.0, 0.0, -3554.1285340939207, 0.0]
['beep', 0.0, -4981.89091466557, 0.0, 0.0, 0.0, 0.0, -3552.116877092943, 0.0]
['beep', 0.0, -4980.750975698349, 0.0, 0.0, 0.0, 0.0, -3552.407449770862, 0.0]
['beep', 0.0, -4981.287417565277, 0.0, 0.0, 0.0, 0.0, -3553.4579817602616, 0.0]
['beep', 0.0, -4980.46040302043, 0.0, 0.0, 0.0, 0.0, -3554.2402928161973, 0.0]
['beep', 0.0, -4980.728623953894, 0.0, 0.0, 0.0, 0.0, -3553.9497201382783, 0.0]
['beep', 0.0, -4980.818030931715, 0.0, 0.0, 0.0, 0.0, -3552.8544846599684, 0.0]
['beep', 0.0, -4982.092080365668, 0.0, 0.0, 0.0, 0.0, -3553.055650360066, 0.0]
['beep', 0.0, -4981.734452454383, 0.0, 0.0, 0.0, 0.0, -3555.6261009724262, 0.0]
['beep', 0.0, -4980.683920464983, 0.0, 0.0, 0.0, 0.0, -3555.1790660833203, 0.0]
['beep', 0.0, -4981.7791559432935, 0.0, 0.0, 0.0, 0.0, -3554.664975960848, 0.0]
['beep', 0.0, -4983.3661297996205, 0.0, 0.0, 0.0, 0.0, -3554.8884934054013, 0.0]
['beep', 0.0, -4983.053205377246, 0.0, 0.0, 0.0, 0.0, -3555.246121316686, 0.0]
['beep', 0.0, -4982.069728621213, 0.0, 0.0, 0.0, 0.0, -3555.2684730611413, 0.0]
['beep', 0.0, -4980.773327442805, 0.0, 0.0, 0.0, 0.0, -3554.8661416609457, 0.0]
['beep', 0.0, -4978.113469852623, 0.0, 0.0, 0.0, 0.0, -3554.4638102607505, 0.0]
['beep', 0.0, -4976.526495996296, 0.0, 0.0, 0.0, 0.0, -3552.742725937692, 0.0]
['beep', 0.0, -4975.855943662637, 0.0, 0.0, 0.0, 0.0, -3550.6193102144375, 0.0]
['beep', 0.0, -4975.408908773531, 0.0, 0.0, 0.0, 0.0, -3552.675670704326, 0.0]
['beep', 0.0, -4973.978397128391, 0.0, 0.0, 0.0, 0.0, -3552.6533189598704, 0.0]
['beep', 0.0, -4976.101812851645, 0.0, 0.0, 0.0, 0.0, -3551.736897437203, 0.0]
['beep', 0.0, -4977.778193685794, 0.0, 0.0, 0.0, 0.0, -3553.4579817602616, 0.0]
['beep', 0.0, -4978.98518788638, 0.0, 0.0, 0.0, 0.0, -3553.994423627189, 0.0]
['beep', 0.0, -4980.058071620235, 0.0, 0.0, 0.0, 0.0, -3553.5250369936275, 0.0]
['beep', 0.0, -4980.169830342511, 0.0, 0.0, 0.0, 0.0, -3554.7543829386696, 0.0]
['beep', 0.0, -4979.834554175682, 0.0, 0.0, 0.0, 0.0, -3555.022603872133, 0.0]
['beep', 0.0, -4981.287417565277, 0.0, 0.0, 0.0, 0.0, -3553.7485544381807, 0.0]
['beep', 0.0, -4981.9579698989355, 0.0, 0.0, 0.0, 0.0, -3553.390926526896, 0.0]
['beep', 0.0, -4980.125126853601, 0.0, 0.0, 0.0, 0.0, -3553.5473887380826, 0.0]
['beep', 0.0, -4981.13095535409, 0.0, 0.0, 0.0, 0.0, -3552.4968567486835, 0.0]
['beep', 0.0, -4980.862734420626, 0.0, 0.0, 0.0, 0.0, -3551.960414881756, 0.0]
['beep', 0.0, -4980.393347787064, 0.0, 0.0, 0.0, 0.0, -3554.150885838376, 0.0]
['beep', 0.0, -4980.750975698349, 0.0, 0.0, 0.0, 0.0, -3554.6202724719374, 0.0]
['beep', 0.0, -4982.248542576855, 0.0, 0.0, 0.0, 0.0, -3553.390926526896, 0.0]
['beep', 0.0, -4980.348644298154, 0.0, 0.0, 0.0, 0.0, -3554.352051538474, 0.0]
['beep', 0.0, -4979.923961153503, 0.0, 0.0, 0.0, 0.0, -3555.8719701614345, 0.0]
['beep', 0.0, -4980.6615687205285, 0.0, 0.0, 0.0, 0.0, -3554.4638102607505, 0.0]
['beep', 0.0, -4979.9016094090475, 0.0, 0.0, 0.0, 0.0, -3553.480333504717, 0.0]
['beep', 0.0, -4981.443879776464, 0.0, 0.0, 0.0, 0.0, -3552.787429426602, 0.0]
['beep', 0.0, -4979.9016094090475, 0.0, 0.0, 0.0, 0.0, -3553.726202693725, 0.0]
['beep', 0.0, -4979.387519286575, 0.0, 0.0, 0.0, 0.0, -3554.284996305108, 0.0]
['beep', 0.0, -4979.298112308755, 0.0, 0.0, 0.0, 0.0, -3553.7485544381807, 0.0]
['beep', 0.0, -4978.918132653014, 0.0, 0.0, 0.0, 0.0, -3555.4249352723286, 0.0]
['beep', 0.0, -4979.342815797665, 0.0, 0.0, 0.0, 0.0, -3554.061478860555, 0.0]
['beep', 0.0, -4979.253408819844, 0.0, 0.0, 0.0, 0.0, -3551.9827666262113, 0.0]
['beep', 0.0, -4978.9628361419245, 0.0, 0.0, 0.0, 0.0, -3551.423973014829, 0.0]
['beep', 0.0, -4977.688786707972, 0.0, 0.0, 0.0, 0.0, -3552.049821859577, 0.0]
['beep', 0.0, -4978.828725675193, 0.0, 0.0, 0.0, 0.0, -3552.1392288373986, 0.0]
['beep', 0.0, -4978.381690786086, 0.0, 0.0, 0.0, 0.0, -3551.9380631373006, 0.0]
['beep', 0.0, -4977.308807052232, 0.0, 0.0, 0.0, 0.0, -3552.094525348488, 0.0]
['beep', 0.0, -4977.577027985696, 0.0, 0.0, 0.0, 0.0, -3552.183932326309, 0.0]
['beep', 0.0, -4978.158173341533, 0.0, 0.0, 0.0, 0.0, -3552.9662433822446, 0.0]
['beep', 0.0, -4977.979359385891, 0.0, 0.0, 0.0, 0.0, -3553.346223037985, 0.0]
['beep', 0.0, -4977.957007641436, 0.0, 0.0, 0.0, 0.0, -3552.7203741932362, 0.0]
['beep', 0.0, -4977.800545430248, 0.0, 0.0, 0.0, 0.0, -3552.340394537496, 0.0]
['beep', 0.0, -4978.538152997274, 0.0, 0.0, 0.0, 0.0, -3553.9050166493676, 0.0]
['beep', 0.0, -4978.247580319355, 0.0, 0.0, 0.0, 0.0, -3554.6202724719374, 0.0]
['beep', 0.0, -4979.588684986673, 0.0, 0.0, 0.0, 0.0, -3553.860313160457, 0.0]
['beep', 0.0, -4979.499278008852, 0.0, 0.0, 0.0, 0.0, -3554.307348049563, 0.0]
['beep', 0.0, -4978.26993206381, 0.0, 0.0, 0.0, 0.0, -3556.4978190061834, 0.0]
['beep', 0.0, -4977.88995240807, 0.0, 0.0, 0.0, 0.0, -3553.636795715904, 0.0]
['beep', 0.0, -4978.7840221862825, 0.0, 0.0, 0.0, 0.0, -3552.2509875596747, 0.0]
['beep', 0.0, -4978.60520823064, 0.0, 0.0, 0.0, 0.0, -3554.016775371644, 0.0]
['beep', 0.0, -4978.359339041632, 0.0, 0.0, 0.0, 0.0, -3554.8661416609457, 0.0]
['beep', 0.0, -4976.884123907581, 0.0, 0.0, 0.0, 0.0, -3554.352051538474, 0.0]
['beep', 0.0, -4976.839420418671, 0.0, 0.0, 0.0, 0.0, -3553.9497201382783, 0.0]
['beep', 0.0, -4978.6722634640055, 0.0, 0.0, 0.0, 0.0, -3554.4638102607505, 0.0]
['beep', 0.0, -4978.336987297176, 0.0, 0.0, 0.0, 0.0, -3555.089659105499, 0.0]
['beep', 0.0, -4977.688786707972, 0.0, 0.0, 0.0, 0.0, -3554.150885838376, 0.0]
['beep', 0.0, -4977.778193685794, 0.0, 0.0, 0.0, 0.0, -3553.5250369936275, 0.0]
['beep', 0.0, -4978.046414619257, 0.0, 0.0, 0.0, 0.0, -3553.793257927091, 0.0]
['beep', 0.0, -4978.336987297176, 0.0, 0.0, 0.0, 0.0, -3552.541560237594, 0.0]
['beep', 0.0, -4978.627559975095, 0.0, 0.0, 0.0, 0.0, -3553.1674090823426, 0.0]
['beep', 0.0, -4978.202876830444, 0.0, 0.0, 0.0, 0.0, -3553.6144439714485, 0.0]
['beep', 0.0, -4978.046414619257, 0.0, 0.0, 0.0, 0.0, -3554.1955893272866, 0.0]
['beep', 0.0, -4978.202876830444, 0.0, 0.0, 0.0, 0.0, -3552.094525348488, 0.0]
['beep', 0.0, -4978.180525085989, 0.0, 0.0, 0.0, 0.0, -3551.379269525918, 0.0]
['beep', 0.0, -4978.336987297176, 0.0, 0.0, 0.0, 0.0, -3553.078002104521, 0.0]
['beep', 0.0, -4978.113469852623, 0.0, 0.0, 0.0, 0.0, -3554.8661416609457, 0.0]
['beep', 0.0, -4977.957007641436, 0.0, 0.0, 0.0, 0.0, -3552.116877092943, 0.0]
['beep', 0.0, -4978.068766363713, 0.0, 0.0, 0.0, 0.0, -3549.9711096252336, 0.0]
['beep', 0.0, -4978.314635552721, 0.0, 0.0, 0.0, 0.0, -3550.2616823031526, 0.0]
['beep', 0.0, -4978.98518788638, 0.0, 0.0, 0.0, 0.0, -3551.446324759284, 0.0]
['beep', 0.0, -4978.94048439747, 0.0, 0.0, 0.0, 0.0, -3552.2733393041303, 0.0]
['beep', 0.0, -4977.264103563321, 0.0, 0.0, 0.0, 0.0, -3552.5639119820494, 0.0]
['beep', 0.0, -4977.018234374313, 0.0, 0.0, 0.0, 0.0, -3553.2121125712533, 0.0]
['beep', 0.0, -4977.711138452428, 0.0, 0.0, 0.0, 0.0, -3553.122705593432, 0.0]
['beep', 0.0, -4977.487621007875, 0.0, 0.0, 0.0, 0.0, -3552.2286358152196, 0.0]
['beep', 0.0, -4976.839420418671, 0.0, 0.0, 0.0, 0.0, -3550.373441025429, 0.0]
['beep', 0.0, -4976.481792507386, 0.0, 0.0, 0.0, 0.0, -3550.1946270697867, 0.0]
['beep', 0.0, -4977.219400074411, 0.0, 0.0, 0.0, 0.0, -3550.7534206811692, 0.0]
['beep', 0.0, -4977.778193685794, 0.0, 0.0, 0.0, 0.0, -3551.088696847999, 0.0]
['beep', 0.0, -4978.091118108167, 0.0, 0.0, 0.0, 0.0, -3552.452153259773, 0.0]
['beep', 0.0, -4978.180525085989, 0.0, 0.0, 0.0, 0.0, -3551.9380631373006, 0.0]
['beep', 0.0, -4978.381690786086, 0.0, 0.0, 0.0, 0.0, -3551.759249181658, 0.0]
['beep', 0.0, -4977.711138452428, 0.0, 0.0, 0.0, 0.0, -3550.172275325331, 0.0]
['beep', 0.0, -4979.543981497763, 0.0, 0.0, 0.0, 0.0, -3550.172275325331, 0.0]
['beep', 0.0, -4979.6110367311285, 0.0, 0.0, 0.0, 0.0, -3551.9827666262113, 0.0]
['beep', 0.0, -4978.873429164103, 0.0, 0.0, 0.0, 0.0, -3551.8486561594796, 0.0]
['beep', 0.0, -4978.739318697371, 0.0, 0.0, 0.0, 0.0, -3552.318042793041, 0.0]
['beep', 0.0, -4977.7334901968825, 0.0, 0.0, 0.0, 0.0, -3552.2509875596747, 0.0]
['beep', 0.0, -4977.7334901968825, 0.0, 0.0, 0.0, 0.0, -3553.055650360066, 0.0]
['beep', 0.0, -4978.694615208461, 0.0, 0.0, 0.0, 0.0, -3553.346223037985, 0.0]
['beep', 0.0, -4979.566333242218, 0.0, 0.0, 0.0, 0.0, -3551.803952670569, 0.0]
['beep', 0.0, -4977.5546762412405, 0.0, 0.0, 0.0, 0.0, -3553.055650360066, 0.0]
['beep', 0.0, -4978.202876830444, 0.0, 0.0, 0.0, 0.0, -3553.6814992048144, 0.0]
['beep', 0.0, -4979.208705330933, 0.0, 0.0, 0.0, 0.0, -3552.2956910485855, 0.0]
['beep', 0.0, -4980.862734420626, 0.0, 0.0, 0.0, 0.0, -3553.5250369936275, 0.0]
['beep', 0.0, -4980.393347787064, 0.0, 0.0, 0.0, 0.0, -3553.1897608267977, 0.0]
['beep', 0.0, -4979.186353586478, 0.0, 0.0, 0.0, 0.0, -3552.5192084931386, 0.0]
['beep', 0.0, -4979.923961153503, 0.0, 0.0, 0.0, 0.0, -3551.401621270373, 0.0]
['beep', 0.0, -4980.773327442805, 0.0, 0.0, 0.0, 0.0, -3552.675670704326, 0.0]
['beep', 0.0, -4979.879257664592, 0.0, 0.0, 0.0, 0.0, -3552.8991881488787, 0.0]
['beep', 0.0, -4980.393347787064, 0.0, 0.0, 0.0, 0.0, -3553.36857478244, 0.0]
['beep', 0.0, -4979.968664642413, 0.0, 0.0, 0.0, 0.0, -3554.933196894312, 0.0]
['beep', 0.0, -4979.7227954534055, 0.0, 0.0, 0.0, 0.0, -3555.1790660833203, 0.0]
['beep', 0.0, -4981.019196631813, 0.0, 0.0, 0.0, 0.0, -3552.183932326309, 0.0]
['beep', 0.0, -4981.019196631813, 0.0, 0.0, 0.0, 0.0, -3552.1615805818537, 0.0]
['beep', 0.0, -4979.521629753307, 0.0, 0.0, 0.0, 0.0, -3551.401621270373, 0.0]
['beep', 0.0, -4979.70044370895, 0.0, 0.0, 0.0, 0.0, -3552.1392288373986, 0.0]
['beep', 0.0, -4979.231057075388, 0.0, 0.0, 0.0, 0.0, -3551.960414881756, 0.0]
['beep', 0.0, -4980.773327442805, 0.0, 0.0, 0.0, 0.0, -3553.770906182636, 0.0]
['beep', 0.0, -4980.594513487162, 0.0, 0.0, 0.0, 0.0, -3553.9497201382783, 0.0]
['beep', 0.0, -4980.326292553698, 0.0, 0.0, 0.0, 0.0, -3552.765077682147, 0.0]
['beep', 0.0, -4980.281589064788, 0.0, 0.0, 0.0, 0.0, -3550.9545863812673, 0.0]
['beep', 0.0, -4979.678091964494, 0.0, 0.0, 0.0, 0.0, -3550.3957927698843, 0.0]
['beep', 0.0, -4980.3709960426095, 0.0, 0.0, 0.0, 0.0, -3551.6027869704712, 0.0]
['beep', 0.0, -4980.169830342511, 0.0, 0.0, 0.0, 0.0, -3552.2062840707645, 0.0]
['beep', 0.0, -4979.678091964494, 0.0, 0.0, 0.0, 0.0, -3552.183932326309, 0.0]
['beep', 0.0, -4979.4322227754865, 0.0, 0.0, 0.0, 0.0, -3552.5192084931386, 0.0]
['beep', 0.0, -4979.678091964494, 0.0, 0.0, 0.0, 0.0, -3552.318042793041, 0.0]
['beep', 0.0, -4979.946312897959, 0.0, 0.0, 0.0, 0.0, -3551.8710079039347, 0.0]
['beep', 0.0, -4980.46040302043, 0.0, 0.0, 0.0, 0.0, -3552.116877092943, 0.0]
['beep', 0.0, -4979.678091964494, 0.0, 0.0, 0.0, 0.0, -3551.2898625480966, 0.0]
['beep', 0.0, -4979.164001842022, 0.0, 0.0, 0.0, 0.0, -3549.7252404362252, 0.0]
['beep', 0.0, -4979.588684986673, 0.0, 0.0, 0.0, 0.0, -3551.2004555702756, 0.0]
['beep', 0.0, -4980.326292553698, 0.0, 0.0, 0.0, 0.0, -3553.480333504717, 0.0]
['beep', 0.0, -4980.616865231617, 0.0, 0.0, 0.0, 0.0, -3554.5755689830266, 0.0]
['beep', 0.0, -4981.6673972210165, 0.0, 0.0, 0.0, 0.0, -3554.1955893272866, 0.0]
['beep', 0.0, -4980.46040302043, 0.0, 0.0, 0.0, 0.0, -3552.6086154709596, 0.0]
['beep', 0.0, -4978.426394274998, 0.0, 0.0, 0.0, 0.0, -3551.2675108036415, 0.0]
['beep', 0.0, -4978.694615208461, 0.0, 0.0, 0.0, 0.0, -3551.51337999265, 0.0]
['beep', 0.0, -4980.482754764886, 0.0, 0.0, 0.0, 0.0, -3552.4968567486835, 0.0]
['beep', 0.0, -4982.963798399424, 0.0, 0.0, 0.0, 0.0, -3553.078002104521, 0.0]
['beep', 0.0, -4981.622693732106, 0.0, 0.0, 0.0, 0.0, -3552.6309672154152, 0.0]
['beep', 0.0, -4979.65574022004, 0.0, 0.0, 0.0, 0.0, -3550.2616823031526, 0.0]
['beep', 0.0, -4979.096946608656, 0.0, 0.0, 0.0, 0.0, -3549.792295669591, 0.0]
['beep', 0.0, -4978.761670441827, 0.0, 0.0, 0.0, 0.0, -3551.2228073147307, 0.0]
['beep', 0.0, -4979.499278008852, 0.0, 0.0, 0.0, 0.0, -3550.127571836421, 0.0]
['beep', 0.0, -4979.767498942316, 0.0, 0.0, 0.0, 0.0, -3548.6523567023705, 0.0]
['beep', 0.0, -4981.175658843, 0.0, 0.0, 0.0, 0.0, -3551.111048592454, 0.0]
['beep', 0.0, -4981.13095535409, 0.0, 0.0, 0.0, 0.0, -3550.440496258795, 0.0]
['beep', 0.0, -4980.505106509341, 0.0, 0.0, 0.0, 0.0, -3551.5580834815605, 0.0]
['beep', 0.0, -4980.773327442805, 0.0, 0.0, 0.0, 0.0, -3553.1897608267977, 0.0]
['beep', 0.0, -4979.119298353112, 0.0, 0.0, 0.0, 0.0, -3550.8428276589907, 0.0]
['beep', 0.0, -4978.649911719551, 0.0, 0.0, 0.0, 0.0, -3552.7203741932362, 0.0]
['beep', 0.0, -4979.476926264397, 0.0, 0.0, 0.0, 0.0, -3551.379269525918, 0.0]
['beep', 0.0, -4979.588684986673, 0.0, 0.0, 0.0, 0.0, -3549.5911299694935, 0.0]
['beep', 0.0, -4979.543981497763, 0.0, 0.0, 0.0, 0.0, -3549.70288869177, 0.0]
['beep', 0.0, -4977.979359385891, 0.0, 0.0, 0.0, 0.0, -3550.0381648585994, 0.0]
['beep', 0.0, -4977.711138452428, 0.0, 0.0, 0.0, 0.0, -3550.2616823031526, 0.0]
['beep', 0.0, -4978.7840221862825, 0.0, 0.0, 0.0, 0.0, -3550.46284800325, 0.0]
['beep', 0.0, -4979.096946608656, 0.0, 0.0, 0.0, 0.0, -3551.066345103544, 0.0]
['beep', 0.0, -4979.70044370895, 0.0, 0.0, 0.0, 0.0, -3549.926406136323, 0.0]
['beep', 0.0, -4977.755841941338, 0.0, 0.0, 0.0, 0.0, -3549.0993915914764, 0.0]
['beep', 0.0, -4977.711138452428, 0.0, 0.0, 0.0, 0.0, -3548.898225891379, 0.0]
['beep', 0.0, -4978.851077419648, 0.0, 0.0, 0.0, 0.0, -3549.054688102566, 0.0]
['beep', 0.0, -4978.538152997274, 0.0, 0.0, 0.0, 0.0, -3550.8428276589907, 0.0]
['beep', 0.0, -4978.158173341533, 0.0, 0.0, 0.0, 0.0, -3549.792295669591, 0.0]
['beep', 0.0, -4976.861772163126, 0.0, 0.0, 0.0, 0.0, -3548.2947287910856, 0.0]
['beep', 0.0, -4976.995882629858, 0.0, 0.0, 0.0, 0.0, -3548.764115424647, 0.0]
['beep', 0.0, -4977.666434963517, 0.0, 0.0, 0.0, 0.0, -3550.507551492161, 0.0]
['beep', 0.0, -4977.8452489191595, 0.0, 0.0, 0.0, 0.0, -3549.6134817139487, 0.0]
['beep', 0.0, -4977.375862285598, 0.0, 0.0, 0.0, 0.0, -3549.501722991672, 0.0]
['beep', 0.0, -4977.1746965855, 0.0, 0.0, 0.0, 0.0, -3549.769943925136, 0.0]
['beep', 0.0, -4978.94048439747, 0.0, 0.0, 0.0, 0.0, -3550.485199747706, 0.0]
['beep', 0.0, -4976.772365185305, 0.0, 0.0, 0.0, 0.0, -3550.8428276589907, 0.0]
['beep', 0.0, -4978.046414619257, 0.0, 0.0, 0.0, 0.0, -3551.379269525918, 0.0]
['beep', 0.0, -4978.471097763908, 0.0, 0.0, 0.0, 0.0, -3552.675670704326, 0.0]
['beep', 0.0, -4978.314635552721, 0.0, 0.0, 0.0, 0.0, -3552.049821859577, 0.0]
['beep', 0.0, -4978.381690786086, 0.0, 0.0, 0.0, 0.0, -3550.1052200919653, 0.0]
['beep', 0.0, -4978.9628361419245, 0.0, 0.0, 0.0, 0.0, -3549.635833458404, 0.0]
['beep', 0.0, -4980.125126853601, 0.0, 0.0, 0.0, 0.0, -3551.17810382582, 0.0]
['beep', 0.0, -4979.007539630836, 0.0, 0.0, 0.0, 0.0, -3550.820475914535, 0.0]
['beep', 0.0, -4978.426394274998, 0.0, 0.0, 0.0, 0.0, -3550.2616823031526, 0.0]
['beep', 0.0, -4977.331158796687, 0.0, 0.0, 0.0, 0.0, -3550.8428276589907, 0.0]
['beep', 0.0, -4977.532324496785, 0.0, 0.0, 0.0, 0.0, -3551.066345103544, 0.0]
['beep', 0.0, -4979.342815797665, 0.0, 0.0, 0.0, 0.0, -3551.6921939482922, 0.0]
['beep', 0.0, -4978.314635552721, 0.0, 0.0, 0.0, 0.0, -3550.79812417008, 0.0]
['beep', 0.0, -4978.046414619257, 0.0, 0.0, 0.0, 0.0, -3549.635833458404, 0.0]
['beep', 0.0, -4977.107641352134, 0.0, 0.0, 0.0, 0.0, -3549.9934613696887, 0.0]
['beep', 0.0, -4977.331158796687, 0.0, 0.0, 0.0, 0.0, -3549.211150313753, 0.0]
['beep', 0.0, -4978.068766363713, 0.0, 0.0, 0.0, 0.0, -3549.434667758306, 0.0]
['beep', 0.0, -4978.26993206381, 0.0, 0.0, 0.0, 0.0, -3549.926406136323, 0.0]
['beep', 0.0, -4977.107641352134, 0.0, 0.0, 0.0, 0.0, -3550.8428276589907, 0.0]
['beep', 0.0, -4976.772365185305, 0.0, 0.0, 0.0, 0.0, -3552.8991881488787, 0.0]
['beep', 0.0, -4977.867600663615, 0.0, 0.0, 0.0, 0.0, -3550.731068936714, 0.0]
['beep', 0.0, -4978.560504741729, 0.0, 0.0, 0.0, 0.0, -3550.5522549810717, 0.0]
['beep', 0.0, -4978.448746019452, 0.0, 0.0, 0.0, 0.0, -3550.820475914535, 0.0]
['beep', 0.0, -4976.593551229662, 0.0, 0.0, 0.0, 0.0, -3548.562949724549, 0.0]
['beep', 0.0, -4977.241751818866, 0.0, 0.0, 0.0, 0.0, -3549.211150313753, 0.0]
['beep', 0.0, -4976.772365185305, 0.0, 0.0, 0.0, 0.0, -3551.5580834815605, 0.0]
['beep', 0.0, -4976.213571573922, 0.0, 0.0, 0.0, 0.0, -3552.5192084931386, 0.0]
['beep', 0.0, -4976.682958207483, 0.0, 0.0, 0.0, 0.0, -3551.5580834815605, 0.0]
['beep', 0.0, -4976.861772163126, 0.0, 0.0, 0.0, 0.0, -3549.0770398470213, 0.0]
['beep', 0.0, -4977.442917518963, 0.0, 0.0, 0.0, 0.0, -3549.0099846136554, 0.0]
['beep', 0.0, -4977.107641352134, 0.0, 0.0, 0.0, 0.0, -3550.149923580876, 0.0]
['beep', 0.0, -4979.253408819844, 0.0, 0.0, 0.0, 0.0, -3550.1052200919653, 0.0]
['beep', 0.0, -4977.0852896076785, 0.0, 0.0, 0.0, 0.0, -3548.831170658013, 0.0]
['beep', 0.0, -4977.241751818866, 0.0, 0.0, 0.0, 0.0, -3548.6523567023705, 0.0]
['beep', 0.0, -4978.158173341533, 0.0, 0.0, 0.0, 0.0, -3549.479371247217, 0.0]
['beep', 0.0, -4977.331158796687, 0.0, 0.0, 0.0, 0.0, -3550.2616823031526, 0.0]
['beep', 0.0, -4976.571199485207, 0.0, 0.0, 0.0, 0.0, -3550.0381648585994, 0.0]
['beep', 0.0, -4976.504144251841, 0.0, 0.0, 0.0, 0.0, -3549.054688102566, 0.0]
['beep', 0.0, -4976.772365185305, 0.0, 0.0, 0.0, 0.0, -3548.6970601912813, 0.0]
['beep', 0.0, -4976.861772163126, 0.0, 0.0, 0.0, 0.0, -3548.8758741469237, 0.0]
['beep', 0.0, -4977.018234374313, 0.0, 0.0, 0.0, 0.0, -3548.8758741469237, 0.0]
['beep', 0.0, -4977.755841941338, 0.0, 0.0, 0.0, 0.0, -3548.9876328692003, 0.0]
['beep', 0.0, -4977.755841941338, 0.0, 0.0, 0.0, 0.0, -3548.0712113465324, 0.0]
['beep', 0.0, -4976.839420418671, 0.0, 0.0, 0.0, 0.0, -3547.6465282018817, 0.0]
['beep', 0.0, -4976.9064756520365, 0.0, 0.0, 0.0, 0.0, -3548.3617840244515, 0.0]
['beep', 0.0, -4976.9064756520365, 0.0, 0.0, 0.0, 0.0, -3549.2335020582086, 0.0]
['beep', 0.0, -4977.152344841045, 0.0, 0.0, 0.0, 0.0, -3549.8817026474126, 0.0]
['beep', 0.0, -4976.146516340556, 0.0, 0.0, 0.0, 0.0, -3549.3005572915745, 0.0]
['beep', 0.0, -4976.101812851645, 0.0, 0.0, 0.0, 0.0, -3548.3617840244515, 0.0]
['beep', 0.0, -4975.453612262441, 0.0, 0.0, 0.0, 0.0, -3549.859350902957, 0.0]
['beep', 0.0, -4975.297150051254, 0.0, 0.0, 0.0, 0.0, -3549.7252404362252, 0.0]
['beep', 0.0, -4978.2252285749, 0.0, 0.0, 0.0, 0.0, -3550.2840340476077, 0.0]
['beep', 0.0, -4977.711138452428, 0.0, 0.0, 0.0, 0.0, -3549.769943925136, 0.0]
['beep', 0.0, -4977.8452489191595, 0.0, 0.0, 0.0, 0.0, -3549.144095080387, 0.0]
['beep', 0.0, -4977.465269263419, 0.0, 0.0, 0.0, 0.0, -3548.764115424647, 0.0]
['beep', 0.0, -4977.197048329956, 0.0, 0.0, 0.0, 0.0, -3549.3676125249403, 0.0]
['beep', 0.0, -4977.487621007875, 0.0, 0.0, 0.0, 0.0, -3550.485199747706, 0.0]
['beep', 0.0, -4978.739318697371, 0.0, 0.0, 0.0, 0.0, -3551.088696847999, 0.0]
['beep', 0.0, -4977.420565774509, 0.0, 0.0, 0.0, 0.0, -3548.6747084468257, 0.0]
['beep', 0.0, -4976.258275062833, 0.0, 0.0, 0.0, 0.0, -3548.182970068809, 0.0]
['beep', 0.0, -4977.442917518963, 0.0, 0.0, 0.0, 0.0, -3549.501722991672, 0.0]
['beep', 0.0, -4978.806373930737, 0.0, 0.0, 0.0, 0.0, -3548.160618324354, 0.0]
['beep', 0.0, -4977.286455307777, 0.0, 0.0, 0.0, 0.0, -3547.9371008798007, 0.0]
['beep', 0.0, -4975.9677023849135, 0.0, 0.0, 0.0, 0.0, -3547.601824712971, 0.0]
['beep', 0.0, -4978.873429164103, 0.0, 0.0, 0.0, 0.0, -3549.9040543918677, 0.0]
['beep', 0.0, -4979.007539630836, 0.0, 0.0, 0.0, 0.0, -3550.2616823031526, 0.0]
['beep', 0.0, -4980.147478598056, 0.0, 0.0, 0.0, 0.0, -3549.6805369473145, 0.0]
['beep', 0.0, -4979.342815797665, 0.0, 0.0, 0.0, 0.0, -3548.764115424647, 0.0]
['beep', 0.0, -4977.800545430248, 0.0, 0.0, 0.0, 0.0, -3549.635833458404, 0.0]
['beep', 0.0, -4975.833591918182, 0.0, 0.0, 0.0, 0.0, -3549.70288869177, 0.0]
['beep', 0.0, -4975.7888884292715, 0.0, 0.0, 0.0, 0.0, -3549.6805369473145, 0.0]
['beep', 0.0, -4974.470135506408, 0.0, 0.0, 0.0, 0.0, -3548.473542746728, 0.0]
['beep', 0.0, -4972.749051183349, 0.0, 0.0, 0.0, 0.0, -3549.0323363581106, 0.0]
['beep', 0.0, -4971.989091871869, 0.0, 0.0, 0.0, 0.0, -3549.479371247217, 0.0]
['beep', 0.0, -4970.469173248908, 0.0, 0.0, 0.0, 0.0, -3549.0099846136554, 0.0]
['beep', 0.0, -4972.771402927805, 0.0, 0.0, 0.0, 0.0, -3548.0265078576217, 0.0]
['beep', 0.0, -4976.928827396492, 0.0, 0.0, 0.0, 0.0, -3546.9089206348567, 0.0]
['beep', 0.0, -4976.884123907581, 0.0, 0.0, 0.0, 0.0, -3546.7524584236694, 0.0]
['beep', 0.0, -4976.213571573922, 0.0, 0.0, 0.0, 0.0, -3547.087734590499, 0.0]
['beep', 0.0, -4976.593551229662, 0.0, 0.0, 0.0, 0.0, -3547.3559555239626, 0.0]
['beep', 0.0, -4977.353510541143, 0.0, 0.0, 0.0, 0.0, -3548.7194119357364, 0.0]
['beep', 0.0, -4977.934655896981, 0.0, 0.0, 0.0, 0.0, -3548.808818913558, 0.0]
['beep', 0.0, -4978.694615208461, 0.0, 0.0, 0.0, 0.0, -3548.3841357689066, 0.0]
['beep', 0.0, -4977.711138452428, 0.0, 0.0, 0.0, 0.0, -3548.473542746728, 0.0]
['beep', 0.0, -4975.543019240263, 0.0, 0.0, 0.0, 0.0, -3547.89239739089, 0.0]
['beep', 0.0, -4974.7383564398715, 0.0, 0.0, 0.0, 0.0, -3547.378307268418, 0.0]
['beep', 0.0, -4975.855943662637, 0.0, 0.0, 0.0, 0.0, -3547.601824712971, 0.0]
['beep', 0.0, -4975.006577373335, 0.0, 0.0, 0.0, 0.0, -3547.825342157524, 0.0]
['beep', 0.0, -4975.252446562344, 0.0, 0.0, 0.0, 0.0, -3547.9818043687114, 0.0]
['beep', 0.0, -4975.811240173726, 0.0, 0.0, 0.0, 0.0, -3547.735935179703, 0.0]
['beep', 0.0, -4977.822897174704, 0.0, 0.0, 0.0, 0.0, -3548.0041561131666, 0.0]
['beep', 0.0, -4978.7840221862825, 0.0, 0.0, 0.0, 0.0, -3548.764115424647, 0.0]
['beep', 0.0, -4978.426394274998, 0.0, 0.0, 0.0, 0.0, -3548.0488596020773, 0.0]
['beep', 0.0, -4978.001711130347, 0.0, 0.0, 0.0, 0.0, -3548.2947287910856, 0.0]
['beep', 0.0, -4977.219400074411, 0.0, 0.0, 0.0, 0.0, -3548.473542746728, 0.0]
['beep', 0.0, -4976.79471692976, 0.0, 0.0, 0.0, 0.0, -3547.7806386686134, 0.0]
['beep', 0.0, -4977.062937863224, 0.0, 0.0, 0.0, 0.0, -3548.6747084468257, 0.0]
['beep', 0.0, -4977.957007641436, 0.0, 0.0, 0.0, 0.0, -3548.0265078576217, 0.0]
['beep', 0.0, -4977.621731474606, 0.0, 0.0, 0.0, 0.0, -3547.735935179703, 0.0]
['beep', 0.0, -4978.2252285749, 0.0, 0.0, 0.0, 0.0, -3547.6912316907924, 0.0]
['beep', 0.0, -4978.001711130347, 0.0, 0.0, 0.0, 0.0, -3547.534769479605, 0.0]
['beep', 0.0, -4979.499278008852, 0.0, 0.0, 0.0, 0.0, -3547.668879946337, 0.0]
['beep', 0.0, -4980.616865231617, 0.0, 0.0, 0.0, 0.0, -3548.9876328692003, 0.0]
['beep', 0.0, -4979.052243119746, 0.0, 0.0, 0.0, 0.0, -3547.825342157524, 0.0]
['beep', 0.0, -4979.320464053209, 0.0, 0.0, 0.0, 0.0, -3547.9371008798007, 0.0]
['beep', 0.0, -4980.46040302043, 0.0, 0.0, 0.0, 0.0, -3549.6805369473145, 0.0]
['beep', 0.0, -4981.287417565277, 0.0, 0.0, 0.0, 0.0, -3550.485199747706, 0.0]
['beep', 0.0, -4981.354472798643, 0.0, 0.0, 0.0, 0.0, -3549.8817026474126, 0.0]
['beep', 0.0, -4979.6110367311285, 0.0, 0.0, 0.0, 0.0, -3548.6747084468257, 0.0]
['beep', 0.0, -4978.761670441827, 0.0, 0.0, 0.0, 0.0, -3547.6241764574265, 0.0]
['beep', 0.0, -4979.409871031031, 0.0, 0.0, 0.0, 0.0, -3547.579472968516, 0.0]
['beep', 0.0, -4978.60520823064, 0.0, 0.0, 0.0, 0.0, -3547.3336037795075, 0.0]
['beep', 0.0, -4978.448746019452, 0.0, 0.0, 0.0, 0.0, -3547.3559555239626, 0.0]
['beep', 0.0, -4978.26993206381, 0.0, 0.0, 0.0, 0.0, -3547.802990413069, 0.0]
['beep', 0.0, -4978.426394274998, 0.0, 0.0, 0.0, 0.0, -3548.831170658013, 0.0]
['beep', 0.0, -4978.381690786086, 0.0, 0.0, 0.0, 0.0, -3548.4288392578173, 0.0]
['beep', 0.0, -4978.4934495083635, 0.0, 0.0, 0.0, 0.0, -3548.093563090988, 0.0]
['beep', 0.0, -4979.02989137529, 0.0, 0.0, 0.0, 0.0, -3547.0430311015884, 0.0]
['beep', 0.0, -4978.046414619257, 0.0, 0.0, 0.0, 0.0, -3547.1994933127758, 0.0]
['beep', 0.0, -4978.001711130347, 0.0, 0.0, 0.0, 0.0, -3547.087734590499, 0.0]
['beep', 0.0, -4977.7334901968825, 0.0, 0.0, 0.0, 0.0, -3547.1324380794094, 0.0]
['beep', 0.0, -4978.26993206381, 0.0, 0.0, 0.0, 0.0, -3548.093563090988, 0.0]
['beep', 0.0, -4977.778193685794, 0.0, 0.0, 0.0, 0.0, -3548.093563090988, 0.0]
['beep', 0.0, -4977.487621007875, 0.0, 0.0, 0.0, 0.0, -3547.4230107573285, 0.0]
['beep', 0.0, -4977.465269263419, 0.0, 0.0, 0.0, 0.0, -3547.735935179703, 0.0]
['beep', 0.0, -4978.2252285749, 0.0, 0.0, 0.0, 0.0, -3547.9371008798007, 0.0]
['beep', 0.0, -4979.096946608656, 0.0, 0.0, 0.0, 0.0, -3547.4230107573285, 0.0]
['beep', 0.0, -4979.275760564299, 0.0, 0.0, 0.0, 0.0, -3549.926406136323, 0.0]
['beep', 0.0, -4979.074594864202, 0.0, 0.0, 0.0, 0.0, -3550.0381648585994, 0.0]
['beep', 0.0, -4978.694615208461, 0.0, 0.0, 0.0, 0.0, -3549.121743335932, 0.0]
['beep', 0.0, -4979.231057075388, 0.0, 0.0, 0.0, 0.0, -3547.445362501784, 0.0]
['beep', 0.0, -4979.879257664592, 0.0, 0.0, 0.0, 0.0, -3546.9759758682226, 0.0]
['beep', 0.0, -4978.426394274998, 0.0, 0.0, 0.0, 0.0, -3548.093563090988, 0.0]
['beep', 0.0, -4978.4934495083635, 0.0, 0.0, 0.0, 0.0, -3548.540597980094, 0.0]
['beep', 0.0, -4978.828725675193, 0.0, 0.0, 0.0, 0.0, -3547.802990413069, 0.0]
['beep', 0.0, -4977.957007641436, 0.0, 0.0, 0.0, 0.0, -3549.3676125249403, 0.0]
['beep', 0.0, -4978.046414619257, 0.0, 0.0, 0.0, 0.0, -3549.6134817139487, 0.0]
['beep', 0.0, -4978.94048439747, 0.0, 0.0, 0.0, 0.0, -3548.250025302175, 0.0]
['beep', 0.0, -4978.98518788638, 0.0, 0.0, 0.0, 0.0, -3545.925443878823, 0.0]
['beep', 0.0, -4977.442917518963, 0.0, 0.0, 0.0, 0.0, -3547.534769479605, 0.0]
['beep', 0.0, -4978.247580319355, 0.0, 0.0, 0.0, 0.0, -3548.5853014690047, 0.0]
['beep', 0.0, -4977.688786707972, 0.0, 0.0, 0.0, 0.0, -3549.8146474140462, 0.0]
['beep', 0.0, -4976.101812851645, 0.0, 0.0, 0.0, 0.0, -3548.5853014690047, 0.0]
['beep', 0.0, -4976.191219829467, 0.0, 0.0, 0.0, 0.0, -3547.7582869241583, 0.0]
['beep', 0.0, -4976.995882629858, 0.0, 0.0, 0.0, 0.0, -3548.808818913558, 0.0]
['beep', 0.0, -4977.107641352134, 0.0, 0.0, 0.0, 0.0, -3547.9147491353456, 0.0]
['beep', 0.0, -4979.164001842022, 0.0, 0.0, 0.0, 0.0, -3546.8195136570353, 0.0]
['beep', 0.0, -4978.649911719551, 0.0, 0.0, 0.0, 0.0, -3547.870045646435, 0.0]
['beep', 0.0, -4978.2252285749, 0.0, 0.0, 0.0, 0.0, -3548.3394322799963, 0.0]
['beep', 0.0, -4978.828725675193, 0.0, 0.0, 0.0, 0.0, -3548.6970601912813, 0.0]
['beep', 0.0, -4978.851077419648, 0.0, 0.0, 0.0, 0.0, -3550.5969584699824, 0.0]
['beep', 0.0, -4979.320464053209, 0.0, 0.0, 0.0, 0.0, -3550.3287375365185, 0.0]
['beep', 0.0, -4979.231057075388, 0.0, 0.0, 0.0, 0.0, -3548.182970068809, 0.0]
['beep', 0.0, -4979.052243119746, 0.0, 0.0, 0.0, 0.0, -3547.2889002905968, 0.0]
['beep', 0.0, -4979.275760564299, 0.0, 0.0, 0.0, 0.0, -3548.3394322799963, 0.0]
['beep', 0.0, -4979.052243119746, 0.0, 0.0, 0.0, 0.0, -3547.7806386686134, 0.0]
['beep', 0.0, -4981.063900120724, 0.0, 0.0, 0.0, 0.0, -3547.2665485461416, 0.0]
['beep', 0.0, -4980.8403826761705, 0.0, 0.0, 0.0, 0.0, -3548.205321813264, 0.0]
['beep', 0.0, -4979.923961153503, 0.0, 0.0, 0.0, 0.0, -3547.9818043687114, 0.0]
['beep', 0.0, -4980.281589064788, 0.0, 0.0, 0.0, 0.0, -3547.534769479605, 0.0]
['beep', 0.0, -4979.633388475584, 0.0, 0.0, 0.0, 0.0, -3548.920577635834, 0.0]
['beep', 0.0, -4981.332121054187, 0.0, 0.0, 0.0, 0.0, -3548.8758741469237, 0.0]
['beep', 0.0, -4980.013368131325, 0.0, 0.0, 0.0, 0.0, -3549.9040543918677, 0.0]
['beep', 0.0, -4980.125126853601, 0.0, 0.0, 0.0, 0.0, -3549.345260780485, 0.0]
['beep', 0.0, -4981.220362331911, 0.0, 0.0, 0.0, 0.0, -3549.7475921806804, 0.0]
['beep', 0.0, -4981.108603609634, 0.0, 0.0, 0.0, 0.0, -3549.635833458404, 0.0]
['beep', 0.0, -4980.214533831422, 0.0, 0.0, 0.0, 0.0, -3549.5911299694935, 0.0]
['beep', 0.0, -4979.834554175682, 0.0, 0.0, 0.0, 0.0, -3550.172275325331, 0.0]
['beep', 0.0, -4978.560504741729, 0.0, 0.0, 0.0, 0.0, -3549.501722991672, 0.0]
['beep', 0.0, -4979.856905920137, 0.0, 0.0, 0.0, 0.0, -3549.926406136323, 0.0]
['beep', 0.0, -4979.70044370895, 0.0, 0.0, 0.0, 0.0, -3549.836999158502, 0.0]
['beep', 0.0, -4980.169830342511, 0.0, 0.0, 0.0, 0.0, -3548.406487513362, 0.0]
['beep', 0.0, -4980.6615687205285, 0.0, 0.0, 0.0, 0.0, -3548.853522402468, 0.0]
['beep', 0.0, -4980.6615687205285, 0.0, 0.0, 0.0, 0.0, -3549.5911299694935, 0.0]
['beep', 0.0, -4979.476926264397, 0.0, 0.0, 0.0, 0.0, -3550.9545863812673, 0.0]
['beep', 0.0, -4980.438051275975, 0.0, 0.0, 0.0, 0.0, -3549.4570195027613, 0.0]
['beep', 0.0, -4980.885086165081, 0.0, 0.0, 0.0, 0.0, -3549.0770398470213, 0.0]
['beep', 0.0, -4980.281589064788, 0.0, 0.0, 0.0, 0.0, -3549.3676125249403, 0.0]
['beep', 0.0, -4979.096946608656, 0.0, 0.0, 0.0, 0.0, -3549.3899642693955, 0.0]
['beep', 0.0, -4978.851077419648, 0.0, 0.0, 0.0, 0.0, -3548.540597980094, 0.0]
['beep', 0.0, -4978.98518788638, 0.0, 0.0, 0.0, 0.0, -3549.0770398470213, 0.0]
['beep', 0.0, -4980.035719875779, 0.0, 0.0, 0.0, 0.0, -3550.8428276589907, 0.0]
['beep', 0.0, -4980.058071620235, 0.0, 0.0, 0.0, 0.0, -3548.920577635834, 0.0]
['beep', 0.0, -4980.035719875779, 0.0, 0.0, 0.0, 0.0, -3547.1994933127758, 0.0]
['beep', 0.0, -4979.476926264397, 0.0, 0.0, 0.0, 0.0, -3548.3170805355408, 0.0]
['beep', 0.0, -4980.8403826761705, 0.0, 0.0, 0.0, 0.0, -3550.373441025429, 0.0]
['beep', 0.0, -4980.996844887358, 0.0, 0.0, 0.0, 0.0, -3550.485199747706, 0.0]
['beep', 0.0, -4981.220362331911, 0.0, 0.0, 0.0, 0.0, -3549.926406136323, 0.0]
['beep', 0.0, -4980.393347787064, 0.0, 0.0, 0.0, 0.0, -3549.6805369473145, 0.0]
['beep', 0.0, -4979.7227954534055, 0.0, 0.0, 0.0, 0.0, -3548.7194119357364, 0.0]
['beep', 0.0, -4980.616865231617, 0.0, 0.0, 0.0, 0.0, -3547.244196801686, 0.0]
['beep', 0.0, -4981.823859432204, 0.0, 0.0, 0.0, 0.0, -3547.6912316907924, 0.0]
['beep', 0.0, -4980.728623953894, 0.0, 0.0, 0.0, 0.0, -3548.250025302175, 0.0]
['beep', 0.0, -4980.214533831422, 0.0, 0.0, 0.0, 0.0, -3547.4230107573285, 0.0]
['beep', 0.0, -4979.879257664592, 0.0, 0.0, 0.0, 0.0, -3548.182970068809, 0.0]
['beep', 0.0, -4979.521629753307, 0.0, 0.0, 0.0, 0.0, -3549.211150313753, 0.0]
['beep', 0.0, -4979.70044370895, 0.0, 0.0, 0.0, 0.0, -3549.7252404362252, 0.0]
['beep', 0.0, -4980.214533831422, 0.0, 0.0, 0.0, 0.0, -3549.926406136323, 0.0]
['beep', 0.0, -4980.996844887358, 0.0, 0.0, 0.0, 0.0, -3549.4570195027613, 0.0]
['beep', 0.0, -4980.236885575877, 0.0, 0.0, 0.0, 0.0, -3548.451191002273, 0.0]
['beep', 0.0, -4980.348644298154, 0.0, 0.0, 0.0, 0.0, -3549.4570195027613, 0.0]
['beep', 0.0, -4981.756804198838, 0.0, 0.0, 0.0, 0.0, -3549.434667758306, 0.0]
['beep', 0.0, -4981.063900120724, 0.0, 0.0, 0.0, 0.0, -3547.89239739089, 0.0]
['beep', 0.0, -4980.281589064788, 0.0, 0.0, 0.0, 0.0, -3548.5853014690047, 0.0]
['beep', 0.0, -4980.393347787064, 0.0, 0.0, 0.0, 0.0, -3549.635833458404, 0.0]
['beep', 0.0, -4980.996844887358, 0.0, 0.0, 0.0, 0.0, -3549.6805369473145, 0.0]
['beep', 0.0, -4981.287417565277, 0.0, 0.0, 0.0, 0.0, -3550.2393305586975, 0.0]
['beep', 0.0, -4981.198010587455, 0.0, 0.0, 0.0, 0.0, -3549.7252404362252, 0.0]
['beep', 0.0, -4981.041548376268, 0.0, 0.0, 0.0, 0.0, -3549.278205547119, 0.0]
['beep', 0.0, -4980.6615687205285, 0.0, 0.0, 0.0, 0.0, -3550.373441025429, 0.0]
['beep', 0.0, -4982.025025132301, 0.0, 0.0, 0.0, 0.0, -3549.8146474140462, 0.0]
['beep', 0.0, -4982.472060021408, 0.0, 0.0, 0.0, 0.0, -3549.501722991672, 0.0]
['beep', 0.0, -4982.382653043586, 0.0, 0.0, 0.0, 0.0, -3549.769943925136, 0.0]
['beep', 0.0, -4981.063900120724, 0.0, 0.0, 0.0, 0.0, -3549.769943925136, 0.0]
['beep', 0.0, -4980.907437909536, 0.0, 0.0, 0.0, 0.0, -3550.6863654478034, 0.0]
['beep', 0.0, -4981.51093500983, 0.0, 0.0, 0.0, 0.0, -3550.2393305586975, 0.0]
['beep', 0.0, -4982.114432110123, 0.0, 0.0, 0.0, 0.0, -3550.731068936714, 0.0]
['beep', 0.0, -4983.03085363279, 0.0, 0.0, 0.0, 0.0, -3549.6805369473145, 0.0]
['beep', 0.0, -4980.996844887358, 0.0, 0.0, 0.0, 0.0, -3548.6970601912813, 0.0]
['beep', 0.0, -4980.527458253796, 0.0, 0.0, 0.0, 0.0, -3550.6640137033482, 0.0]
['beep', 0.0, -4980.6615687205285, 0.0, 0.0, 0.0, 0.0, -3551.2675108036415, 0.0]
['beep', 0.0, -4982.025025132301, 0.0, 0.0, 0.0, 0.0, -3551.17810382582, 0.0]
['beep', 0.0, -4982.092080365668, 0.0, 0.0, 0.0, 0.0, -3550.060516603055, 0.0]
['beep', 0.0, -4979.9016094090475, 0.0, 0.0, 0.0, 0.0, -3549.546426480583, 0.0]
['beep', 0.0, -4981.108603609634, 0.0, 0.0, 0.0, 0.0, -3550.2616823031526, 0.0]
['beep', 0.0, -4982.025025132301, 0.0, 0.0, 0.0, 0.0, -3551.111048592454, 0.0]
['beep', 0.0, -4982.360301299132, 0.0, 0.0, 0.0, 0.0, -3550.9098828923566, 0.0]
['beep', 0.0, -4981.689748965472, 0.0, 0.0, 0.0, 0.0, -3551.446324759284, 0.0]
['beep', 0.0, -4981.89091466557, 0.0, 0.0, 0.0, 0.0, -3548.8758741469237, 0.0]
['beep', 0.0, -4981.019196631813, 0.0, 0.0, 0.0, 0.0, -3548.5853014690047, 0.0]
['beep', 0.0, -4981.063900120724, 0.0, 0.0, 0.0, 0.0, -3549.054688102566, 0.0]
['beep', 0.0, -4981.041548376268, 0.0, 0.0, 0.0, 0.0, -3550.060516603055, 0.0]
['beep', 0.0, -4981.466231520919, 0.0, 0.0, 0.0, 0.0, -3549.1664468248428, 0.0]
['beep', 0.0, -4981.242714076366, 0.0, 0.0, 0.0, 0.0, -3548.562949724549, 0.0]
['beep', 0.0, -4979.521629753307, 0.0, 0.0, 0.0, 0.0, -3551.066345103544, 0.0]
['beep', 0.0, -4979.767498942316, 0.0, 0.0, 0.0, 0.0, -3550.708717192259, 0.0]
['beep', 0.0, -4981.220362331911, 0.0, 0.0, 0.0, 0.0, -3549.0323363581106, 0.0]
['beep', 0.0, -4981.846211176659, 0.0, 0.0, 0.0, 0.0, -3550.3063857920633, 0.0]
['beep', 0.0, -4982.114432110123, 0.0, 0.0, 0.0, 0.0, -3550.9322346368117, 0.0]
['beep', 0.0, -4982.27089432131, 0.0, 0.0, 0.0, 0.0, -3550.79812417008, 0.0]
['beep', 0.0, -4982.2261908324, 0.0, 0.0, 0.0, 0.0, -3550.9992898701776, 0.0]
['beep', 0.0, -4982.248542576855, 0.0, 0.0, 0.0, 0.0, -3551.2451590591863, 0.0]
['beep', 0.0, -4981.801507687749, 0.0, 0.0, 0.0, 0.0, -3551.7816009261137, 0.0]
['beep', 0.0, -4980.348644298154, 0.0, 0.0, 0.0, 0.0, -3552.6309672154152, 0.0]
['beep', 0.0, -4981.309769309732, 0.0, 0.0, 0.0, 0.0, -3553.435630015806, 0.0]
['beep', 0.0, -4981.443879776464, 0.0, 0.0, 0.0, 0.0, -3552.1615805818537, 0.0]
['beep', 0.0, -4982.047376876757, 0.0, 0.0, 0.0, 0.0, -3552.2733393041303, 0.0]
['beep', 0.0, -4982.337949554676, 0.0, 0.0, 0.0, 0.0, -3553.480333504717, 0.0]
['beep', 0.0, -4982.673225721505, 0.0, 0.0, 0.0, 0.0, -3552.2733393041303, 0.0]
['beep', 0.0, -4981.51093500983, 0.0, 0.0, 0.0, 0.0, -3549.479371247217, 0.0]
['beep', 0.0, -4978.381690786086, 0.0, 0.0, 0.0, 0.0, -3553.5250369936275, 0.0]
['beep', 0.0, -4979.02989137529, 0.0, 0.0, 0.0, 0.0, -3553.6591474603592, 0.0]
['beep', 0.0, -4983.433185032986, 0.0, 0.0, 0.0, 0.0, -3562.1975138422868, 0.0]
['beep', 0.0, -4986.025987389802, 0.0, 0.0, 0.0, 0.0, -3571.1382116244095, 0.0]
['beep', 0.0, -4984.573124000207, 0.0, 0.0, 0.0, 0.0, -3578.46958380575, 0.0]
['beep', 0.0, -4979.789850686771, 0.0, 0.0, 0.0, 0.0, -3583.766947241658, 0.0]
['beep', 0.0, -4982.583818743685, 0.0, 0.0, 0.0, 0.0, -3589.6454560334037, 0.0]
['beep', 0.0, -4986.696539723461, 0.0, 0.0, 0.0, 0.0, -3594.406377602384, 0.0]
['beep', 0.0, -4989.244638591366, 0.0, 0.0, 0.0, 0.0, -3600.977790472244, 0.0]
['beep', 0.0, -4991.5245165258075, 0.0, 0.0, 0.0, 0.0, -3606.543374841616, 0.0]
['beep', 0.0, -4988.305865324243, 0.0, 0.0, 0.0, 0.0, -3612.4218836333616, 0.0]
['beep', 0.0, -4983.589647244174, 0.0, 0.0, 0.0, 0.0, -3617.8757092804562, 0.0]
['beep', 0.0, -4985.802469945249, 0.0, 0.0, 0.0, 0.0, -3623.463645394283, 0.0]
['beep', 0.0, -4988.104699624146, 0.0, 0.0, 0.0, 0.0, -3627.7104768407917, 0.0]
['beep', 0.0, -4989.490507780374, 0.0, 0.0, 0.0, 0.0, -3633.2313577212526, 0.0]
['beep', 0.0, -4991.300999081254, 0.0, 0.0, 0.0, 0.0, -3638.349907201518, 0.0]
['beep', 0.0, -4988.417624046519, 0.0, 0.0, 0.0, 0.0, -3643.7143258707915, 0.0]
['beep', 0.0, -4990.943371169969, 0.0, 0.0, 0.0, 0.0, -3651.716250385791, 0.0]
['beep', 0.0, -4995.994865416868, 0.0, 0.0, 0.0, 0.0, -3658.622939422481, 0.0]
['beep', 0.0, -4995.436071805486, 0.0, 0.0, 0.0, 0.0, -3663.763840647202, 0.0]
['beep', 0.0, -4994.363188071631, 0.0, 0.0, 0.0, 0.0, -3670.2011430503303, 0.0]
['beep', 0.0, -4997.403025317553, 0.0, 0.0, 0.0, 0.0, -3677.599570465037, 0.0]
['beep', 0.0, -5000.956952685947, 0.0, 0.0, 0.0, 0.0, -3685.2215153242964, 0.0]
['beep', 0.0, -5001.515746297329, 0.0, 0.0, 0.0, 0.0, -3691.7035212163355, 0.0]
['beep', 0.0, -4999.146461385067, 0.0, 0.0, 0.0, 0.0, -3698.945486419855, 0.0]
['beep', 0.0, -4995.704292738949, 0.0, 0.0, 0.0, 0.0, -3705.2933818451625, 0.0]
['beep', 0.0, -4997.648894506561, 0.0, 0.0, 0.0, 0.0, -3710.702504003347, 0.0]
['beep', 0.0, -5000.8004904747595, 0.0, 0.0, 0.0, 0.0, -3717.2962686176625, 0.0]
['beep', 0.0, -5003.75092074286, 0.0, 0.0, 0.0, 0.0, -3723.621812298514, 0.0]
['beep', 0.0, -5002.588630031184, 0.0, 0.0, 0.0, 0.0, -3729.522672834715, 0.0]
['beep', 0.0, -5000.889897452581, 0.0, 0.0, 0.0, 0.0, -3733.791856025679, 0.0]
['beep', 0.0, -5000.845193963671, 0.0, 0.0, 0.0, 0.0, -3737.993983983277, 0.0]
['beep', 0.0, -5002.096891653167, 0.0, 0.0, 0.0, 0.0, -3742.1514084519636, 0.0]
['beep', 0.0, -5004.488528309886, 0.0, 0.0, 0.0, 0.0, -3747.1581992099527, 0.0]
['beep', 0.0, -5004.868507965625, 0.0, 0.0, 0.0, 0.0, -3750.5109608782486, 0.0]
['beep', 0.0, -5003.460348064941, 0.0, 0.0, 0.0, 0.0, -3754.668385346936, 0.0]
['beep', 0.0, -5005.829632977204, 0.0, 0.0, 0.0, 0.0, -3758.915216793444, 0.0]
['beep', 0.0, -5006.6119440331395, 0.0, 0.0, 0.0, 0.0, -3762.335033695106, 0.0]
['beep', 0.0, -5009.003580689858, 0.0, 0.0, 0.0, 0.0, -3765.8442575745894, 0.0]
['beep', 0.0, -5007.394255089075, 0.0, 0.0, 0.0, 0.0, -3768.280597720218, 0.0]
['beep', 0.0, -5005.449653321463, 0.0, 0.0, 0.0, 0.0, -3771.499248921782, 0.0]
['beep', 0.0, -5006.768406244327, 0.0, 0.0, 0.0, 0.0, -3773.622664645036, 0.0]
['beep', 0.0, -5008.154214400556, 0.0, 0.0, 0.0, 0.0, -3776.4166327019493, 0.0]
['beep', 0.0, -5009.942353956981, 0.0, 0.0, 0.0, 0.0, -3779.657635647969, 0.0]
['beep', 0.0, -5007.282496366799, 0.0, 0.0, 0.0, 0.0, -3782.2280862603293, 0.0]
['beep', 0.0, -5005.382598088097, 0.0, 0.0, 0.0, 0.0, -3784.1279845390304, 0.0]
['beep', 0.0, -5007.885993467092, 0.0, 0.0, 0.0, 0.0, -3786.3184554956506, 0.0]
['beep', 0.0, -5009.160042901045, 0.0, 0.0, 0.0, 0.0, -3787.547801440692, 0.0]
['beep', 0.0, -5012.021066191324, 0.0, 0.0, 0.0, 0.0, -3790.3194177531504, 0.0]
['beep', 0.0, -5011.395217346575, 0.0, 0.0, 0.0, 0.0, -3791.6158189315584, 0.0]
['beep', 0.0, -5007.75188300036, 0.0, 0.0, 0.0, 0.0, -3793.5157172102595, 0.0]
['beep', 0.0, -5007.37190334462, 0.0, 0.0, 0.0, 0.0, -3795.326208511139, 0.0]
['beep', 0.0, -5009.003580689858, 0.0, 0.0, 0.0, 0.0, -3795.080339322131, 0.0]
['beep', 0.0, -5009.584726045696, 0.0, 0.0, 0.0, 0.0, -3796.622609689547, 0.0]
['beep', 0.0, -5009.7188365124275, 0.0, 0.0, 0.0, 0.0, -3796.9355341119212, 0.0]
['beep', 0.0, -5009.540022556785, 0.0, 0.0, 0.0, 0.0, -3796.1532230559856, 0.0]
['beep', 0.0, -5007.5507173002625, 0.0, 0.0, 0.0, 0.0, -3794.633304433025, 0.0]
['beep', 0.0, -5008.265973122832, 0.0, 0.0, 0.0, 0.0, -3794.99093234431, 0.0]
['beep', 0.0, -5008.534194056296, 0.0, 0.0, 0.0, 0.0, -3794.588600944114, 0.0]
['beep', 0.0, -5009.674133023516, 0.0, 0.0, 0.0, 0.0, -3795.236801533318, 0.0]
['beep', 0.0, -5009.316505112231, 0.0, 0.0, 0.0, 0.0, -3794.5662491996586, 0.0]
['beep', 0.0, -5008.4894905673855, 0.0, 0.0, 0.0, 0.0, -3793.56042069917, 0.0]
['beep', 0.0, -5008.42243533402, 0.0, 0.0, 0.0, 0.0, -3794.3203800106503, 0.0]
['beep', 0.0, -5005.717874254928, 0.0, 0.0, 0.0, 0.0, -3793.627475932536, 0.0]
['beep', 0.0, -5006.500185310863, 0.0, 0.0, 0.0, 0.0, -3795.3485602555947, 0.0]
['beep', 0.0, -5011.685790024494, 0.0, 0.0, 0.0, 0.0, -3797.2484585342954, 0.0]
['beep', 0.0, -5012.781025502804, 0.0, 0.0, 0.0, 0.0, -3799.9977231022986, 0.0]
['beep', 0.0, -5012.244583635877, 0.0, 0.0, 0.0, 0.0, -3801.495289980804, 0.0]
['beep', 0.0, -5015.932621471003, 0.0, 0.0, 0.0, 0.0, -3802.9034498814885, 0.0]
['beep', 0.0, -5014.546813314773, 0.0, 0.0, 0.0, 0.0, -3802.836394648122, 0.0]
['beep', 0.0, -5010.255278379354, 0.0, 0.0, 0.0, 0.0, -3801.808214403178, 0.0]
['beep', 0.0, -5010.523499312818, 0.0, 0.0, 0.0, 0.0, -3802.076435336642, 0.0]
['beep', 0.0, -5010.99288594638, 0.0, 0.0, 0.0, 0.0, -3803.238726048318, 0.0]
['beep', 0.0, -5011.149348157567, 0.0, 0.0, 0.0, 0.0, -3802.746987670301, 0.0]
['beep', 0.0, -5011.059941179746, 0.0, 0.0, 0.0, 0.0, -3802.3893597590163, 0.0]
['beep', 0.0, -5010.858775479648, 0.0, 0.0, 0.0, 0.0, -3801.808214403178, 0.0]
['beep', 0.0, -5010.858775479648, 0.0, 0.0, 0.0, 0.0, -3801.7635109142675, 0.0]
['beep', 0.0, -5010.612906290639, 0.0, 0.0, 0.0, 0.0, -3800.6459236915025, 0.0]
['beep', 0.0, -5010.27763012381, 0.0, 0.0, 0.0, 0.0, -3801.0259033472425, 0.0]
['beep', 0.0, -5010.27763012381, 0.0, 0.0, 0.0, 0.0, -3800.7353306693235, 0.0]
['beep', 0.0, -5010.188223145989, 0.0, 0.0, 0.0, 0.0, -3799.9977231022986, 0.0]
['beep', 0.0, -5010.478795823908, 0.0, 0.0, 0.0, 0.0, -3799.1260050685414, 0.0]
['beep', 0.0, -5011.462272579941, 0.0, 0.0, 0.0, 0.0, -3799.3718742575497, 0.0]
['beep', 0.0, -5011.641086535584, 0.0, 0.0, 0.0, 0.0, -3800.0871300801196, 0.0]
['beep', 0.0, -5010.165871401533, 0.0, 0.0, 0.0, 0.0, -3799.1036533240863, 0.0]
['beep', 0.0, -5009.964705701435, 0.0, 0.0, 0.0, 0.0, -3798.075473079142, 0.0]
['beep', 0.0, -5011.417569091031, 0.0, 0.0, 0.0, 0.0, -3797.8966591234994, 0.0]
['beep', 0.0, -5012.669266780528, 0.0, 0.0, 0.0, 0.0, -3797.583734701125, 0.0]
['beep', 0.0, -5013.51863306983, 0.0, 0.0, 0.0, 0.0, -3796.9355341119212, 0.0]
['beep', 0.0, -5013.988019703391, 0.0, 0.0, 0.0, 0.0, -3797.628438190036, 0.0]
['beep', 0.0, -5014.077426681212, 0.0, 0.0, 0.0, 0.0, -3798.0531213346867, 0.0]
['beep', 0.0, -5012.401045847064, 0.0, 0.0, 0.0, 0.0, -3796.7790719007344, 0.0]
['beep', 0.0, -5013.429226092008, 0.0, 0.0, 0.0, 0.0, -3795.594429444603, 0.0]
['beep', 0.0, -5015.41853134853, 0.0, 0.0, 0.0, 0.0, -3796.264981778262, 0.0]
['beep', 0.0, -5014.435054592497, 0.0, 0.0, 0.0, 0.0, -3796.242630033807, 0.0]
['beep', 0.0, -5013.920964470025, 0.0, 0.0, 0.0, 0.0, -3795.4826707223265, 0.0]
['beep', 0.0, -5012.8927842250805, 0.0, 0.0, 0.0, 0.0, -3794.3203800106503, 0.0]
['beep', 0.0, -5011.909307469047, 0.0, 0.0, 0.0, 0.0, -3794.2086212883737, 0.0]
['beep', 0.0, -5013.719798769927, 0.0, 0.0, 0.0, 0.0, -3795.4156154889606, 0.0]
['beep', 0.0, -5013.920964470025, 0.0, 0.0, 0.0, 0.0, -3794.745063155301, 0.0]
['beep', 0.0, -5013.3621708586425, 0.0, 0.0, 0.0, 0.0, -3794.678007921935, 0.0]
['beep', 0.0, -5013.138653414089, 0.0, 0.0, 0.0, 0.0, -3793.985103843821, 0.0]
['beep', 0.0, -5013.183356903, 0.0, 0.0, 0.0, 0.0, -3794.0298073327313, 0.0]
['beep', 0.0, -5013.295115625277, 0.0, 0.0, 0.0, 0.0, -3795.4156154889606, 0.0]
['beep', 0.0, -5014.7703307593265, 0.0, 0.0, 0.0, 0.0, -3796.913182367466, 0.0]
['beep', 0.0, -5014.032723192301, 0.0, 0.0, 0.0, 0.0, -3795.817946889156, 0.0]
['beep', 0.0, -5012.199880146966, 0.0, 0.0, 0.0, 0.0, -3794.5215457107483, 0.0]
['beep', 0.0, -5013.898612725569, 0.0, 0.0, 0.0, 0.0, -3795.1250428110416, 0.0]
['beep', 0.0, -5014.211537147944, 0.0, 0.0, 0.0, 0.0, -3794.588600944114, 0.0]
['beep', 0.0, -5013.339819114187, 0.0, 0.0, 0.0, 0.0, -3794.4544904773825, 0.0]
['beep', 0.0, -5013.272763880821, 0.0, 0.0, 0.0, 0.0, -3793.9404003549103, 0.0]
['beep', 0.0, -5012.46810108043, 0.0, 0.0, 0.0, 0.0, -3793.850993377089, 0.0]
['beep', 0.0, -5013.3621708586425, 0.0, 0.0, 0.0, 0.0, -3793.8062898881785, 0.0]
['beep', 0.0, -5013.876260981115, 0.0, 0.0, 0.0, 0.0, -3794.633304433025, 0.0]
['beep', 0.0, -5012.825728991715, 0.0, 0.0, 0.0, 0.0, -3794.298028266195, 0.0]
['beep', 0.0, -5011.797548746771, 0.0, 0.0, 0.0, 0.0, -3794.007455588276, 0.0]
['beep', 0.0, -5011.730493513405, 0.0, 0.0, 0.0, 0.0, -3793.5157172102595, 0.0]
['beep', 0.0, -5011.574031302218, 0.0, 0.0, 0.0, 0.0, -3794.007455588276, 0.0]
['beep', 0.0, -5011.149348157567, 0.0, 0.0, 0.0, 0.0, -3793.783938143723, 0.0]
['beep', 0.0, -5011.641086535584, 0.0, 0.0, 0.0, 0.0, -3793.2921997657063, 0.0]
['beep', 0.0, -5011.842252235681, 0.0, 0.0, 0.0, 0.0, -3793.135737554519, 0.0]
['beep', 0.0, -5011.551679557762, 0.0, 0.0, 0.0, 0.0, -3791.884039865022, 0.0]
['beep', 0.0, -5012.110473169145, 0.0, 0.0, 0.0, 0.0, -3792.5769439431365, 0.0]
['beep', 0.0, -5011.70814176895, 0.0, 0.0, 0.0, 0.0, -3793.0239788322424, 0.0]
['beep', 0.0, -5009.964705701435, 0.0, 0.0, 0.0, 0.0, -3793.4710137213488, 0.0]
['beep', 0.0, -5011.4846243243965, 0.0, 0.0, 0.0, 0.0, -3792.9345718544214, 0.0]
['beep', 0.0, -5015.910269726547, 0.0, 0.0, 0.0, 0.0, -3791.727577653835, 0.0]
['beep', 0.0, -5018.5254238278185, 0.0, 0.0, 0.0, 0.0, -3791.682874164924, 0.0]
['beep', 0.0, -5019.553604072762, 0.0, 0.0, 0.0, 0.0, -3792.5545921986813, 0.0]
['beep', 0.0, -5020.626487806617, 0.0, 0.0, 0.0, 0.0, -3793.1804410434297, 0.0]
['beep', 0.0, -5020.067694195234, 0.0, 0.0, 0.0, 0.0, -3791.772281142745, 0.0]
['beep', 0.0, -5018.5254238278185, 0.0, 0.0, 0.0, 0.0, -3789.8947346084997, 0.0]
['beep', 0.0, -5015.865566237637, 0.0, 0.0, 0.0, 0.0, -3790.6099904310695, 0.0]
['beep', 0.0, -5015.887917982092, 0.0, 0.0, 0.0, 0.0, -3790.9899700868095, 0.0]
['beep', 0.0, -5017.094912182679, 0.0, 0.0, 0.0, 0.0, -3791.36994974255, 0.0]
['beep', 0.0, -5017.206670904955, 0.0, 0.0, 0.0, 0.0, -3790.6770456644354, 0.0]
['beep', 0.0, -5016.357304615653, 0.0, 0.0, 0.0, 0.0, -3790.3194177531504, 0.0]
['beep', 0.0, -5016.424359849019, 0.0, 0.0, 0.0, 0.0, -3789.9394380974104, 0.0]
['beep', 0.0, -5015.9996767043685, 0.0, 0.0, 0.0, 0.0, -3789.6488654194914, 0.0]
['beep', 0.0, -5016.692580782483, 0.0, 0.0, 0.0, 0.0, -3791.101728809086, 0.0]
['beep', 0.0, -5017.51959532733, 0.0, 0.0, 0.0, 0.0, -3791.459356720371, 0.0]
['beep', 0.0, -5016.983153460402, 0.0, 0.0, 0.0, 0.0, -3791.012321831265, 0.0]
['beep', 0.0, -5017.340781371687, 0.0, 0.0, 0.0, 0.0, -3791.168784042452, 0.0]
['beep', 0.0, -5018.838348250192, 0.0, 0.0, 0.0, 0.0, -3790.766452642257, 0.0]
['beep', 0.0, -5019.37479011712, 0.0, 0.0, 0.0, 0.0, -3790.766452642257, 0.0]
['beep', 0.0, -5018.391313361087, 0.0, 0.0, 0.0, 0.0, -3790.878211364533, 0.0]
['beep', 0.0, -5017.027856949313, 0.0, 0.0, 0.0, 0.0, -3790.0064933307763, 0.0]
['beep', 0.0, -5017.899574983069, 0.0, 0.0, 0.0, 0.0, -3790.2747142642397, 0.0]
['beep', 0.0, -5020.022990706324, 0.0, 0.0, 0.0, 0.0, -3791.168784042452, 0.0]
['beep', 0.0, -5020.000638961868, 0.0, 0.0, 0.0, 0.0, -3790.855859620078, 0.0]
['beep', 0.0, -5018.257202894354, 0.0, 0.0, 0.0, 0.0, -3790.073548564142, 0.0]
['beep', 0.0, -5018.368961616631, 0.0, 0.0, 0.0, 0.0, -3788.777147385734, 0.0]
['beep', 0.0, -5018.324258127721, 0.0, 0.0, 0.0, 0.0, -3788.6430369190025, 0.0]
['beep', 0.0, -5018.301906383265, 0.0, 0.0, 0.0, 0.0, -3788.6430369190025, 0.0]
['beep', 0.0, -5017.653705794061, 0.0, 0.0, 0.0, 0.0, -3789.55945844167, 0.0]
['beep', 0.0, -5018.011333705346, 0.0, 0.0, 0.0, 0.0, -3789.7382723973124, 0.0]
['beep', 0.0, -5018.726589527916, 0.0, 0.0, 0.0, 0.0, -3789.7382723973124, 0.0]
['beep', 0.0, -5018.301906383265, 0.0, 0.0, 0.0, 0.0, -3789.6488654194914, 0.0]
['beep', 0.0, -5019.665362795039, 0.0, 0.0, 0.0, 0.0, -3790.453528219882, 0.0]
['beep', 0.0, -5018.123092427622, 0.0, 0.0, 0.0, 0.0, -3789.3359409971167, 0.0]
['beep', 0.0, -5018.8159965057375, 0.0, 0.0, 0.0, 0.0, -3788.3748159855386, 0.0]
['beep', 0.0, -5018.614830805639, 0.0, 0.0, 0.0, 0.0, -3787.9277810964327, 0.0]
['beep', 0.0, -5018.368961616631, 0.0, 0.0, 0.0, 0.0, -3788.531278196726, 0.0]
['beep', 0.0, -5018.413665105541, 0.0, 0.0, 0.0, 0.0, -3787.7489671407902, 0.0]
['beep', 0.0, -5017.005505204857, 0.0, 0.0, 0.0, 0.0, -3787.1007665515863, 0.0]
['beep', 0.0, -5016.737284271394, 0.0, 0.0, 0.0, 0.0, -3785.983179328821, 0.0]
['beep', 0.0, -5016.46906333793, 0.0, 0.0, 0.0, 0.0, -3786.854897362578, 0.0]
['beep', 0.0, -5018.234851149899, 0.0, 0.0, 0.0, 0.0, -3788.4195194744493, 0.0]
['beep', 0.0, -5016.625525549117, 0.0, 0.0, 0.0, 0.0, -3778.9423798253993, 0.0]
['beep', 0.0, -5014.546813314773, 0.0, 0.0, 0.0, 0.0, -3764.79372558519, 0.0]
['beep', 0.0, -5016.916098227036, 0.0, 0.0, 0.0, 0.0, -3750.8015335561677, 0.0]
['beep', 0.0, -5015.865566237637, 0.0, 0.0, 0.0, 0.0, -3738.239853172285, 0.0]
['beep', 0.0, -5014.613868548139, 0.0, 0.0, 0.0, 0.0, -3725.9016902329554, 0.0]
['beep', 0.0, -5011.954010957958, 0.0, 0.0, 0.0, 0.0, -3711.0601319146317, 0.0]
['beep', 0.0, -5011.283458624299, 0.0, 0.0, 0.0, 0.0, -3696.01740789621, 0.0]
['beep', 0.0, -5012.6022115471615, 0.0, 0.0, 0.0, 0.0, -3680.01355886621, 0.0]
['beep', 0.0, -5013.138653414089, 0.0, 0.0, 0.0, 0.0, -3663.8755993694786, 0.0]
['beep', 0.0, -5013.697447025472, 0.0, 0.0, 0.0, 0.0, -3647.447067194828, 0.0]
['beep', 0.0, -5009.964705701435, 0.0, 0.0, 0.0, 0.0, -3629.275098952663, 0.0]
['beep', 0.0, -5009.450615578963, 0.0, 0.0, 0.0, 0.0, -3611.930145255345, 0.0]
['beep', 0.0, -5011.976362702413, 0.0, 0.0, 0.0, 0.0, -3596.66390379237, 0.0]
['beep', 0.0, -5010.747016757371, 0.0, 0.0, 0.0, 0.0, -3581.5317727961274, 0.0]
['beep', 0.0, -5009.8976504680695, 0.0, 0.0, 0.0, 0.0, -3565.3267580660295, 0.0]
['beep', 0.0, -5010.165871401533, 0.0, 0.0, 0.0, 0.0, -3548.3841357689066, 0.0]
['beep', 0.0, -5011.194051646477, 0.0, 0.0, 0.0, 0.0, -3533.0508390725663, 0.0]
['beep', 0.0, -5011.685790024494, 0.0, 0.0, 0.0, 0.0, -3517.3375627204855, 0.0]
['beep', 0.0, -5009.048284178768, 0.0, 0.0, 0.0, 0.0, -3500.9090305458344, 0.0]
['beep', 0.0, -5006.589592288684, 0.0, 0.0, 0.0, 0.0, -3486.983893750178, 0.0]
['beep', 0.0, -5007.8412899781815, 0.0, 0.0, 0.0, 0.0, -3476.0091872226226, 0.0]
['beep', 0.0, -5008.355380100654, 0.0, 0.0, 0.0, 0.0, -3464.6545010393265, 0.0]
['beep', 0.0, -5007.215441133433, 0.0, 0.0, 0.0, 0.0, -3453.702146256226, 0.0]
['beep', 0.0, -5006.65664752205, 0.0, 0.0, 0.0, 0.0, -3443.1521228733213, 0.0]
['beep', 0.0, -5004.823804476715, 0.0, 0.0, 0.0, 0.0, -3437.318317570486, 0.0]
['beep', 0.0, -5004.600287032162, 0.0, 0.0, 0.0, 0.0, -3430.8139599339916, 0.0]
['beep', 0.0, -5005.092025410178, 0.0, 0.0, 0.0, 0.0, -3422.4320557632514, 0.0]
['beep', 0.0, -5003.37094108712, 0.0, 0.0, 0.0, 0.0, -3419.0569423505003, 0.0]
['beep', 0.0, -4997.671246251017, 0.0, 0.0, 0.0, 0.0, -3417.6264307053607, 0.0]
['beep', 0.0, -4995.100795638657, 0.0, 0.0, 0.0, 0.0, -3416.86647139388, 0.0]
['beep', 0.0, -4994.877278194103, 0.0, 0.0, 0.0, 0.0, -3416.8888231383353, 0.0]
['beep', 0.0, -4993.469118293419, 0.0, 0.0, 0.0, 0.0, -3415.1006835819107, 0.0]
['beep', 0.0, -4991.233943847888, 0.0, 0.0, 0.0, 0.0, -3415.5924219599274, 0.0]
['beep', 0.0, -4989.669321736017, 0.0, 0.0, 0.0, 0.0, -3420.0180673620785, 0.0]
['beep', 0.0, -4987.657664735039, 0.0, 0.0, 0.0, 0.0, -3421.0685993514776, 0.0]
['beep', 0.0, -4987.612961246128, 0.0, 0.0, 0.0, 0.0, -3423.6614017082934, 0.0]
['beep', 0.0, -4987.7694234573155, 0.0, 0.0, 0.0, 0.0, -3427.9529366437123, 0.0]
['beep', 0.0, -4987.143574612567, 0.0, 0.0, 0.0, 0.0, -3434.412590791296, 0.0]
['beep', 0.0, -4985.467193778419, 0.0, 0.0, 0.0, 0.0, -3440.2687478385865, 0.0]
['beep', 0.0, -4986.025987389802, 0.0, 0.0, 0.0, 0.0, -3442.705087984215, 0.0]
['beep', 0.0, -4984.5954757446625, 0.0, 0.0, 0.0, 0.0, -3446.907215941813, 0.0]
['beep', 0.0, -4984.327254811198, 0.0, 0.0, 0.0, 0.0, -3452.7857247335587, 0.0]
['beep', 0.0, -4984.707234466939, 0.0, 0.0, 0.0, 0.0, -3455.8255619794804, 0.0]
['beep', 0.0, -4983.522592010808, 0.0, 0.0, 0.0, 0.0, -3458.9101027143124, 0.0]
['beep', 0.0, -4984.818993189215, 0.0, 0.0, 0.0, 0.0, -3462.933416716268, 0.0]
['beep', 0.0, -4985.4224902895085, 0.0, 0.0, 0.0, 0.0, -3465.459163839718, 0.0]
['beep', 0.0, -4984.371958300109, 0.0, 0.0, 0.0, 0.0, -3470.935341231268, 0.0]
['beep', 0.0, -4984.260199577832, 0.0, 0.0, 0.0, 0.0, -3474.7798412775805, 0.0]
['beep', 0.0, -4985.131917611589, 0.0, 0.0, 0.0, 0.0, -3475.45039361124, 0.0]
['beep', 0.0, -4984.707234466939, 0.0, 0.0, 0.0, 0.0, -3479.607818079927, 0.0]
['beep', 0.0, -4986.808298445738, 0.0, 0.0, 0.0, 0.0, -3484.1452222043545, 0.0]
['beep', 0.0, -4986.025987389802, 0.0, 0.0, 0.0, 0.0, -3485.4639751272175, 0.0]
['beep', 0.0, -4984.41666178902, 0.0, 0.0, 0.0, 0.0, -3486.939190261268, 0.0]
['beep', 0.0, -4983.187315843978, 0.0, 0.0, 0.0, 0.0, -3490.4037106518404, 0.0]
['beep', 0.0, -4984.550772255751, 0.0, 0.0, 0.0, 0.0, -3492.504774630639, 0.0]
['beep', 0.0, -4984.975455400402, 0.0, 0.0, 0.0, 0.0, -3491.9906845081673, 0.0]
['beep', 0.0, -4985.198972844955, 0.0, 0.0, 0.0, 0.0, -3494.2258589536978, 0.0]
['beep', 0.0, -4982.8967431660585, 0.0, 0.0, 0.0, 0.0, -3495.790481065569, 0.0]
['beep', 0.0, -4982.047376876757, 0.0, 0.0, 0.0, 0.0, -3496.8410130549687, 0.0]
['beep', 0.0, -4982.136783854578, 0.0, 0.0, 0.0, 0.0, -3498.0703590000107, 0.0]
['beep', 0.0, -4982.203839087944, 0.0, 0.0, 0.0, 0.0, -3499.2997049450523, 0.0]
['beep', 0.0, -4982.695577465961, 0.0, 0.0, 0.0, 0.0, -3500.059664256533, 0.0]
['beep', 0.0, -4982.963798399424, 0.0, 0.0, 0.0, 0.0, -3501.9148590463233, 0.0]
['beep', 0.0, -4982.6061704881395, 0.0, 0.0, 0.0, 0.0, -3502.987742780178, 0.0]
['beep', 0.0, -4983.813164688727, 0.0, 0.0, 0.0, 0.0, -3504.127681747399, 0.0]
['beep', 0.0, -4984.528420511297, 0.0, 0.0, 0.0, 0.0, -3505.178213736798, 0.0]
['beep', 0.0, -4985.1766211005, 0.0, 0.0, 0.0, 0.0, -3506.9663532932227, 0.0]
['beep', 0.0, -4984.41666178902, 0.0, 0.0, 0.0, 0.0, -3508.575678894005, 0.0]
['beep', 0.0, -4983.410833288531, 0.0, 0.0, 0.0, 0.0, -3509.760321350136, 0.0]
['beep', 0.0, -4981.935618154481, 0.0, 0.0, 0.0, 0.0, -3509.805024839047, 0.0]
['beep', 0.0, -4981.175658843, 0.0, 0.0, 0.0, 0.0, -3510.0061905391444, 0.0]
['beep', 0.0, -4977.487621007875, 0.0, 0.0, 0.0, 0.0, -3509.670914372315, 0.0]
['beep', 0.0, -4976.146516340556, 0.0, 0.0, 0.0, 0.0, -3510.095597516966, 0.0]
['beep', 0.0, -4976.191219829467, 0.0, 0.0, 0.0, 0.0, -3510.050894028055, 0.0]
['beep', 0.0, -4976.995882629858, 0.0, 0.0, 0.0, 0.0, -3510.5873358949825, 0.0]
['beep', 0.0, -4979.320464053209, 0.0, 0.0, 0.0, 0.0, -3511.12377776191, 0.0]
['beep', 0.0, -4981.175658843, 0.0, 0.0, 0.0, 0.0, -3512.5989928959602, 0.0]
['beep', 0.0, -4981.913266410025, 0.0, 0.0, 0.0, 0.0, -3512.4872341736836, 0.0]
['beep', 0.0, -4982.181487343489, 0.0, 0.0, 0.0, 0.0, -3511.6602196288372, 0.0]
['beep', 0.0, -4982.337949554676, 0.0, 0.0, 0.0, 0.0, -3513.046027785066, 0.0]
['beep', 0.0, -4982.092080365668, 0.0, 0.0, 0.0, 0.0, -3514.543594663572, 0.0]
['beep', 0.0, -4982.852039677148, 0.0, 0.0, 0.0, 0.0, -3514.275373730108, 0.0]
['beep', 0.0, -4983.679054221994, 0.0, 0.0, 0.0, 0.0, -3513.9400975632784, 0.0]
['beep', 0.0, -4983.053205377246, 0.0, 0.0, 0.0, 0.0, -3514.1636150078316, 0.0]
['beep', 0.0, -4983.611998988628, 0.0, 0.0, 0.0, 0.0, -3514.677705130304, 0.0]
['beep', 0.0, -4983.299074566255, 0.0, 0.0, 0.0, 0.0, -3516.6223068979157, 0.0]
['beep', 0.0, -4983.343778055165, 0.0, 0.0, 0.0, 0.0, -3516.0411615420776, 0.0]
['beep', 0.0, -4983.567295499718, 0.0, 0.0, 0.0, 0.0, -3515.571774908516, 0.0]
['beep', 0.0, -4981.935618154481, 0.0, 0.0, 0.0, 0.0, -3516.1752720088093, 0.0]
['beep', 0.0, -4981.421528032009, 0.0, 0.0, 0.0, 0.0, -3514.7894638525804, 0.0]
['beep', 0.0, -4981.622693732106, 0.0, 0.0, 0.0, 0.0, -3514.610649896938, 0.0]
['beep', 0.0, -4981.801507687749, 0.0, 0.0, 0.0, 0.0, -3515.0800365304995, 0.0]
['beep', 0.0, -4980.750975698349, 0.0, 0.0, 0.0, 0.0, -3515.638830141882, 0.0]
['beep', 0.0, -4982.583818743685, 0.0, 0.0, 0.0, 0.0, -3517.225803998209, 0.0]
['beep', 0.0, -4985.936580411981, 0.0, 0.0, 0.0, 0.0, -3519.148054021365, 0.0]
['beep', 0.0, -4982.181487343489, 0.0, 0.0, 0.0, 0.0, -3517.4269696983065, 0.0]
['beep', 0.0, -4973.531362239285, 0.0, 0.0, 0.0, 0.0, -3521.9420220782786, 0.0]
['beep', 0.0, -4974.134859339579, 0.0, 0.0, 0.0, 0.0, -3529.3628012374406, 0.0]
['beep', 0.0, -4975.252446562344, 0.0, 0.0, 0.0, 0.0, -3530.838016371491, 0.0]
['beep', 0.0, -4975.252446562344, 0.0, 0.0, 0.0, 0.0, -3532.313231505541, 0.0]
['beep', 0.0, -4974.0901558506675, 0.0, 0.0, 0.0, 0.0, -3534.41429548434, 0.0]
['beep', 0.0, -4973.866638406114, 0.0, 0.0, 0.0, 0.0, -3532.8496733724683, 0.0]
['beep', 0.0, -4973.93369363948, 0.0, 0.0, 0.0, 0.0, -3533.1402460503873, 0.0]
['beep', 0.0, -4973.509010494829, 0.0, 0.0, 0.0, 0.0, -3535.1071995624543, 0.0]
['beep', 0.0, -4973.732527939383, 0.0, 0.0, 0.0, 0.0, -3535.9342141073007, 0.0]
['beep', 0.0, -4975.185391328978, 0.0, 0.0, 0.0, 0.0, -3534.8166268845353, 0.0]
['beep', 0.0, -4975.252446562344, 0.0, 0.0, 0.0, 0.0, -3535.777751896114, 0.0]
['beep', 0.0, -4976.370033785109, 0.0, 0.0, 0.0, 0.0, -3536.113028062943, 0.0]
['beep', 0.0, -4975.990054129369, 0.0, 0.0, 0.0, 0.0, -3535.0177925846333, 0.0]
['beep', 0.0, -4975.140687840068, 0.0, 0.0, 0.0, 0.0, -3536.4259524853173, 0.0]
['beep', 0.0, -4975.6771297069945, 0.0, 0.0, 0.0, 0.0, -3538.2587955306526, 0.0]
['beep', 0.0, -4976.213571573922, 0.0, 0.0, 0.0, 0.0, -3540.8068943985577, 0.0]
['beep', 0.0, -4977.398214030053, 0.0, 0.0, 0.0, 0.0, -3540.046935087077, 0.0]
['beep', 0.0, -4975.74418494036, 0.0, 0.0, 0.0, 0.0, -3539.063458331044, 0.0]
['beep', 0.0, -4975.386557029075, 0.0, 0.0, 0.0, 0.0, -3539.5775484535156, 0.0]
['beep', 0.0, -4976.101812851645, 0.0, 0.0, 0.0, 0.0, -3540.315156020541, 0.0]
['beep', 0.0, -4975.408908773531, 0.0, 0.0, 0.0, 0.0, -3540.4939699761835, 0.0]
['beep', 0.0, -4975.140687840068, 0.0, 0.0, 0.0, 0.0, -3540.2257490427196, 0.0]
['beep', 0.0, -4974.246618061855, 0.0, 0.0, 0.0, 0.0, -3541.2986327765743, 0.0]
['beep', 0.0, -4973.151382583545, 0.0, 0.0, 0.0, 0.0, -3541.678612432315, 0.0]
['beep', 0.0, -4974.291321550765, 0.0, 0.0, 0.0, 0.0, -3539.3316792645073, 0.0]
['beep', 0.0, -4974.023100617302, 0.0, 0.0, 0.0, 0.0, -3540.2928042760855, 0.0]
['beep', 0.0, -4973.6207692171065, 0.0, 0.0, 0.0, 0.0, -3540.9410048652894, 0.0]
