['beep', 0.0, -770.8446110301746, 0.0, 0.0, 0.0, 0.0, -408.34401945400475, 0.0]
['beep', 0.0, -749.4539915864458, 0.0, 0.0, 0.0, 0.0, -401.48203390622547, 0.0]
['beep', 0.0, -736.5346832912784, 0.0, 0.0, 0.0, 0.0, -389.74736806718926, 0.0]
['beep', 0.0, -749.7669160088201, 0.0, 0.0, 0.0, 0.0, -389.68031283382334, 0.0]
['beep', 0.0, -772.3645296531356, 0.0, 0.0, 0.0, 0.0, -401.70555135077853, 0.0]
['beep', 0.0, -773.4597651314456, 0.0, 0.0, 0.0, 0.0, -409.30514446558294, 0.0]
['beep', 0.0, -751.7785730097977, 0.0, 0.0, 0.0, 0.0, -400.07387400554114, 0.0]
['beep', 0.0, -736.7358489913761, 0.0, 0.0, 0.0, 0.0, -388.38391165541555, 0.0]
['beep', 0.0, -749.3645846086246, 0.0, 0.0, 0.0, 0.0, -391.2896384346054, 0.0]
['beep', 0.0, -770.7775557968088, 0.0, 0.0, 0.0, 0.0, -402.5996211289908, 0.0]
['beep', 0.0, -771.8280877862081, 0.0, 0.0, 0.0, 0.0, -407.6958188648008, 0.0]
['beep', 0.0, -751.1750759095045, 0.0, 0.0, 0.0, 0.0, -401.303219950583, 0.0]
['beep', 0.0, -736.8252559691973, 0.0, 0.0, 0.0, 0.0, -391.5355076236138, 0.0]
['beep', 0.0, -749.2528258863481, 0.0, 0.0, 0.0, 0.0, -392.78720531311103, 0.0]
['beep', 0.0, -770.7105005634428, 0.0, 0.0, 0.0, 0.0, -403.9183740518539, 0.0]
['beep', 0.0, -772.6551023310545, 0.0, 0.0, 0.0, 0.0, -411.205042744284, 0.0]
['beep', 0.0, -751.4880003318788, 0.0, 0.0, 0.0, 0.0, -403.5160426516584, 0.0]
['beep', 0.0, -737.6299187695884, 0.0, 0.0, 0.0, 0.0, -392.7201500797451, 0.0]
['beep', 0.0, -748.6940322749654, 0.0, 0.0, 0.0, 0.0, -393.23424020221717, 0.0]
['beep', 0.0, -770.285817418792, 0.0, 0.0, 0.0, 0.0, -402.35375193998243, 0.0]
['beep', 0.0, -773.1021372201607, 0.0, 0.0, 0.0, 0.0, -409.30514446558294, 0.0]
['beep', 0.0, -752.0691456877167, 0.0, 0.0, 0.0, 0.0, -401.8620135619657, 0.0]
['beep', 0.0, -738.1440088920605, 0.0, 0.0, 0.0, 0.0, -390.6190861009462, 0.0]
['beep', 0.0, -748.4258113415017, 0.0, 0.0, 0.0, 0.0, -393.12248147994063, 0.0]
['beep', 0.0, -770.4869831188897, 0.0, 0.0, 0.0, 0.0, -405.23712697471706, 0.0]
['beep', 0.0, -773.5715238537222, 0.0, 0.0, 0.0, 0.0, -411.5179671666583, 0.0]
['beep', 0.0, -752.0020904543508, 0.0, 0.0, 0.0, 0.0, -405.84062407501034, 0.0]
['beep', 0.0, -736.1994071244487, 0.0, 0.0, 0.0, 0.0, -393.14483322439594, 0.0]
['beep', 0.0, -747.9564247079402, 0.0, 0.0, 0.0, 0.0, -392.80955705756634, 0.0]
['beep', 0.0, -769.8164307852305, 0.0, 0.0, 0.0, 0.0, -406.0417897751081, 0.0]
['beep', 0.0, -771.0010732413618, 0.0, 0.0, 0.0, 0.0, -411.92029856685383, 0.0]
['beep', 0.0, -748.9846049528844, 0.0, 0.0, 0.0, 0.0, -403.9630775407645, 0.0]
['beep', 0.0, -733.6289565120884, 0.0, 0.0, 0.0, 0.0, -394.0165512581529, 0.0]
['beep', 0.0, -745.4530293289458, 0.0, 0.0, 0.0, 0.0, -395.82704255903275, 0.0]
['beep', 0.0, -767.380090639602, 0.0, 0.0, 0.0, 0.0, -407.47230142024773, 0.0]
['beep', 0.0, -770.0399482297836, 0.0, 0.0, 0.0, 0.0, -414.51310092366947, 0.0]
['beep', 0.0, -749.2081223974375, 0.0, 0.0, 0.0, 0.0, -406.0194380306528, 0.0]
['beep', 0.0, -733.9865844233733, 0.0, 0.0, 0.0, 0.0, -395.11178673646293, 0.0]
['beep', 0.0, -744.7601252508314, 0.0, 0.0, 0.0, 0.0, -396.58700187051323, 0.0]
['beep', 0.0, -768.4082708845463, 0.0, 0.0, 0.0, 0.0, -409.4839584212254, 0.0]
['beep', 0.0, -773.1021372201607, 0.0, 0.0, 0.0, 0.0, -414.624859645946, 0.0]
['beep', 0.0, -752.3150148767251, 0.0, 0.0, 0.0, 0.0, -405.9970862861975, 0.0]
['beep', 0.0, -736.6464420135549, 0.0, 0.0, 0.0, 0.0, -395.87174604794336, 0.0]
['beep', 0.0, -747.9787764523956, 0.0, 0.0, 0.0, 0.0, -397.4363681598149, 0.0]
['beep', 0.0, -770.062299974239, 0.0, 0.0, 0.0, 0.0, -408.29931596509414, 0.0]
['beep', 0.0, -774.3761866541132, 0.0, 0.0, 0.0, 0.0, -414.17782475683987, 0.0]
['beep', 0.0, -752.7173462769207, 0.0, 0.0, 0.0, 0.0, -405.50534790818074, 0.0]
['beep', 0.0, -736.3782210800912, 0.0, 0.0, 0.0, 0.0, -393.7036268357786, 0.0]
['beep', 0.0, -746.9729479519067, 0.0, 0.0, 0.0, 0.0, -394.55299312508026, 0.0]
['beep', 0.0, -767.8718290176188, 0.0, 0.0, 0.0, 0.0, -408.4110746873707, 0.0]
['beep', 0.0, -771.8057360417529, 0.0, 0.0, 0.0, 0.0, -415.07189453505214, 0.0]
['beep', 0.0, -750.8174479982196, 0.0, 0.0, 0.0, 0.0, -406.22060373075055, 0.0]
['beep', 0.0, -734.9030059460409, 0.0, 0.0, 0.0, 0.0, -394.19536521379536, 0.0]
['beep', 0.0, -746.704727018443, 0.0, 0.0, 0.0, 0.0, -396.0505600035858, 0.0]
['beep', 0.0, -768.318863906725, 0.0, 0.0, 0.0, 0.0, -410.7356561107226, 0.0]
['beep', 0.0, -773.1468407090713, 0.0, 0.0, 0.0, 0.0, -415.38481895742643, 0.0]
['beep', 0.0, -752.6726427880101, 0.0, 0.0, 0.0, 0.0, -407.51700490915835, 0.0]
['beep', 0.0, -733.4948460453566, 0.0, 0.0, 0.0, 0.0, -396.94462978179814, 0.0]
['beep', 0.0, -741.2956048602588, 0.0, 0.0, 0.0, 0.0, -398.4869001492143, 0.0]
['beep', 0.0, -764.6308260715994, 0.0, 0.0, 0.0, 0.0, -411.4732636777477, 0.0]
['beep', 0.0, -768.2071051844484, 0.0, 0.0, 0.0, 0.0, -417.6646968918678, 0.0]
['beep', 0.0, -747.7552590078425, 0.0, 0.0, 0.0, 0.0, -410.2215659882505, 0.0]
['beep', 0.0, -731.997279166851, 0.0, 0.0, 0.0, 0.0, -399.91741179435394, 0.0]
['beep', 0.0, -743.8213519837084, 0.0, 0.0, 0.0, 0.0, -399.7833013276221, 0.0]
['beep', 0.0, -766.575427839211, 0.0, 0.0, 0.0, 0.0, -412.9931823007086, 0.0]
['beep', 0.0, -770.5987418411663, 0.0, 0.0, 0.0, 0.0, -420.9056998378873, 0.0]
['beep', 0.0, -748.6493287860548, 0.0, 0.0, 0.0, 0.0, -412.2108712447729, 0.0]
['beep', 0.0, -734.2324536123817, 0.0, 0.0, 0.0, 0.0, -400.81148157256627, 0.0]
['beep', 0.0, -745.1624566510269, 0.0, 0.0, 0.0, 0.0, -402.8678420624545, 0.0]
['beep', 0.0, -769.3470441516691, 0.0, 0.0, 0.0, 0.0, -415.6083364019795, 0.0]
['beep', 0.0, -773.7279860649093, 0.0, 0.0, 0.0, 0.0, -422.5373771831247, 0.0]
['beep', 0.0, -751.3315381206916, 0.0, 0.0, 0.0, 0.0, -415.3177637240605, 0.0]
['beep', 0.0, -734.7241919903985, 0.0, 0.0, 0.0, 0.0, -404.141891496407, 0.0]
['beep', 0.0, -744.9165874620185, 0.0, 0.0, 0.0, 0.0, -404.58892638551316, 0.0]
['beep', 0.0, -765.4578406164457, 0.0, 0.0, 0.0, 0.0, -418.0223248031527, 0.0]
['beep', 0.0, -769.6823203184987, 0.0, 0.0, 0.0, 0.0, -424.88431035093197, 0.0]
['beep', 0.0, -748.5375700637783, 0.0, 0.0, 0.0, 0.0, -415.2730602351499, 0.0]
['beep', 0.0, -730.5220640328007, 0.0, 0.0, 0.0, 0.0, -403.6725048628455, 0.0]
['beep', 0.0, -738.9039682035409, 0.0, 0.0, 0.0, 0.0, -404.4548159187813, 0.0]
['beep', 0.0, -759.9816632248954, 0.0, 0.0, 0.0, 0.0, -415.6530398908901, 0.0]
['beep', 0.0, -763.3567766376468, 0.0, 0.0, 0.0, 0.0, -420.2574992486834, 0.0]
['beep', 0.0, -744.0895729171721, 0.0, 0.0, 0.0, 0.0, -412.18851950031757, 0.0]
['beep', 0.0, -729.6503459990438, 0.0, 0.0, 0.0, 0.0, -401.012647272664, 0.0]
['beep', 0.0, -740.4685903154124, 0.0, 0.0, 0.0, 0.0, -403.9630775407645, 0.0]
['beep', 0.0, -765.1672679385267, 0.0, 0.0, 0.0, 0.0, -415.8765573354432, 0.0]
['beep', 0.0, -770.0846517186942, 0.0, 0.0, 0.0, 0.0, -422.42561846084817, 0.0]
['beep', 0.0, -749.4316398419905, 0.0, 0.0, 0.0, 0.0, -415.9659643132644, 0.0]
['beep', 0.0, -733.5619012787225, 0.0, 0.0, 0.0, 0.0, -404.92420255234276, 0.0]
['beep', 0.0, -743.1284479055939, 0.0, 0.0, 0.0, 0.0, -407.18172874232874, 0.0]
['beep', 0.0, -764.67552956051, 0.0, 0.0, 0.0, 0.0, -419.7881126151219, 0.0]
['beep', 0.0, -767.2683319173256, 0.0, 0.0, 0.0, 0.0, -427.49946445220286, 0.0]
['beep', 0.0, -746.0788781736944, 0.0, 0.0, 0.0, 0.0, -417.3517724694935, 0.0]
['beep', 0.0, -729.3150698322141, 0.0, 0.0, 0.0, 0.0, -404.81244383006623, 0.0]
['beep', 0.0, -740.3344798486805, 0.0, 0.0, 0.0, 0.0, -406.55587989758016, 0.0]
['beep', 0.0, -763.2450179153702, 0.0, 0.0, 0.0, 0.0, -417.7094003807784, 0.0]
['beep', 0.0, -767.2459801728702, 0.0, 0.0, 0.0, 0.0, -427.18654002982856, 0.0]
['beep', 0.0, -747.4646863299234, 0.0, 0.0, 0.0, 0.0, -419.0728567925521, 0.0]
['beep', 0.0, -730.7455814773538, 0.0, 0.0, 0.0, 0.0, -406.3770659419377, 0.0]
['beep', 0.0, -739.7533344928426, 0.0, 0.0, 0.0, 0.0, -406.55587989758016, 0.0]
['beep', 0.0, -761.5239335923117, 0.0, 0.0, 0.0, 0.0, -420.68218239333424, 0.0]
['beep', 0.0, -764.8096400272418, 0.0, 0.0, 0.0, 0.0, -430.29343250911626, 0.0]
['beep', 0.0, -745.1848083954822, 0.0, 0.0, 0.0, 0.0, -418.91639458136495, 0.0]
['beep', 0.0, -729.7174012324097, 0.0, 0.0, 0.0, 0.0, -405.55005139709135, 0.0]
['beep', 0.0, -738.9710234369068, 0.0, 0.0, 0.0, 0.0, -406.6676386198567, 0.0]
['beep', 0.0, -761.3227678922138, 0.0, 0.0, 0.0, 0.0, -420.68218239333424, 0.0]
['beep', 0.0, -765.1225644496161, 0.0, 0.0, 0.0, 0.0, -428.59469993051295, 0.0]
['beep', 0.0, -745.1401049065715, 0.0, 0.0, 0.0, 0.0, -422.9173568388649, 0.0]
['beep', 0.0, -728.7786279652868, 0.0, 0.0, 0.0, 0.0, -410.8697665774544, 0.0]
['beep', 0.0, -738.7028025034431, 0.0, 0.0, 0.0, 0.0, -408.07579852054107, 0.0]
['beep', 0.0, -761.5686370812223, 0.0, 0.0, 0.0, 0.0, -420.32455448204934, 0.0]
['beep', 0.0, -765.5248958498116, 0.0, 0.0, 0.0, 0.0, -427.07478130755203, 0.0]
['beep', 0.0, -745.4530293289458, 0.0, 0.0, 0.0, 0.0, -419.430484703837, 0.0]
['beep', 0.0, -727.9292616759851, 0.0, 0.0, 0.0, 0.0, -411.4062084443818, 0.0]
['beep', 0.0, -738.7698577368091, 0.0, 0.0, 0.0, 0.0, -413.82019684555496, 0.0]
['beep', 0.0, -761.2110091699374, 0.0, 0.0, 0.0, 0.0, -424.9066620953873, 0.0]
['beep', 0.0, -765.6143028276329, 0.0, 0.0, 0.0, 0.0, -430.98633658723077, 0.0]
['beep', 0.0, -744.804828739742, 0.0, 0.0, 0.0, 0.0, -422.71619113876716, 0.0]
['beep', 0.0, -725.515273274812, 0.0, 0.0, 0.0, 0.0, -410.5121386661695, 0.0]
['beep', 0.0, -732.7125349894209, 0.0, 0.0, 0.0, 0.0, -412.657906133879, 0.0]
['beep', 0.0, -750.7280410203983, 0.0, 0.0, 0.0, 0.0, -424.6160894174683, 0.0]
['beep', 0.0, -756.5618463232335, 0.0, 0.0, 0.0, 0.0, -431.9251098543537, 0.0]
['beep', 0.0, -743.5084275613341, 0.0, 0.0, 0.0, 0.0, -424.593737673013, 0.0]
['beep', 0.0, -729.4715320434013, 0.0, 0.0, 0.0, 0.0, -413.9319555678315, 0.0]
['beep', 0.0, -739.4851135593789, 0.0, 0.0, 0.0, 0.0, -414.6695631348566, 0.0]
['beep', 0.0, -762.2615411593367, 0.0, 0.0, 0.0, 0.0, -426.3818772294375, 0.0]
['beep', 0.0, -766.1954481834708, 0.0, 0.0, 0.0, 0.0, -434.1602842998844, 0.0]
['beep', 0.0, -746.6376717850771, 0.0, 0.0, 0.0, 0.0, -425.2866417511275, 0.0]
['beep', 0.0, -730.6338227550773, 0.0, 0.0, 0.0, 0.0, -414.84837709049907, 0.0]
['beep', 0.0, -739.4180583260129, 0.0, 0.0, 0.0, 0.0, -414.80367360158846, 0.0]
['beep', 0.0, -759.9146079915295, 0.0, 0.0, 0.0, 0.0, -425.9348423403314, 0.0]
['beep', 0.0, -764.9884539828843, 0.0, 0.0, 0.0, 0.0, -434.6073191889905, 0.0]
['beep', 0.0, -746.7494305073536, 0.0, 0.0, 0.0, 0.0, -426.270118507161, 0.0]
['beep', 0.0, -730.2314913548818, 0.0, 0.0, 0.0, 0.0, -414.6025079014907, 0.0]
['beep', 0.0, -739.3286513481917, 0.0, 0.0, 0.0, 0.0, -415.83185384653257, 0.0]
['beep', 0.0, -761.6803958034988, 0.0, 0.0, 0.0, 0.0, -427.96885108576436, 0.0]
['beep', 0.0, -766.9777592394065, 0.0, 0.0, 0.0, 0.0, -435.72490641175585, 0.0]
['beep', 0.0, -745.5647880512224, 0.0, 0.0, 0.0, 0.0, -430.58400518703525, 0.0]
['beep', 0.0, -725.3141075747142, 0.0, 0.0, 0.0, 0.0, -414.78132185713315, 0.0]
['beep', 0.0, -734.3889158235688, 0.0, 0.0, 0.0, 0.0, -412.948478811798, 0.0]
['beep', 0.0, -757.0759364457056, 0.0, 0.0, 0.0, 0.0, -426.270118507161, 0.0]
['beep', 0.0, -764.1390876935825, 0.0, 0.0, 0.0, 0.0, -432.99799358820843, 0.0]
['beep', 0.0, -746.4812095738899, 0.0, 0.0, 0.0, 0.0, -425.44310396231464, 0.0]
['beep', 0.0, -732.220796611404, 0.0, 0.0, 0.0, 0.0, -414.5578044125801, 0.0]
['beep', 0.0, -743.6872415169765, 0.0, 0.0, 0.0, 0.0, -415.3624672129711, 0.0]
['beep', 0.0, -769.6376168295881, 0.0, 0.0, 0.0, 0.0, -427.3877057299263, 0.0]
['beep', 0.0, -775.7619948103422, 0.0, 0.0, 0.0, 0.0, -435.07670582255196, 0.0]
['beep', 0.0, -755.220741655915, 0.0, 0.0, 0.0, 0.0, -427.3206504965604, 0.0]
['beep', 0.0, -738.9039682035409, 0.0, 0.0, 0.0, 0.0, -416.61416490246836, 0.0]
['beep', 0.0, -748.4928665748677, 0.0, 0.0, 0.0, 0.0, -419.430484703837, 0.0]
['beep', 0.0, -774.1079657206495, 0.0, 0.0, 0.0, 0.0, -429.1311417974403, 0.0]
['beep', 0.0, -779.606494856655, 0.0, 0.0, 0.0, 0.0, -436.23899653422797, 0.0]
['beep', 0.0, -759.3334626356915, 0.0, 0.0, 0.0, 0.0, -429.689935408823, 0.0]
['beep', 0.0, -742.2120263829263, 0.0, 0.0, 0.0, 0.0, -418.26819399216106, 0.0]
['beep', 0.0, -750.0574886867391, 0.0, 0.0, 0.0, 0.0, -418.7152288812672, 0.0]
['beep', 0.0, -773.6609308315434, 0.0, 0.0, 0.0, 0.0, -430.29343250911626, 0.0]
['beep', 0.0, -778.9806460119064, 0.0, 0.0, 0.0, 0.0, -438.89885412440947, 0.0]
['beep', 0.0, -757.4112126125351, 0.0, 0.0, 0.0, 0.0, -430.1816737868397, 0.0]
['beep', 0.0, -737.9428431919627, 0.0, 0.0, 0.0, 0.0, -418.26819399216106, 0.0]
['beep', 0.0, -746.2129886404263, 0.0, 0.0, 0.0, 0.0, -418.29054573661637, 0.0]
['beep', 0.0, -771.2916459192808, 0.0, 0.0, 0.0, 0.0, -428.63940341942356, 0.0]
['beep', 0.0, -775.8290500437081, 0.0, 0.0, 0.0, 0.0, -436.3954587454151, 0.0]
['beep', 0.0, -755.9136457340295, 0.0, 0.0, 0.0, 0.0, -430.1816737868397, 0.0]
['beep', 0.0, -737.0264216692951, 0.0, 0.0, 0.0, 0.0, -419.27402249264986, 0.0]
['beep', 0.0, -746.190636895971, 0.0, 0.0, 0.0, 0.0, -417.1506067693957, 0.0]
['beep', 0.0, -769.2799889183032, 0.0, 0.0, 0.0, 0.0, -427.7229818967559, 0.0]
['beep', 0.0, -774.1750209540154, 0.0, 0.0, 0.0, 0.0, -434.76378140017766, 0.0]
['beep', 0.0, -752.2479596433592, 0.0, 0.0, 0.0, 0.0, -428.7511621417001, 0.0]
['beep', 0.0, -732.3772588225912, 0.0, 0.0, 0.0, 0.0, -417.7764556141443, 0.0]
['beep', 0.0, -742.8825787165855, 0.0, 0.0, 0.0, 0.0, -417.3964759584041, 0.0]
['beep', 0.0, -767.9388842509848, 0.0, 0.0, 0.0, 0.0, -430.29343250911626, 0.0]
['beep', 0.0, -774.9126285210406, 0.0, 0.0, 0.0, 0.0, -438.0718395795631, 0.0]
['beep', 0.0, -754.7960585112642, 0.0, 0.0, 0.0, 0.0, -431.27690926514975, 0.0]
['beep', 0.0, -737.1381803915716, 0.0, 0.0, 0.0, 0.0, -421.97858357174204, 0.0]
['beep', 0.0, -745.5871397956777, 0.0, 0.0, 0.0, 0.0, -422.29150799411633, 0.0]
['beep', 0.0, -769.6152650851328, 0.0, 0.0, 0.0, 0.0, -433.08740056602966, 0.0]
['beep', 0.0, -775.1137942211383, 0.0, 0.0, 0.0, 0.0, -442.31867102607146, 0.0]
['beep', 0.0, -754.7513550223536, 0.0, 0.0, 0.0, 0.0, -434.11558081097377, 0.0]
['beep', 0.0, -736.3335175911806, 0.0, 0.0, 0.0, 0.0, -421.01745856016385, 0.0]
['beep', 0.0, -744.0672211727168, 0.0, 0.0, 0.0, 0.0, -421.2409760047169, 0.0]
['beep', 0.0, -767.8494772731635, 0.0, 0.0, 0.0, 0.0, -434.09322906651846, 0.0]
['beep', 0.0, -774.5773523542109, 0.0, 0.0, 0.0, 0.0, -442.8104094040882, 0.0]
['beep', 0.0, -754.2819683887922, 0.0, 0.0, 0.0, 0.0, -434.8308366335436, 0.0]
['beep', 0.0, -734.9477094349515, 0.0, 0.0, 0.0, 0.0, -423.431446961337, 0.0]
['beep', 0.0, -743.8437037281637, 0.0, 0.0, 0.0, 0.0, -423.2526330056945, 0.0]
['beep', 0.0, -767.5365528507892, 0.0, 0.0, 0.0, 0.0, -435.12140931146257, 0.0]
['beep', 0.0, -774.9796837544064, 0.0, 0.0, 0.0, 0.0, -442.7433541707223, 0.0]
['beep', 0.0, -756.383032367591, 0.0, 0.0, 0.0, 0.0, -439.14472331341784, 0.0]
['beep', 0.0, -736.5570350357336, 0.0, 0.0, 0.0, 0.0, -428.1700167858621, 0.0]
['beep', 0.0, -745.6318432845883, 0.0, 0.0, 0.0, 0.0, -426.78420862963304, 0.0]
['beep', 0.0, -767.8718290176188, 0.0, 0.0, 0.0, 0.0, -437.53539771263576, 0.0]
['beep', 0.0, -773.2809511758031, 0.0, 0.0, 0.0, 0.0, -444.10681058249605, 0.0]
['beep', 0.0, -753.6784712884988, 0.0, 0.0, 0.0, 0.0, -438.6976884243117, 0.0]
['beep', 0.0, -735.059468157228, 0.0, 0.0, 0.0, 0.0, -427.74533364121123, 0.0]
['beep', 0.0, -743.8437037281637, 0.0, 0.0, 0.0, 0.0, -426.9630225852755, 0.0]
['beep', 0.0, -767.4918493618786, 0.0, 0.0, 0.0, 0.0, -438.3624122574821, 0.0]
['beep', 0.0, -774.4432418874791, 0.0, 0.0, 0.0, 0.0, -447.05724085059654, 0.0]
['beep', 0.0, -755.1760381670044, 0.0, 0.0, 0.0, 0.0, -439.81527564707704, 0.0]
['beep', 0.0, -735.9088344465297, 0.0, 0.0, 0.0, 0.0, -426.9630225852755, 0.0]
['beep', 0.0, -743.6872415169765, 0.0, 0.0, 0.0, 0.0, -426.0018975736973, 0.0]
['beep', 0.0, -767.5812563396998, 0.0, 0.0, 0.0, 0.0, -439.14472331341784, 0.0]
['beep', 0.0, -772.0516052307612, 0.0, 0.0, 0.0, 0.0, -445.9843571167418, 0.0]
['beep', 0.0, -753.5220090773117, 0.0, 0.0, 0.0, 0.0, -438.83179889104355, 0.0]
['beep', 0.0, -736.4005728245464, 0.0, 0.0, 0.0, 0.0, -426.9853743297308, 0.0]
['beep', 0.0, -743.3966688390576, 0.0, 0.0, 0.0, 0.0, -426.87361560745427, 0.0]
['beep', 0.0, -765.9272272500071, 0.0, 0.0, 0.0, 0.0, -441.24578729221673, 0.0]
['beep', 0.0, -772.8562680311524, 0.0, 0.0, 0.0, 0.0, -448.17482807336194, 0.0]
['beep', 0.0, -755.1313346780938, 0.0, 0.0, 0.0, 0.0, -440.32936576954916, 0.0]
['beep', 0.0, -736.5570350357336, 0.0, 0.0, 0.0, 0.0, -427.6112231744794, 0.0]
['beep', 0.0, -743.5754827947001, 0.0, 0.0, 0.0, 0.0, -428.57234818605764, 0.0]
['beep', 0.0, -766.7095383059428, 0.0, 0.0, 0.0, 0.0, -441.1787320588508, 0.0]
['beep', 0.0, -774.4655936319344, 0.0, 0.0, 0.0, 0.0, -447.1913513173284, 0.0]
['beep', 0.0, -756.4724393454122, 0.0, 0.0, 0.0, 0.0, -441.4469529923145, 0.0]
['beep', 0.0, -737.674622258499, 0.0, 0.0, 0.0, 0.0, -429.0640865640744, 0.0]
['beep', 0.0, -746.3694508516135, 0.0, 0.0, 0.0, 0.0, -427.79003713012185, 0.0]
['beep', 0.0, -769.2129336849373, 0.0, 0.0, 0.0, 0.0, -439.6811651803452, 0.0]
['beep', 0.0, -774.86792503213, 0.0, 0.0, 0.0, 0.0, -446.8560751504988, 0.0]
['beep', 0.0, -756.1818666674932, 0.0, 0.0, 0.0, 0.0, -440.23995879172793, 0.0]
['beep', 0.0, -738.546340292256, 0.0, 0.0, 0.0, 0.0, -428.57234818605764, 0.0]
['beep', 0.0, -746.3470991071581, 0.0, 0.0, 0.0, 0.0, -428.01355457467497, 0.0]
['beep', 0.0, -768.9894162403842, 0.0, 0.0, 0.0, 0.0, -438.6306331909458, 0.0]
['beep', 0.0, -776.186677954993, 0.0, 0.0, 0.0, 0.0, -448.28658679563847, 0.0]
['beep', 0.0, -757.6794335459988, 0.0, 0.0, 0.0, 0.0, -444.3526797715044, 0.0]
['beep', 0.0, -739.641575770566, 0.0, 0.0, 0.0, 0.0, -431.4780749652475, 0.0]
['beep', 0.0, -748.8281427416972, 0.0, 0.0, 0.0, 0.0, -431.0980953095073, 0.0]
['beep', 0.0, -774.2420761873814, 0.0, 0.0, 0.0, 0.0, -443.5480169711133, 0.0]
['beep', 0.0, -775.3149599212361, 0.0, 0.0, 0.0, 0.0, -450.81233391908813, 0.0]
['beep', 0.0, -747.3976310965576, 0.0, 0.0, 0.0, 0.0, -446.45374375030326, 0.0]
['beep', 0.0, -731.3714303221024, 0.0, 0.0, 0.0, 0.0, -437.4236389903592, 0.0]
['beep', 0.0, -739.2615961148258, 0.0, 0.0, 0.0, 0.0, -436.9989558457084, 0.0]
['beep', 0.0, -760.3169393917251, 0.0, 0.0, 0.0, 0.0, -447.9960141177195, 0.0]
['beep', 0.0, -768.0506429732612, 0.0, 0.0, 0.0, 0.0, -454.34390954302665, 0.0]
['beep', 0.0, -749.7222125199095, 0.0, 0.0, 0.0, 0.0, -448.7336216847446, 0.0]
['beep', 0.0, -730.1197326326052, 0.0, 0.0, 0.0, 0.0, -439.12237156896254, 0.0]
['beep', 0.0, -736.3782210800912, 0.0, 0.0, 0.0, 0.0, -438.720040168767, 0.0]
['beep', 0.0, -759.2664074023256, 0.0, 0.0, 0.0, 0.0, -448.3089385400938, 0.0]
['beep', 0.0, -766.0166342278284, 0.0, 0.0, 0.0, 0.0, -455.5285519991579, 0.0]
['beep', 0.0, -748.157590408038, 0.0, 0.0, 0.0, 0.0, -450.81233391908813, 0.0]
['beep', 0.0, -730.7455814773538, 0.0, 0.0, 0.0, 0.0, -440.4858279807363, 0.0]
['beep', 0.0, -737.8534362141414, 0.0, 0.0, 0.0, 0.0, -440.7987524031106, 0.0]
['beep', 0.0, -759.9593114804401, 0.0, 0.0, 0.0, 0.0, -450.90174089690936, 0.0]
['beep', 0.0, -766.4189656280239, 0.0, 0.0, 0.0, 0.0, -458.3448718005266, 0.0]
['beep', 0.0, -747.5987967966553, 0.0, 0.0, 0.0, 0.0, -451.99697637521945, 0.0]
['beep', 0.0, -730.1867878659712, 0.0, 0.0, 0.0, 0.0, -442.02809834815247, 0.0]
['beep', 0.0, -737.1828838804822, 0.0, 0.0, 0.0, 0.0, -441.8045809035994, 0.0]
['beep', 0.0, -759.1993521689596, 0.0, 0.0, 0.0, 0.0, -451.23701706373896, 0.0]
['beep', 0.0, -767.0224627283171, 0.0, 0.0, 0.0, 0.0, -458.45663052280315, 0.0]
['beep', 0.0, -748.6940322749654, 0.0, 0.0, 0.0, 0.0, -452.71223219778926, 0.0]
['beep', 0.0, -730.0526773992393, 0.0, 0.0, 0.0, 0.0, -442.7657059151776, 0.0]
['beep', 0.0, -735.3947443240577, 0.0, 0.0, 0.0, 0.0, -442.721002426267, 0.0]
['beep', 0.0, -757.5229713348117, 0.0, 0.0, 0.0, 0.0, -453.0922118535295, 0.0]
['beep', 0.0, -764.67552956051, 0.0, 0.0, 0.0, 0.0, -460.8259154350657, 0.0]
['beep', 0.0, -746.7941339962642, 0.0, 0.0, 0.0, 0.0, -456.0202903771747, 0.0]
['beep', 0.0, -727.6386889980661, 0.0, 0.0, 0.0, 0.0, -444.2632727936832, 0.0]
['beep', 0.0, -731.8408169556639, 0.0, 0.0, 0.0, 0.0, -441.35754601449327, 0.0]
['beep', 0.0, -753.5220090773117, 0.0, 0.0, 0.0, 0.0, -451.6393484639345, 0.0]
['beep', 0.0, -758.931131235496, 0.0, 0.0, 0.0, 0.0, -458.81425843408806, 0.0]
['beep', 0.0, -739.1721891370046, 0.0, 0.0, 0.0, 0.0, -454.8132961765881, 0.0]
['beep', 0.0, -720.8661104281081, 0.0, 0.0, 0.0, 0.0, -441.67047043686756, 0.0]
['beep', 0.0, -727.5939855091555, 0.0, 0.0, 0.0, 0.0, -441.0669733365743, 0.0]
['beep', 0.0, -751.9126834765295, 0.0, 0.0, 0.0, 0.0, -452.2651973086831, 0.0]
['beep', 0.0, -760.6969190474653, 0.0, 0.0, 0.0, 0.0, -459.97654914576407, 0.0]
['beep', 0.0, -743.5978345391553, 0.0, 0.0, 0.0, 0.0, -455.05916536559647, 0.0]
['beep', 0.0, -725.515273274812, 0.0, 0.0, 0.0, 0.0, -442.8774646374541, 0.0]
['beep', 0.0, -732.0866861446722, 0.0, 0.0, 0.0, 0.0, -441.84928439251, 0.0]
['beep', 0.0, -754.2149131554262, 0.0, 0.0, 0.0, 0.0, -453.1369153424401, 0.0]
['beep', 0.0, -761.3227678922138, 0.0, 0.0, 0.0, 0.0, -462.52464801366904, 0.0]
['beep', 0.0, -743.4637240724235, 0.0, 0.0, 0.0, 0.0, -457.85313342250987, 0.0]
['beep', 0.0, -724.5765000076891, 0.0, 0.0, 0.0, 0.0, -445.3138047830826, 0.0]
['beep', 0.0, -730.8796919440856, 0.0, 0.0, 0.0, 0.0, -443.9950518602195, 0.0]
['beep', 0.0, -754.0137474553285, 0.0, 0.0, 0.0, 0.0, -455.34973804351546, 0.0]
['beep', 0.0, -760.9427882364737, 0.0, 0.0, 0.0, 0.0, -463.8210491920769, 0.0]
['beep', 0.0, -743.4190205835129, 0.0, 0.0, 0.0, 0.0, -457.2943398111272, 0.0]
['beep', 0.0, -725.0905901301611, 0.0, 0.0, 0.0, 0.0, -443.7491826712111, 0.0]
['beep', 0.0, -730.902043688541, 0.0, 0.0, 0.0, 0.0, -441.98339485924186, 0.0]
['beep', 0.0, -753.2761398883033, 0.0, 0.0, 0.0, 0.0, -453.1592670868954, 0.0]
['beep', 0.0, -762.0380237147837, 0.0, 0.0, 0.0, 0.0, -460.4906392682361, 0.0]
['beep', 0.0, -744.4248490840017, 0.0, 0.0, 0.0, 0.0, -455.59560723252383, 0.0]
['beep', 0.0, -726.4093430530243, 0.0, 0.0, 0.0, 0.0, -444.44208674932565, 0.0]
['beep', 0.0, -732.6901832449655, 0.0, 0.0, 0.0, 0.0, -442.60924370399044, 0.0]
['beep', 0.0, -755.0195759558172, 0.0, 0.0, 0.0, 0.0, -454.5003717542138, 0.0]
['beep', 0.0, -762.5968173261664, 0.0, 0.0, 0.0, 0.0, -462.7034619693115, 0.0]
['beep', 0.0, -745.0730496732057, 0.0, 0.0, 0.0, 0.0, -455.81912467707696, 0.0]
['beep', 0.0, -725.2694040858036, 0.0, 0.0, 0.0, 0.0, -444.73265942724464, 0.0]
['beep', 0.0, -731.483189044379, 0.0, 0.0, 0.0, 0.0, -443.27979603764965, 0.0]
['beep', 0.0, -754.8407620001748, 0.0, 0.0, 0.0, 0.0, -453.62865372045684, 0.0]
['beep', 0.0, -762.3956516260686, 0.0, 0.0, 0.0, 0.0, -462.4799445247584, 0.0]
['beep', 0.0, -744.2236833839039, 0.0, 0.0, 0.0, 0.0, -457.5849124890462, 0.0]
['beep', 0.0, -724.5988517521444, 0.0, 0.0, 0.0, 0.0, -448.24188330672786, 0.0]
['beep', 0.0, -730.834988455175, 0.0, 0.0, 0.0, 0.0, -447.1689995728731, 0.0]
['beep', 0.0, -753.9913957108731, 0.0, 0.0, 0.0, 0.0, -454.880351409954, 0.0]
['beep', 0.0, -763.0215004708172, 0.0, 0.0, 0.0, 0.0, -463.6422352364344, 0.0]
['beep', 0.0, -745.8330089846861, 0.0, 0.0, 0.0, 0.0, -459.90949391239815, 0.0]
['beep', 0.0, -725.6940872304544, 0.0, 0.0, 0.0, 0.0, -447.6160344619792, 0.0]
['beep', 0.0, -731.1479128775493, 0.0, 0.0, 0.0, 0.0, -446.09611583901835, 0.0]
['beep', 0.0, -753.4549538439458, 0.0, 0.0, 0.0, 0.0, -456.5790839885574, 0.0]
['beep', 0.0, -760.4286981140016, 0.0, 0.0, 0.0, 0.0, -465.1845056038506, 0.0]
['beep', 0.0, -743.866055472619, 0.0, 0.0, 0.0, 0.0, -460.60239799051266, 0.0]
['beep', 0.0, -725.0235348967952, 0.0, 0.0, 0.0, 0.0, -450.0300228631524, 0.0]
['beep', 0.0, -730.3656018216136, 0.0, 0.0, 0.0, 0.0, -446.40904026139265, 0.0]
['beep', 0.0, -752.5161805768229, 0.0, 0.0, 0.0, 0.0, -457.5402090001356, 0.0]
['beep', 0.0, -760.2722359028144, 0.0, 0.0, 0.0, 0.0, -466.41385154889247, 0.0]
['beep', 0.0, -742.8825787165855, 0.0, 0.0, 0.0, 0.0, -461.27295032417186, 0.0]
['beep', 0.0, -724.5541482632337, 0.0, 0.0, 0.0, 0.0, -450.92409264136467, 0.0]
['beep', 0.0, -729.158607621027, 0.0, 0.0, 0.0, 0.0, -447.1689995728731, 0.0]
['beep', 0.0, -750.8397997426748, 0.0, 0.0, 0.0, 0.0, -458.6577962229009, 0.0]
['beep', 0.0, -759.6016835691552, 0.0, 0.0, 0.0, 0.0, -466.1903341043394, 0.0]
['beep', 0.0, -741.899101960552, 0.0, 0.0, 0.0, 0.0, -459.95419740130876, 0.0]
['beep', 0.0, -722.2519185843371, 0.0, 0.0, 0.0, 0.0, -449.91826414087586, 0.0]
['beep', 0.0, -728.6668692430103, 0.0, 0.0, 0.0, 0.0, -448.688918195834, 0.0]
['beep', 0.0, -749.9233782200073, 0.0, 0.0, 0.0, 0.0, -457.40609853340374, 0.0]
['beep', 0.0, -757.4112126125351, 0.0, 0.0, 0.0, 0.0, -464.96098815929753, 0.0]
['beep', 0.0, -741.899101960552, 0.0, 0.0, 0.0, 0.0, -460.64710147942327, 0.0]
['beep', 0.0, -724.2859273297701, 0.0, 0.0, 0.0, 0.0, -449.0912495960295, 0.0]
['beep', 0.0, -730.6114710106219, 0.0, 0.0, 0.0, 0.0, -445.5149704831804, 0.0]
['beep', 0.0, -751.0409654427726, 0.0, 0.0, 0.0, 0.0, -456.2885113106384, 0.0]
['beep', 0.0, -755.6677765450212, 0.0, 0.0, 0.0, 0.0, -465.4750782817696, 0.0]
['beep', 0.0, -735.931186190985, 0.0, 0.0, 0.0, 0.0, -459.90949391239815, 0.0]
['beep', 0.0, -717.5357005042673, 0.0, 0.0, 0.0, 0.0, -447.83955190653234, 0.0]
['beep', 0.0, -725.0011831523399, 0.0, 0.0, 0.0, 0.0, -446.2302263057502, 0.0]
['beep', 0.0, -747.4870380743788, 0.0, 0.0, 0.0, 0.0, -457.204932833306, 0.0]
['beep', 0.0, -757.2994538902586, 0.0, 0.0, 0.0, 0.0, -466.1232788709735, 0.0]
['beep', 0.0, -740.5356455487783, 0.0, 0.0, 0.0, 0.0, -459.5742177455685, 0.0]
['beep', 0.0, -720.8884621725634, 0.0, 0.0, 0.0, 0.0, -447.03488910614124, 0.0]
['beep', 0.0, -726.6328604975773, 0.0, 0.0, 0.0, 0.0, -445.5820257165463, 0.0]
['beep', 0.0, -749.2528258863481, 0.0, 0.0, 0.0, 0.0, -456.42262177737024, 0.0]
['beep', 0.0, -758.1711719240155, 0.0, 0.0, 0.0, 0.0, -462.85992418049864, 0.0]
['beep', 0.0, -740.803866482242, 0.0, 0.0, 0.0, 0.0, -456.6908427108339, 0.0]
['beep', 0.0, -721.8495871841416, 0.0, 0.0, 0.0, 0.0, -446.8560751504988, 0.0]
['beep', 0.0, -727.3257645756918, 0.0, 0.0, 0.0, 0.0, -445.69378443882283, 0.0]
['beep', 0.0, -751.0633171872279, 0.0, 0.0, 0.0, 0.0, -456.17675258836186, 0.0]
['beep', 0.0, -760.6522155585546, 0.0, 0.0, 0.0, 0.0, -464.33513931454894, 0.0]
['beep', 0.0, -743.1060961611386, 0.0, 0.0, 0.0, 0.0, -459.5965694900238, 0.0]
['beep', 0.0, -724.0847616296722, 0.0, 0.0, 0.0, 0.0, -447.45957225079206, 0.0]
['beep', 0.0, -729.4938837878566, 0.0, 0.0, 0.0, 0.0, -445.559673972091, 0.0]
['beep', 0.0, -752.0467939432614, 0.0, 0.0, 0.0, 0.0, -456.15440084390656, 0.0]
['beep', 0.0, -761.7921545257753, 0.0, 0.0, 0.0, 0.0, -464.33513931454894, 0.0]
['beep', 0.0, -744.7824769952866, 0.0, 0.0, 0.0, 0.0, -460.24477007922775, 0.0]
['beep', 0.0, -725.2917558302589, 0.0, 0.0, 0.0, 0.0, -449.3147670405826, 0.0]
['beep', 0.0, -729.3374215766695, 0.0, 0.0, 0.0, 0.0, -448.7559734291999, 0.0]
['beep', 0.0, -752.1138491766274, 0.0, 0.0, 0.0, 0.0, -457.9425404003311, 0.0]
['beep', 0.0, -760.8310295141971, 0.0, 0.0, 0.0, 0.0, -464.71511897028915, 0.0]
['beep', 0.0, -744.5589595507336, 0.0, 0.0, 0.0, 0.0, -459.5965694900238, 0.0]
['beep', 0.0, -725.2917558302589, 0.0, 0.0, 0.0, 0.0, -447.92895888435356, 0.0]
['beep', 0.0, -728.2421860983594, 0.0, 0.0, 0.0, 0.0, -445.559673972091, 0.0]
['beep', 0.0, -751.3985933540575, 0.0, 0.0, 0.0, 0.0, -453.494543253725, 0.0]
['beep', 0.0, -760.7863260252865, 0.0, 0.0, 0.0, 0.0, -461.20589509080594, 0.0]
['beep', 0.0, -744.6260147840995, 0.0, 0.0, 0.0, 0.0, -457.0037671332082, 0.0]
['beep', 0.0, -727.0798953866835, 0.0, 0.0, 0.0, 0.0, -445.71613618327814, 0.0]
['beep', 0.0, -734.7688954793091, 0.0, 0.0, 0.0, 0.0, -446.40904026139265, 0.0]
['beep', 0.0, -757.9253027350072, 0.0, 0.0, 0.0, 0.0, -456.6908427108339, 0.0]
['beep', 0.0, -757.5229713348117, 0.0, 0.0, 0.0, 0.0, -465.1845056038506, 0.0]
['beep', 0.0, -733.1148663896164, 0.0, 0.0, 0.0, 0.0, -465.4527265373143, 0.0]
['beep', 0.0, -710.6513632120327, 0.0, 0.0, 0.0, 0.0, -461.0941363685294, 0.0]
['beep', 0.0, -712.9535928909294, 0.0, 0.0, 0.0, 0.0, -463.19520034732824, 0.0]
['beep', 0.0, -731.8184652112085, 0.0, 0.0, 0.0, 0.0, -477.6344272654566, 0.0]
['beep', 0.0, -737.0711251582057, 0.0, 0.0, 0.0, 0.0, -490.71019777181124, 0.0]
['beep', 0.0, -715.4122847810131, 0.0, 0.0, 0.0, 0.0, -491.93954371685317, 0.0]
['beep', 0.0, -691.3841594915581, 0.0, 0.0, 0.0, 0.0, -485.5469448026353, 0.0]
['beep', 0.0, -690.579496691167, 0.0, 0.0, 0.0, 0.0, -489.77142450468835, 0.0]
['beep', 0.0, -707.2315463103707, 0.0, 0.0, 0.0, 0.0, -505.4176456234033, 0.0]
['beep', 0.0, -714.3170493027031, 0.0, 0.0, 0.0, 0.0, -519.0298579966853, 0.0]
['beep', 0.0, -694.1110723151055, 0.0, 0.0, 0.0, 0.0, -519.7227620747998, 0.0]
['beep', 0.0, -668.5853801471449, 0.0, 0.0, 0.0, 0.0, -514.1124742165177, 0.0]
['beep', 0.0, -669.613560392089, 0.0, 0.0, 0.0, 0.0, -518.0910847295625, 0.0]
['beep', 0.0, -688.9925228348402, 0.0, 0.0, 0.0, 0.0, -534.7431343487661, 0.0]
['beep', 0.0, -696.9273921164743, 0.0, 0.0, 0.0, 0.0, -549.3835269669923, 0.0]
['beep', 0.0, -677.7942988627314, 0.0, 0.0, 0.0, 0.0, -551.39518396797, 0.0]
['beep', 0.0, -655.3978509185137, 0.0, 0.0, 0.0, 0.0, -546.008413554241, 0.0]
['beep', 0.0, -658.8176678201756, 0.0, 0.0, 0.0, 0.0, -548.712974633333, 0.0]
['beep', 0.0, -682.2199442648822, 0.0, 0.0, 0.0, 0.0, -563.9792160963078, 0.0]
['beep', 0.0, -691.451214724924, 0.0, 0.0, 0.0, 0.0, -578.1502220809725, 0.0]
['beep', 0.0, -673.0557290382063, 0.0, 0.0, 0.0, 0.0, -576.7197104358328, 0.0]
['beep', 0.0, -652.9838625173405, 0.0, 0.0, 0.0, 0.0, -570.9753121108189, 0.0]
['beep', 0.0, -658.1694672309718, 0.0, 0.0, 0.0, 0.0, -571.0870708330955, 0.0]
['beep', 0.0, -680.1412320305386, 0.0, 0.0, 0.0, 0.0, -584.6992832063775, 0.0]
['beep', 0.0, -690.5124414578011, 0.0, 0.0, 0.0, 0.0, -595.875155434031, 0.0]
['beep', 0.0, -674.4415371944353, 0.0, 0.0, 0.0, 0.0, -592.7235594658326, 0.0]
['beep', 0.0, -656.3813276745472, 0.0, 0.0, 0.0, 0.0, -583.4028820279697, 0.0]
['beep', 0.0, -660.6952143544214, 0.0, 0.0, 0.0, 0.0, -580.3406930375926, 0.0]
['beep', 0.0, -682.6893308984436, 0.0, 0.0, 0.0, 0.0, -588.8790594195199, 0.0]
['beep', 0.0, -691.965304847396, 0.0, 0.0, 0.0, 0.0, -596.3221903231371, 0.0]
['beep', 0.0, -676.453194195413, 0.0, 0.0, 0.0, 0.0, -589.5496117531791, 0.0]
['beep', 0.0, -656.6719003524662, 0.0, 0.0, 0.0, 0.0, -577.3902627694921, 0.0]
['beep', 0.0, -661.2093044768935, 0.0, 0.0, 0.0, 0.0, -574.4621842458469, 0.0]
['beep', 0.0, -684.7233396438766, 0.0, 0.0, 0.0, 0.0, -584.6545797174668, 0.0]
['beep', 0.0, -694.289886270748, 0.0, 0.0, 0.0, 0.0, -591.2259925873271, 0.0]
['beep', 0.0, -677.9507610739186, 0.0, 0.0, 0.0, 0.0, -585.7274634513216, 0.0]
['beep', 0.0, -659.0188335202735, 0.0, 0.0, 0.0, 0.0, -576.8314691581094, 0.0]
['beep', 0.0, -663.7574033447985, 0.0, 0.0, 0.0, 0.0, -574.9315708794082, 0.0]
['beep', 0.0, -685.483298955357, 0.0, 0.0, 0.0, 0.0, -581.6370942160004, 0.0]
['beep', 0.0, -695.8098048937088, 0.0, 0.0, 0.0, 0.0, -589.6837222199109, 0.0]
['beep', 0.0, -678.3754442185693, 0.0, 0.0, 0.0, 0.0, -583.2911233056931, 0.0]
['beep', 0.0, -658.6835573534438, 0.0, 0.0, 0.0, 0.0, -571.5564574666569, 0.0]
['beep', 0.0, -663.8915138115303, 0.0, 0.0, 0.0, 0.0, -571.9140853779418, 0.0]
['beep', 0.0, -686.0197408222843, 0.0, 0.0, 0.0, 0.0, -585.682759962411, 0.0]
['beep', 0.0, -696.9944473498401, 0.0, 0.0, 0.0, 0.0, -591.7400827097991, 0.0]
['beep', 0.0, -682.8234413651754, 0.0, 0.0, 0.0, 0.0, -585.8839256625088, 0.0]
['beep', 0.0, -663.0421475222287, 0.0, 0.0, 0.0, 0.0, -578.4407947588915, 0.0]
['beep', 0.0, -666.6407783795331, 0.0, 0.0, 0.0, 0.0, -581.6370942160004, 0.0]
['beep', 0.0, -686.1762030334716, 0.0, 0.0, 0.0, 0.0, -594.2658298332489, 0.0]
['beep', 0.0, -697.4414822389463, 0.0, 0.0, 0.0, 0.0, -604.7487979827879, 0.0]
['beep', 0.0, -681.2364675088487, 0.0, 0.0, 0.0, 0.0, -603.228879359827, 0.0]
['beep', 0.0, -660.3599381875919, 0.0, 0.0, 0.0, 0.0, -590.4436815313913, 0.0]
['beep', 0.0, -664.5173626562789, 0.0, 0.0, 0.0, 0.0, -588.5437832526902, 0.0]
['beep', 0.0, -689.1713367904827, 0.0, 0.0, 0.0, 0.0, -600.6137252585561, 0.0]
['beep', 0.0, -697.2179647943932, 0.0, 0.0, 0.0, 0.0, -609.777940485232, 0.0]
['beep', 0.0, -676.453194195413, 0.0, 0.0, 0.0, 0.0, -604.7935014716985, 0.0]
['beep', 0.0, -652.6485863505109, 0.0, 0.0, 0.0, 0.0, -591.7847861987098, 0.0]
['beep', 0.0, -653.8555805510975, 0.0, 0.0, 0.0, 0.0, -590.0189983867406, 0.0]
['beep', 0.0, -674.5085924278012, 0.0, 0.0, 0.0, 0.0, -601.843071203598, 0.0]
['beep', 0.0, -685.2597815108039, 0.0, 0.0, 0.0, 0.0, -607.3416003396035, 0.0]
['beep', 0.0, -669.904133070008, 0.0, 0.0, 0.0, 0.0, -601.7536642257768, 0.0]
['beep', 0.0, -651.709813083388, 0.0, 0.0, 0.0, 0.0, -588.7673006972433, 0.0]
['beep', 0.0, -654.9508160294075, 0.0, 0.0, 0.0, 0.0, -584.4757657618244, 0.0]
['beep', 0.0, -675.8273453506644, 0.0, 0.0, 0.0, 0.0, -595.584582756112, 0.0]
['beep', 0.0, -685.7291681443654, 0.0, 0.0, 0.0, 0.0, -605.3075915941706, 0.0]
['beep', 0.0, -672.1616592599939, 0.0, 0.0, 0.0, 0.0, -600.4796147918242, 0.0]
['beep', 0.0, -651.7545165722986, 0.0, 0.0, 0.0, 0.0, -589.2143355863495, 0.0]
['beep', 0.0, -654.839057307131, 0.0, 0.0, 0.0, 0.0, -585.5710012401345, 0.0]
['beep', 0.0, -676.2296767508599, 0.0, 0.0, 0.0, 0.0, -595.584582756112, 0.0]
['beep', 0.0, -686.3773687335693, 0.0, 0.0, 0.0, 0.0, -605.3746468275365, 0.0]
['beep', 0.0, -670.9099615704968, 0.0, 0.0, 0.0, 0.0, -600.8372427031092, 0.0]
['beep', 0.0, -652.2239032058601, 0.0, 0.0, 0.0, 0.0, -588.2308588303159, 0.0]
['beep', 0.0, -655.5319613852455, 0.0, 0.0, 0.0, 0.0, -584.3640070395478, 0.0]
['beep', 0.0, -677.1460982735275, 0.0, 0.0, 0.0, 0.0, -593.9529054108746, 0.0]
['beep', 0.0, -687.673769911977, 0.0, 0.0, 0.0, 0.0, -602.3124578371594, 0.0]
['beep', 0.0, -672.9216185714745, 0.0, 0.0, 0.0, 0.0, -597.2386118458047, 0.0]
['beep', 0.0, -652.1344962280389, 0.0, 0.0, 0.0, 0.0, -586.6438849739892, 0.0]
['beep', 0.0, -651.4639438943797, 0.0, 0.0, 0.0, 0.0, -587.3814925410143, 0.0]
['beep', 0.0, -677.1460982735275, 0.0, 0.0, 0.0, 0.0, -598.713826979855, 0.0]
['beep', 0.0, -698.5367177172564, 0.0, 0.0, 0.0, 0.0, -609.7555887407767, 0.0]
['beep', 0.0, -687.450252467424, 0.0, 0.0, 0.0, 0.0, -610.6273067745336, 0.0]
['beep', 0.0, -672.3628249600918, 0.0, 0.0, 0.0, 0.0, -602.4018648149806, 0.0]
['beep', 0.0, -675.9167523284856, 0.0, 0.0, 0.0, 0.0, -601.1501671254834, 0.0]
['beep', 0.0, -695.2733630267815, 0.0, 0.0, 0.0, 0.0, -611.8343009751202, 0.0]
['beep', 0.0, -704.5046334868233, 0.0, 0.0, 0.0, 0.0, -621.9819929578297, 0.0]
['beep', 0.0, -690.0207030797843, 0.0, 0.0, 0.0, 0.0, -617.131664411028, 0.0]
['beep', 0.0, -672.0275487932621, 0.0, 0.0, 0.0, 0.0, -606.2016613723829, 0.0]
['beep', 0.0, -675.6932348839325, 0.0, 0.0, 0.0, 0.0, -603.7206177378438, 0.0]
['beep', 0.0, -695.4968804713345, 0.0, 0.0, 0.0, 0.0, -612.4154463309582, 0.0]
['beep', 0.0, -705.6222207095886, 0.0, 0.0, 0.0, 0.0, -621.1549784129833, 0.0]
['beep', 0.0, -690.8253658801754, 0.0, 0.0, 0.0, 0.0, -619.098617923095, 0.0]
['beep', 0.0, -670.9546650594074, 0.0, 0.0, 0.0, 0.0, -610.3143823521593, 0.0]
['beep', 0.0, -673.033377293751, 0.0, 0.0, 0.0, 0.0, -605.5534607831789, 0.0]
['beep', 0.0, -690.7806623912647, 0.0, 0.0, 0.0, 0.0, -610.9402311969079, 0.0]
['beep', 0.0, -699.3413805176474, 0.0, 0.0, 0.0, 0.0, -619.098617923095, 0.0]
['beep', 0.0, -683.4939936988346, 0.0, 0.0, 0.0, 0.0, -616.1481876549944, 0.0]
['beep', 0.0, -663.3774236890583, 0.0, 0.0, 0.0, 0.0, -605.0840741496175, 0.0]
['beep', 0.0, -667.1101650130946, 0.0, 0.0, 0.0, 0.0, -601.7983677146874, 0.0]
['beep', 0.0, -690.4900897133458, 0.0, 0.0, 0.0, 0.0, -609.8449957185979, 0.0]
['beep', 0.0, -702.4706247413903, 0.0, 0.0, 0.0, 0.0, -618.4057138449805, 0.0]
['beep', 0.0, -689.4172059794911, 0.0, 0.0, 0.0, 0.0, -615.969373699352, 0.0]
['beep', 0.0, -670.7982028482203, 0.0, 0.0, 0.0, 0.0, -604.5029287937795, 0.0]
['beep', 0.0, -672.2510662378152, 0.0, 0.0, 0.0, 0.0, -601.1725188699388, 0.0]
['beep', 0.0, -692.4570432254128, 0.0, 0.0, 0.0, 0.0, -610.6049550300784, 0.0]
['beep', 0.0, -703.4988049863344, 0.0, 0.0, 0.0, 0.0, -620.193853401405, 0.0]
['beep', 0.0, -688.1878600344492, 0.0, 0.0, 0.0, 0.0, -617.0422574332068, 0.0]
['beep', 0.0, -669.6582638809996, 0.0, 0.0, 0.0, 0.0, -607.4533590618801, 0.0]
['beep', 0.0, -671.8263830931644, 0.0, 0.0, 0.0, 0.0, -603.6982659933884, 0.0]
['beep', 0.0, -692.0994153141279, 0.0, 0.0, 0.0, 0.0, -611.8343009751202, 0.0]
['beep', 0.0, -704.4375782534573, 0.0, 0.0, 0.0, 0.0, -620.9091092239748, 0.0]
['beep', 0.0, -690.0877583131503, 0.0, 0.0, 0.0, 0.0, -617.9810307003297, 0.0]
['beep', 0.0, -670.9323133149521, 0.0, 0.0, 0.0, 0.0, -607.4533590618801, 0.0]
['beep', 0.0, -672.6310458935554, 0.0, 0.0, 0.0, 0.0, -603.5641555266566, 0.0]
['beep', 0.0, -692.9040781145189, 0.0, 0.0, 0.0, 0.0, -612.1248736530392, 0.0]
['beep', 0.0, -703.0517700972283, 0.0, 0.0, 0.0, 0.0, -622.4066761024804, 0.0]
['beep', 0.0, -688.5231362012787, 0.0, 0.0, 0.0, 0.0, -619.2997836231928, 0.0]
['beep', 0.0, -670.2841127257482, 0.0, 0.0, 0.0, 0.0, -607.8556904620756, 0.0]
['beep', 0.0, -672.3404732156364, 0.0, 0.0, 0.0, 0.0, -603.6535625044778, 0.0]
['beep', 0.0, -694.2228310373821, 0.0, 0.0, 0.0, 0.0, -612.1472253974945, 0.0]
['beep', 0.0, -704.5940404646445, 0.0, 0.0, 0.0, 0.0, -622.4290278469358, 0.0]
['beep', 0.0, -689.7971856352312, 0.0, 0.0, 0.0, 0.0, -620.3950191015028, 0.0]
['beep', 0.0, -670.3958714480248, 0.0, 0.0, 0.0, 0.0, -609.9567544408744, 0.0]
['beep', 0.0, -672.2510662378152, 0.0, 0.0, 0.0, 0.0, -607.0286759172292, 0.0]
['beep', 0.0, -693.3511130036251, 0.0, 0.0, 0.0, 0.0, -615.6340975325224, 0.0]
['beep', 0.0, -704.6834474424658, 0.0, 0.0, 0.0, 0.0, -625.0888854371174, 0.0]
['beep', 0.0, -691.2500490248262, 0.0, 0.0, 0.0, 0.0, -621.4679028353576, 0.0]
['beep', 0.0, -670.7534993593097, 0.0, 0.0, 0.0, 0.0, -609.4203125739471, 0.0]
['beep', 0.0, -671.3346447151476, 0.0, 0.0, 0.0, 0.0, -606.0451991611957, 0.0]
['beep', 0.0, -692.2335257808597, 0.0, 0.0, 0.0, 0.0, -616.3940568440029, 0.0]
['beep', 0.0, -703.610563708611, 0.0, 0.0, 0.0, 0.0, -626.5417488267123, 0.0]
['beep', 0.0, -689.1489850460274, 0.0, 0.0, 0.0, 0.0, -623.4125046029693, 0.0]
['beep', 0.0, -669.3006359697147, 0.0, 0.0, 0.0, 0.0, -612.9071847089749, 0.0]
['beep', 0.0, -672.0499005377175, 0.0, 0.0, 0.0, 0.0, -609.4203125739471, 0.0]
['beep', 0.0, -694.4687002263904, 0.0, 0.0, 0.0, 0.0, -618.6068795450783, 0.0]
['beep', 0.0, -704.4152265090021, 0.0, 0.0, 0.0, 0.0, -628.4639988498686, 0.0]
['beep', 0.0, -689.1489850460274, 0.0, 0.0, 0.0, 0.0, -624.0160017032625, 0.0]
['beep', 0.0, -668.7418423583321, 0.0, 0.0, 0.0, 0.0, -612.1919288864051, 0.0]
['beep', 0.0, -671.2005342484158, 0.0, 0.0, 0.0, 0.0, -609.8449957185979, 0.0]
['beep', 0.0, -691.451214724924, 0.0, 0.0, 0.0, 0.0, -618.0704376781509, 0.0]
['beep', 0.0, -701.7777206632759, 0.0, 0.0, 0.0, 0.0, -626.2064726598827, 0.0]
['beep', 0.0, -687.4949559563346, 0.0, 0.0, 0.0, 0.0, -623.0772284361396, 0.0]
['beep', 0.0, -667.3560342021029, 0.0, 0.0, 0.0, 0.0, -610.6943620078996, 0.0]
['beep', 0.0, -669.0100632917957, 0.0, 0.0, 0.0, 0.0, -607.8333387176202, 0.0]
['beep', 0.0, -686.287961755748, 0.0, 0.0, 0.0, 0.0, -616.1705393994498, 0.0]
['beep', 0.0, -691.5406217027452, 0.0, 0.0, 0.0, 0.0, -630.1180279395614, 0.0]
['beep', 0.0, -685.4385954664464, 0.0, 0.0, 0.0, 0.0, -625.5582720706788, 0.0]
['beep', 0.0, -671.5358104152454, 0.0, 0.0, 0.0, 0.0, -602.5806787706231, 0.0]
['beep', 0.0, -669.4794499253571, 0.0, 0.0, 0.0, 0.0, -587.06856811864, 0.0]
['beep', 0.0, -693.5522787037229, 0.0, 0.0, 0.0, 0.0, -585.1910215843942, 0.0]
['beep', 0.0, -708.2150230664042, 0.0, 0.0, 0.0, 0.0, -584.1404895949947, 0.0]
['beep', 0.0, -696.9720956053849, 0.0, 0.0, 0.0, 0.0, -566.4379079863916, 0.0]
['beep', 0.0, -681.6387989090442, 0.0, 0.0, 0.0, 0.0, -543.39325945297, 0.0]
['beep', 0.0, -682.1528890315162, 0.0, 0.0, 0.0, 0.0, -524.9530702773417, 0.0]
['beep', 0.0, -705.063427098206, 0.0, 0.0, 0.0, 0.0, -514.2465846832496, 0.0]
['beep', 0.0, -722.6542499845326, 0.0, 0.0, 0.0, 0.0, -509.4633113698139, 0.0]
['beep', 0.0, -711.0089911233176, 0.0, 0.0, 0.0, 0.0, -487.0892151700515, 0.0]
['beep', 0.0, -693.2170025368932, 0.0, 0.0, 0.0, 0.0, -458.881313667454, 0.0]
['beep', 0.0, -694.0440170817396, 0.0, 0.0, 0.0, 0.0, -436.9989558457084, 0.0]
['beep', 0.0, -717.2674795708036, 0.0, 0.0, 0.0, 0.0, -432.8862348659319, 0.0]
['beep', 0.0, -733.0701629007058, 0.0, 0.0, 0.0, 0.0, -435.9707756007643, 0.0]
['beep', 0.0, -721.6484214840439, 0.0, 0.0, 0.0, 0.0, -417.53058642513594, 0.0]
['beep', 0.0, -705.4434067539462, 0.0, 0.0, 0.0, 0.0, -395.3576559254713, 0.0]
['beep', 0.0, -708.192671321949, 0.0, 0.0, 0.0, 0.0, -382.75127205267813, 0.0]
['beep', 0.0, -734.6794885014879, 0.0, 0.0, 0.0, 0.0, -382.75127205267813, 0.0]
['beep', 0.0, -748.9846049528844, 0.0, 0.0, 0.0, 0.0, -382.41599588584853, 0.0]
['beep', 0.0, -737.8757879585968, 0.0, 0.0, 0.0, 0.0, -374.369367881938, 0.0]
['beep', 0.0, -723.771837207298, 0.0, 0.0, 0.0, 0.0, -363.21584739873975, 0.0]
['beep', 0.0, -729.4715320434013, 0.0, 0.0, 0.0, 0.0, -356.77854499561136, 0.0]
['beep', 0.0, -752.8514567436525, 0.0, 0.0, 0.0, 0.0, -359.05842293005264, 0.0]
['beep', 0.0, -768.6541400735546, 0.0, 0.0, 0.0, 0.0, -366.5686090670358, 0.0]
['beep', 0.0, -759.5346283357893, 0.0, 0.0, 0.0, 0.0, -370.949550980276, 0.0]
['beep', 0.0, -743.1955031389598, 0.0, 0.0, 0.0, 0.0, -361.51711482013644, 0.0]
['beep', 0.0, -748.0458316857614, 0.0, 0.0, 0.0, 0.0, -357.8961322183767, 0.0]
['beep', 0.0, -769.7940790407753, 0.0, 0.0, 0.0, 0.0, -372.91650449234305, 0.0]
['beep', 0.0, -784.8815065481075, 0.0, 0.0, 0.0, 0.0, -385.724054065234, 0.0]
['beep', 0.0, -774.9349802654958, 0.0, 0.0, 0.0, 0.0, -385.724054065234, 0.0]
['beep', 0.0, -754.6395963000771, 0.0, 0.0, 0.0, 0.0, -376.40337662737096, 0.0]
['beep', 0.0, -755.6454248005658, 0.0, 0.0, 0.0, 0.0, -374.30231264857207, 0.0]
['beep', 0.0, -775.8961052770741, 0.0, 0.0, 0.0, 0.0, -389.07681573353005, 0.0]
['beep', 0.0, -788.4801374054119, 0.0, 0.0, 0.0, 0.0, -401.5267373951361, 0.0]
['beep', 0.0, -774.7561663098534, 0.0, 0.0, 0.0, 0.0, -401.8396618175104, 0.0]
['beep', 0.0, -753.4549538439458, 0.0, 0.0, 0.0, 0.0, -395.3800076699266, 0.0]
['beep', 0.0, -753.7008230329542, 0.0, 0.0, 0.0, 0.0, -396.7434640817004, 0.0]
['beep', 0.0, -772.4539366309568, 0.0, 0.0, 0.0, 0.0, -408.5004816651919, 0.0]
['beep', 0.0, -783.4733466474231, 0.0, 0.0, 0.0, 0.0, -423.2526330056945, 0.0]
['beep', 0.0, -768.9223610070183, 0.0, 0.0, 0.0, 0.0, -422.9397085833202, 0.0]
['beep', 0.0, -748.1799421524933, 0.0, 0.0, 0.0, 0.0, -414.06606603456333, 0.0]
['beep', 0.0, -748.4034595970464, 0.0, 0.0, 0.0, 0.0, -414.42369394584824, 0.0]
['beep', 0.0, -768.3635673956356, 0.0, 0.0, 0.0, 0.0, -427.14183654091795, 0.0]
['beep', 0.0, -779.5170878788338, 0.0, 0.0, 0.0, 0.0, -443.25744429319434, 0.0]
['beep', 0.0, -765.994282483373, 0.0, 0.0, 0.0, 0.0, -440.8881593809318, 0.0]
['beep', 0.0, -744.2236833839039, 0.0, 0.0, 0.0, 0.0, -428.4382377193258, 0.0]
['beep', 0.0, -744.6260147840995, 0.0, 0.0, 0.0, 0.0, -426.3818772294375, 0.0]
['beep', 0.0, -765.6143028276329, 0.0, 0.0, 0.0, 0.0, -436.7754384011553, 0.0]
['beep', 0.0, -777.5948378556774, 0.0, 0.0, 0.0, 0.0, -448.6218629624681, 0.0]
['beep', 0.0, -763.1332591930937, 0.0, 0.0, 0.0, 0.0, -447.39251701742614, 0.0]
['beep', 0.0, -742.770819994309, 0.0, 0.0, 0.0, 0.0, -438.0941913240184, 0.0]
['beep', 0.0, -741.5638257937225, 0.0, 0.0, 0.0, 0.0, -436.21664478977266, 0.0]
['beep', 0.0, -762.9544452374513, 0.0, 0.0, 0.0, 0.0, -445.13499082744016, 0.0]
['beep', 0.0, -775.1584977100489, 0.0, 0.0, 0.0, 0.0, -456.3555665440043, 0.0]
['beep', 0.0, -760.9651399809289, 0.0, 0.0, 0.0, 0.0, -454.72388919876687, 0.0]
['beep', 0.0, -740.5356455487783, 0.0, 0.0, 0.0, 0.0, -445.04558384961894, 0.0]
['beep', 0.0, -741.2732531158034, 0.0, 0.0, 0.0, 0.0, -442.02809834815247, 0.0]
['beep', 0.0, -761.0098434698396, 0.0, 0.0, 0.0, 0.0, -452.4887147532362, 0.0]
['beep', 0.0, -774.1750209540154, 0.0, 0.0, 0.0, 0.0, -461.4964677687249, 0.0]
['beep', 0.0, -760.383994625091, 0.0, 0.0, 0.0, 0.0, -461.1611916018953, 0.0]
['beep', 0.0, -738.4569333144348, 0.0, 0.0, 0.0, 0.0, -448.398345517915, 0.0]
['beep', 0.0, -739.9768519373956, 0.0, 0.0, 0.0, 0.0, -443.5480169711133, 0.0]
['beep', 0.0, -759.7134422914318, 0.0, 0.0, 0.0, 0.0, -452.64517696442334, 0.0]
['beep', 0.0, -771.8951430195741, 0.0, 0.0, 0.0, 0.0, -461.6976334688227, 0.0]
['beep', 0.0, -759.221703913415, 0.0, 0.0, 0.0, 0.0, -458.7024997118115, 0.0]
['beep', 0.0, -739.5968722816554, 0.0, 0.0, 0.0, 0.0, -449.7170984407781, 0.0]
['beep', 0.0, -739.9097967040296, 0.0, 0.0, 0.0, 0.0, -447.43722050633676, 0.0]
['beep', 0.0, -759.5569800802446, 0.0, 0.0, 0.0, 0.0, -454.7909444321328, 0.0]
['beep', 0.0, -771.6939773194763, 0.0, 0.0, 0.0, 0.0, -462.52464801366904, 0.0]
['beep', 0.0, -758.998186468862, 0.0, 0.0, 0.0, 0.0, -460.0883078680406, 0.0]
['beep', 0.0, -738.1887123809711, 0.0, 0.0, 0.0, 0.0, -448.82302866256583, 0.0]
['beep', 0.0, -740.4238868265018, 0.0, 0.0, 0.0, 0.0, -444.2185693047726, 0.0]
['beep', 0.0, -760.4063463695463, 0.0, 0.0, 0.0, 0.0, -452.8686944089764, 0.0]
['beep', 0.0, -771.2245906859149, 0.0, 0.0, 0.0, 0.0, -463.0387381361411, 0.0]
['beep', 0.0, -757.9700062239178, 0.0, 0.0, 0.0, 0.0, -462.50229626921373, 0.0]
['beep', 0.0, -736.9370146914739, 0.0, 0.0, 0.0, 0.0, -453.1592670868954, 0.0]
['beep', 0.0, -738.5239885478006, 0.0, 0.0, 0.0, 0.0, -449.4488775073144, 0.0]
['beep', 0.0, -757.7241370349094, 0.0, 0.0, 0.0, 0.0, -458.3672235449819, 0.0]
['beep', 0.0, -769.9505412519624, 0.0, 0.0, 0.0, 0.0, -466.41385154889247, 0.0]
['beep', 0.0, -758.1935236684709, 0.0, 0.0, 0.0, 0.0, -464.8268776925657, 0.0]
['beep', 0.0, -736.8476077136527, 0.0, 0.0, 0.0, 0.0, -455.4391450213367, 0.0]
['beep', 0.0, -736.8476077136527, 0.0, 0.0, 0.0, 0.0, -452.7792874311552, 0.0]
['beep', 0.0, -757.187695167982, 0.0, 0.0, 0.0, 0.0, -462.83757243604333, 0.0]
['beep', 0.0, -768.8106022847418, 0.0, 0.0, 0.0, 0.0, -473.0299679076634, 0.0]
['beep', 0.0, -756.8300672566971, 0.0, 0.0, 0.0, 0.0, -463.50812476970253, 0.0]
['beep', 0.0, -739.8203897262084, 0.0, 0.0, 0.0, 0.0, -453.494543253725, 0.0]
['beep', 0.0, -742.2120263829263, 0.0, 0.0, 0.0, 0.0, -452.108735097496, 0.0]
['beep', 0.0, -752.8067532547419, 0.0, 0.0, 0.0, 0.0, -463.59753174752376, 0.0]
['beep', 0.0, -756.4724393454122, 0.0, 0.0, 0.0, 0.0, -479.35551158851524, 0.0]
['beep', 0.0, -739.6862792594766, 0.0, 0.0, 0.0, 0.0, -482.2612383677052, 0.0]
['beep', 0.0, -723.7494854628427, 0.0, 0.0, 0.0, 0.0, -471.7112149848003, 0.0]
['beep', 0.0, -720.3967237945466, 0.0, 0.0, 0.0, 0.0, -468.0231771496746, 0.0]
['beep', 0.0, -736.8476077136527, 0.0, 0.0, 0.0, 0.0, -475.19808711982813, 0.0]
['beep', 0.0, -750.772744509309, 0.0, 0.0, 0.0, 0.0, -484.00467443521916, 0.0]
['beep', 0.0, -737.965194936418, 0.0, 0.0, 0.0, 0.0, -482.84238372354315, 0.0]
['beep', 0.0, -717.870976671097, 0.0, 0.0, 0.0, 0.0, -472.0911946405405, 0.0]
['beep', 0.0, -717.1110173596165, 0.0, 0.0, 0.0, 0.0, -471.08536614005163, 0.0]
['beep', 0.0, -737.6969740029543, 0.0, 0.0, 0.0, 0.0, -477.38855807644825, 0.0]
['beep', 0.0, -750.9515584649514, 0.0, 0.0, 0.0, 0.0, -487.02215993668557, 0.0]
['beep', 0.0, -737.2052356249376, 0.0, 0.0, 0.0, 0.0, -484.8987442134314, 0.0]
['beep', 0.0, -716.351058048136, 0.0, 0.0, 0.0, 0.0, -475.1533836309175, 0.0]
['beep', 0.0, -716.6863342149657, 0.0, 0.0, 0.0, 0.0, -471.97943591826396, 0.0]
['beep', 0.0, -737.2499391138482, 0.0, 0.0, 0.0, 0.0, -478.5732005325795, 0.0]
['beep', 0.0, -749.9010264755519, 0.0, 0.0, 0.0, 0.0, -488.6091337930124, 0.0]
['beep', 0.0, -737.2052356249376, 0.0, 0.0, 0.0, 0.0, -486.26220062520514, 0.0]
['beep', 0.0, -715.6805057144768, 0.0, 0.0, 0.0, 0.0, -474.66164525290077, 0.0]
['beep', 0.0, -716.5075202593232, 0.0, 0.0, 0.0, 0.0, -470.9736074177751, 0.0]
['beep', 0.0, -736.9146629470185, 0.0, 0.0, 0.0, 0.0, -480.78602323365493, 0.0]
['beep', 0.0, -749.6775090309989, 0.0, 0.0, 0.0, 0.0, -491.44780533883636, 0.0]
['beep', 0.0, -737.9204914475074, 0.0, 0.0, 0.0, 0.0, -489.77142450468835, 0.0]
['beep', 0.0, -716.8427964261529, 0.0, 0.0, 0.0, 0.0, -479.42256682188116, 0.0]
['beep', 0.0, -716.9545551484293, 0.0, 0.0, 0.0, 0.0, -476.6509505094231, 0.0]
['beep', 0.0, -738.1440088920605, 0.0, 0.0, 0.0, 0.0, -483.69175001284486, 0.0]
['beep', 0.0, -750.3480613646581, 0.0, 0.0, 0.0, 0.0, -493.6829797843671, 0.0]
['beep', 0.0, -737.6522705140437, 0.0, 0.0, 0.0, 0.0, -494.3088286291157, 0.0]
['beep', 0.0, -716.5969272371444, 0.0, 0.0, 0.0, 0.0, -484.8540407245208, 0.0]
['beep', 0.0, -715.3899330365579, 0.0, 0.0, 0.0, 0.0, -479.10964239950687, 0.0]
['beep', 0.0, -734.9700611794068, 0.0, 0.0, 0.0, 0.0, -486.35160760302637, 0.0]
['beep', 0.0, -747.6882037744765, 0.0, 0.0, 0.0, 0.0, -494.9793809627749, 0.0]
['beep', 0.0, -736.0876484021721, 0.0, 0.0, 0.0, 0.0, -493.14653791743973, 0.0]
['beep', 0.0, -714.0041248803288, 0.0, 0.0, 0.0, 0.0, -483.49058431274705, 0.0]
['beep', 0.0, -712.0371713682617, 0.0, 0.0, 0.0, 0.0, -477.1873923763505, 0.0]
['beep', 0.0, -733.1148663896164, 0.0, 0.0, 0.0, 0.0, -484.33995060204876, 0.0]
['beep', 0.0, -747.3305758631916, 0.0, 0.0, 0.0, 0.0, -496.5216513301911, 0.0]
['beep', 0.0, -734.6794885014879, 0.0, 0.0, 0.0, 0.0, -492.90066872843136, 0.0]
['beep', 0.0, -713.870014413597, 0.0, 0.0, 0.0, 0.0, -480.85307846702085, 0.0]
['beep', 0.0, -712.7747789352869, 0.0, 0.0, 0.0, 0.0, -477.74618598773316, 0.0]
['beep', 0.0, -732.7125349894209, 0.0, 0.0, 0.0, 0.0, -486.4633663253029, 0.0]
['beep', 0.0, -747.4199828410128, 0.0, 0.0, 0.0, 0.0, -497.05809319711847, 0.0]
['beep', 0.0, -735.5065030463342, 0.0, 0.0, 0.0, 0.0, -495.47111934079163, 0.0]
['beep', 0.0, -713.9594213914182, 0.0, 0.0, 0.0, 0.0, -486.30690411411575, 0.0]
['beep', 0.0, -712.99829637984, 0.0, 0.0, 0.0, 0.0, -481.590686034046, 0.0]
['beep', 0.0, -733.8748257010968, 0.0, 0.0, 0.0, 0.0, -488.2962093706381, 0.0]
['beep', 0.0, -747.4423345854682, 0.0, 0.0, 0.0, 0.0, -499.5167850872022, 0.0]
['beep', 0.0, -736.1323518910827, 0.0, 0.0, 0.0, 0.0, -500.880241498976, 0.0]
['beep', 0.0, -716.8651481706081, 0.0, 0.0, 0.0, 0.0, -494.1300146734732, 0.0]
['beep', 0.0, -712.4618545129126, 0.0, 0.0, 0.0, 0.0, -494.3535321180263, 0.0]
['beep', 0.0, -731.0361541552728, 0.0, 0.0, 0.0, 0.0, -505.61881132350106, 0.0]
['beep', 0.0, -745.4530293289458, 0.0, 0.0, 0.0, 0.0, -515.654744583934, 0.0]
['beep', 0.0, -733.159569878527, 0.0, 0.0, 0.0, 0.0, -513.6654393274116, 0.0]
['beep', 0.0, -712.2383370683596, 0.0, 0.0, 0.0, 0.0, -502.6907327998558, 0.0]
['beep', 0.0, -711.4336742679685, 0.0, 0.0, 0.0, 0.0, -498.30979088661564, 0.0]
['beep', 0.0, -732.4890175448678, 0.0, 0.0, 0.0, 0.0, -506.51288110171333, 0.0]
['beep', 0.0, -747.3752793521022, 0.0, 0.0, 0.0, 0.0, -516.1464829619507, 0.0]
['beep', 0.0, -735.7300204908872, 0.0, 0.0, 0.0, 0.0, -513.6430875829564, 0.0]
['beep', 0.0, -714.1605870915159, 0.0, 0.0, 0.0, 0.0, -503.7189130448, 0.0]
['beep', 0.0, -711.9254126459853, 0.0, 0.0, 0.0, 0.0, -497.7957007641436, 0.0]
['beep', 0.0, -731.2820233442811, 0.0, 0.0, 0.0, 0.0, -504.3224101450933, 0.0]
['beep', 0.0, -742.2567298718369, 0.0, 0.0, 0.0, 0.0, -515.2524131837384, 0.0]
['beep', 0.0, -729.2480145988483, 0.0, 0.0, 0.0, 0.0, -513.2184044383055, 0.0]
['beep', 0.0, -708.192671321949, 0.0, 0.0, 0.0, 0.0, -500.41085486541454, 0.0]
['beep', 0.0, -706.3821800210691, 0.0, 0.0, 0.0, 0.0, -495.60522980752353, 0.0]
['beep', 0.0, -727.4598750424236, 0.0, 0.0, 0.0, 0.0, -505.84232876805413, 0.0]
['beep', 0.0, -742.9943374388621, 0.0, 0.0, 0.0, 0.0, -513.3525149050373, 0.0]
['beep', 0.0, -732.7572384783315, 0.0, 0.0, 0.0, 0.0, -511.0949887150513, 0.0]
['beep', 0.0, -712.4618545129126, 0.0, 0.0, 0.0, 0.0, -500.72377928778883, 0.0]
['beep', 0.0, -712.4395027684573, 0.0, 0.0, 0.0, 0.0, -496.0969681855403, 0.0]
['beep', 0.0, -732.2655001003146, 0.0, 0.0, 0.0, 0.0, -504.56827933410165, 0.0]
['beep', 0.0, -745.4753810734012, 0.0, 0.0, 0.0, 0.0, -515.6994480728446, 0.0]
['beep', 0.0, -733.7630669788202, 0.0, 0.0, 0.0, 0.0, -514.8053782946323, 0.0]
['beep', 0.0, -712.9312411464741, 0.0, 0.0, 0.0, 0.0, -503.45069211133625, 0.0]
['beep', 0.0, -710.3607905341138, 0.0, 0.0, 0.0, 0.0, -501.0143519657078, 0.0]
['beep', 0.0, -729.9185669325075, 0.0, 0.0, 0.0, 0.0, -508.74805554724406, 0.0]
['beep', 0.0, -744.737773506376, 0.0, 0.0, 0.0, 0.0, -516.2582416842272, 0.0]
['beep', 0.0, -733.3383838341695, 0.0, 0.0, 0.0, 0.0, -515.5206341172021, 0.0]
['beep', 0.0, -712.2159853239042, 0.0, 0.0, 0.0, 0.0, -505.7976252791435, 0.0]
['beep', 0.0, -710.4725492563903, 0.0, 0.0, 0.0, 0.0, -500.47791009878046, 0.0]
['beep', 0.0, -729.6279942545884, 0.0, 0.0, 0.0, 0.0, -508.4798346137804, 0.0]
['beep', 0.0, -743.7319450058872, 0.0, 0.0, 0.0, 0.0, -518.3369539185708, 0.0]
['beep', 0.0, -733.6513082565438, 0.0, 0.0, 0.0, 0.0, -515.0288957391854, 0.0]
['beep', 0.0, -711.031342867773, 0.0, 0.0, 0.0, 0.0, -504.81414852311, 0.0]
['beep', 0.0, -708.7067614444211, 0.0, 0.0, 0.0, 0.0, -501.48373859926926, 0.0]
['beep', 0.0, -728.6892209874655, 0.0, 0.0, 0.0, 0.0, -508.74805554724406, 0.0]
['beep', 0.0, -742.7931717387643, 0.0, 0.0, 0.0, 0.0, -518.8733957854981, 0.0]
['beep', 0.0, -731.483189044379, 0.0, 0.0, 0.0, 0.0, -515.297116672649, 0.0]
['beep', 0.0, -709.7572934338205, 0.0, 0.0, 0.0, 0.0, -501.9307734883754, 0.0]
['beep', 0.0, -707.2538980548261, 0.0, 0.0, 0.0, 0.0, -496.1416716744509, 0.0]
['beep', 0.0, -727.2810610867812, 0.0, 0.0, 0.0, 0.0, -503.89772700044244, 0.0]
['beep', 0.0, -741.2732531158034, 0.0, 0.0, 0.0, 0.0, -513.91130851642, 0.0]
['beep', 0.0, -730.7679332218091, 0.0, 0.0, 0.0, 0.0, -512.7266660602887, 0.0]
['beep', 0.0, -708.0138573663065, 0.0, 0.0, 0.0, 0.0, -500.76848277669944, 0.0]
['beep', 0.0, -704.1470055755384, 0.0, 0.0, 0.0, 0.0, -496.29813388563804, 0.0]
['beep', 0.0, -729.3150698322141, 0.0, 0.0, 0.0, 0.0, -507.16108169091723, 0.0]
['beep', 0.0, -748.5599218082335, 0.0, 0.0, 0.0, 0.0, -514.8947852724535, 0.0]
['beep', 0.0, -738.4122298255242, 0.0, 0.0, 0.0, 0.0, -512.8384247825652, 0.0]
['beep', 0.0, -715.2781743142813, 0.0, 0.0, 0.0, 0.0, -501.3719798769927, 0.0]
['beep', 0.0, -712.2606888128148, 0.0, 0.0, 0.0, 0.0, -496.1863751633615, 0.0]
['beep', 0.0, -731.8408169556639, 0.0, 0.0, 0.0, 0.0, -504.54592758964634, 0.0]
['beep', 0.0, -746.7494305073536, 0.0, 0.0, 0.0, 0.0, -514.9171370169088, 0.0]
['beep', 0.0, -735.2829856017811, 0.0, 0.0, 0.0, 0.0, -514.3583434055262, 0.0]
['beep', 0.0, -713.4676830134015, 0.0, 0.0, 0.0, 0.0, -505.4623491123139, 0.0]
['beep', 0.0, -711.836005668164, 0.0, 0.0, 0.0, 0.0, -499.2038606648279, 0.0]
['beep', 0.0, -731.9525756779403, 0.0, 0.0, 0.0, 0.0, -508.05515146912956, 0.0]
['beep', 0.0, -746.7494305073536, 0.0, 0.0, 0.0, 0.0, -519.2757271856937, 0.0]
['beep', 0.0, -735.640613513066, 0.0, 0.0, 0.0, 0.0, -518.0240294961965, 0.0]
['beep', 0.0, -713.7806074357758, 0.0, 0.0, 0.0, 0.0, -506.7587502907217, 0.0]
['beep', 0.0, -711.7689504347981, 0.0, 0.0, 0.0, 0.0, -501.10375894352904, 0.0]
['beep', 0.0, -730.8796919440856, 0.0, 0.0, 0.0, 0.0, -508.09985495804017, 0.0]
['beep', 0.0, -746.0788781736944, 0.0, 0.0, 0.0, 0.0, -517.9793260072859, 0.0]
['beep', 0.0, -735.1712268795046, 0.0, 0.0, 0.0, 0.0, -515.7217998172998, 0.0]
['beep', 0.0, -713.3782760355803, 0.0, 0.0, 0.0, 0.0, -505.93173574587536, 0.0]
['beep', 0.0, -709.7796451782758, 0.0, 0.0, 0.0, 0.0, -499.78500602066595, 0.0]
['beep', 0.0, -729.4938837878566, 0.0, 0.0, 0.0, 0.0, -507.5634130911128, 0.0]
['beep', 0.0, -743.8437037281637, 0.0, 0.0, 0.0, 0.0, -517.621698096001, 0.0]
['beep', 0.0, -733.3383838341695, 0.0, 0.0, 0.0, 0.0, -516.1911864508613, 0.0]
['beep', 0.0, -711.3666190346025, 0.0, 0.0, 0.0, 0.0, -506.19995667933904, 0.0]
['beep', 0.0, -710.4054940230244, 0.0, 0.0, 0.0, 0.0, -499.82970950957656, 0.0]
['beep', 0.0, -731.5949477666554, 0.0, 0.0, 0.0, 0.0, -507.8092822801212, 0.0]
['beep', 0.0, -747.1294101630939, 0.0, 0.0, 0.0, 0.0, -517.0852562290736, 0.0]
['beep', 0.0, -734.1653983790158, 0.0, 0.0, 0.0, 0.0, -515.5206341172021, 0.0]
['beep', 0.0, -712.1936335794489, 0.0, 0.0, 0.0, 0.0, -506.17760493488373, 0.0]
['beep', 0.0, -710.9419358899518, 0.0, 0.0, 0.0, 0.0, -500.0308752096743, 0.0]
['beep', 0.0, -731.483189044379, 0.0, 0.0, 0.0, 0.0, -508.09985495804017, 0.0]
['beep', 0.0, -746.4365060849793, 0.0, 0.0, 0.0, 0.0, -517.9793260072859, 0.0]
['beep', 0.0, -735.7970757242532, 0.0, 0.0, 0.0, 0.0, -517.264070184716, 0.0]
['beep', 0.0, -715.18876733646, 0.0, 0.0, 0.0, 0.0, -506.0881979570625, 0.0]
['beep', 0.0, -712.5736132351892, 0.0, 0.0, 0.0, 0.0, -500.14263393195085, 0.0]
['beep', 0.0, -732.0866861446722, 0.0, 0.0, 0.0, 0.0, -508.36807589150385, 0.0]
['beep', 0.0, -746.2800438737922, 0.0, 0.0, 0.0, 0.0, -518.6051748520345, 0.0]
['beep', 0.0, -735.6853170019766, 0.0, 0.0, 0.0, 0.0, -517.5993463515457, 0.0]
['beep', 0.0, -714.4958632583456, 0.0, 0.0, 0.0, 0.0, -505.3505903900374, 0.0]
['beep', 0.0, -711.8807091570746, 0.0, 0.0, 0.0, 0.0, -499.4497298538363, 0.0]
['beep', 0.0, -731.9302239334851, 0.0, 0.0, 0.0, 0.0, -506.9822677352748, 0.0]
['beep', 0.0, -747.0623549297279, 0.0, 0.0, 0.0, 0.0, -518.0910847295625, 0.0]
['beep', 0.0, -736.1323518910827, 0.0, 0.0, 0.0, 0.0, -516.9064422734311, 0.0]
['beep', 0.0, -715.8816714145746, 0.0, 0.0, 0.0, 0.0, -506.55758459062395, 0.0]
['beep', 0.0, -712.99829637984, 0.0, 0.0, 0.0, 0.0, -500.6343723099676, 0.0]
['beep', 0.0, -732.28785184477, 0.0, 0.0, 0.0, 0.0, -507.49635785774683, 0.0]
['beep', 0.0, -748.090535174672, 0.0, 0.0, 0.0, 0.0, -517.91227077392, 0.0]
['beep', 0.0, -738.7475059923537, 0.0, 0.0, 0.0, 0.0, -516.8840905289758, 0.0]
['beep', 0.0, -718.2956598157477, 0.0, 0.0, 0.0, 0.0, -506.1552531904284, 0.0]
['beep', 0.0, -714.5182150028008, 0.0, 0.0, 0.0, 0.0, -499.9191164873978, 0.0]
['beep', 0.0, -733.2489768563482, 0.0, 0.0, 0.0, 0.0, -508.2563171692273, 0.0]
['beep', 0.0, -749.3645846086246, 0.0, 0.0, 0.0, 0.0, -520.6391835974674, 0.0]
['beep', 0.0, -738.1663606365157, 0.0, 0.0, 0.0, 0.0, -518.7616370632217, 0.0]
['beep', 0.0, -715.7028574589322, 0.0, 0.0, 0.0, 0.0, -506.490529357258, 0.0]
['beep', 0.0, -713.8253109246864, 0.0, 0.0, 0.0, 0.0, -500.299096143138, 0.0]
['beep', 0.0, -734.3442123346582, 0.0, 0.0, 0.0, 0.0, -507.8316340245765, 0.0]
['beep', 0.0, -748.3811078525911, 0.0, 0.0, 0.0, 0.0, -518.2698986852049, 0.0]
['beep', 0.0, -737.741677491865, 0.0, 0.0, 0.0, 0.0, -517.9793260072859, 0.0]
['beep', 0.0, -716.9769068928847, 0.0, 0.0, 0.0, 0.0, -507.51870960220214, 0.0]
['beep', 0.0, -713.9594213914182, 0.0, 0.0, 0.0, 0.0, -503.60715432252346, 0.0]
['beep', 0.0, -734.0759914011945, 0.0, 0.0, 0.0, 0.0, -511.1620439484172, 0.0]
['beep', 0.0, -748.8951979750632, 0.0, 0.0, 0.0, 0.0, -519.9909830082635, 0.0]
['beep', 0.0, -738.9710234369068, 0.0, 0.0, 0.0, 0.0, -516.3700004065038, 0.0]
['beep', 0.0, -719.2791365717812, 0.0, 0.0, 0.0, 0.0, -506.89286075745355, 0.0]
['beep', 0.0, -714.384104536069, 0.0, 0.0, 0.0, 0.0, -501.9307734883754, 0.0]
['beep', 0.0, -732.7572384783315, 0.0, 0.0, 0.0, 0.0, -509.5750700920904, 0.0]
['beep', 0.0, -747.9117212190296, 0.0, 0.0, 0.0, 0.0, -519.9239277748976, 0.0]
['beep', 0.0, -737.8087327252308, 0.0, 0.0, 0.0, 0.0, -519.3204306746043, 0.0]
['beep', 0.0, -715.7475609478428, 0.0, 0.0, 0.0, 0.0, -508.8821660139759, 0.0]
['beep', 0.0, -712.9535928909294, 0.0, 0.0, 0.0, 0.0, -501.39433162144803, 0.0]
['beep', 0.0, -732.8913489450633, 0.0, 0.0, 0.0, 0.0, -507.18343343537254, 0.0]
['beep', 0.0, -747.1964653964598, 0.0, 0.0, 0.0, 0.0, -518.9404510188641, 0.0]
['beep', 0.0, -737.674622258499, 0.0, 0.0, 0.0, 0.0, -518.4710643853026, 0.0]
['beep', 0.0, -716.8651481706081, 0.0, 0.0, 0.0, 0.0, -508.2116136803167, 0.0]
['beep', 0.0, -713.7359039468652, 0.0, 0.0, 0.0, 0.0, -503.16011943341726, 0.0]
['beep', 0.0, -731.9525756779403, 0.0, 0.0, 0.0, 0.0, -509.99975323674124, 0.0]
['beep', 0.0, -748.0681834302168, 0.0, 0.0, 0.0, 0.0, -520.1250934749953, 0.0]
['beep', 0.0, -738.9263199479961, 0.0, 0.0, 0.0, 0.0, -519.588651608068, 0.0]
['beep', 0.0, -716.5075202593232, 0.0, 0.0, 0.0, 0.0, -508.2563171692273, 0.0]
['beep', 0.0, -713.5347382467673, 0.0, 0.0, 0.0, 0.0, -503.94243048935306, 0.0]
['beep', 0.0, -733.2489768563482, 0.0, 0.0, 0.0, 0.0, -510.1338637034731, 0.0]
['beep', 0.0, -747.509389818834, 0.0, 0.0, 0.0, 0.0, -520.683887086378, 0.0]
['beep', 0.0, -738.2334158698817, 0.0, 0.0, 0.0, 0.0, -519.1863202078724, 0.0]
['beep', 0.0, -715.2781743142813, 0.0, 0.0, 0.0, 0.0, -508.5692415916016, 0.0]
['beep', 0.0, -715.9263749034852, 0.0, 0.0, 0.0, 0.0, -502.3107531441156, 0.0]
['beep', 0.0, -735.6629652575214, 0.0, 0.0, 0.0, 0.0, -502.15429093292846, 0.0]
['beep', 0.0, -750.5268753203005, 0.0, 0.0, 0.0, 0.0, -509.30684915862673, 0.0]
['beep', 0.0, -742.9496339499515, 0.0, 0.0, 0.0, 0.0, -505.52940434567984, 0.0]
['beep', 0.0, -723.4365610404684, 0.0, 0.0, 0.0, 0.0, -493.3477036175375, 0.0]
['beep', 0.0, -721.804883695231, 0.0, 0.0, 0.0, 0.0, -486.105738414018, 0.0]
['beep', 0.0, -741.5414740492671, 0.0, 0.0, 0.0, 0.0, -491.02312219418553, 0.0]
['beep', 0.0, -755.6454248005658, 0.0, 0.0, 0.0, 0.0, -499.33797113155975, 0.0]
['beep', 0.0, -745.1401049065715, 0.0, 0.0, 0.0, 0.0, -496.4545960968252, 0.0]
['beep', 0.0, -724.2188720964041, 0.0, 0.0, 0.0, 0.0, -483.95997094630854, 0.0]
['beep', 0.0, -719.1226743605941, 0.0, 0.0, 0.0, 0.0, -478.39438657693705, 0.0]
['beep', 0.0, -737.9875466808733, 0.0, 0.0, 0.0, 0.0, -486.26220062520514, 0.0]
['beep', 0.0, -754.7290032778983, 0.0, 0.0, 0.0, 0.0, -499.78500602066595, 0.0]
['beep', 0.0, -745.0730496732057, 0.0, 0.0, 0.0, 0.0, -499.6508955539341, 0.0]
['beep', 0.0, -722.8777674290857, 0.0, 0.0, 0.0, 0.0, -488.69854077083363, 0.0]
['beep', 0.0, -718.8097499382199, 0.0, 0.0, 0.0, 0.0, -483.3788255904705, 0.0]
['beep', 0.0, -737.093476902661, 0.0, 0.0, 0.0, 0.0, -490.48668032725817, 0.0]
['beep', 0.0, -751.7338695208871, 0.0, 0.0, 0.0, 0.0, -499.0921019425514, 0.0]
['beep', 0.0, -742.5025990608453, 0.0, 0.0, 0.0, 0.0, -498.4886048422581, 0.0]
['beep', 0.0, -722.2072150954265, 0.0, 0.0, 0.0, 0.0, -487.849174481532, 0.0]
['beep', 0.0, -718.1839010934713, 0.0, 0.0, 0.0, 0.0, -481.52363080068005, 0.0]
['beep', 0.0, -737.6969740029543, 0.0, 0.0, 0.0, 0.0, -488.81029949311016, 0.0]
['beep', 0.0, -754.0584509442391, 0.0, 0.0, 0.0, 0.0, -499.6285438094788, 0.0]
['beep', 0.0, -743.8213519837084, 0.0, 0.0, 0.0, 0.0, -500.5673170766017, 0.0]
['beep', 0.0, -724.1071133741276, 0.0, 0.0, 0.0, 0.0, -489.6373140379565, 0.0]
['beep', 0.0, -720.8884621725634, 0.0, 0.0, 0.0, 0.0, -483.13295640146214, 0.0]
['beep', 0.0, -739.8874449595744, 0.0, 0.0, 0.0, 0.0, -491.1572326609174, 0.0]
['beep', 0.0, -756.4277358565016, 0.0, 0.0, 0.0, 0.0, -501.9307734883754, 0.0]
['beep', 0.0, -746.5035613183453, 0.0, 0.0, 0.0, 0.0, -499.82970950957656, 0.0]
['beep', 0.0, -722.9448226624517, 0.0, 0.0, 0.0, 0.0, -489.36909310449283, 0.0]
['beep', 0.0, -718.6532877270326, 0.0, 0.0, 0.0, 0.0, -483.6023430350236, 0.0]
['beep', 0.0, -737.5181600473119, 0.0, 0.0, 0.0, 0.0, -490.5984390495347, 0.0]
['beep', 0.0, -752.4938288323676, 0.0, 0.0, 0.0, 0.0, -501.10375894352904, 0.0]
['beep', 0.0, -742.1449711495604, 0.0, 0.0, 0.0, 0.0, -502.06488395510723, 0.0]
['beep', 0.0, -722.0731046286946, 0.0, 0.0, 0.0, 0.0, -490.8666599829984, 0.0]
['beep', 0.0, -717.0216103817953, 0.0, 0.0, 0.0, 0.0, -483.7588052462108, 0.0]
['beep', 0.0, -736.4899798023678, 0.0, 0.0, 0.0, 0.0, -491.9618954613085, 0.0]
['beep', 0.0, -752.4938288323676, 0.0, 0.0, 0.0, 0.0, -503.7636165337106, 0.0]
['beep', 0.0, -743.351965350147, 0.0, 0.0, 0.0, 0.0, -503.49539560024687, 0.0]
['beep', 0.0, -721.8942906730522, 0.0, 0.0, 0.0, 0.0, -492.3418751170487, 0.0]
['beep', 0.0, -712.350095790636, 0.0, 0.0, 0.0, 0.0, -486.7092355143113, 0.0]
['beep', 0.0, -728.6892209874655, 0.0, 0.0, 0.0, 0.0, -493.9512007178308, 0.0]
['beep', 0.0, -746.3694508516135, 0.0, 0.0, 0.0, 0.0, -504.8365002675653, 0.0]
['beep', 0.0, -738.9486716924515, 0.0, 0.0, 0.0, 0.0, -500.43320660986984, 0.0]
['beep', 0.0, -718.5191772603008, 0.0, 0.0, 0.0, 0.0, -488.49737507073587, 0.0]
['beep', 0.0, -714.7640841918093, 0.0, 0.0, 0.0, 0.0, -484.27289536868284, 0.0]
['beep', 0.0, -734.7912472237643, 0.0, 0.0, 0.0, 0.0, -491.91719197239786, 0.0]
['beep', 0.0, -750.929206720496, 0.0, 0.0, 0.0, 0.0, -501.3272763880821, 0.0]
['beep', 0.0, -744.6483665285548, 0.0, 0.0, 0.0, 0.0, -501.6178490660011, 0.0]
['beep', 0.0, -720.709648216921, 0.0, 0.0, 0.0, 0.0, -488.8773547264761, 0.0]
['beep', 0.0, -715.7252092033874, 0.0, 0.0, 0.0, 0.0, -479.08729065505156, 0.0]
['beep', 0.0, -736.8029042247421, 0.0, 0.0, 0.0, 0.0, -484.8316889800655, 0.0]
['beep', 0.0, -751.6444625430659, 0.0, 0.0, 0.0, 0.0, -494.6441047959453, 0.0]
['beep', 0.0, -743.3296136056916, 0.0, 0.0, 0.0, 0.0, -493.7276832732777, 0.0]
['beep', 0.0, -722.9895261513623, 0.0, 0.0, 0.0, 0.0, -483.51293605720235, 0.0]
['beep', 0.0, -720.0837993721723, 0.0, 0.0, 0.0, 0.0, -477.09798539852926, 0.0]
['beep', 0.0, -737.4511048139459, 0.0, 0.0, 0.0, 0.0, -485.34577910253756, 0.0]
['beep', 0.0, -753.9019887330519, 0.0, 0.0, 0.0, 0.0, -497.28161064167153, 0.0]
['beep', 0.0, -746.3694508516135, 0.0, 0.0, 0.0, 0.0, -497.2369071527609, 0.0]
['beep', 0.0, -724.6659069855103, 0.0, 0.0, 0.0, 0.0, -488.07269192608504, 0.0]
['beep', 0.0, -720.1955580944489, 0.0, 0.0, 0.0, 0.0, -481.3224651005823, 0.0]
['beep', 0.0, -739.4180583260129, 0.0, 0.0, 0.0, 0.0, -487.491546570247, 0.0]
['beep', 0.0, -753.3878986105799, 0.0, 0.0, 0.0, 0.0, -498.2203839087944, 0.0]
['beep', 0.0, -745.1401049065715, 0.0, 0.0, 0.0, 0.0, -498.64506705344525, 0.0]
['beep', 0.0, -723.995354651851, 0.0, 0.0, 0.0, 0.0, -488.8550029820208, 0.0]
['beep', 0.0, -719.2344330828706, 0.0, 0.0, 0.0, 0.0, -483.51293605720235, 0.0]
['beep', 0.0, -737.741677491865, 0.0, 0.0, 0.0, 0.0, -489.81612799359897, 0.0]
['beep', 0.0, -752.7173462769207, 0.0, 0.0, 0.0, 0.0, -500.45555835432515, 0.0]
['beep', 0.0, -743.7990002392531, 0.0, 0.0, 0.0, 0.0, -501.14846243243966, 0.0]
['beep', 0.0, -721.6707732284991, 0.0, 0.0, 0.0, 0.0, -490.03964543815204, 0.0]
['beep', 0.0, -717.8486249266416, 0.0, 0.0, 0.0, 0.0, -484.0493779241298, 0.0]
['beep', 0.0, -735.1488751350493, 0.0, 0.0, 0.0, 0.0, -490.1961076493392, 0.0]
['beep', 0.0, -749.0963636751609, 0.0, 0.0, 0.0, 0.0, -500.7014275433335, 0.0]
['beep', 0.0, -737.3169943472141, 0.0, 0.0, 0.0, 0.0, -501.3272763880821, 0.0]
['beep', 0.0, -715.255822569826, 0.0, 0.0, 0.0, 0.0, -488.2068023928169, 0.0]
['beep', 0.0, -708.9526306334294, 0.0, 0.0, 0.0, 0.0, -481.590686034046, 0.0]
['beep', 0.0, -728.5104070318231, 0.0, 0.0, 0.0, 0.0, -488.1844506483616, 0.0]
['beep', 0.0, -745.4977328178564, 0.0, 0.0, 0.0, 0.0, -499.78500602066595, 0.0]
['beep', 0.0, -737.6969740029543, 0.0, 0.0, 0.0, 0.0, -499.82970950957656, 0.0]
['beep', 0.0, -718.9438604049517, 0.0, 0.0, 0.0, 0.0, -489.6373140379565, 0.0]
['beep', 0.0, -716.5075202593232, 0.0, 0.0, 0.0, 0.0, -484.33995060204876, 0.0]
['beep', 0.0, -734.7688954793091, 0.0, 0.0, 0.0, 0.0, -493.19124140635034, 0.0]
['beep', 0.0, -750.7950962537642, 0.0, 0.0, 0.0, 0.0, -505.64116306795637, 0.0]
['beep', 0.0, -742.8825787165855, 0.0, 0.0, 0.0, 0.0, -504.3894653784592, 0.0]
['beep', 0.0, -722.0507528842394, 0.0, 0.0, 0.0, 0.0, -491.6713227833895, 0.0]
['beep', 0.0, -717.0439621262506, 0.0, 0.0, 0.0, 0.0, -483.2447151237387, 0.0]
['beep', 0.0, -734.5230262903007, 0.0, 0.0, 0.0, 0.0, -491.9842472057638, 0.0]
['beep', 0.0, -750.8397997426748, 0.0, 0.0, 0.0, 0.0, -502.8695467554983, 0.0]
['beep', 0.0, -741.4520670714459, 0.0, 0.0, 0.0, 0.0, -502.556622333124, 0.0]
['beep', 0.0, -720.0837993721723, 0.0, 0.0, 0.0, 0.0, -492.7218547727889, 0.0]
['beep', 0.0, -716.5745754926892, 0.0, 0.0, 0.0, 0.0, -485.94927620283084, 0.0]
['beep', 0.0, -734.7241919903985, 0.0, 0.0, 0.0, 0.0, -493.6829797843671, 0.0]
['beep', 0.0, -749.9457299644625, 0.0, 0.0, 0.0, 0.0, -506.8034537796323, 0.0]
['beep', 0.0, -741.2061978824376, 0.0, 0.0, 0.0, 0.0, -507.27284041319376, 0.0]
['beep', 0.0, -719.837930183164, 0.0, 0.0, 0.0, 0.0, -495.3593606185151, 0.0]
['beep', 0.0, -715.4122847810131, 0.0, 0.0, 0.0, 0.0, -488.38561634845934, 0.0]
['beep', 0.0, -733.3160320897141, 0.0, 0.0, 0.0, 0.0, -493.90649722892016, 0.0]
['beep', 0.0, -748.8281427416972, 0.0, 0.0, 0.0, 0.0, -504.30005840063797, 0.0]
['beep', 0.0, -739.1051339036386, 0.0, 0.0, 0.0, 0.0, -505.1717764343949, 0.0]
['beep', 0.0, -718.5415290047562, 0.0, 0.0, 0.0, 0.0, -493.59357280654586, 0.0]
['beep', 0.0, -713.5123865023121, 0.0, 0.0, 0.0, 0.0, -487.6480087814342, 0.0]
['beep', 0.0, -729.158607621027, 0.0, 0.0, 0.0, 0.0, -495.426415851881, 0.0]
['beep', 0.0, -747.4870380743788, 0.0, 0.0, 0.0, 0.0, -505.1717764343949, 0.0]
['beep', 0.0, -741.4967705603565, 0.0, 0.0, 0.0, 0.0, -505.50705260122453, 0.0]
['beep', 0.0, -714.1605870915159, 0.0, 0.0, 0.0, 0.0, -494.55469781812405, 0.0]
['beep', 0.0, -693.7310926593653, 0.0, 0.0, 0.0, 0.0, -484.8316889800655, 0.0]
['beep', 0.0, -706.3374765321585, 0.0, 0.0, 0.0, 0.0, -487.200973892328, 0.0]
['beep', 0.0, -732.7348867338761, 0.0, 0.0, 0.0, 0.0, -498.5333083311687, 0.0]
['beep', 0.0, -737.4064013250353, 0.0, 0.0, 0.0, 0.0, -496.8122240081101, 0.0]
['beep', 0.0, -724.5094447743231, 0.0, 0.0, 0.0, 0.0, -483.7811569906661, 0.0]
['beep', 0.0, -723.5036162738343, 0.0, 0.0, 0.0, 0.0, -476.9415231873421, 0.0]
['beep', 0.0, -745.1624566510269, 0.0, 0.0, 0.0, 0.0, -483.93761920185324, 0.0]
['beep', 0.0, -765.1225644496161, 0.0, 0.0, 0.0, 0.0, -494.3088286291157, 0.0]
['beep', 0.0, -758.5511515797558, 0.0, 0.0, 0.0, 0.0, -497.4827763417693, 0.0]
['beep', 0.0, -737.8087327252308, 0.0, 0.0, 0.0, 0.0, -488.8773547264761, 0.0]
['beep', 0.0, -734.0089361678287, 0.0, 0.0, 0.0, 0.0, -484.4740610687806, 0.0]
['beep', 0.0, -751.7785730097977, 0.0, 0.0, 0.0, 0.0, -491.7383780167554, 0.0]
['beep', 0.0, -768.1400499510825, 0.0, 0.0, 0.0, 0.0, -503.0260089666854, 0.0]
['beep', 0.0, -758.7076137909429, 0.0, 0.0, 0.0, 0.0, -505.104721201029, 0.0]
['beep', 0.0, -734.9477094349515, 0.0, 0.0, 0.0, 0.0, -495.8958024854425, 0.0]
['beep', 0.0, -726.610508753122, 0.0, 0.0, 0.0, 0.0, -490.1961076493392, 0.0]
['beep', 0.0, -743.2178548834152, 0.0, 0.0, 0.0, 0.0, -495.94050597435313, 0.0]
['beep', 0.0, -758.1488201795603, 0.0, 0.0, 0.0, 0.0, -505.55175609013514, 0.0]
['beep', 0.0, -748.2022938969486, 0.0, 0.0, 0.0, 0.0, -505.52940434567984, 0.0]
['beep', 0.0, -726.3869913085689, 0.0, 0.0, 0.0, 0.0, -495.18054666287264, 0.0]
['beep', 0.0, -719.9273371609852, 0.0, 0.0, 0.0, 0.0, -487.78211924816605, 0.0]
['beep', 0.0, -738.0993054031499, 0.0, 0.0, 0.0, 0.0, -491.35839836101513, 0.0]
['beep', 0.0, -757.2100469124374, 0.0, 0.0, 0.0, 0.0, -501.5954973215458, 0.0]
['beep', 0.0, -748.7610875083313, 0.0, 0.0, 0.0, 0.0, -501.9978287217413, 0.0]
['beep', 0.0, -726.2975843307477, 0.0, 0.0, 0.0, 0.0, -491.60426755002356, 0.0]
['beep', 0.0, -720.6202412390998, 0.0, 0.0, 0.0, 0.0, -485.03285468016327, 0.0]
['beep', 0.0, -738.8145612257197, 0.0, 0.0, 0.0, 0.0, -493.6829797843671, 0.0]
['beep', 0.0, -759.512276591334, 0.0, 0.0, 0.0, 0.0, -504.30005840063797, 0.0]
['beep', 0.0, -756.8971224900631, 0.0, 0.0, 0.0, 0.0, -503.94243048935306, 0.0]
['beep', 0.0, -726.4763982863901, 0.0, 0.0, 0.0, 0.0, -495.1134914295067, 0.0]
['beep', 0.0, -711.7242469458874, 0.0, 0.0, 0.0, 0.0, -497.1251484304844, 0.0]
['beep', 0.0, -721.6037179951333, 0.0, 0.0, 0.0, 0.0, -511.40791313742557, 0.0]
['beep', 0.0, -736.221758868904, 0.0, 0.0, 0.0, 0.0, -526.5400441336685, 0.0]
['beep', 0.0, -725.7164389749097, 0.0, 0.0, 0.0, 0.0, -531.0550965136405, 0.0]
['beep', 0.0, -696.8603368831083, 0.0, 0.0, 0.0, 0.0, -526.8529685560428, 0.0]
['beep', 0.0, -685.1703745329827, 0.0, 0.0, 0.0, 0.0, -525.6906778443669, 0.0]
['beep', 0.0, -697.8661653835971, 0.0, 0.0, 0.0, 0.0, -539.9957942957633, 0.0]
['beep', 0.0, -711.7242469458874, 0.0, 0.0, 0.0, 0.0, -560.2464747722715, 0.0]
['beep', 0.0, -700.5036712293233, 0.0, 0.0, 0.0, 0.0, -569.7906696546877, 0.0]
['beep', 0.0, -676.9449325734297, 0.0, 0.0, 0.0, 0.0, -566.7731841532212, 0.0]
['beep', 0.0, -666.0149295347845, 0.0, 0.0, 0.0, 0.0, -566.4826114753022, 0.0]
['beep', 0.0, -676.5649529176894, 0.0, 0.0, 0.0, 0.0, -580.1842308264054, 0.0]
['beep', 0.0, -688.5678396901893, 0.0, 0.0, 0.0, 0.0, -596.8139287011538, 0.0]
['beep', 0.0, -677.0566912957063, 0.0, 0.0, 0.0, 0.0, -601.5301467812237, 0.0]
['beep', 0.0, -650.7933915607205, 0.0, 0.0, 0.0, 0.0, -595.9198589229416, 0.0]
['beep', 0.0, -645.4066211469915, 0.0, 0.0, 0.0, 0.0, -595.2493065892824, 0.0]
['beep', 0.0, -662.2151329773824, 0.0, 0.0, 0.0, 0.0, -606.1569578834723, 0.0]
['beep', 0.0, -677.839002351642, 0.0, 0.0, 0.0, 0.0, -621.8478824910978, 0.0]
['beep', 0.0, -669.8594295810974, 0.0, 0.0, 0.0, 0.0, -627.5252255827457, 0.0]
['beep', 0.0, -645.6077868470892, 0.0, 0.0, 0.0, 0.0, -622.5854900581229, 0.0]
['beep', 0.0, -637.9634902433742, 0.0, 0.0, 0.0, 0.0, -618.2045481448828, 0.0]
['beep', 0.0, -655.4872578963349, 0.0, 0.0, 0.0, 0.0, -627.6593360494776, 0.0]
['beep', 0.0, -670.5746854036672, 0.0, 0.0, 0.0, 0.0, -642.903225767997, 0.0]
['beep', 0.0, -662.2821882107482, 0.0, 0.0, 0.0, 0.0, -648.6699758374663, 0.0]
['beep', 0.0, -640.355126900092, 0.0, 0.0, 0.0, 0.0, -640.5339408557345, 0.0]
['beep', 0.0, -632.2414436628155, 0.0, 0.0, 0.0, 0.0, -633.0461064632067, 0.0]
['beep', 0.0, -648.8934932820193, 0.0, 0.0, 0.0, 0.0, -638.6340425770334, 0.0]
['beep', 0.0, -666.8419440796309, 0.0, 0.0, 0.0, 0.0, -650.324004927159, 0.0]
['beep', 0.0, -660.9857870323405, 0.0, 0.0, 0.0, 0.0, -653.3191386841702, 0.0]
['beep', 0.0, -639.550464099701, 0.0, 0.0, 0.0, 0.0, -642.098562967606, 0.0]
['beep', 0.0, -634.4989698528016, 0.0, 0.0, 0.0, 0.0, -632.9343477409301, 0.0]
['beep', 0.0, -649.809914804687, 0.0, 0.0, 0.0, 0.0, -640.645699578011, 0.0]
['beep', 0.0, -666.6407783795331, 0.0, 0.0, 0.0, 0.0, -650.6369293495333, 0.0]
['beep', 0.0, -662.9527405444074, 0.0, 0.0, 0.0, 0.0, -648.6252723485557, 0.0]
['beep', 0.0, -642.322080412159, 0.0, 0.0, 0.0, 0.0, -642.1879699454272, 0.0]
['beep', 0.0, -634.0519349636954, 0.0, 0.0, 0.0, 0.0, -634.5883768306228, 0.0]
['beep', 0.0, -653.3638421730808, 0.0, 0.0, 0.0, 0.0, -635.0130599752737, 0.0]
['beep', 0.0, -671.9828453043515, 0.0, 0.0, 0.0, 0.0, -645.3172141691703, 0.0]
['beep', 0.0, -664.9643975453852, 0.0, 0.0, 0.0, 0.0, -646.0548217361953, 0.0]
['beep', 0.0, -644.4231443909579, 0.0, 0.0, 0.0, 0.0, -634.2083971748826, 0.0]
['beep', 0.0, -637.4941036098128, 0.0, 0.0, 0.0, 0.0, -625.8935482375084, 0.0]
['beep', 0.0, -655.3978509185137, 0.0, 0.0, 0.0, 0.0, -632.420257618458, 0.0]
['beep', 0.0, -673.5474674162231, 0.0, 0.0, 0.0, 0.0, -643.9984612463071, 0.0]
['beep', 0.0, -666.3725574460694, 0.0, 0.0, 0.0, 0.0, -645.9654147583741, 0.0]
['beep', 0.0, -645.4513246359021, 0.0, 0.0, 0.0, 0.0, -633.6272518190447, 0.0]
['beep', 0.0, -640.6233478335557, 0.0, 0.0, 0.0, 0.0, -624.261870892271, 0.0]
['beep', 0.0, -657.7447840863209, 0.0, 0.0, 0.0, 0.0, -629.9839174728296, 0.0]
['beep', 0.0, -675.000330805818, 0.0, 0.0, 0.0, 0.0, -641.0256792337512, 0.0]
['beep', 0.0, -667.9595313023963, 0.0, 0.0, 0.0, 0.0, -642.8138187901758, 0.0]
['beep', 0.0, -648.0664787371729, 0.0, 0.0, 0.0, 0.0, -634.5883768306228, 0.0]
['beep', 0.0, -641.2715484227597, 0.0, 0.0, 0.0, 0.0, -625.7370860263212, 0.0]
['beep', 0.0, -658.3259294421589, 0.0, 0.0, 0.0, 0.0, -629.4698273503575, 0.0]
['beep', 0.0, -675.223848250371, 0.0, 0.0, 0.0, 0.0, -640.4445338779133, 0.0]
['beep', 0.0, -670.41822319248, 0.0, 0.0, 0.0, 0.0, -641.9868042453295, 0.0]
['beep', 0.0, -649.0499554932065, 0.0, 0.0, 0.0, 0.0, -632.4649611073686, 0.0]
['beep', 0.0, -642.3444321566144, 0.0, 0.0, 0.0, 0.0, -626.3629348710698, 0.0]
['beep', 0.0, -658.1247637420612, 0.0, 0.0, 0.0, 0.0, -631.0791529511396, 0.0]
['beep', 0.0, -675.4250139504688, 0.0, 0.0, 0.0, 0.0, -640.355126900092, 0.0]
['beep', 0.0, -670.5299819147566, 0.0, 0.0, 0.0, 0.0, -641.2715484227597, 0.0]
['beep', 0.0, -650.8604467940863, 0.0, 0.0, 0.0, 0.0, -634.0072314747848, 0.0]
['beep', 0.0, -644.3337374131366, 0.0, 0.0, 0.0, 0.0, -625.0441819482068, 0.0]
['beep', 0.0, -660.7175660988768, 0.0, 0.0, 0.0, 0.0, -628.9333854834301, 0.0]
['beep', 0.0, -677.2131535068934, 0.0, 0.0, 0.0, 0.0, -639.5281123552456, 0.0]
['beep', 0.0, -672.0499005377175, 0.0, 0.0, 0.0, 0.0, -640.3998303890027, 0.0]
['beep', 0.0, -651.9556822723964, 0.0, 0.0, 0.0, 0.0, -631.1238564400502, 0.0]
['beep', 0.0, -643.9761095018517, 0.0, 0.0, 0.0, 0.0, -624.5300918257346, 0.0]
['beep', 0.0, -660.6058073766002, 0.0, 0.0, 0.0, 0.0, -627.324059882648, 0.0]
['beep', 0.0, -677.5931331626336, 0.0, 0.0, 0.0, 0.0, -637.4046966319916, 0.0]
['beep', 0.0, -672.7651563602873, 0.0, 0.0, 0.0, 0.0, -638.4105251324803, 0.0]
['beep', 0.0, -652.4921241393238, 0.0, 0.0, 0.0, 0.0, -627.5028738382905, 0.0]
['beep', 0.0, -645.5630833581786, 0.0, 0.0, 0.0, 0.0, -618.875100478542, 0.0]
['beep', 0.0, -663.7797550892539, 0.0, 0.0, 0.0, 0.0, -627.905205238486, 0.0]
['beep', 0.0, -679.9177145859856, 0.0, 0.0, 0.0, 0.0, -638.2093594323826, 0.0]
['beep', 0.0, -674.2627232387929, 0.0, 0.0, 0.0, 0.0, -637.1364756985279, 0.0]
['beep', 0.0, -654.1014497401059, 0.0, 0.0, 0.0, 0.0, -626.1170656820615, 0.0]
['beep', 0.0, -646.7924293032205, 0.0, 0.0, 0.0, 0.0, -619.389190601014, 0.0]
['beep', 0.0, -662.3268916996589, 0.0, 0.0, 0.0, 0.0, -625.4465133484023, 0.0]
['beep', 0.0, -680.3423977306363, 0.0, 0.0, 0.0, 0.0, -637.1364756985279, 0.0]
['beep', 0.0, -675.1567930170052, 0.0, 0.0, 0.0, 0.0, -638.1199524545614, 0.0]
['beep', 0.0, -654.8614090515863, 0.0, 0.0, 0.0, 0.0, -627.5028738382905, 0.0]
['beep', 0.0, -647.8653130370752, 0.0, 0.0, 0.0, 0.0, -621.2443853908045, 0.0]
['beep', 0.0, -661.9245602994633, 0.0, 0.0, 0.0, 0.0, -627.4358186049245, 0.0]
['beep', 0.0, -679.51538318579, 0.0, 0.0, 0.0, 0.0, -636.0188884757624, 0.0]
['beep', 0.0, -674.5979994056224, 0.0, 0.0, 0.0, 0.0, -637.6058623320893, 0.0]
['beep', 0.0, -654.3920224180249, 0.0, 0.0, 0.0, 0.0, -628.5757575721452, 0.0]
['beep', 0.0, -646.904188025497, 0.0, 0.0, 0.0, 0.0, -620.0150394457626, 0.0]
['beep', 0.0, -661.4998771548126, 0.0, 0.0, 0.0, 0.0, -626.1170656820615, 0.0]
['beep', 0.0, -680.2306390083598, 0.0, 0.0, 0.0, 0.0, -639.4163536329692, 0.0]
['beep', 0.0, -675.9838075618514, 0.0, 0.0, 0.0, 0.0, -642.8808740235418, 0.0]
['beep', 0.0, -651.4862956388349, 0.0, 0.0, 0.0, 0.0, -636.5553303426898, 0.0]
['beep', 0.0, -643.2832054237373, 0.0, 0.0, 0.0, 0.0, -634.8118942751759, 0.0]
['beep', 0.0, -663.064499266684, 0.0, 0.0, 0.0, 0.0, -645.7642490582764, 0.0]
['beep', 0.0, -681.6611506534995, 0.0, 0.0, 0.0, 0.0, -660.1364207430388, 0.0]
['beep', 0.0, -672.675749382466, 0.0, 0.0, 0.0, 0.0, -665.2773219677595, 0.0]
['beep', 0.0, -649.6981560824104, 0.0, 0.0, 0.0, 0.0, -657.8788945530528, 0.0]
['beep', 0.0, -642.2550251787932, 0.0, 0.0, 0.0, 0.0, -652.4697723948684, 0.0]
['beep', 0.0, -659.1752957314606, 0.0, 0.0, 0.0, 0.0, -660.0246620207622, 0.0]
['beep', 0.0, -677.1237465290722, 0.0, 0.0, 0.0, 0.0, -671.7146243708878, 0.0]
['beep', 0.0, -670.6864441259437, 0.0, 0.0, 0.0, 0.0, -672.6533976380107, 0.0]
['beep', 0.0, -651.0169090052735, 0.0, 0.0, 0.0, 0.0, -662.2151329773824, 0.0]
['beep', 0.0, -643.5961298461116, 0.0, 0.0, 0.0, 0.0, -654.615539862578, 0.0]
['beep', 0.0, -658.5047433978013, 0.0, 0.0, 0.0, 0.0, -658.9294265424522, 0.0]
['beep', 0.0, -674.6650546389884, 0.0, 0.0, 0.0, 0.0, -667.2889789687371, 0.0]
['beep', 0.0, -669.1888772474382, 0.0, 0.0, 0.0, 0.0, -668.8536010806085, 0.0]
['beep', 0.0, -650.1451909715165, 0.0, 0.0, 0.0, 0.0, -661.8575050660975, 0.0]
['beep', 0.0, -642.8585222790864, 0.0, 0.0, 0.0, 0.0, -654.9955195183181, 0.0]
['beep', 0.0, -657.968301530874, 0.0, 0.0, 0.0, 0.0, -658.5941503756226, 0.0]
['beep', 0.0, -675.6485313950219, 0.0, 0.0, 0.0, 0.0, -668.1383452580387, 0.0]
['beep', 0.0, -671.580513904156, 0.0, 0.0, 0.0, 0.0, -668.8983045695192, 0.0]
['beep', 0.0, -651.3968886610137, 0.0, 0.0, 0.0, 0.0, -659.7340893428433, 0.0]
['beep', 0.0, -643.8867025240305, 0.0, 0.0, 0.0, 0.0, -652.2239032058601, 0.0]
['beep', 0.0, -658.8847230535416, 0.0, 0.0, 0.0, 0.0, -657.4989148973126, 0.0]
['beep', 0.0, -676.4978976843236, 0.0, 0.0, 0.0, 0.0, -669.0100632917957, 0.0]
['beep', 0.0, -671.0217202927734, 0.0, 0.0, 0.0, 0.0, -671.289941226237, 0.0]
['beep', 0.0, -651.419240405469, 0.0, 0.0, 0.0, 0.0, -663.1986097334159, 0.0]
['beep', 0.0, -644.1996269464048, 0.0, 0.0, 0.0, 0.0, -655.1519817295053, 0.0]
['beep', 0.0, -659.1529439870053, 0.0, 0.0, 0.0, 0.0, -658.3259294421589, 0.0]
['beep', 0.0, -676.8331738511532, 0.0, 0.0, 0.0, 0.0, -669.5241534142677, 0.0]
['beep', 0.0, -671.3122929706923, 0.0, 0.0, 0.0, 0.0, -672.0051970488068, 0.0]
['beep', 0.0, -651.5757026166561, 0.0, 0.0, 0.0, 0.0, -661.9469120439187, 0.0]
['beep', 0.0, -642.3667839010697, 0.0, 0.0, 0.0, 0.0, -653.3191386841702, 0.0]
['beep', 0.0, -657.0742317526617, 0.0, 0.0, 0.0, 0.0, -657.7000805974103, 0.0]
['beep', 0.0, -672.4745836823682, 0.0, 0.0, 0.0, 0.0, -667.4230894354689, 0.0]
['beep', 0.0, -666.5513714017119, 0.0, 0.0, 0.0, 0.0, -669.8817813255527, 0.0]
['beep', 0.0, -647.4406298924243, 0.0, 0.0, 0.0, 0.0, -660.9187317989746, 0.0]
['beep', 0.0, -641.0703827226619, 0.0, 0.0, 0.0, 0.0, -653.1403247285277, 0.0]
['beep', 0.0, -659.4435166649242, 0.0, 0.0, 0.0, 0.0, -655.2637404517818, 0.0]
['beep', 0.0, -676.9672843178851, 0.0, 0.0, 0.0, 0.0, -665.6349498790444, 0.0]
['beep', 0.0, -672.4075284490024, 0.0, 0.0, 0.0, 0.0, -668.6300836360555, 0.0]
['beep', 0.0, -651.195722960916, 0.0, 0.0, 0.0, 0.0, -660.3152346986813, 0.0]
['beep', 0.0, -644.8031240466981, 0.0, 0.0, 0.0, 0.0, -653.4756008953573, 0.0]
['beep', 0.0, -659.0188335202735, 0.0, 0.0, 0.0, 0.0, -658.6612056089886, 0.0]
['beep', 0.0, -676.8108221066979, 0.0, 0.0, 0.0, 0.0, -669.4794499253571, 0.0]
['beep', 0.0, -671.3569964596029, 0.0, 0.0, 0.0, 0.0, -672.452231937913, 0.0]
['beep', 0.0, -650.4357636494356, 0.0, 0.0, 0.0, 0.0, -662.8856853110416, 0.0]
['beep', 0.0, -642.4338391344356, 0.0, 0.0, 0.0, 0.0, -654.1461532290165, 0.0]
['beep', 0.0, -658.1694672309718, 0.0, 0.0, 0.0, 0.0, -658.2812259532483, 0.0]
['beep', 0.0, -675.2685517392816, 0.0, 0.0, 0.0, 0.0, -668.9653598028851, 0.0]
['beep', 0.0, -670.3735197035694, 0.0, 0.0, 0.0, 0.0, -671.3569964596029, 0.0]
['beep', 0.0, -650.3687084160696, 0.0, 0.0, 0.0, 0.0, -661.7457463438209, 0.0]
['beep', 0.0, -643.3279089126479, 0.0, 0.0, 0.0, 0.0, -652.4250689059578, 0.0]
['beep', 0.0, -658.4600399088907, 0.0, 0.0, 0.0, 0.0, -656.1131067410835, 0.0]
['beep', 0.0, -675.5144209282901, 0.0, 0.0, 0.0, 0.0, -667.6913103689326, 0.0]
['beep', 0.0, -669.9711883033739, 0.0, 0.0, 0.0, 0.0, -671.222885992871, 0.0]
['beep', 0.0, -651.195722960916, 0.0, 0.0, 0.0, 0.0, -662.192781232927, 0.0]
['beep', 0.0, -642.4785426233462, 0.0, 0.0, 0.0, 0.0, -651.6874613389327, 0.0]
['beep', 0.0, -658.2141707198824, 0.0, 0.0, 0.0, 0.0, -655.5990166186115, 0.0]
['beep', 0.0, -677.0566912957063, 0.0, 0.0, 0.0, 0.0, -667.3560342021029, 0.0]
['beep', 0.0, -672.4298801934576, 0.0, 0.0, 0.0, 0.0, -669.5912086476337, 0.0]
['beep', 0.0, -652.7156415838768, 0.0, 0.0, 0.0, 0.0, -659.9129032984857, 0.0]
['beep', 0.0, -644.1102199685836, 0.0, 0.0, 0.0, 0.0, -653.4979526398126, 0.0]
['beep', 0.0, -659.354109687103, 0.0, 0.0, 0.0, 0.0, -657.9906532753294, 0.0]
['beep', 0.0, -677.4590226959018, 0.0, 0.0, 0.0, 0.0, -669.1665255029828, 0.0]
['beep', 0.0, -673.3015982272146, 0.0, 0.0, 0.0, 0.0, -671.6252173930666, 0.0]
['beep', 0.0, -652.0674409946729, 0.0, 0.0, 0.0, 0.0, -662.0586707661952, 0.0]
['beep', 0.0, -643.3279089126479, 0.0, 0.0, 0.0, 0.0, -654.3026154402037, 0.0]
['beep', 0.0, -658.4823916533461, 0.0, 0.0, 0.0, 0.0, -658.7282608423544, 0.0]
['beep', 0.0, -676.676711639966, 0.0, 0.0, 0.0, 0.0, -670.0158917922845, 0.0]
['beep', 0.0, -672.9439703159297, 0.0, 0.0, 0.0, 0.0, -671.9157900709856, 0.0]
['beep', 0.0, -652.3803654170472, 0.0, 0.0, 0.0, 0.0, -661.7680980882762, 0.0]
['beep', 0.0, -643.7078885683881, 0.0, 0.0, 0.0, 0.0, -654.548484629212, 0.0]
['beep', 0.0, -657.7224323418657, 0.0, 0.0, 0.0, 0.0, -659.0188335202735, 0.0]
['beep', 0.0, -675.7379383728431, 0.0, 0.0, 0.0, 0.0, -670.1276505145611, 0.0]
['beep', 0.0, -671.7816796042538, 0.0, 0.0, 0.0, 0.0, -672.2510662378152, 0.0]
['beep', 0.0, -652.3580136725919, 0.0, 0.0, 0.0, 0.0, -663.2209614778711, 0.0]
['beep', 0.0, -643.7302403128434, 0.0, 0.0, 0.0, 0.0, -655.3978509185137, 0.0]
['beep', 0.0, -658.0130050197846, 0.0, 0.0, 0.0, 0.0, -660.4046416765025, 0.0]
['beep', 0.0, -676.2967319842257, 0.0, 0.0, 0.0, 0.0, -670.9323133149521, 0.0]
['beep', 0.0, -674.486240683346, 0.0, 0.0, 0.0, 0.0, -672.8769150825639, 0.0]
['beep', 0.0, -653.2744351952596, 0.0, 0.0, 0.0, 0.0, -662.8856853110416, 0.0]
['beep', 0.0, -644.2443304353154, 0.0, 0.0, 0.0, 0.0, -655.2860921962372, 0.0]
['beep', 0.0, -659.8905515540304, 0.0, 0.0, 0.0, 0.0, -660.4716969098683, 0.0]
['beep', 0.0, -677.7942988627314, 0.0, 0.0, 0.0, 0.0, -672.6981011269213, 0.0]
['beep', 0.0, -674.3521302166141, 0.0, 0.0, 0.0, 0.0, -676.0508627952174, 0.0]
['beep', 0.0, -654.3920224180249, 0.0, 0.0, 0.0, 0.0, -666.3278539571588, 0.0]
['beep', 0.0, -644.2219786908602, 0.0, 0.0, 0.0, 0.0, -658.9070747979969, 0.0]
['beep', 0.0, -658.8847230535416, 0.0, 0.0, 0.0, 0.0, -663.645644622522, 0.0]
['beep', 0.0, -675.2014965059158, 0.0, 0.0, 0.0, 0.0, -674.8662203390861, 0.0]
['beep', 0.0, -672.0499005377175, 0.0, 0.0, 0.0, 0.0, -677.3696157180806, 0.0]
['beep', 0.0, -651.0169090052735, 0.0, 0.0, 0.0, 0.0, -668.3395109581364, 0.0]
['beep', 0.0, -640.5339408557345, 0.0, 0.0, 0.0, 0.0, -659.2647027092818, 0.0]
['beep', 0.0, -654.1461532290165, 0.0, 0.0, 0.0, 0.0, -661.8575050660975, 0.0]
['beep', 0.0, -670.7982028482203, 0.0, 0.0, 0.0, 0.0, -671.804031348709, 0.0]
['beep', 0.0, -667.1101650130946, 0.0, 0.0, 0.0, 0.0, -674.0168540497845, 0.0]
['beep', 0.0, -646.5465601142121, 0.0, 0.0, 0.0, 0.0, -664.5844178896449, 0.0]
['beep', 0.0, -639.1928361884161, 0.0, 0.0, 0.0, 0.0, -657.163638730483, 0.0]
['beep', 0.0, -654.8167055626757, 0.0, 0.0, 0.0, 0.0, -662.5727608886673, 0.0]
['beep', 0.0, -672.9886738048403, 0.0, 0.0, 0.0, 0.0, -673.5251156717677, 0.0]
['beep', 0.0, -670.0605952811951, 0.0, 0.0, 0.0, 0.0, -676.8555255956085, 0.0]
['beep', 0.0, -649.5640456156785, 0.0, 0.0, 0.0, 0.0, -666.9313510574522, 0.0]
['beep', 0.0, -640.8245135336534, 0.0, 0.0, 0.0, 0.0, -657.3424526861254, 0.0]
['beep', 0.0, -656.6271968635556, 0.0, 0.0, 0.0, 0.0, -661.3210631991701, 0.0]
['beep', 0.0, -674.8885720835415, 0.0, 0.0, 0.0, 0.0, -671.9828453043515, 0.0]
['beep', 0.0, -670.5076301703012, 0.0, 0.0, 0.0, 0.0, -675.3132552281922, 0.0]
['beep', 0.0, -650.7710398162651, 0.0, 0.0, 0.0, 0.0, -665.9702260458739, 0.0]
['beep', 0.0, -641.8750455230529, 0.0, 0.0, 0.0, 0.0, -656.4930863968237, 0.0]
['beep', 0.0, -655.7778305742539, 0.0, 0.0, 0.0, 0.0, -659.8681998095751, 0.0]
['beep', 0.0, -673.9945023053292, 0.0, 0.0, 0.0, 0.0, -671.1334790150498, 0.0]
['beep', 0.0, -671.3793482040583, 0.0, 0.0, 0.0, 0.0, -673.5027639273125, 0.0]
['beep', 0.0, -651.9109787834858, 0.0, 0.0, 0.0, 0.0, -664.2044382339046, 0.0]
['beep', 0.0, -642.7467635568099, 0.0, 0.0, 0.0, 0.0, -656.2248654633601, 0.0]
['beep', 0.0, -657.5659701306785, 0.0, 0.0, 0.0, 0.0, -660.1364207430388, 0.0]
['beep', 0.0, -674.3968337055247, 0.0, 0.0, 0.0, 0.0, -671.1111272705946, 0.0]
['beep', 0.0, -670.7087958703991, 0.0, 0.0, 0.0, 0.0, -674.0392057942398, 0.0]
['beep', 0.0, -651.12866772755, 0.0, 0.0, 0.0, 0.0, -664.6067696341001, 0.0]
['beep', 0.0, -642.4114873899803, 0.0, 0.0, 0.0, 0.0, -656.4707346523684, 0.0]
['beep', 0.0, -656.001348018807, 0.0, 0.0, 0.0, 0.0, -660.0246620207622, 0.0]
['beep', 0.0, -675.1791447614604, 0.0, 0.0, 0.0, 0.0, -670.7758511037649, 0.0]
['beep', 0.0, -671.8263830931644, 0.0, 0.0, 0.0, 0.0, -673.5474674162231, 0.0]
['beep', 0.0, -652.0897927391283, 0.0, 0.0, 0.0, 0.0, -665.098508012117, 0.0]
['beep', 0.0, -642.3667839010697, 0.0, 0.0, 0.0, 0.0, -657.4095079194914, 0.0]
['beep', 0.0, -658.2812259532483, 0.0, 0.0, 0.0, 0.0, -661.8575050660975, 0.0]
['beep', 0.0, -676.1179180285833, 0.0, 0.0, 0.0, 0.0, -673.8827435830526, 0.0]
['beep', 0.0, -673.3910052050359, 0.0, 0.0, 0.0, 0.0, -676.676711639966, 0.0]
['beep', 0.0, -653.4085456619914, 0.0, 0.0, 0.0, 0.0, -667.4677929243795, 0.0]
['beep', 0.0, -642.903225767997, 0.0, 0.0, 0.0, 0.0, -657.2083422193936, 0.0]
['beep', 0.0, -657.677728852955, 0.0, 0.0, 0.0, 0.0, -660.6952143544214, 0.0]
['beep', 0.0, -675.9614558173962, 0.0, 0.0, 0.0, 0.0, -671.4687551818795, 0.0]
['beep', 0.0, -672.3181214711811, 0.0, 0.0, 0.0, 0.0, -673.7486331163208, 0.0]
['beep', 0.0, -652.6038828616003, 0.0, 0.0, 0.0, 0.0, -664.7185283563767, 0.0]
['beep', 0.0, -643.8419990351199, 0.0, 0.0, 0.0, 0.0, -656.7389555858321, 0.0]
['beep', 0.0, -659.3764614315584, 0.0, 0.0, 0.0, 0.0, -661.7680980882762, 0.0]
['beep', 0.0, -678.9565895744073, 0.0, 0.0, 0.0, 0.0, -676.1402697730387, 0.0]
['beep', 0.0, -675.000330805818, 0.0, 0.0, 0.0, 0.0, -679.6494936525219, 0.0]
['beep', 0.0, -649.0499554932065, 0.0, 0.0, 0.0, 0.0, -667.8924760690303, 0.0]
['beep', 0.0, -637.4494001209022, 0.0, 0.0, 0.0, 0.0, -655.5990166186115, 0.0]
['beep', 0.0, -652.7156415838768, 0.0, 0.0, 0.0, 0.0, -657.1189352415723, 0.0]
['beep', 0.0, -670.2841127257482, 0.0, 0.0, 0.0, 0.0, -666.7301853573543, 0.0]
['beep', 0.0, -668.9206563139745, 0.0, 0.0, 0.0, 0.0, -669.2112289918934, 0.0]
['beep', 0.0, -648.357051415092, 0.0, 0.0, 0.0, 0.0, -658.6165021200779, 0.0]
['beep', 0.0, -639.1034292105949, 0.0, 0.0, 0.0, 0.0, -649.0946589821172, 0.0]
['beep', 0.0, -653.0956212396171, 0.0, 0.0, 0.0, 0.0, -653.8332288066422, 0.0]
['beep', 0.0, -672.4075284490024, 0.0, 0.0, 0.0, 0.0, -665.0091010342958, 0.0]
['beep', 0.0, -669.7253191143656, 0.0, 0.0, 0.0, 0.0, -667.6689586244772, 0.0]
['beep', 0.0, -647.7312025703434, 0.0, 0.0, 0.0, 0.0, -660.5834556321449, 0.0]
['beep', 0.0, -637.9411384989189, 0.0, 0.0, 0.0, 0.0, -653.3191386841702, 0.0]
['beep', 0.0, -651.9556822723964, 0.0, 0.0, 0.0, 0.0, -654.9508160294075, 0.0]
['beep', 0.0, -670.0829470256505, 0.0, 0.0, 0.0, 0.0, -666.3278539571588, 0.0]
['beep', 0.0, -667.7360138578432, 0.0, 0.0, 0.0, 0.0, -669.3453394586253, 0.0]
['beep', 0.0, -647.2394641923266, 0.0, 0.0, 0.0, 0.0, -658.2365224643377, 0.0]
['beep', 0.0, -638.164655943472, 0.0, 0.0, 0.0, 0.0, -649.9216735269634, 0.0]
['beep', 0.0, -652.1568479724941, 0.0, 0.0, 0.0, 0.0, -653.8555805510975, 0.0]
['beep', 0.0, -670.7534993593097, 0.0, 0.0, 0.0, 0.0, -665.098508012117, 0.0]
['beep', 0.0, -668.451269680413, 0.0, 0.0, 0.0, 0.0, -668.1383452580387, 0.0]
['beep', 0.0, -648.5135136262791, 0.0, 0.0, 0.0, 0.0, -657.8118393196869, 0.0]
['beep', 0.0, -638.6563943214887, 0.0, 0.0, 0.0, 0.0, -648.8934932820193, 0.0]
['beep', 0.0, -653.453249150902, 0.0, 0.0, 0.0, 0.0, -652.514475883779, 0.0]
['beep', 0.0, -672.0499005377175, 0.0, 0.0, 0.0, 0.0, -663.936217300441, 0.0]
['beep', 0.0, -668.4065661915024, 0.0, 0.0, 0.0, 0.0, -668.3395109581364, 0.0]
['beep', 0.0, -647.7535543147986, 0.0, 0.0, 0.0, 0.0, -658.7953160757204, 0.0]
['beep', 0.0, -638.2987664102038, 0.0, 0.0, 0.0, 0.0, -649.6981560824104, 0.0]
['beep', 0.0, -652.1568479724941, 0.0, 0.0, 0.0, 0.0, -654.2132084623825, 0.0]
['beep', 0.0, -670.1500022590163, 0.0, 0.0, 0.0, 0.0, -666.8866475685415, 0.0]
['beep', 0.0, -668.0265865357621, 0.0, 0.0, 0.0, 0.0, -669.4123946919913, 0.0]
['beep', 0.0, -648.289996181726, 0.0, 0.0, 0.0, 0.0, -658.9741300313628, 0.0]
['beep', 0.0, -637.9634902433742, 0.0, 0.0, 0.0, 0.0, -649.7652113157764, 0.0]
['beep', 0.0, -652.2462549503153, 0.0, 0.0, 0.0, 0.0, -652.6709380949662, 0.0]
['beep', 0.0, -671.1558307595052, 0.0, 0.0, 0.0, 0.0, -664.7632318452874, 0.0]
['beep', 0.0, -668.7641941027873, 0.0, 0.0, 0.0, 0.0, -668.2724557247706, 0.0]
['beep', 0.0, -647.2171124478713, 0.0, 0.0, 0.0, 0.0, -659.6223306205667, 0.0]
['beep', 0.0, -637.4270483764468, 0.0, 0.0, 0.0, 0.0, -649.9216735269634, 0.0]
['beep', 0.0, -651.7992200612092, 0.0, 0.0, 0.0, 0.0, -653.9226357844634, 0.0]
['beep', 0.0, -670.8429063371309, 0.0, 0.0, 0.0, 0.0, -664.8749905675639, 0.0]
['beep', 0.0, -668.0265865357621, 0.0, 0.0, 0.0, 0.0, -667.2889789687371, 0.0]
['beep', 0.0, -649.228769448849, 0.0, 0.0, 0.0, 0.0, -658.3706329310695, 0.0]
['beep', 0.0, -640.1763129444496, 0.0, 0.0, 0.0, 0.0, -650.5251706272568, 0.0]
['beep', 0.0, -651.5757026166561, 0.0, 0.0, 0.0, 0.0, -654.1014497401059, 0.0]
['beep', 0.0, -666.5066679128013, 0.0, 0.0, 0.0, 0.0, -666.7301853573543, 0.0]
['beep', 0.0, -671.7146243708878, 0.0, 0.0, 0.0, 0.0, -670.485278425846, 0.0]
['beep', 0.0, -659.8458480651198, 0.0, 0.0, 0.0, 0.0, -653.6991183399103, 0.0]
['beep', 0.0, -650.6816328384439, 0.0, 0.0, 0.0, 0.0, -632.2637954072709, 0.0]
['beep', 0.0, -662.8856853110416, 0.0, 0.0, 0.0, 0.0, -625.3794581150363, 0.0]
['beep', 0.0, -686.5338309447565, 0.0, 0.0, 0.0, 0.0, -624.775961014743, 0.0]
['beep', 0.0, -685.773871633276, 0.0, 0.0, 0.0, 0.0, -618.0704376781509, 0.0]
['beep', 0.0, -666.2384469793376, 0.0, 0.0, 0.0, 0.0, -590.3766262980255, 0.0]
['beep', 0.0, -659.9576067873963, 0.0, 0.0, 0.0, 0.0, -568.1142888205396, 0.0]
['beep', 0.0, -673.4580604384018, 0.0, 0.0, 0.0, 0.0, -559.2406462717827, 0.0]
['beep', 0.0, -698.4473107394351, 0.0, 0.0, 0.0, 0.0, -557.9218933489196, 0.0]
['beep', 0.0, -700.3025055292255, 0.0, 0.0, 0.0, 0.0, -548.0424222996738, 0.0]
['beep', 0.0, -684.097490799128, 0.0, 0.0, 0.0, 0.0, -525.5342156331797, 0.0]
['beep', 0.0, -679.7165488858877, 0.0, 0.0, 0.0, 0.0, -507.1387299464619, 0.0]
['beep', 0.0, -698.1790898059714, 0.0, 0.0, 0.0, 0.0, -504.009485722719, 0.0]
['beep', 0.0, -722.1625116065159, 0.0, 0.0, 0.0, 0.0, -500.18733742086147, 0.0]
['beep', 0.0, -723.7047819739321, 0.0, 0.0, 0.0, 0.0, -488.9220582153867, 0.0]
['beep', 0.0, -707.7232846883875, 0.0, 0.0, 0.0, 0.0, -467.1961626048282, 0.0]
['beep', 0.0, -701.1742235629825, 0.0, 0.0, 0.0, 0.0, -453.00280487570825, 0.0]
['beep', 0.0, -717.803921437731, 0.0, 0.0, 0.0, 0.0, -448.688918195834, 0.0]
['beep', 0.0, -741.6532327715437, 0.0, 0.0, 0.0, 0.0, -457.3613950444931, 0.0]
['beep', 0.0, -742.6590612720324, 0.0, 0.0, 0.0, 0.0, -463.9104561698981, 0.0]
['beep', 0.0, -727.5939855091555, 0.0, 0.0, 0.0, 0.0, -454.4109647763926, 0.0]
['beep', 0.0, -721.7154767174097, 0.0, 0.0, 0.0, 0.0, -447.81720016207703, 0.0]
['beep', 0.0, -738.8145612257197, 0.0, 0.0, 0.0, 0.0, -449.1136013404848, 0.0]
['beep', 0.0, -759.4675731024233, 0.0, 0.0, 0.0, 0.0, -464.1563253589065, 0.0]
['beep', 0.0, -760.7639742808312, 0.0, 0.0, 0.0, 0.0, -470.52657252866896, 0.0]
['beep', 0.0, -745.6765467734989, 0.0, 0.0, 0.0, 0.0, -458.6354444784456, 0.0]
['beep', 0.0, -737.8087327252308, 0.0, 0.0, 0.0, 0.0, -453.8298194205546, 0.0]
['beep', 0.0, -753.6784712884988, 0.0, 0.0, 0.0, 0.0, -463.1281451139623, 0.0]
['beep', 0.0, -773.0350819867948, 0.0, 0.0, 0.0, 0.0, -478.5732005325795, 0.0]
['beep', 0.0, -769.0788232182055, 0.0, 0.0, 0.0, 0.0, -485.70340701382247, 0.0]
['beep', 0.0, -748.7610875083313, 0.0, 0.0, 0.0, 0.0, -481.4342238228588, 0.0]
['beep', 0.0, -736.1323518910827, 0.0, 0.0, 0.0, 0.0, -476.2933225981382, 0.0]
['beep', 0.0, -749.4763433309012, 0.0, 0.0, 0.0, 0.0, -480.6295610224678, 0.0]
['beep', 0.0, -767.6706633175211, 0.0, 0.0, 0.0, 0.0, -493.7276832732777, 0.0]
['beep', 0.0, -764.8319917716971, 0.0, 0.0, 0.0, 0.0, -500.18733742086147, 0.0]
['beep', 0.0, -744.0001659393508, 0.0, 0.0, 0.0, 0.0, -496.00756120771905, 0.0]
['beep', 0.0, -732.7125349894209, 0.0, 0.0, 0.0, 0.0, -493.0571309396185, 0.0]
['beep', 0.0, -746.2800438737922, 0.0, 0.0, 0.0, 0.0, -499.00269496473015, 0.0]
['beep', 0.0, -763.446183615468, 0.0, 0.0, 0.0, 0.0, -510.04445672565186, 0.0]
['beep', 0.0, -760.0934219471719, 0.0, 0.0, 0.0, 0.0, -517.1299597179842, 0.0]
['beep', 0.0, -738.546340292256, 0.0, 0.0, 0.0, 0.0, -510.1562154479284, 0.0]
['beep', 0.0, -725.0905901301611, 0.0, 0.0, 0.0, 0.0, -501.14846243243966, 0.0]
['beep', 0.0, -736.3782210800912, 0.0, 0.0, 0.0, 0.0, -505.50705260122453, 0.0]
['beep', 0.0, -753.4549538439458, 0.0, 0.0, 0.0, 0.0, -517.5769946070903, 0.0]
['beep', 0.0, -751.4432968429682, 0.0, 0.0, 0.0, 0.0, -523.7907795656657, 0.0]
['beep', 0.0, -733.1372181340716, 0.0, 0.0, 0.0, 0.0, -515.7665033062104, 0.0]
['beep', 0.0, -722.8554156846304, 0.0, 0.0, 0.0, 0.0, -507.6304683244787, 0.0]
['beep', 0.0, -736.579386780189, 0.0, 0.0, 0.0, 0.0, -513.2407561827607, 0.0]
['beep', 0.0, -756.7630120233313, 0.0, 0.0, 0.0, 0.0, -524.9083667884311, 0.0]
['beep', 0.0, -756.1818666674932, 0.0, 0.0, 0.0, 0.0, -530.9880412802746, 0.0]
['beep', 0.0, -735.3723925796023, 0.0, 0.0, 0.0, 0.0, -523.5002068877467, 0.0]
['beep', 0.0, -725.1576453635271, 0.0, 0.0, 0.0, 0.0, -515.0512474836406, 0.0]
['beep', 0.0, -737.2946426027588, 0.0, 0.0, 0.0, 0.0, -519.3874859079702, 0.0]
['beep', 0.0, -755.9583492229401, 0.0, 0.0, 0.0, 0.0, -532.10562850304, 0.0]
['beep', 0.0, -753.4773055884011, 0.0, 0.0, 0.0, 0.0, -536.0842390160846, 0.0]
['beep', 0.0, -732.511369289323, 0.0, 0.0, 0.0, 0.0, -527.2552999562383, 0.0]
['beep', 0.0, -722.3636773066137, 0.0, 0.0, 0.0, 0.0, -518.8286922965875, 0.0]
['beep', 0.0, -736.0652966577169, 0.0, 0.0, 0.0, 0.0, -522.3379161760707, 0.0]
['beep', 0.0, -756.4277358565016, 0.0, 0.0, 0.0, 0.0, -534.4749134153025, 0.0]
['beep', 0.0, -754.0808026886943, 0.0, 0.0, 0.0, 0.0, -539.3922971954701, 0.0]
['beep', 0.0, -733.5395495342672, 0.0, 0.0, 0.0, 0.0, -530.3398406910707, 0.0]
['beep', 0.0, -722.1625116065159, 0.0, 0.0, 0.0, 0.0, -521.3097359311266, 0.0]
['beep', 0.0, -736.0876484021721, 0.0, 0.0, 0.0, 0.0, -521.846177798054, 0.0]
['beep', 0.0, -754.4384305999793, 0.0, 0.0, 0.0, 0.0, -535.1901692378723, 0.0]
['beep', 0.0, -751.8009247542531, 0.0, 0.0, 0.0, 0.0, -540.0404977846739, 0.0]
['beep', 0.0, -731.9302239334851, 0.0, 0.0, 0.0, 0.0, -529.6245848685008, 0.0]
['beep', 0.0, -720.1061511166276, 0.0, 0.0, 0.0, 0.0, -520.8850527864757, 0.0]
['beep', 0.0, -732.8913489450633, 0.0, 0.0, 0.0, 0.0, -524.1707592214059, 0.0]
['beep', 0.0, -752.7173462769207, 0.0, 0.0, 0.0, 0.0, -535.100762260051, 0.0]
['beep', 0.0, -750.6609857870324, 0.0, 0.0, 0.0, 0.0, -540.331070462593, 0.0]
['beep', 0.0, -730.4326570549795, 0.0, 0.0, 0.0, 0.0, -532.0162215252187, 0.0]
['beep', 0.0, -720.0837993721723, 0.0, 0.0, 0.0, 0.0, -522.6061371095344, 0.0]
['beep', 0.0, -732.8913489450633, 0.0, 0.0, 0.0, 0.0, -523.2766894431936, 0.0]
['beep', 0.0, -751.1750759095045, 0.0, 0.0, 0.0, 0.0, -534.7431343487661, 0.0]
['beep', 0.0, -749.4316398419905, 0.0, 0.0, 0.0, 0.0, -539.973442551308, 0.0]
['beep', 0.0, -728.7786279652868, 0.0, 0.0, 0.0, 0.0, -532.4185529254142, 0.0]
['beep', 0.0, -717.4686452709014, 0.0, 0.0, 0.0, 0.0, -523.8578347990316, 0.0]
['beep', 0.0, -731.0585058997281, 0.0, 0.0, 0.0, 0.0, -526.651802855945, 0.0]
['beep', 0.0, -749.9010264755519, 0.0, 0.0, 0.0, 0.0, -536.8665500720203, 0.0]
['beep', 0.0, -747.9787764523956, 0.0, 0.0, 0.0, 0.0, -541.1580850074392, 0.0]
['beep', 0.0, -727.6386889980661, 0.0, 0.0, 0.0, 0.0, -532.7314773477885, 0.0]
['beep', 0.0, -715.6805057144768, 0.0, 0.0, 0.0, 0.0, -523.231985954283, 0.0]
['beep', 0.0, -727.8175029537085, 0.0, 0.0, 0.0, 0.0, -527.2105964673277, 0.0]
['beep', 0.0, -747.2188171409151, 0.0, 0.0, 0.0, 0.0, -537.6935646168668, 0.0]
['beep', 0.0, -746.9058927185408, 0.0, 0.0, 0.0, 0.0, -541.4039541964477, 0.0]
['beep', 0.0, -725.8505494416415, 0.0, 0.0, 0.0, 0.0, -534.944300048864, 0.0]
['beep', 0.0, -714.2499940693372, 0.0, 0.0, 0.0, 0.0, -525.4001051664478, 0.0]
['beep', 0.0, -727.9069099315298, 0.0, 0.0, 0.0, 0.0, -529.3116604461266, 0.0]
['beep', 0.0, -746.6376717850771, 0.0, 0.0, 0.0, 0.0, -542.0745065301069, 0.0]
['beep', 0.0, -745.7212502624095, 0.0, 0.0, 0.0, 0.0, -546.6342623989896, 0.0]
['beep', 0.0, -725.1352936190717, 0.0, 0.0, 0.0, 0.0, -536.5759773941013, 0.0]
['beep', 0.0, -713.1100551021166, 0.0, 0.0, 0.0, 0.0, -529.4234191684031, 0.0]
['beep', 0.0, -725.0682383857059, 0.0, 0.0, 0.0, 0.0, -532.5526633921461, 0.0]
['beep', 0.0, -744.6707182730102, 0.0, 0.0, 0.0, 0.0, -542.6556518859448, 0.0]
['beep', 0.0, -744.737773506376, 0.0, 0.0, 0.0, 0.0, -545.8295995985985, 0.0]
['beep', 0.0, -723.5036162738343, 0.0, 0.0, 0.0, 0.0, -539.2581867287382, 0.0]
['beep', 0.0, -711.7242469458874, 0.0, 0.0, 0.0, 0.0, -532.3738494365036, 0.0]
['beep', 0.0, -725.1799971079823, 0.0, 0.0, 0.0, 0.0, -537.2465297277605, 0.0]
['beep', 0.0, -745.1177531621163, 0.0, 0.0, 0.0, 0.0, -552.4457159573693, 0.0]
['beep', 0.0, -743.4637240724235, 0.0, 0.0, 0.0, 0.0, -554.5914834250789, 0.0]
['beep', 0.0, -723.9282994184852, 0.0, 0.0, 0.0, 0.0, -540.0852012735845, 0.0]
['beep', 0.0, -710.9195841454964, 0.0, 0.0, 0.0, 0.0, -531.9938697807634, 0.0]
['beep', 0.0, -723.19069185146, 0.0, 0.0, 0.0, 0.0, -535.0113552822298, 0.0]
['beep', 0.0, -742.3461368496581, 0.0, 0.0, 0.0, 0.0, -545.6507856429561, 0.0]
['beep', 0.0, -742.1673228940157, 0.0, 0.0, 0.0, 0.0, -552.2445502572716, 0.0]
['beep', 0.0, -721.8495871841416, 0.0, 0.0, 0.0, 0.0, -542.6556518859448, 0.0]
['beep', 0.0, -709.2655550558037, 0.0, 0.0, 0.0, 0.0, -532.1950354808612, 0.0]
['beep', 0.0, -721.8272354396863, 0.0, 0.0, 0.0, 0.0, -536.9783087942968, 0.0]
['beep', 0.0, -742.770819994309, 0.0, 0.0, 0.0, 0.0, -548.6012159110566, 0.0]
['beep', 0.0, -741.6979362604543, 0.0, 0.0, 0.0, 0.0, -551.9539775793526, 0.0]
['beep', 0.0, -719.994392394351, 0.0, 0.0, 0.0, 0.0, -544.8684745870203, 0.0]
['beep', 0.0, -708.8185201666976, 0.0, 0.0, 0.0, 0.0, -536.6430326274673, 0.0]
['beep', 0.0, -721.804883695231, 0.0, 0.0, 0.0, 0.0, -537.4923989167689, 0.0]
['beep', 0.0, -742.7261165053984, 0.0, 0.0, 0.0, 0.0, -549.2270647558051, 0.0]
['beep', 0.0, -741.4520670714459, 0.0, 0.0, 0.0, 0.0, -552.4680677018247, 0.0]
['beep', 0.0, -721.447255783946, 0.0, 0.0, 0.0, 0.0, -543.0356315416851, 0.0]
['beep', 0.0, -709.7572934338205, 0.0, 0.0, 0.0, 0.0, -535.7042593603444, 0.0]
['beep', 0.0, -721.4249040394908, 0.0, 0.0, 0.0, 0.0, -538.8111518396321, 0.0]
['beep', 0.0, -742.4355438274794, 0.0, 0.0, 0.0, 0.0, -548.3329949775929, 0.0]
['beep', 0.0, -742.4355438274794, 0.0, 0.0, 0.0, 0.0, -552.8927508464755, 0.0]
['beep', 0.0, -721.4696075284014, 0.0, 0.0, 0.0, 0.0, -545.2484542427604, 0.0]
['beep', 0.0, -709.9584591339183, 0.0, 0.0, 0.0, 0.0, -534.6313756264897, 0.0]
['beep', 0.0, -721.6037179951333, 0.0, 0.0, 0.0, 0.0, -537.4700471723137, 0.0]
['beep', 0.0, -742.1226194051051, 0.0, 0.0, 0.0, 0.0, -550.165838022928, 0.0]
['beep', 0.0, -743.2178548834152, 0.0, 0.0, 0.0, 0.0, -555.1279252920062, 0.0]
['beep', 0.0, -718.2509563268371, 0.0, 0.0, 0.0, 0.0, -541.3368989630817, 0.0]
['beep', 0.0, -705.5551654762228, 0.0, 0.0, 0.0, 0.0, -528.7081633458332, 0.0]
['beep', 0.0, -718.7650464493092, 0.0, 0.0, 0.0, 0.0, -531.2339104692829, 0.0]
['beep', 0.0, -741.0050321823397, 0.0, 0.0, 0.0, 0.0, -541.8286373410986, 0.0]
['beep', 0.0, -741.5414740492671, 0.0, 0.0, 0.0, 0.0, -546.8577798435426, 0.0]
['beep', 0.0, -720.352020305636, 0.0, 0.0, 0.0, 0.0, -539.9957942957633, 0.0]
['beep', 0.0, -707.4997672438344, 0.0, 0.0, 0.0, 0.0, -531.9938697807634, 0.0]
['beep', 0.0, -719.5250057607897, 0.0, 0.0, 0.0, 0.0, -534.8325413265874, 0.0]
['beep', 0.0, -740.1556658930381, 0.0, 0.0, 0.0, 0.0, -546.0307652986962, 0.0]
['beep', 0.0, -739.4404100704683, 0.0, 0.0, 0.0, 0.0, -550.5905211675789, 0.0]
['beep', 0.0, -719.7038197164321, 0.0, 0.0, 0.0, 0.0, -540.1299047624951, 0.0]
['beep', 0.0, -706.1139590876054, 0.0, 0.0, 0.0, 0.0, -531.9491662918527, 0.0]
['beep', 0.0, -718.8097499382199, 0.0, 0.0, 0.0, 0.0, -533.4243814259031, 0.0]
['beep', 0.0, -739.5968722816554, 0.0, 0.0, 0.0, 0.0, -542.9685763083191, 0.0]
['beep', 0.0, -739.4627618149235, 0.0, 0.0, 0.0, 0.0, -548.6012159110566, 0.0]
['beep', 0.0, -719.8155784387086, 0.0, 0.0, 0.0, 0.0, -540.7110501183331, 0.0]
['beep', 0.0, -707.7456364328428, 0.0, 0.0, 0.0, 0.0, -531.8597593140315, 0.0]
['beep', 0.0, -719.2120813384154, 0.0, 0.0, 0.0, 0.0, -534.1396372484729, 0.0]
['beep', 0.0, -738.5910437811666, 0.0, 0.0, 0.0, 0.0, -544.2426257422717, 0.0]
['beep', 0.0, -738.0546019142392, 0.0, 0.0, 0.0, 0.0, -548.3553467220481, 0.0]
['beep', 0.0, -717.1110173596165, 0.0, 0.0, 0.0, 0.0, -539.8169803401208, 0.0]
['beep', 0.0, -704.191709064449, 0.0, 0.0, 0.0, 0.0, -529.6022331240456, 0.0]
['beep', 0.0, -716.8874999150635, 0.0, 0.0, 0.0, 0.0, -534.7654860932215, 0.0]
['beep', 0.0, -737.0040699248398, 0.0, 0.0, 0.0, 0.0, -545.427268198403, 0.0]
['beep', 0.0, -738.6580990145325, 0.0, 0.0, 0.0, 0.0, -545.2708059872158, 0.0]
['beep', 0.0, -719.0556191272282, 0.0, 0.0, 0.0, 0.0, -539.5040559177465, 0.0]
['beep', 0.0, -705.4434067539462, 0.0, 0.0, 0.0, 0.0, -530.7198203468109, 0.0]
['beep', 0.0, -717.5580522487227, 0.0, 0.0, 0.0, 0.0, -533.1114570035287, 0.0]
['beep', 0.0, -738.6580990145325, 0.0, 0.0, 0.0, 0.0, -543.683832130889, 0.0]
['beep', 0.0, -738.6357472700772, 0.0, 0.0, 0.0, 0.0, -548.1318292774951, 0.0]
['beep', 0.0, -718.0274388822841, 0.0, 0.0, 0.0, 0.0, -540.2416634847717, 0.0]
['beep', 0.0, -705.1081305871166, 0.0, 0.0, 0.0, 0.0, -531.1445034914617, 0.0]
['beep', 0.0, -716.7533894483316, 0.0, 0.0, 0.0, 0.0, -533.1338087479841, 0.0]
['beep', 0.0, -736.9817181803845, 0.0, 0.0, 0.0, 0.0, -546.231930998794, 0.0]
['beep', 0.0, -738.0322501697839, 0.0, 0.0, 0.0, 0.0, -550.6128729120342, 0.0]
['beep', 0.0, -717.4239417819908, 0.0, 0.0, 0.0, 0.0, -542.1639135079281, 0.0]
['beep', 0.0, -704.8846131425636, 0.0, 0.0, 0.0, 0.0, -531.8374075695763, 0.0]
['beep', 0.0, -716.5075202593232, 0.0, 0.0, 0.0, 0.0, -532.7985325811544, 0.0]
['beep', 0.0, -736.512331546823, 0.0, 0.0, 0.0, 0.0, -544.7343641202884, 0.0]
['beep', 0.0, -737.3169943472141, 0.0, 0.0, 0.0, 0.0, -549.7635066227325, 0.0]
['beep', 0.0, -716.8651481706081, 0.0, 0.0, 0.0, 0.0, -543.0132797972298, 0.0]
['beep', 0.0, -703.6329154530663, 0.0, 0.0, 0.0, 0.0, -534.0055267817411, 0.0]
['beep', 0.0, -715.5016917588343, 0.0, 0.0, 0.0, 0.0, -534.2513959707494, 0.0]
['beep', 0.0, -736.6240902690996, 0.0, 0.0, 0.0, 0.0, -545.3155094761264, 0.0]
['beep', 0.0, -737.1381803915716, 0.0, 0.0, 0.0, 0.0, -548.7576781222436, 0.0]
['beep', 0.0, -717.6698109709992, 0.0, 0.0, 0.0, 0.0, -542.3427274635706, 0.0]
['beep', 0.0, -704.9516683759294, 0.0, 0.0, 0.0, 0.0, -535.0784105155958, 0.0]
['beep', 0.0, -716.7310377038763, 0.0, 0.0, 0.0, 0.0, -537.4923989167689, 0.0]
['beep', 0.0, -735.8194274687085, 0.0, 0.0, 0.0, 0.0, -550.3670037230258, 0.0]
['beep', 0.0, -736.28881410227, 0.0, 0.0, 0.0, 0.0, -554.1444485359727, 0.0]
['beep', 0.0, -716.708685959421, 0.0, 0.0, 0.0, 0.0, -544.6002536535566, 0.0]
['beep', 0.0, -703.0070666083177, 0.0, 0.0, 0.0, 0.0, -533.8490645705539, 0.0]
['beep', 0.0, -714.8311394251751, 0.0, 0.0, 0.0, 0.0, -536.1512942494505, 0.0]
['beep', 0.0, -735.4170960685129, 0.0, 0.0, 0.0, 0.0, -548.0647740441292, 0.0]
['beep', 0.0, -736.6911455024655, 0.0, 0.0, 0.0, 0.0, -553.4962479467688, 0.0]
['beep', 0.0, -717.0216103817953, 0.0, 0.0, 0.0, 0.0, -546.0307652986962, 0.0]
['beep', 0.0, -702.6047352081222, 0.0, 0.0, 0.0, 0.0, -536.1289425049952, 0.0]
['beep', 0.0, -713.1547585910272, 0.0, 0.0, 0.0, 0.0, -537.3582884500371, 0.0]
['beep', 0.0, -734.4112675680242, 0.0, 0.0, 0.0, 0.0, -548.8023816111543, 0.0]
['beep', 0.0, -735.5288547907895, 0.0, 0.0, 0.0, 0.0, -554.5914834250789, 0.0]
['beep', 0.0, -714.6523254695327, 0.0, 0.0, 0.0, 0.0, -546.1425240209728, 0.0]
['beep', 0.0, -700.1013398291278, 0.0, 0.0, 0.0, 0.0, -538.2747099727047, 0.0]
['beep', 0.0, -712.2383370683596, 0.0, 0.0, 0.0, 0.0, -541.3816024519924, 0.0]
['beep', 0.0, -734.2771571012923, 0.0, 0.0, 0.0, 0.0, -550.3223002341152, 0.0]
['beep', 0.0, -735.2382821128705, 0.0, 0.0, 0.0, 0.0, -553.9432828358749, 0.0]
['beep', 0.0, -714.8981946585411, 0.0, 0.0, 0.0, 0.0, -546.8577798435426, 0.0]
['beep', 0.0, -701.6659619409993, 0.0, 0.0, 0.0, 0.0, -537.8053233391432, 0.0]
['beep', 0.0, -712.6630202130104, 0.0, 0.0, 0.0, 0.0, -539.0570210286404, 0.0]
['beep', 0.0, -733.7183634899096, 0.0, 0.0, 0.0, 0.0, -549.4952856892688, 0.0]
['beep', 0.0, -733.9865844233733, 0.0, 0.0, 0.0, 0.0, -554.9491113363638, 0.0]
['beep', 0.0, -714.1605870915159, 0.0, 0.0, 0.0, 0.0, -548.4447536998694, 0.0]
['beep', 0.0, -700.190746806949, 0.0, 0.0, 0.0, 0.0, -539.7722768512102, 0.0]
['beep', 0.0, -711.1654533345048, 0.0, 0.0, 0.0, 0.0, -539.8616838290314, 0.0]
['beep', 0.0, -732.1760931224934, 0.0, 0.0, 0.0, 0.0, -551.8422188570761, 0.0]
['beep', 0.0, -734.0089361678287, 0.0, 0.0, 0.0, 0.0, -557.0725270596179, 0.0]
['beep', 0.0, -712.7971306797423, 0.0, 0.0, 0.0, 0.0, -548.7353263777884, 0.0]
['beep', 0.0, -699.8554706401194, 0.0, 0.0, 0.0, 0.0, -539.4146489399253, 0.0]
['beep', 0.0, -711.5007295013344, 0.0, 0.0, 0.0, 0.0, -541.5157129187243, 0.0]
['beep', 0.0, -732.6231280115996, 0.0, 0.0, 0.0, 0.0, -552.4010124684587, 0.0]
['beep', 0.0, -733.0478111562504, 0.0, 0.0, 0.0, 0.0, -557.2066375263497, 0.0]
['beep', 0.0, -714.4064562805244, 0.0, 0.0, 0.0, 0.0, -549.6964513893666, 0.0]
['beep', 0.0, -699.9895811068512, 0.0, 0.0, 0.0, 0.0, -540.6216431405119, 0.0]
['beep', 0.0, -711.4560260124238, 0.0, 0.0, 0.0, 0.0, -540.8228088406097, 0.0]
['beep', 0.0, -732.4666658004124, 0.0, 0.0, 0.0, 0.0, -551.4398874568806, 0.0]
['beep', 0.0, -733.4501425564459, 0.0, 0.0, 0.0, 0.0, -560.4029369834586, 0.0]
['beep', 0.0, -713.579441735678, 0.0, 0.0, 0.0, 0.0, -550.9257973344085, 0.0]
['beep', 0.0, -700.0342845957618, 0.0, 0.0, 0.0, 0.0, -538.6546896284449, 0.0]
['beep', 0.0, -711.6571917125216, 0.0, 0.0, 0.0, 0.0, -540.0404977846739, 0.0]
['beep', 0.0, -732.1090378891275, 0.0, 0.0, 0.0, 0.0, -550.6128729120342, 0.0]
['beep', 0.0, -733.1148663896164, 0.0, 0.0, 0.0, 0.0, -557.0948788040732, 0.0]
['beep', 0.0, -713.4453312689461, 0.0, 0.0, 0.0, 0.0, -547.9306635773974, 0.0]
['beep', 0.0, -699.4978427288345, 0.0, 0.0, 0.0, 0.0, -539.2134832398276, 0.0]
['beep', 0.0, -710.2490318118372, 0.0, 0.0, 0.0, 0.0, -542.9685763083191, 0.0]
['beep', 0.0, -731.9749274223957, 0.0, 0.0, 0.0, 0.0, -551.8645706015313, 0.0]
['beep', 0.0, -733.6289565120884, 0.0, 0.0, 0.0, 0.0, -555.4632014588358, 0.0]
['beep', 0.0, -713.3782760355803, 0.0, 0.0, 0.0, 0.0, -549.8529136005537, 0.0]
['beep', 0.0, -698.6261246950776, 0.0, 0.0, 0.0, 0.0, -540.3757739515036, 0.0]
['beep', 0.0, -710.383142278569, 0.0, 0.0, 0.0, 0.0, -541.8509890855538, 0.0]
['beep', 0.0, -731.9302239334851, 0.0, 0.0, 0.0, 0.0, -552.0657363016292, 0.0]
['beep', 0.0, -733.159569878527, 0.0, 0.0, 0.0, 0.0, -556.4913817037799, 0.0]
['beep', 0.0, -713.3335725466696, 0.0, 0.0, 0.0, 0.0, -550.232893256294, 0.0]
['beep', 0.0, -700.4142642515021, 0.0, 0.0, 0.0, 0.0, -541.940396063375, 0.0]
['beep', 0.0, -710.2713835562926, 0.0, 0.0, 0.0, 0.0, -543.9520530643526, 0.0]
['beep', 0.0, -730.4997122883454, 0.0, 0.0, 0.0, 0.0, -552.8703991020202, 0.0]
['beep', 0.0, -732.220796611404, 0.0, 0.0, 0.0, 0.0, -556.9607683373414, 0.0]
['beep', 0.0, -713.065351613206, 0.0, 0.0, 0.0, 0.0, -549.8752653450091, 0.0]
['beep', 0.0, -697.9108688725078, 0.0, 0.0, 0.0, 0.0, -541.4039541964477, 0.0]
['beep', 0.0, -708.3938370220467, 0.0, 0.0, 0.0, 0.0, -542.1639135079281, 0.0]
['beep', 0.0, -729.3821250655801, 0.0, 0.0, 0.0, 0.0, -553.0715648021179, 0.0]
['beep', 0.0, -732.4890175448678, 0.0, 0.0, 0.0, 0.0, -558.8383148715872, 0.0]
['beep', 0.0, -715.2781743142813, 0.0, 0.0, 0.0, 0.0, -551.551646179157, 0.0]
['beep', 0.0, -700.0789880846725, 0.0, 0.0, 0.0, 0.0, -541.2474919852605, 0.0]
['beep', 0.0, -709.6902382004546, 0.0, 0.0, 0.0, 0.0, -542.9685763083191, 0.0]
['beep', 0.0, -731.3490785776471, 0.0, 0.0, 0.0, 0.0, -553.7644688802325, 0.0]
['beep', 0.0, -732.6678315005103, 0.0, 0.0, 0.0, 0.0, -560.7158614058329, 0.0]
['beep', 0.0, -713.0206481242953, 0.0, 0.0, 0.0, 0.0, -552.9374543353861, 0.0]
['beep', 0.0, -697.3967787500357, 0.0, 0.0, 0.0, 0.0, -544.0191082977186, 0.0]
['beep', 0.0, -705.7116276874099, 0.0, 0.0, 0.0, 0.0, -544.8684745870203, 0.0]
['beep', 0.0, -724.2859273297701, 0.0, 0.0, 0.0, 0.0, -554.0326898136962, 0.0]
['beep', 0.0, -725.7164389749097, 0.0, 0.0, 0.0, 0.0, -560.6264544280117, 0.0]
['beep', 0.0, -706.9186218879964, 0.0, 0.0, 0.0, 0.0, -552.7362886352884, 0.0]
['beep', 0.0, -692.8370228811531, 0.0, 0.0, 0.0, 0.0, -541.0016227962521, 0.0]
['beep', 0.0, -706.0692555986948, 0.0, 0.0, 0.0, 0.0, -542.0968582745622, 0.0]
['beep', 0.0, -728.4880552873678, 0.0, 0.0, 0.0, 0.0, -553.4068409689476, 0.0]
['beep', 0.0, -731.1479128775493, 0.0, 0.0, 0.0, 0.0, -560.8946753614754, 0.0]
['beep', 0.0, -712.4842062573679, 0.0, 0.0, 0.0, 0.0, -554.0550415581515, 0.0]
['beep', 0.0, -698.2014415504267, 0.0, 0.0, 0.0, 0.0, -545.6731373874113, 0.0]
['beep', 0.0, -708.9302788889742, 0.0, 0.0, 0.0, 0.0, -546.9024833324532, 0.0]
['beep', 0.0, -729.3821250655801, 0.0, 0.0, 0.0, 0.0, -557.0725270596179, 0.0]
['beep', 0.0, -731.3267268331917, 0.0, 0.0, 0.0, 0.0, -563.8674573740312, 0.0]
['beep', 0.0, -712.3947992795466, 0.0, 0.0, 0.0, 0.0, -556.9831200817966, 0.0]
['beep', 0.0, -697.5755927056781, 0.0, 0.0, 0.0, 0.0, -547.9977188107632, 0.0]
['beep', 0.0, -707.6785811994769, 0.0, 0.0, 0.0, 0.0, -547.975367066308, 0.0]
['beep', 0.0, -727.7727994647979, 0.0, 0.0, 0.0, 0.0, -557.4301549709029, 0.0]
['beep', 0.0, -730.7008779884432, 0.0, 0.0, 0.0, 0.0, -562.8392771290871, 0.0]
['beep', 0.0, -710.8301771676752, 0.0, 0.0, 0.0, 0.0, -558.1901142823833, 0.0]
['beep', 0.0, -697.4638339834016, 0.0, 0.0, 0.0, 0.0, -549.5176374337242, 0.0]
['beep', 0.0, -708.4832439998679, 0.0, 0.0, 0.0, 0.0, -549.7858583671879, 0.0]
['beep', 0.0, -727.8175029537085, 0.0, 0.0, 0.0, 0.0, -559.3747567385145, 0.0]
['beep', 0.0, -730.8126367107197, 0.0, 0.0, 0.0, 0.0, -564.5380097076904, 0.0]
['beep', 0.0, -712.6853719574657, 0.0, 0.0, 0.0, 0.0, -558.5700939381235, 0.0]
['beep', 0.0, -699.1849183064602, 0.0, 0.0, 0.0, 0.0, -553.3397857355817, 0.0]
['beep', 0.0, -709.1314445890719, 0.0, 0.0, 0.0, 0.0, -552.0657363016292, 0.0]
['beep', 0.0, -727.9516134204404, 0.0, 0.0, 0.0, 0.0, -561.6769864174112, 0.0]
['beep', 0.0, -730.6561744995325, 0.0, 0.0, 0.0, 0.0, -568.002530098263, 0.0]
['beep', 0.0, -711.5007295013344, 0.0, 0.0, 0.0, 0.0, -561.9005038619642, 0.0]
['beep', 0.0, -696.4133019940022, 0.0, 0.0, 0.0, 0.0, -551.1940182678721, 0.0]
['beep', 0.0, -706.6727526989881, 0.0, 0.0, 0.0, 0.0, -552.3786607240035, 0.0]
['beep', 0.0, -725.4258662969908, 0.0, 0.0, 0.0, 0.0, -559.4418119718805, 0.0]
['beep', 0.0, -727.8175029537085, 0.0, 0.0, 0.0, 0.0, -561.9899108397855, 0.0]
['beep', 0.0, -712.1936335794489, 0.0, 0.0, 0.0, 0.0, -559.2853497606933, 0.0]
['beep', 0.0, -699.0284560952731, 0.0, 0.0, 0.0, 0.0, -557.2289892708051, 0.0]
['beep', 0.0, -704.6610956980105, 0.0, 0.0, 0.0, 0.0, -558.7265561493107, 0.0]
['beep', 0.0, -722.2295668398818, 0.0, 0.0, 0.0, 0.0, -564.4709544743246, 0.0]
['beep', 0.0, -726.8116744532198, 0.0, 0.0, 0.0, 0.0, -565.4320794859028, 0.0]
['beep', 0.0, -711.3219155456919, 0.0, 0.0, 0.0, 0.0, -561.8558003730536, 0.0]
['beep', 0.0, -696.2791915272703, 0.0, 0.0, 0.0, 0.0, -559.262998016238, 0.0]
['beep', 0.0, -702.0906450856502, 0.0, 0.0, 0.0, 0.0, -561.9005038619642, 0.0]
['beep', 0.0, -720.8884621725634, 0.0, 0.0, 0.0, 0.0, -566.5273149642128, 0.0]
['beep', 0.0, -725.1129418746165, 0.0, 0.0, 0.0, 0.0, -569.5671522101346, 0.0]
['beep', 0.0, -710.5843079786669, 0.0, 0.0, 0.0, 0.0, -567.6896056758887, 0.0]
['beep', 0.0, -697.0167990942955, 0.0, 0.0, 0.0, 0.0, -565.0297480857072, 0.0]
['beep', 0.0, -703.387046264058, 0.0, 0.0, 0.0, 0.0, -564.649768429967, 0.0]
['beep', 0.0, -720.642592983555, 0.0, 0.0, 0.0, 0.0, -564.5380097076904, 0.0]
['beep', 0.0, -724.5094447743231, 0.0, 0.0, 0.0, 0.0, -566.8178876421318, 0.0]
['beep', 0.0, -710.9866393788624, 0.0, 0.0, 0.0, 0.0, -564.8285823856095, 0.0]
['beep', 0.0, -697.3967787500357, 0.0, 0.0, 0.0, 0.0, -561.9899108397855, 0.0]
['beep', 0.0, -703.4541014974238, 0.0, 0.0, 0.0, 0.0, -562.9063323624531, 0.0]
['beep', 0.0, -720.0390958832617, 0.0, 0.0, 0.0, 0.0, -568.2260475428161, 0.0]
['beep', 0.0, -724.0400581407616, 0.0, 0.0, 0.0, 0.0, -569.2765795322156, 0.0]
['beep', 0.0, -709.9808108783735, 0.0, 0.0, 0.0, 0.0, -567.1084603200508, 0.0]
['beep', 0.0, -694.8263281376753, 0.0, 0.0, 0.0, 0.0, -565.2532655302604, 0.0]
['beep', 0.0, -700.3248572736809, 0.0, 0.0, 0.0, 0.0, -566.5049632197575, 0.0]
['beep', 0.0, -718.6979912159433, 0.0, 0.0, 0.0, 0.0, -569.8130213991429, 0.0]
['beep', 0.0, -723.5706715072002, 0.0, 0.0, 0.0, 0.0, -570.0588905881514, 0.0]
['beep', 0.0, -708.8185201666976, 0.0, 0.0, 0.0, 0.0, -566.9072946199531, 0.0]
['beep', 0.0, -695.6980461714323, 0.0, 0.0, 0.0, 0.0, -565.0744515746178, 0.0]
['beep', 0.0, -701.643610196544, 0.0, 0.0, 0.0, 0.0, -566.2143905418385, 0.0]
['beep', 0.0, -718.9215086604963, 0.0, 0.0, 0.0, 0.0, -569.1424690654837, 0.0]
['beep', 0.0, -722.4754360288902, 0.0, 0.0, 0.0, 0.0, -569.9024283769642, 0.0]
['beep', 0.0, -707.7009329439322, 0.0, 0.0, 0.0, 0.0, -566.5496667086682, 0.0]
['beep', 0.0, -694.5357554597564, 0.0, 0.0, 0.0, 0.0, -565.2756172747156, 0.0]
['beep', 0.0, -700.3919125070468, 0.0, 0.0, 0.0, 0.0, -567.77901265371, 0.0]
['beep', 0.0, -718.1839010934713, 0.0, 0.0, 0.0, 0.0, -571.6011609555675, 0.0]
['beep', 0.0, -725.7611424638203, 0.0, 0.0, 0.0, 0.0, -574.8198121571318, 0.0]
['beep', 0.0, -711.5230812457897, 0.0, 0.0, 0.0, 0.0, -570.6623876884446, 0.0]
['beep', 0.0, -691.9429531029407, 0.0, 0.0, 0.0, 0.0, -562.2804835177045, 0.0]
['beep', 0.0, -699.6990084289323, 0.0, 0.0, 0.0, 0.0, -559.77708813871, 0.0]
['beep', 0.0, -717.222776081893, 0.0, 0.0, 0.0, 0.0, -560.0229573277185, 0.0]
['beep', 0.0, -722.676601728988, 0.0, 0.0, 0.0, 0.0, -562.7275184068106, 0.0]
['beep', 0.0, -709.2655550558037, 0.0, 0.0, 0.0, 0.0, -561.8334486285984, 0.0]
['beep', 0.0, -695.4521769824239, 0.0, 0.0, 0.0, 0.0, -559.7100329053442, 0.0]
['beep', 0.0, -699.386084006558, 0.0, 0.0, 0.0, 0.0, -560.6935096613777, 0.0]
['beep', 0.0, -716.9769068928847, 0.0, 0.0, 0.0, 0.0, -565.0968033190732, 0.0]
['beep', 0.0, -722.2742703287925, 0.0, 0.0, 0.0, 0.0, -566.9296463644083, 0.0]
['beep', 0.0, -707.2538980548261, 0.0, 0.0, 0.0, 0.0, -566.9519981088637, 0.0]
['beep', 0.0, -693.8204996371866, 0.0, 0.0, 0.0, 0.0, -563.4651259738357, 0.0]
['beep', 0.0, -698.4026072505245, 0.0, 0.0, 0.0, 0.0, -564.0239195852184, 0.0]
['beep', 0.0, -713.9594213914182, 0.0, 0.0, 0.0, 0.0, -568.650730687467, 0.0]
['beep', 0.0, -719.5473575052449, 0.0, 0.0, 0.0, 0.0, -570.0141870992408, 0.0]
['beep', 0.0, -706.0245521097842, 0.0, 0.0, 0.0, 0.0, -567.846067887076, 0.0]
['beep', 0.0, -692.1217670585831, 0.0, 0.0, 0.0, 0.0, -564.3815474965033, 0.0]
['beep', 0.0, -697.6873514279547, 0.0, 0.0, 0.0, 0.0, -565.8567626305536, 0.0]
['beep', 0.0, -714.6523254695327, 0.0, 0.0, 0.0, 0.0, -569.0977655765731, 0.0]
['beep', 0.0, -719.4355987829684, 0.0, 0.0, 0.0, 0.0, -570.2824080327044, 0.0]
['beep', 0.0, -707.0080288658177, 0.0, 0.0, 0.0, 0.0, -568.4495649873692, 0.0]
['beep', 0.0, -694.0663688261949, 0.0, 0.0, 0.0, 0.0, -566.9743498533189, 0.0]
['beep', 0.0, -699.4307874954686, 0.0, 0.0, 0.0, 0.0, -568.0248818427184, 0.0]
['beep', 0.0, -715.8146161812086, 0.0, 0.0, 0.0, 0.0, -570.6623876884446, 0.0]
['beep', 0.0, -720.7767034502868, 0.0, 0.0, 0.0, 0.0, -572.4728789893245, 0.0]
['beep', 0.0, -708.192671321949, 0.0, 0.0, 0.0, 0.0, -568.9636551098413, 0.0]
['beep', 0.0, -691.8758978695748, 0.0, 0.0, 0.0, 0.0, -568.002530098263, 0.0]
['beep', 0.0, -696.5027089718234, 0.0, 0.0, 0.0, 0.0, -568.3825097540033, 0.0]
['beep', 0.0, -713.6912004579546, 0.0, 0.0, 0.0, 0.0, -573.523410978724, 0.0]
['beep', 0.0, -719.2344330828706, 0.0, 0.0, 0.0, 0.0, -575.4680127463356, 0.0]
['beep', 0.0, -705.3092962872144, 0.0, 0.0, 0.0, 0.0, -572.2493615447714, 0.0]
['beep', 0.0, -690.6465519245329, 0.0, 0.0, 0.0, 0.0, -566.9296463644083, 0.0]
['beep', 0.0, -696.8603368831083, 0.0, 0.0, 0.0, 0.0, -565.8567626305536, 0.0]
['beep', 0.0, -713.6241452245886, 0.0, 0.0, 0.0, 0.0, -569.9918353547854, 0.0]
['beep', 0.0, -719.0556191272282, 0.0, 0.0, 0.0, 0.0, -572.9646173673412, 0.0]
['beep', 0.0, -705.1081305871166, 0.0, 0.0, 0.0, 0.0, -570.8188498996318, 0.0]
['beep', 0.0, -690.9147728579966, 0.0, 0.0, 0.0, 0.0, -569.8353731435983, 0.0]
['beep', 0.0, -695.5862874491557, 0.0, 0.0, 0.0, 0.0, -570.9976638552743, 0.0]
['beep', 0.0, -711.9701161348959, 0.0, 0.0, 0.0, 0.0, -574.0151493567407, 0.0]
['beep', 0.0, -717.803921437731, 0.0, 0.0, 0.0, 0.0, -574.7527569237658, 0.0]
['beep', 0.0, -703.0070666083177, 0.0, 0.0, 0.0, 0.0, -573.8586871455535, 0.0]
