['beep', 0.0, 0.0, 0.0, 0.0, 0.0, 0.0, 0.0, 0.0]
['beep', 0.0, 1296.0211987520695, 0.0, 0.0, 0.0, 0.0, -510.8938230149535, 0.0]
['beep', 0.0, 1286.3652451473768, 0.0, 0.0, 0.0, 0.0, -511.81024453762114, 0.0]
['beep', 0.0, 1268.3720908608545, 0.0, 0.0, 0.0, 0.0, -515.1630062059172, 0.0]
['beep', 0.0, 1271.613093806874, 0.0, 0.0, 0.0, 0.0, -516.5711661066015, 0.0]
['beep', 0.0, 1293.741320817628, 0.0, 0.0, 0.0, 0.0, -512.6819625713781, 0.0]
['beep', 0.0, 1306.6382773683404, 0.0, 0.0, 0.0, 0.0, -508.41277938041446, 0.0]
['beep', 0.0, 1300.78212032105, 0.0, 0.0, 0.0, 0.0, -479.42256682188116, 0.0]
['beep', 0.0, 1285.2476579246113, 0.0, 0.0, 0.0, 0.0, -441.1563803143955, 0.0]
['beep', 0.0, 1281.8054892784942, 0.0, 0.0, 0.0, 0.0, -447.12429608396246, 0.0]
['beep', 0.0, 1296.2670679410778, 0.0, 0.0, 0.0, 0.0, -492.7442065172442, 0.0]
['beep', 0.0, 1306.7276843461616, 0.0, 0.0, 0.0, 0.0, -508.63629682496753, 0.0]
['beep', 0.0, 1298.323428430966, 0.0, 0.0, 0.0, 0.0, -509.68682881436695, 0.0]
['beep', 0.0, 1284.0853672129354, 0.0, 0.0, 0.0, 0.0, -515.1630062059172, 0.0]
['beep', 0.0, 1281.5596200894856, 0.0, 0.0, 0.0, 0.0, -516.1241312174953, 0.0]
['beep', 0.0, 1295.4624051406868, 0.0, 0.0, 0.0, 0.0, -512.6596108269227, 0.0]
['beep', 0.0, 1307.934678546748, 0.0, 0.0, 0.0, 0.0, -512.2796311711826, 0.0]
['beep', 0.0, 1299.4633673981866, 0.0, 0.0, 0.0, 0.0, -513.1066457160289, 0.0]
['beep', 0.0, 1283.0124834790806, 0.0, 0.0, 0.0, 0.0, -515.0288957391854, 0.0]
['beep', 0.0, 1281.6266753228517, 0.0, 0.0, 0.0, 0.0, -517.4205323959031, 0.0]
['beep', 0.0, 1296.0882539854354, 0.0, 0.0, 0.0, 0.0, -517.1299597179842, 0.0]
['beep', 0.0, 1306.6382773683404, 0.0, 0.0, 0.0, 0.0, -515.0959509725512, 0.0]
['beep', 0.0, 1299.0163325090805, 0.0, 0.0, 0.0, 0.0, -514.7606748057217, 0.0]
['beep', 0.0, 1284.5994573354076, 0.0, 0.0, 0.0, 0.0, -515.6323928394786, 0.0]
['beep', 0.0, 1281.8501927674047, 0.0, 0.0, 0.0, 0.0, -516.973497506797, 0.0]
['beep', 0.0, 1295.4624051406868, 0.0, 0.0, 0.0, 0.0, -515.1406544614618, 0.0]
['beep', 0.0, 1307.3088297019995, 0.0, 0.0, 0.0, 0.0, -512.5925555935569, 0.0]
['beep', 0.0, 1299.9551057762035, 0.0, 0.0, 0.0, 0.0, -512.7937212936546, 0.0]
['beep', 0.0, 1284.331236401944, 0.0, 0.0, 0.0, 0.0, -516.7276283177887, 0.0]
['beep', 0.0, 1282.5878003344299, 0.0, 0.0, 0.0, 0.0, -520.0133347527188, 0.0]
['beep', 0.0, 1297.3175999304772, 0.0, 0.0, 0.0, 0.0, -517.4428841403585, 0.0]
['beep', 0.0, 1306.5041669016084, 0.0, 0.0, 0.0, 0.0, -504.7917967786547, 0.0]
['beep', 0.0, 1299.9551057762035, 0.0, 0.0, 0.0, 0.0, -453.69570895382276, 0.0]
['beep', 0.0, 1285.5382306025303, 0.0, 0.0, 0.0, 0.0, -437.6695081793676, 0.0]
['beep', 0.0, 1283.4148148792763, 0.0, 0.0, 0.0, 0.0, -458.41192703389254, 0.0]
['beep', 0.0, 1295.6859225852397, 0.0, 0.0, 0.0, 0.0, -505.30588690112677, 0.0]
['beep', 0.0, 1307.3311814464548, 0.0, 0.0, 0.0, 0.0, -511.31850615960434, 0.0]
['beep', 0.0, 1300.357437176399, 0.0, 0.0, 0.0, 0.0, -511.7208375597999, 0.0]
['beep', 0.0, 1284.3982916353098, 0.0, 0.0, 0.0, 0.0, -514.8053782946323, 0.0]
['beep', 0.0, 1282.2748759120557, 0.0, 0.0, 0.0, 0.0, -516.2358899397719, 0.0]
['beep', 0.0, 1296.0435504965246, 0.0, 0.0, 0.0, 0.0, -515.8559102840317, 0.0]
['beep', 0.0, 1306.2135942236894, 0.0, 0.0, 0.0, 0.0, -513.1737009493949, 0.0]
['beep', 0.0, 1299.619829609374, 0.0, 0.0, 0.0, 0.0, -511.9220032598977, 0.0]
['beep', 0.0, 1283.9959602351141, 0.0, 0.0, 0.0, 0.0, -516.9287940178864, 0.0]
['beep', 0.0, 1282.163117189779, 0.0, 0.0, 0.0, 0.0, -517.7111050738222, 0.0]
['beep', 0.0, 1296.1776609632566, 0.0, 0.0, 0.0, 0.0, -516.5264626176909, 0.0]
['beep', 0.0, 1306.8170913239828, 0.0, 0.0, 0.0, 0.0, -511.2738026706937, 0.0]
['beep', 0.0, 1299.8880505428376, 0.0, 0.0, 0.0, 0.0, -511.34085790405965, 0.0]
['beep', 0.0, 1283.6383323238292, 0.0, 0.0, 0.0, 0.0, -516.7499800622439, 0.0]
['beep', 0.0, 1280.486736355631, 0.0, 0.0, 0.0, 0.0, -518.3146021741155, 0.0]
['beep', 0.0, 1294.4789283846533, 0.0, 0.0, 0.0, 0.0, -516.1017794730401, 0.0]
['beep', 0.0, 1304.6936756007285, 0.0, 0.0, 0.0, 0.0, -513.1066457160289, 0.0]
['beep', 0.0, 1298.9939807646253, 0.0, 0.0, 0.0, 0.0, -513.2184044383055, 0.0]
['beep', 0.0, 1282.6548555677957, 0.0, 0.0, 0.0, 0.0, -517.0852562290736, 0.0]
['beep', 0.0, 1280.419681122265, 0.0, 0.0, 0.0, 0.0, -518.5828231075792, 0.0]
['beep', 0.0, 1294.3001144290108, 0.0, 0.0, 0.0, 0.0, -514.6712678279005, 0.0]
['beep', 0.0, 1305.6548006123069, 0.0, 0.0, 0.0, 0.0, -508.70335205833345, 0.0]
['beep', 0.0, 1299.5527743760078, 0.0, 0.0, 0.0, 0.0, -465.40802304840366, 0.0]
['beep', 0.0, 1284.0406637240249, 0.0, 0.0, 0.0, 0.0, -443.1903890598284, 0.0]
['beep', 0.0, 1281.2466956671115, 0.0, 0.0, 0.0, 0.0, -457.3166915555825, 0.0]
['beep', 0.0, 1294.3448179179213, 0.0, 0.0, 0.0, 0.0, -503.7859682781659, 0.0]
['beep', 0.0, 1306.1688907347789, 0.0, 0.0, 0.0, 0.0, -512.234927682272, 0.0]
['beep', 0.0, 1299.262201698089, 0.0, 0.0, 0.0, 0.0, -513.1737009493949, 0.0]
['beep', 0.0, 1283.4595183681868, 0.0, 0.0, 0.0, 0.0, -517.4875876292691, 0.0]
['beep', 0.0, 1281.224343922656, 0.0, 0.0, 0.0, 0.0, -520.4156661529144, 0.0]
['beep', 0.0, 1292.8919545283263, 0.0, 0.0, 0.0, 0.0, -517.4428841403585, 0.0]
['beep', 0.0, 1304.9618965341922, 0.0, 0.0, 0.0, 0.0, -513.2854596716713, 0.0]
['beep', 0.0, 1299.776291820561, 0.0, 0.0, 0.0, 0.0, -513.2631079272161, 0.0]
['beep', 0.0, 1284.0853672129354, 0.0, 0.0, 0.0, 0.0, -517.5322911181797, 0.0]
['beep', 0.0, 1281.1572886892902, 0.0, 0.0, 0.0, 0.0, -519.231023696783, 0.0]
['beep', 0.0, 1294.8365562959382, 0.0, 0.0, 0.0, 0.0, -515.5206341172021, 0.0]
['beep', 0.0, 1307.0406087685358, 0.0, 0.0, 0.0, 0.0, -512.8831282714758, 0.0]
['beep', 0.0, 1299.6868848427398, 0.0, 0.0, 0.0, 0.0, -513.4866253717692, 0.0]
['beep', 0.0, 1283.7500910461058, 0.0, 0.0, 0.0, 0.0, -518.1804917073837, 0.0]
['beep', 0.0, 1280.129108444346, 0.0, 0.0, 0.0, 0.0, -521.3991429089479, 0.0]
['beep', 0.0, 1292.802547550505, 0.0, 0.0, 0.0, 0.0, -518.5828231075792, 0.0]
['beep', 0.0, 1306.1465389903235, 0.0, 0.0, 0.0, 0.0, -513.7771980496882, 0.0]
['beep', 0.0, 1300.6927133432287, 0.0, 0.0, 0.0, 0.0, -513.8666050275094, 0.0]
['beep', 0.0, 1285.4488236247091, 0.0, 0.0, 0.0, 0.0, -516.5488143621462, 0.0]
['beep', 0.0, 1280.7549572890946, 0.0, 0.0, 0.0, 0.0, -520.0356864971741, 0.0]
['beep', 0.0, 1294.4789283846533, 0.0, 0.0, 0.0, 0.0, -518.5381196186686, 0.0]
['beep', 0.0, 1305.7889110790386, 0.0, 0.0, 0.0, 0.0, -511.56437534861277, 0.0]
['beep', 0.0, 1299.1727947202678, 0.0, 0.0, 0.0, 0.0, -472.0464911516299, 0.0]
['beep', 0.0, 1284.5100503575864, 0.0, 0.0, 0.0, 0.0, -444.71030768278933, 0.0]
['beep', 0.0, 1281.8278410229495, 0.0, 0.0, 0.0, 0.0, -458.9707206452752, 0.0]
['beep', 0.0, 1294.9483150182148, 0.0, 0.0, 0.0, 0.0, -505.1270729454843, 0.0]
['beep', 0.0, 1306.034780268047, 0.0, 0.0, 0.0, 0.0, -511.6761340708893, 0.0]
['beep', 0.0, 1299.1504429758124, 0.0, 0.0, 0.0, 0.0, -512.3466864045484, 0.0]
['beep', 0.0, 1282.6325038233406, 0.0, 0.0, 0.0, 0.0, -517.0852562290736, 0.0]
['beep', 0.0, 1280.933771244737, 0.0, 0.0, 0.0, 0.0, -519.9239277748976, 0.0]
['beep', 0.0, 1294.903611529304, 0.0, 0.0, 0.0, 0.0, -518.1357882184731, 0.0]
['beep', 0.0, 1306.1241872458681, 0.0, 0.0, 0.0, 0.0, -513.0842939715736, 0.0]
['beep', 0.0, 1300.804472065505, 0.0, 0.0, 0.0, 0.0, -511.5867270930681, 0.0]
['beep', 0.0, 1286.4099486362875, 0.0, 0.0, 0.0, 0.0, -516.7499800622439, 0.0]
['beep', 0.0, 1282.677207312251, 0.0, 0.0, 0.0, 0.0, -518.6945818298557, 0.0]
['beep', 0.0, 1295.909440029793, 0.0, 0.0, 0.0, 0.0, -515.587689350568, 0.0]
['beep', 0.0, 1307.286477957544, 0.0, 0.0, 0.0, 0.0, -512.5478521046463, 0.0]
['beep', 0.0, 1300.8715272988711, 0.0, 0.0, 0.0, 0.0, -514.1795294498837, 0.0]
['beep', 0.0, 1286.0746724694577, 0.0, 0.0, 0.0, 0.0, -515.5653376061127, 0.0]
['beep', 0.0, 1282.677207312251, 0.0, 0.0, 0.0, 0.0, -519.2757271856937, 0.0]
['beep', 0.0, 1296.1329574743459, 0.0, 0.0, 0.0, 0.0, -516.4147038954144, 0.0]
['beep', 0.0, 1308.225251224667, 0.0, 0.0, 0.0, 0.0, -511.2290991817831, 0.0]
['beep', 0.0, 1301.7208935881727, 0.0, 0.0, 0.0, 0.0, -513.7548463052328, 0.0]
['beep', 0.0, 1287.3487219034103, 0.0, 0.0, 0.0, 0.0, -516.9287940178864, 0.0]
['beep', 0.0, 1283.2136491791784, 0.0, 0.0, 0.0, 0.0, -520.8179975531099, 0.0]
['beep', 0.0, 1296.8482132969157, 0.0, 0.0, 0.0, 0.0, -518.1357882184731, 0.0]
['beep', 0.0, 1308.0240855245693, 0.0, 0.0, 0.0, 0.0, -507.65282006893403, 0.0]
['beep', 0.0, 1301.229155210156, 0.0, 0.0, 0.0, 0.0, -463.8881044254428, 0.0]
['beep', 0.0, 1286.4993556141087, 0.0, 0.0, 0.0, 0.0, -441.24578729221673, 0.0]
['beep', 0.0, 1282.7889660345277, 0.0, 0.0, 0.0, 0.0, -457.71902295577803, 0.0]
['beep', 0.0, 1295.417701651776, 0.0, 0.0, 0.0, 0.0, -505.3505903900374, 0.0]
['beep', 0.0, 1308.225251224667, 0.0, 0.0, 0.0, 0.0, -512.5478521046463, 0.0]
['beep', 0.0, 1302.2126319661895, 0.0, 0.0, 0.0, 0.0, -513.2407561827607, 0.0]
['beep', 0.0, 1285.6723410692623, 0.0, 0.0, 0.0, 0.0, -518.5157678742132, 0.0]
['beep', 0.0, 1283.191297434723, 0.0, 0.0, 0.0, 0.0, -520.7956458086545, 0.0]
['beep', 0.0, 1294.3671696623767, 0.0, 0.0, 0.0, 0.0, -519.879224285987, 0.0]
['beep', 0.0, 1306.772387835072, 0.0, 0.0, 0.0, 0.0, -515.1406544614618, 0.0]
['beep', 0.0, 1303.1737569777677, 0.0, 0.0, 0.0, 0.0, -514.268936427705, 0.0]
['beep', 0.0, 1286.1193759583684, 0.0, 0.0, 0.0, 0.0, -518.7616370632217, 0.0]
['beep', 0.0, 1283.7277393016504, 0.0, 0.0, 0.0, 0.0, -519.6557068414339, 0.0]
['beep', 0.0, 1295.2165359516785, 0.0, 0.0, 0.0, 0.0, -517.6887533293669, 0.0]
['beep', 0.0, 1306.4371116682426, 0.0, 0.0, 0.0, 0.0, -516.7946835511545, 0.0]
['beep', 0.0, 1300.8268238099604, 0.0, 0.0, 0.0, 0.0, -518.2475469407495, 0.0]
['beep', 0.0, 1286.0746724694577, 0.0, 0.0, 0.0, 0.0, -516.3476486620484, 0.0]
['beep', 0.0, 1282.7219108011618, 0.0, 0.0, 0.0, 0.0, -517.6664015849116, 0.0]
['beep', 0.0, 1296.0211987520695, 0.0, 0.0, 0.0, 0.0, -516.0794277285847, 0.0]
['beep', 0.0, 1308.3817134358542, 0.0, 0.0, 0.0, 0.0, -513.0619422271183, 0.0]
['beep', 0.0, 1303.6431436113292, 0.0, 0.0, 0.0, 0.0, -491.201936149828, 0.0]
['beep', 0.0, 1288.3098469149884, 0.0, 0.0, 0.0, 0.0, -447.79484841762167, 0.0]
['beep', 0.0, 1284.6218090798627, 0.0, 0.0, 0.0, 0.0, -458.5683892450797, 0.0]
['beep', 0.0, 1300.1115679873906, 0.0, 0.0, 0.0, 0.0, -504.85885201202063, 0.0]
['beep', 0.0, 1312.6956001157284, 0.0, 0.0, 0.0, 0.0, -512.458445126825, 0.0]
['beep', 0.0, 1302.1679284772788, 0.0, 0.0, 0.0, 0.0, -513.620735838501, 0.0]
['beep', 0.0, 1281.2019921782007, 0.0, 0.0, 0.0, 0.0, -519.298078930149, 0.0]
['beep', 0.0, 1274.228247908145, 0.0, 0.0, 0.0, 0.0, -522.2038057093389, 0.0]
['beep', 0.0, 1284.1747741907566, 0.0, 0.0, 0.0, 0.0, -518.9404510188641, 0.0]
['beep', 0.0, 1295.4847568851421, 0.0, 0.0, 0.0, 0.0, -515.5653376061127, 0.0]
['beep', 0.0, 1290.7014835717064, 0.0, 0.0, 0.0, 0.0, -515.4759306282915, 0.0]
['beep', 0.0, 1277.6927682987175, 0.0, 0.0, 0.0, 0.0, -519.2086719523278, 0.0]
['beep', 0.0, 1273.6247508078518, 0.0, 0.0, 0.0, 0.0, -522.3379161760707, 0.0]
['beep', 0.0, 1287.2146114366785, 0.0, 0.0, 0.0, 0.0, -520.4827213862802, 0.0]
['beep', 0.0, 1299.1727947202678, 0.0, 0.0, 0.0, 0.0, -519.4992446302467, 0.0]
['beep', 0.0, 1292.4672713836756, 0.0, 0.0, 0.0, 0.0, -519.6780585858892, 0.0]
['beep', 0.0, 1276.0834426979354, 0.0, 0.0, 0.0, 0.0, -520.8179975531099, 0.0]
['beep', 0.0, 1273.423585107754, 0.0, 0.0, 0.0, 0.0, -522.2932126871601, 0.0]
['beep', 0.0, 1286.0299689805472, 0.0, 0.0, 0.0, 0.0, -520.2145004528165, 0.0]
['beep', 0.0, 1298.166966219779, 0.0, 0.0, 0.0, 0.0, -517.1523114624395, 0.0]
['beep', 0.0, 1291.7520155611057, 0.0, 0.0, 0.0, 0.0, -516.2582416842272, 0.0]
['beep', 0.0, 1276.5304775870416, 0.0, 0.0, 0.0, 0.0, -520.683887086378, 0.0]
['beep', 0.0, 1273.1106606853796, 0.0, 0.0, 0.0, 0.0, -522.717895831811, 0.0]
['beep', 0.0, 1286.2534864251002, 0.0, 0.0, 0.0, 0.0, -518.6498783409451, 0.0]
['beep', 0.0, 1298.3681319198768, 0.0, 0.0, 0.0, 0.0, -510.40208463693676, 0.0]
['beep', 0.0, 1293.8530795399047, 0.0, 0.0, 0.0, 0.0, -464.04456663662995, 0.0]
['beep', 0.0, 1279.1903351772232, 0.0, 0.0, 0.0, 0.0, -442.8327611485435, 0.0]
['beep', 0.0, 1275.2117246641785, 0.0, 0.0, 0.0, 0.0, -467.62084574947903, 0.0]
['beep', 0.0, 1287.4381288812315, 0.0, 0.0, 0.0, 0.0, -512.81607303811, 0.0]
['beep', 0.0, 1299.642181353829, 0.0, 0.0, 0.0, 0.0, -516.9064422734311, 0.0]
['beep', 0.0, 1292.9590097616924, 0.0, 0.0, 0.0, 0.0, -516.4817591287803, 0.0]
['beep', 0.0, 1276.4187188647652, 0.0, 0.0, 0.0, 0.0, -519.2086719523278, 0.0]
['beep', 0.0, 1273.6694542967623, 0.0, 0.0, 0.0, 0.0, -521.3320876755819, 0.0]
['beep', 0.0, 1285.3147131579774, 0.0, 0.0, 0.0, 0.0, -518.9180992744087, 0.0]
['beep', 0.0, 1298.9269255312593, 0.0, 0.0, 0.0, 0.0, -515.9006137729423, 0.0]
['beep', 0.0, 1295.9764952631588, 0.0, 0.0, 0.0, 0.0, -515.4982823727468, 0.0]
['beep', 0.0, 1281.7831375340388, 0.0, 0.0, 0.0, 0.0, -519.0522097411406, 0.0]
['beep', 0.0, 1280.77730903355, 0.0, 0.0, 0.0, 0.0, -520.7732940641993, 0.0]
['beep', 0.0, 1294.2107074511896, 0.0, 0.0, 0.0, 0.0, -517.5322911181797, 0.0]
['beep', 0.0, 1306.6382773683404, 0.0, 0.0, 0.0, 0.0, -512.8831282714758, 0.0]
['beep', 0.0, 1298.7257598311617, 0.0, 0.0, 0.0, 0.0, -514.2465846832496, 0.0]
['beep', 0.0, 1281.4702131116644, 0.0, 0.0, 0.0, 0.0, -516.5935178510568, 0.0]
['beep', 0.0, 1274.004730463592, 0.0, 0.0, 0.0, 0.0, -519.9462795193529, 0.0]
['beep', 0.0, 1286.6334660808404, 0.0, 0.0, 0.0, 0.0, -517.9346225183752, 0.0]
['beep', 0.0, 1299.619829609374, 0.0, 0.0, 0.0, 0.0, -515.3641719060149, 0.0]
['beep', 0.0, 1293.741320817628, 0.0, 0.0, 0.0, 0.0, -516.0347242396741, 0.0]
['beep', 0.0, 1279.391500877321, 0.0, 0.0, 0.0, 0.0, -521.265032442216, 0.0]
['beep', 0.0, 1274.518820586064, 0.0, 0.0, 0.0, 0.0, -524.1707592214059, 0.0]
['beep', 0.0, 1287.7957567925164, 0.0, 0.0, 0.0, 0.0, -520.683887086378, 0.0]
['beep', 0.0, 1301.1397482323348, 0.0, 0.0, 0.0, 0.0, -512.9054800159312, 0.0]
['beep', 0.0, 1295.4847568851421, 0.0, 0.0, 0.0, 0.0, -469.2301713502612, 0.0]
['beep', 0.0, 1279.8161840219718, 0.0, 0.0, 0.0, 0.0, -443.61507220447925, 0.0]
['beep', 0.0, 1275.904628742293, 0.0, 0.0, 0.0, 0.0, -455.2379793212389, 0.0]
['beep', 0.0, 1288.712178315184, 0.0, 0.0, 0.0, 0.0, -503.3165816446044, 0.0]
['beep', 0.0, 1300.1786232207564, 0.0, 0.0, 0.0, 0.0, -517.040552740163, 0.0]
['beep', 0.0, 1295.2388876961336, 0.0, 0.0, 0.0, 0.0, -518.0240294961965, 0.0]
['beep', 0.0, 1279.615018321874, 0.0, 0.0, 0.0, 0.0, -521.1756254643948, 0.0]
['beep', 0.0, 1274.809393263983, 0.0, 0.0, 0.0, 0.0, -522.2038057093389, 0.0]
['beep', 0.0, 1288.0416259815247, 0.0, 0.0, 0.0, 0.0, -519.2757271856937, 0.0]
['beep', 0.0, 1300.7150650876838, 0.0, 0.0, 0.0, 0.0, -515.6100410950233, 0.0]
['beep', 0.0, 1294.8142045514828, 0.0, 0.0, 0.0, 0.0, -517.1523114624395, 0.0]
['beep', 0.0, 1278.9891694771254, 0.0, 0.0, 0.0, 0.0, -519.3204306746043, 0.0]
['beep', 0.0, 1275.7258147866505, 0.0, 0.0, 0.0, 0.0, -523.5002068877467, 0.0]
['beep', 0.0, 1288.131032959346, 0.0, 0.0, 0.0, 0.0, -522.427323153892, 0.0]
['beep', 0.0, 1300.6927133432287, 0.0, 0.0, 0.0, 0.0, -519.1639684634172, 0.0]
['beep', 0.0, 1296.1329574743459, 0.0, 0.0, 0.0, 0.0, -519.1639684634172, 0.0]
['beep', 0.0, 1281.067881711469, 0.0, 0.0, 0.0, 0.0, -520.9521080198417, 0.0]
['beep', 0.0, 1276.5975328204077, 0.0, 0.0, 0.0, 0.0, -521.3097359311266, 0.0]
['beep', 0.0, 1289.6062480933963, 0.0, 0.0, 0.0, 0.0, -519.0969132300512, 0.0]
['beep', 0.0, 1301.7208935881727, 0.0, 0.0, 0.0, 0.0, -516.8170352956099, 0.0]
['beep', 0.0, 1298.1446144753236, 0.0, 0.0, 0.0, 0.0, -519.1863202078724, 0.0]
['beep', 0.0, 1280.6208468223629, 0.0, 0.0, 0.0, 0.0, -521.8908812869646, 0.0]
['beep', 0.0, 1276.999864220603, 0.0, 0.0, 0.0, 0.0, -523.7237243322998, 0.0]
['beep', 0.0, 1290.0756347269578, 0.0, 0.0, 0.0, 0.0, -521.4885498867691, 0.0]
['beep', 0.0, 1303.8890128003375, 0.0, 0.0, 0.0, 0.0, -515.1183027170066, 0.0]
['beep', 0.0, 1298.3681319198768, 0.0, 0.0, 0.0, 0.0, -473.87933419696503, 0.0]
['beep', 0.0, 1282.811317778983, 0.0, 0.0, 0.0, 0.0, -446.47609549475857, 0.0]
['beep', 0.0, 1276.9775124761477, 0.0, 0.0, 0.0, 0.0, -463.99986314771934, 0.0]
['beep', 0.0, 1289.7403585601282, 0.0, 0.0, 0.0, 0.0, -512.3466864045484, 0.0]
['beep', 0.0, 1303.0172947665806, 0.0, 0.0, 0.0, 0.0, -520.3709626640037, 0.0]
['beep', 0.0, 1298.1893179642343, 0.0, 0.0, 0.0, 0.0, -518.6722300854004, 0.0]
['beep', 0.0, 1282.811317778983, 0.0, 0.0, 0.0, 0.0, -521.8238260535987, 0.0]
['beep', 0.0, 1278.0280444655473, 0.0, 0.0, 0.0, 0.0, -525.0648289996182, 0.0]
['beep', 0.0, 1291.2155736941784, 0.0, 0.0, 0.0, 0.0, -522.6955440873556, 0.0]
['beep', 0.0, 1300.7374168321392, 0.0, 0.0, 0.0, 0.0, -519.7451138192552, 0.0]
['beep', 0.0, 1297.7422830751282, 0.0, 0.0, 0.0, 0.0, -519.812169052621, 0.0]
['beep', 0.0, 1284.2641811685778, 0.0, 0.0, 0.0, 0.0, -525.19893946635, 0.0]
['beep', 0.0, 1278.519782843564, 0.0, 0.0, 0.0, 0.0, -527.523520889702, 0.0]
['beep', 0.0, 1292.2437539391226, 0.0, 0.0, 0.0, 0.0, -525.0648289996182, 0.0]
['beep', 0.0, 1304.4031029228095, 0.0, 0.0, 0.0, 0.0, -520.9297562753864, 0.0]
['beep', 0.0, 1300.8938790433263, 0.0, 0.0, 0.0, 0.0, -519.6110033525233, 0.0]
['beep', 0.0, 1286.5440591030192, 0.0, 0.0, 0.0, 0.0, -523.231985954283, 0.0]
['beep', 0.0, 1281.1572886892902, 0.0, 0.0, 0.0, 0.0, -525.265994699716, 0.0]
['beep', 0.0, 1293.584858606441, 0.0, 0.0, 0.0, 0.0, -523.5002068877467, 0.0]
['beep', 0.0, 1305.811262823494, 0.0, 0.0, 0.0, 0.0, -519.9686312638082, 0.0]
['beep', 0.0, 1302.2573354551, 0.0, 0.0, 0.0, 0.0, -518.5604713631238, 0.0]
['beep', 0.0, 1285.9182102582706, 0.0, 0.0, 0.0, 0.0, -520.8850527864757, 0.0]
['beep', 0.0, 1280.6208468223629, 0.0, 0.0, 0.0, 0.0, -523.5002068877467, 0.0]
['beep', 0.0, 1293.1378237173349, 0.0, 0.0, 0.0, 0.0, -521.8238260535987, 0.0]
['beep', 0.0, 1305.5877453789408, 0.0, 0.0, 0.0, 0.0, -518.0910847295625, 0.0]
['beep', 0.0, 1300.3127336874884, 0.0, 0.0, 0.0, 0.0, -481.7694999896884, 0.0]
['beep', 0.0, 1284.3088846574885, 0.0, 0.0, 0.0, 0.0, -447.2137030617837, 0.0]
['beep', 0.0, 1279.7267770441506, 0.0, 0.0, 0.0, 0.0, -453.67335720936745, 0.0]
['beep', 0.0, 1290.2097451936895, 0.0, 0.0, 0.0, 0.0, -499.8744129984872, 0.0]
['beep', 0.0, 1301.743245332628, 0.0, 0.0, 0.0, 0.0, -516.9064422734311, 0.0]
['beep', 0.0, 1299.7315883316503, 0.0, 0.0, 0.0, 0.0, -518.0687329851071, 0.0]
['beep', 0.0, 1284.6888643132288, 0.0, 0.0, 0.0, 0.0, -522.136750475973, 0.0]
['beep', 0.0, 1278.810355521483, 0.0, 0.0, 0.0, 0.0, -526.4059336669367, 0.0]
['beep', 0.0, 1289.8968207713153, 0.0, 0.0, 0.0, 0.0, -524.3495731770483, 0.0]
['beep', 0.0, 1302.391445921832, 0.0, 0.0, 0.0, 0.0, -519.2086719523278, 0.0]
['beep', 0.0, 1300.8491755544158, 0.0, 0.0, 0.0, 0.0, -518.7392853187663, 0.0]
['beep', 0.0, 1284.6665125687734, 0.0, 0.0, 0.0, 0.0, -522.3379161760707, 0.0]
['beep', 0.0, 1278.5421345880193, 0.0, 0.0, 0.0, 0.0, -524.617794110512, 0.0]
['beep', 0.0, 1290.9473527607147, 0.0, 0.0, 0.0, 0.0, -524.394276665959, 0.0]
['beep', 0.0, 1303.5760883779633, 0.0, 0.0, 0.0, 0.0, -521.041514997663, 0.0]
['beep', 0.0, 1298.2563731976002, 0.0, 0.0, 0.0, 0.0, -517.8228637960988, 0.0]
['beep', 0.0, 1281.8501927674047, 0.0, 0.0, 0.0, 0.0, -521.6673638424115, 0.0]
['beep', 0.0, 1278.6091898213851, 0.0, 0.0, 0.0, 0.0, -524.5730906216014, 0.0]
['beep', 0.0, 1289.069806226469, 0.0, 0.0, 0.0, 0.0, -524.0813522435847, 0.0]
['beep', 0.0, 1301.4973761436197, 0.0, 0.0, 0.0, 0.0, -520.1697969639059, 0.0]
['beep', 0.0, 1297.0270272525581, 0.0, 0.0, 0.0, 0.0, -519.7898173081658, 0.0]
['beep', 0.0, 1282.0513584675025, 0.0, 0.0, 0.0, 0.0, -522.7402475762663, 0.0]
['beep', 0.0, 1276.485774098131, 0.0, 0.0, 0.0, 0.0, -524.0813522435847, 0.0]
['beep', 0.0, 1289.226268437656, 0.0, 0.0, 0.0, 0.0, -522.2485091982495, 0.0]
['beep', 0.0, 1300.6033063654074, 0.0, 0.0, 0.0, 0.0, -517.3534771625373, 0.0]
['beep', 0.0, 1298.5245941310638, 0.0, 0.0, 0.0, 0.0, -483.0435494236409, 0.0]
['beep', 0.0, 1280.9561229891924, 0.0, 0.0, 0.0, 0.0, -447.79484841762167, 0.0]
['beep', 0.0, 1275.1446694308127, 0.0, 0.0, 0.0, 0.0, -455.2156275767836, 0.0]
['beep', 0.0, 1287.9298672592483, 0.0, 0.0, 0.0, 0.0, -503.42834036688095, 0.0]
['beep', 0.0, 1299.619829609374, 0.0, 0.0, 0.0, 0.0, -517.7111050738222, 0.0]
['beep', 0.0, 1294.8589080403935, 0.0, 0.0, 0.0, 0.0, -516.1241312174953, 0.0]
['beep', 0.0, 1281.2690474115668, 0.0, 0.0, 0.0, 0.0, -519.7227620747998, 0.0]
['beep', 0.0, 1275.68111129774, 0.0, 0.0, 0.0, 0.0, -522.5167301317132, 0.0]
['beep', 0.0, 1286.6781695697512, 0.0, 0.0, 0.0, 0.0, -522.136750475973, 0.0]
['beep', 0.0, 1300.7597685765945, 0.0, 0.0, 0.0, 0.0, -518.4040091519367, 0.0]
['beep', 0.0, 1295.7529778186058, 0.0, 0.0, 0.0, 0.0, -517.9346225183752, 0.0]
['beep', 0.0, 1281.2466956671115, 0.0, 0.0, 0.0, 0.0, -520.1697969639059, 0.0]
['beep', 0.0, 1277.3798438763433, 0.0, 0.0, 0.0, 0.0, -522.9414132763641, 0.0]
['beep', 0.0, 1290.5003178716086, 0.0, 0.0, 0.0, 0.0, -519.6110033525233, 0.0]
['beep', 0.0, 1303.2631639555889, 0.0, 0.0, 0.0, 0.0, -515.6994480728446, 0.0]
['beep', 0.0, 1298.390483664332, 0.0, 0.0, 0.0, 0.0, -516.1241312174953, 0.0]
['beep', 0.0, 1282.6101520788852, 0.0, 0.0, 0.0, 0.0, -519.7451138192552, 0.0]
['beep', 0.0, 1277.290436898522, 0.0, 0.0, 0.0, 0.0, -521.1532737199394, 0.0]
['beep', 0.0, 1288.868640526371, 0.0, 0.0, 0.0, 0.0, -521.3767911644925, 0.0]
['beep', 0.0, 1301.3409139324324, 0.0, 0.0, 0.0, 0.0, -516.2582416842272, 0.0]
['beep', 0.0, 1297.5411173750304, 0.0, 0.0, 0.0, 0.0, -515.8559102840317, 0.0]
['beep', 0.0, 1282.4760416121533, 0.0, 0.0, 0.0, 0.0, -518.9180992744087, 0.0]
['beep', 0.0, 1277.133974687335, 0.0, 0.0, 0.0, 0.0, -522.1591022204283, 0.0]
['beep', 0.0, 1289.7180068156729, 0.0, 0.0, 0.0, 0.0, -519.6333550969786, 0.0]
['beep', 0.0, 1302.4137976662873, 0.0, 0.0, 0.0, 0.0, -514.2242329387943, 0.0]
['beep', 0.0, 1299.619829609374, 0.0, 0.0, 0.0, 0.0, -475.3992528199259, 0.0]
['beep', 0.0, 1283.5265736015529, 0.0, 0.0, 0.0, 0.0, -444.41973500487035, 0.0]
['beep', 0.0, 1278.162154932279, 0.0, 0.0, 0.0, 0.0, -455.61795897697914, 0.0]
['beep', 0.0, 1290.6344283383405, 0.0, 0.0, 0.0, 0.0, -502.8918984999536, 0.0]
['beep', 0.0, 1303.9784197781587, 0.0, 0.0, 0.0, 0.0, -515.6323928394786, 0.0]
['beep', 0.0, 1300.7150650876838, 0.0, 0.0, 0.0, 0.0, -514.2465846832496, 0.0]
['beep', 0.0, 1284.2865329130332, 0.0, 0.0, 0.0, 0.0, -518.8957475299535, 0.0]
['beep', 0.0, 1279.2126869216786, 0.0, 0.0, 0.0, 0.0, -521.6450120979563, 0.0]
['beep', 0.0, 1289.87446902686, 0.0, 0.0, 0.0, 0.0, -519.3651341635149, 0.0]
['beep', 0.0, 1302.5032046441086, 0.0, 0.0, 0.0, 0.0, -516.459407384325, 0.0]
['beep', 0.0, 1298.7034080867063, 0.0, 0.0, 0.0, 0.0, -515.9900207507635, 0.0]
['beep', 0.0, 1282.364282889877, 0.0, 0.0, 0.0, 0.0, -518.1581399629283, 0.0]
['beep', 0.0, 1277.5810095764411, 0.0, 0.0, 0.0, 0.0, -521.0638667421182, 0.0]
['beep', 0.0, 1289.2709719265667, 0.0, 0.0, 0.0, 0.0, -520.5721283641014, 0.0]
['beep', 0.0, 1301.8326523104492, 0.0, 0.0, 0.0, 0.0, -516.2582416842272, 0.0]
['beep', 0.0, 1296.870565041371, 0.0, 0.0, 0.0, 0.0, -515.297116672649, 0.0]
['beep', 0.0, 1282.4536898676981, 0.0, 0.0, 0.0, 0.0, -517.9569742628306, 0.0]
['beep', 0.0, 1277.3351403874326, 0.0, 0.0, 0.0, 0.0, -519.1639684634172, 0.0]
['beep', 0.0, 1289.807413793494, 0.0, 0.0, 0.0, 0.0, -517.4875876292691, 0.0]
['beep', 0.0, 1300.938582532237, 0.0, 0.0, 0.0, 0.0, -516.4817591287803, 0.0]
['beep', 0.0, 1298.5469458755192, 0.0, 0.0, 0.0, 0.0, -515.9900207507635, 0.0]
['beep', 0.0, 1283.906553257293, 0.0, 0.0, 0.0, 0.0, -519.3874859079702, 0.0]
['beep', 0.0, 1277.4692508541646, 0.0, 0.0, 0.0, 0.0, -521.7344190757775, 0.0]
['beep', 0.0, 1289.1368614598348, 0.0, 0.0, 0.0, 0.0, -520.4827213862802, 0.0]
['beep', 0.0, 1304.3360476894436, 0.0, 0.0, 0.0, 0.0, -511.2738026706937, 0.0]
['beep', 0.0, 1299.5974778649186, 0.0, 0.0, 0.0, 0.0, -465.2739125816718, 0.0]
['beep', 0.0, 1283.6383323238292, 0.0, 0.0, 0.0, 0.0, -444.03975534913013, 0.0]
['beep', 0.0, 1278.0950996989131, 0.0, 0.0, 0.0, 0.0, -452.4663630087809, 0.0]
['beep', 0.0, 1290.0532829825024, 0.0, 0.0, 0.0, 0.0, -498.4662530978028, 0.0]
['beep', 0.0, 1303.5090331445972, 0.0, 0.0, 0.0, 0.0, -516.5935178510568, 0.0]
['beep', 0.0, 1299.8209953094715, 0.0, 0.0, 0.0, 0.0, -515.9229655173976, 0.0]
['beep', 0.0, 1283.7277393016504, 0.0, 0.0, 0.0, 0.0, -520.7732940641993, 0.0]
['beep', 0.0, 1278.3409688879215, 0.0, 0.0, 0.0, 0.0, -523.7237243322998, 0.0]
['beep', 0.0, 1289.5615446044856, 0.0, 0.0, 0.0, 0.0, -520.1474452194507, 0.0]
['beep', 0.0, 1301.0503412545136, 0.0, 0.0, 0.0, 0.0, -516.3029451731378, 0.0]
['beep', 0.0, 1298.2787249420555, 0.0, 0.0, 0.0, 0.0, -515.8335585395764, 0.0]
['beep', 0.0, 1283.906553257293, 0.0, 0.0, 0.0, 0.0, -519.1416167189618, 0.0]
['beep', 0.0, 1277.0892711984243, 0.0, 0.0, 0.0, 0.0, -523.522558632202, 0.0]
['beep', 0.0, 1288.7792335485499, 0.0, 0.0, 0.0, 0.0, -522.4943783872579, 0.0]
['beep', 0.0, 1301.6314866103514, 0.0, 0.0, 0.0, 0.0, -517.3087736736267, 0.0]
['beep', 0.0, 1297.6081726083962, 0.0, 0.0, 0.0, 0.0, -516.7499800622439, 0.0]
['beep', 0.0, 1282.7889660345277, 0.0, 0.0, 0.0, 0.0, -520.7956458086545, 0.0]
['beep', 0.0, 1276.9551607316926, 0.0, 0.0, 0.0, 0.0, -522.8743580429981, 0.0]
['beep', 0.0, 1289.2709719265667, 0.0, 0.0, 0.0, 0.0, -520.7062388308333, 0.0]
['beep', 0.0, 1300.6703615987733, 0.0, 0.0, 0.0, 0.0, -517.4652358848138, 0.0]
['beep', 0.0, 1300.4021406653096, 0.0, 0.0, 0.0, 0.0, -516.8170352956099, 0.0]
['beep', 0.0, 1283.0795387124467, 0.0, 0.0, 0.0, 0.0, -518.9180992744087, 0.0]
['beep', 0.0, 1277.0445677095138, 0.0, 0.0, 0.0, 0.0, -521.555605120135, 0.0]
['beep', 0.0, 1289.1592132042902, 0.0, 0.0, 0.0, 0.0, -520.5944801085568, 0.0]
['beep', 0.0, 1301.9667627771812, 0.0, 0.0, 0.0, 0.0, -515.878262028487, 0.0]
['beep', 0.0, 1298.681056342251, 0.0, 0.0, 0.0, 0.0, -491.492508827747, 0.0]
['beep', 0.0, 1284.1747741907566, 0.0, 0.0, 0.0, 0.0, -445.5820257165463, 0.0]
['beep', 0.0, 1279.8385357664272, 0.0, 0.0, 0.0, 0.0, -450.94644438582, 0.0]
['beep', 0.0, 1290.1426899603237, 0.0, 0.0, 0.0, 0.0, -500.38850312095923, 0.0]
['beep', 0.0, 1304.1795854782565, 0.0, 0.0, 0.0, 0.0, -513.5760323495904, 0.0]
['beep', 0.0, 1300.7597685765945, 0.0, 0.0, 0.0, 0.0, -512.9054800159312, 0.0]
['beep', 0.0, 1284.7335678021393, 0.0, 0.0, 0.0, 0.0, -515.654744583934, 0.0]
['beep', 0.0, 1278.810355521483, 0.0, 0.0, 0.0, 0.0, -518.4487126408474, 0.0]
['beep', 0.0, 1289.87446902686, 0.0, 0.0, 0.0, 0.0, -517.3758289069925, 0.0]
['beep', 0.0, 1302.8608325553935, 0.0, 0.0, 0.0, 0.0, -513.5760323495904, 0.0]
['beep', 0.0, 1300.8268238099604, 0.0, 0.0, 0.0, 0.0, -511.38556139297026, 0.0]
['beep', 0.0, 1286.2534864251002, 0.0, 0.0, 0.0, 0.0, -514.6712678279005, 0.0]
['beep', 0.0, 1279.5032595995974, 0.0, 0.0, 0.0, 0.0, -517.8228637960988, 0.0]
['beep', 0.0, 1290.5003178716086, 0.0, 0.0, 0.0, 0.0, -515.6100410950233, 0.0]
['beep', 0.0, 1303.3749226778655, 0.0, 0.0, 0.0, 0.0, -513.4642736273138, 0.0]
['beep', 0.0, 1301.1173964878794, 0.0, 0.0, 0.0, 0.0, -512.3913898934591, 0.0]
['beep', 0.0, 1285.8735067693601, 0.0, 0.0, 0.0, 0.0, -515.7888550506658, 0.0]
['beep', 0.0, 1279.2126869216786, 0.0, 0.0, 0.0, 0.0, -520.1921487083613, 0.0]
['beep', 0.0, 1289.3156754154772, 0.0, 0.0, 0.0, 0.0, -517.0182009957076, 0.0]
['beep', 0.0, 1299.5527743760078, 0.0, 0.0, 0.0, 0.0, -511.9220032598977, 0.0]
['beep', 0.0, 1296.2670679410778, 0.0, 0.0, 0.0, 0.0, -487.849174481532, 0.0]
['beep', 0.0, 1288.6898265707287, 0.0, 0.0, 0.0, 0.0, -444.6656041938787, 0.0]
['beep', 0.0, 1287.5722393479634, 0.0, 0.0, 0.0, 0.0, -446.8784268949541, 0.0]
['beep', 0.0, 1299.619829609374, 0.0, 0.0, 0.0, 0.0, -494.3535321180263, 0.0]
['beep', 0.0, 1310.7957018370273, 0.0, 0.0, 0.0, 0.0, -509.30684915862673, 0.0]
['beep', 0.0, 1307.130015746357, 0.0, 0.0, 0.0, 0.0, -509.35155264753735, 0.0]
['beep', 0.0, 1291.8637742833823, 0.0, 0.0, 0.0, 0.0, -510.75971254822167, 0.0]
['beep', 0.0, 1286.611114336385, 0.0, 0.0, 0.0, 0.0, -513.9783637497859, 0.0]
['beep', 0.0, 1296.8929167858264, 0.0, 0.0, 0.0, 0.0, -513.3972183939479, 0.0]
['beep', 0.0, 1311.063922770491, 0.0, 0.0, 0.0, 0.0, -511.2290991817831, 0.0]
['beep', 0.0, 1307.2194227241782, 0.0, 0.0, 0.0, 0.0, -512.0561137266295, 0.0]
['beep', 0.0, 1292.0649399834801, 0.0, 0.0, 0.0, 0.0, -514.1348259609731, 0.0]
['beep', 0.0, 1286.3428934029214, 0.0, 0.0, 0.0, 0.0, -516.1017794730401, 0.0]
['beep', 0.0, 1295.9317917742483, 0.0, 0.0, 0.0, 0.0, -514.1571777054284, 0.0]
['beep', 0.0, 1309.096969258424, 0.0, 0.0, 0.0, 0.0, -510.04445672565186, 0.0]
['beep', 0.0, 1305.6324488678515, 0.0, 0.0, 0.0, 0.0, -509.08333171407367, 0.0]
['beep', 0.0, 1291.0591114829913, 0.0, 0.0, 0.0, 0.0, -512.7266660602887, 0.0]
['beep', 0.0, 1284.8900300133264, 0.0, 0.0, 0.0, 0.0, -515.3641719060149, 0.0]
['beep', 0.0, 1297.6081726083962, 0.0, 0.0, 0.0, 0.0, -514.4477503833474, 0.0]
['beep', 0.0, 1313.16498674929, 0.0, 0.0, 0.0, 0.0, -510.8491195260429, 0.0]
['beep', 0.0, 1312.0473995265245, 0.0, 0.0, 0.0, 0.0, -508.9268695028865, 0.0]
['beep', 0.0, 1296.579992363452, 0.0, 0.0, 0.0, 0.0, -512.7266660602887, 0.0]
['beep', 0.0, 1287.9522190037035, 0.0, 0.0, 0.0, 0.0, -513.3525149050373, 0.0]
['beep', 0.0, 1299.0386842535358, 0.0, 0.0, 0.0, 0.0, -511.1396922039619, 0.0]
['beep', 0.0, 1310.326315203466, 0.0, 0.0, 0.0, 0.0, -505.0153142232078, 0.0]
['beep', 0.0, 1308.0911407579351, 0.0, 0.0, 0.0, 0.0, -463.0610898805964, 0.0]
['beep', 0.0, 1292.1096434723906, 0.0, 0.0, 0.0, 0.0, -436.57427270105757, 0.0]
['beep', 0.0, 1283.906553257293, 0.0, 0.0, 0.0, 0.0, -451.9075693973982, 0.0]
['beep', 0.0, 1294.1883557067342, 0.0, 0.0, 0.0, 0.0, -499.6061920650235, 0.0]
['beep', 0.0, 1308.426416924765, 0.0, 0.0, 0.0, 0.0, -509.03862822516305, 0.0]
['beep', 0.0, 1307.3088297019995, 0.0, 0.0, 0.0, 0.0, -510.96087824831943, 0.0]
['beep', 0.0, 1291.483794627642, 0.0, 0.0, 0.0, 0.0, -513.620735838501, 0.0]
['beep', 0.0, 1284.2418294241227, 0.0, 0.0, 0.0, 0.0, -514.2465846832496, 0.0]
['beep', 0.0, 1295.2388876961336, 0.0, 0.0, 0.0, 0.0, -514.3583434055262, 0.0]
['beep', 0.0, 1309.7675215920833, 0.0, 0.0, 0.0, 0.0, -510.37973289248146, 0.0]
['beep', 0.0, 1308.3817134358542, 0.0, 0.0, 0.0, 0.0, -509.5080148587245, 0.0]
['beep', 0.0, 1293.4060446507985, 0.0, 0.0, 0.0, 0.0, -512.5702038491015, 0.0]
['beep', 0.0, 1285.2029544357008, 0.0, 0.0, 0.0, 0.0, -514.3359916610708, 0.0]
['beep', 0.0, 1297.4517103972091, 0.0, 0.0, 0.0, 0.0, -512.1231689599954, 0.0]
['beep', 0.0, 1310.393370436832, 0.0, 0.0, 0.0, 0.0, -507.9657444913083, 0.0]
['beep', 0.0, 1308.1134925023905, 0.0, 0.0, 0.0, 0.0, -508.97157299179713, 0.0]
['beep', 0.0, 1294.1883557067342, 0.0, 0.0, 0.0, 0.0, -512.167872448906, 0.0]
['beep', 0.0, 1286.9240387587595, 0.0, 0.0, 0.0, 0.0, -514.4030468944368, 0.0]
['beep', 0.0, 1297.16113771929, 0.0, 0.0, 0.0, 0.0, -512.458445126825, 0.0]
['beep', 0.0, 1311.2427367261334, 0.0, 0.0, 0.0, 0.0, -507.9210410023977, 0.0]
['beep', 0.0, 1310.7286466036614, 0.0, 0.0, 0.0, 0.0, -503.3389333890597, 0.0]
['beep', 0.0, 1294.1883557067342, 0.0, 0.0, 0.0, 0.0, -460.91532241288695, 0.0]
['beep', 0.0, 1287.6616463257847, 0.0, 0.0, 0.0, 0.0, -443.4139065043815, 0.0]
['beep', 0.0, 1298.7481115756168, 0.0, 0.0, 0.0, 0.0, -487.4021395924258, 0.0]
['beep', 0.0, 1312.293268715533, 0.0, 0.0, 0.0, 0.0, -510.04445672565186, 0.0]
['beep', 0.0, 1309.1416727473347, 0.0, 0.0, 0.0, 0.0, -510.9385265038641, 0.0]
['beep', 0.0, 1294.8142045514828, 0.0, 0.0, 0.0, 0.0, -513.3972183939479, 0.0]
['beep', 0.0, 1287.259314925589, 0.0, 0.0, 0.0, 0.0, -513.5089771162245, 0.0]
['beep', 0.0, 1298.1446144753236, 0.0, 0.0, 0.0, 0.0, -512.7266660602887, 0.0]
['beep', 0.0, 1311.6674198707844, 0.0, 0.0, 0.0, 0.0, -511.4749683707915, 0.0]
['beep', 0.0, 1309.3204867029772, 0.0, 0.0, 0.0, 0.0, -508.2116136803167, 0.0]
['beep', 0.0, 1295.261239440589, 0.0, 0.0, 0.0, 0.0, -510.02210498119655, 0.0]
['beep', 0.0, 1285.5382306025303, 0.0, 0.0, 0.0, 0.0, -513.330163160582, 0.0]
['beep', 0.0, 1297.6081726083962, 0.0, 0.0, 0.0, 0.0, -512.4360933823697, 0.0]
['beep', 0.0, 1311.9132890597928, 0.0, 0.0, 0.0, 0.0, -509.66447706991164, 0.0]
['beep', 0.0, 1309.5440041475301, 0.0, 0.0, 0.0, 0.0, -507.4516543688362, 0.0]
['beep', 0.0, 1292.6684370837734, 0.0, 0.0, 0.0, 0.0, -510.33502940357084, 0.0]
['beep', 0.0, 1287.1922596922232, 0.0, 0.0, 0.0, 0.0, -512.9501835048418, 0.0]
['beep', 0.0, 1297.809338308494, 0.0, 0.0, 0.0, 0.0, -512.4360933823697, 0.0]
['beep', 0.0, 1311.868585570882, 0.0, 0.0, 0.0, 0.0, -507.76457879121057, 0.0]
['beep', 0.0, 1309.901632058815, 0.0, 0.0, 0.0, 0.0, -488.76559600419955, 0.0]
['beep', 0.0, 1293.9201347732705, 0.0, 0.0, 0.0, 0.0, -442.430429748348, 0.0]
['beep', 0.0, 1286.2758381695555, 0.0, 0.0, 0.0, 0.0, -444.9561768717977, 0.0]
['beep', 0.0, 1297.384655163843, 0.0, 0.0, 0.0, 0.0, -493.16888966189504, 0.0]
['beep', 0.0, 1311.7791785930608, 0.0, 0.0, 0.0, 0.0, -508.77040729169937, 0.0]
['beep', 0.0, 1309.4098936807984, 0.0, 0.0, 0.0, 0.0, -507.29519215764907, 0.0]
['beep', 0.0, 1295.0824254849465, 0.0, 0.0, 0.0, 0.0, -510.491491614758, 0.0]
['beep', 0.0, 1287.6616463257847, 0.0, 0.0, 0.0, 0.0, -513.0619422271183, 0.0]
['beep', 0.0, 1297.228192952656, 0.0, 0.0, 0.0, 0.0, -511.2514509262384, 0.0]
['beep', 0.0, 1310.2816117145553, 0.0, 0.0, 0.0, 0.0, -508.9492212473418, 0.0]
['beep', 0.0, 1309.0075622806028, 0.0, 0.0, 0.0, 0.0, -506.7363985462664, 0.0]
['beep', 0.0, 1294.1436522178237, 0.0, 0.0, 0.0, 0.0, -508.5468898471463, 0.0]
['beep', 0.0, 1286.5440591030192, 0.0, 0.0, 0.0, 0.0, -512.0337619821742, 0.0]
['beep', 0.0, 1297.16113771929, 0.0, 0.0, 0.0, 0.0, -511.83259628207645, 0.0]
['beep', 0.0, 1310.5051291591085, 0.0, 0.0, 0.0, 0.0, -508.6139450805122, 0.0]
['beep', 0.0, 1309.3428384474323, 0.0, 0.0, 0.0, 0.0, -507.8539857690318, 0.0]
['beep', 0.0, 1293.294285928522, 0.0, 0.0, 0.0, 0.0, -510.5808985925792, 0.0]
['beep', 0.0, 1286.58876259193, 0.0, 0.0, 0.0, 0.0, -511.8996515154424, 0.0]
['beep', 0.0, 1296.870565041371, 0.0, 0.0, 0.0, 0.0, -512.4807968712803, 0.0]
['beep', 0.0, 1309.678114614262, 0.0, 0.0, 0.0, 0.0, -508.65864856942284, 0.0]
['beep', 0.0, 1307.6664576132844, 0.0, 0.0, 0.0, 0.0, -508.233965424772, 0.0]
['beep', 0.0, 1293.584858606441, 0.0, 0.0, 0.0, 0.0, -511.1620439484172, 0.0]
['beep', 0.0, 1286.298189914011, 0.0, 0.0, 0.0, 0.0, -513.5760323495904, 0.0]
['beep', 0.0, 1295.194184207223, 0.0, 0.0, 0.0, 0.0, -511.54202360415746, 0.0]
['beep', 0.0, 1310.3486669479212, 0.0, 0.0, 0.0, 0.0, -505.1494246899396, 0.0]
['beep', 0.0, 1309.0299140250581, 0.0, 0.0, 0.0, 0.0, -464.37984280345955, 0.0]
['beep', 0.0, 1293.227230695156, 0.0, 0.0, 0.0, 0.0, -437.4012872459039, 0.0]
['beep', 0.0, 1283.8618497683824, 0.0, 0.0, 0.0, 0.0, -441.02226984766367, 0.0]
['beep', 0.0, 1295.395349907321, 0.0, 0.0, 0.0, 0.0, -480.22722962227226, 0.0]
['beep', 0.0, 1310.1251495033682, 0.0, 0.0, 0.0, 0.0, -507.49635785774683, 0.0]
['beep', 0.0, 1309.2757832140665, 0.0, 0.0, 0.0, 0.0, -509.2844974141714, 0.0]
['beep', 0.0, 1292.7131405726839, 0.0, 0.0, 0.0, 0.0, -513.2184044383055, 0.0]
['beep', 0.0, 1285.0241404800583, 0.0, 0.0, 0.0, 0.0, -514.3136399166156, 0.0]
['beep', 0.0, 1297.3175999304772, 0.0, 0.0, 0.0, 0.0, -511.2738026706937, 0.0]
['beep', 0.0, 1311.8909373153374, 0.0, 0.0, 0.0, 0.0, -509.32920090308204, 0.0]
['beep', 0.0, 1309.9463355477258, 0.0, 0.0, 0.0, 0.0, -507.8316340245765, 0.0]
['beep', 0.0, 1294.97066676267, 0.0, 0.0, 0.0, 0.0, -510.6032503370345, 0.0]
['beep', 0.0, 1287.2369631811337, 0.0, 0.0, 0.0, 0.0, -513.8219015385988, 0.0]
['beep', 0.0, 1297.0270272525581, 0.0, 0.0, 0.0, 0.0, -512.9501835048418, 0.0]
['beep', 0.0, 1311.3321437039547, 0.0, 0.0, 0.0, 0.0, -509.1950904363502, 0.0]
['beep', 0.0, 1310.0804460144575, 0.0, 0.0, 0.0, 0.0, -509.03862822516305, 0.0]
['beep', 0.0, 1294.1436522178237, 0.0, 0.0, 0.0, 0.0, -510.33502940357084, 0.0]
['beep', 0.0, 1287.0805009699466, 0.0, 0.0, 0.0, 0.0, -512.3243346600932, 0.0]
['beep', 0.0, 1296.356474918899, 0.0, 0.0, 0.0, 0.0, -513.7101428163222, 0.0]
['beep', 0.0, 1310.0133907810916, 0.0, 0.0, 0.0, 0.0, -509.5750700920904, 0.0]
['beep', 0.0, 1308.9852105361474, 0.0, 0.0, 0.0, 0.0, -508.74805554724406, 0.0]
['beep', 0.0, 1293.0707684839688, 0.0, 0.0, 0.0, 0.0, -510.71500905931106, 0.0]
['beep', 0.0, 1285.9629137471813, 0.0, 0.0, 0.0, 0.0, -514.1348259609731, 0.0]
['beep', 0.0, 1295.9988470076141, 0.0, 0.0, 0.0, 0.0, -514.425398638892, 0.0]
['beep', 0.0, 1309.745169847628, 0.0, 0.0, 0.0, 0.0, -511.653782326434, 0.0]
['beep', 0.0, 1309.5887076364409, 0.0, 0.0, 0.0, 0.0, -497.68394204186706, 0.0]
['beep', 0.0, 1294.903611529304, 0.0, 0.0, 0.0, 0.0, -447.90660713989826, 0.0]
['beep', 0.0, 1285.5605823469857, 0.0, 0.0, 0.0, 0.0, -438.22830179075027, 0.0]
['beep', 0.0, 1297.384655163843, 0.0, 0.0, 0.0, 0.0, -476.06980515358515, 0.0]
['beep', 0.0, 1312.3379722044435, 0.0, 0.0, 0.0, 0.0, -507.5857648355681, 0.0]
['beep', 0.0, 1309.4322454252535, 0.0, 0.0, 0.0, 0.0, -506.9822677352748, 0.0]
['beep', 0.0, 1294.3671696623767, 0.0, 0.0, 0.0, 0.0, -510.67030557040044, 0.0]
['beep', 0.0, 1286.611114336385, 0.0, 0.0, 0.0, 0.0, -516.1241312174953, 0.0]
['beep', 0.0, 1296.2670679410778, 0.0, 0.0, 0.0, 0.0, -512.3466864045484, 0.0]
['beep', 0.0, 1311.6227163818737, 0.0, 0.0, 0.0, 0.0, -507.8986892579424, 0.0]
['beep', 0.0, 1310.2369082256448, 0.0, 0.0, 0.0, 0.0, -508.2116136803167, 0.0]
['beep', 0.0, 1295.037721996036, 0.0, 0.0, 0.0, 0.0, -511.1173404595066, 0.0]
['beep', 0.0, 1286.298189914011, 0.0, 0.0, 0.0, 0.0, -514.0901224720625, 0.0]
['beep', 0.0, 1297.3175999304772, 0.0, 0.0, 0.0, 0.0, -511.38556139297026, 0.0]
['beep', 0.0, 1312.0697512709799, 0.0, 0.0, 0.0, 0.0, -509.03862822516305, 0.0]
['beep', 0.0, 1309.387541936343, 0.0, 0.0, 0.0, 0.0, -511.2738026706937, 0.0]
['beep', 0.0, 1294.7247975736616, 0.0, 0.0, 0.0, 0.0, -514.268936427705, 0.0]
['beep', 0.0, 1286.8569835253936, 0.0, 0.0, 0.0, 0.0, -516.3252969175932, 0.0]
['beep', 0.0, 1296.6917510857286, 0.0, 0.0, 0.0, 0.0, -512.2125759378166, 0.0]
['beep', 0.0, 1312.807358838005, 0.0, 0.0, 0.0, 0.0, -508.6139450805122, 0.0]
['beep', 0.0, 1312.1815099932564, 0.0, 0.0, 0.0, 0.0, -507.4516543688362, 0.0]
['beep', 0.0, 1297.518765630575, 0.0, 0.0, 0.0, 0.0, -511.2738026706937, 0.0]
['beep', 0.0, 1288.3992538928096, 0.0, 0.0, 0.0, 0.0, -514.9171370169088, 0.0]
['beep', 0.0, 1297.8316900529494, 0.0, 0.0, 0.0, 0.0, -514.8947852724535, 0.0]
['beep', 0.0, 1312.9861727936475, 0.0, 0.0, 0.0, 0.0, -509.97740149228594, 0.0]
['beep', 0.0, 1310.706294859206, 0.0, 0.0, 0.0, 0.0, -474.3487208305265, 0.0]
['beep', 0.0, 1295.0600737404911, 0.0, 0.0, 0.0, 0.0, -437.89302562392066, 0.0]
['beep', 0.0, 1287.5945910924186, 0.0, 0.0, 0.0, 0.0, -443.25744429319434, 0.0]
['beep', 0.0, 1297.362303419388, 0.0, 0.0, 0.0, 0.0, -488.45267158182526, 0.0]
['beep', 0.0, 1312.3156204599882, 0.0, 0.0, 0.0, 0.0, -511.2290991817831, 0.0]
['beep', 0.0, 1310.5721843924744, 0.0, 0.0, 0.0, 0.0, -509.66447706991164, 0.0]
['beep', 0.0, 1294.9259632737594, 0.0, 0.0, 0.0, 0.0, -514.492453872258, 0.0]
['beep', 0.0, 1286.8569835253936, 0.0, 0.0, 0.0, 0.0, -517.4875876292691, 0.0]
['beep', 0.0, 1295.909440029793, 0.0, 0.0, 0.0, 0.0, -514.1124742165177, 0.0]
['beep', 0.0, 1311.6674198707844, 0.0, 0.0, 0.0, 0.0, -510.1338637034731, 0.0]
['beep', 0.0, 1310.6615913702956, 0.0, 0.0, 0.0, 0.0, -508.2116136803167, 0.0]
['beep', 0.0, 1295.8200330519717, 0.0, 0.0, 0.0, 0.0, -511.653782326434, 0.0]
['beep', 0.0, 1287.035797481036, 0.0, 0.0, 0.0, 0.0, -515.00654399473, 0.0]
['beep', 0.0, 1297.2058412082006, 0.0, 0.0, 0.0, 0.0, -514.3806951499814, 0.0]
['beep', 0.0, 1314.2378704831447, 0.0, 0.0, 0.0, 0.0, -510.42443638139207, 0.0]
['beep', 0.0, 1312.2038617377118, 0.0, 0.0, 0.0, 0.0, -509.30684915862673, 0.0]
['beep', 0.0, 1297.0493789970135, 0.0, 0.0, 0.0, 0.0, -511.1620439484172, 0.0]
['beep', 0.0, 1287.840460281427, 0.0, 0.0, 0.0, 0.0, -513.8442532830541, 0.0]
['beep', 0.0, 1298.681056342251, 0.0, 0.0, 0.0, 0.0, -511.944355004353, 0.0]
['beep', 0.0, 1312.2709169710777, 0.0, 0.0, 0.0, 0.0, -507.5410613466575, 0.0]
['beep', 0.0, 1311.645068126329, 0.0, 0.0, 0.0, 0.0, -506.3117154016156, 0.0]
['beep', 0.0, 1296.4458818967203, 0.0, 0.0, 0.0, 0.0, -511.54202360415746, 0.0]
['beep', 0.0, 1287.9969224926142, 0.0, 0.0, 0.0, 0.0, -516.5488143621462, 0.0]
['beep', 0.0, 1296.5352888745415, 0.0, 0.0, 0.0, 0.0, -515.073599228096, 0.0]
['beep', 0.0, 1311.0862745149464, 0.0, 0.0, 0.0, 0.0, -511.4973201152468, 0.0]
['beep', 0.0, 1312.3379722044435, 0.0, 0.0, 0.0, 0.0, -495.8063955076213, 0.0]
['beep', 0.0, 1297.1834894637454, 0.0, 0.0, 0.0, 0.0, -446.8337234060435, 0.0]
['beep', 0.0, 1289.4721376266643, 0.0, 0.0, 0.0, 0.0, -439.6811651803452, 0.0]
['beep', 0.0, 1298.0775592419577, 0.0, 0.0, 0.0, 0.0, -477.00857842070803, 0.0]
['beep', 0.0, 1312.7850070935497, 0.0, 0.0, 0.0, 0.0, -509.41860788090327, 0.0]
['beep', 0.0, 1311.9132890597928, 0.0, 0.0, 0.0, 0.0, -509.8879945144647, 0.0]
['beep', 0.0, 1298.032855753047, 0.0, 0.0, 0.0, 0.0, -513.7101428163222, 0.0]
['beep', 0.0, 1289.5391928600304, 0.0, 0.0, 0.0, 0.0, -514.6936195723557, 0.0]
['beep', 0.0, 1298.0775592419577, 0.0, 0.0, 0.0, 0.0, -512.81607303811, 0.0]
['beep', 0.0, 1312.1815099932564, 0.0, 0.0, 0.0, 0.0, -509.30684915862673, 0.0]
['beep', 0.0, 1312.0473995265245, 0.0, 0.0, 0.0, 0.0, -508.5915933360569, 0.0]
['beep', 0.0, 1297.7646348195833, 0.0, 0.0, 0.0, 0.0, -512.458445126825, 0.0]
['beep', 0.0, 1288.9803992486477, 0.0, 0.0, 0.0, 0.0, -516.6382213399675, 0.0]
['beep', 0.0, 1299.1727947202678, 0.0, 0.0, 0.0, 0.0, -514.9171370169088, 0.0]
['beep', 0.0, 1312.3156204599882, 0.0, 0.0, 0.0, 0.0, -511.6090788375234, 0.0]
['beep', 0.0, 1312.7850070935497, 0.0, 0.0, 0.0, 0.0, -510.200918936839, 0.0]
['beep', 0.0, 1297.8540417974045, 0.0, 0.0, 0.0, 0.0, -512.9501835048418, 0.0]
['beep', 0.0, 1290.1203382158683, 0.0, 0.0, 0.0, 0.0, -514.2465846832496, 0.0]
['beep', 0.0, 1299.2845534425442, 0.0, 0.0, 0.0, 0.0, -512.7266660602887, 0.0]
['beep', 0.0, 1314.3496292054213, 0.0, 0.0, 0.0, 0.0, -510.491491614758, 0.0]
['beep', 0.0, 1313.679076871762, 0.0, 0.0, 0.0, 0.0, -508.8598142695206, 0.0]
['beep', 0.0, 1298.2116697086894, 0.0, 0.0, 0.0, 0.0, -510.9385265038641, 0.0]
['beep', 0.0, 1289.2709719265667, 0.0, 0.0, 0.0, 0.0, -514.0230672386965, 0.0]
['beep', 0.0, 1299.7092365871952, 0.0, 0.0, 0.0, 0.0, -513.2184044383055, 0.0]
['beep', 0.0, 1314.8190158389828, 0.0, 0.0, 0.0, 0.0, -508.1222067024955, 0.0]
['beep', 0.0, 1313.9025943163151, 0.0, 0.0, 0.0, 0.0, -489.2126308933057, 0.0]
['beep', 0.0, 1299.128091231357, 0.0, 0.0, 0.0, 0.0, -443.5033134822027, 0.0]
['beep', 0.0, 1290.2097451936895, 0.0, 0.0, 0.0, 0.0, -442.31867102607146, 0.0]
['beep', 0.0, 1300.4021406653096, 0.0, 0.0, 0.0, 0.0, -484.1834883908616, 0.0]
['beep', 0.0, 1313.7014286162173, 0.0, 0.0, 0.0, 0.0, -509.8879945144647, 0.0]
['beep', 0.0, 1314.8860710723486, 0.0, 0.0, 0.0, 0.0, -509.37390439199265, 0.0]
['beep', 0.0, 1300.1786232207564, 0.0, 0.0, 0.0, 0.0, -513.4866253717692, 0.0]
['beep', 0.0, 1289.4497858822092, 0.0, 0.0, 0.0, 0.0, -516.3476486620484, 0.0]
['beep', 0.0, 1299.329256931455, 0.0, 0.0, 0.0, 0.0, -516.3700004065038, 0.0]
['beep', 0.0, 1315.0872367724464, 0.0, 0.0, 0.0, 0.0, -512.3243346600932, 0.0]
['beep', 0.0, 1313.7237803606727, 0.0, 0.0, 0.0, 0.0, -508.8598142695206, 0.0]
['beep', 0.0, 1298.8822220423488, 0.0, 0.0, 0.0, 0.0, -512.0784654710848, 0.0]
['beep', 0.0, 1289.6509515823068, 0.0, 0.0, 0.0, 0.0, -516.0570759841295, 0.0]
['beep', 0.0, 1298.2340214531448, 0.0, 0.0, 0.0, 0.0, -514.8500817835429, 0.0]
['beep', 0.0, 1313.455559427209, 0.0, 0.0, 0.0, 0.0, -510.8714712704982, 0.0]
['beep', 0.0, 1314.2825739720554, 0.0, 0.0, 0.0, 0.0, -510.5361951036686, 0.0]
['beep', 0.0, 1300.2680301985777, 0.0, 0.0, 0.0, 0.0, -513.2184044383055, 0.0]
['beep', 0.0, 1290.0532829825024, 0.0, 0.0, 0.0, 0.0, -514.8500817835429, 0.0]
['beep', 0.0, 1298.2116697086894, 0.0, 0.0, 0.0, 0.0, -513.7548463052328, 0.0]
['beep', 0.0, 1311.9579925487033, 0.0, 0.0, 0.0, 0.0, -512.3913898934591, 0.0]
['beep', 0.0, 1312.360323948899, 0.0, 0.0, 0.0, 0.0, -511.8996515154424, 0.0]
['beep', 0.0, 1297.6081726083962, 0.0, 0.0, 0.0, 0.0, -513.687791071867, 0.0]
['beep', 0.0, 1289.4944893711197, 0.0, 0.0, 0.0, 0.0, -515.7217998172998, 0.0]
['beep', 0.0, 1298.0105040085919, 0.0, 0.0, 0.0, 0.0, -512.5478521046463, 0.0]
['beep', 0.0, 1311.8909373153374, 0.0, 0.0, 0.0, 0.0, -511.9220032598977, 0.0]
['beep', 0.0, 1311.846233826427, 0.0, 0.0, 0.0, 0.0, -492.16306116140623, 0.0]
['beep', 0.0, 1298.8598702978934, 0.0, 0.0, 0.0, 0.0, -446.40904026139265, 0.0]
['beep', 0.0, 1291.036759738536, 0.0, 0.0, 0.0, 0.0, -445.9396536278312, 0.0]
['beep', 0.0, 1300.4468441542201, 0.0, 0.0, 0.0, 0.0, -483.7811569906661, 0.0]
['beep', 0.0, 1316.45069318422, 0.0, 0.0, 0.0, 0.0, -510.42443638139207, 0.0]
['beep', 0.0, 1318.8199780964826, 0.0, 0.0, 0.0, 0.0, -508.09985495804017, 0.0]
['beep', 0.0, 1304.1125302448906, 0.0, 0.0, 0.0, 0.0, -510.1115119590178, 0.0]
['beep', 0.0, 1295.4400533962314, 0.0, 0.0, 0.0, 0.0, -513.7771980496882, 0.0]
['beep', 0.0, 1301.5197278880748, 0.0, 0.0, 0.0, 0.0, -512.8831282714758, 0.0]
['beep', 0.0, 1316.1154170173904, 0.0, 0.0, 0.0, 0.0, -508.65864856942284, 0.0]
['beep', 0.0, 1314.9531263057145, 0.0, 0.0, 0.0, 0.0, -509.8432910255541, 0.0]
['beep', 0.0, 1298.9045737868041, 0.0, 0.0, 0.0, 0.0, -512.9948869937524, 0.0]
['beep', 0.0, 1289.360378904388, 0.0, 0.0, 0.0, 0.0, -514.5371573611686, 0.0]
['beep', 0.0, 1297.675227841762, 0.0, 0.0, 0.0, 0.0, -514.0677707276071, 0.0]
['beep', 0.0, 1312.5391379045413, 0.0, 0.0, 0.0, 0.0, -511.6984858153446, 0.0]
['beep', 0.0, 1313.2990972160217, 0.0, 0.0, 0.0, 0.0, -510.67030557040044, 0.0]
['beep', 0.0, 1298.6587045977956, 0.0, 0.0, 0.0, 0.0, -512.8384247825652, 0.0]
['beep', 0.0, 1289.0474544820136, 0.0, 0.0, 0.0, 0.0, -516.9287940178864, 0.0]
['beep', 0.0, 1297.0717307414689, 0.0, 0.0, 0.0, 0.0, -517.1746632068948, 0.0]
['beep', 0.0, 1312.4497309267201, 0.0, 0.0, 0.0, 0.0, -513.6654393274116, 0.0]
['beep', 0.0, 1313.8355390829493, 0.0, 0.0, 0.0, 0.0, -510.5585468481239, 0.0]
['beep', 0.0, 1299.0833877424466, 0.0, 0.0, 0.0, 0.0, -515.297116672649, 0.0]
['beep', 0.0, 1289.2039166932007, 0.0, 0.0, 0.0, 0.0, -518.426360896392, 0.0]
['beep', 0.0, 1296.9599720191923, 0.0, 0.0, 0.0, 0.0, -516.2358899397719, 0.0]
['beep', 0.0, 1313.321448960477, 0.0, 0.0, 0.0, 0.0, -512.972535249297, 0.0]
['beep', 0.0, 1313.813187338494, 0.0, 0.0, 0.0, 0.0, -488.11739541499566, 0.0]
['beep', 0.0, 1298.7928150645275, 0.0, 0.0, 0.0, 0.0, -443.1456855709178, 0.0]
['beep', 0.0, 1289.87446902686, 0.0, 0.0, 0.0, 0.0, -444.8667698939765, 0.0]
['beep', 0.0, 1298.97162902017, 0.0, 0.0, 0.0, 0.0, -487.75976750371075, 0.0]
['beep', 0.0, 1314.2378704831447, 0.0, 0.0, 0.0, 0.0, -511.0949887150513, 0.0]
['beep', 0.0, 1313.746132105128, 0.0, 0.0, 0.0, 0.0, -512.3019829156378, 0.0]
['beep', 0.0, 1299.1057394869017, 0.0, 0.0, 0.0, 0.0, -514.2912881721602, 0.0]
['beep', 0.0, 1288.578067848452, 0.0, 0.0, 0.0, 0.0, -515.0959509725512, 0.0]
['beep', 0.0, 1297.2058412082006, 0.0, 0.0, 0.0, 0.0, -513.5536806051351, 0.0]
['beep', 0.0, 1314.7519606056167, 0.0, 0.0, 0.0, 0.0, -512.2796311711826, 0.0]
['beep', 0.0, 1315.0201815390803, 0.0, 0.0, 0.0, 0.0, -510.40208463693676, 0.0]
['beep', 0.0, 1299.9551057762035, 0.0, 0.0, 0.0, 0.0, -511.00558173723005, 0.0]
['beep', 0.0, 1291.2826289275442, 0.0, 0.0, 0.0, 0.0, -516.5041108732356, 0.0]
['beep', 0.0, 1299.5527743760078, 0.0, 0.0, 0.0, 0.0, -517.3311254180819, 0.0]
['beep', 0.0, 1314.2378704831447, 0.0, 0.0, 0.0, 0.0, -511.51967185970216, 0.0]
['beep', 0.0, 1315.35545770591, 0.0, 0.0, 0.0, 0.0, -509.8879945144647, 0.0]
['beep', 0.0, 1300.8938790433263, 0.0, 0.0, 0.0, 0.0, -513.1289974604842, 0.0]
['beep', 0.0, 1291.8190707944716, 0.0, 0.0, 0.0, 0.0, -514.5148056167133, 0.0]
['beep', 0.0, 1301.452672654709, 0.0, 0.0, 0.0, 0.0, -515.4312271393809, 0.0]
['beep', 0.0, 1315.9813065506587, 0.0, 0.0, 0.0, 0.0, -514.9394887613641, 0.0]
['beep', 0.0, 1314.483739672153, 0.0, 0.0, 0.0, 0.0, -514.5148056167133, 0.0]
['beep', 0.0, 1300.3127336874884, 0.0, 0.0, 0.0, 0.0, -514.8500817835429, 0.0]
['beep', 0.0, 1290.4779661271532, 0.0, 0.0, 0.0, 0.0, -516.2358899397719, 0.0]
['beep', 0.0, 1300.7597685765945, 0.0, 0.0, 0.0, 0.0, -515.3194684171043, 0.0]
['beep', 0.0, 1315.422512939276, 0.0, 0.0, 0.0, 0.0, -511.1620439484172, 0.0]
['beep', 0.0, 1315.2213472391782, 0.0, 0.0, 0.0, 0.0, -497.1922036638503, 0.0]
['beep', 0.0, 1300.0221610095693, 0.0, 0.0, 0.0, 0.0, -450.90174089690936, 0.0]
['beep', 0.0, 1289.9191725157707, 0.0, 0.0, 0.0, 0.0, -446.40904026139265, 0.0]
['beep', 0.0, 1299.2845534425442, 0.0, 0.0, 0.0, 0.0, -488.9891134487526, 0.0]
['beep', 0.0, 1314.908422816804, 0.0, 0.0, 0.0, 0.0, -514.425398638892, 0.0]
['beep', 0.0, 1314.8190158389828, 0.0, 0.0, 0.0, 0.0, -511.38556139297026, 0.0]
['beep', 0.0, 1300.3350854319438, 0.0, 0.0, 0.0, 0.0, -515.5653376061127, 0.0]
['beep', 0.0, 1290.835594038438, 0.0, 0.0, 0.0, 0.0, -518.3593056630261, 0.0]
['beep', 0.0, 1299.1504429758124, 0.0, 0.0, 0.0, 0.0, -517.621698096001, 0.0]
['beep', 0.0, 1313.388504193843, 0.0, 0.0, 0.0, 0.0, -513.1737009493949, 0.0]
['beep', 0.0, 1314.3719809498766, 0.0, 0.0, 0.0, 0.0, -515.297116672649, 0.0]
['beep', 0.0, 1300.5138993875862, 0.0, 0.0, 0.0, 0.0, -517.1970149513501, 0.0]
['beep', 0.0, 1291.0814632274466, 0.0, 0.0, 0.0, 0.0, -519.6110033525233, 0.0]
['beep', 0.0, 1298.97162902017, 0.0, 0.0, 0.0, 0.0, -518.7839888076769, 0.0]
['beep', 0.0, 1313.2990972160217, 0.0, 0.0, 0.0, 0.0, -514.5818608500792, 0.0]
['beep', 0.0, 1314.4390361832425, 0.0, 0.0, 0.0, 0.0, -513.7324945607776, 0.0]
['beep', 0.0, 1301.095044743424, 0.0, 0.0, 0.0, 0.0, -517.6440498404563, 0.0]
['beep', 0.0, 1291.036759738536, 0.0, 0.0, 0.0, 0.0, -519.7004103303445, 0.0]
['beep', 0.0, 1299.8209953094715, 0.0, 0.0, 0.0, 0.0, -517.3758289069925, 0.0]
['beep', 0.0, 1314.8637193278933, 0.0, 0.0, 0.0, 0.0, -513.620735838501, 0.0]
['beep', 0.0, 1314.0367047830468, 0.0, 0.0, 0.0, 0.0, -513.5760323495904, 0.0]
['beep', 0.0, 1299.843347053927, 0.0, 0.0, 0.0, 0.0, -516.7946835511545, 0.0]
['beep', 0.0, 1289.6956550712175, 0.0, 0.0, 0.0, 0.0, -520.0133347527188, 0.0]
['beep', 0.0, 1298.97162902017, 0.0, 0.0, 0.0, 0.0, -518.9628027633194, 0.0]
['beep', 0.0, 1314.483739672153, 0.0, 0.0, 0.0, 0.0, -516.5935178510568, 0.0]
['beep', 0.0, 1315.3107542169994, 0.0, 0.0, 0.0, 0.0, -503.42834036688095, 0.0]
['beep', 0.0, 1300.6703615987733, 0.0, 0.0, 0.0, 0.0, -453.62865372045684, 0.0]
['beep', 0.0, 1290.030931238047, 0.0, 0.0, 0.0, 0.0, -444.6656041938787, 0.0]
['beep', 0.0, 1297.9434487752258, 0.0, 0.0, 0.0, 0.0, -479.2437528662387, 0.0]
['beep', 0.0, 1311.2427367261334, 0.0, 0.0, 0.0, 0.0, -511.7431893042552, 0.0]
['beep', 0.0, 1314.126111760868, 0.0, 0.0, 0.0, 0.0, -511.76554104871053, 0.0]
['beep', 0.0, 1301.8326523104492, 0.0, 0.0, 0.0, 0.0, -515.4535788838361, 0.0]
['beep', 0.0, 1290.7685388050722, 0.0, 0.0, 0.0, 0.0, -520.7062388308333, 0.0]
['beep', 0.0, 1296.937620274737, 0.0, 0.0, 0.0, 0.0, -519.0522097411406, 0.0]
['beep', 0.0, 1312.874414071371, 0.0, 0.0, 0.0, 0.0, -514.9171370169088, 0.0]
['beep', 0.0, 1313.7908355940385, 0.0, 0.0, 0.0, 0.0, -513.5089771162245, 0.0]
['beep', 0.0, 1300.2233267096672, 0.0, 0.0, 0.0, 0.0, -515.9229655173976, 0.0]
['beep', 0.0, 1290.1426899603237, 0.0, 0.0, 0.0, 0.0, -518.9851545077747, 0.0]
['beep', 0.0, 1296.8258615524605, 0.0, 0.0, 0.0, 0.0, -518.6498783409451, 0.0]
['beep', 0.0, 1311.4439024262313, 0.0, 0.0, 0.0, 0.0, -516.7052765733333, 0.0]
['beep', 0.0, 1314.4166844387871, 0.0, 0.0, 0.0, 0.0, -517.5322911181797, 0.0]
['beep', 0.0, 1300.7374168321392, 0.0, 0.0, 0.0, 0.0, -518.8286922965875, 0.0]
['beep', 0.0, 1289.382730648843, 0.0, 0.0, 0.0, 0.0, -521.0862184865736, 0.0]
['beep', 0.0, 1297.9881522641365, 0.0, 0.0, 0.0, 0.0, -520.9968115087523, 0.0]
['beep', 0.0, 1314.4613879276978, 0.0, 0.0, 0.0, 0.0, -518.3816574074814, 0.0]
['beep', 0.0, 1315.9142513172926, 0.0, 0.0, 0.0, 0.0, -519.4768928857915, 0.0]
['beep', 0.0, 1301.3185621879772, 0.0, 0.0, 0.0, 0.0, -523.3213929321042, 0.0]
['beep', 0.0, 1291.4167393942762, 0.0, 0.0, 0.0, 0.0, -524.9754220217969, 0.0]
['beep', 0.0, 1299.4186639092761, 0.0, 0.0, 0.0, 0.0, -522.069695242607, 0.0]
['beep', 0.0, 1314.4613879276978, 0.0, 0.0, 0.0, 0.0, -518.7616370632217, 0.0]
['beep', 0.0, 1316.1377687618458, 0.0, 0.0, 0.0, 0.0, -504.63533456746757, 0.0]
['beep', 0.0, 1301.4079691657985, 0.0, 0.0, 0.0, 0.0, -456.80260143311045, 0.0]
['beep', 0.0, 1290.2991521715107, 0.0, 0.0, 0.0, 0.0, -446.3196332835714, 0.0]
['beep', 0.0, 1300.133919731846, 0.0, 0.0, 0.0, 0.0, -479.42256682188116, 0.0]
['beep', 0.0, 1315.35545770591, 0.0, 0.0, 0.0, 0.0, -514.8724335279982, 0.0]
['beep', 0.0, 1315.713085617195, 0.0, 0.0, 0.0, 0.0, -514.4030468944368, 0.0]
['beep', 0.0, 1301.1844517212453, 0.0, 0.0, 0.0, 0.0, -516.4147038954144, 0.0]
['beep', 0.0, 1291.2826289275442, 0.0, 0.0, 0.0, 0.0, -520.2815556861825, 0.0]
['beep', 0.0, 1297.9658005196811, 0.0, 0.0, 0.0, 0.0, -520.7062388308333, 0.0]
['beep', 0.0, 1312.7403036046392, 0.0, 0.0, 0.0, 0.0, -516.5711661066015, 0.0]
['beep', 0.0, 1313.9472978052256, 0.0, 0.0, 0.0, 0.0, -512.972535249297, 0.0]
['beep', 0.0, 1301.095044743424, 0.0, 0.0, 0.0, 0.0, -515.4088753949255, 0.0]
['beep', 0.0, 1290.5673731049744, 0.0, 0.0, 0.0, 0.0, -520.7285905752886, 0.0]
['beep', 0.0, 1297.6528760973067, 0.0, 0.0, 0.0, 0.0, -521.7567708202328, 0.0]
['beep', 0.0, 1312.6285448823626, 0.0, 0.0, 0.0, 0.0, -519.3651341635149, 0.0]
['beep', 0.0, 1314.3049257165105, 0.0, 0.0, 0.0, 0.0, -516.9511457623418, 0.0]
['beep', 0.0, 1301.8326523104492, 0.0, 0.0, 0.0, 0.0, -519.4545411413361, 0.0]
['beep', 0.0, 1290.835594038438, 0.0, 0.0, 0.0, 0.0, -522.0249917536964, 0.0]
['beep', 0.0, 1298.4351871532426, 0.0, 0.0, 0.0, 0.0, -520.9297562753864, 0.0]
['beep', 0.0, 1314.1708152497788, 0.0, 0.0, 0.0, 0.0, -518.426360896392, 0.0]
['beep', 0.0, 1314.2602222276, 0.0, 0.0, 0.0, 0.0, -518.2475469407495, 0.0]
['beep', 0.0, 1300.6927133432287, 0.0, 0.0, 0.0, 0.0, -520.8403492975651, 0.0]
['beep', 0.0, 1291.774367305561, 0.0, 0.0, 0.0, 0.0, -523.6566690989339, 0.0]
['beep', 0.0, 1297.8316900529494, 0.0, 0.0, 0.0, 0.0, -521.8238260535987, 0.0]
['beep', 0.0, 1313.746132105128, 0.0, 0.0, 0.0, 0.0, -519.1192649745066, 0.0]
['beep', 0.0, 1315.064885027991, 0.0, 0.0, 0.0, 0.0, -516.5711661066015, 0.0]
['beep', 0.0, 1300.1115679873906, 0.0, 0.0, 0.0, 0.0, -520.8179975531099, 0.0]
['beep', 0.0, 1288.5333643595416, 0.0, 0.0, 0.0, 0.0, -524.9977737662523, 0.0]
['beep', 0.0, 1296.6246958523627, 0.0, 0.0, 0.0, 0.0, -523.7237243322998, 0.0]
['beep', 0.0, 1313.097931515924, 0.0, 0.0, 0.0, 0.0, -519.1416167189618, 0.0]
['beep', 0.0, 1313.7684838495832, 0.0, 0.0, 0.0, 0.0, -483.2447151237387, 0.0]
['beep', 0.0, 1299.3739604203654, 0.0, 0.0, 0.0, 0.0, -446.43139200584795, 0.0]
['beep', 0.0, 1288.3769021483545, 0.0, 0.0, 0.0, 0.0, -448.6442147069234, 0.0]
['beep', 0.0, 1295.0153702515806, 0.0, 0.0, 0.0, 0.0, -487.9609332038085, 0.0]
['beep', 0.0, 1310.907460559304, 0.0, 0.0, 0.0, 0.0, -517.4428841403585, 0.0]
['beep', 0.0, 1312.293268715533, 0.0, 0.0, 0.0, 0.0, -517.8899190294646, 0.0]
['beep', 0.0, 1297.384655163843, 0.0, 0.0, 0.0, 0.0, -520.5497766196462, 0.0]
['beep', 0.0, 1288.555716103997, 0.0, 0.0, 0.0, 0.0, -524.684849343878, 0.0]
['beep', 0.0, 1295.0824254849465, 0.0, 0.0, 0.0, 0.0, -525.19893946635, 0.0]
['beep', 0.0, 1309.8345768254492, 0.0, 0.0, 0.0, 0.0, -520.3039074306378, 0.0]
['beep', 0.0, 1313.3661524493878, 0.0, 0.0, 0.0, 0.0, -518.0016777517412, 0.0]
['beep', 0.0, 1300.8491755544158, 0.0, 0.0, 0.0, 0.0, -520.3709626640037, 0.0]
['beep', 0.0, 1289.9862277491366, 0.0, 0.0, 0.0, 0.0, -521.846177798054, 0.0]
['beep', 0.0, 1297.518765630575, 0.0, 0.0, 0.0, 0.0, -522.0026400092412, 0.0]
['beep', 0.0, 1312.9191175602816, 0.0, 0.0, 0.0, 0.0, -518.9404510188641, 0.0]
['beep', 0.0, 1314.4613879276978, 0.0, 0.0, 0.0, 0.0, -517.8005120516434, 0.0]
['beep', 0.0, 1299.4633673981866, 0.0, 0.0, 0.0, 0.0, -521.6226603535009, 0.0]
['beep', 0.0, 1289.9862277491366, 0.0, 0.0, 0.0, 0.0, -524.9307185328863, 0.0]
['beep', 0.0, 1297.4293586527538, 0.0, 0.0, 0.0, 0.0, -522.8296545540875, 0.0]
['beep', 0.0, 1312.3379722044435, 0.0, 0.0, 0.0, 0.0, -522.2485091982495, 0.0]
['beep', 0.0, 1314.2825739720554, 0.0, 0.0, 0.0, 0.0, -521.1532737199394, 0.0]
['beep', 0.0, 1301.1173964878794, 0.0, 0.0, 0.0, 0.0, -521.5109016312244, 0.0]
['beep', 0.0, 1289.4944893711197, 0.0, 0.0, 0.0, 0.0, -524.5730906216014, 0.0]
['beep', 0.0, 1295.9764952631588, 0.0, 0.0, 0.0, 0.0, -525.19893946635, 0.0]
['beep', 0.0, 1311.6897716152396, 0.0, 0.0, 0.0, 0.0, -520.2815556861825, 0.0]
['beep', 0.0, 1316.0036582951138, 0.0, 0.0, 0.0, 0.0, -497.01338970820785, 0.0]
['beep', 0.0, 1300.4468441542201, 0.0, 0.0, 0.0, 0.0, -449.9629676297865, 0.0]
['beep', 0.0, 1289.4497858822092, 0.0, 0.0, 0.0, 0.0, -448.86773215147645, 0.0]
['beep', 0.0, 1297.0493789970135, 0.0, 0.0, 0.0, 0.0, -490.8666599829984, 0.0]
['beep', 0.0, 1311.4439024262313, 0.0, 0.0, 0.0, 0.0, -520.7062388308333, 0.0]
['beep', 0.0, 1314.617850138885, 0.0, 0.0, 0.0, 0.0, -519.2757271856937, 0.0]
['beep', 0.0, 1301.743245332628, 0.0, 0.0, 0.0, 0.0, -521.3320876755819, 0.0]
['beep', 0.0, 1290.9026492718042, 0.0, 0.0, 0.0, 0.0, -526.0930092445624, 0.0]
['beep', 0.0, 1298.3681319198768, 0.0, 0.0, 0.0, 0.0, -524.7519045772439, 0.0]
['beep', 0.0, 1312.5838413934518, 0.0, 0.0, 0.0, 0.0, -520.9968115087523, 0.0]
['beep', 0.0, 1314.7519606056167, 0.0, 0.0, 0.0, 0.0, -519.879224285987, 0.0]
['beep', 0.0, 1301.4079691657985, 0.0, 0.0, 0.0, 0.0, -521.265032442216, 0.0]
['beep', 0.0, 1292.2437539391226, 0.0, 0.0, 0.0, 0.0, -523.0755237430959, 0.0]
['beep', 0.0, 1297.4070069082984, 0.0, 0.0, 0.0, 0.0, -523.7684278212104, 0.0]
['beep', 0.0, 1313.2990972160217, 0.0, 0.0, 0.0, 0.0, -522.3379161760707, 0.0]
['beep', 0.0, 1316.7859693510497, 0.0, 0.0, 0.0, 0.0, -519.5215963747021, 0.0]
['beep', 0.0, 1302.033818010547, 0.0, 0.0, 0.0, 0.0, -521.1756254643948, 0.0]
['beep', 0.0, 1291.1485184608125, 0.0, 0.0, 0.0, 0.0, -525.19893946635, 0.0]
['beep', 0.0, 1299.0833877424466, 0.0, 0.0, 0.0, 0.0, -522.1591022204283, 0.0]
['beep', 0.0, 1314.483739672153, 0.0, 0.0, 0.0, 0.0, -519.2757271856937, 0.0]
['beep', 0.0, 1315.869547828382, 0.0, 0.0, 0.0, 0.0, -518.8286922965875, 0.0]
['beep', 0.0, 1303.0172947665806, 0.0, 0.0, 0.0, 0.0, -520.2815556861825, 0.0]
['beep', 0.0, 1291.841422538927, 0.0, 0.0, 0.0, 0.0, -523.9248900323976, 0.0]
['beep', 0.0, 1298.9269255312593, 0.0, 0.0, 0.0, 0.0, -523.1425789764618, 0.0]
['beep', 0.0, 1314.6402018833403, 0.0, 0.0, 0.0, 0.0, -519.6780585858892, 0.0]
['beep', 0.0, 1315.6683821282843, 0.0, 0.0, 0.0, 0.0, -505.23883166776085, 0.0]
['beep', 0.0, 1301.6314866103514, 0.0, 0.0, 0.0, 0.0, -457.51785725568027, 0.0]
['beep', 0.0, 1291.7296638166504, 0.0, 0.0, 0.0, 0.0, -450.58881647453507, 0.0]
['beep', 0.0, 1298.3457801754214, 0.0, 0.0, 0.0, 0.0, -484.8763924689761, 0.0]
['beep', 0.0, 1313.1202832603792, 0.0, 0.0, 0.0, 0.0, -518.3816574074814, 0.0]
['beep', 0.0, 1316.8083210955049, 0.0, 0.0, 0.0, 0.0, -516.1241312174953, 0.0]
['beep', 0.0, 1303.1067017444018, 0.0, 0.0, 0.0, 0.0, -518.716933574311, 0.0]
['beep', 0.0, 1289.8297655379495, 0.0, 0.0, 0.0, 0.0, -522.5167301317132, 0.0]
['beep', 0.0, 1295.3059429294997, 0.0, 0.0, 0.0, 0.0, -523.9919452657634, 0.0]
['beep', 0.0, 1312.002696037614, 0.0, 0.0, 0.0, 0.0, -522.427323153892, 0.0]
['beep', 0.0, 1315.2436989836335, 0.0, 0.0, 0.0, 0.0, -518.1581399629283, 0.0]
['beep', 0.0, 1302.4361494107425, 0.0, 0.0, 0.0, 0.0, -518.4487126408474, 0.0]
['beep', 0.0, 1290.165041704779, 0.0, 0.0, 0.0, 0.0, -522.3379161760707, 0.0]
['beep', 0.0, 1297.16113771929, 0.0, 0.0, 0.0, 0.0, -523.9248900323976, 0.0]
['beep', 0.0, 1312.5838413934518, 0.0, 0.0, 0.0, 0.0, -520.6391835974674, 0.0]
['beep', 0.0, 1315.6236786393738, 0.0, 0.0, 0.0, 0.0, -519.4768928857915, 0.0]
['beep', 0.0, 1301.8326523104492, 0.0, 0.0, 0.0, 0.0, -521.91323303142, 0.0]
['beep', 0.0, 1291.5284981165528, 0.0, 0.0, 0.0, 0.0, -524.1707592214059, 0.0]
['beep', 0.0, 1296.356474918899, 0.0, 0.0, 0.0, 0.0, -524.9530702773417, 0.0]
['beep', 0.0, 1311.4662541706866, 0.0, 0.0, 0.0, 0.0, -523.5002068877467, 0.0]
['beep', 0.0, 1315.9589548062033, 0.0, 0.0, 0.0, 0.0, -522.8967097874535, 0.0]
['beep', 0.0, 1301.899707543815, 0.0, 0.0, 0.0, 0.0, -522.3379161760707, 0.0]
['beep', 0.0, 1292.6237335948626, 0.0, 0.0, 0.0, 0.0, -522.7402475762663, 0.0]
['beep', 0.0, 1300.4915476431308, 0.0, 0.0, 0.0, 0.0, -522.069695242607, 0.0]
['beep', 0.0, 1318.194129251734, 0.0, 0.0, 0.0, 0.0, -518.8733957854981, 0.0]
['beep', 0.0, 1321.1669112642899, 0.0, 0.0, 0.0, 0.0, -509.39625613644796, 0.0]
['beep', 0.0, 1306.0794837569576, 0.0, 0.0, 0.0, 0.0, -460.8035636906104, 0.0]
['beep', 0.0, 1293.741320817628, 0.0, 0.0, 0.0, 0.0, -445.69378443882283, 0.0]
['beep', 0.0, 1298.815166808983, 0.0, 0.0, 0.0, 0.0, -481.7471482452331, 0.0]
['beep', 0.0, 1312.673248371273, 0.0, 0.0, 0.0, 0.0, -516.0123724952189, 0.0]
['beep', 0.0, 1315.131940261357, 0.0, 0.0, 0.0, 0.0, -517.3534771625373, 0.0]
['beep', 0.0, 1300.9832860211475, 0.0, 0.0, 0.0, 0.0, -520.3709626640037, 0.0]
['beep', 0.0, 1289.6509515823068, 0.0, 0.0, 0.0, 0.0, -523.3660964210148, 0.0]
['beep', 0.0, 1296.3788266633544, 0.0, 0.0, 0.0, 0.0, -520.9968115087523, 0.0]
['beep', 0.0, 1311.8909373153374, 0.0, 0.0, 0.0, 0.0, -518.6945818298557, 0.0]
['beep', 0.0, 1315.0872367724464, 0.0, 0.0, 0.0, 0.0, -518.4710643853026, 0.0]
['beep', 0.0, 1301.6314866103514, 0.0, 0.0, 0.0, 0.0, -519.9462795193529, 0.0]
['beep', 0.0, 1290.4332626382427, 0.0, 0.0, 0.0, 0.0, -523.3437446765596, 0.0]
['beep', 0.0, 1296.579992363452, 0.0, 0.0, 0.0, 0.0, -523.5449103766573, 0.0]
['beep', 0.0, 1312.9414693047368, 0.0, 0.0, 0.0, 0.0, -520.393314408459, 0.0]
['beep', 0.0, 1316.517748417586, 0.0, 0.0, 0.0, 0.0, -517.1970149513501, 0.0]
['beep', 0.0, 1303.2408122111335, 0.0, 0.0, 0.0, 0.0, -519.4768928857915, 0.0]
['beep', 0.0, 1291.0591114829913, 0.0, 0.0, 0.0, 0.0, -524.1484074769506, 0.0]
['beep', 0.0, 1297.4964138861196, 0.0, 0.0, 0.0, 0.0, -523.2096342098278, 0.0]
['beep', 0.0, 1313.7014286162173, 0.0, 0.0, 0.0, 0.0, -519.9462795193529, 0.0]
['beep', 0.0, 1317.7470943626279, 0.0, 0.0, 0.0, 0.0, -516.7946835511545, 0.0]
['beep', 0.0, 1304.4254546672648, 0.0, 0.0, 0.0, 0.0, -519.1639684634172, 0.0]
['beep', 0.0, 1293.3389894174325, 0.0, 0.0, 0.0, 0.0, -522.6284888539898, 0.0]
['beep', 0.0, 1299.1727947202678, 0.0, 0.0, 0.0, 0.0, -522.427323153892, 0.0]
['beep', 0.0, 1313.3438007049324, 0.0, 0.0, 0.0, 0.0, -520.1027417305401, 0.0]
['beep', 0.0, 1316.8306728399602, 0.0, 0.0, 0.0, 0.0, -512.0784654710848, 0.0]
['beep', 0.0, 1303.866661055882, 0.0, 0.0, 0.0, 0.0, -465.7880027041439, 0.0]
['beep', 0.0, 1292.802547550505, 0.0, 0.0, 0.0, 0.0, -446.9678338727753, 0.0]
['beep', 0.0, 1298.7034080867063, 0.0, 0.0, 0.0, 0.0, -478.12616564347337, 0.0]
['beep', 0.0, 1314.5954983944296, 0.0, 0.0, 0.0, 0.0, -515.1853579503725, 0.0]
['beep', 0.0, 1317.5682804069854, 0.0, 0.0, 0.0, 0.0, -516.3700004065038, 0.0]
['beep', 0.0, 1304.4031029228095, 0.0, 0.0, 0.0, 0.0, -521.3320876755819, 0.0]
['beep', 0.0, 1292.936658017237, 0.0, 0.0, 0.0, 0.0, -525.6683260999115, 0.0]
['beep', 0.0, 1300.8938790433263, 0.0, 0.0, 0.0, 0.0, -524.3048696881377, 0.0]
['beep', 0.0, 1314.0814082719576, 0.0, 0.0, 0.0, 0.0, -520.8850527864757, 0.0]
['beep', 0.0, 1316.0483617840246, 0.0, 0.0, 0.0, 0.0, -517.8005120516434, 0.0]
['beep', 0.0, 1303.6878471002397, 0.0, 0.0, 0.0, 0.0, -520.3262591750931, 0.0]
['beep', 0.0, 1291.4614428831867, 0.0, 0.0, 0.0, 0.0, -524.4836836437802, 0.0]
['beep', 0.0, 1298.390483664332, 0.0, 0.0, 0.0, 0.0, -526.0036022667412, 0.0]
['beep', 0.0, 1313.7908355940385, 0.0, 0.0, 0.0, 0.0, -522.8743580429981, 0.0]
['beep', 0.0, 1318.0823705294574, 0.0, 0.0, 0.0, 0.0, -520.0356864971741, 0.0]
['beep', 0.0, 1304.7830825785497, 0.0, 0.0, 0.0, 0.0, -522.3155644316155, 0.0]
['beep', 0.0, 1292.7354923171392, 0.0, 0.0, 0.0, 0.0, -524.4166284104143, 0.0]
['beep', 0.0, 1299.2845534425442, 0.0, 0.0, 0.0, 0.0, -523.1649307209171, 0.0]
['beep', 0.0, 1313.5002629161195, 0.0, 0.0, 0.0, 0.0, -520.5944801085568, 0.0]
['beep', 0.0, 1316.9871350511473, 0.0, 0.0, 0.0, 0.0, -518.8957475299535, 0.0]
['beep', 0.0, 1303.9113645447928, 0.0, 0.0, 0.0, 0.0, -522.0473434981518, 0.0]
['beep', 0.0, 1291.8861260278377, 0.0, 0.0, 0.0, 0.0, -525.0648289996182, 0.0]
['beep', 0.0, 1297.2058412082006, 0.0, 0.0, 0.0, 0.0, -525.3777534219925, 0.0]
['beep', 0.0, 1312.1368065043457, 0.0, 0.0, 0.0, 0.0, -519.3427824190596, 0.0]
['beep', 0.0, 1316.0036582951138, 0.0, 0.0, 0.0, 0.0, -503.60715432252346, 0.0]
['beep', 0.0, 1303.2855157000442, 0.0, 0.0, 0.0, 0.0, -456.2661595661831, 0.0]
['beep', 0.0, 1292.0872917279353, 0.0, 0.0, 0.0, 0.0, -448.688918195834, 0.0]
['beep', 0.0, 1297.9210970307706, 0.0, 0.0, 0.0, 0.0, -479.42256682188116, 0.0]
['beep', 0.0, 1314.1708152497788, 0.0, 0.0, 0.0, 0.0, -518.2028434518389, 0.0]
['beep', 0.0, 1317.6353356403513, 0.0, 0.0, 0.0, 0.0, -519.879224285987, 0.0]
['beep', 0.0, 1304.7607308340944, 0.0, 0.0, 0.0, 0.0, -521.19797720885, 0.0]
['beep', 0.0, 1292.7354923171392, 0.0, 0.0, 0.0, 0.0, -523.0755237430959, 0.0]
['beep', 0.0, 1298.9269255312593, 0.0, 0.0, 0.0, 0.0, -522.3379161760707, 0.0]
['beep', 0.0, 1314.9978297946252, 0.0, 0.0, 0.0, 0.0, -518.2475469407495, 0.0]
['beep', 0.0, 1317.7247426181725, 0.0, 0.0, 0.0, 0.0, -516.3700004065038, 0.0]
['beep', 0.0, 1306.2359459681447, 0.0, 0.0, 0.0, 0.0, -520.2145004528165, 0.0]
['beep', 0.0, 1293.9201347732705, 0.0, 0.0, 0.0, 0.0, -524.3719249215037, 0.0]
['beep', 0.0, 1299.0610359979912, 0.0, 0.0, 0.0, 0.0, -524.10370398804, 0.0]
['beep', 0.0, 1314.3049257165105, 0.0, 0.0, 0.0, 0.0, -521.8908812869646, 0.0]
['beep', 0.0, 1318.2611844850999, 0.0, 0.0, 0.0, 0.0, -519.6333550969786, 0.0]
['beep', 0.0, 1304.8277860674605, 0.0, 0.0, 0.0, 0.0, -521.9355847758752, 0.0]
['beep', 0.0, 1293.2048789507007, 0.0, 0.0, 0.0, 0.0, -525.0648289996182, 0.0]
['beep', 0.0, 1299.485719142642, 0.0, 0.0, 0.0, 0.0, -523.1872824653724, 0.0]
['beep', 0.0, 1314.7072571167062, 0.0, 0.0, 0.0, 0.0, -520.1474452194507, 0.0]
['beep', 0.0, 1317.680039129262, 0.0, 0.0, 0.0, 0.0, -520.5721283641014, 0.0]
['beep', 0.0, 1303.866661055882, 0.0, 0.0, 0.0, 0.0, -523.8578347990316, 0.0]
['beep', 0.0, 1292.4672713836756, 0.0, 0.0, 0.0, 0.0, -525.3777534219925, 0.0]
['beep', 0.0, 1298.8822220423488, 0.0, 0.0, 0.0, 0.0, -525.1542359774394, 0.0]
['beep', 0.0, 1315.6013268949184, 0.0, 0.0, 0.0, 0.0, -520.7732940641993, 0.0]
['beep', 0.0, 1318.1717775072786, 0.0, 0.0, 0.0, 0.0, -506.0658462126072, 0.0]
['beep', 0.0, 1304.0901785004353, 0.0, 0.0, 0.0, 0.0, -456.6014357330127, 0.0]
['beep', 0.0, 1291.7967190500165, 0.0, 0.0, 0.0, 0.0, -449.4712292517697, 0.0]
['beep', 0.0, 1297.4070069082984, 0.0, 0.0, 0.0, 0.0, -485.2116686358057, 0.0]
['beep', 0.0, 1312.3379722044435, 0.0, 0.0, 0.0, 0.0, -520.3709626640037, 0.0]
['beep', 0.0, 1317.1435972623347, 0.0, 0.0, 0.0, 0.0, -520.5050731307356, 0.0]
['beep', 0.0, 1303.9113645447928, 0.0, 0.0, 0.0, 0.0, -522.7402475762663, 0.0]
['beep', 0.0, 1290.455614382698, 0.0, 0.0, 0.0, 0.0, -525.5789191220903, 0.0]
['beep', 0.0, 1296.9152685302818, 0.0, 0.0, 0.0, 0.0, -523.7237243322998, 0.0]
['beep', 0.0, 1313.969649549681, 0.0, 0.0, 0.0, 0.0, -522.8520062985428, 0.0]
['beep', 0.0, 1316.5624519064966, 0.0, 0.0, 0.0, 0.0, -520.6168318530121, 0.0]
['beep', 0.0, 1304.8948413008263, 0.0, 0.0, 0.0, 0.0, -521.5109016312244, 0.0]
['beep', 0.0, 1292.4672713836756, 0.0, 0.0, 0.0, 0.0, -527.7246865897997, 0.0]
['beep', 0.0, 1297.6081726083962, 0.0, 0.0, 0.0, 0.0, -528.2834802011824, 0.0]
['beep', 0.0, 1312.9638210491921, 0.0, 0.0, 0.0, 0.0, -522.0473434981518, 0.0]
['beep', 0.0, 1317.6129838958961, 0.0, 0.0, 0.0, 0.0, -519.074561485596, 0.0]
['beep', 0.0, 1303.5760883779633, 0.0, 0.0, 0.0, 0.0, -521.6003086090457, 0.0]
['beep', 0.0, 1291.3943876498208, 0.0, 0.0, 0.0, 0.0, -526.4282854113919, 0.0]
['beep', 0.0, 1296.647047596818, 0.0, 0.0, 0.0, 0.0, -526.3165266891154, 0.0]
['beep', 0.0, 1312.4720826711755, 0.0, 0.0, 0.0, 0.0, -523.3884481654702, 0.0]
['beep', 0.0, 1317.031838540058, 0.0, 0.0, 0.0, 0.0, -522.3379161760707, 0.0]
['beep', 0.0, 1303.3078674444996, 0.0, 0.0, 0.0, 0.0, -523.4778551432914, 0.0]
['beep', 0.0, 1293.6966173287176, 0.0, 0.0, 0.0, 0.0, -527.523520889702, 0.0]
['beep', 0.0, 1298.4798906421531, 0.0, 0.0, 0.0, 0.0, -525.2883464441712, 0.0]
['beep', 0.0, 1312.7179518601838, 0.0, 0.0, 0.0, 0.0, -521.5109016312244, 0.0]
['beep', 0.0, 1317.2106524957005, 0.0, 0.0, 0.0, 0.0, -508.63629682496753, 0.0]
['beep', 0.0, 1303.9113645447928, 0.0, 0.0, 0.0, 0.0, -460.58004624605735, 0.0]
['beep', 0.0, 1292.7578440615946, 0.0, 0.0, 0.0, 0.0, -452.33225254204905, 0.0]
['beep', 0.0, 1297.5858208639409, 0.0, 0.0, 0.0, 0.0, -491.60426755002356, 0.0]
['beep', 0.0, 1311.7568268486057, 0.0, 0.0, 0.0, 0.0, -521.0862184865736, 0.0]
['beep', 0.0, 1316.8306728399602, 0.0, 0.0, 0.0, 0.0, -519.6110033525233, 0.0]
['beep', 0.0, 1302.8608325553935, 0.0, 0.0, 0.0, 0.0, -521.1309219754842, 0.0]
['beep', 0.0, 1291.1708702052679, 0.0, 0.0, 0.0, 0.0, -524.0142970102188, 0.0]
['beep', 0.0, 1296.2670679410778, 0.0, 0.0, 0.0, 0.0, -524.0590004991294, 0.0]
['beep', 0.0, 1311.5780128929632, 0.0, 0.0, 0.0, 0.0, -522.0473434981518, 0.0]
['beep', 0.0, 1316.3165827174882, 0.0, 0.0, 0.0, 0.0, -520.9968115087523, 0.0]
['beep', 0.0, 1303.4643296556867, 0.0, 0.0, 0.0, 0.0, -524.0813522435847, 0.0]
['beep', 0.0, 1290.6567800827956, 0.0, 0.0, 0.0, 0.0, -526.4953406447579, 0.0]
['beep', 0.0, 1295.6188673518739, 0.0, 0.0, 0.0, 0.0, -525.2883464441712, 0.0]
['beep', 0.0, 1311.0862745149464, 0.0, 0.0, 0.0, 0.0, -521.2873841866713, 0.0]
['beep', 0.0, 1316.4730449286753, 0.0, 0.0, 0.0, 0.0, -520.7956458086545, 0.0]
['beep', 0.0, 1303.6878471002397, 0.0, 0.0, 0.0, 0.0, -523.1649307209171, 0.0]
['beep', 0.0, 1290.165041704779, 0.0, 0.0, 0.0, 0.0, -525.0201255107075, 0.0]
['beep', 0.0, 1295.9988470076141, 0.0, 0.0, 0.0, 0.0, -524.394276665959, 0.0]
['beep', 0.0, 1310.9968675371251, 0.0, 0.0, 0.0, 0.0, -522.4720266428026, 0.0]
['beep', 0.0, 1314.5954983944296, 0.0, 0.0, 0.0, 0.0, -520.460369641825, 0.0]
['beep', 0.0, 1303.9337162892482, 0.0, 0.0, 0.0, 0.0, -520.8850527864757, 0.0]
['beep', 0.0, 1291.4390911387316, 0.0, 0.0, 0.0, 0.0, -525.4671603998138, 0.0]
['beep', 0.0, 1296.0882539854354, 0.0, 0.0, 0.0, 0.0, -526.6741546004004, 0.0]
['beep', 0.0, 1311.7344751041503, 0.0, 0.0, 0.0, 0.0, -523.2096342098278, 0.0]
['beep', 0.0, 1316.875376328871, 0.0, 0.0, 0.0, 0.0, -515.5206341172021, 0.0]
['beep', 0.0, 1304.8501378119156, 0.0, 0.0, 0.0, 0.0, -470.14659287292875, 0.0]
['beep', 0.0, 1291.7967190500165, 0.0, 0.0, 0.0, 0.0, -451.8628659084876, 0.0]
['beep', 0.0, 1295.7976813075163, 0.0, 0.0, 0.0, 0.0, -478.66260751040073, 0.0]
['beep', 0.0, 1312.3156204599882, 0.0, 0.0, 0.0, 0.0, -518.3593056630261, 0.0]
['beep', 0.0, 1315.9142513172926, 0.0, 0.0, 0.0, 0.0, -520.1697969639059, 0.0]
['beep', 0.0, 1304.805434323005, 0.0, 0.0, 0.0, 0.0, -521.0638667421182, 0.0]
['beep', 0.0, 1292.5790301059521, 0.0, 0.0, 0.0, 0.0, -525.5118638887244, 0.0]
['beep', 0.0, 1297.4740621416643, 0.0, 0.0, 0.0, 0.0, -526.070657500107, 0.0]
['beep', 0.0, 1313.9920012941363, 0.0, 0.0, 0.0, 0.0, -522.4720266428026, 0.0]
['beep', 0.0, 1317.836501340449, 0.0, 0.0, 0.0, 0.0, -519.812169052621, 0.0]
['beep', 0.0, 1305.319524445477, 0.0, 0.0, 0.0, 0.0, -521.3320876755819, 0.0]
['beep', 0.0, 1292.1766987057565, 0.0, 0.0, 0.0, 0.0, -525.1765877218947, 0.0]
['beep', 0.0, 1297.0940824859242, 0.0, 0.0, 0.0, 0.0, -525.9812505222858, 0.0]
['beep', 0.0, 1313.9249460607705, 0.0, 0.0, 0.0, 0.0, -522.6061371095344, 0.0]
['beep', 0.0, 1318.5741089074743, 0.0, 0.0, 0.0, 0.0, -521.5109016312244, 0.0]
['beep', 0.0, 1305.0513035120134, 0.0, 0.0, 0.0, 0.0, -522.136750475973, 0.0]
['beep', 0.0, 1293.003713250603, 0.0, 0.0, 0.0, 0.0, -526.1824162223836, 0.0]
['beep', 0.0, 1298.5022423866085, 0.0, 0.0, 0.0, 0.0, -525.9812505222858, 0.0]
['beep', 0.0, 1313.813187338494, 0.0, 0.0, 0.0, 0.0, -521.91323303142, 0.0]
['beep', 0.0, 1318.1494257628235, 0.0, 0.0, 0.0, 0.0, -520.3486109195484, 0.0]
['beep', 0.0, 1306.5041669016084, 0.0, 0.0, 0.0, 0.0, -522.4049714094367, 0.0]
['beep', 0.0, 1294.3001144290108, 0.0, 0.0, 0.0, 0.0, -524.9754220217969, 0.0]
['beep', 0.0, 1298.7481115756168, 0.0, 0.0, 0.0, 0.0, -526.070657500107, 0.0]
['beep', 0.0, 1315.0425332835357, 0.0, 0.0, 0.0, 0.0, -523.0084685097299, 0.0]
['beep', 0.0, 1318.9764403076697, 0.0, 0.0, 0.0, 0.0, -500.2543926542274, 0.0]
['beep', 0.0, 1306.6606291127955, 0.0, 0.0, 0.0, 0.0, -453.38278453144846, 0.0]
['beep', 0.0, 1294.8365562959382, 0.0, 0.0, 0.0, 0.0, -451.50523799720264, 0.0]
['beep', 0.0, 1298.1446144753236, 0.0, 0.0, 0.0, 0.0, -491.1572326609174, 0.0]
['beep', 0.0, 1312.2709169710777, 0.0, 0.0, 0.0, 0.0, -522.1591022204283, 0.0]
['beep', 0.0, 1318.6188123963848, 0.0, 0.0, 0.0, 0.0, -520.3262591750931, 0.0]
['beep', 0.0, 1307.3535331909102, 0.0, 0.0, 0.0, 0.0, -522.6061371095344, 0.0]
['beep', 0.0, 1293.3389894174325, 0.0, 0.0, 0.0, 0.0, -526.6070993670344, 0.0]
['beep', 0.0, 1296.714102830184, 0.0, 0.0, 0.0, 0.0, -526.2047679668389, 0.0]
['beep', 0.0, 1312.1815099932564, 0.0, 0.0, 0.0, 0.0, -522.069695242607, 0.0]
['beep', 0.0, 1317.8141495959937, 0.0, 0.0, 0.0, 0.0, -520.5497766196462, 0.0]
['beep', 0.0, 1304.4925099006307, 0.0, 0.0, 0.0, 0.0, -523.9025382879422, 0.0]
['beep', 0.0, 1292.4672713836756, 0.0, 0.0, 0.0, 0.0, -526.3165266891154, 0.0]
['beep', 0.0, 1296.200012707712, 0.0, 0.0, 0.0, 0.0, -526.942375533864, 0.0]
['beep', 0.0, 1312.0473995265245, 0.0, 0.0, 0.0, 0.0, -522.1591022204283, 0.0]
['beep', 0.0, 1317.322411217977, 0.0, 0.0, 0.0, 0.0, -519.879224285987, 0.0]
['beep', 0.0, 1306.3924081793318, 0.0, 0.0, 0.0, 0.0, -522.6731923429004, 0.0]
['beep', 0.0, 1291.8861260278377, 0.0, 0.0, 0.0, 0.0, -526.5176923892132, 0.0]
['beep', 0.0, 1296.2894196855332, 0.0, 0.0, 0.0, 0.0, -527.1435412339617, 0.0]
['beep', 0.0, 1311.9579925487033, 0.0, 0.0, 0.0, 0.0, -523.7237243322998, 0.0]
['beep', 0.0, 1317.3671147068876, 0.0, 0.0, 0.0, 0.0, -520.5497766196462, 0.0]
['beep', 0.0, 1306.5041669016084, 0.0, 0.0, 0.0, 0.0, -522.6284888539898, 0.0]
['beep', 0.0, 1293.0484167395136, 0.0, 0.0, 0.0, 0.0, -527.523520889702, 0.0]
['beep', 0.0, 1297.1834894637454, 0.0, 0.0, 0.0, 0.0, -529.0434395126629, 0.0]
['beep', 0.0, 1313.2990972160217, 0.0, 0.0, 0.0, 0.0, -526.070657500107, 0.0]
['beep', 0.0, 1317.54592866253, 0.0, 0.0, 0.0, 0.0, -509.1503869474396, 0.0]
['beep', 0.0, 1305.520690145575, 0.0, 0.0, 0.0, 0.0, -459.6412729789344, 0.0]
['beep', 0.0, 1294.098948728913, 0.0, 0.0, 0.0, 0.0, -454.1650955873842, 0.0]
['beep', 0.0, 1298.032855753047, 0.0, 0.0, 0.0, 0.0, -492.0513024391297, 0.0]
['beep', 0.0, 1312.226213482167, 0.0, 0.0, 0.0, 0.0, -522.2708609427049, 0.0]
['beep', 0.0, 1317.5906321514408, 0.0, 0.0, 0.0, 0.0, -524.1707592214059, 0.0]
['beep', 0.0, 1305.4759866566642, 0.0, 0.0, 0.0, 0.0, -525.0648289996182, 0.0]
['beep', 0.0, 1292.6907888282287, 0.0, 0.0, 0.0, 0.0, -526.7412098337662, 0.0]
['beep', 0.0, 1297.004675508103, 0.0, 0.0, 0.0, 0.0, -527.2776517006936, 0.0]
['beep', 0.0, 1313.3438007049324, 0.0, 0.0, 0.0, 0.0, -526.3388784335707, 0.0]
['beep', 0.0, 1318.037667040547, 0.0, 0.0, 0.0, 0.0, -522.7849510651769, 0.0]
['beep', 0.0, 1307.1076640019016, 0.0, 0.0, 0.0, 0.0, -524.3719249215037, 0.0]
['beep', 0.0, 1293.942486517726, 0.0, 0.0, 0.0, 0.0, -528.4175906679143, 0.0]
['beep', 0.0, 1296.8035098080052, 0.0, 0.0, 0.0, 0.0, -527.4788174007914, 0.0]
['beep', 0.0, 1312.3379722044435, 0.0, 0.0, 0.0, 0.0, -522.7849510651769, 0.0]
['beep', 0.0, 1318.7305711186614, 0.0, 0.0, 0.0, 0.0, -520.1027417305401, 0.0]
['beep', 0.0, 1306.2135942236894, 0.0, 0.0, 0.0, 0.0, -523.1649307209171, 0.0]
['beep', 0.0, 1292.422567894765, 0.0, 0.0, 0.0, 0.0, -525.8247883110987, 0.0]
['beep', 0.0, 1295.708274329695, 0.0, 0.0, 0.0, 0.0, -525.5342156331797, 0.0]
['beep', 0.0, 1310.6615913702956, 0.0, 0.0, 0.0, 0.0, -524.0142970102188, 0.0]
['beep', 0.0, 1316.6965623732285, 0.0, 0.0, 0.0, 0.0, -521.8908812869646, 0.0]
['beep', 0.0, 1304.358399433899, 0.0, 0.0, 0.0, 0.0, -523.2096342098278, 0.0]
['beep', 0.0, 1292.1543469613014, 0.0, 0.0, 0.0, 0.0, -526.2494714557495, 0.0]
['beep', 0.0, 1297.4070069082984, 0.0, 0.0, 0.0, 0.0, -526.7412098337662, 0.0]
['beep', 0.0, 1316.3612862063987, 0.0, 0.0, 0.0, 0.0, -521.6003086090457, 0.0]
['beep', 0.0, 1322.8432920984378, 0.0, 0.0, 0.0, 0.0, -507.5857648355681, 0.0]
['beep', 0.0, 1311.7344751041503, 0.0, 0.0, 0.0, 0.0, -458.47898226725846, 0.0]
['beep', 0.0, 1299.6645330982844, 0.0, 0.0, 0.0, 0.0, -448.3759937734597, 0.0]
['beep', 0.0, 1302.100873243913, 0.0, 0.0, 0.0, 0.0, -485.4128343359035, 0.0]
['beep', 0.0, 1315.8248443394714, 0.0, 0.0, 0.0, 0.0, -519.2757271856937, 0.0]
['beep', 0.0, 1319.5352339190524, 0.0, 0.0, 0.0, 0.0, -519.2757271856937, 0.0]
['beep', 0.0, 1306.481815157153, 0.0, 0.0, 0.0, 0.0, -520.2368521972719, 0.0]
['beep', 0.0, 1293.1378237173349, 0.0, 0.0, 0.0, 0.0, -523.3213929321042, 0.0]
['beep', 0.0, 1296.356474918899, 0.0, 0.0, 0.0, 0.0, -524.8413115550651, 0.0]
['beep', 0.0, 1313.5226146605748, 0.0, 0.0, 0.0, 0.0, -522.0920469870624, 0.0]
['beep', 0.0, 1319.8481583414268, 0.0, 0.0, 0.0, 0.0, -521.0862184865736, 0.0]
['beep', 0.0, 1307.644105868829, 0.0, 0.0, 0.0, 0.0, -523.9919452657634, 0.0]
['beep', 0.0, 1295.037721996036, 0.0, 0.0, 0.0, 0.0, -527.1882447228724, 0.0]
['beep', 0.0, 1299.0610359979912, 0.0, 0.0, 0.0, 0.0, -526.9870790227747, 0.0]
['beep', 0.0, 1314.5060914166083, 0.0, 0.0, 0.0, 0.0, -521.8908812869646, 0.0]
['beep', 0.0, 1319.3787717078653, 0.0, 0.0, 0.0, 0.0, -519.879224285987, 0.0]
['beep', 0.0, 1307.711161102195, 0.0, 0.0, 0.0, 0.0, -523.0084685097299, 0.0]
['beep', 0.0, 1294.613038851385, 0.0, 0.0, 0.0, 0.0, -527.456465656336, 0.0]
['beep', 0.0, 1297.5858208639409, 0.0, 0.0, 0.0, 0.0, -528.7081633458332, 0.0]
['beep', 0.0, 1313.097931515924, 0.0, 0.0, 0.0, 0.0, -525.5118638887244, 0.0]
['beep', 0.0, 1321.032800797558, 0.0, 0.0, 0.0, 0.0, -522.0249917536964, 0.0]
['beep', 0.0, 1308.2699547135776, 0.0, 0.0, 0.0, 0.0, -523.6119656100233, 0.0]
['beep', 0.0, 1294.7695010625723, 0.0, 0.0, 0.0, 0.0, -528.6634598569226, 0.0]
['beep', 0.0, 1299.4410156537315, 0.0, 0.0, 0.0, 0.0, -530.3398406910707, 0.0]
['beep', 0.0, 1313.2543937271112, 0.0, 0.0, 0.0, 0.0, -525.847140055554, 0.0]
['beep', 0.0, 1319.490530430142, 0.0, 0.0, 0.0, 0.0, -523.7013725878445, 0.0]
['beep', 0.0, 1307.778216335561, 0.0, 0.0, 0.0, 0.0, -492.2971716281381, 0.0]
['beep', 0.0, 1294.4789283846533, 0.0, 0.0, 0.0, 0.0, -455.2156275767836, 0.0]
['beep', 0.0, 1299.1504429758124, 0.0, 0.0, 0.0, 0.0, -473.1417266299399, 0.0]
['beep', 0.0, 1313.6343733828514, 0.0, 0.0, 0.0, 0.0, -518.8286922965875, 0.0]
['beep', 0.0, 1318.350591462921, 0.0, 0.0, 0.0, 0.0, -524.2378144547719, 0.0]
['beep', 0.0, 1307.644105868829, 0.0, 0.0, 0.0, 0.0, -523.5002068877467, 0.0]
['beep', 0.0, 1295.7976813075163, 0.0, 0.0, 0.0, 0.0, -525.7577330777327, 0.0]
['beep', 0.0, 1298.323428430966, 0.0, 0.0, 0.0, 0.0, -528.9987360237523, 0.0]
['beep', 0.0, 1314.0814082719576, 0.0, 0.0, 0.0, 0.0, -525.9812505222858, 0.0]
['beep', 0.0, 1319.289364730044, 0.0, 0.0, 0.0, 0.0, -521.4885498867691, 0.0]
['beep', 0.0, 1307.934678546748, 0.0, 0.0, 0.0, 0.0, -522.3826196649813, 0.0]
['beep', 0.0, 1294.747149318117, 0.0, 0.0, 0.0, 0.0, -527.4788174007914, 0.0]
['beep', 0.0, 1297.3399516749325, 0.0, 0.0, 0.0, 0.0, -530.5633581356237, 0.0]
['beep', 0.0, 1313.0532280270133, 0.0, 0.0, 0.0, 0.0, -525.1765877218947, 0.0]
['beep', 0.0, 1318.551757163019, 0.0, 0.0, 0.0, 0.0, -521.3544394200372, 0.0]
['beep', 0.0, 1307.0406087685358, 0.0, 0.0, 0.0, 0.0, -523.5449103766573, 0.0]
['beep', 0.0, 1293.2495824396112, 0.0, 0.0, 0.0, 0.0, -525.6683260999115, 0.0]
['beep', 0.0, 1297.1164342303794, 0.0, 0.0, 0.0, 0.0, -526.6965063448556, 0.0]
['beep', 0.0, 1313.746132105128, 0.0, 0.0, 0.0, 0.0, -522.7402475762663, 0.0]
['beep', 0.0, 1321.4127804532982, 0.0, 0.0, 0.0, 0.0, -521.6226603535009, 0.0]
['beep', 0.0, 1308.940507047237, 0.0, 0.0, 0.0, 0.0, -524.4166284104143, 0.0]
['beep', 0.0, 1296.0435504965246, 0.0, 0.0, 0.0, 0.0, -527.6129278675232, 0.0]
['beep', 0.0, 1299.0163325090805, 0.0, 0.0, 0.0, 0.0, -527.0317825116853, 0.0]
['beep', 0.0, 1314.4613879276978, 0.0, 0.0, 0.0, 0.0, -525.5342156331797, 0.0]
['beep', 0.0, 1320.4069519528093, 0.0, 0.0, 0.0, 0.0, -508.74805554724406, 0.0]
['beep', 0.0, 1310.0133907810916, 0.0, 0.0, 0.0, 0.0, -460.0212526346747, 0.0]
['beep', 0.0, 1298.099910986413, 0.0, 0.0, 0.0, 0.0, -453.2263223202613, 0.0]
['beep', 0.0, 1300.4021406653096, 0.0, 0.0, 0.0, 0.0, -484.5411163021465, 0.0]
['beep', 0.0, 1315.422512939276, 0.0, 0.0, 0.0, 0.0, -522.427323153892, 0.0]
['beep', 0.0, 1322.3515537204212, 0.0, 0.0, 0.0, 0.0, -521.8908812869646, 0.0]
['beep', 0.0, 1311.063922770491, 0.0, 0.0, 0.0, 0.0, -522.7402475762663, 0.0]
['beep', 0.0, 1295.5294603740526, 0.0, 0.0, 0.0, 0.0, -528.2387767122718, 0.0]
['beep', 0.0, 1299.5080708870973, 0.0, 0.0, 0.0, 0.0, -527.5905761230679, 0.0]
['beep', 0.0, 1316.3389344619436, 0.0, 0.0, 0.0, 0.0, -523.7907795656657, 0.0]
['beep', 0.0, 1321.457483942209, 0.0, 0.0, 0.0, 0.0, -521.7791225646881, 0.0]
['beep', 0.0, 1310.6168878813849, 0.0, 0.0, 0.0, 0.0, -523.522558632202, 0.0]
['beep', 0.0, 1295.9764952631588, 0.0, 0.0, 0.0, 0.0, -527.2552999562383, 0.0]
['beep', 0.0, 1298.5245941310638, 0.0, 0.0, 0.0, 0.0, -528.2611284567271, 0.0]
['beep', 0.0, 1313.6567251273068, 0.0, 0.0, 0.0, 0.0, -524.5283871326908, 0.0]
['beep', 0.0, 1320.3846002083542, 0.0, 0.0, 0.0, 0.0, -522.8520062985428, 0.0]
['beep', 0.0, 1309.1193210028794, 0.0, 0.0, 0.0, 0.0, -524.0813522435847, 0.0]
['beep', 0.0, 1296.4682336411756, 0.0, 0.0, 0.0, 0.0, -526.5623958781238, 0.0]
['beep', 0.0, 1299.0610359979912, 0.0, 0.0, 0.0, 0.0, -527.814093567621, 0.0]
['beep', 0.0, 1312.4720826711755, 0.0, 0.0, 0.0, 0.0, -525.8694918000093, 0.0]
['beep', 0.0, 1320.004620552614, 0.0, 0.0, 0.0, 0.0, -522.136750475973, 0.0]
['beep', 0.0, 1309.8345768254492, 0.0, 0.0, 0.0, 0.0, -523.6343173544785, 0.0]
['beep', 0.0, 1295.417701651776, 0.0, 0.0, 0.0, 0.0, -527.5682243786126, 0.0]
['beep', 0.0, 1297.8316900529494, 0.0, 0.0, 0.0, 0.0, -528.8646255570204, 0.0]
['beep', 0.0, 1312.4273791822648, 0.0, 0.0, 0.0, 0.0, -523.9919452657634, 0.0]
['beep', 0.0, 1318.775274607572, 0.0, 0.0, 0.0, 0.0, -507.4069508799256, 0.0]
['beep', 0.0, 1306.8841465573487, 0.0, 0.0, 0.0, 0.0, -459.70832821230033, 0.0]
['beep', 0.0, 1293.7189690731727, 0.0, 0.0, 0.0, 0.0, -452.28754905313843, 0.0]
['beep', 0.0, 1296.200012707712, 0.0, 0.0, 0.0, 0.0, -480.54015404464656, 0.0]
['beep', 0.0, 1311.2203849816783, 0.0, 0.0, 0.0, 0.0, -520.6391835974674, 0.0]
['beep', 0.0, 1319.0211437965804, 0.0, 0.0, 0.0, 0.0, -523.0755237430959, 0.0]
['beep', 0.0, 1307.9570302912034, 0.0, 0.0, 0.0, 0.0, -523.7237243322998, 0.0]
['beep', 0.0, 1294.3001144290108, 0.0, 0.0, 0.0, 0.0, -525.3554016775372, 0.0]
['beep', 0.0, 1298.5022423866085, 0.0, 0.0, 0.0, 0.0, -527.4788174007914, 0.0]
['beep', 0.0, 1312.807358838005, 0.0, 0.0, 0.0, 0.0, -525.8694918000093, 0.0]
['beep', 0.0, 1318.2835362295552, 0.0, 0.0, 0.0, 0.0, -523.5449103766573, 0.0]
['beep', 0.0, 1308.6052308804074, 0.0, 0.0, 0.0, 0.0, -525.4448086553584, 0.0]
['beep', 0.0, 1293.003713250603, 0.0, 0.0, 0.0, 0.0, -528.5069976457355, 0.0]
['beep', 0.0, 1296.1776609632566, 0.0, 0.0, 0.0, 0.0, -528.7752185791992, 0.0]
['beep', 0.0, 1312.7850070935497, 0.0, 0.0, 0.0, 0.0, -525.9365470333752, 0.0]
['beep', 0.0, 1318.5294054185636, 0.0, 0.0, 0.0, 0.0, -522.5167301317132, 0.0]
['beep', 0.0, 1308.5381756470413, 0.0, 0.0, 0.0, 0.0, -523.1202272320065, 0.0]
['beep', 0.0, 1293.5625068619856, 0.0, 0.0, 0.0, 0.0, -528.8869773014757, 0.0]
['beep', 0.0, 1297.3175999304772, 0.0, 0.0, 0.0, 0.0, -528.8869773014757, 0.0]
['beep', 0.0, 1311.9356408042481, 0.0, 0.0, 0.0, 0.0, -525.2883464441712, 0.0]
['beep', 0.0, 1318.842329840938, 0.0, 0.0, 0.0, 0.0, -523.9025382879422, 0.0]
['beep', 0.0, 1308.426416924765, 0.0, 0.0, 0.0, 0.0, -525.5342156331797, 0.0]
['beep', 0.0, 1293.9648382621813, 0.0, 0.0, 0.0, 0.0, -529.6022331240456, 0.0]
['beep', 0.0, 1296.1106057298907, 0.0, 0.0, 0.0, 0.0, -528.4622941568249, 0.0]
['beep', 0.0, 1310.840405325938, 0.0, 0.0, 0.0, 0.0, -526.1824162223836, 0.0]
['beep', 0.0, 1319.6246408968736, 0.0, 0.0, 0.0, 0.0, -524.1484074769506, 0.0]
['beep', 0.0, 1308.1581959913012, 0.0, 0.0, 0.0, 0.0, -495.69463678534476, 0.0]
['beep', 0.0, 1294.2107074511896, 0.0, 0.0, 0.0, 0.0, -457.6966712113227, 0.0]
['beep', 0.0, 1296.5129371300861, 0.0, 0.0, 0.0, 0.0, -476.38272957595944, 0.0]
['beep', 0.0, 1311.2203849816783, 0.0, 0.0, 0.0, 0.0, -521.7120673313221, 0.0]
['beep', 0.0, 1318.2388327406447, 0.0, 0.0, 0.0, 0.0, -523.5672621211127, 0.0]
['beep', 0.0, 1309.8345768254492, 0.0, 0.0, 0.0, 0.0, -522.650840598445, 0.0]
['beep', 0.0, 1294.613038851385, 0.0, 0.0, 0.0, 0.0, -528.8869773014757, 0.0]
['beep', 0.0, 1296.1776609632566, 0.0, 0.0, 0.0, 0.0, -530.8092273246322, 0.0]
['beep', 0.0, 1311.8909373153374, 0.0, 0.0, 0.0, 0.0, -526.8529685560428, 0.0]
['beep', 0.0, 1319.7811031080607, 0.0, 0.0, 0.0, 0.0, -525.3554016775372, 0.0]
['beep', 0.0, 1309.3651901918877, 0.0, 0.0, 0.0, 0.0, -525.3554016775372, 0.0]
['beep', 0.0, 1295.708274329695, 0.0, 0.0, 0.0, 0.0, -528.3728871790037, 0.0]
['beep', 0.0, 1298.0552074975024, 0.0, 0.0, 0.0, 0.0, -528.0823145010846, 0.0]
['beep', 0.0, 1313.0532280270133, 0.0, 0.0, 0.0, 0.0, -525.1765877218947, 0.0]
['beep', 0.0, 1319.6693443857844, 0.0, 0.0, 0.0, 0.0, -522.717895831811, 0.0]
['beep', 0.0, 1309.231079725156, 0.0, 0.0, 0.0, 0.0, -522.2932126871601, 0.0]
['beep', 0.0, 1295.8647365408822, 0.0, 0.0, 0.0, 0.0, -527.4341139118808, 0.0]
['beep', 0.0, 1298.5692976199743, 0.0, 0.0, 0.0, 0.0, -529.8928058019645, 0.0]
['beep', 0.0, 1312.6061931379072, 0.0, 0.0, 0.0, 0.0, -527.0988377450511, 0.0]
['beep', 0.0, 1321.3010217310216, 0.0, 0.0, 0.0, 0.0, -523.1649307209171, 0.0]
['beep', 0.0, 1309.9463355477258, 0.0, 0.0, 0.0, 0.0, -523.880186543487, 0.0]
['beep', 0.0, 1295.8870882853375, 0.0, 0.0, 0.0, 0.0, -527.523520889702, 0.0]
['beep', 0.0, 1297.9881522641365, 0.0, 0.0, 0.0, 0.0, -528.4846459012801, 0.0]
['beep', 0.0, 1313.16498674929, 0.0, 0.0, 0.0, 0.0, -527.5011691452466, 0.0]
['beep', 0.0, 1320.161082763801, 0.0, 0.0, 0.0, 0.0, -517.040552740163, 0.0]
['beep', 0.0, 1309.454597169709, 0.0, 0.0, 0.0, 0.0, -466.9279416713645, 0.0]
['beep', 0.0, 1295.3506464184102, 0.0, 0.0, 0.0, 0.0, -453.36043278699316, 0.0]
['beep', 0.0, 1297.87639354186, 0.0, 0.0, 0.0, 0.0, -477.8132412210991, 0.0]
['beep', 0.0, 1312.293268715533, 0.0, 0.0, 0.0, 0.0, -521.1532737199394, 0.0]
['beep', 0.0, 1318.708219374206, 0.0, 0.0, 0.0, 0.0, -524.9754220217969, 0.0]
['beep', 0.0, 1308.7840448360498, 0.0, 0.0, 0.0, 0.0, -525.5342156331797, 0.0]
['beep', 0.0, 1295.4847568851421, 0.0, 0.0, 0.0, 0.0, -529.9375092908751, 0.0]
['beep', 0.0, 1298.0552074975024, 0.0, 0.0, 0.0, 0.0, -530.7868755801768, 0.0]
['beep', 0.0, 1312.3156204599882, 0.0, 0.0, 0.0, 0.0, -527.2552999562383, 0.0]
['beep', 0.0, 1321.2786699865665, 0.0, 0.0, 0.0, 0.0, -523.880186543487, 0.0]
['beep', 0.0, 1310.0133907810916, 0.0, 0.0, 0.0, 0.0, -524.8413115550651, 0.0]
['beep', 0.0, 1295.7306260741505, 0.0, 0.0, 0.0, 0.0, -528.618756368012, 0.0]
['beep', 0.0, 1297.8540417974045, 0.0, 0.0, 0.0, 0.0, -529.3340121905818, 0.0]
['beep', 0.0, 1311.8238820819715, 0.0, 0.0, 0.0, 0.0, -527.300003445149, 0.0]
['beep', 0.0, 1318.2611844850999, 0.0, 0.0, 0.0, 0.0, -523.4107999099255, 0.0]
['beep', 0.0, 1308.0240855245693, 0.0, 0.0, 0.0, 0.0, -524.1931109658613, 0.0]
['beep', 0.0, 1294.5012801291086, 0.0, 0.0, 0.0, 0.0, -527.3670586785148, 0.0]
['beep', 0.0, 1296.2447161966224, 0.0, 0.0, 0.0, 0.0, -528.4175906679143, 0.0]
['beep', 0.0, 1310.5051291591085, 0.0, 0.0, 0.0, 0.0, -526.2271197112942, 0.0]
['beep', 0.0, 1320.004620552614, 0.0, 0.0, 0.0, 0.0, -524.1260557324953, 0.0]
['beep', 0.0, 1308.1581959913012, 0.0, 0.0, 0.0, 0.0, -525.2436429552606, 0.0]
['beep', 0.0, 1294.7247975736616, 0.0, 0.0, 0.0, 0.0, -528.8646255570204, 0.0]
['beep', 0.0, 1296.8258615524605, 0.0, 0.0, 0.0, 0.0, -529.4234191684031, 0.0]
['beep', 0.0, 1311.9579925487033, 0.0, 0.0, 0.0, 0.0, -526.070657500107, 0.0]
['beep', 0.0, 1320.1163792748905, 0.0, 0.0, 0.0, 0.0, -515.7217998172998, 0.0]
['beep', 0.0, 1309.4098936807984, 0.0, 0.0, 0.0, 0.0, -468.3584533165042, 0.0]
['beep', 0.0, 1295.842384796427, 0.0, 0.0, 0.0, 0.0, -452.8463426645211, 0.0]
['beep', 0.0, 1298.7257598311617, 0.0, 0.0, 0.0, 0.0, -477.36620633199294, 0.0]
['beep', 0.0, 1313.3438007049324, 0.0, 0.0, 0.0, 0.0, -519.2757271856937, 0.0]
['beep', 0.0, 1319.7140478746949, 0.0, 0.0, 0.0, 0.0, -524.3495731770483, 0.0]
['beep', 0.0, 1310.1698529922787, 0.0, 0.0, 0.0, 0.0, -526.4282854113919, 0.0]
['beep', 0.0, 1297.0270272525581, 0.0, 0.0, 0.0, 0.0, -529.19990172385, 0.0]
['beep', 0.0, 1298.166966219779, 0.0, 0.0, 0.0, 0.0, -529.490474401769, 0.0]
['beep', 0.0, 1313.455559427209, 0.0, 0.0, 0.0, 0.0, -527.3670586785148, 0.0]
['beep', 0.0, 1320.8763385863708, 0.0, 0.0, 0.0, 0.0, -523.9025382879422, 0.0]
['beep', 0.0, 1310.1698529922787, 0.0, 0.0, 0.0, 0.0, -524.9530702773417, 0.0]
['beep', 0.0, 1295.9317917742483, 0.0, 0.0, 0.0, 0.0, -529.4457709128584, 0.0]
['beep', 0.0, 1296.870565041371, 0.0, 0.0, 0.0, 0.0, -531.7032971028444, 0.0]
['beep', 0.0, 1312.5614896489967, 0.0, 0.0, 0.0, 0.0, -528.6411081124674, 0.0]
['beep', 0.0, 1320.5410624195413, 0.0, 0.0, 0.0, 0.0, -526.2494714557495, 0.0]
['beep', 0.0, 1310.035742525547, 0.0, 0.0, 0.0, 0.0, -524.8189598106098, 0.0]
['beep', 0.0, 1296.6023441079074, 0.0, 0.0, 0.0, 0.0, -527.7693900787103, 0.0]
['beep', 0.0, 1297.9881522641365, 0.0, 0.0, 0.0, 0.0, -528.6634598569226, 0.0]
['beep', 0.0, 1313.1426350048346, 0.0, 0.0, 0.0, 0.0, -524.617794110512, 0.0]
['beep', 0.0, 1322.418608953787, 0.0, 0.0, 0.0, 0.0, -522.0920469870624, 0.0]
['beep', 0.0, 1311.1756814927676, 0.0, 0.0, 0.0, 0.0, -526.5623958781238, 0.0]
['beep', 0.0, 1296.7588063190944, 0.0, 0.0, 0.0, 0.0, -530.5857098800791, 0.0]
['beep', 0.0, 1298.3681319198768, 0.0, 0.0, 0.0, 0.0, -529.781047079688, 0.0]
['beep', 0.0, 1313.9249460607705, 0.0, 0.0, 0.0, 0.0, -525.9812505222858, 0.0]
['beep', 0.0, 1322.0162775535916, 0.0, 0.0, 0.0, 0.0, -521.555605120135, 0.0]
['beep', 0.0, 1311.6227163818737, 0.0, 0.0, 0.0, 0.0, -478.8637732104985, 0.0]
['beep', 0.0, 1297.9434487752258, 0.0, 0.0, 0.0, 0.0, -452.64517696442334, 0.0]
['beep', 0.0, 1300.7150650876838, 0.0, 0.0, 0.0, 0.0, -479.6013807775236, 0.0]
['beep', 0.0, 1315.6236786393738, 0.0, 0.0, 0.0, 0.0, -522.9190615319087, 0.0]
['beep', 0.0, 1323.1785682652676, 0.0, 0.0, 0.0, 0.0, -524.3048696881377, 0.0]
['beep', 0.0, 1312.7850070935497, 0.0, 0.0, 0.0, 0.0, -523.9248900323976, 0.0]
['beep', 0.0, 1297.7869865640387, 0.0, 0.0, 0.0, 0.0, -527.814093567621, 0.0]
['beep', 0.0, 1299.0610359979912, 0.0, 0.0, 0.0, 0.0, -529.9598610353305, 0.0]
['beep', 0.0, 1313.679076871762, 0.0, 0.0, 0.0, 0.0, -526.2494714557495, 0.0]
['beep', 0.0, 1322.128036275868, 0.0, 0.0, 0.0, 0.0, -524.9977737662523, 0.0]
['beep', 0.0, 1311.4439024262313, 0.0, 0.0, 0.0, 0.0, -526.8306168115874, 0.0]
['beep', 0.0, 1295.2165359516785, 0.0, 0.0, 0.0, 0.0, -528.7081633458332, 0.0]
['beep', 0.0, 1296.714102830184, 0.0, 0.0, 0.0, 0.0, -528.4622941568249, 0.0]
['beep', 0.0, 1312.9191175602816, 0.0, 0.0, 0.0, 0.0, -526.3835819224813, 0.0]
['beep', 0.0, 1321.971574064681, 0.0, 0.0, 0.0, 0.0, -524.3495731770483, 0.0]
['beep', 0.0, 1312.0697512709799, 0.0, 0.0, 0.0, 0.0, -526.137712733473, 0.0]
['beep', 0.0, 1297.3399516749325, 0.0, 0.0, 0.0, 0.0, -530.8315790690874, 0.0]
['beep', 0.0, 1298.4351871532426, 0.0, 0.0, 0.0, 0.0, -530.5633581356237, 0.0]
['beep', 0.0, 1314.2378704831447, 0.0, 0.0, 0.0, 0.0, -527.8811488009869, 0.0]
['beep', 0.0, 1323.4691409431864, 0.0, 0.0, 0.0, 0.0, -522.650840598445, 0.0]
['beep', 0.0, 1312.0473995265245, 0.0, 0.0, 0.0, 0.0, -522.3602679205261, 0.0]
['beep', 0.0, 1296.647047596818, 0.0, 0.0, 0.0, 0.0, -526.651802855945, 0.0]
['beep', 0.0, 1298.9269255312593, 0.0, 0.0, 0.0, 0.0, -527.6799831008891, 0.0]
['beep', 0.0, 1314.1931669942342, 0.0, 0.0, 0.0, 0.0, -525.7800848221881, 0.0]
['beep', 0.0, 1323.715010132195, 0.0, 0.0, 0.0, 0.0, -516.3700004065038, 0.0]
['beep', 0.0, 1315.2660507280889, 0.0, 0.0, 0.0, 0.0, -469.85602019500976, 0.0]
['beep', 0.0, 1303.6431436113292, 0.0, 0.0, 0.0, 0.0, -450.3876507744373, 0.0]
['beep', 0.0, 1304.9171930452817, 0.0, 0.0, 0.0, 0.0, -466.07857538206287, 0.0]
['beep', 0.0, 1320.5634141639966, 0.0, 0.0, 0.0, 0.0, -511.51967185970216, 0.0]
['beep', 0.0, 1329.1464840348344, 0.0, 0.0, 0.0, 0.0, -518.4040091519367, 0.0]
['beep', 0.0, 1317.836501340449, 0.0, 0.0, 0.0, 0.0, -521.9579365203306, 0.0]
['beep', 0.0, 1300.5586028764967, 0.0, 0.0, 0.0, 0.0, -526.2047679668389, 0.0]
['beep', 0.0, 1300.2233267096672, 0.0, 0.0, 0.0, 0.0, -525.7353813332775, 0.0]
['beep', 0.0, 1315.9589548062033, 0.0, 0.0, 0.0, 0.0, -521.4438463978585, 0.0]
['beep', 0.0, 1322.8879955873485, 0.0, 0.0, 0.0, 0.0, -520.1697969639059, 0.0]
['beep', 0.0, 1313.5896698939407, 0.0, 0.0, 0.0, 0.0, -522.6731923429004, 0.0]
['beep', 0.0, 1298.4351871532426, 0.0, 0.0, 0.0, 0.0, -526.6741546004004, 0.0]
['beep', 0.0, 1299.2398499536337, 0.0, 0.0, 0.0, 0.0, -528.328183690093, 0.0]
['beep', 0.0, 1314.7072571167062, 0.0, 0.0, 0.0, 0.0, -525.9588987778305, 0.0]
['beep', 0.0, 1322.932699076259, 0.0, 0.0, 0.0, 0.0, -520.5050731307356, 0.0]
['beep', 0.0, 1313.8578908274044, 0.0, 0.0, 0.0, 0.0, -522.0920469870624, 0.0]
['beep', 0.0, 1300.938582532237, 0.0, 0.0, 0.0, 0.0, -525.3106981886266, 0.0]
['beep', 0.0, 1301.2738586990665, 0.0, 0.0, 0.0, 0.0, -526.4506371558473, 0.0]
['beep', 0.0, 1316.0036582951138, 0.0, 0.0, 0.0, 0.0, -525.3106981886266, 0.0]
['beep', 0.0, 1324.2961554880328, 0.0, 0.0, 0.0, 0.0, -523.7460760767551, 0.0]
['beep', 0.0, 1314.7072571167062, 0.0, 0.0, 0.0, 0.0, -523.2096342098278, 0.0]
['beep', 0.0, 1300.4915476431308, 0.0, 0.0, 0.0, 0.0, -525.6459743554562, 0.0]
['beep', 0.0, 1301.1844517212453, 0.0, 0.0, 0.0, 0.0, -525.6683260999115, 0.0]
['beep', 0.0, 1315.578975150463, 0.0, 0.0, 0.0, 0.0, -523.231985954283, 0.0]
['beep', 0.0, 1324.094989787935, 0.0, 0.0, 0.0, 0.0, -517.5993463515457, 0.0]
['beep', 0.0, 1313.969649549681, 0.0, 0.0, 0.0, 0.0, -471.8229737070768, 0.0]
['beep', 0.0, 1298.9492772757146, 0.0, 0.0, 0.0, 0.0, -452.30990079759374, 0.0]
['beep', 0.0, 1300.0892162429352, 0.0, 0.0, 0.0, 0.0, -480.0931191555404, 0.0]
['beep', 0.0, 1316.1824722507563, 0.0, 0.0, 0.0, 0.0, -519.9686312638082, 0.0]
['beep', 0.0, 1322.9774025651698, 0.0, 0.0, 0.0, 0.0, -520.7285905752886, 0.0]
['beep', 0.0, 1313.1873384937453, 0.0, 0.0, 0.0, 0.0, -521.0638667421182, 0.0]
['beep', 0.0, 1299.2845534425442, 0.0, 0.0, 0.0, 0.0, -525.9588987778305, 0.0]
['beep', 0.0, 1300.6256581098626, 0.0, 0.0, 0.0, 0.0, -528.5964046235567, 0.0]
['beep', 0.0, 1315.869547828382, 0.0, 0.0, 0.0, 0.0, -525.6459743554562, 0.0]
['beep', 0.0, 1325.033763055058, 0.0, 0.0, 0.0, 0.0, -521.5109016312244, 0.0]
['beep', 0.0, 1314.7296088611615, 0.0, 0.0, 0.0, 0.0, -522.0249917536964, 0.0]
['beep', 0.0, 1299.1727947202678, 0.0, 0.0, 0.0, 0.0, -526.1824162223836, 0.0]
['beep', 0.0, 1299.8656987983823, 0.0, 0.0, 0.0, 0.0, -528.0823145010846, 0.0]
['beep', 0.0, 1314.327277460966, 0.0, 0.0, 0.0, 0.0, -526.137712733473, 0.0]
['beep', 0.0, 1323.4020857098205, 0.0, 0.0, 0.0, 0.0, -522.4496748983473, 0.0]
['beep', 0.0, 1314.550794905519, 0.0, 0.0, 0.0, 0.0, -524.7295528327886, 0.0]
['beep', 0.0, 1299.843347053927, 0.0, 0.0, 0.0, 0.0, -527.456465656336, 0.0]
['beep', 0.0, 1300.8715272988711, 0.0, 0.0, 0.0, 0.0, -525.5789191220903, 0.0]
['beep', 0.0, 1315.646030383829, 0.0, 0.0, 0.0, 0.0, -523.3437446765596, 0.0]
['beep', 0.0, 1323.290326987544, 0.0, 0.0, 0.0, 0.0, -521.1085702310288, 0.0]
['beep', 0.0, 1315.4001611948206, 0.0, 0.0, 0.0, 0.0, -522.0026400092412, 0.0]
['beep', 0.0, 1300.4691958986755, 0.0, 0.0, 0.0, 0.0, -525.556567377635, 0.0]
['beep', 0.0, 1301.6985418437175, 0.0, 0.0, 0.0, 0.0, -527.2552999562383, 0.0]
['beep', 0.0, 1315.6907338727397, 0.0, 0.0, 0.0, 0.0, -526.3165266891154, 0.0]
['beep', 0.0, 1324.7878938660497, 0.0, 0.0, 0.0, 0.0, -522.5167301317132, 0.0]
['beep', 0.0, 1315.936603061748, 0.0, 0.0, 0.0, 0.0, -492.23011639477215, 0.0]
['beep', 0.0, 1301.229155210156, 0.0, 0.0, 0.0, 0.0, -453.494543253725, 0.0]
['beep', 0.0, 1302.905536044304, 0.0, 0.0, 0.0, 0.0, -464.8268776925657, 0.0]
['beep', 0.0, 1316.6742106287732, 0.0, 0.0, 0.0, 0.0, -513.2631079272161, 0.0]
['beep', 0.0, 1325.6372601553512, 0.0, 0.0, 0.0, 0.0, -521.7120673313221, 0.0]
['beep', 0.0, 1316.6965623732285, 0.0, 0.0, 0.0, 0.0, -523.9695935213082, 0.0]
['beep', 0.0, 1301.6314866103514, 0.0, 0.0, 0.0, 0.0, -527.8811488009869, 0.0]
['beep', 0.0, 1302.6373151108403, 0.0, 0.0, 0.0, 0.0, -529.0434395126629, 0.0]
['beep', 0.0, 1315.578975150463, 0.0, 0.0, 0.0, 0.0, -526.8753203004981, 0.0]
['beep', 0.0, 1324.519672932586, 0.0, 0.0, 0.0, 0.0, -520.0580382416294, 0.0]
['beep', 0.0, 1316.2495274841224, 0.0, 0.0, 0.0, 0.0, -520.9968115087523, 0.0]
['beep', 0.0, 1302.7267220886615, 0.0, 0.0, 0.0, 0.0, -524.684849343878, 0.0]
['beep', 0.0, 1302.1902802217342, 0.0, 0.0, 0.0, 0.0, -526.0930092445624, 0.0]
['beep', 0.0, 1315.4448646837313, 0.0, 0.0, 0.0, 0.0, -524.4836836437802, 0.0]
['beep', 0.0, 1324.877300843871, 0.0, 0.0, 0.0, 0.0, -520.7062388308333, 0.0]
['beep', 0.0, 1317.6353356403513, 0.0, 0.0, 0.0, 0.0, -522.9861167652747, 0.0]
['beep', 0.0, 1300.9832860211475, 0.0, 0.0, 0.0, 0.0, -528.0599627566294, 0.0]
['beep', 0.0, 1299.9327540317481, 0.0, 0.0, 0.0, 0.0, -528.3505354345483, 0.0]
['beep', 0.0, 1316.7636176065944, 0.0, 0.0, 0.0, 0.0, -523.3884481654702, 0.0]
['beep', 0.0, 1324.7878938660497, 0.0, 0.0, 0.0, 0.0, -521.1756254643948, 0.0]
['beep', 0.0, 1315.9813065506587, 0.0, 0.0, 0.0, 0.0, -523.0084685097299, 0.0]
['beep', 0.0, 1300.6703615987733, 0.0, 0.0, 0.0, 0.0, -526.2271197112942, 0.0]
['beep', 0.0, 1299.7539400761057, 0.0, 0.0, 0.0, 0.0, -528.6411081124674, 0.0]
['beep', 0.0, 1315.2436989836335, 0.0, 0.0, 0.0, 0.0, -526.6965063448556, 0.0]
['beep', 0.0, 1325.6596118998066, 0.0, 0.0, 0.0, 0.0, -519.1863202078724, 0.0]
['beep', 0.0, 1316.517748417586, 0.0, 0.0, 0.0, 0.0, -473.7228719857779, 0.0]
['beep', 0.0, 1301.452672654709, 0.0, 0.0, 0.0, 0.0, -452.04167986413006, 0.0]
['beep', 0.0, 1299.262201698089, 0.0, 0.0, 0.0, 0.0, -474.61694176399016, 0.0]
['beep', 0.0, 1314.930774561259, 0.0, 0.0, 0.0, 0.0, -518.7839888076769, 0.0]
['beep', 0.0, 1323.9161758322925, 0.0, 0.0, 0.0, 0.0, -522.5614336206238, 0.0]
['beep', 0.0, 1315.1542920058123, 0.0, 0.0, 0.0, 0.0, -523.1202272320065, 0.0]
['beep', 0.0, 1300.1786232207564, 0.0, 0.0, 0.0, 0.0, -529.7139918463221, 0.0]
['beep', 0.0, 1299.619829609374, 0.0, 0.0, 0.0, 0.0, -531.9044628029421, 0.0]
['beep', 0.0, 1314.7519606056167, 0.0, 0.0, 0.0, 0.0, -528.0823145010846, 0.0]
['beep', 0.0, 1324.1396932768457, 0.0, 0.0, 0.0, 0.0, -524.5060353882355, 0.0]
['beep', 0.0, 1314.774312350072, 0.0, 0.0, 0.0, 0.0, -524.3048696881377, 0.0]
['beep', 0.0, 1301.1844517212453, 0.0, 0.0, 0.0, 0.0, -526.5400441336685, 0.0]
['beep', 0.0, 1300.8938790433263, 0.0, 0.0, 0.0, 0.0, -528.7752185791992, 0.0]
['beep', 0.0, 1314.4613879276978, 0.0, 0.0, 0.0, 0.0, -526.8082650671322, 0.0]
['beep', 0.0, 1324.519672932586, 0.0, 0.0, 0.0, 0.0, -525.4224569109031, 0.0]
['beep', 0.0, 1314.4613879276978, 0.0, 0.0, 0.0, 0.0, -526.8082650671322, 0.0]
['beep', 0.0, 1299.1057394869017, 0.0, 0.0, 0.0, 0.0, -530.3174889466154, 0.0]
['beep', 0.0, 1298.4351871532426, 0.0, 0.0, 0.0, 0.0, -529.490474401769, 0.0]
['beep', 0.0, 1312.673248371273, 0.0, 0.0, 0.0, 0.0, -526.9647272783193, 0.0]
['beep', 0.0, 1323.424437454276, 0.0, 0.0, 0.0, 0.0, -524.5954423660568, 0.0]
['beep', 0.0, 1314.0814082719576, 0.0, 0.0, 0.0, 0.0, -524.2378144547719, 0.0]
['beep', 0.0, 1299.6868848427398, 0.0, 0.0, 0.0, 0.0, -527.9705557788081, 0.0]
['beep', 0.0, 1300.4915476431308, 0.0, 0.0, 0.0, 0.0, -531.524483147202, 0.0]
['beep', 0.0, 1313.2543937271112, 0.0, 0.0, 0.0, 0.0, -530.1610267354282, 0.0]
['beep', 0.0, 1324.3185072324882, 0.0, 0.0, 0.0, 0.0, -523.522558632202, 0.0]
['beep', 0.0, 1315.869547828382, 0.0, 0.0, 0.0, 0.0, -480.80837497811024, 0.0]
['beep', 0.0, 1299.1727947202678, 0.0, 0.0, 0.0, 0.0, -452.8910461534317, 0.0]
['beep', 0.0, 1299.3963121648208, 0.0, 0.0, 0.0, 0.0, -470.3254068285712, 0.0]
['beep', 0.0, 1315.2213472391782, 0.0, 0.0, 0.0, 0.0, -517.7558085627328, 0.0]
['beep', 0.0, 1324.6537833993177, 0.0, 0.0, 0.0, 0.0, -525.7800848221881, 0.0]
['beep', 0.0, 1316.7636176065944, 0.0, 0.0, 0.0, 0.0, -527.1882447228724, 0.0]
['beep', 0.0, 1300.6256581098626, 0.0, 0.0, 0.0, 0.0, -529.8928058019645, 0.0]
['beep', 0.0, 1299.6645330982844, 0.0, 0.0, 0.0, 0.0, -529.7139918463221, 0.0]
['beep', 0.0, 1314.3496292054213, 0.0, 0.0, 0.0, 0.0, -527.1658929784171, 0.0]
['beep', 0.0, 1324.1173415323904, 0.0, 0.0, 0.0, 0.0, -524.4613318993249, 0.0]
['beep', 0.0, 1316.6071553954073, 0.0, 0.0, 0.0, 0.0, -524.7742563216992, 0.0]
['beep', 0.0, 1301.0726929989687, 0.0, 0.0, 0.0, 0.0, -528.3728871790037, 0.0]
['beep', 0.0, 1300.2680301985777, 0.0, 0.0, 0.0, 0.0, -531.6809453583891, 0.0]
['beep', 0.0, 1315.1766437502677, 0.0, 0.0, 0.0, 0.0, -528.328183690093, 0.0]
['beep', 0.0, 1323.8044171100162, 0.0, 0.0, 0.0, 0.0, -523.6566690989339, 0.0]
['beep', 0.0, 1315.869547828382, 0.0, 0.0, 0.0, 0.0, -523.6566690989339, 0.0]
['beep', 0.0, 1301.6761900992622, 0.0, 0.0, 0.0, 0.0, -527.7023348453445, 0.0]
['beep', 0.0, 1299.5527743760078, 0.0, 0.0, 0.0, 0.0, -530.8315790690874, 0.0]
['beep', 0.0, 1313.746132105128, 0.0, 0.0, 0.0, 0.0, -530.0045645242411, 0.0]
['beep', 0.0, 1323.7597136211054, 0.0, 0.0, 0.0, 0.0, -525.847140055554, 0.0]
['beep', 0.0, 1315.9813065506587, 0.0, 0.0, 0.0, 0.0, -527.4117621674254, 0.0]
['beep', 0.0, 1302.2349837106449, 0.0, 0.0, 0.0, 0.0, -530.6751168579003, 0.0]
['beep', 0.0, 1300.4021406653096, 0.0, 0.0, 0.0, 0.0, -529.5351778906796, 0.0]
['beep', 0.0, 1315.1989954947228, 0.0, 0.0, 0.0, 0.0, -526.9870790227747, 0.0]
['beep', 0.0, 1324.094989787935, 0.0, 0.0, 0.0, 0.0, -525.2883464441712, 0.0]
['beep', 0.0, 1315.1542920058123, 0.0, 0.0, 0.0, 0.0, -527.3223551896042, 0.0]
['beep', 0.0, 1299.3069051869995, 0.0, 0.0, 0.0, 0.0, -530.5633581356237, 0.0]
['beep', 0.0, 1299.1727947202678, 0.0, 0.0, 0.0, 0.0, -531.1445034914617, 0.0]
['beep', 0.0, 1313.3661524493878, 0.0, 0.0, 0.0, 0.0, -528.3728871790037, 0.0]
['beep', 0.0, 1323.5138444320971, 0.0, 0.0, 0.0, 0.0, -506.24466016824965, 0.0]
['beep', 0.0, 1315.4001611948206, 0.0, 0.0, 0.0, 0.0, -458.09900261151824, 0.0]
['beep', 0.0, 1300.7374168321392, 0.0, 0.0, 0.0, 0.0, -453.5392467426356, 0.0]
['beep', 0.0, 1300.2233267096672, 0.0, 0.0, 0.0, 0.0, -478.32733134357113, 0.0]
['beep', 0.0, 1314.8637193278933, 0.0, 0.0, 0.0, 0.0, -522.2708609427049, 0.0]
['beep', 0.0, 1323.1785682652676, 0.0, 0.0, 0.0, 0.0, -524.5507388771462, 0.0]
['beep', 0.0, 1314.4390361832425, 0.0, 0.0, 0.0, 0.0, -526.6965063448556, 0.0]
['beep', 0.0, 1301.16209997679, 0.0, 0.0, 0.0, 0.0, -530.6080616245343, 0.0]
['beep', 0.0, 1300.0445127540247, 0.0, 0.0, 0.0, 0.0, -530.943337791364, 0.0]
['beep', 0.0, 1314.2825739720554, 0.0, 0.0, 0.0, 0.0, -528.9987360237523, 0.0]
['beep', 0.0, 1324.2514519991223, 0.0, 0.0, 0.0, 0.0, -524.684849343878, 0.0]
['beep', 0.0, 1314.103760016413, 0.0, 0.0, 0.0, 0.0, -523.9248900323976, 0.0]
['beep', 0.0, 1299.1057394869017, 0.0, 0.0, 0.0, 0.0, -528.7081633458332, 0.0]
['beep', 0.0, 1298.2563731976002, 0.0, 0.0, 0.0, 0.0, -531.9268145473975, 0.0]
['beep', 0.0, 1313.2320419826558, 0.0, 0.0, 0.0, 0.0, -528.7752185791992, 0.0]
['beep', 0.0, 1323.1785682652676, 0.0, 0.0, 0.0, 0.0, -526.8082650671322, 0.0]
['beep', 0.0, 1312.226213482167, 0.0, 0.0, 0.0, 0.0, -526.7859133226768, 0.0]
['beep', 0.0, 1298.3010766865107, 0.0, 0.0, 0.0, 0.0, -529.7586953352327, 0.0]
['beep', 0.0, 1297.0270272525581, 0.0, 0.0, 0.0, 0.0, -531.0998000025511, 0.0]
['beep', 0.0, 1310.5721843924744, 0.0, 0.0, 0.0, 0.0, -527.8364453120763, 0.0]
['beep', 0.0, 1320.7198763751837, 0.0, 0.0, 0.0, 0.0, -524.9530702773417, 0.0]
['beep', 0.0, 1312.0473995265245, 0.0, 0.0, 0.0, 0.0, -525.7130295888221, 0.0]
['beep', 0.0, 1298.1222627308682, 0.0, 0.0, 0.0, 0.0, -527.7693900787103, 0.0]
['beep', 0.0, 1296.8258615524605, 0.0, 0.0, 0.0, 0.0, -529.7586953352327, 0.0]
['beep', 0.0, 1311.6897716152396, 0.0, 0.0, 0.0, 0.0, -528.1493697344506, 0.0]
['beep', 0.0, 1322.2174432536892, 0.0, 0.0, 0.0, 0.0, -521.9802882647858, 0.0]
['beep', 0.0, 1314.5954983944296, 0.0, 0.0, 0.0, 0.0, -484.8763924689761, 0.0]
['beep', 0.0, 1299.3069051869995, 0.0, 0.0, 0.0, 0.0, -455.32738629906015, 0.0]
['beep', 0.0, 1297.3399516749325, 0.0, 0.0, 0.0, 0.0, -466.1232788709735, 0.0]
['beep', 0.0, 1312.6285448823626, 0.0, 0.0, 0.0, 0.0, -512.3019829156378, 0.0]
['beep', 0.0, 1323.9832310656586, 0.0, 0.0, 0.0, 0.0, -523.3884481654702, 0.0]
['beep', 0.0, 1314.7519606056167, 0.0, 0.0, 0.0, 0.0, -525.1542359774394, 0.0]
['beep', 0.0, 1299.485719142642, 0.0, 0.0, 0.0, 0.0, -529.6916401018668, 0.0]
['beep', 0.0, 1298.323428430966, 0.0, 0.0, 0.0, 0.0, -529.2222534683053, 0.0]
['beep', 0.0, 1311.7344751041503, 0.0, 0.0, 0.0, 0.0, -525.7353813332775, 0.0]
['beep', 0.0, 1321.8598153424043, 0.0, 0.0, 0.0, 0.0, -524.4166284104143, 0.0]
['beep', 0.0, 1314.5284431610637, 0.0, 0.0, 0.0, 0.0, -523.9919452657634, 0.0]
['beep', 0.0, 1301.5644313769856, 0.0, 0.0, 0.0, 0.0, -526.9200237894087, 0.0]
['beep', 0.0, 1300.9609342766923, 0.0, 0.0, 0.0, 0.0, -527.9705557788081, 0.0]
['beep', 0.0, 1311.130978003857, 0.0, 0.0, 0.0, 0.0, -526.8082650671322, 0.0]
['beep', 0.0, 1315.8024925950162, 0.0, 0.0, 0.0, 0.0, -524.7966080661545, 0.0]
['beep', 0.0, 1304.1795854782565, 0.0, 0.0, 0.0, 0.0, -525.0424772551629, 0.0]
['beep', 0.0, 1288.712178315184, 0.0, 0.0, 0.0, 0.0, -528.685811601378, 0.0]
['beep', 0.0, 1287.326370158955, 0.0, 0.0, 0.0, 0.0, -530.9656895358193, 0.0]
['beep', 0.0, 1301.1844517212453, 0.0, 0.0, 0.0, 0.0, -527.0541342561405, 0.0]
['beep', 0.0, 1313.5896698939407, 0.0, 0.0, 0.0, 0.0, -523.5672621211127, 0.0]
['beep', 0.0, 1305.0960070009241, 0.0, 0.0, 0.0, 0.0, -525.7353813332775, 0.0]
['beep', 0.0, 1290.165041704779, 0.0, 0.0, 0.0, 0.0, -527.9258522898975, 0.0]
['beep', 0.0, 1288.9133440152818, 0.0, 0.0, 0.0, 0.0, -530.8539308135428, 0.0]
['beep', 0.0, 1303.5760883779633, 0.0, 0.0, 0.0, 0.0, -528.9987360237523, 0.0]
['beep', 0.0, 1315.2660507280889, 0.0, 0.0, 0.0, 0.0, -524.9083667884311, 0.0]
['beep', 0.0, 1306.5041669016084, 0.0, 0.0, 0.0, 0.0, -525.9812505222858, 0.0]
['beep', 0.0, 1291.7296638166504, 0.0, 0.0, 0.0, 0.0, -528.8199220681098, 0.0]
['beep', 0.0, 1290.388559149332, 0.0, 0.0, 0.0, 0.0, -529.557529635135, 0.0]
['beep', 0.0, 1304.4701581561756, 0.0, 0.0, 0.0, 0.0, -529.2893087016712, 0.0]
['beep', 0.0, 1313.9920012941363, 0.0, 0.0, 0.0, 0.0, -520.1027417305401, 0.0]
['beep', 0.0, 1306.481815157153, 0.0, 0.0, 0.0, 0.0, -476.4721365537807, 0.0]
['beep', 0.0, 1291.6849603277399, 0.0, 0.0, 0.0, 0.0, -452.71223219778926, 0.0]
['beep', 0.0, 1289.87446902686, 0.0, 0.0, 0.0, 0.0, -464.33513931454894, 0.0]
['beep', 0.0, 1304.4254546672648, 0.0, 0.0, 0.0, 0.0, -513.3525149050373, 0.0]
['beep', 0.0, 1314.6625536277954, 0.0, 0.0, 0.0, 0.0, -524.5283871326908, 0.0]
['beep', 0.0, 1306.325352945966, 0.0, 0.0, 0.0, 0.0, -524.5283871326908, 0.0]
['beep', 0.0, 1290.455614382698, 0.0, 0.0, 0.0, 0.0, -528.3058319456377, 0.0]
['beep', 0.0, 1288.4439573817203, 0.0, 0.0, 0.0, 0.0, -529.490474401769, 0.0]
['beep', 0.0, 1301.899707543815, 0.0, 0.0, 0.0, 0.0, -527.3447069340596, 0.0]
['beep', 0.0, 1312.6956001157284, 0.0, 0.0, 0.0, 0.0, -523.6790208433891, 0.0]
['beep', 0.0, 1304.9171930452817, 0.0, 0.0, 0.0, 0.0, -525.19893946635, 0.0]
['beep', 0.0, 1290.0979864714132, 0.0, 0.0, 0.0, 0.0, -528.4399424123695, 0.0]
['beep', 0.0, 1290.165041704779, 0.0, 0.0, 0.0, 0.0, -530.8315790690874, 0.0]
['beep', 0.0, 1304.6266203673626, 0.0, 0.0, 0.0, 0.0, -527.7470383342551, 0.0]
['beep', 0.0, 1316.6518588843178, 0.0, 0.0, 0.0, 0.0, -523.7237243322998, 0.0]
['beep', 0.0, 1310.0580942700024, 0.0, 0.0, 0.0, 0.0, -523.1872824653724, 0.0]
['beep', 0.0, 1295.395349907321, 0.0, 0.0, 0.0, 0.0, -524.3495731770483, 0.0]
['beep', 0.0, 1295.4624051406868, 0.0, 0.0, 0.0, 0.0, -525.8247883110987, 0.0]
['beep', 0.0, 1307.5994023799185, 0.0, 0.0, 0.0, 0.0, -523.7460760767551, 0.0]
['beep', 0.0, 1316.7189141176837, 0.0, 0.0, 0.0, 0.0, -521.8908812869646, 0.0]
['beep', 0.0, 1308.5381756470413, 0.0, 0.0, 0.0, 0.0, -524.10370398804, 0.0]
['beep', 0.0, 1290.6120765938851, 0.0, 0.0, 0.0, 0.0, -527.2552999562383, 0.0]
['beep', 0.0, 1288.1533847038013, 0.0, 0.0, 0.0, 0.0, -529.5128261462244, 0.0]
['beep', 0.0, 1302.0114662660917, 0.0, 0.0, 0.0, 0.0, -525.19893946635, 0.0]
['beep', 0.0, 1313.679076871762, 0.0, 0.0, 0.0, 0.0, -520.974459764297, 0.0]
['beep', 0.0, 1305.5877453789408, 0.0, 0.0, 0.0, 0.0, -483.848212224032, 0.0]
['beep', 0.0, 1289.7403585601282, 0.0, 0.0, 0.0, 0.0, -452.98045313125294, 0.0]
['beep', 0.0, 1288.7568818040945, 0.0, 0.0, 0.0, 0.0, -477.36620633199294, 0.0]
['beep', 0.0, 1303.6431436113292, 0.0, 0.0, 0.0, 0.0, -521.7791225646881, 0.0]
['beep', 0.0, 1314.1484635053234, 0.0, 0.0, 0.0, 0.0, -524.8413115550651, 0.0]
['beep', 0.0, 1307.778216335561, 0.0, 0.0, 0.0, 0.0, -523.2766894431936, 0.0]
['beep', 0.0, 1292.9590097616924, 0.0, 0.0, 0.0, 0.0, -526.6294511114897, 0.0]
['beep', 0.0, 1290.7461870606169, 0.0, 0.0, 0.0, 0.0, -529.2893087016712, 0.0]
['beep', 0.0, 1305.2524692121112, 0.0, 0.0, 0.0, 0.0, -527.8364453120763, 0.0]
['beep', 0.0, 1315.1989954947228, 0.0, 0.0, 0.0, 0.0, -523.299041187649, 0.0]
['beep', 0.0, 1307.5994023799185, 0.0, 0.0, 0.0, 0.0, -523.3213929321042, 0.0]
['beep', 0.0, 1292.6237335948626, 0.0, 0.0, 0.0, 0.0, -526.6294511114897, 0.0]
['beep', 0.0, 1290.2097451936895, 0.0, 0.0, 0.0, 0.0, -529.0434395126629, 0.0]
['beep', 0.0, 1305.16306223429, 0.0, 0.0, 0.0, 0.0, -526.6294511114897, 0.0]
['beep', 0.0, 1315.3107542169994, 0.0, 0.0, 0.0, 0.0, -523.1425789764618, 0.0]
['beep', 0.0, 1307.0853122574465, 0.0, 0.0, 0.0, 0.0, -524.4613318993249, 0.0]
['beep', 0.0, 1292.9143062727817, 0.0, 0.0, 0.0, 0.0, -528.9987360237523, 0.0]
['beep', 0.0, 1291.6849603277399, 0.0, 0.0, 0.0, 0.0, -531.9938697807634, 0.0]
['beep', 0.0, 1305.2077657232005, 0.0, 0.0, 0.0, 0.0, -529.3787156794924, 0.0]
['beep', 0.0, 1315.8024925950162, 0.0, 0.0, 0.0, 0.0, -526.1153609890176, 0.0]
['beep', 0.0, 1307.9793820356588, 0.0, 0.0, 0.0, 0.0, -527.2105964673277, 0.0]
['beep', 0.0, 1291.6402568388291, 0.0, 0.0, 0.0, 0.0, -528.0823145010846, 0.0]
['beep', 0.0, 1290.2097451936895, 0.0, 0.0, 0.0, 0.0, -527.9705557788081, 0.0]
['beep', 0.0, 1304.291344200533, 0.0, 0.0, 0.0, 0.0, -528.2164249678165, 0.0]
['beep', 0.0, 1315.0201815390803, 0.0, 0.0, 0.0, 0.0, -525.2212912108054, 0.0]
['beep', 0.0, 1308.4040651803095, 0.0, 0.0, 0.0, 0.0, -499.82970950957656, 0.0]
['beep', 0.0, 1292.6684370837734, 0.0, 0.0, 0.0, 0.0, -457.6072642335015, 0.0]
['beep', 0.0, 1290.6567800827956, 0.0, 0.0, 0.0, 0.0, -462.63640673594557, 0.0]
['beep', 0.0, 1304.7383790896392, 0.0, 0.0, 0.0, 0.0, -509.8879945144647, 0.0]
['beep', 0.0, 1315.2436989836335, 0.0, 0.0, 0.0, 0.0, -525.5342156331797, 0.0]
['beep', 0.0, 1308.225251224667, 0.0, 0.0, 0.0, 0.0, -527.7246865897997, 0.0]
['beep', 0.0, 1294.0318934955471, 0.0, 0.0, 0.0, 0.0, -530.7645238357215, 0.0]
['beep', 0.0, 1292.288457428033, 0.0, 0.0, 0.0, 0.0, -531.5915383805678, 0.0]
['beep', 0.0, 1304.514861645086, 0.0, 0.0, 0.0, 0.0, -528.1940732233612, 0.0]
['beep', 0.0, 1315.4672164281865, 0.0, 0.0, 0.0, 0.0, -525.6683260999115, 0.0]
['beep', 0.0, 1309.4322454252535, 0.0, 0.0, 0.0, 0.0, -527.7693900787103, 0.0]
['beep', 0.0, 1294.1883557067342, 0.0, 0.0, 0.0, 0.0, -529.6692883574115, 0.0]
['beep', 0.0, 1290.5673731049744, 0.0, 0.0, 0.0, 0.0, -529.8481023130539, 0.0]
['beep', 0.0, 1306.2582977126, 0.0, 0.0, 0.0, 0.0, -526.4282854113919, 0.0]
['beep', 0.0, 1316.897728073326, 0.0, 0.0, 0.0, 0.0, -523.6119656100233, 0.0]
['beep', 0.0, 1310.683943114751, 0.0, 0.0, 0.0, 0.0, -524.9307185328863, 0.0]
['beep', 0.0, 1295.842384796427, 0.0, 0.0, 0.0, 0.0, -528.328183690093, 0.0]
['beep', 0.0, 1292.4002161503097, 0.0, 0.0, 0.0, 0.0, -530.943337791364, 0.0]
['beep', 0.0, 1305.6324488678515, 0.0, 0.0, 0.0, 0.0, -527.6576313564339, 0.0]
['beep', 0.0, 1317.3671147068876, 0.0, 0.0, 0.0, 0.0, -523.2766894431936, 0.0]
['beep', 0.0, 1308.8958035583262, 0.0, 0.0, 0.0, 0.0, -525.5342156331797, 0.0]
['beep', 0.0, 1294.5906871069299, 0.0, 0.0, 0.0, 0.0, -527.7246865897997, 0.0]
['beep', 0.0, 1291.550849861008, 0.0, 0.0, 0.0, 0.0, -529.0657912571181, 0.0]
['beep', 0.0, 1305.1854139787454, 0.0, 0.0, 0.0, 0.0, -528.3058319456377, 0.0]
['beep', 0.0, 1316.0483617840246, 0.0, 0.0, 0.0, 0.0, -523.813131310121, 0.0]
['beep', 0.0, 1309.9910390366363, 0.0, 0.0, 0.0, 0.0, -488.36326460400403, 0.0]
['beep', 0.0, 1295.194184207223, 0.0, 0.0, 0.0, 0.0, -455.5062002547026, 0.0]
['beep', 0.0, 1293.0931202284241, 0.0, 0.0, 0.0, 0.0, -475.60041852002365, 0.0]
['beep', 0.0, 1304.6266203673626, 0.0, 0.0, 0.0, 0.0, -520.0803899860847, 0.0]
['beep', 0.0, 1315.9589548062033, 0.0, 0.0, 0.0, 0.0, -525.0201255107075, 0.0]
['beep', 0.0, 1309.2757832140665, 0.0, 0.0, 0.0, 0.0, -523.9025382879422, 0.0]
['beep', 0.0, 1294.4342248957425, 0.0, 0.0, 0.0, 0.0, -529.0434395126629, 0.0]
['beep', 0.0, 1291.0591114829913, 0.0, 0.0, 0.0, 0.0, -531.6809453583891, 0.0]
['beep', 0.0, 1304.2689924560777, 0.0, 0.0, 0.0, 0.0, -528.7528668347438, 0.0]
['beep', 0.0, 1314.7519606056167, 0.0, 0.0, 0.0, 0.0, -526.8753203004981, 0.0]
['beep', 0.0, 1309.4322454252535, 0.0, 0.0, 0.0, 0.0, -528.5293493901908, 0.0]
['beep', 0.0, 1294.1436522178237, 0.0, 0.0, 0.0, 0.0, -530.6080616245343, 0.0]
['beep', 0.0, 1290.8579457828935, 0.0, 0.0, 0.0, 0.0, -532.262090714227, 0.0]
['beep', 0.0, 1304.872489556371, 0.0, 0.0, 0.0, 0.0, -527.456465656336, 0.0]
['beep', 0.0, 1316.1824722507563, 0.0, 0.0, 0.0, 0.0, -524.1931109658613, 0.0]
['beep', 0.0, 1308.44876866922, 0.0, 0.0, 0.0, 0.0, -526.8306168115874, 0.0]
['beep', 0.0, 1291.5732016054633, 0.0, 0.0, 0.0, 0.0, -528.1940732233612, 0.0]
['beep', 0.0, 1291.1485184608125, 0.0, 0.0, 0.0, 0.0, -530.2504337132494, 0.0]
['beep', 0.0, 1305.9230215457706, 0.0, 0.0, 0.0, 0.0, -528.9987360237523, 0.0]
['beep', 0.0, 1317.4118181957983, 0.0, 0.0, 0.0, 0.0, -523.6566690989339, 0.0]
['beep', 0.0, 1310.1698529922787, 0.0, 0.0, 0.0, 0.0, -523.9919452657634, 0.0]
['beep', 0.0, 1294.098948728913, 0.0, 0.0, 0.0, 0.0, -527.7693900787103, 0.0]
['beep', 0.0, 1290.5450213605193, 0.0, 0.0, 0.0, 0.0, -528.4846459012801, 0.0]
['beep', 0.0, 1304.3136959449882, 0.0, 0.0, 0.0, 0.0, -527.5011691452466, 0.0]
['beep', 0.0, 1317.0541902845134, 0.0, 0.0, 0.0, 0.0, -524.5954423660568, 0.0]
['beep', 0.0, 1310.1027977589129, 0.0, 0.0, 0.0, 0.0, -491.6713227833895, 0.0]
['beep', 0.0, 1294.5012801291086, 0.0, 0.0, 0.0, 0.0, -453.67335720936745, 0.0]
['beep', 0.0, 1291.3049806719996, 0.0, 0.0, 0.0, 0.0, -467.35262481601535, 0.0]
['beep', 0.0, 1304.8948413008263, 0.0, 0.0, 0.0, 0.0, -514.7383230612663, 0.0]
['beep', 0.0, 1313.8802425718598, 0.0, 0.0, 0.0, 0.0, -523.8354830545763, 0.0]
['beep', 0.0, 1308.6946378582286, 0.0, 0.0, 0.0, 0.0, -524.7742563216992, 0.0]
['beep', 0.0, 1293.9648382621813, 0.0, 0.0, 0.0, 0.0, -526.8753203004981, 0.0]
['beep', 0.0, 1289.226268437656, 0.0, 0.0, 0.0, 0.0, -529.490474401769, 0.0]
['beep', 0.0, 1303.6654953557845, 0.0, 0.0, 0.0, 0.0, -527.5905761230679, 0.0]
['beep', 0.0, 1315.936603061748, 0.0, 0.0, 0.0, 0.0, -524.2825179436825, 0.0]
['beep', 0.0, 1307.9793820356588, 0.0, 0.0, 0.0, 0.0, -523.7237243322998, 0.0]
['beep', 0.0, 1291.8190707944716, 0.0, 0.0, 0.0, 0.0, -527.5011691452466, 0.0]
['beep', 0.0, 1289.87446902686, 0.0, 0.0, 0.0, 0.0, -529.1551982349393, 0.0]
['beep', 0.0, 1303.1067017444018, 0.0, 0.0, 0.0, 0.0, -527.456465656336, 0.0]
['beep', 0.0, 1314.7519606056167, 0.0, 0.0, 0.0, 0.0, -524.0142970102188, 0.0]
['beep', 0.0, 1307.6664576132844, 0.0, 0.0, 0.0, 0.0, -523.2766894431936, 0.0]
['beep', 0.0, 1292.6907888282287, 0.0, 0.0, 0.0, 0.0, -527.4788174007914, 0.0]
['beep', 0.0, 1288.578067848452, 0.0, 0.0, 0.0, 0.0, -528.9763842792969, 0.0]
['beep', 0.0, 1303.7772540780609, 0.0, 0.0, 0.0, 0.0, -527.2552999562383, 0.0]
['beep', 0.0, 1313.1426350048346, 0.0, 0.0, 0.0, 0.0, -526.3165266891154, 0.0]
['beep', 0.0, 1307.9793820356588, 0.0, 0.0, 0.0, 0.0, -528.3952389234589, 0.0]
['beep', 0.0, 1293.6966173287176, 0.0, 0.0, 0.0, 0.0, -527.9482040343528, 0.0]
['beep', 0.0, 1289.0921579709243, 0.0, 0.0, 0.0, 0.0, -530.6304133689897, 0.0]
['beep', 0.0, 1301.609134865896, 0.0, 0.0, 0.0, 0.0, -528.8646255570204, 0.0]
['beep', 0.0, 1312.673248371273, 0.0, 0.0, 0.0, 0.0, -524.3272214325931, 0.0]
['beep', 0.0, 1307.1970709797229, 0.0, 0.0, 0.0, 0.0, -491.9618954613085, 0.0]
['beep', 0.0, 1291.0144079940806, 0.0, 0.0, 0.0, 0.0, -455.01446187668586, 0.0]
['beep', 0.0, 1289.360378904388, 0.0, 0.0, 0.0, 0.0, -471.7782702181662, 0.0]
['beep', 0.0, 1303.6207918668738, 0.0, 0.0, 0.0, 0.0, -520.2592039417272, 0.0]
['beep', 0.0, 1315.2213472391782, 0.0, 0.0, 0.0, 0.0, -525.4224569109031, 0.0]
['beep', 0.0, 1309.7898733365387, 0.0, 0.0, 0.0, 0.0, -526.718858089311, 0.0]
['beep', 0.0, 1293.3389894174325, 0.0, 0.0, 0.0, 0.0, -531.7032971028444, 0.0]
['beep', 0.0, 1289.87446902686, 0.0, 0.0, 0.0, 0.0, -532.3962011809589, 0.0]
['beep', 0.0, 1303.2408122111335, 0.0, 0.0, 0.0, 0.0, -530.0939715020623, 0.0]
['beep', 0.0, 1315.2436989836335, 0.0, 0.0, 0.0, 0.0, -527.7917418231657, 0.0]
['beep', 0.0, 1310.1698529922787, 0.0, 0.0, 0.0, 0.0, -526.6294511114897, 0.0]
['beep', 0.0, 1293.0707684839688, 0.0, 0.0, 0.0, 0.0, -528.7975703236544, 0.0]
['beep', 0.0, 1289.6733033267622, 0.0, 0.0, 0.0, 0.0, -531.0103930247299, 0.0]
['beep', 0.0, 1303.553736633508, 0.0, 0.0, 0.0, 0.0, -528.7081633458332, 0.0]
['beep', 0.0, 1314.327277460966, 0.0, 0.0, 0.0, 0.0, -524.8189598106098, 0.0]
['beep', 0.0, 1308.873451813871, 0.0, 0.0, 0.0, 0.0, -524.3495731770483, 0.0]
['beep', 0.0, 1292.8248992949605, 0.0, 0.0, 0.0, 0.0, -528.8869773014757, 0.0]
['beep', 0.0, 1288.7568818040945, 0.0, 0.0, 0.0, 0.0, -529.781047079688, 0.0]
['beep', 0.0, 1303.4643296556867, 0.0, 0.0, 0.0, 0.0, -526.9870790227747, 0.0]
['beep', 0.0, 1315.936603061748, 0.0, 0.0, 0.0, 0.0, -525.19893946635, 0.0]
['beep', 0.0, 1309.2757832140665, 0.0, 0.0, 0.0, 0.0, -526.137712733473, 0.0]
['beep', 0.0, 1292.9143062727817, 0.0, 0.0, 0.0, 0.0, -529.5351778906796, 0.0]
['beep', 0.0, 1290.2768004270556, 0.0, 0.0, 0.0, 0.0, -530.943337791364, 0.0]
['beep', 0.0, 1301.8103005659939, 0.0, 0.0, 0.0, 0.0, -527.7917418231657, 0.0]
['beep', 0.0, 1314.2155187386893, 0.0, 0.0, 0.0, 0.0, -518.6051748520345, 0.0]
['beep', 0.0, 1309.3428384474323, 0.0, 0.0, 0.0, 0.0, -475.55571503111304, 0.0]
['beep', 0.0, 1293.4730998841644, 0.0, 0.0, 0.0, 0.0, -452.30990079759374, 0.0]
['beep', 0.0, 1290.679131827251, 0.0, 0.0, 0.0, 0.0, -470.07953763956283, 0.0]
['beep', 0.0, 1304.4031029228095, 0.0, 0.0, 0.0, 0.0, -517.6664015849116, 0.0]
['beep', 0.0, 1316.584803650952, 0.0, 0.0, 0.0, 0.0, -523.1649307209171, 0.0]
['beep', 0.0, 1310.9298123037593, 0.0, 0.0, 0.0, 0.0, -523.8578347990316, 0.0]
['beep', 0.0, 1294.9483150182148, 0.0, 0.0, 0.0, 0.0, -525.6906778443669, 0.0]
['beep', 0.0, 1290.2320969381449, 0.0, 0.0, 0.0, 0.0, -529.1775499793947, 0.0]
['beep', 0.0, 1303.6207918668738, 0.0, 0.0, 0.0, 0.0, -527.3447069340596, 0.0]
['beep', 0.0, 1314.6402018833403, 0.0, 0.0, 0.0, 0.0, -526.5400441336685, 0.0]
['beep', 0.0, 1309.7898733365387, 0.0, 0.0, 0.0, 0.0, -526.7859133226768, 0.0]
['beep', 0.0, 1293.9201347732705, 0.0, 0.0, 0.0, 0.0, -529.9822127797858, 0.0]
['beep', 0.0, 1289.1592132042902, 0.0, 0.0, 0.0, 0.0, -530.9880412802746, 0.0]
['beep', 0.0, 1302.905536044304, 0.0, 0.0, 0.0, 0.0, -527.1658929784171, 0.0]
['beep', 0.0, 1314.3719809498766, 0.0, 0.0, 0.0, 0.0, -522.7849510651769, 0.0]
['beep', 0.0, 1308.0911407579351, 0.0, 0.0, 0.0, 0.0, -523.2096342098278, 0.0]
['beep', 0.0, 1294.2554109401, 0.0, 0.0, 0.0, 0.0, -528.1717214789059, 0.0]
['beep', 0.0, 1289.6062480933963, 0.0, 0.0, 0.0, 0.0, -530.7645238357215, 0.0]
['beep', 0.0, 1303.844309311427, 0.0, 0.0, 0.0, 0.0, -528.328183690093, 0.0]
['beep', 0.0, 1315.3778094503652, 0.0, 0.0, 0.0, 0.0, -524.2601661992271, 0.0]
['beep', 0.0, 1309.3428384474323, 0.0, 0.0, 0.0, 0.0, -525.5342156331797, 0.0]
