['beep', 0.0, -3562.0186998866443, 0.0, 0.0, 0.0, 0.0, -2585.2474671897253, 0.0]
['beep', 0.0, -3561.884589419912, 0.0, 0.0, 0.0, 0.0, -2584.1075282225047, 0.0]
['beep', 0.0, -3560.7222987082364, 0.0, 0.0, 0.0, 0.0, -2584.4428043893345, 0.0]
['beep', 0.0, -3561.0128713861554, 0.0, 0.0, 0.0, 0.0, -2584.711025322798, 0.0]
['beep', 0.0, -3562.0634033755546, 0.0, 0.0, 0.0, 0.0, -2584.84513578953, 0.0]
['beep', 0.0, -3562.733955709214, 0.0, 0.0, 0.0, 0.0, -2585.515688123189, 0.0]
['beep', 0.0, -3561.7281272087253, 0.0, 0.0, 0.0, 0.0, -2584.688673578343, 0.0]
['beep', 0.0, -3561.0575748750657, 0.0, 0.0, 0.0, 0.0, -2585.22511544527, 0.0]
['beep', 0.0, -3560.476429519228, 0.0, 0.0, 0.0, 0.0, -2584.7333770672535, 0.0]
['beep', 0.0, -3560.6775952193257, 0.0, 0.0, 0.0, 0.0, -2585.0239497451726, 0.0]
['beep', 0.0, -3560.9458161527896, 0.0, 0.0, 0.0, 0.0, -2584.912191022896, 0.0]
['beep', 0.0, -3561.0128713861554, 0.0, 0.0, 0.0, 0.0, -2585.0239497451726, 0.0]
['beep', 0.0, -3559.6494149743817, 0.0, 0.0, 0.0, 0.0, -2585.9850747567507, 0.0]
['beep', 0.0, -3559.604711485471, 0.0, 0.0, 0.0, 0.0, -2585.068653234083, 0.0]
['beep', 0.0, -3559.6494149743817, 0.0, 0.0, 0.0, 0.0, -2584.5322113671555, 0.0]
['beep', 0.0, -3560.0964498634876, 0.0, 0.0, 0.0, 0.0, -2585.0463014896277, 0.0]
['beep', 0.0, -3561.236388830708, 0.0, 0.0, 0.0, 0.0, -2584.7557288117087, 0.0]
['beep', 0.0, -3561.146981852887, 0.0, 0.0, 0.0, 0.0, -2585.493336378734, 0.0]
['beep', 0.0, -3560.118801607943, 0.0, 0.0, 0.0, 0.0, -2583.548734611122, 0.0]
['beep', 0.0, -3559.0459178740884, 0.0, 0.0, 0.0, 0.0, -2582.8334787885524, 0.0]
['beep', 0.0, -3559.0459178740884, 0.0, 0.0, 0.0, 0.0, -2584.0628247335944, 0.0]
['beep', 0.0, -3559.962339396756, 0.0, 0.0, 0.0, 0.0, -2584.286342178147, 0.0]
['beep', 0.0, -3560.118801607943, 0.0, 0.0, 0.0, 0.0, -2584.554563111611, 0.0]
['beep', 0.0, -3560.0517463745773, 0.0, 0.0, 0.0, 0.0, -2583.7275485667647, 0.0]
['beep', 0.0, -3560.118801607943, 0.0, 0.0, 0.0, 0.0, -2584.554563111611, 0.0]
['beep', 0.0, -3561.3257958085296, 0.0, 0.0, 0.0, 0.0, -2585.068653234083, 0.0]
['beep', 0.0, -3561.638720230904, 0.0, 0.0, 0.0, 0.0, -2584.3981009004237, 0.0]
['beep', 0.0, -3560.923464408334, 0.0, 0.0, 0.0, 0.0, -2586.1862404568483, 0.0]
['beep', 0.0, -3560.3646707969515, 0.0, 0.0, 0.0, 0.0, -2585.292170678636, 0.0]
['beep', 0.0, -3559.7164702077475, 0.0, 0.0, 0.0, 0.0, -2585.0910049785384, 0.0]
['beep', 0.0, -3561.236388830708, 0.0, 0.0, 0.0, 0.0, -2585.582743356555, 0.0]
['beep', 0.0, -3561.191685341798, 0.0, 0.0, 0.0, 0.0, -2585.6945020788316, 0.0]
['beep', 0.0, -3559.89528416339, 0.0, 0.0, 0.0, 0.0, -2585.3145224230916, 0.0]
['beep', 0.0, -3559.4258975298285, 0.0, 0.0, 0.0, 0.0, -2584.912191022896, 0.0]
['beep', 0.0, -3561.124630108432, 0.0, 0.0, 0.0, 0.0, -2585.0463014896277, 0.0]
['beep', 0.0, -3562.1975138422868, 0.0, 0.0, 0.0, 0.0, -2585.7392055677424, 0.0]
['beep', 0.0, -3562.5551417535717, 0.0, 0.0, 0.0, 0.0, -2585.94037126784, 0.0]
['beep', 0.0, -3562.6445487313927, 0.0, 0.0, 0.0, 0.0, -2584.3086939226027, 0.0]
['beep', 0.0, -3562.9127696648566, 0.0, 0.0, 0.0, 0.0, -2584.3086939226027, 0.0]
['beep', 0.0, -3562.4880865202053, 0.0, 0.0, 0.0, 0.0, -2585.515688123189, 0.0]
['beep', 0.0, -3562.46573477575, 0.0, 0.0, 0.0, 0.0, -2586.812089301597, 0.0]
['beep', 0.0, -3562.0186998866443, 0.0, 0.0, 0.0, 0.0, -2586.1191852234824, 0.0]
['beep', 0.0, -3560.9905196417, 0.0, 0.0, 0.0, 0.0, -2585.292170678636, 0.0]
['beep', 0.0, -3561.3257958085296, 0.0, 0.0, 0.0, 0.0, -2585.582743356555, 0.0]
['beep', 0.0, -3561.9963481421887, 0.0, 0.0, 0.0, 0.0, -2583.615789844488, 0.0]
['beep', 0.0, -3562.2869208201078, 0.0, 0.0, 0.0, 0.0, -2583.7275485667647, 0.0]
['beep', 0.0, -3561.6610719753594, 0.0, 0.0, 0.0, 0.0, -2584.353397411513, 0.0]
['beep', 0.0, -3561.6163684864487, 0.0, 0.0, 0.0, 0.0, -2582.4982026217226, 0.0]
['beep', 0.0, -3561.0352231306106, 0.0, 0.0, 0.0, 0.0, -2584.2192869447813, 0.0]
['beep', 0.0, -3561.504609764172, 0.0, 0.0, 0.0, 0.0, -2586.3427026680356, 0.0]
['beep', 0.0, -3561.884589419912, 0.0, 0.0, 0.0, 0.0, -2586.1415369679376, 0.0]
['beep', 0.0, -3561.9069411643677, 0.0, 0.0, 0.0, 0.0, -2584.3981009004237, 0.0]
['beep', 0.0, -3562.443383031295, 0.0, 0.0, 0.0, 0.0, -2583.995769500228, 0.0]
['beep', 0.0, -3562.2869208201078, 0.0, 0.0, 0.0, 0.0, -2584.241638689237, 0.0]
['beep', 0.0, -3563.6280254874264, 0.0, 0.0, 0.0, 0.0, -2584.6663218338877, 0.0]
['beep', 0.0, -3563.158638853865, 0.0, 0.0, 0.0, 0.0, -2585.962723012295, 0.0]
['beep', 0.0, -3562.0410516310994, 0.0, 0.0, 0.0, 0.0, -2586.163888712393, 0.0]
['beep', 0.0, -3561.571664997538, 0.0, 0.0, 0.0, 0.0, -2586.1415369679376, 0.0]
['beep', 0.0, -3561.3481475529848, 0.0, 0.0, 0.0, 0.0, -2586.0297782456614, 0.0]
['beep', 0.0, -3561.214037086253, 0.0, 0.0, 0.0, 0.0, -2584.84513578953, 0.0]
['beep', 0.0, -3562.510438264661, 0.0, 0.0, 0.0, 0.0, -2584.241638689237, 0.0]
['beep', 0.0, -3563.3598045539625, 0.0, 0.0, 0.0, 0.0, -2585.850964290019, 0.0]
['beep', 0.0, -3563.113935364954, 0.0, 0.0, 0.0, 0.0, -2584.8227840450745, 0.0]
['beep', 0.0, -3562.80101094258, 0.0, 0.0, 0.0, 0.0, -2584.196935200326, 0.0]
['beep', 0.0, -3562.376327797929, 0.0, 0.0, 0.0, 0.0, -2585.6945020788316, 0.0]
['beep', 0.0, -3561.951644653278, 0.0, 0.0, 0.0, 0.0, -2584.5098596227003, 0.0]
['beep', 0.0, -3562.3539760534736, 0.0, 0.0, 0.0, 0.0, -2583.4369758888456, 0.0]
['beep', 0.0, -3561.8175341865463, 0.0, 0.0, 0.0, 0.0, -2582.5429061106333, 0.0]
['beep', 0.0, -3560.901112663879, 0.0, 0.0, 0.0, 0.0, -2582.453499132812, 0.0]
['beep', 0.0, -3561.124630108432, 0.0, 0.0, 0.0, 0.0, -2582.31938866608, 0.0]
['beep', 0.0, -3561.9739963977336, 0.0, 0.0, 0.0, 0.0, -2582.8558305330075, 0.0]
['beep', 0.0, -3561.3928510418955, 0.0, 0.0, 0.0, 0.0, -2583.7946038001305, 0.0]
['beep', 0.0, -3561.214037086253, 0.0, 0.0, 0.0, 0.0, -2583.0569962331056, 0.0]
['beep', 0.0, -3561.124630108432, 0.0, 0.0, 0.0, 0.0, -2582.453499132812, 0.0]
['beep', 0.0, -3561.3704992974403, 0.0, 0.0, 0.0, 0.0, -2583.526382866667, 0.0]
['beep', 0.0, -3561.8175341865463, 0.0, 0.0, 0.0, 0.0, -2584.2192869447813, 0.0]
['beep', 0.0, -3561.526961508627, 0.0, 0.0, 0.0, 0.0, -2584.84513578953, 0.0]
['beep', 0.0, -3561.884589419912, 0.0, 0.0, 0.0, 0.0, -2585.068653234083, 0.0]
['beep', 0.0, -3561.437554530806, 0.0, 0.0, 0.0, 0.0, -2584.353397411513, 0.0]
['beep', 0.0, -3561.504609764172, 0.0, 0.0, 0.0, 0.0, -2582.945237510829, 0.0]
['beep', 0.0, -3563.0021766426776, 0.0, 0.0, 0.0, 0.0, -2584.1745834558706, 0.0]
['beep', 0.0, -3561.3928510418955, 0.0, 0.0, 0.0, 0.0, -2584.688673578343, 0.0]
['beep', 0.0, -3561.795182442091, 0.0, 0.0, 0.0, 0.0, -2583.995769500228, 0.0]
['beep', 0.0, -3561.504609764172, 0.0, 0.0, 0.0, 0.0, -2582.945237510829, 0.0]
['beep', 0.0, -3561.4599062752613, 0.0, 0.0, 0.0, 0.0, -2583.973417755773, 0.0]
['beep', 0.0, -3562.80101094258, 0.0, 0.0, 0.0, 0.0, -2584.688673578343, 0.0]
['beep', 0.0, -3563.51626676515, 0.0, 0.0, 0.0, 0.0, -2584.4651561337896, 0.0]
['beep', 0.0, -3562.3316243090185, 0.0, 0.0, 0.0, 0.0, -2583.2134584442924, 0.0]
['beep', 0.0, -3561.526961508627, 0.0, 0.0, 0.0, 0.0, -2582.5429061106333, 0.0]
['beep', 0.0, -3562.1304586089204, 0.0, 0.0, 0.0, 0.0, -2582.811127044097, 0.0]
['beep', 0.0, -3562.1081068644653, 0.0, 0.0, 0.0, 0.0, -2584.1298799669603, 0.0]
['beep', 0.0, -3561.7057754642697, 0.0, 0.0, 0.0, 0.0, -2583.884010777952, 0.0]
['beep', 0.0, -3561.7504789531804, 0.0, 0.0, 0.0, 0.0, -2583.2805136776583, 0.0]
['beep', 0.0, -3562.309272564563, 0.0, 0.0, 0.0, 0.0, -2582.609961343999, 0.0]
['beep', 0.0, -3562.1304586089204, 0.0, 0.0, 0.0, 0.0, -2581.8276502880635, 0.0]
['beep', 0.0, -3562.6221969869375, 0.0, 0.0, 0.0, 0.0, -2584.9568945118067, 0.0]
['beep', 0.0, -3561.929292908823, 0.0, 0.0, 0.0, 0.0, -2584.7333770672535, 0.0]
['beep', 0.0, -3561.214037086253, 0.0, 0.0, 0.0, 0.0, -2582.1629264548933, 0.0]
['beep', 0.0, -3560.9681678972447, 0.0, 0.0, 0.0, 0.0, -2582.6993683218207, 0.0]
['beep', 0.0, -3561.951644653278, 0.0, 0.0, 0.0, 0.0, -2582.028815988161, 0.0]
['beep', 0.0, -3561.8175341865463, 0.0, 0.0, 0.0, 0.0, -2581.8500020325187, 0.0]
['beep', 0.0, -3561.6834237198145, 0.0, 0.0, 0.0, 0.0, -2581.2018014433147, 0.0]
['beep', 0.0, -3561.236388830708, 0.0, 0.0, 0.0, 0.0, -2582.1405747104377, 0.0]
['beep', 0.0, -3561.437554530806, 0.0, 0.0, 0.0, 0.0, -2582.7887752996417, 0.0]
['beep', 0.0, -3560.7222987082364, 0.0, 0.0, 0.0, 0.0, -2582.9005340219182, 0.0]
['beep', 0.0, -3561.281092319619, 0.0, 0.0, 0.0, 0.0, -2583.3699206554797, 0.0]
['beep', 0.0, -3560.27526381913, 0.0, 0.0, 0.0, 0.0, -2581.93940901034, 0.0]
['beep', 0.0, -3560.543484752594, 0.0, 0.0, 0.0, 0.0, -2581.1123944654937, 0.0]
['beep', 0.0, -3560.27526381913, 0.0, 0.0, 0.0, 0.0, -2580.8218217875747, 0.0]
['beep', 0.0, -3559.7611736966583, 0.0, 0.0, 0.0, 0.0, -2581.045339232128, 0.0]
['beep', 0.0, -3561.236388830708, 0.0, 0.0, 0.0, 0.0, -2580.643007831932, 0.0]
['beep', 0.0, -3561.2587405751638, 0.0, 0.0, 0.0, 0.0, -2581.8947055214294, 0.0]
['beep', 0.0, -3560.4540777747725, 0.0, 0.0, 0.0, 0.0, -2581.0229874876723, 0.0]
['beep', 0.0, -3560.1635050968534, 0.0, 0.0, 0.0, 0.0, -2580.3077316651024, 0.0]
['beep', 0.0, -3561.526961508627, 0.0, 0.0, 0.0, 0.0, -2581.380615398957, 0.0]
['beep', 0.0, -3561.3257958085296, 0.0, 0.0, 0.0, 0.0, -2580.3747868984688, 0.0]
['beep', 0.0, -3561.839885931002, 0.0, 0.0, 0.0, 0.0, -2581.3135601655913, 0.0]
['beep', 0.0, -3561.6610719753594, 0.0, 0.0, 0.0, 0.0, -2581.1123944654937, 0.0]
['beep', 0.0, -3562.6221969869375, 0.0, 0.0, 0.0, 0.0, -2579.9948072427283, 0.0]
['beep', 0.0, -3563.113935364954, 0.0, 0.0, 0.0, 0.0, -2581.1794496988596, 0.0]
['beep', 0.0, -3563.3598045539625, 0.0, 0.0, 0.0, 0.0, -2579.8830485204517, 0.0]
['beep', 0.0, -3564.052708632077, 0.0, 0.0, 0.0, 0.0, -2579.614827586988, 0.0]
['beep', 0.0, -3563.1362871094093, 0.0, 0.0, 0.0, 0.0, -2579.5477723536223, 0.0]
['beep', 0.0, -3562.80101094258, 0.0, 0.0, 0.0, 0.0, -2578.9666269977843, 0.0]
['beep', 0.0, -3563.5609702540605, 0.0, 0.0, 0.0, 0.0, -2580.263028176192, 0.0]
['beep', 0.0, -3563.8738946764347, 0.0, 0.0, 0.0, 0.0, -2580.106565965005, 0.0]
['beep', 0.0, -3563.5833219985157, 0.0, 0.0, 0.0, 0.0, -2578.6984060643204, 0.0]
['beep', 0.0, -3562.7786591981244, 0.0, 0.0, 0.0, 0.0, -2580.6653595763873, 0.0]
['beep', 0.0, -3564.142115609898, 0.0, 0.0, 0.0, 0.0, -2580.777118298664, 0.0]
['beep', 0.0, -3564.6785574768255, 0.0, 0.0, 0.0, 0.0, -2581.7605950546977, 0.0]
['beep', 0.0, -3564.9467784102894, 0.0, 0.0, 0.0, 0.0, -2581.1123944654937, 0.0]
['beep', 0.0, -3563.605673742971, 0.0, 0.0, 0.0, 0.0, -2579.41366188689, 0.0]
['beep', 0.0, -3563.5609702540605, 0.0, 0.0, 0.0, 0.0, -2579.4360136313458, 0.0]
['beep', 0.0, -3563.113935364954, 0.0, 0.0, 0.0, 0.0, -2580.8665252764854, 0.0]
['beep', 0.0, -3563.51626676515, 0.0, 0.0, 0.0, 0.0, -2580.1512694539156, 0.0]
['beep', 0.0, -3563.5833219985157, 0.0, 0.0, 0.0, 0.0, -2579.815993287086, 0.0]
['beep', 0.0, -3563.7844876986132, 0.0, 0.0, 0.0, 0.0, -2579.1454409534267, 0.0]
['beep', 0.0, -3562.4880865202053, 0.0, 0.0, 0.0, 0.0, -2577.357301397002, 0.0]
['beep', 0.0, -3561.795182442091, 0.0, 0.0, 0.0, 0.0, -2577.6255223304656, 0.0]
['beep', 0.0, -3560.9681678972447, 0.0, 0.0, 0.0, 0.0, -2578.3184264085803, 0.0]
['beep', 0.0, -3560.7222987082364, 0.0, 0.0, 0.0, 0.0, -2578.139612452938, 0.0]
['beep', 0.0, -3558.0400893735996, 0.0, 0.0, 0.0, 0.0, -2576.3738246409685, 0.0]
['beep', 0.0, -3556.967205639745, 0.0, 0.0, 0.0, 0.0, -2575.7256240517645, 0.0]
['beep', 0.0, -3557.1460195953873, 0.0, 0.0, 0.0, 0.0, -2575.233885673748, 0.0]
['beep', 0.0, -3557.8165719290464, 0.0, 0.0, 0.0, 0.0, -2575.680920562854, 0.0]
['beep', 0.0, -3560.0070428856666, 0.0, 0.0, 0.0, 0.0, -2575.9714932407733, 0.0]
['beep', 0.0, -3560.7893539416023, 0.0, 0.0, 0.0, 0.0, -2577.044376974628, 0.0]
['beep', 0.0, -3560.8787609194233, 0.0, 0.0, 0.0, 0.0, -2576.820859530075, 0.0]
['beep', 0.0, -3561.9069411643677, 0.0, 0.0, 0.0, 0.0, -2577.156135696904, 0.0]
['beep', 0.0, -3562.7786591981244, 0.0, 0.0, 0.0, 0.0, -2577.6255223304656, 0.0]
['beep', 0.0, -3563.2256940872307, 0.0, 0.0, 0.0, 0.0, -2575.837382774041, 0.0]
['beep', 0.0, -3563.3598045539625, 0.0, 0.0, 0.0, 0.0, -2577.0220252301724, 0.0]
['beep', 0.0, -3563.449211531784, 0.0, 0.0, 0.0, 0.0, -2579.2124961867926, 0.0]
['beep', 0.0, -3562.6221969869375, 0.0, 0.0, 0.0, 0.0, -2579.6371793314433, 0.0]
['beep', 0.0, -3562.3986795423843, 0.0, 0.0, 0.0, 0.0, -2579.8606967759965, 0.0]
['beep', 0.0, -3563.0692318760434, 0.0, 0.0, 0.0, 0.0, -2579.1454409534267, 0.0]
['beep', 0.0, -3563.9185981653454, 0.0, 0.0, 0.0, 0.0, -2578.765461297686, 0.0]
['beep', 0.0, -3564.097412120988, 0.0, 0.0, 0.0, 0.0, -2579.5924758425326, 0.0]
['beep', 0.0, -3564.119763865443, 0.0, 0.0, 0.0, 0.0, -2579.4360136313458, 0.0]
['beep', 0.0, -3563.4268597873283, 0.0, 0.0, 0.0, 0.0, -2579.1454409534267, 0.0]
['beep', 0.0, -3563.404508042873, 0.0, 0.0, 0.0, 0.0, -2579.2124961867926, 0.0]
['beep', 0.0, -3562.7786591981244, 0.0, 0.0, 0.0, 0.0, -2579.815993287086, 0.0]
['beep', 0.0, -3561.7057754642697, 0.0, 0.0, 0.0, 0.0, -2578.4078333864013, 0.0]
['beep', 0.0, -3561.3481475529848, 0.0, 0.0, 0.0, 0.0, -2577.4690601192788, 0.0]
['beep', 0.0, -3561.795182442091, 0.0, 0.0, 0.0, 0.0, -2576.2844176631475, 0.0]
['beep', 0.0, -3561.3928510418955, 0.0, 0.0, 0.0, 0.0, -2577.0220252301724, 0.0]
['beep', 0.0, -3560.9681678972447, 0.0, 0.0, 0.0, 0.0, -2576.9773217412617, 0.0]
['beep', 0.0, -3560.9905196417, 0.0, 0.0, 0.0, 0.0, -2578.4078333864013, 0.0]
['beep', 0.0, -3560.632891730415, 0.0, 0.0, 0.0, 0.0, -2577.9384467528403, 0.0]
['beep', 0.0, -3560.7222987082364, 0.0, 0.0, 0.0, 0.0, -2577.0220252301724, 0.0]
['beep', 0.0, -3561.437554530806, 0.0, 0.0, 0.0, 0.0, -2577.714929308287, 0.0]
['beep', 0.0, -3561.0128713861554, 0.0, 0.0, 0.0, 0.0, -2577.9831502417505, 0.0]
['beep', 0.0, -3560.8787609194233, 0.0, 0.0, 0.0, 0.0, -2578.5419438531335, 0.0]
['beep', 0.0, -3561.191685341798, 0.0, 0.0, 0.0, 0.0, -2578.3184264085803, 0.0]
['beep', 0.0, -3561.839885931002, 0.0, 0.0, 0.0, 0.0, -2577.759632797198, 0.0]
['beep', 0.0, -3561.3257958085296, 0.0, 0.0, 0.0, 0.0, -2578.430185130857, 0.0]
['beep', 0.0, -3560.4317260303173, 0.0, 0.0, 0.0, 0.0, -2577.9160950083847, 0.0]
['beep', 0.0, -3560.6775952193257, 0.0, 0.0, 0.0, 0.0, -2576.753804296709, 0.0]
['beep', 0.0, -3559.0012143851777, 0.0, 0.0, 0.0, 0.0, -2578.2513711752144, 0.0]
['beep', 0.0, -3559.1129731074543, 0.0, 0.0, 0.0, 0.0, -2579.614827586988, 0.0]
['beep', 0.0, -3559.671766718837, 0.0, 0.0, 0.0, 0.0, -2579.4807171202565, 0.0]
['beep', 0.0, -3561.6834237198145, 0.0, 0.0, 0.0, 0.0, -2579.659531075899, 0.0]
['beep', 0.0, -3561.124630108432, 0.0, 0.0, 0.0, 0.0, -2578.65370257541, 0.0]
['beep', 0.0, -3559.4929527631944, 0.0, 0.0, 0.0, 0.0, -2577.871391519474, 0.0]
['beep', 0.0, -3559.4482492742836, 0.0, 0.0, 0.0, 0.0, -2577.5361153526446, 0.0]
['beep', 0.0, -3560.2305603302198, 0.0, 0.0, 0.0, 0.0, -2577.3349496525466, 0.0]
['beep', 0.0, -3560.61053998596, 0.0, 0.0, 0.0, 0.0, -2578.5419438531335, 0.0]
['beep', 0.0, -3561.191685341798, 0.0, 0.0, 0.0, 0.0, -2578.139612452938, 0.0]
['beep', 0.0, -3561.6610719753594, 0.0, 0.0, 0.0, 0.0, -2577.8937432639295, 0.0]
['beep', 0.0, -3561.7281272087253, 0.0, 0.0, 0.0, 0.0, -2578.072557219572, 0.0]
['beep', 0.0, -3562.443383031295, 0.0, 0.0, 0.0, 0.0, -2579.324254909069, 0.0]
['beep', 0.0, -3562.577493498027, 0.0, 0.0, 0.0, 0.0, -2579.4360136313458, 0.0]
['beep', 0.0, -3561.6163684864487, 0.0, 0.0, 0.0, 0.0, -2578.2737229196696, 0.0]
['beep', 0.0, -3560.632891730415, 0.0, 0.0, 0.0, 0.0, -2578.4078333864013, 0.0]
['beep', 0.0, -3560.565836497049, 0.0, 0.0, 0.0, 0.0, -2578.094908964027, 0.0]
['beep', 0.0, -3561.504609764172, 0.0, 0.0, 0.0, 0.0, -2577.849039775019, 0.0]
['beep', 0.0, -3561.6163684864487, 0.0, 0.0, 0.0, 0.0, -2577.9831502417505, 0.0]
['beep', 0.0, -3562.08575512001, 0.0, 0.0, 0.0, 0.0, -2577.647874074921, 0.0]
['beep', 0.0, -3561.437554530806, 0.0, 0.0, 0.0, 0.0, -2578.743109553231, 0.0]
['beep', 0.0, -3560.901112663879, 0.0, 0.0, 0.0, 0.0, -2580.397138642924, 0.0]
['beep', 0.0, -3561.437554530806, 0.0, 0.0, 0.0, 0.0, -2579.4360136313458, 0.0]
['beep', 0.0, -3561.795182442091, 0.0, 0.0, 0.0, 0.0, -2579.36895839798, 0.0]
['beep', 0.0, -3561.1693335973423, 0.0, 0.0, 0.0, 0.0, -2579.011330486695, 0.0]
['beep', 0.0, -3560.2976155635856, 0.0, 0.0, 0.0, 0.0, -2579.3466066535243, 0.0]
['beep', 0.0, -3560.498781263683, 0.0, 0.0, 0.0, 0.0, -2578.9219235088735, 0.0]
['beep', 0.0, -3560.27526381913, 0.0, 0.0, 0.0, 0.0, -2578.6089990864994, 0.0]
['beep', 0.0, -3561.0128713861554, 0.0, 0.0, 0.0, 0.0, -2577.2902461636363, 0.0]
['beep', 0.0, -3560.1635050968534, 0.0, 0.0, 0.0, 0.0, -2577.8266880305637, 0.0]
['beep', 0.0, -3559.7164702077475, 0.0, 0.0, 0.0, 0.0, -2578.385481641946, 0.0]
['beep', 0.0, -3560.1635050968534, 0.0, 0.0, 0.0, 0.0, -2578.1843159418486, 0.0]
['beep', 0.0, -3560.5881882415047, 0.0, 0.0, 0.0, 0.0, -2579.167792697882, 0.0]
['beep', 0.0, -3560.4317260303173, 0.0, 0.0, 0.0, 0.0, -2579.167792697882, 0.0]
['beep', 0.0, -3559.917635907845, 0.0, 0.0, 0.0, 0.0, -2578.072557219572, 0.0]
['beep', 0.0, -3559.269435318641, 0.0, 0.0, 0.0, 0.0, -2578.810164786597, 0.0]
['beep', 0.0, -3559.872932418935, 0.0, 0.0, 0.0, 0.0, -2578.877220019963, 0.0]
['beep', 0.0, -3560.9458161527896, 0.0, 0.0, 0.0, 0.0, -2578.720757808776, 0.0]
['beep', 0.0, -3561.594016741993, 0.0, 0.0, 0.0, 0.0, -2578.1172607084827, 0.0]
['beep', 0.0, -3562.1304586089204, 0.0, 0.0, 0.0, 0.0, -2579.41366188689, 0.0]
['beep', 0.0, -3560.1411533523983, 0.0, 0.0, 0.0, 0.0, -2579.815993287086, 0.0]
['beep', 0.0, -3561.214037086253, 0.0, 0.0, 0.0, 0.0, -2577.357301397002, 0.0]
['beep', 0.0, -3562.175162097831, 0.0, 0.0, 0.0, 0.0, -2578.452536875312, 0.0]
['beep', 0.0, -3561.571664997538, 0.0, 0.0, 0.0, 0.0, -2578.743109553231, 0.0]
['beep', 0.0, -3561.6163684864487, 0.0, 0.0, 0.0, 0.0, -2578.9889787422394, 0.0]
['beep', 0.0, -3562.1304586089204, 0.0, 0.0, 0.0, 0.0, -2579.9277520093624, 0.0]
['beep', 0.0, -3562.6892522203034, 0.0, 0.0, 0.0, 0.0, -2579.8830485204517, 0.0]
['beep', 0.0, -3562.0634033755546, 0.0, 0.0, 0.0, 0.0, -2581.380615398957, 0.0]
['beep', 0.0, -3562.443383031295, 0.0, 0.0, 0.0, 0.0, -2581.693539821332, 0.0]
['beep', 0.0, -3562.1081068644653, 0.0, 0.0, 0.0, 0.0, -2580.2183246872814, 0.0]
['beep', 0.0, -3561.2587405751638, 0.0, 0.0, 0.0, 0.0, -2579.5477723536223, 0.0]
['beep', 0.0, -3560.856409174968, 0.0, 0.0, 0.0, 0.0, -2579.8606967759965, 0.0]
['beep', 0.0, -3561.3481475529848, 0.0, 0.0, 0.0, 0.0, -2580.1736211983707, 0.0]
['beep', 0.0, -3561.638720230904, 0.0, 0.0, 0.0, 0.0, -2579.5254206091668, 0.0]
['beep', 0.0, -3560.4540777747725, 0.0, 0.0, 0.0, 0.0, -2580.754766554209, 0.0]
['beep', 0.0, -3560.0070428856666, 0.0, 0.0, 0.0, 0.0, -2580.0842142205497, 0.0]
['beep', 0.0, -3560.7222987082364, 0.0, 0.0, 0.0, 0.0, -2580.1736211983707, 0.0]
['beep', 0.0, -3561.3257958085296, 0.0, 0.0, 0.0, 0.0, -2579.9054002649073, 0.0]
['beep', 0.0, -3562.4210312868395, 0.0, 0.0, 0.0, 0.0, -2580.5312491096556, 0.0]
['beep', 0.0, -3563.3374528095073, 0.0, 0.0, 0.0, 0.0, -2581.4700223767786, 0.0]
['beep', 0.0, -3562.957473153767, 0.0, 0.0, 0.0, 0.0, -2579.8383450315414, 0.0]
['beep', 0.0, -3561.795182442091, 0.0, 0.0, 0.0, 0.0, -2579.681882820354, 0.0]
['beep', 0.0, -3561.437554530806, 0.0, 0.0, 0.0, 0.0, -2580.486545620745, 0.0]
['beep', 0.0, -3561.214037086253, 0.0, 0.0, 0.0, 0.0, -2579.5477723536223, 0.0]
['beep', 0.0, -3561.1022783639764, 0.0, 0.0, 0.0, 0.0, -2579.100737464516, 0.0]
['beep', 0.0, -3560.632891730415, 0.0, 0.0, 0.0, 0.0, -2579.6371793314433, 0.0]
['beep', 0.0, -3561.191685341798, 0.0, 0.0, 0.0, 0.0, -2581.067690976583, 0.0]
['beep', 0.0, -3561.8175341865463, 0.0, 0.0, 0.0, 0.0, -2580.106565965005, 0.0]
['beep', 0.0, -3561.839885931002, 0.0, 0.0, 0.0, 0.0, -2579.815993287086, 0.0]
['beep', 0.0, -3562.577493498027, 0.0, 0.0, 0.0, 0.0, -2580.553600854111, 0.0]
['beep', 0.0, -3562.510438264661, 0.0, 0.0, 0.0, 0.0, -2580.6653595763873, 0.0]
['beep', 0.0, -3562.80101094258, 0.0, 0.0, 0.0, 0.0, -2581.1794496988596, 0.0]
['beep', 0.0, -3563.382156298418, 0.0, 0.0, 0.0, 0.0, -2580.710063065298, 0.0]
['beep', 0.0, -3563.113935364954, 0.0, 0.0, 0.0, 0.0, -2580.754766554209, 0.0]
['beep', 0.0, -3563.404508042873, 0.0, 0.0, 0.0, 0.0, -2581.067690976583, 0.0]
['beep', 0.0, -3563.449211531784, 0.0, 0.0, 0.0, 0.0, -2579.36895839798, 0.0]
['beep', 0.0, -3562.9127696648566, 0.0, 0.0, 0.0, 0.0, -2579.167792697882, 0.0]
['beep', 0.0, -3563.851542931979, 0.0, 0.0, 0.0, 0.0, -2579.7936415426307, 0.0]
['beep', 0.0, -3563.0468801315883, 0.0, 0.0, 0.0, 0.0, -2578.877220019963, 0.0]
['beep', 0.0, -3562.577493498027, 0.0, 0.0, 0.0, 0.0, -2578.743109553231, 0.0]
['beep', 0.0, -3562.9127696648566, 0.0, 0.0, 0.0, 0.0, -2578.5419438531335, 0.0]
['beep', 0.0, -3562.9351214093117, 0.0, 0.0, 0.0, 0.0, -2579.3019031646136, 0.0]
['beep', 0.0, -3562.8457144314907, 0.0, 0.0, 0.0, 0.0, -2579.1901444423374, 0.0]
['beep', 0.0, -3563.6727289763367, 0.0, 0.0, 0.0, 0.0, -2578.9889787422394, 0.0]
['beep', 0.0, -3563.762135954158, 0.0, 0.0, 0.0, 0.0, -2579.458365375801, 0.0]
['beep', 0.0, -3563.0692318760434, 0.0, 0.0, 0.0, 0.0, -2579.2124961867926, 0.0]
['beep', 0.0, -3563.538618509605, 0.0, 0.0, 0.0, 0.0, -2579.41366188689, 0.0]
['beep', 0.0, -3564.0080051431664, 0.0, 0.0, 0.0, 0.0, -2579.5254206091668, 0.0]
['beep', 0.0, -3563.3374528095073, 0.0, 0.0, 0.0, 0.0, -2579.726586309265, 0.0]
['beep', 0.0, -3563.404508042873, 0.0, 0.0, 0.0, 0.0, -2579.4360136313458, 0.0]
['beep', 0.0, -3563.2033423427756, 0.0, 0.0, 0.0, 0.0, -2579.36895839798, 0.0]
['beep', 0.0, -3563.382156298418, 0.0, 0.0, 0.0, 0.0, -2579.8606967759965, 0.0]
['beep', 0.0, -3564.477391776728, 0.0, 0.0, 0.0, 0.0, -2578.4078333864013, 0.0]
['beep', 0.0, -3564.9691301547446, 0.0, 0.0, 0.0, 0.0, -2577.737281052742, 0.0]
['beep', 0.0, -3565.147944110387, 0.0, 0.0, 0.0, 0.0, -2578.65370257541, 0.0]
['beep', 0.0, -3563.3598045539625, 0.0, 0.0, 0.0, 0.0, -2578.9889787422394, 0.0]
['beep', 0.0, -3563.449211531784, 0.0, 0.0, 0.0, 0.0, -2578.720757808776, 0.0]
['beep', 0.0, -3564.9020749213787, 0.0, 0.0, 0.0, 0.0, -2578.9889787422394, 0.0]
['beep', 0.0, -3562.9127696648566, 0.0, 0.0, 0.0, 0.0, -2579.2795514201584, 0.0]
['beep', 0.0, -3562.8457144314907, 0.0, 0.0, 0.0, 0.0, -2578.430185130857, 0.0]
['beep', 0.0, -3563.7844876986132, 0.0, 0.0, 0.0, 0.0, -2579.078385720061, 0.0]
['beep', 0.0, -3562.733955709214, 0.0, 0.0, 0.0, 0.0, -2579.771289798175, 0.0]
['beep', 0.0, -3562.6445487313927, 0.0, 0.0, 0.0, 0.0, -2580.5312491096556, 0.0]
['beep', 0.0, -3563.404508042873, 0.0, 0.0, 0.0, 0.0, -2579.5924758425326, 0.0]
['beep', 0.0, -3563.18099059832, 0.0, 0.0, 0.0, 0.0, -2578.1843159418486, 0.0]
['beep', 0.0, -3562.7116039647585, 0.0, 0.0, 0.0, 0.0, -2577.849039775019, 0.0]
['beep', 0.0, -3563.9856533987113, 0.0, 0.0, 0.0, 0.0, -2578.385481641946, 0.0]
['beep', 0.0, -3565.5279237661275, 0.0, 0.0, 0.0, 0.0, -2579.659531075899, 0.0]
['beep', 0.0, -3564.700909221281, 0.0, 0.0, 0.0, 0.0, -2582.1182229659826, 0.0]
['beep', 0.0, -3565.3044063215743, 0.0, 0.0, 0.0, 0.0, -2580.9335805098513, 0.0]
['beep', 0.0, -3564.0750603765323, 0.0, 0.0, 0.0, 0.0, -2579.6371793314433, 0.0]
['beep', 0.0, -3562.7786591981244, 0.0, 0.0, 0.0, 0.0, -2579.9501037538175, 0.0]
['beep', 0.0, -3561.571664997538, 0.0, 0.0, 0.0, 0.0, -2578.9219235088735, 0.0]
['beep', 0.0, -3559.2023800852753, 0.0, 0.0, 0.0, 0.0, -2578.0502054751164, 0.0]
['beep', 0.0, -3558.509476007161, 0.0, 0.0, 0.0, 0.0, -2578.296074664125, 0.0]
['beep', 0.0, -3558.241255073697, 0.0, 0.0, 0.0, 0.0, -2578.2513711752144, 0.0]
['beep', 0.0, -3560.0070428856666, 0.0, 0.0, 0.0, 0.0, -2578.3184264085803, 0.0]
['beep', 0.0, -3562.599845242482, 0.0, 0.0, 0.0, 0.0, -2577.9831502417505, 0.0]
['beep', 0.0, -3564.2762260766303, 0.0, 0.0, 0.0, 0.0, -2577.5361153526446, 0.0]
['beep', 0.0, -3564.9020749213787, 0.0, 0.0, 0.0, 0.0, -2577.5584670970998, 0.0]
['beep', 0.0, -3565.147944110387, 0.0, 0.0, 0.0, 0.0, -2577.156135696904, 0.0]
['beep', 0.0, -3564.3209295655406, 0.0, 0.0, 0.0, 0.0, -2577.200839185815, 0.0]
['beep', 0.0, -3564.8126679435577, 0.0, 0.0, 0.0, 0.0, -2578.2737229196696, 0.0]
['beep', 0.0, -3564.8797231769236, 0.0, 0.0, 0.0, 0.0, -2578.8325165310525, 0.0]
['beep', 0.0, -3565.1702958548426, 0.0, 0.0, 0.0, 0.0, -2578.296074664125, 0.0]
['beep', 0.0, -3563.8738946764347, 0.0, 0.0, 0.0, 0.0, -2577.849039775019, 0.0]
['beep', 0.0, -3563.5833219985157, 0.0, 0.0, 0.0, 0.0, -2577.804336286108, 0.0]
['beep', 0.0, -3564.2985778210855, 0.0, 0.0, 0.0, 0.0, -2578.1172607084827, 0.0]
['beep', 0.0, -3563.7844876986132, 0.0, 0.0, 0.0, 0.0, -2577.759632797198, 0.0]
['beep', 0.0, -3564.0080051431664, 0.0, 0.0, 0.0, 0.0, -2579.078385720061, 0.0]
['beep', 0.0, -3563.7174324652474, 0.0, 0.0, 0.0, 0.0, -2579.5924758425326, 0.0]
['beep', 0.0, -3562.152810353376, 0.0, 0.0, 0.0, 0.0, -2579.8606967759965, 0.0]
['beep', 0.0, -3562.3316243090185, 0.0, 0.0, 0.0, 0.0, -2578.229019430759, 0.0]
['beep', 0.0, -3563.2256940872307, 0.0, 0.0, 0.0, 0.0, -2577.8266880305637, 0.0]
['beep', 0.0, -3562.9798248982224, 0.0, 0.0, 0.0, 0.0, -2578.4078333864013, 0.0]
['beep', 0.0, -3563.158638853865, 0.0, 0.0, 0.0, 0.0, -2578.720757808776, 0.0]
['beep', 0.0, -3563.091583620499, 0.0, 0.0, 0.0, 0.0, -2577.402004885913, 0.0]
['beep', 0.0, -3563.538618509605, 0.0, 0.0, 0.0, 0.0, -2578.072557219572, 0.0]
['beep', 0.0, -3564.3656330544513, 0.0, 0.0, 0.0, 0.0, -2578.3184264085803, 0.0]
['beep', 0.0, -3563.1362871094093, 0.0, 0.0, 0.0, 0.0, -2578.005501986206, 0.0]
['beep', 0.0, -3562.9127696648566, 0.0, 0.0, 0.0, 0.0, -2577.2902461636363, 0.0]
['beep', 0.0, -3563.449211531784, 0.0, 0.0, 0.0, 0.0, -2576.84321127453, 0.0]
['beep', 0.0, -3563.449211531784, 0.0, 0.0, 0.0, 0.0, -2577.0890804635383, 0.0]
['beep', 0.0, -3564.2315225877196, 0.0, 0.0, 0.0, 0.0, -2576.0609002185943, 0.0]
['beep', 0.0, -3564.209170843264, 0.0, 0.0, 0.0, 0.0, -2576.4408798743343, 0.0]
['beep', 0.0, -3563.449211531784, 0.0, 0.0, 0.0, 0.0, -2576.2844176631475, 0.0]
['beep', 0.0, -3562.868066175946, 0.0, 0.0, 0.0, 0.0, -2576.910266507896, 0.0]
['beep', 0.0, -3563.0021766426776, 0.0, 0.0, 0.0, 0.0, -2578.094908964027, 0.0]
['beep', 0.0, -3563.806839443069, 0.0, 0.0, 0.0, 0.0, -2578.3184264085803, 0.0]
['beep', 0.0, -3563.18099059832, 0.0, 0.0, 0.0, 0.0, -2576.8655630189855, 0.0]
['beep', 0.0, -3562.0634033755546, 0.0, 0.0, 0.0, 0.0, -2576.0609002185943, 0.0]
['beep', 0.0, -3562.7116039647585, 0.0, 0.0, 0.0, 0.0, -2576.6196938299768, 0.0]
['beep', 0.0, -3563.739784209703, 0.0, 0.0, 0.0, 0.0, -2577.0890804635383, 0.0]
['beep', 0.0, -3563.1362871094093, 0.0, 0.0, 0.0, 0.0, -2578.161964197393, 0.0]
['beep', 0.0, -3562.2645690756526, 0.0, 0.0, 0.0, 0.0, -2578.430185130857, 0.0]
['beep', 0.0, -3562.443383031295, 0.0, 0.0, 0.0, 0.0, -2576.910266507896, 0.0]
['beep', 0.0, -3562.3539760534736, 0.0, 0.0, 0.0, 0.0, -2577.6925775638315, 0.0]
['beep', 0.0, -3563.3374528095073, 0.0, 0.0, 0.0, 0.0, -2578.4078333864013, 0.0]
['beep', 0.0, -3565.460868532761, 0.0, 0.0, 0.0, 0.0, -2578.8548682755077, 0.0]
['beep', 0.0, -3564.477391776728, 0.0, 0.0, 0.0, 0.0, -2576.753804296709, 0.0]
['beep', 0.0, -3563.493915020694, 0.0, 0.0, 0.0, 0.0, -2576.7314525522534, 0.0]
['beep', 0.0, -3564.0080051431664, 0.0, 0.0, 0.0, 0.0, -2578.1172607084827, 0.0]
['beep', 0.0, -3564.142115609898, 0.0, 0.0, 0.0, 0.0, -2578.2513711752144, 0.0]
['beep', 0.0, -3563.851542931979, 0.0, 0.0, 0.0, 0.0, -2578.005501986206, 0.0]
['beep', 0.0, -3564.186819098809, 0.0, 0.0, 0.0, 0.0, -2577.1784874413597, 0.0]
['beep', 0.0, -3563.248045831686, 0.0, 0.0, 0.0, 0.0, -2576.820859530075, 0.0]
['beep', 0.0, -3562.80101094258, 0.0, 0.0, 0.0, 0.0, -2577.8266880305637, 0.0]
['beep', 0.0, -3562.2645690756526, 0.0, 0.0, 0.0, 0.0, -2576.3738246409685, 0.0]
['beep', 0.0, -3561.862237675457, 0.0, 0.0, 0.0, 0.0, -2575.74797579622, 0.0]
['beep', 0.0, -3562.5551417535717, 0.0, 0.0, 0.0, 0.0, -2576.485583363245, 0.0]
['beep', 0.0, -3562.242217331197, 0.0, 0.0, 0.0, 0.0, -2575.479754862756, 0.0]
['beep', 0.0, -3561.124630108432, 0.0, 0.0, 0.0, 0.0, -2576.0832519630494, 0.0]
['beep', 0.0, -3560.901112663879, 0.0, 0.0, 0.0, 0.0, -2576.753804296709, 0.0]
['beep', 0.0, -3559.984691141211, 0.0, 0.0, 0.0, 0.0, -2576.753804296709, 0.0]
['beep', 0.0, -3560.3199673080408, 0.0, 0.0, 0.0, 0.0, -2577.2455426747256, 0.0]
['beep', 0.0, -3560.6552434748705, 0.0, 0.0, 0.0, 0.0, -2576.9996734857173, 0.0]
['beep', 0.0, -3561.1022783639764, 0.0, 0.0, 0.0, 0.0, -2576.5302868521558, 0.0]
['beep', 0.0, -3561.4599062752613, 0.0, 0.0, 0.0, 0.0, -2577.156135696904, 0.0]
['beep', 0.0, -3561.9739963977336, 0.0, 0.0, 0.0, 0.0, -2576.4408798743343, 0.0]
['beep', 0.0, -3561.437554530806, 0.0, 0.0, 0.0, 0.0, -2577.714929308287, 0.0]
['beep', 0.0, -3561.6163684864487, 0.0, 0.0, 0.0, 0.0, -2577.2455426747256, 0.0]
['beep', 0.0, -3562.1975138422868, 0.0, 0.0, 0.0, 0.0, -2578.810164786597, 0.0]
['beep', 0.0, -3563.2256940872307, 0.0, 0.0, 0.0, 0.0, -2578.4748886197676, 0.0]
['beep', 0.0, -3562.443383031295, 0.0, 0.0, 0.0, 0.0, -2577.066728719083, 0.0]
['beep', 0.0, -3563.2256940872307, 0.0, 0.0, 0.0, 0.0, -2576.46323161879, 0.0]
['beep', 0.0, -3564.119763865443, 0.0, 0.0, 0.0, 0.0, -2577.647874074921, 0.0]
['beep', 0.0, -3562.6892522203034, 0.0, 0.0, 0.0, 0.0, -2579.078385720061, 0.0]
['beep', 0.0, -3563.1362871094093, 0.0, 0.0, 0.0, 0.0, -2578.0278537306613, 0.0]
['beep', 0.0, -3563.5609702540605, 0.0, 0.0, 0.0, 0.0, -2577.6255223304656, 0.0]
['beep', 0.0, -3563.0468801315883, 0.0, 0.0, 0.0, 0.0, -2577.1784874413597, 0.0]
['beep', 0.0, -3562.4880865202053, 0.0, 0.0, 0.0, 0.0, -2577.066728719083, 0.0]
['beep', 0.0, -3562.0186998866443, 0.0, 0.0, 0.0, 0.0, -2577.1784874413597, 0.0]
['beep', 0.0, -3563.1362871094093, 0.0, 0.0, 0.0, 0.0, -2578.2513711752144, 0.0]
['beep', 0.0, -3563.7844876986132, 0.0, 0.0, 0.0, 0.0, -2579.078385720061, 0.0]
['beep', 0.0, -3563.7844876986132, 0.0, 0.0, 0.0, 0.0, -2578.094908964027, 0.0]
['beep', 0.0, -3563.851542931979, 0.0, 0.0, 0.0, 0.0, -2577.0890804635383, 0.0]
['beep', 0.0, -3563.605673742971, 0.0, 0.0, 0.0, 0.0, -2576.753804296709, 0.0]
['beep', 0.0, -3563.3151010650517, 0.0, 0.0, 0.0, 0.0, -2577.804336286108, 0.0]
['beep', 0.0, -3564.5220952656387, 0.0, 0.0, 0.0, 0.0, -2578.5866473420438, 0.0]
['beep', 0.0, -3563.806839443069, 0.0, 0.0, 0.0, 0.0, -2578.8548682755077, 0.0]
['beep', 0.0, -3563.0021766426776, 0.0, 0.0, 0.0, 0.0, -2578.430185130857, 0.0]
['beep', 0.0, -3564.343281309996, 0.0, 0.0, 0.0, 0.0, -2578.8325165310525, 0.0]
['beep', 0.0, -3565.1032406214763, 0.0, 0.0, 0.0, 0.0, -2579.3019031646136, 0.0]
['beep', 0.0, -3565.125592365932, 0.0, 0.0, 0.0, 0.0, -2578.65370257541, 0.0]
['beep', 0.0, -3564.9467784102894, 0.0, 0.0, 0.0, 0.0, -2579.5254206091668, 0.0]
['beep', 0.0, -3565.8408481885017, 0.0, 0.0, 0.0, 0.0, -2580.263028176192, 0.0]
['beep', 0.0, -3565.7514412106802, 0.0, 0.0, 0.0, 0.0, -2579.972455498273, 0.0]
['beep', 0.0, -3564.767964454647, 0.0, 0.0, 0.0, 0.0, -2580.911228765396, 0.0]
['beep', 0.0, -3563.6727289763367, 0.0, 0.0, 0.0, 0.0, -2580.8218217875747, 0.0]
['beep', 0.0, -3564.8126679435577, 0.0, 0.0, 0.0, 0.0, -2579.8383450315414, 0.0]
['beep', 0.0, -3563.404508042873, 0.0, 0.0, 0.0, 0.0, -2580.1512694539156, 0.0]
['beep', 0.0, -3564.2985778210855, 0.0, 0.0, 0.0, 0.0, -2578.676054319865, 0.0]
['beep', 0.0, -3565.2373510882085, 0.0, 0.0, 0.0, 0.0, -2579.123089208971, 0.0]
['beep', 0.0, -3564.8126679435577, 0.0, 0.0, 0.0, 0.0, -2579.324254909069, 0.0]
['beep', 0.0, -3564.119763865443, 0.0, 0.0, 0.0, 0.0, -2579.100737464516, 0.0]
['beep', 0.0, -3564.0080051431664, 0.0, 0.0, 0.0, 0.0, -2580.106565965005, 0.0]
['beep', 0.0, -3565.0361853881104, 0.0, 0.0, 0.0, 0.0, -2578.9442752533287, 0.0]
['beep', 0.0, -3565.416165043851, 0.0, 0.0, 0.0, 0.0, -2578.4078333864013, 0.0]
['beep', 0.0, -3566.2655313331525, 0.0, 0.0, 0.0, 0.0, -2579.8383450315414, 0.0]
['beep', 0.0, -3566.6902144778032, 0.0, 0.0, 0.0, 0.0, -2579.100737464516, 0.0]
['beep', 0.0, -3565.9079034218676, 0.0, 0.0, 0.0, 0.0, -2578.519592108678, 0.0]
['beep', 0.0, -3565.3044063215743, 0.0, 0.0, 0.0, 0.0, -2579.2348479312477, 0.0]
['beep', 0.0, -3566.1984760997866, 0.0, 0.0, 0.0, 0.0, -2579.659531075899, 0.0]
['beep', 0.0, -3566.80197320008, 0.0, 0.0, 0.0, 0.0, -2581.000635743217, 0.0]
['beep', 0.0, -3565.3267580660295, 0.0, 0.0, 0.0, 0.0, -2579.011330486695, 0.0]
['beep', 0.0, -3564.6785574768255, 0.0, 0.0, 0.0, 0.0, -2580.2183246872814, 0.0]
['beep', 0.0, -3566.019662144144, 0.0, 0.0, 0.0, 0.0, -2580.486545620745, 0.0]
['beep', 0.0, -3566.377290055429, 0.0, 0.0, 0.0, 0.0, -2578.9442752533287, 0.0]
['beep', 0.0, -3566.153772610876, 0.0, 0.0, 0.0, 0.0, -2579.6371793314433, 0.0]
['beep', 0.0, -3564.544447010094, 0.0, 0.0, 0.0, 0.0, -2580.4641938762898, 0.0]
['beep', 0.0, -3565.1032406214763, 0.0, 0.0, 0.0, 0.0, -2579.1454409534267, 0.0]
['beep', 0.0, -3563.851542931979, 0.0, 0.0, 0.0, 0.0, -2580.106565965005, 0.0]
['beep', 0.0, -3563.5833219985157, 0.0, 0.0, 0.0, 0.0, -2581.3135601655913, 0.0]
['beep', 0.0, -3565.438516788306, 0.0, 0.0, 0.0, 0.0, -2580.687711320843, 0.0]
['beep', 0.0, -3565.572627255038, 0.0, 0.0, 0.0, 0.0, -2578.094908964027, 0.0]
['beep', 0.0, -3564.6338539879152, 0.0, 0.0, 0.0, 0.0, -2578.765461297686, 0.0]
['beep', 0.0, -3564.052708632077, 0.0, 0.0, 0.0, 0.0, -2578.8548682755077, 0.0]
['beep', 0.0, -3564.767964454647, 0.0, 0.0, 0.0, 0.0, -2579.8606967759965, 0.0]
['beep', 0.0, -3565.483220277217, 0.0, 0.0, 0.0, 0.0, -2580.0842142205497, 0.0]
['beep', 0.0, -3565.572627255038, 0.0, 0.0, 0.0, 0.0, -2580.4418421318346, 0.0]
['beep', 0.0, -3565.2820545771187, 0.0, 0.0, 0.0, 0.0, -2579.36895839798, 0.0]
['beep', 0.0, -3564.9020749213787, 0.0, 0.0, 0.0, 0.0, -2578.8548682755077, 0.0]
['beep', 0.0, -3565.349109810485, 0.0, 0.0, 0.0, 0.0, -2578.1172607084827, 0.0]
['beep', 0.0, -3566.310234822063, 0.0, 0.0, 0.0, 0.0, -2578.765461297686, 0.0]
['beep', 0.0, -3565.147944110387, 0.0, 0.0, 0.0, 0.0, -2579.5477723536223, 0.0]
['beep', 0.0, -3565.147944110387, 0.0, 0.0, 0.0, 0.0, -2578.676054319865, 0.0]
['beep', 0.0, -3564.119763865443, 0.0, 0.0, 0.0, 0.0, -2579.4360136313458, 0.0]
['beep', 0.0, -3565.0361853881104, 0.0, 0.0, 0.0, 0.0, -2579.41366188689, 0.0]
['beep', 0.0, -3565.0361853881104, 0.0, 0.0, 0.0, 0.0, -2579.41366188689, 0.0]
['beep', 0.0, -3563.806839443069, 0.0, 0.0, 0.0, 0.0, -2580.12891770946, 0.0]
['beep', 0.0, -3564.2315225877196, 0.0, 0.0, 0.0, 0.0, -2580.039510731639, 0.0]
['beep', 0.0, -3563.9185981653454, 0.0, 0.0, 0.0, 0.0, -2578.743109553231, 0.0]
['beep', 0.0, -3564.857371432468, 0.0, 0.0, 0.0, 0.0, -2578.0278537306613, 0.0]
['beep', 0.0, -3565.70673772177, 0.0, 0.0, 0.0, 0.0, -2578.743109553231, 0.0]
['beep', 0.0, -3565.080888877021, 0.0, 0.0, 0.0, 0.0, -2579.1454409534267, 0.0]
['beep', 0.0, -3563.493915020694, 0.0, 0.0, 0.0, 0.0, -2578.765461297686, 0.0]
['beep', 0.0, -3563.471563276239, 0.0, 0.0, 0.0, 0.0, -2579.2348479312477, 0.0]
['beep', 0.0, -3563.024528387133, 0.0, 0.0, 0.0, 0.0, -2578.519592108678, 0.0]
['beep', 0.0, -3564.3656330544513, 0.0, 0.0, 0.0, 0.0, -2578.9666269977843, 0.0]
['beep', 0.0, -3563.3598045539625, 0.0, 0.0, 0.0, 0.0, -2577.6255223304656, 0.0]
['beep', 0.0, -3564.119763865443, 0.0, 0.0, 0.0, 0.0, -2576.4408798743343, 0.0]
['beep', 0.0, -3563.7174324652474, 0.0, 0.0, 0.0, 0.0, -2577.871391519474, 0.0]
['beep', 0.0, -3563.449211531784, 0.0, 0.0, 0.0, 0.0, -2579.2124961867926, 0.0]
['beep', 0.0, -3563.0692318760434, 0.0, 0.0, 0.0, 0.0, -2578.5419438531335, 0.0]
['beep', 0.0, -3563.6727289763367, 0.0, 0.0, 0.0, 0.0, -2577.9160950083847, 0.0]
['beep', 0.0, -3562.577493498027, 0.0, 0.0, 0.0, 0.0, -2577.2231909302704, 0.0]
['beep', 0.0, -3563.024528387133, 0.0, 0.0, 0.0, 0.0, -2577.2231909302704, 0.0]
['beep', 0.0, -3563.382156298418, 0.0, 0.0, 0.0, 0.0, -2578.9219235088735, 0.0]
['beep', 0.0, -3562.6669004758483, 0.0, 0.0, 0.0, 0.0, -2578.5866473420438, 0.0]
['beep', 0.0, -3563.471563276239, 0.0, 0.0, 0.0, 0.0, -2578.1172607084827, 0.0]
['beep', 0.0, -3562.9127696648566, 0.0, 0.0, 0.0, 0.0, -2579.100737464516, 0.0]
['beep', 0.0, -3560.901112663879, 0.0, 0.0, 0.0, 0.0, -2578.6984060643204, 0.0]
['beep', 0.0, -3562.6892522203034, 0.0, 0.0, 0.0, 0.0, -2578.9442752533287, 0.0]
['beep', 0.0, -3564.0080051431664, 0.0, 0.0, 0.0, 0.0, -2577.9607984972954, 0.0]
['beep', 0.0, -3563.2927493205966, 0.0, 0.0, 0.0, 0.0, -2576.709100807798, 0.0]
['beep', 0.0, -3563.6280254874264, 0.0, 0.0, 0.0, 0.0, -2577.446708374823, 0.0]
['beep', 0.0, -3564.1644673543537, 0.0, 0.0, 0.0, 0.0, -2577.759632797198, 0.0]
['beep', 0.0, -3564.9467784102894, 0.0, 0.0, 0.0, 0.0, -2577.357301397002, 0.0]
['beep', 0.0, -3564.410336543362, 0.0, 0.0, 0.0, 0.0, -2578.1172607084827, 0.0]
['beep', 0.0, -3564.857371432468, 0.0, 0.0, 0.0, 0.0, -2576.910266507896, 0.0]
['beep', 0.0, -3564.790316199102, 0.0, 0.0, 0.0, 0.0, -2575.8597345184967, 0.0]
['beep', 0.0, -3562.733955709214, 0.0, 0.0, 0.0, 0.0, -2577.357301397002, 0.0]
['beep', 0.0, -3563.3374528095073, 0.0, 0.0, 0.0, 0.0, -2577.424356630368, 0.0]
['beep', 0.0, -3565.70673772177, 0.0, 0.0, 0.0, 0.0, -2577.5361153526446, 0.0]
['beep', 0.0, -3564.700909221281, 0.0, 0.0, 0.0, 0.0, -2578.4078333864013, 0.0]
['beep', 0.0, -3564.700909221281, 0.0, 0.0, 0.0, 0.0, -2577.9831502417505, 0.0]
['beep', 0.0, -3565.080888877021, 0.0, 0.0, 0.0, 0.0, -2576.262065918692, 0.0]
['beep', 0.0, -3565.572627255038, 0.0, 0.0, 0.0, 0.0, -2576.418528129879, 0.0]
['beep', 0.0, -3565.572627255038, 0.0, 0.0, 0.0, 0.0, -2577.156135696904, 0.0]
['beep', 0.0, -3565.863199932957, 0.0, 0.0, 0.0, 0.0, -2577.402004885913, 0.0]
['beep', 0.0, -3564.8126679435577, 0.0, 0.0, 0.0, 0.0, -2577.849039775019, 0.0]
['beep', 0.0, -3564.6338539879152, 0.0, 0.0, 0.0, 0.0, -2577.3125979080914, 0.0]
['beep', 0.0, -3566.019662144144, 0.0, 0.0, 0.0, 0.0, -2577.9831502417505, 0.0]
['beep', 0.0, -3565.214999343753, 0.0, 0.0, 0.0, 0.0, -2580.0842142205497, 0.0]
['beep', 0.0, -3565.9079034218676, 0.0, 0.0, 0.0, 0.0, -2580.0842142205497, 0.0]
['beep', 0.0, -3565.505572021672, 0.0, 0.0, 0.0, 0.0, -2578.072557219572, 0.0]
['beep', 0.0, -3565.416165043851, 0.0, 0.0, 0.0, 0.0, -2579.100737464516, 0.0]
['beep', 0.0, -3565.70673772177, 0.0, 0.0, 0.0, 0.0, -2579.100737464516, 0.0]
['beep', 0.0, -3566.1314208664207, 0.0, 0.0, 0.0, 0.0, -2580.6653595763873, 0.0]
['beep', 0.0, -3566.2208278442417, 0.0, 0.0, 0.0, 0.0, -2580.419490387379, 0.0]
['beep', 0.0, -3565.1032406214763, 0.0, 0.0, 0.0, 0.0, -2579.8383450315414, 0.0]
['beep', 0.0, -3565.1926475992977, 0.0, 0.0, 0.0, 0.0, -2579.5701240980775, 0.0]
['beep', 0.0, -3564.2762260766303, 0.0, 0.0, 0.0, 0.0, -2579.9054002649073, 0.0]
['beep', 0.0, -3565.125592365932, 0.0, 0.0, 0.0, 0.0, -2580.553600854111, 0.0]
['beep', 0.0, -3565.483220277217, 0.0, 0.0, 0.0, 0.0, -2578.8325165310525, 0.0]
['beep', 0.0, -3564.2985778210855, 0.0, 0.0, 0.0, 0.0, -2578.2066676863037, 0.0]
['beep', 0.0, -3565.2373510882085, 0.0, 0.0, 0.0, 0.0, -2578.676054319865, 0.0]
['beep', 0.0, -3565.818496444046, 0.0, 0.0, 0.0, 0.0, -2580.2853799206473, 0.0]
['beep', 0.0, -3566.42199354434, 0.0, 0.0, 0.0, 0.0, -2580.84417353203, 0.0]
['beep', 0.0, -3566.8690284334457, 0.0, 0.0, 0.0, 0.0, -2579.4360136313458, 0.0]
['beep', 0.0, -3566.444345288795, 0.0, 0.0, 0.0, 0.0, -2579.458365375801, 0.0]
['beep', 0.0, -3566.8913801779013, 0.0, 0.0, 0.0, 0.0, -2580.039510731639, 0.0]
['beep', 0.0, -3565.9749586552334, 0.0, 0.0, 0.0, 0.0, -2578.161964197393, 0.0]
['beep', 0.0, -3565.6396824884037, 0.0, 0.0, 0.0, 0.0, -2579.5254206091668, 0.0]
['beep', 0.0, -3566.019662144144, 0.0, 0.0, 0.0, 0.0, -2578.787813042142, 0.0]
['beep', 0.0, -3564.790316199102, 0.0, 0.0, 0.0, 0.0, -2578.4078333864013, 0.0]
['beep', 0.0, -3563.7844876986132, 0.0, 0.0, 0.0, 0.0, -2579.5254206091668, 0.0]
['beep', 0.0, -3565.3267580660295, 0.0, 0.0, 0.0, 0.0, -2579.614827586988, 0.0]
['beep', 0.0, -3566.153772610876, 0.0, 0.0, 0.0, 0.0, -2580.9335805098513, 0.0]
['beep', 0.0, -3565.3044063215743, 0.0, 0.0, 0.0, 0.0, -2579.8830485204517, 0.0]
['beep', 0.0, -3565.7514412106802, 0.0, 0.0, 0.0, 0.0, -2577.9160950083847, 0.0]
['beep', 0.0, -3566.3325865665183, 0.0, 0.0, 0.0, 0.0, -2578.0278537306613, 0.0]
['beep', 0.0, -3566.6008074999822, 0.0, 0.0, 0.0, 0.0, -2580.8218217875747, 0.0]
['beep', 0.0, -3567.4948772781945, 0.0, 0.0, 0.0, 0.0, -2581.000635743217, 0.0]
['beep', 0.0, -3566.46669703325, 0.0, 0.0, 0.0, 0.0, -2580.5088973652005, 0.0]
['beep', 0.0, -3565.729089466225, 0.0, 0.0, 0.0, 0.0, -2580.039510731639, 0.0]
['beep', 0.0, -3565.505572021672, 0.0, 0.0, 0.0, 0.0, -2581.291208421136, 0.0]
['beep', 0.0, -3563.6727289763367, 0.0, 0.0, 0.0, 0.0, -2581.0900427210386, 0.0]
['beep', 0.0, -3561.7281272087253, 0.0, 0.0, 0.0, 0.0, -2578.139612452938, 0.0]
['beep', 0.0, -3560.5211330081383, 0.0, 0.0, 0.0, 0.0, -2577.2455426747256, 0.0]
['beep', 0.0, -3560.342319052496, 0.0, 0.0, 0.0, 0.0, -2577.759632797198, 0.0]
['beep', 0.0, -3561.884589419912, 0.0, 0.0, 0.0, 0.0, -2579.2124961867926, 0.0]
['beep', 0.0, -3564.410336543362, 0.0, 0.0, 0.0, 0.0, -2578.519592108678, 0.0]
['beep', 0.0, -3565.3044063215743, 0.0, 0.0, 0.0, 0.0, -2579.03368223115, 0.0]
['beep', 0.0, -3564.8126679435577, 0.0, 0.0, 0.0, 0.0, -2579.078385720061, 0.0]
['beep', 0.0, -3564.9020749213787, 0.0, 0.0, 0.0, 0.0, -2579.5254206091668, 0.0]
['beep', 0.0, -3565.2373510882085, 0.0, 0.0, 0.0, 0.0, -2578.363129897491, 0.0]
['beep', 0.0, -3566.2655313331525, 0.0, 0.0, 0.0, 0.0, -2578.743109553231, 0.0]
['beep', 0.0, -3567.025490644633, 0.0, 0.0, 0.0, 0.0, -2580.8665252764854, 0.0]
['beep', 0.0, -3565.818496444046, 0.0, 0.0, 0.0, 0.0, -2580.0842142205497, 0.0]
['beep', 0.0, -3564.499743521183, 0.0, 0.0, 0.0, 0.0, -2580.4641938762898, 0.0]
['beep', 0.0, -3565.1926475992977, 0.0, 0.0, 0.0, 0.0, -2579.3019031646136, 0.0]
['beep', 0.0, -3564.5220952656387, 0.0, 0.0, 0.0, 0.0, -2578.787813042142, 0.0]
['beep', 0.0, -3563.9185981653454, 0.0, 0.0, 0.0, 0.0, -2579.5254206091668, 0.0]
['beep', 0.0, -3564.700909221281, 0.0, 0.0, 0.0, 0.0, -2579.9277520093624, 0.0]
['beep', 0.0, -3563.739784209703, 0.0, 0.0, 0.0, 0.0, -2579.726586309265, 0.0]
['beep', 0.0, -3563.248045831686, 0.0, 0.0, 0.0, 0.0, -2580.1512694539156, 0.0]
['beep', 0.0, -3563.3151010650517, 0.0, 0.0, 0.0, 0.0, -2579.2571996757033, 0.0]
['beep', 0.0, -3563.739784209703, 0.0, 0.0, 0.0, 0.0, -2579.123089208971, 0.0]
['beep', 0.0, -3563.6280254874264, 0.0, 0.0, 0.0, 0.0, -2579.815993287086, 0.0]
['beep', 0.0, -3562.4880865202053, 0.0, 0.0, 0.0, 0.0, -2579.0560339756053, 0.0]
['beep', 0.0, -3562.175162097831, 0.0, 0.0, 0.0, 0.0, -2577.849039775019, 0.0]
['beep', 0.0, -3562.7786591981244, 0.0, 0.0, 0.0, 0.0, -2579.167792697882, 0.0]
['beep', 0.0, -3563.7174324652474, 0.0, 0.0, 0.0, 0.0, -2578.65370257541, 0.0]
['beep', 0.0, -3564.5891504990045, 0.0, 0.0, 0.0, 0.0, -2577.2455426747256, 0.0]
['beep', 0.0, -3563.2927493205966, 0.0, 0.0, 0.0, 0.0, -2579.815993287086, 0.0]
['beep', 0.0, -3563.9633016542557, 0.0, 0.0, 0.0, 0.0, -2579.2124961867926, 0.0]
['beep', 0.0, -3564.2315225877196, 0.0, 0.0, 0.0, 0.0, -2578.4972403642228, 0.0]
['beep', 0.0, -3564.410336543362, 0.0, 0.0, 0.0, 0.0, -2578.810164786597, 0.0]
['beep', 0.0, -3564.544447010094, 0.0, 0.0, 0.0, 0.0, -2578.8548682755077, 0.0]
['beep', 0.0, -3564.3209295655406, 0.0, 0.0, 0.0, 0.0, -2577.759632797198, 0.0]
['beep', 0.0, -3563.8738946764347, 0.0, 0.0, 0.0, 0.0, -2577.9607984972954, 0.0]
['beep', 0.0, -3564.0750603765323, 0.0, 0.0, 0.0, 0.0, -2578.9219235088735, 0.0]
['beep', 0.0, -3564.052708632077, 0.0, 0.0, 0.0, 0.0, -2579.8606967759965, 0.0]
['beep', 0.0, -3564.186819098809, 0.0, 0.0, 0.0, 0.0, -2579.324254909069, 0.0]
['beep', 0.0, -3563.9185981653454, 0.0, 0.0, 0.0, 0.0, -2578.1843159418486, 0.0]
['beep', 0.0, -3564.3879847989065, 0.0, 0.0, 0.0, 0.0, -2578.139612452938, 0.0]
['beep', 0.0, -3564.2538743321747, 0.0, 0.0, 0.0, 0.0, -2578.4748886197676, 0.0]
['beep', 0.0, -3564.767964454647, 0.0, 0.0, 0.0, 0.0, -2580.419490387379, 0.0]
['beep', 0.0, -3565.796144699591, 0.0, 0.0, 0.0, 0.0, -2580.620656087477, 0.0]
['beep', 0.0, -3565.0361853881104, 0.0, 0.0, 0.0, 0.0, -2580.263028176192, 0.0]
['beep', 0.0, -3565.6396824884037, 0.0, 0.0, 0.0, 0.0, -2579.100737464516, 0.0]
['beep', 0.0, -3566.399641799884, 0.0, 0.0, 0.0, 0.0, -2578.0278537306613, 0.0]
['beep', 0.0, -3565.773792955136, 0.0, 0.0, 0.0, 0.0, -2577.849039775019, 0.0]
['beep', 0.0, -3565.416165043851, 0.0, 0.0, 0.0, 0.0, -2578.877220019963, 0.0]
['beep', 0.0, -3565.349109810485, 0.0, 0.0, 0.0, 0.0, -2579.1901444423374, 0.0]
['beep', 0.0, -3565.1702958548426, 0.0, 0.0, 0.0, 0.0, -2578.4972403642228, 0.0]
['beep', 0.0, -3565.1702958548426, 0.0, 0.0, 0.0, 0.0, -2577.9607984972954, 0.0]
['beep', 0.0, -3565.818496444046, 0.0, 0.0, 0.0, 0.0, -2578.877220019963, 0.0]
['beep', 0.0, -3564.857371432468, 0.0, 0.0, 0.0, 0.0, -2579.5701240980775, 0.0]
['beep', 0.0, -3563.6503772318815, 0.0, 0.0, 0.0, 0.0, -2578.2513711752144, 0.0]
['beep', 0.0, -3564.2985778210855, 0.0, 0.0, 0.0, 0.0, -2576.5749903410665, 0.0]
['beep', 0.0, -3565.147944110387, 0.0, 0.0, 0.0, 0.0, -2576.798507785619, 0.0]
['beep', 0.0, -3564.544447010094, 0.0, 0.0, 0.0, 0.0, -2578.743109553231, 0.0]
['beep', 0.0, -3564.7232609657362, 0.0, 0.0, 0.0, 0.0, -2579.1454409534267, 0.0]
['beep', 0.0, -3563.5609702540605, 0.0, 0.0, 0.0, 0.0, -2578.9666269977843, 0.0]
['beep', 0.0, -3562.4880865202053, 0.0, 0.0, 0.0, 0.0, -2578.2513711752144, 0.0]
['beep', 0.0, -3563.158638853865, 0.0, 0.0, 0.0, 0.0, -2576.798507785619, 0.0]
['beep', 0.0, -3563.1362871094093, 0.0, 0.0, 0.0, 0.0, -2578.430185130857, 0.0]
['beep', 0.0, -3563.449211531784, 0.0, 0.0, 0.0, 0.0, -2579.3019031646136, 0.0]
['beep', 0.0, -3562.890417920401, 0.0, 0.0, 0.0, 0.0, -2578.229019430759, 0.0]
['beep', 0.0, -3562.890417920401, 0.0, 0.0, 0.0, 0.0, -2578.4078333864013, 0.0]
['beep', 0.0, -3563.7844876986132, 0.0, 0.0, 0.0, 0.0, -2578.0278537306613, 0.0]
['beep', 0.0, -3564.2538743321747, 0.0, 0.0, 0.0, 0.0, -2577.0220252301724, 0.0]
['beep', 0.0, -3563.2033423427756, 0.0, 0.0, 0.0, 0.0, -2577.3796531414573, 0.0]
['beep', 0.0, -3563.471563276239, 0.0, 0.0, 0.0, 0.0, -2577.5808188415554, 0.0]
['beep', 0.0, -3564.209170843264, 0.0, 0.0, 0.0, 0.0, -2578.676054319865, 0.0]
['beep', 0.0, -3563.4268597873283, 0.0, 0.0, 0.0, 0.0, -2578.9889787422394, 0.0]
['beep', 0.0, -3563.9633016542557, 0.0, 0.0, 0.0, 0.0, -2577.513763608189, 0.0]
['beep', 0.0, -3564.097412120988, 0.0, 0.0, 0.0, 0.0, -2578.2737229196696, 0.0]
['beep', 0.0, -3563.248045831686, 0.0, 0.0, 0.0, 0.0, -2577.8937432639295, 0.0]
['beep', 0.0, -3563.5609702540605, 0.0, 0.0, 0.0, 0.0, -2578.2066676863037, 0.0]
['beep', 0.0, -3565.5279237661275, 0.0, 0.0, 0.0, 0.0, -2577.6255223304656, 0.0]
['beep', 0.0, -3565.1032406214763, 0.0, 0.0, 0.0, 0.0, -2577.491411863734, 0.0]
['beep', 0.0, -3564.924426665834, 0.0, 0.0, 0.0, 0.0, -2578.452536875312, 0.0]
['beep', 0.0, -3565.6620342328592, 0.0, 0.0, 0.0, 0.0, -2579.2795514201584, 0.0]
['beep', 0.0, -3565.483220277217, 0.0, 0.0, 0.0, 0.0, -2578.743109553231, 0.0]
['beep', 0.0, -3565.080888877021, 0.0, 0.0, 0.0, 0.0, -2579.5924758425326, 0.0]
['beep', 0.0, -3567.249008089186, 0.0, 0.0, 0.0, 0.0, -2578.9666269977843, 0.0]
['beep', 0.0, -3566.734917966714, 0.0, 0.0, 0.0, 0.0, -2578.229019430759, 0.0]
['beep', 0.0, -3566.824324944535, 0.0, 0.0, 0.0, 0.0, -2578.363129897491, 0.0]
['beep', 0.0, -3566.019662144144, 0.0, 0.0, 0.0, 0.0, -2578.5419438531335, 0.0]
['beep', 0.0, -3565.818496444046, 0.0, 0.0, 0.0, 0.0, -2578.5419438531335, 0.0]
['beep', 0.0, -3566.0420138885993, 0.0, 0.0, 0.0, 0.0, -2578.765461297686, 0.0]
['beep', 0.0, -3566.6902144778032, 0.0, 0.0, 0.0, 0.0, -2577.781984541653, 0.0]
['beep', 0.0, -3564.2762260766303, 0.0, 0.0, 0.0, 0.0, -2577.0890804635383, 0.0]
['beep', 0.0, -3564.544447010094, 0.0, 0.0, 0.0, 0.0, -2577.0220252301724, 0.0]
['beep', 0.0, -3566.2655313331525, 0.0, 0.0, 0.0, 0.0, -2579.5254206091668, 0.0]
['beep', 0.0, -3566.6008074999822, 0.0, 0.0, 0.0, 0.0, -2578.5866473420438, 0.0]
['beep', 0.0, -3567.047842389088, 0.0, 0.0, 0.0, 0.0, -2577.5808188415554, 0.0]
['beep', 0.0, -3566.3549383109735, 0.0, 0.0, 0.0, 0.0, -2577.5361153526446, 0.0]
['beep', 0.0, -3565.483220277217, 0.0, 0.0, 0.0, 0.0, -2576.7314525522534, 0.0]
['beep', 0.0, -3565.5279237661275, 0.0, 0.0, 0.0, 0.0, -2577.714929308287, 0.0]
['beep', 0.0, -3565.7514412106802, 0.0, 0.0, 0.0, 0.0, -2578.094908964027, 0.0]
['beep', 0.0, -3565.3938132993953, 0.0, 0.0, 0.0, 0.0, -2578.8548682755077, 0.0]
['beep', 0.0, -3566.2431795886973, 0.0, 0.0, 0.0, 0.0, -2577.871391519474, 0.0]
['beep', 0.0, -3565.7514412106802, 0.0, 0.0, 0.0, 0.0, -2577.066728719083, 0.0]
['beep', 0.0, -3566.1314208664207, 0.0, 0.0, 0.0, 0.0, -2578.385481641946, 0.0]
['beep', 0.0, -3567.2713598336413, 0.0, 0.0, 0.0, 0.0, -2578.430185130857, 0.0]
['beep', 0.0, -3565.818496444046, 0.0, 0.0, 0.0, 0.0, -2577.3349496525466, 0.0]
['beep', 0.0, -3565.6396824884037, 0.0, 0.0, 0.0, 0.0, -2576.46323161879, 0.0]
['beep', 0.0, -3566.3549383109735, 0.0, 0.0, 0.0, 0.0, -2576.6643973188875, 0.0]
['beep', 0.0, -3566.80197320008, 0.0, 0.0, 0.0, 0.0, -2576.9326182523514, 0.0]
['beep', 0.0, -3567.5619325115604, 0.0, 0.0, 0.0, 0.0, -2576.2844176631475, 0.0]
['beep', 0.0, -3567.1372493669096, 0.0, 0.0, 0.0, 0.0, -2576.12795545196, 0.0]
['beep', 0.0, -3566.8690284334457, 0.0, 0.0, 0.0, 0.0, -2576.6196938299768, 0.0]
['beep', 0.0, -3565.9302551663227, 0.0, 0.0, 0.0, 0.0, -2576.6420455744324, 0.0]
['beep', 0.0, -3565.460868532761, 0.0, 0.0, 0.0, 0.0, -2577.2902461636363, 0.0]
['beep', 0.0, -3565.9302551663227, 0.0, 0.0, 0.0, 0.0, -2576.753804296709, 0.0]
['beep', 0.0, -3566.2431795886973, 0.0, 0.0, 0.0, 0.0, -2575.166830440382, 0.0]
['beep', 0.0, -3565.9302551663227, 0.0, 0.0, 0.0, 0.0, -2574.7197955512756, 0.0]
['beep', 0.0, -3566.0420138885993, 0.0, 0.0, 0.0, 0.0, -2574.7197955512756, 0.0]
['beep', 0.0, -3565.0138336436553, 0.0, 0.0, 0.0, 0.0, -2574.563333340089, 0.0]
['beep', 0.0, -3564.9020749213787, 0.0, 0.0, 0.0, 0.0, -2575.6362170739435, 0.0]
['beep', 0.0, -3565.5949789994934, 0.0, 0.0, 0.0, 0.0, -2575.524458351667, 0.0]
['beep', 0.0, -3564.5891504990045, 0.0, 0.0, 0.0, 0.0, -2575.792679285131, 0.0]
['beep', 0.0, -3564.544447010094, 0.0, 0.0, 0.0, 0.0, -2576.9549699968065, 0.0]
['beep', 0.0, -3563.89624642089, 0.0, 0.0, 0.0, 0.0, -2577.9607984972954, 0.0]
['beep', 0.0, -3564.9020749213787, 0.0, 0.0, 0.0, 0.0, -2575.3456443960245, 0.0]
['beep', 0.0, -3564.432688287817, 0.0, 0.0, 0.0, 0.0, -2574.295112406625, 0.0]
['beep', 0.0, -3564.477391776728, 0.0, 0.0, 0.0, 0.0, -2574.518629851178, 0.0]
['beep', 0.0, -3564.3656330544513, 0.0, 0.0, 0.0, 0.0, -2574.295112406625, 0.0]
['beep', 0.0, -3564.142115609898, 0.0, 0.0, 0.0, 0.0, -2576.3738246409685, 0.0]
['beep', 0.0, -3566.1984760997866, 0.0, 0.0, 0.0, 0.0, -2575.770327540675, 0.0]
['beep', 0.0, -3565.9749586552334, 0.0, 0.0, 0.0, 0.0, -2575.5021066072118, 0.0]
['beep', 0.0, -3564.9914818992, 0.0, 0.0, 0.0, 0.0, -2575.0327199736503, 0.0]
['beep', 0.0, -3564.209170843264, 0.0, 0.0, 0.0, 0.0, -2575.2785891626586, 0.0]
['beep', 0.0, -3565.6396824884037, 0.0, 0.0, 0.0, 0.0, -2574.8315542735522, 0.0]
['beep', 0.0, -3565.5502755105827, 0.0, 0.0, 0.0, 0.0, -2574.7644990401864, 0.0]
['beep', 0.0, -3565.863199932957, 0.0, 0.0, 0.0, 0.0, -2575.0103682291947, 0.0]
['beep', 0.0, -3565.818496444046, 0.0, 0.0, 0.0, 0.0, -2574.9880164847395, 0.0]
['beep', 0.0, -3565.1926475992977, 0.0, 0.0, 0.0, 0.0, -2575.0103682291947, 0.0]
['beep', 0.0, -3564.700909221281, 0.0, 0.0, 0.0, 0.0, -2576.12795545196, 0.0]
['beep', 0.0, -3565.6173307439485, 0.0, 0.0, 0.0, 0.0, -2575.9714932407733, 0.0]
['beep', 0.0, -3566.757269711169, 0.0, 0.0, 0.0, 0.0, -2574.7421472957312, 0.0]
['beep', 0.0, -3566.310234822063, 0.0, 0.0, 0.0, 0.0, -2575.2115339292927, 0.0]
['beep', 0.0, -3566.712566222259, 0.0, 0.0, 0.0, 0.0, -2574.9656647402844, 0.0]
['beep', 0.0, -3565.8408481885017, 0.0, 0.0, 0.0, 0.0, -2574.943312995829, 0.0]
['beep', 0.0, -3566.2655313331525, 0.0, 0.0, 0.0, 0.0, -2577.446708374823, 0.0]
['beep', 0.0, -3566.3549383109735, 0.0, 0.0, 0.0, 0.0, -2576.7314525522534, 0.0]
['beep', 0.0, -3566.3549383109735, 0.0, 0.0, 0.0, 0.0, -2574.8315542735522, 0.0]
['beep', 0.0, -3565.6396824884037, 0.0, 0.0, 0.0, 0.0, -2575.5021066072118, 0.0]
['beep', 0.0, -3565.9079034218676, 0.0, 0.0, 0.0, 0.0, -2575.770327540675, 0.0]
['beep', 0.0, -3566.176124355331, 0.0, 0.0, 0.0, 0.0, -2575.904438007407, 0.0]
['beep', 0.0, -3565.9526069107783, 0.0, 0.0, 0.0, 0.0, -2575.9491414963177, 0.0]
['beep', 0.0, -3565.7514412106802, 0.0, 0.0, 0.0, 0.0, -2576.2844176631475, 0.0]
['beep', 0.0, -3565.572627255038, 0.0, 0.0, 0.0, 0.0, -2575.9267897518625, 0.0]
['beep', 0.0, -3566.153772610876, 0.0, 0.0, 0.0, 0.0, -2574.228057173259, 0.0]
['beep', 0.0, -3566.4890487777056, 0.0, 0.0, 0.0, 0.0, -2573.4457461173233, 0.0]
['beep', 0.0, -3565.818496444046, 0.0, 0.0, 0.0, 0.0, -2575.0774234625605, 0.0]
['beep', 0.0, -3566.2655313331525, 0.0, 0.0, 0.0, 0.0, -2574.809202529097, 0.0]
['beep', 0.0, -3566.0420138885993, 0.0, 0.0, 0.0, 0.0, -2575.3456443960245, 0.0]
['beep', 0.0, -3565.2373510882085, 0.0, 0.0, 0.0, 0.0, -2576.1503071964157, 0.0]
['beep', 0.0, -3566.377290055429, 0.0, 0.0, 0.0, 0.0, -2576.0161967296835, 0.0]
['beep', 0.0, -3566.4890487777056, 0.0, 0.0, 0.0, 0.0, -2575.6138653294884, 0.0]
['beep', 0.0, -3565.2820545771187, 0.0, 0.0, 0.0, 0.0, -2574.9656647402844, 0.0]
['beep', 0.0, -3564.566798754549, 0.0, 0.0, 0.0, 0.0, -2575.904438007407, 0.0]
['beep', 0.0, -3564.9914818992, 0.0, 0.0, 0.0, 0.0, -2574.9656647402844, 0.0]
['beep', 0.0, -3566.9360836668116, 0.0, 0.0, 0.0, 0.0, -2575.815031029586, 0.0]
['beep', 0.0, -3568.2995400785853, 0.0, 0.0, 0.0, 0.0, -2575.0550717181054, 0.0]
['beep', 0.0, -3567.472525533739, 0.0, 0.0, 0.0, 0.0, -2573.93748449534, 0.0]
['beep', 0.0, -3567.3607668114623, 0.0, 0.0, 0.0, 0.0, -2574.65274031791, 0.0]
['beep', 0.0, -3567.8525051894794, 0.0, 0.0, 0.0, 0.0, -2575.9267897518625, 0.0]
['beep', 0.0, -3566.958435411267, 0.0, 0.0, 0.0, 0.0, -2575.7256240517645, 0.0]
['beep', 0.0, -3568.053670889577, 0.0, 0.0, 0.0, 0.0, -2575.233885673748, 0.0]
['beep', 0.0, -3568.076022634032, 0.0, 0.0, 0.0, 0.0, -2574.518629851178, 0.0]
['beep', 0.0, -3567.383118555918, 0.0, 0.0, 0.0, 0.0, -2574.9656647402844, 0.0]
['beep', 0.0, -3568.1430778673985, 0.0, 0.0, 0.0, 0.0, -2576.6196938299768, 0.0]
['beep', 0.0, -3569.305368579074, 0.0, 0.0, 0.0, 0.0, -2576.195010685326, 0.0]
['beep', 0.0, -3568.5007057786834, 0.0, 0.0, 0.0, 0.0, -2574.4068711289015, 0.0]
['beep', 0.0, -3567.316063322552, 0.0, 0.0, 0.0, 0.0, -2574.6750920623654, 0.0]
['beep', 0.0, -3567.606636000471, 0.0, 0.0, 0.0, 0.0, -2575.166830440382, 0.0]
['beep', 0.0, -3568.5454092675936, 0.0, 0.0, 0.0, 0.0, -2574.6080368289995, 0.0]
['beep', 0.0, -3569.953569168278, 0.0, 0.0, 0.0, 0.0, -2575.3456443960245, 0.0]
['beep', 0.0, -3570.959397668767, 0.0, 0.0, 0.0, 0.0, -2575.74797579622, 0.0]
['beep', 0.0, -3565.70673772177, 0.0, 0.0, 0.0, 0.0, -2573.17752518386, 0.0]
['beep', 0.0, -3561.7281272087253, 0.0, 0.0, 0.0, 0.0, -2571.9258274943627, 0.0]
['beep', 0.0, -3565.1926475992977, 0.0, 0.0, 0.0, 0.0, -2572.9540077393067, 0.0]
['beep', 0.0, -3565.416165043851, 0.0, 0.0, 0.0, 0.0, -2574.3845193844463, 0.0]
['beep', 0.0, -3566.8466766889906, 0.0, 0.0, 0.0, 0.0, -2572.484621105745, 0.0]
['beep', 0.0, -3566.08671737751, 0.0, 0.0, 0.0, 0.0, -2572.7304902947535, 0.0]
['beep', 0.0, -3565.1926475992977, 0.0, 0.0, 0.0, 0.0, -2573.7363187952424, 0.0]
['beep', 0.0, -3565.70673772177, 0.0, 0.0, 0.0, 0.0, -2571.7917170276305, 0.0]
['beep', 0.0, -3565.7514412106802, 0.0, 0.0, 0.0, 0.0, -2572.3505106390135, 0.0]
['beep', 0.0, -3566.310234822063, 0.0, 0.0, 0.0, 0.0, -2573.0657664615833, 0.0]
['beep', 0.0, -3564.8126679435577, 0.0, 0.0, 0.0, 0.0, -2572.819897272575, 0.0]
['beep', 0.0, -3564.6562057323704, 0.0, 0.0, 0.0, 0.0, -2573.8927810064297, 0.0]
['beep', 0.0, -3565.6396824884037, 0.0, 0.0, 0.0, 0.0, -2574.004539728706, 0.0]
['beep', 0.0, -3566.153772610876, 0.0, 0.0, 0.0, 0.0, -2574.429222873357, 0.0]
['beep', 0.0, -3566.2431795886973, 0.0, 0.0, 0.0, 0.0, -2574.1833536843483, 0.0]
['beep', 0.0, -3566.3549383109735, 0.0, 0.0, 0.0, 0.0, -2573.490449606234, 0.0]
['beep', 0.0, -3566.5561040110715, 0.0, 0.0, 0.0, 0.0, -2573.8033740286082, 0.0]
['beep', 0.0, -3567.2937115780965, 0.0, 0.0, 0.0, 0.0, -2574.540981595633, 0.0]
['beep', 0.0, -3567.2713598336413, 0.0, 0.0, 0.0, 0.0, -2574.809202529097, 0.0]
['beep', 0.0, -3566.9360836668116, 0.0, 0.0, 0.0, 0.0, -2574.3621676399907, 0.0]
['beep', 0.0, -3565.9749586552334, 0.0, 0.0, 0.0, 0.0, -2573.8257257730634, 0.0]
['beep', 0.0, -3564.5220952656387, 0.0, 0.0, 0.0, 0.0, -2572.7975455281194, 0.0]
['beep', 0.0, -3566.2431795886973, 0.0, 0.0, 0.0, 0.0, -2573.490449606234, 0.0]
['beep', 0.0, -3566.712566222259, 0.0, 0.0, 0.0, 0.0, -2574.6080368289995, 0.0]
['beep', 0.0, -3566.064365633055, 0.0, 0.0, 0.0, 0.0, -2576.172658940871, 0.0]
['beep', 0.0, -3565.460868532761, 0.0, 0.0, 0.0, 0.0, -2575.9714932407733, 0.0]
['beep', 0.0, -3566.757269711169, 0.0, 0.0, 0.0, 0.0, -2574.853906018008, 0.0]
['beep', 0.0, -3567.0701941335437, 0.0, 0.0, 0.0, 0.0, -2574.9880164847395, 0.0]
['beep', 0.0, -3567.092545877999, 0.0, 0.0, 0.0, 0.0, -2576.0161967296835, 0.0]
['beep', 0.0, -3565.9079034218676, 0.0, 0.0, 0.0, 0.0, -2575.479754862756, 0.0]
['beep', 0.0, -3566.377290055429, 0.0, 0.0, 0.0, 0.0, -2575.3009409071137, 0.0]
['beep', 0.0, -3566.1314208664207, 0.0, 0.0, 0.0, 0.0, -2575.0327199736503, 0.0]
['beep', 0.0, -3565.460868532761, 0.0, 0.0, 0.0, 0.0, -2575.0550717181054, 0.0]
['beep', 0.0, -3566.2431795886973, 0.0, 0.0, 0.0, 0.0, -2574.8315542735522, 0.0]
['beep', 0.0, -3564.924426665834, 0.0, 0.0, 0.0, 0.0, -2575.6362170739435, 0.0]
['beep', 0.0, -3562.175162097831, 0.0, 0.0, 0.0, 0.0, -2574.3621676399907, 0.0]
['beep', 0.0, -3560.185856841309, 0.0, 0.0, 0.0, 0.0, -2572.104641450005, 0.0]
['beep', 0.0, -3559.6494149743817, 0.0, 0.0, 0.0, 0.0, -2571.5011443497115, 0.0]
['beep', 0.0, -3560.498781263683, 0.0, 0.0, 0.0, 0.0, -2572.037586216639, 0.0]
['beep', 0.0, -3562.6221969869375, 0.0, 0.0, 0.0, 0.0, -2573.266932161681, 0.0]
['beep', 0.0, -3563.739784209703, 0.0, 0.0, 0.0, 0.0, -2572.551676339111, 0.0]
['beep', 0.0, -3565.3938132993953, 0.0, 0.0, 0.0, 0.0, -2572.3728623834686, 0.0]
['beep', 0.0, -3566.019662144144, 0.0, 0.0, 0.0, 0.0, -2572.2164001722813, 0.0]
['beep', 0.0, -3566.2878830776076, 0.0, 0.0, 0.0, 0.0, -2572.551676339111, 0.0]
['beep', 0.0, -3565.125592365932, 0.0, 0.0, 0.0, 0.0, -2571.4117373718905, 0.0]
['beep', 0.0, -3565.080888877021, 0.0, 0.0, 0.0, 0.0, -2572.0152344721837, 0.0]
['beep', 0.0, -3565.460868532761, 0.0, 0.0, 0.0, 0.0, -2572.4399176168345, 0.0]
['beep', 0.0, -3566.08671737751, 0.0, 0.0, 0.0, 0.0, -2572.7975455281194, 0.0]
['beep', 0.0, -3566.824324944535, 0.0, 0.0, 0.0, 0.0, -2573.3786908839575, 0.0]
['beep', 0.0, -3565.080888877021, 0.0, 0.0, 0.0, 0.0, -2573.781022284153, 0.0]
['beep', 0.0, -3564.8126679435577, 0.0, 0.0, 0.0, 0.0, -2573.7139670507872, 0.0]
['beep', 0.0, -3565.058537132566, 0.0, 0.0, 0.0, 0.0, -2572.0822897055496, 0.0]
['beep', 0.0, -3564.700909221281, 0.0, 0.0, 0.0, 0.0, -2571.0988129495163, 0.0]
['beep', 0.0, -3564.9691301547446, 0.0, 0.0, 0.0, 0.0, -2571.6352548164436, 0.0]
['beep', 0.0, -3565.796144699591, 0.0, 0.0, 0.0, 0.0, -2572.3505106390135, 0.0]
['beep', 0.0, -3564.432688287817, 0.0, 0.0, 0.0, 0.0, -2572.9540077393067, 0.0]
['beep', 0.0, -3564.2538743321747, 0.0, 0.0, 0.0, 0.0, -2571.7023100498095, 0.0]
['beep', 0.0, -3564.186819098809, 0.0, 0.0, 0.0, 0.0, -2571.8364205165412, 0.0]
['beep', 0.0, -3563.4268597873283, 0.0, 0.0, 0.0, 0.0, -2572.909304250396, 0.0]
['beep', 0.0, -3563.7174324652474, 0.0, 0.0, 0.0, 0.0, -2572.171696683371, 0.0]
['beep', 0.0, -3564.0750603765323, 0.0, 0.0, 0.0, 0.0, -2573.132821694949, 0.0]
['beep', 0.0, -3563.89624642089, 0.0, 0.0, 0.0, 0.0, -2573.8257257730634, 0.0]
['beep', 0.0, -3564.455040032273, 0.0, 0.0, 0.0, 0.0, -2573.5575048396, 0.0]
['beep', 0.0, -3563.9856533987113, 0.0, 0.0, 0.0, 0.0, -2573.289283906136, 0.0]
['beep', 0.0, -3564.8797231769236, 0.0, 0.0, 0.0, 0.0, -2572.976359483762, 0.0]
['beep', 0.0, -3562.890417920401, 0.0, 0.0, 0.0, 0.0, -2572.171696683371, 0.0]
['beep', 0.0, -3562.0186998866443, 0.0, 0.0, 0.0, 0.0, -2571.1211646939714, 0.0]
['beep', 0.0, -3563.538618509605, 0.0, 0.0, 0.0, 0.0, -2572.4175658723793, 0.0]
['beep', 0.0, -3566.08671737751, 0.0, 0.0, 0.0, 0.0, -2572.2834554056476, 0.0]
['beep', 0.0, -3565.349109810485, 0.0, 0.0, 0.0, 0.0, -2573.1104699504936, 0.0]
['beep', 0.0, -3563.113935364954, 0.0, 0.0, 0.0, 0.0, -2572.596379828022, 0.0]
['beep', 0.0, -3563.739784209703, 0.0, 0.0, 0.0, 0.0, -2571.7246617942646, 0.0]
['beep', 0.0, -3564.790316199102, 0.0, 0.0, 0.0, 0.0, -2573.0210629726726, 0.0]
['beep', 0.0, -3565.349109810485, 0.0, 0.0, 0.0, 0.0, -2574.0492432176165, 0.0]
['beep', 0.0, -3564.9691301547446, 0.0, 0.0, 0.0, 0.0, -2573.6916153063316, 0.0]
['beep', 0.0, -3565.9302551663227, 0.0, 0.0, 0.0, 0.0, -2573.1104699504936, 0.0]
['beep', 0.0, -3565.5949789994934, 0.0, 0.0, 0.0, 0.0, -2573.5575048396, 0.0]
['beep', 0.0, -3565.572627255038, 0.0, 0.0, 0.0, 0.0, -2573.7363187952424, 0.0]
['beep', 0.0, -3566.0420138885993, 0.0, 0.0, 0.0, 0.0, -2574.451574617812, 0.0]
['beep', 0.0, -3566.1984760997866, 0.0, 0.0, 0.0, 0.0, -2574.518629851178, 0.0]
['beep', 0.0, -3565.8855516774124, 0.0, 0.0, 0.0, 0.0, -2573.8927810064297, 0.0]
['beep', 0.0, -3565.796144699591, 0.0, 0.0, 0.0, 0.0, -2574.4739263622673, 0.0]
['beep', 0.0, -3565.9079034218676, 0.0, 0.0, 0.0, 0.0, -2573.93748449534, 0.0]
['beep', 0.0, -3566.2655313331525, 0.0, 0.0, 0.0, 0.0, -2574.161001939893, 0.0]
['beep', 0.0, -3567.8525051894794, 0.0, 0.0, 0.0, 0.0, -2573.8257257730634, 0.0]
['beep', 0.0, -3566.6231592444374, 0.0, 0.0, 0.0, 0.0, -2572.529324594656, 0.0]
['beep', 0.0, -3566.377290055429, 0.0, 0.0, 0.0, 0.0, -2573.22222867277, 0.0]
['beep', 0.0, -3566.824324944535, 0.0, 0.0, 0.0, 0.0, -2573.781022284153, 0.0]
['beep', 0.0, -3565.9079034218676, 0.0, 0.0, 0.0, 0.0, -2574.7197955512756, 0.0]
['beep', 0.0, -3565.818496444046, 0.0, 0.0, 0.0, 0.0, -2574.7644990401864, 0.0]
['beep', 0.0, -3565.9079034218676, 0.0, 0.0, 0.0, 0.0, -2573.646911817421, 0.0]
['beep', 0.0, -3566.444345288795, 0.0, 0.0, 0.0, 0.0, -2573.4457461173233, 0.0]
['beep', 0.0, -3566.08671737751, 0.0, 0.0, 0.0, 0.0, -2574.228057173259, 0.0]
['beep', 0.0, -3566.5784557555266, 0.0, 0.0, 0.0, 0.0, -2574.1833536843483, 0.0]
['beep', 0.0, -3565.818496444046, 0.0, 0.0, 0.0, 0.0, -2572.7751937836642, 0.0]
['beep', 0.0, -3565.6843859773144, 0.0, 0.0, 0.0, 0.0, -2573.0434147171277, 0.0]
['beep', 0.0, -3566.444345288795, 0.0, 0.0, 0.0, 0.0, -2572.931655994851, 0.0]
['beep', 0.0, -3567.092545877999, 0.0, 0.0, 0.0, 0.0, -2573.93748449534, 0.0]
['beep', 0.0, -3567.316063322552, 0.0, 0.0, 0.0, 0.0, -2574.161001939893, 0.0]
['beep', 0.0, -3567.025490644633, 0.0, 0.0, 0.0, 0.0, -2573.1551734394043, 0.0]
['beep', 0.0, -3566.533752266616, 0.0, 0.0, 0.0, 0.0, -2574.853906018008, 0.0]
['beep', 0.0, -3567.1596011113647, 0.0, 0.0, 0.0, 0.0, -2573.289283906136, 0.0]
['beep', 0.0, -3566.8690284334457, 0.0, 0.0, 0.0, 0.0, -2572.551676339111, 0.0]
['beep', 0.0, -3566.2208278442417, 0.0, 0.0, 0.0, 0.0, -2573.579856584055, 0.0]
['beep', 0.0, -3567.8078017005687, 0.0, 0.0, 0.0, 0.0, -2573.9598362397955, 0.0]
['beep', 0.0, -3567.539580767105, 0.0, 0.0, 0.0, 0.0, -2573.512801350689, 0.0]
['beep', 0.0, -3567.2043046002755, 0.0, 0.0, 0.0, 0.0, -2572.6634350613876, 0.0]
['beep', 0.0, -3566.511400522161, 0.0, 0.0, 0.0, 0.0, -2573.5575048396, 0.0]
['beep', 0.0, -3567.7183947227472, 0.0, 0.0, 0.0, 0.0, -2573.9821879842507, 0.0]
['beep', 0.0, -3567.0701941335437, 0.0, 0.0, 0.0, 0.0, -2573.7363187952424, 0.0]
['beep', 0.0, -3567.2713598336413, 0.0, 0.0, 0.0, 0.0, -2573.22222867277, 0.0]
['beep', 0.0, -3566.7796214556247, 0.0, 0.0, 0.0, 0.0, -2573.423394372868, 0.0]
['beep', 0.0, -3566.824324944535, 0.0, 0.0, 0.0, 0.0, -2572.9987112282174, 0.0]
['beep', 0.0, -3567.696042978292, 0.0, 0.0, 0.0, 0.0, -2572.909304250396, 0.0]
['beep', 0.0, -3566.9360836668116, 0.0, 0.0, 0.0, 0.0, -2572.1269931944603, 0.0]
['beep', 0.0, -3566.310234822063, 0.0, 0.0, 0.0, 0.0, -2572.484621105745, 0.0]
['beep', 0.0, -3566.667862733348, 0.0, 0.0, 0.0, 0.0, -2571.948179238818, 0.0]
['beep', 0.0, -3566.712566222259, 0.0, 0.0, 0.0, 0.0, -2573.8033740286082, 0.0]
['beep', 0.0, -3566.444345288795, 0.0, 0.0, 0.0, 0.0, -2574.876257762463, 0.0]
['beep', 0.0, -3566.8466766889906, 0.0, 0.0, 0.0, 0.0, -2573.8033740286082, 0.0]
['beep', 0.0, -3566.757269711169, 0.0, 0.0, 0.0, 0.0, -2572.5069728502003, 0.0]
['beep', 0.0, -3566.6455109888925, 0.0, 0.0, 0.0, 0.0, -2572.7975455281194, 0.0]
['beep', 0.0, -3566.6902144778032, 0.0, 0.0, 0.0, 0.0, -2573.17752518386, 0.0]
['beep', 0.0, -3567.763098211658, 0.0, 0.0, 0.0, 0.0, -2574.2504089177146, 0.0]
['beep', 0.0, -3568.031319145122, 0.0, 0.0, 0.0, 0.0, -2573.646911817421, 0.0]
['beep', 0.0, -3566.824324944535, 0.0, 0.0, 0.0, 0.0, -2573.5575048396, 0.0]
['beep', 0.0, -3566.533752266616, 0.0, 0.0, 0.0, 0.0, -2573.7139670507872, 0.0]
['beep', 0.0, -3566.310234822063, 0.0, 0.0, 0.0, 0.0, -2572.2164001722813, 0.0]
['beep', 0.0, -3567.5842842560155, 0.0, 0.0, 0.0, 0.0, -2572.037586216639, 0.0]
['beep', 0.0, -3567.606636000471, 0.0, 0.0, 0.0, 0.0, -2572.261103661192, 0.0]
['beep', 0.0, -3566.5784557555266, 0.0, 0.0, 0.0, 0.0, -2571.881124005452, 0.0]
['beep', 0.0, -3566.064365633055, 0.0, 0.0, 0.0, 0.0, -2572.3728623834686, 0.0]
['beep', 0.0, -3567.249008089186, 0.0, 0.0, 0.0, 0.0, -2572.7081385502984, 0.0]
['beep', 0.0, -3567.673691233837, 0.0, 0.0, 0.0, 0.0, -2573.199876928315, 0.0]
['beep', 0.0, -3566.1984760997866, 0.0, 0.0, 0.0, 0.0, -2572.9987112282174, 0.0]
['beep', 0.0, -3565.9749586552334, 0.0, 0.0, 0.0, 0.0, -2570.718833293776, 0.0]
['beep', 0.0, -3567.3607668114623, 0.0, 0.0, 0.0, 0.0, -2570.718833293776, 0.0]
['beep', 0.0, -3567.9419121673004, 0.0, 0.0, 0.0, 0.0, -2570.0482809601167, 0.0]
['beep', 0.0, -3567.3607668114623, 0.0, 0.0, 0.0, 0.0, -2571.322330394069, 0.0]
['beep', 0.0, -3566.9807871557223, 0.0, 0.0, 0.0, 0.0, -2572.84224901703, 0.0]
['beep', 0.0, -3567.025490644633, 0.0, 0.0, 0.0, 0.0, -2573.1104699504936, 0.0]
['beep', 0.0, -3566.6008074999822, 0.0, 0.0, 0.0, 0.0, -2570.942350738329, 0.0]
['beep', 0.0, -3565.6396824884037, 0.0, 0.0, 0.0, 0.0, -2570.7635367826865, 0.0]
['beep', 0.0, -3565.9749586552334, 0.0, 0.0, 0.0, 0.0, -2571.3670338829797, 0.0]
['beep', 0.0, -3566.399641799884, 0.0, 0.0, 0.0, 0.0, -2571.1211646939714, 0.0]
['beep', 0.0, -3566.4890487777056, 0.0, 0.0, 0.0, 0.0, -2572.1269931944603, 0.0]
['beep', 0.0, -3566.310234822063, 0.0, 0.0, 0.0, 0.0, -2571.8587722609964, 0.0]
['beep', 0.0, -3566.310234822063, 0.0, 0.0, 0.0, 0.0, -2571.255275160703, 0.0]
['beep', 0.0, -3566.80197320008, 0.0, 0.0, 0.0, 0.0, -2571.1435164384266, 0.0]
['beep', 0.0, -3566.9807871557223, 0.0, 0.0, 0.0, 0.0, -2572.1493449389154, 0.0]
['beep', 0.0, -3566.958435411267, 0.0, 0.0, 0.0, 0.0, -2571.9928827277286, 0.0]
['beep', 0.0, -3566.7796214556247, 0.0, 0.0, 0.0, 0.0, -2572.104641450005, 0.0]
['beep', 0.0, -3567.5619325115604, 0.0, 0.0, 0.0, 0.0, -2572.529324594656, 0.0]
['beep', 0.0, -3566.757269711169, 0.0, 0.0, 0.0, 0.0, -2573.132821694949, 0.0]
['beep', 0.0, -3566.4890487777056, 0.0, 0.0, 0.0, 0.0, -2573.490449606234, 0.0]
['beep', 0.0, -3566.5784557555266, 0.0, 0.0, 0.0, 0.0, -2572.685786805843, 0.0]
['beep', 0.0, -3567.8078017005687, 0.0, 0.0, 0.0, 0.0, -2571.4787926052563, 0.0]
['beep', 0.0, -3567.606636000471, 0.0, 0.0, 0.0, 0.0, -2572.7304902947535, 0.0]
['beep', 0.0, -3567.114897622454, 0.0, 0.0, 0.0, 0.0, -2572.0599379610944, 0.0]
['beep', 0.0, -3567.3607668114623, 0.0, 0.0, 0.0, 0.0, -2572.3505106390135, 0.0]
['beep', 0.0, -3566.176124355331, 0.0, 0.0, 0.0, 0.0, -2573.22222867277, 0.0]
['beep', 0.0, -3565.9749586552334, 0.0, 0.0, 0.0, 0.0, -2573.0881182060384, 0.0]
['beep', 0.0, -3566.3325865665183, 0.0, 0.0, 0.0, 0.0, -2574.563333340089, 0.0]
['beep', 0.0, -3566.6008074999822, 0.0, 0.0, 0.0, 0.0, -2573.9598362397955, 0.0]
['beep', 0.0, -3566.6455109888925, 0.0, 0.0, 0.0, 0.0, -2571.389385627435, 0.0]
['beep', 0.0, -3566.757269711169, 0.0, 0.0, 0.0, 0.0, -2572.261103661192, 0.0]
['beep', 0.0, -3567.092545877999, 0.0, 0.0, 0.0, 0.0, -2572.328158894558, 0.0]
['beep', 0.0, -3567.3607668114623, 0.0, 0.0, 0.0, 0.0, -2572.171696683371, 0.0]
['beep', 0.0, -3567.249008089186, 0.0, 0.0, 0.0, 0.0, -2573.0210629726726, 0.0]
['beep', 0.0, -3568.388947056407, 0.0, 0.0, 0.0, 0.0, -2573.22222867277, 0.0]
['beep', 0.0, -3567.3607668114623, 0.0, 0.0, 0.0, 0.0, -2572.596379828022, 0.0]
['beep', 0.0, -3566.511400522161, 0.0, 0.0, 0.0, 0.0, -2572.931655994851, 0.0]
['beep', 0.0, -3567.1596011113647, 0.0, 0.0, 0.0, 0.0, -2573.4680978617785, 0.0]
['beep', 0.0, -3566.712566222259, 0.0, 0.0, 0.0, 0.0, -2573.512801350689, 0.0]
['beep', 0.0, -3566.6902144778032, 0.0, 0.0, 0.0, 0.0, -2572.819897272575, 0.0]
['beep', 0.0, -3566.757269711169, 0.0, 0.0, 0.0, 0.0, -2572.7081385502984, 0.0]
['beep', 0.0, -3566.2208278442417, 0.0, 0.0, 0.0, 0.0, -2572.685786805843, 0.0]
['beep', 0.0, -3566.153772610876, 0.0, 0.0, 0.0, 0.0, -2573.7139670507872, 0.0]
['beep', 0.0, -3568.366595311951, 0.0, 0.0, 0.0, 0.0, -2573.4457461173233, 0.0]
['beep', 0.0, -3567.383118555918, 0.0, 0.0, 0.0, 0.0, -2572.2164001722813, 0.0]
['beep', 0.0, -3567.5619325115604, 0.0, 0.0, 0.0, 0.0, -2573.0434147171277, 0.0]
['beep', 0.0, -3567.763098211658, 0.0, 0.0, 0.0, 0.0, -2574.3845193844463, 0.0]
['beep', 0.0, -3568.0983743784877, 0.0, 0.0, 0.0, 0.0, -2572.3058071501027, 0.0]
['beep', 0.0, -3567.2937115780965, 0.0, 0.0, 0.0, 0.0, -2572.4399176168345, 0.0]
['beep', 0.0, -3567.7183947227472, 0.0, 0.0, 0.0, 0.0, -2572.328158894558, 0.0]
['beep', 0.0, -3568.076022634032, 0.0, 0.0, 0.0, 0.0, -2572.819897272575, 0.0]
['beep', 0.0, -3567.2266563447306, 0.0, 0.0, 0.0, 0.0, -2572.529324594656, 0.0]
['beep', 0.0, -3566.80197320008, 0.0, 0.0, 0.0, 0.0, -2573.3339873950467, 0.0]
['beep', 0.0, -3567.405470300373, 0.0, 0.0, 0.0, 0.0, -2573.4457461173233, 0.0]
['beep', 0.0, -3568.1654296118536, 0.0, 0.0, 0.0, 0.0, -2572.238751916737, 0.0]
['beep', 0.0, -3567.472525533739, 0.0, 0.0, 0.0, 0.0, -2572.84224901703, 0.0]
['beep', 0.0, -3566.310234822063, 0.0, 0.0, 0.0, 0.0, -2571.389385627435, 0.0]
['beep', 0.0, -3566.8466766889906, 0.0, 0.0, 0.0, 0.0, -2571.3670338829797, 0.0]
['beep', 0.0, -3567.450173789284, 0.0, 0.0, 0.0, 0.0, -2572.7751937836642, 0.0]
['beep', 0.0, -3567.2266563447306, 0.0, 0.0, 0.0, 0.0, -2572.3728623834686, 0.0]
['beep', 0.0, -3566.2655313331525, 0.0, 0.0, 0.0, 0.0, -2571.4340891163456, 0.0]
['beep', 0.0, -3566.5784557555266, 0.0, 0.0, 0.0, 0.0, -2570.4506123603123, 0.0]
['beep', 0.0, -3566.6231592444374, 0.0, 0.0, 0.0, 0.0, -2571.165868182882, 0.0]
['beep', 0.0, -3566.824324944535, 0.0, 0.0, 0.0, 0.0, -2572.931655994851, 0.0]
['beep', 0.0, -3566.6455109888925, 0.0, 0.0, 0.0, 0.0, -2572.104641450005, 0.0]
['beep', 0.0, -3566.1984760997866, 0.0, 0.0, 0.0, 0.0, -2571.612903071988, 0.0]
['beep', 0.0, -3566.6902144778032, 0.0, 0.0, 0.0, 0.0, -2572.618731572477, 0.0]
['beep', 0.0, -3566.712566222259, 0.0, 0.0, 0.0, 0.0, -2572.931655994851, 0.0]
['beep', 0.0, -3566.533752266616, 0.0, 0.0, 0.0, 0.0, -2573.423394372868, 0.0]
['beep', 0.0, -3566.064365633055, 0.0, 0.0, 0.0, 0.0, -2573.3116356505916, 0.0]
['beep', 0.0, -3566.444345288795, 0.0, 0.0, 0.0, 0.0, -2571.8364205165412, 0.0]
['beep', 0.0, -3567.047842389088, 0.0, 0.0, 0.0, 0.0, -2570.584722827044, 0.0]
['beep', 0.0, -3567.696042978292, 0.0, 0.0, 0.0, 0.0, -2571.322330394069, 0.0]
['beep', 0.0, -3567.18195285582, 0.0, 0.0, 0.0, 0.0, -2570.607074571499, 0.0]
['beep', 0.0, -3567.539580767105, 0.0, 0.0, 0.0, 0.0, -2571.1435164384266, 0.0]
['beep', 0.0, -3566.824324944535, 0.0, 0.0, 0.0, 0.0, -2571.7693652831754, 0.0]
['beep', 0.0, -3566.4890487777056, 0.0, 0.0, 0.0, 0.0, -2572.1493449389154, 0.0]
['beep', 0.0, -3566.2655313331525, 0.0, 0.0, 0.0, 0.0, -2572.551676339111, 0.0]
['beep', 0.0, -3566.399641799884, 0.0, 0.0, 0.0, 0.0, -2572.3728623834686, 0.0]
['beep', 0.0, -3567.383118555918, 0.0, 0.0, 0.0, 0.0, -2573.0657664615833, 0.0]
['beep', 0.0, -3566.9807871557223, 0.0, 0.0, 0.0, 0.0, -2571.389385627435, 0.0]
['beep', 0.0, -3566.511400522161, 0.0, 0.0, 0.0, 0.0, -2572.171696683371, 0.0]
['beep', 0.0, -3567.2043046002755, 0.0, 0.0, 0.0, 0.0, -2572.7304902947535, 0.0]
['beep', 0.0, -3567.4278220448286, 0.0, 0.0, 0.0, 0.0, -2572.171696683371, 0.0]
['beep', 0.0, -3567.2043046002755, 0.0, 0.0, 0.0, 0.0, -2573.2445804172257, 0.0]
['beep', 0.0, -3567.472525533739, 0.0, 0.0, 0.0, 0.0, -2573.22222867277, 0.0]
['beep', 0.0, -3567.114897622454, 0.0, 0.0, 0.0, 0.0, -2572.6634350613876, 0.0]
['beep', 0.0, -3566.5561040110715, 0.0, 0.0, 0.0, 0.0, -2571.7693652831754, 0.0]
['beep', 0.0, -3566.310234822063, 0.0, 0.0, 0.0, 0.0, -2571.881124005452, 0.0]
['beep', 0.0, -3567.4278220448286, 0.0, 0.0, 0.0, 0.0, -2572.484621105745, 0.0]
['beep', 0.0, -3566.8913801779013, 0.0, 0.0, 0.0, 0.0, -2573.17752518386, 0.0]
['beep', 0.0, -3567.2713598336413, 0.0, 0.0, 0.0, 0.0, -2572.171696683371, 0.0]
['beep', 0.0, -3566.9807871557223, 0.0, 0.0, 0.0, 0.0, -2572.9987112282174, 0.0]
['beep', 0.0, -3567.8748569339346, 0.0, 0.0, 0.0, 0.0, -2572.484621105745, 0.0]
['beep', 0.0, -3568.2995400785853, 0.0, 0.0, 0.0, 0.0, -2571.7023100498095, 0.0]
['beep', 0.0, -3567.6513394893814, 0.0, 0.0, 0.0, 0.0, -2571.7023100498095, 0.0]
['beep', 0.0, -3567.383118555918, 0.0, 0.0, 0.0, 0.0, -2570.919998993874, 0.0]
['beep', 0.0, -3566.511400522161, 0.0, 0.0, 0.0, 0.0, -2572.3058071501027, 0.0]
['beep', 0.0, -3567.0031389001774, 0.0, 0.0, 0.0, 0.0, -2572.886952505941, 0.0]
['beep', 0.0, -3566.176124355331, 0.0, 0.0, 0.0, 0.0, -2572.574028083566, 0.0]
['beep', 0.0, -3566.80197320008, 0.0, 0.0, 0.0, 0.0, -2572.104641450005, 0.0]
['beep', 0.0, -3566.6231592444374, 0.0, 0.0, 0.0, 0.0, -2571.3670338829797, 0.0]
['beep', 0.0, -3566.667862733348, 0.0, 0.0, 0.0, 0.0, -2571.612903071988, 0.0]
['beep', 0.0, -3567.7183947227472, 0.0, 0.0, 0.0, 0.0, -2571.5011443497115, 0.0]
['beep', 0.0, -3567.472525533739, 0.0, 0.0, 0.0, 0.0, -2572.3952141279237, 0.0]
['beep', 0.0, -3567.673691233837, 0.0, 0.0, 0.0, 0.0, -2572.529324594656, 0.0]
['beep', 0.0, -3567.249008089186, 0.0, 0.0, 0.0, 0.0, -2573.199876928315, 0.0]
['beep', 0.0, -3568.27718833413, 0.0, 0.0, 0.0, 0.0, -2573.4010426284126, 0.0]
['beep', 0.0, -3568.2995400785853, 0.0, 0.0, 0.0, 0.0, -2573.4457461173233, 0.0]
['beep', 0.0, -3567.696042978292, 0.0, 0.0, 0.0, 0.0, -2572.819897272575, 0.0]
['beep', 0.0, -3567.740746467203, 0.0, 0.0, 0.0, 0.0, -2572.2834554056476, 0.0]
['beep', 0.0, -3567.249008089186, 0.0, 0.0, 0.0, 0.0, -2571.8364205165412, 0.0]
['beep', 0.0, -3567.2713598336413, 0.0, 0.0, 0.0, 0.0, -2573.3563391395023, 0.0]
['beep', 0.0, -3567.4278220448286, 0.0, 0.0, 0.0, 0.0, -2573.3339873950467, 0.0]
['beep', 0.0, -3568.1430778673985, 0.0, 0.0, 0.0, 0.0, -2572.551676339111, 0.0]
['beep', 0.0, -3568.2995400785853, 0.0, 0.0, 0.0, 0.0, -2572.2834554056476, 0.0]
['beep', 0.0, -3567.9195604228453, 0.0, 0.0, 0.0, 0.0, -2572.7528420392086, 0.0]
['beep', 0.0, -3568.6124645009595, 0.0, 0.0, 0.0, 0.0, -2572.596379828022, 0.0]
['beep', 0.0, -3569.640644745904, 0.0, 0.0, 0.0, 0.0, -2574.1162984509824, 0.0]
['beep', 0.0, -3568.679519734326, 0.0, 0.0, 0.0, 0.0, -2573.289283906136, 0.0]
['beep', 0.0, -3567.2937115780965, 0.0, 0.0, 0.0, 0.0, -2572.0822897055496, 0.0]
['beep', 0.0, -3567.1372493669096, 0.0, 0.0, 0.0, 0.0, -2573.1551734394043, 0.0]
['beep', 0.0, -3565.2820545771187, 0.0, 0.0, 0.0, 0.0, -2573.512801350689, 0.0]
['beep', 0.0, -3563.9409499098006, 0.0, 0.0, 0.0, 0.0, -2571.4340891163456, 0.0]
['beep', 0.0, -3562.3986795423843, 0.0, 0.0, 0.0, 0.0, -2570.9870542272397, 0.0]
['beep', 0.0, -3561.8175341865463, 0.0, 0.0, 0.0, 0.0, -2571.232923416248, 0.0]
['beep', 0.0, -3560.9905196417, 0.0, 0.0, 0.0, 0.0, -2570.070632704572, 0.0]
['beep', 0.0, -3563.2703975761415, 0.0, 0.0, 0.0, 0.0, -2569.713004793287, 0.0]
['beep', 0.0, -3565.1926475992977, 0.0, 0.0, 0.0, 0.0, -2570.4953158492226, 0.0]
['beep', 0.0, -3567.092545877999, 0.0, 0.0, 0.0, 0.0, -2570.718833293776, 0.0]
['beep', 0.0, -3567.6513394893814, 0.0, 0.0, 0.0, 0.0, -2570.070632704572, 0.0]
['beep', 0.0, -3566.9360836668116, 0.0, 0.0, 0.0, 0.0, -2571.4340891163456, 0.0]
['beep', 0.0, -3567.1596011113647, 0.0, 0.0, 0.0, 0.0, -2571.6352548164436, 0.0]
['beep', 0.0, -3567.5619325115604, 0.0, 0.0, 0.0, 0.0, -2571.4117373718905, 0.0]
['beep', 0.0, -3567.1372493669096, 0.0, 0.0, 0.0, 0.0, -2570.517667593678, 0.0]
['beep', 0.0, -3567.3607668114623, 0.0, 0.0, 0.0, 0.0, -2570.4282606158567, 0.0]
['beep', 0.0, -3566.153772610876, 0.0, 0.0, 0.0, 0.0, -2569.93652223784, 0.0]
['beep', 0.0, -3566.5784557555266, 0.0, 0.0, 0.0, 0.0, -2570.942350738329, 0.0]
['beep', 0.0, -3568.031319145122, 0.0, 0.0, 0.0, 0.0, -2571.2776269051587, 0.0]
['beep', 0.0, -3567.763098211658, 0.0, 0.0, 0.0, 0.0, -2571.814068772086, 0.0]
['beep', 0.0, -3568.8359819455127, 0.0, 0.0, 0.0, 0.0, -2573.646911817421, 0.0]
['beep', 0.0, -3567.673691233837, 0.0, 0.0, 0.0, 0.0, -2574.6303885734546, 0.0]
['beep', 0.0, -3567.9419121673004, 0.0, 0.0, 0.0, 0.0, -2573.4010426284126, 0.0]
['beep', 0.0, -3569.1712581123425, 0.0, 0.0, 0.0, 0.0, -2572.0599379610944, 0.0]
['beep', 0.0, -3567.986615656211, 0.0, 0.0, 0.0, 0.0, -2571.948179238818, 0.0]
['beep', 0.0, -3568.925388923334, 0.0, 0.0, 0.0, 0.0, -2571.389385627435, 0.0]
['beep', 0.0, -3568.5230575231385, 0.0, 0.0, 0.0, 0.0, -2571.657606560899, 0.0]
['beep', 0.0, -3568.5454092675936, 0.0, 0.0, 0.0, 0.0, -2572.3505106390135, 0.0]
['beep', 0.0, -3567.9419121673004, 0.0, 0.0, 0.0, 0.0, -2571.612903071988, 0.0]
['beep', 0.0, -3568.5454092675936, 0.0, 0.0, 0.0, 0.0, -2572.3952141279237, 0.0]
['beep', 0.0, -3567.964263911756, 0.0, 0.0, 0.0, 0.0, -2572.0599379610944, 0.0]
['beep', 0.0, -3568.053670889577, 0.0, 0.0, 0.0, 0.0, -2569.847115260019, 0.0]
['beep', 0.0, -3568.478354034228, 0.0, 0.0, 0.0, 0.0, -2571.255275160703, 0.0]
['beep', 0.0, -3568.478354034228, 0.0, 0.0, 0.0, 0.0, -2570.1600396823933, 0.0]
['beep', 0.0, -3568.8359819455127, 0.0, 0.0, 0.0, 0.0, -2569.713004793287, 0.0]
['beep', 0.0, -3568.9030371788785, 0.0, 0.0, 0.0, 0.0, -2569.6012460710103, 0.0]
['beep', 0.0, -3569.6182930014484, 0.0, 0.0, 0.0, 0.0, -2570.674129804865, 0.0]
['beep', 0.0, -3569.283016834619, 0.0, 0.0, 0.0, 0.0, -2572.0152344721837, 0.0]
['beep', 0.0, -3568.1654296118536, 0.0, 0.0, 0.0, 0.0, -2572.2834554056476, 0.0]
['beep', 0.0, -3568.701871478781, 0.0, 0.0, 0.0, 0.0, -2571.814068772086, 0.0]
['beep', 0.0, -3568.768926712147, 0.0, 0.0, 0.0, 0.0, -2571.5011443497115, 0.0]
['beep', 0.0, -3568.2995400785853, 0.0, 0.0, 0.0, 0.0, -2571.322330394069, 0.0]
['beep', 0.0, -3567.830153445024, 0.0, 0.0, 0.0, 0.0, -2571.970530983273, 0.0]
['beep', 0.0, -3568.6571679898702, 0.0, 0.0, 0.0, 0.0, -2572.328158894558, 0.0]
['beep', 0.0, -3567.986615656211, 0.0, 0.0, 0.0, 0.0, -2572.819897272575, 0.0]
['beep', 0.0, -3567.696042978292, 0.0, 0.0, 0.0, 0.0, -2572.574028083566, 0.0]
['beep', 0.0, -3567.8972086783897, 0.0, 0.0, 0.0, 0.0, -2571.970530983273, 0.0]
['beep', 0.0, -3567.025490644633, 0.0, 0.0, 0.0, 0.0, -2571.9258274943627, 0.0]
['beep', 0.0, -3567.763098211658, 0.0, 0.0, 0.0, 0.0, -2572.1493449389154, 0.0]
['beep', 0.0, -3567.8748569339346, 0.0, 0.0, 0.0, 0.0, -2573.132821694949, 0.0]
['beep', 0.0, -3568.5007057786834, 0.0, 0.0, 0.0, 0.0, -2572.3505106390135, 0.0]
['beep', 0.0, -3567.8972086783897, 0.0, 0.0, 0.0, 0.0, -2571.7023100498095, 0.0]
['beep', 0.0, -3568.1654296118536, 0.0, 0.0, 0.0, 0.0, -2571.4117373718905, 0.0]
['beep', 0.0, -3568.411298800862, 0.0, 0.0, 0.0, 0.0, -2571.7246617942646, 0.0]
['beep', 0.0, -3569.417127301351, 0.0, 0.0, 0.0, 0.0, -2571.7917170276305, 0.0]
['beep', 0.0, -3569.1265546234317, 0.0, 0.0, 0.0, 0.0, -2572.171696683371, 0.0]
['beep', 0.0, -3568.031319145122, 0.0, 0.0, 0.0, 0.0, -2571.545847838622, 0.0]
['beep', 0.0, -3568.1654296118536, 0.0, 0.0, 0.0, 0.0, -2570.294150149125, 0.0]
['beep', 0.0, -3568.5901127565044, 0.0, 0.0, 0.0, 0.0, -2570.875295504963, 0.0]
['beep', 0.0, -3568.2548365896746, 0.0, 0.0, 0.0, 0.0, -2572.104641450005, 0.0]
['beep', 0.0, -3567.2043046002755, 0.0, 0.0, 0.0, 0.0, -2570.2494466602143, 0.0]
['beep', 0.0, -3567.316063322552, 0.0, 0.0, 0.0, 0.0, -2569.1095076929937, 0.0]
['beep', 0.0, -3567.472525533739, 0.0, 0.0, 0.0, 0.0, -2569.9588739822952, 0.0]
['beep', 0.0, -3568.366595311951, 0.0, 0.0, 0.0, 0.0, -2571.8364205165412, 0.0]
['beep', 0.0, -3569.506534279172, 0.0, 0.0, 0.0, 0.0, -2571.4787926052563, 0.0]
['beep', 0.0, -3567.964263911756, 0.0, 0.0, 0.0, 0.0, -2571.7246617942646, 0.0]
['beep', 0.0, -3566.3325865665183, 0.0, 0.0, 0.0, 0.0, -2571.232923416248, 0.0]
['beep', 0.0, -3566.08671737751, 0.0, 0.0, 0.0, 0.0, -2570.9870542272397, 0.0]
['beep', 0.0, -3567.6513394893814, 0.0, 0.0, 0.0, 0.0, -2571.322330394069, 0.0]
['beep', 0.0, -3566.9360836668116, 0.0, 0.0, 0.0, 0.0, -2571.322330394069, 0.0]
['beep', 0.0, -3564.8126679435577, 0.0, 0.0, 0.0, 0.0, -2570.919998993874, 0.0]
['beep', 0.0, -3566.42199354434, 0.0, 0.0, 0.0, 0.0, -2570.7635367826865, 0.0]
['beep', 0.0, -3567.4948772781945, 0.0, 0.0, 0.0, 0.0, -2570.5400193381333, 0.0]
['beep', 0.0, -3567.047842389088, 0.0, 0.0, 0.0, 0.0, -2570.875295504963, 0.0]
['beep', 0.0, -3568.031319145122, 0.0, 0.0, 0.0, 0.0, -2570.65177806041, 0.0]
['beep', 0.0, -3567.964263911756, 0.0, 0.0, 0.0, 0.0, -2570.361205382491, 0.0]
['beep', 0.0, -3567.025490644633, 0.0, 0.0, 0.0, 0.0, -2569.265969904181, 0.0]
['beep', 0.0, -3566.1314208664207, 0.0, 0.0, 0.0, 0.0, -2569.7353565377425, 0.0]
['beep', 0.0, -3567.9195604228453, 0.0, 0.0, 0.0, 0.0, -2571.0988129495163, 0.0]
['beep', 0.0, -3567.9195604228453, 0.0, 0.0, 0.0, 0.0, -2570.8082402715972, 0.0]
['beep', 0.0, -3567.830153445024, 0.0, 0.0, 0.0, 0.0, -2571.612903071988, 0.0]
['beep', 0.0, -3567.6289877449262, 0.0, 0.0, 0.0, 0.0, -2571.232923416248, 0.0]
['beep', 0.0, -3568.2324848452195, 0.0, 0.0, 0.0, 0.0, -2568.394251870424, 0.0]
['beep', 0.0, -3568.5677610120492, 0.0, 0.0, 0.0, 0.0, -2569.0201007151727, 0.0]
['beep', 0.0, -3568.433650545317, 0.0, 0.0, 0.0, 0.0, -2569.9588739822952, 0.0]
['beep', 0.0, -3568.679519734326, 0.0, 0.0, 0.0, 0.0, -2569.6012460710103, 0.0]
['beep', 0.0, -3568.321891823041, 0.0, 0.0, 0.0, 0.0, -2570.0482809601167, 0.0]
['beep', 0.0, -3568.321891823041, 0.0, 0.0, 0.0, 0.0, -2571.2776269051587, 0.0]
['beep', 0.0, -3569.797106957091, 0.0, 0.0, 0.0, 0.0, -2570.7858885271417, 0.0]
['beep', 0.0, -3568.701871478781, 0.0, 0.0, 0.0, 0.0, -2571.165868182882, 0.0]
['beep', 0.0, -3569.0371476456107, 0.0, 0.0, 0.0, 0.0, -2570.361205382491, 0.0]
['beep', 0.0, -3569.953569168278, 0.0, 0.0, 0.0, 0.0, -2567.723699536765, 0.0]
['beep', 0.0, -3569.4841825347166, 0.0, 0.0, 0.0, 0.0, -2568.1930861703263, 0.0]
['beep', 0.0, -3569.8194587015464, 0.0, 0.0, 0.0, 0.0, -2568.2824931481473, 0.0]
['beep', 0.0, -3571.8534674469793, 0.0, 0.0, 0.0, 0.0, -2569.355376882002, 0.0]
['beep', 0.0, -3570.400604057384, 0.0, 0.0, 0.0, 0.0, -2569.489487348734, 0.0]
['beep', 0.0, -3569.640644745904, 0.0, 0.0, 0.0, 0.0, -2569.0201007151727, 0.0]
['beep', 0.0, -3570.5123627796606, 0.0, 0.0, 0.0, 0.0, -2569.645949559921, 0.0]
['beep', 0.0, -3570.1770866128313, 0.0, 0.0, 0.0, 0.0, -2570.0482809601167, 0.0]
['beep', 0.0, -3569.8865139349123, 0.0, 0.0, 0.0, 0.0, -2569.2436181597254, 0.0]
['beep', 0.0, -3570.2664935906523, 0.0, 0.0, 0.0, 0.0, -2568.3719001259688, 0.0]
['beep', 0.0, -3570.4900110352055, 0.0, 0.0, 0.0, 0.0, -2569.265969904181, 0.0]
['beep', 0.0, -3571.1158598799543, 0.0, 0.0, 0.0, 0.0, -2571.389385627435, 0.0]
['beep', 0.0, -3570.1994383572865, 0.0, 0.0, 0.0, 0.0, -2571.523496094167, 0.0]
['beep', 0.0, -3571.048804646588, 0.0, 0.0, 0.0, 0.0, -2569.981225726751, 0.0]
['beep', 0.0, -3571.0041011576777, 0.0, 0.0, 0.0, 0.0, -2569.422432115368, 0.0]
['beep', 0.0, -3569.730051723725, 0.0, 0.0, 0.0, 0.0, -2568.953045481807, 0.0]
['beep', 0.0, -3570.4453075462948, 0.0, 0.0, 0.0, 0.0, -2567.969568725773, 0.0]
['beep', 0.0, -3570.624121501937, 0.0, 0.0, 0.0, 0.0, -2568.8636385039854, 0.0]
['beep', 0.0, -3570.1770866128313, 0.0, 0.0, 0.0, 0.0, -2569.265969904181, 0.0]
['beep', 0.0, -3569.797106957091, 0.0, 0.0, 0.0, 0.0, -2569.265969904181, 0.0]
['beep', 0.0, -3569.148906367887, 0.0, 0.0, 0.0, 0.0, -2570.629426315955, 0.0]
['beep', 0.0, -3569.7747552126357, 0.0, 0.0, 0.0, 0.0, -2570.4953158492226, 0.0]
['beep', 0.0, -3569.215961601253, 0.0, 0.0, 0.0, 0.0, -2570.607074571499, 0.0]
['beep', 0.0, -3570.601769757482, 0.0, 0.0, 0.0, 0.0, -2569.355376882002, 0.0]
['beep', 0.0, -3570.400604057384, 0.0, 0.0, 0.0, 0.0, -2569.064804204083, 0.0]
['beep', 0.0, -3568.9700924122444, 0.0, 0.0, 0.0, 0.0, -2569.1542111819044, 0.0]
['beep', 0.0, -3568.321891823041, 0.0, 0.0, 0.0, 0.0, -2567.5672373255775, 0.0]
['beep', 0.0, -3568.5454092675936, 0.0, 0.0, 0.0, 0.0, -2568.103679192505, 0.0]
['beep', 0.0, -3568.768926712147, 0.0, 0.0, 0.0, 0.0, -2570.562371082589, 0.0]
['beep', 0.0, -3568.9924441567, 0.0, 0.0, 0.0, 0.0, -2570.4729641047675, 0.0]
['beep', 0.0, -3568.4560022897726, 0.0, 0.0, 0.0, 0.0, -2569.288321648636, 0.0]
['beep', 0.0, -3569.283016834619, 0.0, 0.0, 0.0, 0.0, -2569.3106733930917, 0.0]
['beep', 0.0, -3568.791278456602, 0.0, 0.0, 0.0, 0.0, -2570.1153361934826, 0.0]
['beep', 0.0, -3568.321891823041, 0.0, 0.0, 0.0, 0.0, -2569.7353565377425, 0.0]
['beep', 0.0, -3568.6124645009595, 0.0, 0.0, 0.0, 0.0, -2568.7295280372537, 0.0]
['beep', 0.0, -3567.3607668114623, 0.0, 0.0, 0.0, 0.0, -2570.070632704572, 0.0]
['beep', 0.0, -3567.696042978292, 0.0, 0.0, 0.0, 0.0, -2569.6683013043767, 0.0]
['beep', 0.0, -3569.283016834619, 0.0, 0.0, 0.0, 0.0, -2569.9588739822952, 0.0]
['beep', 0.0, -3569.7747552126357, 0.0, 0.0, 0.0, 0.0, -2570.3835571269465, 0.0]
['beep', 0.0, -3569.998272657189, 0.0, 0.0, 0.0, 0.0, -2570.4506123603123, 0.0]
['beep', 0.0, -3569.305368579074, 0.0, 0.0, 0.0, 0.0, -2568.640121059432, 0.0]
['beep', 0.0, -3569.8865139349123, 0.0, 0.0, 0.0, 0.0, -2569.3777286264576, 0.0]
['beep', 0.0, -3571.0711563910436, 0.0, 0.0, 0.0, 0.0, -2571.0764612050607, 0.0]
['beep', 0.0, -3571.2052668577753, 0.0, 0.0, 0.0, 0.0, -2571.0541094606056, 0.0]
['beep', 0.0, -3571.89817093589, 0.0, 0.0, 0.0, 0.0, -2568.997748970717, 0.0]
['beep', 0.0, -3570.8029354575797, 0.0, 0.0, 0.0, 0.0, -2568.8189350150747, 0.0]
['beep', 0.0, -3570.8476389464904, 0.0, 0.0, 0.0, 0.0, -2569.8694670044742, 0.0]
['beep', 0.0, -3571.0041011576777, 0.0, 0.0, 0.0, 0.0, -2569.6012460710103, 0.0]
['beep', 0.0, -3571.3840808134178, 0.0, 0.0, 0.0, 0.0, -2569.3777286264576, 0.0]
['beep', 0.0, -3570.2664935906523, 0.0, 0.0, 0.0, 0.0, -2569.6012460710103, 0.0]
['beep', 0.0, -3570.1100313794655, 0.0, 0.0, 0.0, 0.0, -2570.718833293776, 0.0]
['beep', 0.0, -3570.892342435401, 0.0, 0.0, 0.0, 0.0, -2571.165868182882, 0.0]
['beep', 0.0, -3571.9428744248003, 0.0, 0.0, 0.0, 0.0, -2569.8024117711084, 0.0]
['beep', 0.0, -3570.892342435401, 0.0, 0.0, 0.0, 0.0, -2570.4282606158567, 0.0]
['beep', 0.0, -3571.0041011576777, 0.0, 0.0, 0.0, 0.0, -2569.422432115368, 0.0]
['beep', 0.0, -3570.8252872020353, 0.0, 0.0, 0.0, 0.0, -2568.4836588482453, 0.0]
['beep', 0.0, -3571.0041011576777, 0.0, 0.0, 0.0, 0.0, -2570.2494466602143, 0.0]
['beep', 0.0, -3571.2276186022305, 0.0, 0.0, 0.0, 0.0, -2570.8305920160524, 0.0]
['beep', 0.0, -3570.8476389464904, 0.0, 0.0, 0.0, 0.0, -2570.7635367826865, 0.0]
['beep', 0.0, -3571.272322091141, 0.0, 0.0, 0.0, 0.0, -2571.1882199273373, 0.0]
['beep', 0.0, -3570.8476389464904, 0.0, 0.0, 0.0, 0.0, -2570.361205382491, 0.0]
['beep', 0.0, -3570.2664935906523, 0.0, 0.0, 0.0, 0.0, -2569.981225726751, 0.0]
['beep', 0.0, -3570.244141846197, 0.0, 0.0, 0.0, 0.0, -2568.4613071037897, 0.0]
['beep', 0.0, -3569.439479045806, 0.0, 0.0, 0.0, 0.0, -2569.690653048832, 0.0]
['beep', 0.0, -3570.020624401644, 0.0, 0.0, 0.0, 0.0, -2569.265969904181, 0.0]
['beep', 0.0, -3569.6853482348142, 0.0, 0.0, 0.0, 0.0, -2568.2824931481473, 0.0]
['beep', 0.0, -3568.701871478781, 0.0, 0.0, 0.0, 0.0, -2568.751879781709, 0.0]
['beep', 0.0, -3569.081851134521, 0.0, 0.0, 0.0, 0.0, -2569.198914670815, 0.0]
['beep', 0.0, -3568.8806854344234, 0.0, 0.0, 0.0, 0.0, -2569.93652223784, 0.0]
['beep', 0.0, -3569.9088656793674, 0.0, 0.0, 0.0, 0.0, -2570.7635367826865, 0.0]
['beep', 0.0, -3568.925388923334, 0.0, 0.0, 0.0, 0.0, -2569.93652223784, 0.0]
['beep', 0.0, -3569.305368579074, 0.0, 0.0, 0.0, 0.0, -2569.3106733930917, 0.0]
['beep', 0.0, -3569.3947755568956, 0.0, 0.0, 0.0, 0.0, -2570.562371082589, 0.0]
['beep', 0.0, -3568.478354034228, 0.0, 0.0, 0.0, 0.0, -2571.03175771615, 0.0]
['beep', 0.0, -3569.059499390066, 0.0, 0.0, 0.0, 0.0, -2570.4506123603123, 0.0]
['beep', 0.0, -3569.2383133457083, 0.0, 0.0, 0.0, 0.0, -2569.3106733930917, 0.0]
['beep', 0.0, -3568.366595311951, 0.0, 0.0, 0.0, 0.0, -2569.8247635155635, 0.0]
['beep', 0.0, -3569.3947755568956, 0.0, 0.0, 0.0, 0.0, -2569.2436181597254, 0.0]
['beep', 0.0, -3569.5959412569932, 0.0, 0.0, 0.0, 0.0, -2569.4671356042786, 0.0]
['beep', 0.0, -3570.0653278905547, 0.0, 0.0, 0.0, 0.0, -2569.981225726751, 0.0]
['beep', 0.0, -3569.5512377680825, 0.0, 0.0, 0.0, 0.0, -2570.1376879379377, 0.0]
['beep', 0.0, -3570.400604057384, 0.0, 0.0, 0.0, 0.0, -2569.645949559921, 0.0]
['beep', 0.0, -3570.7135284797587, 0.0, 0.0, 0.0, 0.0, -2569.7577082821977, 0.0]
['beep', 0.0, -3570.668824990848, 0.0, 0.0, 0.0, 0.0, -2569.690653048832, 0.0]
['beep', 0.0, -3569.8418104460015, 0.0, 0.0, 0.0, 0.0, -2569.645949559921, 0.0]
['beep', 0.0, -3570.288845335108, 0.0, 0.0, 0.0, 0.0, -2569.6012460710103, 0.0]
['beep', 0.0, -3570.646473246393, 0.0, 0.0, 0.0, 0.0, -2569.3777286264576, 0.0]
['beep', 0.0, -3566.712566222259, 0.0, 0.0, 0.0, 0.0, -2569.623597815466, 0.0]
['beep', 0.0, -3567.383118555918, 0.0, 0.0, 0.0, 0.0, -2571.8364205165412, 0.0]
['beep', 0.0, -3570.3559005684738, 0.0, 0.0, 0.0, 0.0, -2571.5011443497115, 0.0]
['beep', 0.0, -3569.2606650901635, 0.0, 0.0, 0.0, 0.0, -2569.914170493385, 0.0]
['beep', 0.0, -3567.9195604228453, 0.0, 0.0, 0.0, 0.0, -2570.31650189358, 0.0]
['beep', 0.0, -3567.5172290226496, 0.0, 0.0, 0.0, 0.0, -2569.981225726751, 0.0]
['beep', 0.0, -3568.5230575231385, 0.0, 0.0, 0.0, 0.0, -2569.2436181597254, 0.0]
['beep', 0.0, -3568.053670889577, 0.0, 0.0, 0.0, 0.0, -2570.919998993874, 0.0]
['beep', 0.0, -3567.740746467203, 0.0, 0.0, 0.0, 0.0, -2571.255275160703, 0.0]
['beep', 0.0, -3567.8972086783897, 0.0, 0.0, 0.0, 0.0, -2570.8305920160524, 0.0]
['beep', 0.0, -3567.2043046002755, 0.0, 0.0, 0.0, 0.0, -2571.4117373718905, 0.0]
['beep', 0.0, -3567.1596011113647, 0.0, 0.0, 0.0, 0.0, -2571.0764612050607, 0.0]
['beep', 0.0, -3565.70673772177, 0.0, 0.0, 0.0, 0.0, -2570.718833293776, 0.0]
['beep', 0.0, -3565.8408481885017, 0.0, 0.0, 0.0, 0.0, -2570.1153361934826, 0.0]
['beep', 0.0, -3567.8748569339346, 0.0, 0.0, 0.0, 0.0, -2569.2436181597254, 0.0]
['beep', 0.0, -3568.1654296118536, 0.0, 0.0, 0.0, 0.0, -2570.875295504963, 0.0]
['beep', 0.0, -3567.673691233837, 0.0, 0.0, 0.0, 0.0, -2570.4953158492226, 0.0]
['beep', 0.0, -3567.606636000471, 0.0, 0.0, 0.0, 0.0, -2570.4953158492226, 0.0]
['beep', 0.0, -3567.7183947227472, 0.0, 0.0, 0.0, 0.0, -2571.679958305354, 0.0]
['beep', 0.0, -3568.0983743784877, 0.0, 0.0, 0.0, 0.0, -2570.562371082589, 0.0]
['beep', 0.0, -3568.8359819455127, 0.0, 0.0, 0.0, 0.0, -2571.7023100498095, 0.0]
['beep', 0.0, -3569.0371476456107, 0.0, 0.0, 0.0, 0.0, -2572.4175658723793, 0.0]
['beep', 0.0, -3568.2101331007643, 0.0, 0.0, 0.0, 0.0, -2571.0541094606056, 0.0]
['beep', 0.0, -3567.696042978292, 0.0, 0.0, 0.0, 0.0, -2570.718833293776, 0.0]
['beep', 0.0, -3567.9195604228453, 0.0, 0.0, 0.0, 0.0, -2572.104641450005, 0.0]
['beep', 0.0, -3567.1596011113647, 0.0, 0.0, 0.0, 0.0, -2571.523496094167, 0.0]
['beep', 0.0, -3568.2101331007643, 0.0, 0.0, 0.0, 0.0, -2572.0599379610944, 0.0]
['beep', 0.0, -3568.724223223236, 0.0, 0.0, 0.0, 0.0, -2571.8364205165412, 0.0]
['beep', 0.0, -3567.450173789284, 0.0, 0.0, 0.0, 0.0, -2572.819897272575, 0.0]
['beep', 0.0, -3567.8078017005687, 0.0, 0.0, 0.0, 0.0, -2572.037586216639, 0.0]
['beep', 0.0, -3568.411298800862, 0.0, 0.0, 0.0, 0.0, -2572.328158894558, 0.0]
['beep', 0.0, -3568.076022634032, 0.0, 0.0, 0.0, 0.0, -2573.0657664615833, 0.0]
['beep', 0.0, -3567.606636000471, 0.0, 0.0, 0.0, 0.0, -2572.574028083566, 0.0]
['beep', 0.0, -3568.053670889577, 0.0, 0.0, 0.0, 0.0, -2572.1493449389154, 0.0]
['beep', 0.0, -3567.472525533739, 0.0, 0.0, 0.0, 0.0, -2572.976359483762, 0.0]
['beep', 0.0, -3568.366595311951, 0.0, 0.0, 0.0, 0.0, -2574.496278106723, 0.0]
['beep', 0.0, -3567.986615656211, 0.0, 0.0, 0.0, 0.0, -2573.8033740286082, 0.0]
['beep', 0.0, -3568.388947056407, 0.0, 0.0, 0.0, 0.0, -2573.1551734394043, 0.0]
['beep', 0.0, -3568.0089674006663, 0.0, 0.0, 0.0, 0.0, -2572.6634350613876, 0.0]
['beep', 0.0, -3567.740746467203, 0.0, 0.0, 0.0, 0.0, -2573.1104699504936, 0.0]
['beep', 0.0, -3569.5512377680825, 0.0, 0.0, 0.0, 0.0, -2572.238751916737, 0.0]
['beep', 0.0, -3570.1100313794655, 0.0, 0.0, 0.0, 0.0, -2573.22222867277, 0.0]
['beep', 0.0, -3569.7747552126357, 0.0, 0.0, 0.0, 0.0, -2572.886952505941, 0.0]
['beep', 0.0, -3569.37242381244, 0.0, 0.0, 0.0, 0.0, -2571.255275160703, 0.0]
['beep', 0.0, -3568.478354034228, 0.0, 0.0, 0.0, 0.0, -2571.590551327533, 0.0]
['beep', 0.0, -3567.4278220448286, 0.0, 0.0, 0.0, 0.0, -2572.1493449389154, 0.0]
['beep', 0.0, -3565.483220277217, 0.0, 0.0, 0.0, 0.0, -2571.881124005452, 0.0]
['beep', 0.0, -3565.416165043851, 0.0, 0.0, 0.0, 0.0, -2571.1435164384266, 0.0]
['beep', 0.0, -3565.147944110387, 0.0, 0.0, 0.0, 0.0, -2571.0988129495163, 0.0]
['beep', 0.0, -3564.6338539879152, 0.0, 0.0, 0.0, 0.0, -2571.009405971695, 0.0]
['beep', 0.0, -3566.310234822063, 0.0, 0.0, 0.0, 0.0, -2571.8364205165412, 0.0]
['beep', 0.0, -3567.8748569339346, 0.0, 0.0, 0.0, 0.0, -2571.4340891163456, 0.0]
['beep', 0.0, -3568.366595311951, 0.0, 0.0, 0.0, 0.0, -2571.7693652831754, 0.0]
['beep', 0.0, -3569.439479045806, 0.0, 0.0, 0.0, 0.0, -2571.0541094606056, 0.0]
['beep', 0.0, -3569.8418104460015, 0.0, 0.0, 0.0, 0.0, -2570.1376879379377, 0.0]
['beep', 0.0, -3570.8699906909455, 0.0, 0.0, 0.0, 0.0, -2571.523496094167, 0.0]
['beep', 0.0, -3571.4511360467836, 0.0, 0.0, 0.0, 0.0, -2572.6634350613876, 0.0]
['beep', 0.0, -3570.668824990848, 0.0, 0.0, 0.0, 0.0, -2573.624560072966, 0.0]
['beep', 0.0, -3569.5959412569932, 0.0, 0.0, 0.0, 0.0, -2572.3728623834686, 0.0]
['beep', 0.0, -3568.925388923334, 0.0, 0.0, 0.0, 0.0, -2572.1493449389154, 0.0]
['beep', 0.0, -3569.2606650901635, 0.0, 0.0, 0.0, 0.0, -2573.781022284153, 0.0]
['beep', 0.0, -3569.1042028789766, 0.0, 0.0, 0.0, 0.0, -2574.0939467065273, 0.0]
['beep', 0.0, -3568.344243567496, 0.0, 0.0, 0.0, 0.0, -2573.132821694949, 0.0]
['beep', 0.0, -3569.0371476456107, 0.0, 0.0, 0.0, 0.0, -2573.2445804172257, 0.0]
['beep', 0.0, -3568.8583336899683, 0.0, 0.0, 0.0, 0.0, -2573.3786908839575, 0.0]
['beep', 0.0, -3568.321891823041, 0.0, 0.0, 0.0, 0.0, -2575.3456443960245, 0.0]
['beep', 0.0, -3569.148906367887, 0.0, 0.0, 0.0, 0.0, -2574.898609506918, 0.0]
['beep', 0.0, -3568.6571679898702, 0.0, 0.0, 0.0, 0.0, -2573.4680978617785, 0.0]
['beep', 0.0, -3568.120726122943, 0.0, 0.0, 0.0, 0.0, -2574.071594962072, 0.0]
['beep', 0.0, -3568.1877813563087, 0.0, 0.0, 0.0, 0.0, -2574.0268914731614, 0.0]
['beep', 0.0, -3567.7854499561136, 0.0, 0.0, 0.0, 0.0, -2574.295112406625, 0.0]
['beep', 0.0, -3568.1877813563087, 0.0, 0.0, 0.0, 0.0, -2573.22222867277, 0.0]
['beep', 0.0, -3566.9137319223564, 0.0, 0.0, 0.0, 0.0, -2572.328158894558, 0.0]
['beep', 0.0, -3566.9807871557223, 0.0, 0.0, 0.0, 0.0, -2573.2445804172257, 0.0]
['beep', 0.0, -3567.539580767105, 0.0, 0.0, 0.0, 0.0, -2572.46226936129, 0.0]
['beep', 0.0, -3567.8525051894794, 0.0, 0.0, 0.0, 0.0, -2572.6634350613876, 0.0]
['beep', 0.0, -3568.053670889577, 0.0, 0.0, 0.0, 0.0, -2572.9987112282174, 0.0]
['beep', 0.0, -3567.8078017005687, 0.0, 0.0, 0.0, 0.0, -2572.484621105745, 0.0]
['beep', 0.0, -3567.830153445024, 0.0, 0.0, 0.0, 0.0, -2572.574028083566, 0.0]
['beep', 0.0, -3567.2043046002755, 0.0, 0.0, 0.0, 0.0, -2572.7528420392086, 0.0]
['beep', 0.0, -3567.8078017005687, 0.0, 0.0, 0.0, 0.0, -2574.898609506918, 0.0]
['beep', 0.0, -3567.338415067007, 0.0, 0.0, 0.0, 0.0, -2576.0609002185943, 0.0]
['beep', 0.0, -3568.1877813563087, 0.0, 0.0, 0.0, 0.0, -2574.518629851178, 0.0]
['beep', 0.0, -3568.5007057786834, 0.0, 0.0, 0.0, 0.0, -2573.8257257730634, 0.0]
['beep', 0.0, -3568.4560022897726, 0.0, 0.0, 0.0, 0.0, -2573.5575048396, 0.0]
['beep', 0.0, -3568.2324848452195, 0.0, 0.0, 0.0, 0.0, -2572.9540077393067, 0.0]
['beep', 0.0, -3568.768926712147, 0.0, 0.0, 0.0, 0.0, -2574.6303885734546, 0.0]
['beep', 0.0, -3568.925388923334, 0.0, 0.0, 0.0, 0.0, -2574.429222873357, 0.0]
['beep', 0.0, -3568.2548365896746, 0.0, 0.0, 0.0, 0.0, -2574.0492432176165, 0.0]
['beep', 0.0, -3566.824324944535, 0.0, 0.0, 0.0, 0.0, -2573.7139670507872, 0.0]
['beep', 0.0, -3567.2266563447306, 0.0, 0.0, 0.0, 0.0, -2575.457403118301, 0.0]
['beep', 0.0, -3567.8748569339346, 0.0, 0.0, 0.0, 0.0, -2575.837382774041, 0.0]
['beep', 0.0, -3567.472525533739, 0.0, 0.0, 0.0, 0.0, -2572.551676339111, 0.0]
['beep', 0.0, -3567.092545877999, 0.0, 0.0, 0.0, 0.0, -2573.0434147171277, 0.0]
['beep', 0.0, -3567.092545877999, 0.0, 0.0, 0.0, 0.0, -2573.4457461173233, 0.0]
['beep', 0.0, -3567.047842389088, 0.0, 0.0, 0.0, 0.0, -2573.624560072966, 0.0]
['beep', 0.0, -3566.4890487777056, 0.0, 0.0, 0.0, 0.0, -2574.295112406625, 0.0]
['beep', 0.0, -3566.3549383109735, 0.0, 0.0, 0.0, 0.0, -2574.004539728706, 0.0]
['beep', 0.0, -3565.5949789994934, 0.0, 0.0, 0.0, 0.0, -2572.9987112282174, 0.0]
['beep', 0.0, -3566.6902144778032, 0.0, 0.0, 0.0, 0.0, -2572.819897272575, 0.0]
['beep', 0.0, -3567.2043046002755, 0.0, 0.0, 0.0, 0.0, -2571.1882199273373, 0.0]
['beep', 0.0, -3566.958435411267, 0.0, 0.0, 0.0, 0.0, -2570.3835571269465, 0.0]
['beep', 0.0, -3568.5454092675936, 0.0, 0.0, 0.0, 0.0, -2571.7470135387202, 0.0]
['beep', 0.0, -3568.8806854344234, 0.0, 0.0, 0.0, 0.0, -2571.2776269051587, 0.0]
['beep', 0.0, -3568.478354034228, 0.0, 0.0, 0.0, 0.0, -2571.5011443497115, 0.0]
['beep', 0.0, -3568.925388923334, 0.0, 0.0, 0.0, 0.0, -2570.607074571499, 0.0]
['beep', 0.0, -3568.5901127565044, 0.0, 0.0, 0.0, 0.0, -2570.875295504963, 0.0]
['beep', 0.0, -3568.388947056407, 0.0, 0.0, 0.0, 0.0, -2571.4340891163456, 0.0]
['beep', 0.0, -3568.411298800862, 0.0, 0.0, 0.0, 0.0, -2571.7246617942646, 0.0]
['beep', 0.0, -3568.344243567496, 0.0, 0.0, 0.0, 0.0, -2571.165868182882, 0.0]
['beep', 0.0, -3568.5230575231385, 0.0, 0.0, 0.0, 0.0, -2571.2776269051587, 0.0]
['beep', 0.0, -3567.8748569339346, 0.0, 0.0, 0.0, 0.0, -2571.7246617942646, 0.0]
['beep', 0.0, -3567.6513394893814, 0.0, 0.0, 0.0, 0.0, -2571.6352548164436, 0.0]
['beep', 0.0, -3568.478354034228, 0.0, 0.0, 0.0, 0.0, -2570.919998993874, 0.0]
['beep', 0.0, -3569.1042028789766, 0.0, 0.0, 0.0, 0.0, -2571.03175771615, 0.0]
['beep', 0.0, -3568.5901127565044, 0.0, 0.0, 0.0, 0.0, -2571.0988129495163, 0.0]
['beep', 0.0, -3569.059499390066, 0.0, 0.0, 0.0, 0.0, -2570.8976472494182, 0.0]
['beep', 0.0, -3568.8806854344234, 0.0, 0.0, 0.0, 0.0, -2571.545847838622, 0.0]
['beep', 0.0, -3568.701871478781, 0.0, 0.0, 0.0, 0.0, -2572.4399176168345, 0.0]
['beep', 0.0, -3570.1770866128313, 0.0, 0.0, 0.0, 0.0, -2572.6634350613876, 0.0]
['beep', 0.0, -3570.042976146099, 0.0, 0.0, 0.0, 0.0, -2571.3446821385246, 0.0]
['beep', 0.0, -3569.5959412569932, 0.0, 0.0, 0.0, 0.0, -2570.2494466602143, 0.0]
['beep', 0.0, -3570.333548824018, 0.0, 0.0, 0.0, 0.0, -2570.942350738329, 0.0]
['beep', 0.0, -3570.3559005684738, 0.0, 0.0, 0.0, 0.0, -2571.612903071988, 0.0]
['beep', 0.0, -3568.925388923334, 0.0, 0.0, 0.0, 0.0, -2570.718833293776, 0.0]
['beep', 0.0, -3568.053670889577, 0.0, 0.0, 0.0, 0.0, -2572.4399176168345, 0.0]
['beep', 0.0, -3568.925388923334, 0.0, 0.0, 0.0, 0.0, -2572.46226936129, 0.0]
['beep', 0.0, -3568.4560022897726, 0.0, 0.0, 0.0, 0.0, -2572.2164001722813, 0.0]
['beep', 0.0, -3569.797106957091, 0.0, 0.0, 0.0, 0.0, -2572.574028083566, 0.0]
['beep', 0.0, -3571.048804646588, 0.0, 0.0, 0.0, 0.0, -2572.1493449389154, 0.0]
['beep', 0.0, -3571.339377324507, 0.0, 0.0, 0.0, 0.0, -2571.590551327533, 0.0]
['beep', 0.0, -3570.5570662685714, 0.0, 0.0, 0.0, 0.0, -2572.551676339111, 0.0]
['beep', 0.0, -3571.3840808134178, 0.0, 0.0, 0.0, 0.0, -2572.194048427826, 0.0]
['beep', 0.0, -3570.4453075462948, 0.0, 0.0, 0.0, 0.0, -2572.7304902947535, 0.0]
['beep', 0.0, -3570.7135284797587, 0.0, 0.0, 0.0, 0.0, -2572.4399176168345, 0.0]
['beep', 0.0, -3570.8029354575797, 0.0, 0.0, 0.0, 0.0, -2573.0434147171277, 0.0]
['beep', 0.0, -3570.378252312929, 0.0, 0.0, 0.0, 0.0, -2573.4457461173233, 0.0]
['beep', 0.0, -3570.8252872020353, 0.0, 0.0, 0.0, 0.0, -2572.819897272575, 0.0]
['beep', 0.0, -3570.624121501937, 0.0, 0.0, 0.0, 0.0, -2572.7081385502984, 0.0]
['beep', 0.0, -3569.931217423823, 0.0, 0.0, 0.0, 0.0, -2571.2776269051587, 0.0]
['beep', 0.0, -3569.148906367887, 0.0, 0.0, 0.0, 0.0, -2571.5011443497115, 0.0]
['beep', 0.0, -3568.478354034228, 0.0, 0.0, 0.0, 0.0, -2573.1551734394043, 0.0]
['beep', 0.0, -3568.388947056407, 0.0, 0.0, 0.0, 0.0, -2574.6750920623654, 0.0]
['beep', 0.0, -3568.5007057786834, 0.0, 0.0, 0.0, 0.0, -2573.5575048396, 0.0]
['beep', 0.0, -3568.120726122943, 0.0, 0.0, 0.0, 0.0, -2571.948179238818, 0.0]
['beep', 0.0, -3568.701871478781, 0.0, 0.0, 0.0, 0.0, -2572.909304250396, 0.0]
['beep', 0.0, -3568.701871478781, 0.0, 0.0, 0.0, 0.0, -2572.596379828022, 0.0]
['beep', 0.0, -3568.724223223236, 0.0, 0.0, 0.0, 0.0, -2571.4117373718905, 0.0]
['beep', 0.0, -3569.1712581123425, 0.0, 0.0, 0.0, 0.0, -2572.7081385502984, 0.0]
['beep', 0.0, -3569.3277203235293, 0.0, 0.0, 0.0, 0.0, -2572.886952505941, 0.0]
['beep', 0.0, -3568.0983743784877, 0.0, 0.0, 0.0, 0.0, -2572.3952141279237, 0.0]
['beep', 0.0, -3568.076022634032, 0.0, 0.0, 0.0, 0.0, -2572.976359483762, 0.0]
['beep', 0.0, -3568.8359819455127, 0.0, 0.0, 0.0, 0.0, -2574.2727606621697, 0.0]
['beep', 0.0, -3569.283016834619, 0.0, 0.0, 0.0, 0.0, -2573.6692635618765, 0.0]
['beep', 0.0, -3569.014795901155, 0.0, 0.0, 0.0, 0.0, -2572.6634350613876, 0.0]
['beep', 0.0, -3569.2606650901635, 0.0, 0.0, 0.0, 0.0, -2573.199876928315, 0.0]
['beep', 0.0, -3568.701871478781, 0.0, 0.0, 0.0, 0.0, -2573.512801350689, 0.0]
['beep', 0.0, -3568.388947056407, 0.0, 0.0, 0.0, 0.0, -2573.3786908839575, 0.0]
['beep', 0.0, -3569.059499390066, 0.0, 0.0, 0.0, 0.0, -2574.071594962072, 0.0]
['beep', 0.0, -3570.4900110352055, 0.0, 0.0, 0.0, 0.0, -2573.1551734394043, 0.0]
['beep', 0.0, -3571.1605633688646, 0.0, 0.0, 0.0, 0.0, -2572.3728623834686, 0.0]
['beep', 0.0, -3569.37242381244, 0.0, 0.0, 0.0, 0.0, -2571.1882199273373, 0.0]
['beep', 0.0, -3570.08767963501, 0.0, 0.0, 0.0, 0.0, -2573.3786908839575, 0.0]
['beep', 0.0, -3569.8194587015464, 0.0, 0.0, 0.0, 0.0, -2572.484621105745, 0.0]
['beep', 0.0, -3570.020624401644, 0.0, 0.0, 0.0, 0.0, -2571.299978649614, 0.0]
['beep', 0.0, -3569.8641621904567, 0.0, 0.0, 0.0, 0.0, -2572.84224901703, 0.0]
['beep', 0.0, -3569.931217423823, 0.0, 0.0, 0.0, 0.0, -2572.6634350613876, 0.0]
['beep', 0.0, -3569.1936098567976, 0.0, 0.0, 0.0, 0.0, -2571.8587722609964, 0.0]
['beep', 0.0, -3568.768926712147, 0.0, 0.0, 0.0, 0.0, -2572.886952505941, 0.0]
['beep', 0.0, -3569.5959412569932, 0.0, 0.0, 0.0, 0.0, -2572.6410833169325, 0.0]
['beep', 0.0, -3569.6182930014484, 0.0, 0.0, 0.0, 0.0, -2572.9540077393067, 0.0]
['beep', 0.0, -3569.081851134521, 0.0, 0.0, 0.0, 0.0, -2572.9987112282174, 0.0]
['beep', 0.0, -3569.5512377680825, 0.0, 0.0, 0.0, 0.0, -2573.7586705396975, 0.0]
['beep', 0.0, -3569.4618307902615, 0.0, 0.0, 0.0, 0.0, -2572.0822897055496, 0.0]
['beep', 0.0, -3569.37242381244, 0.0, 0.0, 0.0, 0.0, -2571.0541094606056, 0.0]
['beep', 0.0, -3569.1712581123425, 0.0, 0.0, 0.0, 0.0, -2570.8529437605075, 0.0]
['beep', 0.0, -3569.730051723725, 0.0, 0.0, 0.0, 0.0, -2571.7023100498095, 0.0]
['beep', 0.0, -3567.606636000471, 0.0, 0.0, 0.0, 0.0, -2571.0764612050607, 0.0]
['beep', 0.0, -3566.9137319223564, 0.0, 0.0, 0.0, 0.0, -2570.8305920160524, 0.0]
['beep', 0.0, -3567.1596011113647, 0.0, 0.0, 0.0, 0.0, -2571.2776269051587, 0.0]
['beep', 0.0, -3565.6843859773144, 0.0, 0.0, 0.0, 0.0, -2571.1435164384266, 0.0]
['beep', 0.0, -3565.6620342328592, 0.0, 0.0, 0.0, 0.0, -2570.9870542272397, 0.0]
['beep', 0.0, -3566.3549383109735, 0.0, 0.0, 0.0, 0.0, -2571.4787926052563, 0.0]
['beep', 0.0, -3566.2208278442417, 0.0, 0.0, 0.0, 0.0, -2572.238751916737, 0.0]
['beep', 0.0, -3566.734917966714, 0.0, 0.0, 0.0, 0.0, -2570.361205382491, 0.0]
['beep', 0.0, -3567.606636000471, 0.0, 0.0, 0.0, 0.0, -2570.361205382491, 0.0]
['beep', 0.0, -3568.634816245415, 0.0, 0.0, 0.0, 0.0, -2570.919998993874, 0.0]
['beep', 0.0, -3568.5901127565044, 0.0, 0.0, 0.0, 0.0, -2571.165868182882, 0.0]
['beep', 0.0, -3569.1712581123425, 0.0, 0.0, 0.0, 0.0, -2572.194048427826, 0.0]
['beep', 0.0, -3568.5454092675936, 0.0, 0.0, 0.0, 0.0, -2569.9588739822952, 0.0]
['beep', 0.0, -3565.9749586552334, 0.0, 0.0, 0.0, 0.0, -2569.5118390931893, 0.0]
['beep', 0.0, -3565.9973103996886, 0.0, 0.0, 0.0, 0.0, -2570.629426315955, 0.0]
['beep', 0.0, -3570.7805837131245, 0.0, 0.0, 0.0, 0.0, -2570.0482809601167, 0.0]
['beep', 0.0, -3572.211095358264, 0.0, 0.0, 0.0, 0.0, -2569.489487348734, 0.0]
['beep', 0.0, -3571.3840808134178, 0.0, 0.0, 0.0, 0.0, -2570.0259292156616, 0.0]
['beep', 0.0, -3570.333548824018, 0.0, 0.0, 0.0, 0.0, -2568.1483826814156, 0.0]
['beep', 0.0, -3570.2217901017416, 0.0, 0.0, 0.0, 0.0, -2568.2154379147814, 0.0]
['beep', 0.0, -3570.668824990848, 0.0, 0.0, 0.0, 0.0, -2567.5001820922116, 0.0]
['beep', 0.0, -3570.7135284797587, 0.0, 0.0, 0.0, 0.0, -2568.5283623371556, 0.0]
['beep', 0.0, -3570.892342435401, 0.0, 0.0, 0.0, 0.0, -2569.690653048832, 0.0]
['beep', 0.0, -3570.7582319686694, 0.0, 0.0, 0.0, 0.0, -2569.93652223784, 0.0]
['beep', 0.0, -3570.7135284797587, 0.0, 0.0, 0.0, 0.0, -2570.1153361934826, 0.0]
['beep', 0.0, -3572.568723269549, 0.0, 0.0, 0.0, 0.0, -2571.7693652831754, 0.0]
['beep', 0.0, -3572.4122610583618, 0.0, 0.0, 0.0, 0.0, -2569.713004793287, 0.0]
['beep', 0.0, -3571.8087639580685, 0.0, 0.0, 0.0, 0.0, -2569.93652223784, 0.0]
['beep', 0.0, -3570.691176735303, 0.0, 0.0, 0.0, 0.0, -2570.7635367826865, 0.0]
['beep', 0.0, -3570.1100313794655, 0.0, 0.0, 0.0, 0.0, -2570.5400193381333, 0.0]
['beep', 0.0, -3567.5842842560155, 0.0, 0.0, 0.0, 0.0, -2569.7577082821977, 0.0]
['beep', 0.0, -3567.6289877449262, 0.0, 0.0, 0.0, 0.0, -2569.198914670815, 0.0]
['beep', 0.0, -3567.1372493669096, 0.0, 0.0, 0.0, 0.0, -2569.5118390931893, 0.0]
['beep', 0.0, -3566.2655313331525, 0.0, 0.0, 0.0, 0.0, -2568.8189350150747, 0.0]
['beep', 0.0, -3566.5561040110715, 0.0, 0.0, 0.0, 0.0, -2567.097850692016, 0.0]
['beep', 0.0, -3568.27718833413, 0.0, 0.0, 0.0, 0.0, -2567.522533836667, 0.0]
['beep', 0.0, -3568.8806854344234, 0.0, 0.0, 0.0, 0.0, -2568.4613071037897, 0.0]
['beep', 0.0, -3570.400604057384, 0.0, 0.0, 0.0, 0.0, -2569.8024117711084, 0.0]
['beep', 0.0, -3571.339377324507, 0.0, 0.0, 0.0, 0.0, -2569.355376882002, 0.0]
['beep', 0.0, -3570.8029354575797, 0.0, 0.0, 0.0, 0.0, -2569.8247635155635, 0.0]
['beep', 0.0, -3571.339377324507, 0.0, 0.0, 0.0, 0.0, -2569.690653048832, 0.0]
['beep', 0.0, -3571.7193569802475, 0.0, 0.0, 0.0, 0.0, -2568.997748970717, 0.0]
['beep', 0.0, -3570.691176735303, 0.0, 0.0, 0.0, 0.0, -2568.4166036148795, 0.0]
['beep', 0.0, -3569.7524034681805, 0.0, 0.0, 0.0, 0.0, -2569.0201007151727, 0.0]
['beep', 0.0, -3568.5901127565044, 0.0, 0.0, 0.0, 0.0, -2568.1930861703263, 0.0]
['beep', 0.0, -3570.1323831239206, 0.0, 0.0, 0.0, 0.0, -2567.7907547701307, 0.0]
['beep', 0.0, -3571.0711563910436, 0.0, 0.0, 0.0, 0.0, -2568.5730658260663, 0.0]
['beep', 0.0, -3570.5123627796606, 0.0, 0.0, 0.0, 0.0, -2569.355376882002, 0.0]
['beep', 0.0, -3569.9088656793674, 0.0, 0.0, 0.0, 0.0, -2569.198914670815, 0.0]
['beep', 0.0, -3570.7135284797587, 0.0, 0.0, 0.0, 0.0, -2570.629426315955, 0.0]
['beep', 0.0, -3571.339377324507, 0.0, 0.0, 0.0, 0.0, -2568.953045481807, 0.0]
['beep', 0.0, -3570.579418013027, 0.0, 0.0, 0.0, 0.0, -2569.3106733930917, 0.0]
['beep', 0.0, -3570.2664935906523, 0.0, 0.0, 0.0, 0.0, -2570.65177806041, 0.0]
['beep', 0.0, -3570.400604057384, 0.0, 0.0, 0.0, 0.0, -2569.198914670815, 0.0]
['beep', 0.0, -3569.640644745904, 0.0, 0.0, 0.0, 0.0, -2568.014272214684, 0.0]
['beep', 0.0, -3570.2664935906523, 0.0, 0.0, 0.0, 0.0, -2569.8247635155635, 0.0]
['beep', 0.0, -3569.3277203235293, 0.0, 0.0, 0.0, 0.0, -2570.8305920160524, 0.0]
['beep', 0.0, -3569.059499390066, 0.0, 0.0, 0.0, 0.0, -2570.227094915759, 0.0]
['beep', 0.0, -3568.701871478781, 0.0, 0.0, 0.0, 0.0, -2569.355376882002, 0.0]
['beep', 0.0, -3568.1877813563087, 0.0, 0.0, 0.0, 0.0, -2568.707176292798, 0.0]
['beep', 0.0, -3568.388947056407, 0.0, 0.0, 0.0, 0.0, -2568.908341992896, 0.0]
['beep', 0.0, -3569.1042028789766, 0.0, 0.0, 0.0, 0.0, -2568.751879781709, 0.0]
['beep', 0.0, -3568.478354034228, 0.0, 0.0, 0.0, 0.0, -2569.8024117711084, 0.0]
['beep', 0.0, -3568.388947056407, 0.0, 0.0, 0.0, 0.0, -2570.942350738329, 0.0]
['beep', 0.0, -3568.076022634032, 0.0, 0.0, 0.0, 0.0, -2570.584722827044, 0.0]
['beep', 0.0, -3569.0371476456107, 0.0, 0.0, 0.0, 0.0, -2569.780060026653, 0.0]
['beep', 0.0, -3569.3277203235293, 0.0, 0.0, 0.0, 0.0, -2569.6012460710103, 0.0]
['beep', 0.0, -3568.2324848452195, 0.0, 0.0, 0.0, 0.0, -2569.0201007151727, 0.0]
['beep', 0.0, -3568.076022634032, 0.0, 0.0, 0.0, 0.0, -2569.780060026653, 0.0]
['beep', 0.0, -3570.4229558018396, 0.0, 0.0, 0.0, 0.0, -2569.1542111819044, 0.0]
['beep', 0.0, -3570.378252312929, 0.0, 0.0, 0.0, 0.0, -2570.3835571269465, 0.0]
['beep', 0.0, -3568.388947056407, 0.0, 0.0, 0.0, 0.0, -2569.780060026653, 0.0]
['beep', 0.0, -3567.450173789284, 0.0, 0.0, 0.0, 0.0, -2569.5565425821, 0.0]
['beep', 0.0, -3568.9477406677893, 0.0, 0.0, 0.0, 0.0, -2570.4953158492226, 0.0]
['beep', 0.0, -3569.417127301351, 0.0, 0.0, 0.0, 0.0, -2570.204743171304, 0.0]
['beep', 0.0, -3568.5007057786834, 0.0, 0.0, 0.0, 0.0, -2569.93652223784, 0.0]
['beep', 0.0, -3569.5512377680825, 0.0, 0.0, 0.0, 0.0, -2570.562371082589, 0.0]
['beep', 0.0, -3569.4841825347166, 0.0, 0.0, 0.0, 0.0, -2569.713004793287, 0.0]
['beep', 0.0, -3568.053670889577, 0.0, 0.0, 0.0, 0.0, -2570.1600396823933, 0.0]
['beep', 0.0, -3568.27718833413, 0.0, 0.0, 0.0, 0.0, -2571.7246617942646, 0.0]
['beep', 0.0, -3568.2101331007643, 0.0, 0.0, 0.0, 0.0, -2572.2834554056476, 0.0]
['beep', 0.0, -3568.1430778673985, 0.0, 0.0, 0.0, 0.0, -2571.4117373718905, 0.0]
['beep', 0.0, -3568.4560022897726, 0.0, 0.0, 0.0, 0.0, -2569.780060026653, 0.0]
['beep', 0.0, -3568.701871478781, 0.0, 0.0, 0.0, 0.0, -2568.7295280372537, 0.0]
['beep', 0.0, -3567.539580767105, 0.0, 0.0, 0.0, 0.0, -2568.550714081611, 0.0]
['beep', 0.0, -3568.388947056407, 0.0, 0.0, 0.0, 0.0, -2568.707176292798, 0.0]
['beep', 0.0, -3568.031319145122, 0.0, 0.0, 0.0, 0.0, -2568.8189350150747, 0.0]
['beep', 0.0, -3567.9195604228453, 0.0, 0.0, 0.0, 0.0, -2570.204743171304, 0.0]
['beep', 0.0, -3568.1430778673985, 0.0, 0.0, 0.0, 0.0, -2570.607074571499, 0.0]
['beep', 0.0, -3567.8748569339346, 0.0, 0.0, 0.0, 0.0, -2568.3719001259688, 0.0]
['beep', 0.0, -3568.388947056407, 0.0, 0.0, 0.0, 0.0, -2568.4389553593346, 0.0]
['beep', 0.0, -3568.27718833413, 0.0, 0.0, 0.0, 0.0, -2567.522533836667, 0.0]
['beep', 0.0, -3566.533752266616, 0.0, 0.0, 0.0, 0.0, -2565.6002838135105, 0.0]
['beep', 0.0, -3567.1372493669096, 0.0, 0.0, 0.0, 0.0, -2566.136725680438, 0.0]
['beep', 0.0, -3567.964263911756, 0.0, 0.0, 0.0, 0.0, -2567.321368136569, 0.0]
['beep', 0.0, -3568.1430778673985, 0.0, 0.0, 0.0, 0.0, -2568.260141403692, 0.0]
['beep', 0.0, -3569.37242381244, 0.0, 0.0, 0.0, 0.0, -2568.260141403692, 0.0]
['beep', 0.0, -3569.5288860236274, 0.0, 0.0, 0.0, 0.0, -2568.1260309369604, 0.0]
['beep', 0.0, -3568.388947056407, 0.0, 0.0, 0.0, 0.0, -2567.9025134924073, 0.0]
['beep', 0.0, -3568.344243567496, 0.0, 0.0, 0.0, 0.0, -2567.74605128122, 0.0]
['beep', 0.0, -3567.696042978292, 0.0, 0.0, 0.0, 0.0, -2568.908341992896, 0.0]
['beep', 0.0, -3568.791278456602, 0.0, 0.0, 0.0, 0.0, -2567.880161747952, 0.0]
['beep', 0.0, -3567.8748569339346, 0.0, 0.0, 0.0, 0.0, -2567.2543129032033, 0.0]
['beep', 0.0, -3567.1372493669096, 0.0, 0.0, 0.0, 0.0, -2567.075498947561, 0.0]
['beep', 0.0, -3567.8078017005687, 0.0, 0.0, 0.0, 0.0, -2567.522533836667, 0.0]
['beep', 0.0, -3567.4948772781945, 0.0, 0.0, 0.0, 0.0, -2568.327196637058, 0.0]
['beep', 0.0, -3567.450173789284, 0.0, 0.0, 0.0, 0.0, -2568.8412867595302, 0.0]
['beep', 0.0, -3568.2101331007643, 0.0, 0.0, 0.0, 0.0, -2567.5672373255775, 0.0]
['beep', 0.0, -3567.6513394893814, 0.0, 0.0, 0.0, 0.0, -2566.8966849919184, 0.0]
['beep', 0.0, -3567.1372493669096, 0.0, 0.0, 0.0, 0.0, -2568.036623959139, 0.0]
['beep', 0.0, -3568.076022634032, 0.0, 0.0, 0.0, 0.0, -2568.707176292798, 0.0]
['beep', 0.0, -3568.9477406677893, 0.0, 0.0, 0.0, 0.0, -2568.707176292798, 0.0]
['beep', 0.0, -3568.1430778673985, 0.0, 0.0, 0.0, 0.0, -2568.349548381513, 0.0]
['beep', 0.0, -3567.673691233837, 0.0, 0.0, 0.0, 0.0, -2568.595417570522, 0.0]
['beep', 0.0, -3567.2043046002755, 0.0, 0.0, 0.0, 0.0, -2568.304844892603, 0.0]
['beep', 0.0, -3569.2606650901635, 0.0, 0.0, 0.0, 0.0, -2568.595417570522, 0.0]
['beep', 0.0, -3568.679519734326, 0.0, 0.0, 0.0, 0.0, -2567.1425541809267, 0.0]
['beep', 0.0, -3568.724223223236, 0.0, 0.0, 0.0, 0.0, -2567.589589070033, 0.0]
['beep', 0.0, -3568.5901127565044, 0.0, 0.0, 0.0, 0.0, -2568.7742315261644, 0.0]
['beep', 0.0, -3568.8136302010575, 0.0, 0.0, 0.0, 0.0, -2566.4720018472676, 0.0]
['beep', 0.0, -3568.6571679898702, 0.0, 0.0, 0.0, 0.0, -2567.4107751143906, 0.0]
['beep', 0.0, -3569.6853482348142, 0.0, 0.0, 0.0, 0.0, -2568.2824931481473, 0.0]
['beep', 0.0, -3569.7747552126357, 0.0, 0.0, 0.0, 0.0, -2567.0531472031057, 0.0]
['beep', 0.0, -3570.8476389464904, 0.0, 0.0, 0.0, 0.0, -2566.784926269642, 0.0]
['beep', 0.0, -3570.333548824018, 0.0, 0.0, 0.0, 0.0, -2567.321368136569, 0.0]
['beep', 0.0, -3570.624121501937, 0.0, 0.0, 0.0, 0.0, -2568.0813274480497, 0.0]
['beep', 0.0, -3570.378252312929, 0.0, 0.0, 0.0, 0.0, -2568.997748970717, 0.0]
['beep', 0.0, -3569.1265546234317, 0.0, 0.0, 0.0, 0.0, -2571.4787926052563, 0.0]
['beep', 0.0, -3569.1042028789766, 0.0, 0.0, 0.0, 0.0, -2568.7965832706195, 0.0]
['beep', 0.0, -3568.6124645009595, 0.0, 0.0, 0.0, 0.0, -2566.8296297585525, 0.0]
['beep', 0.0, -3568.2995400785853, 0.0, 0.0, 0.0, 0.0, -2567.611940814488, 0.0]
['beep', 0.0, -3569.4841825347166, 0.0, 0.0, 0.0, 0.0, -2568.707176292798, 0.0]
['beep', 0.0, -3568.9477406677893, 0.0, 0.0, 0.0, 0.0, -2568.8636385039854, 0.0]
['beep', 0.0, -3568.388947056407, 0.0, 0.0, 0.0, 0.0, -2567.4778303477565, 0.0]
['beep', 0.0, -3567.6513394893814, 0.0, 0.0, 0.0, 0.0, -2566.8966849919184, 0.0]
['beep', 0.0, -3567.338415067007, 0.0, 0.0, 0.0, 0.0, -2566.4720018472676, 0.0]
['beep', 0.0, -3568.8583336899683, 0.0, 0.0, 0.0, 0.0, -2567.522533836667, 0.0]
['beep', 0.0, -3569.439479045806, 0.0, 0.0, 0.0, 0.0, -2568.3719001259688, 0.0]
['beep', 0.0, -3569.730051723725, 0.0, 0.0, 0.0, 0.0, -2567.5672373255775, 0.0]
['beep', 0.0, -3568.1654296118536, 0.0, 0.0, 0.0, 0.0, -2567.9248652368624, 0.0]
['beep', 0.0, -3569.059499390066, 0.0, 0.0, 0.0, 0.0, -2568.640121059432, 0.0]
['beep', 0.0, -3569.8865139349123, 0.0, 0.0, 0.0, 0.0, -2568.327196637058, 0.0]
['beep', 0.0, -3570.1770866128313, 0.0, 0.0, 0.0, 0.0, -2569.8024117711084, 0.0]
['beep', 0.0, -3569.439479045806, 0.0, 0.0, 0.0, 0.0, -2570.003577471206, 0.0]
['beep', 0.0, -3569.70769997927, 0.0, 0.0, 0.0, 0.0, -2568.7742315261644, 0.0]
['beep', 0.0, -3569.5959412569932, 0.0, 0.0, 0.0, 0.0, -2569.333025137547, 0.0]
['beep', 0.0, -3569.7747552126357, 0.0, 0.0, 0.0, 0.0, -2568.617769314977, 0.0]
['beep', 0.0, -3568.7465749676917, 0.0, 0.0, 0.0, 0.0, -2568.3719001259688, 0.0]
['beep', 0.0, -3567.450173789284, 0.0, 0.0, 0.0, 0.0, -2568.8636385039854, 0.0]
['beep', 0.0, -3568.8583336899683, 0.0, 0.0, 0.0, 0.0, -2569.4447838598235, 0.0]
['beep', 0.0, -3569.1936098567976, 0.0, 0.0, 0.0, 0.0, -2568.9306937373512, 0.0]
['beep', 0.0, -3569.5512377680825, 0.0, 0.0, 0.0, 0.0, -2568.595417570522, 0.0]
['beep', 0.0, -3569.37242381244, 0.0, 0.0, 0.0, 0.0, -2569.265969904181, 0.0]
['beep', 0.0, -3569.8418104460015, 0.0, 0.0, 0.0, 0.0, -2568.5060105927005, 0.0]
['beep', 0.0, -3569.305368579074, 0.0, 0.0, 0.0, 0.0, -2569.265969904181, 0.0]
['beep', 0.0, -3568.634816245415, 0.0, 0.0, 0.0, 0.0, -2567.7013477923097, 0.0]
['beep', 0.0, -3568.679519734326, 0.0, 0.0, 0.0, 0.0, -2568.4613071037897, 0.0]
['beep', 0.0, -3570.378252312929, 0.0, 0.0, 0.0, 0.0, -2569.623597815466, 0.0]
['beep', 0.0, -3569.9088656793674, 0.0, 0.0, 0.0, 0.0, -2568.2154379147814, 0.0]
['beep', 0.0, -3568.8806854344234, 0.0, 0.0, 0.0, 0.0, -2568.684824548343, 0.0]
['beep', 0.0, -3569.37242381244, 0.0, 0.0, 0.0, 0.0, -2568.7295280372537, 0.0]
['beep', 0.0, -3569.6182930014484, 0.0, 0.0, 0.0, 0.0, -2568.5060105927005, 0.0]
['beep', 0.0, -3569.6853482348142, 0.0, 0.0, 0.0, 0.0, -2566.695519291821, 0.0]
['beep', 0.0, -3570.2217901017416, 0.0, 0.0, 0.0, 0.0, -2567.2096094142926, 0.0]
['beep', 0.0, -3568.366595311951, 0.0, 0.0, 0.0, 0.0, -2568.036623959139, 0.0]
['beep', 0.0, -3568.8136302010575, 0.0, 0.0, 0.0, 0.0, -2567.7013477923097, 0.0]
['beep', 0.0, -3568.5677610120492, 0.0, 0.0, 0.0, 0.0, -2568.1483826814156, 0.0]
['beep', 0.0, -3568.5454092675936, 0.0, 0.0, 0.0, 0.0, -2567.589589070033, 0.0]
['beep', 0.0, -3568.701871478781, 0.0, 0.0, 0.0, 0.0, -2567.075498947561, 0.0]
['beep', 0.0, -3569.70769997927, 0.0, 0.0, 0.0, 0.0, -2567.522533836667, 0.0]
['beep', 0.0, -3570.691176735303, 0.0, 0.0, 0.0, 0.0, -2568.1260309369604, 0.0]
['beep', 0.0, -3571.1158598799543, 0.0, 0.0, 0.0, 0.0, -2568.1483826814156, 0.0]
['beep', 0.0, -3571.4958395356944, 0.0, 0.0, 0.0, 0.0, -2569.1318594374493, 0.0]
['beep', 0.0, -3571.1605633688646, 0.0, 0.0, 0.0, 0.0, -2567.097850692016, 0.0]
['beep', 0.0, -3568.925388923334, 0.0, 0.0, 0.0, 0.0, -2567.231961158748, 0.0]
['beep', 0.0, -3569.1042028789766, 0.0, 0.0, 0.0, 0.0, -2567.075498947561, 0.0]
['beep', 0.0, -3570.5570662685714, 0.0, 0.0, 0.0, 0.0, -2567.36607162548, 0.0]
['beep', 0.0, -3570.1100313794655, 0.0, 0.0, 0.0, 0.0, -2568.2154379147814, 0.0]
['beep', 0.0, -3569.439479045806, 0.0, 0.0, 0.0, 0.0, -2566.807278014097, 0.0]
['beep', 0.0, -3570.042976146099, 0.0, 0.0, 0.0, 0.0, -2567.164905925382, 0.0]
['beep', 0.0, -3570.1994383572865, 0.0, 0.0, 0.0, 0.0, -2567.7907547701307, 0.0]
['beep', 0.0, -3570.1547348683757, 0.0, 0.0, 0.0, 0.0, -2567.813106514586, 0.0]
['beep', 0.0, -3570.0653278905547, 0.0, 0.0, 0.0, 0.0, -2567.1425541809267, 0.0]
['beep', 0.0, -3569.3277203235293, 0.0, 0.0, 0.0, 0.0, -2568.036623959139, 0.0]
['beep', 0.0, -3570.333548824018, 0.0, 0.0, 0.0, 0.0, -2567.4107751143906, 0.0]
['beep', 0.0, -3569.6182930014484, 0.0, 0.0, 0.0, 0.0, -2565.712042535787, 0.0]
['beep', 0.0, -3570.042976146099, 0.0, 0.0, 0.0, 0.0, -2566.4720018472676, 0.0]
['beep', 0.0, -3572.3675575694515, 0.0, 0.0, 0.0, 0.0, -2567.097850692016, 0.0]
['beep', 0.0, -3571.18291511332, 0.0, 0.0, 0.0, 0.0, -2565.734394280242, 0.0]
['beep', 0.0, -3570.4229558018396, 0.0, 0.0, 0.0, 0.0, -2566.2484844027144, 0.0]
['beep', 0.0, -3570.691176735303, 0.0, 0.0, 0.0, 0.0, -2567.1425541809267, 0.0]
['beep', 0.0, -3571.0041011576777, 0.0, 0.0, 0.0, 0.0, -2568.036623959139, 0.0]
['beep', 0.0, -3571.0711563910436, 0.0, 0.0, 0.0, 0.0, -2569.198914670815, 0.0]
['beep', 0.0, -3571.2052668577753, 0.0, 0.0, 0.0, 0.0, -2568.260141403692, 0.0]
['beep', 0.0, -3571.18291511332, 0.0, 0.0, 0.0, 0.0, -2567.008443714195, 0.0]
['beep', 0.0, -3570.7582319686694, 0.0, 0.0, 0.0, 0.0, -2568.237789659237, 0.0]
['beep', 0.0, -3571.5852465135154, 0.0, 0.0, 0.0, 0.0, -2569.578894326555, 0.0]
['beep', 0.0, -3571.4958395356944, 0.0, 0.0, 0.0, 0.0, -2568.8859902484405, 0.0]
['beep', 0.0, -3571.831115702524, 0.0, 0.0, 0.0, 0.0, -2568.4389553593346, 0.0]
['beep', 0.0, -3571.965226169256, 0.0, 0.0, 0.0, 0.0, -2568.3719001259688, 0.0]
['beep', 0.0, -3571.697005235792, 0.0, 0.0, 0.0, 0.0, -2569.0871559485386, 0.0]
['beep', 0.0, -3572.7251854807364, 0.0, 0.0, 0.0, 0.0, -2568.751879781709, 0.0]
['beep', 0.0, -3571.629950002426, 0.0, 0.0, 0.0, 0.0, -2568.975397226262, 0.0]
['beep', 0.0, -3571.048804646588, 0.0, 0.0, 0.0, 0.0, -2568.260141403692, 0.0]
['beep', 0.0, -3570.1547348683757, 0.0, 0.0, 0.0, 0.0, -2567.813106514586, 0.0]
['beep', 0.0, -3572.61342675846, 0.0, 0.0, 0.0, 0.0, -2568.0813274480497, 0.0]
['beep', 0.0, -3572.635778502915, 0.0, 0.0, 0.0, 0.0, -2568.5730658260663, 0.0]
