[[-3535.3977722403733, -3535.9118623628456, -3534.3919437398845, -3532.7379146501917, -3533.3190600060298, -3535.12955130691, -3534.123722806421, -3535.0177925846333, -3532.6932111612814, -3532.3355832499965, -3536.2024350407646, -3535.576586196016, -3534.5931094399825, -3534.1013710619654, -3534.056667573055, -3536.090676318488, -3536.381248996407, -3534.280185017608, -3532.7155629057365, -3533.7213914062254, -3537.409429241351, -3536.9176908633344, -3534.4589989732503, -3534.41429548434, -3533.855501872957, -3533.2967082615746, -3534.146074550876, -3532.2014727832643, -3533.9449088507786, -3534.7495716511694, -3533.520225706128, -3535.151903051365, -3536.113028062943, -3534.4589989732503, -3534.0119640841444, -3533.408466983851, -3533.4531704727615, -3532.514397205639, -3534.9954408401777, -3534.6825164178035, -3533.162597794843, -3533.6766879173147, -3534.548405951072, -3533.408466983851, -3533.855501872957, -3534.056667573055, -3535.218958284731, -3534.7495716511694, -3535.218958284731, -3534.79427514008, -3536.515359463139, -3536.023621085122, -3534.436647228795, -3534.6825164178035, -3535.50953096265, -3535.50953096265, -3535.9118623628456, -3534.4589989732503, -3534.9060338623567, -3535.9789175962114, -3536.4930077186837, -3536.0012693406666, -3536.3365455074963, -3536.515359463139, -3536.023621085122, -3537.8117606415467, -3536.5824146965047, -3535.800103640569, -3537.2976705190745, -3536.4930077186837, -3536.515359463139, -3537.029449585611, -3537.6552984303594, -3536.6271181854154, -3534.7495716511694, -3537.387077496896, -3536.9176908633344, -3536.8729873744237, -3537.409429241351, -3537.185911796798, -3538.1023333194657, -3537.118856563432, -3536.5824146965047, -3537.9235193638233, -3537.141208307887, -3537.2529670301637, -3536.0683245740324, -3536.9176908633344, -3536.448304229773, -3536.5824146965047, -3538.057629830555, -3538.79523739758, -3538.370554252929, -3535.2860135180968, -3536.4930077186837, -3538.2587955306526, -3537.476484474717, -3537.5658914525384, -3537.9011676193677, -3538.214092041742, -3538.0129263416443, -3538.1023333194657, -3537.118856563432, -3537.3647257524403, -3538.862292630946, -3538.638775186393, -3536.403600740862, -3537.744705408181, -3537.185911796798, -3537.7223536637252, -3537.029449585611, -3536.4930077186837, -3536.9847460967003, -3537.744705408181, -3538.3258507640185, -3538.3258507640185, -3538.5940716974824, -3538.124685063921, -3537.5882431969935, -3537.9235193638233, -3537.9682228527336, -3538.8175891420356, -3538.3929059973843, -3538.862292630946, -3540.8739496319236, -3542.282109532608, -3540.5610252095494, -3540.5610252095494, -3540.739839165192, -3540.672783931826, -3540.024583342622, -3539.398734497873, -3540.1586938093537, -3538.862292630946, -3538.9516996087673, -3539.5551967090605, -3538.9069961198566, -3539.711658920248, -3538.571719953027, -3537.9011676193677, -3538.370554252929, -3539.5775484535156, -3538.437609486295, -3537.6105949414487, -3538.8175891420356, -3537.6329466859042, -3538.705830419759, -3537.9235193638233, -3537.9011676193677, -3537.6329466859042, -3538.2364437861975, -3538.8399408864907, -3537.6776501748145, -3537.5211879636277, -3537.8117606415467, -3538.370554252929, -3538.0129263416443, -3539.309327520052, -3537.8117606415467, -3537.3647257524403, -3538.5940716974824, -3537.498836219172, -3538.2587955306526, -3538.348202508474, -3538.1023333194657, -3539.018754842133, -3538.6611269308482, -3538.07998157501, -3537.342374007985, -3537.990574597189, -3536.895339118879, -3534.0790193175103, -3533.117894305932, -3532.3355832499965, -3531.6873826607925, -3532.581452439005, -3534.6825164178035, -3535.50953096265, -3534.0790193175103, -3536.6941734187812, -3538.3258507640185, -3537.3647257524403, -3538.07998157501, -3536.5600629520495, -3537.141208307887, -3537.6552984303594, -3537.3200222635296, -3536.247138529675, -3535.8448071294797, -3536.8506356299686, -3537.498836219172, -3537.431780985806, -3537.6105949414487, -3535.733048407203, -3536.828283885513, -3536.9176908633344, -3537.185911796798, -3537.141208307887, -3537.476484474717, -3537.789408897091, -3538.437609486295, -3537.6776501748145, -3536.0683245740324, -3534.79427514008, -3535.733048407203, -3535.9789175962114, -3535.7554001516583, -3536.381248996407, -3536.4259524853173, -3538.2364437861975, -3539.2646240311415, -3539.9351763648006, -3539.9798798537113, -3542.7961996550803, -3540.2704525316303, -3539.51049322015, -3540.9410048652894, -3541.0974670764767, -3542.2374060436973, -3541.6562606878592, -3541.388039754396, -3541.1645223098426, -3540.8068943985577, -3540.829246143013, -3539.8457693869796, -3541.276281032119, -3540.963356609745, -3540.4269147428176, -3540.113990320443, -3540.9410048652894, -3541.678612432315, -3540.7174874207367, -3542.0362403435997, -3541.9021298768675, -3542.058592088055, -3541.969185110234, -3542.7514961661695, -3542.215054299242, -3542.5279787216164, -3541.0080600986553, -3541.4550949877616, -3541.8574263879573, -3542.438571743795, -3543.377345010918, -3541.2315775432085, -3540.337507764996, -3540.7174874207367, -3540.7845426541026, -3540.5386734650942, -3540.5833769540045, -3540.359859509452, -3541.0751153320216, -3541.052763587566, -3541.9021298768675, -3540.7174874207367, -3541.052763587566, -3539.711658920248, -3541.253929287664, -3541.5668537100382, -3540.8739496319236, -3540.8739496319236, -3540.449266487273, -3541.7903711545914, -3542.2374060436973, -3541.2986327765743, -3539.6222519424264, -3540.4939699761835, -3541.1421705653875, -3540.1586938093537, -3540.739839165192, -3541.6562606878592, -3541.6562606878592, -3542.952661866267, -3543.310289777552, -3542.7738479106247, -3541.2092257987533, -3540.4939699761835, -3542.371516510429, -3542.1032955769656, -3541.0974670764767, -3540.7174874207367, -3541.388039754396, -3540.113990320443, -3540.4939699761835, -3540.2033972982645, -3540.6280804429152, -3540.6504321873704, -3543.3549932664628, -3543.0644205885437, -3541.119818820932, -3540.9857083542, -3538.8175891420356, -3537.767057152636, -3536.4259524853173, -3535.8448071294797, -3536.7165251632364, -3538.2587955306526, -3540.2257490427196, -3540.113990320443, -3541.119818820932, -3540.404562998362, -3540.7174874207367, -3540.315156020541, -3539.4657897312395, -3539.443437986784, -3540.2704525316303, -3539.756362409158, -3540.2704525316303, -3540.8515978874684, -3539.4657897312395, -3538.6611269308482, -3538.571719953027, -3537.70000191927, -3538.0129263416443, -3539.756362409158, -3540.046935087077, -3540.5386734650942, -3539.5328449646054, -3540.2033972982645, -3540.113990320443, -3538.214092041742, -3538.0352780860994, -3540.1363420648986, -3540.1810455538093, -3540.315156020541, -3539.309327520052, -3538.9740513532224, -3539.5999001979712, -3540.7174874207367, -3540.337507764996, -3540.2257490427196, -3540.4269147428176, -3540.449266487273, -3540.091638575988, -3539.309327520052, -3539.5551967090605, -3540.5833769540045, -3539.4657897312395, -3539.085810075499, -3539.018754842133, -3536.6271181854154, -3538.482312975206, -3542.8856066329013, -3545.0313741006107, -3544.0478973445774, -3540.8739496319236, -3541.030411843111, -3542.4832752327056, -3542.41621999934, -3542.7738479106247, -3541.9021298768675, -3541.4327432433065, -3541.0974670764767, -3541.4550949877616, -3541.7903711545914, -3540.113990320443, -3539.421086242329, -3541.2986327765743, -3542.215054299242, -3541.991536854689, -3541.9021298768675, -3542.438571743795, -3541.969185110234, -3542.058592088055, -3543.6902694332925, -3541.5221502211275, -3542.5279787216164, -3542.9079583773564, -3541.6562606878592, -3540.5610252095494, -3541.4997984766724, -3541.276281032119, -3541.4327432433065, -3541.5445019655826, -3541.678612432315, -3539.2199205422307, -3540.471618231728, -3542.4609234882505, -3541.2092257987533, -3540.1586938093537, -3541.678612432315, -3540.4939699761835, -3541.0080600986553, -3544.9419671227897, -3547.244196801686, -3538.2587955306526, -3531.88854836089, -3528.4240279703176, -3524.5795279240047, -3518.2316324986978, -3511.7496266066587, -3506.116987003921, -3501.1996032237535, -3496.125757232399, -3489.666103084815, -3483.765242548614, -3479.518411102106, -3475.897428500346, -3471.583541820472, -3465.2579981396198, -3460.8547044819243, -3456.607873035416, -3452.6963177557373, -3451.2434543661425, -3446.951919430723, -3443.219178106687, -3441.5204455280837, -3441.051058894522, -3440.6934309832372, -3440.6934309832372, -3440.313451327497, -3440.760486216603, -3442.258053095109, -3442.3027565840193, -3441.028707150067, -3441.475742039173, -3441.6322042503602, -3441.609852505905, -3441.2075211057095, -3441.96748041719, -3441.766314717092, -3440.2463960941313, -3441.5875007614495, -3442.5933292619384, -3441.475742039173, -3441.9227769282793, -3442.5486257730277, -3442.1015908839217, -3441.5875007614495, -3441.9227769282793, -3441.453390294718, -3441.4310385502627, -3440.8722449388797, -3440.5816722609607, -3441.5204455280837, -3441.475742039173, -3441.96748041719, -3442.973308917679, -3442.638032750849, -3442.6603844953042, -3442.7497914731257, -3441.1851693612543, -3442.0792391394666, -3443.085067639955, -3442.2133496061983, -3440.2463960941313, -3440.067582138489, -3442.1015908839217, -3445.230835107665, -3444.7167449851927, -3444.225006607176, -3443.8226752069804, -3443.7779717180697, -3443.375640317874, -3443.085067639955, -3442.481570539662, -3443.219178106687, -3442.0792391394666, -3442.8168467064916, -3442.8168467064916, -3442.1909978617427, -3443.0627158955, -3443.7779717180697, -3443.5321025290614, -3442.1909978617427, -3441.363983316897, -3440.6934309832372, -3441.408686805807, -3440.15698911631, -3440.1122856273996, -3440.3358030719523, -3440.15698911631, -3441.006355405612, -3440.8275414499694, -3440.425210049774, -3439.6876024827484, -3438.6147187488937, -3440.2687478385865, -3438.838236193447, -3439.5981955049274, -3438.9723466601786, -3438.435904793251, -3439.5758437604723, -3440.2240443496758, -3439.799361205025, -3440.089933882944, -3439.9558234162123, -3439.642898993838, -3440.2240443496758, -3440.1122856273996, -3439.2629193380976, -3439.642898993838, -3440.000526905123, -3440.6263757498714, -3440.291099583042, -3439.9781751606674, -3439.8440646939357, -3439.9111199273016, -3440.6934309832372, -3440.6263757498714, -3440.425210049774, -3440.358154816408, -3439.9111199273016, -3440.089933882944, -3440.738134472148, -3438.9499949157234, -3439.3299745714635, -3439.866416438391, -3440.1346373718548, -3439.39702980483, -3433.7643902020923, -3431.6633262232936, -3441.051058894522, -3452.428096822274, -3459.1783236477763, -3463.5592655610167, -3470.73417553117, -3478.7584517906253, -3486.73802456117, -3492.281257186086, -3499.8584985564353, -3504.8205858255133, -3511.6155161399265, -3517.6504871428597, -3521.897318589368, -3526.2335570136975, -3530.547443693572, -3533.2296530282088, -3537.029449585611, -3537.6329466859042, -3536.895339118879, -3537.476484474717, -3538.1917402972867, -3539.734010664703, -3541.2986327765743, -3539.8457693869796, -3540.113990320443, -3541.052763587566, -3540.248100787175, -3541.410391498851, -3543.1314758219096, -3542.08094383251, -3540.9857083542, -3542.4609234882505, -3541.2315775432085, -3541.052763587566, -3541.343336265485, -3542.215054299242, -3542.013888599144, -3541.9468333657783, -3541.0080600986553, -3540.315156020541, -3538.214092041742, -3538.3258507640185, -3539.354031008963, -3538.1023333194657, -3539.443437986784, -3539.309327520052, -3539.5775484535156, -3540.2704525316303, -3539.4881414756946, -3538.8175891420356, -3538.41525774184, -3538.1693885528316, -3537.70000191927, -3538.348202508474, -3539.4657897312395, -3540.2928042760855, -3540.315156020541, -3540.672783931826, -3540.315156020541, -3539.6893071757922, -3539.9351763648006, -3540.1586938093537, -3539.8904728758903, -3538.8175891420356, -3538.41525774184, -3538.8175891420356, -3538.5940716974824, -3538.5493682085717, -3537.789408897091, -3536.805932141058, -3537.7223536637252, -3538.8399408864907, -3537.6329466859042, -3536.805932141058, -3536.6494699298705, -3537.0741530745213, -3535.9118623628456, -3536.9847460967003, -3535.6212896849265, -3535.062496073544, -3536.761228652147, -3536.9400426077896, -3536.7835803966022, -3536.9176908633344, -3537.2976705190745, -3538.482312975206, -3540.9410048652894, -3539.421086242329, -3538.6834786753034, -3538.929347864312, -3538.214092041742, -3539.443437986784, -3538.1023333194657, -3536.9847460967003, -3537.856464130457, -3538.1693885528316, -3539.8681211314347, -3538.6611269308482, -3538.214092041742, -3539.2199205422307, -3540.672783931826, -3542.1256473214207, -3540.9857083542, -3539.286975775597, -3538.348202508474, -3539.4881414756946, -3540.6504321873704, -3539.1975687977756, -3539.152865308865, -3538.772885653125, -3538.482312975206, -3538.9516996087673, -3538.6164234419375, -3537.0741530745213, -3538.79523739758, -3537.409429241351, -3538.705830419759, -3539.1975687977756, -3537.8117606415467, -3538.370554252929, -3537.744705408181, -3536.9847460967003, -3537.8117606415467, -3537.5882431969935, -3537.409429241351, -3538.07998157501, -3537.498836219172, -3538.1023333194657, -3537.387077496896, -3538.1023333194657, -3538.862292630946, -3538.3258507640185, -3538.437609486295, -3537.8788158749126, -3537.744705408181, -3537.6552984303594, -3538.9516996087673, -3538.571719953027, -3537.9682228527336, -3536.180083296309, -3537.9682228527336, -3537.185911796798, -3537.431780985806, -3538.9069961198566, -3538.0352780860994, -3538.1693885528316, -3538.705830419759, -3538.996403097678, -3538.9069961198566, -3539.309327520052, -3538.057629830555, -3537.8788158749126, -3537.9682228527336, -3536.0683245740324, -3536.2918420185856, -3536.090676318488, -3535.9118623628456, -3537.2306152857086, -3537.0741530745213, -3535.6212896849265, -3535.3530687514626, -3536.5824146965047, -3536.314193763041, -3536.5600629520495, -3535.6883449182924, -3536.470655974228, -3537.2306152857086, -3538.504664719661, -3537.6552984303594, -3536.7835803966022, -3537.543539708083, -3536.6271181854154, -3537.2753187746193, -3537.3200222635296, -3535.6436414293817, -3536.1353798073987, -3536.0683245740324, -3536.3365455074963, -3535.5542344515607, -3535.5989379404714, -3537.051801330066, -3537.5658914525384, -3537.185911796798, -3536.0012693406666, -3536.403600740862, -3536.0683245740324, -3535.8448071294797, -3535.218958284731, -3534.7048681622587, -3535.420123984829, -3535.464827473739, -3534.9507373512674, -3535.062496073544, -3535.2860135180968, -3535.9789175962114, -3535.3307170070075, -3536.113028062943, -3536.828283885513, -3536.4259524853173, -3535.3977722403733, -3536.180083296309, -3534.7495716511694, -3534.3472402509738, -3534.526054206616, -3535.5542344515607, -3534.9060338623567, -3534.771923395625, -3534.7272199067143, -3535.420123984829, -3533.3637634949405, -3534.3919437398845, -3535.6659931738373, -3535.3977722403733, -3534.9954408401777, -3535.2413100291865, -3535.420123984829, -3534.79427514008, -3534.637812928893, -3534.526054206616, -3534.0343158285996, -3535.1071995624543, -3535.6436414293817, -3532.872025116924, -3533.0731908170214, -3533.6543361728595, -3534.0119640841444, -3535.12955130691, -3535.2860135180968, -3535.3307170070075, -3535.1966065402758, -3534.2578332731528, -3533.117894305932, -3531.7097344052477, -3529.8098361265465, -3530.0333535710997, -3531.0391820715886, -3531.9779553387116, -3533.0061355836556, -3532.60380418346, -3532.827321628013, -3535.6883449182924, -3535.50953096265, -3536.314193763041, -3536.9176908633344, -3535.375420495918, -3535.1071995624543, -3536.6494699298705, -3537.744705408181, -3537.1635600523427, -3535.1071995624543, -3536.537711207594, -3537.2082635412535, -3536.6941734187812, -3535.420123984829, -3535.2860135180968, -3535.8448071294797, -3536.805932141058, -3537.2082635412535, -3535.576586196016, -3536.3588972519515, -3536.671821674326, -3538.07998157501, -3537.9458711082784, -3532.3802867389068, -3532.3579349944516, -3536.2247867852197, -3536.6271181854154, -3535.6212896849265, -3535.2860135180968, -3534.4589989732503, -3535.9118623628456, -3535.8448071294797, -3535.50953096265, -3535.2860135180968, -3535.6212896849265, -3535.3530687514626, -3535.464827473739, -3535.420123984829, -3534.7048681622587, -3535.3530687514626, -3535.800103640569, -3534.861330373446, -3535.576586196016, -3535.084847817999, -3535.1966065402758, -3535.1966065402758, -3533.7213914062254, -3534.526054206616, -3533.184949539298, -3532.469693716728, -3532.6261559279155, -3532.8496733724683, -3533.274356517119, -3532.179121038809, -3531.3968099828735, -3532.0450105720774, -3532.179121038809, -3532.4026384833624, -3531.6203274274267, -3531.441513471784, -3532.156769294354, -3533.7884466395913, -3532.447341972273, -3533.274356517119, -3533.0284873281107, -3532.447341972273, -3533.7213914062254, -3534.637812928893, -3533.9449088507786, -3533.3637634949405, -3534.7272199067143, -3534.4589989732503, -3533.0061355836556, -3533.855501872957, -3533.7884466395913, -3533.3861152393956, -3533.564929195038, -3533.7884466395913, -3532.916728605834, -3533.117894305932, -3534.548405951072, -3535.17425479582, -3534.79427514008, -3534.1684262953313, -3535.531882707105, -3535.8448071294797, -3535.576586196016, -3534.570757695527, -3535.3530687514626, -3535.6436414293817, -3535.12955130691, -3537.431780985806, -3536.403600740862, -3534.9730890957226, -3534.79427514008, -3536.403600740862, -3537.096504818977, -3536.4930077186837, -3535.531882707105, -3534.526054206616, -3534.280185017608, -3535.1966065402758, -3535.12955130691, -3535.6883449182924, -3535.7554001516583, -3536.4259524853173, -3536.5824146965047, -3535.6659931738373, -3535.1966065402758, -3535.062496073544, -3534.570757695527, -3535.6883449182924, -3535.3530687514626, -3535.420123984829, -3535.2860135180968, -3533.7213914062254, -3534.4589989732503, -3535.1966065402758, -3534.7495716511694, -3535.218958284731, -3534.41429548434, -3535.2860135180968, -3535.0177925846333, -3534.6154611844377, -3534.3025367620635, -3536.247138529675, -3536.381248996407, -3535.151903051365, -3534.6825164178035, -3534.213129784242, -3534.6154611844377, -3535.3083652625523, -3535.5989379404714, -3534.0119640841444, -3535.531882707105, -3535.1966065402758, -3536.090676318488, -3536.403600740862, -3535.867158873935, -3535.442475729284, -3536.470655974228, -3536.8506356299686, -3536.828283885513, -3536.1353798073987, -3535.1966065402758, -3535.531882707105, -3536.537711207594, -3536.805932141058, -3537.096504818977, -3536.4930077186837, -3537.2976705190745, -3538.41525774184, -3537.185911796798, -3536.2024350407646, -3537.2082635412535, -3537.70000191927, -3537.789408897091, -3536.805932141058, -3537.7223536637252, -3537.409429241351, -3537.5658914525384, -3537.2976705190745, -3538.3258507640185, -3538.3929059973843, -3537.9458711082784, -3538.5940716974824, -3537.476484474717, -3537.3200222635296, -3536.8506356299686, -3535.9118623628456, -3536.6941734187812, -3537.8117606415467, -3536.761228652147, -3535.3977722403733, -3535.1071995624543, -3536.828283885513, -3538.147036808376, -3536.448304229773, -3536.537711207594, -3537.789408897091, -3536.314193763041, -3537.029449585611, -3537.789408897091, -3536.4259524853173, -3535.2860135180968, -3534.7048681622587, -3536.0683245740324, -3535.867158873935, -3535.0177925846333, -3535.576586196016, -3533.9449088507786, -3535.062496073544, -3534.9954408401777, -3535.084847817999, -3535.17425479582, -3534.548405951072, -3535.733048407203, -3536.671821674326, -3534.928385606812, -3534.3472402509738, -3535.0177925846333, -3535.5542344515607, -3535.7106966627475, -3535.6659931738373, -3535.1966065402758, -3535.6212896849265, -3536.403600740862, -3536.4259524853173, -3535.8448071294797, -3534.79427514008, -3534.548405951072, -3533.207301283753, -3531.955603594256, -3531.1285890494096, -3530.6815541603037, -3530.8156646270354, -3533.0731908170214, -3533.7884466395913, -3533.0731908170214, -3534.526054206616, -3536.671821674326, -3535.420123984829, -3534.9060338623567, -3536.0683245740324, -3535.084847817999, -3535.3530687514626, -3536.0683245740324, -3534.9730890957226, -3535.420123984829, -3534.637812928893, -3534.481350717706, -3536.3588972519515, -3534.928385606812, -3533.9672605952337, -3533.9449088507786, -3534.3025367620635, -3534.79427514008, -3533.9672605952337, -3533.3414117504853, -3533.5872809394937, -3534.6154611844377, -3534.861330373446, -3535.2860135180968, -3533.631984428404, -3533.2296530282088, -3534.9730890957226, -3534.637812928893, -3534.1013710619654], [-2574.138650195438, -2574.6303885734546, -2575.435051373846, -2576.1503071964157, -2575.9714932407733, -2576.0832519630494, -2573.266932161681, -2572.261103661192, -2574.0492432176165, -2576.6420455744324, -2575.524458351667, -2574.3174641510805, -2573.7586705396975, -2570.8082402715972, -2574.518629851178, -2577.5584670970998, -2574.0268914731614, -2572.529324594656, -2574.2727606621697, -2573.9598362397955, -2572.7081385502984, -2574.6080368289995, -2573.848077517519, -2572.7975455281194, -2574.4068711289015, -2574.7197955512756, -2573.3786908839575, -2572.7304902947535, -2572.5069728502003, -2576.2397141742367, -2578.0278537306613, -2577.0220252301724, -2573.423394372868, -2574.161001939893, -2574.7644990401864, -2574.585685084544, -2574.496278106723, -2573.535153095145, -2574.0939467065273, -2573.781022284153, -2574.6974438068205, -2574.3398158955356, -2574.3398158955356, -2574.295112406625, -2573.624560072966, -2575.3009409071137, -2574.786850784642, -2574.004539728706, -2573.423394372868, -2572.328158894558, -2572.484621105745, -2572.84224901703, -2574.161001939893, -2574.161001939893, -2573.8257257730634, -2574.3621676399907, -2574.0268914731614, -2574.429222873357, -2572.6634350613876, -2572.7751937836642, -2573.93748449534, -2573.848077517519, -2574.0939467065273, -2573.1551734394043, -2572.9987112282174, -2573.0434147171277, -2573.0881182060384, -2573.8257257730634, -2572.238751916737, -2572.5069728502003, -2574.228057173259, -2573.0881182060384, -2573.1104699504936, -2573.624560072966, -2573.7586705396975, -2573.0434147171277, -2575.837382774041, -2575.233885673748, -2573.848077517519, -2575.166830440382, -2575.770327540675, -2574.853906018008, -2573.9821879842507, -2573.423394372868, -2574.943312995829, -2574.3398158955356, -2576.6196938299768, -2574.7421472957312, -2574.6303885734546, -2575.457403118301, -2577.044376974628, -2576.0609002185943, -2574.65274031791, -2573.8927810064297, -2575.2115339292927, -2574.853906018008, -2575.5691618405776, -2575.457403118301, -2574.004539728706, -2575.9714932407733, -2575.815031029586, -2576.0161967296835, -2576.418528129879, -2576.5302868521558, -2577.714929308287, -2577.0890804635383, -2577.9384467528403, -2576.8655630189855, -2577.1784874413597, -2577.4690601192788, -2577.446708374823, -2576.3067694076026, -2576.2173624297816, -2577.0220252301724, -2577.446708374823, -2578.2513711752144, -2576.798507785619, -2576.5749903410665, -2579.011330486695, -2579.123089208971, -2577.714929308287, -2578.9666269977843, -2579.8606967759965, -2579.8606967759965, -2579.324254909069, -2578.877220019963, -2578.877220019963, -2578.139612452938, -2577.2231909302704, -2578.1843159418486, -2579.3019031646136, -2579.1901444423374, -2578.519592108678, -2577.9607984972954, -2578.6984060643204, -2578.3407781530354, -2579.9948072427283, -2579.324254909069, -2579.704234564809, -2578.765461297686, -2578.5419438531335, -2578.363129897491, -2578.4078333864013, -2578.4078333864013, -2579.6371793314433, -2580.017158987184, -2579.972455498273, -2578.743109553231, -2577.133783952449, -2577.402004885913, -2578.229019430759, -2578.0278537306613, -2577.2455426747256, -2576.9773217412617, -2577.357301397002, -2577.2902461636363, -2578.676054319865, -2579.078385720061, -2577.0890804635383, -2577.0220252301724, -2577.781984541653, -2577.9160950083847, -2577.402004885913, -2577.647874074921, -2578.5866473420438, -2578.296074664125, -2576.9773217412617, -2577.5584670970998, -2577.424356630368, -2577.9160950083847, -2576.9326182523514, -2575.837382774041, -2575.6585688183986, -2574.7421472957312, -2575.3009409071137, -2576.195010685326, -2574.6303885734546, -2574.228057173259, -2574.0939467065273, -2573.8927810064297, -2575.1221269514713, -2575.457403118301, -2574.4739263622673, -2573.848077517519, -2573.781022284153, -2574.4068711289015, -2574.853906018008, -2575.3456443960245, -2576.0609002185943, -2574.518629851178, -2574.0268914731614, -2573.1104699504936, -2574.9209612513737, -2574.6974438068205, -2573.4010426284126, -2574.3174641510805, -2574.496278106723, -2574.228057173259, -2573.7139670507872, -2574.071594962072, -2574.451574617812, -2574.540981595633, -2574.295112406625, -2573.870429261974, -2574.8315542735522, -2575.4126996293903, -2575.2785891626586, -2574.1833536843483, -2574.496278106723, -2566.4720018472676, -2565.1756006688597, -2565.332062880047, -2565.8014495136085, -2565.354414624502, -2565.9132082358847, -2565.9132082358847, -2565.4661733467788, -2564.482696590745, -2566.7625745251867, -2566.695519291821, -2565.9579117247954, -2566.069670447072, -2567.321368136569, -2567.075498947561, -2566.5614088250886, -2565.9355599803403, -2566.360243124991, -2567.075498947561, -2566.449650102812, -2565.6673390468764, -2565.5332285801446, -2565.5555803245998, -2566.4943535917228, -2567.7013477923097, -2566.740222780731, -2567.723699536765, -2566.2484844027144, -2566.136725680438, -2566.4049466139018, -2565.8685047469744, -2566.8519815030077, -2567.4778303477565, -2567.4107751143906, -2566.4720018472676, -2566.136725680438, -2565.9579117247954, -2567.03079545865, -2568.7965832706195, -2568.036623959139, -2568.4389553593346, -2568.036623959139, -2566.4049466139018, -2567.7907547701307, -2566.5614088250886, -2565.399118113413, -2566.069670447072, -2566.8519815030077, -2567.455478603301, -2566.740222780731, -2565.130897179949, -2567.097850692016, -2567.74605128122, -2567.9248652368624, -2567.74605128122, -2566.3155396360803, -2566.8519815030077, -2567.1202024364716, -2567.4778303477565, -2568.662472803888, -2566.4720018472676, -2566.5614088250886, -2567.075498947561, -2568.4836588482453, -2569.1542111819044, -2566.5167053361783, -2566.695519291821, -2568.3719001259688, -2567.164905925382, -2567.164905925382, -2567.656644303399, -2566.941388480829, -2567.678996047854, -2566.4943535917228, -2566.4943535917228, -2566.695519291821, -2565.689690791332, -2566.360243124991, -2568.349548381513, -2567.74605128122, -2567.231961158748, -2566.8519815030077, -2568.640121059432, -2567.1872576698374, -2565.5555803245998, -2566.0249669581613, -2566.4943535917228, -2566.069670447072, -2566.136725680438, -2567.2766646476584, -2566.8743332474633, -2566.941388480829, -2566.1814291693486, -2566.2261326582593, -2566.9637402252843, -2567.3437198810243, -2566.740222780731, -2566.807278014097, -2566.65081580291, -2566.360243124991, -2566.382594869446, -2565.9132082358847, -2565.2203041577704, -2566.2484844027144, -2567.1872576698374, -2566.002615213706, -2566.002615213706, -2566.673167547365, -2565.5779320690554, -2565.041490202128, -2564.46034484629, -2564.706214035298, -2566.0249669581613, -2566.2708361471696, -2566.2484844027144, -2566.8519815030077, -2566.069670447072, -2565.622635557966, -2566.2261326582593, -2565.734394280242, -2564.9073797353963, -2566.337891380536, -2567.075498947561, -2566.337891380536, -2566.673167547365, -2567.5672373255775, -2566.8743332474633, -2566.427298358357, -2567.03079545865, -2566.740222780731, -2565.8238012580637, -2564.9073797353963, -2566.941388480829, -2566.673167547365, -2565.8908564914295, -2566.673167547365, -2564.4379931018348, -2564.773269268664, -2564.9073797353963, -2564.2815308906474, -2564.750917524209, -2564.326234379558, -2564.102716935005, -2565.041490202128, -2565.332062880047, -2564.5497518241114, -2565.0191384576724, -2564.3485861240133, -2565.5108768356895, -2566.427298358357, -2565.9579117247954, -2564.013309957184, -2564.12506867946, -2564.415641357379, -2563.096888434516, -2564.035661701639, -2563.5662750680776, -2563.3427576235244, -2564.12506867946, -2564.013309957184, -2563.655682045899, -2562.9851297122395, -2562.068708189572, -2564.102716935005, -2563.6109785569884, -2562.940426223329, -2562.7616122676864, -2561.9793012117507, -2564.08036519055, -2564.9073797353963, -2563.074536690061, -2563.3427576235244, -2564.0580134460943, -2562.113411678483, -2563.9015512349074, -2565.689690791332, -2565.0191384576724, -2560.3029203776027, -2559.6994232773095, -2562.716908778776, -2561.107583177994, -2562.873370989963, -2560.7946587556194, -2562.3816326119463, -2561.621673300466, -2561.532266322645, -2562.135763422938, -2561.6663767893765, -2562.6051500564995, -2561.621673300466, -2562.64985354541, -2562.3145773785805, -2562.5604465675888, -2563.0521849456054, -2563.230998901248, -2561.2193419002706, -2561.867542489474, -2562.359280867491, -2562.5604465675888, -2563.722737279265, -2563.767440768175, -2563.722737279265, -2564.616807057477, -2564.8850279909407, -2566.1590774248934, -2565.9132082358847, -2564.974434968762, -2563.5662750680776, -2565.734394280242, -2567.03079545865, -2565.9132082358847, -2565.9355599803403, -2566.293187891625, -2567.611940814488, -2567.8578100034965, -2568.0589757035946, -2568.0813274480497, -2566.136725680438, -2566.9190367363735, -2567.4107751143906, -2567.589589070033, -2567.678996047854, -2567.522533836667, -2568.036623959139, -2568.550714081611, -2567.321368136569, -2567.678996047854, -2568.4389553593346, -2568.5060105927005, -2567.075498947561, -2566.5167053361783, -2566.5167053361783, -2566.2037809138037, -2566.2037809138037, -2566.360243124991, -2565.5108768356895, -2564.8850279909407, -2562.426336100857, -2563.722737279265, -2563.454516345801, -2562.448687845312, -2562.9851297122395, -2563.0298332011503, -2564.169772168371, -2565.130897179949, -2564.9520832243065, -2565.6673390468764, -2565.4661733467788, -2565.8238012580637, -2566.002615213706, -2565.354414624502, -2564.169772168371, -2564.393289612924, -2565.2426559022256, -2566.136725680438, -2565.689690791332, -2564.415641357379, -2565.5779320690554, -2565.734394280242, -2565.130897179949, -2564.8850279909407, -2564.6615105463875, -2564.4379931018348, -2564.728565779754, -2566.360243124991, -2564.6615105463875, -2563.3427576235244, -2564.5050483352006, -2564.2368274017367, -2563.5662750680776, -2563.3427576235244, -2563.9462547238177, -2563.789792512631, -2564.2368274017367, -2564.5721035685665, -2564.1921239128264, -2564.817972757575, -2565.980263469251, -2566.740222780731, -2566.2037809138037, -2566.069670447072, -2565.5108768356895, -2564.12506867946, -2564.5050483352006, -2564.6615105463875, -2564.3038826351026, -2563.9015512349074, -2564.5721035685665, -2565.6673390468764, -2565.2873593911363, -2565.399118113413, -2565.041490202128, -2565.1532489244046, -2565.130897179949, -2565.265007646681, -2565.2203041577704, -2565.6673390468764, -2563.9015512349074, -2564.2144756572816, -2565.488525091234, -2564.2815308906474, -2563.096888434516, -2563.387461112435, -2565.3767663689573, -2565.063841946583, -2563.007481456695, -2563.5439233236225, -2564.326234379558, -2564.6391588019324, -2564.9520832243065, -2564.8626762464855, -2567.299016392114, -2566.5167053361783, -2566.360243124991, -2566.4943535917228, -2566.293187891625, -2565.8908564914295, -2567.008443714195, -2565.354414624502, -2564.974434968762, -2565.2873593911363, -2565.5108768356895, -2566.002615213706, -2566.5167053361783, -2567.3437198810243, -2567.03079545865, -2568.4836588482453, -2569.265969904181, -2568.304844892603, -2568.1930861703263, -2568.103679192505, -2568.304844892603, -2568.5060105927005, -2569.6012460710103, -2570.8082402715972, -2569.645949559921, -2568.617769314977, -2569.489487348734, -2569.7577082821977, -2569.9588739822952, -2569.690653048832, -2568.8636385039854, -2569.4671356042786, -2568.8636385039854, -2568.4836588482453, -2569.5341908376445, -2570.3388536380357, -2569.8918187489294, -2571.255275160703, -2571.0541094606056, -2569.981225726751, -2569.5341908376445, -2569.981225726751, -2570.4282606158567, -2569.5565425821, -2570.607074571499, -2570.003577471206, -2569.914170493385, -2571.2776269051587, -2569.623597815466, -2569.914170493385, -2570.0259292156616, -2569.713004793287, -2570.65177806041, -2570.1823914268484, -2568.4389553593346, -2569.7577082821977, -2569.0871559485386, -2566.4943535917228, -2566.1814291693486, -2566.069670447072, -2564.9297314798514, -2566.5167053361783, -2567.1202024364716, -2566.695519291821, -2566.807278014097, -2565.1756006688597, -2565.332062880047, -2565.712042535787, -2565.846153002519, -2565.779097769153, -2565.130897179949, -2564.2815308906474, -2564.9520832243065, -2565.6673390468764, -2565.130897179949, -2565.108545435494, -2564.9967867132173, -2566.784926269642, -2565.779097769153, -2564.013309957184, -2564.728565779754, -2565.689690791332, -2566.360243124991, -2565.846153002519, -2566.784926269642, -2566.4049466139018, -2564.3038826351026, -2564.773269268664, -2567.164905925382, -2567.2543129032033, -2566.695519291821, -2567.1425541809267, -2566.8966849919184, -2566.941388480829, -2566.8519815030077, -2566.1143739359827, -2566.293187891625, -2567.0531472031057, -2566.673167547365, -2565.5332285801446, -2565.399118113413, -2566.0249669581613, -2565.1756006688597, -2565.6002838135105, -2565.6002838135105, -2564.773269268664, -2563.8344960015415, -2563.74508902372, -2564.773269268664, -2563.141591923427, -2563.789792512631, -2563.722737279265, -2564.46034484629, -2565.9132082358847, -2565.332062880047, -2564.393289612924, -2563.879199490452, -2563.4992198347118, -2563.9015512349074, -2563.74508902372, -2562.940426223329, -2563.74508902372, -2563.432164601346, -2563.387461112435, -2563.678033790354, -2563.141591923427, -2563.2757023901586, -2562.9851297122395, -2564.3485861240133, -2564.2144756572816, -2564.5050483352006, -2563.2533506457034, -2564.46034484629, -2564.46034484629, -2564.5050483352006, -2564.46034484629, -2563.767440768175, -2563.767440768175, -2564.46034484629, -2564.683862290843, -2563.5886268125328, -2565.1756006688597, -2564.12506867946, -2564.08036519055, -2563.678033790354, -2562.0910599340273, -2561.8898942339297, -2562.873370989963, -2563.2757023901586, -2562.716908778776, -2562.5604465675888, -2563.0298332011503, -2562.225170400759, -2561.9793012117507, -2563.2086471567927, -2562.739260523231, -2563.007481456695, -2564.2144756572816, -2563.5886268125328, -2563.9462547238177, -2563.4992198347118, -2563.0298332011503, -2564.0580134460943, -2563.432164601346, -2563.141591923427, -2562.225170400759, -2562.3816326119463, -2563.007481456695, -2563.230998901248, -2564.5944553130216, -2563.2980541346137, -2562.5604465675888, -2563.007481456695, -2562.225170400759, -2561.196990155815, -2562.9180744788737, -2562.806315756597, -2562.6275018009546, -2563.678033790354, -2563.8344960015415, -2563.2086471567927, -2563.6109785569884, -2563.454516345801, -2563.3204058790693, -2563.1862954123376, -2563.3427576235244, -2562.6722052898654, -2563.074536690061, -2564.616807057477, -2563.36510936798, -2563.4098128568903, -2563.2757023901586, -2562.64985354541, -2563.141591923427, -2563.678033790354, -2562.2698738896697, -2562.3369291230356, -2562.64985354541, -2562.9627779677844, -2563.2533506457034, -2562.940426223329, -2563.0521849456054, -2562.5380948231336, -2564.08036519055, -2563.9909582127284, -2564.5721035685665, -2562.873370989963, -2563.655682045899, -2564.9520832243065, -2563.230998901248, -2563.6109785569884, -2564.1921239128264, -2563.4992198347118, -2563.655682045899, -2563.6109785569884, -2562.873370989963, -2563.9909582127284, -2563.2086471567927, -2562.940426223329, -2563.6109785569884, -2564.6391588019324, -2563.9239029793625, -2563.767440768175, -2563.9015512349074, -2561.867542489474, -2560.973472711262, -2561.532266322645, -2561.8898942339297, -2561.196990155815, -2562.783964012142, -2561.755783767198, -2561.755783767198, -2562.448687845312, -2562.64985354541, -2562.873370989963, -2562.8957227344185, -2563.2980541346137, -2562.3816326119463, -2562.940426223329, -2563.5439233236225, -2562.8957227344185, -2563.007481456695, -2563.5662750680776, -2562.716908778776, -2561.755783767198, -2562.5604465675888, -2562.0016529562063, -2562.8957227344185, -2563.0298332011503, -2563.4992198347118, -2562.3369291230356, -2561.711080278287, -2562.9851297122395, -2563.007481456695, -2561.3311006225467, -2561.398155855913, -2563.096888434516, -2561.755783767198, -2562.202818656304, -2561.711080278287, -2561.17463841136, -2561.621673300466, -2562.6722052898654, -2561.9793012117507, -2561.755783767198, -2562.3816326119463, -2561.3534523670023, -2561.5769698115555, -2561.129934922449, -2560.481734333245, -2562.1804669118487, -2562.64985354541, -2561.465211089279, -2562.9851297122395, -2562.8957227344185, -2562.6051500564995, -2562.8957227344185, -2562.3145773785805, -2562.359280867491, -2561.5546180671, -2563.1192401789713, -2562.202818656304, -2562.6051500564995, -2563.9015512349074, -2563.6109785569884, -2561.711080278287, -2560.6605482888876, -2560.884065733441, -2561.040527944628, -2561.9345977228404, -2562.158115167393, -2562.225170400759, -2561.755783767198, -2562.582798312044, -2562.426336100857, -2561.107583177994, -2561.3311006225467, -2560.3699756109686, -2561.17463841136, -2561.509914578189, -2561.6663767893765, -2562.716908778776, -2563.36510936798, -2563.0521849456054, -2562.9851297122395, -2563.5662750680776, -2564.102716935005, -2562.873370989963, -2562.716908778776, -2562.8286675010527, -2561.912245978385, -2561.867542489474, -2563.5662750680776, -2563.8344960015415, -2563.0298332011503, -2562.3145773785805, -2562.0463564451165, -2562.0463564451165, -2563.074536690061, -2563.879199490452, -2562.783964012142, -2562.9627779677844, -2562.873370989963, -2563.879199490452, -2565.8014495136085, -2564.5274000796558, -2564.84032450203, -2565.846153002519, -2565.0191384576724, -2565.130897179949, -2565.063841946583, -2564.750917524209, -2566.0249669581613, -2565.3097111355914, -2564.683862290843, -2564.706214035298, -2565.689690791332, -2565.734394280242, -2566.1143739359827, -2564.8626762464855, -2566.069670447072, -2566.1814291693486, -2565.8685047469744, -2565.9132082358847, -2565.689690791332, -2564.7956210131197, -2564.6391588019324, -2565.4438216023236, -2566.382594869446, -2566.7625745251867, -2565.9579117247954, -2565.5779320690554, -2566.1143739359827, -2566.4720018472676, -2567.2543129032033, -2567.6342925589433, -2565.2873593911363, -2564.5497518241114, -2564.5050483352006, -2565.063841946583, -2566.2261326582593, -2566.1814291693486, -2566.0249669581613, -2566.1143739359827, -2566.6284640584545, -2566.717871036276, -2566.6284640584545, -2565.421469857868, -2566.5614088250886, -2567.2543129032033, -2566.9860919697394, -2566.449650102812, -2566.5390570806335, -2566.4049466139018, -2566.382594869446, -2566.784926269642, -2567.03079545865, -2567.008443714195, -2567.522533836667, -2566.5614088250886, -2566.5390570806335, -2565.2426559022256, -2566.449650102812, -2567.1202024364716, -2566.9190367363735, -2567.36607162548, -2566.695519291821, -2567.1872576698374, -2567.2096094142926, -2568.550714081611, -2567.880161747952, -2565.9579117247954, -2566.784926269642, -2567.2096094142926, -2567.74605128122, -2568.2824931481473, -2568.1483826814156, -2567.075498947561, -2566.5167053361783, -2566.807278014097, -2566.8966849919184, -2567.4778303477565, -2569.2436181597254, -2568.707176292798, -2568.1483826814156, -2566.784926269642, -2564.3485861240133, -2564.7956210131197, -2565.332062880047, -2566.337891380536, -2565.622635557966, -2565.197952413315, -2566.337891380536, -2567.3437198810243, -2566.784926269642, -2565.2873593911363, -2564.728565779754, -2566.6284640584545, -2567.388423369935, -2567.1872576698374, -2568.4166036148795, -2567.2543129032033, -2565.5555803245998, -2565.846153002519, -2566.941388480829, -2567.03079545865, -2567.36607162548, -2567.7907547701307, -2568.0813274480497, -2568.4389553593346, -2567.2766646476584, -2566.740222780731, -2567.4107751143906, -2567.4331268588458, -2566.4720018472676, -2566.784926269642, -2567.4778303477565, -2566.1814291693486, -2567.2096094142926, -2568.304844892603, -2566.8966849919184, -2565.5779320690554, -2567.03079545865, -2567.299016392114, -2565.8908564914295, -2564.5721035685665, -2564.482696590745, -2565.4661733467788, -2565.488525091234, -2565.063841946583, -2565.5779320690554, -2567.522533836667, -2565.332062880047, -2564.46034484629, -2565.2203041577704, -2564.415641357379, -2565.3767663689573, -2565.980263469251, -2565.130897179949, -2565.689690791332, -2565.2873593911363, -2566.069670447072, -2565.2203041577704, -2565.3097111355914, -2565.5779320690554, -2565.1756006688597, -2565.399118113413, -2566.8519815030077, -2567.1202024364716, -2565.197952413315, -2566.2261326582593, -2566.2261326582593, -2566.8966849919184, -2565.8908564914295, -2565.0191384576724, -2565.0191384576724, -2564.46034484629, -2565.063841946583, -2565.354414624502, -2565.063841946583]]
[[-3536.247138529675, -3535.733048407203, -3534.3919437398845, -3535.6212896849265, -3535.487179218195, -3534.146074550876, -3534.436647228795, -3534.1684262953313, -3536.3588972519515, -3535.733048407203, -3536.2918420185856, -3536.7165251632364, -3537.3647257524403, -3538.1917402972867, -3538.79523739758, -3537.6329466859042, -3536.9623943522447, -3536.2918420185856, -3537.2082635412535, -3537.744705408181, -3538.6611269308482, -3538.79523739758, -3538.348202508474, -3537.990574597189, -3538.772885653125, -3538.0352780860994, -3538.214092041742, -3537.9682228527336, -3538.124685063921, -3537.6776501748145, -3537.409429241351, -3537.9235193638233, -3536.895339118879, -3537.2082635412535, -3537.5211879636277, -3539.018754842133, -3538.9740513532224, -3538.07998157501, -3538.281147275108, -3538.07998157501, -3538.0352780860994, -3537.9458711082784, -3539.1752170533205, -3538.772885653125, -3539.0411065865883, -3538.370554252929, -3537.990574597189, -3538.057629830555, -3537.6552984303594, -3537.8117606415467, -3537.185911796798, -3538.2364437861975, -3538.07998157501, -3538.6834786753034, -3538.147036808376, -3538.929347864312, -3538.9740513532224, -3538.638775186393, -3538.3034990195633, -3538.3258507640185, -3538.3034990195633, -3538.214092041742, -3537.2753187746193, -3536.9623943522447, -3536.9847460967003, -3536.4259524853173, -3537.387077496896, -3537.2529670301637, -3538.6834786753034, -3538.8175891420356, -3536.8729873744237, -3536.60476644096, -3537.029449585611, -3537.185911796798, -3536.180083296309, -3537.8788158749126, -3536.2694902741305, -3535.6436414293817, -3535.7554001516583, -3535.8448071294797, -3535.822455385024, -3535.062496073544, -3535.6883449182924, -3535.420123984829, -3536.3588972519515, -3536.3588972519515, -3536.023621085122, -3536.180083296309, -3537.051801330066, -3537.096504818977, -3535.9789175962114, -3537.0741530745213, -3536.6271181854154, -3536.8506356299686, -3536.738876907692, -3537.141208307887, -3537.2529670301637, -3537.1635600523427, -3537.141208307887, -3537.7223536637252, -3537.2753187746193, -3535.464827473739, -3535.88951061839, -3535.420123984829, -3535.867158873935, -3535.6883449182924, -3535.1966065402758, -3534.9060338623567, -3535.3530687514626, -3535.1966065402758, -3535.5989379404714, -3535.777751896114, -3535.7106966627475, -3534.861330373446, -3535.9789175962114, -3535.50953096265, -3535.1966065402758, -3535.576586196016, -3536.157731551854, -3536.761228652147, -3534.9954408401777, -3535.6212896849265, -3535.867158873935, -3535.9118623628456, -3535.062496073544, -3534.436647228795, -3533.7437431506805, -3534.8836821179016, -3535.084847817999, -3534.79427514008, -3534.9507373512674, -3534.190778039787, -3534.190778039787, -3535.50953096265, -3535.0177925846333, -3534.9730890957226, -3533.7437431506805, -3535.1966065402758, -3534.5931094399825, -3535.062496073544, -3535.3083652625523, -3534.79427514008, -3535.375420495918, -3534.548405951072, -3535.2413100291865, -3536.023621085122, -3534.9060338623567, -3534.637812928893, -3535.3977722403733, -3535.733048407203, -3535.9565658517563, -3535.576586196016, -3535.17425479582, -3535.867158873935, -3535.3530687514626, -3535.062496073544, -3533.631984428404, -3533.4531704727615, -3534.637812928893, -3536.4930077186837, -3535.7106966627475, -3535.2413100291865, -3534.79427514008, -3535.2860135180968, -3535.9118623628456, -3535.576586196016, -3534.6825164178035, -3535.12955130691, -3535.531882707105, -3536.2918420185856, -3535.6436414293817, -3535.777751896114, -3534.9060338623567, -3535.6212896849265, -3537.834112386002, -3537.8117606415467, -3536.9847460967003, -3536.3588972519515, -3536.738876907692, -3535.3977722403733, -3534.7495716511694, -3532.179121038809, -3531.50856870515, -3532.022658827622, -3532.2685280166306, -3532.9390803502897, -3534.2354815286976, -3535.50953096265, -3536.247138529675, -3536.9400426077896, -3537.6776501748145, -3536.671821674326, -3535.733048407203, -3534.7272199067143, -3536.2247867852197, -3535.6659931738373, -3534.7048681622587, -3535.0177925846333, -3535.800103640569, -3537.431780985806, -3535.5989379404714, -3535.9789175962114, -3537.185911796798, -3537.5211879636277, -3537.70000191927, -3537.0741530745213, -3537.543539708083, -3537.744705408181, -3536.6271181854154, -3537.2082635412535, -3537.0741530745213, -3536.7835803966022, -3536.113028062943, -3535.9789175962114, -3537.3200222635296, -3538.2364437861975, -3536.9176908633344, -3536.738876907692, -3536.1353798073987, -3536.805932141058, -3536.8729873744237, -3537.0741530745213, -3537.6776501748145, -3537.6329466859042, -3536.470655974228, -3537.185911796798, -3536.4259524853173, -3535.9789175962114, -3535.50953096265, -3536.381248996407, -3535.084847817999, -3534.9954408401777, -3535.5542344515607, -3534.6825164178035, -3536.515359463139, -3535.5542344515607, -3534.9730890957226, -3536.5824146965047, -3537.2529670301637, -3537.476484474717, -3536.470655974228, -3532.670859416826, -3533.117894305932, -3534.5931094399825, -3533.6543361728595, -3533.7213914062254, -3533.855501872957, -3533.833150128502, -3533.8778536174127, -3534.8836821179016, -3535.2860135180968, -3534.436647228795, -3534.79427514008, -3535.7106966627475, -3535.7554001516583, -3534.7272199067143, -3535.062496073544, -3536.537711207594, -3535.6436414293817, -3537.118856563432, -3538.3929059973843, -3537.476484474717, -3535.3530687514626, -3535.442475729284, -3537.2976705190745, -3536.180083296309, -3535.2636617736416, -3535.50953096265, -3535.218958284731, -3535.7554001516583, -3535.822455385024, -3535.9565658517563, -3536.8506356299686, -3537.6552984303594, -3538.9740513532224, -3537.6105949414487, -3537.3200222635296, -3537.141208307887, -3537.5882431969935, -3538.348202508474, -3535.50953096265, -3537.096504818977, -3539.4881414756946, -3539.666955431337, -3537.6552984303594, -3536.3365455074963, -3538.3034990195633, -3537.9682228527336, -3537.387077496896, -3536.470655974228, -3536.9400426077896, -3537.2976705190745, -3538.0129263416443, -3537.096504818977, -3535.9118623628456, -3537.409429241351, -3537.6552984303594, -3538.3929059973843, -3537.9682228527336, -3537.8788158749126, -3538.5493682085717, -3538.214092041742, -3539.443437986784, -3538.705830419759, -3537.2976705190745, -3537.342374007985, -3536.9847460967003, -3536.761228652147, -3536.3588972519515, -3535.5989379404714, -3535.777751896114, -3537.454132730262, -3535.9789175962114, -3536.180083296309, -3536.113028062943, -3535.9565658517563, -3536.247138529675, -3537.9011676193677, -3538.0129263416443, -3538.07998157501, -3536.7835803966022, -3535.442475729284, -3534.503702462161, -3532.7379146501917, -3531.3521064939628, -3531.7544378941584, -3533.4531704727615, -3535.9789175962114, -3536.671821674326, -3535.8448071294797, -3537.096504818977, -3536.5824146965047, -3537.185911796798, -3537.7223536637252, -3537.3200222635296, -3538.370554252929, -3539.152865308865, -3537.744705408181, -3537.767057152636, -3537.5211879636277, -3537.431780985806, -3535.0177925846333, -3536.157731551854, -3537.454132730262, -3535.9118623628456, -3536.2918420185856, -3536.6271181854154, -3537.767057152636, -3538.705830419759, -3537.8117606415467, -3538.9516996087673, -3538.41525774184, -3535.50953096265, -3534.280185017608, -3537.543539708083, -3537.6776501748145, -3537.9458711082784, -3538.5940716974824, -3536.9400426077896, -3537.096504818977, -3539.152865308865, -3538.348202508474, -3535.6883449182924, -3535.777751896114, -3535.733048407203, -3537.8788158749126, -3540.5386734650942, -3537.2082635412535, -3533.520225706128, -3534.6825164178035, -3537.9682228527336, -3538.7505339086697, -3537.029449585611, -3535.8448071294797, -3536.180083296309, -3535.084847817999, -3534.3248885065186, -3535.062496073544, -3537.6776501748145, -3535.3530687514626, -3534.503702462161, -3535.9565658517563, -3536.3588972519515, -3538.437609486295, -3539.421086242329, -3537.8117606415467, -3535.8448071294797, -3536.805932141058, -3539.2199205422307, -3537.431780985806, -3536.2024350407646, -3536.6271181854154, -3539.4881414756946, -3540.046935087077, -3540.9857083542, -3540.4269147428176, -3540.60572869846, -3541.32098452103, -3542.6844409328037, -3541.32098452103, -3539.7787141536137, -3539.666955431337, -3541.030411843111, -3540.896301376379, -3539.1305135644097, -3539.085810075499, -3540.315156020541, -3541.9468333657783, -3541.2986327765743, -3541.119818820932, -3540.9186531208343, -3541.4997984766724, -3541.0974670764767, -3538.929347864312, -3538.8175891420356, -3539.376382753418, -3540.2257490427196, -3542.4832752327056, -3543.4444002442838, -3544.629042700415, -3542.1479990658763, -3535.3083652625523, -3532.3355832499965, -3537.141208307887, -3542.6844409328037, -3537.3200222635296, -3533.3637634949405, -3533.6543361728595, -3532.246176272175, -3530.4356849712954, -3528.5357866925942, -3532.4249902278175, -3532.4026384833624, -3529.4969117041724, -3526.5464814360716, -3526.680591902804, -3530.9721268382227, -3534.6825164178035, -3535.822455385024, -3531.955603594256, -3530.592147182482, -3532.8496733724683, -3534.056667573055, -3535.800103640569, -3538.9740513532224, -3538.929347864312, -3538.348202508474, -3537.096504818977, -3538.3258507640185, -3538.1693885528316, -3539.4657897312395, -3540.382211253907, -3541.1645223098426, -3541.030411843111, -3540.113990320443, -3538.9740513532224, -3538.9516996087673, -3539.5328449646054, -3540.471618231728, -3540.337507764996, -3539.2422722866863, -3540.091638575988, -3539.5328449646054, -3539.1081618199546, -3538.1917402972867, -3537.6552984303594, -3538.638775186393, -3539.1081618199546, -3539.9128246203454, -3539.1975687977756, -3535.9565658517563, -3536.4259524853173, -3538.1693885528316, -3538.2587955306526, -3535.084847817999, -3535.12955130691, -3536.470655974228, -3539.734010664703, -3537.498836219172, -3537.029449585611, -3538.5270164641165, -3538.5493682085717, -3537.9011676193677, -3537.029449585611, -3535.464827473739, -3534.3919437398845, -3537.6105949414487, -3541.1868740542977, -3541.2315775432085, -3539.5551967090605, -3539.7787141536137, -3538.370554252929, -3539.443437986784, -3540.337507764996, -3538.772885653125, -3540.1810455538093, -3538.07998157501, -3538.7505339086697, -3539.2199205422307, -3537.6329466859042, -3537.2753187746193, -3538.348202508474, -3538.437609486295, -3539.2646240311415, -3539.152865308865, -3540.046935087077, -3538.5493682085717, -3538.214092041742, -3538.8846443754014, -3538.2364437861975, -3538.862292630946, -3538.79523739758, -3540.672783931826, -3539.734010664703, -3539.1975687977756, -3538.504664719661, -3539.4657897312395, -3538.8175891420356, -3538.862292630946, -3539.354031008963, -3537.70000191927, -3538.9516996087673, -3539.7787141536137, -3540.337507764996, -3539.4881414756946, -3538.8846443754014, -3539.2199205422307, -3539.2646240311415, -3538.3929059973843, -3537.6105949414487, -3538.1023333194657, -3539.376382753418, -3536.8506356299686, -3536.4930077186837, -3536.3365455074963, -3537.409429241351, -3538.8175891420356, -3539.666955431337, -3539.5999001979712, -3539.644603686882, -3540.113990320443, -3539.51049322015, -3539.309327520052, -3538.7505339086697, -3538.370554252929, -3538.147036808376, -3537.051801330066, -3539.666955431337, -3539.354031008963, -3536.8729873744237, -3538.862292630946, -3540.404562998362, -3538.504664719661, -3537.8788158749126, -3540.091638575988, -3541.611557198949, -3539.9128246203454, -3541.8797781324124, -3542.349164765974, -3538.772885653125, -3537.8117606415467, -3535.733048407203, -3536.3365455074963, -3536.6271181854154, -3537.6552984303594, -3538.862292630946, -3539.1975687977756, -3543.0644205885437, -3541.5221502211275, -3540.963356609745, -3540.2033972982645, -3539.711658920248, -3541.70096417677, -3540.4269147428176, -3542.3938682548846, -3540.7174874207367, -3538.862292630946, -3541.343336265485, -3541.4997984766724, -3542.6173856994374, -3541.2092257987533, -3539.4881414756946, -3540.359859509452, -3541.611557198949, -3542.1256473214207, -3541.5445019655826, -3541.2092257987533, -3543.2655862886413, -3543.086772332999, -3539.9351763648006, -3540.5833769540045, -3543.980842111211, -3543.1091240774545, -3542.438571743795, -3543.578510711016, -3542.215054299242, -3542.729144421714, -3543.153827566365, -3541.5445019655826, -3540.404562998362, -3542.2374060436973, -3542.5950339549822, -3542.7514961661695, -3542.9079583773564, -3541.2986327765743, -3541.119818820932, -3543.1761793108203, -3542.2374060436973, -3541.4997984766724, -3541.8350746435017, -3540.9857083542, -3539.51049322015, -3540.2257490427196, -3539.443437986784, -3538.929347864312, -3537.744705408181, -3538.5493682085717, -3539.421086242329, -3538.5270164641165, -3538.348202508474, -3539.309327520052, -3537.8788158749126, -3538.772885653125, -3539.5328449646054, -3539.376382753418, -3538.79523739758, -3538.772885653125, -3538.5270164641165, -3538.147036808376, -3538.2587955306526, -3537.6552984303594, -3537.9682228527336, -3538.4599612307507, -3539.443437986784, -3539.734010664703, -3538.638775186393, -3539.309327520052, -3538.5493682085717, -3538.862292630946, -3539.4657897312395, -3539.152865308865, -3539.1081618199546, -3539.376382753418, -3538.214092041742, -3536.6271181854154, -3536.2024350407646, -3536.761228652147, -3538.772885653125, -3539.443437986784, -3538.7505339086697, -3537.70000191927, -3537.185911796798, -3538.6164234419375, -3537.6105949414487, -3536.895339118879, -3536.9400426077896, -3536.0459728295773, -3536.515359463139, -3536.671821674326, -3536.6941734187812, -3535.531882707105, -3535.50953096265, -3536.403600740862, -3535.88951061839, -3536.6271181854154, -3536.247138529675, -3536.023621085122, -3535.8448071294797, -3536.0683245740324, -3533.0061355836556, -3534.503702462161, -3538.8175891420356, -3539.2199205422307, -3537.3647257524403, -3536.7835803966022, -3537.3200222635296, -3537.096504818977, -3538.124685063921, -3538.1693885528316, -3536.537711207594, -3537.2082635412535, -3537.0741530745213, -3537.8117606415467, -3538.571719953027, -3537.3200222635296, -3538.41525774184, -3539.9798798537113, -3536.9400426077896, -3534.436647228795, -3535.6212896849265, -3537.0070978411554, -3536.180083296309, -3538.281147275108, -3540.091638575988, -3538.9516996087673, -3537.2082635412535, -3539.1081618199546, -3541.0751153320216, -3542.729144421714, -3538.147036808376, -3534.190778039787, -3537.029449585611, -3538.772885653125, -3539.7787141536137, -3542.2374060436973, -3538.7505339086697, -3538.7505339086697, -3538.6834786753034, -3541.0751153320216, -3542.863254888446, -3541.611557198949, -3540.0692868315327, -3540.382211253907, -3539.085810075499, -3539.3316792645073, -3538.0352780860994, -3536.8729873744237, -3538.9740513532224, -3540.6280804429152, -3538.6834786753034, -3539.51049322015, -3540.60572869846, -3539.5999001979712, -3540.5386734650942, -3539.8904728758903, -3538.370554252929, -3538.996403097678, -3539.376382753418, -3539.309327520052, -3539.1752170533205, -3538.5493682085717, -3537.744705408181, -3539.3316792645073, -3539.2646240311415, -3537.498836219172, -3536.8506356299686, -3538.2587955306526, -3538.5493682085717, -3539.5999001979712, -3537.1635600523427, -3537.3200222635296, -3537.5211879636277, -3537.8117606415467, -3538.504664719661, -3538.996403097678, -3538.1917402972867, -3536.8506356299686, -3537.476484474717, -3537.767057152636, -3537.431780985806, -3536.9623943522447, -3537.3647257524403, -3538.057629830555, -3537.454132730262, -3537.0741530745213, -3538.862292630946, -3537.70000191927, -3536.2024350407646, -3536.6494699298705, -3537.096504818977, -3538.2587955306526, -3537.118856563432, -3537.185911796798, -3537.096504818977, -3536.671821674326, -3536.9847460967003, -3535.1966065402758, -3534.9730890957226, -3536.180083296309, -3534.79427514008, -3534.6825164178035, -3534.771923395625, -3535.50953096265, -3534.3472402509738, -3535.3083652625523, -3533.408466983851, -3532.0450105720774, -3534.280185017608, -3534.436647228795, -3534.4589989732503, -3533.497873961672, -3534.6825164178035, -3534.7272199067143, -3535.487179218195, -3535.487179218195, -3533.7437431506805, -3532.916728605834, -3534.481350717706, -3536.4930077186837, -3535.6212896849265, -3534.9730890957226, -3535.1966065402758, -3535.420123984829, -3537.0070978411554, -3542.2597577881525, -3538.8399408864907, -3532.559100694549, -3526.971164580723, -3527.708772147748, -3531.7544378941584, -3532.1344175498984, -3528.2675657591303, -3522.858443600946, -3524.6912866462812, -3528.379324481407, -3530.7262576492144, -3532.179121038809, -3535.6883449182924, -3536.60476644096, -3534.503702462161, -3536.470655974228, -3537.2529670301637, -3538.5493682085717, -3540.60572869846, -3539.5775484535156, -3539.2199205422307, -3539.2422722866863, -3539.152865308865, -3540.113990320443, -3539.9798798537113, -3540.7174874207367, -3539.51049322015, -3539.152865308865, -3539.421086242329, -3539.8234176425244, -3538.571719953027, -3537.767057152636, -3538.862292630946, -3538.705830419759, -3538.147036808376, -3537.2529670301637, -3536.671821674326, -3537.5211879636277, -3536.8506356299686, -3537.342374007985, -3537.2976705190745, -3536.403600740862, -3536.60476644096, -3536.247138529675, -3536.9176908633344, -3535.8448071294797, -3535.867158873935, -3535.3530687514626, -3535.6436414293817, -3535.7106966627475, -3535.531882707105, -3535.531882707105, -3536.180083296309, -3535.464827473739, -3535.7106966627475, -3534.481350717706, -3533.900205361868, -3534.3919437398845, -3533.9672605952337, -3534.548405951072, -3533.855501872957, -3533.542577450583, -3534.41429548434, -3534.3025367620635, -3533.6543361728595, -3533.274356517119, -3531.88854836089, -3532.447341972273, -3533.274356517119, -3533.162597794843, -3533.408466983851, -3533.8107983840464, -3533.520225706128, -3534.548405951072, -3535.0177925846333, -3533.497873961672, -3533.2967082615746, -3533.5872809394937, -3534.570757695527, -3535.88951061839, -3537.185911796798, -3536.470655974228, -3532.447341972273, -3533.3190600060298, -3534.503702462161, -3533.609632683949, -3534.8836821179016, -3534.9954408401777, -3536.470655974228, -3536.2024350407646, -3535.151903051365, -3535.3083652625523, -3534.8836821179016, -3537.6329466859042, -3538.124685063921, -3535.6883449182924, -3534.6154611844377, -3536.3588972519515, -3535.8448071294797, -3536.3365455074963, -3536.448304229773, -3536.180083296309, -3535.9565658517563, -3535.420123984829, -3536.9847460967003, -3537.5211879636277, -3535.1966065402758, -3534.5931094399825, -3536.8729873744237, -3539.2646240311415, -3539.1975687977756, -3538.482312975206, -3538.0129263416443, -3538.2364437861975, -3537.387077496896, -3536.8729873744237, -3536.7165251632364, -3537.409429241351, -3537.476484474717, -3537.3647257524403, -3536.6271181854154, -3536.470655974228, -3537.3647257524403, -3537.2082635412535, -3537.5882431969935, -3537.789408897091, -3536.0459728295773, -3538.5493682085717, -3538.482312975206, -3538.07998157501, -3537.2306152857086, -3536.314193763041, -3536.9847460967003, -3537.185911796798, -3537.0070978411554, -3537.141208307887, -3536.2024350407646, -3536.8729873744237, -3537.767057152636, -3537.3200222635296, -3536.738876907692, -3535.2413100291865, -3536.3588972519515, -3537.051801330066, -3537.409429241351, -3537.9235193638233, -3537.431780985806, -3536.738876907692, -3536.5824146965047, -3536.805932141058, -3536.9176908633344, -3536.023621085122, -3537.1635600523427, -3539.421086242329, -3538.370554252929, -3537.8788158749126, -3537.3647257524403, -3538.1023333194657, -3537.2306152857086, -3536.805932141058, -3538.147036808376, -3537.431780985806, -3538.571719953027, -3540.1363420648986, -3538.3258507640185, -3538.5270164641165, -3538.996403097678, -3539.2199205422307, -3539.5328449646054, -3539.443437986784, -3538.638775186393, -3535.8448071294797, -3537.990574597189, -3540.113990320443, -3538.772885653125, -3536.4930077186837, -3537.2082635412535, -3537.8788158749126, -3538.571719953027, -3537.6105949414487, -3538.5493682085717, -3538.147036808376, -3538.929347864312, -3537.744705408181, -3538.07998157501, -3537.387077496896, -3537.141208307887, -3538.0352780860994, -3537.9235193638233, -3537.118856563432, -3535.733048407203, -3535.0401443290884, -3536.381248996407, -3537.409429241351, -3537.3647257524403, -3536.7835803966022, -3536.9400426077896, -3537.2082635412535, -3537.5211879636277, -3537.5882431969935, -3536.7165251632364, -3535.733048407203, -3535.3530687514626, -3535.487179218195, -3536.403600740862], [-2567.097850692016, -2567.321368136569, -2567.321368136569, -2567.7684030256755, -2567.589589070033, -2567.2543129032033, -2566.9860919697394, -2565.5779320690554, -2566.583760569544, -2567.5001820922116, -2567.1202024364716, -2567.7907547701307, -2566.9637402252843, -2568.0589757035946, -2568.4389553593346, -2569.578894326555, -2568.3719001259688, -2567.1872576698374, -2568.550714081611, -2568.2154379147814, -2567.74605128122, -2568.0589757035946, -2567.522533836667, -2568.1483826814156, -2568.5283623371556, -2567.723699536765, -2567.7907547701307, -2566.449650102812, -2566.673167547365, -2568.3719001259688, -2568.260141403692, -2566.4720018472676, -2566.449650102812, -2566.337891380536, -2566.2037809138037, -2567.5672373255775, -2566.807278014097, -2567.231961158748, -2567.7907547701307, -2568.4166036148795, -2568.4166036148795, -2568.4836588482453, -2568.2824931481473, -2569.1318594374493, -2567.321368136569, -2567.388423369935, -2567.36607162548, -2567.7013477923097, -2568.684824548343, -2569.0871559485386, -2568.1930861703263, -2568.2824931481473, -2567.9025134924073, -2569.578894326555, -2569.645949559921, -2568.036623959139, -2568.5283623371556, -2567.2766646476584, -2567.231961158748, -2567.8354582590414, -2567.589589070033, -2568.1930861703263, -2567.8354582590414, -2567.6342925589433, -2566.695519291821, -2566.784926269642, -2566.695519291821, -2566.9860919697394, -2567.1202024364716, -2568.4389553593346, -2567.5448855811223, -2567.74605128122, -2567.678996047854, -2567.1872576698374, -2566.8519815030077, -2567.299016392114, -2567.4331268588458, -2568.662472803888, -2568.4836588482453, -2567.1872576698374, -2567.075498947561, -2567.4331268588458, -2567.813106514586, -2568.4836588482453, -2568.014272214684, -2568.7965832706195, -2568.5730658260663, -2567.9025134924073, -2568.662472803888, -2568.237789659237, -2569.578894326555, -2567.9025134924073, -2565.8908564914295, -2567.9248652368624, -2567.1872576698374, -2569.0201007151727, -2568.1260309369604, -2567.008443714195, -2568.260141403692, -2567.522533836667, -2568.036623959139, -2567.813106514586, -2567.9025134924073, -2567.388423369935, -2567.74605128122, -2568.0813274480497, -2567.8578100034965, -2568.260141403692, -2568.751879781709, -2567.7013477923097, -2567.388423369935, -2566.695519291821, -2567.813106514586, -2568.1707344258707, -2567.9248652368624, -2566.8966849919184, -2566.5167053361783, -2566.695519291821, -2567.522533836667, -2568.014272214684, -2567.880161747952, -2567.008443714195, -2567.9248652368624, -2567.5448855811223, -2568.103679192505, -2568.4836588482453, -2568.036623959139, -2568.103679192505, -2568.1483826814156, -2568.7295280372537, -2568.260141403692, -2566.9190367363735, -2569.3106733930917, -2569.198914670815, -2569.578894326555, -2569.355376882002, -2568.3719001259688, -2568.036623959139, -2567.164905925382, -2568.4836588482453, -2568.5283623371556, -2567.3437198810243, -2569.198914670815, -2568.751879781709, -2568.908341992896, -2569.5565425821, -2568.4389553593346, -2567.947216981318, -2569.198914670815, -2568.103679192505, -2568.1483826814156, -2569.1318594374493, -2568.4613071037897, -2568.5283623371556, -2569.578894326555, -2566.784926269642, -2567.03079545865, -2569.0201007151727, -2569.3777286264576, -2569.3106733930917, -2568.684824548343, -2568.4836588482453, -2567.7013477923097, -2569.8024117711084, -2569.645949559921, -2568.550714081611, -2567.678996047854, -2568.349548381513, -2569.0201007151727, -2568.8412867595302, -2570.361205382491, -2568.103679192505, -2567.9248652368624, -2570.0482809601167, -2571.165868182882, -2568.8636385039854, -2569.981225726751, -2570.4282606158567, -2569.265969904181, -2569.5341908376445, -2568.4166036148795, -2567.522533836667, -2567.5672373255775, -2566.9190367363735, -2566.9190367363735, -2568.953045481807, -2567.678996047854, -2566.8966849919184, -2567.3437198810243, -2567.299016392114, -2567.880161747952, -2567.7013477923097, -2567.008443714195, -2568.260141403692, -2568.349548381513, -2568.908341992896, -2568.4613071037897, -2567.522533836667, -2568.036623959139, -2568.751879781709, -2568.550714081611, -2568.237789659237, -2568.7742315261644, -2567.03079545865, -2568.908341992896, -2568.5283623371556, -2567.7013477923097, -2568.707176292798, -2569.0201007151727, -2569.422432115368, -2568.8636385039854, -2568.0813274480497, -2567.9025134924073, -2567.8354582590414, -2567.74605128122, -2567.7013477923097, -2567.36607162548, -2568.1930861703263, -2567.74605128122, -2568.751879781709, -2568.014272214684, -2568.662472803888, -2569.0201007151727, -2568.7742315261644, -2568.662472803888, -2567.1202024364716, -2566.8519815030077, -2568.5060105927005, -2567.36607162548, -2567.0531472031057, -2566.8966849919184, -2567.36607162548, -2566.449650102812, -2566.360243124991, -2568.237789659237, -2567.7907547701307, -2567.74605128122, -2568.260141403692, -2567.231961158748, -2567.6342925589433, -2566.337891380536, -2565.5108768356895, -2566.2708361471696, -2566.695519291821, -2566.427298358357, -2566.6284640584545, -2565.354414624502, -2566.4943535917228, -2567.231961158748, -2566.2261326582593, -2566.8519815030077, -2567.74605128122, -2566.941388480829, -2567.03079545865, -2567.589589070033, -2567.7013477923097, -2567.2766646476584, -2567.299016392114, -2565.6673390468764, -2566.9190367363735, -2567.656644303399, -2566.2261326582593, -2565.779097769153, -2567.611940814488, -2566.9637402252843, -2566.069670447072, -2565.488525091234, -2566.4720018472676, -2566.65081580291, -2566.2708361471696, -2567.075498947561, -2566.0249669581613, -2565.9132082358847, -2567.231961158748, -2567.075498947561, -2566.2261326582593, -2566.449650102812, -2566.136725680438, -2566.4720018472676, -2567.7013477923097, -2568.1930861703263, -2568.4613071037897, -2568.2824931481473, -2567.2543129032033, -2568.394251870424, -2567.6342925589433, -2567.723699536765, -2567.7013477923097, -2567.299016392114, -2567.74605128122, -2567.4331268588458, -2567.2543129032033, -2567.9248652368624, -2568.595417570522, -2569.265969904181, -2568.1260309369604, -2568.394251870424, -2568.237789659237, -2567.2766646476584, -2567.4107751143906, -2566.9637402252843, -2568.103679192505, -2568.953045481807, -2568.1483826814156, -2569.1542111819044, -2568.4836588482453, -2568.349548381513, -2567.880161747952, -2566.8743332474633, -2567.4107751143906, -2567.9248652368624, -2566.941388480829, -2567.455478603301, -2566.8743332474633, -2566.9190367363735, -2568.5730658260663, -2568.327196637058, -2569.8024117711084, -2570.607074571499, -2569.0871559485386, -2569.713004793287, -2570.070632704572, -2568.260141403692, -2568.5730658260663, -2569.198914670815, -2567.4778303477565, -2567.36607162548, -2568.4166036148795, -2567.36607162548, -2568.304844892603, -2569.0871559485386, -2568.8412867595302, -2568.304844892603, -2569.5341908376445, -2569.355376882002, -2569.7577082821977, -2569.713004793287, -2569.064804204083, -2569.288321648636, -2569.0871559485386, -2569.1765629263596, -2568.304844892603, -2568.0589757035946, -2568.4836588482453, -2567.7013477923097, -2567.1425541809267, -2566.7625745251867, -2566.2708361471696, -2566.5614088250886, -2563.722737279265, -2563.387461112435, -2562.113411678483, -2559.1853331548373, -2558.6041877989996, -2554.714984263776, -2545.9978039262064, -2539.2028736117927, -2534.9560421652845, -2532.497350275201, -2524.271908315648, -2515.0629896000614, -2505.6305534399216, -2498.746216147687, -2488.464413698246, -2478.562590904545, -2473.2205239797263, -2466.8726285544194, -2460.658843595844, -2454.5791691040004, -2450.779372546598, -2448.208921934238, -2443.045668965062, -2440.1175904414167, -2438.396506118358, -2435.9378142282744, -2432.473293837702, -2432.562700815523, -2432.2497763931487, -2430.618099047911, -2430.886319981375, -2431.7803897595873, -2435.915462483819, -2439.5811485744894, -2442.8668550094194, -2448.499494612157, -2453.394526647869, -2456.1214394714166, -2461.396451162869, -2467.721994843721, -2470.20303847826, -2475.858029825453, -2483.5470299180784, -2486.8103846085532, -2493.471204456235, -2498.96973359224, -2502.881288871919, -2508.9386116193073, -2515.845300655997, -2520.9191466473517, -2525.1212746049496, -2528.3399258065137, -2531.4468182858013, -2535.850111943497, -2539.582853267533, -2541.8627312019744, -2543.717925991765, -2543.516760291667, -2543.5391120361223, -2547.070687660061, -2548.1212196494603, -2549.3058621055916, -2547.070687660061, -2542.622690513455, -2538.0852863890277, -2539.9628329232733, -2536.2300915992373, -2526.2835653166253, -2515.3982657668907, -2507.7986726520867, -2499.8414516259973, -2489.0008555651734, -2474.0251867801176, -2464.3245296865143, -2453.4392301367798, -2441.726916042199, -2431.825093248498, -2427.399447846347, -2419.0175436756067, -2416.558851785523, -2410.9038604383304, -2406.9699534141964, -2404.0865783794616, -2399.5491742550344, -2398.4986422656348, -2399.2138980882046, -2399.370360299392, -2403.013694645607, -2407.2605260921155, -2409.1604243708166, -2412.624944761389, -2418.6822675087774, -2425.007811189629, -2431.333354870481, -2436.6083665619335, -2441.324584642003, -2446.4207823778133, -2451.1817039467937, -2457.171971460816, -2463.6986808417655, -2469.5101344001455, -2474.874553069419, -2481.1777450058157, -2485.5363351746005, -2491.2583817551595, -2496.4886899577014, -2501.4060737378686, -2505.5411464621006, -2509.296239530592, -2514.1912715663043, -2517.3428675345026, -2520.40505652488, -2525.1212746049496, -2526.998821139195, -2528.205815339782, -2531.3574113079803, -2533.436123542324, -2535.9171671768627, -2536.520664277156, -2534.5090072761786, -2532.1173706194604, -2536.297146832603, -2536.0289258991393, -2534.1513793648937, -2530.485693274223, -2523.9366321488183, -2522.327306548036, -2513.6995331882877, -2506.435216240313, -2494.2088120232597, -2480.2389717386927, -2465.0621372535393, -2449.9523580017517, -2437.3236223845033, -2427.8911862243635, -2420.3810000873805, -2416.1565203853274, -2416.4247413187913, -2419.9339651982746, -2424.5831280449784, -2428.271165880104, -2434.395543860858, -2439.759962530132, -2446.331375399992, -2453.305119670048, -2457.328433672003, -2462.2458174521707, -2469.979521033707, -2474.9863117916957, -2480.5965996499776, -2487.1233090309274, -2491.884230599908, -2495.5946201794886, -2501.4731289712345, -2506.6810854293212, -2509.2068325527707, -2513.721884932743, -2518.3710477794466, -2521.8579199144747, -2524.8530536714857, -2527.5129112616673, -2530.485693274223, -2533.436123542324, -2535.6042427544885, -2538.040582900117, -2539.426391056346, -2541.1921788683153, -2543.203835869293, -2545.4390103148235, -2546.6460045154104, -2546.109562648483, -2546.511894048678, -2547.2495016157036, -2548.098867905005, -2548.07651616055, -2547.294205104614, -2546.914225448874, -2547.0036324266953, -2547.3389085935246, -2545.0143271701727, -2544.0308504141394, -2544.0532021585946, -2545.17078938136, -2545.4390103148235, -2542.7568009801867, -2539.3146323340693, -2534.710172976276, -2529.256347329181, -2522.372010036947, -2512.492538987701, -2505.7423121621982, -2492.6665416558435, -2484.0611200405506, -2482.272980484126, -2471.3876809343915, -2460.815305807031, -2451.561683602534, -2444.945567243763, -2439.8270177634977, -2436.72012528421, -2433.8367502494752, -2433.4791223381903, -2433.81439850502, -2436.138979928372, -2438.687078796277, -2441.4139916198246, -2444.364421887925, -2448.790067290076, -2452.34399465847, -2454.8026865485535, -2459.1612767173383, -2462.6034453634556, -2463.3410529304806, -2464.9280267868075, -2467.67729135481, -2464.9503785312627, -2463.810439564042, -2468.750175088665, -2470.7394803451875, -2469.957169289252, -2470.2253902227153, -2467.4984773991678, -2466.3808901764023, -2463.363404674936, -2456.590826104978, -2453.10395396995, -2444.140904443372, -2437.725953784699, -2434.90963398333, -2430.0593054365286, -2420.6045175319337, -2413.5190145396014, -2408.3110580815146, -2405.517090024601, -2404.0865783794616, -2404.265392335104, -2404.600668501934, -2404.198337101738, -2408.3110580815146, -2410.8368052049645, -2411.596764516445, -2415.0836366514727, -2419.6210407759, -2424.6054797894335, -2427.7794275020874, -2430.7969130035535, -2435.6695932948105, -2440.34110788597, -2447.203093433749, -2451.2934626690703, -2453.953320259252, -2459.3847941618915, -2464.9056750423524, -2468.951340788763, -2472.7064338572545, -2479.657826382855, -2485.6704456413327, -2489.0455590540837, -2494.454681212268, -2498.008608580662, -2501.4507772267793, -2506.2564022846705, -2509.8997366308854, -2515.621783211444, -2519.7345041912204, -2520.762684436165, -2523.5566524930778, -2528.2505188286923, -2530.910376418874, -2533.7713997091532, -2535.5595392655778, -2536.6100712549774, -2537.0571061440833, -2539.8063707120864, -2540.4098678123796, -2541.5051032906895, -2543.628519013944, -2543.9861469252287, -2546.221321370759, -2545.975452181751, -2547.070687660061, -2548.2553301161925, -2549.1493998944047, -2551.049298173106, -2551.3175191065693, -2553.060955174083, -2552.3456993515133, -2552.1445336514157, -2553.3738795964578, -2554.580873797044, -2554.26794937467, -2554.4467633303125, -2555.318481364069, -2556.324309864558, -2556.748993009209, -2555.564350553078, -2555.519647064167, -2556.3690133534687, -2555.7878679976307, -2555.8325714865414, -2556.972510453762, -2556.681937775843, -2557.88893197643, -2558.7382982657314, -2558.850056988008, -2558.134801165438, -2559.6770715328544, -2560.4146790998793, -2560.1241064219603, -2560.191161655326, -2559.453554088301, -2559.3641471104797, -2560.7052517777984, -2561.8898942339297, -2561.6440250449214, -2561.487562833734, -2561.532266322645, -2561.5769698115555, -2562.225170400759, -2561.6440250449214, -2561.129934922449, -2561.1522866669043, -2561.822839000564, -2561.822839000564, -2561.621673300466, -2560.9511209668067, -2561.17463841136, -2562.0016529562063, -2561.8898942339297, -2561.0628796890833, -2561.420507600368, -2562.4039843564015, -2562.135763422938, -2560.526437822156, -2560.5711413110666, -2560.526437822156, -2557.4195453428683, -2557.1513244094044, -2552.680975518343, -2550.9375394508293, -2552.032774929139, -2541.9297864353402, -2531.513873519167, -2520.494463502701, -2510.302068031081, -2504.6470766838884, -2493.471204456235, -2475.2545327251596, -2461.9552447742517, -2450.689965568777, -2439.8046660190425, -2432.227424648693, -2428.047648435551, -2423.3090786110256, -2418.794026231054, -2416.558851785523, -2417.229404119182, -2417.877604708386, -2416.044761663051, -2414.591898273456, -2414.368380828903, -2412.2002616167383, -2413.8319389619755, -2417.184700630272, -2419.4422268202575, -2423.8902239668637, -2426.9077094683303, -2430.8416164924643, -2436.809532262031, -2441.972785231207, -2444.297366654559, -2448.879474267897, -2454.646224337366, -2459.273035439615, -2463.4081081638465, -2468.101974499461, -2472.974654790718, -2476.7744513481202, -2481.5353729171006, -2485.715149130243, -2488.9338003318076, -2493.5159079451455, -2499.5061754591675, -2503.4400824833015, -2506.6140301959554, -2510.033847097617, -2513.1854430658154, -2516.560556478567, -2521.4108850253683, -2523.0872658595167, -2525.233033327226, -2526.97646939474, -2529.8374926850192, -2531.580928752533, -2533.16790260886, -2534.4419520428123, -2536.45360904379, -2537.6382514999214, -2538.9570044227844, -2539.4487428008015, -2540.07459164555, -2541.5498067796, -2542.98031842474, -2543.4273533138457, -2544.254367858692, -2543.650870758399, -2544.232016114237, -2545.103734147994, -2546.3330800930357, -2548.232978371737, -2548.5459027941115, -2549.2388068722257, -2550.356394094991, -2549.685841761332, -2550.2893388616253, -2550.6022632839995, -2550.445801072812, -2550.64696677291, -2551.3398708510244, -2551.36222259548, -2552.3456993515133, -2552.5021615627006, -2551.429277828846, -2552.5468650516113, -2554.26794937467, -2552.680975518343, -2552.323347607058, -2553.1727138963597, -2552.6362720294323, -2552.949196451807, -2553.105658662994, -2552.2562923736923, -2550.401097583902, -2552.0551266735947, -2551.295167362114, -2551.451629573301, -2552.166885395871, -2547.785943482631, -2545.2154928702707, -2538.8228939560527, -2531.871501430452, -2523.333135048525, -2523.780169937631, -2512.8725186434413, -2498.1650707918493, -2491.6160096664444, -2477.8920385708857, -2462.7375558301874, -2457.909579027841, -2452.813381292031, -2443.3809451318916, -2435.5801863169895, -2429.947546714252, -2425.298383867548, -2420.33629659847, -2420.0233721760956, -2418.168177386305, -2418.659915764322, -2421.409180332325, -2424.5384245560676, -2425.745418756654, -2430.4392850922686, -2434.52965432759, -2439.2235206632045, -2443.0680207095174, -2448.499494612157, -2452.9251400143075, -2456.881398782897, -2462.8940180413747, -2468.2807884551034, -2472.594675134978, -2477.847335081975, -2482.3176839730363, -2488.240896253693, -2493.3817974784133, -2497.338056247003, -2500.4225969818353, -2505.0047045951733, -2509.586812208511, -2512.358428520969, -2515.845300655997, -2518.6392687129105, -2521.1203123474497, -2524.1154461044607, -2526.4623792722678, -2527.9599461507737, -2528.518739762156, -2531.290356074614, -2531.938556663818, -2533.078495631039, -2534.777228209642, -2534.486655531723, -2535.648946243399, -2537.973527666751, -2537.8841206889297, -2539.2475771007034, -2539.985184667729, -2539.985184667729, -2541.7733242241534, -2543.5391120361223, -2542.689745746821, -2543.3155945915696, -2543.4497050583013, -2543.494408547212, -2544.7237544922536, -2546.6907080043206, -2546.2436731152147, -2545.5507690371, -2546.2883766041255, -2546.4001353264016, -2547.584777782533, -2546.6683562598655, -2546.824818471053, -2547.9647574382734, -2547.6294812714436, -2547.6965365048095, -2547.584777782533, -2548.2776818606476, -2549.909359205885, -2550.5575597950888, -2549.775248739153, -2549.104696405494, -2550.8704842174634, -2550.8257807285527, -2550.6022632839995, -2551.585740040033, -2551.2504638732034, -2551.3175191065693, -2552.032774929139, -2552.7927342406197, -2553.776210996653, -2554.1114871634827, -2553.5973970410105, -2553.8209144855637, -2553.1727138963597, -2554.3126528635803, -2554.0891354190276, -2553.8656179744744, -2555.586702297533, -2554.98320519724, -2554.5138185636783, -2553.9326732078403, -2554.7373360082315, -2555.720812764265, -2554.9608534527842, -2555.385536597435, -2555.944330208818, -2555.944330208818, -2556.301958120103, -2555.5419988086223, -2556.2125511422814, -2556.391365097924, -2556.1901993978263, -2557.598359298511, -2557.196027898315, -2556.6372342869327, -2557.0619174315834, -2558.1795046543484, -2558.4700773322675, -2558.715946521276, -2556.8607517314854, -2557.285434876136, -2557.7995249986084, -2557.1513244094044, -2557.0842691760386, -2556.0784406755497, -2555.7431645087204, -2556.033737186639, -2556.391365097924, -2557.911283720885, -2556.1901993978263, -2557.1289726649493, -2557.196027898315, -2557.240731387226, -2558.1795046543484, -2558.2465598877147, -2558.626539543455, -2559.207684899293, -2558.201856398804, -2558.3136151210806, -2559.140629665927, -2558.9618157102846, -2558.8053534990972, -2559.811181999586, -2559.0735744325607, -2558.64889128791, -2559.565312810578, -2559.7664785106754, -2558.7382982657314, -2558.8947604769182, -2559.7441267662202, -2559.297091877114, -2558.6712430323655, -2559.4312023438456, -2560.7052517777984, -2560.235865144237, -2559.900588977407, -2559.3864988549353, -2560.884065733441, -2560.817010500075, -2561.264045389181, -2561.420507600368, -2560.526437822156, -2560.6381965444325, -2560.9958244557174, -2560.9511209668067, -2561.6663767893765, -2561.4428593448233, -2561.3087488780916, -2561.420507600368, -2561.264045389181, -2561.3534523670023, -2561.17463841136, -2561.800487256108, -2562.225170400759, -2562.493391334223, -2560.258216888692, -2560.191161655326, -2561.711080278287, -2561.912245978385, -2561.5769698115555, -2561.867542489474, -2561.5993215560106, -2561.3087488780916, -2561.0628796890833, -2561.5993215560106, -2560.7946587556194, -2560.817010500075, -2561.822839000564, -2561.778135511653, -2560.83936224453, -2561.755783767198, -2561.867542489474, -2559.520609321667, -2560.168809910871, -2560.973472711262, -2560.6605482888876, -2560.7052517777984, -2560.2135133997817, -2559.6770715328544, -2559.587664555033, -2558.917112221374, -2559.252388388203, -2559.811181999586, -2559.4759058327563, -2560.593493055522, -2560.1241064219603, -2560.4370308443345, -2559.4759058327563, -2559.6994232773095, -2559.6994232773095]]
