['beep', 0.0, 0.0, 0.0, 0.0, 0.0, 0.0, 0.0, 0.0]
['beep', 0.0, -67.36815778829549, 0.0, 0.0, 0.0, 0.0, 7497.311532176916, 0.0]
['beep', 0.0, -68.28457931096308, 0.0, 0.0, 0.0, 0.0, 7497.065662987908, 0.0]
['beep', 0.0, -68.44104152215023, 0.0, 0.0, 0.0, 0.0, 7496.0151309985085, 0.0]
['beep', 0.0, -67.85989616631224, 0.0, 0.0, 0.0, 0.0, 7494.763433309011, 0.0]
['beep', 0.0, -67.77048918849101, 0.0, 0.0, 0.0, 0.0, 7495.232819942573, 0.0]
['beep', 0.0, -66.13881184325359, 0.0, 0.0, 0.0, 0.0, 7496.90920077672, 0.0]
['beep', 0.0, -66.58584673235974, 0.0, 0.0, 0.0, 0.0, 7499.367892666804, 0.0]
['beep', 0.0, -67.45756476611672, 0.0, 0.0, 0.0, 0.0, 7499.703168833634, 0.0]
['beep', 0.0, -66.4293845211726, 0.0, 0.0, 0.0, 0.0, 7498.943209522154, 0.0]
['beep', 0.0, -66.80936417691281, 0.0, 0.0, 0.0, 0.0, 7498.205601955128, 0.0]
['beep', 0.0, -68.48574501106084, 0.0, 0.0, 0.0, 0.0, 7497.53504962147, 0.0]
['beep', 0.0, -67.03288162146588, 0.0, 0.0, 0.0, 0.0, 7500.530183378481, 0.0]
['beep', 0.0, -62.674291452681004, 0.0, 0.0, 0.0, 0.0, 7502.452433401637, 0.0]
['beep', 0.0, -59.098012339831875, 0.0, 0.0, 0.0, 0.0, 7497.244476943551, 0.0]
['beep', 0.0, -59.61210246230394, 0.0, 0.0, 0.0, 0.0, 7494.7857850534665, 0.0]
['beep', 0.0, -60.03678560695477, 0.0, 0.0, 0.0, 0.0, 7496.082186231874, 0.0]
['beep', 0.0, -60.26030305150784, 0.0, 0.0, 0.0, 0.0, 7495.299875175939, 0.0]
['beep', 0.0, -60.84144840734582, 0.0, 0.0, 0.0, 0.0, 7489.980159995575, 0.0]
['beep', 0.0, -58.60627396181512, 0.0, 0.0, 0.0, 0.0, 7486.9179710051985, 0.0]
['beep', 0.0, -55.56643671589336, 0.0, 0.0, 0.0, 0.0, 7487.074433216386, 0.0]
['beep', 0.0, -56.23698904955257, 0.0, 0.0, 0.0, 0.0, 7485.532162848969, 0.0]
['beep', 0.0, -57.35457627231792, 0.0, 0.0, 0.0, 0.0, 7482.559380836414, 0.0]
['beep', 0.0, -58.80743966191288, 0.0, 0.0, 0.0, 0.0, 7479.363081379304, 0.0]
['beep', 0.0, -59.65680595121455, 0.0, 0.0, 0.0, 0.0, 7475.719747033089, 0.0]
['beep', 0.0, -57.75690767251345, 0.0, 0.0, 0.0, 0.0, 7473.171648165185, 0.0]
['beep', 0.0, -60.081489095865386, 0.0, 0.0, 0.0, 0.0, 7471.607026053313, 0.0]
['beep', 0.0, -64.68594845365864, 0.0, 0.0, 0.0, 0.0, 7469.595369052336, 0.0]
['beep', 0.0, -64.17185833118657, 0.0, 0.0, 0.0, 0.0, 7466.063793428397, 0.0]
['beep', 0.0, -64.5741897313821, 0.0, 0.0, 0.0, 0.0, 7463.8509707273215, 0.0]
['beep', 0.0, -63.68011995316982, 0.0, 0.0, 0.0, 0.0, 7465.639110283746, 0.0]
['beep', 0.0, -63.121326341787146, 0.0, 0.0, 0.0, 0.0, 7464.7897439944445, 0.0]
['beep', 0.0, -64.03774786445473, 0.0, 0.0, 0.0, 0.0, 7465.348537605827, 0.0]
['beep', 0.0, -63.90363739772289, 0.0, 0.0, 0.0, 0.0, 7465.884979472755, 0.0]
['beep', 0.0, -64.2165618200972, 0.0, 0.0, 0.0, 0.0, 7465.639110283746, 0.0]
['beep', 0.0, -65.13298334276477, 0.0, 0.0, 0.0, 0.0, 7465.348537605827, 0.0]
['beep', 0.0, -64.61889322029272, 0.0, 0.0, 0.0, 0.0, 7465.6167585392905, 0.0]
['beep', 0.0, -64.75300368702456, 0.0, 0.0, 0.0, 0.0, 7466.466124828592, 0.0]
['beep', 0.0, -65.78118393196868, 0.0, 0.0, 0.0, 0.0, 7466.264959128494, 0.0]
['beep', 0.0, -65.13298334276477, 0.0, 0.0, 0.0, 0.0, 7465.4379445836485, 0.0]
['beep', 0.0, -61.73551818555811, 0.0, 0.0, 0.0, 0.0, 7465.773220750478, 0.0]
['beep', 0.0, -59.14271582874249, 0.0, 0.0, 0.0, 0.0, 7466.577883550869, 0.0]
['beep', 0.0, -60.26030305150784, 0.0, 0.0, 0.0, 0.0, 7467.159028906707, 0.0]
['beep', 0.0, -60.72968968506929, 0.0, 0.0, 0.0, 0.0, 7467.226084140073, 0.0]
['beep', 0.0, -58.82979140636819, 0.0, 0.0, 0.0, 0.0, 7467.248435884529, 0.0]
['beep', 0.0, -59.8132681624017, 0.0, 0.0, 0.0, 0.0, 7469.483610330059, 0.0]
['beep', 0.0, -60.483820496060915, 0.0, 0.0, 0.0, 0.0, 7466.913159717698, 0.0]
['beep', 0.0, -62.45077400812794, 0.0, 0.0, 0.0, 0.0, 7464.879150972266, 0.0]
['beep', 0.0, -65.62472172078154, 0.0, 0.0, 0.0, 0.0, 7466.153200406218, 0.0]
['beep', 0.0, -64.8647624093011, 0.0, 0.0, 0.0, 0.0, 7466.220255639584, 0.0]
['beep', 0.0, -65.46825950959439, 0.0, 0.0, 0.0, 0.0, 7464.767392249989, 0.0]
['beep', 0.0, -66.58584673235974, 0.0, 0.0, 0.0, 0.0, 7464.409764338704, 0.0]
['beep', 0.0, -65.53531474296031, 0.0, 0.0, 0.0, 0.0, 7465.862627728299, 0.0]
['beep', 0.0, -64.9094658982117, 0.0, 0.0, 0.0, 0.0, 7466.354366106316, 0.0]
['beep', 0.0, -63.970692631088816, 0.0, 0.0, 0.0, 0.0, 7466.309662617406, 0.0]
['beep', 0.0, -64.44007926465027, 0.0, 0.0, 0.0, 0.0, 7465.773220750478, 0.0]
['beep', 0.0, -63.07662285287653, 0.0, 0.0, 0.0, 0.0, 7464.8120957389, 0.0]
['beep', 0.0, -64.9094658982117, 0.0, 0.0, 0.0, 0.0, 7464.566226549891, 0.0]
['beep', 0.0, -65.35650078731786, 0.0, 0.0, 0.0, 0.0, 7466.734345762056, 0.0]
['beep', 0.0, -65.58001823187092, 0.0, 0.0, 0.0, 0.0, 7465.504999817014, 0.0]
['beep', 0.0, -63.858933908812276, 0.0, 0.0, 0.0, 0.0, 7464.655633527713, 0.0]
['beep', 0.0, -63.76952693099105, 0.0, 0.0, 0.0, 0.0, 7466.220255639584, 0.0]
['beep', 0.0, -64.5741897313821, 0.0, 0.0, 0.0, 0.0, 7468.231912640562, 0.0]
['beep', 0.0, -64.19421007564189, 0.0, 0.0, 0.0, 0.0, 7466.510828317503, 0.0]
['beep', 0.0, -63.00956761951061, 0.0, 0.0, 0.0, 0.0, 7465.952034706121, 0.0]
['beep', 0.0, -62.09314609684302, 0.0, 0.0, 0.0, 0.0, 7465.549703305925, 0.0]
['beep', 0.0, -62.942512386144685, 0.0, 0.0, 0.0, 0.0, 7466.622587039779, 0.0]
['beep', 0.0, -63.14367808624245, 0.0, 0.0, 0.0, 0.0, 7467.6060637958135, 0.0]
['beep', 0.0, -63.657768208714515, 0.0, 0.0, 0.0, 0.0, 7467.404898095715, 0.0]
['beep', 0.0, -64.19421007564189, 0.0, 0.0, 0.0, 0.0, 7469.081278929863, 0.0]
['beep', 0.0, -62.85310540832346, 0.0, 0.0, 0.0, 0.0, 7468.589540551847, 0.0]
['beep', 0.0, -63.03191936396592, 0.0, 0.0, 0.0, 0.0, 7468.008395196009, 0.0]
['beep', 0.0, -64.48478275356088, 0.0, 0.0, 0.0, 0.0, 7468.008395196009, 0.0]
['beep', 0.0, -65.22239032058602, 0.0, 0.0, 0.0, 0.0, 7469.260092885505, 0.0]
['beep', 0.0, -64.97652113157763, 0.0, 0.0, 0.0, 0.0, 7471.025880697475, 0.0]
['beep', 0.0, -64.12715484227596, 0.0, 0.0, 0.0, 0.0, 7470.265921385994, 0.0]
['beep', 0.0, -64.97652113157763, 0.0, 0.0, 0.0, 0.0, 7470.66825278619, 0.0]
['beep', 0.0, -65.20003857613071, 0.0, 0.0, 0.0, 0.0, 7471.04823244193, 0.0]
['beep', 0.0, -64.93181764266701, 0.0, 0.0, 0.0, 0.0, 7469.416555096693, 0.0]
['beep', 0.0, -64.79770717593517, 0.0, 0.0, 0.0, 0.0, 7468.500133574025, 0.0]
['beep', 0.0, -63.63541646425921, 0.0, 0.0, 0.0, 0.0, 7469.483610330059, 0.0]
['beep', 0.0, -63.23308506406368, 0.0, 0.0, 0.0, 0.0, 7467.516656817992, 0.0]
['beep', 0.0, -65.24474206504132, 0.0, 0.0, 0.0, 0.0, 7468.120153918285, 0.0]
['beep', 0.0, -61.82492516337933, 0.0, 0.0, 0.0, 0.0, 7469.371851607782, 0.0]
['beep', 0.0, -62.406070519217316, 0.0, 0.0, 0.0, 0.0, 7468.0754504293745, 0.0]
['beep', 0.0, -61.288483296451965, 0.0, 0.0, 0.0, 0.0, 7467.650767284724, 0.0]
['beep', 0.0, -61.13202108526482, 0.0, 0.0, 0.0, 0.0, 7469.081278929863, 0.0]
['beep', 0.0, -63.121326341787146, 0.0, 0.0, 0.0, 0.0, 7468.500133574025, 0.0]
['beep', 0.0, -61.62375946328157, 0.0, 0.0, 0.0, 0.0, 7470.310624874905, 0.0]
['beep', 0.0, -60.72968968506929, 0.0, 0.0, 0.0, 0.0, 7470.377680108271, 0.0]
['beep', 0.0, -60.72968968506929, 0.0, 0.0, 0.0, 0.0, 7468.231912640562, 0.0]
['beep', 0.0, -59.61210246230394, 0.0, 0.0, 0.0, 0.0, 7468.0754504293745, 0.0]
['beep', 0.0, -60.64028270724806, 0.0, 0.0, 0.0, 0.0, 7468.678947529668, 0.0]
['beep', 0.0, -61.288483296451965, 0.0, 0.0, 0.0, 0.0, 7469.327148118872, 0.0]
['beep', 0.0, -59.88032339576762, 0.0, 0.0, 0.0, 0.0, 7469.058927185408, 0.0]
['beep', 0.0, -58.69568093963635, 0.0, 0.0, 0.0, 0.0, 7468.746002763034, 0.0]
['beep', 0.0, -58.36040477280674, 0.0, 0.0, 0.0, 0.0, 7470.422383597182, 0.0]
['beep', 0.0, -58.76273617300227, 0.0, 0.0, 0.0, 0.0, 7470.109459174808, 0.0]
['beep', 0.0, -59.12036408428718, 0.0, 0.0, 0.0, 0.0, 7470.087107430352, 0.0]
['beep', 0.0, -60.14854432923131, 0.0, 0.0, 0.0, 0.0, 7469.438906841148, 0.0]
['beep', 0.0, -58.94155012864472, 0.0, 0.0, 0.0, 0.0, 7468.678947529668, 0.0]
['beep', 0.0, -58.29334953944082, 0.0, 0.0, 0.0, 0.0, 7469.595369052336, 0.0]
['beep', 0.0, -60.50617224051622, 0.0, 0.0, 0.0, 0.0, 7469.975348708075, 0.0]
['beep', 0.0, -60.50617224051622, 0.0, 0.0, 0.0, 0.0, 7471.361156864305, 0.0]
['beep', 0.0, -58.8744948952788, 0.0, 0.0, 0.0, 0.0, 7470.712956275101, 0.0]
['beep', 0.0, -59.098012339831875, 0.0, 0.0, 0.0, 0.0, 7471.227046397573, 0.0]
['beep', 0.0, -59.4779919955721, 0.0, 0.0, 0.0, 0.0, 7473.618683054291, 0.0]
['beep', 0.0, -59.098012339831875, 0.0, 0.0, 0.0, 0.0, 7474.110421432308, 0.0]
['beep', 0.0, -59.098012339831875, 0.0, 0.0, 0.0, 0.0, 7474.311587132405, 0.0]
['beep', 0.0, -58.98625361755534, 0.0, 0.0, 0.0, 0.0, 7476.300892388927, 0.0]
['beep', 0.0, -57.645148950236916, 0.0, 0.0, 0.0, 0.0, 7477.418479611693, 0.0]
['beep', 0.0, -56.77343091647994, 0.0, 0.0, 0.0, 0.0, 7477.507886589514, 0.0]
['beep', 0.0, -58.919198384189414, 0.0, 0.0, 0.0, 0.0, 7480.748889535534, 0.0]
['beep', 0.0, -59.433288506661476, 0.0, 0.0, 0.0, 0.0, 7484.012244226008, 0.0]
['beep', 0.0, -59.098012339831875, 0.0, 0.0, 0.0, 0.0, 7484.5710378373915, 0.0]
['beep', 0.0, -57.73455592805814, 0.0, 0.0, 0.0, 0.0, 7485.621569826791, 0.0]
['beep', 0.0, -57.35457627231792, 0.0, 0.0, 0.0, 0.0, 7487.00737798302, 0.0]
['beep', 0.0, -58.42746000617266, 0.0, 0.0, 0.0, 0.0, 7488.169668694695, 0.0]
['beep', 0.0, -60.52852398497153, 0.0, 0.0, 0.0, 0.0, 7489.153145450729, 0.0]
['beep', 0.0, -59.1874193176531, 0.0, 0.0, 0.0, 0.0, 7490.382491395771, 0.0]
['beep', 0.0, -57.82396290587937, 0.0, 0.0, 0.0, 0.0, 7489.287255917461, 0.0]
['beep', 0.0, -59.61210246230394, 0.0, 0.0, 0.0, 0.0, 7488.102613461329, 0.0]
['beep', 0.0, -61.288483296451965, 0.0, 0.0, 0.0, 0.0, 7488.86257277281, 0.0]
['beep', 0.0, -54.47120123758331, 0.0, 0.0, 0.0, 0.0, 7489.063738472908, 0.0]
['beep', 0.0, -50.3137767688962, 0.0, 0.0, 0.0, 0.0, 7488.951979750631, 0.0]
['beep', 0.0, -48.65974767920348, 0.0, 0.0, 0.0, 0.0, 7486.739157049556, 0.0]
['beep', 0.0, -50.403183746717424, 0.0, 0.0, 0.0, 0.0, 7483.1628779367065, 0.0]
['beep', 0.0, -52.772468658979975, 0.0, 0.0, 0.0, 0.0, 7481.307683146916, 0.0]
['beep', 0.0, -53.33126227036265, 0.0, 0.0, 0.0, 0.0, 7479.7654127795, 0.0]
['beep', 0.0, -51.36430875829563, 0.0, 0.0, 0.0, 0.0, 7478.334901134361, 0.0]
['beep', 0.0, -49.15148605722023, 0.0, 0.0, 0.0, 0.0, 7476.770279022489, 0.0]
['beep', 0.0, -51.76664015849116, 0.0, 0.0, 0.0, 0.0, 7472.925778976176, 0.0]
['beep', 0.0, -56.41580300519502, 0.0, 0.0, 0.0, 0.0, 7469.52831381897, 0.0]
['beep', 0.0, -56.661672194203405, 0.0, 0.0, 0.0, 0.0, 7469.707127774612, 0.0]
['beep', 0.0, -58.919198384189414, 0.0, 0.0, 0.0, 0.0, 7467.04727018443, 0.0]
['beep', 0.0, -63.791878675446355, 0.0, 0.0, 0.0, 0.0, 7462.956900949109, 0.0]
['beep', 0.0, -65.28944555395194, 0.0, 0.0, 0.0, 0.0, 7461.124057903774, 0.0]
['beep', 0.0, -69.11159385580943, 0.0, 0.0, 0.0, 0.0, 7460.766429992489, 0.0]
['beep', 0.0, -72.4420037796502, 0.0, 0.0, 0.0, 0.0, 7460.542912547936, 0.0]
['beep', 0.0, -75.3253788143848, 0.0, 0.0, 0.0, 0.0, 7457.458371813103, 0.0]
['beep', 0.0, -79.03576839396577, 0.0, 0.0, 0.0, 0.0, 7454.99967992302, 0.0]
['beep', 0.0, -79.39339630525069, 0.0, 0.0, 0.0, 0.0, 7457.23485436855, 0.0]
['beep', 0.0, -78.29816082694065, 0.0, 0.0, 0.0, 0.0, 7458.531255546958, 0.0]
['beep', 0.0, -78.96871316059985, 0.0, 0.0, 0.0, 0.0, 7457.547778790925, 0.0]
['beep', 0.0, -78.7898992049574, 0.0, 0.0, 0.0, 0.0, 7456.541950290436, 0.0]
['beep', 0.0, -75.90652417022278, 0.0, 0.0, 0.0, 0.0, 7457.167799135184, 0.0]
['beep', 0.0, -76.04063463695462, 0.0, 0.0, 0.0, 0.0, 7456.720764246079, 0.0]
['beep', 0.0, -78.18640210466411, 0.0, 0.0, 0.0, 0.0, 7456.229025868061, 0.0]
['beep', 0.0, -79.23693409406354, 0.0, 0.0, 0.0, 0.0, 7457.972461935576, 0.0]
['beep', 0.0, -78.4993265270384, 0.0, 0.0, 0.0, 0.0, 7458.397145080226, 0.0]
['beep', 0.0, -79.48280328307192, 0.0, 0.0, 0.0, 0.0, 7457.637185768746, 0.0]
['beep', 0.0, -79.97454166108867, 0.0, 0.0, 0.0, 0.0, 7458.28538635795, 0.0]
['beep', 0.0, -79.12517537178701, 0.0, 0.0, 0.0, 0.0, 7457.547778790925, 0.0]
['beep', 0.0, -81.09212888385402, 0.0, 0.0, 0.0, 0.0, 7458.061868913397, 0.0]
['beep', 0.0, -79.32634107188477, 0.0, 0.0, 0.0, 0.0, 7459.090049158341, 0.0]
['beep', 0.0, -75.23597183656358, 0.0, 0.0, 0.0, 0.0, 7457.883054957754, 0.0]
['beep', 0.0, -80.13100387227583, 0.0, 0.0, 0.0, 0.0, 7456.9219299461765, 0.0]
['beep', 0.0, -92.33505634487348, 0.0, 0.0, 0.0, 0.0, 7457.056040412908, 0.0]
['beep', 0.0, -99.84524248185664, 0.0, 0.0, 0.0, 0.0, 7454.61970026728, 0.0]
['beep', 0.0, -108.67418154170294, 0.0, 0.0, 0.0, 0.0, 7452.362174077293, 0.0]
['beep', 0.0, -116.38553337878388, 0.0, 0.0, 0.0, 0.0, 7451.356345576804, 0.0]
['beep', 0.0, -124.83449278288994, 0.0, 0.0, 0.0, 0.0, 7445.500188529514, 0.0]
['beep', 0.0, -135.98801326608816, 0.0, 0.0, 0.0, 0.0, 7444.13673211774, 0.0]
['beep', 0.0, -145.3086907039512, 0.0, 0.0, 0.0, 0.0, 7441.923909416665, 0.0]
['beep', 0.0, -152.61771114083663, 0.0, 0.0, 0.0, 0.0, 7438.079409370353, 0.0]
['beep', 0.0, -159.68086238871365, 0.0, 0.0, 0.0, 0.0, 7436.157159347196, 0.0]
['beep', 0.0, -170.186182282708, 0.0, 0.0, 0.0, 0.0, 7431.865624411777, 0.0]
['beep', 0.0, -177.96458935315482, 0.0, 0.0, 0.0, 0.0, 7426.054170853397, 0.0]
['beep', 0.0, -187.44172900220502, 0.0, 0.0, 0.0, 0.0, 7418.856909138788, 0.0]
['beep', 0.0, -195.13072909483066, 0.0, 0.0, 0.0, 0.0, 7415.727664915045, 0.0]
['beep', 0.0, -201.6127349868697, 0.0, 0.0, 0.0, 0.0, 7413.000752091498, 0.0]
['beep', 0.0, -209.99463915760987, 0.0, 0.0, 0.0, 0.0, 7406.786967132923, 0.0]
['beep', 0.0, -218.667116006269, 0.0, 0.0, 0.0, 0.0, 7401.199031019096, 0.0]
['beep', 0.0, -227.11607541037506, 0.0, 0.0, 0.0, 0.0, 7394.448804193593, 0.0]
['beep', 0.0, -233.10634292439735, 0.0, 0.0, 0.0, 0.0, 7388.7938128464, 0.0]
['beep', 0.0, -238.76133427159004, 0.0, 0.0, 0.0, 0.0, 7381.9094755541655, 0.0]
['beep', 0.0, -247.59027333143632, 0.0, 0.0, 0.0, 0.0, 7373.929902783621, 0.0]
['beep', 0.0, -254.38520364584969, 0.0, 0.0, 0.0, 0.0, 7368.274911436429, 0.0]
['beep', 0.0, -262.6777008387686, 0.0, 0.0, 0.0, 0.0, 7359.825952032323, 0.0]
['beep', 0.0, -268.82443056397807, 0.0, 0.0, 0.0, 0.0, 7353.07572520682, 0.0]
['beep', 0.0, -275.082919011464, 0.0, 0.0, 0.0, 0.0, 7345.587890814292, 0.0]
['beep', 0.0, -282.6825121262684, 0.0, 0.0, 0.0, 0.0, 7338.033001188398, 0.0]
['beep', 0.0, -288.27044824009516, 0.0, 0.0, 0.0, 0.0, 7331.148663896163, 0.0]
['beep', 0.0, -295.6912273992571, 0.0, 0.0, 0.0, 0.0, 7322.744407980968, 0.0]
['beep', 0.0, -302.70967515822355, 0.0, 0.0, 0.0, 0.0, 7316.731788722491, 0.0]
['beep', 0.0, -308.20820429422906, 0.0, 0.0, 0.0, 0.0, 7309.758044452435, 0.0]
['beep', 0.0, -312.72325667420114, 0.0, 0.0, 0.0, 0.0, 7300.884401903678, 0.0]
['beep', 0.0, -320.18873932227365, 0.0, 0.0, 0.0, 0.0, 7294.849430900745, 0.0]
['beep', 0.0, -323.8097219240334, 0.0, 0.0, 0.0, 0.0, 7291.4519657435385, 0.0]
['beep', 0.0, -326.9166144033211, 0.0, 0.0, 0.0, 0.0, 7287.428651741583, 0.0]
['beep', 0.0, -329.4870650156814, 0.0, 0.0, 0.0, 0.0, 7280.7678318939015, 0.0]
['beep', 0.0, -330.0011551381535, 0.0, 0.0, 0.0, 0.0, 7278.5997126817365, 0.0]
['beep', 0.0, -329.50941676013673, 0.0, 0.0, 0.0, 0.0, 7275.9175033471, 0.0]
['beep', 0.0, -329.0400301265753, 0.0, 0.0, 0.0, 0.0, 7274.218770768496, 0.0]
['beep', 0.0, -328.5035882596479, 0.0, 0.0, 0.0, 0.0, 7272.452982956527, 0.0]
['beep', 0.0, -327.2295388256954, 0.0, 0.0, 0.0, 0.0, 7268.630834654669, 0.0]
['beep', 0.0, -327.6095184814356, 0.0, 0.0, 0.0, 0.0, 7268.921407332588, 0.0]
['beep', 0.0, -327.16248359232947, 0.0, 0.0, 0.0, 0.0, 7267.4461921985385, 0.0]
['beep', 0.0, -327.274242314606, 0.0, 0.0, 0.0, 0.0, 7266.015680553399, 0.0]
['beep', 0.0, -325.3519922914496, 0.0, 0.0, 0.0, 0.0, 7265.076907286276, 0.0]
['beep', 0.0, -325.9554893917429, 0.0, 0.0, 0.0, 0.0, 7262.10412527372, 0.0]
['beep', 0.0, -324.6367364688798, 0.0, 0.0, 0.0, 0.0, 7261.478276428971, 0.0]
['beep', 0.0, -324.34616379096076, 0.0, 0.0, 0.0, 0.0, 7260.584206650759, 0.0]
['beep', 0.0, -324.72614344670103, 0.0, 0.0, 0.0, 0.0, 7260.248930483929, 0.0]
['beep', 0.0, -324.36851553541607, 0.0, 0.0, 0.0, 0.0, 7260.092468272743, 0.0]
['beep', 0.0, -322.93800389027643, 0.0, 0.0, 0.0, 0.0, 7258.43843918305, 0.0]
['beep', 0.0, -323.58620447948033, 0.0, 0.0, 0.0, 0.0, 7257.365555449195, 0.0]
['beep', 0.0, -323.69796320175686, 0.0, 0.0, 0.0, 0.0, 7257.8796455716665, 0.0]
['beep', 0.0, -324.86025391343287, 0.0, 0.0, 0.0, 0.0, 7256.896168815633, 0.0]
['beep', 0.0, -324.9943643801647, 0.0, 0.0, 0.0, 0.0, 7257.074982771276, 0.0]
['beep', 0.0, -323.5191492461144, 0.0, 0.0, 0.0, 0.0, 7257.097334515731, 0.0]
['beep', 0.0, -323.1838730792848, 0.0, 0.0, 0.0, 0.0, 7255.800933337323, 0.0]
['beep', 0.0, -322.4239137678044, 0.0, 0.0, 0.0, 0.0, 7256.337375204251, 0.0]
['beep', 0.0, -321.4627887562262, 0.0, 0.0, 0.0, 0.0, 7257.186741493552, 0.0]
['beep', 0.0, -321.5521957340474, 0.0, 0.0, 0.0, 0.0, 7257.454962427016, 0.0]
['beep', 0.0, -318.60176546594687, 0.0, 0.0, 0.0, 0.0, 7258.125514760675, 0.0]
['beep', 0.0, -317.6406404543687, 0.0, 0.0, 0.0, 0.0, 7258.036107782854, 0.0]
['beep', 0.0, -318.1100270879301, 0.0, 0.0, 0.0, 0.0, 7258.147866505131, 0.0]
['beep', 0.0, -320.0546288555418, 0.0, 0.0, 0.0, 0.0, 7258.8184188387895, 0.0]
['beep', 0.0, -321.4180852673156, 0.0, 0.0, 0.0, 0.0, 7258.572549649782, 0.0]
['beep', 0.0, -321.66395445632395, 0.0, 0.0, 0.0, 0.0, 7259.936006061555, 0.0]
['beep', 0.0, -321.70865794523456, 0.0, 0.0, 0.0, 0.0, 7260.986538050955, 0.0]
['beep', 0.0, -322.33450678998315, 0.0, 0.0, 0.0, 0.0, 7259.9136543171, 0.0]
['beep', 0.0, -323.8767771573993, 0.0, 0.0, 0.0, 0.0, 7261.1653520065975, 0.0]
['beep', 0.0, -321.1051608449413, 0.0, 0.0, 0.0, 0.0, 7260.181875250563, 0.0]
['beep', 0.0, -319.92051838880997, 0.0, 0.0, 0.0, 0.0, 7258.863122327701, 0.0]
['beep', 0.0, -320.4569602557374, 0.0, 0.0, 0.0, 0.0, 7259.712488617002, 0.0]
['beep', 0.0, -322.2227480677066, 0.0, 0.0, 0.0, 0.0, 7261.120648517686, 0.0]
['beep', 0.0, -324.5696812355139, 0.0, 0.0, 0.0, 0.0, 7262.931139818566, 0.0]
['beep', 0.0, -328.4588847707373, 0.0, 0.0, 0.0, 0.0, 7263.825209596778, 0.0]
['beep', 0.0, -328.88356791538814, 0.0, 0.0, 0.0, 0.0, 7267.177971265075, 0.0]
['beep', 0.0, -311.27039328460614, 0.0, 0.0, 0.0, 0.0, 7275.716337647002, 0.0]
['beep', 0.0, -294.0595500540197, 0.0, 0.0, 0.0, 0.0, 7291.876648888189, 0.0]
['beep', 0.0, -284.0236167935868, 0.0, 0.0, 0.0, 0.0, 7313.423730543105, 0.0]
['beep', 0.0, -274.6805876112685, 0.0, 0.0, 0.0, 0.0, 7329.740503995479, 0.0]
['beep', 0.0, -261.44835489372673, 0.0, 0.0, 0.0, 0.0, 7348.225396660018, 0.0]
['beep', 0.0, -252.5523606005145, 0.0, 0.0, 0.0, 0.0, 7363.871617778733, 0.0]
['beep', 0.0, -244.17045642977436, 0.0, 0.0, 0.0, 0.0, 7375.382766173216, 0.0]
['beep', 0.0, -240.30360463900624, 0.0, 0.0, 0.0, 0.0, 7383.675263366135, 0.0]
['beep', 0.0, -234.38039235834987, 0.0, 0.0, 0.0, 0.0, 7397.89097283971, 0.0]
['beep', 0.0, -225.3502875984058, 0.0, 0.0, 0.0, 0.0, 7407.7927956334115, 0.0]
['beep', 0.0, -221.215214874174, 0.0, 0.0, 0.0, 0.0, 7417.8287288938445, 0.0]
['beep', 0.0, -211.7380752251238, 0.0, 0.0, 0.0, 0.0, 7432.714990701079, 0.0]
['beep', 0.0, -206.6642292337691, 0.0, 0.0, 0.0, 0.0, 7443.041496639431, 0.0]
['beep', 0.0, -198.01410412956525, 0.0, 0.0, 0.0, 0.0, 7456.787819479445, 0.0]
['beep', 0.0, -188.13463308031956, 0.0, 0.0, 0.0, 0.0, 7470.265921385994, 0.0]
['beep', 0.0, -183.30665627797322, 0.0, 0.0, 0.0, 0.0, 7477.418479611693, 0.0]
['beep', 0.0, -177.539906208504, 0.0, 0.0, 0.0, 0.0, 7485.800383782433, 0.0]
['beep', 0.0, -174.03068232902078, 0.0, 0.0, 0.0, 0.0, 7497.110366476819, 0.0]
['beep', 0.0, -171.571990438937, 0.0, 0.0, 0.0, 0.0, 7503.368854924304, 0.0]
['beep', 0.0, -163.9500455796773, 0.0, 0.0, 0.0, 0.0, 7508.15212823774, 0.0]
['beep', 0.0, -165.08998454689797, 0.0, 0.0, 0.0, 0.0, 7513.360084695827, 0.0]
['beep', 0.0, -158.831496099412, 0.0, 0.0, 0.0, 0.0, 7520.177366754695, 0.0]
['beep', 0.0, -154.58466465290365, 0.0, 0.0, 0.0, 0.0, 7524.848881345854, 0.0]
['beep', 0.0, -153.08709777439807, 0.0, 0.0, 0.0, 0.0, 7528.045180802964, 0.0]
['beep', 0.0, -147.1191820048311, 0.0, 0.0, 0.0, 0.0, 7535.689477406679, 0.0]
['beep', 0.0, -144.07934475890931, 0.0, 0.0, 0.0, 0.0, 7542.305593765449, 0.0]
['beep', 0.0, -59.25447455101902, 0.0, 0.0, 0.0, 0.0, 7555.984861372097, 0.0]
['beep', 0.0, -56.70637568311402, 0.0, 0.0, 0.0, 0.0, 7557.63889046179, 0.0]
['beep', 0.0, -54.27003553748555, 0.0, 0.0, 0.0, 0.0, 7554.800218915966, 0.0]
['beep', 0.0, -56.125230327276036, 0.0, 0.0, 0.0, 0.0, 7551.6039194588575, 0.0]
['beep', 0.0, -58.5392187284492, 0.0, 0.0, 0.0, 0.0, 7549.435800246692, 0.0]
['beep', 0.0, -58.89684663973411, 0.0, 0.0, 0.0, 0.0, 7545.881872878298, 0.0]
['beep', 0.0, -59.12036408428718, 0.0, 0.0, 0.0, 0.0, 7543.132608310296, 0.0]
['beep', 0.0, -57.48868673904977, 0.0, 0.0, 0.0, 0.0, 7542.7302769101, 0.0]
['beep', 0.0, -56.6393204497481, 0.0, 0.0, 0.0, 0.0, 7540.58450944239, 0.0]
['beep', 0.0, -56.6393204497481, 0.0, 0.0, 0.0, 0.0, 7534.974221584109, 0.0]
['beep', 0.0, -58.00277686152183, 0.0, 0.0, 0.0, 0.0, 7533.476654705603, 0.0]
['beep', 0.0, -57.86866639478998, 0.0, 0.0, 0.0, 0.0, 7532.828454116399, 0.0]
['beep', 0.0, -58.65097745072573, 0.0, 0.0, 0.0, 0.0, 7530.615631415324, 0.0]
['beep', 0.0, -61.891980396745254, 0.0, 0.0, 0.0, 0.0, 7528.603974414346, 0.0]
['beep', 0.0, -64.03774786445473, 0.0, 0.0, 0.0, 0.0, 7524.446549945659, 0.0]
['beep', 0.0, -66.09410835434298, 0.0, 0.0, 0.0, 0.0, 7522.211375500128, 0.0]
['beep', 0.0, -66.29527405444075, 0.0, 0.0, 0.0, 0.0, 7523.10544527834, 0.0]
['beep', 0.0, -67.99400663304408, 0.0, 0.0, 0.0, 0.0, 7522.412541200226, 0.0]
['beep', 0.0, -66.85406766582342, 0.0, 0.0, 0.0, 0.0, 7520.5573464104355, 0.0]
['beep', 0.0, -65.71412869860276, 0.0, 0.0, 0.0, 0.0, 7520.043256287963, 0.0]
['beep', 0.0, -65.69177695414746, 0.0, 0.0, 0.0, 0.0, 7520.713808621623, 0.0]
['beep', 0.0, -67.88224791076755, 0.0, 0.0, 0.0, 0.0, 7522.121968522307, 0.0]
['beep', 0.0, -67.3905095327508, 0.0, 0.0, 0.0, 0.0, 7520.333828965882, 0.0]
['beep', 0.0, -66.27292230998545, 0.0, 0.0, 0.0, 0.0, 7519.372703954305, 0.0]
['beep', 0.0, -68.26222756650778, 0.0, 0.0, 0.0, 0.0, 7520.311477221428, 0.0]
['beep', 0.0, -69.13394560026474, 0.0, 0.0, 0.0, 0.0, 7520.780863854989, 0.0]
['beep', 0.0, -68.41868977769492, 0.0, 0.0, 0.0, 0.0, 7522.613706900323, 0.0]
['beep', 0.0, -66.00470137652175, 0.0, 0.0, 0.0, 0.0, 7522.166672011218, 0.0]
['beep', 0.0, -64.8647624093011, 0.0, 0.0, 0.0, 0.0, 7521.317305721916, 0.0]
['beep', 0.0, -64.70830019811395, 0.0, 0.0, 0.0, 0.0, 7521.540823166469, 0.0]
['beep', 0.0, -64.8871141537564, 0.0, 0.0, 0.0, 0.0, 7523.0160383005195, 0.0]
['beep', 0.0, -65.22239032058602, 0.0, 0.0, 0.0, 0.0, 7522.881927833788, 0.0]
['beep', 0.0, -64.75300368702456, 0.0, 0.0, 0.0, 0.0, 7521.093788277363, 0.0]
['beep', 0.0, -64.75300368702456, 0.0, 0.0, 0.0, 0.0, 7522.501948178047, 0.0]
['beep', 0.0, -65.87059090978991, 0.0, 0.0, 0.0, 0.0, 7523.351314467349, 0.0]
['beep', 0.0, -64.82005892039048, 0.0, 0.0, 0.0, 0.0, 7523.373666211804, 0.0]
['beep', 0.0, -65.8482391653346, 0.0, 0.0, 0.0, 0.0, 7523.351314467349, 0.0]
['beep', 0.0, -66.47408801008321, 0.0, 0.0, 0.0, 0.0, 7522.189023755673, 0.0]
['beep', 0.0, -65.98234963206644, 0.0, 0.0, 0.0, 0.0, 7522.39018945577, 0.0]
['beep', 0.0, -65.35650078731786, 0.0, 0.0, 0.0, 0.0, 7521.540823166469, 0.0]
['beep', 0.0, -65.08827985385416, 0.0, 0.0, 0.0, 0.0, 7522.233727244584, 0.0]
['beep', 0.0, -65.53531474296031, 0.0, 0.0, 0.0, 0.0, 7523.686590634178, 0.0]
['beep', 0.0, -66.00470137652175, 0.0, 0.0, 0.0, 0.0, 7523.552480167446, 0.0]
['beep', 0.0, -64.64124496474803, 0.0, 0.0, 0.0, 0.0, 7522.569003411413, 0.0]
['beep', 0.0, -63.791878675446355, 0.0, 0.0, 0.0, 0.0, 7522.792520855966, 0.0]
['beep', 0.0, -64.28361705346312, 0.0, 0.0, 0.0, 0.0, 7522.546651666958, 0.0]
['beep', 0.0, -64.52948624247149, 0.0, 0.0, 0.0, 0.0, 7522.121968522307, 0.0]
['beep', 0.0, -64.61889322029272, 0.0, 0.0, 0.0, 0.0, 7523.530128422992, 0.0]
['beep', 0.0, -64.01539611999942, 0.0, 0.0, 0.0, 0.0, 7523.753645867544, 0.0]
['beep', 0.0, -63.411899019706134, 0.0, 0.0, 0.0, 0.0, 7523.328962722893, 0.0]
['beep', 0.0, -63.43425076416144, 0.0, 0.0, 0.0, 0.0, 7524.424198201204, 0.0]
['beep', 0.0, -64.28361705346312, 0.0, 0.0, 0.0, 0.0, 7525.318267979416, 0.0]
['beep', 0.0, -64.99887287603293, 0.0, 0.0, 0.0, 0.0, 7524.15597726774, 0.0]
['beep', 0.0, -63.83658216435697, 0.0, 0.0, 0.0, 0.0, 7524.468901690114, 0.0]
['beep', 0.0, -63.21073331960837, 0.0, 0.0, 0.0, 0.0, 7525.206509257139, 0.0]
['beep', 0.0, -63.456602508616754, 0.0, 0.0, 0.0, 0.0, 7524.513605179025, 0.0]
['beep', 0.0, -64.14950658673126, 0.0, 0.0, 0.0, 0.0, 7525.810006357433, 0.0]
['beep', 0.0, -63.21073331960837, 0.0, 0.0, 0.0, 0.0, 7525.474730190603, 0.0]
['beep', 0.0, -64.59654147583741, 0.0, 0.0, 0.0, 0.0, 7525.8994133352535, 0.0]
['beep', 0.0, -64.9094658982117, 0.0, 0.0, 0.0, 0.0, 7525.854709846343, 0.0]
['beep', 0.0, -65.73648044305807, 0.0, 0.0, 0.0, 0.0, 7526.458206946637, 0.0]
['beep', 0.0, -65.42355602068378, 0.0, 0.0, 0.0, 0.0, 7526.435855202181, 0.0]
['beep', 0.0, -65.13298334276477, 0.0, 0.0, 0.0, 0.0, 7526.748779624556, 0.0]
['beep', 0.0, -63.36719553079552, 0.0, 0.0, 0.0, 0.0, 7524.513605179025, 0.0]
['beep', 0.0, -62.875457152778765, 0.0, 0.0, 0.0, 0.0, 7525.854709846343, 0.0]
['beep', 0.0, -63.94834088663351, 0.0, 0.0, 0.0, 0.0, 7525.8994133352535, 0.0]
['beep', 0.0, -63.63541646425921, 0.0, 0.0, 0.0, 0.0, 7525.8994133352535, 0.0]
['beep', 0.0, -63.38954727525083, 0.0, 0.0, 0.0, 0.0, 7526.257041246538, 0.0]
['beep', 0.0, -62.89780889723407, 0.0, 0.0, 0.0, 0.0, 7526.30174473545, 0.0]
['beep', 0.0, -61.62375946328157, 0.0, 0.0, 0.0, 0.0, 7524.804177856944, 0.0]
['beep', 0.0, -64.46243100910557, 0.0, 0.0, 0.0, 0.0, 7526.100579035352, 0.0]
['beep', 0.0, -63.90363739772289, 0.0, 0.0, 0.0, 0.0, 7526.9499453246535, 0.0]
['beep', 0.0, -62.49547749703855, 0.0, 0.0, 0.0, 0.0, 7527.642849402768, 0.0]
['beep', 0.0, -62.18255307466425, 0.0, 0.0, 0.0, 0.0, 7526.502910435547, 0.0]
['beep', 0.0, -60.305006540418454, 0.0, 0.0, 0.0, 0.0, 7525.564137168424, 0.0]
['beep', 0.0, -61.668462952192186, 0.0, 0.0, 0.0, 0.0, 7526.145282524262, 0.0]
['beep', 0.0, -65.15533508722008, 0.0, 0.0, 0.0, 0.0, 7525.564137168424, 0.0]
['beep', 0.0, -64.41772752019496, 0.0, 0.0, 0.0, 0.0, 7524.625363901301, 0.0]
['beep', 0.0, -62.6519397082257, 0.0, 0.0, 0.0, 0.0, 7525.206509257139, 0.0]
['beep', 0.0, -61.62375946328157, 0.0, 0.0, 0.0, 0.0, 7527.084055791385, 0.0]
['beep', 0.0, -62.04844260793241, 0.0, 0.0, 0.0, 0.0, 7528.603974414346, 0.0]
['beep', 0.0, -62.38371877476201, 0.0, 0.0, 0.0, 0.0, 7529.922727337209, 0.0]
['beep', 0.0, -61.48964899654973, 0.0, 0.0, 0.0, 0.0, 7530.325058737405, 0.0]
['beep', 0.0, -58.785087917457574, 0.0, 0.0, 0.0, 0.0, 7531.621459915813, 0.0]
['beep', 0.0, -57.6004454613263, 0.0, 0.0, 0.0, 0.0, 7532.0014395715525, 0.0]
['beep', 0.0, -58.2262943060749, 0.0, 0.0, 0.0, 0.0, 7532.671991905212, 0.0]
['beep', 0.0, -59.65680595121455, 0.0, 0.0, 0.0, 0.0, 7534.01309657253, 0.0]
['beep', 0.0, -60.684986196158675, 0.0, 0.0, 0.0, 0.0, 7534.236614017083, 0.0]
['beep', 0.0, -59.72386118458047, 0.0, 0.0, 0.0, 0.0, 7534.124855294807, 0.0]
['beep', 0.0, -60.23795130705253, 0.0, 0.0, 0.0, 0.0, 7534.124855294807, 0.0]
['beep', 0.0, -61.55670422991565, 0.0, 0.0, 0.0, 0.0, 7535.912994851232, 0.0]
['beep', 0.0, -59.701509440125164, 0.0, 0.0, 0.0, 0.0, 7537.701134407656, 0.0]
['beep', 0.0, -61.31083504090727, 0.0, 0.0, 0.0, 0.0, 7539.511625708536, 0.0]
['beep', 0.0, -65.20003857613071, 0.0, 0.0, 0.0, 0.0, 7537.835244874388, 0.0]
['beep', 0.0, -65.31179729840724, 0.0, 0.0, 0.0, 0.0, 7538.081114063396, 0.0]
['beep', 0.0, -65.46825950959439, 0.0, 0.0, 0.0, 0.0, 7539.601032686357, 0.0]
['beep', 0.0, -65.93764614315583, 0.0, 0.0, 0.0, 0.0, 7542.216186787628, 0.0]
['beep', 0.0, -64.10480309782065, 0.0, 0.0, 0.0, 0.0, 7544.674878677712, 0.0]
['beep', 0.0, -63.47895425307206, 0.0, 0.0, 0.0, 0.0, 7546.060686833941, 0.0]
['beep', 0.0, -68.79866943343514, 0.0, 0.0, 0.0, 0.0, 7543.132608310296, 0.0]
['beep', 0.0, -72.55376250192673, 0.0, 0.0, 0.0, 0.0, 7543.870215877321, 0.0]
['beep', 0.0, -68.88807641125636, 0.0, 0.0, 0.0, 0.0, 7545.725410667112, 0.0]
['beep', 0.0, -65.98234963206644, 0.0, 0.0, 0.0, 0.0, 7545.7924659004775, 0.0]
['beep', 0.0, -66.33997754335137, 0.0, 0.0, 0.0, 0.0, 7544.116085066329, 0.0]
['beep', 0.0, -69.91625665620049, 0.0, 0.0, 0.0, 0.0, 7544.674878677712, 0.0]
['beep', 0.0, -70.36329154530664, 0.0, 0.0, 0.0, 0.0, 7545.25602403355, 0.0]
['beep', 0.0, -69.33511130036251, 0.0, 0.0, 0.0, 0.0, 7544.786637399989, 0.0]
['beep', 0.0, -70.31858805639602, 0.0, 0.0, 0.0, 0.0, 7544.5631199554355, 0.0]
['beep', 0.0, -70.29623631194072, 0.0, 0.0, 0.0, 0.0, 7544.160788555239, 0.0]
['beep', 0.0, -69.75979444501334, 0.0, 0.0, 0.0, 0.0, 7542.909090865743, 0.0]
['beep', 0.0, -69.89390491174518, 0.0, 0.0, 0.0, 0.0, 7541.880910620798, 0.0]
['beep', 0.0, -71.88321016826751, 0.0, 0.0, 0.0, 0.0, 7542.886739121287, 0.0]
['beep', 0.0, -71.90556191272282, 0.0, 0.0, 0.0, 0.0, 7542.126779809807, 0.0]
['beep', 0.0, -72.21848633509713, 0.0, 0.0, 0.0, 0.0, 7542.752628654555, 0.0]
['beep', 0.0, -72.68787296865857, 0.0, 0.0, 0.0, 0.0, 7541.277413520505, 0.0]
['beep', 0.0, -73.64899798023677, 0.0, 0.0, 0.0, 0.0, 7541.500930965059, 0.0]
['beep', 0.0, -75.52654451448257, 0.0, 0.0, 0.0, 0.0, 7540.53980595348, 0.0]
['beep', 0.0, -75.70535847012502, 0.0, 0.0, 0.0, 0.0, 7540.651564675756, 0.0]
['beep', 0.0, -75.34773055884011, 0.0, 0.0, 0.0, 0.0, 7541.880910620798, 0.0]
['beep', 0.0, -74.38660554726191, 0.0, 0.0, 0.0, 0.0, 7538.774018141511, 0.0]
['beep', 0.0, -75.0124543920105, 0.0, 0.0, 0.0, 0.0, 7538.215224530128, 0.0]
['beep', 0.0, -75.81711719240155, 0.0, 0.0, 0.0, 0.0, 7538.885776863787, 0.0]
['beep', 0.0, -74.74423345854682, 0.0, 0.0, 0.0, 0.0, 7540.025715831008, 0.0]
['beep', 0.0, -73.47018402459432, 0.0, 0.0, 0.0, 0.0, 7537.879948363298, 0.0]
['beep', 0.0, -73.4031287912284, 0.0, 0.0, 0.0, 0.0, 7540.942137353675, 0.0]
['beep', 0.0, -74.18543984716415, 0.0, 0.0, 0.0, 0.0, 7540.428047231204, 0.0]
['beep', 0.0, -75.86182068131217, 0.0, 0.0, 0.0, 0.0, 7541.344468753871, 0.0]
['beep', 0.0, -75.23597183656358, 0.0, 0.0, 0.0, 0.0, 7543.289070521483, 0.0]
['beep', 0.0, -73.09020436885409, 0.0, 0.0, 0.0, 0.0, 7544.138436810785, 0.0]
['beep', 0.0, -72.71022471311387, 0.0, 0.0, 0.0, 0.0, 7543.981974599597, 0.0]
['beep', 0.0, -73.06785262439878, 0.0, 0.0, 0.0, 0.0, 7544.026678088508, 0.0]
['beep', 0.0, -73.02314913548817, 0.0, 0.0, 0.0, 0.0, 7545.0325065889965, 0.0]
['beep', 0.0, -73.44783228013901, 0.0, 0.0, 0.0, 0.0, 7545.390134500281, 0.0]
['beep', 0.0, -72.4643555241055, 0.0, 0.0, 0.0, 0.0, 7544.026678088508, 0.0]
['beep', 0.0, -71.95026540163343, 0.0, 0.0, 0.0, 0.0, 7545.63600368929, 0.0]
['beep', 0.0, -71.95026540163343, 0.0, 0.0, 0.0, 0.0, 7546.194797300673, 0.0]
['beep', 0.0, -70.9220851566893, 0.0, 0.0, 0.0, 0.0, 7546.418314745226, 0.0]
['beep', 0.0, -71.23500957906361, 0.0, 0.0, 0.0, 0.0, 7546.150093811762, 0.0]
['beep', 0.0, -69.78214618946865, 0.0, 0.0, 0.0, 0.0, 7546.664183934234, 0.0]
['beep', 0.0, -66.11646009879829, 0.0, 0.0, 0.0, 0.0, 7546.328907767404, 0.0]
['beep', 0.0, -67.70343395512509, 0.0, 0.0, 0.0, 0.0, 7545.703058922656, 0.0]
['beep', 0.0, -70.20682933411949, 0.0, 0.0, 0.0, 0.0, 7542.082076320896, 0.0]
['beep', 0.0, -69.6256839782815, 0.0, 0.0, 0.0, 0.0, 7538.885776863787, 0.0]
['beep', 0.0, -68.23987582205247, 0.0, 0.0, 0.0, 0.0, 7540.718619909123, 0.0]
['beep', 0.0, -66.74230894354689, 0.0, 0.0, 0.0, 0.0, 7541.679744920701, 0.0]
['beep', 0.0, -66.85406766582342, 0.0, 0.0, 0.0, 0.0, 7538.706962908145, 0.0]
['beep', 0.0, -71.05619562342115, 0.0, 0.0, 0.0, 0.0, 7537.656430918745, 0.0]
['beep', 0.0, -72.35259680182897, 0.0, 0.0, 0.0, 0.0, 7538.058762318941, 0.0]
['beep', 0.0, -69.2904078114519, 0.0, 0.0, 0.0, 0.0, 7535.868291362321, 0.0]
['beep', 0.0, -68.28457931096308, 0.0, 0.0, 0.0, 0.0, 7532.87315760531, 0.0]
['beep', 0.0, -70.49740201203848, 0.0, 0.0, 0.0, 0.0, 7532.135550038284, 0.0]
['beep', 0.0, -73.60429449132616, 0.0, 0.0, 0.0, 0.0, 7532.20260527165, 0.0]
['beep', 0.0, -72.41965203519489, 0.0, 0.0, 0.0, 0.0, 7530.079189548396, 0.0]
['beep', 0.0, -70.83267817886808, 0.0, 0.0, 0.0, 0.0, 7526.860538346832, 0.0]
['beep', 0.0, -71.01149213451053, 0.0, 0.0, 0.0, 0.0, 7524.938288323676, 0.0]
['beep', 0.0, -73.1349078577647, 0.0, 0.0, 0.0, 0.0, 7523.507776678536, 0.0]
['beep', 0.0, -73.71605321360269, 0.0, 0.0, 0.0, 0.0, 7523.910108078731, 0.0]
['beep', 0.0, -72.12907935727588, 0.0, 0.0, 0.0, 0.0, 7523.127797022796, 0.0]
['beep', 0.0, -70.49740201203848, 0.0, 0.0, 0.0, 0.0, 7523.06074178943, 0.0]
['beep', 0.0, -70.5868089898597, 0.0, 0.0, 0.0, 0.0, 7523.9548115676425, 0.0]
['beep', 0.0, -71.65969272371444, 0.0, 0.0, 0.0, 0.0, 7523.977163312097, 0.0]
['beep', 0.0, -72.4643555241055, 0.0, 0.0, 0.0, 0.0, 7524.066570289919, 0.0]
['beep', 0.0, -71.68204446816975, 0.0, 0.0, 0.0, 0.0, 7524.424198201204, 0.0]
['beep', 0.0, -71.77145144599098, 0.0, 0.0, 0.0, 0.0, 7525.63119240179, 0.0]
['beep', 0.0, -72.10672761282058, 0.0, 0.0, 0.0, 0.0, 7524.737122623578, 0.0]
['beep', 0.0, -71.25736132351892, 0.0, 0.0, 0.0, 0.0, 7524.8935848347655, 0.0]
['beep', 0.0, -72.01732063499935, 0.0, 0.0, 0.0, 0.0, 7526.569965668913, 0.0]
['beep', 0.0, -72.17378284618651, 0.0, 0.0, 0.0, 0.0, 7528.849843603354, 0.0]
['beep', 0.0, -70.69856771213624, 0.0, 0.0, 0.0, 0.0, 7528.983954070086, 0.0]
['beep', 0.0, -70.65386422322563, 0.0, 0.0, 0.0, 0.0, 7530.1238930373065, 0.0]
['beep', 0.0, -72.28554156846305, 0.0, 0.0, 0.0, 0.0, 7528.648677903257, 0.0]
['beep', 0.0, -73.4254805356837, 0.0, 0.0, 0.0, 0.0, 7527.419331958215, 0.0]
['beep', 0.0, -72.53141075747142, 0.0, 0.0, 0.0, 0.0, 7528.961602325631, 0.0]
['beep', 0.0, -71.21265783460831, 0.0, 0.0, 0.0, 0.0, 7530.68268664869, 0.0]
['beep', 0.0, -69.55862874491558, 0.0, 0.0, 0.0, 0.0, 7529.140416281273, 0.0]
['beep', 0.0, -66.7870124324575, 0.0, 0.0, 0.0, 0.0, 7527.531090680492, 0.0]
['beep', 0.0, -72.12907935727588, 0.0, 0.0, 0.0, 0.0, 7526.078227290896, 0.0]
['beep', 0.0, -77.04646313744344, 0.0, 0.0, 0.0, 0.0, 7526.100579035352, 0.0]
['beep', 0.0, -75.14656485874235, 0.0, 0.0, 0.0, 0.0, 7525.25121274605, 0.0]
['beep', 0.0, -72.57611424638203, 0.0, 0.0, 0.0, 0.0, 7523.8430528453655, 0.0]
['beep', 0.0, -73.93957065815576, 0.0, 0.0, 0.0, 0.0, 7520.803215599444, 0.0]
['beep', 0.0, -80.82390795039034, 0.0, 0.0, 0.0, 0.0, 7521.227898744095, 0.0]
['beep', 0.0, -79.03576839396577, 0.0, 0.0, 0.0, 0.0, 7522.613706900323, 0.0]
['beep', 0.0, -75.52654451448257, 0.0, 0.0, 0.0, 0.0, 7520.624401643801, 0.0]
['beep', 0.0, -74.47601252508314, 0.0, 0.0, 0.0, 0.0, 7519.886794076776, 0.0]
['beep', 0.0, -76.71118697061384, 0.0, 0.0, 0.0, 0.0, 7519.372703954305, 0.0]
['beep', 0.0, -80.3545213168289, 0.0, 0.0, 0.0, 0.0, 7518.635096387279, 0.0]
['beep', 0.0, -81.18153586167526, 0.0, 0.0, 0.0, 0.0, 7517.785730097978, 0.0]
['beep', 0.0, -80.51098352801604, 0.0, 0.0, 0.0, 0.0, 7518.880965576287, 0.0]
['beep', 0.0, -79.16987886069762, 0.0, 0.0, 0.0, 0.0, 7519.752683610044, 0.0]
['beep', 0.0, -79.34869281634008, 0.0, 0.0, 0.0, 0.0, 7518.121006264807, 0.0]
['beep', 0.0, -80.06394863890989, 0.0, 0.0, 0.0, 0.0, 7517.316343464416, 0.0]
['beep', 0.0, -78.90165792723393, 0.0, 0.0, 0.0, 0.0, 7517.137529508774, 0.0]
['beep', 0.0, -78.70049222713617, 0.0, 0.0, 0.0, 0.0, 7517.517509164514, 0.0]
['beep', 0.0, -78.85695443832331, 0.0, 0.0, 0.0, 0.0, 7516.578735897391, 0.0]
['beep', 0.0, -79.28163758297416, 0.0, 0.0, 0.0, 0.0, 7514.656485874234, 0.0]
['beep', 0.0, -80.82390795039034, 0.0, 0.0, 0.0, 0.0, 7515.6846661191785, 0.0]
['beep', 0.0, -81.3379980728624, 0.0, 0.0, 0.0, 0.0, 7516.310514963927, 0.0]
['beep', 0.0, -79.4380997941613, 0.0, 0.0, 0.0, 0.0, 7516.422273686204, 0.0]
['beep', 0.0, -79.86278293881213, 0.0, 0.0, 0.0, 0.0, 7517.025770786497, 0.0]
['beep', 0.0, -81.29329458395179, 0.0, 0.0, 0.0, 0.0, 7519.864442332321, 0.0]
['beep', 0.0, -81.3379980728624, 0.0, 0.0, 0.0, 0.0, 7521.943154566665, 0.0]
['beep', 0.0, -80.26511433900767, 0.0, 0.0, 0.0, 0.0, 7521.362009210827, 0.0]
['beep', 0.0, -79.21458234960824, 0.0, 0.0, 0.0, 0.0, 7520.937326066176, 0.0]
['beep', 0.0, -79.30398932742946, 0.0, 0.0, 0.0, 0.0, 7520.758512110533, 0.0]
['beep', 0.0, -79.99689340554397, 0.0, 0.0, 0.0, 0.0, 7523.507776678536, 0.0]
['beep', 0.0, -80.26511433900767, 0.0, 0.0, 0.0, 0.0, 7524.513605179025, 0.0]
['beep', 0.0, -79.59456200534845, 0.0, 0.0, 0.0, 0.0, 7524.223032501106, 0.0]
['beep', 0.0, -78.834602693868, 0.0, 0.0, 0.0, 0.0, 7523.8430528453655, 0.0]
['beep', 0.0, -78.4769747825831, 0.0, 0.0, 0.0, 0.0, 7522.457244689137, 0.0]
['beep', 0.0, -77.33703581536244, 0.0, 0.0, 0.0, 0.0, 7521.429064444193, 0.0]
['beep', 0.0, -78.09699512684287, 0.0, 0.0, 0.0, 0.0, 7521.138491766274, 0.0]
['beep', 0.0, -82.72380622909144, 0.0, 0.0, 0.0, 0.0, 7522.054913288941, 0.0]
['beep', 0.0, -81.27094283949648, 0.0, 0.0, 0.0, 0.0, 7520.423235943704, 0.0]
['beep', 0.0, -80.04159689445459, 0.0, 0.0, 0.0, 0.0, 7519.596221398858, 0.0]
['beep', 0.0, -79.54985851643784, 0.0, 0.0, 0.0, 0.0, 7522.680762133689, 0.0]
['beep', 0.0, -78.4993265270384, 0.0, 0.0, 0.0, 0.0, 7524.111273778829, 0.0]
['beep', 0.0, -81.74032947305793, 0.0, 0.0, 0.0, 0.0, 7522.457244689137, 0.0]
['beep', 0.0, -81.58386726187078, 0.0, 0.0, 0.0, 0.0, 7521.518471422014, 0.0]
['beep', 0.0, -79.50515502752722, 0.0, 0.0, 0.0, 0.0, 7521.831395844388, 0.0]
['beep', 0.0, -78.4993265270384, 0.0, 0.0, 0.0, 0.0, 7523.9548115676425, 0.0]
['beep', 0.0, -79.7510242165356, 0.0, 0.0, 0.0, 0.0, 7522.9042795782425, 0.0]
['beep', 0.0, -78.94636141614454, 0.0, 0.0, 0.0, 0.0, 7521.898451077754, 0.0]
['beep', 0.0, -77.78407070446858, 0.0, 0.0, 0.0, 0.0, 7522.278430733494, 0.0]
['beep', 0.0, -78.05229163793226, 0.0, 0.0, 0.0, 0.0, 7520.87027083281, 0.0]
['beep', 0.0, -79.16987886069762, 0.0, 0.0, 0.0, 0.0, 7522.032561544485, 0.0]
['beep', 0.0, -78.87930618277862, 0.0, 0.0, 0.0, 0.0, 7521.205546999639, 0.0]
['beep', 0.0, -79.21458234960824, 0.0, 0.0, 0.0, 0.0, 7521.58552665538, 0.0]
['beep', 0.0, -77.80642244892388, 0.0, 0.0, 0.0, 0.0, 7519.685628376678, 0.0]
['beep', 0.0, -77.91818117120042, 0.0, 0.0, 0.0, 0.0, 7518.545689409458, 0.0]
['beep', 0.0, -79.79572770544621, 0.0, 0.0, 0.0, 0.0, 7519.350352209849, 0.0]
['beep', 0.0, -79.88513468326744, 0.0, 0.0, 0.0, 0.0, 7521.227898744095, 0.0]
['beep', 0.0, -79.03576839396577, 0.0, 0.0, 0.0, 0.0, 7521.317305721916, 0.0]
['beep', 0.0, -77.62760849328143, 0.0, 0.0, 0.0, 0.0, 7520.333828965882, 0.0]
['beep', 0.0, -77.71701547110266, 0.0, 0.0, 0.0, 0.0, 7521.540823166469, 0.0]
['beep', 0.0, -79.63926549425906, 0.0, 0.0, 0.0, 0.0, 7520.423235943704, 0.0]
['beep', 0.0, -79.05812013842107, 0.0, 0.0, 0.0, 0.0, 7521.183195255184, 0.0]
['beep', 0.0, -78.1416986157535, 0.0, 0.0, 0.0, 0.0, 7521.540823166469, 0.0]
['beep', 0.0, -78.72284397159147, 0.0, 0.0, 0.0, 0.0, 7520.646753388257, 0.0]
['beep', 0.0, -80.42157655019481, 0.0, 0.0, 0.0, 0.0, 7520.937326066176, 0.0]
['beep', 0.0, -79.92983817217805, 0.0, 0.0, 0.0, 0.0, 7522.099616777852, 0.0]
['beep', 0.0, -80.22041085009705, 0.0, 0.0, 0.0, 0.0, 7522.770169111511, 0.0]
['beep', 0.0, -79.7510242165356, 0.0, 0.0, 0.0, 0.0, 7524.446549945659, 0.0]
['beep', 0.0, -80.17570736118644, 0.0, 0.0, 0.0, 0.0, 7523.999515056553, 0.0]
['beep', 0.0, -77.80642244892388, 0.0, 0.0, 0.0, 0.0, 7523.507776678536, 0.0]
['beep', 0.0, -77.89582942674511, 0.0, 0.0, 0.0, 0.0, 7524.960640068131, 0.0]
['beep', 0.0, -79.61691374980376, 0.0, 0.0, 0.0, 0.0, 7526.435855202181, 0.0]
['beep', 0.0, -78.76754746050209, 0.0, 0.0, 0.0, 0.0, 7527.955773825142, 0.0]
['beep', 0.0, -76.82294569289037, 0.0, 0.0, 0.0, 0.0, 7528.648677903257, 0.0]
['beep', 0.0, -76.2641520815077, 0.0, 0.0, 0.0, 0.0, 7528.15693952524, 0.0]
['beep', 0.0, -76.9347044151669, 0.0, 0.0, 0.0, 0.0, 7528.581622669891, 0.0]
['beep', 0.0, -78.65578873822555, 0.0, 0.0, 0.0, 0.0, 7529.207471514639, 0.0]
['beep', 0.0, -79.28163758297416, 0.0, 0.0, 0.0, 0.0, 7529.095712792363, 0.0]
['beep', 0.0, -78.92400967168923, 0.0, 0.0, 0.0, 0.0, 7527.8887185917765, 0.0]
['beep', 0.0, -78.87930618277862, 0.0, 0.0, 0.0, 0.0, 7527.933422080687, 0.0]
['beep', 0.0, -79.81807944990152, 0.0, 0.0, 0.0, 0.0, 7528.134587780784, 0.0]
['beep', 0.0, -80.0863003833652, 0.0, 0.0, 0.0, 0.0, 7528.581622669891, 0.0]
['beep', 0.0, -80.66744573920319, 0.0, 0.0, 0.0, 0.0, 7529.922727337209, 0.0]
['beep', 0.0, -78.32051257139595, 0.0, 0.0, 0.0, 0.0, 7528.939250581176, 0.0]
['beep', 0.0, -78.63343699377025, 0.0, 0.0, 0.0, 0.0, 7527.642849402768, 0.0]
['beep', 0.0, -79.10282362733169, 0.0, 0.0, 0.0, 0.0, 7527.262869747027, 0.0]
['beep', 0.0, -79.28163758297416, 0.0, 0.0, 0.0, 0.0, 7527.933422080687, 0.0]
['beep', 0.0, -78.85695443832331, 0.0, 0.0, 0.0, 0.0, 7527.575794169402, 0.0]
['beep', 0.0, -77.67231198219204, 0.0, 0.0, 0.0, 0.0, 7525.407674957237, 0.0]
['beep', 0.0, -77.42644279318367, 0.0, 0.0, 0.0, 0.0, 7525.139454023773, 0.0]
['beep', 0.0, -79.415748049706, 0.0, 0.0, 0.0, 0.0, 7526.122930779807, 0.0]
['beep', 0.0, -79.7733759609909, 0.0, 0.0, 0.0, 0.0, 7525.228861001595, 0.0]
['beep', 0.0, -78.29816082694065, 0.0, 0.0, 0.0, 0.0, 7527.084055791385, 0.0]
['beep', 0.0, -77.15822185971999, 0.0, 0.0, 0.0, 0.0, 7528.045180802964, 0.0]
['beep', 0.0, -74.96775090309988, 0.0, 0.0, 0.0, 0.0, 7527.329924980394, 0.0]
['beep', 0.0, -73.96192240261107, 0.0, 0.0, 0.0, 0.0, 7528.000477314053, 0.0]
['beep', 0.0, -73.89486716924515, 0.0, 0.0, 0.0, 0.0, 7529.386285470282, 0.0]
['beep', 0.0, -74.43130903617252, 0.0, 0.0, 0.0, 0.0, 7530.168596526218, 0.0]
['beep', 0.0, -73.00079739103286, 0.0, 0.0, 0.0, 0.0, 7529.341581981371, 0.0]
['beep', 0.0, -72.41965203519489, 0.0, 0.0, 0.0, 0.0, 7529.855672103843, 0.0]
['beep', 0.0, -74.85599218082335, 0.0, 0.0, 0.0, 0.0, 7529.922727337209, 0.0]
['beep', 0.0, -77.09116662635405, 0.0, 0.0, 0.0, 0.0, 7530.414465715226, 0.0]
['beep', 0.0, -76.5994282483373, 0.0, 0.0, 0.0, 0.0, 7529.609802914835, 0.0]
['beep', 0.0, -75.92887591467809, 0.0, 0.0, 0.0, 0.0, 7529.9450790816645, 0.0]
['beep', 0.0, -76.97940790407752, 0.0, 0.0, 0.0, 0.0, 7529.095712792363, 0.0]
['beep', 0.0, -77.94053291565572, 0.0, 0.0, 0.0, 0.0, 7527.911070336231, 0.0]
['beep', 0.0, -78.76754746050209, 0.0, 0.0, 0.0, 0.0, 7527.195814513661, 0.0]
['beep', 0.0, -76.68883522615853, 0.0, 0.0, 0.0, 0.0, 7527.5981459138575, 0.0]
['beep', 0.0, -76.44296603715016, 0.0, 0.0, 0.0, 0.0, 7527.48638719158, 0.0]
['beep', 0.0, -77.2029253486306, 0.0, 0.0, 0.0, 0.0, 7527.642849402768, 0.0]
['beep', 0.0, -77.80642244892388, 0.0, 0.0, 0.0, 0.0, 7528.313401736427, 0.0]
['beep', 0.0, -76.95705615962221, 0.0, 0.0, 0.0, 0.0, 7528.805140114444, 0.0]
['beep', 0.0, -77.26998058199652, 0.0, 0.0, 0.0, 0.0, 7530.190948270673, 0.0]
['beep', 0.0, -76.46531778160546, 0.0, 0.0, 0.0, 0.0, 7528.939250581176, 0.0]
['beep', 0.0, -74.99010264755519, 0.0, 0.0, 0.0, 0.0, 7528.805140114444, 0.0]
['beep', 0.0, -74.31955031389599, 0.0, 0.0, 0.0, 0.0, 7528.939250581176, 0.0]
['beep', 0.0, -73.69370146914738, 0.0, 0.0, 0.0, 0.0, 7529.498044192558, 0.0]
['beep', 0.0, -75.16891660319766, 0.0, 0.0, 0.0, 0.0, 7530.503872693047, 0.0]
['beep', 0.0, -73.91721891370045, 0.0, 0.0, 0.0, 0.0, 7528.8274918588995, 0.0]
['beep', 0.0, -72.62081773529265, 0.0, 0.0, 0.0, 0.0, 7528.8274918588995, 0.0]
['beep', 0.0, -73.51488751350493, 0.0, 0.0, 0.0, 0.0, 7529.699209892656, 0.0]
['beep', 0.0, -73.91721891370045, 0.0, 0.0, 0.0, 0.0, 7531.934384338187, 0.0]
['beep', 0.0, -74.52071601399375, 0.0, 0.0, 0.0, 0.0, 7532.247308760561, 0.0]
['beep', 0.0, -74.11838461379821, 0.0, 0.0, 0.0, 0.0, 7531.599108171357, 0.0]
['beep', 0.0, -72.35259680182897, 0.0, 0.0, 0.0, 0.0, 7530.503872693047, 0.0]
['beep', 0.0, -73.1125561133094, 0.0, 0.0, 0.0, 0.0, 7530.369762226315, 0.0]
['beep', 0.0, -74.87834392527866, 0.0, 0.0, 0.0, 0.0, 7532.135550038284, 0.0]
['beep', 0.0, -73.91721891370045, 0.0, 0.0, 0.0, 0.0, 7535.868291362321, 0.0]
['beep', 0.0, -73.98427414706637, 0.0, 0.0, 0.0, 0.0, 7536.270622762517, 0.0]
['beep', 0.0, -74.78893694745743, 0.0, 0.0, 0.0, 0.0, 7533.856634361343, 0.0]
['beep', 0.0, -76.80059394843506, 0.0, 0.0, 0.0, 0.0, 7534.7060006506445, 0.0]
['beep', 0.0, -78.27580908248534, 0.0, 0.0, 0.0, 0.0, 7533.521358194514, 0.0]
['beep', 0.0, -71.99496889054404, 0.0, 0.0, 0.0, 0.0, 7535.242442517572, 0.0]
['beep', 0.0, -64.8647624093011, 0.0, 0.0, 0.0, 0.0, 7537.142340796273, 0.0]
['beep', 0.0, -63.858933908812276, 0.0, 0.0, 0.0, 0.0, 7534.638945417279, 0.0]
['beep', 0.0, -64.5518379869268, 0.0, 0.0, 0.0, 0.0, 7530.705038393145, 0.0]
['beep', 0.0, -65.95999788761114, 0.0, 0.0, 0.0, 0.0, 7529.833320359388, 0.0]
['beep', 0.0, -66.31762579889606, 0.0, 0.0, 0.0, 0.0, 7532.895509349765, 0.0]
['beep', 0.0, -63.00956761951061, 0.0, 0.0, 0.0, 0.0, 7528.246346503061, 0.0]
['beep', 0.0, -60.97555887407767, 0.0, 0.0, 0.0, 0.0, 7527.374628469304, 0.0]
['beep', 0.0, -62.3613670303067, 0.0, 0.0, 0.0, 0.0, 7527.665201147223, 0.0]
['beep', 0.0, -63.76952693099105, 0.0, 0.0, 0.0, 0.0, 7524.513605179025, 0.0]
['beep', 0.0, -61.78022167446872, 0.0, 0.0, 0.0, 0.0, 7523.552480167446, 0.0]
['beep', 0.0, -60.17089607368661, 0.0, 0.0, 0.0, 0.0, 7522.412541200226, 0.0]
['beep', 0.0, -59.61210246230394, 0.0, 0.0, 0.0, 0.0, 7520.937326066176, 0.0]
['beep', 0.0, -59.835619906857005, 0.0, 0.0, 0.0, 0.0, 7517.942192309165, 0.0]
['beep', 0.0, -60.081489095865386, 0.0, 0.0, 0.0, 0.0, 7516.9140120642205, 0.0]
['beep', 0.0, -57.980425117066524, 0.0, 0.0, 0.0, 0.0, 7514.969410296609, 0.0]
['beep', 0.0, -53.26420703699673, 0.0, 0.0, 0.0, 0.0, 7513.985933540575, 0.0]
['beep', 0.0, -52.638358192248134, 0.0, 0.0, 0.0, 0.0, 7512.510718406525, 0.0]
['beep', 0.0, -54.80647740441292, 0.0, 0.0, 0.0, 0.0, 7511.81781432841, 0.0]
['beep', 0.0, -56.75107917202463, 0.0, 0.0, 0.0, 0.0, 7510.253192216539, 0.0]
['beep', 0.0, -57.42163150568384, 0.0, 0.0, 0.0, 0.0, 7508.554459637936, 0.0]
['beep', 0.0, -56.974596616577706, 0.0, 0.0, 0.0, 0.0, 7509.314418949416, 0.0]
['beep', 0.0, -56.37109951628441, 0.0, 0.0, 0.0, 0.0, 7507.079244503885, 0.0]
['beep', 0.0, -55.85700939381235, 0.0, 0.0, 0.0, 0.0, 7507.235706715072, 0.0]
['beep', 0.0, -56.594616960837484, 0.0, 0.0, 0.0, 0.0, 7507.973314282098, 0.0]
['beep', 0.0, -57.332224527862614, 0.0, 0.0, 0.0, 0.0, 7507.123947992796, 0.0]
['beep', 0.0, -56.08052683836542, 0.0, 0.0, 0.0, 0.0, 7507.794500326455, 0.0]
['beep', 0.0, -55.29821578242967, 0.0, 0.0, 0.0, 0.0, 7506.766320081511, 0.0]
['beep', 0.0, -54.62766344877046, 0.0, 0.0, 0.0, 0.0, 7506.095767747852, 0.0]
['beep', 0.0, -57.01930010548832, 0.0, 0.0, 0.0, 0.0, 7506.945134037153, 0.0]
['beep', 0.0, -57.82396290587937, 0.0, 0.0, 0.0, 0.0, 7506.028712514486, 0.0]
['beep', 0.0, -56.75107917202463, 0.0, 0.0, 0.0, 0.0, 7505.559325880925, 0.0]
['beep', 0.0, -55.65584369371459, 0.0, 0.0, 0.0, 0.0, 7505.559325880925, 0.0]
['beep', 0.0, -57.86866639478998, 0.0, 0.0, 0.0, 0.0, 7506.475747403592, 0.0]
['beep', 0.0, -57.55574197241569, 0.0, 0.0, 0.0, 0.0, 7506.229878214584, 0.0]
['beep', 0.0, -56.862837894301165, 0.0, 0.0, 0.0, 0.0, 7505.96165728112, 0.0]
['beep', 0.0, -56.974596616577706, 0.0, 0.0, 0.0, 0.0, 7506.185174725673, 0.0]
['beep', 0.0, -57.04165184994363, 0.0, 0.0, 0.0, 0.0, 7505.112290991819, 0.0]
['beep', 0.0, -57.779259416968756, 0.0, 0.0, 0.0, 0.0, 7504.329979935883, 0.0]
['beep', 0.0, -59.32152978438494, 0.0, 0.0, 0.0, 0.0, 7503.100633990841, 0.0]
['beep', 0.0, -58.94155012864472, 0.0, 0.0, 0.0, 0.0, 7503.458261902126, 0.0]
['beep', 0.0, -57.42163150568384, 0.0, 0.0, 0.0, 0.0, 7503.547668879947, 0.0]
['beep', 0.0, -57.68985243914753, 0.0, 0.0, 0.0, 0.0, 7503.681779346679, 0.0]
['beep', 0.0, -57.82396290587937, 0.0, 0.0, 0.0, 0.0, 7502.6535991017345, 0.0]
['beep', 0.0, -59.96973037358885, 0.0, 0.0, 0.0, 0.0, 7502.877116546288, 0.0]
['beep', 0.0, -59.88032339576762, 0.0, 0.0, 0.0, 0.0, 7502.586543868369, 0.0]
['beep', 0.0, -59.20977106210841, 0.0, 0.0, 0.0, 0.0, 7500.932514778676, 0.0]
['beep', 0.0, -57.80161116142406, 0.0, 0.0, 0.0, 0.0, 7499.546706622447, 0.0]
['beep', 0.0, -58.76273617300227, 0.0, 0.0, 0.0, 0.0, 7499.591410111358, 0.0]
['beep', 0.0, -59.65680595121455, 0.0, 0.0, 0.0, 0.0, 7501.334846178872, 0.0]
['beep', 0.0, -59.4779919955721, 0.0, 0.0, 0.0, 0.0, 7501.178383967685, 0.0]
['beep', 0.0, -60.26030305150784, 0.0, 0.0, 0.0, 0.0, 7499.546706622447, 0.0]
['beep', 0.0, -60.59557921833745, 0.0, 0.0, 0.0, 0.0, 7499.546706622447, 0.0]
['beep', 0.0, -60.081489095865386, 0.0, 0.0, 0.0, 0.0, 7500.843107800854, 0.0]
['beep', 0.0, -60.39441351823968, 0.0, 0.0, 0.0, 0.0, 7500.708997334123, 0.0]
['beep', 0.0, -61.10966934080951, 0.0, 0.0, 0.0, 0.0, 7500.977218267587, 0.0]
['beep', 0.0, -61.087317596354204, 0.0, 0.0, 0.0, 0.0, 7500.932514778676, 0.0]
['beep', 0.0, -60.41676526269499, 0.0, 0.0, 0.0, 0.0, 7500.172555467196, 0.0]
['beep', 0.0, -60.752041429524596, 0.0, 0.0, 0.0, 0.0, 7502.407729912727, 0.0]
['beep', 0.0, -62.16020133020894, 0.0, 0.0, 0.0, 0.0, 7503.570020624402, 0.0]
['beep', 0.0, -62.38371877476201, 0.0, 0.0, 0.0, 0.0, 7503.279447946483, 0.0]
['beep', 0.0, -61.44494550763911, 0.0, 0.0, 0.0, 0.0, 7502.7206543351, 0.0]
['beep', 0.0, -60.99791061853298, 0.0, 0.0, 0.0, 0.0, 7502.0053985125305, 0.0]
['beep', 0.0, -61.84727690783464, 0.0, 0.0, 0.0, 0.0, 7502.877116546288, 0.0]
['beep', 0.0, -63.94834088663351, 0.0, 0.0, 0.0, 0.0, 7503.927648535687, 0.0]
['beep', 0.0, -62.6519397082257, 0.0, 0.0, 0.0, 0.0, 7504.285276446972, 0.0]
['beep', 0.0, -61.80257341892403, 0.0, 0.0, 0.0, 0.0, 7505.402863669738, 0.0]
['beep', 0.0, -62.0260908634771, 0.0, 0.0, 0.0, 0.0, 7506.4086921702265, 0.0]
['beep', 0.0, -61.78022167446872, 0.0, 0.0, 0.0, 0.0, 7505.805195069933, 0.0]
['beep', 0.0, -62.51782924149386, 0.0, 0.0, 0.0, 0.0, 7503.5923723688575, 0.0]
['beep', 0.0, -63.255436808518986, 0.0, 0.0, 0.0, 0.0, 7503.167689224207, 0.0]
['beep', 0.0, -61.73551818555811, 0.0, 0.0, 0.0, 0.0, 7505.022884013997, 0.0]
['beep', 0.0, -60.372061773784374, 0.0, 0.0, 0.0, 0.0, 7504.575849124891, 0.0]
['beep', 0.0, -60.819096662890516, 0.0, 0.0, 0.0, 0.0, 7504.419386913703, 0.0]
['beep', 0.0, -63.07662285287653, 0.0, 0.0, 0.0, 0.0, 7504.464090402615, 0.0]
['beep', 0.0, -62.16020133020894, 0.0, 0.0, 0.0, 0.0, 7505.4699189031035, 0.0]
['beep', 0.0, -61.0649658518989, 0.0, 0.0, 0.0, 0.0, 7505.447567158648, 0.0]
['beep', 0.0, -60.86380015180113, 0.0, 0.0, 0.0, 0.0, 7506.7216165926, 0.0]
['beep', 0.0, -61.891980396745254, 0.0, 0.0, 0.0, 0.0, 7505.693436347657, 0.0]
['beep', 0.0, -61.668462952192186, 0.0, 0.0, 0.0, 0.0, 7503.793538068955, 0.0]
['beep', 0.0, -61.82492516337933, 0.0, 0.0, 0.0, 0.0, 7503.7711863245, 0.0]
['beep', 0.0, -61.221428063086044, 0.0, 0.0, 0.0, 0.0, 7504.285276446972, 0.0]
['beep', 0.0, -60.886151896256436, 0.0, 0.0, 0.0, 0.0, 7504.262924702517, 0.0]
['beep', 0.0, -62.85310540832346, 0.0, 0.0, 0.0, 0.0, 7505.91695379221, 0.0]
['beep', 0.0, -64.79770717593517, 0.0, 0.0, 0.0, 0.0, 7507.146299737251, 0.0]
['beep', 0.0, -63.90363739772289, 0.0, 0.0, 0.0, 0.0, 7508.353293937838, 0.0]
['beep', 0.0, -63.054271108421226, 0.0, 0.0, 0.0, 0.0, 7509.649695116245, 0.0]
['beep', 0.0, -62.04844260793241, 0.0, 0.0, 0.0, 0.0, 7509.806157327433, 0.0]
['beep', 0.0, -63.188381575153066, 0.0, 0.0, 0.0, 0.0, 7509.493232905059, 0.0]
['beep', 0.0, -63.188381575153066, 0.0, 0.0, 0.0, 0.0, 7511.169613739206, 0.0]
['beep', 0.0, -61.93668388565587, 0.0, 0.0, 0.0, 0.0, 7511.795462583955, 0.0]
['beep', 0.0, -61.55670422991565, 0.0, 0.0, 0.0, 0.0, 7511.348427694849, 0.0]
['beep', 0.0, -61.84727690783464, 0.0, 0.0, 0.0, 0.0, 7512.53307015098, 0.0]
['beep', 0.0, -62.38371877476201, 0.0, 0.0, 0.0, 0.0, 7511.616648628313, 0.0]
['beep', 0.0, -62.6519397082257, 0.0, 0.0, 0.0, 0.0, 7511.1025585058405, 0.0]
['beep', 0.0, -63.14367808624245, 0.0, 0.0, 0.0, 0.0, 7512.331904450883, 0.0]
['beep', 0.0, -62.38371877476201, 0.0, 0.0, 0.0, 0.0, 7512.845994573355, 0.0]
['beep', 0.0, -61.62375946328157, 0.0, 0.0, 0.0, 0.0, 7512.063683517419, 0.0]
['beep', 0.0, -62.6519397082257, 0.0, 0.0, 0.0, 0.0, 7510.990799783564, 0.0]
['beep', 0.0, -62.71899494159162, 0.0, 0.0, 0.0, 0.0, 7510.409654427726, 0.0]
['beep', 0.0, -63.83658216435697, 0.0, 0.0, 0.0, 0.0, 7510.8119858279215, 0.0]
['beep', 0.0, -61.98138737456649, 0.0, 0.0, 0.0, 0.0, 7509.9849712830755, 0.0]
['beep', 0.0, -60.50617224051622, 0.0, 0.0, 0.0, 0.0, 7510.499061405548, 0.0]
['beep', 0.0, -62.38371877476201, 0.0, 0.0, 0.0, 0.0, 7510.521413150002, 0.0]
['beep', 0.0, -62.16020133020894, 0.0, 0.0, 0.0, 0.0, 7509.627343371791, 0.0]
['beep', 0.0, -62.16020133020894, 0.0, 0.0, 0.0, 0.0, 7509.426177671693, 0.0]
['beep', 0.0, -61.422593763183805, 0.0, 0.0, 0.0, 0.0, 7509.403825927237, 0.0]
['beep', 0.0, -61.04261410744359, 0.0, 0.0, 0.0, 0.0, 7509.895564305254, 0.0]
['beep', 0.0, -62.51782924149386, 0.0, 0.0, 0.0, 0.0, 7508.9344392936755, 0.0]
['beep', 0.0, -61.93668388565587, 0.0, 0.0, 0.0, 0.0, 7508.777977082489, 0.0]
['beep', 0.0, -61.44494550763911, 0.0, 0.0, 0.0, 0.0, 7510.320247449905, 0.0]
['beep', 0.0, -60.372061773784374, 0.0, 0.0, 0.0, 0.0, 7509.783805582978, 0.0]
['beep', 0.0, -60.93085538516705, 0.0, 0.0, 0.0, 0.0, 7506.788671825966, 0.0]
['beep', 0.0, -62.62958796377039, 0.0, 0.0, 0.0, 0.0, 7508.196831726651, 0.0]
['beep', 0.0, -62.76369843050223, 0.0, 0.0, 0.0, 0.0, 7508.599163126846, 0.0]
['beep', 0.0, -61.62375946328157, 0.0, 0.0, 0.0, 0.0, 7509.828509071888, 0.0]
['beep', 0.0, -60.17089607368661, 0.0, 0.0, 0.0, 0.0, 7510.767282339011, 0.0]
['beep', 0.0, -59.14271582874249, 0.0, 0.0, 0.0, 0.0, 7511.05785501693, 0.0]
['beep', 0.0, -61.19907631863074, 0.0, 0.0, 0.0, 0.0, 7510.744930594556, 0.0]
['beep', 0.0, -63.6130647198039, 0.0, 0.0, 0.0, 0.0, 7510.275543960995, 0.0]
['beep', 0.0, -62.9648641306, 0.0, 0.0, 0.0, 0.0, 7511.951924795142, 0.0]
['beep', 0.0, -61.04261410744359, 0.0, 0.0, 0.0, 0.0, 7512.600125384346, 0.0]
['beep', 0.0, -61.04261410744359, 0.0, 0.0, 0.0, 0.0, 7512.823642828899, 0.0]
['beep', 0.0, -61.288483296451965, 0.0, 0.0, 0.0, 0.0, 7514.164747496217, 0.0]
['beep', 0.0, -61.62375946328157, 0.0, 0.0, 0.0, 0.0, 7514.142395751763, 0.0]
['beep', 0.0, -62.45077400812794, 0.0, 0.0, 0.0, 0.0, 7515.595259141357, 0.0]
['beep', 0.0, -61.24377980754135, 0.0, 0.0, 0.0, 0.0, 7516.4446254306595, 0.0]
['beep', 0.0, -60.550875729426835, 0.0, 0.0, 0.0, 0.0, 7515.394093441259, 0.0]
['beep', 0.0, -60.7743931739799, 0.0, 0.0, 0.0, 0.0, 7514.611782385324, 0.0]
['beep', 0.0, -61.422593763183805, 0.0, 0.0, 0.0, 0.0, 7515.841128330366, 0.0]
['beep', 0.0, -61.0649658518989, 0.0, 0.0, 0.0, 0.0, 7517.62926788679, 0.0]
['beep', 0.0, -58.36040477280674, 0.0, 0.0, 0.0, 0.0, 7514.298857962949, 0.0]
['beep', 0.0, -57.9133698837006, 0.0, 0.0, 0.0, 0.0, 7514.544727151958, 0.0]
['beep', 0.0, -60.7743931739799, 0.0, 0.0, 0.0, 0.0, 7514.075340518397, 0.0]
['beep', 0.0, -63.70247169762513, 0.0, 0.0, 0.0, 0.0, 7510.029674771986, 0.0]
['beep', 0.0, -71.14560260124237, 0.0, 0.0, 0.0, 0.0, 7504.665256102712, 0.0]
['beep', 0.0, -72.37494854628427, 0.0, 0.0, 0.0, 0.0, 7500.641942100757, 0.0]
['beep', 0.0, -69.82684967837926, 0.0, 0.0, 0.0, 0.0, 7497.847974043843, 0.0]
['beep', 0.0, -71.70439621262506, 0.0, 0.0, 0.0, 0.0, 7493.645846086246, 0.0]
['beep', 0.0, -71.07854736787645, 0.0, 0.0, 0.0, 0.0, 7491.164802451707, 0.0]
['beep', 0.0, -67.97165488858877, 0.0, 0.0, 0.0, 0.0, 7488.661407072713, 0.0]
['beep', 0.0, -66.98817813255526, 0.0, 0.0, 0.0, 0.0, 7483.408747125715, 0.0]
['beep', 0.0, -69.3127595559072, 0.0, 0.0, 0.0, 0.0, 7478.4690116010925, 0.0]
['beep', 0.0, -75.21362009210827, 0.0, 0.0, 0.0, 0.0, 7477.172610422685, 0.0]
['beep', 0.0, -74.85599218082335, 0.0, 0.0, 0.0, 0.0, 7471.852895242321, 0.0]
['beep', 0.0, -73.20196309113064, 0.0, 0.0, 0.0, 0.0, 7465.460296328104, 0.0]
['beep', 0.0, -78.29816082694065, 0.0, 0.0, 0.0, 0.0, 7461.057002670408, 0.0]
['beep', 0.0, -79.86278293881213, 0.0, 0.0, 0.0, 0.0, 7458.553607291414, 0.0]
['beep', 0.0, -80.80155620593503, 0.0, 0.0, 0.0, 0.0, 7455.580825278858, 0.0]
['beep', 0.0, -84.46724229660539, 0.0, 0.0, 0.0, 0.0, 7452.04924965492, 0.0]
['beep', 0.0, -86.92593418668916, 0.0, 0.0, 0.0, 0.0, 7448.0035839085085, 0.0]
['beep', 0.0, -85.1154428858093, 0.0, 0.0, 0.0, 0.0, 7445.9472234186205, 0.0]
['beep', 0.0, -84.80251846343499, 0.0, 0.0, 0.0, 0.0, 7447.511845530492, 0.0]
['beep', 0.0, -86.21067836411935, 0.0, 0.0, 0.0, 0.0, 7447.176569363663, 0.0]
['beep', 0.0, -87.84235570935675, 0.0, 0.0, 0.0, 0.0, 7447.33303157485, 0.0]
['beep', 0.0, -86.52360278649364, 0.0, 0.0, 0.0, 0.0, 7446.729534474556, 0.0]
['beep', 0.0, -83.79668996294618, 0.0, 0.0, 0.0, 0.0, 7445.500188529514, 0.0]
['beep', 0.0, -81.82973645087915, 0.0, 0.0, 0.0, 0.0, 7445.388429807238, 0.0]
['beep', 0.0, -83.12613762928697, 0.0, 0.0, 0.0, 0.0, 7445.924871674165, 0.0]
['beep', 0.0, -82.67910274018082, 0.0, 0.0, 0.0, 0.0, 7447.176569363663, 0.0]
['beep', 0.0, -81.15918411721995, 0.0, 0.0, 0.0, 0.0, 7447.020107152475, 0.0]
['beep', 0.0, -79.37104456079538, 0.0, 0.0, 0.0, 0.0, 7447.400086808216, 0.0]
['beep', 0.0, -78.4993265270384, 0.0, 0.0, 0.0, 0.0, 7448.8082467089, 0.0]
['beep', 0.0, -80.80155620593503, 0.0, 0.0, 0.0, 0.0, 7447.578900763858, 0.0]
['beep', 0.0, -84.22137310759702, 0.0, 0.0, 0.0, 0.0, 7448.115342630786, 0.0]
['beep', 0.0, -84.33313182987355, 0.0, 0.0, 0.0, 0.0, 7448.85295019781, 0.0]
['beep', 0.0, -85.20484986363053, 0.0, 0.0, 0.0, 0.0, 7447.668307741679, 0.0]
['beep', 0.0, -85.98716091956626, 0.0, 0.0, 0.0, 0.0, 7446.975403663565, 0.0]
['beep', 0.0, -87.3282655868847, 0.0, 0.0, 0.0, 0.0, 7446.103685629808, 0.0]
['beep', 0.0, -86.63536150877017, 0.0, 0.0, 0.0, 0.0, 7445.254319340506, 0.0]
['beep', 0.0, -83.81904170740148, 0.0, 0.0, 0.0, 0.0, 7446.729534474556, 0.0]
['beep', 0.0, -85.1154428858093, 0.0, 0.0, 0.0, 0.0, 7446.7742379634665, 0.0]
['beep', 0.0, -87.35061733134, 0.0, 0.0, 0.0, 0.0, 7444.5390635179365, 0.0]
['beep', 0.0, -87.19415512015286, 0.0, 0.0, 0.0, 0.0, 7446.953051919109, 0.0]
['beep', 0.0, -86.97063767559978, 0.0, 0.0, 0.0, 0.0, 7447.243624597028, 0.0]
['beep', 0.0, -86.21067836411935, 0.0, 0.0, 0.0, 0.0, 7445.366078062782, 0.0]
['beep', 0.0, -85.4283673081836, 0.0, 0.0, 0.0, 0.0, 7443.041496639431, 0.0]
['beep', 0.0, -86.47889929758303, 0.0, 0.0, 0.0, 0.0, 7442.817979194878, 0.0]
['beep', 0.0, -87.73059698708022, 0.0, 0.0, 0.0, 0.0, 7443.063848383886, 0.0]
['beep', 0.0, -87.48472779807184, 0.0, 0.0, 0.0, 0.0, 7442.549758261413, 0.0]
['beep', 0.0, -87.59648652034838, 0.0, 0.0, 0.0, 0.0, 7443.37677280626, 0.0]
['beep', 0.0, -88.22233536509698, 0.0, 0.0, 0.0, 0.0, 7443.510883272992, 0.0]
['beep', 0.0, -87.77530047599083, 0.0, 0.0, 0.0, 0.0, 7440.8063221939, 0.0]
['beep', 0.0, -89.02699816548802, 0.0, 0.0, 0.0, 0.0, 7442.8403309393325, 0.0]
['beep', 0.0, -90.12223364379808, 0.0, 0.0, 0.0, 0.0, 7442.303889072406, 0.0]
['beep', 0.0, -88.06587315390982, 0.0, 0.0, 0.0, 0.0, 7441.812150694389, 0.0]
['beep', 0.0, -87.79765222044614, 0.0, 0.0, 0.0, 0.0, 7441.856854183299, 0.0]
['beep', 0.0, -88.24468710955229, 0.0, 0.0, 0.0, 0.0, 7440.873377427266, 0.0]
['beep', 0.0, -88.04352140945451, 0.0, 0.0, 0.0, 0.0, 7440.8063221939, 0.0]
['beep', 0.0, -89.74225398805785, 0.0, 0.0, 0.0, 0.0, 7442.058019883397, 0.0]
['beep', 0.0, -89.27286735449641, 0.0, 0.0, 0.0, 0.0, 7443.510883272992, 0.0]
['beep', 0.0, -88.40114932073944, 0.0, 0.0, 0.0, 0.0, 7444.583767006847, 0.0]
['beep', 0.0, -89.42932956568356, 0.0, 0.0, 0.0, 0.0, 7442.6615169836905, 0.0]
['beep', 0.0, -89.898716199245, 0.0, 0.0, 0.0, 0.0, 7441.499226272014, 0.0]
['beep', 0.0, -89.42932956568356, 0.0, 0.0, 0.0, 0.0, 7442.929737917154, 0.0]
['beep', 0.0, -89.94341968815561, 0.0, 0.0, 0.0, 0.0, 7443.197958850617, 0.0]
['beep', 0.0, -88.64701850974781, 0.0, 0.0, 0.0, 0.0, 7442.28153732795, 0.0]
['beep', 0.0, -87.23885860906347, 0.0, 0.0, 0.0, 0.0, 7441.856854183299, 0.0]
['beep', 0.0, -89.45168131013887, 0.0, 0.0, 0.0, 0.0, 7441.923909416665, 0.0]
['beep', 0.0, -90.92689644418913, 0.0, 0.0, 0.0, 0.0, 7443.33206931735, 0.0]
['beep', 0.0, -89.69755049914724, 0.0, 0.0, 0.0, 0.0, 7443.71204897309, 0.0]
['beep', 0.0, -88.6023150208372, 0.0, 0.0, 0.0, 0.0, 7443.980269906554, 0.0]
['beep', 0.0, -90.09988189934278, 0.0, 0.0, 0.0, 0.0, 7444.270842584472, 0.0]
['beep', 0.0, -90.23399236607462, 0.0, 0.0, 0.0, 0.0, 7444.226139095562, 0.0]
['beep', 0.0, -90.94924818864443, 0.0, 0.0, 0.0, 0.0, 7442.6615169836905, 0.0]
['beep', 0.0, -89.36227433231764, 0.0, 0.0, 0.0, 0.0, 7443.1309036172515, 0.0]
['beep', 0.0, -87.70824524262491, 0.0, 0.0, 0.0, 0.0, 7444.181435606652, 0.0]
['beep', 0.0, -87.93176268717798, 0.0, 0.0, 0.0, 0.0, 7444.650822240213, 0.0]
['beep', 0.0, -88.19998362064167, 0.0, 0.0, 0.0, 0.0, 7443.443828039626, 0.0]
['beep', 0.0, -89.47403305459417, 0.0, 0.0, 0.0, 0.0, 7445.231967596051, 0.0]
['beep', 0.0, -89.60814352132601, 0.0, 0.0, 0.0, 0.0, 7445.746057718523, 0.0]
['beep', 0.0, -88.57996327638189, 0.0, 0.0, 0.0, 0.0, 7445.790761207433, 0.0]
['beep', 0.0, -87.12709988678694, 0.0, 0.0, 0.0, 0.0, 7445.231967596051, 0.0]
['beep', 0.0, -87.82000396490145, 0.0, 0.0, 0.0, 0.0, 7445.500188529514, 0.0]
['beep', 0.0, -87.79765222044614, 0.0, 0.0, 0.0, 0.0, 7445.835464696344, 0.0]
['beep', 0.0, -87.44002430916123, 0.0, 0.0, 0.0, 0.0, 7445.410781551694, 0.0]
['beep', 0.0, -87.30591384242939, 0.0, 0.0, 0.0, 0.0, 7444.784932706944, 0.0]
['beep', 0.0, -86.99298942005508, 0.0, 0.0, 0.0, 0.0, 7443.823807695367, 0.0]
['beep', 0.0, -86.92593418668916, 0.0, 0.0, 0.0, 0.0, 7444.315546073383, 0.0]
['beep', 0.0, -88.2893905984629, 0.0, 0.0, 0.0, 0.0, 7444.650822240213, 0.0]
['beep', 0.0, -86.7024167421361, 0.0, 0.0, 0.0, 0.0, 7444.606118751302, 0.0]
['beep', 0.0, -85.54012603046013, 0.0, 0.0, 0.0, 0.0, 7442.974441406065, 0.0]
['beep', 0.0, -86.83652720886793, 0.0, 0.0, 0.0, 0.0, 7442.6615169836905, 0.0]
['beep', 0.0, -87.37296907579531, 0.0, 0.0, 0.0, 0.0, 7443.086200128341, 0.0]
['beep', 0.0, -87.39532082025062, 0.0, 0.0, 0.0, 0.0, 7442.8403309393325, 0.0]
['beep', 0.0, -86.59065801985956, 0.0, 0.0, 0.0, 0.0, 7442.885034428244, 0.0]
['beep', 0.0, -85.54012603046013, 0.0, 0.0, 0.0, 0.0, 7444.248490840017, 0.0]
['beep', 0.0, -85.54012603046013, 0.0, 0.0, 0.0, 0.0, 7444.159083862196, 0.0]
['beep', 0.0, -86.30008534194057, 0.0, 0.0, 0.0, 0.0, 7445.120208873775, 0.0]
['beep', 0.0, -84.24372485205232, 0.0, 0.0, 0.0, 0.0, 7446.304851329905, 0.0]
['beep', 0.0, -83.59552426284841, 0.0, 0.0, 0.0, 0.0, 7447.310679830394, 0.0]
['beep', 0.0, -83.46141379611657, 0.0, 0.0, 0.0, 0.0, 7447.645955997224, 0.0]
['beep', 0.0, -82.18736436216408, 0.0, 0.0, 0.0, 0.0, 7447.310679830394, 0.0]
['beep', 0.0, -82.6120475068149, 0.0, 0.0, 0.0, 0.0, 7448.13769437524, 0.0]
['beep', 0.0, -83.46141379611657, 0.0, 0.0, 0.0, 0.0, 7448.741191475534, 0.0]
['beep', 0.0, -84.13196612977579, 0.0, 0.0, 0.0, 0.0, 7449.009412408997, 0.0]
['beep', 0.0, -82.67910274018082, 0.0, 0.0, 0.0, 0.0, 7447.489493786036, 0.0]
['beep', 0.0, -83.46141379611657, 0.0, 0.0, 0.0, 0.0, 7446.8859966857435, 0.0]
['beep', 0.0, -82.72380622909144, 0.0, 0.0, 0.0, 0.0, 7448.09299088633, 0.0]
['beep', 0.0, -82.67910274018082, 0.0, 0.0, 0.0, 0.0, 7448.540025775436, 0.0]
['beep', 0.0, -84.19902136314171, 0.0, 0.0, 0.0, 0.0, 7447.310679830394, 0.0]
['beep', 0.0, -84.55664927442662, 0.0, 0.0, 0.0, 0.0, 7447.243624597028, 0.0]
['beep', 0.0, -84.93662893016683, 0.0, 0.0, 0.0, 0.0, 7446.8859966857435, 0.0]
['beep', 0.0, -85.7636434750132, 0.0, 0.0, 0.0, 0.0, 7447.601252508313, 0.0]
['beep', 0.0, -86.97063767559978, 0.0, 0.0, 0.0, 0.0, 7447.400086808216, 0.0]
['beep', 0.0, -85.04838765244337, 0.0, 0.0, 0.0, 0.0, 7447.131865874751, 0.0]
['beep', 0.0, -84.64605625224785, 0.0, 0.0, 0.0, 0.0, 7447.265976341484, 0.0]
['beep', 0.0, -85.54012603046013, 0.0, 0.0, 0.0, 0.0, 7447.109514130297, 0.0]
['beep', 0.0, -84.62370450779254, 0.0, 0.0, 0.0, 0.0, 7447.780066463955, 0.0]
['beep', 0.0, -85.54012603046013, 0.0, 0.0, 0.0, 0.0, 7449.255281598006, 0.0]
['beep', 0.0, -86.27773359748527, 0.0, 0.0, 0.0, 0.0, 7448.405915308705, 0.0]
['beep', 0.0, -85.18249811917522, 0.0, 0.0, 0.0, 0.0, 7448.070639141874, 0.0]
['beep', 0.0, -84.06491089640986, 0.0, 0.0, 0.0, 0.0, 7449.143522875729, 0.0]
['beep', 0.0, -84.62370450779254, 0.0, 0.0, 0.0, 0.0, 7446.796589707922, 0.0]
['beep', 0.0, -85.96480917511096, 0.0, 0.0, 0.0, 0.0, 7448.0035839085085, 0.0]
['beep', 0.0, -83.8637451963121, 0.0, 0.0, 0.0, 0.0, 7449.143522875729, 0.0]
['beep', 0.0, -83.50611728502719, 0.0, 0.0, 0.0, 0.0, 7448.4729705420705, 0.0]
['beep', 0.0, -83.30495158492943, 0.0, 0.0, 0.0, 0.0, 7447.891825186232, 0.0]
['beep', 0.0, -85.98716091956626, 0.0, 0.0, 0.0, 0.0, 7448.09299088633, 0.0]
['beep', 0.0, -86.76947197550201, 0.0, 0.0, 0.0, 0.0, 7447.221272852573, 0.0]
['beep', 0.0, -88.13292838727575, 0.0, 0.0, 0.0, 0.0, 7447.109514130297, 0.0]
['beep', 0.0, -86.12127138629812, 0.0, 0.0, 0.0, 0.0, 7447.958880419598, 0.0]
['beep', 0.0, -85.83069870837912, 0.0, 0.0, 0.0, 0.0, 7447.891825186232, 0.0]
['beep', 0.0, -86.47889929758303, 0.0, 0.0, 0.0, 0.0, 7447.981232164054, 0.0]
['beep', 0.0, -86.18832661966404, 0.0, 0.0, 0.0, 0.0, 7449.322336831372, 0.0]
['beep', 0.0, -87.19415512015286, 0.0, 0.0, 0.0, 0.0, 7448.629432753258, 0.0]
['beep', 0.0, -84.53429752997131, 0.0, 0.0, 0.0, 0.0, 7448.8082467089, 0.0]
['beep', 0.0, -84.62370450779254, 0.0, 0.0, 0.0, 0.0, 7447.891825186232, 0.0]
['beep', 0.0, -85.83069870837912, 0.0, 0.0, 0.0, 0.0, 7448.09299088633, 0.0]
['beep', 0.0, -85.13779463026461, 0.0, 0.0, 0.0, 0.0, 7449.255281598006, 0.0]
['beep', 0.0, -85.85305045283442, 0.0, 0.0, 0.0, 0.0, 7449.098819386819, 0.0]
['beep', 0.0, -86.03186440847688, 0.0, 0.0, 0.0, 0.0, 7449.94818567612, 0.0]
['beep', 0.0, -84.8472219523456, 0.0, 0.0, 0.0, 0.0, 7448.830598453355, 0.0]
['beep', 0.0, -86.03186440847688, 0.0, 0.0, 0.0, 0.0, 7448.204749608607, 0.0]
['beep', 0.0, -87.59648652034838, 0.0, 0.0, 0.0, 0.0, 7447.869473441777, 0.0]
['beep', 0.0, -87.23885860906347, 0.0, 0.0, 0.0, 0.0, 7447.556549019403, 0.0]
['beep', 0.0, -86.14362313075343, 0.0, 0.0, 0.0, 0.0, 7449.52350253147, 0.0]
['beep', 0.0, -85.1154428858093, 0.0, 0.0, 0.0, 0.0, 7448.785894964444, 0.0]
['beep', 0.0, -85.80834696392381, 0.0, 0.0, 0.0, 0.0, 7448.830598453355, 0.0]
['beep', 0.0, -86.54595453094895, 0.0, 0.0, 0.0, 0.0, 7449.657612998201, 0.0]
['beep', 0.0, -84.75781497452438, 0.0, 0.0, 0.0, 0.0, 7450.551682776414, 0.0]
['beep', 0.0, -84.8472219523456, 0.0, 0.0, 0.0, 0.0, 7451.535159532447, 0.0]
['beep', 0.0, -85.02603590798806, 0.0, 0.0, 0.0, 0.0, 7451.356345576804, 0.0]
['beep', 0.0, -84.511945785516, 0.0, 0.0, 0.0, 0.0, 7451.33399383235, 0.0]
['beep', 0.0, -86.3894923197618, 0.0, 0.0, 0.0, 0.0, 7452.339822332839, 0.0]
['beep', 0.0, -86.50125104203833, 0.0, 0.0, 0.0, 0.0, 7452.652746755212, 0.0]
['beep', 0.0, -84.35548357432886, 0.0, 0.0, 0.0, 0.0, 7451.266938598984, 0.0]
['beep', 0.0, -84.19902136314171, 0.0, 0.0, 0.0, 0.0, 7451.021069409975, 0.0]
['beep', 0.0, -85.00368416353275, 0.0, 0.0, 0.0, 0.0, 7452.228063610562, 0.0]
['beep', 0.0, -86.59065801985956, 0.0, 0.0, 0.0, 0.0, 7453.032726410953, 0.0]
['beep', 0.0, -85.33896033036237, 0.0, 0.0, 0.0, 0.0, 7454.418534567182, 0.0]
['beep', 0.0, -84.75781497452438, 0.0, 0.0, 0.0, 0.0, 7453.747982233523, 0.0]
['beep', 0.0, -84.511945785516, 0.0, 0.0, 0.0, 0.0, 7451.669269999179, 0.0]
['beep', 0.0, -85.36131207481768, 0.0, 0.0, 0.0, 0.0, 7452.988022922043, 0.0]
['beep', 0.0, -86.21067836411935, 0.0, 0.0, 0.0, 0.0, 7454.28442410045, 0.0]
['beep', 0.0, -86.27773359748527, 0.0, 0.0, 0.0, 0.0, 7452.920967688677, 0.0]
['beep', 0.0, -84.511945785516, 0.0, 0.0, 0.0, 0.0, 7452.764505477489, 0.0]
['beep', 0.0, -83.93080042967802, 0.0, 0.0, 0.0, 0.0, 7452.719801988578, 0.0]
['beep', 0.0, -86.23303010857465, 0.0, 0.0, 0.0, 0.0, 7452.540988032936, 0.0]
['beep', 0.0, -87.46237605361654, 0.0, 0.0, 0.0, 0.0, 7453.837389211344, 0.0]
['beep', 0.0, -86.59065801985956, 0.0, 0.0, 0.0, 0.0, 7453.256243855506, 0.0]
['beep', 0.0, -86.34478883085119, 0.0, 0.0, 0.0, 0.0, 7451.825732210366, 0.0]
['beep', 0.0, -86.14362313075343, 0.0, 0.0, 0.0, 0.0, 7452.317470588383, 0.0]
['beep', 0.0, -85.87540219728973, 0.0, 0.0, 0.0, 0.0, 7452.250415355017, 0.0]
['beep', 0.0, -87.79765222044614, 0.0, 0.0, 0.0, 0.0, 7452.384525821749, 0.0]
['beep', 0.0, -87.75294873153553, 0.0, 0.0, 0.0, 0.0, 7453.23389211105, 0.0]
['beep', 0.0, -88.53525978747128, 0.0, 0.0, 0.0, 0.0, 7452.384525821749, 0.0]
['beep', 0.0, -87.44002430916123, 0.0, 0.0, 0.0, 0.0, 7452.8092089664, 0.0]
['beep', 0.0, -87.82000396490145, 0.0, 0.0, 0.0, 0.0, 7452.47393279957, 0.0]
['beep', 0.0, -89.13875688776457, 0.0, 0.0, 0.0, 0.0, 7452.295118843927, 0.0]
['beep', 0.0, -90.05517841043215, 0.0, 0.0, 0.0, 0.0, 7454.61970026728, 0.0]
['beep', 0.0, -87.64119000925899, 0.0, 0.0, 0.0, 0.0, 7454.195017122629, 0.0]
['beep', 0.0, -86.59065801985956, 0.0, 0.0, 0.0, 0.0, 7453.055078155408, 0.0]
['beep', 0.0, -86.92593418668916, 0.0, 0.0, 0.0, 0.0, 7451.71397348809, 0.0]
['beep', 0.0, -87.37296907579531, 0.0, 0.0, 0.0, 0.0, 7451.401049065716, 0.0]
['beep', 0.0, -87.19415512015286, 0.0, 0.0, 0.0, 0.0, 7451.132828132252, 0.0]
['beep', 0.0, -86.21067836411935, 0.0, 0.0, 0.0, 0.0, 7449.56820602038, 0.0]
['beep', 0.0, -87.30591384242939, 0.0, 0.0, 0.0, 0.0, 7450.082296142852, 0.0]
['beep', 0.0, -87.93176268717798, 0.0, 0.0, 0.0, 0.0, 7449.52350253147, 0.0]
['beep', 0.0, -87.82000396490145, 0.0, 0.0, 0.0, 0.0, 7449.52350253147, 0.0]
['beep', 0.0, -88.2670388540076, 0.0, 0.0, 0.0, 0.0, 7450.149351376218, 0.0]
['beep', 0.0, -87.77530047599083, 0.0, 0.0, 0.0, 0.0, 7449.52350253147, 0.0]
['beep', 0.0, -87.48472779807184, 0.0, 0.0, 0.0, 0.0, 7448.85295019781, 0.0]
['beep', 0.0, -87.86470745381206, 0.0, 0.0, 0.0, 0.0, 7449.478799042559, 0.0]
['beep', 0.0, -87.97646617608859, 0.0, 0.0, 0.0, 0.0, 7449.814075209389, 0.0]
['beep', 0.0, -87.77530047599083, 0.0, 0.0, 0.0, 0.0, 7448.361211819793, 0.0]
['beep', 0.0, -85.92010568620034, 0.0, 0.0, 0.0, 0.0, 7447.42243855267, 0.0]
['beep', 0.0, -85.96480917511096, 0.0, 0.0, 0.0, 0.0, 7447.511845530492, 0.0]
['beep', 0.0, -87.26121035351878, 0.0, 0.0, 0.0, 0.0, 7447.355383319305, 0.0]
['beep', 0.0, -88.42350106519474, 0.0, 0.0, 0.0, 0.0, 7446.148389118718, 0.0]
['beep', 0.0, -87.75294873153553, 0.0, 0.0, 0.0, 0.0, 7446.8859966857435, 0.0]
['beep', 0.0, -85.89775394174504, 0.0, 0.0, 0.0, 0.0, 7447.556549019403, 0.0]
['beep', 0.0, -86.4118440642171, 0.0, 0.0, 0.0, 0.0, 7446.260147840995, 0.0]
['beep', 0.0, -88.53525978747128, 0.0, 0.0, 0.0, 0.0, 7446.126037374263, 0.0]
['beep', 0.0, -88.69172199865842, 0.0, 0.0, 0.0, 0.0, 7447.087162385841, 0.0]
['beep', 0.0, -87.28356209797408, 0.0, 0.0, 0.0, 0.0, 7448.383563564249, 0.0]
['beep', 0.0, -87.060044653421, 0.0, 0.0, 0.0, 0.0, 7446.99775540802, 0.0]
['beep', 0.0, -85.38366381927298, 0.0, 0.0, 0.0, 0.0, 7446.7742379634665, 0.0]
['beep', 0.0, -86.50125104203833, 0.0, 0.0, 0.0, 0.0, 7446.28249958545, 0.0]
['beep', 0.0, -88.42350106519474, 0.0, 0.0, 0.0, 0.0, 7446.126037374263, 0.0]
['beep', 0.0, -87.82000396490145, 0.0, 0.0, 0.0, 0.0, 7446.5954240078245, 0.0]
['beep', 0.0, -87.37296907579531, 0.0, 0.0, 0.0, 0.0, 7446.014278651986, 0.0]
['beep', 0.0, -86.65771325322548, 0.0, 0.0, 0.0, 0.0, 7445.097857129319, 0.0]
['beep', 0.0, -85.74129173055789, 0.0, 0.0, 0.0, 0.0, 7445.343726318327, 0.0]
['beep', 0.0, -86.63536150877017, 0.0, 0.0, 0.0, 0.0, 7444.986098407042, 0.0]
['beep', 0.0, -86.88123069777855, 0.0, 0.0, 0.0, 0.0, 7445.7684094629785, 0.0]
['beep', 0.0, -84.55664927442662, 0.0, 0.0, 0.0, 0.0, 7444.784932706944, 0.0]
['beep', 0.0, -83.97550391858863, 0.0, 0.0, 0.0, 0.0, 7442.527406516959, 0.0]
['beep', 0.0, -85.24955335254114, 0.0, 0.0, 0.0, 0.0, 7443.242662339529, 0.0]
['beep', 0.0, -86.03186440847688, 0.0, 0.0, 0.0, 0.0, 7444.784932706944, 0.0]
['beep', 0.0, -85.89775394174504, 0.0, 0.0, 0.0, 0.0, 7442.259185583495, 0.0]
['beep', 0.0, -86.03186440847688, 0.0, 0.0, 0.0, 0.0, 7440.918080916176, 0.0]
['beep', 0.0, -85.02603590798806, 0.0, 0.0, 0.0, 0.0, 7441.5439297609255, 0.0]
['beep', 0.0, -85.20484986363053, 0.0, 0.0, 0.0, 0.0, 7441.789798949933, 0.0]
['beep', 0.0, -86.47889929758303, 0.0, 0.0, 0.0, 0.0, 7442.437999539137, 0.0]
['beep', 0.0, -86.43419580867241, 0.0, 0.0, 0.0, 0.0, 7441.163950105185, 0.0]
['beep', 0.0, -85.49542254154952, 0.0, 0.0, 0.0, 0.0, 7440.068714626875, 0.0]
['beep', 0.0, -85.60718126382605, 0.0, 0.0, 0.0, 0.0, 7439.129941359752, 0.0]
['beep', 0.0, -85.65188475273666, 0.0, 0.0, 0.0, 0.0, 7439.509921015492, 0.0]
['beep', 0.0, -85.36131207481768, 0.0, 0.0, 0.0, 0.0, 7440.962784405087, 0.0]
['beep', 0.0, -84.44489055215008, 0.0, 0.0, 0.0, 0.0, 7440.493397771525, 0.0]
['beep', 0.0, -81.49446028404955, 0.0, 0.0, 0.0, 0.0, 7440.627508238257, 0.0]
['beep', 0.0, -80.60039050583727, 0.0, 0.0, 0.0, 0.0, 7442.594461750325, 0.0]
['beep', 0.0, -79.37104456079538, 0.0, 0.0, 0.0, 0.0, 7442.460351283593, 0.0]
['beep', 0.0, -78.70049222713617, 0.0, 0.0, 0.0, 0.0, 7443.868511184277, 0.0]
['beep', 0.0, -77.8734776822898, 0.0, 0.0, 0.0, 0.0, 7444.963746662587, 0.0]
['beep', 0.0, -77.22527709308591, 0.0, 0.0, 0.0, 0.0, 7445.4778367850595, 0.0]
['beep', 0.0, -79.63926549425906, 0.0, 0.0, 0.0, 0.0, 7444.0696768843745, 0.0]
['beep', 0.0, -80.95801841712218, 0.0, 0.0, 0.0, 0.0, 7443.443828039626, 0.0]
['beep', 0.0, -81.94149517315569, 0.0, 0.0, 0.0, 0.0, 7443.488531528536, 0.0]
['beep', 0.0, -81.62857075078139, 0.0, 0.0, 0.0, 0.0, 7443.309717572894, 0.0]
['beep', 0.0, -80.24276259455236, 0.0, 0.0, 0.0, 0.0, 7442.326240816861, 0.0]
['beep', 0.0, -80.6897974836585, 0.0, 0.0, 0.0, 0.0, 7441.409819294193, 0.0]
['beep', 0.0, -81.963846917611, 0.0, 0.0, 0.0, 0.0, 7441.432171038648, 0.0]
['beep', 0.0, -82.38853006226184, 0.0, 0.0, 0.0, 0.0, 7442.23683383904, 0.0]
['beep', 0.0, -82.52264052899368, 0.0, 0.0, 0.0, 0.0, 7442.058019883397, 0.0]
['beep', 0.0, -81.673274239692, 0.0, 0.0, 0.0, 0.0, 7441.789798949933, 0.0]
['beep', 0.0, -80.93566667266687, 0.0, 0.0, 0.0, 0.0, 7443.309717572894, 0.0]
['beep', 0.0, -81.80738470642385, 0.0, 0.0, 0.0, 0.0, 7443.846159439821, 0.0]
['beep', 0.0, -82.07560563988753, 0.0, 0.0, 0.0, 0.0, 7443.868511184277, 0.0]
['beep', 0.0, -82.56734401790429, 0.0, 0.0, 0.0, 0.0, 7444.449656540115, 0.0]
['beep', 0.0, -83.81904170740148, 0.0, 0.0, 0.0, 0.0, 7443.443828039626, 0.0]
['beep', 0.0, -82.0085504065216, 0.0, 0.0, 0.0, 0.0, 7443.309717572894, 0.0]
['beep', 0.0, -81.49446028404955, 0.0, 0.0, 0.0, 0.0, 7442.437999539137, 0.0]
['beep', 0.0, -83.75198647403556, 0.0, 0.0, 0.0, 0.0, 7442.415647794682, 0.0]
['beep', 0.0, -84.28842834096294, 0.0, 0.0, 0.0, 0.0, 7443.37677280626, 0.0]
['beep', 0.0, -83.48376554057188, 0.0, 0.0, 0.0, 0.0, 7442.1921303501285, 0.0]
['beep', 0.0, -83.28259984047412, 0.0, 0.0, 0.0, 0.0, 7442.28153732795, 0.0]
['beep', 0.0, -83.64022775175903, 0.0, 0.0, 0.0, 0.0, 7442.259185583495, 0.0]
['beep', 0.0, -85.49542254154952, 0.0, 0.0, 0.0, 0.0, 7442.639165239235, 0.0]
['beep', 0.0, -85.92010568620034, 0.0, 0.0, 0.0, 0.0, 7442.303889072406, 0.0]
['beep', 0.0, -83.72963472958025, 0.0, 0.0, 0.0, 0.0, 7442.683868728146, 0.0]
['beep', 0.0, -83.95315217413332, 0.0, 0.0, 0.0, 0.0, 7442.102723372308, 0.0]
['beep', 0.0, -85.31660858590706, 0.0, 0.0, 0.0, 0.0, 7440.649859982713, 0.0]
['beep', 0.0, -86.43419580867241, 0.0, 0.0, 0.0, 0.0, 7440.85102568281, 0.0]
['beep', 0.0, -86.63536150877017, 0.0, 0.0, 0.0, 0.0, 7441.700391972112, 0.0]
['beep', 0.0, -84.91427718571153, 0.0, 0.0, 0.0, 0.0, 7442.035668138942, 0.0]
['beep', 0.0, -83.8637451963121, 0.0, 0.0, 0.0, 0.0, 7442.102723372308, 0.0]
['beep', 0.0, -84.8472219523456, 0.0, 0.0, 0.0, 0.0, 7443.041496639431, 0.0]
['beep', 0.0, -85.49542254154952, 0.0, 0.0, 0.0, 0.0, 7442.817979194878, 0.0]
['beep', 0.0, -85.56247777491544, 0.0, 0.0, 0.0, 0.0, 7442.505054772503, 0.0]
['beep', 0.0, -84.1766696186864, 0.0, 0.0, 0.0, 0.0, 7442.527406516959, 0.0]
['beep', 0.0, -84.42253880769478, 0.0, 0.0, 0.0, 0.0, 7441.186301849641, 0.0]
['beep', 0.0, -84.8472219523456, 0.0, 0.0, 0.0, 0.0, 7441.186301849641, 0.0]
['beep', 0.0, -85.96480917511096, 0.0, 0.0, 0.0, 0.0, 7440.85102568281, 0.0]
['beep', 0.0, -85.4283673081836, 0.0, 0.0, 0.0, 0.0, 7441.5439297609255, 0.0]
['beep', 0.0, -83.97550391858863, 0.0, 0.0, 0.0, 0.0, 7442.080371627852, 0.0]
['beep', 0.0, -84.19902136314171, 0.0, 0.0, 0.0, 0.0, 7440.42634253816, 0.0]
['beep', 0.0, -86.54595453094895, 0.0, 0.0, 0.0, 0.0, 7439.264051826483, 0.0]
['beep', 0.0, -86.99298942005508, 0.0, 0.0, 0.0, 0.0, 7441.186301849641, 0.0]
['beep', 0.0, -85.093091141354, 0.0, 0.0, 0.0, 0.0, 7441.231005338551, 0.0]
['beep', 0.0, -84.57900101888193, 0.0, 0.0, 0.0, 0.0, 7439.174644848663, 0.0]
['beep', 0.0, -85.51777428600482, 0.0, 0.0, 0.0, 0.0, 7439.9569559045985, 0.0]
['beep', 0.0, -128.4331236401944, 0.0, 0.0, 0.0, 0.0, 7381.417737176149, 0.0]
['beep', 0.0, -127.98608875108825, 0.0, 0.0, 0.0, 0.0, 7380.076632508831, 0.0]
['beep', 0.0, -127.5614056064374, 0.0, 0.0, 0.0, 0.0, 7379.607245875269, 0.0]
['beep', 0.0, -126.86850152832288, 0.0, 0.0, 0.0, 0.0, 7380.635426120213, 0.0]
['beep', 0.0, -127.8743300288117, 0.0, 0.0, 0.0, 0.0, 7379.204914475074, 0.0]
['beep', 0.0, -127.42729513970556, 0.0, 0.0, 0.0, 0.0, 7379.808411575367, 0.0]
['beep', 0.0, -125.48269337209385, 0.0, 0.0, 0.0, 0.0, 7382.691786610101, 0.0]
['beep', 0.0, -126.13089396129776, 0.0, 0.0, 0.0, 0.0, 7380.769536586945, 0.0]
['beep', 0.0, -124.49921661606034, 0.0, 0.0, 0.0, 0.0, 7381.194219731596, 0.0]
['beep', 0.0, -123.33692590438437, 0.0, 0.0, 0.0, 0.0, 7384.4352226776155, 0.0]
['beep', 0.0, -125.99678349456592, 0.0, 0.0, 0.0, 0.0, 7385.262237222462, 0.0]
['beep', 0.0, -127.09201897287596, 0.0, 0.0, 0.0, 0.0, 7386.26806572295, 0.0]
['beep', 0.0, -124.74508580506871, 0.0, 0.0, 0.0, 0.0, 7387.340949456805, 0.0]
['beep', 0.0, -123.89571951576706, 0.0, 0.0, 0.0, 0.0, 7387.631522134724, 0.0]
['beep', 0.0, -123.02400148201008, 0.0, 0.0, 0.0, 0.0, 7386.066900022853, 0.0]
['beep', 0.0, -124.67803057170279, 0.0, 0.0, 0.0, 0.0, 7385.798679089389, 0.0]
['beep', 0.0, -126.10854221684245, 0.0, 0.0, 0.0, 0.0, 7384.2564087219735, 0.0]
['beep', 0.0, -123.29222241547376, 0.0, 0.0, 0.0, 0.0, 7385.083423266819, 0.0]
['beep', 0.0, -124.52156836051564, 0.0, 0.0, 0.0, 0.0, 7384.994016288998, 0.0]
['beep', 0.0, -126.01913523902122, 0.0, 0.0, 0.0, 0.0, 7384.859905822266, 0.0]
['beep', 0.0, -127.04731548396535, 0.0, 0.0, 0.0, 0.0, 7386.7821558454225, 0.0]
['beep', 0.0, -127.2037776951525, 0.0, 0.0, 0.0, 0.0, 7385.239885478007, 0.0]
['beep', 0.0, -126.64498408376981, 0.0, 0.0, 0.0, 0.0, 7385.8433825782995, 0.0]
['beep', 0.0, -126.13089396129776, 0.0, 0.0, 0.0, 0.0, 7385.821030833845, 0.0]
['beep', 0.0, -126.42146663921675, 0.0, 0.0, 0.0, 0.0, 7386.558638400869, 0.0]
['beep', 0.0, -126.71203931713573, 0.0, 0.0, 0.0, 0.0, 7387.631522134724, 0.0]
['beep', 0.0, -128.56723410692624, 0.0, 0.0, 0.0, 0.0, 7384.569333144347, 0.0]
['beep', 0.0, -127.44964688416087, 0.0, 0.0, 0.0, 0.0, 7383.362338943761, 0.0]
['beep', 0.0, -126.42146663921675, 0.0, 0.0, 0.0, 0.0, 7383.027062776931, 0.0]
['beep', 0.0, -125.99678349456592, 0.0, 0.0, 0.0, 0.0, 7383.921132555143, 0.0]
['beep', 0.0, -127.65081258425863, 0.0, 0.0, 0.0, 0.0, 7384.2564087219735, 0.0]
['beep', 0.0, -127.02496373951004, 0.0, 0.0, 0.0, 0.0, 7385.329292455828, 0.0]
['beep', 0.0, -125.97443175011061, 0.0, 0.0, 0.0, 0.0, 7386.156307000674, 0.0]
['beep', 0.0, -125.3262311609067, 0.0, 0.0, 0.0, 0.0, 7386.960969801065, 0.0]
['beep', 0.0, -125.88502477228937, 0.0, 0.0, 0.0, 0.0, 7385.888086067211, 0.0]
['beep', 0.0, -126.42146663921675, 0.0, 0.0, 0.0, 0.0, 7382.8929523102, 0.0]
['beep', 0.0, -125.84032128337876, 0.0, 0.0, 0.0, 0.0, 7382.8929523102, 0.0]
['beep', 0.0, -125.43798988318323, 0.0, 0.0, 0.0, 0.0, 7382.088289509808, 0.0]
['beep', 0.0, -125.39328639427262, 0.0, 0.0, 0.0, 0.0, 7383.339987199305, 0.0]
['beep', 0.0, -124.9909549940771, 0.0, 0.0, 0.0, 0.0, 7383.65291162168, 0.0]
['beep', 0.0, -127.67316432871394, 0.0, 0.0, 0.0, 0.0, 7382.8929523102, 0.0]
['beep', 0.0, -128.32136491791783, 0.0, 0.0, 0.0, 0.0, 7383.630559877224, 0.0]
['beep', 0.0, -126.64498408376981, 0.0, 0.0, 0.0, 0.0, 7383.205876732573, 0.0]
['beep', 0.0, -126.77909455050165, 0.0, 0.0, 0.0, 0.0, 7380.9707022870425, 0.0]
['beep', 0.0, -127.76257130653516, 0.0, 0.0, 0.0, 0.0, 7382.468269165549, 0.0]
['beep', 0.0, -128.187254451186, 0.0, 0.0, 0.0, 0.0, 7382.960007543566, 0.0]
['beep', 0.0, -129.66246958523627, 0.0, 0.0, 0.0, 0.0, 7382.289455209906, 0.0]
['beep', 0.0, -129.1483794627642, 0.0, 0.0, 0.0, 0.0, 7382.602379632281, 0.0]
['beep', 0.0, -127.91903351772233, 0.0, 0.0, 0.0, 0.0, 7386.804507589878, 0.0]
['beep', 0.0, -127.27083292851842, 0.0, 0.0, 0.0, 0.0, 7387.0727285233415, 0.0]
['beep', 0.0, -129.88598702978933, 0.0, 0.0, 0.0, 0.0, 7386.536286656415, 0.0]
['beep', 0.0, -129.1036759738536, 0.0, 0.0, 0.0, 0.0, 7388.74910935749, 0.0]
['beep', 0.0, -125.86267302783406, 0.0, 0.0, 0.0, 0.0, 7389.173792502141, 0.0]
['beep', 0.0, -124.9909549940771, 0.0, 0.0, 0.0, 0.0, 7391.140746014207, 0.0]
['beep', 0.0, -124.40980963823911, 0.0, 0.0, 0.0, 0.0, 7392.370091959249, 0.0]
['beep', 0.0, -125.57210034991508, 0.0, 0.0, 0.0, 0.0, 7396.728682128034, 0.0]
['beep', 0.0, -126.39911489476144, 0.0, 0.0, 0.0, 0.0, 7397.935676328621, 0.0]
['beep', 0.0, -125.72856256110222, 0.0, 0.0, 0.0, 0.0, 7399.410891462671, 0.0]
['beep', 0.0, -123.29222241547376, 0.0, 0.0, 0.0, 0.0, 7402.473080453048, 0.0]
['beep', 0.0, -122.19698693716371, 0.0, 0.0, 0.0, 0.0, 7406.116414799263, 0.0]
['beep', 0.0, -123.98512649358828, 0.0, 0.0, 0.0, 0.0, 7411.637295679724, 0.0]
['beep', 0.0, -124.18629219368604, 0.0, 0.0, 0.0, 0.0, 7418.521632971959, 0.0]
['beep', 0.0, -121.8617107703341, 0.0, 0.0, 0.0, 0.0, 7426.6353162092355, 0.0]
['beep', 0.0, -117.4360653681833, 0.0, 0.0, 0.0, 0.0, 7437.118284358774, 0.0]
['beep', 0.0, -117.79369327946821, 0.0, 0.0, 0.0, 0.0, 7448.115342630786, 0.0]
['beep', 0.0, -117.03373396798779, 0.0, 0.0, 0.0, 0.0, 7459.693546258634, 0.0]
['beep', 0.0, -117.3913618792727, 0.0, 0.0, 0.0, 0.0, 7468.522485318481, 0.0]
['beep', 0.0, -118.77717003550173, 0.0, 0.0, 0.0, 0.0, 7479.541895334947, 0.0]
['beep', 0.0, -120.20768168064139, 0.0, 0.0, 0.0, 0.0, 7482.559380836414, 0.0]
['beep', 0.0, -122.01817298152126, 0.0, 0.0, 0.0, 0.0, 7487.230895427572, 0.0]
['beep', 0.0, -119.78299853599054, 0.0, 0.0, 0.0, 0.0, 7499.770224067, 0.0]
['beep', 0.0, -118.33013514639559, 0.0, 0.0, 0.0, 0.0, 7504.397035169249, 0.0]
['beep', 0.0, -119.13479794678665, 0.0, 0.0, 0.0, 0.0, 7505.067587502907, 0.0]
['beep', 0.0, -121.2135101811302, 0.0, 0.0, 0.0, 0.0, 7509.537936393969, 0.0]
['beep', 0.0, -121.79465553696818, 0.0, 0.0, 0.0, 0.0, 7512.778939339989, 0.0]
['beep', 0.0, -122.64402182626985, 0.0, 0.0, 0.0, 0.0, 7515.7964248414555, 0.0]
['beep', 0.0, -120.87823401430059, 0.0, 0.0, 0.0, 0.0, 7518.5009859205475, 0.0]
['beep', 0.0, -121.03469622548775, 0.0, 0.0, 0.0, 0.0, 7517.003419042042, 0.0]
['beep', 0.0, -121.2135101811302, 0.0, 0.0, 0.0, 0.0, 7516.556384152936, 0.0]
['beep', 0.0, -123.29222241547376, 0.0, 0.0, 0.0, 0.0, 7516.019942286008, 0.0]
['beep', 0.0, -124.78978929397933, 0.0, 0.0, 0.0, 0.0, 7516.466977175114, 0.0]
['beep', 0.0, -123.20281543765253, 0.0, 0.0, 0.0, 0.0, 7515.05881727443, 0.0]
['beep', 0.0, -125.41563813872793, 0.0, 0.0, 0.0, 0.0, 7513.069512017908, 0.0]
['beep', 0.0, -126.86850152832288, 0.0, 0.0, 0.0, 0.0, 7512.0413317729635, 0.0]
['beep', 0.0, -128.54488236247093, 0.0, 0.0, 0.0, 0.0, 7511.39313118376, 0.0]
['beep', 0.0, -127.8743300288117, 0.0, 0.0, 0.0, 0.0, 7510.34259919436, 0.0]
['beep', 0.0, -124.83449278288994, 0.0, 0.0, 0.0, 0.0, 7508.979142782587, 0.0]
['beep', 0.0, -123.31457415992907, 0.0, 0.0, 0.0, 0.0, 7508.2862387044715, 0.0]
['beep', 0.0, -125.81796953892345, 0.0, 0.0, 0.0, 0.0, 7506.252229959039, 0.0]
['beep', 0.0, -129.8189317964234, 0.0, 0.0, 0.0, 0.0, 7504.732311336078, 0.0]
['beep', 0.0, -129.4166003962279, 0.0, 0.0, 0.0, 0.0, 7505.291104947461, 0.0]
['beep', 0.0, -125.72856256110222, 0.0, 0.0, 0.0, 0.0, 7502.228915957084, 0.0]
['beep', 0.0, -123.4486846266609, 0.0, 0.0, 0.0, 0.0, 7498.160898466218, 0.0]
['beep', 0.0, -125.34858290536201, 0.0, 0.0, 0.0, 0.0, 7496.082186231874, 0.0]
['beep', 0.0, -127.33788816188434, 0.0, 0.0, 0.0, 0.0, 7493.3776251527825, 0.0]
['beep', 0.0, -128.88015852930053, 0.0, 0.0, 0.0, 0.0, 7491.0306919849745, 0.0]
['beep', 0.0, -125.54974860545977, 0.0, 0.0, 0.0, 0.0, 7490.628360584779, 0.0]
['beep', 0.0, -124.11923696032012, 0.0, 0.0, 0.0, 0.0, 7486.33682564936, 0.0]
['beep', 0.0, -126.19794919466368, 0.0, 0.0, 0.0, 0.0, 7483.878133759276, 0.0]
['beep', 0.0, -126.51087361703797, 0.0, 0.0, 0.0, 0.0, 7480.279502901973, 0.0]
['beep', 0.0, -131.56236786393737, 0.0, 0.0, 0.0, 0.0, 7477.284369144961, 0.0]
['beep', 0.0, -134.57985336540384, 0.0, 0.0, 0.0, 0.0, 7473.462220843104, 0.0]
['beep', 0.0, -133.68578358719154, 0.0, 0.0, 0.0, 0.0, 7470.310624874905, 0.0]
['beep', 0.0, -129.90833877424464, 0.0, 0.0, 0.0, 0.0, 7469.394203352238, 0.0]
['beep', 0.0, -130.1095044743424, 0.0, 0.0, 0.0, 0.0, 7467.807229495911, 0.0]
['beep', 0.0, -134.7810190655016, 0.0, 0.0, 0.0, 0.0, 7463.873322471777, 0.0]
['beep', 0.0, -136.25623419955184, 0.0, 0.0, 0.0, 0.0, 7461.615796281791, 0.0]
['beep', 0.0, -133.68578358719154, 0.0, 0.0, 0.0, 0.0, 7460.118229403285, 0.0]
['beep', 0.0, -130.6682980857251, 0.0, 0.0, 0.0, 0.0, 7458.307738102405, 0.0]
['beep', 0.0, -130.24361494107424, 0.0, 0.0, 0.0, 0.0, 7456.966633435087, 0.0]
['beep', 0.0, -133.2387486980854, 0.0, 0.0, 0.0, 0.0, 7453.993851422531, 0.0]
['beep', 0.0, -136.05506849945408, 0.0, 0.0, 0.0, 0.0, 7450.28346184295, 0.0]
['beep', 0.0, -137.19500746667475, 0.0, 0.0, 0.0, 0.0, 7450.641089754235, 0.0]
['beep', 0.0, -135.38451616579488, 0.0, 0.0, 0.0, 0.0, 7450.797551965422, 0.0]
['beep', 0.0, -136.993841766577, 0.0, 0.0, 0.0, 0.0, 7450.842255454333, 0.0]
['beep', 0.0, -141.01715576853226, 0.0, 0.0, 0.0, 0.0, 7449.367040320282, 0.0]
['beep', 0.0, -142.31355694694008, 0.0, 0.0, 0.0, 0.0, 7447.780066463955, 0.0]
['beep', 0.0, -140.05603075695404, 0.0, 0.0, 0.0, 0.0, 7448.249453097517, 0.0]
['beep', 0.0, -140.14543773477527, 0.0, 0.0, 0.0, 0.0, 7447.400086808216, 0.0]
['beep', 0.0, -141.97828078011045, 0.0, 0.0, 0.0, 0.0, 7448.249453097517, 0.0]
['beep', 0.0, -141.4418389131831, 0.0, 0.0, 0.0, 0.0, 7450.261110098495, 0.0]
['beep', 0.0, -141.73241159110208, 0.0, 0.0, 0.0, 0.0, 7450.954014176609, 0.0]
['beep', 0.0, -143.3640889363395, 0.0, 0.0, 0.0, 0.0, 7451.7586769770005, 0.0]
['beep', 0.0, -143.43114416970542, 0.0, 0.0, 0.0, 0.0, 7452.205711866107, 0.0]
['beep', 0.0, -144.07934475890931, 0.0, 0.0, 0.0, 0.0, 7452.004546166008, 0.0]
['beep', 0.0, -143.96758603663278, 0.0, 0.0, 0.0, 0.0, 7453.703278744612, 0.0]
['beep', 0.0, -143.85582731435625, 0.0, 0.0, 0.0, 0.0, 7454.150313633718, 0.0]
['beep', 0.0, -143.58760638089257, 0.0, 0.0, 0.0, 0.0, 7452.853912455311, 0.0]
['beep', 0.0, -144.74989709256855, 0.0, 0.0, 0.0, 0.0, 7452.988022922043, 0.0]
['beep', 0.0, -145.5545598929596, 0.0, 0.0, 0.0, 0.0, 7454.418534567182, 0.0]
['beep', 0.0, -147.56621689393722, 0.0, 0.0, 0.0, 0.0, 7453.90444444471, 0.0]
['beep', 0.0, -151.2542547290629, 0.0, 0.0, 0.0, 0.0, 7453.569168277881, 0.0]
['beep', 0.0, -147.94619654967744, 0.0, 0.0, 0.0, 0.0, 7455.6925840011345, 0.0]
['beep', 0.0, -143.58760638089257, 0.0, 0.0, 0.0, 0.0, 7458.28538635795, 0.0]
['beep', 0.0, -144.83930407038977, 0.0, 0.0, 0.0, 0.0, 7458.017165424486, 0.0]
['beep', 0.0, -146.69449886018026, 0.0, 0.0, 0.0, 0.0, 7459.022993924975, 0.0]
['beep', 0.0, -148.25912097205173, 0.0, 0.0, 0.0, 0.0, 7459.268863113984, 0.0]
['beep', 0.0, -148.97437679462158, 0.0, 0.0, 0.0, 0.0, 7461.615796281791, 0.0]
['beep', 0.0, -146.4486296711719, 0.0, 0.0, 0.0, 0.0, 7463.113363160296, 0.0]
['beep', 0.0, -145.5992633818702, 0.0, 0.0, 0.0, 0.0, 7464.119191660785, 0.0]
['beep', 0.0, -147.29799596047354, 0.0, 0.0, 0.0, 0.0, 7463.3815840937605, 0.0]
['beep', 0.0, -147.67797561621376, 0.0, 0.0, 0.0, 0.0, 7463.158066649207, 0.0]
['beep', 0.0, -146.00159478206572, 0.0, 0.0, 0.0, 0.0, 7464.85679922781, 0.0]
['beep', 0.0, -148.25912097205173, 0.0, 0.0, 0.0, 0.0, 7468.231912640562, 0.0]
['beep', 0.0, -150.606054139859, 0.0, 0.0, 0.0, 0.0, 7467.293139373439, 0.0]
['beep', 0.0, -151.14249600678636, 0.0, 0.0, 0.0, 0.0, 7465.57205505038, 0.0]
['beep', 0.0, -146.89566456027802, 0.0, 0.0, 0.0, 0.0, 7467.874284729277, 0.0]
['beep', 0.0, -143.31938544742889, 0.0, 0.0, 0.0, 0.0, 7471.7187847755895, 0.0]
['beep', 0.0, -144.41462092573894, 0.0, 0.0, 0.0, 0.0, 7472.8140202539, 0.0]
['beep', 0.0, -144.41462092573894, 0.0, 0.0, 0.0, 0.0, 7470.087107430352, 0.0]
['beep', 0.0, -143.90053080326686, 0.0, 0.0, 0.0, 0.0, 7469.371851607782, 0.0]
['beep', 0.0, -144.72754534811324, 0.0, 0.0, 0.0, 0.0, 7471.204694653117, 0.0]
['beep', 0.0, -144.70519360365793, 0.0, 0.0, 0.0, 0.0, 7470.847066741832, 0.0]
['beep', 0.0, -144.07934475890931, 0.0, 0.0, 0.0, 0.0, 7470.221217897084, 0.0]
['beep', 0.0, -140.97245227962165, 0.0, 0.0, 0.0, 0.0, 7471.852895242321, 0.0]
['beep', 0.0, -139.6089958678479, 0.0, 0.0, 0.0, 0.0, 7472.389337109249, 0.0]
['beep', 0.0, -141.35243193536186, 0.0, 0.0, 0.0, 0.0, 7472.344633620338, 0.0]
['beep', 0.0, -143.25233021406297, 0.0, 0.0, 0.0, 0.0, 7472.992834209542, 0.0]
['beep', 0.0, -142.6935366026803, 0.0, 0.0, 0.0, 0.0, 7472.635206298257, 0.0]
['beep', 0.0, -139.49723714557138, 0.0, 0.0, 0.0, 0.0, 7472.456392342615, 0.0]
['beep', 0.0, -138.24553945607417, 0.0, 0.0, 0.0, 0.0, 7475.160953421707, 0.0]
['beep', 0.0, -140.41365866823898, 0.0, 0.0, 0.0, 0.0, 7475.675043544179, 0.0]
['beep', 0.0, -143.18527498069705, 0.0, 0.0, 0.0, 0.0, 7474.468049343593, 0.0]
['beep', 0.0, -139.00549876755463, 0.0, 0.0, 0.0, 0.0, 7476.457354600115, 0.0]
['beep', 0.0, -134.98218476559936, 0.0, 0.0, 0.0, 0.0, 7478.893694745743, 0.0]
['beep', 0.0, -137.23971095558537, 0.0, 0.0, 0.0, 0.0, 7479.6983575461345, 0.0]
['beep', 0.0, -139.00549876755463, 0.0, 0.0, 0.0, 0.0, 7479.184267423662, 0.0]
['beep', 0.0, -138.51376038953788, 0.0, 0.0, 0.0, 0.0, 7479.8771715017765, 0.0]
['beep', 0.0, -137.0161935110323, 0.0, 0.0, 0.0, 0.0, 7478.580770323369, 0.0]
['beep', 0.0, -134.13281847629767, 0.0, 0.0, 0.0, 0.0, 7480.86064825781, 0.0]
['beep', 0.0, -132.05410624195412, 0.0, 0.0, 0.0, 0.0, 7482.760546536511, 0.0]
['beep', 0.0, -133.08228648689825, 0.0, 0.0, 0.0, 0.0, 7480.748889535534, 0.0]
['beep', 0.0, -132.36703066432844, 0.0, 0.0, 0.0, 0.0, 7479.854819757322, 0.0]
['beep', 0.0, -132.74701032006865, 0.0, 0.0, 0.0, 0.0, 7480.681834302168, 0.0]
['beep', 0.0, -132.67995508670273, 0.0, 0.0, 0.0, 0.0, 7481.642959313746, 0.0]
['beep', 0.0, -132.8811207868005, 0.0, 0.0, 0.0, 0.0, 7483.1628779367065, 0.0]
['beep', 0.0, -130.73535331909102, 0.0, 0.0, 0.0, 0.0, 7483.319340147894, 0.0]
['beep', 0.0, -130.3777254078061, 0.0, 0.0, 0.0, 0.0, 7483.274636658984, 0.0]
['beep', 0.0, -130.73535331909102, 0.0, 0.0, 0.0, 0.0, 7483.185229681162, 0.0]
['beep', 0.0, -133.10463823135356, 0.0, 0.0, 0.0, 0.0, 7483.229933170072, 0.0]
['beep', 0.0, -131.89764403076697, 0.0, 0.0, 0.0, 0.0, 7483.878133759276, 0.0]
['beep', 0.0, -128.92486201821114, 0.0, 0.0, 0.0, 0.0, 7485.174534937684, 0.0]
['beep', 0.0, -128.92486201821114, 0.0, 0.0, 0.0, 0.0, 7485.353348893327, 0.0]
['beep', 0.0, -132.47878938660497, 0.0, 0.0, 0.0, 0.0, 7482.425270369682, 0.0]
['beep', 0.0, -134.57985336540384, 0.0, 0.0, 0.0, 0.0, 7480.10068894633, 0.0]
['beep', 0.0, -132.0317544974988, 0.0, 0.0, 0.0, 0.0, 7481.844125013844, 0.0]
['beep', 0.0, -128.4331236401944, 0.0, 0.0, 0.0, 0.0, 7483.609912825813, 0.0]
['beep', 0.0, -129.7742283075128, 0.0, 0.0, 0.0, 0.0, 7484.727500048578, 0.0]
['beep', 0.0, -129.99774575206587, 0.0, 0.0, 0.0, 0.0, 7484.503982604026, 0.0]
['beep', 0.0, -126.64498408376981, 0.0, 0.0, 0.0, 0.0, 7487.320302405394, 0.0]
['beep', 0.0, -124.92389976071118, 0.0, 0.0, 0.0, 0.0, 7489.823697784388, 0.0]
['beep', 0.0, -125.639155583281, 0.0, 0.0, 0.0, 0.0, 7490.136622206763, 0.0]
['beep', 0.0, -127.18142595069719, 0.0, 0.0, 0.0, 0.0, 7488.7955175394445, 0.0]
['beep', 0.0, -126.33205966139552, 0.0, 0.0, 0.0, 0.0, 7489.421366384193, 0.0]
['beep', 0.0, -126.24265268357429, 0.0, 0.0, 0.0, 0.0, 7489.890753017754, 0.0]
['beep', 0.0, -124.9686032496218, 0.0, 0.0, 0.0, 0.0, 7492.304741418928, 0.0]
['beep', 0.0, -123.1134084598313, 0.0, 0.0, 0.0, 0.0, 7494.003473997531, 0.0]
['beep', 0.0, -120.16297819173077, 0.0, 0.0, 0.0, 0.0, 7492.170630952196, 0.0]
['beep', 0.0, -120.85588226984528, 0.0, 0.0, 0.0, 0.0, 7489.689587317656, 0.0]
['beep', 0.0, -122.77813229300169, 0.0, 0.0, 0.0, 0.0, 7494.1375844642625, 0.0]
['beep', 0.0, -124.0298299824989, 0.0, 0.0, 0.0, 0.0, 7498.0714914883965, 0.0]
['beep', 0.0, -125.37093464981731, 0.0, 0.0, 0.0, 0.0, 7496.238648443062, 0.0]
['beep', 0.0, -122.17463519270841, 0.0, 0.0, 0.0, 0.0, 7496.439814143159, 0.0]
['beep', 0.0, -118.50894910203804, 0.0, 0.0, 0.0, 0.0, 7498.384415910771, 0.0]
['beep', 0.0, -120.11827470282016, 0.0, 0.0, 0.0, 0.0, 7497.982084510575, 0.0]
['beep', 0.0, -122.95694624864416, 0.0, 0.0, 0.0, 0.0, 7499.591410111358, 0.0]
['beep', 0.0, -124.58862359388156, 0.0, 0.0, 0.0, 0.0, 7500.552535122935, 0.0]
['beep', 0.0, -125.75091430555753, 0.0, 0.0, 0.0, 0.0, 7500.306665933927, 0.0]
['beep', 0.0, -124.47686487160503, 0.0, 0.0, 0.0, 0.0, 7501.312494434416, 0.0]
['beep', 0.0, -122.66637357072516, 0.0, 0.0, 0.0, 0.0, 7504.039407257964, 0.0]
['beep', 0.0, -123.02400148201008, 0.0, 0.0, 0.0, 0.0, 7504.955828780631, 0.0]
['beep', 0.0, -121.68289681469165, 0.0, 0.0, 0.0, 0.0, 7504.441738658159, 0.0]
['beep', 0.0, -118.33013514639559, 0.0, 0.0, 0.0, 0.0, 7505.134642736273, 0.0]
['beep', 0.0, -119.60418458034809, 0.0, 0.0, 0.0, 0.0, 7506.140471236762, 0.0]
['beep', 0.0, -121.34762064786204, 0.0, 0.0, 0.0, 0.0, 7505.179346225184, 0.0]
['beep', 0.0, -123.04635322646538, 0.0, 0.0, 0.0, 0.0, 7505.112290991819, 0.0]
['beep', 0.0, -123.33692590438437, 0.0, 0.0, 0.0, 0.0, 7505.671084603201, 0.0]
['beep', 0.0, -122.4652078706274, 0.0, 0.0, 0.0, 0.0, 7507.369817181804, 0.0]
['beep', 0.0, -121.30291715895143, 0.0, 0.0, 0.0, 0.0, 7507.235706715072, 0.0]
['beep', 0.0, -121.74995204805757, 0.0, 0.0, 0.0, 0.0, 7506.475747403592, 0.0]
['beep', 0.0, -121.39232413677266, 0.0, 0.0, 0.0, 0.0, 7506.811023570422, 0.0]
['beep', 0.0, -122.08522821488718, 0.0, 0.0, 0.0, 0.0, 7505.805195069933, 0.0]
['beep', 0.0, -122.30874565944025, 0.0, 0.0, 0.0, 0.0, 7506.811023570422, 0.0]
['beep', 0.0, -120.11827470282016, 0.0, 0.0, 0.0, 0.0, 7506.073416003396, 0.0]
['beep', 0.0, -118.0172107240213, 0.0, 0.0, 0.0, 0.0, 7507.034541014975, 0.0]
['beep', 0.0, -117.7266380461023, 0.0, 0.0, 0.0, 0.0, 7507.213354970617, 0.0]
['beep', 0.0, -120.54295784747099, 0.0, 0.0, 0.0, 0.0, 7508.86738406031, 0.0]
['beep', 0.0, -120.78882703647936, 0.0, 0.0, 0.0, 0.0, 7510.409654427726, 0.0]
['beep', 0.0, -119.80535028044585, 0.0, 0.0, 0.0, 0.0, 7510.364950938815, 0.0]
['beep', 0.0, -120.31944040291792, 0.0, 0.0, 0.0, 0.0, 7512.443663173159, 0.0]
['beep', 0.0, -120.2747369140073, 0.0, 0.0, 0.0, 0.0, 7515.885831819276, 0.0]
['beep', 0.0, -119.49242585807156, 0.0, 0.0, 0.0, 0.0, 7515.9752387970975, 0.0]
['beep', 0.0, -118.0395624684766, 0.0, 0.0, 0.0, 0.0, 7514.5670788964135, 0.0]
['beep', 0.0, -117.1007892013537, 0.0, 0.0, 0.0, 0.0, 7515.014113785519, 0.0]
['beep', 0.0, -117.05608571244309, 0.0, 0.0, 0.0, 0.0, 7514.67883761869, 0.0]
['beep', 0.0, -116.43023686769449, 0.0, 0.0, 0.0, 0.0, 7515.416445185715, 0.0]
['beep', 0.0, -117.77134153501291, 0.0, 0.0, 0.0, 0.0, 7513.985933540575, 0.0]
['beep', 0.0, -116.7878647789794, 0.0, 0.0, 0.0, 0.0, 7515.148224252252, 0.0]
['beep', 0.0, -115.58087057839282, 0.0, 0.0, 0.0, 0.0, 7514.7458928520555, 0.0]
['beep', 0.0, -116.16201593423081, 0.0, 0.0, 0.0, 0.0, 7514.500023663048, 0.0]
['beep', 0.0, -115.55851883393751, 0.0, 0.0, 0.0, 0.0, 7517.070474275408, 0.0]
['beep', 0.0, -115.58087057839282, 0.0, 0.0, 0.0, 0.0, 7515.751721352544, 0.0]
['beep', 0.0, -117.23489966808555, 0.0, 0.0, 0.0, 0.0, 7514.34356145186, 0.0]
['beep', 0.0, -114.70915254463584, 0.0, 0.0, 0.0, 0.0, 7514.723541107601, 0.0]
['beep', 0.0, -112.85395775484535, 0.0, 0.0, 0.0, 0.0, 7514.231802729583, 0.0]
['beep', 0.0, -114.70915254463584, 0.0, 0.0, 0.0, 0.0, 7514.298857962949, 0.0]
['beep', 0.0, -113.77037927751294, 0.0, 0.0, 0.0, 0.0, 7515.707017863634, 0.0]
['beep', 0.0, -111.33403913188448, 0.0, 0.0, 0.0, 0.0, 7516.198756241651, 0.0]
['beep', 0.0, -108.38360886378395, 0.0, 0.0, 0.0, 0.0, 7515.394093441259, 0.0]
['beep', 0.0, -110.55172807594873, 0.0, 0.0, 0.0, 0.0, 7514.835299829877, 0.0]
['beep', 0.0, -111.57990832089286, 0.0, 0.0, 0.0, 0.0, 7514.991762041064, 0.0]
['beep', 0.0, -111.13287343178672, 0.0, 0.0, 0.0, 0.0, 7517.942192309165, 0.0]
['beep', 0.0, -110.17174842020852, 0.0, 0.0, 0.0, 0.0, 7516.53403240848, 0.0]
['beep', 0.0, -107.9589257191331, 0.0, 0.0, 0.0, 0.0, 7516.422273686204, 0.0]
['beep', 0.0, -109.79176876446829, 0.0, 0.0, 0.0, 0.0, 7517.919840564709, 0.0]
['beep', 0.0, -113.59156532187049, 0.0, 0.0, 0.0, 0.0, 7518.769206854011, 0.0]
['beep', 0.0, -112.0045914655437, 0.0, 0.0, 0.0, 0.0, 7520.423235943704, 0.0]
['beep', 0.0, -109.23297515308562, 0.0, 0.0, 0.0, 0.0, 7521.652581888746, 0.0]
['beep', 0.0, -107.46718734111636, 0.0, 0.0, 0.0, 0.0, 7522.703113878145, 0.0]
['beep', 0.0, -106.70722802963591, 0.0, 0.0, 0.0, 0.0, 7523.552480167446, 0.0]
['beep', 0.0, -108.11538793032027, 0.0, 0.0, 0.0, 0.0, 7523.641887145268, 0.0]
['beep', 0.0, -110.68583854268057, 0.0, 0.0, 0.0, 0.0, 7524.982991812586, 0.0]
['beep', 0.0, -107.66835304121412, 0.0, 0.0, 0.0, 0.0, 7526.1899860131725, 0.0]
['beep', 0.0, -104.51675707301582, 0.0, 0.0, 0.0, 0.0, 7526.972297069108, 0.0]
['beep', 0.0, -105.14260591776443, 0.0, 0.0, 0.0, 0.0, 7529.341581981371, 0.0]
['beep', 0.0, -107.10955942983145, 0.0, 0.0, 0.0, 0.0, 7529.051009303452, 0.0]
['beep', 0.0, -106.88604198527837, 0.0, 0.0, 0.0, 0.0, 7528.469863947615, 0.0]
['beep', 0.0, -110.57407982040404, 0.0, 0.0, 0.0, 0.0, 7528.246346503061, 0.0]
['beep', 0.0, -113.59156532187049, 0.0, 0.0, 0.0, 0.0, 7527.173462769207, 0.0]
['beep', 0.0, -110.61878330931465, 0.0, 0.0, 0.0, 0.0, 7527.240518002573, 0.0]
['beep', 0.0, -108.04833269695435, 0.0, 0.0, 0.0, 0.0, 7528.045180802964, 0.0]
['beep', 0.0, -106.70722802963591, 0.0, 0.0, 0.0, 0.0, 7528.089884291874, 0.0]
['beep', 0.0, -108.13773967477557, 0.0, 0.0, 0.0, 0.0, 7525.050047045952, 0.0]
['beep', 0.0, -112.13870193227554, 0.0, 0.0, 0.0, 0.0, 7523.44072144517, 0.0]
['beep', 0.0, -110.30585888694036, 0.0, 0.0, 0.0, 0.0, 7522.39018945577, 0.0]
['beep', 0.0, -109.05416119744316, 0.0, 0.0, 0.0, 0.0, 7523.351314467349, 0.0]
['beep', 0.0, -108.5400710749711, 0.0, 0.0, 0.0, 0.0, 7525.63119240179, 0.0]
['beep', 0.0, -109.32238213090685, 0.0, 0.0, 0.0, 0.0, 7526.234689502084, 0.0]
['beep', 0.0, -108.65182979724763, 0.0, 0.0, 0.0, 0.0, 7526.391151713271, 0.0]
['beep', 0.0, -110.26115539802974, 0.0, 0.0, 0.0, 0.0, 7527.508738936036, 0.0]
['beep', 0.0, -111.26698389851856, 0.0, 0.0, 0.0, 0.0, 7529.095712792363, 0.0]
['beep', 0.0, -108.67418154170294, 0.0, 0.0, 0.0, 0.0, 7528.7157331366225, 0.0]
['beep', 0.0, -106.93074547418898, 0.0, 0.0, 0.0, 0.0, 7528.671029647712, 0.0]
['beep', 0.0, -106.08137918488733, 0.0, 0.0, 0.0, 0.0, 7530.101541292852, 0.0]
['beep', 0.0, -106.26019314052978, 0.0, 0.0, 0.0, 0.0, 7529.989782570575, 0.0]
['beep', 0.0, -106.84133849636775, 0.0, 0.0, 0.0, 0.0, 7530.414465715226, 0.0]
['beep', 0.0, -109.68001004219175, 0.0, 0.0, 0.0, 0.0, 7531.509701193536, 0.0]
['beep', 0.0, -112.04929495445431, 0.0, 0.0, 0.0, 0.0, 7531.464997704626, 0.0]
['beep', 0.0, -114.15035893325317, 0.0, 0.0, 0.0, 0.0, 7530.258003504039, 0.0]
['beep', 0.0, -111.46814959861632, 0.0, 0.0, 0.0, 0.0, 7531.844977360365, 0.0]
['beep', 0.0, -107.15426291874206, 0.0, 0.0, 0.0, 0.0, 7536.181215784695, 0.0]
['beep', 0.0, -107.91422223022249, 0.0, 0.0, 0.0, 0.0, 7537.187044285184, 0.0]
['beep', 0.0, -110.97641122059957, 0.0, 0.0, 0.0, 0.0, 7533.655468661245, 0.0]
['beep', 0.0, -112.026943209999, 0.0, 0.0, 0.0, 0.0, 7533.901337850254, 0.0]
['beep', 0.0, -111.28933564297387, 0.0, 0.0, 0.0, 0.0, 7534.504834950547, 0.0]
['beep', 0.0, -111.51285308752693, 0.0, 0.0, 0.0, 0.0, 7535.421256473215, 0.0]
['beep', 0.0, -113.50215834404926, 0.0, 0.0, 0.0, 0.0, 7536.292974506971, 0.0]
['beep', 0.0, -113.18923392167497, 0.0, 0.0, 0.0, 0.0, 7536.471788462614, 0.0]
['beep', 0.0, -108.94240247516662, 0.0, 0.0, 0.0, 0.0, 7537.477616963103, 0.0]
['beep', 0.0, -108.94240247516662, 0.0, 0.0, 0.0, 0.0, 7539.8692536198205, 0.0]
['beep', 0.0, -113.88213799978948, 0.0, 0.0, 0.0, 0.0, 7538.997535586064, 0.0]
['beep', 0.0, -117.59252757937045, 0.0, 0.0, 0.0, 0.0, 7538.528148952502, 0.0]
['beep', 0.0, -115.58087057839282, 0.0, 0.0, 0.0, 0.0, 7538.505797208047, 0.0]
['beep', 0.0, -113.77037927751294, 0.0, 0.0, 0.0, 0.0, 7540.249233275561, 0.0]
['beep', 0.0, -113.23393741058558, 0.0, 0.0, 0.0, 0.0, 7544.406657744248, 0.0]
['beep', 0.0, -112.18340542118615, 0.0, 0.0, 0.0, 0.0, 7544.294899021972, 0.0]
['beep', 0.0, -114.48563510008277, 0.0, 0.0, 0.0, 0.0, 7542.126779809807, 0.0]
['beep', 0.0, -114.10565544434256, 0.0, 0.0, 0.0, 0.0, 7543.691401921678, 0.0]
['beep', 0.0, -110.95405947614425, 0.0, 0.0, 0.0, 0.0, 7544.049029832963, 0.0]
['beep', 0.0, -110.93170773168895, 0.0, 0.0, 0.0, 0.0, 7544.674878677712, 0.0]
['beep', 0.0, -112.27281239900738, 0.0, 0.0, 0.0, 0.0, 7546.6194804453235, 0.0]
['beep', 0.0, -113.41275136622804, 0.0, 0.0, 0.0, 0.0, 7546.194797300673, 0.0]
['beep', 0.0, -114.575042077904, 0.0, 0.0, 0.0, 0.0, 7545.703058922656, 0.0]
['beep', 0.0, -114.64209731126992, 0.0, 0.0, 0.0, 0.0, 7544.876044377809, 0.0]
['beep', 0.0, -114.70915254463584, 0.0, 0.0, 0.0, 0.0, 7545.63600368929, 0.0]
['beep', 0.0, -112.71984728811351, 0.0, 0.0, 0.0, 0.0, 7548.608785701846, 0.0]
['beep', 0.0, -114.75385603354646, 0.0, 0.0, 0.0, 0.0, 7547.670012434723, 0.0]
['beep', 0.0, -114.68680080018054, 0.0, 0.0, 0.0, 0.0, 7546.261852534039, 0.0]
['beep', 0.0, -112.31751588791799, 0.0, 0.0, 0.0, 0.0, 7546.597128700868, 0.0]
['beep', 0.0, -112.3398676323733, 0.0, 0.0, 0.0, 0.0, 7547.021811845519, 0.0]
['beep', 0.0, -113.68097229969172, 0.0, 0.0, 0.0, 0.0, 7545.457189733647, 0.0]
['beep', 0.0, -114.68680080018054, 0.0, 0.0, 0.0, 0.0, 7544.451361233158, 0.0]
['beep', 0.0, -113.94919323315541, 0.0, 0.0, 0.0, 0.0, 7545.658355433746, 0.0]
['beep', 0.0, -113.79273102196825, 0.0, 0.0, 0.0, 0.0, 7544.384305999793, 0.0]
['beep', 0.0, -113.99389672206603, 0.0, 0.0, 0.0, 0.0, 7544.071381577419, 0.0]
['beep', 0.0, -110.90935598723364, 0.0, 0.0, 0.0, 0.0, 7546.753590912055, 0.0]
['beep', 0.0, -110.1270449312979, 0.0, 0.0, 0.0, 0.0, 7546.574776956413, 0.0]
['beep', 0.0, -111.84812925435654, 0.0, 0.0, 0.0, 0.0, 7547.357088012349, 0.0]
['beep', 0.0, -112.71984728811351, 0.0, 0.0, 0.0, 0.0, 7549.547558968969, 0.0]
['beep', 0.0, -115.08913220037607, 0.0, 0.0, 0.0, 0.0, 7549.7263729246115, 0.0]
['beep', 0.0, -117.36901013481739, 0.0, 0.0, 0.0, 0.0, 7550.151056069262, 0.0]
['beep', 0.0, -117.99485897956599, 0.0, 0.0, 0.0, 0.0, 7551.44745724767, 0.0]
['beep', 0.0, -116.20671942314142, 0.0, 0.0, 0.0, 0.0, 7554.464942749137, 0.0]
['beep', 0.0, -114.17271067770848, 0.0, 0.0, 0.0, 0.0, 7555.202550316161, 0.0]
['beep', 0.0, -113.88213799978948, 0.0, 0.0, 0.0, 0.0, 7553.436762504192, 0.0]
['beep', 0.0, -115.02207696701015, 0.0, 0.0, 0.0, 0.0, 7555.359012527349, 0.0]
['beep', 0.0, -116.51964384551572, 0.0, 0.0, 0.0, 0.0, 7557.236559061595, 0.0]
['beep', 0.0, -115.89379500076711, 0.0, 0.0, 0.0, 0.0, 7556.856579405854, 0.0]
['beep', 0.0, -115.33500138938444, 0.0, 0.0, 0.0, 0.0, 7552.945024126176, 0.0]
['beep', 0.0, -116.69845780115817, 0.0, 0.0, 0.0, 0.0, 7553.079134592907, 0.0]
['beep', 0.0, -117.50312060154923, 0.0, 0.0, 0.0, 0.0, 7555.627233460812, 0.0]
['beep', 0.0, -116.16201593423081, 0.0, 0.0, 0.0, 0.0, 7553.995556115575, 0.0]
['beep', 0.0, -116.27377465650734, 0.0, 0.0, 0.0, 0.0, 7553.0120793595415, 0.0]
['beep', 0.0, -115.33500138938444, 0.0, 0.0, 0.0, 0.0, 7553.749686926567, 0.0]
['beep', 0.0, -117.7266380461023, 0.0, 0.0, 0.0, 0.0, 7554.956681127153, 0.0]
['beep', 0.0, -121.79465553696818, 0.0, 0.0, 0.0, 0.0, 7553.615576459834, 0.0]
['beep', 0.0, -124.7227340606134, 0.0, 0.0, 0.0, 0.0, 7552.2521200480605, 0.0]
['beep', 0.0, -121.03469622548775, 0.0, 0.0, 0.0, 0.0, 7552.16271307024, 0.0]
['beep', 0.0, -115.31264964492914, 0.0, 0.0, 0.0, 0.0, 7553.615576459834, 0.0]
['beep', 0.0, -114.28446939998501, 0.0, 0.0, 0.0, 0.0, 7554.911977638242, 0.0]
['beep', 0.0, -119.33596364688441, 0.0, 0.0, 0.0, 0.0, 7556.230730561106, 0.0]
['beep', 0.0, -123.18046369319723, 0.0, 0.0, 0.0, 0.0, 7555.7166404386335, 0.0]
['beep', 0.0, -122.66637357072516, 0.0, 0.0, 0.0, 0.0, 7554.7331636826, 0.0]
['beep', 0.0, -119.55948109143748, 0.0, 0.0, 0.0, 0.0, 7556.141323583284, 0.0]
['beep', 0.0, -119.47007411361625, 0.0, 0.0, 0.0, 0.0, 7556.87893115031, 0.0]
['beep', 0.0, -124.18629219368604, 0.0, 0.0, 0.0, 0.0, 7557.057745105952, 0.0]
['beep', 0.0, -126.48852187258267, 0.0, 0.0, 0.0, 0.0, 7556.364841027837, 0.0]
['beep', 0.0, -122.1299317037978, 0.0, 0.0, 0.0, 0.0, 7557.728297439611, 0.0]
['beep', 0.0, -122.57696659290393, 0.0, 0.0, 0.0, 0.0, 7558.644718962279, 0.0]
['beep', 0.0, -125.41563813872793, 0.0, 0.0, 0.0, 0.0, 7558.242387562083, 0.0]
['beep', 0.0, -124.81214103843463, 0.0, 0.0, 0.0, 0.0, 7561.773963186021, 0.0]
['beep', 0.0, -118.86657701332295, 0.0, 0.0, 0.0, 0.0, 7566.646643477278, 0.0]
['beep', 0.0, -116.49729210106041, 0.0, 0.0, 0.0, 0.0, 7566.154905099262, 0.0]
['beep', 0.0, -119.3136119024291, 0.0, 0.0, 0.0, 0.0, 7564.746745198578, 0.0]
['beep', 0.0, -121.99582123706595, 0.0, 0.0, 0.0, 0.0, 7565.529056254513, 0.0]
['beep', 0.0, -123.40398113775029, 0.0, 0.0, 0.0, 0.0, 7567.6301202333125, 0.0]
['beep', 0.0, -124.7227340606134, 0.0, 0.0, 0.0, 0.0, 7566.959567899653, 0.0]
['beep', 0.0, -123.96277474913298, 0.0, 0.0, 0.0, 0.0, 7566.378422543815, 0.0]
['beep', 0.0, -122.04052472597657, 0.0, 0.0, 0.0, 0.0, 7565.037317876497, 0.0]
['beep', 0.0, -119.38066713579502, 0.0, 0.0, 0.0, 0.0, 7567.205437088662, 0.0]
['beep', 0.0, -120.67706831420283, 0.0, 0.0, 0.0, 0.0, 7568.323024311427, 0.0]
['beep', 0.0, -122.39815263726148, 0.0, 0.0, 0.0, 0.0, 7566.758402199555, 0.0]
['beep', 0.0, -123.091056715376, 0.0, 0.0, 0.0, 0.0, 7566.490181266092, 0.0]
['beep', 0.0, -123.26987067101845, 0.0, 0.0, 0.0, 0.0, 7564.255006820561, 0.0]
['beep', 0.0, -122.30874565944025, 0.0, 0.0, 0.0, 0.0, 7565.1043731098625, 0.0]
['beep', 0.0, -123.091056715376, 0.0, 0.0, 0.0, 0.0, 7564.232655076105, 0.0]
['beep', 0.0, -122.59931833735924, 0.0, 0.0, 0.0, 0.0, 7563.919730653732, 0.0]
['beep', 0.0, -122.95694624864416, 0.0, 0.0, 0.0, 0.0, 7564.1655998427395, 0.0]
['beep', 0.0, -122.66637357072516, 0.0, 0.0, 0.0, 0.0, 7565.238483576594, 0.0]
['beep', 0.0, -121.57113809241511, 0.0, 0.0, 0.0, 0.0, 7567.9206929112315, 0.0]
['beep', 0.0, -119.76064679153524, 0.0, 0.0, 0.0, 0.0, 7568.948873156175, 0.0]
['beep', 0.0, -118.50894910203804, 0.0, 0.0, 0.0, 0.0, 7570.334681312404, 0.0]
['beep', 0.0, -118.28543165748498, 0.0, 0.0, 0.0, 0.0, 7570.7370127126, 0.0]
['beep', 0.0, -120.23003342509669, 0.0, 0.0, 0.0, 0.0, 7571.541675512991, 0.0]
['beep', 0.0, -120.78882703647936, 0.0, 0.0, 0.0, 0.0, 7572.838076691399, 0.0]
['beep', 0.0, -123.98512649358828, 0.0, 0.0, 0.0, 0.0, 7572.905131924765, 0.0]
['beep', 0.0, -125.03565848298771, 0.0, 0.0, 0.0, 0.0, 7573.083945880408, 0.0]
['beep', 0.0, -122.4652078706274, 0.0, 0.0, 0.0, 0.0, 7575.095602881384, 0.0]
['beep', 0.0, -119.9171090027224, 0.0, 0.0, 0.0, 0.0, 7575.095602881384, 0.0]
['beep', 0.0, -119.06774271342073, 0.0, 0.0, 0.0, 0.0, 7575.587341259402, 0.0]
['beep', 0.0, -120.23003342509669, 0.0, 0.0, 0.0, 0.0, 7577.308425582461, 0.0]
['beep', 0.0, -123.02400148201008, 0.0, 0.0, 0.0, 0.0, 7577.889570938298, 0.0]
['beep', 0.0, -124.29805091596258, 0.0, 0.0, 0.0, 0.0, 7574.670919736734, 0.0]
['beep', 0.0, -122.37580089280617, 0.0, 0.0, 0.0, 0.0, 7574.693271481189, 0.0]
['beep', 0.0, -120.5653095919263, 0.0, 0.0, 0.0, 0.0, 7577.934274427209, 0.0]
['beep', 0.0, -119.3136119024291, 0.0, 0.0, 0.0, 0.0, 7578.336605827404, 0.0]
['beep', 0.0, -119.09009445787603, 0.0, 0.0, 0.0, 0.0, 7578.560123271957, 0.0]
['beep', 0.0, -120.74412354756875, 0.0, 0.0, 0.0, 0.0, 7579.878876194821, 0.0]
['beep', 0.0, -120.02886772499893, 0.0, 0.0, 0.0, 0.0, 7580.348262828382, 0.0]
['beep', 0.0, -121.16880669221959, 0.0, 0.0, 0.0, 0.0, 7578.448364549681, 0.0]
['beep', 0.0, -123.22516718210784, 0.0, 0.0, 0.0, 0.0, 7578.40366106077, 0.0]
['beep', 0.0, -122.57696659290393, 0.0, 0.0, 0.0, 0.0, 7580.124745383829, 0.0]
['beep', 0.0, -121.07939971439836, 0.0, 0.0, 0.0, 0.0, 7580.1918006171945, 0.0]
['beep', 0.0, -120.5876613363816, 0.0, 0.0, 0.0, 0.0, 7580.728242484122, 0.0]
['beep', 0.0, -119.78299853599054, 0.0, 0.0, 0.0, 0.0, 7579.9012279392755, 0.0]
['beep', 0.0, -117.48076885709392, 0.0, 0.0, 0.0, 0.0, 7583.231637863117, 0.0]
['beep', 0.0, -113.99389672206603, 0.0, 0.0, 0.0, 0.0, 7585.422108819736, 0.0]
['beep', 0.0, -116.69845780115817, 0.0, 0.0, 0.0, 0.0, 7585.131536141817, 0.0]
['beep', 0.0, -118.59835607985927, 0.0, 0.0, 0.0, 0.0, 7585.466812308648, 0.0]
['beep', 0.0, -118.73246654659111, 0.0, 0.0, 0.0, 0.0, 7584.1257076413285, 0.0]
['beep', 0.0, -121.34762064786204, 0.0, 0.0, 0.0, 0.0, 7584.371576830337, 0.0]
['beep', 0.0, -121.39232413677266, 0.0, 0.0, 0.0, 0.0, 7585.869143708843, 0.0]
['beep', 0.0, -120.40884738073915, 0.0, 0.0, 0.0, 0.0, 7586.830268720421, 0.0]
['beep', 0.0, -120.07357121390955, 0.0, 0.0, 0.0, 0.0, 7585.243294864094, 0.0]
['beep', 0.0, -121.01234448103244, 0.0, 0.0, 0.0, 0.0, 7583.1869343742055, 0.0]
['beep', 0.0, -122.95694624864416, 0.0, 0.0, 0.0, 0.0, 7582.941065185198, 0.0]
['beep', 0.0, -119.38066713579502, 0.0, 0.0, 0.0, 0.0, 7584.818611719444, 0.0]
['beep', 0.0, -116.63140256779225, 0.0, 0.0, 0.0, 0.0, 7586.4726408091365, 0.0]
['beep', 0.0, -114.86561475582299, 0.0, 0.0, 0.0, 0.0, 7586.204419875672, 0.0]
['beep', 0.0, -117.95015549065538, 0.0, 0.0, 0.0, 0.0, 7583.231637863117, 0.0]
['beep', 0.0, -120.65471656974752, 0.0, 0.0, 0.0, 0.0, 7583.566914029946, 0.0]
['beep', 0.0, -123.4486846266609, 0.0, 0.0, 0.0, 0.0, 7584.013948919052, 0.0]
['beep', 0.0, -125.37093464981731, 0.0, 0.0, 0.0, 0.0, 7582.806954718466, 0.0]
['beep', 0.0, -125.97443175011061, 0.0, 0.0, 0.0, 0.0, 7581.577608773424, 0.0]
['beep', 0.0, -123.35927764883968, 0.0, 0.0, 0.0, 0.0, 7583.142230885295, 0.0]
['beep', 0.0, -121.12410320330898, 0.0, 0.0, 0.0, 0.0, 7583.075175651929, 0.0]
['beep', 0.0, -120.5653095919263, 0.0, 0.0, 0.0, 0.0, 7584.416280319248, 0.0]
['beep', 0.0, -120.85588226984528, 0.0, 0.0, 0.0, 0.0, 7583.924541941231, 0.0]
['beep', 0.0, -123.40398113775029, 0.0, 0.0, 0.0, 0.0, 7582.874009951832, 0.0]
['beep', 0.0, -123.091056715376, 0.0, 0.0, 0.0, 0.0, 7584.192762874694, 0.0]
['beep', 0.0, -121.81700728142349, 0.0, 0.0, 0.0, 0.0, 7585.131536141817, 0.0]
['beep', 0.0, -120.63236482529221, 0.0, 0.0, 0.0, 0.0, 7585.198591375183, 0.0]
['beep', 0.0, -119.9171090027224, 0.0, 0.0, 0.0, 0.0, 7585.422108819736, 0.0]
['beep', 0.0, -119.55948109143748, 0.0, 0.0, 0.0, 0.0, 7583.723376241133, 0.0]
['beep', 0.0, -119.38066713579502, 0.0, 0.0, 0.0, 0.0, 7583.298693096483, 0.0]
['beep', 0.0, -120.45355086964976, 0.0, 0.0, 0.0, 0.0, 7583.924541941231, 0.0]
['beep', 0.0, -122.50991135953801, 0.0, 0.0, 0.0, 0.0, 7581.8905331957985, 0.0]
['beep', 0.0, -121.43702762568327, 0.0, 0.0, 0.0, 0.0, 7582.114050640351, 0.0]
['beep', 0.0, -116.40788512323918, 0.0, 0.0, 0.0, 0.0, 7581.577608773424, 0.0]
['beep', 0.0, -115.5361670894822, 0.0, 0.0, 0.0, 0.0, 7580.8400012063985, 0.0]
['beep', 0.0, -118.59835607985927, 0.0, 0.0, 0.0, 0.0, 7582.181105873717, 0.0]
['beep', 0.0, -122.01817298152126, 0.0, 0.0, 0.0, 0.0, 7581.6893674957, 0.0]
['beep', 0.0, -120.78882703647936, 0.0, 0.0, 0.0, 0.0, 7580.415318061748, 0.0]
['beep', 0.0, -118.62070782431458, 0.0, 0.0, 0.0, 0.0, 7580.728242484122, 0.0]
['beep', 0.0, -118.06191421293191, 0.0, 0.0, 0.0, 0.0, 7581.331739584415, 0.0]
['beep', 0.0, -118.62070782431458, 0.0, 0.0, 0.0, 0.0, 7580.97411167313, 0.0]
['beep', 0.0, -120.61001308083691, 0.0, 0.0, 0.0, 0.0, 7580.772945973033, 0.0]
['beep', 0.0, -119.11244620233134, 0.0, 0.0, 0.0, 0.0, 7580.88470469531, 0.0]
['beep', 0.0, -116.34082988987326, 0.0, 0.0, 0.0, 0.0, 7580.124745383829, 0.0]
['beep', 0.0, -115.37970487829506, 0.0, 0.0, 0.0, 0.0, 7580.97411167313, 0.0]
['beep', 0.0, -114.48563510008277, 0.0, 0.0, 0.0, 0.0, 7582.225809362628, 0.0]
['beep', 0.0, -114.68680080018054, 0.0, 0.0, 0.0, 0.0, 7582.114050640351, 0.0]
['beep', 0.0, -114.97737347809954, 0.0, 0.0, 0.0, 0.0, 7582.471678551636, 0.0]
['beep', 0.0, -116.1396641897755, 0.0, 0.0, 0.0, 0.0, 7581.30938783996, 0.0]
['beep', 0.0, -117.77134153501291, 0.0, 0.0, 0.0, 0.0, 7580.683538995211, 0.0]
['beep', 0.0, -119.02303922451011, 0.0, 0.0, 0.0, 0.0, 7580.683538995211, 0.0]
['beep', 0.0, -119.40301888025033, 0.0, 0.0, 0.0, 0.0, 7580.057690150463, 0.0]
['beep', 0.0, -117.88310025728944, 0.0, 0.0, 0.0, 0.0, 7579.588303516902, 0.0]
['beep', 0.0, -116.69845780115817, 0.0, 0.0, 0.0, 0.0, 7580.571780272935, 0.0]
['beep', 0.0, -116.49729210106041, 0.0, 0.0, 0.0, 0.0, 7580.392966317292, 0.0]
['beep', 0.0, -114.97737347809954, 0.0, 0.0, 0.0, 0.0, 7578.604826760868, 0.0]
['beep', 0.0, -116.34082988987326, 0.0, 0.0, 0.0, 0.0, 7578.157791871762, 0.0]
['beep', 0.0, -118.53130084649335, 0.0, 0.0, 0.0, 0.0, 7577.509591282558, 0.0]
['beep', 0.0, -119.09009445787603, 0.0, 0.0, 0.0, 0.0, 7578.336605827404, 0.0]
['beep', 0.0, -117.77134153501291, 0.0, 0.0, 0.0, 0.0, 7578.493068038591, 0.0]
['beep', 0.0, -117.21254792363024, 0.0, 0.0, 0.0, 0.0, 7577.375480815826, 0.0]
['beep', 0.0, -116.1396641897755, 0.0, 0.0, 0.0, 0.0, 7578.895399438787, 0.0]
['beep', 0.0, -113.81508276642356, 0.0, 0.0, 0.0, 0.0, 7581.264684351049, 0.0]
['beep', 0.0, -113.77037927751294, 0.0, 0.0, 0.0, 0.0, 7581.868181451343, 0.0]
['beep', 0.0, -116.43023686769449, 0.0, 0.0, 0.0, 0.0, 7581.443498306692, 0.0]
['beep', 0.0, -119.51477760252686, 0.0, 0.0, 0.0, 0.0, 7580.124745383829, 0.0]
['beep', 0.0, -117.52547234600453, 0.0, 0.0, 0.0, 0.0, 7580.6611872507565, 0.0]
['beep', 0.0, -114.70915254463584, 0.0, 0.0, 0.0, 0.0, 7581.354091328871, 0.0]
['beep', 0.0, -114.03860021097664, 0.0, 0.0, 0.0, 0.0, 7580.907056439764, 0.0]
['beep', 0.0, -114.35152463335093, 0.0, 0.0, 0.0, 0.0, 7580.571780272935, 0.0]
['beep', 0.0, -116.1173124453202, 0.0, 0.0, 0.0, 0.0, 7580.907056439764, 0.0]
['beep', 0.0, -115.62557406730343, 0.0, 0.0, 0.0, 0.0, 7581.935236684709, 0.0]
['beep', 0.0, -114.15035893325317, 0.0, 0.0, 0.0, 0.0, 7581.063518650952, 0.0]
['beep', 0.0, -114.2174141666191, 0.0, 0.0, 0.0, 0.0, 7579.655358750268, 0.0]
['beep', 0.0, -115.04442871146546, 0.0, 0.0, 0.0, 0.0, 7580.8400012063985, 0.0]
['beep', 0.0, -114.75385603354646, 0.0, 0.0, 0.0, 0.0, 7581.085870395407, 0.0]
['beep', 0.0, -115.42440836720567, 0.0, 0.0, 0.0, 0.0, 7582.114050640351, 0.0]
['beep', 0.0, -113.79273102196825, 0.0, 0.0, 0.0, 0.0, 7580.862352950854, 0.0]
['beep', 0.0, -111.4010943652504, 0.0, 0.0, 0.0, 0.0, 7580.795297717488, 0.0]
['beep', 0.0, -112.89866124375597, 0.0, 0.0, 0.0, 0.0, 7580.504725039569, 0.0]
['beep', 0.0, -112.9657164771219, 0.0, 0.0, 0.0, 0.0, 7578.984806416608, 0.0]
['beep', 0.0, -113.47980659959396, 0.0, 0.0, 0.0, 0.0, 7578.895399438787, 0.0]
['beep', 0.0, -113.12217868830905, 0.0, 0.0, 0.0, 0.0, 7578.984806416608, 0.0]
['beep', 0.0, -111.51285308752693, 0.0, 0.0, 0.0, 0.0, 7580.795297717488, 0.0]
['beep', 0.0, -112.13870193227554, 0.0, 0.0, 0.0, 0.0, 7580.124745383829, 0.0]
['beep', 0.0, -113.39039962177273, 0.0, 0.0, 0.0, 0.0, 7579.7224139836335, 0.0]
['beep', 0.0, -113.97154497761072, 0.0, 0.0, 0.0, 0.0, 7579.767117472544, 0.0]
['beep', 0.0, -112.60808856583698, 0.0, 0.0, 0.0, 0.0, 7578.090736638396, 0.0]
['beep', 0.0, -108.67418154170294, 0.0, 0.0, 0.0, 0.0, 7579.275379094527, 0.0]
['beep', 0.0, -108.09303618586496, 0.0, 0.0, 0.0, 0.0, 7578.895399438787, 0.0]
['beep', 0.0, -110.84230075386772, 0.0, 0.0, 0.0, 0.0, 7575.319120325938, 0.0]
['beep', 0.0, -111.87048099881184, 0.0, 0.0, 0.0, 0.0, 7576.2578935930605, 0.0]
['beep', 0.0, -108.2047949081415, 0.0, 0.0, 0.0, 0.0, 7577.576646515924, 0.0]
['beep', 0.0, -106.70722802963591, 0.0, 0.0, 0.0, 0.0, 7577.442536049192, 0.0]
['beep', 0.0, -107.82481525240127, 0.0, 0.0, 0.0, 0.0, 7576.190838359695, 0.0]
['beep', 0.0, -109.65765829773645, 0.0, 0.0, 0.0, 0.0, 7576.414355804248, 0.0]
['beep', 0.0, -107.82481525240127, 0.0, 0.0, 0.0, 0.0, 7576.861390693354, 0.0]
['beep', 0.0, -108.2047949081415, 0.0, 0.0, 0.0, 0.0, 7575.386175559303, 0.0]
['beep', 0.0, -108.40596060823925, 0.0, 0.0, 0.0, 0.0, 7574.916788925742, 0.0]
['beep', 0.0, -106.48371058508285, 0.0, 0.0, 0.0, 0.0, 7574.8497336923765, 0.0]
['beep', 0.0, -104.71792277311359, 0.0, 0.0, 0.0, 0.0, 7575.475582537125, 0.0]
['beep', 0.0, -107.91422223022249, 0.0, 0.0, 0.0, 0.0, 7574.8497336923765, 0.0]
['beep', 0.0, -109.12121643080908, 0.0, 0.0, 0.0, 0.0, 7570.558198756958, 0.0]
['beep', 0.0, -107.37778036329513, 0.0, 0.0, 0.0, 0.0, 7572.458097035658, 0.0]
['beep', 0.0, -106.3272483738957, 0.0, 0.0, 0.0, 0.0, 7574.134477869807, 0.0]
['beep', 0.0, -105.92491697370016, 0.0, 0.0, 0.0, 0.0, 7570.871123179331, 0.0]
['beep', 0.0, -107.06485594092084, 0.0, 0.0, 0.0, 0.0, 7571.586379001901, 0.0]
['beep', 0.0, -104.33794311737337, 0.0, 0.0, 0.0, 0.0, 7571.631082490812, 0.0]
['beep', 0.0, -104.31559137291806, 0.0, 0.0, 0.0, 0.0, 7571.452268535169, 0.0]
['beep', 0.0, -105.96962046261078, 0.0, 0.0, 0.0, 0.0, 7570.759364457055, 0.0]
['beep', 0.0, -106.26019314052978, 0.0, 0.0, 0.0, 0.0, 7570.1558673567615, 0.0]
['beep', 0.0, -105.52258557350464, 0.0, 0.0, 0.0, 0.0, 7568.948873156175, 0.0]
['beep', 0.0, -106.64017279627, 0.0, 0.0, 0.0, 0.0, 7569.999405145575, 0.0]
['beep', 0.0, -104.24853613955214, 0.0, 0.0, 0.0, 0.0, 7568.770059200533, 0.0]
['beep', 0.0, -105.25436464004096, 0.0, 0.0, 0.0, 0.0, 7570.781716201511, 0.0]
['beep', 0.0, -107.33307687438452, 0.0, 0.0, 0.0, 0.0, 7571.452268535169, 0.0]
['beep', 0.0, -106.70722802963591, 0.0, 0.0, 0.0, 0.0, 7570.491143523592, 0.0]
['beep', 0.0, -106.55076581844877, 0.0, 0.0, 0.0, 0.0, 7571.720489468634, 0.0]
['beep', 0.0, -103.42152159470578, 0.0, 0.0, 0.0, 0.0, 7565.97609114362, 0.0]
['beep', 0.0, -105.29906812895157, 0.0, 0.0, 0.0, 0.0, 7569.328852811916, 0.0]
['beep', 0.0, -106.39430360726162, 0.0, 0.0, 0.0, 0.0, 7570.088812123396, 0.0]
['beep', 0.0, -107.33307687438452, 0.0, 0.0, 0.0, 0.0, 7571.206399346162, 0.0]
['beep', 0.0, -106.88604198527837, 0.0, 0.0, 0.0, 0.0, 7572.435745291204, 0.0]
['beep', 0.0, -106.90839372973367, 0.0, 0.0, 0.0, 0.0, 7568.658300478256, 0.0]
['beep', 0.0, -105.81315825142363, 0.0, 0.0, 0.0, 0.0, 7565.9313876547085, 0.0]
['beep', 0.0, -107.69070478566942, 0.0, 0.0, 0.0, 0.0, 7572.391041802292, 0.0]
['beep', 0.0, -107.37778036329513, 0.0, 0.0, 0.0, 0.0, 7569.820591189932, 0.0]
['beep', 0.0, -107.31072512992921, 0.0, 0.0, 0.0, 0.0, 7566.244312077083, 0.0]
['beep', 0.0, -107.78011176349065, 0.0, 0.0, 0.0, 0.0, 7570.893474923787, 0.0]
['beep', 0.0, -105.20966115113035, 0.0, 0.0, 0.0, 0.0, 7569.485315023103, 0.0]
['beep', 0.0, -105.92491697370016, 0.0, 0.0, 0.0, 0.0, 7571.8545999353655, 0.0]
['beep', 0.0, -106.55076581844877, 0.0, 0.0, 0.0, 0.0, 7570.379384801315, 0.0]
['beep', 0.0, -106.57311756290407, 0.0, 0.0, 0.0, 0.0, 7569.597073745379, 0.0]
['beep', 0.0, -107.71305653012473, 0.0, 0.0, 0.0, 0.0, 7567.11603011084, 0.0]
['beep', 0.0, -106.52841407399346, 0.0, 0.0, 0.0, 0.0, 7564.679689965212, 0.0]
['beep', 0.0, -105.7237512736024, 0.0, 0.0, 0.0, 0.0, 7567.943044655686, 0.0]
['beep', 0.0, -104.87438498430073, 0.0, 0.0, 0.0, 0.0, 7572.323986568927, 0.0]
['beep', 0.0, -103.06389368342087, 0.0, 0.0, 0.0, 0.0, 7572.346338313382, 0.0]
['beep', 0.0, -99.0182279370103, 0.0, 0.0, 0.0, 0.0, 7570.871123179331, 0.0]
['beep', 0.0, -97.85593722533432, 0.0, 0.0, 0.0, 0.0, 7572.078117379919, 0.0]
['beep', 0.0, -99.12998665928683, 0.0, 0.0, 0.0, 0.0, 7570.938178412697, 0.0]
['beep', 0.0, -100.51579481551586, 0.0, 0.0, 0.0, 0.0, 7569.664128978745, 0.0]
['beep', 0.0, -101.63338203828121, 0.0, 0.0, 0.0, 0.0, 7572.614559246846, 0.0]
['beep', 0.0, -100.85107098234546, 0.0, 0.0, 0.0, 0.0, 7574.40269880327, 0.0]
['beep', 0.0, -98.66060002572537, 0.0, 0.0, 0.0, 0.0, 7571.899303424276, 0.0]
['beep', 0.0, -99.12998665928683, 0.0, 0.0, 0.0, 0.0, 7572.9721871581305, 0.0]
['beep', 0.0, -100.49344307106055, 0.0, 0.0, 0.0, 0.0, 7572.413393546748, 0.0]
['beep', 0.0, -101.40986459372814, 0.0, 0.0, 0.0, 0.0, 7572.458097035658, 0.0]
['beep', 0.0, -99.82289073740134, 0.0, 0.0, 0.0, 0.0, 7570.669957479234, 0.0]
['beep', 0.0, -100.00170469304379, 0.0, 0.0, 0.0, 0.0, 7572.122820868829, 0.0]
['beep', 0.0, -101.38751284927284, 0.0, 0.0, 0.0, 0.0, 7572.167524357739, 0.0]
