['beep', 0.0, 0.0, 0.0, 0.0, 0.0, 0.0, 0.0, 0.0]
['beep', 0.0, -19.71423860958083, 0.0, 0.0, 0.0, 0.0, 7382.691786610101, 0.0]
['beep', 0.0, -22.105875266298685, 0.0, 0.0, 0.0, 0.0, 7385.441051178104, 0.0]
['beep', 0.0, -22.999945044510966, 0.0, 0.0, 0.0, 0.0, 7387.206838990073, 0.0]
['beep', 0.0, -21.74824735501377, 0.0, 0.0, 0.0, 0.0, 7386.536286656415, 0.0]
['beep', 0.0, -20.47419792106127, 0.0, 0.0, 0.0, 0.0, 7386.245713978496, 0.0]
['beep', 0.0, -20.049514776410437, 0.0, 0.0, 0.0, 0.0, 7388.324426212839, 0.0]
['beep', 0.0, -21.524729910460703, 0.0, 0.0, 0.0, 0.0, 7390.447841936093, 0.0]
['beep', 0.0, -22.66466887768136, 0.0, 0.0, 0.0, 0.0, 7387.676225623635, 0.0]
['beep', 0.0, -20.69771536561434, 0.0, 0.0, 0.0, 0.0, 7387.676225623635, 0.0]
['beep', 0.0, -20.00481128749982, 0.0, 0.0, 0.0, 0.0, 7388.525591912937, 0.0]
['beep', 0.0, -21.14475025472048, 0.0, 0.0, 0.0, 0.0, 7388.614998890758, 0.0]
['beep', 0.0, -23.223462489064037, 0.0, 0.0, 0.0, 0.0, 7389.039682035409, 0.0]
['beep', 0.0, -23.849311333812636, 0.0, 0.0, 0.0, 0.0, 7390.581952402825, 0.0]
['beep', 0.0, -18.909575809189775, 0.0, 0.0, 0.0, 0.0, 7390.693711125102, 0.0]
['beep', 0.0, -14.260412962485907, 0.0, 0.0, 0.0, 0.0, 7389.352606457783, 0.0]
['beep', 0.0, -17.456712419594815, 0.0, 0.0, 0.0, 0.0, 7386.156307000674, 0.0]
['beep', 0.0, -22.73172411104728, 0.0, 0.0, 0.0, 0.0, 7386.066900022853, 0.0]
['beep', 0.0, -22.195282244119912, 0.0, 0.0, 0.0, 0.0, 7387.787984345911, 0.0]
['beep', 0.0, -19.580128142848988, 0.0, 0.0, 0.0, 0.0, 7386.558638400869, 0.0]
['beep', 0.0, -21.61413688828193, 0.0, 0.0, 0.0, 0.0, 7384.4352226776155, 0.0]
['beep', 0.0, -24.564567156382463, 0.0, 0.0, 0.0, 0.0, 7382.624731376735, 0.0]
['beep', 0.0, -21.256508976997015, 0.0, 0.0, 0.0, 0.0, 7386.335120956317, 0.0]
['beep', 0.0, -20.250680476508197, 0.0, 0.0, 0.0, 0.0, 7388.547943657392, 0.0]
['beep', 0.0, -19.04368627592162, 0.0, 0.0, 0.0, 0.0, 7385.999844789487, 0.0]
['beep', 0.0, -16.1379594967317, 0.0, 0.0, 0.0, 0.0, 7385.083423266819, 0.0]
['beep', 0.0, -17.479064164050122, 0.0, 0.0, 0.0, 0.0, 7385.172830244641, 0.0]
['beep', 0.0, -21.122398510265175, 0.0, 0.0, 0.0, 0.0, 7387.206838990073, 0.0]
['beep', 0.0, -21.14475025472048, 0.0, 0.0, 0.0, 0.0, 7387.31859771235, 0.0]
['beep', 0.0, -20.250680476508197, 0.0, 0.0, 0.0, 0.0, 7385.105775011275, 0.0]
['beep', 0.0, -20.47419792106127, 0.0, 0.0, 0.0, 0.0, 7384.74814709999, 0.0]
['beep', 0.0, -22.061171777388072, 0.0, 0.0, 0.0, 0.0, 7384.144649999696, 0.0]
['beep', 0.0, -22.888186322234432, 0.0, 0.0, 0.0, 0.0, 7385.016368033454, 0.0]
['beep', 0.0, -21.658840377192544, 0.0, 0.0, 0.0, 0.0, 7386.759804100968, 0.0]
['beep', 0.0, -20.876529321256797, 0.0, 0.0, 0.0, 0.0, 7385.55280990038, 0.0]
['beep', 0.0, -19.893052565223286, 0.0, 0.0, 0.0, 0.0, 7384.189353488608, 0.0]
['beep', 0.0, -20.742418854524953, 0.0, 0.0, 0.0, 0.0, 7383.272931965939, 0.0]
['beep', 0.0, -20.876529321256797, 0.0, 0.0, 0.0, 0.0, 7382.915304054654, 0.0]
['beep', 0.0, -21.39061944372886, 0.0, 0.0, 0.0, 0.0, 7382.736490099012, 0.0]
['beep', 0.0, -21.703543866103157, 0.0, 0.0, 0.0, 0.0, 7382.043586020897, 0.0]
['beep', 0.0, -20.38479094324004, 0.0, 0.0, 0.0, 0.0, 7380.9707022870425, 0.0]
['beep', 0.0, -18.663706620181397, 0.0, 0.0, 0.0, 0.0, 7380.233094720018, 0.0]
['beep', 0.0, -20.38479094324004, 0.0, 0.0, 0.0, 0.0, 7380.724833098035, 0.0]
['beep', 0.0, -20.92123281016741, 0.0, 0.0, 0.0, 0.0, 7379.294321452895, 0.0]
['beep', 0.0, -21.100046765809868, 0.0, 0.0, 0.0, 0.0, 7378.55671388587, 0.0]
['beep', 0.0, -19.55777639839368, 0.0, 0.0, 0.0, 0.0, 7377.439126663105, 0.0]
['beep', 0.0, -19.133093253742846, 0.0, 0.0, 0.0, 0.0, 7378.176734230129, 0.0]
['beep', 0.0, -20.496549665516575, 0.0, 0.0, 0.0, 0.0, 7379.607245875269, 0.0]
['beep', 0.0, -21.90470956620092, 0.0, 0.0, 0.0, 0.0, 7374.8016208173785, 0.0]
['beep', 0.0, -20.653011876703726, 0.0, 0.0, 0.0, 0.0, 7374.153420228175, 0.0]
['beep', 0.0, -18.79781708691324, 0.0, 0.0, 0.0, 0.0, 7375.136896984208, 0.0]
['beep', 0.0, -18.10491300879872, 0.0, 0.0, 0.0, 0.0, 7376.120373740241, 0.0]
['beep', 0.0, -19.02133453146631, 0.0, 0.0, 0.0, 0.0, 7377.640292363202, 0.0]
['beep', 0.0, -22.888186322234432, 0.0, 0.0, 0.0, 0.0, 7378.959045286066, 0.0]
['beep', 0.0, -20.69771536561434, 0.0, 0.0, 0.0, 0.0, 7378.22143771904, 0.0]
['beep', 0.0, -18.306078708896486, 0.0, 0.0, 0.0, 0.0, 7375.025138261931, 0.0]
['beep', 0.0, -19.311907209385303, 0.0, 0.0, 0.0, 0.0, 7375.248655706484, 0.0]
['beep', 0.0, -20.608308387793112, 0.0, 0.0, 0.0, 0.0, 7378.489658652504, 0.0]
['beep', 0.0, -19.46836942057245, 0.0, 0.0, 0.0, 0.0, 7381.775365087434, 0.0]
['beep', 0.0, -17.791988586424424, 0.0, 0.0, 0.0, 0.0, 7379.964873786555, 0.0]
['beep', 0.0, -15.690924607625558, 0.0, 0.0, 0.0, 0.0, 7377.908513296666, 0.0]
['beep', 0.0, -15.981497285544549, 0.0, 0.0, 0.0, 0.0, 7378.489658652504, 0.0]
['beep', 0.0, -17.7249333530585, 0.0, 0.0, 0.0, 0.0, 7378.176734230129, 0.0]
['beep', 0.0, -19.781293842946752, 0.0, 0.0, 0.0, 0.0, 7378.959045286066, 0.0]
['beep', 0.0, -18.79781708691324, 0.0, 0.0, 0.0, 0.0, 7378.824934819333, 0.0]
['beep', 0.0, -17.233194975041744, 0.0, 0.0, 0.0, 0.0, 7377.997920274487, 0.0]
['beep', 0.0, -18.41783743117302, 0.0, 0.0, 0.0, 0.0, 7377.729699341024, 0.0]
['beep', 0.0, -19.513072909483064, 0.0, 0.0, 0.0, 0.0, 7380.076632508831, 0.0]
['beep', 0.0, -20.09421826532105, 0.0, 0.0, 0.0, 0.0, 7381.596551131792, 0.0]
['beep', 0.0, -19.490721165027757, 0.0, 0.0, 0.0, 0.0, 7380.523667397937, 0.0]
['beep', 0.0, -17.970802542066878, 0.0, 0.0, 0.0, 0.0, 7381.216571476051, 0.0]
['beep', 0.0, -14.126302495754064, 0.0, 0.0, 0.0, 0.0, 7382.870600565744, 0.0]
['beep', 0.0, -16.182662985642313, 0.0, 0.0, 0.0, 0.0, 7382.423565676638, 0.0]
['beep', 0.0, -27.40323870220646, 0.0, 0.0, 0.0, 0.0, 7380.769536586945, 0.0]
['beep', 0.0, -35.04753530592147, 0.0, 0.0, 0.0, 0.0, 7379.942522042099, 0.0]
['beep', 0.0, -38.80262837441306, 0.0, 0.0, 0.0, 0.0, 7375.9192080401435, 0.0]
['beep', 0.0, -47.02807033396606, 0.0, 0.0, 0.0, 0.0, 7374.421641161638, 0.0]
['beep', 0.0, -56.75107917202463, 0.0, 0.0, 0.0, 0.0, 7370.621844604236, 0.0]
['beep', 0.0, -65.71412869860276, 0.0, 0.0, 0.0, 0.0, 7366.106792224264, 0.0]
['beep', 0.0, -72.7772799464798, 0.0, 0.0, 0.0, 0.0, 7360.049469476876, 0.0]
['beep', 0.0, -81.40505330622833, 0.0, 0.0, 0.0, 0.0, 7355.713231052546, 0.0]
['beep', 0.0, -89.04934990994333, 0.0, 0.0, 0.0, 0.0, 7350.21470191654, 0.0]
['beep', 0.0, -100.85107098234546, 0.0, 0.0, 0.0, 0.0, 7342.056315190353, 0.0]
['beep', 0.0, -110.59643156485934, 0.0, 0.0, 0.0, 0.0, 7336.02134418742, 0.0]
['beep', 0.0, -116.8102165234347, 0.0, 0.0, 0.0, 0.0, 7327.192405127574, 0.0]
['beep', 0.0, -127.36023990633964, 0.0, 0.0, 0.0, 0.0, 7317.8270242008, 0.0]
['beep', 0.0, -135.22805395460773, 0.0, 0.0, 0.0, 0.0, 7306.673503717602, 0.0]
['beep', 0.0, -146.4933331600825, 0.0, 0.0, 0.0, 0.0, 7298.962151880522, 0.0]
['beep', 0.0, -155.81401059794553, 0.0, 0.0, 0.0, 0.0, 7288.859163386723, 0.0]
['beep', 0.0, -163.77123162403484, 0.0, 0.0, 0.0, 0.0, 7274.621102168692, 0.0]
['beep', 0.0, -169.44857471568284, 0.0, 0.0, 0.0, 0.0, 7264.33929971925, 0.0]
['beep', 0.0, -174.991807340599, 0.0, 0.0, 0.0, 0.0, 7253.230482724963, 0.0]
['beep', 0.0, -185.40772025677208, 0.0, 0.0, 0.0, 0.0, 7242.725162830969, 0.0]
['beep', 0.0, -193.65551396078038, 0.0, 0.0, 0.0, 0.0, 7233.00215399291, 0.0]
['beep', 0.0, -199.4222640302496, 0.0, 0.0, 0.0, 0.0, 7221.915688743078, 0.0]
['beep', 0.0, -201.5903832424144, 0.0, 0.0, 0.0, 0.0, 7212.192679905019, 0.0]
['beep', 0.0, -207.87122343435567, 0.0, 0.0, 0.0, 0.0, 7202.2908571113185, 0.0]
['beep', 0.0, -212.989772914621, 0.0, 0.0, 0.0, 0.0, 7196.211182619475, 0.0]
['beep', 0.0, -216.38723807182768, 0.0, 0.0, 0.0, 0.0, 7189.684473238525, 0.0]
['beep', 0.0, -218.06361890597572, 0.0, 0.0, 0.0, 0.0, 7180.676720223037, 0.0]
['beep', 0.0, -215.96255492717685, 0.0, 0.0, 0.0, 0.0, 7176.094612609699, 0.0]
['beep', 0.0, -215.31435433797293, 0.0, 0.0, 0.0, 0.0, 7171.959539885466, 0.0]
['beep', 0.0, -215.31435433797293, 0.0, 0.0, 0.0, 0.0, 7167.153914827575, 0.0]
['beep', 0.0, -213.10153163689753, 0.0, 0.0, 0.0, 0.0, 7163.957615370467, 0.0]
['beep', 0.0, -210.68754323572438, 0.0, 0.0, 0.0, 0.0, 7160.22487404643, 0.0]
['beep', 0.0, -209.07821763494226, 0.0, 0.0, 0.0, 0.0, 7157.050926333777, 0.0]
['beep', 0.0, -208.74294146811266, 0.0, 0.0, 0.0, 0.0, 7152.960557098456, 0.0]
['beep', 0.0, -209.70406647969085, 0.0, 0.0, 0.0, 0.0, 7151.708859408958, 0.0]
['beep', 0.0, -210.68754323572438, 0.0, 0.0, 0.0, 0.0, 7150.568920441738, 0.0]
['beep', 0.0, -208.8323484459339, 0.0, 0.0, 0.0, 0.0, 7147.1714552845315, 0.0]
['beep', 0.0, -206.6195257448585, 0.0, 0.0, 0.0, 0.0, 7145.852702361668, 0.0]
['beep', 0.0, -206.77598795604564, 0.0, 0.0, 0.0, 0.0, 7145.875054106124, 0.0]
['beep', 0.0, -207.2677263340624, 0.0, 0.0, 0.0, 0.0, 7144.690411649992, 0.0]
['beep', 0.0, -208.07238913445346, 0.0, 0.0, 0.0, 0.0, 7143.975155827422, 0.0]
['beep', 0.0, -207.69240947871322, 0.0, 0.0, 0.0, 0.0, 7143.5951761716815, 0.0]
['beep', 0.0, -205.50193852209313, 0.0, 0.0, 0.0, 0.0, 7143.46106570495, 0.0]
['beep', 0.0, -205.81486294446742, 0.0, 0.0, 0.0, 0.0, 7142.231719759909, 0.0]
['beep', 0.0, -206.88774667832217, 0.0, 0.0, 0.0, 0.0, 7140.734152881402, 0.0]
['beep', 0.0, -206.84304318941156, 0.0, 0.0, 0.0, 0.0, 7141.22589125942, 0.0]
['beep', 0.0, -206.44071178921604, 0.0, 0.0, 0.0, 0.0, 7143.103437793665, 0.0]
['beep', 0.0, -204.47375827714902, 0.0, 0.0, 0.0, 0.0, 7142.075257548721, 0.0]
['beep', 0.0, -204.02672338804288, 0.0, 0.0, 0.0, 0.0, 7140.912966837045, 0.0]
['beep', 0.0, -205.14431061080822, 0.0, 0.0, 0.0, 0.0, 7143.036382560299, 0.0]
['beep', 0.0, -205.59134549991435, 0.0, 0.0, 0.0, 0.0, 7142.522292437827, 0.0]
['beep', 0.0, -204.31729606596187, 0.0, 0.0, 0.0, 0.0, 7140.778856370313, 0.0]
['beep', 0.0, -202.37269429835015, 0.0, 0.0, 0.0, 0.0, 7140.063600547744, 0.0]
['beep', 0.0, -202.77502569854568, 0.0, 0.0, 0.0, 0.0, 7139.638917403093, 0.0]
['beep', 0.0, -203.93731641022163, 0.0, 0.0, 0.0, 0.0, 7140.55533892576, 0.0]
['beep', 0.0, -204.47375827714902, 0.0, 0.0, 0.0, 0.0, 7140.845911603679, 0.0]
['beep', 0.0, -202.73032220963506, 0.0, 0.0, 0.0, 0.0, 7139.348344725174, 0.0]
['beep', 0.0, -201.14334835330826, 0.0, 0.0, 0.0, 0.0, 7139.057772047255, 0.0]
['beep', 0.0, -201.07629311994233, 0.0, 0.0, 0.0, 0.0, 7137.806074357757, 0.0]
['beep', 0.0, -202.4844530206267, 0.0, 0.0, 0.0, 0.0, 7137.537853424294, 0.0]
['beep', 0.0, -202.90913616527752, 0.0, 0.0, 0.0, 0.0, 7138.141350524587, 0.0]
['beep', 0.0, -201.2551070755848, 0.0, 0.0, 0.0, 0.0, 7137.4260947020175, 0.0]
['beep', 0.0, -200.24927857509599, 0.0, 0.0, 0.0, 0.0, 7137.068466790733, 0.0]
['beep', 0.0, -199.4222640302496, 0.0, 0.0, 0.0, 0.0, 7137.895481335579, 0.0]
['beep', 0.0, -201.76919719805684, 0.0, 0.0, 0.0, 0.0, 7136.755542368358, 0.0]
['beep', 0.0, -201.9927146426099, 0.0, 0.0, 0.0, 0.0, 7137.3143359797405, 0.0]
['beep', 0.0, -199.53402275252614, 0.0, 0.0, 0.0, 0.0, 7136.1967487569755, 0.0]
['beep', 0.0, -198.30467680748427, 0.0, 0.0, 0.0, 0.0, 7132.978097555411, 0.0]
['beep', 0.0, -198.0588076184759, 0.0, 0.0, 0.0, 0.0, 7132.84398708868, 0.0]
['beep', 0.0, -199.6904849637133, 0.0, 0.0, 0.0, 0.0, 7133.872167333623, 0.0]
['beep', 0.0, -201.3221623089507, 0.0, 0.0, 0.0, 0.0, 7134.766237111836, 0.0]
['beep', 0.0, -200.07046461945353, 0.0, 0.0, 0.0, 0.0, 7133.291021977785, 0.0]
['beep', 0.0, -197.4776622626379, 0.0, 0.0, 0.0, 0.0, 7133.156911511053, 0.0]
['beep', 0.0, -198.01410412956525, 0.0, 0.0, 0.0, 0.0, 7132.821635344224, 0.0]
['beep', 0.0, -198.48349076312672, 0.0, 0.0, 0.0, 0.0, 7134.050981289266, 0.0]
['beep', 0.0, -200.3163338084619, 0.0, 0.0, 0.0, 0.0, 7134.632126645104, 0.0]
['beep', 0.0, -198.68465646322448, 0.0, 0.0, 0.0, 0.0, 7133.9839260559, 0.0]
['beep', 0.0, -197.1647378402636, 0.0, 0.0, 0.0, 0.0, 7133.9839260559, 0.0]
['beep', 0.0, -197.8576419183781, 0.0, 0.0, 0.0, 0.0, 7132.307545221752, 0.0]
['beep', 0.0, -198.17056634075243, 0.0, 0.0, 0.0, 0.0, 7131.748751610369, 0.0]
['beep', 0.0, -198.46113901867142, 0.0, 0.0, 0.0, 0.0, 7132.84398708868, 0.0]
['beep', 0.0, -197.58942098491443, 0.0, 0.0, 0.0, 0.0, 7131.279364976807, 0.0]
['beep', 0.0, -196.36007503987256, 0.0, 0.0, 0.0, 0.0, 7130.072370776221, 0.0]
['beep', 0.0, -197.1647378402636, 0.0, 0.0, 0.0, 0.0, 7130.966440554434, 0.0]
['beep', 0.0, -196.94122039571053, 0.0, 0.0, 0.0, 0.0, 7130.273536476319, 0.0]
['beep', 0.0, -197.90234540728872, 0.0, 0.0, 0.0, 0.0, 7130.295888220774, 0.0]
['beep', 0.0, -197.8352901739228, 0.0, 0.0, 0.0, 0.0, 7129.826501587213, 0.0]
['beep', 0.0, -196.58359248442562, 0.0, 0.0, 0.0, 0.0, 7127.881899819601, 0.0]
['beep', 0.0, -197.36590354036136, 0.0, 0.0, 0.0, 0.0, 7128.17247249752, 0.0]
['beep', 0.0, -198.21526982966304, 0.0, 0.0, 0.0, 0.0, 7128.5077486643495, 0.0]
['beep', 0.0, -198.23762157411835, 0.0, 0.0, 0.0, 0.0, 7129.960612053945, 0.0]
['beep', 0.0, -196.62829597333624, 0.0, 0.0, 0.0, 0.0, 7130.832330087702, 0.0]
['beep', 0.0, -194.9742668836435, 0.0, 0.0, 0.0, 0.0, 7129.714742864936, 0.0]
['beep', 0.0, -195.9353918952217, 0.0, 0.0, 0.0, 0.0, 7130.161777754042, 0.0]
['beep', 0.0, -196.78475818452338, 0.0, 0.0, 0.0, 0.0, 7129.938260309489, 0.0]
['beep', 0.0, -199.28815356351777, 0.0, 0.0, 0.0, 0.0, 7129.2677079758305, 0.0]
['beep', 0.0, -197.94704889619933, 0.0, 0.0, 0.0, 0.0, 7128.083065519699, 0.0]
['beep', 0.0, -197.23179307362952, 0.0, 0.0, 0.0, 0.0, 7126.518443407827, 0.0]
['beep', 0.0, -198.28232506302896, 0.0, 0.0, 0.0, 0.0, 7123.813882328735, 0.0]
['beep', 0.0, -200.3386855529172, 0.0, 0.0, 0.0, 0.0, 7123.277440461808, 0.0]
['beep', 0.0, -203.8032059434898, 0.0, 0.0, 0.0, 0.0, 7125.758484096347, 0.0]
['beep', 0.0, -204.7866826995233, 0.0, 0.0, 0.0, 0.0, 7124.663248618037, 0.0]
['beep', 0.0, -204.20553734368534, 0.0, 0.0, 0.0, 0.0, 7119.455292159951, 0.0]
['beep', 0.0, -204.764330955068, 0.0, 0.0, 0.0, 0.0, 7117.711856092436, 0.0]
['beep', 0.0, -204.47375827714902, 0.0, 0.0, 0.0, 0.0, 7118.337704937185, 0.0]
['beep', 0.0, -204.96549665516577, 0.0, 0.0, 0.0, 0.0, 7118.784739826291, 0.0]
['beep', 0.0, -204.65257223279147, 0.0, 0.0, 0.0, 0.0, 7118.672981104015, 0.0]
['beep', 0.0, -203.35617105438365, 0.0, 0.0, 0.0, 0.0, 7117.667152603526, 0.0]
['beep', 0.0, -203.26676407656242, 0.0, 0.0, 0.0, 0.0, 7117.555393881249, 0.0]
['beep', 0.0, -204.7419792106127, 0.0, 0.0, 0.0, 0.0, 7116.817786314224, 0.0]
['beep', 0.0, -204.83138618843392, 0.0, 0.0, 0.0, 0.0, 7116.102530491654, 0.0]
['beep', 0.0, -204.4290547882384, 0.0, 0.0, 0.0, 0.0, 7117.197765969964, 0.0]
['beep', 0.0, -203.04324663200936, 0.0, 0.0, 0.0, 0.0, 7116.16958572502, 0.0]
['beep', 0.0, -203.26676407656242, 0.0, 0.0, 0.0, 0.0, 7115.029646757799, 0.0]
['beep', 0.0, -204.65257223279147, 0.0, 0.0, 0.0, 0.0, 7115.990771769378, 0.0]
['beep', 0.0, -205.054903632987, 0.0, 0.0, 0.0, 0.0, 7116.281344447297, 0.0]
['beep', 0.0, -202.75267395409037, 0.0, 0.0, 0.0, 0.0, 7116.057827002744, 0.0]
['beep', 0.0, -201.21040358667418, 0.0, 0.0, 0.0, 0.0, 7116.035475258288, 0.0]
['beep', 0.0, -201.36686579786132, 0.0, 0.0, 0.0, 0.0, 7118.494167148372, 0.0]
['beep', 0.0, -201.47862452013786, 0.0, 0.0, 0.0, 0.0, 7120.371713682618, 0.0]
['beep', 0.0, -202.59621174290322, 0.0, 0.0, 0.0, 0.0, 7120.50582414935, 0.0]
['beep', 0.0, -201.83625243142276, 0.0, 0.0, 0.0, 0.0, 7119.678809604503, 0.0]
['beep', 0.0, -199.64578147480267, 0.0, 0.0, 0.0, 0.0, 7118.672981104015, 0.0]
['beep', 0.0, -199.377560541339, 0.0, 0.0, 0.0, 0.0, 7118.203594470453, 0.0]
['beep', 0.0, -199.31050530797307, 0.0, 0.0, 0.0, 0.0, 7120.282306704797, 0.0]
['beep', 0.0, -201.14334835330826, 0.0, 0.0, 0.0, 0.0, 7121.5787078832045, 0.0]
['beep', 0.0, -201.81390068696746, 0.0, 0.0, 0.0, 0.0, 7119.947030537967, 0.0]
['beep', 0.0, -199.51167100807083, 0.0, 0.0, 0.0, 0.0, 7119.343533437674, 0.0]
['beep', 0.0, -199.7351884526239, 0.0, 0.0, 0.0, 0.0, 7119.432940415495, 0.0]
['beep', 0.0, -201.74684545360154, 0.0, 0.0, 0.0, 0.0, 7120.081141004699, 0.0]
['beep', 0.0, -202.10447336488647, 0.0, 0.0, 0.0, 0.0, 7119.723513093414, 0.0]
['beep', 0.0, -200.47279601964905, 0.0, 0.0, 0.0, 0.0, 7119.477643904405, 0.0]
['beep', 0.0, -198.46113901867142, 0.0, 0.0, 0.0, 0.0, 7118.404760170551, 0.0]
['beep', 0.0, -198.28232506302896, 0.0, 0.0, 0.0, 0.0, 7118.7623880818355, 0.0]
['beep', 0.0, -199.3552087968837, 0.0, 0.0, 0.0, 0.0, 7119.008257270844, 0.0]
['beep', 0.0, -200.2939820640066, 0.0, 0.0, 0.0, 0.0, 7118.829443315201, 0.0]
['beep', 0.0, -199.17639484124123, 0.0, 0.0, 0.0, 0.0, 7118.829443315201, 0.0]
['beep', 0.0, -198.4387872742161, 0.0, 0.0, 0.0, 0.0, 7117.555393881249, 0.0]
['beep', 0.0, -199.08698786342, 0.0, 0.0, 0.0, 0.0, 7117.22011771442, 0.0]
['beep', 0.0, -200.6292582308362, 0.0, 0.0, 0.0, 0.0, 7119.74586483787, 0.0]
['beep', 0.0, -201.88095592033338, 0.0, 0.0, 0.0, 0.0, 7119.79056832678, 0.0]
['beep', 0.0, -199.55637449698145, 0.0, 0.0, 0.0, 0.0, 7118.7623880818355, 0.0]
['beep', 0.0, -198.32702855193958, 0.0, 0.0, 0.0, 0.0, 7118.717684592925, 0.0]
['beep', 0.0, -198.7517116965904, 0.0, 0.0, 0.0, 0.0, 7119.365885182129, 0.0]
['beep', 0.0, -200.22692683064068, 0.0, 0.0, 0.0, 0.0, 7119.678809604503, 0.0]
['beep', 0.0, -201.76919719805684, 0.0, 0.0, 0.0, 0.0, 7121.2881352052855, 0.0]
['beep', 0.0, -201.85860417587807, 0.0, 0.0, 0.0, 0.0, 7121.019914271822, 0.0]
['beep', 0.0, -200.36103729737252, 0.0, 0.0, 0.0, 0.0, 7119.991734026878, 0.0]
['beep', 0.0, -201.21040358667418, 0.0, 0.0, 0.0, 0.0, 7121.176376483009, 0.0]
['beep', 0.0, -202.59621174290322, 0.0, 0.0, 0.0, 0.0, 7121.958687538945, 0.0]
['beep', 0.0, -203.64674373230264, 0.0, 0.0, 0.0, 0.0, 7124.3950276845735, 0.0]
['beep', 0.0, -202.59621174290322, 0.0, 0.0, 0.0, 0.0, 7124.976173040411, 0.0]
['beep', 0.0, -200.89747916429988, 0.0, 0.0, 0.0, 0.0, 7124.149158495565, 0.0]
['beep', 0.0, -200.51749950855967, 0.0, 0.0, 0.0, 0.0, 7125.020876529322, 0.0]
['beep', 0.0, -202.8644326763669, 0.0, 0.0, 0.0, 0.0, 7126.227870729908, 0.0]
['beep', 0.0, -203.4902815211155, 0.0, 0.0, 0.0, 0.0, 7126.898423063568, 0.0]
['beep', 0.0, -201.74684545360154, 0.0, 0.0, 0.0, 0.0, 7126.429036430006, 0.0]
['beep', 0.0, -200.74101695311273, 0.0, 0.0, 0.0, 0.0, 7126.250222474364, 0.0]
['beep', 0.0, -201.70214196469092, 0.0, 0.0, 0.0, 0.0, 7127.0325335303, 0.0]
['beep', 0.0, -203.8702611768557, 0.0, 0.0, 0.0, 0.0, 7128.664210875537, 0.0]
['beep', 0.0, -203.75850245457917, 0.0, 0.0, 0.0, 0.0, 7129.960612053945, 0.0]
['beep', 0.0, -203.93731641022163, 0.0, 0.0, 0.0, 0.0, 7130.631164387604, 0.0]
['beep', 0.0, -201.38921754231663, 0.0, 0.0, 0.0, 0.0, 7130.631164387604, 0.0]
['beep', 0.0, -201.41156928677194, 0.0, 0.0, 0.0, 0.0, 7129.871205076123, 0.0]
['beep', 0.0, -204.1161303658641, 0.0, 0.0, 0.0, 0.0, 7133.179263255509, 0.0]
['beep', 0.0, -204.94314491071046, 0.0, 0.0, 0.0, 0.0, 7137.403742957562, 0.0]
['beep', 0.0, -205.23371758862945, 0.0, 0.0, 0.0, 0.0, 7140.51063543685, 0.0]
['beep', 0.0, -204.51846176605963, 0.0, 0.0, 0.0, 0.0, 7142.835216860201, 0.0]
['beep', 0.0, -205.32312456645067, 0.0, 0.0, 0.0, 0.0, 7147.216158773442, 0.0]
['beep', 0.0, -207.2900780785177, 0.0, 0.0, 0.0, 0.0, 7154.547530954783, 0.0]
['beep', 0.0, -211.24633684710705, 0.0, 0.0, 0.0, 0.0, 7159.867246135145, 0.0]
['beep', 0.0, -216.38723807182768, 0.0, 0.0, 0.0, 0.0, 7163.42117350354, 0.0]
['beep', 0.0, -216.00725841608747, 0.0, 0.0, 0.0, 0.0, 7169.456144506472, 0.0]
['beep', 0.0, -200.24927857509599, 0.0, 0.0, 0.0, 0.0, 7179.179153344531, 0.0]
['beep', 0.0, -190.92860113723293, 0.0, 0.0, 0.0, 0.0, 7194.4230430630505, 0.0]
['beep', 0.0, -186.12297607934192, 0.0, 0.0, 0.0, 0.0, 7207.52116531386, 0.0]
['beep', 0.0, -180.4009294987833, 0.0, 0.0, 0.0, 0.0, 7215.031351450843, 0.0]
['beep', 0.0, -166.94517933668845, 0.0, 0.0, 0.0, 0.0, 7226.676610312058, 0.0]
['beep', 0.0, -161.7595746230572, 0.0, 0.0, 0.0, 0.0, 7233.113912715186, 0.0]
['beep', 0.0, -155.16581000874163, 0.0, 0.0, 0.0, 0.0, 7239.081828484754, 0.0]
['beep', 0.0, -146.18040873770818, 0.0, 0.0, 0.0, 0.0, 7248.804837322812, 0.0]
['beep', 0.0, -139.63134761230322, 0.0, 0.0, 0.0, 0.0, 7251.844674568734, 0.0]
['beep', 0.0, -126.35441140585083, 0.0, 0.0, 0.0, 0.0, 7259.15369500562, 0.0]
['beep', 0.0, -121.25821367004082, 0.0, 0.0, 0.0, 0.0, 7262.238235740452, 0.0]
['beep', 0.0, -51.09608782483195, 0.0, 0.0, 0.0, 0.0, 7349.700611794068, 0.0]
['beep', 0.0, -48.77150640148001, 0.0, 0.0, 0.0, 0.0, 7348.046582704375, 0.0]
['beep', 0.0, -47.4751052230722, 0.0, 0.0, 0.0, 0.0, 7348.001879215465, 0.0]
['beep', 0.0, -49.263244779496766, 0.0, 0.0, 0.0, 0.0, 7346.303146636862, 0.0]
['beep', 0.0, -49.55381745741576, 0.0, 0.0, 0.0, 0.0, 7345.8337600033, 0.0]
['beep', 0.0, -51.118439569287254, 0.0, 0.0, 0.0, 0.0, 7344.179730913607, 0.0]
['beep', 0.0, -52.95128261462243, 0.0, 0.0, 0.0, 0.0, 7340.201120400563, 0.0]
['beep', 0.0, -49.62087269078168, 0.0, 0.0, 0.0, 0.0, 7337.8318354883, 0.0]
['beep', 0.0, -47.94449185663365, 0.0, 0.0, 0.0, 0.0, 7338.4129808441385, 0.0]
['beep', 0.0, -51.43136399166155, 0.0, 0.0, 0.0, 0.0, 7337.8318354883, 0.0]
['beep', 0.0, -49.21854129058615, 0.0, 0.0, 0.0, 0.0, 7334.970812198021, 0.0]
['beep', 0.0, -44.16704704368676, 0.0, 0.0, 0.0, 0.0, 7334.791998242378, 0.0]
['beep', 0.0, -46.692794167136455, 0.0, 0.0, 0.0, 0.0, 7333.942631953077, 0.0]
['beep', 0.0, -50.82786689136826, 0.0, 0.0, 0.0, 0.0, 7334.0096871864425, 0.0]
['beep', 0.0, -51.09608782483195, 0.0, 0.0, 0.0, 0.0, 7336.758951754446, 0.0]
['beep', 0.0, -50.000852346521896, 0.0, 0.0, 0.0, 0.0, 7338.748257010968, 0.0]
['beep', 0.0, -52.2136750475973, 0.0, 0.0, 0.0, 0.0, 7335.149626153663, 0.0]
['beep', 0.0, -50.24672153553028, 0.0, 0.0, 0.0, 0.0, 7334.613184286736, 0.0]
['beep', 0.0, -45.93283485565601, 0.0, 0.0, 0.0, 0.0, 7337.384800599194, 0.0]
['beep', 0.0, -47.25158777851913, 0.0, 0.0, 0.0, 0.0, 7337.697725021569, 0.0]
['beep', 0.0, -50.649052935725805, 0.0, 0.0, 0.0, 0.0, 7335.931937209599, 0.0]
['beep', 0.0, -49.44205873513922, 0.0, 0.0, 0.0, 0.0, 7335.462550576038, 0.0]
['beep', 0.0, -50.6267011912705, 0.0, 0.0, 0.0, 0.0, 7336.133102909697, 0.0]
['beep', 0.0, -54.538256470949236, 0.0, 0.0, 0.0, 0.0, 7335.529605809404, 0.0]
['beep', 0.0, -55.83465764935704, 0.0, 0.0, 0.0, 0.0, 7338.033001188398, 0.0]
['beep', 0.0, -56.03582334945481, 0.0, 0.0, 0.0, 0.0, 7334.747294753468, 0.0]
['beep', 0.0, -57.265169294496694, 0.0, 0.0, 0.0, 0.0, 7333.45089357506, 0.0]
['beep', 0.0, -57.75690767251345, 0.0, 0.0, 0.0, 0.0, 7333.987335441988, 0.0]
['beep', 0.0, -59.88032339576762, 0.0, 0.0, 0.0, 0.0, 7335.440198831582, 0.0]
['beep', 0.0, -56.6393204497481, 0.0, 0.0, 0.0, 0.0, 7335.7084197650465, 0.0]
['beep', 0.0, -51.72193666958054, 0.0, 0.0, 0.0, 0.0, 7336.043695931876, 0.0]
['beep', 0.0, -51.185494802653174, 0.0, 0.0, 0.0, 0.0, 7333.428541830604, 0.0]
['beep', 0.0, -54.13592507075371, 0.0, 0.0, 0.0, 0.0, 7332.8920999636775, 0.0]
['beep', 0.0, -57.6004454613263, 0.0, 0.0, 0.0, 0.0, 7333.0709139193195, 0.0]
['beep', 0.0, -60.97555887407767, 0.0, 0.0, 0.0, 0.0, 7332.35565809675, 0.0]
['beep', 0.0, -57.48868673904977, 0.0, 0.0, 0.0, 0.0, 7333.741466252979, 0.0]
['beep', 0.0, -51.74428841403585, 0.0, 0.0, 0.0, 0.0, 7333.786169741889, 0.0]
['beep', 0.0, -50.917273869189486, 0.0, 0.0, 0.0, 0.0, 7333.629707530703, 0.0]
['beep', 0.0, -54.06886983738779, 0.0, 0.0, 0.0, 0.0, 7334.859053475744, 0.0]
['beep', 0.0, -57.82396290587937, 0.0, 0.0, 0.0, 0.0, 7334.501425564459, 0.0]
['beep', 0.0, -55.49938148252744, 0.0, 0.0, 0.0, 0.0, 7333.45089357506, 0.0]
['beep', 0.0, -51.54312271393809, 0.0, 0.0, 0.0, 0.0, 7334.412018586639, 0.0]
['beep', 0.0, -54.426497748672695, 0.0, 0.0, 0.0, 0.0, 7337.205986643552, 0.0]
['beep', 0.0, -59.25447455101902, 0.0, 0.0, 0.0, 0.0, 7338.055352932854, 0.0]
['beep', 0.0, -60.372061773784374, 0.0, 0.0, 0.0, 0.0, 7338.278870377407, 0.0]
['beep', 0.0, -55.92406462717827, 0.0, 0.0, 0.0, 0.0, 7338.524739566415, 0.0]
['beep', 0.0, -51.96780585858892, 0.0, 0.0, 0.0, 0.0, 7339.396457600172, 0.0]
['beep', 0.0, -55.58878846034867, 0.0, 0.0, 0.0, 0.0, 7339.150588411163, 0.0]
['beep', 0.0, -59.07566059537657, 0.0, 0.0, 0.0, 0.0, 7337.876538977211, 0.0]
['beep', 0.0, -60.72968968506929, 0.0, 0.0, 0.0, 0.0, 7338.792960499878, 0.0]
['beep', 0.0, -57.13105882776485, 0.0, 0.0, 0.0, 0.0, 7341.922204723622, 0.0]
['beep', 0.0, -50.403183746717424, 0.0, 0.0, 0.0, 0.0, 7341.274004134418, 0.0]
['beep', 0.0, -52.437192492150366, 0.0, 0.0, 0.0, 0.0, 7339.016477944431, 0.0]
['beep', 0.0, -58.60627396181512, 0.0, 0.0, 0.0, 0.0, 7337.4742075770155, 0.0]
['beep', 0.0, -56.81813440539055, 0.0, 0.0, 0.0, 0.0, 7339.284698877896, 0.0]
['beep', 0.0, -50.045555835432516, 0.0, 0.0, 0.0, 0.0, 7340.178768656107, 0.0]
['beep', 0.0, -48.39152674573979, 0.0, 0.0, 0.0, 0.0, 7340.178768656107, 0.0]
['beep', 0.0, -50.82786689136826, 0.0, 0.0, 0.0, 0.0, 7339.284698877896, 0.0]
['beep', 0.0, -54.06886983738779, 0.0, 0.0, 0.0, 0.0, 7336.490730820982, 0.0]
['beep', 0.0, -54.895884382234144, 0.0, 0.0, 0.0, 0.0, 7337.07187617682, 0.0]
['beep', 0.0, -53.33126227036265, 0.0, 0.0, 0.0, 0.0, 7338.949422711065, 0.0]
['beep', 0.0, -51.09608782483195, 0.0, 0.0, 0.0, 0.0, 7340.35758261175, 0.0]
['beep', 0.0, -51.40901224720624, 0.0, 0.0, 0.0, 0.0, 7340.73756226749, 0.0]
['beep', 0.0, -52.571302958882214, 0.0, 0.0, 0.0, 0.0, 7341.855149490256, 0.0]
['beep', 0.0, -50.89492212473418, 0.0, 0.0, 0.0, 0.0, 7343.866806491234, 0.0]
['beep', 0.0, -53.755945415013485, 0.0, 0.0, 0.0, 0.0, 7341.07283843432, 0.0]
['beep', 0.0, -54.40414600421739, 0.0, 0.0, 0.0, 0.0, 7340.782265756401, 0.0]
['beep', 0.0, -55.409974504706206, 0.0, 0.0, 0.0, 0.0, 7342.078666934809, 0.0]
['beep', 0.0, -56.75107917202463, 0.0, 0.0, 0.0, 0.0, 7342.011611701443, 0.0]
['beep', 0.0, -54.359442515306775, 0.0, 0.0, 0.0, 0.0, 7342.771571012923, 0.0]
['beep', 0.0, -52.92893087016712, 0.0, 0.0, 0.0, 0.0, 7342.123370423719, 0.0]
['beep', 0.0, -49.82203839087944, 0.0, 0.0, 0.0, 0.0, 7343.330364624306, 0.0]
['beep', 0.0, -46.692794167136455, 0.0, 0.0, 0.0, 0.0, 7340.871672734222, 0.0]
['beep', 0.0, -50.783163402457646, 0.0, 0.0, 0.0, 0.0, 7338.368277355227, 0.0]
['beep', 0.0, -57.10870708330955, 0.0, 0.0, 0.0, 0.0, 7339.754085511457, 0.0]
['beep', 0.0, -54.38179425976208, 0.0, 0.0, 0.0, 0.0, 7340.178768656107, 0.0]
['beep', 0.0, -47.65391917871466, 0.0, 0.0, 0.0, 0.0, 7338.301222121861, 0.0]
['beep', 0.0, -46.692794167136455, 0.0, 0.0, 0.0, 0.0, 7336.3566203542505, 0.0]
['beep', 0.0, -48.883265123756544, 0.0, 0.0, 0.0, 0.0, 7336.960117454543, 0.0]
['beep', 0.0, -50.11261106879844, 0.0, 0.0, 0.0, 0.0, 7338.010649443942, 0.0]
['beep', 0.0, -49.866741879790055, 0.0, 0.0, 0.0, 0.0, 7337.496559321471, 0.0]
['beep', 0.0, -49.75498315751352, 0.0, 0.0, 0.0, 0.0, 7335.574309298314, 0.0]
['beep', 0.0, -48.212712790097335, 0.0, 0.0, 0.0, 0.0, 7335.127274409208, 0.0]
['beep', 0.0, -46.089297066843166, 0.0, 0.0, 0.0, 0.0, 7337.630669788203, 0.0]
['beep', 0.0, -47.676270923169966, 0.0, 0.0, 0.0, 0.0, 7337.429504088105, 0.0]
['beep', 0.0, -43.340032498840394, 0.0, 0.0, 0.0, 0.0, 7339.061181433342, 0.0]
['beep', 0.0, -38.310889996396305, 0.0, 0.0, 0.0, 0.0, 7340.178768656107, 0.0]
['beep', 0.0, -40.12138129727618, 0.0, 0.0, 0.0, 0.0, 7338.278870377407, 0.0]
['beep', 0.0, -46.42457323367277, 0.0, 0.0, 0.0, 0.0, 7338.256518632951, 0.0]
['beep', 0.0, -49.24089303504146, 0.0, 0.0, 0.0, 0.0, 7338.5917947997805, 0.0]
['beep', 0.0, -43.38473598775101, 0.0, 0.0, 0.0, 0.0, 7340.245823889473, 0.0]
['beep', 0.0, -40.65782316420355, 0.0, 0.0, 0.0, 0.0, 7341.497521578971, 0.0]
['beep', 0.0, -36.790971373435426, 0.0, 0.0, 0.0, 0.0, 7340.067009933831, 0.0]
['beep', 0.0, -35.91925333967845, 0.0, 0.0, 0.0, 0.0, 7341.45281809006, 0.0]
['beep', 0.0, -36.790971373435426, 0.0, 0.0, 0.0, 0.0, 7343.598585557769, 0.0]
['beep', 0.0, -37.9756138295667, 0.0, 0.0, 0.0, 0.0, 7343.956213469054, 0.0]
['beep', 0.0, -36.858026606801346, 0.0, 0.0, 0.0, 0.0, 7345.006745458454, 0.0]
['beep', 0.0, -33.10293353830976, 0.0, 0.0, 0.0, 0.0, 7343.352716368761, 0.0]
['beep', 0.0, -33.59467191632652, 0.0, 0.0, 0.0, 0.0, 7344.157379169153, 0.0]
['beep', 0.0, -36.45569520660582, 0.0, 0.0, 0.0, 0.0, 7344.6938210360795, 0.0]
['beep', 0.0, -37.08154405135442, 0.0, 0.0, 0.0, 0.0, 7344.447951847072, 0.0]
['beep', 0.0, -35.98630857304437, 0.0, 0.0, 0.0, 0.0, 7341.743390767979, 0.0]
['beep', 0.0, -34.06405854988796, 0.0, 0.0, 0.0, 0.0, 7344.157379169153, 0.0]
['beep', 0.0, -31.001869559510897, 0.0, 0.0, 0.0, 0.0, 7346.459608848048, 0.0]
['beep', 0.0, -33.46056144959467, 0.0, 0.0, 0.0, 0.0, 7345.699649536568, 0.0]
['beep', 0.0, -38.75792488550245, 0.0, 0.0, 0.0, 0.0, 7343.687992535591, 0.0]
['beep', 0.0, -35.06988705037678, 0.0, 0.0, 0.0, 0.0, 7345.163207669641, 0.0]
['beep', 0.0, -32.87941609375669, 0.0, 0.0, 0.0, 0.0, 7344.492655335982, 0.0]
['beep', 0.0, -35.18164577265332, 0.0, 0.0, 0.0, 0.0, 7344.872634991722, 0.0]
['beep', 0.0, -34.62285216127064, 0.0, 0.0, 0.0, 0.0, 7347.107809437252, 0.0]
['beep', 0.0, -31.784180615446644, 0.0, 0.0, 0.0, 0.0, 7347.443085604083, 0.0]
['beep', 0.0, -30.554834670404755, 0.0, 0.0, 0.0, 0.0, 7345.8337600033, 0.0]
['beep', 0.0, -31.6500701487148, 0.0, 0.0, 0.0, 0.0, 7343.598585557769, 0.0]
['beep', 0.0, -34.10876203879858, 0.0, 0.0, 0.0, 0.0, 7344.336193124795, 0.0]
['beep', 0.0, -35.136942283742705, 0.0, 0.0, 0.0, 0.0, 7345.140855925186, 0.0]
['beep', 0.0, -34.84636960582371, 0.0, 0.0, 0.0, 0.0, 7345.654946047658, 0.0]
['beep', 0.0, -32.2759189934634, 0.0, 0.0, 0.0, 0.0, 7344.492655335982, 0.0]
['beep', 0.0, -31.337145726340502, 0.0, 0.0, 0.0, 0.0, 7343.598585557769, 0.0]
['beep', 0.0, -33.39350621622875, 0.0, 0.0, 0.0, 0.0, 7342.860977990745, 0.0]
['beep', 0.0, -35.56162542839353, 0.0, 0.0, 0.0, 0.0, 7343.687992535591, 0.0]
['beep', 0.0, -33.438209705139364, 0.0, 0.0, 0.0, 0.0, 7343.196254157574, 0.0]
['beep', 0.0, -28.699639880614267, 0.0, 0.0, 0.0, 0.0, 7342.145722168175, 0.0]
['beep', 0.0, -28.96786081407795, 0.0, 0.0, 0.0, 0.0, 7339.597623300269, 0.0]
['beep', 0.0, -33.505264938505285, 0.0, 0.0, 0.0, 0.0, 7338.748257010968, 0.0]
['beep', 0.0, -34.62285216127064, 0.0, 0.0, 0.0, 0.0, 7337.988297699488, 0.0]
['beep', 0.0, -32.41002946019524, 0.0, 0.0, 0.0, 0.0, 7337.9435942105765, 0.0]
['beep', 0.0, -31.6500701487148, 0.0, 0.0, 0.0, 0.0, 7337.027172687909, 0.0]
['beep', 0.0, -31.784180615446644, 0.0, 0.0, 0.0, 0.0, 7335.149626153663, 0.0]
['beep', 0.0, -31.001869559510897, 0.0, 0.0, 0.0, 0.0, 7333.562652297337, 0.0]
['beep', 0.0, -32.67825039365893, 0.0, 0.0, 0.0, 0.0, 7333.763817997435, 0.0]
['beep', 0.0, -33.237044005041604, 0.0, 0.0, 0.0, 0.0, 7332.646230774669, 0.0]
['beep', 0.0, -32.81236086039077, 0.0, 0.0, 0.0, 0.0, 7331.26042261844, 0.0]
['beep', 0.0, -31.203035259608658, 0.0, 0.0, 0.0, 0.0, 7329.986373184487, 0.0]
['beep', 0.0, -33.10293353830976, 0.0, 0.0, 0.0, 0.0, 7331.215719129529, 0.0]
['beep', 0.0, -34.13111378325389, 0.0, 0.0, 0.0, 0.0, 7333.137969152685, 0.0]
['beep', 0.0, -33.70643063860305, 0.0, 0.0, 0.0, 0.0, 7331.26042261844, 0.0]
['beep', 0.0, -31.605366659804186, 0.0, 0.0, 0.0, 0.0, 7331.081608662797, 0.0]
['beep', 0.0, -30.800703859413133, 0.0, 0.0, 0.0, 0.0, 7332.288602863384, 0.0]
['beep', 0.0, -31.203035259608658, 0.0, 0.0, 0.0, 0.0, 7333.897928464166, 0.0]
['beep', 0.0, -33.572320171871205, 0.0, 0.0, 0.0, 0.0, 7334.434370331093, 0.0]
['beep', 0.0, -32.81236086039077, 0.0, 0.0, 0.0, 0.0, 7335.551957553859, 0.0]
['beep', 0.0, -30.82305560386844, 0.0, 0.0, 0.0, 0.0, 7337.496559321471, 0.0]
['beep', 0.0, -29.861930592290236, 0.0, 0.0, 0.0, 0.0, 7336.043695931876, 0.0]
['beep', 0.0, -32.11945678227625, 0.0, 0.0, 0.0, 0.0, 7335.26138487594, 0.0]
['beep', 0.0, -35.06988705037678, 0.0, 0.0, 0.0, 0.0, 7335.820178487323, 0.0]
['beep', 0.0, -34.13111378325389, 0.0, 0.0, 0.0, 0.0, 7337.340097110284, 0.0]
['beep', 0.0, -28.476122436061196, 0.0, 0.0, 0.0, 0.0, 7337.161283154641, 0.0]
['beep', 0.0, -26.71033462409194, 0.0, 0.0, 0.0, 0.0, 7333.45089357506, 0.0]
['beep', 0.0, -31.493607937527653, 0.0, 0.0, 0.0, 0.0, 7334.233204630996, 0.0]
['beep', 0.0, -33.46056144959467, 0.0, 0.0, 0.0, 0.0, 7334.4790738200045, 0.0]
['beep', 0.0, -34.220520761075115, 0.0, 0.0, 0.0, 0.0, 7335.462550576038, 0.0]
['beep', 0.0, -28.14084626923159, 0.0, 0.0, 0.0, 0.0, 7335.864881976233, 0.0]
['beep', 0.0, -24.72102936756961, 0.0, 0.0, 0.0, 0.0, 7331.6627540186355, 0.0]
['beep', 0.0, -25.749209612513738, 0.0, 0.0, 0.0, 0.0, 7332.959155197043, 0.0]
['beep', 0.0, -29.52665442546063, 0.0, 0.0, 0.0, 0.0, 7332.534472052393, 0.0]
['beep', 0.0, -32.052401548910325, 0.0, 0.0, 0.0, 0.0, 7329.896966206667, 0.0]
['beep', 0.0, -27.62675614675953, 0.0, 0.0, 0.0, 0.0, 7328.980544683999, 0.0]
['beep', 0.0, -23.625793889259565, 0.0, 0.0, 0.0, 0.0, 7327.684143505591, 0.0]
['beep', 0.0, -23.625793889259565, 0.0, 0.0, 0.0, 0.0, 7325.761893482434, 0.0]
['beep', 0.0, -27.514997424482996, 0.0, 0.0, 0.0, 0.0, 7323.616126014725, 0.0]
['beep', 0.0, -30.28661373694107, 0.0, 0.0, 0.0, 0.0, 7323.437312059083, 0.0]
['beep', 0.0, -27.067962535376854, 0.0, 0.0, 0.0, 0.0, 7324.845471959767, 0.0]
['beep', 0.0, -25.03395378994391, 0.0, 0.0, 0.0, 0.0, 7323.6831812480905, 0.0]
['beep', 0.0, -25.682154379147814, 0.0, 0.0, 0.0, 0.0, 7324.711361493035, 0.0]
['beep', 0.0, -28.54317766942712, 0.0, 0.0, 0.0, 0.0, 7324.689009748579, 0.0]
['beep', 0.0, -29.101971280809796, 0.0, 0.0, 0.0, 0.0, 7324.174919626108, 0.0]
['beep', 0.0, -26.531520668449485, 0.0, 0.0, 0.0, 0.0, 7325.158396382141, 0.0]
['beep', 0.0, -25.12336076776514, 0.0, 0.0, 0.0, 0.0, 7323.303201592351, 0.0]
['beep', 0.0, -26.062134034888036, 0.0, 0.0, 0.0, 0.0, 7324.174919626108, 0.0]
['beep', 0.0, -27.604404402304223, 0.0, 0.0, 0.0, 0.0, 7326.857128960744, 0.0]
['beep', 0.0, -27.425590446661765, 0.0, 0.0, 0.0, 0.0, 7326.767721982923, 0.0]
['beep', 0.0, -25.592747401326587, 0.0, 0.0, 0.0, 0.0, 7325.247803359963, 0.0]
['beep', 0.0, -24.11753226727632, 0.0, 0.0, 0.0, 0.0, 7326.432445816094, 0.0]
['beep', 0.0, -25.771561356969045, 0.0, 0.0, 0.0, 0.0, 7328.175881883608, 0.0]
['beep', 0.0, -27.000907302010933, 0.0, 0.0, 0.0, 0.0, 7330.8357394737895, 0.0]
['beep', 0.0, -27.135017768742774, 0.0, 0.0, 0.0, 0.0, 7329.047599917365, 0.0]
['beep', 0.0, -24.542215411927156, 0.0, 0.0, 0.0, 0.0, 7327.818253972323, 0.0]
['beep', 0.0, -23.111703766787503, 0.0, 0.0, 0.0, 0.0, 7328.5558615393475, 0.0]
['beep', 0.0, -26.687982879636632, 0.0, 0.0, 0.0, 0.0, 7325.538376037882, 0.0]
['beep', 0.0, -28.07379103586567, 0.0, 0.0, 0.0, 0.0, 7326.298335349362, 0.0]
['beep', 0.0, -28.118494524776285, 0.0, 0.0, 0.0, 0.0, 7326.633611516191, 0.0]
['beep', 0.0, -24.743381112024917, 0.0, 0.0, 0.0, 0.0, 7325.113692893231, 0.0]
['beep', 0.0, -24.11753226727632, 0.0, 0.0, 0.0, 0.0, 7321.291544591373, 0.0]
['beep', 0.0, -26.956203813100316, 0.0, 0.0, 0.0, 0.0, 7317.648210245158, 0.0]
['beep', 0.0, -29.37019221427348, 0.0, 0.0, 0.0, 0.0, 7318.274059089907, 0.0]
['beep', 0.0, -29.37019221427348, 0.0, 0.0, 0.0, 0.0, 7318.274059089907, 0.0]
['beep', 0.0, -28.20790150259751, 0.0, 0.0, 0.0, 0.0, 7318.721093979013, 0.0]
['beep', 0.0, -28.14084626923159, 0.0, 0.0, 0.0, 0.0, 7314.518966021415, 0.0]
['beep', 0.0, -28.23025324705282, 0.0, 0.0, 0.0, 0.0, 7312.931992165089, 0.0]
['beep', 0.0, -29.124323025265102, 0.0, 0.0, 0.0, 0.0, 7314.250745087951, 0.0]
['beep', 0.0, -29.77252361446901, 0.0, 0.0, 0.0, 0.0, 7313.893117176666, 0.0]
['beep', 0.0, -30.42072420367291, 0.0, 0.0, 0.0, 0.0, 7311.479128775493, 0.0]
['beep', 0.0, -29.884282336745542, 0.0, 0.0, 0.0, 0.0, 7308.998085140955, 0.0]
['beep', 0.0, -30.621889903770676, 0.0, 0.0, 0.0, 0.0, 7308.8863264186775, 0.0]
['beep', 0.0, -31.337145726340502, 0.0, 0.0, 0.0, 0.0, 7308.483995018482, 0.0]
['beep', 0.0, -30.28661373694107, 0.0, 0.0, 0.0, 0.0, 7309.713340963524, 0.0]
['beep', 0.0, -28.409067202695276, 0.0, 0.0, 0.0, 0.0, 7308.081663618286, 0.0]
['beep', 0.0, -28.96786081407795, 0.0, 0.0, 0.0, 0.0, 7305.868840917211, 0.0]
['beep', 0.0, -29.83957884783493, 0.0, 0.0, 0.0, 0.0, 7308.148718851652, 0.0]
['beep', 0.0, -29.481950936550017, 0.0, 0.0, 0.0, 0.0, 7311.009742141931, 0.0]
['beep', 0.0, -28.14084626923159, 0.0, 0.0, 0.0, 0.0, 7309.087492118775, 0.0]
['beep', 0.0, -28.96786081407795, 0.0, 0.0, 0.0, 0.0, 7306.964076395521, 0.0]
['beep', 0.0, -26.79974160191317, 0.0, 0.0, 0.0, 0.0, 7306.025303128398, 0.0]
['beep', 0.0, -25.905671823700885, 0.0, 0.0, 0.0, 0.0, 7307.724035707001, 0.0]
['beep', 0.0, -27.649107891214836, 0.0, 0.0, 0.0, 0.0, 7309.579230496792, 0.0]
['beep', 0.0, -27.000907302010933, 0.0, 0.0, 0.0, 0.0, 7310.49565201946, 0.0]
['beep', 0.0, -25.436285190139436, 0.0, 0.0, 0.0, 0.0, 7310.227431085996, 0.0]
['beep', 0.0, -24.072828778365707, 0.0, 0.0, 0.0, 0.0, 7311.21090784203, 0.0]
['beep', 0.0, -23.96107005608917, 0.0, 0.0, 0.0, 0.0, 7310.249782830451, 0.0]
['beep', 0.0, -26.10683752379865, 0.0, 0.0, 0.0, 0.0, 7311.859108431234, 0.0]
['beep', 0.0, -26.39741020171764, 0.0, 0.0, 0.0, 0.0, 7314.49661427696, 0.0]
['beep', 0.0, -24.855139834301454, 0.0, 0.0, 0.0, 0.0, 7315.457739288538, 0.0]
['beep', 0.0, -22.08352352184338, 0.0, 0.0, 0.0, 0.0, 7313.803710198845, 0.0]
['beep', 0.0, -22.709372366591975, 0.0, 0.0, 0.0, 0.0, 7315.5247945219035, 0.0]
['beep', 0.0, -23.89401482272325, 0.0, 0.0, 0.0, 0.0, 7317.268230589418, 0.0]
['beep', 0.0, -24.229290989552855, 0.0, 0.0, 0.0, 0.0, 7317.536451522881, 0.0]
['beep', 0.0, -22.7764275999579, 0.0, 0.0, 0.0, 0.0, 7316.68708523358, 0.0]
['beep', 0.0, -21.90470956620092, 0.0, 0.0, 0.0, 0.0, 7317.0447131448645, 0.0]
['beep', 0.0, -23.849311333812636, 0.0, 0.0, 0.0, 0.0, 7318.855204445745, 0.0]
['beep', 0.0, -27.40323870220646, 0.0, 0.0, 0.0, 0.0, 7318.475224790004, 0.0]
['beep', 0.0, -26.308003223896414, 0.0, 0.0, 0.0, 0.0, 7316.865899189223, 0.0]
['beep', 0.0, -23.871663078267943, 0.0, 0.0, 0.0, 0.0, 7317.78232071189, 0.0]
['beep', 0.0, -27.582052657848916, 0.0, 0.0, 0.0, 0.0, 7314.004875898943, 0.0]
['beep', 0.0, -30.75600037050252, 0.0, 0.0, 0.0, 0.0, 7311.7026462200465, 0.0]
['beep', 0.0, -30.867759092779053, 0.0, 0.0, 0.0, 0.0, 7314.004875898943, 0.0]
['beep', 0.0, -29.52665442546063, 0.0, 0.0, 0.0, 0.0, 7313.177861354096, 0.0]
['beep', 0.0, -27.582052657848916, 0.0, 0.0, 0.0, 0.0, 7310.897983419655, 0.0]
['beep', 0.0, -25.48098867905005, 0.0, 0.0, 0.0, 0.0, 7309.3557130522395, 0.0]
['beep', 0.0, -23.223462489064037, 0.0, 0.0, 0.0, 0.0, 7308.8863264186775, 0.0]
['beep', 0.0, -23.06700027787689, 0.0, 0.0, 0.0, 0.0, 7309.378064796694, 0.0]
['beep', 0.0, -23.379924700251188, 0.0, 0.0, 0.0, 0.0, 7308.953381652043, 0.0]
['beep', 0.0, -21.502378166005393, 0.0, 0.0, 0.0, 0.0, 7309.378064796694, 0.0]
['beep', 0.0, -21.412971188184166, 0.0, 0.0, 0.0, 0.0, 7307.612276984725, 0.0]
['beep', 0.0, -22.21763398857522, 0.0, 0.0, 0.0, 0.0, 7308.863974674222, 0.0]
['beep', 0.0, -24.51986366747185, 0.0, 0.0, 0.0, 0.0, 7308.260477573929, 0.0]
['beep', 0.0, -26.24094799053049, 0.0, 0.0, 0.0, 0.0, 7306.5393932508705, 0.0]
['beep', 0.0, -24.899843323212068, 0.0, 0.0, 0.0, 0.0, 7305.801785683845, 0.0]
['beep', 0.0, -24.072828778365707, 0.0, 0.0, 0.0, 0.0, 7305.086529861275, 0.0]
['beep', 0.0, -24.29634622291878, 0.0, 0.0, 0.0, 0.0, 7304.7736054389015, 0.0]
['beep', 0.0, -25.972727057066805, 0.0, 0.0, 0.0, 0.0, 7303.186631582575, 0.0]
['beep', 0.0, -26.46446543508356, 0.0, 0.0, 0.0, 0.0, 7302.940762393566, 0.0]
['beep', 0.0, -24.072828778365707, 0.0, 0.0, 0.0, 0.0, 7304.281867060884, 0.0]
['beep', 0.0, -23.75990435599141, 0.0, 0.0, 0.0, 0.0, 7303.320742049306, 0.0]
['beep', 0.0, -24.385753200740005, 0.0, 0.0, 0.0, 0.0, 7303.946590894055, 0.0]
['beep', 0.0, -25.749209612513738, 0.0, 0.0, 0.0, 0.0, 7307.634628729181, 0.0]
['beep', 0.0, -24.72102936756961, 0.0, 0.0, 0.0, 0.0, 7309.8250996858005, 0.0]
['beep', 0.0, -23.268165977974654, 0.0, 0.0, 0.0, 0.0, 7307.634628729181, 0.0]
['beep', 0.0, -24.229290989552855, 0.0, 0.0, 0.0, 0.0, 7305.958247895032, 0.0]
['beep', 0.0, -24.87749157875676, 0.0, 0.0, 0.0, 0.0, 7308.126367107197, 0.0]
['beep', 0.0, -25.615099145781894, 0.0, 0.0, 0.0, 0.0, 7311.054445630843, 0.0]
['beep', 0.0, -24.855139834301454, 0.0, 0.0, 0.0, 0.0, 7312.328495064795, 0.0]
['beep', 0.0, -24.005773544999784, 0.0, 0.0, 0.0, 0.0, 7312.887288676177, 0.0]
['beep', 0.0, -22.91053806668974, 0.0, 0.0, 0.0, 0.0, 7313.222564843008, 0.0]
['beep', 0.0, -23.7375526115361, 0.0, 0.0, 0.0, 0.0, 7313.8260619433, 0.0]
['beep', 0.0, -25.726857868058428, 0.0, 0.0, 0.0, 0.0, 7314.451910788049, 0.0]
['beep', 0.0, -24.989250301033294, 0.0, 0.0, 0.0, 0.0, 7313.244916587462, 0.0]
['beep', 0.0, -23.178759000153423, 0.0, 0.0, 0.0, 0.0, 7311.792053197868, 0.0]
['beep', 0.0, -22.44115143312829, 0.0, 0.0, 0.0, 0.0, 7310.987390397477, 0.0]
['beep', 0.0, -21.97176479956684, 0.0, 0.0, 0.0, 0.0, 7311.143852608664, 0.0]
['beep', 0.0, -24.51986366747185, 0.0, 0.0, 0.0, 0.0, 7310.406245041639, 0.0]
['beep', 0.0, -29.59370965882655, 0.0, 0.0, 0.0, 0.0, 7308.752215951946, 0.0]
['beep', 0.0, -30.554834670404755, 0.0, 0.0, 0.0, 0.0, 7304.170108338608, 0.0]
['beep', 0.0, -24.676325878658997, 0.0, 0.0, 0.0, 0.0, 7302.337265293273, 0.0]
['beep', 0.0, -21.97176479956684, 0.0, 0.0, 0.0, 0.0, 7303.030169371387, 0.0]
['beep', 0.0, -28.923157325167338, 0.0, 0.0, 0.0, 0.0, 7303.298390304851, 0.0]
['beep', 0.0, -34.06405854988796, 0.0, 0.0, 0.0, 0.0, 7299.856221658733, 0.0]
['beep', 0.0, -31.18068351515335, 0.0, 0.0, 0.0, 0.0, 7296.7940326683565, 0.0]
['beep', 0.0, -28.118494524776285, 0.0, 0.0, 0.0, 0.0, 7296.145832079153, 0.0]
['beep', 0.0, -27.269128235474618, 0.0, 0.0, 0.0, 0.0, 7294.849430900745, 0.0]
['beep', 0.0, -31.158331770698044, 0.0, 0.0, 0.0, 0.0, 7296.101128590242, 0.0]
['beep', 0.0, -31.51595968198296, 0.0, 0.0, 0.0, 0.0, 7296.30229429034, 0.0]
['beep', 0.0, -29.59370965882655, 0.0, 0.0, 0.0, 0.0, 7295.743500678957, 0.0]
['beep', 0.0, -27.827921846857294, 0.0, 0.0, 0.0, 0.0, 7294.178878567086, 0.0]
['beep', 0.0, -27.939680569133827, 0.0, 0.0, 0.0, 0.0, 7294.558858222826, 0.0]
['beep', 0.0, -29.549006169915938, 0.0, 0.0, 0.0, 0.0, 7295.788204167868, 0.0]
['beep', 0.0, -29.59370965882655, 0.0, 0.0, 0.0, 0.0, 7295.072948345298, 0.0]
['beep', 0.0, -27.894977080223214, 0.0, 0.0, 0.0, 0.0, 7294.983541367476, 0.0]
['beep', 0.0, -26.285651479441107, 0.0, 0.0, 0.0, 0.0, 7294.223582055996, 0.0]
['beep', 0.0, -28.364363713784662, 0.0, 0.0, 0.0, 0.0, 7295.698797190046, 0.0]
['beep', 0.0, -30.487779437038835, 0.0, 0.0, 0.0, 0.0, 7294.961189623022, 0.0]
['beep', 0.0, -29.14667476972041, 0.0, 0.0, 0.0, 0.0, 7295.58703846777, 0.0]
['beep', 0.0, -27.582052657848916, 0.0, 0.0, 0.0, 0.0, 7295.698797190046, 0.0]
['beep', 0.0, -26.531520668449485, 0.0, 0.0, 0.0, 0.0, 7296.034073356876, 0.0]
['beep', 0.0, -26.687982879636632, 0.0, 0.0, 0.0, 0.0, 7298.202192569041, 0.0]
['beep', 0.0, -27.716163124580756, 0.0, 0.0, 0.0, 0.0, 7299.006855369432, 0.0]
['beep', 0.0, -27.738514869036063, 0.0, 0.0, 0.0, 0.0, 7298.135137335675, 0.0]
['beep', 0.0, -26.911500324189703, 0.0, 0.0, 0.0, 0.0, 7296.436404757072, 0.0]
['beep', 0.0, -26.911500324189703, 0.0, 0.0, 0.0, 0.0, 7297.419881513105, 0.0]
['beep', 0.0, -27.91732882467852, 0.0, 0.0, 0.0, 0.0, 7298.336303035772, 0.0]
['beep', 0.0, -29.638413147737165, 0.0, 0.0, 0.0, 0.0, 7299.878573403189, 0.0]
['beep', 0.0, -29.034916047443875, 0.0, 0.0, 0.0, 0.0, 7300.772643181401, 0.0]
['beep', 0.0, -26.062134034888036, 0.0, 0.0, 0.0, 0.0, 7299.699759447546, 0.0]
['beep', 0.0, -24.832788089846147, 0.0, 0.0, 0.0, 0.0, 7300.593829225759, 0.0]
['beep', 0.0, -25.6374508902372, 0.0, 0.0, 0.0, 0.0, 7301.286733303873, 0.0]
['beep', 0.0, -26.732686368547245, 0.0, 0.0, 0.0, 0.0, 7300.035035614376, 0.0]
['beep', 0.0, -26.844445090823783, 0.0, 0.0, 0.0, 0.0, 7299.364483280717, 0.0]
['beep', 0.0, -25.592747401326587, 0.0, 0.0, 0.0, 0.0, 7299.3197797918065, 0.0]
['beep', 0.0, -24.743381112024917, 0.0, 0.0, 0.0, 0.0, 7297.799861168845, 0.0]
['beep', 0.0, -26.352706712807027, 0.0, 0.0, 0.0, 0.0, 7296.123480334697, 0.0]
['beep', 0.0, -28.00673580249975, 0.0, 0.0, 0.0, 0.0, 7297.106957090731, 0.0]
['beep', 0.0, -28.096142780320978, 0.0, 0.0, 0.0, 0.0, 7297.39752976865, 0.0]
['beep', 0.0, -26.375058457262334, 0.0, 0.0, 0.0, 0.0, 7298.202192569041, 0.0]
['beep', 0.0, -25.682154379147814, 0.0, 0.0, 0.0, 0.0, 7299.275076302895, 0.0]
['beep', 0.0, -26.017430545977422, 0.0, 0.0, 0.0, 0.0, 7297.956323380033, 0.0]
['beep', 0.0, -28.61023290279304, 0.0, 0.0, 0.0, 0.0, 7296.7940326683565, 0.0]
['beep', 0.0, -31.04657304842151, 0.0, 0.0, 0.0, 0.0, 7296.279942545884, 0.0]
['beep', 0.0, -29.258433491996946, 0.0, 0.0, 0.0, 0.0, 7298.604523969237, 0.0]
['beep', 0.0, -26.755038113002556, 0.0, 0.0, 0.0, 0.0, 7299.833869914279, 0.0]
['beep', 0.0, -27.91732882467852, 0.0, 0.0, 0.0, 0.0, 7296.883439646178, 0.0]
['beep', 0.0, -29.4372474476394, 0.0, 0.0, 0.0, 0.0, 7298.760986180424, 0.0]
['beep', 0.0, -29.30313698090756, 0.0, 0.0, 0.0, 0.0, 7302.069044359809, 0.0]
['beep', 0.0, -28.54317766942712, 0.0, 0.0, 0.0, 0.0, 7302.560782737825, 0.0]
['beep', 0.0, -27.179721257653387, 0.0, 0.0, 0.0, 0.0, 7302.180803082086, 0.0]
['beep', 0.0, -27.40323870220646, 0.0, 0.0, 0.0, 0.0, 7303.96894263851, 0.0]
['beep', 0.0, -29.951337570111463, 0.0, 0.0, 0.0, 0.0, 7305.354750794739, 0.0]
['beep', 0.0, -29.01256430298857, 0.0, 0.0, 0.0, 0.0, 7307.321704306806, 0.0]
['beep', 0.0, -27.09031427983216, 0.0, 0.0, 0.0, 0.0, 7308.327532807295, 0.0]
['beep', 0.0, -25.548043912415974, 0.0, 0.0, 0.0, 0.0, 7309.802747941345, 0.0]
['beep', 0.0, -26.017430545977422, 0.0, 0.0, 0.0, 0.0, 7310.093320619264, 0.0]
['beep', 0.0, -27.24677649101931, 0.0, 0.0, 0.0, 0.0, 7312.037922386876, 0.0]
['beep', 0.0, -28.744343369524884, 0.0, 0.0, 0.0, 0.0, 7312.797881698357, 0.0]
['beep', 0.0, -27.179721257653387, 0.0, 0.0, 0.0, 0.0, 7312.127329364697, 0.0]
['beep', 0.0, -25.726857868058428, 0.0, 0.0, 0.0, 0.0, 7310.607410741736, 0.0]
['beep', 0.0, -25.79391310142435, 0.0, 0.0, 0.0, 0.0, 7311.188556097574, 0.0]
['beep', 0.0, -26.2632997349858, 0.0, 0.0, 0.0, 0.0, 7311.456777031038, 0.0]
['beep', 0.0, -27.78321835794668, 0.0, 0.0, 0.0, 0.0, 7310.026265385898, 0.0]
['beep', 0.0, -27.40323870220646, 0.0, 0.0, 0.0, 0.0, 7311.345018308762, 0.0]
['beep', 0.0, -29.52665442546063, 0.0, 0.0, 0.0, 0.0, 7307.299352562351, 0.0]
['beep', 0.0, -33.12528528276507, 0.0, 0.0, 0.0, 0.0, 7302.717244949013, 0.0]
['beep', 0.0, -30.95716607060028, 0.0, 0.0, 0.0, 0.0, 7302.694893204558, 0.0]
['beep', 0.0, -27.649107891214836, 0.0, 0.0, 0.0, 0.0, 7305.131233350186, 0.0]
['beep', 0.0, -29.750171870013702, 0.0, 0.0, 0.0, 0.0, 7305.511213005926, 0.0]
['beep', 0.0, -29.392543958728787, 0.0, 0.0, 0.0, 0.0, 7305.287695561373, 0.0]
['beep', 0.0, -33.84054110533489, 0.0, 0.0, 0.0, 0.0, 7305.578268239292, 0.0]
['beep', 0.0, -37.08154405135442, 0.0, 0.0, 0.0, 0.0, 7303.566611238314, 0.0]
['beep', 0.0, -37.0368405624438, 0.0, 0.0, 0.0, 0.0, 7303.410149027128, 0.0]
['beep', 0.0, -33.99700331652204, 0.0, 0.0, 0.0, 0.0, 7304.974771138999, 0.0]
['beep', 0.0, -32.67825039365893, 0.0, 0.0, 0.0, 0.0, 7304.080701360786, 0.0]
['beep', 0.0, -33.32645098286283, 0.0, 0.0, 0.0, 0.0, 7306.405282784139, 0.0]
['beep', 0.0, -35.04753530592147, 0.0, 0.0, 0.0, 0.0, 7306.002951383943, 0.0]
['beep', 0.0, -35.71808763958069, 0.0, 0.0, 0.0, 0.0, 7306.517041506415, 0.0]
['beep', 0.0, -33.72878238305836, 0.0, 0.0, 0.0, 0.0, 7305.354750794739, 0.0]
['beep', 0.0, -33.8628928497902, 0.0, 0.0, 0.0, 0.0, 7304.617143227714, 0.0]
['beep', 0.0, -34.24287250553042, 0.0, 0.0, 0.0, 0.0, 7305.578268239292, 0.0]
['beep', 0.0, -36.45569520660582, 0.0, 0.0, 0.0, 0.0, 7306.405282784139, 0.0]
['beep', 0.0, -37.126247540265034, 0.0, 0.0, 0.0, 0.0, 7306.919372906611, 0.0]
['beep', 0.0, -36.187474273142136, 0.0, 0.0, 0.0, 0.0, 7306.315875806317, 0.0]
['beep', 0.0, -34.5110934389941, 0.0, 0.0, 0.0, 0.0, 7305.287695561373, 0.0]
['beep', 0.0, -36.03101206195498, 0.0, 0.0, 0.0, 0.0, 7305.958247895032, 0.0]
['beep', 0.0, -38.35559348530692, 0.0, 0.0, 0.0, 0.0, 7305.868840917211, 0.0]
['beep', 0.0, -37.930910340656084, 0.0, 0.0, 0.0, 0.0, 7304.617143227714, 0.0]
['beep', 0.0, -36.63450916224828, 0.0, 0.0, 0.0, 0.0, 7303.343093793762, 0.0]
['beep', 0.0, -36.120419039776216, 0.0, 0.0, 0.0, 0.0, 7301.420843770605, 0.0]
['beep', 0.0, -37.14859928472034, 0.0, 0.0, 0.0, 0.0, 7301.711416448524, 0.0]
['beep', 0.0, -38.35559348530692, 0.0, 0.0, 0.0, 0.0, 7302.963114138021, 0.0]
['beep', 0.0, -37.126247540265034, 0.0, 0.0, 0.0, 0.0, 7303.857183916233, 0.0]
['beep', 0.0, -35.874549850767835, 0.0, 0.0, 0.0, 0.0, 7303.097224604753, 0.0]
['beep', 0.0, -34.488741694538795, 0.0, 0.0, 0.0, 0.0, 7300.705587948035, 0.0]
['beep', 0.0, -34.62285216127064, 0.0, 0.0, 0.0, 0.0, 7301.286733303873, 0.0]
['beep', 0.0, -38.35559348530692, 0.0, 0.0, 0.0, 0.0, 7302.6054862267365, 0.0]
['beep', 0.0, -39.093201052332056, 0.0, 0.0, 0.0, 0.0, 7302.761948437924, 0.0]
['beep', 0.0, -37.05919230689911, 0.0, 0.0, 0.0, 0.0, 7301.420843770605, 0.0]
['beep', 0.0, -37.30506149590749, 0.0, 0.0, 0.0, 0.0, 7301.554954237337, 0.0]
['beep', 0.0, -36.61215741779297, 0.0, 0.0, 0.0, 0.0, 7301.957285637533, 0.0]
['beep', 0.0, -37.997965574022004, 0.0, 0.0, 0.0, 0.0, 7302.650189715647, 0.0]
['beep', 0.0, -37.6626894071924, 0.0, 0.0, 0.0, 0.0, 7306.204117084041, 0.0]
['beep', 0.0, -35.449866706117, 0.0, 0.0, 0.0, 0.0, 7306.919372906611, 0.0]
['beep', 0.0, -34.10876203879858, 0.0, 0.0, 0.0, 0.0, 7307.9475531515545, 0.0]
['beep', 0.0, -34.421686461172875, 0.0, 0.0, 0.0, 0.0, 7307.9475531515545, 0.0]
['beep', 0.0, -34.53344518344941, 0.0, 0.0, 0.0, 0.0, 7309.042788629865, 0.0]
['beep', 0.0, -35.06988705037678, 0.0, 0.0, 0.0, 0.0, 7310.719169464013, 0.0]
['beep', 0.0, -33.01352656048853, 0.0, 0.0, 0.0, 0.0, 7311.076797375298, 0.0]
['beep', 0.0, -31.135980026242738, 0.0, 0.0, 0.0, 0.0, 7310.719169464013, 0.0]
['beep', 0.0, -32.43238120465055, 0.0, 0.0, 0.0, 0.0, 7312.552012509348, 0.0]
['beep', 0.0, -33.12528528276507, 0.0, 0.0, 0.0, 0.0, 7313.5801927542925, 0.0]
['beep', 0.0, -33.84054110533489, 0.0, 0.0, 0.0, 0.0, 7315.837718944278, 0.0]
['beep', 0.0, -33.01352656048853, 0.0, 0.0, 0.0, 0.0, 7316.016532899921, 0.0]
['beep', 0.0, -31.27009049297458, 0.0, 0.0, 0.0, 0.0, 7314.630724743692, 0.0]
['beep', 0.0, -31.672421893170107, 0.0, 0.0, 0.0, 0.0, 7315.614201499725, 0.0]
['beep', 0.0, -33.79583761642428, 0.0, 0.0, 0.0, 0.0, 7316.910602678133, 0.0]
['beep', 0.0, -32.74530562702485, 0.0, 0.0, 0.0, 0.0, 7317.8046724563455, 0.0]
['beep', 0.0, -30.711296881591903, 0.0, 0.0, 0.0, 0.0, 7317.536451522881, 0.0]
['beep', 0.0, -29.034916047443875, 0.0, 0.0, 0.0, 0.0, 7319.25753584594, 0.0]
['beep', 0.0, -32.11945678227625, 0.0, 0.0, 0.0, 0.0, 7316.7541404669455, 0.0]
['beep', 0.0, -35.96395682858906, 0.0, 0.0, 0.0, 0.0, 7313.133157865186, 0.0]
['beep', 0.0, -39.80845687490188, 0.0, 0.0, 0.0, 0.0, 7314.2283933434965, 0.0]
['beep', 0.0, -39.47318070807227, 0.0, 0.0, 0.0, 0.0, 7314.183689854585, 0.0]
['beep', 0.0, -34.39933471671757, 0.0, 0.0, 0.0, 0.0, 7312.395550298161, 0.0]
['beep', 0.0, -37.126247540265034, 0.0, 0.0, 0.0, 0.0, 7313.177861354096, 0.0]
['beep', 0.0, -43.16121854319794, 0.0, 0.0, 0.0, 0.0, 7314.116634621219, 0.0]
['beep', 0.0, -40.65782316420355, 0.0, 0.0, 0.0, 0.0, 7312.6414194871695, 0.0]
['beep', 0.0, -36.83567486234604, 0.0, 0.0, 0.0, 0.0, 7310.562707252826, 0.0]
['beep', 0.0, -38.66851790768122, 0.0, 0.0, 0.0, 0.0, 7312.373198553705, 0.0]
['beep', 0.0, -37.528578940460555, 0.0, 0.0, 0.0, 0.0, 7312.68612297608, 0.0]
['beep', 0.0, -34.77931437245779, 0.0, 0.0, 0.0, 0.0, 7312.574364253804, 0.0]
['beep', 0.0, -36.29923299541867, 0.0, 0.0, 0.0, 0.0, 7312.5296607648925, 0.0]
['beep', 0.0, -40.76958188648008, 0.0, 0.0, 0.0, 0.0, 7312.082625875786, 0.0]
['beep', 0.0, -41.216616775586225, 0.0, 0.0, 0.0, 0.0, 7311.948515409054, 0.0]
['beep', 0.0, -40.05432606391025, 0.0, 0.0, 0.0, 0.0, 7311.25561133094, 0.0]
['beep', 0.0, -40.05432606391025, 0.0, 0.0, 0.0, 0.0, 7311.434425286583, 0.0]
['beep', 0.0, -41.61894817578175, 0.0, 0.0, 0.0, 0.0, 7311.121500864208, 0.0]
['beep', 0.0, -40.76958188648008, 0.0, 0.0, 0.0, 0.0, 7311.345018308762, 0.0]
['beep', 0.0, -39.38377373025104, 0.0, 0.0, 0.0, 0.0, 7310.227431085996, 0.0]
['beep', 0.0, -39.94256734163372, 0.0, 0.0, 0.0, 0.0, 7309.489823518971, 0.0]
['beep', 0.0, -42.15539004270912, 0.0, 0.0, 0.0, 0.0, 7309.333361307784, 0.0]
['beep', 0.0, -42.17774178716443, 0.0, 0.0, 0.0, 0.0, 7309.78039619689, 0.0]
['beep', 0.0, -40.72487839756947, 0.0, 0.0, 0.0, 0.0, 7308.931029907589, 0.0]
['beep', 0.0, -40.45665746410578, 0.0, 0.0, 0.0, 0.0, 7307.411111284628, 0.0]
['beep', 0.0, -40.76958188648008, 0.0, 0.0, 0.0, 0.0, 7307.500518262448, 0.0]
['beep', 0.0, -42.0883348093432, 0.0, 0.0, 0.0, 0.0, 7307.992256640466, 0.0]
['beep', 0.0, -42.065983064887895, 0.0, 0.0, 0.0, 0.0, 7307.9252014071, 0.0]
['beep', 0.0, -41.4624859645946, 0.0, 0.0, 0.0, 0.0, 7307.142890351163, 0.0]
['beep', 0.0, -38.06502080738793, 0.0, 0.0, 0.0, 0.0, 7306.0700066173085, 0.0]
['beep', 0.0, -37.573282429371176, 0.0, 0.0, 0.0, 0.0, 7306.248820572951, 0.0]
['beep', 0.0, -39.20495977460859, 0.0, 0.0, 0.0, 0.0, 7305.690026961569, 0.0]
['beep', 0.0, -41.19426503113092, 0.0, 0.0, 0.0, 0.0, 7305.8911926616665, 0.0]
['beep', 0.0, -39.450828963616964, 0.0, 0.0, 0.0, 0.0, 7306.762910695424, 0.0]
['beep', 0.0, -38.310889996396305, 0.0, 0.0, 0.0, 0.0, 7306.919372906611, 0.0]
['beep', 0.0, -39.38377373025104, 0.0, 0.0, 0.0, 0.0, 7306.628800228692, 0.0]
['beep', 0.0, -41.17191328667561, 0.0, 0.0, 0.0, 0.0, 7308.059311873832, 0.0]
['beep', 0.0, -40.88134060875662, 0.0, 0.0, 0.0, 0.0, 7307.20994558453, 0.0]
['beep', 0.0, -38.82498011886837, 0.0, 0.0, 0.0, 0.0, 7307.031131628887, 0.0]
['beep', 0.0, -36.0757155508656, 0.0, 0.0, 0.0, 0.0, 7308.506346762937, 0.0]
['beep', 0.0, -37.126247540265034, 0.0, 0.0, 0.0, 0.0, 7308.193422340563, 0.0]
['beep', 0.0, -38.04266906293262, 0.0, 0.0, 0.0, 0.0, 7309.623933985703, 0.0]
['beep', 0.0, -38.82498011886837, 0.0, 0.0, 0.0, 0.0, 7310.16037585263, 0.0]
['beep', 0.0, -37.0368405624438, 0.0, 0.0, 0.0, 0.0, 7310.294486319362, 0.0]
['beep', 0.0, -36.43334346215051, 0.0, 0.0, 0.0, 0.0, 7309.109843863231, 0.0]
['beep', 0.0, -36.589805673337665, 0.0, 0.0, 0.0, 0.0, 7308.64045722967, 0.0]
['beep', 0.0, -36.90273009571196, 0.0, 0.0, 0.0, 0.0, 7310.562707252826, 0.0]
['beep', 0.0, -38.62381441877061, 0.0, 0.0, 0.0, 0.0, 7312.01557064242, 0.0]
['beep', 0.0, -37.193302773630954, 0.0, 0.0, 0.0, 0.0, 7312.887288676177, 0.0]
['beep', 0.0, -36.20982601759744, 0.0, 0.0, 0.0, 0.0, 7310.696817719558, 0.0]
['beep', 0.0, -37.193302773630954, 0.0, 0.0, 0.0, 0.0, 7313.06610263182, 0.0]
['beep', 0.0, -38.847331863323674, 0.0, 0.0, 0.0, 0.0, 7314.630724743692, 0.0]
['beep', 0.0, -38.445000463128146, 0.0, 0.0, 0.0, 0.0, 7314.854242188245, 0.0]
['beep', 0.0, -36.81332311789073, 0.0, 0.0, 0.0, 0.0, 7315.167166610619, 0.0]
['beep', 0.0, -35.82984636185722, 0.0, 0.0, 0.0, 0.0, 7314.809538699334, 0.0]
['beep', 0.0, -35.00283181701086, 0.0, 0.0, 0.0, 0.0, 7316.150643366653, 0.0]
['beep', 0.0, -36.52275043997174, 0.0, 0.0, 0.0, 0.0, 7316.374160811206, 0.0]
['beep', 0.0, -37.08154405135442, 0.0, 0.0, 0.0, 0.0, 7317.469396289515, 0.0]
['beep', 0.0, -37.05919230689911, 0.0, 0.0, 0.0, 0.0, 7317.223527100507, 0.0]
['beep', 0.0, -35.472218450572306, 0.0, 0.0, 0.0, 0.0, 7316.821195700311, 0.0]
['beep', 0.0, -35.38281147275108, 0.0, 0.0, 0.0, 0.0, 7317.938782923077, 0.0]
['beep', 0.0, -37.05919230689911, 0.0, 0.0, 0.0, 0.0, 7317.648210245158, 0.0]
['beep', 0.0, -37.86385510729016, 0.0, 0.0, 0.0, 0.0, 7316.955306167043, 0.0]
['beep', 0.0, -37.68504115164771, 0.0, 0.0, 0.0, 0.0, 7316.508271277938, 0.0]
['beep', 0.0, -34.71225913909187, 0.0, 0.0, 0.0, 0.0, 7315.144814866164, 0.0]
['beep', 0.0, -34.68990739463656, 0.0, 0.0, 0.0, 0.0, 7316.776492211401, 0.0]
['beep', 0.0, -35.807494617401915, 0.0, 0.0, 0.0, 0.0, 7316.508271277938, 0.0]
['beep', 0.0, -36.925081840167266, 0.0, 0.0, 0.0, 0.0, 7316.061236388831, 0.0]
['beep', 0.0, -34.44403820562818, 0.0, 0.0, 0.0, 0.0, 7317.581155011792, 0.0]
['beep', 0.0, -33.12528528276507, 0.0, 0.0, 0.0, 0.0, 7316.68708523358, 0.0]
['beep', 0.0, -33.25939574949691, 0.0, 0.0, 0.0, 0.0, 7316.821195700311, 0.0]
['beep', 0.0, -34.86872135027902, 0.0, 0.0, 0.0, 0.0, 7317.6929137340685, 0.0]
['beep', 0.0, -35.136942283742705, 0.0, 0.0, 0.0, 0.0, 7317.089416633776, 0.0]
['beep', 0.0, -31.80653235990195, 0.0, 0.0, 0.0, 0.0, 7317.603506756247, 0.0]
['beep', 0.0, -29.884282336745542, 0.0, 0.0, 0.0, 0.0, 7316.68708523358, 0.0]
['beep', 0.0, -30.443075948128218, 0.0, 0.0, 0.0, 0.0, 7317.73761722298, 0.0]
['beep', 0.0, -32.11945678227625, 0.0, 0.0, 0.0, 0.0, 7320.330419579795, 0.0]
['beep', 0.0, -31.04657304842151, 0.0, 0.0, 0.0, 0.0, 7321.470358547015, 0.0]
['beep', 0.0, -29.258433491996946, 0.0, 0.0, 0.0, 0.0, 7320.375123068706, 0.0]
['beep', 0.0, -28.878453836256725, 0.0, 0.0, 0.0, 0.0, 7321.090378891276, 0.0]
['beep', 0.0, -30.018392803477386, 0.0, 0.0, 0.0, 0.0, 7322.6773527476025, 0.0]
['beep', 0.0, -32.2759189934634, 0.0, 0.0, 0.0, 0.0, 7324.152567881652, 0.0]
['beep', 0.0, -32.20886376009748, 0.0, 0.0, 0.0, 0.0, 7325.337210337783, 0.0]
['beep', 0.0, -31.091276537332124, 0.0, 0.0, 0.0, 0.0, 7323.861995203733, 0.0]
['beep', 0.0, -29.884282336745542, 0.0, 0.0, 0.0, 0.0, 7322.587945769781, 0.0]
['beep', 0.0, -30.59953815931537, 0.0, 0.0, 0.0, 0.0, 7324.9125271931325, 0.0]
['beep', 0.0, -32.54413992692708, 0.0, 0.0, 0.0, 0.0, 7326.410094071638, 0.0]
['beep', 0.0, -31.135980026242738, 0.0, 0.0, 0.0, 0.0, 7326.588908027281, 0.0]
['beep', 0.0, -29.884282336745542, 0.0, 0.0, 0.0, 0.0, 7328.064123161331, 0.0]
['beep', 0.0, -28.76669511398019, 0.0, 0.0, 0.0, 0.0, 7327.63944001668, 0.0]
['beep', 0.0, -28.654936391703654, 0.0, 0.0, 0.0, 0.0, 7327.460626061038, 0.0]
['beep', 0.0, -29.01256430298857, 0.0, 0.0, 0.0, 0.0, 7327.348867338761, 0.0]
['beep', 0.0, -28.76669511398019, 0.0, 0.0, 0.0, 0.0, 7327.035942916387, 0.0]
['beep', 0.0, -33.01352656048853, 0.0, 0.0, 0.0, 0.0, 7325.471320804516, 0.0]
['beep', 0.0, -33.34880272731814, 0.0, 0.0, 0.0, 0.0, 7321.157434124641, 0.0]
['beep', 0.0, -30.644241648225982, 0.0, 0.0, 0.0, 0.0, 7316.418864300116, 0.0]
['beep', 0.0, -29.884282336745542, 0.0, 0.0, 0.0, 0.0, 7314.4072072991385, 0.0]
['beep', 0.0, -26.889148579734396, 0.0, 0.0, 0.0, 0.0, 7312.708474720535, 0.0]
['beep', 0.0, -27.649107891214836, 0.0, 0.0, 0.0, 0.0, 7307.58992524027, 0.0]
['beep', 0.0, -31.135980026242738, 0.0, 0.0, 0.0, 0.0, 7302.851355415744, 0.0]
['beep', 0.0, -29.817227103379622, 0.0, 0.0, 0.0, 0.0, 7301.174974581597, 0.0]
['beep', 0.0, -26.509168923994178, 0.0, 0.0, 0.0, 0.0, 7299.923276892099, 0.0]
['beep', 0.0, -27.8502735913126, 0.0, 0.0, 0.0, 0.0, 7298.6715792026025, 0.0]
['beep', 0.0, -30.040744547932693, 0.0, 0.0, 0.0, 0.0, 7297.464585002016, 0.0]
['beep', 0.0, -25.86096833479027, 0.0, 0.0, 0.0, 0.0, 7296.011721612421, 0.0]
['beep', 0.0, -24.341049711829392, 0.0, 0.0, 0.0, 0.0, 7295.6764454455915, 0.0]
['beep', 0.0, -25.41393344568413, 0.0, 0.0, 0.0, 0.0, 7295.296465789851, 0.0]
['beep', 0.0, -28.67728813615896, 0.0, 0.0, 0.0, 0.0, 7294.558858222826, 0.0]
['beep', 0.0, -26.24094799053049, 0.0, 0.0, 0.0, 0.0, 7294.648265200647, 0.0]
['beep', 0.0, -24.408104945195312, 0.0, 0.0, 0.0, 0.0, 7292.189573310563, 0.0]
['beep', 0.0, -24.095180522821014, 0.0, 0.0, 0.0, 0.0, 7293.307160533329, 0.0]
['beep', 0.0, -25.302174723407596, 0.0, 0.0, 0.0, 0.0, 7294.514154733915, 0.0]
['beep', 0.0, -26.844445090823783, 0.0, 0.0, 0.0, 0.0, 7295.63174195668, 0.0]
['beep', 0.0, -26.062134034888036, 0.0, 0.0, 0.0, 0.0, 7294.268285544907, 0.0]
['beep', 0.0, -24.631622389748383, 0.0, 0.0, 0.0, 0.0, 7293.888305889167, 0.0]
['beep', 0.0, -25.41393344568413, 0.0, 0.0, 0.0, 0.0, 7294.514154733915, 0.0]
['beep', 0.0, -27.8502735913126, 0.0, 0.0, 0.0, 0.0, 7294.9164861341105, 0.0]
['beep', 0.0, -27.872625335767907, 0.0, 0.0, 0.0, 0.0, 7296.369349523706, 0.0]
['beep', 0.0, -25.749209612513738, 0.0, 0.0, 0.0, 0.0, 7296.235239056974, 0.0]
['beep', 0.0, -22.999945044510966, 0.0, 0.0, 0.0, 0.0, 7295.810555912323, 0.0]
['beep', 0.0, -22.7764275999579, 0.0, 0.0, 0.0, 0.0, 7295.832907656778, 0.0]
['beep', 0.0, -24.81043634539084, 0.0, 0.0, 0.0, 0.0, 7295.6764454455915, 0.0]
['beep', 0.0, -25.57039565687128, 0.0, 0.0, 0.0, 0.0, 7295.967018123511, 0.0]
['beep', 0.0, -24.162235756186934, 0.0, 0.0, 0.0, 0.0, 7296.011721612421, 0.0]
['beep', 0.0, -21.189453743631095, 0.0, 0.0, 0.0, 0.0, 7295.452928001038, 0.0]
['beep', 0.0, -21.949413055111535, 0.0, 0.0, 0.0, 0.0, 7296.369349523706, 0.0]
['beep', 0.0, -22.08352352184338, 0.0, 0.0, 0.0, 0.0, 7296.816384412812, 0.0]
['beep', 0.0, -22.66466887768136, 0.0, 0.0, 0.0, 0.0, 7295.408224512127, 0.0]
['beep', 0.0, -21.725895610558464, 0.0, 0.0, 0.0, 0.0, 7293.843602400256, 0.0]
['beep', 0.0, -20.38479094324004, 0.0, 0.0, 0.0, 0.0, 7293.217753555507, 0.0]
['beep', 0.0, -21.278860721452325, 0.0, 0.0, 0.0, 0.0, 7291.25080004344, 0.0]
['beep', 0.0, -22.84348283332382, 0.0, 0.0, 0.0, 0.0, 7291.720186677002, 0.0]
['beep', 0.0, -23.06700027787689, 0.0, 0.0, 0.0, 0.0, 7293.06129134432, 0.0]
['beep', 0.0, -21.658840377192544, 0.0, 0.0, 0.0, 0.0, 7291.988407610465, 0.0]
['beep', 0.0, -19.311907209385303, 0.0, 0.0, 0.0, 0.0, 7289.149736064642, 0.0]
['beep', 0.0, -19.356610698295917, 0.0, 0.0, 0.0, 0.0, 7290.9825791099765, 0.0]
['beep', 0.0, -21.100046765809868, 0.0, 0.0, 0.0, 0.0, 7292.770718666401, 0.0]
['beep', 0.0, -19.960107798589206, 0.0, 0.0, 0.0, 0.0, 7291.295503532351, 0.0]
['beep', 0.0, -20.049514776410437, 0.0, 0.0, 0.0, 0.0, 7289.932047120577, 0.0]
['beep', 0.0, -19.356610698295917, 0.0, 0.0, 0.0, 0.0, 7289.417956998105, 0.0]
['beep', 0.0, -19.24485197601938, 0.0, 0.0, 0.0, 0.0, 7288.546238964348, 0.0]
['beep', 0.0, -21.100046765809868, 0.0, 0.0, 0.0, 0.0, 7288.725052919991, 0.0]
['beep', 0.0, -22.754075855502588, 0.0, 0.0, 0.0, 0.0, 7289.552067464837, 0.0]
['beep', 0.0, -22.239985733030526, 0.0, 0.0, 0.0, 0.0, 7289.172087809096, 0.0]
['beep', 0.0, -21.055343276899254, 0.0, 0.0, 0.0, 0.0, 7289.552067464837, 0.0]
['beep', 0.0, -20.273032220963504, 0.0, 0.0, 0.0, 0.0, 7290.714358176513, 0.0]
['beep', 0.0, -22.1505787552093, 0.0, 0.0, 0.0, 0.0, 7290.066157587309, 0.0]
['beep', 0.0, -21.480026421550086, 0.0, 0.0, 0.0, 0.0, 7291.094337832254, 0.0]
['beep', 0.0, -21.100046765809868, 0.0, 0.0, 0.0, 0.0, 7292.457794244027, 0.0]
['beep', 0.0, -18.820168831368548, 0.0, 0.0, 0.0, 0.0, 7292.055462843831, 0.0]
['beep', 0.0, -19.602479887304295, 0.0, 0.0, 0.0, 0.0, 7289.552067464837, 0.0]
['beep', 0.0, -21.524729910460703, 0.0, 0.0, 0.0, 0.0, 7292.033111099376, 0.0]
['beep', 0.0, -20.69771536561434, 0.0, 0.0, 0.0, 0.0, 7293.284808788873, 0.0]
['beep', 0.0, -20.496549665516575, 0.0, 0.0, 0.0, 0.0, 7292.770718666401, 0.0]
['beep', 0.0, -18.395485686717713, 0.0, 0.0, 0.0, 0.0, 7293.821250655801, 0.0]
['beep', 0.0, -18.686058364636704, 0.0, 0.0, 0.0, 0.0, 7294.6259134561915, 0.0]
['beep', 0.0, -21.994116544022148, 0.0, 0.0, 0.0, 0.0, 7295.072948345298, 0.0]
['beep', 0.0, -22.552910155404827, 0.0, 0.0, 0.0, 0.0, 7295.5646867233145, 0.0]
['beep', 0.0, -22.105875266298685, 0.0, 0.0, 0.0, 0.0, 7296.525811734893, 0.0]
['beep', 0.0, -20.78712234343557, 0.0, 0.0, 0.0, 0.0, 7296.928143135088, 0.0]
['beep', 0.0, -20.92123281016741, 0.0, 0.0, 0.0, 0.0, 7296.168183823608, 0.0]
['beep', 0.0, -23.335221211340574, 0.0, 0.0, 0.0, 0.0, 7297.486936746471, 0.0]
['beep', 0.0, -23.446979933617108, 0.0, 0.0, 0.0, 0.0, 7298.716282691513, 0.0]
['beep', 0.0, -21.792950843924388, 0.0, 0.0, 0.0, 0.0, 7299.476242002994, 0.0]
['beep', 0.0, -20.16127349868697, 0.0, 0.0, 0.0, 0.0, 7300.057387358831, 0.0]
['beep', 0.0, -20.362439198784735, 0.0, 0.0, 0.0, 0.0, 7299.655055958636, 0.0]
['beep', 0.0, -20.653011876703726, 0.0, 0.0, 0.0, 0.0, 7303.343093793762, 0.0]
['beep', 0.0, -20.943584554622717, 0.0, 0.0, 0.0, 0.0, 7305.131233350186, 0.0]
['beep', 0.0, -19.378962442751224, 0.0, 0.0, 0.0, 0.0, 7303.901887405144, 0.0]
['beep', 0.0, -17.568471141871353, 0.0, 0.0, 0.0, 0.0, 7303.164279838119, 0.0]
['beep', 0.0, -17.143787997220517, 0.0, 0.0, 0.0, 0.0, 7303.946590894055, 0.0]
['beep', 0.0, -19.915404309678593, 0.0, 0.0, 0.0, 0.0, 7305.153585094641, 0.0]
['beep', 0.0, -21.502378166005393, 0.0, 0.0, 0.0, 0.0, 7306.964076395521, 0.0]
['beep', 0.0, -18.216671731075255, 0.0, 0.0, 0.0, 0.0, 7308.059311873832, 0.0]
['beep', 0.0, -17.300250208407668, 0.0, 0.0, 0.0, 0.0, 7308.193422340563, 0.0]
['beep', 0.0, -16.96497404157806, 0.0, 0.0, 0.0, 0.0, 7309.221602585507, 0.0]
['beep', 0.0, -17.59082288632666, 0.0, 0.0, 0.0, 0.0, 7310.383893297183, 0.0]
['beep', 0.0, -19.200148487108766, 0.0, 0.0, 0.0, 0.0, 7312.708474720535, 0.0]
['beep', 0.0, -16.74145659702499, 0.0, 0.0, 0.0, 0.0, 7312.261439831429, 0.0]
['beep', 0.0, -15.06507576287696, 0.0, 0.0, 0.0, 0.0, 7313.4684340320155, 0.0]
['beep', 0.0, -16.294421707918847, 0.0, 0.0, 0.0, 0.0, 7315.189518355074, 0.0]
['beep', 0.0, -18.26137521998587, 0.0, 0.0, 0.0, 0.0, 7317.290582333873, 0.0]
['beep', 0.0, -17.926099053156264, 0.0, 0.0, 0.0, 0.0, 7318.989314912476, 0.0]
['beep', 0.0, -14.550985640404898, 0.0, 0.0, 0.0, 0.0, 7317.245878844962, 0.0]
['beep', 0.0, -14.349819940307134, 0.0, 0.0, 0.0, 0.0, 7318.430521301094, 0.0]
['beep', 0.0, -19.915404309678593, 0.0, 0.0, 0.0, 0.0, 7320.0398469018755, 0.0]
['beep', 0.0, -24.139884011731628, 0.0, 0.0, 0.0, 0.0, 7322.185614369585, 0.0]
['beep', 0.0, -25.88332007924558, 0.0, 0.0, 0.0, 0.0, 7324.554899281848, 0.0]
['beep', 0.0, -22.329392710851756, 0.0, 0.0, 0.0, 0.0, 7327.572384783314, 0.0]
['beep', 0.0, -18.86487232027916, 0.0, 0.0, 0.0, 0.0, 7330.276945862406, 0.0]
['beep', 0.0, -22.50820666649421, 0.0, 0.0, 0.0, 0.0, 7333.473245319516, 0.0]
['beep', 0.0, -23.13405551124281, 0.0, 0.0, 0.0, 0.0, 7337.496559321471, 0.0]
['beep', 0.0, -23.156407255698117, 0.0, 0.0, 0.0, 0.0, 7339.061181433342, 0.0]
['beep', 0.0, -24.989250301033294, 0.0, 0.0, 0.0, 0.0, 7340.4693413340265, 0.0]
['beep', 0.0, -24.564567156382463, 0.0, 0.0, 0.0, 0.0, 7341.363411112239, 0.0]
['beep', 0.0, -25.391581701228823, 0.0, 0.0, 0.0, 0.0, 7342.50335007946, 0.0]
['beep', 0.0, -26.86679683527909, 0.0, 0.0, 0.0, 0.0, 7345.140855925186, 0.0]
['beep', 0.0, -27.24677649101931, 0.0, 0.0, 0.0, 0.0, 7348.31480363784, 0.0]
['beep', 0.0, -27.202073002108694, 0.0, 0.0, 0.0, 0.0, 7350.907605994655, 0.0]
['beep', 0.0, -22.59761364431544, 0.0, 0.0, 0.0, 0.0, 7349.11946643823, 0.0]
['beep', 0.0, -24.3634014562847, 0.0, 0.0, 0.0, 0.0, 7351.108771694752, 0.0]
['beep', 0.0, -28.096142780320978, 0.0, 0.0, 0.0, 0.0, 7353.902739751666, 0.0]
['beep', 0.0, -27.962032313589134, 0.0, 0.0, 0.0, 0.0, 7355.5567688413585, 0.0]
['beep', 0.0, -28.811398602890804, 0.0, 0.0, 0.0, 0.0, 7354.819161274334, 0.0]
['beep', 0.0, -28.31966022487405, 0.0, 0.0, 0.0, 0.0, 7355.154437441163, 0.0]
['beep', 0.0, -27.894977080223214, 0.0, 0.0, 0.0, 0.0, 7357.926053753621, 0.0]
['beep', 0.0, -28.029087546955058, 0.0, 0.0, 0.0, 0.0, 7356.02615547492, 0.0]
['beep', 0.0, -30.19720675911984, 0.0, 0.0, 0.0, 0.0, 7357.233149675507, 0.0]
['beep', 0.0, -32.097105037820945, 0.0, 0.0, 0.0, 0.0, 7360.138876454696, 0.0]
['beep', 0.0, -31.22538700406397, 0.0, 0.0, 0.0, 0.0, 7359.043640976387, 0.0]
['beep', 0.0, -29.37019221427348, 0.0, 0.0, 0.0, 0.0, 7360.138876454696, 0.0]
['beep', 0.0, -28.498474180516506, 0.0, 0.0, 0.0, 0.0, 7360.7200218105345, 0.0]
['beep', 0.0, -29.459599192094707, 0.0, 0.0, 0.0, 0.0, 7360.630614832714, 0.0]
['beep', 0.0, -30.800703859413133, 0.0, 0.0, 0.0, 0.0, 7362.083478222308, 0.0]
['beep', 0.0, -28.811398602890804, 0.0, 0.0, 0.0, 0.0, 7361.144704955185, 0.0]
['beep', 0.0, -27.962032313589134, 0.0, 0.0, 0.0, 0.0, 7360.183579943608, 0.0]
['beep', 0.0, -29.258433491996946, 0.0, 0.0, 0.0, 0.0, 7362.485809622504, 0.0]
['beep', 0.0, -29.77252361446901, 0.0, 0.0, 0.0, 0.0, 7361.9493677555765, 0.0]
['beep', 0.0, -27.98438405804444, 0.0, 0.0, 0.0, 0.0, 7360.094172965786, 0.0]
['beep', 0.0, -26.419761946172947, 0.0, 0.0, 0.0, 0.0, 7359.557731098858, 0.0]
['beep', 0.0, -26.24094799053049, 0.0, 0.0, 0.0, 0.0, 7360.429449132615, 0.0]
['beep', 0.0, -27.514997424482996, 0.0, 0.0, 0.0, 0.0, 7360.675318321624, 0.0]
['beep', 0.0, -27.894977080223214, 0.0, 0.0, 0.0, 0.0, 7361.4799811220155, 0.0]
['beep', 0.0, -26.844445090823783, 0.0, 0.0, 0.0, 0.0, 7361.547036355381, 0.0]
['beep', 0.0, -26.442113690628254, 0.0, 0.0, 0.0, 0.0, 7360.228283432518, 0.0]
['beep', 0.0, -26.777389857457862, 0.0, 0.0, 0.0, 0.0, 7360.116524710242, 0.0]
['beep', 0.0, -26.531520668449485, 0.0, 0.0, 0.0, 0.0, 7359.848303776777, 0.0]
['beep', 0.0, -26.33035496835172, 0.0, 0.0, 0.0, 0.0, 7359.378917143216, 0.0]
['beep', 0.0, -26.956203813100316, 0.0, 0.0, 0.0, 0.0, 7357.657832820158, 0.0]
['beep', 0.0, -25.79391310142435, 0.0, 0.0, 0.0, 0.0, 7356.652004319669, 0.0]
['beep', 0.0, -24.832788089846147, 0.0, 0.0, 0.0, 0.0, 7358.17192294263, 0.0]
['beep', 0.0, -28.587881158337733, 0.0, 0.0, 0.0, 0.0, 7358.775420042923, 0.0]
['beep', 0.0, -27.49264568002769, 0.0, 0.0, 0.0, 0.0, 7360.496504365981, 0.0]
['beep', 0.0, -25.749209612513738, 0.0, 0.0, 0.0, 0.0, 7359.088344465297, 0.0]
['beep', 0.0, -25.41393344568413, 0.0, 0.0, 0.0, 0.0, 7359.445972376582, 0.0]
['beep', 0.0, -25.525692167960667, 0.0, 0.0, 0.0, 0.0, 7361.189408444096, 0.0]
['beep', 0.0, -26.978555557555623, 0.0, 0.0, 0.0, 0.0, 7361.077649721819, 0.0]
['beep', 0.0, -27.760866613491373, 0.0, 0.0, 0.0, 0.0, 7362.284643922406, 0.0]
['beep', 0.0, -26.755038113002556, 0.0, 0.0, 0.0, 0.0, 7363.089306722797, 0.0]
['beep', 0.0, -24.609270645293076, 0.0, 0.0, 0.0, 0.0, 7362.083478222308, 0.0]
['beep', 0.0, -24.631622389748383, 0.0, 0.0, 0.0, 0.0, 7363.469286378538, 0.0]
['beep', 0.0, -26.285651479441107, 0.0, 0.0, 0.0, 0.0, 7365.793867801889, 0.0]
['beep', 0.0, -26.598575901815405, 0.0, 0.0, 0.0, 0.0, 7367.31378642485, 0.0]
['beep', 0.0, -23.379924700251188, 0.0, 0.0, 0.0, 0.0, 7365.190370701596, 0.0]
['beep', 0.0, -22.463503177583597, 0.0, 0.0, 0.0, 0.0, 7366.263254435451, 0.0]
['beep', 0.0, -22.08352352184338, 0.0, 0.0, 0.0, 0.0, 7364.7656875569455, 0.0]
['beep', 0.0, -25.57039565687128, 0.0, 0.0, 0.0, 0.0, 7364.877446279222, 0.0]
['beep', 0.0, -30.35366897030699, 0.0, 0.0, 0.0, 0.0, 7365.995033501988, 0.0]
['beep', 0.0, -34.555796927904716, 0.0, 0.0, 0.0, 0.0, 7363.7151555675455, 0.0]
['beep', 0.0, -33.32645098286283, 0.0, 0.0, 0.0, 0.0, 7358.9542339985655, 0.0]
['beep', 0.0, -25.995078801522112, 0.0, 0.0, 0.0, 0.0, 7361.077649721819, 0.0]
['beep', 0.0, -24.72102936756961, 0.0, 0.0, 0.0, 0.0, 7363.022251489431, 0.0]
['beep', 0.0, -29.347840469818173, 0.0, 0.0, 0.0, 0.0, 7360.205931688062, 0.0]
['beep', 0.0, -31.35949747079581, 0.0, 0.0, 0.0, 0.0, 7356.339079897294, 0.0]
['beep', 0.0, -28.856102091801418, 0.0, 0.0, 0.0, 0.0, 7355.3779548857165, 0.0]
['beep', 0.0, -29.191378258631023, 0.0, 0.0, 0.0, 0.0, 7354.461533363049, 0.0]
['beep', 0.0, -34.57814867236002, 0.0, 0.0, 0.0, 0.0, 7352.092248450786, 0.0]
['beep', 0.0, -36.008660317499675, 0.0, 0.0, 0.0, 0.0, 7349.8347222608, 0.0]
['beep', 0.0, -32.00769805999971, 0.0, 0.0, 0.0, 0.0, 7348.4489141045715, 0.0]
['beep', 0.0, -29.99604105902208, 0.0, 0.0, 0.0, 0.0, 7346.236091403496, 0.0]
['beep', 0.0, -31.672421893170107, 0.0, 0.0, 0.0, 0.0, 7344.000916957965, 0.0]
['beep', 0.0, -35.338107983840466, 0.0, 0.0, 0.0, 0.0, 7343.106847179753, 0.0]
['beep', 0.0, -36.858026606801346, 0.0, 0.0, 0.0, 0.0, 7342.056315190353, 0.0]
['beep', 0.0, -35.31575623938516, 0.0, 0.0, 0.0, 0.0, 7341.318707623328, 0.0]
['beep', 0.0, -33.39350621622875, 0.0, 0.0, 0.0, 0.0, 7340.514044822937, 0.0]
['beep', 0.0, -32.45473294910585, 0.0, 0.0, 0.0, 0.0, 7338.8823674776995, 0.0]
['beep', 0.0, -32.231215504552786, 0.0, 0.0, 0.0, 0.0, 7339.016477944431, 0.0]
['beep', 0.0, -32.588843415837694, 0.0, 0.0, 0.0, 0.0, 7340.849320989767, 0.0]
['beep', 0.0, -33.818189360879586, 0.0, 0.0, 0.0, 0.0, 7340.916376223133, 0.0]
['beep', 0.0, -30.53248292594945, 0.0, 0.0, 0.0, 0.0, 7340.558748311848, 0.0]
['beep', 0.0, -31.337145726340502, 0.0, 0.0, 0.0, 0.0, 7339.97760295601, 0.0]
['beep', 0.0, -33.684078894147746, 0.0, 0.0, 0.0, 0.0, 7341.899852979166, 0.0]
['beep', 0.0, -34.10876203879858, 0.0, 0.0, 0.0, 0.0, 7343.5762338133145, 0.0]
['beep', 0.0, -34.30992773889634, 0.0, 0.0, 0.0, 0.0, 7342.950384968565, 0.0]
['beep', 0.0, -33.46056144959467, 0.0, 0.0, 0.0, 0.0, 7342.369239612728, 0.0]
['beep', 0.0, -34.086410294343274, 0.0, 0.0, 0.0, 0.0, 7342.101018679264, 0.0]
['beep', 0.0, -34.220520761075115, 0.0, 0.0, 0.0, 0.0, 7342.749219268468, 0.0]
['beep', 0.0, -35.62868066175946, 0.0, 0.0, 0.0, 0.0, 7343.084495435298, 0.0]
['beep', 0.0, -34.04170680543265, 0.0, 0.0, 0.0, 0.0, 7345.096152436275, 0.0]
['beep', 0.0, -30.331317225851684, 0.0, 0.0, 0.0, 0.0, 7344.5150070804375, 0.0]
['beep', 0.0, -31.761828870991337, 0.0, 0.0, 0.0, 0.0, 7343.799751257868, 0.0]
['beep', 0.0, -35.673384150670074, 0.0, 0.0, 0.0, 0.0, 7343.956213469054, 0.0]
['beep', 0.0, -33.99700331652204, 0.0, 0.0, 0.0, 0.0, 7344.470303591526, 0.0]
['beep', 0.0, -32.72295388256954, 0.0, 0.0, 0.0, 0.0, 7344.582062313803, 0.0]
['beep', 0.0, -33.304099238407524, 0.0, 0.0, 0.0, 0.0, 7342.838626246289, 0.0]
['beep', 0.0, -30.711296881591903, 0.0, 0.0, 0.0, 0.0, 7342.480998335004, 0.0]
['beep', 0.0, -33.10293353830976, 0.0, 0.0, 0.0, 0.0, 7342.883329735199, 0.0]
['beep', 0.0, -35.29340449492985, 0.0, 0.0, 0.0, 0.0, 7341.11754192323, 0.0]
['beep', 0.0, -35.24870100601924, 0.0, 0.0, 0.0, 0.0, 7342.413943101638, 0.0]
['beep', 0.0, -32.67825039365893, 0.0, 0.0, 0.0, 0.0, 7339.843492489278, 0.0]
['beep', 0.0, -33.505264938505285, 0.0, 0.0, 0.0, 0.0, 7338.636498288692, 0.0]
['beep', 0.0, -36.96978532907788, 0.0, 0.0, 0.0, 0.0, 7339.687030278091, 0.0]
['beep', 0.0, -38.95909058560021, 0.0, 0.0, 0.0, 0.0, 7339.6423267891805, 0.0]
['beep', 0.0, -32.61119516029301, 0.0, 0.0, 0.0, 0.0, 7337.183634899096, 0.0]
['beep', 0.0, -32.79000911593546, 0.0, 0.0, 0.0, 0.0, 7334.0096871864425, 0.0]
['beep', 0.0, -35.807494617401915, 0.0, 0.0, 0.0, 0.0, 7334.0096871864425, 0.0]
['beep', 0.0, -37.640337662737096, 0.0, 0.0, 0.0, 0.0, 7331.171015640619, 0.0]
['beep', 0.0, -37.79679987392424, 0.0, 0.0, 0.0, 0.0, 7331.6627540186355, 0.0]
['beep', 0.0, -31.985346315544408, 0.0, 0.0, 0.0, 0.0, 7333.853224975255, 0.0]
['beep', 0.0, -26.844445090823783, 0.0, 0.0, 0.0, 0.0, 7333.674411019613, 0.0]
['beep', 0.0, -27.47029393557238, 0.0, 0.0, 0.0, 0.0, 7329.829910973301, 0.0]
['beep', 0.0, -32.99117481603322, 0.0, 0.0, 0.0, 0.0, 7329.919317951121, 0.0]
['beep', 0.0, -36.7015643956142, 0.0, 0.0, 0.0, 0.0, 7330.567518540325, 0.0]
['beep', 0.0, -37.14859928472034, 0.0, 0.0, 0.0, 0.0, 7329.539338295382, 0.0]
['beep', 0.0, -36.74626788452481, 0.0, 0.0, 0.0, 0.0, 7328.645268517169, 0.0]
['beep', 0.0, -37.707392896103016, 0.0, 0.0, 0.0, 0.0, 7329.159358639641, 0.0]
['beep', 0.0, -38.89203535223429, 0.0, 0.0, 0.0, 0.0, 7329.025248172909, 0.0]
['beep', 0.0, -40.14373304173149, 0.0, 0.0, 0.0, 0.0, 7330.902794707155, 0.0]
['beep', 0.0, -37.68504115164771, 0.0, 0.0, 0.0, 0.0, 7329.047599917365, 0.0]
['beep', 0.0, -37.30506149590749, 0.0, 0.0, 0.0, 0.0, 7327.304163849851, 0.0]
['beep', 0.0, -39.94256734163372, 0.0, 0.0, 0.0, 0.0, 7327.706495250046, 0.0]
['beep', 0.0, -43.787067387946536, 0.0, 0.0, 0.0, 0.0, 7329.829910973301, 0.0]
['beep', 0.0, -45.35168949981803, 0.0, 0.0, 0.0, 0.0, 7330.031076673398, 0.0]
['beep', 0.0, -41.99892783152197, 0.0, 0.0, 0.0, 0.0, 7328.600565028259, 0.0]
['beep', 0.0, -40.54606444192701, 0.0, 0.0, 0.0, 0.0, 7328.444102817071, 0.0]
['beep', 0.0, -41.66365166469237, 0.0, 0.0, 0.0, 0.0, 7328.220585372518, 0.0]
['beep', 0.0, -41.10485805330969, 0.0, 0.0, 0.0, 0.0, 7328.958192939544, 0.0]
['beep', 0.0, -41.39543073122868, 0.0, 0.0, 0.0, 0.0, 7328.019419672421, 0.0]
['beep', 0.0, -40.38960223073986, 0.0, 0.0, 0.0, 0.0, 7327.080646405298, 0.0]
['beep', 0.0, -38.66851790768122, 0.0, 0.0, 0.0, 0.0, 7327.237108616485, 0.0]
['beep', 0.0, -38.847331863323674, 0.0, 0.0, 0.0, 0.0, 7326.655963260647, 0.0]
['beep', 0.0, -42.28950050944096, 0.0, 0.0, 0.0, 0.0, 7328.198233628063, 0.0]
['beep', 0.0, -43.22827377656386, 0.0, 0.0, 0.0, 0.0, 7327.661791761136, 0.0]
['beep', 0.0, -44.27880576596329, 0.0, 0.0, 0.0, 0.0, 7324.845471959767, 0.0]
['beep', 0.0, -43.16121854319794, 0.0, 0.0, 0.0, 0.0, 7323.906698692644, 0.0]
['beep', 0.0, -41.17191328667561, 0.0, 0.0, 0.0, 0.0, 7324.845471959767, 0.0]
['beep', 0.0, -40.166084786186794, 0.0, 0.0, 0.0, 0.0, 7325.6724865046135, 0.0]
['beep', 0.0, -42.065983064887895, 0.0, 0.0, 0.0, 0.0, 7325.6724865046135, 0.0]
['beep', 0.0, -42.91534935418956, 0.0, 0.0, 0.0, 0.0, 7323.526719036904, 0.0]
['beep', 0.0, -41.06015456439908, 0.0, 0.0, 0.0, 0.0, 7322.409131814138, 0.0]
['beep', 0.0, -39.92021559717841, 0.0, 0.0, 0.0, 0.0, 7322.945573681066, 0.0]
['beep', 0.0, -39.42847721916166, 0.0, 0.0, 0.0, 0.0, 7324.510195792937, 0.0]
['beep', 0.0, -40.92604409766723, 0.0, 0.0, 0.0, 0.0, 7323.951402181555, 0.0]
['beep', 0.0, -41.70835515360298, 0.0, 0.0, 0.0, 0.0, 7321.380951569195, 0.0]
['beep', 0.0, -40.25549176400802, 0.0, 0.0, 0.0, 0.0, 7323.7949399703675, 0.0]
['beep', 0.0, -39.33907024134043, 0.0, 0.0, 0.0, 0.0, 7324.800768470856, 0.0]
['beep', 0.0, -40.14373304173149, 0.0, 0.0, 0.0, 0.0, 7323.347905081261, 0.0]
['beep', 0.0, -37.10389579580973, 0.0, 0.0, 0.0, 0.0, 7341.8775012347105, 0.0]
['beep', 0.0, -34.1758172721645, 0.0, 0.0, 0.0, 0.0, 7343.7550477689565, 0.0]
['beep', 0.0, -32.87941609375669, 0.0, 0.0, 0.0, 0.0, 7342.793922757379, 0.0]
['beep', 0.0, -34.421686461172875, 0.0, 0.0, 0.0, 0.0, 7342.3468878682725, 0.0]
['beep', 0.0, -37.260358006996874, 0.0, 0.0, 0.0, 0.0, 7340.134065167197, 0.0]
['beep', 0.0, -33.66172714969244, 0.0, 0.0, 0.0, 0.0, 7340.491693078482, 0.0]
['beep', 0.0, -31.784180615446644, 0.0, 0.0, 0.0, 0.0, 7341.363411112239, 0.0]
['beep', 0.0, -33.99700331652204, 0.0, 0.0, 0.0, 0.0, 7341.810446001345, 0.0]
['beep', 0.0, -35.405163217206386, 0.0, 0.0, 0.0, 0.0, 7342.16807391263, 0.0]
['beep', 0.0, -35.29340449492985, 0.0, 0.0, 0.0, 0.0, 7340.424637845116, 0.0]
['beep', 0.0, -35.136942283742705, 0.0, 0.0, 0.0, 0.0, 7339.776437255912, 0.0]
['beep', 0.0, -36.656860906703585, 0.0, 0.0, 0.0, 0.0, 7340.044658189376, 0.0]
['beep', 0.0, -37.01448881798849, 0.0, 0.0, 0.0, 0.0, 7340.268175633929, 0.0]
['beep', 0.0, -34.71225913909187, 0.0, 0.0, 0.0, 0.0, 7339.910547722644, 0.0]
['beep', 0.0, -34.66755565018126, 0.0, 0.0, 0.0, 0.0, 7338.748257010968, 0.0]
['beep', 0.0, -36.16512252868683, 0.0, 0.0, 0.0, 0.0, 7340.625803545214, 0.0]
['beep', 0.0, -37.37211672927341, 0.0, 0.0, 0.0, 0.0, 7341.363411112239, 0.0]
['beep', 0.0, -36.56745392888235, 0.0, 0.0, 0.0, 0.0, 7340.446989589571, 0.0]
['beep', 0.0, -35.04753530592147, 0.0, 0.0, 0.0, 0.0, 7339.843492489278, 0.0]
['beep', 0.0, -34.287575994441035, 0.0, 0.0, 0.0, 0.0, 7339.105884922253, 0.0]
['beep', 0.0, -36.50039869551643, 0.0, 0.0, 0.0, 0.0, 7339.597623300269, 0.0]
['beep', 0.0, -36.88037835125665, 0.0, 0.0, 0.0, 0.0, 7341.028134945409, 0.0]
['beep', 0.0, -36.52275043997174, 0.0, 0.0, 0.0, 0.0, 7341.005783200954, 0.0]
['beep', 0.0, -33.84054110533489, 0.0, 0.0, 0.0, 0.0, 7342.391591357183, 0.0]
['beep', 0.0, -32.767657371480155, 0.0, 0.0, 0.0, 0.0, 7340.536396567392, 0.0]
['beep', 0.0, -36.96978532907788, 0.0, 0.0, 0.0, 0.0, 7338.927070966611, 0.0]
['beep', 0.0, -40.09902955282087, 0.0, 0.0, 0.0, 0.0, 7338.211815144041, 0.0]
['beep', 0.0, -39.160256285697976, 0.0, 0.0, 0.0, 0.0, 7338.033001188398, 0.0]
['beep', 0.0, -33.572320171871205, 0.0, 0.0, 0.0, 0.0, 7340.514044822937, 0.0]
['beep', 0.0, -33.16998877167568, 0.0, 0.0, 0.0, 0.0, 7342.123370423719, 0.0]
['beep', 0.0, -37.930910340656084, 0.0, 0.0, 0.0, 0.0, 7340.983431456499, 0.0]
['beep', 0.0, -41.01545107548846, 0.0, 0.0, 0.0, 0.0, 7341.206948901052, 0.0]
['beep', 0.0, -37.43917196263933, 0.0, 0.0, 0.0, 0.0, 7341.899852979166, 0.0]
['beep', 0.0, -32.20886376009748, 0.0, 0.0, 0.0, 0.0, 7342.50335007946, 0.0]
['beep', 0.0, -34.33227948335165, 0.0, 0.0, 0.0, 0.0, 7341.810446001345, 0.0]
['beep', 0.0, -37.260358006996874, 0.0, 0.0, 0.0, 0.0, 7340.849320989767, 0.0]
['beep', 0.0, -40.56841618638232, 0.0, 0.0, 0.0, 0.0, 7341.206948901052, 0.0]
['beep', 0.0, -37.77444812946894, 0.0, 0.0, 0.0, 0.0, 7342.838626246289, 0.0]
['beep', 0.0, -35.136942283742705, 0.0, 0.0, 0.0, 0.0, 7343.7550477689565, 0.0]
['beep', 0.0, -36.50039869551643, 0.0, 0.0, 0.0, 0.0, 7342.950384968565, 0.0]
['beep', 0.0, -36.656860906703585, 0.0, 0.0, 0.0, 0.0, 7343.911509980144, 0.0]
['beep', 0.0, -36.343936484329284, 0.0, 0.0, 0.0, 0.0, 7344.8055797583565, 0.0]
['beep', 0.0, -36.0757155508656, 0.0, 0.0, 0.0, 0.0, 7346.660774548147, 0.0]
['beep', 0.0, -34.555796927904716, 0.0, 0.0, 0.0, 0.0, 7347.778361770912, 0.0]
['beep', 0.0, -34.86872135027902, 0.0, 0.0, 0.0, 0.0, 7347.64425130418, 0.0]
['beep', 0.0, -39.74140164153596, 0.0, 0.0, 0.0, 0.0, 7347.733658282002, 0.0]
['beep', 0.0, -37.86385510729016, 0.0, 0.0, 0.0, 0.0, 7347.063105948342, 0.0]
['beep', 0.0, -35.06988705037678, 0.0, 0.0, 0.0, 0.0, 7348.31480363784, 0.0]
['beep', 0.0, -33.46056144959467, 0.0, 0.0, 0.0, 0.0, 7347.331326881806, 0.0]
['beep', 0.0, -36.120419039776216, 0.0, 0.0, 0.0, 0.0, 7346.437257103594, 0.0]
['beep', 0.0, -37.90855859620078, 0.0, 0.0, 0.0, 0.0, 7347.532492581903, 0.0]
['beep', 0.0, -38.243834763030385, 0.0, 0.0, 0.0, 0.0, 7349.208873416052, 0.0]
['beep', 0.0, -37.77444812946894, 0.0, 0.0, 0.0, 0.0, 7350.706440294557, 0.0]
['beep', 0.0, -35.405163217206386, 0.0, 0.0, 0.0, 0.0, 7349.432390860605, 0.0]
['beep', 0.0, -35.203997517108625, 0.0, 0.0, 0.0, 0.0, 7349.3876873716945, 0.0]
['beep', 0.0, -36.29923299541867, 0.0, 0.0, 0.0, 0.0, 7350.6840885501015, 0.0]
['beep', 0.0, -37.14859928472034, 0.0, 0.0, 0.0, 0.0, 7352.069896706331, 0.0]
['beep', 0.0, -37.10389579580973, 0.0, 0.0, 0.0, 0.0, 7352.31576589534, 0.0]
['beep', 0.0, -35.7627911284913, 0.0, 0.0, 0.0, 0.0, 7351.4440478615825, 0.0]
['beep', 0.0, -34.39933471671757, 0.0, 0.0, 0.0, 0.0, 7350.952309483566, 0.0]
['beep', 0.0, -35.807494617401915, 0.0, 0.0, 0.0, 0.0, 7350.997012972476, 0.0]
['beep', 0.0, -40.65782316420355, 0.0, 0.0, 0.0, 0.0, 7353.299242651373, 0.0]
['beep', 0.0, -43.83177087685715, 0.0, 0.0, 0.0, 0.0, 7353.969794985032, 0.0]
['beep', 0.0, -41.84246562033482, 0.0, 0.0, 0.0, 0.0, 7351.332289139305, 0.0]
['beep', 0.0, -38.53440744094937, 0.0, 0.0, 0.0, 0.0, 7351.108771694752, 0.0]
['beep', 0.0, -39.8755121082678, 0.0, 0.0, 0.0, 0.0, 7351.086419950298, 0.0]
['beep', 0.0, -43.16121854319794, 0.0, 0.0, 0.0, 0.0, 7352.516931595437, 0.0]
['beep', 0.0, -41.26132026449684, 0.0, 0.0, 0.0, 0.0, 7352.874559506722, 0.0]
['beep', 0.0, -38.6014626743153, 0.0, 0.0, 0.0, 0.0, 7352.807504273356, 0.0]
['beep', 0.0, -40.14373304173149, 0.0, 0.0, 0.0, 0.0, 7352.5616350843475, 0.0]
['beep', 0.0, -41.50718945350521, 0.0, 0.0, 0.0, 0.0, 7349.052411204864, 0.0]
['beep', 0.0, -41.79776213142421, 0.0, 0.0, 0.0, 0.0, 7350.348812383272, 0.0]
['beep', 0.0, -38.80262837441306, 0.0, 0.0, 0.0, 0.0, 7348.717135038035, 0.0]
['beep', 0.0, -36.74626788452481, 0.0, 0.0, 0.0, 0.0, 7346.124332681219, 0.0]
['beep', 0.0, -36.74626788452481, 0.0, 0.0, 0.0, 0.0, 7347.376030370717, 0.0]
['beep', 0.0, -36.81332311789073, 0.0, 0.0, 0.0, 0.0, 7347.487789092993, 0.0]
['beep', 0.0, -38.08737255184324, 0.0, 0.0, 0.0, 0.0, 7350.102943194264, 0.0]
['beep', 0.0, -38.646166163225914, 0.0, 0.0, 0.0, 0.0, 7350.5052745944595, 0.0]
['beep', 0.0, -36.45569520660582, 0.0, 0.0, 0.0, 0.0, 7353.031021717909, 0.0]
['beep', 0.0, -34.68990739463656, 0.0, 0.0, 0.0, 0.0, 7351.153475183663, 0.0]
['beep', 0.0, -37.37211672927341, 0.0, 0.0, 0.0, 0.0, 7351.4440478615825, 0.0]
['beep', 0.0, -38.86968360777898, 0.0, 0.0, 0.0, 0.0, 7354.752106040968, 0.0]
['beep', 0.0, -38.66851790768122, 0.0, 0.0, 0.0, 0.0, 7355.087382207797, 0.0]
['beep', 0.0, -38.46735220758345, 0.0, 0.0, 0.0, 0.0, 7356.696707808579, 0.0]
['beep', 0.0, -37.3497649848181, 0.0, 0.0, 0.0, 0.0, 7356.987280486498, 0.0]
['beep', 0.0, -37.28270975145218, 0.0, 0.0, 0.0, 0.0, 7356.584949086303, 0.0]
['beep', 0.0, -40.1884365306421, 0.0, 0.0, 0.0, 0.0, 7357.099039208775, 0.0]
['beep', 0.0, -42.065983064887895, 0.0, 0.0, 0.0, 0.0, 7354.640347318691, 0.0]
['beep', 0.0, -41.57424468687114, 0.0, 0.0, 0.0, 0.0, 7354.349774640772, 0.0]
['beep', 0.0, -39.629642919259425, 0.0, 0.0, 0.0, 0.0, 7354.819161274334, 0.0]
['beep', 0.0, -37.573282429371176, 0.0, 0.0, 0.0, 0.0, 7356.696707808579, 0.0]
['beep', 0.0, -37.37211672927341, 0.0, 0.0, 0.0, 0.0, 7358.529550853915, 0.0]
['beep', 0.0, -41.17191328667561, 0.0, 0.0, 0.0, 0.0, 7356.584949086303, 0.0]
['beep', 0.0, -38.26618650748569, 0.0, 0.0, 0.0, 0.0, 7354.282719407406, 0.0]
['beep', 0.0, -34.77931437245779, 0.0, 0.0, 0.0, 0.0, 7354.394478129683, 0.0]
['beep', 0.0, -36.925081840167266, 0.0, 0.0, 0.0, 0.0, 7355.266196163439, 0.0]
['beep', 0.0, -36.410991717695204, 0.0, 0.0, 0.0, 0.0, 7356.02615547492, 0.0]
['beep', 0.0, -38.26618650748569, 0.0, 0.0, 0.0, 0.0, 7354.707402552057, 0.0]
['beep', 0.0, -37.59563417382648, 0.0, 0.0, 0.0, 0.0, 7353.187483929096, 0.0]
['beep', 0.0, -34.26522424998573, 0.0, 0.0, 0.0, 0.0, 7352.204007173063, 0.0]
['beep', 0.0, -35.338107983840466, 0.0, 0.0, 0.0, 0.0, 7351.175826928119, 0.0]
['beep', 0.0, -37.81915161837955, 0.0, 0.0, 0.0, 0.0, 7352.516931595437, 0.0]
['beep', 0.0, -36.52275043997174, 0.0, 0.0, 0.0, 0.0, 7351.68991705059, 0.0]
['beep', 0.0, -34.44403820562818, 0.0, 0.0, 0.0, 0.0, 7349.611204816247, 0.0]
['beep', 0.0, -33.84054110533489, 0.0, 0.0, 0.0, 0.0, 7346.996050714976, 0.0]
['beep', 0.0, -34.354631227806955, 0.0, 0.0, 0.0, 0.0, 7345.140855925186, 0.0]
['beep', 0.0, -33.438209705139364, 0.0, 0.0, 0.0, 0.0, 7346.437257103594, 0.0]
['beep', 0.0, -32.67825039365893, 0.0, 0.0, 0.0, 0.0, 7348.828893760311, 0.0]
['beep', 0.0, -31.828884104357257, 0.0, 0.0, 0.0, 0.0, 7347.308975137351, 0.0]
['beep', 0.0, -30.13015152575392, 0.0, 0.0, 0.0, 0.0, 7346.392553614683, 0.0]
['beep', 0.0, -31.27009049297458, 0.0, 0.0, 0.0, 0.0, 7346.951347226066, 0.0]
['beep', 0.0, -34.33227948335165, 0.0, 0.0, 0.0, 0.0, 7346.638422803691, 0.0]
['beep', 0.0, -36.74626788452481, 0.0, 0.0, 0.0, 0.0, 7346.906643737155, 0.0]
['beep', 0.0, -36.925081840167266, 0.0, 0.0, 0.0, 0.0, 7346.280794892406, 0.0]
['beep', 0.0, -36.36628822878459, 0.0, 0.0, 0.0, 0.0, 7346.414905359138, 0.0]
['beep', 0.0, -37.41682021818402, 0.0, 0.0, 0.0, 0.0, 7345.856111747756, 0.0]
['beep', 0.0, -39.27201500797451, 0.0, 0.0, 0.0, 0.0, 7346.258443147951, 0.0]
['beep', 0.0, -39.67434640817004, 0.0, 0.0, 0.0, 0.0, 7345.207911158552, 0.0]
['beep', 0.0, -38.176779529664465, 0.0, 0.0, 0.0, 0.0, 7342.860977990745, 0.0]
['beep', 0.0, -35.51692193948292, 0.0, 0.0, 0.0, 0.0, 7343.5762338133145, 0.0]
['beep', 0.0, -35.1145905392874, 0.0, 0.0, 0.0, 0.0, 7342.570405312826, 0.0]
['beep', 0.0, -37.327413240362795, 0.0, 0.0, 0.0, 0.0, 7343.933861724599, 0.0]
['beep', 0.0, -37.75209638501363, 0.0, 0.0, 0.0, 0.0, 7343.844454746778, 0.0]
['beep', 0.0, -36.14277078423152, 0.0, 0.0, 0.0, 0.0, 7342.480998335004, 0.0]
['beep', 0.0, -35.22634926156393, 0.0, 0.0, 0.0, 0.0, 7342.749219268468, 0.0]
['beep', 0.0, -35.62868066175946, 0.0, 0.0, 0.0, 0.0, 7343.419771602127, 0.0]
['beep', 0.0, -38.33324174085161, 0.0, 0.0, 0.0, 0.0, 7343.062143690842, 0.0]
['beep', 0.0, -39.20495977460859, 0.0, 0.0, 0.0, 0.0, 7342.860977990745, 0.0]
['beep', 0.0, -37.0368405624438, 0.0, 0.0, 0.0, 0.0, 7341.78809425689, 0.0]
['beep', 0.0, -35.53927368393823, 0.0, 0.0, 0.0, 0.0, 7338.949422711065, 0.0]
['beep', 0.0, -36.29923299541867, 0.0, 0.0, 0.0, 0.0, 7339.284698877896, 0.0]
['beep', 0.0, -36.67921265115889, 0.0, 0.0, 0.0, 0.0, 7339.955251211554, 0.0]
['beep', 0.0, -36.43334346215051, 0.0, 0.0, 0.0, 0.0, 7341.542225067881, 0.0]
['beep', 0.0, -35.136942283742705, 0.0, 0.0, 0.0, 0.0, 7340.782265756401, 0.0]
['beep', 0.0, -35.31575623938516, 0.0, 0.0, 0.0, 0.0, 7339.508216322448, 0.0]
['beep', 0.0, -36.29923299541867, 0.0, 0.0, 0.0, 0.0, 7341.229300645507, 0.0]
['beep', 0.0, -38.13207604075385, 0.0, 0.0, 0.0, 0.0, 7343.017440201931, 0.0]
['beep', 0.0, -37.0368405624438, 0.0, 0.0, 0.0, 0.0, 7344.179730913607, 0.0]
['beep', 0.0, -35.89690159522314, 0.0, 0.0, 0.0, 0.0, 7345.8114082588445, 0.0]
['beep', 0.0, -34.91342483918963, 0.0, 0.0, 0.0, 0.0, 7346.526664081414, 0.0]
['beep', 0.0, -36.88037835125665, 0.0, 0.0, 0.0, 0.0, 7348.203044915563, 0.0]
['beep', 0.0, -38.19913127411977, 0.0, 0.0, 0.0, 0.0, 7348.270100148929, 0.0]
['beep', 0.0, -37.75209638501363, 0.0, 0.0, 0.0, 0.0, 7348.761838526945, 0.0]
['beep', 0.0, -36.27688125096336, 0.0, 0.0, 0.0, 0.0, 7349.3876873716945, 0.0]
['beep', 0.0, -35.00283181701086, 0.0, 0.0, 0.0, 0.0, 7348.381858871206, 0.0]
['beep', 0.0, -34.44403820562818, 0.0, 0.0, 0.0, 0.0, 7348.761838526945, 0.0]
['beep', 0.0, -35.18164577265332, 0.0, 0.0, 0.0, 0.0, 7350.594681572281, 0.0]
['beep', 0.0, -35.941605084133755, 0.0, 0.0, 0.0, 0.0, 7350.92995773911, 0.0]
['beep', 0.0, -33.46056144959467, 0.0, 0.0, 0.0, 0.0, 7349.052411204864, 0.0]
['beep', 0.0, -31.985346315544408, 0.0, 0.0, 0.0, 0.0, 7349.03005946041, 0.0]
['beep', 0.0, -32.34297422682932, 0.0, 0.0, 0.0, 0.0, 7348.784190271401, 0.0]
['beep', 0.0, -33.751134127513666, 0.0, 0.0, 0.0, 0.0, 7349.767667027434, 0.0]
['beep', 0.0, -36.52275043997174, 0.0, 0.0, 0.0, 0.0, 7348.605376315758, 0.0]
['beep', 0.0, -34.824017861368404, 0.0, 0.0, 0.0, 0.0, 7346.817236759333, 0.0]
['beep', 0.0, -34.39933471671757, 0.0, 0.0, 0.0, 0.0, 7346.280794892406, 0.0]
['beep', 0.0, -35.06988705037678, 0.0, 0.0, 0.0, 0.0, 7347.823065259822, 0.0]
['beep', 0.0, -34.44403820562818, 0.0, 0.0, 0.0, 0.0, 7347.085457692798, 0.0]
['beep', 0.0, -33.48291319404998, 0.0, 0.0, 0.0, 0.0, 7346.593719314781, 0.0]
['beep', 0.0, -29.280785236452253, 0.0, 0.0, 0.0, 0.0, 7348.940652482588, 0.0]
['beep', 0.0, -25.6374508902372, 0.0, 0.0, 0.0, 0.0, 7351.667565306136, 0.0]
['beep', 0.0, -25.10100902330983, 0.0, 0.0, 0.0, 0.0, 7348.560672826848, 0.0]
['beep', 0.0, -28.185549758142205, 0.0, 0.0, 0.0, 0.0, 7349.11946643823, 0.0]
['beep', 0.0, -26.71033462409194, 0.0, 0.0, 0.0, 0.0, 7351.578158328314, 0.0]
['beep', 0.0, -24.0504770339104, 0.0, 0.0, 0.0, 0.0, 7352.6733938066245, 0.0]
['beep', 0.0, -23.335221211340574, 0.0, 0.0, 0.0, 0.0, 7355.534417096904, 0.0]
['beep', 0.0, -22.30704096639645, 0.0, 0.0, 0.0, 0.0, 7356.428486875116, 0.0]
['beep', 0.0, -24.27399447846347, 0.0, 0.0, 0.0, 0.0, 7356.696707808579, 0.0]
['beep', 0.0, -25.302174723407596, 0.0, 0.0, 0.0, 0.0, 7357.50137060897, 0.0]
['beep', 0.0, -24.11753226727632, 0.0, 0.0, 0.0, 0.0, 7356.272024663928, 0.0]
['beep', 0.0, -22.865834577779125, 0.0, 0.0, 0.0, 0.0, 7356.830818275312, 0.0]
['beep', 0.0, -23.625793889259565, 0.0, 0.0, 0.0, 0.0, 7359.021289231931, 0.0]
['beep', 0.0, -25.458636934594743, 0.0, 0.0, 0.0, 0.0, 7359.937710754599, 0.0]
['beep', 0.0, -26.486817179538868, 0.0, 0.0, 0.0, 0.0, 7360.004765987965, 0.0]
['beep', 0.0, -24.3634014562847, 0.0, 0.0, 0.0, 0.0, 7359.557731098858, 0.0]
['beep', 0.0, -24.0504770339104, 0.0, 0.0, 0.0, 0.0, 7359.021289231931, 0.0]
['beep', 0.0, -26.531520668449485, 0.0, 0.0, 0.0, 0.0, 7359.803600287867, 0.0]
['beep', 0.0, -27.69381138012545, 0.0, 0.0, 0.0, 0.0, 7359.490675865492, 0.0]
['beep', 0.0, -28.364363713784662, 0.0, 0.0, 0.0, 0.0, 7360.675318321624, 0.0]
['beep', 0.0, -27.202073002108694, 0.0, 0.0, 0.0, 0.0, 7359.7812485434115, 0.0]
['beep', 0.0, -26.129189268253956, 0.0, 0.0, 0.0, 0.0, 7358.55190259837, 0.0]
['beep', 0.0, -26.084485779343343, 0.0, 0.0, 0.0, 0.0, 7359.110696209753, 0.0]
['beep', 0.0, -27.49264568002769, 0.0, 0.0, 0.0, 0.0, 7359.110696209753, 0.0]
['beep', 0.0, -28.923157325167338, 0.0, 0.0, 0.0, 0.0, 7359.825952032323, 0.0]
['beep', 0.0, -29.549006169915938, 0.0, 0.0, 0.0, 0.0, 7358.149571198174, 0.0]
['beep', 0.0, -29.14667476972041, 0.0, 0.0, 0.0, 0.0, 7360.563559599347, 0.0]
['beep', 0.0, -27.24677649101931, 0.0, 0.0, 0.0, 0.0, 7360.429449132615, 0.0]
['beep', 0.0, -28.54317766942712, 0.0, 0.0, 0.0, 0.0, 7359.222454932029, 0.0]
['beep', 0.0, -30.510131181494142, 0.0, 0.0, 0.0, 0.0, 7360.384745643705, 0.0]
['beep', 0.0, -27.067962535376854, 0.0, 0.0, 0.0, 0.0, 7361.323518910828, 0.0]
['beep', 0.0, -27.358535213295845, 0.0, 0.0, 0.0, 0.0, 7361.815257288845, 0.0]
['beep', 0.0, -29.101971280809796, 0.0, 0.0, 0.0, 0.0, 7361.882312522211, 0.0]
['beep', 0.0, -28.721991625069574, 0.0, 0.0, 0.0, 0.0, 7365.726812568523, 0.0]
['beep', 0.0, -29.14667476972041, 0.0, 0.0, 0.0, 0.0, 7365.8832747797105, 0.0]
['beep', 0.0, -27.202073002108694, 0.0, 0.0, 0.0, 0.0, 7364.363356156749, 0.0]
['beep', 0.0, -25.235119490041672, 0.0, 0.0, 0.0, 0.0, 7365.7044608240685, 0.0]
['beep', 0.0, -27.425590446661765, 0.0, 0.0, 0.0, 0.0, 7366.8220480468335, 0.0]
['beep', 0.0, -29.30313698090756, 0.0, 0.0, 0.0, 0.0, 7368.118449225241, 0.0]
['beep', 0.0, -28.520825924971813, 0.0, 0.0, 0.0, 0.0, 7368.766649814445, 0.0]
['beep', 0.0, -26.17389275716457, 0.0, 0.0, 0.0, 0.0, 7369.146629470186, 0.0]
['beep', 0.0, -25.078657278854525, 0.0, 0.0, 0.0, 0.0, 7368.8784085367215, 0.0]
['beep', 0.0, -24.832788089846147, 0.0, 0.0, 0.0, 0.0, 7368.36431841425, 0.0]
['beep', 0.0, -26.062134034888036, 0.0, 0.0, 0.0, 0.0, 7370.219513204041, 0.0]
['beep', 0.0, -25.592747401326587, 0.0, 0.0, 0.0, 0.0, 7371.560617871359, 0.0]
['beep', 0.0, -22.932889811145046, 0.0, 0.0, 0.0, 0.0, 7371.135934726708, 0.0]
['beep', 0.0, -22.97759330005566, 0.0, 0.0, 0.0, 0.0, 7370.487734137504, 0.0]
['beep', 0.0, -22.016468288477455, 0.0, 0.0, 0.0, 0.0, 7372.231170205018, 0.0]
['beep', 0.0, -23.60344214480426, 0.0, 0.0, 0.0, 0.0, 7372.901722538677, 0.0]
['beep', 0.0, -23.625793889259565, 0.0, 0.0, 0.0, 0.0, 7372.320577182839, 0.0]
['beep', 0.0, -23.67049737817018, 0.0, 0.0, 0.0, 0.0, 7371.515914382448, 0.0]
['beep', 0.0, -23.20111074460873, 0.0, 0.0, 0.0, 0.0, 7370.7559550709675, 0.0]
['beep', 0.0, -23.581090400348952, 0.0, 0.0, 0.0, 0.0, 7371.828838804822, 0.0]
['beep', 0.0, -24.899843323212068, 0.0, 0.0, 0.0, 0.0, 7372.588798116303, 0.0]
['beep', 0.0, -25.302174723407596, 0.0, 0.0, 0.0, 0.0, 7370.51008588196, 0.0]
['beep', 0.0, -25.525692167960667, 0.0, 0.0, 0.0, 0.0, 7369.683071337113, 0.0]
['beep', 0.0, -24.206939245097548, 0.0, 0.0, 0.0, 0.0, 7369.8395335483, 0.0]
['beep', 0.0, -24.542215411927156, 0.0, 0.0, 0.0, 0.0, 7369.392498659194, 0.0]
['beep', 0.0, -26.017430545977422, 0.0, 0.0, 0.0, 0.0, 7370.063050992853, 0.0]
['beep', 0.0, -26.196244501619876, 0.0, 0.0, 0.0, 0.0, 7372.700556838579, 0.0]
['beep', 0.0, -25.391581701228823, 0.0, 0.0, 0.0, 0.0, 7370.353623670772, 0.0]
['beep', 0.0, -25.525692167960667, 0.0, 0.0, 0.0, 0.0, 7369.8395335483, 0.0]
['beep', 0.0, -25.48098867905005, 0.0, 0.0, 0.0, 0.0, 7371.560617871359, 0.0]
['beep', 0.0, -26.844445090823783, 0.0, 0.0, 0.0, 0.0, 7371.8735422937325, 0.0]
['beep', 0.0, -28.520825924971813, 0.0, 0.0, 0.0, 0.0, 7372.298225438384, 0.0]
['beep', 0.0, -25.682154379147814, 0.0, 0.0, 0.0, 0.0, 7372.968777772043, 0.0]
['beep', 0.0, -22.73172411104728, 0.0, 0.0, 0.0, 0.0, 7371.962949271554, 0.0]
['beep', 0.0, -23.938718311633863, 0.0, 0.0, 0.0, 0.0, 7371.2253417045295, 0.0]
['beep', 0.0, -24.966898556577988, 0.0, 0.0, 0.0, 0.0, 7374.488696395004, 0.0]
['beep', 0.0, -24.631622389748383, 0.0, 0.0, 0.0, 0.0, 7374.60045511728, 0.0]
['beep', 0.0, -22.888186322234432, 0.0, 0.0, 0.0, 0.0, 7374.064013250353, 0.0]
['beep', 0.0, -22.84348283332382, 0.0, 0.0, 0.0, 0.0, 7373.706385339068, 0.0]
['beep', 0.0, -23.178759000153423, 0.0, 0.0, 0.0, 0.0, 7373.639330105702, 0.0]
['beep', 0.0, -24.49751192301654, 0.0, 0.0, 0.0, 0.0, 7373.88519929471, 0.0]
['beep', 0.0, -25.548043912415974, 0.0, 0.0, 0.0, 0.0, 7374.019309761443, 0.0]
['beep', 0.0, -23.67049737817018, 0.0, 0.0, 0.0, 0.0, 7375.740394084501, 0.0]
['beep', 0.0, -21.54708165491601, 0.0, 0.0, 0.0, 0.0, 7374.242827205995, 0.0]
['beep', 0.0, -23.379924700251188, 0.0, 0.0, 0.0, 0.0, 7373.147591727686, 0.0]
['beep', 0.0, -24.542215411927156, 0.0, 0.0, 0.0, 0.0, 7373.974606272532, 0.0]
['beep', 0.0, -25.525692167960667, 0.0, 0.0, 0.0, 0.0, 7375.740394084501, 0.0]
['beep', 0.0, -24.028125289455094, 0.0, 0.0, 0.0, 0.0, 7375.963911529054, 0.0]
['beep', 0.0, -21.480026421550086, 0.0, 0.0, 0.0, 0.0, 7376.321539440339, 0.0]
['beep', 0.0, -22.21763398857522, 0.0, 0.0, 0.0, 0.0, 7376.656815607169, 0.0]
['beep', 0.0, -25.34687821231821, 0.0, 0.0, 0.0, 0.0, 7377.595588874292, 0.0]
['beep', 0.0, -25.86096833479027, 0.0, 0.0, 0.0, 0.0, 7377.729699341024, 0.0]
['beep', 0.0, -22.66466887768136, 0.0, 0.0, 0.0, 0.0, 7378.333196441316, 0.0]
['beep', 0.0, -21.837654332835, 0.0, 0.0, 0.0, 0.0, 7380.9707022870425, 0.0]
['beep', 0.0, -23.268165977974654, 0.0, 0.0, 0.0, 0.0, 7380.166039486652, 0.0]
['beep', 0.0, -25.659802634692507, 0.0, 0.0, 0.0, 0.0, 7378.042623763397, 0.0]
['beep', 0.0, -26.978555557555623, 0.0, 0.0, 0.0, 0.0, 7377.953216785577, 0.0]
['beep', 0.0, -23.7375526115361, 0.0, 0.0, 0.0, 0.0, 7382.423565676638, 0.0]
['beep', 0.0, -20.653011876703726, 0.0, 0.0, 0.0, 0.0, 7382.065937765353, 0.0]
['beep', 0.0, -27.135017768742774, 0.0, 0.0, 0.0, 0.0, 7378.802583074878, 0.0]
['beep', 0.0, -28.632584647248347, 0.0, 0.0, 0.0, 0.0, 7378.690824352601, 0.0]
['beep', 0.0, -24.385753200740005, 0.0, 0.0, 0.0, 0.0, 7380.478963909026, 0.0]
['beep', 0.0, -23.916366567178557, 0.0, 0.0, 0.0, 0.0, 7380.233094720018, 0.0]
['beep', 0.0, -23.178759000153423, 0.0, 0.0, 0.0, 0.0, 7378.847286563789, 0.0]
['beep', 0.0, -19.267203720474686, 0.0, 0.0, 0.0, 0.0, 7377.5061818964705, 0.0]
['beep', 0.0, -22.97759330005566, 0.0, 0.0, 0.0, 0.0, 7376.925036540632, 0.0]
['beep', 0.0, -27.40323870220646, 0.0, 0.0, 0.0, 0.0, 7375.025138261931, 0.0]
['beep', 0.0, -24.94454681212268, 0.0, 0.0, 0.0, 0.0, 7374.443992906094, 0.0]
['beep', 0.0, -22.821131088868512, 0.0, 0.0, 0.0, 0.0, 7374.421641161638, 0.0]
['beep', 0.0, -27.09031427983216, 0.0, 0.0, 0.0, 0.0, 7373.952254528076, 0.0]
['beep', 0.0, -28.297308480418742, 0.0, 0.0, 0.0, 0.0, 7371.6947283380905, 0.0]
['beep', 0.0, -25.659802634692507, 0.0, 0.0, 0.0, 0.0, 7371.605321360269, 0.0]
['beep', 0.0, -24.385753200740005, 0.0, 0.0, 0.0, 0.0, 7371.046527748887, 0.0]
['beep', 0.0, -23.51403516698303, 0.0, 0.0, 0.0, 0.0, 7368.230207947518, 0.0]
['beep', 0.0, -24.18458750064224, 0.0, 0.0, 0.0, 0.0, 7366.285606179907, 0.0]
['beep', 0.0, -26.62092764627071, 0.0, 0.0, 0.0, 0.0, 7366.3526614132725, 0.0]
['beep', 0.0, -26.62092764627071, 0.0, 0.0, 0.0, 0.0, 7365.235074190507, 0.0]
['beep', 0.0, -25.011602045488605, 0.0, 0.0, 0.0, 0.0, 7365.547998612881, 0.0]
['beep', 0.0, -22.999945044510966, 0.0, 0.0, 0.0, 0.0, 7365.771516057434, 0.0]
['beep', 0.0, -23.782256100446716, 0.0, 0.0, 0.0, 0.0, 7364.229245690018, 0.0]
['beep', 0.0, -24.72102936756961, 0.0, 0.0, 0.0, 0.0, 7365.235074190507, 0.0]
['beep', 0.0, -26.017430545977422, 0.0, 0.0, 0.0, 0.0, 7366.017385246442, 0.0]
['beep', 0.0, -24.743381112024917, 0.0, 0.0, 0.0, 0.0, 7365.749164312979, 0.0]
['beep', 0.0, -23.335221211340574, 0.0, 0.0, 0.0, 0.0, 7364.7656875569455, 0.0]
['beep', 0.0, -23.581090400348952, 0.0, 0.0, 0.0, 0.0, 7364.519818367937, 0.0]
['beep', 0.0, -25.79391310142435, 0.0, 0.0, 0.0, 0.0, 7366.754992813468, 0.0]
['beep', 0.0, -25.615099145781894, 0.0, 0.0, 0.0, 0.0, 7366.978510258021, 0.0]
['beep', 0.0, -25.168064256675752, 0.0, 0.0, 0.0, 0.0, 7367.023213746931, 0.0]
['beep', 0.0, -23.715200867080792, 0.0, 0.0, 0.0, 0.0, 7367.492600380493, 0.0]
['beep', 0.0, -22.955241555600352, 0.0, 0.0, 0.0, 0.0, 7367.894931780688, 0.0]
['beep', 0.0, -24.3634014562847, 0.0, 0.0, 0.0, 0.0, 7367.537303869403, 0.0]
['beep', 0.0, -25.682154379147814, 0.0, 0.0, 0.0, 0.0, 7367.582007358314, 0.0]
['beep', 0.0, -23.13405551124281, 0.0, 0.0, 0.0, 0.0, 7367.894931780688, 0.0]
['beep', 0.0, -21.435322932639473, 0.0, 0.0, 0.0, 0.0, 7367.716117825046, 0.0]
['beep', 0.0, -21.658840377192544, 0.0, 0.0, 0.0, 0.0, 7368.654891092168, 0.0]
['beep', 0.0, -23.06700027787689, 0.0, 0.0, 0.0, 0.0, 7368.543132369892, 0.0]
['beep', 0.0, -23.648145633714872, 0.0, 0.0, 0.0, 0.0, 7370.2865684374065, 0.0]
['beep', 0.0, -20.98828804353333, 0.0, 0.0, 0.0, 0.0, 7370.778306815423, 0.0]
['beep', 0.0, -20.45184617660596, 0.0, 0.0, 0.0, 0.0, 7369.101925981275, 0.0]
['beep', 0.0, -20.876529321256797, 0.0, 0.0, 0.0, 0.0, 7368.431373647616, 0.0]
['beep', 0.0, -22.53055841094952, 0.0, 0.0, 0.0, 0.0, 7367.783173058412, 0.0]
['beep', 0.0, -22.105875266298685, 0.0, 0.0, 0.0, 0.0, 7368.4090219031605, 0.0]
['beep', 0.0, -20.496549665516575, 0.0, 0.0, 0.0, 0.0, 7368.274911436429, 0.0]
['beep', 0.0, -19.088389764832232, 0.0, 0.0, 0.0, 0.0, 7368.632539347714, 0.0]
['beep', 0.0, -19.423665931661837, 0.0, 0.0, 0.0, 0.0, 7370.5771411153255, 0.0]
['beep', 0.0, -20.809474087890877, 0.0, 0.0, 0.0, 0.0, 7371.31474868235, 0.0]
['beep', 0.0, -21.122398510265175, 0.0, 0.0, 0.0, 0.0, 7370.55478937087, 0.0]
['beep', 0.0, -17.81434033087973, 0.0, 0.0, 0.0, 0.0, 7370.912417282155, 0.0]
['beep', 0.0, -14.506282151494284, 0.0, 0.0, 0.0, 0.0, 7369.191332959096, 0.0]
['beep', 0.0, -16.58499438583784, 0.0, 0.0, 0.0, 0.0, 7366.665585835646, 0.0]
['beep', 0.0, -18.395485686717713, 0.0, 0.0, 0.0, 0.0, 7367.224379447029, 0.0]
['beep', 0.0, -18.86487232027916, 0.0, 0.0, 0.0, 0.0, 7368.900760281177, 0.0]
['beep', 0.0, -18.328430453351793, 0.0, 0.0, 0.0, 0.0, 7367.805524802867, 0.0]
['beep', 0.0, -17.36730544177359, 0.0, 0.0, 0.0, 0.0, 7365.682109079613, 0.0]
['beep', 0.0, -16.58499438583784, 0.0, 0.0, 0.0, 0.0, 7367.31378642485, 0.0]
['beep', 0.0, -17.680229864147886, 0.0, 0.0, 0.0, 0.0, 7367.336138169306, 0.0]
['beep', 0.0, -18.283726964441176, 0.0, 0.0, 0.0, 0.0, 7368.453725392071, 0.0]
['beep', 0.0, -17.546119397416046, 0.0, 0.0, 0.0, 0.0, 7368.274911436429, 0.0]
['beep', 0.0, -16.339125196829464, 0.0, 0.0, 0.0, 0.0, 7367.000862002476, 0.0]
['beep', 0.0, -17.25554671949705, 0.0, 0.0, 0.0, 0.0, 7367.291434680395, 0.0]
['beep', 0.0, -18.060209519888108, 0.0, 0.0, 0.0, 0.0, 7369.07957423682, 0.0]
['beep', 0.0, -19.04368627592162, 0.0, 0.0, 0.0, 0.0, 7369.79483005939, 0.0]
['beep', 0.0, -18.149616497709335, 0.0, 0.0, 0.0, 0.0, 7370.107754481764, 0.0]
['beep', 0.0, -16.182662985642313, 0.0, 0.0, 0.0, 0.0, 7368.900760281177, 0.0]
['beep', 0.0, -17.81434033087973, 0.0, 0.0, 0.0, 0.0, 7366.397364902183, 0.0]
['beep', 0.0, -18.306078708896486, 0.0, 0.0, 0.0, 0.0, 7366.397364902183, 0.0]
['beep', 0.0, -19.24485197601938, 0.0, 0.0, 0.0, 0.0, 7367.134972469208, 0.0]
['beep', 0.0, -18.171968242164642, 0.0, 0.0, 0.0, 0.0, 7367.358489913761, 0.0]
['beep', 0.0, -17.25554671949705, 0.0, 0.0, 0.0, 0.0, 7366.442068391093, 0.0]
['beep', 0.0, -17.836692075335037, 0.0, 0.0, 0.0, 0.0, 7366.330309668817, 0.0]
['beep', 0.0, -18.171968242164642, 0.0, 0.0, 0.0, 0.0, 7365.726812568523, 0.0]
['beep', 0.0, -17.300250208407668, 0.0, 0.0, 0.0, 0.0, 7364.810391045856, 0.0]
['beep', 0.0, -16.58499438583784, 0.0, 0.0, 0.0, 0.0, 7364.184542201107, 0.0]
['beep', 0.0, -15.087427507332267, 0.0, 0.0, 0.0, 0.0, 7364.408059645661, 0.0]
['beep', 0.0, -16.1379594967317, 0.0, 0.0, 0.0, 0.0, 7362.306995666861, 0.0]
['beep', 0.0, -16.853215319301526, 0.0, 0.0, 0.0, 0.0, 7362.306995666861, 0.0]
['beep', 0.0, -18.909575809189775, 0.0, 0.0, 0.0, 0.0, 7363.0669549783415, 0.0]
['beep', 0.0, -17.59082288632666, 0.0, 0.0, 0.0, 0.0, 7362.239940433496, 0.0]
['beep', 0.0, -15.199186229608802, 0.0, 0.0, 0.0, 0.0, 7359.8930072656885, 0.0]
['beep', 0.0, -16.07090426336578, 0.0, 0.0, 0.0, 0.0, 7359.64713807668, 0.0]
['beep', 0.0, -16.96497404157806, 0.0, 0.0, 0.0, 0.0, 7361.167056699641, 0.0]
['beep', 0.0, -18.686058364636704, 0.0, 0.0, 0.0, 0.0, 7363.357527656261, 0.0]
['beep', 0.0, -17.836692075335037, 0.0, 0.0, 0.0, 0.0, 7359.200103187573, 0.0]
['beep', 0.0, -16.36147694128477, 0.0, 0.0, 0.0, 0.0, 7356.942576997588, 0.0]
['beep', 0.0, -17.233194975041744, 0.0, 0.0, 0.0, 0.0, 7357.613129331247, 0.0]
['beep', 0.0, -19.535424653938374, 0.0, 0.0, 0.0, 0.0, 7357.411963631149, 0.0]
['beep', 0.0, -20.98828804353333, 0.0, 0.0, 0.0, 0.0, 7358.6636613206465, 0.0]
['beep', 0.0, -18.909575809189775, 0.0, 0.0, 0.0, 0.0, 7358.998937487476, 0.0]
['beep', 0.0, -16.89791880821214, 0.0, 0.0, 0.0, 0.0, 7357.166094442141, 0.0]
['beep', 0.0, -17.34495369731828, 0.0, 0.0, 0.0, 0.0, 7356.987280486498, 0.0]
['beep', 0.0, -19.311907209385303, 0.0, 0.0, 0.0, 0.0, 7359.825952032323, 0.0]
['beep', 0.0, -20.027163031955126, 0.0, 0.0, 0.0, 0.0, 7362.195236944585, 0.0]
['beep', 0.0, -18.57429964236017, 0.0, 0.0, 0.0, 0.0, 7363.737507312001, 0.0]
['beep', 0.0, -17.233194975041744, 0.0, 0.0, 0.0, 0.0, 7365.12331546823, 0.0]
['beep', 0.0, -17.65787811969258, 0.0, 0.0, 0.0, 0.0, 7367.98433875851, 0.0]
['beep', 0.0, -18.082561264343415, 0.0, 0.0, 0.0, 0.0, 7368.02904224742, 0.0]
['beep', 0.0, -19.311907209385303, 0.0, 0.0, 0.0, 0.0, 7366.732641069012, 0.0]
['beep', 0.0, -20.250680476508197, 0.0, 0.0, 0.0, 0.0, 7367.894931780688, 0.0]
['beep', 0.0, -18.57429964236017, 0.0, 0.0, 0.0, 0.0, 7369.012519003453, 0.0]
['beep', 0.0, -18.820168831368548, 0.0, 0.0, 0.0, 0.0, 7371.404155660171, 0.0]
['beep', 0.0, -21.569433399371317, 0.0, 0.0, 0.0, 0.0, 7374.93573128411, 0.0]
['beep', 0.0, -22.061171777388072, 0.0, 0.0, 0.0, 0.0, 7374.354585928272, 0.0]
['beep', 0.0, -19.535424653938374, 0.0, 0.0, 0.0, 0.0, 7374.086364994809, 0.0]
['beep', 0.0, -17.81434033087973, 0.0, 0.0, 0.0, 0.0, 7373.5722748723365, 0.0]
['beep', 0.0, -16.249718219008233, 0.0, 0.0, 0.0, 0.0, 7373.952254528076, 0.0]
['beep', 0.0, -17.34495369731828, 0.0, 0.0, 0.0, 0.0, 7375.226303962029, 0.0]
['beep', 0.0, -17.36730544177359, 0.0, 0.0, 0.0, 0.0, 7376.589760373803, 0.0]
['beep', 0.0, -15.959145541089242, 0.0, 0.0, 0.0, 0.0, 7375.427469662127, 0.0]
['beep', 0.0, -14.68509610713674, 0.0, 0.0, 0.0, 0.0, 7375.9192080401435, 0.0]
['beep', 0.0, -15.981497285544549, 0.0, 0.0, 0.0, 0.0, 7375.047490006386, 0.0]
['beep', 0.0, -19.222500231564073, 0.0, 0.0, 0.0, 0.0, 7375.069841750842, 0.0]
['beep', 0.0, -19.71423860958083, 0.0, 0.0, 0.0, 0.0, 7375.494524895493, 0.0]
['beep', 0.0, -19.71423860958083, 0.0, 0.0, 0.0, 0.0, 7371.426507404627, 0.0]
['beep', 0.0, -18.306078708896486, 0.0, 0.0, 0.0, 0.0, 7369.8395335483, 0.0]
['beep', 0.0, -18.529596153449553, 0.0, 0.0, 0.0, 0.0, 7369.951292270576, 0.0]
['beep', 0.0, -19.6248316317596, 0.0, 0.0, 0.0, 0.0, 7369.057222492364, 0.0]
['beep', 0.0, -20.608308387793112, 0.0, 0.0, 0.0, 0.0, 7371.091231237797, 0.0]
['beep', 0.0, -19.87070082076798, 0.0, 0.0, 0.0, 0.0, 7372.36528067175, 0.0]
['beep', 0.0, -17.993154286522184, 0.0, 0.0, 0.0, 0.0, 7369.683071337113, 0.0]
['beep', 0.0, -16.96497404157806, 0.0, 0.0, 0.0, 0.0, 7369.236036448006, 0.0]
['beep', 0.0, -19.71423860958083, 0.0, 0.0, 0.0, 0.0, 7370.2865684374065, 0.0]
['beep', 0.0, -21.032991532443948, 0.0, 0.0, 0.0, 0.0, 7370.845362048789, 0.0]
['beep', 0.0, -17.233194975041744, 0.0, 0.0, 0.0, 0.0, 7371.404155660171, 0.0]
['beep', 0.0, -15.020372273966347, 0.0, 0.0, 0.0, 0.0, 7368.74429806999, 0.0]
['beep', 0.0, -15.221537974064109, 0.0, 0.0, 0.0, 0.0, 7368.006690502965, 0.0]
['beep', 0.0, -18.0378577754328, 0.0, 0.0, 0.0, 0.0, 7370.241864948495, 0.0]
['beep', 0.0, -18.998982787011002, 0.0, 0.0, 0.0, 0.0, 7370.733603326512, 0.0]
['beep', 0.0, -18.596651386815477, 0.0, 0.0, 0.0, 0.0, 7370.130106226219, 0.0]
['beep', 0.0, -18.3507821978071, 0.0, 0.0, 0.0, 0.0, 7370.130106226219, 0.0]
['beep', 0.0, -18.57429964236017, 0.0, 0.0, 0.0, 0.0, 7372.052356249375, 0.0]
['beep', 0.0, -20.250680476508197, 0.0, 0.0, 0.0, 0.0, 7372.6335016052135, 0.0]
['beep', 0.0, -20.429494432150655, 0.0, 0.0, 0.0, 0.0, 7373.214646961052, 0.0]
['beep', 0.0, -19.490721165027757, 0.0, 0.0, 0.0, 0.0, 7371.940597527099, 0.0]
['beep', 0.0, -17.926099053156264, 0.0, 0.0, 0.0, 0.0, 7372.74526032749, 0.0]
['beep', 0.0, -17.635526375237273, 0.0, 0.0, 0.0, 0.0, 7374.8016208173785, 0.0]
['beep', 0.0, -17.81434033087973, 0.0, 0.0, 0.0, 0.0, 7376.053318506875, 0.0]
['beep', 0.0, -18.306078708896486, 0.0, 0.0, 0.0, 0.0, 7376.723870840535, 0.0]
['beep', 0.0, -16.67440136365907, 0.0, 0.0, 0.0, 0.0, 7378.176734230129, 0.0]
['beep', 0.0, -15.512110651983102, 0.0, 0.0, 0.0, 0.0, 7380.255446464473, 0.0]
['beep', 0.0, -15.512110651983102, 0.0, 0.0, 0.0, 0.0, 7378.55671388587, 0.0]
['beep', 0.0, -18.70841010909201, 0.0, 0.0, 0.0, 0.0, 7379.786059830912, 0.0]
['beep', 0.0, -18.77546534245793, 0.0, 0.0, 0.0, 0.0, 7382.5576761433695, 0.0]
['beep', 0.0, -17.099084508309904, 0.0, 0.0, 0.0, 0.0, 7382.356510443272, 0.0]
['beep', 0.0, -16.383828685740077, 0.0, 0.0, 0.0, 0.0, 7382.8929523102, 0.0]
['beep', 0.0, -16.920270552667446, 0.0, 0.0, 0.0, 0.0, 7385.418699433649, 0.0]
['beep', 0.0, -17.859043819790344, 0.0, 0.0, 0.0, 0.0, 7386.424527934138, 0.0]
['beep', 0.0, -18.529596153449553, 0.0, 0.0, 0.0, 0.0, 7386.6033418897805, 0.0]
['beep', 0.0, -16.96497404157806, 0.0, 0.0, 0.0, 0.0, 7387.028025034431, 0.0]
['beep', 0.0, -15.467407163072487, 0.0, 0.0, 0.0, 0.0, 7386.066900022853, 0.0]
['beep', 0.0, -16.920270552667446, 0.0, 0.0, 0.0, 0.0, 7386.290417467406, 0.0]
['beep', 0.0, -20.273032220963504, 0.0, 0.0, 0.0, 0.0, 7385.530458155926, 0.0]
['beep', 0.0, -20.496549665516575, 0.0, 0.0, 0.0, 0.0, 7387.5421151569035, 0.0]
['beep', 0.0, -15.154482740698189, 0.0, 0.0, 0.0, 0.0, 7386.357472700772, 0.0]
['beep', 0.0, -11.600555372304365, 0.0, 0.0, 0.0, 0.0, 7381.998882531987, 0.0]
['beep', 0.0, -11.689962350125594, 0.0, 0.0, 0.0, 0.0, 7382.401213932182, 0.0]
['beep', 0.0, -15.310944951885338, 0.0, 0.0, 0.0, 0.0, 7383.876429066233, 0.0]
['beep', 0.0, -17.479064164050122, 0.0, 0.0, 0.0, 0.0, 7382.3788621877275, 0.0]
['beep', 0.0, -14.103950751298756, 0.0, 0.0, 0.0, 0.0, 7381.998882531987, 0.0]
['beep', 0.0, -11.26527920547476, 0.0, 0.0, 0.0, 0.0, 7380.724833098035, 0.0]
['beep', 0.0, -13.098122250809938, 0.0, 0.0, 0.0, 0.0, 7378.064975507853, 0.0]
['beep', 0.0, -17.166139741675824, 0.0, 0.0, 0.0, 0.0, 7376.723870840535, 0.0]
['beep', 0.0, -14.68509610713674, 0.0, 0.0, 0.0, 0.0, 7377.327367940828, 0.0]
['beep', 0.0, -12.539328639427263, 0.0, 0.0, 0.0, 0.0, 7376.187428973607, 0.0]
['beep', 0.0, -10.19239547162002, 0.0, 0.0, 0.0, 0.0, 7374.466344650548, 0.0]
['beep', 0.0, -10.95235478310046, 0.0, 0.0, 0.0, 0.0, 7371.8735422937325, 0.0]
['beep', 0.0, -13.343991439818316, 0.0, 0.0, 0.0, 0.0, 7370.733603326512, 0.0]
['beep', 0.0, -14.349819940307134, 0.0, 0.0, 0.0, 0.0, 7371.113582982252, 0.0]
['beep', 0.0, -14.171005984664678, 0.0, 0.0, 0.0, 0.0, 7371.940597527099, 0.0]
['beep', 0.0, -13.053418761899325, 0.0, 0.0, 0.0, 0.0, 7372.991129516498, 0.0]
['beep', 0.0, -12.494625150516647, 0.0, 0.0, 0.0, 0.0, 7374.466344650548, 0.0]
['beep', 0.0, -14.327468195851827, 0.0, 0.0, 0.0, 0.0, 7372.231170205018, 0.0]
['beep', 0.0, -16.249718219008233, 0.0, 0.0, 0.0, 0.0, 7371.895894038188, 0.0]
['beep', 0.0, -14.99802052951104, 0.0, 0.0, 0.0, 0.0, 7371.828838804822, 0.0]
['beep', 0.0, -13.16517748417586, 0.0, 0.0, 0.0, 0.0, 7370.890065537699, 0.0]
['beep', 0.0, -12.829901317346254, 0.0, 0.0, 0.0, 0.0, 7370.063050992853, 0.0]
['beep', 0.0, -14.841558318323889, 0.0, 0.0, 0.0, 0.0, 7371.627673104725, 0.0]
['beep', 0.0, -16.227366474552927, 0.0, 0.0, 0.0, 0.0, 7372.74526032749, 0.0]
['beep', 0.0, -14.662744362681433, 0.0, 0.0, 0.0, 0.0, 7370.666548093146, 0.0]
['beep', 0.0, -14.506282151494284, 0.0, 0.0, 0.0, 0.0, 7370.398327159683, 0.0]
['beep', 0.0, -15.8250350743574, 0.0, 0.0, 0.0, 0.0, 7369.548960870381, 0.0]
['beep', 0.0, -15.959145541089242, 0.0, 0.0, 0.0, 0.0, 7370.487734137504, 0.0]
['beep', 0.0, -16.294421707918847, 0.0, 0.0, 0.0, 0.0, 7369.79483005939, 0.0]
['beep', 0.0, -15.579165885349022, 0.0, 0.0, 0.0, 0.0, 7369.504257381471, 0.0]
['beep', 0.0, -13.99219202902222, 0.0, 0.0, 0.0, 0.0, 7368.274911436429, 0.0]
['beep', 0.0, -13.567508884371387, 0.0, 0.0, 0.0, 0.0, 7367.98433875851, 0.0]
['beep', 0.0, -15.579165885349022, 0.0, 0.0, 0.0, 0.0, 7368.185504458607, 0.0]
['beep', 0.0, -17.03202927494398, 0.0, 0.0, 0.0, 0.0, 7369.437202148105, 0.0]
['beep', 0.0, -15.489758907527795, 0.0, 0.0, 0.0, 0.0, 7368.900760281177, 0.0]
['beep', 0.0, -13.746322840013844, 0.0, 0.0, 0.0, 0.0, 7368.096097480786, 0.0]
['beep', 0.0, -12.293459450418885, 0.0, 0.0, 0.0, 0.0, 7368.163152714152, 0.0]
['beep', 0.0, -14.036895517932836, 0.0, 0.0, 0.0, 0.0, 7369.772478314934, 0.0]
['beep', 0.0, -15.37800018525126, 0.0, 0.0, 0.0, 0.0, 7371.292396937895, 0.0]
['beep', 0.0, -14.461578662583669, 0.0, 0.0, 0.0, 0.0, 7371.515914382448, 0.0]
['beep', 0.0, -10.862947805279232, 0.0, 0.0, 0.0, 0.0, 7369.571312614837, 0.0]
['beep', 0.0, -10.818244316368618, 0.0, 0.0, 0.0, 0.0, 7370.890065537699, 0.0]
['beep', 0.0, -14.372171684762442, 0.0, 0.0, 0.0, 0.0, 7372.857019049767, 0.0]
['beep', 0.0, -14.282764706941213, 0.0, 0.0, 0.0, 0.0, 7372.36528067175, 0.0]
['beep', 0.0, -14.238061218030598, 0.0, 0.0, 0.0, 0.0, 7373.438164405605, 0.0]
['beep', 0.0, -11.533500138938445, 0.0, 0.0, 0.0, 0.0, 7375.494524895493, 0.0]
['beep', 0.0, -12.002886772499892, 0.0, 0.0, 0.0, 0.0, 7377.394423174193, 0.0]
['beep', 0.0, -13.656915862192616, 0.0, 0.0, 0.0, 0.0, 7380.076632508831, 0.0]
['beep', 0.0, -13.388694928728931, 0.0, 0.0, 0.0, 0.0, 7381.887123809711, 0.0]
['beep', 0.0, -12.069942005865814, 0.0, 0.0, 0.0, 0.0, 7381.8424203208, 0.0]
['beep', 0.0, -9.745360582513879, 0.0, 0.0, 0.0, 0.0, 7381.216571476051, 0.0]
['beep', 0.0, -8.806587315390983, 0.0, 0.0, 0.0, 0.0, 7382.423565676638, 0.0]
['beep', 0.0, -10.393561171717785, 0.0, 0.0, 0.0, 0.0, 7384.03289127742, 0.0]
['beep', 0.0, -12.40521817269542, 0.0, 0.0, 0.0, 0.0, 7381.954179043077, 0.0]
['beep', 0.0, -12.09229375032112, 0.0, 0.0, 0.0, 0.0, 7380.523667397937, 0.0]
['beep', 0.0, -8.627773359748526, 0.0, 0.0, 0.0, 0.0, 7382.98235928802, 0.0]
['beep', 0.0, -6.504357636494356, 0.0, 0.0, 0.0, 0.0, 7381.596551131792, 0.0]
['beep', 0.0, -8.180738470642385, 0.0, 0.0, 0.0, 0.0, 7376.545056884892, 0.0]
['beep', 0.0, -8.314848937374228, 0.0, 0.0, 0.0, 0.0, 7375.852152806778, 0.0]
['beep', 0.0, -6.169081469664749, 0.0, 0.0, 0.0, 0.0, 7376.41094641816, 0.0]
['beep', 0.0, -5.722046580558608, 0.0, 0.0, 0.0, 0.0, 7374.421641161638, 0.0]
['beep', 0.0, -6.839633803323961, 0.0, 0.0, 0.0, 0.0, 7370.644196348691, 0.0]
['beep', 0.0, -8.873642548756903, 0.0, 0.0, 0.0, 0.0, 7371.180638215618, 0.0]
['beep', 0.0, -9.857119304790414, 0.0, 0.0, 0.0, 0.0, 7372.119411482741, 0.0]
['beep', 0.0, -7.867814048268086, 0.0, 0.0, 0.0, 0.0, 7366.665585835646, 0.0]
['beep', 0.0, -2.458691890083777, 0.0, 0.0, 0.0, 0.0, 7364.922149768133, 0.0]
['beep', 0.0, -1.8998982787011003, 0.0, 0.0, 0.0, 0.0, 7366.486771880004, 0.0]
['beep', 0.0, -5.520880880460845, 0.0, 0.0, 0.0, 0.0, 7364.363356156749, 0.0]
['beep', 0.0, -5.185604713631238, 0.0, 0.0, 0.0, 0.0, 7362.128181711219, 0.0]
['beep', 0.0, -2.5704506123603124, 0.0, 0.0, 0.0, 0.0, 7362.619920089236, 0.0]
['beep', 0.0, -1.6316773452374156, 0.0, 0.0, 0.0, 0.0, 7362.619920089236, 0.0]
['beep', 0.0, -0.49173837801675535, 0.0, 0.0, 0.0, 0.0, 7362.21758868904, 0.0]
['beep', 0.0, -3.1515959681982957, 0.0, 0.0, 0.0, 0.0, 7360.407097388161, 0.0]
['beep', 0.0, -5.453825647094924, 0.0, 0.0, 0.0, 0.0, 7361.032946232909, 0.0]
['beep', 0.0, -2.7716163124580757, 0.0, 0.0, 0.0, 0.0, 7362.150533455674, 0.0]
['beep', 0.0, -1.0281802449441249, 0.0, 0.0, 0.0, 0.0, 7361.614091588747, 0.0]
['beep', 0.0, -1.1622907116759673, 0.0, 0.0, 0.0, 0.0, 7362.061126477854, 0.0]
['beep', 0.0, -2.481043634539084, 0.0, 0.0, 0.0, 0.0, 7362.865789278244, 0.0]
['beep', 0.0, -4.224479702053035, 0.0, 0.0, 0.0, 0.0, 7362.530513111415, 0.0]
['beep', 0.0, -3.3751134127513667, 0.0, 0.0, 0.0, 0.0, 7362.351699155772, 0.0]
['beep', 0.0, -1.6093256007821086, 0.0, 0.0, 0.0, 0.0, 7362.306995666861, 0.0]
['beep', 0.0, -0.5587936113826766, 0.0, 0.0, 0.0, 0.0, 7361.547036355381, 0.0]
['beep', 0.0, -3.3527616682960595, 0.0, 0.0, 0.0, 0.0, 7362.262292177951, 0.0]
['beep', 0.0, -3.4645203905725945, 0.0, 0.0, 0.0, 0.0, 7362.17288520013, 0.0]
['beep', 0.0, -1.363456411773731, 0.0, 0.0, 0.0, 0.0, 7360.876484021722, 0.0]
['beep', 0.0, 0.6705523336592119, 0.0, 0.0, 0.0, 0.0, 7359.088344465297, 0.0]
['beep', 0.0, 0.357627911284913, 0.0, 0.0, 0.0, 0.0, 7359.177751443119, 0.0]
['beep', 0.0, -2.3245814233519346, 0.0, 0.0, 0.0, 0.0, 7359.445972376582, 0.0]
['beep', 0.0, -3.1068924792876818, 0.0, 0.0, 0.0, 0.0, 7359.155399698663, 0.0]
['beep', 0.0, -1.8328430453351792, 0.0, 0.0, 0.0, 0.0, 7358.0154607314425, 0.0]
['beep', 0.0, -0.6929040781145189, 0.0, 0.0, 0.0, 0.0, 7358.55190259837, 0.0]
['beep', 0.0, -0.6034971002932907, 0.0, 0.0, 0.0, 0.0, 7357.166094442141, 0.0]
['beep', 0.0, -0.7599593114804402, 0.0, 0.0, 0.0, 0.0, 7356.942576997588, 0.0]
['beep', 0.0, -2.6151541012709263, 0.0, 0.0, 0.0, 0.0, 7356.517893852937, 0.0]
['beep', 0.0, -1.1175872227653532, 0.0, 0.0, 0.0, 0.0, 7355.534417096904, 0.0]
['beep', 0.0, 2.3692849122625486, 0.0, 0.0, 0.0, 0.0, 7354.416829874138, 0.0]
['beep', 0.0, 2.6151541012709263, 0.0, 0.0, 0.0, 0.0, 7355.802638030367, 0.0]
['beep', 0.0, 0.40233140019552716, 0.0, 0.0, 0.0, 0.0, 7357.5460740978815, 0.0]
['beep', 0.0, -0.6929040781145189, 0.0, 0.0, 0.0, 0.0, 7356.383783386205, 0.0]
['beep', 0.0, 0.6034971002932907, 0.0, 0.0, 0.0, 0.0, 7356.763763041946, 0.0]
['beep', 0.0, 3.620982601759744, 0.0, 0.0, 0.0, 0.0, 7356.652004319669, 0.0]
['beep', 0.0, 1.9222500231564075, 0.0, 0.0, 0.0, 0.0, 7355.981451986009, 0.0]
['beep', 0.0, -0.08940697782122825, 0.0, 0.0, 0.0, 0.0, 7357.344908397783, 0.0]
['beep', 0.0, -0.13411046673184238, 0.0, 0.0, 0.0, 0.0, 7359.021289231931, 0.0]
['beep', 0.0, 1.4752151340502662, 0.0, 0.0, 0.0, 0.0, 7359.378917143216, 0.0]
['beep', 0.0, 4.71621808006979, 0.0, 0.0, 0.0, 0.0, 7358.373088642727, 0.0]
['beep', 0.0, 4.33623842432957, 0.0, 0.0, 0.0, 0.0, 7357.50137060897, 0.0]
['beep', 0.0, 2.6375058457262335, 0.0, 0.0, 0.0, 0.0, 7359.6024345877695, 0.0]
['beep', 0.0, 1.452863389594959, 0.0, 0.0, 0.0, 0.0, 7360.652966577169, 0.0]
['beep', 0.0, 1.363456411773731, 0.0, 0.0, 0.0, 0.0, 7360.876484021722, 0.0]
['beep', 0.0, 2.793968056913383, 0.0, 0.0, 0.0, 0.0, 7360.049469476876, 0.0]
['beep', 0.0, 2.883375034734611, 0.0, 0.0, 0.0, 0.0, 7359.915359010143, 0.0]
['beep', 0.0, 1.7434360675139509, 0.0, 0.0, 0.0, 0.0, 7361.055297977365, 0.0]
['beep', 0.0, 0.13411046673184238, 0.0, 0.0, 0.0, 0.0, 7360.228283432518, 0.0]
['beep', 0.0, 1.8998982787011003, 0.0, 0.0, 0.0, 0.0, 7359.065992720842, 0.0]
['beep', 0.0, 5.319715180363081, 0.0, 0.0, 0.0, 0.0, 7358.730716554012, 0.0]
['beep', 0.0, 4.71621808006979, 0.0, 0.0, 0.0, 0.0, 7356.920225253132, 0.0]
['beep', 0.0, 2.3245814233519346, 0.0, 0.0, 0.0, 0.0, 7356.003803730465, 0.0]
['beep', 0.0, 2.3022296788966274, 0.0, 0.0, 0.0, 0.0, 7357.769591542434, 0.0]
['beep', 0.0, 3.129244223742989, 0.0, 0.0, 0.0, 0.0, 7357.300204908873, 0.0]
['beep', 0.0, 3.933907024134043, 0.0, 0.0, 0.0, 0.0, 7355.512065352448, 0.0]
['beep', 0.0, 6.258488447485978, 0.0, 0.0, 0.0, 0.0, 7357.344908397783, 0.0]
['beep', 0.0, 3.19629945710891, 0.0, 0.0, 0.0, 0.0, 7357.099039208775, 0.0]
['beep', 0.0, 0.8493662893016684, 0.0, 0.0, 0.0, 0.0, 7357.7248880535235, 0.0]
['beep', 0.0, 3.308058179385445, 0.0, 0.0, 0.0, 0.0, 7357.568425842336, 0.0]
['beep', 0.0, 4.157424468687114, 0.0, 0.0, 0.0, 0.0, 7358.261329920451, 0.0]
['beep', 0.0, 5.297363435907774, 0.0, 0.0, 0.0, 0.0, 7359.490675865492, 0.0]
['beep', 0.0, 3.2186512015642172, 0.0, 0.0, 0.0, 0.0, 7358.037812475898, 0.0]
['beep', 0.0, 1.4975668785055731, 0.0, 0.0, 0.0, 0.0, 7357.2555014199625, 0.0]
['beep', 0.0, 3.7550930684915866, 0.0, 0.0, 0.0, 0.0, 7358.775420042923, 0.0]
['beep', 0.0, 5.1632529691759315, 0.0, 0.0, 0.0, 0.0, 7360.518856110437, 0.0]
['beep', 0.0, 4.872680291256939, 0.0, 0.0, 0.0, 0.0, 7362.463457878049, 0.0]
['beep', 0.0, 3.509223879483209, 0.0, 0.0, 0.0, 0.0, 7365.771516057434, 0.0]
['beep', 0.0, 3.6880378351256655, 0.0, 0.0, 0.0, 0.0, 7366.866751535744, 0.0]
['beep', 0.0, 2.101063978798864, 0.0, 0.0, 0.0, 0.0, 7366.039736990898, 0.0]
['beep', 0.0, 4.000962257499964, 0.0, 0.0, 0.0, 0.0, 7365.324481168328, 0.0]
['beep', 0.0, 6.347895425307206, 0.0, 0.0, 0.0, 0.0, 7367.023213746931, 0.0]
['beep', 0.0, 6.794930314413347, 0.0, 0.0, 0.0, 0.0, 7370.130106226219, 0.0]
['beep', 0.0, 4.827976802346326, 0.0, 0.0, 0.0, 0.0, 7371.9853010160095, 0.0]
['beep', 0.0, 6.280840191941285, 0.0, 0.0, 0.0, 0.0, 7371.515914382448, 0.0]
['beep', 0.0, 7.107854736787646, 0.0, 0.0, 0.0, 0.0, 7370.5771411153255, 0.0]
['beep', 0.0, 7.241965203519488, 0.0, 0.0, 0.0, 0.0, 7371.739431827001, 0.0]
['beep', 0.0, 6.526709380949662, 0.0, 0.0, 0.0, 0.0, 7372.298225438384, 0.0]
['beep', 0.0, 5.923212280656371, 0.0, 0.0, 0.0, 0.0, 7370.890065537699, 0.0]
['beep', 0.0, 5.744398325013915, 0.0, 0.0, 0.0, 0.0, 7370.890065537699, 0.0]
['beep', 0.0, 7.241965203519488, 0.0, 0.0, 0.0, 0.0, 7370.733603326512, 0.0]
['beep', 0.0, 7.756055325991551, 0.0, 0.0, 0.0, 0.0, 7368.654891092168, 0.0]
['beep', 0.0, 4.872680291256939, 0.0, 0.0, 0.0, 0.0, 7368.721946325535, 0.0]
['beep', 0.0, 3.7774448129468934, 0.0, 0.0, 0.0, 0.0, 7368.74429806999, 0.0]
