['beep', 0.0, 0.0, 0.0, 0.0, 0.0, 0.0, 0.0, 0.0]
['beep', 0.0, -106.19313790716386, 0.0, 0.0, 0.0, 0.0, 7082.574913808694, 0.0]
['beep', 0.0, -108.47301584160518, 0.0, 0.0, 0.0, 0.0, 7083.021948697799, 0.0]
['beep', 0.0, -110.35056237585097, 0.0, 0.0, 0.0, 0.0, 7084.631274298582, 0.0]
['beep', 0.0, -109.70236178664706, 0.0, 0.0, 0.0, 0.0, 7083.3125213757185, 0.0]
['beep', 0.0, -106.59546930735938, 0.0, 0.0, 0.0, 0.0, 7084.743033020858, 0.0]
['beep', 0.0, -104.98614370657727, 0.0, 0.0, 0.0, 0.0, 7085.9723789659, 0.0]
['beep', 0.0, -108.5624228194264, 0.0, 0.0, 0.0, 0.0, 7084.11718417611, 0.0]
['beep', 0.0, -111.66931529871408, 0.0, 0.0, 0.0, 0.0, 7084.698329531948, 0.0]
['beep', 0.0, -110.1046931868426, 0.0, 0.0, 0.0, 0.0, 7084.810088254224, 0.0]
['beep', 0.0, -108.67418154170294, 0.0, 0.0, 0.0, 0.0, 7083.804259753735, 0.0]
['beep', 0.0, -108.5400710749711, 0.0, 0.0, 0.0, 0.0, 7085.726509776892, 0.0]
['beep', 0.0, -109.5011960865493, 0.0, 0.0, 0.0, 0.0, 7085.793565010258, 0.0]
['beep', 0.0, -111.44579785416101, 0.0, 0.0, 0.0, 0.0, 7086.821745255202, 0.0]
['beep', 0.0, -111.51285308752693, 0.0, 0.0, 0.0, 0.0, 7086.30765513273, 0.0]
['beep', 0.0, -107.53424257448228, 0.0, 0.0, 0.0, 0.0, 7085.726509776892, 0.0]
['beep', 0.0, -105.58964080687056, 0.0, 0.0, 0.0, 0.0, 7086.866448744113, 0.0]
['beep', 0.0, -105.92491697370016, 0.0, 0.0, 0.0, 0.0, 7087.581704566683, 0.0]
['beep', 0.0, -107.19896640765268, 0.0, 0.0, 0.0, 0.0, 7089.21338191192, 0.0]
['beep', 0.0, -106.14843441825325, 0.0, 0.0, 0.0, 0.0, 7090.375672623596, 0.0]
['beep', 0.0, -107.04250419646553, 0.0, 0.0, 0.0, 0.0, 7089.146326678554, 0.0]
['beep', 0.0, -106.72957977409122, 0.0, 0.0, 0.0, 0.0, 7088.229905155887, 0.0]
['beep', 0.0, -108.60712630833702, 0.0, 0.0, 0.0, 0.0, 7087.246428399852, 0.0]
['beep', 0.0, -110.95405947614425, 0.0, 0.0, 0.0, 0.0, 7086.799393510747, 0.0]
['beep', 0.0, -111.13287343178672, 0.0, 0.0, 0.0, 0.0, 7086.039434199266, 0.0]
['beep', 0.0, -108.65182979724763, 0.0, 0.0, 0.0, 0.0, 7084.139535920565, 0.0]
['beep', 0.0, -108.5624228194264, 0.0, 0.0, 0.0, 0.0, 7085.100660932143, 0.0]
['beep', 0.0, -110.35056237585097, 0.0, 0.0, 0.0, 0.0, 7087.40289061104, 0.0]
['beep', 0.0, -111.46814959861632, 0.0, 0.0, 0.0, 0.0, 7087.849925500146, 0.0]
['beep', 0.0, -111.02111470951019, 0.0, 0.0, 0.0, 0.0, 7087.380538866585, 0.0]
['beep', 0.0, -108.04833269695435, 0.0, 0.0, 0.0, 0.0, 7086.508820832828, 0.0]
['beep', 0.0, -106.50606232953815, 0.0, 0.0, 0.0, 0.0, 7087.268780144308, 0.0]
['beep', 0.0, -108.09303618586496, 0.0, 0.0, 0.0, 0.0, 7087.939332477968, 0.0]
['beep', 0.0, -110.95405947614425, 0.0, 0.0, 0.0, 0.0, 7088.028739455788, 0.0]
['beep', 0.0, -110.28350714248505, 0.0, 0.0, 0.0, 0.0, 7088.252256900341, 0.0]
['beep', 0.0, -106.9754489630996, 0.0, 0.0, 0.0, 0.0, 7088.364015622618, 0.0]
['beep', 0.0, -105.65669604023648, 0.0, 0.0, 0.0, 0.0, 7087.715815033414, 0.0]
['beep', 0.0, -105.74610301805771, 0.0, 0.0, 0.0, 0.0, 7088.855754000635, 0.0]
['beep', 0.0, -107.51189083002697, 0.0, 0.0, 0.0, 0.0, 7088.431070855984, 0.0]
['beep', 0.0, -107.2660216410186, 0.0, 0.0, 0.0, 0.0, 7088.341663878163, 0.0]
['beep', 0.0, -104.49440532856052, 0.0, 0.0, 0.0, 0.0, 7086.754690021836, 0.0]
['beep', 0.0, -104.82968149539012, 0.0, 0.0, 0.0, 0.0, 7088.676940044992, 0.0]
['beep', 0.0, -106.52841407399346, 0.0, 0.0, 0.0, 0.0, 7091.269742401808, 0.0]
['beep', 0.0, -108.04833269695435, 0.0, 0.0, 0.0, 0.0, 7091.381501124085, 0.0]
['beep', 0.0, -106.59546930735938, 0.0, 0.0, 0.0, 0.0, 7089.101623189643, 0.0]
['beep', 0.0, -104.51675707301582, 0.0, 0.0, 0.0, 0.0, 7086.531172577283, 0.0]
['beep', 0.0, -103.19800415015271, 0.0, 0.0, 0.0, 0.0, 7086.8888004885675, 0.0]
['beep', 0.0, -105.85786174033424, 0.0, 0.0, 0.0, 0.0, 7086.7099865329255, 0.0]
['beep', 0.0, -107.86951874131188, 0.0, 0.0, 0.0, 0.0, 7089.012216211822, 0.0]
['beep', 0.0, -107.42248385220574, 0.0, 0.0, 0.0, 0.0, 7089.883934245579, 0.0]
['beep', 0.0, -104.71792277311359, 0.0, 0.0, 0.0, 0.0, 7087.6487598000485, 0.0]
['beep', 0.0, -103.28741112797394, 0.0, 0.0, 0.0, 0.0, 7087.559352822227, 0.0]
['beep', 0.0, -105.52258557350464, 0.0, 0.0, 0.0, 0.0, 7090.129803434587, 0.0]
['beep', 0.0, -106.19313790716386, 0.0, 0.0, 0.0, 0.0, 7090.8227075127015, 0.0]
['beep', 0.0, -105.74610301805771, 0.0, 0.0, 0.0, 0.0, 7088.7663470228135, 0.0]
['beep', 0.0, -102.39334134976166, 0.0, 0.0, 0.0, 0.0, 7088.811050511725, 0.0]
['beep', 0.0, -102.25923088302982, 0.0, 0.0, 0.0, 0.0, 7092.186163924475, 0.0]
['beep', 0.0, -103.84620473935661, 0.0, 0.0, 0.0, 0.0, 7094.913076748023, 0.0]
['beep', 0.0, -105.47788208459403, 0.0, 0.0, 0.0, 0.0, 7094.220172669909, 0.0]
['beep', 0.0, -104.67321928420297, 0.0, 0.0, 0.0, 0.0, 7091.917942991012, 0.0]
['beep', 0.0, -102.01336169402144, 0.0, 0.0, 0.0, 0.0, 7091.962646479923, 0.0]
['beep', 0.0, -101.07458842689854, 0.0, 0.0, 0.0, 0.0, 7093.527268591794, 0.0]
['beep', 0.0, -102.8627279833231, 0.0, 0.0, 0.0, 0.0, 7092.744957535859, 0.0]
['beep', 0.0, -104.7626262620242, 0.0, 0.0, 0.0, 0.0, 7093.415509869517, 0.0]
['beep', 0.0, -105.07555068439851, 0.0, 0.0, 0.0, 0.0, 7091.605018568638, 0.0]
['beep', 0.0, -101.9463064606555, 0.0, 0.0, 0.0, 0.0, 7091.135631935076, 0.0]
['beep', 0.0, -99.59937329284827, 0.0, 0.0, 0.0, 0.0, 7090.867411001613, 0.0]
['beep', 0.0, -103.44387333916109, 0.0, 0.0, 0.0, 0.0, 7092.946123235956, 0.0]
['beep', 0.0, -108.13773967477557, 0.0, 0.0, 0.0, 0.0, 7093.191992424964, 0.0]
['beep', 0.0, -108.13773967477557, 0.0, 0.0, 0.0, 0.0, 7091.046224957255, 0.0]
['beep', 0.0, -104.7626262620242, 0.0, 0.0, 0.0, 0.0, 7087.089966188666, 0.0]
['beep', 0.0, -103.64503903925885, 0.0, 0.0, 0.0, 0.0, 7086.732338277381, 0.0]
['beep', 0.0, -104.20383265064153, 0.0, 0.0, 0.0, 0.0, 7088.5875330671715, 0.0]
['beep', 0.0, -106.37195186280631, 0.0, 0.0, 0.0, 0.0, 7089.25808540083, 0.0]
['beep', 0.0, -104.53910881747113, 0.0, 0.0, 0.0, 0.0, 7089.883934245579, 0.0]
['beep', 0.0, -102.50510007203819, 0.0, 0.0, 0.0, 0.0, 7087.5370010777715, 0.0]
['beep', 0.0, -100.69460877115831, 0.0, 0.0, 0.0, 0.0, 7087.3581871221295, 0.0]
['beep', 0.0, -102.34863786085104, 0.0, 0.0, 0.0, 0.0, 7088.7663470228135, 0.0]
['beep', 0.0, -104.31559137291806, 0.0, 0.0, 0.0, 0.0, 7087.693463288959, 0.0]
['beep', 0.0, -102.72861751659126, 0.0, 0.0, 0.0, 0.0, 7088.699291789448, 0.0]
['beep', 0.0, -100.73931226006893, 0.0, 0.0, 0.0, 0.0, 7085.1900679099645, 0.0]
['beep', 0.0, -99.88994597076726, 0.0, 0.0, 0.0, 0.0, 7087.604056311137, 0.0]
['beep', 0.0, -101.9463064606555, 0.0, 0.0, 0.0, 0.0, 7090.554486579238, 0.0]
['beep', 0.0, -104.18148090618622, 0.0, 0.0, 0.0, 0.0, 7090.040396456766, 0.0]
['beep', 0.0, -104.58381230638174, 0.0, 0.0, 0.0, 0.0, 7090.509783090328, 0.0]
['beep', 0.0, -101.78984424946836, 0.0, 0.0, 0.0, 0.0, 7089.995692967856, 0.0]
['beep', 0.0, -101.00753319353262, 0.0, 0.0, 0.0, 0.0, 7087.8275737556905, 0.0]
['beep', 0.0, -103.30976287242925, 0.0, 0.0, 0.0, 0.0, 7087.313483633218, 0.0]
['beep', 0.0, -106.12608267379794, 0.0, 0.0, 0.0, 0.0, 7087.492297588861, 0.0]
['beep', 0.0, -105.34377161786219, 0.0, 0.0, 0.0, 0.0, 7086.821745255202, 0.0]
['beep', 0.0, -101.49927157154937, 0.0, 0.0, 0.0, 0.0, 7084.765384765314, 0.0]
['beep', 0.0, -100.44873958214994, 0.0, 0.0, 0.0, 0.0, 7084.944198720957, 0.0]
['beep', 0.0, -101.38751284927284, 0.0, 0.0, 0.0, 0.0, 7085.882971988079, 0.0]
['beep', 0.0, -101.56632680491529, 0.0, 0.0, 0.0, 0.0, 7086.64293129956, 0.0]
['beep', 0.0, -101.2757541269963, 0.0, 0.0, 0.0, 0.0, 7086.240599899364, 0.0]
['beep', 0.0, -100.04640818195442, 0.0, 0.0, 0.0, 0.0, 7085.1900679099645, 0.0]
['beep', 0.0, -99.3535041038399, 0.0, 0.0, 0.0, 0.0, 7085.234771398875, 0.0]
['beep', 0.0, -101.38751284927284, 0.0, 0.0, 0.0, 0.0, 7085.0112539543225, 0.0]
['beep', 0.0, -101.9463064606555, 0.0, 0.0, 0.0, 0.0, 7087.157021422032, 0.0]
['beep', 0.0, -99.62172503730358, 0.0, 0.0, 0.0, 0.0, 7087.492297588861, 0.0]
['beep', 0.0, -97.67712326969186, 0.0, 0.0, 0.0, 0.0, 7084.653626043038, 0.0]
['beep', 0.0, -96.8724604693008, 0.0, 0.0, 0.0, 0.0, 7084.586570809672, 0.0]
['beep', 0.0, -99.55466980393766, 0.0, 0.0, 0.0, 0.0, 7085.145364421054, 0.0]
['beep', 0.0, -100.87342272680077, 0.0, 0.0, 0.0, 0.0, 7086.933503977479, 0.0]
['beep', 0.0, -99.88994597076726, 0.0, 0.0, 0.0, 0.0, 7083.714852775915, 0.0]
['beep', 0.0, -96.76070174702427, 0.0, 0.0, 0.0, 0.0, 7083.35722486463, 0.0]
['beep', 0.0, -95.75487324653545, 0.0, 0.0, 0.0, 0.0, 7082.887838231068, 0.0]
['beep', 0.0, -98.14650990325332, 0.0, 0.0, 0.0, 0.0, 7083.111355675621, 0.0]
['beep', 0.0, -99.0405796814656, 0.0, 0.0, 0.0, 0.0, 7082.64196904206, 0.0]
['beep', 0.0, -98.16886164770862, 0.0, 0.0, 0.0, 0.0, 7082.843134742157, 0.0]
['beep', 0.0, -95.39724533525055, 0.0, 0.0, 0.0, 0.0, 7081.390271352562, 0.0]
['beep', 0.0, -94.36906509030642, 0.0, 0.0, 0.0, 0.0, 7083.267817886808, 0.0]
['beep', 0.0, -94.86080346832317, 0.0, 0.0, 0.0, 0.0, 7084.295998131753, 0.0]
['beep', 0.0, -95.55370754643769, 0.0, 0.0, 0.0, 0.0, 7083.670149287003, 0.0]
['beep', 0.0, -96.42542558019467, 0.0, 0.0, 0.0, 0.0, 7084.430108598484, 0.0]
['beep', 0.0, -93.78791973446843, 0.0, 0.0, 0.0, 0.0, 7082.68667253097, 0.0]
['beep', 0.0, -92.60327727833716, 0.0, 0.0, 0.0, 0.0, 7082.150230664043, 0.0]
['beep', 0.0, -93.22912612308576, 0.0, 0.0, 0.0, 0.0, 7084.2512946428415, 0.0]
['beep', 0.0, -95.95603894663321, 0.0, 0.0, 0.0, 0.0, 7084.340701620663, 0.0]
['beep', 0.0, -96.15720464673099, 0.0, 0.0, 0.0, 0.0, 7084.3630533651185, 0.0]
['beep', 0.0, -93.76556799001312, 0.0, 0.0, 0.0, 0.0, 7083.40192835354, 0.0]
['beep', 0.0, -91.53039354448242, 0.0, 0.0, 0.0, 0.0, 7083.40192835354, 0.0]
['beep', 0.0, -92.22329762259695, 0.0, 0.0, 0.0, 0.0, 7082.574913808694, 0.0]
['beep', 0.0, -92.93855344516676, 0.0, 0.0, 0.0, 0.0, 7084.228942898387, 0.0]
['beep', 0.0, -92.17859413368633, 0.0, 0.0, 0.0, 0.0, 7086.218248154909, 0.0]
['beep', 0.0, -91.73155924458018, 0.0, 0.0, 0.0, 0.0, 7084.3630533651185, 0.0]
['beep', 0.0, -90.43515806617238, 0.0, 0.0, 0.0, 0.0, 7082.798431253247, 0.0]
['beep', 0.0, -90.05517841043215, 0.0, 0.0, 0.0, 0.0, 7083.044300442255, 0.0]
['beep', 0.0, -93.00560867853268, 0.0, 0.0, 0.0, 0.0, 7083.35722486463, 0.0]
['beep', 0.0, -92.55857378942655, 0.0, 0.0, 0.0, 0.0, 7083.78190800928, 0.0]
['beep', 0.0, -89.80930922142377, 0.0, 0.0, 0.0, 0.0, 7082.284341130775, 0.0]
['beep', 0.0, -88.37879757628413, 0.0, 0.0, 0.0, 0.0, 7082.798431253247, 0.0]
['beep', 0.0, -90.03282666597684, 0.0, 0.0, 0.0, 0.0, 7084.228942898387, 0.0]
['beep', 0.0, -93.76556799001312, 0.0, 0.0, 0.0, 0.0, 7083.468983586906, 0.0]
['beep', 0.0, -91.1057103998316, 0.0, 0.0, 0.0, 0.0, 7081.680844030481, 0.0]
['beep', 0.0, -87.6858934981696, 0.0, 0.0, 0.0, 0.0, 7081.010291696822, 0.0]
['beep', 0.0, -90.43515806617238, 0.0, 0.0, 0.0, 0.0, 7080.6079602966265, 0.0]
['beep', 0.0, -94.45847206812765, 0.0, 0.0, 0.0, 0.0, 7083.35722486463, 0.0]
['beep', 0.0, -99.17469014819744, 0.0, 0.0, 0.0, 0.0, 7083.1337074200765, 0.0]
['beep', 0.0, -99.82289073740134, 0.0, 0.0, 0.0, 0.0, 7083.938370220468, 0.0]
['beep', 0.0, -97.1406814027645, 0.0, 0.0, 0.0, 0.0, 7082.3737481085955, 0.0]
['beep', 0.0, -95.12902440178686, 0.0, 0.0, 0.0, 0.0, 7077.746937006347, 0.0]
['beep', 0.0, -96.13485290227568, 0.0, 0.0, 0.0, 0.0, 7080.563256807716, 0.0]
['beep', 0.0, -97.1630331472198, 0.0, 0.0, 0.0, 0.0, 7082.396099853051, 0.0]
['beep', 0.0, -96.00074243554383, 0.0, 0.0, 0.0, 0.0, 7080.742070763358, 0.0]
['beep', 0.0, -93.94438194565558, 0.0, 0.0, 0.0, 0.0, 7080.339739363163, 0.0]
['beep', 0.0, -92.69268425615839, 0.0, 0.0, 0.0, 0.0, 7078.529248062283, 0.0]
['beep', 0.0, -93.72086450110251, 0.0, 0.0, 0.0, 0.0, 7080.362091107619, 0.0]
['beep', 0.0, -95.06196916842094, 0.0, 0.0, 0.0, 0.0, 7082.239637641864, 0.0]
['beep', 0.0, -95.48665231307177, 0.0, 0.0, 0.0, 0.0, 7081.367919608107, 0.0]
['beep', 0.0, -93.43029182318352, 0.0, 0.0, 0.0, 0.0, 7079.602131796138, 0.0]
['beep', 0.0, -91.7986144779461, 0.0, 0.0, 0.0, 0.0, 7078.395137595551, 0.0]
['beep', 0.0, -92.7150360006137, 0.0, 0.0, 0.0, 0.0, 7080.451498085439, 0.0]
['beep', 0.0, -94.70434125713602, 0.0, 0.0, 0.0, 0.0, 7080.786774252269, 0.0]
['beep', 0.0, -95.5984110353483, 0.0, 0.0, 0.0, 0.0, 7081.658492286026, 0.0]
['beep', 0.0, -93.02796042298799, 0.0, 0.0, 0.0, 0.0, 7080.943236463456, 0.0]
['beep', 0.0, -90.09988189934278, 0.0, 0.0, 0.0, 0.0, 7080.4291463409845, 0.0]
['beep', 0.0, -91.15041388874221, 0.0, 0.0, 0.0, 0.0, 7082.843134742157, 0.0]
['beep', 0.0, -91.88802145576733, 0.0, 0.0, 0.0, 0.0, 7082.239637641864, 0.0]
['beep', 0.0, -91.21746912210813, 0.0, 0.0, 0.0, 0.0, 7081.613788797115, 0.0]
['beep', 0.0, -90.01047492152153, 0.0, 0.0, 0.0, 0.0, 7081.613788797115, 0.0]
['beep', 0.0, -88.89288769875618, 0.0, 0.0, 0.0, 0.0, 7081.144402163554, 0.0]
['beep', 0.0, -91.68685575566957, 0.0, 0.0, 0.0, 0.0, 7080.563256807716, 0.0]
['beep', 0.0, -93.07266391189862, 0.0, 0.0, 0.0, 0.0, 7079.579780051682, 0.0]
['beep', 0.0, -94.34671334585111, 0.0, 0.0, 0.0, 0.0, 7080.49620157435, 0.0]
['beep', 0.0, -91.55274528893773, 0.0, 0.0, 0.0, 0.0, 7079.691538773959, 0.0]
['beep', 0.0, -90.39045457726176, 0.0, 0.0, 0.0, 0.0, 7080.339739363163, 0.0]
['beep', 0.0, -91.06100691092098, 0.0, 0.0, 0.0, 0.0, 7080.384442852073, 0.0]
['beep', 0.0, -92.89384995625615, 0.0, 0.0, 0.0, 0.0, 7082.73137601988, 0.0]
['beep', 0.0, -93.05031216744331, 0.0, 0.0, 0.0, 0.0, 7084.050128942744, 0.0]
['beep', 0.0, -89.92106794370031, 0.0, 0.0, 0.0, 0.0, 7082.261989386319, 0.0]
['beep', 0.0, -90.39045457726176, 0.0, 0.0, 0.0, 0.0, 7081.680844030481, 0.0]
['beep', 0.0, -91.88802145576733, 0.0, 0.0, 0.0, 0.0, 7083.536038820272, 0.0]
['beep', 0.0, -92.84914646734553, 0.0, 0.0, 0.0, 0.0, 7086.821745255202, 0.0]
['beep', 0.0, -91.88802145576733, 0.0, 0.0, 0.0, 0.0, 7085.950027221445, 0.0]
['beep', 0.0, -88.9375911876668, 0.0, 0.0, 0.0, 0.0, 7082.30669287523, 0.0]
['beep', 0.0, -88.82583246539026, 0.0, 0.0, 0.0, 0.0, 7082.887838231068, 0.0]
['beep', 0.0, -89.94341968815561, 0.0, 0.0, 0.0, 0.0, 7084.206591153931, 0.0]
['beep', 0.0, -90.92689644418913, 0.0, 0.0, 0.0, 0.0, 7085.458288843428, 0.0]
['beep', 0.0, -91.41863482220589, 0.0, 0.0, 0.0, 0.0, 7085.905323732534, 0.0]
['beep', 0.0, -89.92106794370031, 0.0, 0.0, 0.0, 0.0, 7085.502992332339, 0.0]
['beep', 0.0, -88.2670388540076, 0.0, 0.0, 0.0, 0.0, 7086.061785943722, 0.0]
['beep', 0.0, -88.9375911876668, 0.0, 0.0, 0.0, 0.0, 7086.039434199266, 0.0]
['beep', 0.0, -90.90454469973382, 0.0, 0.0, 0.0, 0.0, 7086.7099865329255, 0.0]
['beep', 0.0, -89.71990224360255, 0.0, 0.0, 0.0, 0.0, 7085.860620243624, 0.0]
['beep', 0.0, -87.55178303143776, 0.0, 0.0, 0.0, 0.0, 7084.519515576305, 0.0]
['beep', 0.0, -85.69658824164728, 0.0, 0.0, 0.0, 0.0, 7085.078309187688, 0.0]
['beep', 0.0, -87.6858934981696, 0.0, 0.0, 0.0, 0.0, 7085.234771398875, 0.0]
['beep', 0.0, -90.27869585498523, 0.0, 0.0, 0.0, 0.0, 7085.7712132658025, 0.0]
['beep', 0.0, -91.17276563319751, 0.0, 0.0, 0.0, 0.0, 7085.21241965442, 0.0]
['beep', 0.0, -88.98229467657741, 0.0, 0.0, 0.0, 0.0, 7081.703195774937, 0.0]
['beep', 0.0, -87.48472779807184, 0.0, 0.0, 0.0, 0.0, 7080.87618123009, 0.0]
['beep', 0.0, -88.6023150208372, 0.0, 0.0, 0.0, 0.0, 7083.647797542549, 0.0]
['beep', 0.0, -91.39628307775058, 0.0, 0.0, 0.0, 0.0, 7083.78190800928, 0.0]
['beep', 0.0, -90.27869585498523, 0.0, 0.0, 0.0, 0.0, 7084.854791743135, 0.0]
['beep', 0.0, -87.70824524262491, 0.0, 0.0, 0.0, 0.0, 7084.2512946428415, 0.0]
['beep', 0.0, -87.21650686460816, 0.0, 0.0, 0.0, 0.0, 7083.334873120174, 0.0]
['beep', 0.0, -88.04352140945451, 0.0, 0.0, 0.0, 0.0, 7084.139535920565, 0.0]
['beep', 0.0, -89.76460573251316, 0.0, 0.0, 0.0, 0.0, 7084.653626043038, 0.0]
['beep', 0.0, -87.95411443163329, 0.0, 0.0, 0.0, 0.0, 7082.463155086417, 0.0]
['beep', 0.0, -85.69658824164728, 0.0, 0.0, 0.0, 0.0, 7081.323216119196, 0.0]
['beep', 0.0, -85.02603590798806, 0.0, 0.0, 0.0, 0.0, 7083.021948697799, 0.0]
['beep', 0.0, -85.58482951937074, 0.0, 0.0, 0.0, 0.0, 7083.513687075817, 0.0]
['beep', 0.0, -84.57900101888193, 0.0, 0.0, 0.0, 0.0, 7085.25712314333, 0.0]
['beep', 0.0, -82.50028878453837, 0.0, 0.0, 0.0, 0.0, 7085.123012676599, 0.0]
['beep', 0.0, -80.26511433900767, 0.0, 0.0, 0.0, 0.0, 7083.916018476012, 0.0]
['beep', 0.0, -80.82390795039034, 0.0, 0.0, 0.0, 0.0, 7084.586570809672, 0.0]
['beep', 0.0, -84.95898067462214, 0.0, 0.0, 0.0, 0.0, 7085.100660932143, 0.0]
['beep', 0.0, -86.85887895332324, 0.0, 0.0, 0.0, 0.0, 7084.340701620663, 0.0]
['beep', 0.0, -86.32243708639588, 0.0, 0.0, 0.0, 0.0, 7084.675977787492, 0.0]
['beep', 0.0, -84.22137310759702, 0.0, 0.0, 0.0, 0.0, 7083.200762653442, 0.0]
['beep', 0.0, -82.16501261770877, 0.0, 0.0, 0.0, 0.0, 7081.457326585928, 0.0]
['beep', 0.0, -83.41671030720596, 0.0, 0.0, 0.0, 0.0, 7081.882009730579, 0.0]
['beep', 0.0, -84.75781497452438, 0.0, 0.0, 0.0, 0.0, 7082.619617297604, 0.0]
['beep', 0.0, -83.90844868522271, 0.0, 0.0, 0.0, 0.0, 7084.586570809672, 0.0]
['beep', 0.0, -81.60621900632609, 0.0, 0.0, 0.0, 0.0, 7084.765384765314, 0.0]
['beep', 0.0, -80.3768730612842, 0.0, 0.0, 0.0, 0.0, 7082.73137601988, 0.0]
['beep', 0.0, -80.1086521278205, 0.0, 0.0, 0.0, 0.0, 7083.558390564727, 0.0]
['beep', 0.0, -83.34965507384004, 0.0, 0.0, 0.0, 0.0, 7083.44663184245, 0.0]
['beep', 0.0, -81.963846917611, 0.0, 0.0, 0.0, 0.0, 7084.2512946428415, 0.0]
['beep', 0.0, -79.32634107188477, 0.0, 0.0, 0.0, 0.0, 7083.804259753735, 0.0]
['beep', 0.0, -78.63343699377025, 0.0, 0.0, 0.0, 0.0, 7082.798431253247, 0.0]
['beep', 0.0, -79.99689340554397, 0.0, 0.0, 0.0, 0.0, 7081.92671321949, 0.0]
['beep', 0.0, -82.03090215097691, 0.0, 0.0, 0.0, 0.0, 7082.351396364141, 0.0]
['beep', 0.0, -83.1931928626529, 0.0, 0.0, 0.0, 0.0, 7082.910189975523, 0.0]
['beep', 0.0, -82.41088180671714, 0.0, 0.0, 0.0, 0.0, 7081.502030074839, 0.0]
['beep', 0.0, -81.15918411721995, 0.0, 0.0, 0.0, 0.0, 7081.345567863652, 0.0]
['beep', 0.0, -84.04255915195455, 0.0, 0.0, 0.0, 0.0, 7081.5467335637495, 0.0]
['beep', 0.0, -84.78016671897969, 0.0, 0.0, 0.0, 0.0, 7084.005425453834, 0.0]
['beep', 0.0, -85.94245743065565, 0.0, 0.0, 0.0, 0.0, 7085.860620243624, 0.0]
['beep', 0.0, -85.74129173055789, 0.0, 0.0, 0.0, 0.0, 7079.959759707423, 0.0]
['beep', 0.0, -80.86861143930095, 0.0, 0.0, 0.0, 0.0, 7081.412623097018, 0.0]
['beep', 0.0, -74.92304741418927, 0.0, 0.0, 0.0, 0.0, 7083.35722486463, 0.0]
['beep', 0.0, -77.06881488189875, 0.0, 0.0, 0.0, 0.0, 7082.351396364141, 0.0]
['beep', 0.0, -76.13004161477586, 0.0, 0.0, 0.0, 0.0, 7078.596303295649, 0.0]
['beep', 0.0, -75.21362009210827, 0.0, 0.0, 0.0, 0.0, 7078.2610271288195, 0.0]
['beep', 0.0, -73.24666658004125, 0.0, 0.0, 0.0, 0.0, 7079.557428307227, 0.0]
['beep', 0.0, -75.3030270699295, 0.0, 0.0, 0.0, 0.0, 7079.6691870295035, 0.0]
['beep', 0.0, -78.20875384911942, 0.0, 0.0, 0.0, 0.0, 7080.205628896431, 0.0]
['beep', 0.0, -78.27580908248534, 0.0, 0.0, 0.0, 0.0, 7081.904361475034, 0.0]
['beep', 0.0, -74.49836426953844, 0.0, 0.0, 0.0, 0.0, 7079.6691870295035, 0.0]
['beep', 0.0, -74.85599218082335, 0.0, 0.0, 0.0, 0.0, 7077.813992239713, 0.0]
['beep', 0.0, -75.77241370349094, 0.0, 0.0, 0.0, 0.0, 7081.166753908009, 0.0]
['beep', 0.0, -76.89000092625629, 0.0, 0.0, 0.0, 0.0, 7082.798431253247, 0.0]
['beep', 0.0, -77.15822185971999, 0.0, 0.0, 0.0, 0.0, 7079.4903730738615, 0.0]
['beep', 0.0, -74.49836426953844, 0.0, 0.0, 0.0, 0.0, 7078.886875973568, 0.0]
['beep', 0.0, -72.84433517984571, 0.0, 0.0, 0.0, 0.0, 7078.931579462479, 0.0]
['beep', 0.0, -74.72188171409151, 0.0, 0.0, 0.0, 0.0, 7080.183277151976, 0.0]
['beep', 0.0, -75.81711719240155, 0.0, 0.0, 0.0, 0.0, 7082.30669287523, 0.0]
['beep', 0.0, -74.81128869191274, 0.0, 0.0, 0.0, 0.0, 7080.11622191861, 0.0]
['beep', 0.0, -74.58777124735967, 0.0, 0.0, 0.0, 0.0, 7077.724585261892, 0.0]
['beep', 0.0, -73.67134972469208, 0.0, 0.0, 0.0, 0.0, 7078.417489340007, 0.0]
['beep', 0.0, -76.15239335923117, 0.0, 0.0, 0.0, 0.0, 7082.172582408498, 0.0]
['beep', 0.0, -77.06881488189875, 0.0, 0.0, 0.0, 0.0, 7081.479678330384, 0.0]
['beep', 0.0, -77.58290500437082, 0.0, 0.0, 0.0, 0.0, 7078.68571027347, 0.0]
['beep', 0.0, -76.39826254823954, 0.0, 0.0, 0.0, 0.0, 7079.825649240691, 0.0]
['beep', 0.0, -74.52071601399375, 0.0, 0.0, 0.0, 0.0, 7080.965588207911, 0.0]
['beep', 0.0, 15.042724018421653, 0.0, 0.0, 0.0, 0.0, 6985.3448254281075, 0.0]
['beep', 0.0, 11.578203627849058, 0.0, 0.0, 0.0, 0.0, 6992.318569698164, 0.0]
['beep', 0.0, 8.739532082025061, 0.0, 0.0, 0.0, 0.0, 6999.001741290301, 0.0]
['beep', 0.0, 9.678305349147958, 0.0, 0.0, 0.0, 0.0, 7002.779186103247, 0.0]
['beep', 0.0, 6.77257856995804, 0.0, 0.0, 0.0, 0.0, 7008.121253028065, 0.0]
['beep', 0.0, 2.2351744455307063, 0.0, 0.0, 0.0, 0.0, 7011.0493315517115, 0.0]
['beep', 0.0, 0.0, 0.0, 0.0, 0.0, 0.0, 7013.552726930706, 0.0]
['beep', 0.0, 1.8775465342457933, 0.0, 0.0, 0.0, 0.0, 7018.5595176886945, 0.0]
['beep', 0.0, -0.20116570009776358, 0.0, 0.0, 0.0, 0.0, 7018.000724077311, 0.0]
['beep', 0.0, -1.050531989399432, 0.0, 0.0, 0.0, 0.0, 7016.5702124321715, 0.0]
['beep', 0.0, -0.08940697782122825, 0.0, 0.0, 0.0, 0.0, 7016.167881031976, 0.0]
['beep', 0.0, -1.430511645139652, 0.0, 0.0, 0.0, 0.0, 7014.267982753276, 0.0]
['beep', 0.0, -2.81631980136869, 0.0, 0.0, 0.0, 0.0, 7011.496366440817, 0.0]
['beep', 0.0, -4.693866335614483, 0.0, 0.0, 0.0, 0.0, 7009.998799562311, 0.0]
['beep', 0.0, -5.297363435907774, 0.0, 0.0, 0.0, 0.0, 7006.735444871837, 0.0]
['beep', 0.0, -4.447997146606106, 0.0, 0.0, 0.0, 0.0, 7007.897735583513, 0.0]
['beep', 0.0, -5.319715180363081, 0.0, 0.0, 0.0, 0.0, 7010.267020495775, 0.0]
['beep', 0.0, -5.520880880460845, 0.0, 0.0, 0.0, 0.0, 7006.891907083024, 0.0]
['beep', 0.0, -6.459654147583741, 0.0, 0.0, 0.0, 0.0, 7002.265095980775, 0.0]
['beep', 0.0, -6.638468103226198, 0.0, 0.0, 0.0, 0.0, 7004.276752981753, 0.0]
['beep', 0.0, -6.169081469664749, 0.0, 0.0, 0.0, 0.0, 7004.634380893038, 0.0]
['beep', 0.0, -7.68900009262563, 0.0, 0.0, 0.0, 0.0, 7003.002703547801, 0.0]
['beep', 0.0, -8.761883826480368, 0.0, 0.0, 0.0, 0.0, 7002.108633769588, 0.0]
['beep', 0.0, -9.365380926773659, 0.0, 0.0, 0.0, 0.0, 7000.655770379994, 0.0]
['beep', 0.0, -7.934869281634008, 0.0, 0.0, 0.0, 0.0, 7001.728654113848, 0.0]
['beep', 0.0, -7.577241370349094, 0.0, 0.0, 0.0, 0.0, 7000.164032001977, 0.0]
['beep', 0.0, -8.091331492821157, 0.0, 0.0, 0.0, 0.0, 6997.750043600803, 0.0]
['beep', 0.0, -8.873642548756903, 0.0, 0.0, 0.0, 0.0, 6999.202906990398, 0.0]
['beep', 0.0, -10.795892571913312, 0.0, 0.0, 0.0, 0.0, 6997.124194756055, 0.0]
['beep', 0.0, -10.371209427262476, 0.0, 0.0, 0.0, 0.0, 6994.4419854214175, 0.0]
['beep', 0.0, -9.410084415684274, 0.0, 0.0, 0.0, 0.0, 6994.330226699141, 0.0]
['beep', 0.0, -9.477139649050194, 0.0, 0.0, 0.0, 0.0, 6992.117403998066, 0.0]
['beep', 0.0, -15.959145541089242, 0.0, 0.0, 0.0, 0.0, 6992.4973836538065, 0.0]
['beep', 0.0, -16.786160085935602, 0.0, 0.0, 0.0, 0.0, 6994.665502865971, 0.0]
['beep', 0.0, -15.199186229608802, 0.0, 0.0, 0.0, 0.0, 6992.0503487647, 0.0]
['beep', 0.0, -14.215709473575291, 0.0, 0.0, 0.0, 0.0, 6990.083395252633, 0.0]
['beep', 0.0, -13.679267606647922, 0.0, 0.0, 0.0, 0.0, 6990.016340019267, 0.0]
['beep', 0.0, -13.9251367956563, 0.0, 0.0, 0.0, 0.0, 6987.177668473443, 0.0]
['beep', 0.0, -14.975668785055731, 0.0, 0.0, 0.0, 0.0, 6990.463374908373, 0.0]
['beep', 0.0, -12.874604806256869, 0.0, 0.0, 0.0, 0.0, 6990.686892352926, 0.0]
['beep', 0.0, -9.007753015488746, 0.0, 0.0, 0.0, 0.0, 6986.328302184142, 0.0]
['beep', 0.0, -7.286668692430102, 0.0, 0.0, 0.0, 0.0, 6986.618874862061, 0.0]
['beep', 0.0, -9.655953604692652, 0.0, 0.0, 0.0, 0.0, 6986.171839972954, 0.0]
['beep', 0.0, -13.23223271754178, 0.0, 0.0, 0.0, 0.0, 6985.031901005734, 0.0]
['beep', 0.0, -12.762846083980333, 0.0, 0.0, 0.0, 0.0, 6986.887095795524, 0.0]
['beep', 0.0, -11.42174141666191, 0.0, 0.0, 0.0, 0.0, 6988.496421396306, 0.0]
['beep', 0.0, -11.04176176092169, 0.0, 0.0, 0.0, 0.0, 6987.557648129184, 0.0]
['beep', 0.0, -11.242927461019452, 0.0, 0.0, 0.0, 0.0, 6985.277770194742, 0.0]
['beep', 0.0, -13.880433306745687, 0.0, 0.0, 0.0, 0.0, 6987.892924296013, 0.0]
['beep', 0.0, -14.506282151494284, 0.0, 0.0, 0.0, 0.0, 6984.160182971977, 0.0]
['beep', 0.0, -11.86877630576805, 0.0, 0.0, 0.0, 0.0, 6984.897790539002, 0.0]
['beep', 0.0, -9.097159993309974, 0.0, 0.0, 0.0, 0.0, 6988.496421396306, 0.0]
['beep', 0.0, -10.19239547162002, 0.0, 0.0, 0.0, 0.0, 6986.90944753998, 0.0]
['beep', 0.0, -13.768674584469151, 0.0, 0.0, 0.0, 0.0, 6987.915276040469, 0.0]
['beep', 0.0, -13.70161935110323, 0.0, 0.0, 0.0, 0.0, 6987.5129446402725, 0.0]
['beep', 0.0, -11.04176176092169, 0.0, 0.0, 0.0, 0.0, 6986.5741713731495, 0.0]
['beep', 0.0, -9.320677437863045, 0.0, 0.0, 0.0, 0.0, 6985.009549261278, 0.0]
['beep', 0.0, -11.287630949930067, 0.0, 0.0, 0.0, 0.0, 6983.042595749212, 0.0]
['beep', 0.0, -14.103950751298756, 0.0, 0.0, 0.0, 0.0, 6985.769508572759, 0.0]
['beep', 0.0, -11.42174141666191, 0.0, 0.0, 0.0, 0.0, 6985.613046361572, 0.0]
['beep', 0.0, -9.097159993309974, 0.0, 0.0, 0.0, 0.0, 6984.5178108832615, 0.0]
['beep', 0.0, -8.091331492821157, 0.0, 0.0, 0.0, 0.0, 6983.377871916041, 0.0]
['beep', 0.0, -10.639430360726163, 0.0, 0.0, 0.0, 0.0, 6983.042595749212, 0.0]
['beep', 0.0, -13.053418761899325, 0.0, 0.0, 0.0, 0.0, 6987.579999873638, 0.0]
['beep', 0.0, -12.606383872793183, 0.0, 0.0, 0.0, 0.0, 6987.378834173541, 0.0]
['beep', 0.0, -9.8124158158798, 0.0, 0.0, 0.0, 0.0, 6987.803517318192, 0.0]
['beep', 0.0, -7.30902043688541, 0.0, 0.0, 0.0, 0.0, 6989.14462198551, 0.0]
['beep', 0.0, -8.404255915195456, 0.0, 0.0, 0.0, 0.0, 6989.278732452242, 0.0]
['beep', 0.0, -8.694828593114448, 0.0, 0.0, 0.0, 0.0, 6990.128098741544, 0.0]
['beep', 0.0, -8.873642548756903, 0.0, 0.0, 0.0, 0.0, 6990.150450485999, 0.0]
['beep', 0.0, -6.0126192584776, 0.0, 0.0, 0.0, 0.0, 6990.23985746382, 0.0]
['beep', 0.0, -3.7103895795809723, 0.0, 0.0, 0.0, 0.0, 6992.430328420441, 0.0]
['beep', 0.0, -5.677343091647994, 0.0, 0.0, 0.0, 0.0, 6995.648979622005, 0.0]
['beep', 0.0, -8.806587315390983, 0.0, 0.0, 0.0, 0.0, 6994.509040654784, 0.0]
['beep', 0.0, -8.627773359748526, 0.0, 0.0, 0.0, 0.0, 6993.436156920929, 0.0]
['beep', 0.0, -5.6102878582820725, 0.0, 0.0, 0.0, 0.0, 6993.838488321125, 0.0]
['beep', 0.0, -3.643334346215051, 0.0, 0.0, 0.0, 0.0, 6994.844316821614, 0.0]
['beep', 0.0, -4.269183190963649, 0.0, 0.0, 0.0, 0.0, 6995.760738344281, 0.0]
['beep', 0.0, -6.0126192584776, 0.0, 0.0, 0.0, 0.0, 6995.29135171072, 0.0]
['beep', 0.0, -7.53253788143848, 0.0, 0.0, 0.0, 0.0, 6995.760738344281, 0.0]
['beep', 0.0, -5.520880880460845, 0.0, 0.0, 0.0, 0.0, 6998.062968023178, 0.0]
['beep', 0.0, -3.263354690474831, 0.0, 0.0, 0.0, 0.0, 7000.5440116577165, 0.0]
['beep', 0.0, -2.7492645680027685, 0.0, 0.0, 0.0, 0.0, 7000.946343057913, 0.0]
['beep', 0.0, -3.263354690474831, 0.0, 0.0, 0.0, 0.0, 7001.259267480286, 0.0]
['beep', 0.0, -4.202127957597728, 0.0, 0.0, 0.0, 0.0, 7006.914258827479, 0.0]
['beep', 0.0, -2.928078523645225, 0.0, 0.0, 0.0, 0.0, 7005.2378779933315, 0.0]
['beep', 0.0, -0.5364418669273695, 0.0, 0.0, 0.0, 0.0, 7005.014360548778, 0.0]
['beep', 0.0, -0.8046628003910543, 0.0, 0.0, 0.0, 0.0, 7007.137776272032, 0.0]
['beep', 0.0, -1.9446017676117144, 0.0, 0.0, 0.0, 0.0, 7009.037674550734, 0.0]
['beep', 0.0, -0.8717180337569754, 0.0, 0.0, 0.0, 0.0, 7009.797633862214, 0.0]
['beep', 0.0, -0.31292442237429885, 0.0, 0.0, 0.0, 0.0, 7009.574116417661, 0.0]
['beep', 0.0, 1.3187529228631167, 0.0, 0.0, 0.0, 0.0, 7011.5187181852725, 0.0]
['beep', 0.0, 1.050531989399432, 0.0, 0.0, 0.0, 0.0, 7012.412787963484, 0.0]
['beep', 0.0, -1.7434360675139509, 0.0, 0.0, 0.0, 0.0, 7011.764587374281, 0.0]
['beep', 0.0, -2.928078523645225, 0.0, 0.0, 0.0, 0.0, 7014.469148453373, 0.0]
['beep', 0.0, -1.363456411773731, 0.0, 0.0, 0.0, 0.0, 7018.894793855524, 0.0]
['beep', 0.0, -1.9222500231564075, 0.0, 0.0, 0.0, 0.0, 7020.079436311655, 0.0]
['beep', 0.0, 3.0621889903770674, 0.0, 0.0, 0.0, 0.0, 7022.426369479463, 0.0]
['beep', 0.0, 11.622907116759672, 0.0, 0.0, 0.0, 0.0, 7035.256270796808, 0.0]
['beep', 0.0, 14.796854829413276, 0.0, 0.0, 0.0, 0.0, 7049.53903550375, 0.0]
['beep', 0.0, 18.976631042555695, 0.0, 0.0, 0.0, 0.0, 7058.546788519238, 0.0]
['beep', 0.0, 21.658840377192544, 0.0, 0.0, 0.0, 0.0, 7066.012271167311, 0.0]
['beep', 0.0, 24.072828778365707, 0.0, 0.0, 0.0, 0.0, 7075.578817794182, 0.0]
['beep', 0.0, 21.815302588379694, 0.0, 0.0, 0.0, 0.0, 7079.870352729601, 0.0]
['beep', 0.0, 21.74824735501377, 0.0, 0.0, 0.0, 0.0, 7086.933503977479, 0.0]
['beep', 0.0, 22.552910155404827, 0.0, 0.0, 0.0, 0.0, 7087.961684222422, 0.0]
['beep', 0.0, 23.916366567178557, 0.0, 0.0, 0.0, 0.0, 7085.7712132658025, 0.0]
['beep', 0.0, 22.73172411104728, 0.0, 0.0, 0.0, 0.0, 7087.201724910942, 0.0]
['beep', 0.0, 21.032991532443948, 0.0, 0.0, 0.0, 0.0, 7082.6643207865145, 0.0]
['beep', 0.0, 21.703543866103157, 0.0, 0.0, 0.0, 0.0, 7081.837306241669, 0.0]
['beep', 0.0, 22.999945044510966, 0.0, 0.0, 0.0, 0.0, 7080.943236463456, 0.0]
['beep', 0.0, 24.989250301033294, 0.0, 0.0, 0.0, 0.0, 7076.696405016948, 0.0]
['beep', 0.0, 24.564567156382463, 0.0, 0.0, 0.0, 0.0, 7076.964625950412, 0.0]
['beep', 0.0, 23.402276444706494, 0.0, 0.0, 0.0, 0.0, 7080.026814940788, 0.0]
['beep', 0.0, 23.89401482272325, 0.0, 0.0, 0.0, 0.0, 7080.227980640886, 0.0]
['beep', 0.0, 24.922195067667374, 0.0, 0.0, 0.0, 0.0, 7079.512724818316, 0.0]
['beep', 0.0, 26.442113690628254, 0.0, 0.0, 0.0, 0.0, 7077.255198628331, 0.0]
['beep', 0.0, 25.6374508902372, 0.0, 0.0, 0.0, 0.0, 7077.858695728624, 0.0]
['beep', 0.0, 23.871663078267943, 0.0, 0.0, 0.0, 0.0, 7080.339739363163, 0.0]
['beep', 0.0, 24.676325878658997, 0.0, 0.0, 0.0, 0.0, 7082.463155086417, 0.0]
['beep', 0.0, 27.447942191117072, 0.0, 0.0, 0.0, 0.0, 7081.21145739692, 0.0]
['beep', 0.0, 29.504302681005324, 0.0, 0.0, 0.0, 0.0, 7078.886875973568, 0.0]
['beep', 0.0, 28.38671545823997, 0.0, 0.0, 0.0, 0.0, 7077.344605606152, 0.0]
['beep', 0.0, 25.79391310142435, 0.0, 0.0, 0.0, 0.0, 7078.752765506836, 0.0]
['beep', 0.0, 25.995078801522112, 0.0, 0.0, 0.0, 0.0, 7084.11718417611, 0.0]
['beep', 0.0, 27.738514869036063, 0.0, 0.0, 0.0, 0.0, 7084.787736509769, 0.0]
['beep', 0.0, 31.068924792876818, 0.0, 0.0, 0.0, 0.0, 7084.340701620663, 0.0]
['beep', 0.0, 30.040744547932693, 0.0, 0.0, 0.0, 0.0, 7083.334873120174, 0.0]
['beep', 0.0, 29.705468381103085, 0.0, 0.0, 0.0, 0.0, 7089.369844123107, 0.0]
['beep', 0.0, 29.638413147737165, 0.0, 0.0, 0.0, 0.0, 7093.236695913875, 0.0]
['beep', 0.0, 29.414895703184094, 0.0, 0.0, 0.0, 0.0, 7092.297922646752, 0.0]
['beep', 0.0, 31.985346315544408, 0.0, 0.0, 0.0, 0.0, 7087.045262699755, 0.0]
['beep', 0.0, 30.711296881591903, 0.0, 0.0, 0.0, 0.0, 7087.3581871221295, 0.0]
['beep', 0.0, 27.91732882467852, 0.0, 0.0, 0.0, 0.0, 7094.846021514657, 0.0]
['beep', 0.0, 28.00673580249975, 0.0, 0.0, 0.0, 0.0, 7097.483527360383, 0.0]
['beep', 0.0, 28.632584647248347, 0.0, 0.0, 0.0, 0.0, 7096.276533159797, 0.0]
['beep', 0.0, 29.97368931456677, 0.0, 0.0, 0.0, 0.0, 7092.566143580216, 0.0]
['beep', 0.0, 28.498474180516506, 0.0, 0.0, 0.0, 0.0, 7088.878105745091, 0.0]
['beep', 0.0, 27.514997424482996, 0.0, 0.0, 0.0, 0.0, 7093.616675569615, 0.0]
['beep', 0.0, 43.20592203210855, 0.0, 0.0, 0.0, 0.0, 7096.365940137618, 0.0]
['beep', 0.0, 108.67418154170294, 0.0, 0.0, 0.0, 0.0, 7096.611809326627, 0.0]
['beep', 0.0, 83.2378963515635, 0.0, 0.0, 0.0, 0.0, 7093.795489525258, 0.0]
['beep', 0.0, 32.45473294910585, 0.0, 0.0, 0.0, 0.0, 7092.45438485794, 0.0]
['beep', 0.0, 51.09608782483195, 0.0, 0.0, 0.0, 0.0, 7093.370806380607, 0.0]
['beep', 0.0, 114.53033858899339, 0.0, 0.0, 0.0, 0.0, 7095.047187214755, 0.0]
['beep', 0.0, 126.84614978386757, 0.0, 0.0, 0.0, 0.0, 7095.091890703666, 0.0]
['beep', 0.0, 127.89668177326702, 0.0, 0.0, 0.0, 0.0, 7092.7002540469475, 0.0]
['beep', 0.0, 127.27083292851842, 0.0, 0.0, 0.0, 0.0, 7093.303751147241, 0.0]
['beep', 0.0, 123.51573986002683, 0.0, 0.0, 0.0, 0.0, 7096.522402348805, 0.0]
['beep', 0.0, 123.64985032675867, 0.0, 0.0, 0.0, 0.0, 7097.371768638107, 0.0]
['beep', 0.0, 125.90737651674469, 0.0, 0.0, 0.0, 0.0, 7095.494222103861, 0.0]
['beep', 0.0, 127.49435037307148, 0.0, 0.0, 0.0, 0.0, 7095.449518614951, 0.0]
['beep', 0.0, 127.04731548396535, 0.0, 0.0, 0.0, 0.0, 7094.041358714267, 0.0]
['beep', 0.0, 124.32040266041788, 0.0, 0.0, 0.0, 0.0, 7095.918905248512, 0.0]
['beep', 0.0, 124.29805091596258, 0.0, 0.0, 0.0, 0.0, 7097.371768638107, 0.0]
['beep', 0.0, 126.86850152832288, 0.0, 0.0, 0.0, 0.0, 7094.980131981389, 0.0]
['beep', 0.0, 122.35344914835086, 0.0, 0.0, 0.0, 0.0, 7091.672073802004, 0.0]
['beep', 0.0, 62.6519397082257, 0.0, 0.0, 0.0, 0.0, 7092.54379183576, 0.0]
['beep', 0.0, 61.55670422991565, 0.0, 0.0, 0.0, 0.0, 7096.924733749001, 0.0]
['beep', 0.0, 120.05121946945424, 0.0, 0.0, 0.0, 0.0, 7098.377597138596, 0.0]
['beep', 0.0, 126.75674280604635, 0.0, 0.0, 0.0, 0.0, 7096.522402348805, 0.0]
['beep', 0.0, 127.06966722842066, 0.0, 0.0, 0.0, 0.0, 7095.203649425942, 0.0]
['beep', 0.0, 126.17559745020837, 0.0, 0.0, 0.0, 0.0, 7092.007349968833, 0.0]
['beep', 0.0, 124.0298299824989, 0.0, 0.0, 0.0, 0.0, 7094.734262792381, 0.0]
['beep', 0.0, 124.3874578937838, 0.0, 0.0, 0.0, 0.0, 7097.461175615928, 0.0]
['beep', 0.0, 124.76743754952402, 0.0, 0.0, 0.0, 0.0, 7095.4048151260395, 0.0]
['beep', 0.0, 125.52739686100446, 0.0, 0.0, 0.0, 0.0, 7095.2260011703975, 0.0]
['beep', 0.0, 124.27569917150727, 0.0, 0.0, 0.0, 0.0, 7090.018044712311, 0.0]
['beep', 0.0, 122.57696659290393, 0.0, 0.0, 0.0, 0.0, 7092.4096813690285, 0.0]
['beep', 0.0, 121.57113809241511, 0.0, 0.0, 0.0, 0.0, 7095.963608737423, 0.0]
['beep', 0.0, 120.96764099212183, 0.0, 0.0, 0.0, 0.0, 7091.940294735467, 0.0]
['beep', 0.0, 118.26307991302967, 0.0, 0.0, 0.0, 0.0, 7090.3533208791405, 0.0]
['beep', 0.0, 69.53627700046027, 0.0, 0.0, 0.0, 0.0, 7089.839230756668, 0.0]
['beep', 0.0, 23.178759000153423, 0.0, 0.0, 0.0, 0.0, 7091.5826668241825, 0.0]
['beep', 0.0, 21.435322932639473, 0.0, 0.0, 0.0, 0.0, 7094.35428313664, 0.0]
['beep', 0.0, 22.262337477485833, 0.0, 0.0, 0.0, 0.0, 7093.773137780802, 0.0]
['beep', 0.0, 22.351744455307063, 0.0, 0.0, 0.0, 0.0, 7092.387329624574, 0.0]
['beep', 0.0, 21.100046765809868, 0.0, 0.0, 0.0, 0.0, 7094.868373259113, 0.0]
['beep', 0.0, 20.518901409971882, 0.0, 0.0, 0.0, 0.0, 7093.482565102883, 0.0]
['beep', 0.0, 20.608308387793112, 0.0, 0.0, 0.0, 0.0, 7096.432995370984, 0.0]
['beep', 0.0, 19.580128142848988, 0.0, 0.0, 0.0, 0.0, 7094.913076748023, 0.0]
['beep', 0.0, 18.3507821978071, 0.0, 0.0, 0.0, 0.0, 7094.2872279032745, 0.0]
['beep', 0.0, 19.580128142848988, 0.0, 0.0, 0.0, 0.0, 7095.248352914853, 0.0]
['beep', 0.0, 51.76664015849116, 0.0, 0.0, 0.0, 0.0, 7094.801318025747, 0.0]
['beep', 0.0, 110.99876296505488, 0.0, 0.0, 0.0, 0.0, 7096.745919793359, 0.0]
['beep', 0.0, 117.03373396798779, 0.0, 0.0, 0.0, 0.0, 7096.745919793359, 0.0]
['beep', 0.0, 119.09009445787603, 0.0, 0.0, 0.0, 0.0, 7097.2823616602855, 0.0]
['beep', 0.0, 119.26890841351849, 0.0, 0.0, 0.0, 0.0, 7098.489355860872, 0.0]
['beep', 0.0, 117.83839676837883, 0.0, 0.0, 0.0, 0.0, 7097.751748293847, 0.0]
['beep', 0.0, 116.96667873462187, 0.0, 0.0, 0.0, 0.0, 7097.751748293847, 0.0]
['beep', 0.0, 116.43023686769449, 0.0, 0.0, 0.0, 0.0, 7096.745919793359, 0.0]
['beep', 0.0, 115.71498104512466, 0.0, 0.0, 0.0, 0.0, 7094.466041858917, 0.0]
['beep', 0.0, 117.25725141254085, 0.0, 0.0, 0.0, 0.0, 7092.45438485794, 0.0]
['beep', 0.0, 114.79855952245707, 0.0, 0.0, 0.0, 0.0, 7093.147288936054, 0.0]
['beep', 0.0, 114.86561475582299, 0.0, 0.0, 0.0, 0.0, 7094.711911047925, 0.0]
['beep', 0.0, 102.46039658312758, 0.0, 0.0, 0.0, 0.0, 7096.88003026009, 0.0]
['beep', 0.0, 38.981442330055515, 0.0, 0.0, 0.0, 0.0, 7097.438823871473, 0.0]
['beep', 0.0, 21.189453743631095, 0.0, 0.0, 0.0, 0.0, 7095.985960481878, 0.0]
['beep', 0.0, 18.95427929810039, 0.0, 0.0, 0.0, 0.0, 7095.248352914853, 0.0]
['beep', 0.0, 18.842520575823855, 0.0, 0.0, 0.0, 0.0, 7096.075367459699, 0.0]
['beep', 0.0, 18.909575809189775, 0.0, 0.0, 0.0, 0.0, 7097.863507016124, 0.0]
['beep', 0.0, 19.490721165027757, 0.0, 0.0, 0.0, 0.0, 7097.304713404741, 0.0]
['beep', 0.0, 19.647183376214908, 0.0, 0.0, 0.0, 0.0, 7098.0423209717665, 0.0]
['beep', 0.0, 17.94845079761157, 0.0, 0.0, 0.0, 0.0, 7098.377597138596, 0.0]
['beep', 0.0, 18.596651386815477, 0.0, 0.0, 0.0, 0.0, 7100.746882050858, 0.0]
['beep', 0.0, 18.909575809189775, 0.0, 0.0, 0.0, 0.0, 7102.467966373917, 0.0]
['beep', 0.0, 18.529596153449553, 0.0, 0.0, 0.0, 0.0, 7099.942219250467, 0.0]
['beep', 0.0, 20.541253154427192, 0.0, 0.0, 0.0, 0.0, 7101.238620428875, 0.0]
['beep', 0.0, 60.59557921833745, 0.0, 0.0, 0.0, 0.0, 7104.7925477972685, 0.0]
['beep', 0.0, 112.45162635464983, 0.0, 0.0, 0.0, 0.0, 7105.463100130928, 0.0]
['beep', 0.0, 116.83256826789001, 0.0, 0.0, 0.0, 0.0, 7105.463100130928, 0.0]
['beep', 0.0, 116.98903047907717, 0.0, 0.0, 0.0, 0.0, 7104.859603030634, 0.0]
['beep', 0.0, 116.63140256779225, 0.0, 0.0, 0.0, 0.0, 7104.770196052814, 0.0]
['beep', 0.0, 116.65375431224756, 0.0, 0.0, 0.0, 0.0, 7105.463100130928, 0.0]
['beep', 0.0, 117.50312060154923, 0.0, 0.0, 0.0, 0.0, 7108.771158310314, 0.0]
['beep', 0.0, 117.81604502392352, 0.0, 0.0, 0.0, 0.0, 7110.268725188819, 0.0]
['beep', 0.0, 118.33013514639559, 0.0, 0.0, 0.0, 0.0, 7111.967457767422, 0.0]
['beep', 0.0, 117.86074851283414, 0.0, 0.0, 0.0, 0.0, 7111.632181600593, 0.0]
['beep', 0.0, 117.48076885709392, 0.0, 0.0, 0.0, 0.0, 7110.402835655551, 0.0]
['beep', 0.0, 117.30195490145147, 0.0, 0.0, 0.0, 0.0, 7110.4251874000065, 0.0]
['beep', 0.0, 117.90545200174475, 0.0, 0.0, 0.0, 0.0, 7108.480585632395, 0.0]
['beep', 0.0, 91.03865516646566, 0.0, 0.0, 0.0, 0.0, 7110.112262977632, 0.0]
['beep', 0.0, 29.414895703184094, 0.0, 0.0, 0.0, 0.0, 7111.945106022967, 0.0]
['beep', 0.0, 21.189453743631095, 0.0, 0.0, 0.0, 0.0, 7111.922754278512, 0.0]
['beep', 0.0, 21.32356421036294, 0.0, 0.0, 0.0, 0.0, 7114.202632212953, 0.0]
['beep', 0.0, 21.74824735501377, 0.0, 0.0, 0.0, 0.0, 7115.968420024922, 0.0]
['beep', 0.0, 22.195282244119912, 0.0, 0.0, 0.0, 0.0, 7115.364922924629, 0.0]
['beep', 0.0, 22.105875266298685, 0.0, 0.0, 0.0, 0.0, 7116.929545036501, 0.0]
['beep', 0.0, 22.485854922038904, 0.0, 0.0, 0.0, 0.0, 7120.662286360537, 0.0]
['beep', 0.0, 47.00571858951075, 0.0, 0.0, 0.0, 0.0, 7125.244393973875, 0.0]
['beep', 0.0, 109.92587923120013, 0.0, 0.0, 0.0, 0.0, 7127.725437608414, 0.0]
['beep', 0.0, 119.89475725826708, 0.0, 0.0, 0.0, 0.0, 7130.988792298889, 0.0]
['beep', 0.0, 120.74412354756875, 0.0, 0.0, 0.0, 0.0, 7138.230757502408, 0.0]
['beep', 0.0, 120.78882703647936, 0.0, 0.0, 0.0, 0.0, 7146.992641328889, 0.0]
['beep', 0.0, 119.44772236916094, 0.0, 0.0, 0.0, 0.0, 7156.22391178893, 0.0]
['beep', 0.0, 118.77717003550173, 0.0, 0.0, 0.0, 0.0, 7163.979967114922, 0.0]
['beep', 0.0, 120.83353052538997, 0.0, 0.0, 0.0, 0.0, 7172.361871285662, 0.0]
['beep', 0.0, 120.45355086964976, 0.0, 0.0, 0.0, 0.0, 7177.905103910578, 0.0]
['beep', 0.0, 116.83256826789001, 0.0, 0.0, 0.0, 0.0, 7182.37545280164, 0.0]
['beep', 0.0, 115.24559441156322, 0.0, 0.0, 0.0, 0.0, 7191.249095350397, 0.0]
['beep', 0.0, 113.18923392167497, 0.0, 0.0, 0.0, 0.0, 7198.401653576095, 0.0]
['beep', 0.0, 68.64220722224799, 0.0, 0.0, 0.0, 0.0, 7197.775804731346, 0.0]
['beep', 0.0, 23.849311333812636, 0.0, 0.0, 0.0, 0.0, 7201.150918144098, 0.0]
['beep', 0.0, 18.149616497709335, 0.0, 0.0, 0.0, 0.0, 7210.851575237701, 0.0]
['beep', 0.0, 17.59082288632666, 0.0, 0.0, 0.0, 0.0, 7220.999267220411, 0.0]
['beep', 0.0, 16.316773452374157, 0.0, 0.0, 0.0, 0.0, 7221.222784664963, 0.0]
['beep', 0.0, 10.147691982709407, 0.0, 0.0, 0.0, 0.0, 7223.301496899307, 0.0]
['beep', 0.0, 9.343029182318352, 0.0, 0.0, 0.0, 0.0, 7227.548328345815, 0.0]
['beep', 0.0, 8.761883826480368, 0.0, 0.0, 0.0, 0.0, 7229.537633602337, 0.0]
['beep', 0.0, 22.888186322234432, 0.0, 0.0, 0.0, 0.0, 7231.19166269203, 0.0]
['beep', 0.0, 91.86566971131202, 0.0, 0.0, 0.0, 0.0, 7237.316040672785, 0.0]
['beep', 0.0, 116.22907116759673, 0.0, 0.0, 0.0, 0.0, 7242.076962241765, 0.0]
['beep', 0.0, 116.69845780115817, 0.0, 0.0, 0.0, 0.0, 7243.328659931262, 0.0]
['beep', 0.0, 113.94919323315541, 0.0, 0.0, 0.0, 0.0, 7246.569662877281, 0.0]
['beep', 0.0, 113.2786408994962, 0.0, 0.0, 0.0, 0.0, 7245.7873518213455, 0.0]
['beep', 0.0, 111.7140187876247, 0.0, 0.0, 0.0, 0.0, 7246.4355524105495, 0.0]
['beep', 0.0, 113.34569613286212, 0.0, 0.0, 0.0, 0.0, 7243.283956442351, 0.0]
['beep', 0.0, 111.42344610970571, 0.0, 0.0, 0.0, 0.0, 7239.350049418217, 0.0]
['beep', 0.0, 110.1046931868426, 0.0, 0.0, 0.0, 0.0, 7238.523034873371, 0.0]
['beep', 0.0, 112.78690252147943, 0.0, 0.0, 0.0, 0.0, 7233.113912715186, 0.0]
['beep', 0.0, 104.89673672875604, 0.0, 0.0, 0.0, 0.0, 7222.943868988022, 0.0]
['beep', 0.0, 48.90561686821185, 0.0, 0.0, 0.0, 0.0, 7216.841842751724, 0.0]
['beep', 0.0, 15.959145541089242, 0.0, 0.0, 0.0, 0.0, 7210.9186304710665, 0.0]
['beep', 0.0, 14.171005984664678, 0.0, 0.0, 0.0, 0.0, 7203.609610034181, 0.0]
['beep', 0.0, 18.440189175628326, 0.0, 0.0, 0.0, 0.0, 7198.960447187477, 0.0]
['beep', 0.0, 18.507244408994246, 0.0, 0.0, 0.0, 0.0, 7191.249095350397, 0.0]
['beep', 0.0, 16.96497404157806, 0.0, 0.0, 0.0, 0.0, 7182.9789499019325, 0.0]
['beep', 0.0, 17.568471141871353, 0.0, 0.0, 0.0, 0.0, 7175.558170742771, 0.0]
['beep', 0.0, 15.690924607625558, 0.0, 0.0, 0.0, 0.0, 7170.305510795773, 0.0]
['beep', 0.0, 51.47606748057216, 0.0, 0.0, 0.0, 0.0, 7164.22583630393, 0.0]
['beep', 0.0, 108.51771933051579, 0.0, 0.0, 0.0, 0.0, 7154.703993165969, 0.0]
['beep', 0.0, 112.56338507692637, 0.0, 0.0, 0.0, 0.0, 7146.009164572855, 0.0]
['beep', 0.0, 113.72567578860233, 0.0, 0.0, 0.0, 0.0, 7140.465931947939, 0.0]
['beep', 0.0, 111.60226006534816, 0.0, 0.0, 0.0, 0.0, 7133.291021977785, 0.0]
['beep', 0.0, 110.70819028713588, 0.0, 0.0, 0.0, 0.0, 7126.473739918917, 0.0]
['beep', 0.0, 112.25046065455207, 0.0, 0.0, 0.0, 0.0, 7117.756559581347, 0.0]
['beep', 0.0, 112.56338507692637, 0.0, 0.0, 0.0, 0.0, 7109.732283321891, 0.0]
['beep', 0.0, 112.49632984356045, 0.0, 0.0, 0.0, 0.0, 7101.171565195509, 0.0]
['beep', 0.0, 112.18340542118615, 0.0, 0.0, 0.0, 0.0, 7092.990826724867, 0.0]
['beep', 0.0, 111.93753623217776, 0.0, 0.0, 0.0, 0.0, 7088.4757743448945, 0.0]
['beep', 0.0, 110.41761760921689, 0.0, 0.0, 0.0, 0.0, 7086.039434199266, 0.0]
['beep', 0.0, 68.53044849997146, 0.0, 0.0, 0.0, 0.0, 7080.652663785537, 0.0]
['beep', 0.0, 17.791988586424424, 0.0, 0.0, 0.0, 0.0, 7076.6740532724925, 0.0]
['beep', 0.0, 15.601517629804329, 0.0, 0.0, 0.0, 0.0, 7076.294073616752, 0.0]
['beep', 0.0, 17.88139556424565, 0.0, 0.0, 0.0, 0.0, 7073.969492193401, 0.0]
['beep', 0.0, 18.93192755364508, 0.0, 0.0, 0.0, 0.0, 7071.153172392032, 0.0]
['beep', 0.0, 20.675363621159033, 0.0, 0.0, 0.0, 0.0, 7068.962701435412, 0.0]
['beep', 0.0, 20.362439198784735, 0.0, 0.0, 0.0, 0.0, 7066.816933967702, 0.0]
['beep', 0.0, 18.57429964236017, 0.0, 0.0, 0.0, 0.0, 7065.92286418949, 0.0]
['beep', 0.0, 16.49558740801661, 0.0, 0.0, 0.0, 0.0, 7065.431125811473, 0.0]
['beep', 0.0, 15.422703674161873, 0.0, 0.0, 0.0, 0.0, 7065.5205327892945, 0.0]
['beep', 0.0, 15.601517629804329, 0.0, 0.0, 0.0, 0.0, 7064.693518244448, 0.0]
['beep', 0.0, 14.819206573868582, 0.0, 0.0, 0.0, 0.0, 7062.2348263543645, 0.0]
['beep', 0.0, 12.18170072814235, 0.0, 0.0, 0.0, 0.0, 7060.960776920411, 0.0]
['beep', 0.0, 41.99892783152197, 0.0, 0.0, 0.0, 0.0, 7057.742125718847, 0.0]
['beep', 0.0, 104.00266695054377, 0.0, 0.0, 0.0, 0.0, 7056.959814662911, 0.0]
['beep', 0.0, 110.88700424277833, 0.0, 0.0, 0.0, 0.0, 7052.6682797274925, 0.0]
['beep', 0.0, 65.512962998505, 0.0, 0.0, 0.0, 0.0, 7050.053125626222, 0.0]
['beep', 0.0, 18.842520575823855, 0.0, 0.0, 0.0, 0.0, 7047.862654669601, 0.0]
['beep', 0.0, 15.623869374259638, 0.0, 0.0, 0.0, 0.0, 7045.336907546152, 0.0]
['beep', 0.0, 16.60734613029315, 0.0, 0.0, 0.0, 0.0, 7046.812122680202, 0.0]
['beep', 0.0, 18.976631042555695, 0.0, 0.0, 0.0, 0.0, 7045.225148823875, 0.0]
['beep', 0.0, 20.049514776410437, 0.0, 0.0, 0.0, 0.0, 7041.000669121822, 0.0]
['beep', 0.0, 19.736590354036135, 0.0, 0.0, 0.0, 0.0, 7037.402038264518, 0.0]
['beep', 0.0, 17.568471141871353, 0.0, 0.0, 0.0, 0.0, 7036.060933597199, 0.0]
['beep', 0.0, 18.41783743117302, 0.0, 0.0, 0.0, 0.0, 7031.925860872968, 0.0]
['beep', 0.0, 20.09421826532105, 0.0, 0.0, 0.0, 0.0, 7025.130930558555, 0.0]
['beep', 0.0, 23.06700027787689, 0.0, 0.0, 0.0, 0.0, 7022.828700879658, 0.0]
['beep', 0.0, 23.938718311633863, 0.0, 0.0, 0.0, 0.0, 7024.5497852027165, 0.0]
['beep', 0.0, 21.949413055111535, 0.0, 0.0, 0.0, 0.0, 7023.4321979799515, 0.0]
['beep', 0.0, 22.37409619976237, 0.0, 0.0, 0.0, 0.0, 7018.403055477507, 0.0]
['beep', 0.0, 23.13405551124281, 0.0, 0.0, 0.0, 0.0, 7017.777206632759, 0.0]
['beep', 0.0, 22.172930499664606, 0.0, 0.0, 0.0, 0.0, 7019.140663044533, 0.0]
['beep', 0.0, 22.642317133226054, 0.0, 0.0, 0.0, 0.0, 7016.413750220985, 0.0]
['beep', 0.0, 21.502378166005393, 0.0, 0.0, 0.0, 0.0, 7015.027942064756, 0.0]
['beep', 0.0, 22.485854922038904, 0.0, 0.0, 0.0, 0.0, 7015.72084614287, 0.0]
['beep', 0.0, 24.11753226727632, 0.0, 0.0, 0.0, 0.0, 7017.196061276921, 0.0]
['beep', 0.0, 23.715200867080792, 0.0, 0.0, 0.0, 0.0, 7016.078474054155, 0.0]
['beep', 0.0, 23.49168342252772, 0.0, 0.0, 0.0, 0.0, 7015.296162998219, 0.0]
['beep', 0.0, 24.452808434105926, 0.0, 0.0, 0.0, 0.0, 7014.782072875747, 0.0]
['beep', 0.0, 25.391581701228823, 0.0, 0.0, 0.0, 0.0, 7012.524546685761, 0.0]
['beep', 0.0, 27.716163124580756, 0.0, 0.0, 0.0, 0.0, 7011.094035040622, 0.0]
['beep', 0.0, 27.8502735913126, 0.0, 0.0, 0.0, 0.0, 7010.848165851613, 0.0]
['beep', 0.0, 27.02325904646624, 0.0, 0.0, 0.0, 0.0, 7010.222317006865, 0.0]
['beep', 0.0, 25.324526467862903, 0.0, 0.0, 0.0, 0.0, 7039.704267943414, 0.0]
['beep', 0.0, 26.24094799053049, 0.0, 0.0, 0.0, 0.0, 7084.944198720957, 0.0]
['beep', 0.0, 29.23608174754164, 0.0, 0.0, 0.0, 0.0, 7086.553524321738, 0.0]
['beep', 0.0, 29.23608174754164, 0.0, 0.0, 0.0, 0.0, 7084.318349876207, 0.0]
['beep', 0.0, 29.347840469818173, 0.0, 0.0, 0.0, 0.0, 7084.452460342939, 0.0]
['beep', 0.0, 28.476122436061196, 0.0, 0.0, 0.0, 0.0, 7081.569085308205, 0.0]
['beep', 0.0, 28.118494524776285, 0.0, 0.0, 0.0, 0.0, 7083.647797542549, 0.0]
['beep', 0.0, 30.19720675911984, 0.0, 0.0, 0.0, 0.0, 7080.920884719001, 0.0]
['beep', 0.0, 32.365325971284626, 0.0, 0.0, 0.0, 0.0, 7079.579780051682, 0.0]
['beep', 0.0, 31.404200959706422, 0.0, 0.0, 0.0, 0.0, 7080.786774252269, 0.0]
['beep', 0.0, 30.82305560386844, 0.0, 0.0, 0.0, 0.0, 7079.423317840496, 0.0]
['beep', 0.0, 31.784180615446644, 0.0, 0.0, 0.0, 0.0, 7078.104564917632, 0.0]
['beep', 0.0, 33.14763702722038, 0.0, 0.0, 0.0, 0.0, 7078.886875973568, 0.0]
['beep', 0.0, 32.164160271186866, 0.0, 0.0, 0.0, 0.0, 7077.92575096199, 0.0]
['beep', 0.0, 31.314793981885195, 0.0, 0.0, 0.0, 0.0, 7080.83147774118, 0.0]
['beep', 0.0, 30.800703859413133, 0.0, 0.0, 0.0, 0.0, 7080.1385736630655, 0.0]
['beep', 0.0, 31.091276537332124, 0.0, 0.0, 0.0, 0.0, 7078.886875973568, 0.0]
['beep', 0.0, 31.851235848812564, 0.0, 0.0, 0.0, 0.0, 7079.3786143515845, 0.0]
['beep', 0.0, 30.107799781298613, 0.0, 0.0, 0.0, 0.0, 7077.3222538616965, 0.0]
['beep', 0.0, 27.69381138012545, 0.0, 0.0, 0.0, 0.0, 7076.986977694867, 0.0]
['beep', 0.0, 26.24094799053049, 0.0, 0.0, 0.0, 0.0, 7080.183277151976, 0.0]
['beep', 0.0, 24.452808434105926, 0.0, 0.0, 0.0, 0.0, 7079.713890518415, 0.0]
['beep', 0.0, 24.989250301033294, 0.0, 0.0, 0.0, 0.0, 7080.563256807716, 0.0]
['beep', 0.0, 23.178759000153423, 0.0, 0.0, 0.0, 0.0, 7082.507858575328, 0.0]
['beep', 0.0, 19.580128142848988, 0.0, 0.0, 0.0, 0.0, 7082.68667253097, 0.0]
['beep', 0.0, 18.19431998661995, 0.0, 0.0, 0.0, 0.0, 7083.848963242646, 0.0]
['beep', 0.0, 18.12726475325403, 0.0, 0.0, 0.0, 0.0, 7084.3630533651185, 0.0]
['beep', 0.0, 18.976631042555695, 0.0, 0.0, 0.0, 0.0, 7085.100660932143, 0.0]
['beep', 0.0, 19.535424653938374, 0.0, 0.0, 0.0, 0.0, 7086.8888004885675, 0.0]
['beep', 0.0, 16.227366474552927, 0.0, 0.0, 0.0, 0.0, 7088.989864467367, 0.0]
['beep', 0.0, 21.569433399371317, 0.0, 0.0, 0.0, 0.0, 7096.432995370984, 0.0]
['beep', 0.0, 26.665631135181325, 0.0, 0.0, 0.0, 0.0, 7100.590419839671, 0.0]
['beep', 0.0, 28.23025324705282, 0.0, 0.0, 0.0, 0.0, 7111.2522019448525, 0.0]
['beep', 0.0, 26.777389857457862, 0.0, 0.0, 0.0, 0.0, 7117.22011771442, 0.0]
['beep', 0.0, 28.76669511398019, 0.0, 0.0, 0.0, 0.0, 7117.6448008590705, 0.0]
['beep', 0.0, 30.443075948128218, 0.0, 0.0, 0.0, 0.0, 7126.853719574657, 0.0]
['beep', 0.0, 29.90663408120085, 0.0, 0.0, 0.0, 0.0, 7128.731266108903, 0.0]
['beep', 0.0, 31.158331770698044, 0.0, 0.0, 0.0, 0.0, 7126.049056774266, 0.0]
['beep', 0.0, 32.38767771573993, 0.0, 0.0, 0.0, 0.0, 7126.384332941096, 0.0]
['beep', 0.0, 32.74530562702485, 0.0, 0.0, 0.0, 0.0, 7126.160815496542, 0.0]
['beep', 0.0, 32.2759189934634, 0.0, 0.0, 0.0, 0.0, 7127.256050974853, 0.0]
['beep', 0.0, 32.34297422682932, 0.0, 0.0, 0.0, 0.0, 7124.752655595858, 0.0]
['beep', 0.0, 33.28174749395222, 0.0, 0.0, 0.0, 0.0, 7121.109321249643, 0.0]
['beep', 0.0, 33.10293353830976, 0.0, 0.0, 0.0, 0.0, 7120.103492749155, 0.0]
['beep', 0.0, 31.605366659804186, 0.0, 0.0, 0.0, 0.0, 7118.650629359559, 0.0]
['beep', 0.0, 29.571357914371244, 0.0, 0.0, 0.0, 0.0, 7117.488338647883, 0.0]
['beep', 0.0, 28.878453836256725, 0.0, 0.0, 0.0, 0.0, 7117.60009737016, 0.0]
['beep', 0.0, 27.872625335767907, 0.0, 0.0, 0.0, 0.0, 7116.7060275919475, 0.0]
['beep', 0.0, 27.179721257653387, 0.0, 0.0, 0.0, 0.0, 7117.063655503232, 0.0]
['beep', 0.0, 25.212767745586365, 0.0, 0.0, 0.0, 0.0, 7120.1705479825205, 0.0]
['beep', 0.0, 23.648145633714872, 0.0, 0.0, 0.0, 0.0, 7120.50582414935, 0.0]
['beep', 0.0, 25.391581701228823, 0.0, 0.0, 0.0, 0.0, 7120.3493619381625, 0.0]
['beep', 0.0, 27.02325904646624, 0.0, 0.0, 0.0, 0.0, 7118.650629359559, 0.0]
['beep', 0.0, 25.369229956773516, 0.0, 0.0, 0.0, 0.0, 7119.678809604503, 0.0]
['beep', 0.0, 24.676325878658997, 0.0, 0.0, 0.0, 0.0, 7119.634106115593, 0.0]
['beep', 0.0, 24.676325878658997, 0.0, 0.0, 0.0, 0.0, 7117.376579925607, 0.0]
['beep', 0.0, 24.72102936756961, 0.0, 0.0, 0.0, 0.0, 7117.197765969964, 0.0]
['beep', 0.0, 25.79391310142435, 0.0, 0.0, 0.0, 0.0, 7117.756559581347, 0.0]
['beep', 0.0, 24.922195067667374, 0.0, 0.0, 0.0, 0.0, 7114.02381825731, 0.0]
['beep', 0.0, 24.765732856480227, 0.0, 0.0, 0.0, 0.0, 7115.186108968986, 0.0]
['beep', 0.0, 24.18458750064224, 0.0, 0.0, 0.0, 0.0, 7116.080178747199, 0.0]
['beep', 0.0, 22.999945044510966, 0.0, 0.0, 0.0, 0.0, 7112.7721205678135, 0.0]
['beep', 0.0, 23.871663078267943, 0.0, 0.0, 0.0, 0.0, 7112.146271723065, 0.0]
['beep', 0.0, 24.65397413420369, 0.0, 0.0, 0.0, 0.0, 7112.436844400984, 0.0]
['beep', 0.0, 23.871663078267943, 0.0, 0.0, 0.0, 0.0, 7112.1909752119755, 0.0]
['beep', 0.0, 23.29051772242996, 0.0, 0.0, 0.0, 0.0, 7111.498071133861, 0.0]
['beep', 0.0, 23.379924700251188, 0.0, 0.0, 0.0, 0.0, 7107.765329809825, 0.0]
['beep', 0.0, 23.558738655893645, 0.0, 0.0, 0.0, 0.0, 7110.849870544657, 0.0]
['beep', 0.0, 23.871663078267943, 0.0, 0.0, 0.0, 0.0, 7110.6040013556485, 0.0]
['beep', 0.0, 24.095180522821014, 0.0, 0.0, 0.0, 0.0, 7109.9781525109, 0.0]
['beep', 0.0, 23.312869466885267, 0.0, 0.0, 0.0, 0.0, 7112.615658356626, 0.0]
['beep', 0.0, 24.385753200740005, 0.0, 0.0, 0.0, 0.0, 7110.961629266933, 0.0]
['beep', 0.0, 24.475160178561232, 0.0, 0.0, 0.0, 0.0, 7112.280382189797, 0.0]
['beep', 0.0, 24.899843323212068, 0.0, 0.0, 0.0, 0.0, 7110.000504255356, 0.0]
['beep', 0.0, 23.871663078267943, 0.0, 0.0, 0.0, 0.0, 7107.742978065369, 0.0]
['beep', 0.0, 22.1505787552093, 0.0, 0.0, 0.0, 0.0, 7107.698274576459, 0.0]
['beep', 0.0, 22.821131088868512, 0.0, 0.0, 0.0, 0.0, 7106.156004209042, 0.0]
['beep', 0.0, 24.162235756186934, 0.0, 0.0, 0.0, 0.0, 7105.306637919741, 0.0]
['beep', 0.0, 23.983421800544477, 0.0, 0.0, 0.0, 0.0, 7105.686617575481, 0.0]
['beep', 0.0, 23.648145633714872, 0.0, 0.0, 0.0, 0.0, 7103.294980918763, 0.0]
['beep', 0.0, 23.96107005608917, 0.0, 0.0, 0.0, 0.0, 7103.049111729755, 0.0]
['beep', 0.0, 24.095180522821014, 0.0, 0.0, 0.0, 0.0, 7102.937353007478, 0.0]
['beep', 0.0, 25.391581701228823, 0.0, 0.0, 0.0, 0.0, 7103.40673964104, 0.0]
['beep', 0.0, 25.011602045488605, 0.0, 0.0, 0.0, 0.0, 7103.004408240844, 0.0]
['beep', 0.0, 24.49751192301654, 0.0, 0.0, 0.0, 0.0, 7100.657475073037, 0.0]
['beep', 0.0, 24.899843323212068, 0.0, 0.0, 0.0, 0.0, 7102.467966373917, 0.0]
['beep', 0.0, 24.765732856480227, 0.0, 0.0, 0.0, 0.0, 7101.7974140402575, 0.0]
['beep', 0.0, 26.352706712807027, 0.0, 0.0, 0.0, 0.0, 7100.612771584127, 0.0]
['beep', 0.0, 27.69381138012545, 0.0, 0.0, 0.0, 0.0, 7100.076329717199, 0.0]
['beep', 0.0, 26.531520668449485, 0.0, 0.0, 0.0, 0.0, 7098.534059349783, 0.0]
['beep', 0.0, 25.212767745586365, 0.0, 0.0, 0.0, 0.0, 7098.668169816515, 0.0]
['beep', 0.0, 26.24094799053049, 0.0, 0.0, 0.0, 0.0, 7095.382463381585, 0.0]
['beep', 0.0, 26.486817179538868, 0.0, 0.0, 0.0, 0.0, 7095.0248354703, 0.0]
['beep', 0.0, 26.531520668449485, 0.0, 0.0, 0.0, 0.0, 7097.327065149197, 0.0]
['beep', 0.0, 24.765732856480227, 0.0, 0.0, 0.0, 0.0, 7096.656512815537, 0.0]
['beep', 0.0, 23.20111074460873, 0.0, 0.0, 0.0, 0.0, 7096.567105837716, 0.0]
['beep', 0.0, 23.558738655893645, 0.0, 0.0, 0.0, 0.0, 7094.041358714267, 0.0]
['beep', 0.0, 22.709372366591975, 0.0, 0.0, 0.0, 0.0, 7092.297922646752, 0.0]
['beep', 0.0, 22.21763398857522, 0.0, 0.0, 0.0, 0.0, 7092.923771491501, 0.0]
['beep', 0.0, 21.368267699273552, 0.0, 0.0, 0.0, 0.0, 7092.387329624574, 0.0]
['beep', 0.0, 20.295383965418814, 0.0, 0.0, 0.0, 0.0, 7093.795489525258, 0.0]
['beep', 0.0, 20.69771536561434, 0.0, 0.0, 0.0, 0.0, 7091.202687168442, 0.0]
['beep', 0.0, 21.435322932639473, 0.0, 0.0, 0.0, 0.0, 7088.833402256179, 0.0]
['beep', 0.0, 21.2118054880864, 0.0, 0.0, 0.0, 0.0, 7091.672073802004, 0.0]
['beep', 0.0, 19.736590354036135, 0.0, 0.0, 0.0, 0.0, 7092.2308674133865, 0.0]
['beep', 0.0, 19.6248316317596, 0.0, 0.0, 0.0, 0.0, 7092.610847069126, 0.0]
['beep', 0.0, 20.518901409971882, 0.0, 0.0, 0.0, 0.0, 7091.560315079727, 0.0]
['beep', 0.0, 21.2118054880864, 0.0, 0.0, 0.0, 0.0, 7091.113280190621, 0.0]
['beep', 0.0, 21.927061310656228, 0.0, 0.0, 0.0, 0.0, 7091.493259846361, 0.0]
['beep', 0.0, 20.362439198784735, 0.0, 0.0, 0.0, 0.0, 7092.387329624574, 0.0]
['beep', 0.0, 18.64135487572609, 0.0, 0.0, 0.0, 0.0, 7092.968474980411, 0.0]
['beep', 0.0, 19.9377560541339, 0.0, 0.0, 0.0, 0.0, 7093.124937191598, 0.0]
['beep', 0.0, 21.97176479956684, 0.0, 0.0, 0.0, 0.0, 7090.375672623596, 0.0]
['beep', 0.0, 23.75990435599141, 0.0, 0.0, 0.0, 0.0, 7090.621541812604, 0.0]
['beep', 0.0, 24.341049711829392, 0.0, 0.0, 0.0, 0.0, 7093.236695913875, 0.0]
['beep', 0.0, 22.73172411104728, 0.0, 0.0, 0.0, 0.0, 7092.968474980411, 0.0]
['beep', 0.0, 24.3634014562847, 0.0, 0.0, 0.0, 0.0, 7094.153117436543, 0.0]
['beep', 0.0, 26.531520668449485, 0.0, 0.0, 0.0, 0.0, 7094.533097092283, 0.0]
['beep', 0.0, 25.011602045488605, 0.0, 0.0, 0.0, 0.0, 7095.0248354703, 0.0]
['beep', 0.0, 22.44115143312829, 0.0, 0.0, 0.0, 0.0, 7095.583629081682, 0.0]
['beep', 0.0, 22.061171777388072, 0.0, 0.0, 0.0, 0.0, 7095.4048151260395, 0.0]
['beep', 0.0, 25.928023568156192, 0.0, 0.0, 0.0, 0.0, 7102.244448929364, 0.0]
['beep', 0.0, 25.50334042350536, 0.0, 0.0, 0.0, 0.0, 7104.077291974699, 0.0]
['beep', 0.0, 23.335221211340574, 0.0, 0.0, 0.0, 0.0, 7105.2619344308305, 0.0]
['beep', 0.0, 22.418799688672983, 0.0, 0.0, 0.0, 0.0, 7106.513632120327, 0.0]
['beep', 0.0, 20.31773570987412, 0.0, 0.0, 0.0, 0.0, 7105.351341408652, 0.0]
['beep', 0.0, 21.74824735501377, 0.0, 0.0, 0.0, 0.0, 7106.111300720132, 0.0]
['beep', 0.0, 22.485854922038904, 0.0, 0.0, 0.0, 0.0, 7105.105472219643, 0.0]
['beep', 0.0, 20.22832873205289, 0.0, 0.0, 0.0, 0.0, 7105.239582686375, 0.0]
['beep', 0.0, 19.71423860958083, 0.0, 0.0, 0.0, 0.0, 7105.641914086571, 0.0]
['beep', 0.0, 18.909575809189775, 0.0, 0.0, 0.0, 0.0, 7103.719664063414, 0.0]
['beep', 0.0, 18.909575809189775, 0.0, 0.0, 0.0, 0.0, 7104.21140244143, 0.0]
['beep', 0.0, 22.37409619976237, 0.0, 0.0, 0.0, 0.0, 7103.563201852227, 0.0]
['beep', 0.0, 22.485854922038904, 0.0, 0.0, 0.0, 0.0, 7103.093815218665, 0.0]
['beep', 0.0, 20.47419792106127, 0.0, 0.0, 0.0, 0.0, 7104.233754185886, 0.0]
['beep', 0.0, 18.79781708691324, 0.0, 0.0, 0.0, 0.0, 7105.038416986277, 0.0]
['beep', 0.0, 17.680229864147886, 0.0, 0.0, 0.0, 0.0, 7105.9771902534, 0.0]
['beep', 0.0, 17.18849148613113, 0.0, 0.0, 0.0, 0.0, 7107.027722242799, 0.0]
['beep', 0.0, 17.791988586424424, 0.0, 0.0, 0.0, 0.0, 7107.005370498344, 0.0]
['beep', 0.0, 18.26137521998587, 0.0, 0.0, 0.0, 0.0, 7107.6088675986375, 0.0]
['beep', 0.0, 20.78712234343557, 0.0, 0.0, 0.0, 0.0, 7108.234716443386, 0.0]
['beep', 0.0, 23.044648533421583, 0.0, 0.0, 0.0, 0.0, 7109.59817285516, 0.0]
['beep', 0.0, 24.206939245097548, 0.0, 0.0, 0.0, 0.0, 7109.508765877339, 0.0]
['beep', 0.0, 23.335221211340574, 0.0, 0.0, 0.0, 0.0, 7110.224021699909, 0.0]
['beep', 0.0, 23.29051772242996, 0.0, 0.0, 0.0, 0.0, 7112.816824056724, 0.0]
['beep', 0.0, 21.502378166005393, 0.0, 0.0, 0.0, 0.0, 7115.901364791556, 0.0]
['beep', 0.0, 20.205976987597584, 0.0, 0.0, 0.0, 0.0, 7114.090873490677, 0.0]
['beep', 0.0, 19.088389764832232, 0.0, 0.0, 0.0, 0.0, 7114.426149657506, 0.0]
['beep', 0.0, 19.133093253742846, 0.0, 0.0, 0.0, 0.0, 7115.990771769378, 0.0]
['beep', 0.0, 18.306078708896486, 0.0, 0.0, 0.0, 0.0, 7118.069484003721, 0.0]
['beep', 0.0, 16.652049619203762, 0.0, 0.0, 0.0, 0.0, 7119.209422970942, 0.0]
['beep', 0.0, 17.300250208407668, 0.0, 0.0, 0.0, 0.0, 7119.902327049056, 0.0]
['beep', 0.0, 19.222500231564073, 0.0, 0.0, 0.0, 0.0, 7119.991734026878, 0.0]
['beep', 0.0, 20.518901409971882, 0.0, 0.0, 0.0, 0.0, 7118.203594470453, 0.0]
['beep', 0.0, 20.541253154427192, 0.0, 0.0, 0.0, 0.0, 7119.83527181569, 0.0]
['beep', 0.0, 19.9377560541339, 0.0, 0.0, 0.0, 0.0, 7115.5884403691825, 0.0]
['beep', 0.0, 20.742418854524953, 0.0, 0.0, 0.0, 0.0, 7117.331876436696, 0.0]
['beep', 0.0, 22.687020622136668, 0.0, 0.0, 0.0, 0.0, 7109.285248432786, 0.0]
['beep', 0.0, 23.111703766787503, 0.0, 0.0, 0.0, 0.0, 7064.805276966725, 0.0]
['beep', 0.0, 23.111703766787503, 0.0, 0.0, 0.0, 0.0, 7045.806294179713, 0.0]
['beep', 0.0, 22.798779344413205, 0.0, 0.0, 0.0, 0.0, 7044.8004656792245, 0.0]
['beep', 0.0, 23.804607844902023, 0.0, 0.0, 0.0, 0.0, 7043.951099389923, 0.0]
['beep', 0.0, 24.609270645293076, 0.0, 0.0, 0.0, 0.0, 7047.862654669601, 0.0]
['beep', 0.0, 23.782256100446716, 0.0, 0.0, 0.0, 0.0, 7049.784904692759, 0.0]
['beep', 0.0, 23.67049737817018, 0.0, 0.0, 0.0, 0.0, 7046.8568261691125, 0.0]
['beep', 0.0, 22.821131088868512, 0.0, 0.0, 0.0, 0.0, 7049.516683759294, 0.0]
['beep', 0.0, 24.72102936756961, 0.0, 0.0, 0.0, 0.0, 7052.735334960858, 0.0]
['beep', 0.0, 25.235119490041672, 0.0, 0.0, 0.0, 0.0, 7049.6731459704815, 0.0]
['beep', 0.0, 24.765732856480227, 0.0, 0.0, 0.0, 0.0, 7050.053125626222, 0.0]
['beep', 0.0, 22.798779344413205, 0.0, 0.0, 0.0, 0.0, 7049.762552948303, 0.0]
['beep', 0.0, 23.223462489064037, 0.0, 0.0, 0.0, 0.0, 7047.952061647423, 0.0]
['beep', 0.0, 25.682154379147814, 0.0, 0.0, 0.0, 0.0, 7051.170712848987, 0.0]
['beep', 0.0, 26.55387241290479, 0.0, 0.0, 0.0, 0.0, 7052.556521005216, 0.0]
['beep', 0.0, 25.9503753126115, 0.0, 0.0, 0.0, 0.0, 7051.7295064603695, 0.0]
['beep', 0.0, 23.89401482272325, 0.0, 0.0, 0.0, 0.0, 7052.176541349476, 0.0]
['beep', 0.0, 22.865834577779125, 0.0, 0.0, 0.0, 0.0, 7052.601224494127, 0.0]
['beep', 0.0, 23.20111074460873, 0.0, 0.0, 0.0, 0.0, 7053.674108227981, 0.0]
['beep', 0.0, 24.341049711829392, 0.0, 0.0, 0.0, 0.0, 7054.612881495104, 0.0]
['beep', 0.0, 24.25164273400816, 0.0, 0.0, 0.0, 0.0, 7055.059916384211, 0.0]
['beep', 0.0, 21.54708165491601, 0.0, 0.0, 0.0, 0.0, 7055.126971617577, 0.0]
['beep', 0.0, 19.9377560541339, 0.0, 0.0, 0.0, 0.0, 7055.305785573219, 0.0]
['beep', 0.0, 21.591785143826623, 0.0, 0.0, 0.0, 0.0, 7057.049221640733, 0.0]
['beep', 0.0, 22.30704096639645, 0.0, 0.0, 0.0, 0.0, 7057.764477463303, 0.0]
['beep', 0.0, 23.335221211340574, 0.0, 0.0, 0.0, 0.0, 7056.021041395788, 0.0]
['beep', 0.0, 21.97176479956684, 0.0, 0.0, 0.0, 0.0, 7055.953986162423, 0.0]
['beep', 0.0, 19.311907209385303, 0.0, 0.0, 0.0, 0.0, 7056.870407685091, 0.0]
['beep', 0.0, 20.69771536561434, 0.0, 0.0, 0.0, 0.0, 7062.726564732381, 0.0]
['beep', 0.0, 22.37409619976237, 0.0, 0.0, 0.0, 0.0, 7062.547750776738, 0.0]
['beep', 0.0, 20.85417757680149, 0.0, 0.0, 0.0, 0.0, 7064.179428121976, 0.0]
['beep', 0.0, 19.267203720474686, 0.0, 0.0, 0.0, 0.0, 7065.341718833652, 0.0]
['beep', 0.0, 19.758942098491442, 0.0, 0.0, 0.0, 0.0, 7071.2202276253975, 0.0]
['beep', 0.0, 20.205976987597584, 0.0, 0.0, 0.0, 0.0, 7076.137611405566, 0.0]
['beep', 0.0, 21.189453743631095, 0.0, 0.0, 0.0, 0.0, 7083.468983586906, 0.0]
['beep', 0.0, 40.21078827509741, 0.0, 0.0, 0.0, 0.0, 7089.92863773449, 0.0]
['beep', 0.0, 103.28741112797394, 0.0, 0.0, 0.0, 0.0, 7093.393158125063, 0.0]
['beep', 0.0, 117.4360653681833, 0.0, 0.0, 0.0, 0.0, 7087.425242355495, 0.0]
['beep', 0.0, 118.30778340194028, 0.0, 0.0, 0.0, 0.0, 7076.025852683289, 0.0]
['beep', 0.0, 118.30778340194028, 0.0, 0.0, 0.0, 0.0, 7046.812122680202, 0.0]
['beep', 0.0, 117.03373396798779, 0.0, 0.0, 0.0, 0.0, 6917.551984495161, 0.0]
['beep', 0.0, 115.73733278957997, 0.0, 0.0, 0.0, 0.0, 6597.027969006058, 0.0]
['beep', 0.0, 113.50215834404926, 0.0, 0.0, 0.0, 0.0, 6207.861746294707, 0.0]
['beep', 0.0, 115.11148394483138, 0.0, 0.0, 0.0, 0.0, 5848.624509409012, 0.0]
['beep', 0.0, 116.76551303452409, 0.0, 0.0, 0.0, 0.0, 5538.8293312584565, 0.0]
['beep', 0.0, 117.88310025728944, 0.0, 0.0, 0.0, 0.0, 5211.666847666126, 0.0]
['beep', 0.0, 115.5138153450269, 0.0, 0.0, 0.0, 0.0, 4810.743607371283, 0.0]
['beep', 0.0, 112.85395775484535, 0.0, 0.0, 0.0, 0.0, 4357.33847109538, 0.0]
['beep', 0.0, 113.34569613286212, 0.0, 0.0, 0.0, 0.0, 3925.882747874588, 0.0]
['beep', 0.0, 114.50798684453808, 0.0, 0.0, 0.0, 0.0, 3537.789408897091, 0.0]
['beep', 0.0, 115.29029790047383, 0.0, 0.0, 0.0, 0.0, 3132.082895288813, 0.0]
['beep', 0.0, 115.8267397674012, 0.0, 0.0, 0.0, 0.0, 2653.5096947562333, 0.0]
['beep', 0.0, 118.75481829104642, 0.0, 0.0, 0.0, 0.0, 2134.0328018704417, 0.0]
['beep', 0.0, 111.22228040960795, 0.0, 0.0, 0.0, 0.0, 1650.5869210466053, 0.0]
['beep', 0.0, 91.88802145576733, 0.0, 0.0, 0.0, 0.0, 1216.0466570909807, 0.0]
['beep', 0.0, 26.196244501619876, 0.0, 0.0, 0.0, 0.0, 758.2605789018368, 0.0]
['beep', 0.0, -20.831825832346183, 0.0, 0.0, 0.0, 0.0, 264.44348865073783, 0.0]
['beep', 0.0, -23.402276444706494, 0.0, 0.0, 0.0, 0.0, -4.537404124427334, 0.0]
['beep', 0.0, -23.379924700251188, 0.0, 0.0, 0.0, 0.0, -28.789046858435498, 0.0]
['beep', 0.0, -23.335221211340574, 0.0, 0.0, 0.0, 0.0, -28.654936391703654, 0.0]
['beep', 0.0, -23.379924700251188, 0.0, 0.0, 0.0, 0.0, -28.54317766942712, 0.0]
['beep', 0.0, -23.4246281891618, 0.0, 0.0, 0.0, 0.0, -28.409067202695276, 0.0]
['beep', 0.0, -23.49168342252772, 0.0, 0.0, 0.0, 0.0, -28.38671545823997, 0.0]
['beep', 0.0, -23.67049737817018, 0.0, 0.0, 0.0, 0.0, -28.364363713784662, 0.0]
['beep', 0.0, -23.82695958935733, 0.0, 0.0, 0.0, 0.0, -28.31966022487405, 0.0]
['beep', 0.0, -23.89401482272325, 0.0, 0.0, 0.0, 0.0, -28.364363713784662, 0.0]
['beep', 0.0, -23.89401482272325, 0.0, 0.0, 0.0, 0.0, -28.364363713784662, 0.0]
['beep', 0.0, -23.96107005608917, 0.0, 0.0, 0.0, 0.0, -28.364363713784662, 0.0]
['beep', 0.0, -23.96107005608917, 0.0, 0.0, 0.0, 0.0, -28.31966022487405, 0.0]
['beep', 0.0, -23.89401482272325, 0.0, 0.0, 0.0, 0.0, -28.409067202695276, 0.0]
['beep', 0.0, -23.938718311633863, 0.0, 0.0, 0.0, 0.0, -28.431418947150583, 0.0]
['beep', 0.0, -23.89401482272325, 0.0, 0.0, 0.0, 0.0, -28.38671545823997, 0.0]
['beep', 0.0, -23.89401482272325, 0.0, 0.0, 0.0, 0.0, -28.364363713784662, 0.0]
['beep', 0.0, -23.89401482272325, 0.0, 0.0, 0.0, 0.0, -28.364363713784662, 0.0]
['beep', 0.0, -23.938718311633863, 0.0, 0.0, 0.0, 0.0, -28.342011969329356, 0.0]
['beep', 0.0, -23.938718311633863, 0.0, 0.0, 0.0, 0.0, -28.342011969329356, 0.0]
['beep', 0.0, -23.96107005608917, 0.0, 0.0, 0.0, 0.0, -28.364363713784662, 0.0]
['beep', 0.0, -24.005773544999784, 0.0, 0.0, 0.0, 0.0, -28.31966022487405, 0.0]
['beep', 0.0, -24.005773544999784, 0.0, 0.0, 0.0, 0.0, -28.342011969329356, 0.0]
['beep', 0.0, -23.916366567178557, 0.0, 0.0, 0.0, 0.0, -28.364363713784662, 0.0]
['beep', 0.0, -23.938718311633863, 0.0, 0.0, 0.0, 0.0, -28.342011969329356, 0.0]
['beep', 0.0, -23.938718311633863, 0.0, 0.0, 0.0, 0.0, -28.38671545823997, 0.0]
['beep', 0.0, -23.89401482272325, 0.0, 0.0, 0.0, 0.0, -28.297308480418742, 0.0]
['beep', 0.0, -23.849311333812636, 0.0, 0.0, 0.0, 0.0, -28.297308480418742, 0.0]
['beep', 0.0, -23.938718311633863, 0.0, 0.0, 0.0, 0.0, -28.31966022487405, 0.0]
['beep', 0.0, -23.938718311633863, 0.0, 0.0, 0.0, 0.0, -28.364363713784662, 0.0]
['beep', 0.0, -23.89401482272325, 0.0, 0.0, 0.0, 0.0, -28.342011969329356, 0.0]
['beep', 0.0, -23.916366567178557, 0.0, 0.0, 0.0, 0.0, -28.364363713784662, 0.0]
['beep', 0.0, -23.89401482272325, 0.0, 0.0, 0.0, 0.0, -28.364363713784662, 0.0]
['beep', 0.0, -23.938718311633863, 0.0, 0.0, 0.0, 0.0, -28.31966022487405, 0.0]
['beep', 0.0, -23.916366567178557, 0.0, 0.0, 0.0, 0.0, -28.31966022487405, 0.0]
['beep', 0.0, -23.938718311633863, 0.0, 0.0, 0.0, 0.0, -28.342011969329356, 0.0]
['beep', 0.0, -23.89401482272325, 0.0, 0.0, 0.0, 0.0, -28.342011969329356, 0.0]
['beep', 0.0, -23.916366567178557, 0.0, 0.0, 0.0, 0.0, -28.342011969329356, 0.0]
['beep', 0.0, -23.96107005608917, 0.0, 0.0, 0.0, 0.0, -28.297308480418742, 0.0]
['beep', 0.0, -23.983421800544477, 0.0, 0.0, 0.0, 0.0, -28.364363713784662, 0.0]
['beep', 0.0, -23.938718311633863, 0.0, 0.0, 0.0, 0.0, -28.38671545823997, 0.0]
['beep', 0.0, -23.938718311633863, 0.0, 0.0, 0.0, 0.0, -28.38671545823997, 0.0]
['beep', 0.0, -23.89401482272325, 0.0, 0.0, 0.0, 0.0, -28.342011969329356, 0.0]
['beep', 0.0, -23.96107005608917, 0.0, 0.0, 0.0, 0.0, -28.297308480418742, 0.0]
['beep', 0.0, -23.983421800544477, 0.0, 0.0, 0.0, 0.0, -28.342011969329356, 0.0]
['beep', 0.0, -23.96107005608917, 0.0, 0.0, 0.0, 0.0, -28.342011969329356, 0.0]
['beep', 0.0, -23.938718311633863, 0.0, 0.0, 0.0, 0.0, -28.342011969329356, 0.0]
['beep', 0.0, -23.871663078267943, 0.0, 0.0, 0.0, 0.0, -28.364363713784662, 0.0]
['beep', 0.0, -23.849311333812636, 0.0, 0.0, 0.0, 0.0, -28.364363713784662, 0.0]
['beep', 0.0, -23.89401482272325, 0.0, 0.0, 0.0, 0.0, -28.274956735963436, 0.0]
['beep', 0.0, -23.916366567178557, 0.0, 0.0, 0.0, 0.0, -28.297308480418742, 0.0]
['beep', 0.0, -23.916366567178557, 0.0, 0.0, 0.0, 0.0, -28.31966022487405, 0.0]
['beep', 0.0, -23.89401482272325, 0.0, 0.0, 0.0, 0.0, -28.342011969329356, 0.0]
['beep', 0.0, -23.938718311633863, 0.0, 0.0, 0.0, 0.0, -28.364363713784662, 0.0]
['beep', 0.0, -23.938718311633863, 0.0, 0.0, 0.0, 0.0, -28.364363713784662, 0.0]
['beep', 0.0, -23.89401482272325, 0.0, 0.0, 0.0, 0.0, -28.342011969329356, 0.0]
['beep', 0.0, -23.916366567178557, 0.0, 0.0, 0.0, 0.0, -28.342011969329356, 0.0]
['beep', 0.0, -23.89401482272325, 0.0, 0.0, 0.0, 0.0, -28.364363713784662, 0.0]
['beep', 0.0, -23.916366567178557, 0.0, 0.0, 0.0, 0.0, -28.364363713784662, 0.0]
['beep', 0.0, -23.849311333812636, 0.0, 0.0, 0.0, 0.0, -28.31966022487405, 0.0]
['beep', 0.0, -23.89401482272325, 0.0, 0.0, 0.0, 0.0, -28.342011969329356, 0.0]
['beep', 0.0, -23.96107005608917, 0.0, 0.0, 0.0, 0.0, -28.364363713784662, 0.0]
['beep', 0.0, -23.871663078267943, 0.0, 0.0, 0.0, 0.0, -28.364363713784662, 0.0]
['beep', 0.0, -23.916366567178557, 0.0, 0.0, 0.0, 0.0, -28.38671545823997, 0.0]
['beep', 0.0, -23.96107005608917, 0.0, 0.0, 0.0, 0.0, -28.342011969329356, 0.0]
['beep', 0.0, -23.916366567178557, 0.0, 0.0, 0.0, 0.0, -28.364363713784662, 0.0]
['beep', 0.0, -23.916366567178557, 0.0, 0.0, 0.0, 0.0, -28.364363713784662, 0.0]
['beep', 0.0, -23.89401482272325, 0.0, 0.0, 0.0, 0.0, -28.364363713784662, 0.0]
['beep', 0.0, -23.938718311633863, 0.0, 0.0, 0.0, 0.0, -28.38671545823997, 0.0]
['beep', 0.0, -23.916366567178557, 0.0, 0.0, 0.0, 0.0, -28.409067202695276, 0.0]
['beep', 0.0, -23.89401482272325, 0.0, 0.0, 0.0, 0.0, -28.409067202695276, 0.0]
['beep', 0.0, -23.916366567178557, 0.0, 0.0, 0.0, 0.0, -28.409067202695276, 0.0]
['beep', 0.0, -23.938718311633863, 0.0, 0.0, 0.0, 0.0, -28.364363713784662, 0.0]
['beep', 0.0, -23.916366567178557, 0.0, 0.0, 0.0, 0.0, -28.38671545823997, 0.0]
['beep', 0.0, -23.916366567178557, 0.0, 0.0, 0.0, 0.0, -28.364363713784662, 0.0]
['beep', 0.0, -23.96107005608917, 0.0, 0.0, 0.0, 0.0, -28.364363713784662, 0.0]
['beep', 0.0, -23.89401482272325, 0.0, 0.0, 0.0, 0.0, -28.31966022487405, 0.0]
['beep', 0.0, -23.89401482272325, 0.0, 0.0, 0.0, 0.0, -28.342011969329356, 0.0]
['beep', 0.0, -23.938718311633863, 0.0, 0.0, 0.0, 0.0, -28.409067202695276, 0.0]
['beep', 0.0, -23.871663078267943, 0.0, 0.0, 0.0, 0.0, -28.409067202695276, 0.0]
['beep', 0.0, -23.849311333812636, 0.0, 0.0, 0.0, 0.0, -28.364363713784662, 0.0]
['beep', 0.0, -23.89401482272325, 0.0, 0.0, 0.0, 0.0, -28.364363713784662, 0.0]
['beep', 0.0, -23.938718311633863, 0.0, 0.0, 0.0, 0.0, -28.38671545823997, 0.0]
['beep', 0.0, -23.96107005608917, 0.0, 0.0, 0.0, 0.0, -28.409067202695276, 0.0]
['beep', 0.0, -23.89401482272325, 0.0, 0.0, 0.0, 0.0, -28.431418947150583, 0.0]
['beep', 0.0, -23.89401482272325, 0.0, 0.0, 0.0, 0.0, -28.364363713784662, 0.0]
['beep', 0.0, -23.938718311633863, 0.0, 0.0, 0.0, 0.0, -28.409067202695276, 0.0]
['beep', 0.0, -23.89401482272325, 0.0, 0.0, 0.0, 0.0, -28.38671545823997, 0.0]
['beep', 0.0, -23.96107005608917, 0.0, 0.0, 0.0, 0.0, -28.364363713784662, 0.0]
['beep', 0.0, -23.96107005608917, 0.0, 0.0, 0.0, 0.0, -28.409067202695276, 0.0]
['beep', 0.0, -23.938718311633863, 0.0, 0.0, 0.0, 0.0, -28.38671545823997, 0.0]
['beep', 0.0, -23.89401482272325, 0.0, 0.0, 0.0, 0.0, -28.342011969329356, 0.0]
['beep', 0.0, -23.89401482272325, 0.0, 0.0, 0.0, 0.0, -28.409067202695276, 0.0]
['beep', 0.0, -23.938718311633863, 0.0, 0.0, 0.0, 0.0, -28.409067202695276, 0.0]
['beep', 0.0, -24.005773544999784, 0.0, 0.0, 0.0, 0.0, -28.364363713784662, 0.0]
['beep', 0.0, -23.938718311633863, 0.0, 0.0, 0.0, 0.0, -28.38671545823997, 0.0]
['beep', 0.0, -23.89401482272325, 0.0, 0.0, 0.0, 0.0, -28.409067202695276, 0.0]
['beep', 0.0, -23.849311333812636, 0.0, 0.0, 0.0, 0.0, -28.364363713784662, 0.0]
['beep', 0.0, -23.849311333812636, 0.0, 0.0, 0.0, 0.0, -28.364363713784662, 0.0]
['beep', 0.0, -23.938718311633863, 0.0, 0.0, 0.0, 0.0, -28.409067202695276, 0.0]
['beep', 0.0, -23.916366567178557, 0.0, 0.0, 0.0, 0.0, -28.409067202695276, 0.0]
['beep', 0.0, -23.96107005608917, 0.0, 0.0, 0.0, 0.0, -28.38671545823997, 0.0]
['beep', 0.0, -23.96107005608917, 0.0, 0.0, 0.0, 0.0, -28.364363713784662, 0.0]
['beep', 0.0, -23.938718311633863, 0.0, 0.0, 0.0, 0.0, -28.342011969329356, 0.0]
['beep', 0.0, -23.916366567178557, 0.0, 0.0, 0.0, 0.0, -28.297308480418742, 0.0]
['beep', 0.0, -23.938718311633863, 0.0, 0.0, 0.0, 0.0, -28.297308480418742, 0.0]
['beep', 0.0, -23.938718311633863, 0.0, 0.0, 0.0, 0.0, -28.31966022487405, 0.0]
['beep', 0.0, -23.849311333812636, 0.0, 0.0, 0.0, 0.0, -28.364363713784662, 0.0]
['beep', 0.0, -23.89401482272325, 0.0, 0.0, 0.0, 0.0, -28.364363713784662, 0.0]
['beep', 0.0, -23.871663078267943, 0.0, 0.0, 0.0, 0.0, -28.364363713784662, 0.0]
['beep', 0.0, -23.89401482272325, 0.0, 0.0, 0.0, 0.0, -28.38671545823997, 0.0]
['beep', 0.0, -23.916366567178557, 0.0, 0.0, 0.0, 0.0, -28.364363713784662, 0.0]
['beep', 0.0, -23.938718311633863, 0.0, 0.0, 0.0, 0.0, -28.364363713784662, 0.0]
['beep', 0.0, -23.96107005608917, 0.0, 0.0, 0.0, 0.0, -28.364363713784662, 0.0]
['beep', 0.0, -23.938718311633863, 0.0, 0.0, 0.0, 0.0, -28.38671545823997, 0.0]
['beep', 0.0, -23.938718311633863, 0.0, 0.0, 0.0, 0.0, -28.342011969329356, 0.0]
['beep', 0.0, -23.871663078267943, 0.0, 0.0, 0.0, 0.0, -28.364363713784662, 0.0]
['beep', 0.0, -23.82695958935733, 0.0, 0.0, 0.0, 0.0, -28.297308480418742, 0.0]
['beep', 0.0, -23.89401482272325, 0.0, 0.0, 0.0, 0.0, -28.342011969329356, 0.0]
['beep', 0.0, -23.938718311633863, 0.0, 0.0, 0.0, 0.0, -28.31966022487405, 0.0]
['beep', 0.0, -23.938718311633863, 0.0, 0.0, 0.0, 0.0, -28.364363713784662, 0.0]
['beep', 0.0, -23.938718311633863, 0.0, 0.0, 0.0, 0.0, -28.409067202695276, 0.0]
['beep', 0.0, -23.96107005608917, 0.0, 0.0, 0.0, 0.0, -28.409067202695276, 0.0]
['beep', 0.0, -23.916366567178557, 0.0, 0.0, 0.0, 0.0, -28.409067202695276, 0.0]
['beep', 0.0, -23.89401482272325, 0.0, 0.0, 0.0, 0.0, -28.364363713784662, 0.0]
['beep', 0.0, -23.916366567178557, 0.0, 0.0, 0.0, 0.0, -28.364363713784662, 0.0]
['beep', 0.0, -23.938718311633863, 0.0, 0.0, 0.0, 0.0, -28.31966022487405, 0.0]
['beep', 0.0, -23.916366567178557, 0.0, 0.0, 0.0, 0.0, -28.364363713784662, 0.0]
['beep', 0.0, -23.849311333812636, 0.0, 0.0, 0.0, 0.0, -28.364363713784662, 0.0]
['beep', 0.0, -23.938718311633863, 0.0, 0.0, 0.0, 0.0, -28.364363713784662, 0.0]
['beep', 0.0, -23.916366567178557, 0.0, 0.0, 0.0, 0.0, -28.31966022487405, 0.0]
['beep', 0.0, -23.89401482272325, 0.0, 0.0, 0.0, 0.0, -28.31966022487405, 0.0]
['beep', 0.0, -23.938718311633863, 0.0, 0.0, 0.0, 0.0, -28.342011969329356, 0.0]
['beep', 0.0, -23.938718311633863, 0.0, 0.0, 0.0, 0.0, -28.31966022487405, 0.0]
['beep', 0.0, -23.938718311633863, 0.0, 0.0, 0.0, 0.0, -28.364363713784662, 0.0]
['beep', 0.0, -23.89401482272325, 0.0, 0.0, 0.0, 0.0, -28.364363713784662, 0.0]
['beep', 0.0, -23.96107005608917, 0.0, 0.0, 0.0, 0.0, -28.364363713784662, 0.0]
['beep', 0.0, -23.938718311633863, 0.0, 0.0, 0.0, 0.0, -28.364363713784662, 0.0]
['beep', 0.0, -23.89401482272325, 0.0, 0.0, 0.0, 0.0, -28.342011969329356, 0.0]
['beep', 0.0, -23.916366567178557, 0.0, 0.0, 0.0, 0.0, -28.364363713784662, 0.0]
['beep', 0.0, -23.89401482272325, 0.0, 0.0, 0.0, 0.0, -28.364363713784662, 0.0]
['beep', 0.0, -23.938718311633863, 0.0, 0.0, 0.0, 0.0, -28.31966022487405, 0.0]
['beep', 0.0, -23.938718311633863, 0.0, 0.0, 0.0, 0.0, -28.297308480418742, 0.0]
['beep', 0.0, -23.89401482272325, 0.0, 0.0, 0.0, 0.0, -28.31966022487405, 0.0]
['beep', 0.0, -23.849311333812636, 0.0, 0.0, 0.0, 0.0, -28.364363713784662, 0.0]
['beep', 0.0, -23.89401482272325, 0.0, 0.0, 0.0, 0.0, -28.38671545823997, 0.0]
['beep', 0.0, -23.916366567178557, 0.0, 0.0, 0.0, 0.0, -28.364363713784662, 0.0]
['beep', 0.0, -23.89401482272325, 0.0, 0.0, 0.0, 0.0, -28.342011969329356, 0.0]
['beep', 0.0, -23.89401482272325, 0.0, 0.0, 0.0, 0.0, -28.364363713784662, 0.0]
['beep', 0.0, -23.938718311633863, 0.0, 0.0, 0.0, 0.0, -28.409067202695276, 0.0]
['beep', 0.0, -23.938718311633863, 0.0, 0.0, 0.0, 0.0, -28.409067202695276, 0.0]
['beep', 0.0, -23.938718311633863, 0.0, 0.0, 0.0, 0.0, -28.342011969329356, 0.0]
['beep', 0.0, -23.916366567178557, 0.0, 0.0, 0.0, 0.0, -28.31966022487405, 0.0]
['beep', 0.0, -23.89401482272325, 0.0, 0.0, 0.0, 0.0, -28.38671545823997, 0.0]
['beep', 0.0, -23.89401482272325, 0.0, 0.0, 0.0, 0.0, -28.31966022487405, 0.0]
['beep', 0.0, -23.938718311633863, 0.0, 0.0, 0.0, 0.0, -28.364363713784662, 0.0]
['beep', 0.0, -23.89401482272325, 0.0, 0.0, 0.0, 0.0, -28.364363713784662, 0.0]
['beep', 0.0, -23.849311333812636, 0.0, 0.0, 0.0, 0.0, -28.364363713784662, 0.0]
['beep', 0.0, -23.916366567178557, 0.0, 0.0, 0.0, 0.0, -28.31966022487405, 0.0]
['beep', 0.0, -23.938718311633863, 0.0, 0.0, 0.0, 0.0, -28.364363713784662, 0.0]
['beep', 0.0, -23.96107005608917, 0.0, 0.0, 0.0, 0.0, -28.31966022487405, 0.0]
['beep', 0.0, -23.89401482272325, 0.0, 0.0, 0.0, 0.0, -28.342011969329356, 0.0]
['beep', 0.0, -23.938718311633863, 0.0, 0.0, 0.0, 0.0, -28.38671545823997, 0.0]
['beep', 0.0, -23.938718311633863, 0.0, 0.0, 0.0, 0.0, -28.364363713784662, 0.0]
['beep', 0.0, -23.96107005608917, 0.0, 0.0, 0.0, 0.0, -28.31966022487405, 0.0]
['beep', 0.0, -23.871663078267943, 0.0, 0.0, 0.0, 0.0, -28.364363713784662, 0.0]
['beep', 0.0, -23.75990435599141, 0.0, 0.0, 0.0, 0.0, -28.342011969329356, 0.0]
['beep', 0.0, -23.67049737817018, 0.0, 0.0, 0.0, 0.0, -28.364363713784662, 0.0]
['beep', 0.0, -23.625793889259565, 0.0, 0.0, 0.0, 0.0, -28.364363713784662, 0.0]
['beep', 0.0, -23.51403516698303, 0.0, 0.0, 0.0, 0.0, -28.38671545823997, 0.0]
['beep', 0.0, -23.51403516698303, 0.0, 0.0, 0.0, 0.0, -28.38671545823997, 0.0]
['beep', 0.0, -23.469331678072415, 0.0, 0.0, 0.0, 0.0, -28.409067202695276, 0.0]
['beep', 0.0, -23.402276444706494, 0.0, 0.0, 0.0, 0.0, -28.409067202695276, 0.0]
['beep', 0.0, -23.446979933617108, 0.0, 0.0, 0.0, 0.0, -28.45377069160589, 0.0]
['beep', 0.0, -23.35757295579588, 0.0, 0.0, 0.0, 0.0, -28.587881158337733, 0.0]
['beep', 0.0, -23.379924700251188, 0.0, 0.0, 0.0, 0.0, -28.76669511398019, 0.0]
['beep', 0.0, -23.402276444706494, 0.0, 0.0, 0.0, 0.0, -28.923157325167338, 0.0]
['beep', 0.0, -23.402276444706494, 0.0, 0.0, 0.0, 0.0, -23.111703766787503, 0.0]
['beep', 0.0, -23.402276444706494, 0.0, 0.0, 0.0, 0.0, 124.85684452734525, 0.0]
['beep', 0.0, -15.735628096536171, 0.0, 0.0, 0.0, 0.0, 496.99103796375255, 0.0]
['beep', 0.0, 75.28067532547419, 0.0, 0.0, 0.0, 0.0, 862.8443912082186, 0.0]
['beep', 0.0, 128.72369631811338, 0.0, 0.0, 0.0, 0.0, 1191.0574067899474, 0.0]
['beep', 0.0, 52.39248900323975, 0.0, 0.0, 0.0, 0.0, 7191.740833728413, 0.0]
['beep', 0.0, 52.839523892345895, 0.0, 0.0, 0.0, 0.0, 7191.293798839307, 0.0]
['beep', 0.0, 52.034861091954845, 0.0, 0.0, 0.0, 0.0, 7191.092633139209, 0.0]
['beep', 0.0, 50.89492212473418, 0.0, 0.0, 0.0, 0.0, 7195.428871563539, 0.0]
['beep', 0.0, 52.19132330314199, 0.0, 0.0, 0.0, 0.0, 7195.495926796905, 0.0]
['beep', 0.0, 53.8006489039241, 0.0, 0.0, 0.0, 0.0, 7197.060548908777, 0.0]
['beep', 0.0, 54.58295995985985, 0.0, 0.0, 0.0, 0.0, 7194.400691318595, 0.0]
['beep', 0.0, 52.59365470333752, 0.0, 0.0, 0.0, 0.0, 7193.528973284838, 0.0]
['beep', 0.0, 51.2749017804744, 0.0, 0.0, 0.0, 0.0, 7194.020711662854, 0.0]
['beep', 0.0, 52.772468658979975, 0.0, 0.0, 0.0, 0.0, 7192.701958739992, 0.0]
['beep', 0.0, 52.839523892345895, 0.0, 0.0, 0.0, 0.0, 7191.427909306039, 0.0]
['beep', 0.0, 54.33709077085147, 0.0, 0.0, 0.0, 0.0, 7190.75735697238, 0.0]
['beep', 0.0, 53.73359367055818, 0.0, 0.0, 0.0, 0.0, 7192.277275595341, 0.0]
['beep', 0.0, 52.81717214789059, 0.0, 0.0, 0.0, 0.0, 7196.345293086207, 0.0]
['beep', 0.0, 53.04068959244366, 0.0, 0.0, 0.0, 0.0, 7195.808851219279, 0.0]
['beep', 0.0, 53.71124192610287, 0.0, 0.0, 0.0, 0.0, 7194.490098296416, 0.0]
['beep', 0.0, 54.359442515306775, 0.0, 0.0, 0.0, 0.0, 7193.618380262659, 0.0]
['beep', 0.0, 53.06304133689897, 0.0, 0.0, 0.0, 0.0, 7193.126641884643, 0.0]
['beep', 0.0, 52.236026792052606, 0.0, 0.0, 0.0, 0.0, 7191.427909306039, 0.0]
['beep', 0.0, 51.252550036019095, 0.0, 0.0, 0.0, 0.0, 7194.557153529782, 0.0]
['beep', 0.0, 53.4877244815498, 0.0, 0.0, 0.0, 0.0, 7195.339464585718, 0.0]
['beep', 0.0, 55.09705008233191, 0.0, 0.0, 0.0, 0.0, 7192.098461639698, 0.0]
['beep', 0.0, 52.72776517006936, 0.0, 0.0, 0.0, 0.0, 7193.9983599184, 0.0]
['beep', 0.0, 52.906579125711815, 0.0, 0.0, 0.0, 0.0, 7195.764147730369, 0.0]
['beep', 0.0, 53.621834948281645, 0.0, 0.0, 0.0, 0.0, 7196.255886108385, 0.0]
['beep', 0.0, 53.4877244815498, 0.0, 0.0, 0.0, 0.0, 7194.7136157409695, 0.0]
['beep', 0.0, 53.554779714915725, 0.0, 0.0, 0.0, 0.0, 7195.384168074628, 0.0]
['beep', 0.0, 52.772468658979975, 0.0, 0.0, 0.0, 0.0, 7195.741795985913, 0.0]
['beep', 0.0, 52.772468658979975, 0.0, 0.0, 0.0, 0.0, 7194.445394807505, 0.0]
['beep', 0.0, 53.21950354808612, 0.0, 0.0, 0.0, 0.0, 7197.440528564517, 0.0]
['beep', 0.0, 53.1748000591755, 0.0, 0.0, 0.0, 0.0, 7198.42400532055, 0.0]
['beep', 0.0, 53.93475937065594, 0.0, 0.0, 0.0, 0.0, 7198.021673920354, 0.0]
['beep', 0.0, 53.57713145937103, 0.0, 0.0, 0.0, 0.0, 7198.222839620453, 0.0]
['beep', 0.0, 52.41484074769506, 0.0, 0.0, 0.0, 0.0, 7196.591162275215, 0.0]
['beep', 0.0, 51.67723318066993, 0.0, 0.0, 0.0, 0.0, 7196.971141930955, 0.0]
['beep', 0.0, 52.168971558686685, 0.0, 0.0, 0.0, 0.0, 7197.261714608874, 0.0]
['beep', 0.0, 54.85118089332353, 0.0, 0.0, 0.0, 0.0, 7197.28406635333, 0.0]
['beep', 0.0, 55.25351229351906, 0.0, 0.0, 0.0, 0.0, 7195.965313430466, 0.0]
['beep', 0.0, 54.91823612668945, 0.0, 0.0, 0.0, 0.0, 7197.574639031249, 0.0]
['beep', 0.0, 55.09705008233191, 0.0, 0.0, 0.0, 0.0, 7199.362778587673, 0.0]
['beep', 0.0, 55.11940182678722, 0.0, 0.0, 0.0, 0.0, 7198.960447187477, 0.0]
['beep', 0.0, 54.98529136005538, 0.0, 0.0, 0.0, 0.0, 7199.18396463203, 0.0]
['beep', 0.0, 53.77829715946879, 0.0, 0.0, 0.0, 0.0, 7200.323903599251, 0.0]
['beep', 0.0, 53.1748000591755, 0.0, 0.0, 0.0, 0.0, 7201.150918144098, 0.0]
['beep', 0.0, 53.71124192610287, 0.0, 0.0, 0.0, 0.0, 7201.575601288749, 0.0]
['beep', 0.0, 54.605311704315156, 0.0, 0.0, 0.0, 0.0, 7199.072205909754, 0.0]
['beep', 0.0, 55.18645706015314, 0.0, 0.0, 0.0, 0.0, 7198.401653576095, 0.0]
['beep', 0.0, 52.101916325320765, 0.0, 0.0, 0.0, 0.0, 7205.129528657142, 0.0]
['beep', 0.0, 51.69958492512524, 0.0, 0.0, 0.0, 0.0, 7207.297647869307, 0.0]
['beep', 0.0, 54.78412565995761, 0.0, 0.0, 0.0, 0.0, 7206.202412390997, 0.0]
['beep', 0.0, 51.87839888076769, 0.0, 0.0, 0.0, 0.0, 7205.621267035159, 0.0]
['beep', 0.0, 46.513980211493994, 0.0, 0.0, 0.0, 0.0, 7206.336522857729, 0.0]
['beep', 0.0, 42.200093531619736, 0.0, 0.0, 0.0, 0.0, 7207.09648216921, 0.0]
['beep', 0.0, 41.99892783152197, 0.0, 0.0, 0.0, 0.0, 7209.845746737212, 0.0]
['beep', 0.0, 45.105820310809655, 0.0, 0.0, 0.0, 0.0, 7211.343313615717, 0.0]
['beep', 0.0, 47.07277382287668, 0.0, 0.0, 0.0, 0.0, 7207.52116531386, 0.0]
['beep', 0.0, 46.961015100600136, 0.0, 0.0, 0.0, 0.0, 7206.716502513469, 0.0]
['beep', 0.0, 45.68696566664764, 0.0, 0.0, 0.0, 0.0, 7209.957505459489, 0.0]
['beep', 0.0, 43.988233088044296, 0.0, 0.0, 0.0, 0.0, 7209.108139170187, 0.0]
['beep', 0.0, 44.36821274378452, 0.0, 0.0, 0.0, 0.0, 7209.66693278157, 0.0]
['beep', 0.0, 45.99989008902193, 0.0, 0.0, 0.0, 0.0, 7210.203374648497, 0.0]
['beep', 0.0, 47.676270923169966, 0.0, 0.0, 0.0, 0.0, 7208.929325214544, 0.0]
['beep', 0.0, 46.29046276694093, 0.0, 0.0, 0.0, 0.0, 7210.38218860414, 0.0]
['beep', 0.0, 45.575206944371104, 0.0, 0.0, 0.0, 0.0, 7209.890450226123, 0.0]
['beep', 0.0, 45.68696566664764, 0.0, 0.0, 0.0, 0.0, 7211.253906637897, 0.0]
['beep', 0.0, 47.72097441208058, 0.0, 0.0, 0.0, 0.0, 7210.672761282059, 0.0]
['beep', 0.0, 49.17383780167554, 0.0, 0.0, 0.0, 0.0, 7209.9798572039435, 0.0]
['beep', 0.0, 48.4362302346504, 0.0, 0.0, 0.0, 0.0, 7211.812700249279, 0.0]
['beep', 0.0, 48.145657556731415, 0.0, 0.0, 0.0, 0.0, 7217.043008451821, 0.0]
['beep', 0.0, 48.883265123756544, 0.0, 0.0, 0.0, 0.0, 7215.858365995689, 0.0]
['beep', 0.0, 50.69375642463642, 0.0, 0.0, 0.0, 0.0, 7214.09257818372, 0.0]
['beep', 0.0, 52.05721283641015, 0.0, 0.0, 0.0, 0.0, 7214.181985161542, 0.0]
['beep', 0.0, 50.93962561364479, 0.0, 0.0, 0.0, 0.0, 7214.204336905997, 0.0]
['beep', 0.0, 49.44205873513922, 0.0, 0.0, 0.0, 0.0, 7214.04787469481, 0.0]
['beep', 0.0, 49.30794826840738, 0.0, 0.0, 0.0, 0.0, 7213.198508405508, 0.0]
['beep', 0.0, 50.24672153553028, 0.0, 0.0, 0.0, 0.0, 7213.354970616695, 0.0]
['beep', 0.0, 52.32543376987383, 0.0, 0.0, 0.0, 0.0, 7212.99734270541, 0.0]
['beep', 0.0, 52.92893087016712, 0.0, 0.0, 0.0, 0.0, 7212.058569438287, 0.0]
['beep', 0.0, 51.923102369678304, 0.0, 0.0, 0.0, 0.0, 7212.259735138386, 0.0]
['beep', 0.0, 52.41484074769506, 0.0, 0.0, 0.0, 0.0, 7213.600839805704, 0.0]
['beep', 0.0, 55.49938148252744, 0.0, 0.0, 0.0, 0.0, 7212.863232238678, 0.0]
['beep', 0.0, 55.678195438169894, 0.0, 0.0, 0.0, 0.0, 7211.656238038092, 0.0]
['beep', 0.0, 55.0523465934213, 0.0, 0.0, 0.0, 0.0, 7211.455072337994, 0.0]
['beep', 0.0, 54.91823612668945, 0.0, 0.0, 0.0, 0.0, 7212.818528749768, 0.0]
['beep', 0.0, 54.51590472649393, 0.0, 0.0, 0.0, 0.0, 7216.28304914034, 0.0]
['beep', 0.0, 55.477029738072126, 0.0, 0.0, 0.0, 0.0, 7212.90793572759, 0.0]
['beep', 0.0, 55.36527101579559, 0.0, 0.0, 0.0, 0.0, 7213.779653761346, 0.0]
['beep', 0.0, 53.890055881745326, 0.0, 0.0, 0.0, 0.0, 7214.718427028469, 0.0]
['beep', 0.0, 53.823000648379406, 0.0, 0.0, 0.0, 0.0, 7214.003171205899, 0.0]
['beep', 0.0, 54.605311704315156, 0.0, 0.0, 0.0, 0.0, 7211.589182804726, 0.0]
['beep', 0.0, 55.63349194925928, 0.0, 0.0, 0.0, 0.0, 7210.9186304710665, 0.0]
['beep', 0.0, 58.76273617300227, 0.0, 0.0, 0.0, 0.0, 7213.310267127785, 0.0]
['beep', 0.0, 55.83465764935704, 0.0, 0.0, 0.0, 0.0, 7213.869060739167, 0.0]
['beep', 0.0, 54.38179425976208, 0.0, 0.0, 0.0, 0.0, 7215.970124717966, 0.0]
['beep', 0.0, 56.23698904955257, 0.0, 0.0, 0.0, 0.0, 7215.388979362128, 0.0]
['beep', 0.0, 56.61696870529279, 0.0, 0.0, 0.0, 0.0, 7215.277220639851, 0.0]
['beep', 0.0, 56.61696870529279, 0.0, 0.0, 0.0, 0.0, 7216.215993906974, 0.0]
['beep', 0.0, 54.7617739155023, 0.0, 0.0, 0.0, 0.0, 7219.077017197254, 0.0]
['beep', 0.0, 52.61600644779283, 0.0, 0.0, 0.0, 0.0, 7219.412293364084, 0.0]
['beep', 0.0, 51.990157603044224, 0.0, 0.0, 0.0, 0.0, 7216.975953218455, 0.0]
['beep', 0.0, 56.08052683836542, 0.0, 0.0, 0.0, 0.0, 7216.774787518358, 0.0]
['beep', 0.0, 57.06400359439893, 0.0, 0.0, 0.0, 0.0, 7218.518223585871, 0.0]
['beep', 0.0, 54.605311704315156, 0.0, 0.0, 0.0, 0.0, 7220.418121864573, 0.0]
['beep', 0.0, 53.30891052590734, 0.0, 0.0, 0.0, 0.0, 7220.999267220411, 0.0]
['beep', 0.0, 52.59365470333752, 0.0, 0.0, 0.0, 0.0, 7221.267488153874, 0.0]
['beep', 0.0, 54.00181460402187, 0.0, 0.0, 0.0, 0.0, 7224.284973655341, 0.0]
['beep', 0.0, 55.16410531569783, 0.0, 0.0, 0.0, 0.0, 7248.581319878259, 0.0]
['beep', 0.0, 53.26420703699673, 0.0, 0.0, 0.0, 0.0, 7250.458866412505, 0.0]
['beep', 0.0, 52.95128261462243, 0.0, 0.0, 0.0, 0.0, 7227.727142301458, 0.0]
['beep', 0.0, 51.40901224720624, 0.0, 0.0, 0.0, 0.0, 7227.52597660136, 0.0]
['beep', 0.0, 51.76664015849116, 0.0, 0.0, 0.0, 0.0, 7225.3578573891955, 0.0]
['beep', 0.0, 52.41484074769506, 0.0, 0.0, 0.0, 0.0, 7244.714468087491, 0.0]
['beep', 0.0, 51.498419225027476, 0.0, 0.0, 0.0, 0.0, 7245.139151232142, 0.0]
['beep', 0.0, 50.403183746717424, 0.0, 0.0, 0.0, 0.0, 7228.420046379572, 0.0]
['beep', 0.0, 51.319605269385015, 0.0, 0.0, 0.0, 0.0, 7225.939002745034, 0.0]
['beep', 0.0, 54.672366937681076, 0.0, 0.0, 0.0, 0.0, 7225.693133556025, 0.0]
['beep', 0.0, 55.991119860544195, 0.0, 0.0, 0.0, 0.0, 7225.939002745034, 0.0]
['beep', 0.0, 56.23698904955257, 0.0, 0.0, 0.0, 0.0, 7227.86125276819, 0.0]
['beep', 0.0, 55.074698337876605, 0.0, 0.0, 0.0, 0.0, 7231.035200480843, 0.0]
['beep', 0.0, 53.73359367055818, 0.0, 0.0, 0.0, 0.0, 7230.141130702631, 0.0]
['beep', 0.0, 54.605311704315156, 0.0, 0.0, 0.0, 0.0, 7228.487101612938, 0.0]
['beep', 0.0, 52.5265994699716, 0.0, 0.0, 0.0, 0.0, 7229.202357435508, 0.0]
['beep', 0.0, 49.933797113155975, 0.0, 0.0, 0.0, 0.0, 7228.755322546402, 0.0]
['beep', 0.0, 49.30794826840738, 0.0, 0.0, 0.0, 0.0, 7228.151825446109, 0.0]
['beep', 0.0, 47.810381389901806, 0.0, 0.0, 0.0, 0.0, 7227.503624856905, 0.0]
['beep', 0.0, 47.92214011217834, 0.0, 0.0, 0.0, 0.0, 7227.816549279279, 0.0]
['beep', 0.0, 49.82203839087944, 0.0, 0.0, 0.0, 0.0, 7226.967182989977, 0.0]
['beep', 0.0, 49.0397273349437, 0.0, 0.0, 0.0, 0.0, 7228.375342890661, 0.0]
['beep', 0.0, 46.11164881129847, 0.0, 0.0, 0.0, 0.0, 7230.208185935997, 0.0]
['beep', 0.0, 46.961015100600136, 0.0, 0.0, 0.0, 0.0, 7228.57650859076, 0.0]
['beep', 0.0, 49.82203839087944, 0.0, 0.0, 0.0, 0.0, 7229.135302202142, 0.0]
['beep', 0.0, 48.36917500128448, 0.0, 0.0, 0.0, 0.0, 7228.598860335214, 0.0]
['beep', 0.0, 46.446924978128074, 0.0, 0.0, 0.0, 0.0, 7227.14599694562, 0.0]
['beep', 0.0, 45.68696566664764, 0.0, 0.0, 0.0, 0.0, 7228.5318051018485, 0.0]
['beep', 0.0, 45.61991043328172, 0.0, 0.0, 0.0, 0.0, 7227.973011490466, 0.0]
['beep', 0.0, 47.31864301188505, 0.0, 0.0, 0.0, 0.0, 7224.687305055536, 0.0]
['beep', 0.0, 47.63156743425935, 0.0, 0.0, 0.0, 0.0, 7226.184871934041, 0.0]
['beep', 0.0, 46.64809067822584, 0.0, 0.0, 0.0, 0.0, 7228.688267313036, 0.0]
['beep', 0.0, 46.06694532238786, 0.0, 0.0, 0.0, 0.0, 7228.129473701653, 0.0]
['beep', 0.0, 44.54702669942698, 0.0, 0.0, 0.0, 0.0, 7227.5930318347255, 0.0]
['beep', 0.0, 46.223407533575006, 0.0, 0.0, 0.0, 0.0, 7226.967182989977, 0.0]
['beep', 0.0, 46.58103544485992, 0.0, 0.0, 0.0, 0.0, 7227.9059562571, 0.0]
['beep', 0.0, 44.6140819327929, 0.0, 0.0, 0.0, 0.0, 7229.403523135606, 0.0]
['beep', 0.0, 44.457619721605745, 0.0, 0.0, 0.0, 0.0, 7229.694095813525, 0.0]
['beep', 0.0, 45.374041244273336, 0.0, 0.0, 0.0, 0.0, 7228.911784757589, 0.0]
['beep', 0.0, 45.642262177737024, 0.0, 0.0, 0.0, 0.0, 7229.537633602337, 0.0]
['beep', 0.0, 46.446924978128074, 0.0, 0.0, 0.0, 0.0, 7229.38117139115, 0.0]
['beep', 0.0, 44.569378443882286, 0.0, 0.0, 0.0, 0.0, 7229.023543479865, 0.0]
['beep', 0.0, 44.122343554776144, 0.0, 0.0, 0.0, 0.0, 7228.285935912841, 0.0]
['beep', 0.0, 44.74819239952474, 0.0, 0.0, 0.0, 0.0, 7229.4705783689715, 0.0]
['beep', 0.0, 45.75402090001356, 0.0, 0.0, 0.0, 0.0, 7229.984668491444, 0.0]
['beep', 0.0, 46.73749765604707, 0.0, 0.0, 0.0, 0.0, 7231.996325492421, 0.0]
['beep', 0.0, 47.00571858951075, 0.0, 0.0, 0.0, 0.0, 7231.258717925396, 0.0]
['beep', 0.0, 45.441096477639256, 0.0, 0.0, 0.0, 0.0, 7231.079903969754, 0.0]
['beep', 0.0, 45.79872438892417, 0.0, 0.0, 0.0, 0.0, 7235.796122049824, 0.0]
['beep', 0.0, 48.19036104564203, 0.0, 0.0, 0.0, 0.0, 7235.125569716164, 0.0]
['beep', 0.0, 48.70445116811409, 0.0, 0.0, 0.0, 0.0, 7234.119741215675, 0.0]
['beep', 0.0, 48.54798895692694, 0.0, 0.0, 0.0, 0.0, 7235.438494138539, 0.0]
['beep', 0.0, 46.53633195594931, 0.0, 0.0, 0.0, 0.0, 7236.019639494377, 0.0]
['beep', 0.0, 47.1398290562426, 0.0, 0.0, 0.0, 0.0, 7234.611479593692, 0.0]
['beep', 0.0, 49.48676222404983, 0.0, 0.0, 0.0, 0.0, 7232.108084214698, 0.0]
['beep', 0.0, 50.13496281325374, 0.0, 0.0, 0.0, 0.0, 7232.868043526179, 0.0]
['beep', 0.0, 48.54798895692694, 0.0, 0.0, 0.0, 0.0, 7231.705752814502, 0.0]
['beep', 0.0, 48.212712790097335, 0.0, 0.0, 0.0, 0.0, 7233.382133648651, 0.0]
['beep', 0.0, 48.480933723561016, 0.0, 0.0, 0.0, 0.0, 7234.723238315969, 0.0]
['beep', 0.0, 49.933797113155975, 0.0, 0.0, 0.0, 0.0, 7234.075037726765, 0.0]
['beep', 0.0, 50.93962561364479, 0.0, 0.0, 0.0, 0.0, 7232.689229570536, 0.0]
['beep', 0.0, 50.87257038027887, 0.0, 0.0, 0.0, 0.0, 7231.571642347771, 0.0]
['beep', 0.0, 48.145657556731415, 0.0, 0.0, 0.0, 0.0, 7232.041028981332, 0.0]
['beep', 0.0, 49.01737559048839, 0.0, 0.0, 0.0, 0.0, 7232.733933059447, 0.0]
['beep', 0.0, 50.783163402457646, 0.0, 0.0, 0.0, 0.0, 7231.303421414307, 0.0]
['beep', 0.0, 52.12426806977607, 0.0, 0.0, 0.0, 0.0, 7228.777674290857, 0.0]
['beep', 0.0, 50.42553549117273, 0.0, 0.0, 0.0, 0.0, 7230.47640686946, 0.0]
['beep', 0.0, 50.60434944681519, 0.0, 0.0, 0.0, 0.0, 7231.437531881039, 0.0]
['beep', 0.0, 50.24672153553028, 0.0, 0.0, 0.0, 0.0, 7232.152787703609, 0.0]
['beep', 0.0, 51.5878262028487, 0.0, 0.0, 0.0, 0.0, 7229.247060924418, 0.0]
['beep', 0.0, 53.443020992639184, 0.0, 0.0, 0.0, 0.0, 7228.755322546402, 0.0]
['beep', 0.0, 53.13009657026489, 0.0, 0.0, 0.0, 0.0, 7229.403523135606, 0.0]
['beep', 0.0, 52.81717214789059, 0.0, 0.0, 0.0, 0.0, 7232.599822592714, 0.0]
['beep', 0.0, 53.375965759273264, 0.0, 0.0, 0.0, 0.0, 7230.834034780745, 0.0]
['beep', 0.0, 55.90171288272296, 0.0, 0.0, 0.0, 0.0, 7229.224709179964, 0.0]
['beep', 0.0, 57.80161116142406, 0.0, 0.0, 0.0, 0.0, 7229.157653946598, 0.0]
['beep', 0.0, 58.114535583798364, 0.0, 0.0, 0.0, 0.0, 7230.208185935997, 0.0]
['beep', 0.0, 56.88518963875647, 0.0, 0.0, 0.0, 0.0, 7230.744627802924, 0.0]
['beep', 0.0, 56.50520998301626, 0.0, 0.0, 0.0, 0.0, 7231.079903969754, 0.0]
['beep', 0.0, 58.315701283896125, 0.0, 0.0, 0.0, 0.0, 7230.141130702631, 0.0]
['beep', 0.0, 59.433288506661476, 0.0, 0.0, 0.0, 0.0, 7230.923441758567, 0.0]
['beep', 0.0, 58.8744948952788, 0.0, 0.0, 0.0, 0.0, 7229.872909769168, 0.0]
['beep', 0.0, 58.315701283896125, 0.0, 0.0, 0.0, 0.0, 7228.442398124028, 0.0]
['beep', 0.0, 58.29334953944082, 0.0, 0.0, 0.0, 0.0, 7228.5318051018485, 0.0]
['beep', 0.0, 59.67915769566986, 0.0, 0.0, 0.0, 0.0, 7228.598860335214, 0.0]
['beep', 0.0, 60.46146875160561, 0.0, 0.0, 0.0, 0.0, 7226.43074112305, 0.0]
['beep', 0.0, 59.768564673491085, 0.0, 0.0, 0.0, 0.0, 7226.833072523245, 0.0]
['beep', 0.0, 59.1874193176531, 0.0, 0.0, 0.0, 0.0, 7227.458921367994, 0.0]
['beep', 0.0, 58.919198384189414, 0.0, 0.0, 0.0, 0.0, 7229.5823370912485, 0.0]
['beep', 0.0, 61.48964899654973, 0.0, 0.0, 0.0, 0.0, 7227.324810901262, 0.0]
['beep', 0.0, 62.0260908634771, 0.0, 0.0, 0.0, 0.0, 7227.548328345815, 0.0]
['beep', 0.0, 60.95320712962236, 0.0, 0.0, 0.0, 0.0, 7229.805854535802, 0.0]
['beep', 0.0, 59.79091641794639, 0.0, 0.0, 0.0, 0.0, 7226.698962056514, 0.0]
['beep', 0.0, 59.94737862913354, 0.0, 0.0, 0.0, 0.0, 7225.916651000578, 0.0]
['beep', 0.0, 60.19324781814192, 0.0, 0.0, 0.0, 0.0, 7224.5978980777145, 0.0]
['beep', 0.0, 60.66263445170337, 0.0, 0.0, 0.0, 0.0, 7224.150863188608, 0.0]
['beep', 0.0, 60.17089607368661, 0.0, 0.0, 0.0, 0.0, 7226.251927167407, 0.0]
['beep', 0.0, 60.19324781814192, 0.0, 0.0, 0.0, 0.0, 7226.251927167407, 0.0]
['beep', 0.0, 60.99791061853298, 0.0, 0.0, 0.0, 0.0, 7222.988572476933, 0.0]
['beep', 0.0, 61.86962865228995, 0.0, 0.0, 0.0, 0.0, 7220.641639309125, 0.0]
['beep', 0.0, 62.69664319713631, 0.0, 0.0, 0.0, 0.0, 7221.33454338724, 0.0]
['beep', 0.0, 62.271960052485476, 0.0, 0.0, 0.0, 0.0, 7222.139206187631, 0.0]
['beep', 0.0, 59.99208211804416, 0.0, 0.0, 0.0, 0.0, 7221.759226531891, 0.0]
['beep', 0.0, 59.65680595121455, 0.0, 0.0, 0.0, 0.0, 7221.200432920508, 0.0]
['beep', 0.0, 61.82492516337933, 0.0, 0.0, 0.0, 0.0, 7218.741741030424, 0.0]
['beep', 0.0, 62.11549784129833, 0.0, 0.0, 0.0, 0.0, 7217.758264274391, 0.0]
['beep', 0.0, 62.31666354139609, 0.0, 0.0, 0.0, 0.0, 7218.652334052603, 0.0]
['beep', 0.0, 61.422593763183805, 0.0, 0.0, 0.0, 0.0, 7215.679552040047, 0.0]
['beep', 0.0, 62.003739119021795, 0.0, 0.0, 0.0, 0.0, 7215.768959017869, 0.0]
['beep', 0.0, 62.6519397082257, 0.0, 0.0, 0.0, 0.0, 7214.80783400629, 0.0]
['beep', 0.0, 62.674291452681004, 0.0, 0.0, 0.0, 0.0, 7212.773825260857, 0.0]
['beep', 0.0, 62.16020133020894, 0.0, 0.0, 0.0, 0.0, 7212.729121771947, 0.0]
['beep', 0.0, 61.13202108526482, 0.0, 0.0, 0.0, 0.0, 7213.824357250257, 0.0]
['beep', 0.0, 60.819096662890516, 0.0, 0.0, 0.0, 0.0, 7214.159633417086, 0.0]
['beep', 0.0, 62.56253273040447, 0.0, 0.0, 0.0, 0.0, 7211.969162460467, 0.0]
['beep', 0.0, 63.36719553079552, 0.0, 0.0, 0.0, 0.0, 7211.075092682254, 0.0]
['beep', 0.0, 61.10966934080951, 0.0, 0.0, 0.0, 0.0, 7211.008037448888, 0.0]
['beep', 0.0, 59.433288506661476, 0.0, 0.0, 0.0, 0.0, 7211.432720593539, 0.0]
['beep', 0.0, 59.45564025111678, 0.0, 0.0, 0.0, 0.0, 7209.197546148008, 0.0]
['beep', 0.0, 60.39441351823968, 0.0, 0.0, 0.0, 0.0, 7208.5716973032595, 0.0]
['beep', 0.0, 61.51200074100504, 0.0, 0.0, 0.0, 0.0, 7209.66693278157, 0.0]
['beep', 0.0, 61.33318678536258, 0.0, 0.0, 0.0, 0.0, 7209.778691503846, 0.0]
['beep', 0.0, 59.74621292903578, 0.0, 0.0, 0.0, 0.0, 7208.795214747813, 0.0]
['beep', 0.0, 60.26030305150784, 0.0, 0.0, 0.0, 0.0, 7206.671799024559, 0.0]
['beep', 0.0, 63.03191936396592, 0.0, 0.0, 0.0, 0.0, 7204.593086790215, 0.0]
['beep', 0.0, 62.942512386144685, 0.0, 0.0, 0.0, 0.0, 7205.71067401298, 0.0]
['beep', 0.0, 61.355538529817885, 0.0, 0.0, 0.0, 0.0, 7206.537688557826, 0.0]
['beep', 0.0, 60.550875729426835, 0.0, 0.0, 0.0, 0.0, 7208.102310669698, 0.0]
['beep', 0.0, 59.12036408428718, 0.0, 0.0, 0.0, 0.0, 7208.5716973032595, 0.0]
['beep', 0.0, 60.46146875160561, 0.0, 0.0, 0.0, 0.0, 7206.157708902087, 0.0]
['beep', 0.0, 59.92502688467823, 0.0, 0.0, 0.0, 0.0, 7203.028464678343, 0.0]
['beep', 0.0, 59.098012339831875, 0.0, 0.0, 0.0, 0.0, 7203.944886201011, 0.0]
['beep', 0.0, 58.58392221735981, 0.0, 0.0, 0.0, 0.0, 7202.693188511514, 0.0]
['beep', 0.0, 58.963901873100035, 0.0, 0.0, 0.0, 0.0, 7202.872002467157, 0.0]
['beep', 0.0, 59.88032339576762, 0.0, 0.0, 0.0, 0.0, 7202.536726300326, 0.0]
['beep', 0.0, 59.299178039929636, 0.0, 0.0, 0.0, 0.0, 7203.564906545271, 0.0]
['beep', 0.0, 58.67332919518104, 0.0, 0.0, 0.0, 0.0, 7203.497851311905, 0.0]
['beep', 0.0, 57.75690767251345, 0.0, 0.0, 0.0, 0.0, 7204.324865856751, 0.0]
['beep', 0.0, 57.24281755004139, 0.0, 0.0, 0.0, 0.0, 7203.654313523092, 0.0]
['beep', 0.0, 58.315701283896125, 0.0, 0.0, 0.0, 0.0, 7202.357912344684, 0.0]
['beep', 0.0, 59.098012339831875, 0.0, 0.0, 0.0, 0.0, 7201.799118733302, 0.0]
['beep', 0.0, 57.68985243914753, 0.0, 0.0, 0.0, 0.0, 7202.268505366863, 0.0]
['beep', 0.0, 55.611140204803974, 0.0, 0.0, 0.0, 0.0, 7203.162575145076, 0.0]
['beep', 0.0, 54.69471868213638, 0.0, 0.0, 0.0, 0.0, 7201.843822222212, 0.0]
['beep', 0.0, 56.84048614984586, 0.0, 0.0, 0.0, 0.0, 7201.262676866374, 0.0]
['beep', 0.0, 59.00860536201065, 0.0, 0.0, 0.0, 0.0, 7206.38122634664, 0.0]
['beep', 0.0, 57.82396290587937, 0.0, 0.0, 0.0, 0.0, 7208.437586836528, 0.0]
['beep', 0.0, 57.35457627231792, 0.0, 0.0, 0.0, 0.0, 7197.820508220257, 0.0]
['beep', 0.0, 57.30987278340731, 0.0, 0.0, 0.0, 0.0, 7199.787461732324, 0.0]
['beep', 0.0, 57.9357216281559, 0.0, 0.0, 0.0, 0.0, 7196.680569253036, 0.0]
['beep', 0.0, 58.13688732825367, 0.0, 0.0, 0.0, 0.0, 7199.452185565494, 0.0]
['beep', 0.0, 55.52173322698275, 0.0, 0.0, 0.0, 0.0, 7203.028464678343, 0.0]
['beep', 0.0, 53.152448314720196, 0.0, 0.0, 0.0, 0.0, 7196.859383208679, 0.0]
['beep', 0.0, 53.93475937065594, 0.0, 0.0, 0.0, 0.0, 7196.837031464223, 0.0]
['beep', 0.0, 54.47120123758331, 0.0, 0.0, 0.0, 0.0, 7197.574639031249, 0.0]
['beep', 0.0, 54.91823612668945, 0.0, 0.0, 0.0, 0.0, 7197.37347333115, 0.0]
['beep', 0.0, 54.51590472649393, 0.0, 0.0, 0.0, 0.0, 7198.401653576095, 0.0]
['beep', 0.0, 53.823000648379406, 0.0, 0.0, 0.0, 0.0, 7197.306418097784, 0.0]
['beep', 0.0, 52.92893087016712, 0.0, 0.0, 0.0, 0.0, 7195.697092497003, 0.0]
['beep', 0.0, 53.554779714915725, 0.0, 0.0, 0.0, 0.0, 7196.9487901864995, 0.0]
['beep', 0.0, 54.18062855966432, 0.0, 0.0, 0.0, 0.0, 7198.245191364907, 0.0]
['beep', 0.0, 54.00181460402187, 0.0, 0.0, 0.0, 0.0, 7199.362778587673, 0.0]
['beep', 0.0, 51.65488143621462, 0.0, 0.0, 0.0, 0.0, 7195.384168074628, 0.0]
['beep', 0.0, 50.783163402457646, 0.0, 0.0, 0.0, 0.0, 7195.272409352352, 0.0]
['beep', 0.0, 52.571302958882214, 0.0, 0.0, 0.0, 0.0, 7195.272409352352, 0.0]
['beep', 0.0, 53.21950354808612, 0.0, 0.0, 0.0, 0.0, 7191.696130239503, 0.0]
['beep', 0.0, 51.02903259146603, 0.0, 0.0, 0.0, 0.0, 7194.04306340731, 0.0]
['beep', 0.0, 49.933797113155975, 0.0, 0.0, 0.0, 0.0, 7192.858420951178, 0.0]
['beep', 0.0, 49.41970699068391, 0.0, 0.0, 0.0, 0.0, 7193.439566307016, 0.0]
['beep', 0.0, 49.866741879790055, 0.0, 0.0, 0.0, 0.0, 7196.077072152743, 0.0]
['beep', 0.0, 51.81134364740177, 0.0, 0.0, 0.0, 0.0, 7193.238400606919, 0.0]
['beep', 0.0, 50.29142502444089, 0.0, 0.0, 0.0, 0.0, 7192.925476184545, 0.0]
['beep', 0.0, 49.44205873513922, 0.0, 0.0, 0.0, 0.0, 7195.764147730369, 0.0]
['beep', 0.0, 52.034861091954845, 0.0, 0.0, 0.0, 0.0, 7193.596028518204, 0.0]
['beep', 0.0, 52.99598610353305, 0.0, 0.0, 0.0, 0.0, 7190.600894761193, 0.0]
['beep', 0.0, 53.823000648379406, 0.0, 0.0, 0.0, 0.0, 7189.907990683078, 0.0]
['beep', 0.0, 52.54895121442691, 0.0, 0.0, 0.0, 0.0, 7190.08680463872, 0.0]
['beep', 0.0, 50.3137767688962, 0.0, 0.0, 0.0, 0.0, 7193.528973284838, 0.0]
['beep', 0.0, 48.70445116811409, 0.0, 0.0, 0.0, 0.0, 7193.3725110736505, 0.0]
['beep', 0.0, 49.3750035017733, 0.0, 0.0, 0.0, 0.0, 7190.735005227924, 0.0]
['beep', 0.0, 49.799686646424135, 0.0, 0.0, 0.0, 0.0, 7188.566886015759, 0.0]
['beep', 0.0, 48.70445116811409, 0.0, 0.0, 0.0, 0.0, 7190.466784294461, 0.0]
['beep', 0.0, 48.950320357122465, 0.0, 0.0, 0.0, 0.0, 7193.014883162366, 0.0]
['beep', 0.0, 49.15148605722023, 0.0, 0.0, 0.0, 0.0, 7191.1373366281205, 0.0]
['beep', 0.0, 50.9619773581001, 0.0, 0.0, 0.0, 0.0, 7188.857458693678, 0.0]
['beep', 0.0, 51.319605269385015, 0.0, 0.0, 0.0, 0.0, 7187.5610575152705, 0.0]
['beep', 0.0, 51.498419225027476, 0.0, 0.0, 0.0, 0.0, 7188.432775549028, 0.0]
['beep', 0.0, 51.14079131374256, 0.0, 0.0, 0.0, 0.0, 7191.070281394754, 0.0]
['beep', 0.0, 51.386660502750935, 0.0, 0.0, 0.0, 0.0, 7190.75735697238, 0.0]
['beep', 0.0, 53.21950354808612, 0.0, 0.0, 0.0, 0.0, 7188.678644738036, 0.0]
['beep', 0.0, 52.72776517006936, 0.0, 0.0, 0.0, 0.0, 7188.008092404377, 0.0]
['beep', 0.0, 51.47606748057216, 0.0, 0.0, 0.0, 0.0, 7189.237438349419, 0.0]
['beep', 0.0, 50.470238980083344, 0.0, 0.0, 0.0, 0.0, 7187.449298792994, 0.0]
['beep', 0.0, 50.02320409097721, 0.0, 0.0, 0.0, 0.0, 7185.012958647366, 0.0]
['beep', 0.0, 50.73845991354703, 0.0, 0.0, 0.0, 0.0, 7184.878848180634, 0.0]
['beep', 0.0, 50.93962561364479, 0.0, 0.0, 0.0, 0.0, 7186.42111854805, 0.0]
['beep', 0.0, 49.64322443523699, 0.0, 0.0, 0.0, 0.0, 7186.75639471488, 0.0]
['beep', 0.0, 48.19036104564203, 0.0, 0.0, 0.0, 0.0, 7185.996435403399, 0.0]
['beep', 0.0, 49.531465712960454, 0.0, 0.0, 0.0, 0.0, 7187.829278448735, 0.0]
['beep', 0.0, 50.42553549117273, 0.0, 0.0, 0.0, 0.0, 7186.197601103498, 0.0]
['beep', 0.0, 50.24672153553028, 0.0, 0.0, 0.0, 0.0, 7181.928417912533, 0.0]
['beep', 0.0, 50.42553549117273, 0.0, 0.0, 0.0, 0.0, 7179.492077766905, 0.0]
['beep', 0.0, 47.20688428960852, 0.0, 0.0, 0.0, 0.0, 7182.42015629055, 0.0]
['beep', 0.0, 47.810381389901806, 0.0, 0.0, 0.0, 0.0, 7183.046005135299, 0.0]
['beep', 0.0, 49.531465712960454, 0.0, 0.0, 0.0, 0.0, 7182.710728968469, 0.0]
['beep', 0.0, 49.933797113155975, 0.0, 0.0, 0.0, 0.0, 7179.603836489182, 0.0]
['beep', 0.0, 48.70445116811409, 0.0, 0.0, 0.0, 0.0, 7178.665063222059, 0.0]
['beep', 0.0, 47.18453254515321, 0.0, 0.0, 0.0, 0.0, 7177.480420765927, 0.0]
['beep', 0.0, 48.12330581227611, 0.0, 0.0, 0.0, 0.0, 7179.313263811263, 0.0]
['beep', 0.0, 49.6879279241476, 0.0, 0.0, 0.0, 0.0, 7180.363795800662, 0.0]
['beep', 0.0, 49.77733490196883, 0.0, 0.0, 0.0, 0.0, 7178.1062696106765, 0.0]
['beep', 0.0, 46.73749765604707, 0.0, 0.0, 0.0, 0.0, 7179.670891722548, 0.0]
['beep', 0.0, 45.46344822209456, 0.0, 0.0, 0.0, 0.0, 7177.70393821048, 0.0]
['beep', 0.0, 46.24575927803031, 0.0, 0.0, 0.0, 0.0, 7176.161667843065, 0.0]
['beep', 0.0, 47.229236034063824, 0.0, 0.0, 0.0, 0.0, 7174.597045731193, 0.0]
['beep', 0.0, 47.542160456438125, 0.0, 0.0, 0.0, 0.0, 7176.988682387911, 0.0]
['beep', 0.0, 47.89978836772303, 0.0, 0.0, 0.0, 0.0, 7179.894409167101, 0.0]
['beep', 0.0, 46.93866335614483, 0.0, 0.0, 0.0, 0.0, 7179.939112656011, 0.0]
['beep', 0.0, 46.71514591159176, 0.0, 0.0, 0.0, 0.0, 7178.352138799684, 0.0]
['beep', 0.0, 46.961015100600136, 0.0, 0.0, 0.0, 0.0, 7176.899275410089, 0.0]
['beep', 0.0, 46.04459357793255, 0.0, 0.0, 0.0, 0.0, 7175.200542831486, 0.0]
['beep', 0.0, 45.19522728863088, 0.0, 0.0, 0.0, 0.0, 7177.145144599098, 0.0]
['beep', 0.0, 43.60825343230408, 0.0, 0.0, 0.0, 0.0, 7179.4026707890835, 0.0]
['beep', 0.0, 43.67530866567, 0.0, 0.0, 0.0, 0.0, 7177.435717277017, 0.0]
['beep', 0.0, 44.50232321051636, 0.0, 0.0, 0.0, 0.0, 7176.072260865243, 0.0]
['beep', 0.0, 46.42457323367277, 0.0, 0.0, 0.0, 0.0, 7177.100441110188, 0.0]
['beep', 0.0, 45.99989008902193, 0.0, 0.0, 0.0, 0.0, 7176.541647498804, 0.0]
['beep', 0.0, 44.189398788142064, 0.0, 0.0, 0.0, 0.0, 7176.899275410089, 0.0]
['beep', 0.0, 45.239930777541495, 0.0, 0.0, 0.0, 0.0, 7175.781688187324, 0.0]
['beep', 0.0, 47.162180800697904, 0.0, 0.0, 0.0, 0.0, 7177.27925506583, 0.0]
['beep', 0.0, 47.56451220089343, 0.0, 0.0, 0.0, 0.0, 7176.675757965536, 0.0]
['beep', 0.0, 47.58686394534874, 0.0, 0.0, 0.0, 0.0, 7176.765164943357, 0.0]
['beep', 0.0, 46.2010557891197, 0.0, 0.0, 0.0, 0.0, 7177.502772510383, 0.0]
['beep', 0.0, 45.8881313667454, 0.0, 0.0, 0.0, 0.0, 7180.252037078386, 0.0]
['beep', 0.0, 46.33516625585154, 0.0, 0.0, 0.0, 0.0, 7178.128621355131, 0.0]
['beep', 0.0, 47.743326156535886, 0.0, 0.0, 0.0, 0.0, 7173.255941063874, 0.0]
['beep', 0.0, 47.65391917871466, 0.0, 0.0, 0.0, 0.0, 7177.882752166123, 0.0]
['beep', 0.0, 47.25158777851913, 0.0, 0.0, 0.0, 0.0, 7180.98964464541, 0.0]
['beep', 0.0, 45.19522728863088, 0.0, 0.0, 0.0, 0.0, 7178.687414966514, 0.0]
['beep', 0.0, 47.85508487881242, 0.0, 0.0, 0.0, 0.0, 7176.899275410089, 0.0]
['beep', 0.0, 48.57034070138225, 0.0, 0.0, 0.0, 0.0, 7179.894409167101, 0.0]
['beep', 0.0, 47.00571858951075, 0.0, 0.0, 0.0, 0.0, 7179.715595211458, 0.0]
['beep', 0.0, 45.508151711005176, 0.0, 0.0, 0.0, 0.0, 7178.508601010872, 0.0]
['beep', 0.0, 43.96588134358899, 0.0, 0.0, 0.0, 0.0, 7179.447374277995, 0.0]
['beep', 0.0, 45.75402090001356, 0.0, 0.0, 0.0, 0.0, 7179.08974636671, 0.0]
['beep', 0.0, 45.95518660011132, 0.0, 0.0, 0.0, 0.0, 7179.290912066807, 0.0]
['beep', 0.0, 46.35751800030685, 0.0, 0.0, 0.0, 0.0, 7178.843877177701, 0.0]
['beep', 0.0, 46.60338718931523, 0.0, 0.0, 0.0, 0.0, 7178.620359733148, 0.0]
['beep', 0.0, 46.35751800030685, 0.0, 0.0, 0.0, 0.0, 7177.838048677212, 0.0]
['beep', 0.0, 47.02807033396606, 0.0, 0.0, 0.0, 0.0, 7178.329787055229, 0.0]
['beep', 0.0, 48.23506453455264, 0.0, 0.0, 0.0, 0.0, 7177.905103910578, 0.0]
['beep', 0.0, 47.810381389901806, 0.0, 0.0, 0.0, 0.0, 7177.27925506583, 0.0]
['beep', 0.0, 45.86577962229009, 0.0, 0.0, 0.0, 0.0, 7180.252037078386, 0.0]
['beep', 0.0, 46.37986974476215, 0.0, 0.0, 0.0, 0.0, 7180.475554522938, 0.0]
['beep', 0.0, 47.40804998970628, 0.0, 0.0, 0.0, 0.0, 7179.80500218928, 0.0]
['beep', 0.0, 49.01737559048839, 0.0, 0.0, 0.0, 0.0, 7177.189848088008, 0.0]
['beep', 0.0, 47.58686394534874, 0.0, 0.0, 0.0, 0.0, 7176.474592265438, 0.0]
['beep', 0.0, 45.39639298872864, 0.0, 0.0, 0.0, 0.0, 7177.614531232659, 0.0]
['beep', 0.0, 44.16704704368676, 0.0, 0.0, 0.0, 0.0, 7177.011034132366, 0.0]
['beep', 0.0, 46.26811102248562, 0.0, 0.0, 0.0, 0.0, 7177.793345188302, 0.0]
['beep', 0.0, 47.38569824525097, 0.0, 0.0, 0.0, 0.0, 7176.765164943357, 0.0]
['beep', 0.0, 47.02807033396606, 0.0, 0.0, 0.0, 0.0, 7178.977987644433, 0.0]
['beep', 0.0, 46.24575927803031, 0.0, 0.0, 0.0, 0.0, 7181.011996389866, 0.0]
['beep', 0.0, 45.79872438892417, 0.0, 0.0, 0.0, 0.0, 7179.648539978092, 0.0]
['beep', 0.0, 48.05625057891019, 0.0, 0.0, 0.0, 0.0, 7178.016862632855, 0.0]
['beep', 0.0, 48.86091337930124, 0.0, 0.0, 0.0, 0.0, 7178.620359733148, 0.0]
['beep', 0.0, 48.90561686821185, 0.0, 0.0, 0.0, 0.0, 7177.70393821048, 0.0]
['beep', 0.0, 47.58686394534874, 0.0, 0.0, 0.0, 0.0, 7179.961464400467, 0.0]
['beep', 0.0, 47.87743662326773, 0.0, 0.0, 0.0, 0.0, 7177.905103910578, 0.0]
['beep', 0.0, 49.41970699068391, 0.0, 0.0, 0.0, 0.0, 7177.480420765927, 0.0]
['beep', 0.0, 50.850218635823566, 0.0, 0.0, 0.0, 0.0, 7179.179153344531, 0.0]
['beep', 0.0, 49.97850060206659, 0.0, 0.0, 0.0, 0.0, 7179.13444985562, 0.0]
['beep', 0.0, 47.92214011217834, 0.0, 0.0, 0.0, 0.0, 7178.240380077408, 0.0]
['beep', 0.0, 47.966843601088954, 0.0, 0.0, 0.0, 0.0, 7177.726289954936, 0.0]
['beep', 0.0, 50.17966630216436, 0.0, 0.0, 0.0, 0.0, 7174.8205631757455, 0.0]
['beep', 0.0, 49.77733490196883, 0.0, 0.0, 0.0, 0.0, 7174.574693986738, 0.0]
['beep', 0.0, 48.749154657024704, 0.0, 0.0, 0.0, 0.0, 7176.184019587519, 0.0]
['beep', 0.0, 47.05042207842137, 0.0, 0.0, 0.0, 0.0, 7178.128621355131, 0.0]
['beep', 0.0, 46.156352300209086, 0.0, 0.0, 0.0, 0.0, 7178.352138799684, 0.0]
['beep', 0.0, 48.413878490195096, 0.0, 0.0, 0.0, 0.0, 7176.094612609699, 0.0]
['beep', 0.0, 49.799686646424135, 0.0, 0.0, 0.0, 0.0, 7174.194714330997, 0.0]
['beep', 0.0, 50.514942468993965, 0.0, 0.0, 0.0, 0.0, 7174.999377131388, 0.0]
['beep', 0.0, 49.46441047959453, 0.0, 0.0, 0.0, 0.0, 7176.318130054251, 0.0]
['beep', 0.0, 49.41970699068391, 0.0, 0.0, 0.0, 0.0, 7177.726289954936, 0.0]
['beep', 0.0, 50.403183746717424, 0.0, 0.0, 0.0, 0.0, 7176.720461454447, 0.0]
['beep', 0.0, 49.57616920187107, 0.0, 0.0, 0.0, 0.0, 7175.982853887422, 0.0]
['beep', 0.0, 47.56451220089343, 0.0, 0.0, 0.0, 0.0, 7178.218028332953, 0.0]
['beep', 0.0, 49.24089303504146, 0.0, 0.0, 0.0, 0.0, 7178.2850835663185, 0.0]
['beep', 0.0, 53.86770413729002, 0.0, 0.0, 0.0, 0.0, 7181.794307445802, 0.0]
['beep', 0.0, 54.672366937681076, 0.0, 0.0, 0.0, 0.0, 7179.894409167101, 0.0]
['beep', 0.0, 51.5878262028487, 0.0, 0.0, 0.0, 0.0, 7179.80500218928, 0.0]
['beep', 0.0, 50.15731455770905, 0.0, 0.0, 0.0, 0.0, 7180.252037078386, 0.0]
['beep', 0.0, 49.08443082385431, 0.0, 0.0, 0.0, 0.0, 7179.335615555718, 0.0]
['beep', 0.0, 50.80551514691295, 0.0, 0.0, 0.0, 0.0, 7176.809868432269, 0.0]
['beep', 0.0, 52.12426806977607, 0.0, 0.0, 0.0, 0.0, 7177.793345188302, 0.0]
['beep', 0.0, 53.33126227036265, 0.0, 0.0, 0.0, 0.0, 7178.776821944335, 0.0]
['beep', 0.0, 52.370137258784446, 0.0, 0.0, 0.0, 0.0, 7178.821525433246, 0.0]
['beep', 0.0, 51.23019829156379, 0.0, 0.0, 0.0, 0.0, 7179.447374277995, 0.0]
['beep', 0.0, 53.26420703699673, 0.0, 0.0, 0.0, 0.0, 7178.2850835663185, 0.0]
['beep', 0.0, 54.02416634847717, 0.0, 0.0, 0.0, 0.0, 7177.592179488204, 0.0]
['beep', 0.0, 54.02416634847717, 0.0, 0.0, 0.0, 0.0, 7175.334653298218, 0.0]
['beep', 0.0, 53.53242797046042, 0.0, 0.0, 0.0, 0.0, 7174.999377131388, 0.0]
['beep', 0.0, 51.16314305819787, 0.0, 0.0, 0.0, 0.0, 7176.049909120788, 0.0]
['beep', 0.0, 51.07373608037664, 0.0, 0.0, 0.0, 0.0, 7178.016862632855, 0.0]
['beep', 0.0, 52.034861091954845, 0.0, 0.0, 0.0, 0.0, 7177.972159143944, 0.0]
['beep', 0.0, 54.51590472649393, 0.0, 0.0, 0.0, 0.0, 7177.301606810285, 0.0]
['beep', 0.0, 53.823000648379406, 0.0, 0.0, 0.0, 0.0, 7178.888580666612, 0.0]
['beep', 0.0, 50.69375642463642, 0.0, 0.0, 0.0, 0.0, 7178.709766710969, 0.0]
['beep', 0.0, 51.051384335921334, 0.0, 0.0, 0.0, 0.0, 7175.80403993178, 0.0]
['beep', 0.0, 51.923102369678304, 0.0, 0.0, 0.0, 0.0, 7176.899275410089, 0.0]
['beep', 0.0, 52.39248900323975, 0.0, 0.0, 0.0, 0.0, 7177.301606810285, 0.0]
['beep', 0.0, 51.319605269385015, 0.0, 0.0, 0.0, 0.0, 7177.145144599098, 0.0]
['beep', 0.0, 48.480933723561016, 0.0, 0.0, 0.0, 0.0, 7179.626188233637, 0.0]
['beep', 0.0, 48.25741627900795, 0.0, 0.0, 0.0, 0.0, 7180.296740567296, 0.0]
['beep', 0.0, 49.46441047959453, 0.0, 0.0, 0.0, 0.0, 7178.240380077408, 0.0]
['beep', 0.0, 48.90561686821185, 0.0, 0.0, 0.0, 0.0, 7175.8934469096, 0.0]
['beep', 0.0, 49.88909362424536, 0.0, 0.0, 0.0, 0.0, 7174.8205631757455, 0.0]
['beep', 0.0, 48.682099423658784, 0.0, 0.0, 0.0, 0.0, 7175.736984698414, 0.0]
['beep', 0.0, 47.07277382287668, 0.0, 0.0, 0.0, 0.0, 7178.329787055229, 0.0]
['beep', 0.0, 48.145657556731415, 0.0, 0.0, 0.0, 0.0, 7178.03921437731, 0.0]
['beep', 0.0, 49.330300012862686, 0.0, 0.0, 0.0, 0.0, 7175.714632953958, 0.0]
['beep', 0.0, 49.24089303504146, 0.0, 0.0, 0.0, 0.0, 7176.005205631877, 0.0]
['beep', 0.0, 48.77150640148001, 0.0, 0.0, 0.0, 0.0, 7176.988682387911, 0.0]
['beep', 0.0, 49.129134312764926, 0.0, 0.0, 0.0, 0.0, 7175.379356787129, 0.0]
['beep', 0.0, 50.02320409097721, 0.0, 0.0, 0.0, 0.0, 7174.686452709014, 0.0]
['beep', 0.0, 51.43136399166155, 0.0, 0.0, 0.0, 0.0, 7172.920664897045, 0.0]
['beep', 0.0, 50.20201804661966, 0.0, 0.0, 0.0, 0.0, 7173.144182341598, 0.0]
['beep', 0.0, 48.61504419029286, 0.0, 0.0, 0.0, 0.0, 7173.725327697436, 0.0]
['beep', 0.0, 48.97267210157777, 0.0, 0.0, 0.0, 0.0, 7174.217066075453, 0.0]
['beep', 0.0, 49.41970699068391, 0.0, 0.0, 0.0, 0.0, 7173.926493397534, 0.0]
['beep', 0.0, 51.051384335921334, 0.0, 0.0, 0.0, 0.0, 7173.770031186346, 0.0]
['beep', 0.0, 52.504247725516294, 0.0, 0.0, 0.0, 0.0, 7174.999377131388, 0.0]
['beep', 0.0, 51.83369539185708, 0.0, 0.0, 0.0, 0.0, 7174.775859686835, 0.0]
['beep', 0.0, 52.25837853650791, 0.0, 0.0, 0.0, 0.0, 7176.586350987715, 0.0]
['beep', 0.0, 53.33126227036265, 0.0, 0.0, 0.0, 0.0, 7177.614531232659, 0.0]
['beep', 0.0, 53.957111115111246, 0.0, 0.0, 0.0, 0.0, 7176.541647498804, 0.0]
['beep', 0.0, 52.236026792052606, 0.0, 0.0, 0.0, 0.0, 7174.708804453469, 0.0]
['beep', 0.0, 48.525637212471636, 0.0, 0.0, 0.0, 0.0, 7176.362833543162, 0.0]
['beep', 0.0, 47.72097441208058, 0.0, 0.0, 0.0, 0.0, 7174.75350794238, 0.0]
['beep', 0.0, 48.01154708999957, 0.0, 0.0, 0.0, 0.0, 7173.613568975159, 0.0]
['beep', 0.0, 48.50328546801632, 0.0, 0.0, 0.0, 0.0, 7173.814734675257, 0.0]
['beep', 0.0, 46.91631161168952, 0.0, 0.0, 0.0, 0.0, 7174.954673642478, 0.0]
['beep', 0.0, 45.79872438892417, 0.0, 0.0, 0.0, 0.0, 7176.2287230764305, 0.0]
['beep', 0.0, 45.441096477639256, 0.0, 0.0, 0.0, 0.0, 7174.865266664657, 0.0]
['beep', 0.0, 47.7880296454465, 0.0, 0.0, 0.0, 0.0, 7174.395880031095, 0.0]
['beep', 0.0, 47.89978836772303, 0.0, 0.0, 0.0, 0.0, 7172.875961408135, 0.0]
['beep', 0.0, 47.25158777851913, 0.0, 0.0, 0.0, 0.0, 7171.020766618343, 0.0]
['beep', 0.0, 46.24575927803031, 0.0, 0.0, 0.0, 0.0, 7175.602874231681, 0.0]
['beep', 0.0, 46.40222148921746, 0.0, 0.0, 0.0, 0.0, 7177.212199832464, 0.0]
['beep', 0.0, 48.57034070138225, 0.0, 0.0, 0.0, 0.0, 7176.631054476626, 0.0]
['beep', 0.0, 49.30794826840738, 0.0, 0.0, 0.0, 0.0, 7173.926493397534, 0.0]
['beep', 0.0, 49.799686646424135, 0.0, 0.0, 0.0, 0.0, 7171.870132907646, 0.0]
['beep', 0.0, 49.41970699068391, 0.0, 0.0, 0.0, 0.0, 7172.51833349685, 0.0]
['beep', 0.0, 49.46441047959453, 0.0, 0.0, 0.0, 0.0, 7173.881789908623, 0.0]
['beep', 0.0, 51.252550036019095, 0.0, 0.0, 0.0, 0.0, 7172.719499196947, 0.0]
['beep', 0.0, 51.252550036019095, 0.0, 0.0, 0.0, 0.0, 7175.871095165146, 0.0]
['beep', 0.0, 50.09025932434313, 0.0, 0.0, 0.0, 0.0, 7175.7593364428685, 0.0]
['beep', 0.0, 48.749154657024704, 0.0, 0.0, 0.0, 0.0, 7173.300644552785, 0.0]
['beep', 0.0, 49.531465712960454, 0.0, 0.0, 0.0, 0.0, 7173.948845141989, 0.0]
['beep', 0.0, 51.453715736116855, 0.0, 0.0, 0.0, 0.0, 7174.842914920201, 0.0]
['beep', 0.0, 51.900750625223, 0.0, 0.0, 0.0, 0.0, 7174.462935264461, 0.0]
['beep', 0.0, 52.25837853650791, 0.0, 0.0, 0.0, 0.0, 7172.339519541207, 0.0]
['beep', 0.0, 49.84439013533475, 0.0, 0.0, 0.0, 0.0, 7170.663138707058, 0.0]
['beep', 0.0, 49.62087269078168, 0.0, 0.0, 0.0, 0.0, 7172.920664897045, 0.0]
['beep', 0.0, 50.73845991354703, 0.0, 0.0, 0.0, 0.0, 7172.138353841109, 0.0]
['beep', 0.0, 51.87839888076769, 0.0, 0.0, 0.0, 0.0, 7171.870132907646, 0.0]
['beep', 0.0, 51.02903259146603, 0.0, 0.0, 0.0, 0.0, 7172.138353841109, 0.0]
['beep', 0.0, 50.38083200226212, 0.0, 0.0, 0.0, 0.0, 7171.758374185369, 0.0]
['beep', 0.0, 50.49259072453865, 0.0, 0.0, 0.0, 0.0, 7172.4736300079385, 0.0]
['beep', 0.0, 51.94545411413361, 0.0, 0.0, 0.0, 0.0, 7171.624263718637, 0.0]
['beep', 0.0, 51.47606748057216, 0.0, 0.0, 0.0, 0.0, 7170.864304407157, 0.0]
['beep', 0.0, 51.07373608037664, 0.0, 0.0, 0.0, 0.0, 7170.640786962604, 0.0]
['beep', 0.0, 50.20201804661966, 0.0, 0.0, 0.0, 0.0, 7169.4784962509275, 0.0]
['beep', 0.0, 50.514942468993965, 0.0, 0.0, 0.0, 0.0, 7171.333691040718, 0.0]
['beep', 0.0, 50.35848025780681, 0.0, 0.0, 0.0, 0.0, 7171.5348567408155, 0.0]
['beep', 0.0, 50.80551514691295, 0.0, 0.0, 0.0, 0.0, 7170.819600918246, 0.0]
['beep', 0.0, 49.57616920187107, 0.0, 0.0, 0.0, 0.0, 7169.053813106277, 0.0]
['beep', 0.0, 47.40804998970628, 0.0, 0.0, 0.0, 0.0, 7168.3609090281625, 0.0]
['beep', 0.0, 47.34099475634036, 0.0, 0.0, 0.0, 0.0, 7168.763240428358, 0.0]
['beep', 0.0, 49.0397273349437, 0.0, 0.0, 0.0, 0.0, 7168.003281116878, 0.0]
['beep', 0.0, 51.14079131374256, 0.0, 0.0, 0.0, 0.0, 7165.790458415802, 0.0]
['beep', 0.0, 50.49259072453865, 0.0, 0.0, 0.0, 0.0, 7167.779763672324, 0.0]
['beep', 0.0, 50.13496281325374, 0.0, 0.0, 0.0, 0.0, 7170.8866561516115, 0.0]
['beep', 0.0, 50.581997702359885, 0.0, 0.0, 0.0, 0.0, 7169.590254973204, 0.0]
['beep', 0.0, 51.498419225027476, 0.0, 0.0, 0.0, 0.0, 7171.713670696458, 0.0]
['beep', 0.0, 53.04068959244366, 0.0, 0.0, 0.0, 0.0, 7168.852647406179, 0.0]
['beep', 0.0, 52.01250934749954, 0.0, 0.0, 0.0, 0.0, 7168.22679856143, 0.0]
['beep', 0.0, 50.67140468018111, 0.0, 0.0, 0.0, 0.0, 7171.46780150745, 0.0]
['beep', 0.0, 51.923102369678304, 0.0, 0.0, 0.0, 0.0, 7171.914836396556, 0.0]
['beep', 0.0, 52.92893087016712, 0.0, 0.0, 0.0, 0.0, 7170.8866561516115, 0.0]
['beep', 0.0, 53.26420703699673, 0.0, 0.0, 0.0, 0.0, 7166.975100871933, 0.0]
['beep', 0.0, 53.51007622600511, 0.0, 0.0, 0.0, 0.0, 7166.215141560453, 0.0]
['beep', 0.0, 52.28073028096322, 0.0, 0.0, 0.0, 0.0, 7167.042156105299, 0.0]
['beep', 0.0, 50.917273869189486, 0.0, 0.0, 0.0, 0.0, 7166.70687993847, 0.0]
['beep', 0.0, 50.73845991354703, 0.0, 0.0, 0.0, 0.0, 7168.22679856143, 0.0]
['beep', 0.0, 51.319605269385015, 0.0, 0.0, 0.0, 0.0, 7167.533894483316, 0.0]
['beep', 0.0, 52.168971558686685, 0.0, 0.0, 0.0, 0.0, 7169.2996822952855, 0.0]
['beep', 0.0, 49.71027966860291, 0.0, 0.0, 0.0, 0.0, 7168.740888683902, 0.0]
['beep', 0.0, 48.413878490195096, 0.0, 0.0, 0.0, 0.0, 7169.165571828553, 0.0]
['beep', 0.0, 50.38083200226212, 0.0, 0.0, 0.0, 0.0, 7168.56207472826, 0.0]
['beep', 0.0, 50.93962561364479, 0.0, 0.0, 0.0, 0.0, 7165.209313059964, 0.0]
['beep', 0.0, 50.269073279985584, 0.0, 0.0, 0.0, 0.0, 7168.070336350243, 0.0]
['beep', 0.0, 49.0397273349437, 0.0, 0.0, 0.0, 0.0, 7168.316205539251, 0.0]
['beep', 0.0, 49.97850060206659, 0.0, 0.0, 0.0, 0.0, 7169.4784962509275, 0.0]
['beep', 0.0, 50.581997702359885, 0.0, 0.0, 0.0, 0.0, 7169.903179395578, 0.0]
['beep', 0.0, 50.13496281325374, 0.0, 0.0, 0.0, 0.0, 7169.903179395578, 0.0]
['beep', 0.0, 50.045555835432516, 0.0, 0.0, 0.0, 0.0, 7169.612606717659, 0.0]
['beep', 0.0, 48.65974767920348, 0.0, 0.0, 0.0, 0.0, 7168.56207472826, 0.0]
['beep', 0.0, 47.18453254515321, 0.0, 0.0, 0.0, 0.0, 7168.293853794797, 0.0]
['beep', 0.0, 47.27393952297444, 0.0, 0.0, 0.0, 0.0, 7169.500847995383, 0.0]
['beep', 0.0, 48.23506453455264, 0.0, 0.0, 0.0, 0.0, 7168.405612517073, 0.0]
['beep', 0.0, 46.893959867234216, 0.0, 0.0, 0.0, 0.0, 7167.6009497166815, 0.0]
['beep', 0.0, 46.625738933770535, 0.0, 0.0, 0.0, 0.0, 7167.51154273886, 0.0]
['beep', 0.0, 45.642262177737024, 0.0, 0.0, 0.0, 0.0, 7168.964406128455, 0.0]
['beep', 0.0, 46.8492563783236, 0.0, 0.0, 0.0, 0.0, 7168.22679856143, 0.0]
['beep', 0.0, 46.67044242268115, 0.0, 0.0, 0.0, 0.0, 7164.538760726305, 0.0]
['beep', 0.0, 46.80455288941299, 0.0, 0.0, 0.0, 0.0, 7165.812810160257, 0.0]
['beep', 0.0, 46.60338718931523, 0.0, 0.0, 0.0, 0.0, 7168.763240428358, 0.0]
['beep', 0.0, 45.19522728863088, 0.0, 0.0, 0.0, 0.0, 7170.819600918246, 0.0]
['beep', 0.0, 46.558683700404615, 0.0, 0.0, 0.0, 0.0, 7168.383260772617, 0.0]
['beep', 0.0, 46.87160812277891, 0.0, 0.0, 0.0, 0.0, 7168.115039839154, 0.0]
['beep', 0.0, 46.58103544485992, 0.0, 0.0, 0.0, 0.0, 7170.216103817953, 0.0]
['beep', 0.0, 46.93866335614483, 0.0, 0.0, 0.0, 0.0, 7169.433792762017, 0.0]
['beep', 0.0, 47.1398290562426, 0.0, 0.0, 0.0, 0.0, 7169.925531140034, 0.0]
['beep', 0.0, 47.40804998970628, 0.0, 0.0, 0.0, 0.0, 7170.551379984782, 0.0]
['beep', 0.0, 48.7268029125694, 0.0, 0.0, 0.0, 0.0, 7173.054775363777, 0.0]
['beep', 0.0, 48.525637212471636, 0.0, 0.0, 0.0, 0.0, 7174.5299904978265, 0.0]
['beep', 0.0, 47.00571858951075, 0.0, 0.0, 0.0, 0.0, 7175.826391676234, 0.0]
['beep', 0.0, 47.966843601088954, 0.0, 0.0, 0.0, 0.0, 7179.782650444824, 0.0]
['beep', 0.0, 49.50911396850515, 0.0, 0.0, 0.0, 0.0, 7182.353101057184, 0.0]
['beep', 0.0, 49.55381745741576, 0.0, 0.0, 0.0, 0.0, 7186.644635992603, 0.0]
['beep', 0.0, 48.03389883445488, 0.0, 0.0, 0.0, 0.0, 7189.125679627143, 0.0]
['beep', 0.0, 47.89978836772303, 0.0, 0.0, 0.0, 0.0, 7190.422080805551, 0.0]
['beep', 0.0, 48.25741627900795, 0.0, 0.0, 0.0, 0.0, 7191.629075006137, 0.0]
['beep', 0.0, 48.749154657024704, 0.0, 0.0, 0.0, 0.0, 7192.5454965288045, 0.0]
['beep', 0.0, 49.0397273349437, 0.0, 0.0, 0.0, 0.0, 7190.466784294461, 0.0]
['beep', 0.0, 48.97267210157777, 0.0, 0.0, 0.0, 0.0, 7189.460955793972, 0.0]
['beep', 0.0, 47.810381389901806, 0.0, 0.0, 0.0, 0.0, 7188.7904034603125, 0.0]
['beep', 0.0, 46.2010557891197, 0.0, 0.0, 0.0, 0.0, 7185.527048769838, 0.0]
['beep', 0.0, 45.59755868882641, 0.0, 0.0, 0.0, 0.0, 7182.643673735103, 0.0]
['beep', 0.0, 47.58686394534874, 0.0, 0.0, 0.0, 0.0, 7182.37545280164, 0.0]
['beep', 0.0, 46.58103544485992, 0.0, 0.0, 0.0, 0.0, 7182.531915012827, 0.0]
['beep', 0.0, 45.99989008902193, 0.0, 0.0, 0.0, 0.0, 7181.302569067785, 0.0]
['beep', 0.0, 45.306986010907416, 0.0, 0.0, 0.0, 0.0, 7181.995473145899, 0.0]
['beep', 0.0, 45.910483111200705, 0.0, 0.0, 0.0, 0.0, 7181.6825487235255, 0.0]
['beep', 0.0, 48.79385814593532, 0.0, 0.0, 0.0, 0.0, 7179.000339388888, 0.0]
['beep', 0.0, 47.92214011217834, 0.0, 0.0, 0.0, 0.0, 7174.5299904978265, 0.0]
['beep', 0.0, 46.58103544485992, 0.0, 0.0, 0.0, 0.0, 7177.32395855474, 0.0]
['beep', 0.0, 45.99989008902193, 0.0, 0.0, 0.0, 0.0, 7178.173324844042, 0.0]
['beep', 0.0, 48.12330581227611, 0.0, 0.0, 0.0, 0.0, 7176.4075370320725, 0.0]
['beep', 0.0, 49.57616920187107, 0.0, 0.0, 0.0, 0.0, 7175.155839342576, 0.0]
['beep', 0.0, 47.63156743425935, 0.0, 0.0, 0.0, 0.0, 7172.853609663679, 0.0]
['beep', 0.0, 47.05042207842137, 0.0, 0.0, 0.0, 0.0, 7175.625225976137, 0.0]
['beep', 0.0, 46.71514591159176, 0.0, 0.0, 0.0, 0.0, 7175.08878410921, 0.0]
['beep', 0.0, 47.89978836772303, 0.0, 0.0, 0.0, 0.0, 7173.7029759529805, 0.0]
['beep', 0.0, 48.480933723561016, 0.0, 0.0, 0.0, 0.0, 7171.6466154630925, 0.0]
['beep', 0.0, 48.816209890390624, 0.0, 0.0, 0.0, 0.0, 7173.27829280833, 0.0]
