['beep', 0.0, 0.0, 0.0, 0.0, 0.0, 0.0, 0.0, 0.0]
['beep', 0.0, -870.6227982786654, 0.0, 0.0, 0.0, 0.0, -1048.788553331918, 0.0]
['beep', 0.0, -869.8181354782744, 0.0, 0.0, 0.0, 0.0, -1048.6097393762755, 0.0]
['beep', 0.0, -869.9969494339168, 0.0, 0.0, 0.0, 0.0, -1049.4367539211219, 0.0]
['beep', 0.0, -868.7899552333303, 0.0, 0.0, 0.0, 0.0, -1047.11217249777, 0.0]
['beep', 0.0, -868.40997557759, 0.0, 0.0, 0.0, 0.0, -1048.1180009982588, 0.0]
['beep', 0.0, -868.9240657000621, 0.0, 0.0, 0.0, 0.0, -1047.8497800647951, 0.0]
['beep', 0.0, -867.895885455118, 0.0, 0.0, 0.0, 0.0, -1048.050945764893, 0.0]
['beep', 0.0, -868.3652720886794, 0.0, 0.0, 0.0, 0.0, -1049.1238294987477, 0.0]
['beep', 0.0, -869.2369901224364, 0.0, 0.0, 0.0, 0.0, -1049.1014777542923, 0.0]
['beep', 0.0, -869.9298942005508, 0.0, 0.0, 0.0, 0.0, -1047.2239312200466, 0.0]
['beep', 0.0, -869.8181354782744, 0.0, 0.0, 0.0, 0.0, -1047.2239312200466, 0.0]
['beep', 0.0, -868.5440860443218, 0.0, 0.0, 0.0, 0.0, -1048.9450155431052, 0.0]
['beep', 0.0, -868.3429203442241, 0.0, 0.0, 0.0, 0.0, -1048.9450155431052, 0.0]
['beep', 0.0, -868.5664377887772, 0.0, 0.0, 0.0, 0.0, -1047.1568759866807, 0.0]
['beep', 0.0, -868.9687691889727, 0.0, 0.0, 0.0, 0.0, -1046.1957509751023, 0.0]
['beep', 0.0, -869.2593418668916, 0.0, 0.0, 0.0, 0.0, -1046.6651376086638, 0.0]
['beep', 0.0, -869.1922866335258, 0.0, 0.0, 0.0, 0.0, -1046.4416201641106, 0.0]
['beep', 0.0, -868.6781965110537, 0.0, 0.0, 0.0, 0.0, -1045.5699021303537, 0.0]
['beep', 0.0, -868.477030810956, 0.0, 0.0, 0.0, 0.0, -1047.0898207533146, 0.0]
['beep', 0.0, -868.4993825554112, 0.0, 0.0, 0.0, 0.0, -1046.888655053217, 0.0]
['beep', 0.0, -867.9629406884839, 0.0, 0.0, 0.0, 0.0, -1047.8944835537056, 0.0]
['beep', 0.0, -868.0523476663051, 0.0, 0.0, 0.0, 0.0, -1049.1685329876582, 0.0]
['beep', 0.0, -866.5994842767101, 0.0, 0.0, 0.0, 0.0, -1048.1180009982588, 0.0]
['beep', 0.0, -867.8735337106626, 0.0, 0.0, 0.0, 0.0, -1046.7768963309404, 0.0]
['beep', 0.0, -868.3652720886794, 0.0, 0.0, 0.0, 0.0, -1048.3862219317225, 0.0]
['beep', 0.0, -868.7228999999643, 0.0, 0.0, 0.0, 0.0, -1048.4085736761779, 0.0]
['beep', 0.0, -868.8570104666961, 0.0, 0.0, 0.0, 0.0, -1047.9615387870717, 0.0]
['beep', 0.0, -867.9405889440286, 0.0, 0.0, 0.0, 0.0, -1046.598082375298, 0.0]
['beep', 0.0, -868.8346587222409, 0.0, 0.0, 0.0, 0.0, -1047.7827248314293, 0.0]
['beep', 0.0, -868.2982168553135, 0.0, 0.0, 0.0, 0.0, -1047.4921521535102, 0.0]
['beep', 0.0, -868.5664377887772, 0.0, 0.0, 0.0, 0.0, -1046.9333585421275, 0.0]
['beep', 0.0, -868.1194028996711, 0.0, 0.0, 0.0, 0.0, -1048.9450155431052, 0.0]
['beep', 0.0, -867.605312777199, 0.0, 0.0, 0.0, 0.0, -1048.6544428651862, 0.0]
['beep', 0.0, -867.7394232439308, 0.0, 0.0, 0.0, 0.0, -1048.4532771650884, 0.0]
['beep', 0.0, -868.1864581330369, 0.0, 0.0, 0.0, 0.0, -1047.8274283203398, 0.0]
['beep', 0.0, -868.1864581330369, 0.0, 0.0, 0.0, 0.0, -1046.4416201641106, 0.0]
['beep', 0.0, -868.1194028996711, 0.0, 0.0, 0.0, 0.0, -1047.268634708957, 0.0]
['beep', 0.0, -867.4935540549224, 0.0, 0.0, 0.0, 0.0, -1047.9391870426164, 0.0]
['beep', 0.0, -867.895885455118, 0.0, 0.0, 0.0, 0.0, -1046.6651376086638, 0.0]
['beep', 0.0, -868.4546790665006, 0.0, 0.0, 0.0, 0.0, -1045.6369573637196, 0.0]
['beep', 0.0, -868.4993825554112, 0.0, 0.0, 0.0, 0.0, -1047.0898207533146, 0.0]
['beep', 0.0, -868.2982168553135, 0.0, 0.0, 0.0, 0.0, -1046.7098410975743, 0.0]
['beep', 0.0, -868.3876238331347, 0.0, 0.0, 0.0, 0.0, -1047.2909864534124, 0.0]
['beep', 0.0, -869.7510802449084, 0.0, 0.0, 0.0, 0.0, -1047.916835298161, 0.0]
['beep', 0.0, -869.5275628003553, 0.0, 0.0, 0.0, 0.0, -1046.9557102865829, 0.0]
['beep', 0.0, -870.3322256007464, 0.0, 0.0, 0.0, 0.0, -1046.7098410975743, 0.0]
['beep', 0.0, -869.3934523336235, 0.0, 0.0, 0.0, 0.0, -1045.9275300416386, 0.0]
['beep', 0.0, -868.7899552333303, 0.0, 0.0, 0.0, 0.0, -1045.1899224746135, 0.0]
['beep', 0.0, -869.4605075669895, 0.0, 0.0, 0.0, 0.0, -1046.0392887639152, 0.0]
['beep', 0.0, -869.4158040780788, 0.0, 0.0, 0.0, 0.0, -1045.4581434080771, 0.0]
['beep', 0.0, -869.4605075669895, 0.0, 0.0, 0.0, 0.0, -1046.463971908566, 0.0]
['beep', 0.0, -868.633493022143, 0.0, 0.0, 0.0, 0.0, -1046.3969166752001, 0.0]
['beep', 0.0, -867.605312777199, 0.0, 0.0, 0.0, 0.0, -1044.787591074418, 0.0]
['beep', 0.0, -867.7617749883862, 0.0, 0.0, 0.0, 0.0, -1046.4416201641106, 0.0]
['beep', 0.0, -869.6169697781766, 0.0, 0.0, 0.0, 0.0, -1046.2181027195577, 0.0]
['beep', 0.0, -869.9969494339168, 0.0, 0.0, 0.0, 0.0, -1045.815771319362, 0.0]
['beep', 0.0, -868.7228999999643, 0.0, 0.0, 0.0, 0.0, -1045.9945852750045, 0.0]
['beep', 0.0, -867.895885455118, 0.0, 0.0, 0.0, 0.0, -1044.9217015411498, 0.0]
['beep', 0.0, -867.4935540549224, 0.0, 0.0, 0.0, 0.0, -1044.5193701409544, 0.0]
['beep', 0.0, -868.0523476663051, 0.0, 0.0, 0.0, 0.0, -1042.9323962846277, 0.0]
['beep', 0.0, -868.0523476663051, 0.0, 0.0, 0.0, 0.0, -1043.5582451293762, 0.0]
['beep', 0.0, -866.8900569546291, 0.0, 0.0, 0.0, 0.0, -1045.2122742190688, 0.0]
['beep', 0.0, -866.0630424097827, 0.0, 0.0, 0.0, 0.0, -1045.6146056192645, 0.0]
['beep', 0.0, -867.828830221752, 0.0, 0.0, 0.0, 0.0, -1043.7594108294738, 0.0]
['beep', 0.0, -867.4041470771011, 0.0, 0.0, 0.0, 0.0, -1045.7710678304516, 0.0]
['beep', 0.0, -867.3817953326459, 0.0, 0.0, 0.0, 0.0, -1045.0334602634264, 0.0]
['beep', 0.0, -867.6500162661096, 0.0, 0.0, 0.0, 0.0, -1044.0499835073929, 0.0]
['beep', 0.0, -867.9629406884839, 0.0, 0.0, 0.0, 0.0, -1045.4134399191666, 0.0]
['beep', 0.0, -867.8511819662074, 0.0, 0.0, 0.0, 0.0, -1046.2181027195577, 0.0]
['beep', 0.0, -867.5606092882883, 0.0, 0.0, 0.0, 0.0, -1046.3298614418343, 0.0]
['beep', 0.0, -868.2758651108581, 0.0, 0.0, 0.0, 0.0, -1045.9722335305494, 0.0]
['beep', 0.0, -868.1641063885817, 0.0, 0.0, 0.0, 0.0, -1046.598082375298, 0.0]
['beep', 0.0, -868.2982168553135, 0.0, 0.0, 0.0, 0.0, -1045.8604748082728, 0.0]
['beep', 0.0, -870.0193011783721, 0.0, 0.0, 0.0, 0.0, -1046.1510474861918, 0.0]
['beep', 0.0, -868.1641063885817, 0.0, 0.0, 0.0, 0.0, -1045.2122742190688, 0.0]
['beep', 0.0, -868.3429203442241, 0.0, 0.0, 0.0, 0.0, -1044.7428875855073, 0.0]
['beep', 0.0, -869.281693611347, 0.0, 0.0, 0.0, 0.0, -1046.1510474861918, 0.0]
['beep', 0.0, -868.1194028996711, 0.0, 0.0, 0.0, 0.0, -1046.5757306308426, 0.0]
['beep', 0.0, -867.605312777199, 0.0, 0.0, 0.0, 0.0, -1045.7710678304516, 0.0]
['beep', 0.0, -867.8511819662074, 0.0, 0.0, 0.0, 0.0, -1045.2569777079796, 0.0]
['beep', 0.0, -867.4041470771011, 0.0, 0.0, 0.0, 0.0, -1044.787591074418, 0.0]
['beep', 0.0, -867.247684865914, 0.0, 0.0, 0.0, 0.0, -1044.7205358410522, 0.0]
['beep', 0.0, -868.3429203442241, 0.0, 0.0, 0.0, 0.0, -1044.1617422296695, 0.0]
['beep', 0.0, -868.8123069777855, 0.0, 0.0, 0.0, 0.0, -1043.7594108294738, 0.0]
['beep', 0.0, -869.3487488447129, 0.0, 0.0, 0.0, 0.0, -1045.0334602634264, 0.0]
['beep', 0.0, -869.4158040780788, 0.0, 0.0, 0.0, 0.0, -1045.1005154967922, 0.0]
['beep', 0.0, -868.7228999999643, 0.0, 0.0, 0.0, 0.0, -1045.368736430256, 0.0]
['beep', 0.0, -869.1922866335258, 0.0, 0.0, 0.0, 0.0, -1045.2122742190688, 0.0]
['beep', 0.0, -868.5440860443218, 0.0, 0.0, 0.0, 0.0, -1045.592253874809, 0.0]
['beep', 0.0, -868.2311616219475, 0.0, 0.0, 0.0, 0.0, -1045.368736430256, 0.0]
['beep', 0.0, -868.2088098774923, 0.0, 0.0, 0.0, 0.0, -1045.7040125970857, 0.0]
['beep', 0.0, -867.9405889440286, 0.0, 0.0, 0.0, 0.0, -1044.3629079297673, 0.0]
['beep', 0.0, -864.6995859980091, 0.0, 0.0, 0.0, 0.0, -1044.9217015411498, 0.0]
['beep', 0.0, -867.0018156769056, 0.0, 0.0, 0.0, 0.0, -1044.8993497966947, 0.0]
['beep', 0.0, -865.794821476319, 0.0, 0.0, 0.0, 0.0, -1045.0558120078817, 0.0]
['beep', 0.0, -865.2136761204811, 0.0, 0.0, 0.0, 0.0, -1044.3182044408566, 0.0]
['beep', 0.0, -865.3924900761235, 0.0, 0.0, 0.0, 0.0, -1044.5193701409544, 0.0]
['beep', 0.0, -866.8900569546291, 0.0, 0.0, 0.0, 0.0, -1045.078163752337, 0.0]
['beep', 0.0, -867.4041470771011, 0.0, 0.0, 0.0, 0.0, -1045.4581434080771, 0.0]
['beep', 0.0, -869.2369901224364, 0.0, 0.0, 0.0, 0.0, -1043.5358933849209, 0.0]
['beep', 0.0, -868.1864581330369, 0.0, 0.0, 0.0, 0.0, -1042.9100445401723, 0.0]
['beep', 0.0, -868.3652720886794, 0.0, 0.0, 0.0, 0.0, -1044.6087771187756, 0.0]
['beep', 0.0, -868.6111412776878, 0.0, 0.0, 0.0, 0.0, -1045.6369573637196, 0.0]
['beep', 0.0, -868.9687691889727, 0.0, 0.0, 0.0, 0.0, -1045.5251986414432, 0.0]
['beep', 0.0, -868.0970511552157, 0.0, 0.0, 0.0, 0.0, -1044.9664050300605, 0.0]
['beep', 0.0, -868.5440860443218, 0.0, 0.0, 0.0, 0.0, -1044.9440532856052, 0.0]
['beep', 0.0, -868.6558447665984, 0.0, 0.0, 0.0, 0.0, -1044.6087771187756, 0.0]
['beep', 0.0, -868.7228999999643, 0.0, 0.0, 0.0, 0.0, -1045.011108518971, 0.0]
['beep', 0.0, -866.7335947434419, 0.0, 0.0, 0.0, 0.0, -1044.9440532856052, 0.0]
['beep', 0.0, -868.2758651108581, 0.0, 0.0, 0.0, 0.0, -1045.2122742190688, 0.0]
['beep', 0.0, -869.7734319893638, 0.0, 0.0, 0.0, 0.0, -1046.6651376086638, 0.0]
['beep', 0.0, -869.5052110559001, 0.0, 0.0, 0.0, 0.0, -1048.7662015874628, 0.0]
['beep', 0.0, -869.6616732670872, 0.0, 0.0, 0.0, 0.0, -1049.1238294987477, 0.0]
['beep', 0.0, -869.214638377981, 0.0, 0.0, 0.0, 0.0, -1047.4474486645995, 0.0]
['beep', 0.0, -868.2758651108581, 0.0, 0.0, 0.0, 0.0, -1046.307509697379, 0.0]
['beep', 0.0, -868.1641063885817, 0.0, 0.0, 0.0, 0.0, -1046.8663033087616, 0.0]
['beep', 0.0, -868.9464174445174, 0.0, 0.0, 0.0, 0.0, -1047.045117264404, 0.0]
['beep', 0.0, -868.0299959218498, 0.0, 0.0, 0.0, 0.0, -1047.2239312200466, 0.0]
['beep', 0.0, -868.8570104666961, 0.0, 0.0, 0.0, 0.0, -1047.6039108757868, 0.0]
['beep', 0.0, -868.4546790665006, 0.0, 0.0, 0.0, 0.0, -1046.5757306308426, 0.0]
['beep', 0.0, -867.4041470771011, 0.0, 0.0, 0.0, 0.0, -1044.787591074418, 0.0]
['beep', 0.0, -868.0076441773945, 0.0, 0.0, 0.0, 0.0, -1044.3852596742224, 0.0]
['beep', 0.0, -866.443022065523, 0.0, 0.0, 0.0, 0.0, -1046.4863236530214, 0.0]
['beep', 0.0, -867.4935540549224, 0.0, 0.0, 0.0, 0.0, -1046.598082375298, 0.0]
['beep', 0.0, -868.1641063885817, 0.0, 0.0, 0.0, 0.0, -1045.8828265527281, 0.0]
['beep', 0.0, -868.2758651108581, 0.0, 0.0, 0.0, 0.0, -1045.9945852750045, 0.0]
['beep', 0.0, -868.1641063885817, 0.0, 0.0, 0.0, 0.0, -1046.463971908566, 0.0]
['beep', 0.0, -868.2088098774923, 0.0, 0.0, 0.0, 0.0, -1046.1286957417365, 0.0]
['beep', 0.0, -867.4264988215565, 0.0, 0.0, 0.0, 0.0, -1045.2346259635242, 0.0]
['beep', 0.0, -867.4488505660117, 0.0, 0.0, 0.0, 0.0, -1044.5417218854097, 0.0]
['beep', 0.0, -867.3370918437353, 0.0, 0.0, 0.0, 0.0, -1045.4804951525325, 0.0]
['beep', 0.0, -868.40997557759, 0.0, 0.0, 0.0, 0.0, -1045.7487160859962, 0.0]
['beep', 0.0, -868.3205685997688, 0.0, 0.0, 0.0, 0.0, -1044.8769980522393, 0.0]
['beep', 0.0, -866.6441877656207, 0.0, 0.0, 0.0, 0.0, -1045.30168119689, 0.0]
['beep', 0.0, -866.443022065523, 0.0, 0.0, 0.0, 0.0, -1046.240454464013, 0.0]
['beep', 0.0, -866.375966832157, 0.0, 0.0, 0.0, 0.0, -1046.307509697379, 0.0]
['beep', 0.0, -866.5547807877995, 0.0, 0.0, 0.0, 0.0, -1046.5310271419319, 0.0]
['beep', 0.0, -866.7559464878973, 0.0, 0.0, 0.0, 0.0, -1046.2181027195577, 0.0]
['beep', 0.0, -867.6723680105648, 0.0, 0.0, 0.0, 0.0, -1046.4863236530214, 0.0]
['beep', 0.0, -866.6665395100761, 0.0, 0.0, 0.0, 0.0, -1047.7156695980632, 0.0]
['beep', 0.0, -866.443022065523, 0.0, 0.0, 0.0, 0.0, -1047.7827248314293, 0.0]
['beep', 0.0, -866.6665395100761, 0.0, 0.0, 0.0, 0.0, -1048.1850562316247, 0.0]
['beep', 0.0, -867.2923883548247, 0.0, 0.0, 0.0, 0.0, -1047.7380213425186, 0.0]
['beep', 0.0, -867.4041470771011, 0.0, 0.0, 0.0, 0.0, -1047.2909864534124, 0.0]
['beep', 0.0, -867.4935540549224, 0.0, 0.0, 0.0, 0.0, -1048.5426841429096, 0.0]
['beep', 0.0, -866.443022065523, 0.0, 0.0, 0.0, 0.0, -1047.2015794755912, 0.0]
['beep', 0.0, -866.1300976431487, 0.0, 0.0, 0.0, 0.0, -1046.7768963309404, 0.0]
['beep', 0.0, -865.7277662429532, 0.0, 0.0, 0.0, 0.0, -1047.3803934312336, 0.0]
['beep', 0.0, -865.057213909294, 0.0, 0.0, 0.0, 0.0, -1047.1568759866807, 0.0]
['beep', 0.0, -865.5042487984001, 0.0, 0.0, 0.0, 0.0, -1047.11217249777, 0.0]
['beep', 0.0, -866.6218360211654, 0.0, 0.0, 0.0, 0.0, -1048.2968149539013, 0.0]
['beep', 0.0, -864.990158675928, 0.0, 0.0, 0.0, 0.0, -1048.1850562316247, 0.0]
['beep', 0.0, -865.7501179874084, 0.0, 0.0, 0.0, 0.0, -1048.1627044871693, 0.0]
['beep', 0.0, -866.0406906653275, 0.0, 0.0, 0.0, 0.0, -1047.7827248314293, 0.0]
['beep', 0.0, -865.4371935650341, 0.0, 0.0, 0.0, 0.0, -1046.821599819851, 0.0]
['beep', 0.0, -866.375966832157, 0.0, 0.0, 0.0, 0.0, -1046.0839922528257, 0.0]
['beep', 0.0, -867.5606092882883, 0.0, 0.0, 0.0, 0.0, -1047.11217249777, 0.0]
['beep', 0.0, -867.0018156769056, 0.0, 0.0, 0.0, 0.0, -1048.4532771650884, 0.0]
['beep', 0.0, -868.2758651108581, 0.0, 0.0, 0.0, 0.0, -1048.274463209446, 0.0]
['beep', 0.0, -866.7335947434419, 0.0, 0.0, 0.0, 0.0, -1046.3522131862894, 0.0]
['beep', 0.0, -866.0853941542381, 0.0, 0.0, 0.0, 0.0, -1045.8828265527281, 0.0]
['beep', 0.0, -866.4653738099782, 0.0, 0.0, 0.0, 0.0, -1045.4804951525325, 0.0]
['beep', 0.0, -866.7782982323525, 0.0, 0.0, 0.0, 0.0, -1044.6981840965968, 0.0]
['beep', 0.0, -866.8900569546291, 0.0, 0.0, 0.0, 0.0, -1044.6981840965968, 0.0]
['beep', 0.0, -867.4935540549224, 0.0, 0.0, 0.0, 0.0, -1046.240454464013, 0.0]
['beep', 0.0, -867.8511819662074, 0.0, 0.0, 0.0, 0.0, -1047.3133381978678, 0.0]
['beep', 0.0, -867.6500162661096, 0.0, 0.0, 0.0, 0.0, -1046.754544586485, 0.0]
['beep', 0.0, -867.8511819662074, 0.0, 0.0, 0.0, 0.0, -1046.7098410975743, 0.0]
['beep', 0.0, -867.3594435881905, 0.0, 0.0, 0.0, 0.0, -1046.6427858642085, 0.0]
['beep', 0.0, -869.3487488447129, 0.0, 0.0, 0.0, 0.0, -1046.0392887639152, 0.0]
['beep', 0.0, -869.5052110559001, 0.0, 0.0, 0.0, 0.0, -1043.625300362742, 0.0]
['beep', 0.0, -868.1194028996711, 0.0, 0.0, 0.0, 0.0, -1045.4804951525325, 0.0]
['beep', 0.0, -868.7228999999643, 0.0, 0.0, 0.0, 0.0, -1046.7321928420297, 0.0]
['beep', 0.0, -868.4546790665006, 0.0, 0.0, 0.0, 0.0, -1046.3522131862894, 0.0]
['beep', 0.0, -868.8570104666961, 0.0, 0.0, 0.0, 0.0, -1047.268634708957, 0.0]
['beep', 0.0, -868.5440860443218, 0.0, 0.0, 0.0, 0.0, -1046.3298614418343, 0.0]
['beep', 0.0, -869.0805279112492, 0.0, 0.0, 0.0, 0.0, -1046.307509697379, 0.0]
['beep', 0.0, -869.5275628003553, 0.0, 0.0, 0.0, 0.0, -1048.5426841429096, 0.0]
['beep', 0.0, -868.5664377887772, 0.0, 0.0, 0.0, 0.0, -1047.3356899423231, 0.0]
['beep', 0.0, -868.2982168553135, 0.0, 0.0, 0.0, 0.0, -1047.5368556424207, 0.0]
['beep', 0.0, -868.5664377887772, 0.0, 0.0, 0.0, 0.0, -1047.4921521535102, 0.0]
['beep', 0.0, -868.2758651108581, 0.0, 0.0, 0.0, 0.0, -1046.0392887639152, 0.0]
['beep', 0.0, -868.4993825554112, 0.0, 0.0, 0.0, 0.0, -1046.0392887639152, 0.0]
['beep', 0.0, -869.862838967185, 0.0, 0.0, 0.0, 0.0, -1046.2628062084682, 0.0]
['beep', 0.0, -868.5217342998666, 0.0, 0.0, 0.0, 0.0, -1046.5757306308426, 0.0]
['beep', 0.0, -868.9017139556067, 0.0, 0.0, 0.0, 0.0, -1046.1957509751023, 0.0]
['beep', 0.0, -867.9405889440286, 0.0, 0.0, 0.0, 0.0, -1045.815771319362, 0.0]
['beep', 0.0, -867.6723680105648, 0.0, 0.0, 0.0, 0.0, -1047.11217249777, 0.0]
['beep', 0.0, -868.1864581330369, 0.0, 0.0, 0.0, 0.0, -1046.9780620310382, 0.0]
['beep', 0.0, -867.4264988215565, 0.0, 0.0, 0.0, 0.0, -1047.6709661091527, 0.0]
['beep', 0.0, -867.247684865914, 0.0, 0.0, 0.0, 0.0, -1048.8779603097391, 0.0]
['beep', 0.0, -867.6276645216542, 0.0, 0.0, 0.0, 0.0, -1049.7720300879514, 0.0]
['beep', 0.0, -868.5217342998666, 0.0, 0.0, 0.0, 0.0, -1047.559207386876, 0.0]
['beep', 0.0, -866.375966832157, 0.0, 0.0, 0.0, 0.0, -1046.888655053217, 0.0]
['beep', 0.0, -866.5100772988889, 0.0, 0.0, 0.0, 0.0, -1047.9838905315269, 0.0]
['beep', 0.0, -867.4488505660117, 0.0, 0.0, 0.0, 0.0, -1048.3638701872671, 0.0]
['beep', 0.0, -866.8230017212632, 0.0, 0.0, 0.0, 0.0, -1047.8721318092505, 0.0]
['beep', 0.0, -866.8900569546291, 0.0, 0.0, 0.0, 0.0, -1047.7827248314293, 0.0]
['beep', 0.0, -866.6441877656207, 0.0, 0.0, 0.0, 0.0, -1047.6039108757868, 0.0]
['beep', 0.0, -867.3817953326459, 0.0, 0.0, 0.0, 0.0, -1048.3862219317225, 0.0]
['beep', 0.0, -866.3089115987912, 0.0, 0.0, 0.0, 0.0, -1047.0004137754934, 0.0]
['beep', 0.0, -866.6218360211654, 0.0, 0.0, 0.0, 0.0, -1047.5815591313315, 0.0]
['beep', 0.0, -866.6218360211654, 0.0, 0.0, 0.0, 0.0, -1047.4921521535102, 0.0]
['beep', 0.0, -867.0912226547268, 0.0, 0.0, 0.0, 0.0, -1048.2968149539013, 0.0]
['beep', 0.0, -867.2700366103693, 0.0, 0.0, 0.0, 0.0, -1048.788553331918, 0.0]
['beep', 0.0, -866.3983185766124, 0.0, 0.0, 0.0, 0.0, -1049.0344225209265, 0.0]
['beep', 0.0, -866.9347604435397, 0.0, 0.0, 0.0, 0.0, -1047.6709661091527, 0.0]
['beep', 0.0, -868.4323273220454, 0.0, 0.0, 0.0, 0.0, -1046.754544586485, 0.0]
['beep', 0.0, -867.3147400992799, 0.0, 0.0, 0.0, 0.0, -1047.7380213425186, 0.0]
['beep', 0.0, -867.6723680105648, 0.0, 0.0, 0.0, 0.0, -1047.1792277311358, 0.0]
['beep', 0.0, -867.5606092882883, 0.0, 0.0, 0.0, 0.0, -1047.5368556424207, 0.0]
['beep', 0.0, -867.247684865914, 0.0, 0.0, 0.0, 0.0, -1047.8497800647951, 0.0]
['beep', 0.0, -867.4935540549224, 0.0, 0.0, 0.0, 0.0, -1047.045117264404, 0.0]
['beep', 0.0, -867.605312777199, 0.0, 0.0, 0.0, 0.0, -1047.5815591313315, 0.0]
['beep', 0.0, -867.6723680105648, 0.0, 0.0, 0.0, 0.0, -1046.7992480753956, 0.0]
['beep', 0.0, -867.2253331214587, 0.0, 0.0, 0.0, 0.0, -1046.4416201641106, 0.0]
['beep', 0.0, -866.7559464878973, 0.0, 0.0, 0.0, 0.0, -1046.4192684196555, 0.0]
['beep', 0.0, -867.9405889440286, 0.0, 0.0, 0.0, 0.0, -1047.045117264404, 0.0]
['beep', 0.0, -868.9017139556067, 0.0, 0.0, 0.0, 0.0, -1047.1345242422253, 0.0]
['beep', 0.0, -867.2253331214587, 0.0, 0.0, 0.0, 0.0, -1046.1286957417365, 0.0]
['beep', 0.0, -867.3817953326459, 0.0, 0.0, 0.0, 0.0, -1046.598082375298, 0.0]
['beep', 0.0, -866.8453534657185, 0.0, 0.0, 0.0, 0.0, -1046.4416201641106, 0.0]
['beep', 0.0, -866.6888912545313, 0.0, 0.0, 0.0, 0.0, -1046.307509697379, 0.0]
['beep', 0.0, -865.9289319430509, 0.0, 0.0, 0.0, 0.0, -1046.3522131862894, 0.0]
['beep', 0.0, -866.7335947434419, 0.0, 0.0, 0.0, 0.0, -1045.145218985703, 0.0]
['beep', 0.0, -866.7782982323525, 0.0, 0.0, 0.0, 0.0, -1046.307509697379, 0.0]
['beep', 0.0, -866.7112429989867, 0.0, 0.0, 0.0, 0.0, -1045.7263643415408, 0.0]
['beep', 0.0, -866.0183389208721, 0.0, 0.0, 0.0, 0.0, -1045.815771319362, 0.0]
['beep', 0.0, -866.5100772988889, 0.0, 0.0, 0.0, 0.0, -1046.5533788863872, 0.0]
['beep', 0.0, -866.6888912545313, 0.0, 0.0, 0.0, 0.0, -1046.8663033087616, 0.0]
['beep', 0.0, -868.3429203442241, 0.0, 0.0, 0.0, 0.0, -1046.0839922528257, 0.0]
['beep', 0.0, -868.7452517444196, 0.0, 0.0, 0.0, 0.0, -1046.0392887639152, 0.0]
['beep', 0.0, -867.7841267328414, 0.0, 0.0, 0.0, 0.0, -1046.4192684196555, 0.0]
['beep', 0.0, -869.2369901224364, 0.0, 0.0, 0.0, 0.0, -1047.3803934312336, 0.0]
['beep', 0.0, -868.477030810956, 0.0, 0.0, 0.0, 0.0, -1048.6544428651862, 0.0]
['beep', 0.0, -868.2982168553135, 0.0, 0.0, 0.0, 0.0, -1047.559207386876, 0.0]
['beep', 0.0, -868.0746994107604, 0.0, 0.0, 0.0, 0.0, -1047.9838905315269, 0.0]
['beep', 0.0, -867.6276645216542, 0.0, 0.0, 0.0, 0.0, -1046.598082375298, 0.0]
['beep', 0.0, -868.7676034888749, 0.0, 0.0, 0.0, 0.0, -1045.9945852750045, 0.0]
['beep', 0.0, -867.9852924329392, 0.0, 0.0, 0.0, 0.0, -1047.8944835537056, 0.0]
['beep', 0.0, -867.4712023104671, 0.0, 0.0, 0.0, 0.0, -1047.760373086974, 0.0]
['beep', 0.0, -868.4993825554112, 0.0, 0.0, 0.0, 0.0, -1047.2015794755912, 0.0]
['beep', 0.0, -868.9464174445174, 0.0, 0.0, 0.0, 0.0, -1046.5533788863872, 0.0]
['beep', 0.0, -868.2311616219475, 0.0, 0.0, 0.0, 0.0, -1046.9110067976721, 0.0]
['beep', 0.0, -870.0640046672827, 0.0, 0.0, 0.0, 0.0, -1048.9003120541945, 0.0]
['beep', 0.0, -869.862838967185, 0.0, 0.0, 0.0, 0.0, -1046.8663033087616, 0.0]
['beep', 0.0, -869.2369901224364, 0.0, 0.0, 0.0, 0.0, -1045.8828265527281, 0.0]
['beep', 0.0, -869.0805279112492, 0.0, 0.0, 0.0, 0.0, -1047.3580416867783, 0.0]
['beep', 0.0, -868.2982168553135, 0.0, 0.0, 0.0, 0.0, -1047.9391870426164, 0.0]
['beep', 0.0, -867.4041470771011, 0.0, 0.0, 0.0, 0.0, -1047.6039108757868, 0.0]
['beep', 0.0, -868.1641063885817, 0.0, 0.0, 0.0, 0.0, -1047.1568759866807, 0.0]
['beep', 0.0, -868.40997557759, 0.0, 0.0, 0.0, 0.0, -1048.4532771650884, 0.0]
['beep', 0.0, -867.6723680105648, 0.0, 0.0, 0.0, 0.0, -1048.497980653999, 0.0]
['beep', 0.0, -868.2088098774923, 0.0, 0.0, 0.0, 0.0, -1048.3862219317225, 0.0]
['beep', 0.0, -867.0688709102716, 0.0, 0.0, 0.0, 0.0, -1048.430925420633, 0.0]
['beep', 0.0, -867.7170714994754, 0.0, 0.0, 0.0, 0.0, -1048.6991463540967, 0.0]
['beep', 0.0, -866.0406906653275, 0.0, 0.0, 0.0, 0.0, -1047.4474486645995, 0.0]
['beep', 0.0, -866.4877255544336, 0.0, 0.0, 0.0, 0.0, -1046.5310271419319, 0.0]
['beep', 0.0, -866.6888912545313, 0.0, 0.0, 0.0, 0.0, -1046.888655053217, 0.0]
['beep', 0.0, -865.9512836875062, 0.0, 0.0, 0.0, 0.0, -1047.693317853608, 0.0]
['beep', 0.0, -866.443022065523, 0.0, 0.0, 0.0, 0.0, -1048.6767946096415, 0.0]
['beep', 0.0, -865.1466208871152, 0.0, 0.0, 0.0, 0.0, -1048.4085736761779, 0.0]
['beep', 0.0, -865.2360278649364, 0.0, 0.0, 0.0, 0.0, -1046.9780620310382, 0.0]
['beep', 0.0, -865.9289319430509, 0.0, 0.0, 0.0, 0.0, -1047.4250969201444, 0.0]
['beep', 0.0, -866.0853941542381, 0.0, 0.0, 0.0, 0.0, -1047.5815591313315, 0.0]
['beep', 0.0, -865.7277662429532, 0.0, 0.0, 0.0, 0.0, -1045.8381230638174, 0.0]
['beep', 0.0, -865.9959871764169, 0.0, 0.0, 0.0, 0.0, -1045.145218985703, 0.0]
['beep', 0.0, -865.9512836875062, 0.0, 0.0, 0.0, 0.0, -1045.659309108175, 0.0]
['beep', 0.0, -865.7277662429532, 0.0, 0.0, 0.0, 0.0, -1045.9275300416386, 0.0]
['beep', 0.0, -865.4371935650341, 0.0, 0.0, 0.0, 0.0, -1048.8332568208286, 0.0]
['beep', 0.0, -865.5489522873107, 0.0, 0.0, 0.0, 0.0, -1049.3473469433006, 0.0]
['beep', 0.0, -866.9794639324504, 0.0, 0.0, 0.0, 0.0, -1047.4698004090549, 0.0]
['beep', 0.0, -865.8171732207744, 0.0, 0.0, 0.0, 0.0, -1046.821599819851, 0.0]
['beep', 0.0, -865.1913243760258, 0.0, 0.0, 0.0, 0.0, -1045.7263643415408, 0.0]
['beep', 0.0, -865.6160075206766, 0.0, 0.0, 0.0, 0.0, -1047.3580416867783, 0.0]
['beep', 0.0, -865.8171732207744, 0.0, 0.0, 0.0, 0.0, -1047.4921521535102, 0.0]
['beep', 0.0, -865.5042487984001, 0.0, 0.0, 0.0, 0.0, -1047.626262620242, 0.0]
['beep', 0.0, -865.7724697318638, 0.0, 0.0, 0.0, 0.0, -1046.2181027195577, 0.0]
['beep', 0.0, -866.0406906653275, 0.0, 0.0, 0.0, 0.0, -1045.1005154967922, 0.0]
['beep', 0.0, -865.5936557762213, 0.0, 0.0, 0.0, 0.0, -1047.246282964502, 0.0]
['beep', 0.0, -866.7335947434419, 0.0, 0.0, 0.0, 0.0, -1046.240454464013, 0.0]
['beep', 0.0, -866.2195046209699, 0.0, 0.0, 0.0, 0.0, -1047.559207386876, 0.0]
['beep', 0.0, -867.3817953326459, 0.0, 0.0, 0.0, 0.0, -1048.3191666983566, 0.0]
['beep', 0.0, -867.828830221752, 0.0, 0.0, 0.0, 0.0, -1048.9897190320157, 0.0]
['beep', 0.0, -867.4935540549224, 0.0, 0.0, 0.0, 0.0, -1047.9391870426164, 0.0]
['beep', 0.0, -866.8006499768079, 0.0, 0.0, 0.0, 0.0, -1047.6709661091527, 0.0]
['beep', 0.0, -867.2700366103693, 0.0, 0.0, 0.0, 0.0, -1047.7156695980632, 0.0]
['beep', 0.0, -868.5664377887772, 0.0, 0.0, 0.0, 0.0, -1047.045117264404, 0.0]
['beep', 0.0, -870.0416529228274, 0.0, 0.0, 0.0, 0.0, -1047.2239312200466, 0.0]
['beep', 0.0, -866.1300976431487, 0.0, 0.0, 0.0, 0.0, -1047.3133381978678, 0.0]
['beep', 0.0, -860.6539202515985, 0.0, 0.0, 0.0, 0.0, -1045.7040125970857, 0.0]
['beep', 0.0, -859.31281558428, 0.0, 0.0, 0.0, 0.0, -1046.1286957417365, 0.0]
['beep', 0.0, -861.5926935187214, 0.0, 0.0, 0.0, 0.0, -1045.659309108175, 0.0]
['beep', 0.0, -862.2632458523806, 0.0, 0.0, 0.0, 0.0, -1045.2793294524347, 0.0]
['beep', 0.0, -862.956149930495, 0.0, 0.0, 0.0, 0.0, -1045.368736430256, 0.0]
['beep', 0.0, -862.5538185302995, 0.0, 0.0, 0.0, 0.0, -1044.1840939741248, 0.0]
['beep', 0.0, -864.0066819198945, 0.0, 0.0, 0.0, 0.0, -1044.3852596742224, 0.0]
['beep', 0.0, -865.2583796093917, 0.0, 0.0, 0.0, 0.0, -1045.793419574907, 0.0]
['beep', 0.0, -865.5489522873107, 0.0, 0.0, 0.0, 0.0, -1047.5368556424207, 0.0]
['beep', 0.0, -865.9512836875062, 0.0, 0.0, 0.0, 0.0, -1046.6874893531192, 0.0]
['beep', 0.0, -865.9959871764169, 0.0, 0.0, 0.0, 0.0, -1045.7263643415408, 0.0]
['beep', 0.0, -865.2583796093917, 0.0, 0.0, 0.0, 0.0, -1047.5145038979656, 0.0]
['beep', 0.0, -865.4818970539447, 0.0, 0.0, 0.0, 0.0, -1045.30168119689, 0.0]
['beep', 0.0, -865.8395249652297, 0.0, 0.0, 0.0, 0.0, -1045.659309108175, 0.0]
['beep', 0.0, -865.3924900761235, 0.0, 0.0, 0.0, 0.0, -1045.9722335305494, 0.0]
['beep', 0.0, -864.9678069314728, 0.0, 0.0, 0.0, 0.0, -1045.1899224746135, 0.0]
['beep', 0.0, -864.8783999536515, 0.0, 0.0, 0.0, 0.0, -1045.8604748082728, 0.0]
['beep', 0.0, -864.9007516981068, 0.0, 0.0, 0.0, 0.0, -1045.435791663622, 0.0]
['beep', 0.0, -866.1748011320593, 0.0, 0.0, 0.0, 0.0, -1046.7098410975743, 0.0]
['beep', 0.0, -867.0688709102716, 0.0, 0.0, 0.0, 0.0, -1045.5028468969879, 0.0]
['beep', 0.0, -865.1019173982046, 0.0, 0.0, 0.0, 0.0, -1045.1228672412476, 0.0]
['beep', 0.0, -865.3030830983023, 0.0, 0.0, 0.0, 0.0, -1047.0227655199487, 0.0]
['beep', 0.0, -865.9512836875062, 0.0, 0.0, 0.0, 0.0, -1047.8050765758844, 0.0]
['beep', 0.0, -865.9065801985956, 0.0, 0.0, 0.0, 0.0, -1047.6486143646973, 0.0]
['beep', 0.0, -865.1466208871152, 0.0, 0.0, 0.0, 0.0, -1046.598082375298, 0.0]
['beep', 0.0, -864.8783999536515, 0.0, 0.0, 0.0, 0.0, -1046.6427858642085, 0.0]
['beep', 0.0, -866.152449387604, 0.0, 0.0, 0.0, 0.0, -1046.2628062084682, 0.0]
['beep', 0.0, -864.5431237868219, 0.0, 0.0, 0.0, 0.0, -1047.0004137754934, 0.0]
['beep', 0.0, -865.1242691426598, 0.0, 0.0, 0.0, 0.0, -1046.2181027195577, 0.0]
['beep', 0.0, -865.8395249652297, 0.0, 0.0, 0.0, 0.0, -1047.2015794755912, 0.0]
['beep', 0.0, -866.0183389208721, 0.0, 0.0, 0.0, 0.0, -1047.045117264404, 0.0]
['beep', 0.0, -865.6160075206766, 0.0, 0.0, 0.0, 0.0, -1046.2851579529236, 0.0]
['beep', 0.0, -865.1019173982046, 0.0, 0.0, 0.0, 0.0, -1046.307509697379, 0.0]
['beep', 0.0, -865.057213909294, 0.0, 0.0, 0.0, 0.0, -1046.173399230647, 0.0]
['beep', 0.0, -863.2467226084141, 0.0, 0.0, 0.0, 0.0, -1047.0004137754934, 0.0]
['beep', 0.0, -862.4197080635677, 0.0, 0.0, 0.0, 0.0, -1048.6097393762755, 0.0]
['beep', 0.0, -865.4148418205789, 0.0, 0.0, 0.0, 0.0, -1046.9333585421275, 0.0]
['beep', 0.0, -868.5217342998666, 0.0, 0.0, 0.0, 0.0, -1045.9275300416386, 0.0]
['beep', 0.0, -866.9124086990844, 0.0, 0.0, 0.0, 0.0, -1045.815771319362, 0.0]
['beep', 0.0, -866.4877255544336, 0.0, 0.0, 0.0, 0.0, -1045.8381230638174, 0.0]
['beep', 0.0, -866.6888912545313, 0.0, 0.0, 0.0, 0.0, -1047.045117264404, 0.0]
['beep', 0.0, -867.0912226547268, 0.0, 0.0, 0.0, 0.0, -1047.6709661091527, 0.0]
['beep', 0.0, -866.1748011320593, 0.0, 0.0, 0.0, 0.0, -1047.7827248314293, 0.0]
['beep', 0.0, -866.5994842767101, 0.0, 0.0, 0.0, 0.0, -1047.0898207533146, 0.0]
['beep', 0.0, -865.9289319430509, 0.0, 0.0, 0.0, 0.0, -1047.9615387870717, 0.0]
['beep', 0.0, -865.7054144984978, 0.0, 0.0, 0.0, 0.0, -1047.268634708957, 0.0]
['beep', 0.0, -866.3536150877018, 0.0, 0.0, 0.0, 0.0, -1046.3969166752001, 0.0]
['beep', 0.0, -866.5324290433442, 0.0, 0.0, 0.0, 0.0, -1046.9110067976721, 0.0]
['beep', 0.0, -865.8395249652297, 0.0, 0.0, 0.0, 0.0, -1046.2181027195577, 0.0]
['beep', 0.0, -865.6160075206766, 0.0, 0.0, 0.0, 0.0, -1046.0839922528257, 0.0]
['beep', 0.0, -864.8560482091962, 0.0, 0.0, 0.0, 0.0, -1045.2122742190688, 0.0]
['beep', 0.0, -864.6548825090985, 0.0, 0.0, 0.0, 0.0, -1047.7156695980632, 0.0]
['beep', 0.0, -865.0348621648386, 0.0, 0.0, 0.0, 0.0, -1047.2909864534124, 0.0]
['beep', 0.0, -865.057213909294, 0.0, 0.0, 0.0, 0.0, -1047.2015794755912, 0.0]
['beep', 0.0, -865.4595453094895, 0.0, 0.0, 0.0, 0.0, -1047.1792277311358, 0.0]
['beep', 0.0, -867.1135743991822, 0.0, 0.0, 0.0, 0.0, -1046.0169370194599, 0.0]
['beep', 0.0, -866.7335947434419, 0.0, 0.0, 0.0, 0.0, -1046.4416201641106, 0.0]
['beep', 0.0, -866.7782982323525, 0.0, 0.0, 0.0, 0.0, -1047.916835298161, 0.0]
['beep', 0.0, -867.2700366103693, 0.0, 0.0, 0.0, 0.0, -1047.5145038979656, 0.0]
['beep', 0.0, -866.7782982323525, 0.0, 0.0, 0.0, 0.0, -1048.050945764893, 0.0]
['beep', 0.0, -866.3983185766124, 0.0, 0.0, 0.0, 0.0, -1048.5426841429096, 0.0]
['beep', 0.0, -865.1689726315705, 0.0, 0.0, 0.0, 0.0, -1046.598082375298, 0.0]
['beep', 0.0, -864.3866615756348, 0.0, 0.0, 0.0, 0.0, -1046.4192684196555, 0.0]
['beep', 0.0, -864.1631441310817, 0.0, 0.0, 0.0, 0.0, -1048.6097393762755, 0.0]
['beep', 0.0, -864.8113447202855, 0.0, 0.0, 0.0, 0.0, -1045.8604748082728, 0.0]
['beep', 0.0, -864.2078476199923, 0.0, 0.0, 0.0, 0.0, -1046.4863236530214, 0.0]
['beep', 0.0, -864.1184406421711, 0.0, 0.0, 0.0, 0.0, -1046.1510474861918, 0.0]
['beep', 0.0, -864.9454551870174, 0.0, 0.0, 0.0, 0.0, -1045.368736430256, 0.0]
['beep', 0.0, -865.3477865872129, 0.0, 0.0, 0.0, 0.0, -1046.754544586485, 0.0]
['beep', 0.0, -864.990158675928, 0.0, 0.0, 0.0, 0.0, -1044.5640736298649, 0.0]
['beep', 0.0, -864.8113447202855, 0.0, 0.0, 0.0, 0.0, -1044.6981840965968, 0.0]
['beep', 0.0, -865.2136761204811, 0.0, 0.0, 0.0, 0.0, -1045.8828265527281, 0.0]
['beep', 0.0, -864.8336964647409, 0.0, 0.0, 0.0, 0.0, -1045.145218985703, 0.0]
['beep', 0.0, -864.4984202979113, 0.0, 0.0, 0.0, 0.0, -1045.6816608526303, 0.0]
['beep', 0.0, -865.3254348427577, 0.0, 0.0, 0.0, 0.0, -1044.7428875855073, 0.0]
['beep', 0.0, -864.990158675928, 0.0, 0.0, 0.0, 0.0, -1044.0052800184824, 0.0]
['beep', 0.0, -863.9396266865286, 0.0, 0.0, 0.0, 0.0, -1045.078163752337, 0.0]
['beep', 0.0, -863.5819987752436, 0.0, 0.0, 0.0, 0.0, -1044.6981840965968, 0.0]
['beep', 0.0, -863.2690743528693, 0.0, 0.0, 0.0, 0.0, -1044.9664050300605, 0.0]
['beep', 0.0, -864.1407923866263, 0.0, 0.0, 0.0, 0.0, -1044.7652393299627, 0.0]
['beep', 0.0, -864.9454551870174, 0.0, 0.0, 0.0, 0.0, -1044.9664050300605, 0.0]
['beep', 0.0, -865.1019173982046, 0.0, 0.0, 0.0, 0.0, -1046.4192684196555, 0.0]
['beep', 0.0, -864.3866615756348, 0.0, 0.0, 0.0, 0.0, -1046.7098410975743, 0.0]
['beep', 0.0, -864.5207720423666, 0.0, 0.0, 0.0, 0.0, -1044.9664050300605, 0.0]
['beep', 0.0, -864.7666412313749, 0.0, 0.0, 0.0, 0.0, -1044.9440532856052, 0.0]
['beep', 0.0, -864.1407923866263, 0.0, 0.0, 0.0, 0.0, -1044.631128863231, 0.0]
['beep', 0.0, -864.0290336643499, 0.0, 0.0, 0.0, 0.0, -1046.4192684196555, 0.0]
['beep', 0.0, -864.0290336643499, 0.0, 0.0, 0.0, 0.0, -1045.2346259635242, 0.0]
['beep', 0.0, -865.280731353847, 0.0, 0.0, 0.0, 0.0, -1044.5193701409544, 0.0]
['beep', 0.0, -866.2865598543358, 0.0, 0.0, 0.0, 0.0, -1045.3240329413454, 0.0]
['beep', 0.0, -865.5936557762213, 0.0, 0.0, 0.0, 0.0, -1044.6087771187756, 0.0]
['beep', 0.0, -864.8113447202855, 0.0, 0.0, 0.0, 0.0, -1044.8322945633286, 0.0]
['beep', 0.0, -864.3196063422688, 0.0, 0.0, 0.0, 0.0, -1044.854646307784, 0.0]
['beep', 0.0, -867.247684865914, 0.0, 0.0, 0.0, 0.0, -1043.4911898960102, 0.0]
['beep', 0.0, -867.1135743991822, 0.0, 0.0, 0.0, 0.0, -1043.5358933849209, 0.0]
['beep', 0.0, -867.1135743991822, 0.0, 0.0, 0.0, 0.0, -1043.3570794292784, 0.0]
['beep', 0.0, -867.0018156769056, 0.0, 0.0, 0.0, 0.0, -1043.6476521071975, 0.0]
['beep', 0.0, -866.2865598543358, 0.0, 0.0, 0.0, 0.0, -1044.5640736298649, 0.0]
['beep', 0.0, -866.375966832157, 0.0, 0.0, 0.0, 0.0, -1042.6194718622532, 0.0]
['beep', 0.0, -867.0465191658162, 0.0, 0.0, 0.0, 0.0, -1042.3288991843342, 0.0]
['beep', 0.0, -867.024167421361, 0.0, 0.0, 0.0, 0.0, -1043.5805968738314, 0.0]
['beep', 0.0, -866.6441877656207, 0.0, 0.0, 0.0, 0.0, -1044.4076114186778, 0.0]
['beep', 0.0, -867.1582778880928, 0.0, 0.0, 0.0, 0.0, -1043.3570794292784, 0.0]
['beep', 0.0, -866.7559464878973, 0.0, 0.0, 0.0, 0.0, -1043.401782918189, 0.0]
['beep', 0.0, -867.7170714994754, 0.0, 0.0, 0.0, 0.0, -1045.1899224746135, 0.0]
['beep', 0.0, -867.1806296325481, 0.0, 0.0, 0.0, 0.0, -1044.787591074418, 0.0]
['beep', 0.0, -866.7112429989867, 0.0, 0.0, 0.0, 0.0, -1045.7487160859962, 0.0]
['beep', 0.0, -868.1417546441263, 0.0, 0.0, 0.0, 0.0, -1045.2122742190688, 0.0]
['beep', 0.0, -867.3370918437353, 0.0, 0.0, 0.0, 0.0, -1044.2287974630353, 0.0]
['beep', 0.0, -866.7335947434419, 0.0, 0.0, 0.0, 0.0, -1043.9605765295717, 0.0]
['beep', 0.0, -867.7617749883862, 0.0, 0.0, 0.0, 0.0, -1042.1277334842364, 0.0]
['beep', 0.0, -867.024167421361, 0.0, 0.0, 0.0, 0.0, -1043.8935212962058, 0.0]
['beep', 0.0, -866.8900569546291, 0.0, 0.0, 0.0, 0.0, -1045.3240329413454, 0.0]
['beep', 0.0, -867.9182371995732, 0.0, 0.0, 0.0, 0.0, -1045.1675707301583, 0.0]
['beep', 0.0, -868.1194028996711, 0.0, 0.0, 0.0, 0.0, -1045.7710678304516, 0.0]
['beep', 0.0, -867.4935540549224, 0.0, 0.0, 0.0, 0.0, -1045.011108518971, 0.0]
['beep', 0.0, -865.9959871764169, 0.0, 0.0, 0.0, 0.0, -1043.7370590850187, 0.0]
['beep', 0.0, -866.8230017212632, 0.0, 0.0, 0.0, 0.0, -1043.4241346626443, 0.0]
['beep', 0.0, -867.3817953326459, 0.0, 0.0, 0.0, 0.0, -1043.5358933849209, 0.0]
['beep', 0.0, -866.443022065523, 0.0, 0.0, 0.0, 0.0, -1043.401782918189, 0.0]
['beep', 0.0, -866.957112187995, 0.0, 0.0, 0.0, 0.0, -1043.2453207070018, 0.0]
['beep', 0.0, -866.6218360211654, 0.0, 0.0, 0.0, 0.0, -1043.5805968738314, 0.0]
['beep', 0.0, -866.7335947434419, 0.0, 0.0, 0.0, 0.0, -1044.7428875855073, 0.0]
['beep', 0.0, -865.4818970539447, 0.0, 0.0, 0.0, 0.0, -1043.692355596108, 0.0]
['beep', 0.0, -866.1748011320593, 0.0, 0.0, 0.0, 0.0, -1042.8429893068062, 0.0]
['beep', 0.0, -867.3147400992799, 0.0, 0.0, 0.0, 0.0, -1043.8935212962058, 0.0]
['beep', 0.0, -866.3983185766124, 0.0, 0.0, 0.0, 0.0, -1044.4076114186778, 0.0]
['beep', 0.0, -864.9454551870174, 0.0, 0.0, 0.0, 0.0, -1044.139390485214, 0.0]
['beep', 0.0, -865.1689726315705, 0.0, 0.0, 0.0, 0.0, -1044.139390485214, 0.0]
['beep', 0.0, -865.4818970539447, 0.0, 0.0, 0.0, 0.0, -1044.20644571858, 0.0]
['beep', 0.0, -866.152449387604, 0.0, 0.0, 0.0, 0.0, -1045.368736430256, 0.0]
['beep', 0.0, -866.6888912545313, 0.0, 0.0, 0.0, 0.0, -1046.106343997281, 0.0]
['beep', 0.0, -865.9289319430509, 0.0, 0.0, 0.0, 0.0, -1046.2181027195577, 0.0]
['beep', 0.0, -865.9512836875062, 0.0, 0.0, 0.0, 0.0, -1044.854646307784, 0.0]
['beep', 0.0, -865.3254348427577, 0.0, 0.0, 0.0, 0.0, -1043.8711695517504, 0.0]
['beep', 0.0, -865.5042487984001, 0.0, 0.0, 0.0, 0.0, -1043.5805968738314, 0.0]
['beep', 0.0, -865.4148418205789, 0.0, 0.0, 0.0, 0.0, -1043.6476521071975, 0.0]
['beep', 0.0, -865.9289319430509, 0.0, 0.0, 0.0, 0.0, -1042.9770997735382, 0.0]
['beep', 0.0, -865.7277662429532, 0.0, 0.0, 0.0, 0.0, -1044.2958526964012, 0.0]
['beep', 0.0, -867.1135743991822, 0.0, 0.0, 0.0, 0.0, -1044.9664050300605, 0.0]
['beep', 0.0, -866.1077458986933, 0.0, 0.0, 0.0, 0.0, -1045.011108518971, 0.0]
['beep', 0.0, -865.7501179874084, 0.0, 0.0, 0.0, 0.0, -1043.5805968738314, 0.0]
['beep', 0.0, -866.7782982323525, 0.0, 0.0, 0.0, 0.0, -1043.0218032624489, 0.0]
['beep', 0.0, -865.5266005428554, 0.0, 0.0, 0.0, 0.0, -1043.4241346626443, 0.0]
['beep', 0.0, -865.1913243760258, 0.0, 0.0, 0.0, 0.0, -1043.5805968738314, 0.0]
['beep', 0.0, -866.957112187995, 0.0, 0.0, 0.0, 0.0, -1043.692355596108, 0.0]
['beep', 0.0, -865.6830627540426, 0.0, 0.0, 0.0, 0.0, -1044.5417218854097, 0.0]
['beep', 0.0, -866.3536150877018, 0.0, 0.0, 0.0, 0.0, -1044.5193701409544, 0.0]
['beep', 0.0, -867.1582778880928, 0.0, 0.0, 0.0, 0.0, -1044.1170387407587, 0.0]
['beep', 0.0, -866.5547807877995, 0.0, 0.0, 0.0, 0.0, -1044.854646307784, 0.0]
['beep', 0.0, -865.6607110095872, 0.0, 0.0, 0.0, 0.0, -1044.0723352518482, 0.0]
['beep', 0.0, -866.0853941542381, 0.0, 0.0, 0.0, 0.0, -1045.3463846858008, 0.0]
['beep', 0.0, -865.3924900761235, 0.0, 0.0, 0.0, 0.0, -1045.5251986414432, 0.0]
['beep', 0.0, -863.4925917974224, 0.0, 0.0, 0.0, 0.0, -1044.2287974630353, 0.0]
['beep', 0.0, -864.9454551870174, 0.0, 0.0, 0.0, 0.0, -1044.631128863231, 0.0]
['beep', 0.0, -865.3924900761235, 0.0, 0.0, 0.0, 0.0, -1043.4464864070997, 0.0]
['beep', 0.0, -865.1019173982046, 0.0, 0.0, 0.0, 0.0, -1044.4076114186778, 0.0]
['beep', 0.0, -864.6101790201878, 0.0, 0.0, 0.0, 0.0, -1045.2793294524347, 0.0]
['beep', 0.0, -863.5819987752436, 0.0, 0.0, 0.0, 0.0, -1045.2122742190688, 0.0]
['beep', 0.0, -865.0125104203834, 0.0, 0.0, 0.0, 0.0, -1044.8099428188734, 0.0]
['beep', 0.0, -865.2136761204811, 0.0, 0.0, 0.0, 0.0, -1045.2122742190688, 0.0]
['beep', 0.0, -865.8842284541403, 0.0, 0.0, 0.0, 0.0, -1045.30168119689, 0.0]
['beep', 0.0, -865.6607110095872, 0.0, 0.0, 0.0, 0.0, -1044.2958526964012, 0.0]
['beep', 0.0, -865.9289319430509, 0.0, 0.0, 0.0, 0.0, -1044.0276317629375, 0.0]
['beep', 0.0, -865.1689726315705, 0.0, 0.0, 0.0, 0.0, -1043.5135416404655, 0.0]
['beep', 0.0, -864.4984202979113, 0.0, 0.0, 0.0, 0.0, -1044.0276317629375, 0.0]
['beep', 0.0, -865.9512836875062, 0.0, 0.0, 0.0, 0.0, -1043.8935212962058, 0.0]
['beep', 0.0, -866.3312633432464, 0.0, 0.0, 0.0, 0.0, -1044.9664050300605, 0.0]
['beep', 0.0, -865.7277662429532, 0.0, 0.0, 0.0, 0.0, -1044.4076114186778, 0.0]
['beep', 0.0, -866.5994842767101, 0.0, 0.0, 0.0, 0.0, -1043.982928274027, 0.0]
['beep', 0.0, -866.2642081098805, 0.0, 0.0, 0.0, 0.0, -1043.625300362742, 0.0]
['beep', 0.0, -866.152449387604, 0.0, 0.0, 0.0, 0.0, -1044.0276317629375, 0.0]
['beep', 0.0, -865.3254348427577, 0.0, 0.0, 0.0, 0.0, -1044.5864253743202, 0.0]
['beep', 0.0, -865.3254348427577, 0.0, 0.0, 0.0, 0.0, -1045.9722335305494, 0.0]
['beep', 0.0, -865.2136761204811, 0.0, 0.0, 0.0, 0.0, -1045.7040125970857, 0.0]
['beep', 0.0, -865.3701383316683, 0.0, 0.0, 0.0, 0.0, -1044.2511492074907, 0.0]
['beep', 0.0, -863.6267022641542, 0.0, 0.0, 0.0, 0.0, -1045.368736430256, 0.0]
['beep', 0.0, -865.5936557762213, 0.0, 0.0, 0.0, 0.0, -1045.9275300416386, 0.0]
['beep', 0.0, -865.2136761204811, 0.0, 0.0, 0.0, 0.0, -1043.4241346626443, 0.0]
['beep', 0.0, -864.2749028533582, 0.0, 0.0, 0.0, 0.0, -1043.4241346626443, 0.0]
['beep', 0.0, -865.4371935650341, 0.0, 0.0, 0.0, 0.0, -1043.4241346626443, 0.0]
['beep', 0.0, -864.476068553456, 0.0, 0.0, 0.0, 0.0, -1044.0276317629375, 0.0]
['beep', 0.0, -865.0348621648386, 0.0, 0.0, 0.0, 0.0, -1044.2958526964012, 0.0]
['beep', 0.0, -864.6548825090985, 0.0, 0.0, 0.0, 0.0, -1044.9217015411498, 0.0]
['beep', 0.0, -864.5207720423666, 0.0, 0.0, 0.0, 0.0, -1044.7428875855073, 0.0]
['beep', 0.0, -865.638359265132, 0.0, 0.0, 0.0, 0.0, -1043.848817807295, 0.0]
['beep', 0.0, -864.8336964647409, 0.0, 0.0, 0.0, 0.0, -1042.1500852286918, 0.0]
['beep', 0.0, -863.3137778417799, 0.0, 0.0, 0.0, 0.0, -1044.139390485214, 0.0]
['beep', 0.0, -864.4313650645454, 0.0, 0.0, 0.0, 0.0, -1043.5805968738314, 0.0]
['beep', 0.0, -865.1913243760258, 0.0, 0.0, 0.0, 0.0, -1042.530064884432, 0.0]
['beep', 0.0, -865.3924900761235, 0.0, 0.0, 0.0, 0.0, -1042.2171404620576, 0.0]
['beep', 0.0, -864.3866615756348, 0.0, 0.0, 0.0, 0.0, -1043.692355596108, 0.0]
['beep', 0.0, -863.6490540086096, 0.0, 0.0, 0.0, 0.0, -1043.2676724514572, 0.0]
['beep', 0.0, -863.5149435418778, 0.0, 0.0, 0.0, 0.0, -1044.20644571858, 0.0]
['beep', 0.0, -864.0513854088051, 0.0, 0.0, 0.0, 0.0, -1043.7147073405633, 0.0]
['beep', 0.0, -865.2583796093917, 0.0, 0.0, 0.0, 0.0, -1041.434829406122, 0.0]
['beep', 0.0, -864.8336964647409, 0.0, 0.0, 0.0, 0.0, -1042.9770997735382, 0.0]
['beep', 0.0, -863.6714057530648, 0.0, 0.0, 0.0, 0.0, -1042.686527095619, 0.0]
['beep', 0.0, -861.3915278186236, 0.0, 0.0, 0.0, 0.0, -1041.7924573174068, 0.0]
['beep', 0.0, -860.0057196623945, 0.0, 0.0, 0.0, 0.0, -1042.7982858178957, 0.0]
['beep', 0.0, -860.0951266402158, 0.0, 0.0, 0.0, 0.0, -1041.9042160396834, 0.0]
['beep', 0.0, -860.6092167626879, 0.0, 0.0, 0.0, 0.0, -1042.3288991843342, 0.0]
['beep', 0.0, -858.6646149950761, 0.0, 0.0, 0.0, 0.0, -1041.6806985951303, 0.0]
['beep', 0.0, -859.9610161734839, 0.0, 0.0, 0.0, 0.0, -1040.786628816918, 0.0]
['beep', 0.0, -862.7996877193079, 0.0, 0.0, 0.0, 0.0, -1039.4231724051444, 0.0]
['beep', 0.0, -862.4644115524783, 0.0, 0.0, 0.0, 0.0, -1038.953785771583, 0.0]
['beep', 0.0, -863.1349638861375, 0.0, 0.0, 0.0, 0.0, -1038.3279369268344, 0.0]
['beep', 0.0, -864.4313650645454, 0.0, 0.0, 0.0, 0.0, -1040.4513526500884, 0.0]
['beep', 0.0, -864.7219377424643, 0.0, 0.0, 0.0, 0.0, -1043.11121024027, 0.0]
['beep', 0.0, -864.2078476199923, 0.0, 0.0, 0.0, 0.0, -1042.8653410512616, 0.0]
['beep', 0.0, -863.7831644753414, 0.0, 0.0, 0.0, 0.0, -1041.4795328950327, 0.0]
['beep', 0.0, -864.2078476199923, 0.0, 0.0, 0.0, 0.0, -1040.630166605731, 0.0]
['beep', 0.0, -863.9619784309839, 0.0, 0.0, 0.0, 0.0, -1040.8983875391946, 0.0]
['beep', 0.0, -864.6995859980091, 0.0, 0.0, 0.0, 0.0, -1039.758448571974, 0.0]
['beep', 0.0, -865.4818970539447, 0.0, 0.0, 0.0, 0.0, -1038.4843991380214, 0.0]
['beep', 0.0, -864.2749028533582, 0.0, 0.0, 0.0, 0.0, -1039.7360968275186, 0.0]
['beep', 0.0, -865.5489522873107, 0.0, 0.0, 0.0, 0.0, -1038.5738061158427, 0.0]
['beep', 0.0, -865.4148418205789, 0.0, 0.0, 0.0, 0.0, -1039.244358449502, 0.0]
['beep', 0.0, -862.5761702747549, 0.0, 0.0, 0.0, 0.0, -1039.9596142720718, 0.0]
['beep', 0.0, -866.443022065523, 0.0, 0.0, 0.0, 0.0, -1037.9703090155494, 0.0]
['beep', 0.0, -865.8171732207744, 0.0, 0.0, 0.0, 0.0, -1040.1607799721694, 0.0]
['beep', 0.0, -865.8842284541403, 0.0, 0.0, 0.0, 0.0, -1038.953785771583, 0.0]
['beep', 0.0, -866.6218360211654, 0.0, 0.0, 0.0, 0.0, -1037.4785706375326, 0.0]
['beep', 0.0, -863.1349638861375, 0.0, 0.0, 0.0, 0.0, -1038.7749718159405, 0.0]
['beep', 0.0, -863.6937574975202, 0.0, 0.0, 0.0, 0.0, -1037.3221084263455, 0.0]
['beep', 0.0, -865.7054144984978, 0.0, 0.0, 0.0, 0.0, -1036.4503903925886, 0.0]
['beep', 0.0, -865.3701383316683, 0.0, 0.0, 0.0, 0.0, -1037.657384593175, 0.0]
['beep', 0.0, -863.8055162197968, 0.0, 0.0, 0.0, 0.0, -1037.366811915256, 0.0]
['beep', 0.0, -866.6218360211654, 0.0, 0.0, 0.0, 0.0, -1035.8692450367505, 0.0]
['beep', 0.0, -869.5275628003553, 0.0, 0.0, 0.0, 0.0, -1035.3775066587339, 0.0]
['beep', 0.0, -868.2758651108581, 0.0, 0.0, 0.0, 0.0, -1036.0927624813037, 0.0]
['beep', 0.0, -867.0018156769056, 0.0, 0.0, 0.0, 0.0, -1035.7127828255634, 0.0]
['beep', 0.0, -865.7724697318638, 0.0, 0.0, 0.0, 0.0, -1036.9197770261499, 0.0]
['beep', 0.0, -864.5431237868219, 0.0, 0.0, 0.0, 0.0, -1035.6010241032868, 0.0]
['beep', 0.0, -864.2078476199923, 0.0, 0.0, 0.0, 0.0, -1036.2492246924908, 0.0]
['beep', 0.0, -867.2923883548247, 0.0, 0.0, 0.0, 0.0, -1036.696259581597, 0.0]
['beep', 0.0, -867.9182371995732, 0.0, 0.0, 0.0, 0.0, -1034.1481607136918, 0.0]
['beep', 0.0, -865.5489522873107, 0.0, 0.0, 0.0, 0.0, -1035.981003759027, 0.0]
['beep', 0.0, -862.7549842303973, 0.0, 0.0, 0.0, 0.0, -1036.696259581597, 0.0]
['beep', 0.0, -864.5431237868219, 0.0, 0.0, 0.0, 0.0, -1034.081105480326, 0.0]
['beep', 0.0, -864.0960888977157, 0.0, 0.0, 0.0, 0.0, -1034.3269746693343, 0.0]
['beep', 0.0, -861.5479900298108, 0.0, 0.0, 0.0, 0.0, -1036.3609834147674, 0.0]
['beep', 0.0, -861.0786033962493, 0.0, 0.0, 0.0, 0.0, -1034.8410647918063, 0.0]
['beep', 0.0, -862.442059808023, 0.0, 0.0, 0.0, 0.0, -1033.946995013594, 0.0]
['beep', 0.0, -861.1903621185259, 0.0, 0.0, 0.0, 0.0, -1033.9916985025047, 0.0]
['beep', 0.0, -861.1456586296152, 0.0, 0.0, 0.0, 0.0, -1034.595195602798, 0.0]
['beep', 0.0, -858.3516905727018, 0.0, 0.0, 0.0, 0.0, -1034.8410647918063, 0.0]
['beep', 0.0, -858.21758010597, 0.0, 0.0, 0.0, 0.0, -1035.176340958636, 0.0]
['beep', 0.0, -863.0455569083163, 0.0, 0.0, 0.0, 0.0, -1034.1034572247813, 0.0]
['beep', 0.0, -863.7384609864308, 0.0, 0.0, 0.0, 0.0, -1033.7681810579516, 0.0]
['beep', 0.0, -863.4925917974224, 0.0, 0.0, 0.0, 0.0, -1033.4776083800327, 0.0]
['beep', 0.0, -862.375004574657, 0.0, 0.0, 0.0, 0.0, -1035.1986927030914, 0.0]
['beep', 0.0, -863.2690743528693, 0.0, 0.0, 0.0, 0.0, -1033.946995013594, 0.0]
['beep', 0.0, -863.6937574975202, 0.0, 0.0, 0.0, 0.0, -1033.589367102309, 0.0]
['beep', 0.0, -861.4809347964448, 0.0, 0.0, 0.0, 0.0, -1034.6398990917087, 0.0]
['beep', 0.0, -860.1398301291264, 0.0, 0.0, 0.0, 0.0, -1035.3328031698231, 0.0]
['beep', 0.0, -860.6762719960537, 0.0, 0.0, 0.0, 0.0, -1036.048058992393, 0.0]
['beep', 0.0, -861.2350656074365, 0.0, 0.0, 0.0, 0.0, -1034.9751752585382, 0.0]
['beep', 0.0, -865.5936557762213, 0.0, 0.0, 0.0, 0.0, -1033.589367102309, 0.0]
['beep', 0.0, -868.3876238331347, 0.0, 0.0, 0.0, 0.0, -1032.9411665131054, 0.0]
['beep', 0.0, -865.7054144984978, 0.0, 0.0, 0.0, 0.0, -1036.8080183038735, 0.0]
['beep', 0.0, -864.1631441310817, 0.0, 0.0, 0.0, 0.0, -1039.8478555497952, 0.0]
['beep', 0.0, -863.4925917974224, 0.0, 0.0, 0.0, 0.0, -1038.3502886712895, 0.0]
['beep', 0.0, -865.7724697318638, 0.0, 0.0, 0.0, 0.0, -1035.9363002701164, 0.0]
['beep', 0.0, -864.3196063422688, 0.0, 0.0, 0.0, 0.0, -1035.8692450367505, 0.0]
['beep', 0.0, -860.0727748957605, 0.0, 0.0, 0.0, 0.0, -1036.1374659702142, 0.0]
['beep', 0.0, -864.2749028533582, 0.0, 0.0, 0.0, 0.0, -1036.182169459125, 0.0]
['beep', 0.0, -870.1981151340145, 0.0, 0.0, 0.0, 0.0, -1035.2210444475465, 0.0]
['beep', 0.0, -870.6451500231207, 0.0, 0.0, 0.0, 0.0, -1036.2492246924908, 0.0]
['beep', 0.0, -868.2088098774923, 0.0, 0.0, 0.0, 0.0, -1037.657384593175, 0.0]
['beep', 0.0, -867.8735337106626, 0.0, 0.0, 0.0, 0.0, -1036.4280386481332, 0.0]
['beep', 0.0, -869.0581761667939, 0.0, 0.0, 0.0, 0.0, -1035.3775066587339, 0.0]
['beep', 0.0, -871.5839232902435, 0.0, 0.0, 0.0, 0.0, -1033.6117188467645, 0.0]
['beep', 0.0, -869.9075424560956, 0.0, 0.0, 0.0, 0.0, -1036.2268729480354, 0.0]
['beep', 0.0, -867.4935540549224, 0.0, 0.0, 0.0, 0.0, -1036.9197770261499, 0.0]
['beep', 0.0, -869.1699348890704, 0.0, 0.0, 0.0, 0.0, -1037.2550531929796, 0.0]
['beep', 0.0, -867.605312777199, 0.0, 0.0, 0.0, 0.0, -1036.1151142257588, 0.0]
['beep', 0.0, -866.375966832157, 0.0, 0.0, 0.0, 0.0, -1035.7351345700188, 0.0]
['beep', 0.0, -868.0076441773945, 0.0, 0.0, 0.0, 0.0, -1035.757486314474, 0.0]
['beep', 0.0, -869.0134726778833, 0.0, 0.0, 0.0, 0.0, -1035.0869339808148, 0.0]
['beep', 0.0, -869.9298942005508, 0.0, 0.0, 0.0, 0.0, -1034.72930606953, 0.0]
['beep', 0.0, -870.4886878119336, 0.0, 0.0, 0.0, 0.0, -1034.7740095584404, 0.0]
['beep', 0.0, -870.1757633895593, 0.0, 0.0, 0.0, 0.0, -1033.2540909354796, 0.0]
['beep', 0.0, -868.1641063885817, 0.0, 0.0, 0.0, 0.0, -1034.72930606953, 0.0]
['beep', 0.0, -867.8735337106626, 0.0, 0.0, 0.0, 0.0, -1035.1316374697253, 0.0]
['beep', 0.0, -870.376929089657, 0.0, 0.0, 0.0, 0.0, -1033.1646839576583, 0.0]
['beep', 0.0, -868.7452517444196, 0.0, 0.0, 0.0, 0.0, -1032.784704301918, 0.0]
['beep', 0.0, -866.9347604435397, 0.0, 0.0, 0.0, 0.0, -1033.723477569041, 0.0]
['beep', 0.0, -867.7841267328414, 0.0, 0.0, 0.0, 0.0, -1034.4163816471555, 0.0]
['beep', 0.0, -870.7122052564866, 0.0, 0.0, 0.0, 0.0, -1032.8294077908288, 0.0]
['beep', 0.0, -869.7287285004531, 0.0, 0.0, 0.0, 0.0, -1033.6340705912198, 0.0]
['beep', 0.0, -868.1864581330369, 0.0, 0.0, 0.0, 0.0, -1034.72930606953, 0.0]
['beep', 0.0, -866.3312633432464, 0.0, 0.0, 0.0, 0.0, -1034.9081200251724, 0.0]
['beep', 0.0, -867.7394232439308, 0.0, 0.0, 0.0, 0.0, -1035.690431081108, 0.0]
['beep', 0.0, -868.6558447665984, 0.0, 0.0, 0.0, 0.0, -1035.8692450367505, 0.0]
['beep', 0.0, -867.7617749883862, 0.0, 0.0, 0.0, 0.0, -1035.6457275921975, 0.0]
['beep', 0.0, -868.1864581330369, 0.0, 0.0, 0.0, 0.0, -1035.2880996809126, 0.0]
['beep', 0.0, -868.1194028996711, 0.0, 0.0, 0.0, 0.0, -1035.176340958636, 0.0]
['beep', 0.0, -866.8006499768079, 0.0, 0.0, 0.0, 0.0, -1034.9081200251724, 0.0]
['beep', 0.0, -867.9405889440286, 0.0, 0.0, 0.0, 0.0, -1034.885768280717, 0.0]
['beep', 0.0, -868.1641063885817, 0.0, 0.0, 0.0, 0.0, -1035.3775066587339, 0.0]
['beep', 0.0, -867.5159057993777, 0.0, 0.0, 0.0, 0.0, -1036.1151142257588, 0.0]
['beep', 0.0, -866.2865598543358, 0.0, 0.0, 0.0, 0.0, -1034.0587537358706, 0.0]
['beep', 0.0, -864.9231034425621, 0.0, 0.0, 0.0, 0.0, -1035.1539892141807, 0.0]
['beep', 0.0, -868.5887895332324, 0.0, 0.0, 0.0, 0.0, -1035.2657479364573, 0.0]
['beep', 0.0, -867.5159057993777, 0.0, 0.0, 0.0, 0.0, -1033.8575880357728, 0.0]
['beep', 0.0, -867.828830221752, 0.0, 0.0, 0.0, 0.0, -1031.756524056974, 0.0]
['beep', 0.0, -865.5042487984001, 0.0, 0.0, 0.0, 0.0, -1032.047096734893, 0.0]
['beep', 0.0, -867.7170714994754, 0.0, 0.0, 0.0, 0.0, -1033.7011258245857, 0.0]
['beep', 0.0, -866.2642081098805, 0.0, 0.0, 0.0, 0.0, -1034.1258089692365, 0.0]
['beep', 0.0, -865.9512836875062, 0.0, 0.0, 0.0, 0.0, -1033.2317391910242, 0.0]
['beep', 0.0, -867.7170714994754, 0.0, 0.0, 0.0, 0.0, -1033.6340705912198, 0.0]
['beep', 0.0, -867.2253331214587, 0.0, 0.0, 0.0, 0.0, -1033.2540909354796, 0.0]
['beep', 0.0, -866.5994842767101, 0.0, 0.0, 0.0, 0.0, -1033.9246432691389, 0.0]
['beep', 0.0, -867.9405889440286, 0.0, 0.0, 0.0, 0.0, -1035.2880996809126, 0.0]
['beep', 0.0, -868.3652720886794, 0.0, 0.0, 0.0, 0.0, -1033.9246432691389, 0.0]
['beep', 0.0, -865.5936557762213, 0.0, 0.0, 0.0, 0.0, -1033.1870357021137, 0.0]
['beep', 0.0, -866.3983185766124, 0.0, 0.0, 0.0, 0.0, -1033.567015357854, 0.0]
['beep', 0.0, -866.1077458986933, 0.0, 0.0, 0.0, 0.0, -1034.9304717696275, 0.0]
['beep', 0.0, -862.5538185302995, 0.0, 0.0, 0.0, 0.0, -1036.1151142257588, 0.0]
['beep', 0.0, -867.2923883548247, 0.0, 0.0, 0.0, 0.0, -1033.6117188467645, 0.0]
['beep', 0.0, -865.057213909294, 0.0, 0.0, 0.0, 0.0, -1033.567015357854, 0.0]
['beep', 0.0, -865.7724697318638, 0.0, 0.0, 0.0, 0.0, -1033.7681810579516, 0.0]
['beep', 0.0, -867.9852924329392, 0.0, 0.0, 0.0, 0.0, -1031.622413590242, 0.0]
['beep', 0.0, -867.7394232439308, 0.0, 0.0, 0.0, 0.0, -1031.2871374234126, 0.0]
['beep', 0.0, -863.9172749420733, 0.0, 0.0, 0.0, 0.0, -1032.91881476865, 0.0]
['beep', 0.0, -863.3584813306906, 0.0, 0.0, 0.0, 0.0, -1033.723477569041, 0.0]
['beep', 0.0, -866.375966832157, 0.0, 0.0, 0.0, 0.0, -1031.6671170791528, 0.0]
['beep', 0.0, -866.5100772988889, 0.0, 0.0, 0.0, 0.0, -1032.0247449904377, 0.0]
['beep', 0.0, -866.1748011320593, 0.0, 0.0, 0.0, 0.0, -1031.5106548679657, 0.0]
['beep', 0.0, -866.7335947434419, 0.0, 0.0, 0.0, 0.0, -1032.0694484793482, 0.0]
['beep', 0.0, -864.990158675928, 0.0, 0.0, 0.0, 0.0, -1031.5777101013316, 0.0]
['beep', 0.0, -862.8667429526738, 0.0, 0.0, 0.0, 0.0, -1030.951861256583, 0.0]
['beep', 0.0, -867.2923883548247, 0.0, 0.0, 0.0, 0.0, -1030.0354397339154, 0.0]
['beep', 0.0, -868.1864581330369, 0.0, 0.0, 0.0, 0.0, -1030.3930676452003, 0.0]
['beep', 0.0, -866.0406906653275, 0.0, 0.0, 0.0, 0.0, -1032.5835386018205, 0.0]
['beep', 0.0, -865.1019173982046, 0.0, 0.0, 0.0, 0.0, -1031.7341723125187, 0.0]
['beep', 0.0, -866.4653738099782, 0.0, 0.0, 0.0, 0.0, -1031.7118205680633, 0.0]
['beep', 0.0, -865.861876709685, 0.0, 0.0, 0.0, 0.0, -1032.0918002238036, 0.0]
['beep', 0.0, -865.1913243760258, 0.0, 0.0, 0.0, 0.0, -1031.8906345237058, 0.0]
['beep', 0.0, -870.6898535120313, 0.0, 0.0, 0.0, 0.0, -1032.6729455796417, 0.0]
['beep', 0.0, -867.9629406884839, 0.0, 0.0, 0.0, 0.0, -1035.019878747449, 0.0]
['beep', 0.0, -868.3205685997688, 0.0, 0.0, 0.0, 0.0, -1035.3551549142785, 0.0]
['beep', 0.0, -866.7112429989867, 0.0, 0.0, 0.0, 0.0, -1035.4892653810102, 0.0]
['beep', 0.0, -868.0523476663051, 0.0, 0.0, 0.0, 0.0, -1034.9081200251724, 0.0]
['beep', 0.0, -866.443022065523, 0.0, 0.0, 0.0, 0.0, -1035.9363002701164, 0.0]
['beep', 0.0, -868.633493022143, 0.0, 0.0, 0.0, 0.0, -1036.3162799258566, 0.0]
['beep', 0.0, -865.5936557762213, 0.0, 0.0, 0.0, 0.0, -1037.724439826541, 0.0]
['beep', 0.0, -863.7161092419755, 0.0, 0.0, 0.0, 0.0, -1040.0937247388035, 0.0]
['beep', 0.0, -869.2369901224364, 0.0, 0.0, 0.0, 0.0, -1038.3949921602002, 0.0]
['beep', 0.0, -868.9017139556067, 0.0, 0.0, 0.0, 0.0, -1039.1549514716808, 0.0]
['beep', 0.0, -866.375966832157, 0.0, 0.0, 0.0, 0.0, -1041.568939872854, 0.0]
['beep', 0.0, -866.2195046209699, 0.0, 0.0, 0.0, 0.0, -1042.5747683733425, 0.0]
['beep', 0.0, -870.4886878119336, 0.0, 0.0, 0.0, 0.0, -1041.4571811505773, 0.0]
['beep', 0.0, -868.0746994107604, 0.0, 0.0, 0.0, 0.0, -1041.3901259172114, 0.0]
['beep', 0.0, -870.376929089657, 0.0, 0.0, 0.0, 0.0, -1042.083029995326, 0.0]
['beep', 0.0, -868.3876238331347, 0.0, 0.0, 0.0, 0.0, -1042.7312305845298, 0.0]
['beep', 0.0, -868.7452517444196, 0.0, 0.0, 0.0, 0.0, -1044.4299631631332, 0.0]
['beep', 0.0, -869.5275628003553, 0.0, 0.0, 0.0, 0.0, -1043.2900241959126, 0.0]
['beep', 0.0, -866.0630424097827, 0.0, 0.0, 0.0, 0.0, -1044.3852596742224, 0.0]
['beep', 0.0, -866.8900569546291, 0.0, 0.0, 0.0, 0.0, -1045.1899224746135, 0.0]
['beep', 0.0, -870.9133709565843, 0.0, 0.0, 0.0, 0.0, -1044.787591074418, 0.0]
['beep', 0.0, -864.9007516981068, 0.0, 0.0, 0.0, 0.0, -1046.2628062084682, 0.0]
['beep', 0.0, -865.4818970539447, 0.0, 0.0, 0.0, 0.0, -1047.3803934312336, 0.0]
['beep', 0.0, -868.1417546441263, 0.0, 0.0, 0.0, 0.0, -1045.3240329413454, 0.0]
['beep', 0.0, -866.2195046209699, 0.0, 0.0, 0.0, 0.0, -1044.20644571858, 0.0]
['beep', 0.0, -863.4255365640565, 0.0, 0.0, 0.0, 0.0, -1046.754544586485, 0.0]
['beep', 0.0, -865.3254348427577, 0.0, 0.0, 0.0, 0.0, -1046.1510474861918, 0.0]
['beep', 0.0, -867.3817953326459, 0.0, 0.0, 0.0, 0.0, -1044.0723352518482, 0.0]
['beep', 0.0, -863.023205163861, 0.0, 0.0, 0.0, 0.0, -1047.045117264404, 0.0]
['beep', 0.0, -867.7617749883862, 0.0, 0.0, 0.0, 0.0, -1049.660271365675, 0.0]
['beep', 0.0, -870.5333913008442, 0.0, 0.0, 0.0, 0.0, -1046.1957509751023, 0.0]
['beep', 0.0, -867.1582778880928, 0.0, 0.0, 0.0, 0.0, -1044.7428875855073, 0.0]
['beep', 0.0, -865.1019173982046, 0.0, 0.0, 0.0, 0.0, -1047.2239312200466, 0.0]
['beep', 0.0, -867.4264988215565, 0.0, 0.0, 0.0, 0.0, -1047.559207386876, 0.0]
['beep', 0.0, -865.2583796093917, 0.0, 0.0, 0.0, 0.0, -1050.5543411438873, 0.0]
['beep', 0.0, -864.7666412313749, 0.0, 0.0, 0.0, 0.0, -1051.1578382441805, 0.0]
['beep', 0.0, -862.5091150413889, 0.0, 0.0, 0.0, 0.0, -1051.3143004553676, 0.0]
['beep', 0.0, -863.2690743528693, 0.0, 0.0, 0.0, 0.0, -1049.3920504322114, 0.0]
['beep', 0.0, -864.6548825090985, 0.0, 0.0, 0.0, 0.0, -1047.7827248314293, 0.0]
['beep', 0.0, -866.957112187995, 0.0, 0.0, 0.0, 0.0, -1047.8721318092505, 0.0]
['beep', 0.0, -869.0805279112492, 0.0, 0.0, 0.0, 0.0, -1046.3969166752001, 0.0]
['beep', 0.0, -867.828830221752, 0.0, 0.0, 0.0, 0.0, -1044.0946869963036, 0.0]
['beep', 0.0, -866.1300976431487, 0.0, 0.0, 0.0, 0.0, -1047.3356899423231, 0.0]
['beep', 0.0, -866.9347604435397, 0.0, 0.0, 0.0, 0.0, -1048.497980653999, 0.0]
['beep', 0.0, -865.4148418205789, 0.0, 0.0, 0.0, 0.0, -1043.468838151555, 0.0]
['beep', 0.0, -863.537295286333, 0.0, 0.0, 0.0, 0.0, -1046.307509697379, 0.0]
['beep', 0.0, -863.537295286333, 0.0, 0.0, 0.0, 0.0, -1045.5251986414432, 0.0]
['beep', 0.0, -865.280731353847, 0.0, 0.0, 0.0, 0.0, -1043.4241346626443, 0.0]
['beep', 0.0, -864.990158675928, 0.0, 0.0, 0.0, 0.0, -1044.854646307784, 0.0]
['beep', 0.0, -863.023205163861, 0.0, 0.0, 0.0, 0.0, -1046.7321928420297, 0.0]
['beep', 0.0, -863.7161092419755, 0.0, 0.0, 0.0, 0.0, -1045.1005154967922, 0.0]
['beep', 0.0, -862.7549842303973, 0.0, 0.0, 0.0, 0.0, -1045.659309108175, 0.0]
['beep', 0.0, -860.4974580404113, 0.0, 0.0, 0.0, 0.0, -1047.045117264404, 0.0]
['beep', 0.0, -856.9211789275622, 0.0, 0.0, 0.0, 0.0, -1048.4532771650884, 0.0]
['beep', 0.0, -859.1340016286375, 0.0, 0.0, 0.0, 0.0, -1044.2511492074907, 0.0]
['beep', 0.0, -861.9503214300063, 0.0, 0.0, 0.0, 0.0, -1044.20644571858, 0.0]
['beep', 0.0, -861.860914452185, 0.0, 0.0, 0.0, 0.0, -1045.7487160859962, 0.0]
['beep', 0.0, -862.6879289970313, 0.0, 0.0, 0.0, 0.0, -1044.653480607686, 0.0]
['beep', 0.0, -862.732632485942, 0.0, 0.0, 0.0, 0.0, -1041.9712712730493, 0.0]
['beep', 0.0, -863.537295286333, 0.0, 0.0, 0.0, 0.0, -1044.139390485214, 0.0]
['beep', 0.0, -862.7773359748526, 0.0, 0.0, 0.0, 0.0, -1042.7982858178957, 0.0]
['beep', 0.0, -863.6490540086096, 0.0, 0.0, 0.0, 0.0, -1040.9877945170158, 0.0]
['beep', 0.0, -864.7442894869197, 0.0, 0.0, 0.0, 0.0, -1040.8983875391946, 0.0]
['beep', 0.0, -864.4984202979113, 0.0, 0.0, 0.0, 0.0, -1042.2841956954237, 0.0]
['beep', 0.0, -866.0406906653275, 0.0, 0.0, 0.0, 0.0, -1042.4853613955213, 0.0]
['beep', 0.0, -861.9279696855509, 0.0, 0.0, 0.0, 0.0, -1041.7030503395856, 0.0]
['beep', 0.0, -864.185495875537, 0.0, 0.0, 0.0, 0.0, -1040.2501869499906, 0.0]
['beep', 0.0, -862.732632485942, 0.0, 0.0, 0.0, 0.0, -1042.9323962846277, 0.0]
['beep', 0.0, -862.0173766633721, 0.0, 0.0, 0.0, 0.0, -1044.1840939741248, 0.0]
['beep', 0.0, -862.4644115524783, 0.0, 0.0, 0.0, 0.0, -1040.116076483259, 0.0]
['beep', 0.0, -860.9668446739728, 0.0, 0.0, 0.0, 0.0, -1039.9596142720718, 0.0]
['beep', 0.0, -862.3303010857464, 0.0, 0.0, 0.0, 0.0, -1043.3123759403677, 0.0]
['beep', 0.0, -862.4644115524783, 0.0, 0.0, 0.0, 0.0, -1040.1607799721694, 0.0]
['beep', 0.0, -864.2972545978135, 0.0, 0.0, 0.0, 0.0, -1038.663213093664, 0.0]
['beep', 0.0, -863.6490540086096, 0.0, 0.0, 0.0, 0.0, -1039.0431927494042, 0.0]
['beep', 0.0, -862.1738388745594, 0.0, 0.0, 0.0, 0.0, -1038.8867305382169, 0.0]
['beep', 0.0, -860.9668446739728, 0.0, 0.0, 0.0, 0.0, -1039.3337654273232, 0.0]
['beep', 0.0, -864.3866615756348, 0.0, 0.0, 0.0, 0.0, -1037.7467915709963, 0.0]
['beep', 0.0, -865.9736354319615, 0.0, 0.0, 0.0, 0.0, -1037.5232741264433, 0.0]
['beep', 0.0, -863.537295286333, 0.0, 0.0, 0.0, 0.0, -1039.8255038053398, 0.0]
['beep', 0.0, -863.2914260973247, 0.0, 0.0, 0.0, 0.0, -1042.530064884432, 0.0]
['beep', 0.0, -859.8492574512074, 0.0, 0.0, 0.0, 0.0, -1042.9100445401723, 0.0]
['beep', 0.0, -864.3196063422688, 0.0, 0.0, 0.0, 0.0, -1036.629204348231, 0.0]
['beep', 0.0, -861.9726731744615, 0.0, 0.0, 0.0, 0.0, -1040.6748700946416, 0.0]
['beep', 0.0, -861.7044522409979, 0.0, 0.0, 0.0, 0.0, -1038.663213093664, 0.0]
['beep', 0.0, -865.1242691426598, 0.0, 0.0, 0.0, 0.0, -1037.2774049374348, 0.0]
['beep', 0.0, -864.6548825090985, 0.0, 0.0, 0.0, 0.0, -1035.82454154784, 0.0]
['beep', 0.0, -864.9454551870174, 0.0, 0.0, 0.0, 0.0, -1042.0606782508705, 0.0]
['beep', 0.0, -866.4653738099782, 0.0, 0.0, 0.0, 0.0, -1041.1219049837478, 0.0]
['beep', 0.0, -864.8783999536515, 0.0, 0.0, 0.0, 0.0, -1037.210349704069, 0.0]
['beep', 0.0, -863.1796673750481, 0.0, 0.0, 0.0, 0.0, -1035.690431081108, 0.0]
['beep', 0.0, -861.8385627077297, 0.0, 0.0, 0.0, 0.0, -1039.0655444938595, 0.0]
['beep', 0.0, -861.9726731744615, 0.0, 0.0, 0.0, 0.0, -1041.1219049837478, 0.0]
['beep', 0.0, -861.9503214300063, 0.0, 0.0, 0.0, 0.0, -1044.273500951946, 0.0]
['beep', 0.0, -859.3575190731906, 0.0, 0.0, 0.0, 0.0, -1038.5738061158427, 0.0]
['beep', 0.0, -860.8774376961516, 0.0, 0.0, 0.0, 0.0, -1037.5456258708984, 0.0]
['beep', 0.0, -860.2292371069476, 0.0, 0.0, 0.0, 0.0, -1039.3784689162337, 0.0]
['beep', 0.0, -860.9668446739728, 0.0, 0.0, 0.0, 0.0, -1040.3842974167226, 0.0]
['beep', 0.0, -863.3584813306906, 0.0, 0.0, 0.0, 0.0, -1039.1549514716808, 0.0]
['beep', 0.0, -862.2632458523806, 0.0, 0.0, 0.0, 0.0, -1035.3551549142785, 0.0]
['beep', 0.0, -861.8162109632744, 0.0, 0.0, 0.0, 0.0, -1037.6350328487197, 0.0]
['beep', 0.0, -861.570341774266, 0.0, 0.0, 0.0, 0.0, -1044.3629079297673, 0.0]
['beep', 0.0, -862.0173766633721, 0.0, 0.0, 0.0, 0.0, -1038.4843991380214, 0.0]
['beep', 0.0, -863.7161092419755, 0.0, 0.0, 0.0, 0.0, -1042.820637562351, 0.0]
['beep', 0.0, -861.6597487520872, 0.0, 0.0, 0.0, 0.0, -1044.3852596742224, 0.0]
['beep', 0.0, -860.9221411850622, 0.0, 0.0, 0.0, 0.0, -1037.7467915709963, 0.0]
['beep', 0.0, -862.9785016749504, 0.0, 0.0, 0.0, 0.0, -1037.0985909817923, 0.0]
['beep', 0.0, -864.0066819198945, 0.0, 0.0, 0.0, 0.0, -1036.4280386481332, 0.0]
['beep', 0.0, -858.0611178947828, 0.0, 0.0, 0.0, 0.0, -1037.6126811042645, 0.0]
['beep', 0.0, -858.8657806951738, 0.0, 0.0, 0.0, 0.0, -1036.9197770261499, 0.0]
['beep', 0.0, -862.7549842303973, 0.0, 0.0, 0.0, 0.0, -1038.8420270493064, 0.0]
['beep', 0.0, -855.4906672824225, 0.0, 0.0, 0.0, 0.0, -1039.0655444938595, 0.0]
['beep', 0.0, -860.6762719960537, 0.0, 0.0, 0.0, 0.0, -1035.0645822363595, 0.0]
['beep', 0.0, -861.3915278186236, 0.0, 0.0, 0.0, 0.0, -1038.2385299490131, 0.0]
['beep', 0.0, -865.4371935650341, 0.0, 0.0, 0.0, 0.0, -1034.1481607136918, 0.0]
['beep', 0.0, -863.9843301754393, 0.0, 0.0, 0.0, 0.0, -1032.270614179446, 0.0]
['beep', 0.0, -858.3069870837912, 0.0, 0.0, 0.0, 0.0, -1031.8459310347953, 0.0]
['beep', 0.0, -862.9785016749504, 0.0, 0.0, 0.0, 0.0, -1033.1870357021137, 0.0]
['beep', 0.0, -860.6762719960537, 0.0, 0.0, 0.0, 0.0, -1033.9693467580494, 0.0]
['beep', 0.0, -860.6762719960537, 0.0, 0.0, 0.0, 0.0, -1033.142332213203, 0.0]
['beep', 0.0, -865.1019173982046, 0.0, 0.0, 0.0, 0.0, -1037.2327014485243, 0.0]
['beep', 0.0, -861.7268039854532, 0.0, 0.0, 0.0, 0.0, -1039.3784689162337, 0.0]
['beep', 0.0, -857.3905655611236, 0.0, 0.0, 0.0, 0.0, -1036.1374659702142, 0.0]
['beep', 0.0, -861.9503214300063, 0.0, 0.0, 0.0, 0.0, -1028.5825763443204, 0.0]
['beep', 0.0, -865.0125104203834, 0.0, 0.0, 0.0, 0.0, -1027.2191199325466, 0.0]
['beep', 0.0, -866.3312633432464, 0.0, 0.0, 0.0, 0.0, -1034.0364019914152, 0.0]
['beep', 0.0, -861.4809347964448, 0.0, 0.0, 0.0, 0.0, -1035.3104514253678, 0.0]
['beep', 0.0, -859.4692777954672, 0.0, 0.0, 0.0, 0.0, -1034.4387333916109, 0.0]
['beep', 0.0, -862.6432255081207, 0.0, 0.0, 0.0, 0.0, -1027.889672266206, 0.0]
['beep', 0.0, -866.957112187995, 0.0, 0.0, 0.0, 0.0, -1027.085009465815, 0.0]
['beep', 0.0, -863.0455569083163, 0.0, 0.0, 0.0, 0.0, -1031.0859717233147, 0.0]
['beep', 0.0, -864.8336964647409, 0.0, 0.0, 0.0, 0.0, -1035.466913636555, 0.0]
['beep', 0.0, -865.8171732207744, 0.0, 0.0, 0.0, 0.0, -1031.8459310347953, 0.0]
['beep', 0.0, -865.3701383316683, 0.0, 0.0, 0.0, 0.0, -1029.2307769335243, 0.0]
['beep', 0.0, -865.1019173982046, 0.0, 0.0, 0.0, 0.0, -1027.5096926104657, 0.0]
['beep', 0.0, -862.21854236347, 0.0, 0.0, 0.0, 0.0, -1029.8789775227283, 0.0]
['beep', 0.0, -862.8890946971292, 0.0, 0.0, 0.0, 0.0, -1029.655460078175, 0.0]
['beep', 0.0, -864.6101790201878, 0.0, 0.0, 0.0, 0.0, -1029.5437013558985, 0.0]
['beep', 0.0, -864.2078476199923, 0.0, 0.0, 0.0, 0.0, -1030.3483641562896, 0.0]
['beep', 0.0, -861.1009551407046, 0.0, 0.0, 0.0, 0.0, -1029.9013292671834, 0.0]
['beep', 0.0, -861.7715074743638, 0.0, 0.0, 0.0, 0.0, -1029.2307769335243, 0.0]
['beep', 0.0, -864.1631441310817, 0.0, 0.0, 0.0, 0.0, -1030.1024949672812, 0.0]
['beep', 0.0, -867.7841267328414, 0.0, 0.0, 0.0, 0.0, -1028.3590588997674, 0.0]
['beep', 0.0, -865.9736354319615, 0.0, 0.0, 0.0, 0.0, -1028.2025966885801, 0.0]
['beep', 0.0, -862.9785016749504, 0.0, 0.0, 0.0, 0.0, -1029.2754804224348, 0.0]
['beep', 0.0, -861.4809347964448, 0.0, 0.0, 0.0, 0.0, -1030.4377711341108, 0.0]
['beep', 0.0, -862.8890946971292, 0.0, 0.0, 0.0, 0.0, -1031.2200821900467, 0.0]
['beep', 0.0, -861.4138795630789, 0.0, 0.0, 0.0, 0.0, -1031.3541926567784, 0.0]
['beep', 0.0, -862.4197080635677, 0.0, 0.0, 0.0, 0.0, -1030.7283438120298, 0.0]
['beep', 0.0, -864.0737371532605, 0.0, 0.0, 0.0, 0.0, -1028.5155211109545, 0.0]
['beep', 0.0, -864.8336964647409, 0.0, 0.0, 0.0, 0.0, -1027.8673205217506, 0.0]
['beep', 0.0, -865.057213909294, 0.0, 0.0, 0.0, 0.0, -1029.0519629778819, 0.0]
['beep', 0.0, -865.0348621648386, 0.0, 0.0, 0.0, 0.0, -1029.1637217001585, 0.0]
['beep', 0.0, -863.827867964252, 0.0, 0.0, 0.0, 0.0, -1028.0684862218484, 0.0]
['beep', 0.0, -865.8395249652297, 0.0, 0.0, 0.0, 0.0, -1028.6719833221416, 0.0]
['beep', 0.0, -864.9007516981068, 0.0, 0.0, 0.0, 0.0, -1029.6778118226305, 0.0]
['beep', 0.0, -863.9396266865286, 0.0, 0.0, 0.0, 0.0, -1029.7001635670858, 0.0]
['beep', 0.0, -864.5878272757325, 0.0, 0.0, 0.0, 0.0, -1030.5495298563874, 0.0]
['beep', 0.0, -864.9231034425621, 0.0, 0.0, 0.0, 0.0, -1028.560224599865, 0.0]
['beep', 0.0, -864.6995859980091, 0.0, 0.0, 0.0, 0.0, -1026.079180965326, 0.0]
['beep', 0.0, -865.1466208871152, 0.0, 0.0, 0.0, 0.0, -1027.6885065661081, 0.0]
['beep', 0.0, -863.2020191195035, 0.0, 0.0, 0.0, 0.0, -1031.600061845787, 0.0]
['beep', 0.0, -864.6101790201878, 0.0, 0.0, 0.0, 0.0, -1031.465951379055, 0.0]
['beep', 0.0, -865.5042487984001, 0.0, 0.0, 0.0, 0.0, -1029.789570544907, 0.0]
['beep', 0.0, -866.4877255544336, 0.0, 0.0, 0.0, 0.0, -1032.628242090731, 0.0]
['beep', 0.0, -865.8395249652297, 0.0, 0.0, 0.0, 0.0, -1032.5164833684544, 0.0]
['beep', 0.0, -863.7161092419755, 0.0, 0.0, 0.0, 0.0, -1030.9742130010384, 0.0]
['beep', 0.0, -864.7889929758303, 0.0, 0.0, 0.0, 0.0, -1030.527178111932, 0.0]
['beep', 0.0, -866.2642081098805, 0.0, 0.0, 0.0, 0.0, -1032.047096734893, 0.0]
['beep', 0.0, -865.1019173982046, 0.0, 0.0, 0.0, 0.0, -1032.404724646178, 0.0]
['beep', 0.0, -864.3196063422688, 0.0, 0.0, 0.0, 0.0, -1032.4717798795439, 0.0]
['beep', 0.0, -863.7608127308861, 0.0, 0.0, 0.0, 0.0, -1032.9635182575605, 0.0]
['beep', 0.0, -865.2136761204811, 0.0, 0.0, 0.0, 0.0, -1034.1258089692365, 0.0]
['beep', 0.0, -866.3089115987912, 0.0, 0.0, 0.0, 0.0, -1033.2987944243903, 0.0]
['beep', 0.0, -864.3643098311794, 0.0, 0.0, 0.0, 0.0, -1033.7011258245857, 0.0]
['beep', 0.0, -864.2301993644476, 0.0, 0.0, 0.0, 0.0, -1033.790532802407, 0.0]
['beep', 0.0, -864.5654755312772, 0.0, 0.0, 0.0, 0.0, -1033.2987944243903, 0.0]
['beep', 0.0, -865.7054144984978, 0.0, 0.0, 0.0, 0.0, -1033.8799397802281, 0.0]
['beep', 0.0, -868.9240657000621, 0.0, 0.0, 0.0, 0.0, -1034.528140369432, 0.0]
['beep', 0.0, -866.7335947434419, 0.0, 0.0, 0.0, 0.0, -1033.9246432691389, 0.0]
['beep', 0.0, -869.1699348890704, 0.0, 0.0, 0.0, 0.0, -1031.465951379055, 0.0]
['beep', 0.0, -868.0523476663051, 0.0, 0.0, 0.0, 0.0, -1032.561186857365, 0.0]
['beep', 0.0, -867.4488505660117, 0.0, 0.0, 0.0, 0.0, -1032.1812072016248, 0.0]
['beep', 0.0, -867.6947197550202, 0.0, 0.0, 0.0, 0.0, -1032.5388351129097, 0.0]
['beep', 0.0, -867.4488505660117, 0.0, 0.0, 0.0, 0.0, -1032.337669412812, 0.0]
['beep', 0.0, -867.247684865914, 0.0, 0.0, 0.0, 0.0, -1031.6671170791528, 0.0]
['beep', 0.0, -867.7170714994754, 0.0, 0.0, 0.0, 0.0, -1032.5835386018205, 0.0]
['beep', 0.0, -867.4041470771011, 0.0, 0.0, 0.0, 0.0, -1034.8187130473511, 0.0]
['beep', 0.0, -867.2700366103693, 0.0, 0.0, 0.0, 0.0, -1034.3940299027001, 0.0]
['beep', 0.0, -868.3429203442241, 0.0, 0.0, 0.0, 0.0, -1031.8906345237058, 0.0]
['beep', 0.0, -870.0416529228274, 0.0, 0.0, 0.0, 0.0, -1031.8906345237058, 0.0]
['beep', 0.0, -868.9687691889727, 0.0, 0.0, 0.0, 0.0, -1033.589367102309, 0.0]
['beep', 0.0, -868.7228999999643, 0.0, 0.0, 0.0, 0.0, -1033.4552566355774, 0.0]
['beep', 0.0, -868.7228999999643, 0.0, 0.0, 0.0, 0.0, -1032.6952973240968, 0.0]
['beep', 0.0, -867.5829610327436, 0.0, 0.0, 0.0, 0.0, -1032.8070560463734, 0.0]
['beep', 0.0, -867.9405889440286, 0.0, 0.0, 0.0, 0.0, -1032.784704301918, 0.0]
['beep', 0.0, -867.6500162661096, 0.0, 0.0, 0.0, 0.0, -1033.0082217464712, 0.0]
['beep', 0.0, -867.6723680105648, 0.0, 0.0, 0.0, 0.0, -1033.5223118689432, 0.0]
['beep', 0.0, -869.6393215226319, 0.0, 0.0, 0.0, 0.0, -1033.1870357021137, 0.0]
['beep', 0.0, -870.1981151340145, 0.0, 0.0, 0.0, 0.0, -1033.276442679935, 0.0]
['beep', 0.0, -869.1699348890704, 0.0, 0.0, 0.0, 0.0, -1033.4105531466666, 0.0]
['beep', 0.0, -868.6558447665984, 0.0, 0.0, 0.0, 0.0, -1032.6952973240968, 0.0]
['beep', 0.0, -868.3429203442241, 0.0, 0.0, 0.0, 0.0, -1033.9022915246835, 0.0]
['beep', 0.0, -868.0076441773945, 0.0, 0.0, 0.0, 0.0, -1033.4552566355774, 0.0]
['beep', 0.0, -867.1806296325481, 0.0, 0.0, 0.0, 0.0, -1031.8459310347953, 0.0]
['beep', 0.0, -866.9347604435397, 0.0, 0.0, 0.0, 0.0, -1031.8906345237058, 0.0]
['beep', 0.0, -868.0746994107604, 0.0, 0.0, 0.0, 0.0, -1032.8294077908288, 0.0]
['beep', 0.0, -867.7617749883862, 0.0, 0.0, 0.0, 0.0, -1033.7011258245857, 0.0]
['beep', 0.0, -868.0970511552157, 0.0, 0.0, 0.0, 0.0, -1034.081105480326, 0.0]
['beep', 0.0, -868.9017139556067, 0.0, 0.0, 0.0, 0.0, -1033.075276979837, 0.0]
['beep', 0.0, -869.0134726778833, 0.0, 0.0, 0.0, 0.0, -1032.337669412812, 0.0]
['beep', 0.0, -866.2418563654252, 0.0, 0.0, 0.0, 0.0, -1032.8517595352841, 0.0]
['beep', 0.0, -868.0746994107604, 0.0, 0.0, 0.0, 0.0, -1032.8294077908288, 0.0]
['beep', 0.0, -866.1971528765146, 0.0, 0.0, 0.0, 0.0, -1033.723477569041, 0.0]
['beep', 0.0, -866.8453534657185, 0.0, 0.0, 0.0, 0.0, -1034.1258089692365, 0.0]
['beep', 0.0, -868.1864581330369, 0.0, 0.0, 0.0, 0.0, -1031.8906345237058, 0.0]
['beep', 0.0, -867.5159057993777, 0.0, 0.0, 0.0, 0.0, -1033.3434979133008, 0.0]
['beep', 0.0, -867.4935540549224, 0.0, 0.0, 0.0, 0.0, -1034.1481607136918, 0.0]
['beep', 0.0, -867.6947197550202, 0.0, 0.0, 0.0, 0.0, -1033.6340705912198, 0.0]
['beep', 0.0, -869.3487488447129, 0.0, 0.0, 0.0, 0.0, -1035.3551549142785, 0.0]
['beep', 0.0, -869.3040453558023, 0.0, 0.0, 0.0, 0.0, -1036.20452120358, 0.0]
['beep', 0.0, -866.5547807877995, 0.0, 0.0, 0.0, 0.0, -1036.4280386481332, 0.0]
['beep', 0.0, -868.0076441773945, 0.0, 0.0, 0.0, 0.0, -1034.2599194359684, 0.0]
['beep', 0.0, -867.6723680105648, 0.0, 0.0, 0.0, 0.0, -1036.7186113260523, 0.0]
['beep', 0.0, -866.0183389208721, 0.0, 0.0, 0.0, 0.0, -1037.657384593175, 0.0]
['beep', 0.0, -866.8677052101738, 0.0, 0.0, 0.0, 0.0, -1037.2997566818901, 0.0]
['beep', 0.0, -866.957112187995, 0.0, 0.0, 0.0, 0.0, -1037.8809020377282, 0.0]
['beep', 0.0, -867.4041470771011, 0.0, 0.0, 0.0, 0.0, -1038.305585182379, 0.0]
['beep', 0.0, -867.8735337106626, 0.0, 0.0, 0.0, 0.0, -1038.2161782045578, 0.0]
['beep', 0.0, -867.4935540549224, 0.0, 0.0, 0.0, 0.0, -1037.5456258708984, 0.0]
['beep', 0.0, -867.5606092882883, 0.0, 0.0, 0.0, 0.0, -1038.6408613492085, 0.0]
['beep', 0.0, -868.3876238331347, 0.0, 0.0, 0.0, 0.0, -1039.624338105242, 0.0]
['beep', 0.0, -867.9182371995732, 0.0, 0.0, 0.0, 0.0, -1037.657384593175, 0.0]
['beep', 0.0, -865.4148418205789, 0.0, 0.0, 0.0, 0.0, -1037.791495059907, 0.0]
['beep', 0.0, -864.2301993644476, 0.0, 0.0, 0.0, 0.0, -1037.8809020377282, 0.0]
['beep', 0.0, -864.0290336643499, 0.0, 0.0, 0.0, 0.0, -1036.8080183038735, 0.0]
['beep', 0.0, -863.2690743528693, 0.0, 0.0, 0.0, 0.0, -1036.7186113260523, 0.0]
['beep', 0.0, -862.7996877193079, 0.0, 0.0, 0.0, 0.0, -1036.9197770261499, 0.0]
['beep', 0.0, -865.057213909294, 0.0, 0.0, 0.0, 0.0, -1036.7186113260523, 0.0]
['beep', 0.0, -866.7782982323525, 0.0, 0.0, 0.0, 0.0, -1037.6126811042645, 0.0]
['beep', 0.0, -867.7394232439308, 0.0, 0.0, 0.0, 0.0, -1036.5845008593203, 0.0]
['beep', 0.0, -869.4828593114447, 0.0, 0.0, 0.0, 0.0, -1038.8643787937617, 0.0]
['beep', 0.0, -867.9182371995732, 0.0, 0.0, 0.0, 0.0, -1040.3842974167226, 0.0]
['beep', 0.0, -867.8735337106626, 0.0, 0.0, 0.0, 0.0, -1038.7526200714851, 0.0]
['beep', 0.0, -868.1864581330369, 0.0, 0.0, 0.0, 0.0, -1037.9703090155494, 0.0]
['beep', 0.0, -866.6441877656207, 0.0, 0.0, 0.0, 0.0, -1039.3784689162337, 0.0]
['beep', 0.0, -866.9347604435397, 0.0, 0.0, 0.0, 0.0, -1038.7079165825744, 0.0]
['beep', 0.0, -868.7899552333303, 0.0, 0.0, 0.0, 0.0, -1037.9703090155494, 0.0]
['beep', 0.0, -867.8511819662074, 0.0, 0.0, 0.0, 0.0, -1037.500922381988, 0.0]
['beep', 0.0, -869.7510802449084, 0.0, 0.0, 0.0, 0.0, -1038.149122971192, 0.0]
['beep', 0.0, -869.3040453558023, 0.0, 0.0, 0.0, 0.0, -1039.4231724051444, 0.0]
['beep', 0.0, -869.0134726778833, 0.0, 0.0, 0.0, 0.0, -1038.9984892604934, 0.0]
['beep', 0.0, -869.4381558225341, 0.0, 0.0, 0.0, 0.0, -1038.0820677378258, 0.0]
['beep', 0.0, -868.4546790665006, 0.0, 0.0, 0.0, 0.0, -1038.0597159933707, 0.0]
['beep', 0.0, -867.7617749883862, 0.0, 0.0, 0.0, 0.0, -1038.2385299490131, 0.0]
['beep', 0.0, -867.1135743991822, 0.0, 0.0, 0.0, 0.0, -1038.5067508824768, 0.0]
['beep', 0.0, -867.5606092882883, 0.0, 0.0, 0.0, 0.0, -1038.7302683270298, 0.0]
['beep', 0.0, -868.8793622111515, 0.0, 0.0, 0.0, 0.0, -1038.2608816934683, 0.0]
['beep', 0.0, -868.5440860443218, 0.0, 0.0, 0.0, 0.0, -1037.9703090155494, 0.0]
['beep', 0.0, -867.8511819662074, 0.0, 0.0, 0.0, 0.0, -1037.0538874928818, 0.0]
['beep', 0.0, -868.2311616219475, 0.0, 0.0, 0.0, 0.0, -1036.6739078371415, 0.0]
['beep', 0.0, -869.0358244223386, 0.0, 0.0, 0.0, 0.0, -1036.4727421370437, 0.0]
['beep', 0.0, -869.0805279112492, 0.0, 0.0, 0.0, 0.0, -1036.6739078371415, 0.0]
['beep', 0.0, -870.6898535120313, 0.0, 0.0, 0.0, 0.0, -1037.7691433154516, 0.0]
['beep', 0.0, -870.5110395563888, 0.0, 0.0, 0.0, 0.0, -1037.8138468043621, 0.0]
['beep', 0.0, -869.1028796557046, 0.0, 0.0, 0.0, 0.0, -1038.3279369268344, 0.0]
['beep', 0.0, -868.5664377887772, 0.0, 0.0, 0.0, 0.0, -1038.1044194822812, 0.0]
['beep', 0.0, -869.0134726778833, 0.0, 0.0, 0.0, 0.0, -1037.8138468043621, 0.0]
['beep', 0.0, -869.4158040780788, 0.0, 0.0, 0.0, 0.0, -1037.433867148622, 0.0]
['beep', 0.0, -867.895885455118, 0.0, 0.0, 0.0, 0.0, -1038.149122971192, 0.0]
['beep', 0.0, -867.4488505660117, 0.0, 0.0, 0.0, 0.0, -1037.5903293598092, 0.0]
['beep', 0.0, -866.7335947434419, 0.0, 0.0, 0.0, 0.0, -1038.6185096047532, 0.0]
['beep', 0.0, -866.6888912545313, 0.0, 0.0, 0.0, 0.0, -1038.7526200714851, 0.0]
['beep', 0.0, -868.7452517444196, 0.0, 0.0, 0.0, 0.0, -1038.9984892604934, 0.0]
['beep', 0.0, -868.6111412776878, 0.0, 0.0, 0.0, 0.0, -1038.5067508824768, 0.0]
['beep', 0.0, -867.9405889440286, 0.0, 0.0, 0.0, 0.0, -1036.8080183038735, 0.0]
['beep', 0.0, -867.2253331214587, 0.0, 0.0, 0.0, 0.0, -1037.2997566818901, 0.0]
['beep', 0.0, -869.2369901224364, 0.0, 0.0, 0.0, 0.0, -1036.986832259516, 0.0]
['beep', 0.0, -868.6111412776878, 0.0, 0.0, 0.0, 0.0, -1036.986832259516, 0.0]
['beep', 0.0, -868.7676034888749, 0.0, 0.0, 0.0, 0.0, -1036.3833351592225, 0.0]
['beep', 0.0, -868.1194028996711, 0.0, 0.0, 0.0, 0.0, -1036.338631670312, 0.0]
['beep', 0.0, -868.8123069777855, 0.0, 0.0, 0.0, 0.0, -1037.9926607600046, 0.0]
['beep', 0.0, -868.2758651108581, 0.0, 0.0, 0.0, 0.0, -1038.462047393566, 0.0]
['beep', 0.0, -866.8453534657185, 0.0, 0.0, 0.0, 0.0, -1037.2550531929796, 0.0]
['beep', 0.0, -869.5722662892659, 0.0, 0.0, 0.0, 0.0, -1038.6408613492085, 0.0]
['beep', 0.0, -868.7452517444196, 0.0, 0.0, 0.0, 0.0, -1039.1549514716808, 0.0]
['beep', 0.0, -868.2758651108581, 0.0, 0.0, 0.0, 0.0, -1039.7360968275186, 0.0]
['beep', 0.0, -869.2369901224364, 0.0, 0.0, 0.0, 0.0, -1039.2890619384125, 0.0]
['beep', 0.0, -869.862838967185, 0.0, 0.0, 0.0, 0.0, -1038.3949921602002, 0.0]
['beep', 0.0, -868.1864581330369, 0.0, 0.0, 0.0, 0.0, -1038.3949921602002, 0.0]
['beep', 0.0, -868.2311616219475, 0.0, 0.0, 0.0, 0.0, -1039.6466898496974, 0.0]
['beep', 0.0, -868.8570104666961, 0.0, 0.0, 0.0, 0.0, -1039.5125793829657, 0.0]
['beep', 0.0, -867.2700366103693, 0.0, 0.0, 0.0, 0.0, -1039.5572828718762, 0.0]
['beep', 0.0, -867.0465191658162, 0.0, 0.0, 0.0, 0.0, -1040.3395939278118, 0.0]
['beep', 0.0, -867.5606092882883, 0.0, 0.0, 0.0, 0.0, -1040.1384282277143, 0.0]
['beep', 0.0, -868.2088098774923, 0.0, 0.0, 0.0, 0.0, -1040.1384282277143, 0.0]
['beep', 0.0, -869.4158040780788, 0.0, 0.0, 0.0, 0.0, -1039.400820660689, 0.0]
['beep', 0.0, -869.5275628003553, 0.0, 0.0, 0.0, 0.0, -1039.4455241495996, 0.0]
['beep', 0.0, -869.4605075669895, 0.0, 0.0, 0.0, 0.0, -1039.6913933386081, 0.0]
['beep', 0.0, -870.6898535120313, 0.0, 0.0, 0.0, 0.0, -1040.2948904389013, 0.0]
['beep', 0.0, -870.2428186229251, 0.0, 0.0, 0.0, 0.0, -1039.601986360787, 0.0]
['beep', 0.0, -869.862838967185, 0.0, 0.0, 0.0, 0.0, -1039.2220067050466, 0.0]
['beep', 0.0, -868.9017139556067, 0.0, 0.0, 0.0, 0.0, -1039.5125793829657, 0.0]
['beep', 0.0, -871.0698331677715, 0.0, 0.0, 0.0, 0.0, -1037.9926607600046, 0.0]
['beep', 0.0, -871.896847712618, 0.0, 0.0, 0.0, 0.0, -1039.0878962383147, 0.0]
['beep', 0.0, -870.6451500231207, 0.0, 0.0, 0.0, 0.0, -1039.914910783161, 0.0]
['beep', 0.0, -868.4323273220454, 0.0, 0.0, 0.0, 0.0, -1038.01501250446, 0.0]
['beep', 0.0, -868.7899552333303, 0.0, 0.0, 0.0, 0.0, -1036.2939281814013, 0.0]
['beep', 0.0, -867.6723680105648, 0.0, 0.0, 0.0, 0.0, -1035.8915967812059, 0.0]
['beep', 0.0, -870.1981151340145, 0.0, 0.0, 0.0, 0.0, -1036.1374659702142, 0.0]
['beep', 0.0, -870.4663360674782, 0.0, 0.0, 0.0, 0.0, -1037.7691433154516, 0.0]
['beep', 0.0, -868.9687691889727, 0.0, 0.0, 0.0, 0.0, -1038.1267712267365, 0.0]
['beep', 0.0, -870.9804261899503, 0.0, 0.0, 0.0, 0.0, -1036.6515560926862, 0.0]
['beep', 0.0, -871.8074407347967, 0.0, 0.0, 0.0, 0.0, -1036.4503903925886, 0.0]
['beep', 0.0, -868.477030810956, 0.0, 0.0, 0.0, 0.0, -1035.3104514253678, 0.0]
['beep', 0.0, -867.8735337106626, 0.0, 0.0, 0.0, 0.0, -1034.9081200251724, 0.0]
['beep', 0.0, -869.1922866335258, 0.0, 0.0, 0.0, 0.0, -1034.7740095584404, 0.0]
['beep', 0.0, -868.1641063885817, 0.0, 0.0, 0.0, 0.0, -1034.6846025806192, 0.0]
['beep', 0.0, -868.4323273220454, 0.0, 0.0, 0.0, 0.0, -1034.6846025806192, 0.0]
['beep', 0.0, -867.895885455118, 0.0, 0.0, 0.0, 0.0, -1034.7069543250745, 0.0]
['beep', 0.0, -868.2758651108581, 0.0, 0.0, 0.0, 0.0, -1035.399858403189, 0.0]
['beep', 0.0, -868.633493022143, 0.0, 0.0, 0.0, 0.0, -1035.243396192002, 0.0]
['beep', 0.0, -867.5606092882883, 0.0, 0.0, 0.0, 0.0, -1035.4445618920997, 0.0]
['beep', 0.0, -868.2982168553135, 0.0, 0.0, 0.0, 0.0, -1034.9081200251724, 0.0]
['beep', 0.0, -869.795783733819, 0.0, 0.0, 0.0, 0.0, -1033.6564223356752, 0.0]
['beep', 0.0, -869.0358244223386, 0.0, 0.0, 0.0, 0.0, -1034.6175473472533, 0.0]
['beep', 0.0, -869.0358244223386, 0.0, 0.0, 0.0, 0.0, -1034.8410647918063, 0.0]
['beep', 0.0, -868.8793622111515, 0.0, 0.0, 0.0, 0.0, -1036.20452120358, 0.0]
['beep', 0.0, -869.1252314001598, 0.0, 0.0, 0.0, 0.0, -1035.7798380589293, 0.0]
['beep', 0.0, -868.9687691889727, 0.0, 0.0, 0.0, 0.0, -1034.4387333916109, 0.0]
['beep', 0.0, -867.9629406884839, 0.0, 0.0, 0.0, 0.0, -1034.1928642026025, 0.0]
['beep', 0.0, -868.8793622111515, 0.0, 0.0, 0.0, 0.0, -1035.2657479364573, 0.0]
['beep', 0.0, -869.5275628003553, 0.0, 0.0, 0.0, 0.0, -1035.0645822363595, 0.0]
['beep', 0.0, -869.3040453558023, 0.0, 0.0, 0.0, 0.0, -1036.3162799258566, 0.0]
['beep', 0.0, -868.7228999999643, 0.0, 0.0, 0.0, 0.0, -1035.8021898033846, 0.0]
['beep', 0.0, -868.3205685997688, 0.0, 0.0, 0.0, 0.0, -1035.042230491904, 0.0]
['beep', 0.0, -868.1641063885817, 0.0, 0.0, 0.0, 0.0, -1035.3328031698231, 0.0]
['beep', 0.0, -869.6616732670872, 0.0, 0.0, 0.0, 0.0, -1035.5786723588315, 0.0]
['beep', 0.0, -868.0076441773945, 0.0, 0.0, 0.0, 0.0, -1035.1316374697253, 0.0]
['beep', 0.0, -867.1806296325481, 0.0, 0.0, 0.0, 0.0, -1034.3493264137896, 0.0]
['beep', 0.0, -865.0348621648386, 0.0, 0.0, 0.0, 0.0, -1035.8021898033846, 0.0]
['beep', 0.0, -866.375966832157, 0.0, 0.0, 0.0, 0.0, -1037.2997566818901, 0.0]
['beep', 0.0, -867.3817953326459, 0.0, 0.0, 0.0, 0.0, -1038.529102626932, 0.0]
['beep', 0.0, -867.2029813770034, 0.0, 0.0, 0.0, 0.0, -1035.690431081108, 0.0]
['beep', 0.0, -866.7559464878973, 0.0, 0.0, 0.0, 0.0, -1034.081105480326, 0.0]
['beep', 0.0, -867.1806296325481, 0.0, 0.0, 0.0, 0.0, -1032.6505938351863, 0.0]
['beep', 0.0, -865.8395249652297, 0.0, 0.0, 0.0, 0.0, -1034.9081200251724, 0.0]
['beep', 0.0, -862.7549842303973, 0.0, 0.0, 0.0, 0.0, -1036.3162799258566, 0.0]
['beep', 0.0, -863.5596470307884, 0.0, 0.0, 0.0, 0.0, -1037.657384593175, 0.0]
['beep', 0.0, -867.3370918437353, 0.0, 0.0, 0.0, 0.0, -1036.048058992393, 0.0]
['beep', 0.0, -864.7442894869197, 0.0, 0.0, 0.0, 0.0, -1035.2657479364573, 0.0]
['beep', 0.0, -865.4148418205789, 0.0, 0.0, 0.0, 0.0, -1036.5174456259545, 0.0]
['beep', 0.0, -863.537295286333, 0.0, 0.0, 0.0, 0.0, -1039.5125793829657, 0.0]
['beep', 0.0, -861.4362313075342, 0.0, 0.0, 0.0, 0.0, -1039.2667101939571, 0.0]
['beep', 0.0, -861.4809347964448, 0.0, 0.0, 0.0, 0.0, -1040.429000905633, 0.0]
['beep', 0.0, -862.5314667858443, 0.0, 0.0, 0.0, 0.0, -1042.2171404620576, 0.0]
['beep', 0.0, -861.860914452185, 0.0, 0.0, 0.0, 0.0, -1042.01597476196, 0.0]
['beep', 0.0, -861.4809347964448, 0.0, 0.0, 0.0, 0.0, -1039.981966016527, 0.0]
['beep', 0.0, -859.0892981397269, 0.0, 0.0, 0.0, 0.0, -1041.3901259172114, 0.0]
['beep', 0.0, -862.0397284078275, 0.0, 0.0, 0.0, 0.0, -1041.367774172756, 0.0]
['beep', 0.0, -863.604350519699, 0.0, 0.0, 0.0, 0.0, -1041.1666084726583, 0.0]
['beep', 0.0, -862.6879289970313, 0.0, 0.0, 0.0, 0.0, -1041.1666084726583, 0.0]
['beep', 0.0, -861.1456586296152, 0.0, 0.0, 0.0, 0.0, -1040.9654427725604, 0.0]
['beep', 0.0, -858.5975597617102, 0.0, 0.0, 0.0, 0.0, -1042.7759340734403, 0.0]
['beep', 0.0, -857.3682138166683, 0.0, 0.0, 0.0, 0.0, -1043.82646606284, 0.0]
['beep', 0.0, -860.3409958292242, 0.0, 0.0, 0.0, 0.0, -1043.5805968738314, 0.0]
['beep', 0.0, -862.9785016749504, 0.0, 0.0, 0.0, 0.0, -1043.4241346626443, 0.0]
['beep', 0.0, -863.4702400529671, 0.0, 0.0, 0.0, 0.0, -1043.2229689625465, 0.0]
['beep', 0.0, -862.8220394637632, 0.0, 0.0, 0.0, 0.0, -1041.6359951062198, 0.0]
['beep', 0.0, -860.2962923403136, 0.0, 0.0, 0.0, 0.0, -1043.1559137291806, 0.0]
['beep', 0.0, -859.7374987289309, 0.0, 0.0, 0.0, 0.0, -1044.2287974630353, 0.0]
['beep', 0.0, -861.346824329713, 0.0, 0.0, 0.0, 0.0, -1043.4911898960102, 0.0]
['beep', 0.0, -860.184533618037, 0.0, 0.0, 0.0, 0.0, -1042.3959544177, 0.0]
['beep', 0.0, -860.1621818735817, 0.0, 0.0, 0.0, 0.0, -1042.1500852286918, 0.0]
['beep', 0.0, -858.2399318504253, 0.0, 0.0, 0.0, 0.0, -1045.435791663622, 0.0]
['beep', 0.0, -860.8997894406068, 0.0, 0.0, 0.0, 0.0, -1044.0723352518482, 0.0]
['beep', 0.0, -860.6315685071431, 0.0, 0.0, 0.0, 0.0, -1041.077201494837, 0.0]
['beep', 0.0, -862.442059808023, 0.0, 0.0, 0.0, 0.0, -1041.8371608063176, 0.0]
['beep', 0.0, -862.4867632969336, 0.0, 0.0, 0.0, 0.0, -1044.2511492074907, 0.0]
['beep', 0.0, -861.346824329713, 0.0, 0.0, 0.0, 0.0, -1043.6700038516526, 0.0]
['beep', 0.0, -861.3915278186236, 0.0, 0.0, 0.0, 0.0, -1045.1899224746135, 0.0]
['beep', 0.0, -863.4478883085118, 0.0, 0.0, 0.0, 0.0, -1044.5640736298649, 0.0]
['beep', 0.0, -862.4867632969336, 0.0, 0.0, 0.0, 0.0, -1043.0665067513594, 0.0]
['beep', 0.0, -859.6257400066543, 0.0, 0.0, 0.0, 0.0, -1043.9158730406612, 0.0]
['beep', 0.0, -858.9998911619057, 0.0, 0.0, 0.0, 0.0, -1046.0616405083706, 0.0]
['beep', 0.0, -860.8550859516962, 0.0, 0.0, 0.0, 0.0, -1045.4804951525325, 0.0]
['beep', 0.0, -861.8385627077297, 0.0, 0.0, 0.0, 0.0, -1045.2346259635242, 0.0]
['beep', 0.0, -863.9172749420733, 0.0, 0.0, 0.0, 0.0, -1042.9770997735382, 0.0]
['beep', 0.0, -862.7996877193079, 0.0, 0.0, 0.0, 0.0, -1042.753582328985, 0.0]
['beep', 0.0, -861.1456586296152, 0.0, 0.0, 0.0, 0.0, -1042.9547480290828, 0.0]
['beep', 0.0, -857.9717109169616, 0.0, 0.0, 0.0, 0.0, -1044.9440532856052, 0.0]
['beep', 0.0, -859.2010568620035, 0.0, 0.0, 0.0, 0.0, -1046.0839922528257, 0.0]
['beep', 0.0, -862.2855975968358, 0.0, 0.0, 0.0, 0.0, -1045.0558120078817, 0.0]
['beep', 0.0, -864.6548825090985, 0.0, 0.0, 0.0, 0.0, -1042.1724369731471, 0.0]
['beep', 0.0, -866.5547807877995, 0.0, 0.0, 0.0, 0.0, -1041.1666084726583, 0.0]
['beep', 0.0, -861.7491557299085, 0.0, 0.0, 0.0, 0.0, -1041.8595125507727, 0.0]
['beep', 0.0, -860.3409958292242, 0.0, 0.0, 0.0, 0.0, -1042.7088788400745, 0.0]
['beep', 0.0, -863.3808330751459, 0.0, 0.0, 0.0, 0.0, -1041.9936230175047, 0.0]
['beep', 0.0, -861.4585830519895, 0.0, 0.0, 0.0, 0.0, -1041.5018846394878, 0.0]
['beep', 0.0, -862.732632485942, 0.0, 0.0, 0.0, 0.0, -1040.8089805613733, 0.0]
['beep', 0.0, -862.9114464415844, 0.0, 0.0, 0.0, 0.0, -1041.7477538284963, 0.0]
['beep', 0.0, -863.8055162197968, 0.0, 0.0, 0.0, 0.0, -1040.7195735835521, 0.0]
['beep', 0.0, -863.0455569083163, 0.0, 0.0, 0.0, 0.0, -1038.9090822826722, 0.0]
['beep', 0.0, -862.3526528302018, 0.0, 0.0, 0.0, 0.0, -1038.7079165825744, 0.0]
['beep', 0.0, -863.8725714531627, 0.0, 0.0, 0.0, 0.0, -1040.0266695054377, 0.0]
['beep', 0.0, -866.375966832157, 0.0, 0.0, 0.0, 0.0, -1039.2890619384125, 0.0]
['beep', 0.0, -862.5314667858443, 0.0, 0.0, 0.0, 0.0, -1040.049021249893, 0.0]
['beep', 0.0, -858.2399318504253, 0.0, 0.0, 0.0, 0.0, -1040.0266695054377, 0.0]
['beep', 0.0, -859.3351673287353, 0.0, 0.0, 0.0, 0.0, -1038.953785771583, 0.0]
['beep', 0.0, -861.0115481628834, 0.0, 0.0, 0.0, 0.0, -1038.0597159933707, 0.0]
['beep', 0.0, -856.6753097385538, 0.0, 0.0, 0.0, 0.0, -1037.4562188930772, 0.0]
['beep', 0.0, -856.4294405495455, 0.0, 0.0, 0.0, 0.0, -1036.7409630705074, 0.0]
['beep', 0.0, -862.7549842303973, 0.0, 0.0, 0.0, 0.0, -1036.4280386481332, 0.0]
['beep', 0.0, -863.2020191195035, 0.0, 0.0, 0.0, 0.0, -1037.7467915709963, 0.0]
['beep', 0.0, -860.9668446739728, 0.0, 0.0, 0.0, 0.0, -1038.8867305382169, 0.0]
['beep', 0.0, -861.9056179410957, 0.0, 0.0, 0.0, 0.0, -1037.5456258708984, 0.0]
['beep', 0.0, -862.8443912082186, 0.0, 0.0, 0.0, 0.0, -1038.663213093664, 0.0]
['beep', 0.0, -866.2865598543358, 0.0, 0.0, 0.0, 0.0, -1036.6068526037757, 0.0]
['beep', 0.0, -863.0455569083163, 0.0, 0.0, 0.0, 0.0, -1038.8867305382169, 0.0]
['beep', 0.0, -865.1019173982046, 0.0, 0.0, 0.0, 0.0, -1037.8361985488175, 0.0]
['beep', 0.0, -865.5489522873107, 0.0, 0.0, 0.0, 0.0, -1037.366811915256, 0.0]
['beep', 0.0, -862.2408941079252, 0.0, 0.0, 0.0, 0.0, -1037.143294470703, 0.0]
['beep', 0.0, -858.21758010597, 0.0, 0.0, 0.0, 0.0, -1037.8361985488175, 0.0]
['beep', 0.0, -856.8541236941962, 0.0, 0.0, 0.0, 0.0, -1040.853684050284, 0.0]
['beep', 0.0, -860.0280714068499, 0.0, 0.0, 0.0, 0.0, -1038.663213093664, 0.0]
['beep', 0.0, -862.21854236347, 0.0, 0.0, 0.0, 0.0, -1037.5456258708984, 0.0]
['beep', 0.0, -863.5596470307884, 0.0, 0.0, 0.0, 0.0, -1035.7127828255634, 0.0]
['beep', 0.0, -860.5198097848667, 0.0, 0.0, 0.0, 0.0, -1038.663213093664, 0.0]
['beep', 0.0, -862.6432255081207, 0.0, 0.0, 0.0, 0.0, -1036.696259581597, 0.0]
['beep', 0.0, -861.0115481628834, 0.0, 0.0, 0.0, 0.0, -1036.7409630705074, 0.0]
['beep', 0.0, -860.6986237405091, 0.0, 0.0, 0.0, 0.0, -1037.8361985488175, 0.0]
['beep', 0.0, -860.9221411850622, 0.0, 0.0, 0.0, 0.0, -1036.5845008593203, 0.0]
['beep', 0.0, -862.9785016749504, 0.0, 0.0, 0.0, 0.0, -1034.8634165362616, 0.0]
['beep', 0.0, -863.7608127308861, 0.0, 0.0, 0.0, 0.0, -1034.9081200251724, 0.0]
['beep', 0.0, -859.3575190731906, 0.0, 0.0, 0.0, 0.0, -1038.2832334379236, 0.0]
['beep', 0.0, -856.0494608938052, 0.0, 0.0, 0.0, 0.0, -1039.7137450830633, 0.0]
['beep', 0.0, -864.2525511089029, 0.0, 0.0, 0.0, 0.0, -1035.6680793366527, 0.0]
['beep', 0.0, -867.828830221752, 0.0, 0.0, 0.0, 0.0, -1033.6564223356752, 0.0]
['beep', 0.0, -862.0620801522828, 0.0, 0.0, 0.0, 0.0, -1039.2667101939571, 0.0]
['beep', 0.0, -862.1067836411934, 0.0, 0.0, 0.0, 0.0, -1037.3444601708009, 0.0]
['beep', 0.0, -866.5324290433442, 0.0, 0.0, 0.0, 0.0, -1035.9139485256612, 0.0]
['beep', 0.0, -864.4537168090006, 0.0, 0.0, 0.0, 0.0, -1038.1267712267365, 0.0]
['beep', 0.0, -859.9610161734839, 0.0, 0.0, 0.0, 0.0, -1037.0762392373372, 0.0]
['beep', 0.0, -860.5868650182325, 0.0, 0.0, 0.0, 0.0, -1035.8692450367505, 0.0]
['beep', 0.0, -861.5256382853554, 0.0, 0.0, 0.0, 0.0, -1039.2220067050466, 0.0]
['beep', 0.0, -864.0960888977157, 0.0, 0.0, 0.0, 0.0, -1037.9256055266387, 0.0]
['beep', 0.0, -865.7054144984978, 0.0, 0.0, 0.0, 0.0, -1036.5845008593203, 0.0]
['beep', 0.0, -863.6490540086096, 0.0, 0.0, 0.0, 0.0, -1038.6185096047532, 0.0]
['beep', 0.0, -864.6325307646431, 0.0, 0.0, 0.0, 0.0, -1037.0538874928818, 0.0]
['beep', 0.0, -861.5256382853554, 0.0, 0.0, 0.0, 0.0, -1037.5232741264433, 0.0]
['beep', 0.0, -860.3633475736794, 0.0, 0.0, 0.0, 0.0, -1038.6185096047532, 0.0]
['beep', 0.0, -866.1077458986933, 0.0, 0.0, 0.0, 0.0, -1034.885768280717, 0.0]
['beep', 0.0, -867.0018156769056, 0.0, 0.0, 0.0, 0.0, -1035.8468932922951, 0.0]
['beep', 0.0, -864.7219377424643, 0.0, 0.0, 0.0, 0.0, -1036.495093881499, 0.0]
['beep', 0.0, -863.4031848196012, 0.0, 0.0, 0.0, 0.0, -1036.3609834147674, 0.0]
['beep', 0.0, -859.7598504733861, 0.0, 0.0, 0.0, 0.0, -1035.5786723588315, 0.0]
['beep', 0.0, -860.4080510625901, 0.0, 0.0, 0.0, 0.0, -1036.0257072479376, 0.0]
['beep', 0.0, -861.7491557299085, 0.0, 0.0, 0.0, 0.0, -1038.0597159933707, 0.0]
['beep', 0.0, -859.5810365177437, 0.0, 0.0, 0.0, 0.0, -1037.2550531929796, 0.0]
['beep', 0.0, -863.894923197618, 0.0, 0.0, 0.0, 0.0, -1033.6564223356752, 0.0]
['beep', 0.0, -864.5878272757325, 0.0, 0.0, 0.0, 0.0, -1034.4163816471555, 0.0]
['beep', 0.0, -867.1806296325481, 0.0, 0.0, 0.0, 0.0, -1034.304622924879, 0.0]
['beep', 0.0, -863.4702400529671, 0.0, 0.0, 0.0, 0.0, -1035.1316374697253, 0.0]
['beep', 0.0, -862.0397284078275, 0.0, 0.0, 0.0, 0.0, -1037.1209427262477, 0.0]
['beep', 0.0, -858.0611178947828, 0.0, 0.0, 0.0, 0.0, -1039.0878962383147, 0.0]
['beep', 0.0, -861.3021208408023, 0.0, 0.0, 0.0, 0.0, -1037.3891636597114, 0.0]
['beep', 0.0, -861.7491557299085, 0.0, 0.0, 0.0, 0.0, -1035.1539892141807, 0.0]
['beep', 0.0, -860.2292371069476, 0.0, 0.0, 0.0, 0.0, -1034.4163816471555, 0.0]
['beep', 0.0, -858.731670228442, 0.0, 0.0, 0.0, 0.0, -1037.724439826541, 0.0]
['beep', 0.0, -864.7442894869197, 0.0, 0.0, 0.0, 0.0, -1033.9246432691389, 0.0]
['beep', 0.0, -861.2574173518917, 0.0, 0.0, 0.0, 0.0, -1034.8187130473511, 0.0]
['beep', 0.0, -858.21758010597, 0.0, 0.0, 0.0, 0.0, -1036.5845008593203, 0.0]
['beep', 0.0, -860.3409958292242, 0.0, 0.0, 0.0, 0.0, -1033.5223118689432, 0.0]
['beep', 0.0, -861.5926935187214, 0.0, 0.0, 0.0, 0.0, -1034.4834368805214, 0.0]
['beep', 0.0, -858.5305045283443, 0.0, 0.0, 0.0, 0.0, -1034.8634165362616, 0.0]
['beep', 0.0, -862.2855975968358, 0.0, 0.0, 0.0, 0.0, -1034.8634165362616, 0.0]
['beep', 0.0, -860.2068853624924, 0.0, 0.0, 0.0, 0.0, -1036.9197770261499, 0.0]
['beep', 0.0, -856.6753097385538, 0.0, 0.0, 0.0, 0.0, -1037.433867148622, 0.0]
['beep', 0.0, -866.0406906653275, 0.0, 0.0, 0.0, 0.0, -1033.4552566355774, 0.0]
['beep', 0.0, -866.443022065523, 0.0, 0.0, 0.0, 0.0, -1034.7069543250745, 0.0]
['beep', 0.0, -861.9726731744615, 0.0, 0.0, 0.0, 0.0, -1037.500922381988, 0.0]
['beep', 0.0, -858.7763737173526, 0.0, 0.0, 0.0, 0.0, -1036.8303700483286, 0.0]
['beep', 0.0, -858.3069870837912, 0.0, 0.0, 0.0, 0.0, -1037.5903293598092, 0.0]
['beep', 0.0, -858.1058213836934, 0.0, 0.0, 0.0, 0.0, -1038.9984892604934, 0.0]
['beep', 0.0, -861.6821004965426, 0.0, 0.0, 0.0, 0.0, -1035.5786723588315, 0.0]
['beep', 0.0, -866.3312633432464, 0.0, 0.0, 0.0, 0.0, -1034.081105480326, 0.0]
['beep', 0.0, -867.3817953326459, 0.0, 0.0, 0.0, 0.0, -1034.1481607136918, 0.0]
['beep', 0.0, -862.151487130104, 0.0, 0.0, 0.0, 0.0, -1035.3551549142785, 0.0]
['beep', 0.0, -857.5917312612214, 0.0, 0.0, 0.0, 0.0, -1038.7079165825744, 0.0]
['beep', 0.0, -860.184533618037, 0.0, 0.0, 0.0, 0.0, -1035.1092857252702, 0.0]
['beep', 0.0, -865.8842284541403, 0.0, 0.0, 0.0, 0.0, -1036.3833351592225, 0.0]
['beep', 0.0, -861.6597487520872, 0.0, 0.0, 0.0, 0.0, -1035.7351345700188, 0.0]
['beep', 0.0, -856.0718126382606, 0.0, 0.0, 0.0, 0.0, -1035.1986927030914, 0.0]
['beep', 0.0, -860.184533618037, 0.0, 0.0, 0.0, 0.0, -1035.8692450367505, 0.0]
['beep', 0.0, -863.827867964252, 0.0, 0.0, 0.0, 0.0, -1036.9644805150606, 0.0]
['beep', 0.0, -868.3429203442241, 0.0, 0.0, 0.0, 0.0, -1034.2822711804238, 0.0]
['beep', 0.0, -857.4576207944896, 0.0, 0.0, 0.0, 0.0, -1037.8361985488175, 0.0]
['beep', 0.0, -858.8434289507186, 0.0, 0.0, 0.0, 0.0, -1036.6739078371415, 0.0]
['beep', 0.0, -858.6646149950761, 0.0, 0.0, 0.0, 0.0, -1038.7749718159405, 0.0]
['beep', 0.0, -858.7540219728974, 0.0, 0.0, 0.0, 0.0, -1038.0373642489153, 0.0]
['beep', 0.0, -867.7841267328414, 0.0, 0.0, 0.0, 0.0, -1038.462047393566, 0.0]
['beep', 0.0, -861.4138795630789, 0.0, 0.0, 0.0, 0.0, -1039.467875894055, 0.0]
['beep', 0.0, -859.8492574512074, 0.0, 0.0, 0.0, 0.0, -1040.563111372365, 0.0]
['beep', 0.0, -859.6704434955649, 0.0, 0.0, 0.0, 0.0, -1038.8420270493064, 0.0]
['beep', 0.0, -866.2418563654252, 0.0, 0.0, 0.0, 0.0, -1038.4173439046556, 0.0]
['beep', 0.0, -872.9026762131067, 0.0, 0.0, 0.0, 0.0, -1037.433867148622, 0.0]
['beep', 0.0, -860.6986237405091, 0.0, 0.0, 0.0, 0.0, -1038.4396956491107, 0.0]
['beep', 0.0, -858.1058213836934, 0.0, 0.0, 0.0, 0.0, -1043.625300362742, 0.0]
['beep', 0.0, -863.3808330751459, 0.0, 0.0, 0.0, 0.0, -1044.7652393299627, 0.0]
['beep', 0.0, -861.4585830519895, 0.0, 0.0, 0.0, 0.0, -1040.0043177609823, 0.0]
['beep', 0.0, -867.895885455118, 0.0, 0.0, 0.0, 0.0, -1036.9197770261499, 0.0]
['beep', 0.0, -866.6441877656207, 0.0, 0.0, 0.0, 0.0, -1039.6466898496974, 0.0]
['beep', 0.0, -865.3030830983023, 0.0, 0.0, 0.0, 0.0, -1043.5358933849209, 0.0]
['beep', 0.0, -868.2982168553135, 0.0, 0.0, 0.0, 0.0, -1040.2054834610801, 0.0]
['beep', 0.0, -870.1757633895593, 0.0, 0.0, 0.0, 0.0, -1041.8371608063176, 0.0]
['beep', 0.0, -867.6276645216542, 0.0, 0.0, 0.0, 0.0, -1042.5077131399767, 0.0]
['beep', 0.0, -863.7161092419755, 0.0, 0.0, 0.0, 0.0, -1044.8322945633286, 0.0]
['beep', 0.0, -864.9678069314728, 0.0, 0.0, 0.0, 0.0, -1045.9275300416386, 0.0]
['beep', 0.0, -868.9687691889727, 0.0, 0.0, 0.0, 0.0, -1039.177303216136, 0.0]
['beep', 0.0, -864.0960888977157, 0.0, 0.0, 0.0, 0.0, -1043.982928274027, 0.0]
['beep', 0.0, -861.6597487520872, 0.0, 0.0, 0.0, 0.0, -1051.2472452220018, 0.0]
['beep', 0.0, -865.4818970539447, 0.0, 0.0, 0.0, 0.0, -1049.7496783434963, 0.0]
['beep', 0.0, -864.5654755312772, 0.0, 0.0, 0.0, 0.0, -1047.8274283203398, 0.0]
['beep', 0.0, -865.7054144984978, 0.0, 0.0, 0.0, 0.0, -1048.3415184428118, 0.0]
['beep', 0.0, -861.5479900298108, 0.0, 0.0, 0.0, 0.0, -1045.7040125970857, 0.0]
['beep', 0.0, -864.990158675928, 0.0, 0.0, 0.0, 0.0, -1043.2676724514572, 0.0]
['beep', 0.0, -865.9065801985956, 0.0, 0.0, 0.0, 0.0, -1045.435791663622, 0.0]
['beep', 0.0, -864.8336964647409, 0.0, 0.0, 0.0, 0.0, -1049.1685329876582, 0.0]
['beep', 0.0, -864.9678069314728, 0.0, 0.0, 0.0, 0.0, -1047.9838905315269, 0.0]
['beep', 0.0, -863.1126121416822, 0.0, 0.0, 0.0, 0.0, -1047.6709661091527, 0.0]
['beep', 0.0, -863.1349638861375, 0.0, 0.0, 0.0, 0.0, -1049.883788810228, 0.0]
['beep', 0.0, -859.9386644290287, 0.0, 0.0, 0.0, 0.0, -1050.2861202104236, 0.0]
['beep', 0.0, -863.2020191195035, 0.0, 0.0, 0.0, 0.0, -1049.727326599041, 0.0]
['beep', 0.0, -861.8832661966403, 0.0, 0.0, 0.0, 0.0, -1050.0626027658705, 0.0]
['beep', 0.0, -861.7044522409979, 0.0, 0.0, 0.0, 0.0, -1049.727326599041, 0.0]
['beep', 0.0, -866.1300976431487, 0.0, 0.0, 0.0, 0.0, -1048.4532771650884, 0.0]
['beep', 0.0, -861.4585830519895, 0.0, 0.0, 0.0, 0.0, -1046.7098410975743, 0.0]
['beep', 0.0, -865.3924900761235, 0.0, 0.0, 0.0, 0.0, -1047.3803934312336, 0.0]
['beep', 0.0, -861.3691760741683, 0.0, 0.0, 0.0, 0.0, -1053.9741580455493, 0.0]
['beep', 0.0, -863.4702400529671, 0.0, 0.0, 0.0, 0.0, -1049.4591056655772, 0.0]
['beep', 0.0, -860.1398301291264, 0.0, 0.0, 0.0, 0.0, -1048.0956492538035, 0.0]
['beep', 0.0, -864.7889929758303, 0.0, 0.0, 0.0, 0.0, -1043.6029486182867, 0.0]
['beep', 0.0, -860.8103824627856, 0.0, 0.0, 0.0, 0.0, -1048.1627044871693, 0.0]
['beep', 0.0, -860.2292371069476, 0.0, 0.0, 0.0, 0.0, -1051.4260591776442, 0.0]
['beep', 0.0, -861.3021208408023, 0.0, 0.0, 0.0, 0.0, -1047.7827248314293, 0.0]
['beep', 0.0, -862.375004574657, 0.0, 0.0, 0.0, 0.0, -1049.5708643878538, 0.0]
['beep', 0.0, -860.0280714068499, 0.0, 0.0, 0.0, 0.0, -1049.5485126433985, 0.0]
['beep', 0.0, -867.9629406884839, 0.0, 0.0, 0.0, 0.0, -1047.559207386876, 0.0]
['beep', 0.0, -861.9056179410957, 0.0, 0.0, 0.0, 0.0, -1048.3415184428118, 0.0]
['beep', 0.0, -857.5470277723108, 0.0, 0.0, 0.0, 0.0, -1043.3570794292784, 0.0]
['beep', 0.0, -863.4702400529671, 0.0, 0.0, 0.0, 0.0, -1045.2793294524347, 0.0]
['beep', 0.0, -862.1291353856487, 0.0, 0.0, 0.0, 0.0, -1051.4037074331889, 0.0]
['beep', 0.0, -864.7666412313749, 0.0, 0.0, 0.0, 0.0, -1043.1335619847252, 0.0]
['beep', 0.0, -862.6208737636655, 0.0, 0.0, 0.0, 0.0, -1039.4902276385103, 0.0]
['beep', 0.0, -857.9717109169616, 0.0, 0.0, 0.0, 0.0, -1044.139390485214, 0.0]
['beep', 0.0, -859.5586847732884, 0.0, 0.0, 0.0, 0.0, -1049.3026434543901, 0.0]
['beep', 0.0, -863.2690743528693, 0.0, 0.0, 0.0, 0.0, -1045.7710678304516, 0.0]
['beep', 0.0, -861.2797690963471, 0.0, 0.0, 0.0, 0.0, -1045.368736430256, 0.0]
['beep', 0.0, -862.4197080635677, 0.0, 0.0, 0.0, 0.0, -1049.0567742653816, 0.0]
['beep', 0.0, -860.0280714068499, 0.0, 0.0, 0.0, 0.0, -1052.8118673338734, 0.0]
['beep', 0.0, -861.2574173518917, 0.0, 0.0, 0.0, 0.0, -1045.2569777079796, 0.0]
['beep', 0.0, -857.1446963721153, 0.0, 0.0, 0.0, 0.0, -1046.1510474861918, 0.0]
['beep', 0.0, -862.2408941079252, 0.0, 0.0, 0.0, 0.0, -1044.9887567745159, 0.0]
['beep', 0.0, -860.6986237405091, 0.0, 0.0, 0.0, 0.0, -1048.4532771650884, 0.0]
['beep', 0.0, -858.8881324396292, 0.0, 0.0, 0.0, 0.0, -1044.8322945633286, 0.0]
['beep', 0.0, -861.4138795630789, 0.0, 0.0, 0.0, 0.0, -1047.5815591313315, 0.0]
['beep', 0.0, -860.8774376961516, 0.0, 0.0, 0.0, 0.0, -1052.3648324447672, 0.0]
['beep', 0.0, -861.8162109632744, 0.0, 0.0, 0.0, 0.0, -1051.694280111108, 0.0]
['beep', 0.0, -862.442059808023, 0.0, 0.0, 0.0, 0.0, -1048.9226637986499, 0.0]
['beep', 0.0, -863.7608127308861, 0.0, 0.0, 0.0, 0.0, -1045.3463846858008, 0.0]
['beep', 0.0, -860.8997894406068, 0.0, 0.0, 0.0, 0.0, -1041.4571811505773, 0.0]
['beep', 0.0, -857.8152487057745, 0.0, 0.0, 0.0, 0.0, -1049.012070776471, 0.0]
['beep', 0.0, -861.1456586296152, 0.0, 0.0, 0.0, 0.0, -1052.8118673338734, 0.0]
['beep', 0.0, -860.2292371069476, 0.0, 0.0, 0.0, 0.0, -1048.1850562316247, 0.0]
['beep', 0.0, -861.7715074743638, 0.0, 0.0, 0.0, 0.0, -1048.3415184428118, 0.0]
['beep', 0.0, -861.4585830519895, 0.0, 0.0, 0.0, 0.0, -1046.3969166752001, 0.0]
['beep', 0.0, -862.2408941079252, 0.0, 0.0, 0.0, 0.0, -1040.786628816918, 0.0]
['beep', 0.0, -863.6490540086096, 0.0, 0.0, 0.0, 0.0, -1044.8322945633286, 0.0]
['beep', 0.0, -864.4537168090006, 0.0, 0.0, 0.0, 0.0, -1049.3249951988453, 0.0]
['beep', 0.0, -860.0727748957605, 0.0, 0.0, 0.0, 0.0, -1046.0839922528257, 0.0]
['beep', 0.0, -857.2564550943918, 0.0, 0.0, 0.0, 0.0, -1042.5747683733425, 0.0]
['beep', 0.0, -857.3235103277577, 0.0, 0.0, 0.0, 0.0, -1046.0839922528257, 0.0]
['beep', 0.0, -858.4634492949783, 0.0, 0.0, 0.0, 0.0, -1044.9887567745159, 0.0]
['beep', 0.0, -858.8210772062632, 0.0, 0.0, 0.0, 0.0, -1046.2181027195577, 0.0]
['beep', 0.0, -857.2788068388471, 0.0, 0.0, 0.0, 0.0, -1043.982928274027, 0.0]
['beep', 0.0, -855.4236120490566, 0.0, 0.0, 0.0, 0.0, -1038.3949921602002, 0.0]
['beep', 0.0, -864.6548825090985, 0.0, 0.0, 0.0, 0.0, -1044.1840939741248, 0.0]
['beep', 0.0, -860.5421615293219, 0.0, 0.0, 0.0, 0.0, -1045.8828265527281, 0.0]
['beep', 0.0, -862.21854236347, 0.0, 0.0, 0.0, 0.0, -1035.7798380589293, 0.0]
['beep', 0.0, -859.2457603509141, 0.0, 0.0, 0.0, 0.0, -1042.239492206513, 0.0]
['beep', 0.0, -856.1165161271712, 0.0, 0.0, 0.0, 0.0, -1045.8381230638174, 0.0]
['beep', 0.0, -860.2962923403136, 0.0, 0.0, 0.0, 0.0, -1042.9770997735382, 0.0]
['beep', 0.0, -863.0902603972269, 0.0, 0.0, 0.0, 0.0, -1036.9421287706052, 0.0]
['beep', 0.0, -859.8045539622968, 0.0, 0.0, 0.0, 0.0, -1040.3395939278118, 0.0]
['beep', 0.0, -861.570341774266, 0.0, 0.0, 0.0, 0.0, -1031.7788758014294, 0.0]
['beep', 0.0, -862.732632485942, 0.0, 0.0, 0.0, 0.0, -1034.304622924879, 0.0]
['beep', 0.0, -862.8220394637632, 0.0, 0.0, 0.0, 0.0, -1036.696259581597, 0.0]
['beep', 0.0, -855.5577225157884, 0.0, 0.0, 0.0, 0.0, -1046.4192684196555, 0.0]
['beep', 0.0, -863.023205163861, 0.0, 0.0, 0.0, 0.0, -1039.4902276385103, 0.0]
['beep', 0.0, -861.3244725852577, 0.0, 0.0, 0.0, 0.0, -1034.6398990917087, 0.0]
['beep', 0.0, -860.3186440847688, 0.0, 0.0, 0.0, 0.0, -1040.0266695054377, 0.0]
['beep', 0.0, -860.8997894406068, 0.0, 0.0, 0.0, 0.0, -1036.696259581597, 0.0]
['beep', 0.0, -861.9279696855509, 0.0, 0.0, 0.0, 0.0, -1035.8021898033846, 0.0]
['beep', 0.0, -863.1573156305928, 0.0, 0.0, 0.0, 0.0, -1037.4785706375326, 0.0]
['beep', 0.0, -859.4022225621012, 0.0, 0.0, 0.0, 0.0, -1038.0820677378258, 0.0]
['beep', 0.0, -855.1106876266823, 0.0, 0.0, 0.0, 0.0, -1037.3891636597114, 0.0]
['beep', 0.0, -856.8094202052856, 0.0, 0.0, 0.0, 0.0, -1035.981003759027, 0.0]
['beep', 0.0, -861.9279696855509, 0.0, 0.0, 0.0, 0.0, -1033.9693467580494, 0.0]
['beep', 0.0, -862.0173766633721, 0.0, 0.0, 0.0, 0.0, -1034.371678158245, 0.0]
['beep', 0.0, -863.4925917974224, 0.0, 0.0, 0.0, 0.0, -1034.6622508361638, 0.0]
['beep', 0.0, -862.0397284078275, 0.0, 0.0, 0.0, 0.0, -1037.4785706375326, 0.0]
['beep', 0.0, -860.8997894406068, 0.0, 0.0, 0.0, 0.0, -1039.2890619384125, 0.0]
['beep', 0.0, -860.8997894406068, 0.0, 0.0, 0.0, 0.0, -1037.8585502932729, 0.0]
['beep', 0.0, -860.0727748957605, 0.0, 0.0, 0.0, 0.0, -1034.4834368805214, 0.0]
['beep', 0.0, -860.1174783846711, 0.0, 0.0, 0.0, 0.0, -1035.0869339808148, 0.0]
['beep', 0.0, -859.6257400066543, 0.0, 0.0, 0.0, 0.0, -1039.2890619384125, 0.0]
['beep', 0.0, -860.0280714068499, 0.0, 0.0, 0.0, 0.0, -1038.9984892604934, 0.0]
['beep', 0.0, -860.7433272294197, 0.0, 0.0, 0.0, 0.0, -1036.0927624813037, 0.0]
['beep', 0.0, -859.9386644290287, 0.0, 0.0, 0.0, 0.0, -1036.2268729480354, 0.0]
['beep', 0.0, -861.5479900298108, 0.0, 0.0, 0.0, 0.0, -1035.6680793366527, 0.0]
['beep', 0.0, -862.8890946971292, 0.0, 0.0, 0.0, 0.0, -1033.142332213203, 0.0]
['beep', 0.0, -862.7102807414867, 0.0, 0.0, 0.0, 0.0, -1034.7963613028958, 0.0]
['beep', 0.0, -864.6325307646431, 0.0, 0.0, 0.0, 0.0, -1036.2268729480354, 0.0]
['beep', 0.0, -861.056251651794, 0.0, 0.0, 0.0, 0.0, -1036.2268729480354, 0.0]
['beep', 0.0, -858.4410975505231, 0.0, 0.0, 0.0, 0.0, -1034.6398990917087, 0.0]
['beep', 0.0, -860.6315685071431, 0.0, 0.0, 0.0, 0.0, -1033.142332213203, 0.0]
['beep', 0.0, -861.6597487520872, 0.0, 0.0, 0.0, 0.0, -1035.243396192002, 0.0]
['beep', 0.0, -863.4702400529671, 0.0, 0.0, 0.0, 0.0, -1036.3162799258566, 0.0]
['beep', 0.0, -863.4255365640565, 0.0, 0.0, 0.0, 0.0, -1036.9197770261499, 0.0]
['beep', 0.0, -861.5479900298108, 0.0, 0.0, 0.0, 0.0, -1036.986832259516, 0.0]
['beep', 0.0, -858.731670228442, 0.0, 0.0, 0.0, 0.0, -1037.0315357484264, 0.0]
['beep', 0.0, -861.2574173518917, 0.0, 0.0, 0.0, 0.0, -1037.5903293598092, 0.0]
['beep', 0.0, -861.2350656074365, 0.0, 0.0, 0.0, 0.0, -1038.9984892604934, 0.0]
['beep', 0.0, -860.4304028070454, 0.0, 0.0, 0.0, 0.0, -1038.5738061158427, 0.0]
['beep', 0.0, -859.2010568620035, 0.0, 0.0, 0.0, 0.0, -1039.2890619384125, 0.0]
['beep', 0.0, -859.2457603509141, 0.0, 0.0, 0.0, 0.0, -1040.563111372365, 0.0]
['beep', 0.0, -860.6986237405091, 0.0, 0.0, 0.0, 0.0, -1037.433867148622, 0.0]
['beep', 0.0, -859.4469260510118, 0.0, 0.0, 0.0, 0.0, -1038.9984892604934, 0.0]
['beep', 0.0, -860.7209754849644, 0.0, 0.0, 0.0, 0.0, -1039.981966016527, 0.0]
['beep', 0.0, -860.8997894406068, 0.0, 0.0, 0.0, 0.0, -1040.2278352055355, 0.0]
['beep', 0.0, -862.1738388745594, 0.0, 0.0, 0.0, 0.0, -1040.0937247388035, 0.0]
['beep', 0.0, -861.8832661966403, 0.0, 0.0, 0.0, 0.0, -1039.981966016527, 0.0]
['beep', 0.0, -863.4478883085118, 0.0, 0.0, 0.0, 0.0, -1039.4455241495996, 0.0]
['beep', 0.0, -862.2408941079252, 0.0, 0.0, 0.0, 0.0, -1039.7808003164293, 0.0]
['beep', 0.0, -861.2574173518917, 0.0, 0.0, 0.0, 0.0, -1040.9654427725604, 0.0]
['beep', 0.0, -860.3633475736794, 0.0, 0.0, 0.0, 0.0, -1043.0665067513594, 0.0]
['beep', 0.0, -860.8997894406068, 0.0, 0.0, 0.0, 0.0, -1041.6806985951303, 0.0]
['beep', 0.0, -859.1563533730929, 0.0, 0.0, 0.0, 0.0, -1038.8420270493064, 0.0]
['beep', 0.0, -859.2681120953694, 0.0, 0.0, 0.0, 0.0, -1038.8420270493064, 0.0]
['beep', 0.0, -863.1349638861375, 0.0, 0.0, 0.0, 0.0, -1040.3619456722672, 0.0]
['beep', 0.0, -861.9279696855509, 0.0, 0.0, 0.0, 0.0, -1039.6690415941528, 0.0]
['beep', 0.0, -859.6704434955649, 0.0, 0.0, 0.0, 0.0, -1041.2336637060241, 0.0]
['beep', 0.0, -859.9163126845733, 0.0, 0.0, 0.0, 0.0, -1042.083029995326, 0.0]
['beep', 0.0, -859.6257400066543, 0.0, 0.0, 0.0, 0.0, -1040.406649161178, 0.0]
['beep', 0.0, -861.1233068851599, 0.0, 0.0, 0.0, 0.0, -1041.6136433617644, 0.0]
['beep', 0.0, -861.9503214300063, 0.0, 0.0, 0.0, 0.0, -1040.2948904389013, 0.0]
['beep', 0.0, -861.1233068851599, 0.0, 0.0, 0.0, 0.0, -1040.5184078834543, 0.0]
['beep', 0.0, -861.860914452185, 0.0, 0.0, 0.0, 0.0, -1041.7030503395856, 0.0]
['beep', 0.0, -863.6267022641542, 0.0, 0.0, 0.0, 0.0, -1040.5184078834543, 0.0]
['beep', 0.0, -861.7938592188191, 0.0, 0.0, 0.0, 0.0, -1042.3512509287896, 0.0]
['beep', 0.0, -860.8997894406068, 0.0, 0.0, 0.0, 0.0, -1040.8983875391946, 0.0]
['beep', 0.0, -861.3244725852577, 0.0, 0.0, 0.0, 0.0, -1039.8478555497952, 0.0]
['beep', 0.0, -860.4527545515007, 0.0, 0.0, 0.0, 0.0, -1041.4571811505773, 0.0]
['beep', 0.0, -861.1903621185259, 0.0, 0.0, 0.0, 0.0, -1040.92073928365, 0.0]
['beep', 0.0, -860.1398301291264, 0.0, 0.0, 0.0, 0.0, -1041.1889602171136, 0.0]
['beep', 0.0, -862.1291353856487, 0.0, 0.0, 0.0, 0.0, -1040.7195735835521, 0.0]
['beep', 0.0, -864.0290336643499, 0.0, 0.0, 0.0, 0.0, -1040.6748700946416, 0.0]
['beep', 0.0, -863.2690743528693, 0.0, 0.0, 0.0, 0.0, -1040.406649161178, 0.0]
['beep', 0.0, -860.9444929295174, 0.0, 0.0, 0.0, 0.0, -1039.8925590387057, 0.0]
['beep', 0.0, -860.5198097848667, 0.0, 0.0, 0.0, 0.0, -1039.0655444938595, 0.0]
['beep', 0.0, -861.4809347964448, 0.0, 0.0, 0.0, 0.0, -1038.819675304851, 0.0]
['beep', 0.0, -862.9337981860398, 0.0, 0.0, 0.0, 0.0, -1039.467875894055, 0.0]
['beep', 0.0, -861.7715074743638, 0.0, 0.0, 0.0, 0.0, -1039.1325997272254, 0.0]
['beep', 0.0, -860.7433272294197, 0.0, 0.0, 0.0, 0.0, -1040.272538694446, 0.0]
['beep', 0.0, -860.6315685071431, 0.0, 0.0, 0.0, 0.0, -1041.2336637060241, 0.0]
['beep', 0.0, -860.6986237405091, 0.0, 0.0, 0.0, 0.0, -1040.1831317166248, 0.0]
['beep', 0.0, -861.9279696855509, 0.0, 0.0, 0.0, 0.0, -1040.0043177609823, 0.0]
['beep', 0.0, -861.4138795630789, 0.0, 0.0, 0.0, 0.0, -1039.3561171717784, 0.0]
['beep', 0.0, -862.2855975968358, 0.0, 0.0, 0.0, 0.0, -1040.3619456722672, 0.0]
['beep', 0.0, -862.5761702747549, 0.0, 0.0, 0.0, 0.0, -1039.2667101939571, 0.0]
['beep', 0.0, -861.4809347964448, 0.0, 0.0, 0.0, 0.0, -1038.3279369268344, 0.0]
['beep', 0.0, -862.151487130104, 0.0, 0.0, 0.0, 0.0, -1038.3279369268344, 0.0]
['beep', 0.0, -861.8385627077297, 0.0, 0.0, 0.0, 0.0, -1040.272538694446, 0.0]
['beep', 0.0, -861.346824329713, 0.0, 0.0, 0.0, 0.0, -1040.272538694446, 0.0]
['beep', 0.0, -863.8725714531627, 0.0, 0.0, 0.0, 0.0, -1039.7137450830633, 0.0]
['beep', 0.0, -864.9231034425621, 0.0, 0.0, 0.0, 0.0, -1040.4960561389992, 0.0]
['beep', 0.0, -861.3915278186236, 0.0, 0.0, 0.0, 0.0, -1039.3784689162337, 0.0]
['beep', 0.0, -861.7044522409979, 0.0, 0.0, 0.0, 0.0, -1039.2220067050466, 0.0]
['beep', 0.0, -863.0902603972269, 0.0, 0.0, 0.0, 0.0, -1037.500922381988, 0.0]
['beep', 0.0, -863.5819987752436, 0.0, 0.0, 0.0, 0.0, -1039.6690415941528, 0.0]
['beep', 0.0, -862.2632458523806, 0.0, 0.0, 0.0, 0.0, -1041.5242363839432, 0.0]
['beep', 0.0, -863.5819987752436, 0.0, 0.0, 0.0, 0.0, -1039.2890619384125, 0.0]
['beep', 0.0, -861.9279696855509, 0.0, 0.0, 0.0, 0.0, -1040.0043177609823, 0.0]
['beep', 0.0, -863.4031848196012, 0.0, 0.0, 0.0, 0.0, -1037.7691433154516, 0.0]
['beep', 0.0, -864.5654755312772, 0.0, 0.0, 0.0, 0.0, -1036.3609834147674, 0.0]
['beep', 0.0, -863.3584813306906, 0.0, 0.0, 0.0, 0.0, -1038.953785771583, 0.0]
['beep', 0.0, -863.3137778417799, 0.0, 0.0, 0.0, 0.0, -1036.7856665594181, 0.0]
['beep', 0.0, -863.894923197618, 0.0, 0.0, 0.0, 0.0, -1035.2210444475465, 0.0]
['beep', 0.0, -864.0290336643499, 0.0, 0.0, 0.0, 0.0, -1035.4222101476444, 0.0]
['beep', 0.0, -864.8336964647409, 0.0, 0.0, 0.0, 0.0, -1033.8352362913176, 0.0]
['beep', 0.0, -864.7219377424643, 0.0, 0.0, 0.0, 0.0, -1033.790532802407, 0.0]
['beep', 0.0, -864.40901332009, 0.0, 0.0, 0.0, 0.0, -1031.9353380126165, 0.0]
['beep', 0.0, -861.9726731744615, 0.0, 0.0, 0.0, 0.0, -1031.2200821900467, 0.0]
['beep', 0.0, -862.6432255081207, 0.0, 0.0, 0.0, 0.0, -1027.2638234214573, 0.0]
['beep', 0.0, -864.4313650645454, 0.0, 0.0, 0.0, 0.0, -1022.6370123192087, 0.0]
['beep', 0.0, -862.5985220192101, 0.0, 0.0, 0.0, 0.0, -1020.8712245072395, 0.0]
['beep', 0.0, -862.0844318967381, 0.0, 0.0, 0.0, 0.0, -1018.8372157618065, 0.0]
['beep', 0.0, -864.0513854088051, 0.0, 0.0, 0.0, 0.0, -1015.3503436267787, 0.0]
['beep', 0.0, -865.4818970539447, 0.0, 0.0, 0.0, 0.0, -1011.1035121802703, 0.0]
['beep', 0.0, -859.5586847732884, 0.0, 0.0, 0.0, 0.0, -1005.7614452554519, 0.0]
['beep', 0.0, -858.3293388282465, 0.0, 0.0, 0.0, 0.0, -1001.1569858976586, 0.0]
['beep', 0.0, -863.9172749420733, 0.0, 0.0, 0.0, 0.0, -997.2677823624352, 0.0]
['beep', 0.0, -863.2020191195035, 0.0, 0.0, 0.0, 0.0, -996.7983957288737, 0.0]
['beep', 0.0, -866.0630424097827, 0.0, 0.0, 0.0, 0.0, -997.4912998069883, 0.0]
['beep', 0.0, -867.0018156769056, 0.0, 0.0, 0.0, 0.0, -995.0102561724492, 0.0]
['beep', 0.0, -865.2360278649364, 0.0, 0.0, 0.0, 0.0, -994.3844073277006, 0.0]
['beep', 0.0, -863.9619784309839, 0.0, 0.0, 0.0, 0.0, -994.5855730277983, 0.0]
['beep', 0.0, -862.2632458523806, 0.0, 0.0, 0.0, 0.0, -995.7031602505638, 0.0]
['beep', 0.0, -860.475106295956, 0.0, 0.0, 0.0, 0.0, -996.8207474733291, 0.0]
['beep', 0.0, -863.9619784309839, 0.0, 0.0, 0.0, 0.0, -999.5923637857871, 0.0]
['beep', 0.0, -867.4712023104671, 0.0, 0.0, 0.0, 0.0, -998.8994597076726, 0.0]
['beep', 0.0, -866.4653738099782, 0.0, 0.0, 0.0, 0.0, -1000.2629161194463, 0.0]
['beep', 0.0, -866.3312633432464, 0.0, 0.0, 0.0, 0.0, -1003.6156777877425, 0.0]
['beep', 0.0, -866.152449387604, 0.0, 0.0, 0.0, 0.0, -1004.0627126768486, 0.0]
['beep', 0.0, -867.0465191658162, 0.0, 0.0, 0.0, 0.0, -1007.080198178315, 0.0]
['beep', 0.0, -867.6947197550202, 0.0, 0.0, 0.0, 0.0, -1006.8566807337619, 0.0]
['beep', 0.0, -866.1748011320593, 0.0, 0.0, 0.0, 0.0, -1007.661343534153, 0.0]
['beep', 0.0, -866.1077458986933, 0.0, 0.0, 0.0, 0.0, -1011.6176023027424, 0.0]
['beep', 0.0, -866.9124086990844, 0.0, 0.0, 0.0, 0.0, -1011.7964162583849, 0.0]
['beep', 0.0, -866.0630424097827, 0.0, 0.0, 0.0, 0.0, -1011.9528784695719, 0.0]
['beep', 0.0, -866.7112429989867, 0.0, 0.0, 0.0, 0.0, -1015.5068058379658, 0.0]
['beep', 0.0, -866.3983185766124, 0.0, 0.0, 0.0, 0.0, -1017.563166327854, 0.0]
['beep', 0.0, -864.9007516981068, 0.0, 0.0, 0.0, 0.0, -1017.4290558611222, 0.0]
['beep', 0.0, -865.4371935650341, 0.0, 0.0, 0.0, 0.0, -1018.211366917058, 0.0]
['beep', 0.0, -866.5771325322548, 0.0, 0.0, 0.0, 0.0, -1019.82069251784, 0.0]
['beep', 0.0, -864.8560482091962, 0.0, 0.0, 0.0, 0.0, -1020.7371140405077, 0.0]
['beep', 0.0, -864.1631441310817, 0.0, 0.0, 0.0, 0.0, -1020.0442099623931, 0.0]
['beep', 0.0, -866.7112429989867, 0.0, 0.0, 0.0, 0.0, -1020.9606314850607, 0.0]
['beep', 0.0, -867.8511819662074, 0.0, 0.0, 0.0, 0.0, -1021.9441082410942, 0.0]
['beep', 0.0, -866.9347604435397, 0.0, 0.0, 0.0, 0.0, -1022.949936741583, 0.0]
['beep', 0.0, -868.477030810956, 0.0, 0.0, 0.0, 0.0, -1024.2239861755356, 0.0]
['beep', 0.0, -868.1417546441263, 0.0, 0.0, 0.0, 0.0, -1024.8721867647394, 0.0]
['beep', 0.0, -866.5547807877995, 0.0, 0.0, 0.0, 0.0, -1027.2861751659127, 0.0]
['beep', 0.0, -866.3312633432464, 0.0, 0.0, 0.0, 0.0, -1027.5543960993764, 0.0]
['beep', 0.0, -865.7724697318638, 0.0, 0.0, 0.0, 0.0, -1028.91785251115, 0.0]
['beep', 0.0, -868.7452517444196, 0.0, 0.0, 0.0, 0.0, -1028.0908379663038, 0.0]
['beep', 0.0, -868.9464174445174, 0.0, 0.0, 0.0, 0.0, -1028.1578931996696, 0.0]
['beep', 0.0, -869.3711005891682, 0.0, 0.0, 0.0, 0.0, -1029.4319426336222, 0.0]
['beep', 0.0, -867.0465191658162, 0.0, 0.0, 0.0, 0.0, -1029.0966664667924, 0.0]
['beep', 0.0, -864.0513854088051, 0.0, 0.0, 0.0, 0.0, -1028.984907744516, 0.0]
['beep', 0.0, -866.3312633432464, 0.0, 0.0, 0.0, 0.0, -1026.9061955101724, 0.0]
['beep', 0.0, -865.280731353847, 0.0, 0.0, 0.0, 0.0, -1027.6885065661081, 0.0]
['beep', 0.0, -863.4255365640565, 0.0, 0.0, 0.0, 0.0, -1029.0743147223372, 0.0]
['beep', 0.0, -865.2583796093917, 0.0, 0.0, 0.0, 0.0, -1029.4319426336222, 0.0]
['beep', 0.0, -866.152449387604, 0.0, 0.0, 0.0, 0.0, -1028.0908379663038, 0.0]
['beep', 0.0, -867.6723680105648, 0.0, 0.0, 0.0, 0.0, -1027.3085269103678, 0.0]
['beep', 0.0, -869.795783733819, 0.0, 0.0, 0.0, 0.0, -1027.9343757551164, 0.0]
['beep', 0.0, -869.1252314001598, 0.0, 0.0, 0.0, 0.0, -1027.4202856326444, 0.0]
['beep', 0.0, -868.3876238331347, 0.0, 0.0, 0.0, 0.0, -1027.9790792440272, 0.0]
['beep', 0.0, -867.8511819662074, 0.0, 0.0, 0.0, 0.0, -1026.7050298100746, 0.0]
['beep', 0.0, -866.1748011320593, 0.0, 0.0, 0.0, 0.0, -1028.0684862218484, 0.0]
['beep', 0.0, -865.5936557762213, 0.0, 0.0, 0.0, 0.0, -1027.6214513327423, 0.0]
['beep', 0.0, -867.1359261436374, 0.0, 0.0, 0.0, 0.0, -1027.6885065661081, 0.0]
['beep', 0.0, -866.9124086990844, 0.0, 0.0, 0.0, 0.0, -1028.1355414552143, 0.0]
['beep', 0.0, -867.9405889440286, 0.0, 0.0, 0.0, 0.0, -1027.4426373770998, 0.0]
['beep', 0.0, -867.2253331214587, 0.0, 0.0, 0.0, 0.0, -1026.5485675988875, 0.0]
['beep', 0.0, -869.2369901224364, 0.0, 0.0, 0.0, 0.0, -1026.2356431765131, 0.0]
['beep', 0.0, -867.2923883548247, 0.0, 0.0, 0.0, 0.0, -1028.2025966885801, 0.0]
['beep', 0.0, -865.9959871764169, 0.0, 0.0, 0.0, 0.0, -1027.1520646991808, 0.0]
['beep', 0.0, -868.7228999999643, 0.0, 0.0, 0.0, 0.0, -1026.436808876611, 0.0]
['beep', 0.0, -866.7335947434419, 0.0, 0.0, 0.0, 0.0, -1026.1238844542365, 0.0]
['beep', 0.0, -865.6607110095872, 0.0, 0.0, 0.0, 0.0, -1025.9674222430494, 0.0]
['beep', 0.0, -866.3312633432464, 0.0, 0.0, 0.0, 0.0, -1026.72738155453, 0.0]
['beep', 0.0, -866.6218360211654, 0.0, 0.0, 0.0, 0.0, -1024.2910414089015, 0.0]
['beep', 0.0, -866.0183389208721, 0.0, 0.0, 0.0, 0.0, -1022.2346809190132, 0.0]
['beep', 0.0, -865.4148418205789, 0.0, 0.0, 0.0, 0.0, -1021.9664599855495, 0.0]
['beep', 0.0, -866.6888912545313, 0.0, 0.0, 0.0, 0.0, -1023.0616954638596, 0.0]
['beep', 0.0, -866.5100772988889, 0.0, 0.0, 0.0, 0.0, -1024.1345791977144, 0.0]
['beep', 0.0, -865.5936557762213, 0.0, 0.0, 0.0, 0.0, -1020.7371140405077, 0.0]
['beep', 0.0, -865.3701383316683, 0.0, 0.0, 0.0, 0.0, -1016.2891168939016, 0.0]
['beep', 0.0, -864.1184406421711, 0.0, 0.0, 0.0, 0.0, -1013.9645354705495, 0.0]
['beep', 0.0, -867.3817953326459, 0.0, 0.0, 0.0, 0.0, -1005.0238376884267, 0.0]
['beep', 0.0, -869.0581761667939, 0.0, 0.0, 0.0, 0.0, -997.4912998069883, 0.0]
['beep', 0.0, -867.2923883548247, 0.0, 0.0, 0.0, 0.0, -998.6312387742089, 0.0]
['beep', 0.0, -868.0076441773945, 0.0, 0.0, 0.0, 0.0, -984.4602327895443, 0.0]
['beep', 0.0, -870.5780947897548, 0.0, 0.0, 0.0, 0.0, -976.3018460633572, 0.0]
['beep', 0.0, -870.6451500231207, 0.0, 0.0, 0.0, 0.0, -965.7071191915417, 0.0]
['beep', 0.0, -871.6956820125201, 0.0, 0.0, 0.0, 0.0, -951.6031684402429, 0.0]
['beep', 0.0, -871.2709988678693, 0.0, 0.0, 0.0, 0.0, -936.471037444, 0.0]
['beep', 0.0, -868.1194028996711, 0.0, 0.0, 0.0, 0.0, -928.9384995625616, 0.0]
['beep', 0.0, -868.991120933428, 0.0, 0.0, 0.0, 0.0, -919.6848773580645, 0.0]
['beep', 0.0, -871.3604058456905, 0.0, 0.0, 0.0, 0.0, -911.9735255209835, 0.0]
['beep', 0.0, -872.5450483018218, 0.0, 0.0, 0.0, 0.0, -904.7986155508299, 0.0]
['beep', 0.0, -873.6402837801319, 0.0, 0.0, 0.0, 0.0, -901.4235021380786, 0.0]
['beep', 0.0, -873.8861529691402, 0.0, 0.0, 0.0, 0.0, -898.8083480368076, 0.0]
['beep', 0.0, -873.2603041243916, 0.0, 0.0, 0.0, 0.0, -897.8248712807741, 0.0]
['beep', 0.0, -871.7850889903414, 0.0, 0.0, 0.0, 0.0, -898.5177753588886, 0.0]
['beep', 0.0, -872.634455279643, 0.0, 0.0, 0.0, 0.0, -901.1329294601595, 0.0]
['beep', 0.0, -872.8132692352855, 0.0, 0.0, 0.0, 0.0, -905.7597405624081, 0.0]
['beep', 0.0, -872.6568070240984, 0.0, 0.0, 0.0, 0.0, -909.5148336308997, 0.0]
['beep', 0.0, -872.0756616682604, 0.0, 0.0, 0.0, 0.0, -913.0464092548382, 0.0]
['beep', 0.0, -872.9920831909279, 0.0, 0.0, 0.0, 0.0, -920.4671884140001, 0.0]
['beep', 0.0, -873.4167663355788, 0.0, 0.0, 0.0, 0.0, -926.5692146502989, 0.0]
['beep', 0.0, -871.2039436345034, 0.0, 0.0, 0.0, 0.0, -932.3806682086788, 0.0]
['beep', 0.0, -871.3157023567799, 0.0, 0.0, 0.0, 0.0, -938.728563633986, 0.0]
['beep', 0.0, -873.8861529691402, 0.0, 0.0, 0.0, 0.0, -944.4953137034553, 0.0]
['beep', 0.0, -872.9250279575621, 0.0, 0.0, 0.0, 0.0, -949.4350492280781, 0.0]
['beep', 0.0, -869.2593418668916, 0.0, 0.0, 0.0, 0.0, -955.5594272088323, 0.0]
['beep', 0.0, -870.0193011783721, 0.0, 0.0, 0.0, 0.0, -962.5555232233434, 0.0]
['beep', 0.0, -871.4721645679671, 0.0, 0.0, 0.0, 0.0, -967.5846657257874, 0.0]
['beep', 0.0, -868.7452517444196, 0.0, 0.0, 0.0, 0.0, -974.0219681289159, 0.0]
['beep', 0.0, -869.3263971002576, 0.0, 0.0, 0.0, 0.0, -976.9053431636505, 0.0]
['beep', 0.0, -870.0193011783721, 0.0, 0.0, 0.0, 0.0, -981.889782177184, 0.0]
['beep', 0.0, -870.2428186229251, 0.0, 0.0, 0.0, 0.0, -986.4942415349772, 0.0]
['beep', 0.0, -869.3487488447129, 0.0, 0.0, 0.0, 0.0, -989.8470032032733, 0.0]
['beep', 0.0, -867.4264988215565, 0.0, 0.0, 0.0, 0.0, -993.7362067384967, 0.0]
['beep', 0.0, -869.7063767559978, 0.0, 0.0, 0.0, 0.0, -997.6477620181754, 0.0]
['beep', 0.0, -869.3711005891682, 0.0, 0.0, 0.0, 0.0, -1000.2405643749911, 0.0]
['beep', 0.0, -867.7170714994754, 0.0, 0.0, 0.0, 0.0, -1003.8168434878402, 0.0]
['beep', 0.0, -869.7063767559978, 0.0, 0.0, 0.0, 0.0, -1007.6389917896977, 0.0]
['beep', 0.0, -869.6393215226319, 0.0, 0.0, 0.0, 0.0, -1009.5835935573094, 0.0]
['beep', 0.0, -869.9745976894615, 0.0, 0.0, 0.0, 0.0, -1012.6234308032311, 0.0]
['beep', 0.0, -869.3934523336235, 0.0, 0.0, 0.0, 0.0, -1015.4173988601445, 0.0]
['beep', 0.0, -869.3040453558023, 0.0, 0.0, 0.0, 0.0, -1016.3114686383568, 0.0]
['beep', 0.0, -867.7841267328414, 0.0, 0.0, 0.0, 0.0, -1017.2502419054797, 0.0]
['beep', 0.0, -869.9075424560956, 0.0, 0.0, 0.0, 0.0, -1017.8984424946836, 0.0]
['beep', 0.0, -870.1981151340145, 0.0, 0.0, 0.0, 0.0, -1020.6253553182311, 0.0]
['beep', 0.0, -869.1699348890704, 0.0, 0.0, 0.0, 0.0, -1021.8994047521836, 0.0]
['beep', 0.0, -869.6840250115425, 0.0, 0.0, 0.0, 0.0, -1022.9052332526724, 0.0]
['beep', 0.0, -869.4605075669895, 0.0, 0.0, 0.0, 0.0, -1024.1345791977144, 0.0]
['beep', 0.0, -869.2593418668916, 0.0, 0.0, 0.0, 0.0, -1024.3804483867227, 0.0]
['beep', 0.0, -868.5887895332324, 0.0, 0.0, 0.0, 0.0, -1026.302698409879, 0.0]
['beep', 0.0, -868.7452517444196, 0.0, 0.0, 0.0, 0.0, -1025.9674222430494, 0.0]
['beep', 0.0, -868.1194028996711, 0.0, 0.0, 0.0, 0.0, -1026.9732507435383, 0.0]
['beep', 0.0, -868.7228999999643, 0.0, 0.0, 0.0, 0.0, -1026.72738155453, 0.0]
['beep', 0.0, -867.828830221752, 0.0, 0.0, 0.0, 0.0, -1027.085009465815, 0.0]
['beep', 0.0, -867.4041470771011, 0.0, 0.0, 0.0, 0.0, -1027.017954232449, 0.0]
['beep', 0.0, -868.7676034888749, 0.0, 0.0, 0.0, 0.0, -1029.2754804224348, 0.0]
['beep', 0.0, -870.2651703673805, 0.0, 0.0, 0.0, 0.0, -1028.046134477393, 0.0]
['beep', 0.0, -869.4381558225341, 0.0, 0.0, 0.0, 0.0, -1028.560224599865, 0.0]
['beep', 0.0, -867.0912226547268, 0.0, 0.0, 0.0, 0.0, -1031.6894688236082, 0.0]
['beep', 0.0, -868.4993825554112, 0.0, 0.0, 0.0, 0.0, -1030.9071577676723, 0.0]
['beep', 0.0, -868.2758651108581, 0.0, 0.0, 0.0, 0.0, -1031.7788758014294, 0.0]
['beep', 0.0, -869.1475831446152, 0.0, 0.0, 0.0, 0.0, -1031.1306752122255, 0.0]
['beep', 0.0, -868.8346587222409, 0.0, 0.0, 0.0, 0.0, -1030.7730473009406, 0.0]
['beep', 0.0, -871.7180337569754, 0.0, 0.0, 0.0, 0.0, -1030.5495298563874, 0.0]
['beep', 0.0, -869.7510802449084, 0.0, 0.0, 0.0, 0.0, -1032.0247449904377, 0.0]
['beep', 0.0, -868.8346587222409, 0.0, 0.0, 0.0, 0.0, -1031.7788758014294, 0.0]
['beep', 0.0, -870.1757633895593, 0.0, 0.0, 0.0, 0.0, -1030.661288578664, 0.0]
['beep', 0.0, -868.8570104666961, 0.0, 0.0, 0.0, 0.0, -1031.2871374234126, 0.0]
['beep', 0.0, -868.5887895332324, 0.0, 0.0, 0.0, 0.0, -1032.404724646178, 0.0]
['beep', 0.0, -869.2593418668916, 0.0, 0.0, 0.0, 0.0, -1032.5835386018205, 0.0]
['beep', 0.0, -870.1757633895593, 0.0, 0.0, 0.0, 0.0, -1031.2871374234126, 0.0]
['beep', 0.0, -867.4264988215565, 0.0, 0.0, 0.0, 0.0, -1031.8012275458846, 0.0]
['beep', 0.0, -868.2311616219475, 0.0, 0.0, 0.0, 0.0, -1032.2259106905356, 0.0]
['beep', 0.0, -870.7122052564866, 0.0, 0.0, 0.0, 0.0, -1030.8401025343064, 0.0]
['beep', 0.0, -869.0581761667939, 0.0, 0.0, 0.0, 0.0, -1030.951861256583, 0.0]
['beep', 0.0, -868.6781965110537, 0.0, 0.0, 0.0, 0.0, -1031.2200821900467, 0.0]
['beep', 0.0, -869.3934523336235, 0.0, 0.0, 0.0, 0.0, -1031.7118205680633, 0.0]
['beep', 0.0, -869.1699348890704, 0.0, 0.0, 0.0, 0.0, -1033.142332213203, 0.0]
['beep', 0.0, -868.4323273220454, 0.0, 0.0, 0.0, 0.0, -1033.142332213203, 0.0]
['beep', 0.0, -867.1806296325481, 0.0, 0.0, 0.0, 0.0, -1033.8352362913176, 0.0]
['beep', 0.0, -868.6558447665984, 0.0, 0.0, 0.0, 0.0, -1033.2540909354796, 0.0]
['beep', 0.0, -869.4828593114447, 0.0, 0.0, 0.0, 0.0, -1030.2142536895578, 0.0]
['beep', 0.0, -868.477030810956, 0.0, 0.0, 0.0, 0.0, -1030.594233345298, 0.0]
['beep', 0.0, -868.7228999999643, 0.0, 0.0, 0.0, 0.0, -1031.5777101013316, 0.0]
['beep', 0.0, -866.9124086990844, 0.0, 0.0, 0.0, 0.0, -1031.309489167868, 0.0]
['beep', 0.0, -868.2982168553135, 0.0, 0.0, 0.0, 0.0, -1031.622413590242, 0.0]
['beep', 0.0, -869.8404872227296, 0.0, 0.0, 0.0, 0.0, -1031.5777101013316, 0.0]
['beep', 0.0, -869.0581761667939, 0.0, 0.0, 0.0, 0.0, -1031.10832346777, 0.0]
['beep', 0.0, -868.2311616219475, 0.0, 0.0, 0.0, 0.0, -1031.4435996345997, 0.0]
['beep', 0.0, -868.2535133664029, 0.0, 0.0, 0.0, 0.0, -1030.147198456192, 0.0]
['beep', 0.0, -868.3429203442241, 0.0, 0.0, 0.0, 0.0, -1032.114151968259, 0.0]
['beep', 0.0, -869.5499145448107, 0.0, 0.0, 0.0, 0.0, -1033.6787740801303, 0.0]
['beep', 0.0, -870.7122052564866, 0.0, 0.0, 0.0, 0.0, -1033.567015357854, 0.0]
