['beep', 0.0, -969.8868954046841, 0.0, 0.0, 0.0, 0.0, -936.0016508104386, 0.0]
['beep', 0.0, -967.2270378145025, 0.0, 0.0, 0.0, 0.0, -937.7003833890419, 0.0]
['beep', 0.0, -965.0589186023377, 0.0, 0.0, 0.0, 0.0, -937.5662729223101, 0.0]
['beep', 0.0, -965.6847674470863, 0.0, 0.0, 0.0, 0.0, -935.018174054405, 0.0]
['beep', 0.0, -968.85871515974, 0.0, 0.0, 0.0, 0.0, -937.0745345442933, 0.0]
['beep', 0.0, -969.2610465599355, 0.0, 0.0, 0.0, 0.0, -937.0074793109274, 0.0]
['beep', 0.0, -966.3553197807455, 0.0, 0.0, 0.0, 0.0, -936.2922234883575, 0.0]
['beep', 0.0, -965.0589186023377, 0.0, 0.0, 0.0, 0.0, -936.3592787217235, 0.0]
['beep', 0.0, -969.2610465599355, 0.0, 0.0, 0.0, 0.0, -939.019136311905, 0.0]
['beep', 0.0, -971.0044826274494, 0.0, 0.0, 0.0, 0.0, -938.0356595558715, 0.0]
['beep', 0.0, -968.5234389929103, 0.0, 0.0, 0.0, 0.0, -937.0074793109274, 0.0]
['beep', 0.0, -966.3553197807455, 0.0, 0.0, 0.0, 0.0, -937.6780316445866, 0.0]
['beep', 0.0, -967.4282035146003, 0.0, 0.0, 0.0, 0.0, -937.7674386224078, 0.0]
['beep', 0.0, -968.7469564374634, 0.0, 0.0, 0.0, 0.0, -941.8131043688184, 0.0]
['beep', 0.0, -967.986997125983, 0.0, 0.0, 0.0, 0.0, -940.5390549348659, 0.0]
['beep', 0.0, -965.438898258078, 0.0, 0.0, 0.0, 0.0, -939.3544124787346, 0.0]
['beep', 0.0, -963.6284069571981, 0.0, 0.0, 0.0, 0.0, -941.7013456465419, 0.0]
['beep', 0.0, -966.2882645473796, 0.0, 0.0, 0.0, 0.0, -942.9530433360391, 0.0]
['beep', 0.0, -971.0268343719047, 0.0, 0.0, 0.0, 0.0, -940.3155374903129, 0.0]
['beep', 0.0, -964.9918633689718, 0.0, 0.0, 0.0, 0.0, -943.0424503138603, 0.0]
['beep', 0.0, -961.0579563448377, 0.0, 0.0, 0.0, 0.0, -945.1658660371145, 0.0]
['beep', 0.0, -963.2484273014578, 0.0, 0.0, 0.0, 0.0, -944.2047410255362, 0.0]
['beep', 0.0, -967.5623139813322, 0.0, 0.0, 0.0, 0.0, -942.0142700689162, 0.0]
['beep', 0.0, -967.8081831703405, 0.0, 0.0, 0.0, 0.0, -942.0366218133714, 0.0]
['beep', 0.0, -962.9355028790835, 0.0, 0.0, 0.0, 0.0, -943.9141683476173, 0.0]
['beep', 0.0, -962.1531918231478, 0.0, 0.0, 0.0, 0.0, -944.115334047715, 0.0]
['beep', 0.0, -964.4554215020445, 0.0, 0.0, 0.0, 0.0, -942.8859881026731, 0.0]
['beep', 0.0, -965.95298838055, 0.0, 0.0, 0.0, 0.0, -944.2717962589022, 0.0]
['beep', 0.0, -966.176505825103, 0.0, 0.0, 0.0, 0.0, -944.6741276590977, 0.0]
['beep', 0.0, -963.8966278906618, 0.0, 0.0, 0.0, 0.0, -944.4953137034553, 0.0]
['beep', 0.0, -962.2425988009691, 0.0, 0.0, 0.0, 0.0, -945.1882177815697, 0.0]
['beep', 0.0, -961.728508678497, 0.0, 0.0, 0.0, 0.0, -944.0482788143491, 0.0]
['beep', 0.0, -965.7965261693629, 0.0, 0.0, 0.0, 0.0, -944.405906725634, 0.0]
['beep', 0.0, -969.1269360932037, 0.0, 0.0, 0.0, 0.0, -945.9705288375055, 0.0]
['beep', 0.0, -964.0754418463042, 0.0, 0.0, 0.0, 0.0, -947.7139649050195, 0.0]
['beep', 0.0, -961.728508678497, 0.0, 0.0, 0.0, 0.0, -947.7363166494748, 0.0]
['beep', 0.0, -963.4272412571004, 0.0, 0.0, 0.0, 0.0, -947.5127992049217, 0.0]
['beep', 0.0, -963.3601860237344, 0.0, 0.0, 0.0, 0.0, -947.4904474604664, 0.0]
['beep', 0.0, -962.3096540343349, 0.0, 0.0, 0.0, 0.0, -951.8937411181619, 0.0]
['beep', 0.0, -959.8286103997959, 0.0, 0.0, 0.0, 0.0, -952.3184242628128, 0.0]
['beep', 0.0, -962.3543575232455, 0.0, 0.0, 0.0, 0.0, -951.1561335511367, 0.0]
['beep', 0.0, -965.2824360468908, 0.0, 0.0, 0.0, 0.0, -952.0502033293491, 0.0]
['beep', 0.0, -964.790697668874, 0.0, 0.0, 0.0, 0.0, -950.4185259841116, 0.0]
['beep', 0.0, -963.9189796351171, 0.0, 0.0, 0.0, 0.0, -954.2853777748797, 0.0]
['beep', 0.0, -963.0025581124495, 0.0, 0.0, 0.0, 0.0, -954.307729519335, 0.0]
['beep', 0.0, -961.9743778675054, 0.0, 0.0, 0.0, 0.0, -951.0443748288602, 0.0]
['beep', 0.0, -961.4826394894886, 0.0, 0.0, 0.0, 0.0, -952.5419417073658, 0.0]
['beep', 0.0, -962.5108197344327, 0.0, 0.0, 0.0, 0.0, -952.6537004296423, 0.0]
['beep', 0.0, -960.3650522667233, 0.0, 0.0, 0.0, 0.0, -952.2290172849915, 0.0]
['beep', 0.0, -957.436973743078, 0.0, 0.0, 0.0, 0.0, -953.4807149744887, 0.0]
['beep', 0.0, -959.4262789996004, 0.0, 0.0, 0.0, 0.0, -954.3300812637904, 0.0]
['beep', 0.0, -962.0414331008712, 0.0, 0.0, 0.0, 0.0, -954.5535987083434, 0.0]
['beep', 0.0, -961.370880767212, 0.0, 0.0, 0.0, 0.0, -953.5701219523099, 0.0]
['beep', 0.0, -959.3815755106898, 0.0, 0.0, 0.0, 0.0, -951.3125957623239, 0.0]
['beep', 0.0, -958.7557266659411, 0.0, 0.0, 0.0, 0.0, -953.8383428857736, 0.0]
['beep', 0.0, -960.5215144779104, 0.0, 0.0, 0.0, 0.0, -955.8052963978406, 0.0]
['beep', 0.0, -960.6556249446422, 0.0, 0.0, 0.0, 0.0, -954.7547644084411, 0.0]
['beep', 0.0, -958.3533952657456, 0.0, 0.0, 0.0, 0.0, -955.0900405752708, 0.0]
['beep', 0.0, -956.9005318761507, 0.0, 0.0, 0.0, 0.0, -955.4923719754663, 0.0]
['beep', 0.0, -958.1745813101031, 0.0, 0.0, 0.0, 0.0, -956.3640900092233, 0.0]
['beep', 0.0, -956.1852760535809, 0.0, 0.0, 0.0, 0.0, -957.1240493207038, 0.0]
['beep', 0.0, -954.5759504527987, 0.0, 0.0, 0.0, 0.0, -958.5545609658434, 0.0]
['beep', 0.0, -959.3592237662344, 0.0, 0.0, 0.0, 0.0, -960.1415348221702, 0.0]
['beep', 0.0, -961.95202612305, 0.0, 0.0, 0.0, 0.0, -960.6109214557316, 0.0]
['beep', 0.0, -958.3757470102009, 0.0, 0.0, 0.0, 0.0, -960.5885697112764, 0.0]
['beep', 0.0, -957.3922702541674, 0.0, 0.0, 0.0, 0.0, -959.4933342329663, 0.0]
['beep', 0.0, -957.1911045540696, 0.0, 0.0, 0.0, 0.0, -960.6556249446422, 0.0]
['beep', 0.0, -958.1969330545585, 0.0, 0.0, 0.0, 0.0, -959.180409810592, 0.0]
['beep', 0.0, -957.5934359542651, 0.0, 0.0, 0.0, 0.0, -956.8558283872401, 0.0]
['beep', 0.0, -958.5545609658434, 0.0, 0.0, 0.0, 0.0, -958.308691776835, 0.0]
['beep', 0.0, -959.7168516775193, 0.0, 0.0, 0.0, 0.0, -957.2805115318909, 0.0]
['beep', 0.0, -958.2863400323797, 0.0, 0.0, 0.0, 0.0, -957.0793458317931, 0.0]
['beep', 0.0, -955.7382411644747, 0.0, 0.0, 0.0, 0.0, -956.565255709321, 0.0]
['beep', 0.0, -955.2465027864579, 0.0, 0.0, 0.0, 0.0, -955.9617586090278, 0.0]
['beep', 0.0, -953.5254184633993, 0.0, 0.0, 0.0, 0.0, -956.1182208202149, 0.0]
['beep', 0.0, -954.4641917305222, 0.0, 0.0, 0.0, 0.0, -954.0618603303267, 0.0]
['beep', 0.0, -954.7324126639859, 0.0, 0.0, 0.0, 0.0, -953.1230870632038, 0.0]
['beep', 0.0, -953.7712876524076, 0.0, 0.0, 0.0, 0.0, -952.0949068182597, 0.0]
['beep', 0.0, -955.2241510420026, 0.0, 0.0, 0.0, 0.0, -952.0949068182597, 0.0]
['beep', 0.0, -956.0735173313043, 0.0, 0.0, 0.0, 0.0, -952.6984039185529, 0.0]
['beep', 0.0, -956.5876074537764, 0.0, 0.0, 0.0, 0.0, -952.3184242628128, 0.0]
['beep', 0.0, -954.7994678973517, 0.0, 0.0, 0.0, 0.0, -953.4136597411227, 0.0]
['beep', 0.0, -952.921921363106, 0.0, 0.0, 0.0, 0.0, -956.1182208202149, 0.0]
['beep', 0.0, -952.988976596472, 0.0, 0.0, 0.0, 0.0, -957.4593254875333, 0.0]
['beep', 0.0, -954.0618603303267, 0.0, 0.0, 0.0, 0.0, -956.4534969870446, 0.0]
['beep', 0.0, -952.9666248520166, 0.0, 0.0, 0.0, 0.0, -956.922883620606, 0.0]
['beep', 0.0, -950.7985056398518, 0.0, 0.0, 0.0, 0.0, -958.7557266659411, 0.0]
['beep', 0.0, -950.4632294730222, 0.0, 0.0, 0.0, 0.0, -961.370880767212, 0.0]
['beep', 0.0, -947.7586683939301, 0.0, 0.0, 0.0, 0.0, -962.6225784567092, 0.0]
['beep', 0.0, -945.5234939483994, 0.0, 0.0, 0.0, 0.0, -961.5943982117651, 0.0]
['beep', 0.0, -945.1211625482039, 0.0, 0.0, 0.0, 0.0, -960.052127844349, 0.0]
['beep', 0.0, -944.7858863813742, 0.0, 0.0, 0.0, 0.0, -960.0074243554384, 0.0]
['beep', 0.0, -944.9647003370167, 0.0, 0.0, 0.0, 0.0, -959.8956656331618, 0.0]
['beep', 0.0, -946.1940462820586, 0.0, 0.0, 0.0, 0.0, -957.4146219986227, 0.0]
['beep', 0.0, -944.2717962589022, 0.0, 0.0, 0.0, 0.0, -961.370880767212, 0.0]
['beep', 0.0, -945.7693631374077, 0.0, 0.0, 0.0, 0.0, -960.633273200187, 0.0]
['beep', 0.0, -945.4117352261228, 0.0, 0.0, 0.0, 0.0, -959.470982488511, 0.0]
['beep', 0.0, -944.7858863813742, 0.0, 0.0, 0.0, 0.0, -958.5769127102986, 0.0]
['beep', 0.0, -946.0152323264161, 0.0, 0.0, 0.0, 0.0, -957.5040289764439, 0.0]
['beep', 0.0, -945.6129009262206, 0.0, 0.0, 0.0, 0.0, -956.408793498134, 0.0]
['beep', 0.0, -946.8422468712624, 0.0, 0.0, 0.0, 0.0, -956.5876074537764, 0.0]
['beep', 0.0, -946.9093021046284, 0.0, 0.0, 0.0, 0.0, -956.2299795424915, 0.0]
['beep', 0.0, -946.5293224488881, 0.0, 0.0, 0.0, 0.0, -957.5710842098099, 0.0]
['beep', 0.0, -948.0939445607597, 0.0, 0.0, 0.0, 0.0, -957.5710842098099, 0.0]
['beep', 0.0, -947.0657643158155, 0.0, 0.0, 0.0, 0.0, -954.4418399860668, 0.0]
['beep', 0.0, -944.0259270698938, 0.0, 0.0, 0.0, 0.0, -955.1347440641814, 0.0]
['beep', 0.0, -939.309708989824, 0.0, 0.0, 0.0, 0.0, -959.2474650439578, 0.0]
['beep', 0.0, -936.8957205886509, 0.0, 0.0, 0.0, 0.0, -960.1415348221702, 0.0]
['beep', 0.0, -935.9792990659832, 0.0, 0.0, 0.0, 0.0, -958.532209221388, 0.0]
['beep', 0.0, -937.9909560669608, 0.0, 0.0, 0.0, 0.0, -957.8169533988182, 0.0]
['beep', 0.0, -939.7120403900195, 0.0, 0.0, 0.0, 0.0, -958.0851743322819, 0.0]
['beep', 0.0, -938.9744328229943, 0.0, 0.0, 0.0, 0.0, -960.2756452889021, 0.0]
['beep', 0.0, -936.7839618663743, 0.0, 0.0, 0.0, 0.0, -961.8849708896842, 0.0]
['beep', 0.0, -937.052182799838, 0.0, 0.0, 0.0, 0.0, -960.4321075000892, 0.0]
['beep', 0.0, -936.6722031440978, 0.0, 0.0, 0.0, 0.0, -957.9734156100054, 0.0]
['beep', 0.0, -933.1629792646146, 0.0, 0.0, 0.0, 0.0, -960.5438662223658, 0.0]
['beep', 0.0, -929.8549210852291, 0.0, 0.0, 0.0, 0.0, -961.6167499562205, 0.0]
['beep', 0.0, -928.1785402510811, 0.0, 0.0, 0.0, 0.0, -961.1026598337484, 0.0]
['beep', 0.0, -930.0113832964163, 0.0, 0.0, 0.0, 0.0, -958.9345406215836, 0.0]
['beep', 0.0, -930.1231420186928, 0.0, 0.0, 0.0, 0.0, -960.7226801780082, 0.0]
['beep', 0.0, -929.407886196123, 0.0, 0.0, 0.0, 0.0, -959.8509621442512, 0.0]
['beep', 0.0, -926.7256768614861, 0.0, 0.0, 0.0, 0.0, -959.8062586553406, 0.0]
['beep', 0.0, -928.0667815288045, 0.0, 0.0, 0.0, 0.0, -961.2814737893908, 0.0]
['beep', 0.0, -928.7373338624637, 0.0, 0.0, 0.0, 0.0, -961.147363322659, 0.0]
['beep', 0.0, -929.1396652626593, 0.0, 0.0, 0.0, 0.0, -962.1531918231478, 0.0]
['beep', 0.0, -929.9666798075057, 0.0, 0.0, 0.0, 0.0, -962.2202470565137, 0.0]
['beep', 0.0, -929.0055547959274, 0.0, 0.0, 0.0, 0.0, -961.0803080892931, 0.0]
['beep', 0.0, -928.7149821180085, 0.0, 0.0, 0.0, 0.0, -960.9461976225613, 0.0]
['beep', 0.0, -928.4244094400894, 0.0, 0.0, 0.0, 0.0, -961.3261772783014, 0.0]
['beep', 0.0, -928.2902989733576, 0.0, 0.0, 0.0, 0.0, -961.7061569340417, 0.0]
['beep', 0.0, -930.4807699299777, 0.0, 0.0, 0.0, 0.0, -959.8509621442512, 0.0]
['beep', 0.0, -929.9219763185951, 0.0, 0.0, 0.0, 0.0, -961.147363322659, 0.0]
['beep', 0.0, -928.2008919955364, 0.0, 0.0, 0.0, 0.0, -963.114316834726, 0.0]
['beep', 0.0, -927.3068222173241, 0.0, 0.0, 0.0, 0.0, -964.276607546402, 0.0]
['beep', 0.0, -925.3398687052571, 0.0, 0.0, 0.0, 0.0, -964.1424970796702, 0.0]
['beep', 0.0, -927.1950634950475, 0.0, 0.0, 0.0, 0.0, -962.600226712254, 0.0]
['beep', 0.0, -930.5478251633436, 0.0, 0.0, 0.0, 0.0, -968.9034186486506, 0.0]
['beep', 0.0, -928.2902989733576, 0.0, 0.0, 0.0, 0.0, -973.0608431173376, 0.0]
['beep', 0.0, -926.9715460504945, 0.0, 0.0, 0.0, 0.0, -971.4515175165556, 0.0]
['beep', 0.0, -928.0667815288045, 0.0, 0.0, 0.0, 0.0, -970.5574477383433, 0.0]
['beep', 0.0, -927.0162495394051, 0.0, 0.0, 0.0, 0.0, -974.1560785956477, 0.0]
['beep', 0.0, -925.2504617274359, 0.0, 0.0, 0.0, 0.0, -974.5584099958432, 0.0]
['beep', 0.0, -925.9657175500057, 0.0, 0.0, 0.0, 0.0, -974.469003018022, 0.0]
['beep', 0.0, -926.3904006946565, 0.0, 0.0, 0.0, 0.0, -978.3805582977008, 0.0]
['beep', 0.0, -926.1892349945588, 0.0, 0.0, 0.0, 0.0, -977.7770611974074, 0.0]
['beep', 0.0, -925.7645518499079, 0.0, 0.0, 0.0, 0.0, -978.8275931868069, 0.0]
['beep', 0.0, -926.0998280167375, 0.0, 0.0, 0.0, 0.0, -979.4310902871002, 0.0]
['beep', 0.0, -927.0609530283157, 0.0, 0.0, 0.0, 0.0, -979.05111063136, 0.0]
['beep', 0.0, -927.4185809396006, 0.0, 0.0, 0.0, 0.0, -981.5992094992649, 0.0]
['beep', 0.0, -925.3845721941677, 0.0, 0.0, 0.0, 0.0, -981.7109682215415, 0.0]
['beep', 0.0, -925.4292756830783, 0.0, 0.0, 0.0, 0.0, -981.5768577548097, 0.0]
['beep', 0.0, -926.2339384834694, 0.0, 0.0, 0.0, 0.0, -980.5933809987762, 0.0]
['beep', 0.0, -925.3622204497124, 0.0, 0.0, 0.0, 0.0, -978.8499449312621, 0.0]
['beep', 0.0, -924.3563919492236, 0.0, 0.0, 0.0, 0.0, -977.3747297972119, 0.0]
['beep', 0.0, -925.9210140610951, 0.0, 0.0, 0.0, 0.0, -978.0452821308711, 0.0]
['beep', 0.0, -926.9938977949498, 0.0, 0.0, 0.0, 0.0, -977.9782268975052, 0.0]
['beep', 0.0, -926.9491943060392, 0.0, 0.0, 0.0, 0.0, -976.4806600189996, 0.0]
['beep', 0.0, -927.2621187284135, 0.0, 0.0, 0.0, 0.0, -975.0948518627706, 0.0]
['beep', 0.0, -926.3009937168353, 0.0, 0.0, 0.0, 0.0, -975.0725001183152, 0.0]
['beep', 0.0, -926.2562902279246, 0.0, 0.0, 0.0, 0.0, -975.4524797740555, 0.0]
['beep', 0.0, -922.7694180928968, 0.0, 0.0, 0.0, 0.0, -973.9549128955499, 0.0]
['beep', 0.0, -921.5624238923102, 0.0, 0.0, 0.0, 0.0, -972.6808634615975, 0.0]
['beep', 0.0, -931.1513222636369, 0.0, 0.0, 0.0, 0.0, -974.6478169736645, 0.0]
['beep', 0.0, -936.0240025548939, 0.0, 0.0, 0.0, 0.0, -975.1842588405918, 0.0]
['beep', 0.0, -941.0531450573379, 0.0, 0.0, 0.0, 0.0, -976.0336251298935, 0.0]
['beep', 0.0, -942.6848224025754, 0.0, 0.0, 0.0, 0.0, -976.9500466525611, 0.0]
['beep', 0.0, -937.5215694333995, 0.0, 0.0, 0.0, 0.0, -974.401947784656, 0.0]
['beep', 0.0, -938.3038804893351, 0.0, 0.0, 0.0, 0.0, -974.8936861626728, 0.0]
['beep', 0.0, -943.6459474141536, 0.0, 0.0, 0.0, 0.0, -978.2911513198795, 0.0]
['beep', 0.0, -944.3164997478128, 0.0, 0.0, 0.0, 0.0, -979.5652007538321, 0.0]
['beep', 0.0, -948.5186277054105, 0.0, 0.0, 0.0, 0.0, -982.0462443883711, 0.0]
['beep', 0.0, -952.8772178741954, 0.0, 0.0, 0.0, 0.0, -985.6225235012203, 0.0]
['beep', 0.0, -957.7051946765417, 0.0, 0.0, 0.0, 0.0, -989.0646921473375, 0.0]
['beep', 0.0, -960.7003284335528, 0.0, 0.0, 0.0, 0.0, -995.3231805948235, 0.0]
['beep', 0.0, -965.8412296582735, 0.0, 0.0, 0.0, 0.0, -997.4242445736223, 0.0]
['beep', 0.0, -969.7751366824075, 0.0, 0.0, 0.0, 0.0, -1000.7546544974631, 0.0]
['beep', 0.0, -973.6419884731756, 0.0, 0.0, 0.0, 0.0, -1002.5204423094324, 0.0]
['beep', 0.0, -975.8995146631617, 0.0, 0.0, 0.0, 0.0, -1004.018009187938, 0.0]
['beep', 0.0, -977.6205989862203, 0.0, 0.0, 0.0, 0.0, -1009.0024482014715, 0.0]
['beep', 0.0, -979.5204972649215, 0.0, 0.0, 0.0, 0.0, -1011.6176023027424, 0.0]
['beep', 0.0, -983.9461426670722, 0.0, 0.0, 0.0, 0.0, -1010.72353252453, 0.0]
['beep', 0.0, -985.9801514125052, 0.0, 0.0, 0.0, 0.0, -1012.3105063808569, 0.0]
['beep', 0.0, -983.1638316111364, 0.0, 0.0, 0.0, 0.0, -1012.1987476585804, 0.0]
['beep', 0.0, -981.3309885658012, 0.0, 0.0, 0.0, 0.0, -1012.8692999922396, 0.0]
['beep', 0.0, -981.4874507769885, 0.0, 0.0, 0.0, 0.0, -1014.4786255930217, 0.0]
['beep', 0.0, -982.694444977575, 0.0, 0.0, 0.0, 0.0, -1014.4115703596557, 0.0]
['beep', 0.0, -982.0015408994605, 0.0, 0.0, 0.0, 0.0, -1015.5291575824211, 0.0]
['beep', 0.0, -980.7051397210527, 0.0, 0.0, 0.0, 0.0, -1016.1326546827144, 0.0]
['beep', 0.0, -980.8839536766951, 0.0, 0.0, 0.0, 0.0, -1015.1938814155915, 0.0]
['beep', 0.0, -981.1968780990694, 0.0, 0.0, 0.0, 0.0, -1016.3785238717228, 0.0]
['beep', 0.0, -978.984055397994, 0.0, 0.0, 0.0, 0.0, -1018.3007738948792, 0.0]
['beep', 0.0, -978.2911513198795, 0.0, 0.0, 0.0, 0.0, -1019.7759890289294, 0.0]
['beep', 0.0, -979.0958141202706, 0.0, 0.0, 0.0, 0.0, -1019.3960093731893, 0.0]
['beep', 0.0, -979.0287588869046, 0.0, 0.0, 0.0, 0.0, -1020.1783204291249, 0.0]
['beep', 0.0, -979.207572842547, 0.0, 0.0, 0.0, 0.0, -1021.564128585354, 0.0]
['beep', 0.0, -978.3358548087901, 0.0, 0.0, 0.0, 0.0, -1022.1676256856473, 0.0]
['beep', 0.0, -977.9335234085946, 0.0, 0.0, 0.0, 0.0, -1023.5534338418763, 0.0]
['beep', 0.0, -979.274628075913, 0.0, 0.0, 0.0, 0.0, -1024.693372809097, 0.0]
['beep', 0.0, -979.4981455204661, 0.0, 0.0, 0.0, 0.0, -1028.1578931996696, 0.0]
['beep', 0.0, -978.693482720075, 0.0, 0.0, 0.0, 0.0, -1029.0519629778819, 0.0]
['beep', 0.0, -979.855773431751, 0.0, 0.0, 0.0, 0.0, -1026.5262158544322, 0.0]
['beep', 0.0, -980.14634610967, 0.0, 0.0, 0.0, 0.0, -1029.7448670559963, 0.0]
['beep', 0.0, -979.341683309279, 0.0, 0.0, 0.0, 0.0, -1034.1034572247813, 0.0]
['beep', 0.0, -979.8334216872958, 0.0, 0.0, 0.0, 0.0, -1033.790532802407, 0.0]
['beep', 0.0, -979.6099042427427, 0.0, 0.0, 0.0, 0.0, -1034.304622924879, 0.0]
['beep', 0.0, -978.5146687644326, 0.0, 0.0, 0.0, 0.0, -1033.3211461688454, 0.0]
['beep', 0.0, -979.2969798203684, 0.0, 0.0, 0.0, 0.0, -1032.337669412812, 0.0]
['beep', 0.0, -978.4252617866114, 0.0, 0.0, 0.0, 0.0, -1031.2200821900467, 0.0]
['beep', 0.0, -977.2629710749354, 0.0, 0.0, 0.0, 0.0, -1031.0636199788596, 0.0]
['beep', 0.0, -977.6205989862203, 0.0, 0.0, 0.0, 0.0, -1029.7672188004517, 0.0]
['beep', 0.0, -977.5535437528544, 0.0, 0.0, 0.0, 0.0, -1028.4261141331333, 0.0]
['beep', 0.0, -977.4194332861225, 0.0, 0.0, 0.0, 0.0, -1026.2356431765131, 0.0]
['beep', 0.0, -977.017101885927, 0.0, 0.0, 0.0, 0.0, -1025.9674222430494, 0.0]
['beep', 0.0, -978.9393519090834, 0.0, 0.0, 0.0, 0.0, -1025.922718754139, 0.0]
['beep', 0.0, -978.2687995754242, 0.0, 0.0, 0.0, 0.0, -1025.2521664204796, 0.0]
['beep', 0.0, -977.6205989862203, 0.0, 0.0, 0.0, 0.0, -1025.3639251427562, 0.0]
['beep', 0.0, -978.0676338753265, 0.0, 0.0, 0.0, 0.0, -1026.5485675988875, 0.0]
['beep', 0.0, -977.2629710749354, 0.0, 0.0, 0.0, 0.0, -1028.046134477393, 0.0]
['beep', 0.0, -976.9723983970164, 0.0, 0.0, 0.0, 0.0, -1029.0966664667924, 0.0]
['beep', 0.0, -979.5875524982873, 0.0, 0.0, 0.0, 0.0, -1029.0072594889712, 0.0]
['beep', 0.0, -982.8509071887621, 0.0, 0.0, 0.0, 0.0, -1029.208425189069, 0.0]
['beep', 0.0, -973.9549128955499, 0.0, 0.0, 0.0, 0.0, -1031.10832346777, 0.0]
['beep', 0.0, -963.986034868483, 0.0, 0.0, 0.0, 0.0, -1029.7672188004517, 0.0]
['beep', 0.0, -958.8227818993071, 0.0, 0.0, 0.0, 0.0, -1029.5660531003539, 0.0]
['beep', 0.0, -953.6818806745864, 0.0, 0.0, 0.0, 0.0, -1029.4766461225327, 0.0]
['beep', 0.0, -950.1950085395586, 0.0, 0.0, 0.0, 0.0, -1026.3474018987897, 0.0]
['beep', 0.0, -942.6177671692094, 0.0, 0.0, 0.0, 0.0, -1024.179282686625, 0.0]
['beep', 0.0, -939.5779299232877, 0.0, 0.0, 0.0, 0.0, -1026.7720850434405, 0.0]
['beep', 0.0, -937.342755477757, 0.0, 0.0, 0.0, 0.0, -1029.4319426336222, 0.0]
['beep', 0.0, -936.9180723331061, 0.0, 0.0, 0.0, 0.0, -1030.303660667379, 0.0]
['beep', 0.0, -935.3981537101453, 0.0, 0.0, 0.0, 0.0, -1033.3882014022115, 0.0]
['beep', 0.0, -936.6274996551872, 0.0, 0.0, 0.0, 0.0, -1036.9421287706052, 0.0]
['beep', 0.0, -936.5157409329106, 0.0, 0.0, 0.0, 0.0, -1040.3619456722672, 0.0]
['beep', 0.0, -936.6274996551872, 0.0, 0.0, 0.0, 0.0, -1043.625300362742, 0.0]
['beep', 0.0, -936.9180723331061, 0.0, 0.0, 0.0, 0.0, -1047.6709661091527, 0.0]
['beep', 0.0, -937.6109764112207, 0.0, 0.0, 0.0, 0.0, -1051.4484109220996, 0.0]
['beep', 0.0, -936.9851275664721, 0.0, 0.0, 0.0, 0.0, -1056.2987394689012, 0.0]
['beep', 0.0, -936.0240025548939, 0.0, 0.0, 0.0, 0.0, -1061.0596610378816, 0.0]
['beep', 0.0, -937.1415897776592, 0.0, 0.0, 0.0, 0.0, -1064.7476988730073, 0.0]
['beep', 0.0, -937.342755477757, 0.0, 0.0, 0.0, 0.0, -1069.6203791642642, 0.0]
['beep', 0.0, -936.9180723331061, 0.0, 0.0, 0.0, 0.0, -1074.4260042221551, 0.0]
['beep', 0.0, -936.8063136108296, 0.0, 0.0, 0.0, 0.0, -1078.3822629907445, 0.0]
['beep', 0.0, -936.471037444, 0.0, 0.0, 0.0, 0.0, -1082.3832252482446, 0.0]
['beep', 0.0, -935.666374643609, 0.0, 0.0, 0.0, 0.0, -1086.6747601836635, 0.0]
['beep', 0.0, -936.2475199994469, 0.0, 0.0, 0.0, 0.0, -1090.78748116344, 0.0]
['beep', 0.0, -937.3651072222123, 0.0, 0.0, 0.0, 0.0, -1094.0508358539148, 0.0]
['beep', 0.0, -936.2922234883575, 0.0, 0.0, 0.0, 0.0, -1098.0294463669595, 0.0]
['beep', 0.0, -936.9851275664721, 0.0, 0.0, 0.0, 0.0, -1101.2480975685237, 0.0]
['beep', 0.0, -937.5662729223101, 0.0, 0.0, 0.0, 0.0, -1104.9361354036494, 0.0]
['beep', 0.0, -936.4486856995447, 0.0, 0.0, 0.0, 0.0, -1108.2218418385794, 0.0]
['beep', 0.0, -937.1192380332039, 0.0, 0.0, 0.0, 0.0, -1110.2782023284676, 0.0]
['beep', 0.0, -936.3592787217235, 0.0, 0.0, 0.0, 0.0, -1113.139225618747, 0.0]
['beep', 0.0, -936.5827961662766, 0.0, 0.0, 0.0, 0.0, -1114.8603099418058, 0.0]
['beep', 0.0, -935.8675403437068, 0.0, 0.0, 0.0, 0.0, -1116.2237663535793, 0.0]
['beep', 0.0, -930.8160460968073, 0.0, 0.0, 0.0, 0.0, -1117.274298342979, 0.0]
['beep', 0.0, -932.3583164642235, 0.0, 0.0, 0.0, 0.0, -1119.17419662168, 0.0]
['beep', 0.0, -946.372860237701, 0.0, 0.0, 0.0, 0.0, -1121.0293914114704, 0.0]
['beep', 0.0, -952.8101626408295, 0.0, 0.0, 0.0, 0.0, -1122.6387170122525, 0.0]
['beep', 0.0, -957.8169533988182, 0.0, 0.0, 0.0, 0.0, -1124.8962432022386, 0.0]
['beep', 0.0, -961.7732121674076, 0.0, 0.0, 0.0, 0.0, -1126.0361821694592, 0.0]
['beep', 0.0, -964.8354011577846, 0.0, 0.0, 0.0, 0.0, -1127.7125630036073, 0.0]
['beep', 0.0, -964.5224767354104, 0.0, 0.0, 0.0, 0.0, -1131.1323799052693, 0.0]
['beep', 0.0, -962.9578546235389, 0.0, 0.0, 0.0, 0.0, -1130.7300485050737, 0.0]
['beep', 0.0, -961.6614534451311, 0.0, 0.0, 0.0, 0.0, -1132.3840775947665, 0.0]
['beep', 0.0, -961.3261772783014, 0.0, 0.0, 0.0, 0.0, -1133.300499117434, 0.0]
['beep', 0.0, -960.7003284335528, 0.0, 0.0, 0.0, 0.0, -1134.0604584289144, 0.0]
['beep', 0.0, -959.2921685328685, 0.0, 0.0, 0.0, 0.0, -1135.1109904183138, 0.0]
['beep', 0.0, -957.7498981654524, 0.0, 0.0, 0.0, 0.0, -1135.7144875186073, 0.0]
['beep', 0.0, -957.0793458317931, 0.0, 0.0, 0.0, 0.0, -1135.6027287963307, 0.0]
['beep', 0.0, -956.3193865203127, 0.0, 0.0, 0.0, 0.0, -1135.7368392630624, 0.0]
['beep', 0.0, -956.8334766427847, 0.0, 0.0, 0.0, 0.0, -1135.1109904183138, 0.0]
['beep', 0.0, -958.9792441104942, 0.0, 0.0, 0.0, 0.0, -1134.8874729737609, 0.0]
['beep', 0.0, -958.6663196881199, 0.0, 0.0, 0.0, 0.0, -1136.3850398522663, 0.0]
['beep', 0.0, -960.2085900555361, 0.0, 0.0, 0.0, 0.0, -1136.4744468300876, 0.0]
['beep', 0.0, -960.2085900555361, 0.0, 0.0, 0.0, 0.0, -1137.7261445195848, 0.0]
['beep', 0.0, -960.0968313332596, 0.0, 0.0, 0.0, 0.0, -1137.8602549863167, 0.0]
['beep', 0.0, -960.4321075000892, 0.0, 0.0, 0.0, 0.0, -1138.0614206864143, 0.0]
['beep', 0.0, -961.5049912339439, 0.0, 0.0, 0.0, 0.0, -1138.5978625533419, 0.0]
['beep', 0.0, -960.7673836669188, 0.0, 0.0, 0.0, 0.0, -1137.972013708593, 0.0]
['beep', 0.0, -959.6274446996981, 0.0, 0.0, 0.0, 0.0, -1138.6649177867077, 0.0]
['beep', 0.0, -959.0686510883154, 0.0, 0.0, 0.0, 0.0, -1139.7378015205625, 0.0]
['beep', 0.0, -959.6497964441535, 0.0, 0.0, 0.0, 0.0, -1140.4530573431323, 0.0]
['beep', 0.0, -959.6497964441535, 0.0, 0.0, 0.0, 0.0, -1140.9224439766938, 0.0]
['beep', 0.0, -960.4768109889998, 0.0, 0.0, 0.0, 0.0, -1143.492894589054, 0.0]
['beep', 0.0, -960.3427005222679, 0.0, 0.0, 0.0, 0.0, -1143.3587841223223, 0.0]
['beep', 0.0, -959.76155516643, 0.0, 0.0, 0.0, 0.0, -1142.9341009776713, 0.0]
['beep', 0.0, -959.4262789996004, 0.0, 0.0, 0.0, 0.0, -1144.006984711526, 0.0]
['beep', 0.0, -958.3310435212903, 0.0, 0.0, 0.0, 0.0, -1143.6046533113306, 0.0]
['beep', 0.0, -959.0910028327708, 0.0, 0.0, 0.0, 0.0, -1143.783467266973, 0.0]
['beep', 0.0, -959.8062586553406, 0.0, 0.0, 0.0, 0.0, -1145.7280690345847, 0.0]
['beep', 0.0, -959.8509621442512, 0.0, 0.0, 0.0, 0.0, -1145.75042077904, 0.0]
['beep', 0.0, -958.9345406215836, 0.0, 0.0, 0.0, 0.0, -1145.9068829902271, 0.0]
['beep', 0.0, -958.8227818993071, 0.0, 0.0, 0.0, 0.0, -1146.331566134878, 0.0]
['beep', 0.0, -960.2979970333573, 0.0, 0.0, 0.0, 0.0, -1147.4491533576434, 0.0]
['beep', 0.0, -959.3815755106898, 0.0, 0.0, 0.0, 0.0, -1147.0915254463584, 0.0]
['beep', 0.0, -959.76155516643, 0.0, 0.0, 0.0, 0.0, -1147.56091207992, 0.0]
['beep', 0.0, -960.2085900555361, 0.0, 0.0, 0.0, 0.0, -1147.6726708021965, 0.0]
['beep', 0.0, -959.5156859774216, 0.0, 0.0, 0.0, 0.0, -1149.170237680702, 0.0]
['beep', 0.0, -959.0239475994048, 0.0, 0.0, 0.0, 0.0, -1149.460810358621, 0.0]
['beep', 0.0, -960.2756452889021, 0.0, 0.0, 0.0, 0.0, -1147.9632434801154, 0.0]
['beep', 0.0, -959.3592237662344, 0.0, 0.0, 0.0, 0.0, -1148.8573132583276, 0.0]
['beep', 0.0, -957.4146219986227, 0.0, 0.0, 0.0, 0.0, -1149.9301969921823, 0.0]
['beep', 0.0, -957.8393051432736, 0.0, 0.0, 0.0, 0.0, -1149.9525487366377, 0.0]
['beep', 0.0, -957.5934359542651, 0.0, 0.0, 0.0, 0.0, -1150.176066181191, 0.0]
['beep', 0.0, -956.5205522204104, 0.0, 0.0, 0.0, 0.0, -1149.684327803174, 0.0]
['beep', 0.0, -956.2299795424915, 0.0, 0.0, 0.0, 0.0, -1149.2596446585233, 0.0]
['beep', 0.0, -957.7051946765417, 0.0, 0.0, 0.0, 0.0, -1150.980728981582, 0.0]
['beep', 0.0, -958.3757470102009, 0.0, 0.0, 0.0, 0.0, -1150.0866592033697, 0.0]
['beep', 0.0, -958.8004301548517, 0.0, 0.0, 0.0, 0.0, -1150.2654731590121, 0.0]
['beep', 0.0, -959.2251132995026, 0.0, 0.0, 0.0, 0.0, -1152.075964459892, 0.0]
['beep', 0.0, -957.5710842098099, 0.0, 0.0, 0.0, 0.0, -1152.6347580712745, 0.0]
['beep', 0.0, -957.5040289764439, 0.0, 0.0, 0.0, 0.0, -1152.455944115632, 0.0]
['beep', 0.0, -955.9394068645724, 0.0, 0.0, 0.0, 0.0, -1151.0477842149478, 0.0]
['beep', 0.0, -952.4301829850892, 0.0, 0.0, 0.0, 0.0, -1149.818438269906, 0.0]
['beep', 0.0, -956.7217179205082, 0.0, 0.0, 0.0, 0.0, -1150.9583772371266, 0.0]
['beep', 0.0, -963.6284069571981, 0.0, 0.0, 0.0, 0.0, -1148.4549818581322, 0.0]
['beep', 0.0, -965.3941947691674, 0.0, 0.0, 0.0, 0.0, -1145.1245719342915, 0.0]
['beep', 0.0, -969.5292674933992, 0.0, 0.0, 0.0, 0.0, -1141.883568988272, 0.0]
['beep', 0.0, -971.0938896052706, 0.0, 0.0, 0.0, 0.0, -1140.8553887433277, 0.0]
['beep', 0.0, -970.244523315969, 0.0, 0.0, 0.0, 0.0, -1141.0342026989701, 0.0]
['beep', 0.0, -970.4009855271561, 0.0, 0.0, 0.0, 0.0, -1140.4754090875876, 0.0]
['beep', 0.0, -970.9597791385388, 0.0, 0.0, 0.0, 0.0, -1140.9224439766938, 0.0]
['beep', 0.0, -971.1162413497259, 0.0, 0.0, 0.0, 0.0, -1141.883568988272, 0.0]
['beep', 0.0, -971.4515175165556, 0.0, 0.0, 0.0, 0.0, -1142.4423625996546, 0.0]
['beep', 0.0, -970.6468547161645, 0.0, 0.0, 0.0, 0.0, -1144.2081504116238, 0.0]
['beep', 0.0, -970.7139099495304, 0.0, 0.0, 0.0, 0.0, -1145.0798684453807, 0.0]
['beep', 0.0, -969.3504535377567, 0.0, 0.0, 0.0, 0.0, -1145.7057172901293, 0.0]
['beep', 0.0, -968.9257703931058, 0.0, 0.0, 0.0, 0.0, -1147.426801613188, 0.0]
['beep', 0.0, -969.2163430710249, 0.0, 0.0, 0.0, 0.0, -1147.2256359130904, 0.0]
['beep', 0.0, -971.2056483275471, 0.0, 0.0, 0.0, 0.0, -1145.7280690345847, 0.0]
['beep', 0.0, -970.8703721607176, 0.0, 0.0, 0.0, 0.0, -1145.8845312457718, 0.0]
['beep', 0.0, -970.825668671807, 0.0, 0.0, 0.0, 0.0, -1145.7727725234954, 0.0]
['beep', 0.0, -969.7527849379522, 0.0, 0.0, 0.0, 0.0, -1145.8398277568613, 0.0]
['beep', 0.0, -969.3951570266673, 0.0, 0.0, 0.0, 0.0, -1146.7338975350735, 0.0]
['beep', 0.0, -969.7751366824075, 0.0, 0.0, 0.0, 0.0, -1146.622138812797, 0.0]
['beep', 0.0, -970.4680407605221, 0.0, 0.0, 0.0, 0.0, -1147.203284168635, 0.0]
['beep', 0.0, -969.6186744712204, 0.0, 0.0, 0.0, 0.0, -1147.9185399912049, 0.0]
['beep', 0.0, -969.8868954046841, 0.0, 0.0, 0.0, 0.0, -1147.203284168635, 0.0]
['beep', 0.0, -969.663377960131, 0.0, 0.0, 0.0, 0.0, -1147.270339402001, 0.0]
['beep', 0.0, -969.2386948154801, 0.0, 0.0, 0.0, 0.0, -1147.3150428909116, 0.0]
['beep', 0.0, -971.3397587942791, 0.0, 0.0, 0.0, 0.0, -1148.6114440693193, 0.0]
['beep', 0.0, -970.8927239051728, 0.0, 0.0, 0.0, 0.0, -1148.2538161580344, 0.0]
['beep', 0.0, -971.3844622831897, 0.0, 0.0, 0.0, 0.0, -1146.8903597462606, 0.0]
['beep', 0.0, -971.3844622831897, 0.0, 0.0, 0.0, 0.0, -1146.3762696237886, 0.0]
['beep', 0.0, -970.4903925049773, 0.0, 0.0, 0.0, 0.0, -1146.2421591570567, 0.0]
['beep', 0.0, -970.9374273940834, 0.0, 0.0, 0.0, 0.0, -1146.8233045128948, 0.0]
['beep', 0.0, -970.7809651828964, 0.0, 0.0, 0.0, 0.0, -1146.8009527684394, 0.0]
['beep', 0.0, -970.4456890160667, 0.0, 0.0, 0.0, 0.0, -1146.9350632351714, 0.0]
['beep', 0.0, -971.5632762388321, 0.0, 0.0, 0.0, 0.0, -1147.0021184685372, 0.0]
['beep', 0.0, -971.4291657721003, 0.0, 0.0, 0.0, 0.0, -1146.4433248571545, 0.0]
['beep', 0.0, -970.8033169273516, 0.0, 0.0, 0.0, 0.0, -1147.426801613188, 0.0]
['beep', 0.0, -971.2280000720025, 0.0, 0.0, 0.0, 0.0, -1146.9574149796267, 0.0]
['beep', 0.0, -971.2950553053685, 0.0, 0.0, 0.0, 0.0, -1147.2256359130904, 0.0]
['beep', 0.0, -970.6692064606198, 0.0, 0.0, 0.0, 0.0, -1148.0302987134814, 0.0]
['beep', 0.0, -970.3786337827008, 0.0, 0.0, 0.0, 0.0, -1146.8233045128948, 0.0]
['beep', 0.0, -970.1998198270584, 0.0, 0.0, 0.0, 0.0, -1146.9797667240819, 0.0]
['beep', 0.0, -969.6410262156757, 0.0, 0.0, 0.0, 0.0, -1146.9797667240819, 0.0]
['beep', 0.0, -968.7022529485528, 0.0, 0.0, 0.0, 0.0, -1147.4044498687329, 0.0]
['beep', 0.0, -969.1045843487483, 0.0, 0.0, 0.0, 0.0, -1147.717374291107, 0.0]
['beep', 0.0, -968.9257703931058, 0.0, 0.0, 0.0, 0.0, -1146.2421591570567, 0.0]
['beep', 0.0, -969.1939913265695, 0.0, 0.0, 0.0, 0.0, -1147.3820981242775, 0.0]
['beep', 0.0, -970.0433576158712, 0.0, 0.0, 0.0, 0.0, -1147.8067812689283, 0.0]
['beep', 0.0, -969.8198401713181, 0.0, 0.0, 0.0, 0.0, -1147.784429524473, 0.0]
['beep', 0.0, -969.663377960131, 0.0, 0.0, 0.0, 0.0, -1147.6726708021965, 0.0]
['beep', 0.0, -969.9315988935947, 0.0, 0.0, 0.0, 0.0, -1148.8573132583276, 0.0]
['beep', 0.0, -970.5127442494327, 0.0, 0.0, 0.0, 0.0, -1147.5385603354646, 0.0]
['beep', 0.0, -970.5127442494327, 0.0, 0.0, 0.0, 0.0, -1147.069173701903, 0.0]
['beep', 0.0, -970.2892268048796, 0.0, 0.0, 0.0, 0.0, -1147.3597463798221, 0.0]
['beep', 0.0, -970.4680407605221, 0.0, 0.0, 0.0, 0.0, -1147.0244702129926, 0.0]
['beep', 0.0, -970.6692064606198, 0.0, 0.0, 0.0, 0.0, -1147.3820981242775, 0.0]
['beep', 0.0, -969.9763023825053, 0.0, 0.0, 0.0, 0.0, -1147.2479876575455, 0.0]
['beep', 0.0, -969.372805282212, 0.0, 0.0, 0.0, 0.0, -1147.3150428909116, 0.0]
['beep', 0.0, -970.6021512272539, 0.0, 0.0, 0.0, 0.0, -1148.1197056913027, 0.0]
['beep', 0.0, -972.8820291616952, 0.0, 0.0, 0.0, 0.0, -1147.1362289352692, 0.0]
['beep', 0.0, -974.1113751067371, 0.0, 0.0, 0.0, 0.0, -1146.7338975350735, 0.0]
['beep', 0.0, -973.3514157952567, 0.0, 0.0, 0.0, 0.0, -1147.5385603354646, 0.0]
['beep', 0.0, -972.5691047393209, 0.0, 0.0, 0.0, 0.0, -1147.3373946353668, 0.0]
['beep', 0.0, -972.4796977614997, 0.0, 0.0, 0.0, 0.0, -1147.5162085910092, 0.0]
['beep', 0.0, -973.2843605618907, 0.0, 0.0, 0.0, 0.0, -1147.784429524473, 0.0]
['beep', 0.0, -974.6478169736645, 0.0, 0.0, 0.0, 0.0, -1148.8573132583276, 0.0]
['beep', 0.0, -973.7313954509968, 0.0, 0.0, 0.0, 0.0, -1148.723202791596, 0.0]
['beep', 0.0, -973.3514157952567, 0.0, 0.0, 0.0, 0.0, -1148.3432231358556, 0.0]
['beep', 0.0, -973.7984506843628, 0.0, 0.0, 0.0, 0.0, -1148.7455545360513, 0.0]
['beep', 0.0, -974.7819274403963, 0.0, 0.0, 0.0, 0.0, -1148.1867609246685, 0.0]
['beep', 0.0, -973.6866919620862, 0.0, 0.0, 0.0, 0.0, -1148.1644091802132, 0.0]
['beep', 0.0, -974.178430340103, 0.0, 0.0, 0.0, 0.0, -1149.5949208253528, 0.0]
['beep', 0.0, -973.3290640508013, 0.0, 0.0, 0.0, 0.0, -1148.3208713914003, 0.0]
['beep', 0.0, -973.5749332398098, 0.0, 0.0, 0.0, 0.0, -1147.784429524473, 0.0]
['beep', 0.0, -974.7819274403963, 0.0, 0.0, 0.0, 0.0, -1147.9632434801154, 0.0]
['beep', 0.0, -974.401947784656, 0.0, 0.0, 0.0, 0.0, -1147.8067812689283, 0.0]
['beep', 0.0, -973.8208024288181, 0.0, 0.0, 0.0, 0.0, -1147.1809324241797, 0.0]
['beep', 0.0, -974.1560785956477, 0.0, 0.0, 0.0, 0.0, -1146.5774353238864, 0.0]
['beep', 0.0, -974.401947784656, 0.0, 0.0, 0.0, 0.0, -1146.8456562573501, 0.0]
['beep', 0.0, -973.2620088174355, 0.0, 0.0, 0.0, 0.0, -1147.6056155688304, 0.0]
['beep', 0.0, -975.1395553516812, 0.0, 0.0, 0.0, 0.0, -1146.4433248571545, 0.0]
['beep', 0.0, -974.5584099958432, 0.0, 0.0, 0.0, 0.0, -1146.5997870683418, 0.0]
['beep', 0.0, -973.8208024288181, 0.0, 0.0, 0.0, 0.0, -1146.4656766016099, 0.0]
['beep', 0.0, -975.0054448849494, 0.0, 0.0, 0.0, 0.0, -1146.689194046163, 0.0]
['beep', 0.0, -974.469003018022, 0.0, 0.0, 0.0, 0.0, -1145.3927928677551, 0.0]
['beep', 0.0, -974.4466512735667, 0.0, 0.0, 0.0, 0.0, -1144.7669440230065, 0.0]
['beep', 0.0, -974.3125408068348, 0.0, 0.0, 0.0, 0.0, -1145.4374963566656, 0.0]
['beep', 0.0, -974.1560785956477, 0.0, 0.0, 0.0, 0.0, -1145.1245719342915, 0.0]
['beep', 0.0, -972.7479186949633, 0.0, 0.0, 0.0, 0.0, -1144.945757978649, 0.0]
['beep', 0.0, -971.9656076390277, 0.0, 0.0, 0.0, 0.0, -1145.817476012406, 0.0]
['beep', 0.0, -971.9656076390277, 0.0, 0.0, 0.0, 0.0, -1144.7669440230065, 0.0]
['beep', 0.0, -973.2173053285248, 0.0, 0.0, 0.0, 0.0, -1144.9904614675595, 0.0]
['beep', 0.0, -972.5467529948656, 0.0, 0.0, 0.0, 0.0, -1145.7951242679505, 0.0]
['beep', 0.0, -972.7702704394187, 0.0, 0.0, 0.0, 0.0, -1146.756249279529, 0.0]
['beep', 0.0, -973.2396570729801, 0.0, 0.0, 0.0, 0.0, -1145.9515864791379, 0.0]
['beep', 0.0, -972.5244012504103, 0.0, 0.0, 0.0, 0.0, -1146.1974556681462, 0.0]
['beep', 0.0, -972.6361599726869, 0.0, 0.0, 0.0, 0.0, -1146.7786010239843, 0.0]
['beep', 0.0, -972.9267326506058, 0.0, 0.0, 0.0, 0.0, -1146.7786010239843, 0.0]
['beep', 0.0, -973.5302297508991, 0.0, 0.0, 0.0, 0.0, -1145.7727725234954, 0.0]
['beep', 0.0, -972.5467529948656, 0.0, 0.0, 0.0, 0.0, -1145.8845312457718, 0.0]
['beep', 0.0, -971.1162413497259, 0.0, 0.0, 0.0, 0.0, -1145.9292347346825, 0.0]
['beep', 0.0, -971.2950553053685, 0.0, 0.0, 0.0, 0.0, -1145.4374963566656, 0.0]
['beep', 0.0, -972.4126425281338, 0.0, 0.0, 0.0, 0.0, -1145.7057172901293, 0.0]
['beep', 0.0, -972.278532061402, 0.0, 0.0, 0.0, 0.0, -1145.973938223593, 0.0]
['beep', 0.0, -972.7479186949633, 0.0, 0.0, 0.0, 0.0, -1145.7057172901293, 0.0]
['beep', 0.0, -972.8596774172399, 0.0, 0.0, 0.0, 0.0, -1145.7280690345847, 0.0]
['beep', 0.0, -971.2727035609131, 0.0, 0.0, 0.0, 0.0, -1146.7338975350735, 0.0]
['beep', 0.0, -971.2503518164577, 0.0, 0.0, 0.0, 0.0, -1145.9515864791379, 0.0]
['beep', 0.0, -971.5632762388321, 0.0, 0.0, 0.0, 0.0, -1146.5774353238864, 0.0]
['beep', 0.0, -971.2280000720025, 0.0, 0.0, 0.0, 0.0, -1146.331566134878, 0.0]
['beep', 0.0, -971.1832965830919, 0.0, 0.0, 0.0, 0.0, -1144.9904614675595, 0.0]
['beep', 0.0, -971.2727035609131, 0.0, 0.0, 0.0, 0.0, -1146.6668423017077, 0.0]
['beep', 0.0, -971.7867936833852, 0.0, 0.0, 0.0, 0.0, -1145.6610138012188, 0.0]
['beep', 0.0, -970.8033169273516, 0.0, 0.0, 0.0, 0.0, -1145.7951242679505, 0.0]
['beep', 0.0, -970.3786337827008, 0.0, 0.0, 0.0, 0.0, -1146.5103800905206, 0.0]
['beep', 0.0, -971.7197384500192, 0.0, 0.0, 0.0, 0.0, -1146.9574149796267, 0.0]
['beep', 0.0, -972.1891250835807, 0.0, 0.0, 0.0, 0.0, -1147.2479876575455, 0.0]
['beep', 0.0, -970.825668671807, 0.0, 0.0, 0.0, 0.0, -1147.1138771908138, 0.0]
['beep', 0.0, -970.982130882994, 0.0, 0.0, 0.0, 0.0, -1147.046821957448, 0.0]
['beep', 0.0, -970.6468547161645, 0.0, 0.0, 0.0, 0.0, -1146.8456562573501, 0.0]
['beep', 0.0, -970.982130882994, 0.0, 0.0, 0.0, 0.0, -1147.5162085910092, 0.0]
['beep', 0.0, -970.758613438441, 0.0, 0.0, 0.0, 0.0, -1147.0244702129926, 0.0]
['beep', 0.0, -970.2668750604242, 0.0, 0.0, 0.0, 0.0, -1147.3597463798221, 0.0]
['beep', 0.0, -969.9315988935947, 0.0, 0.0, 0.0, 0.0, -1147.493856846554, 0.0]
['beep', 0.0, -969.7527849379522, 0.0, 0.0, 0.0, 0.0, -1147.56091207992, 0.0]
['beep', 0.0, -970.0433576158712, 0.0, 0.0, 0.0, 0.0, -1147.5832638243753, 0.0]
['beep', 0.0, -970.1998198270584, 0.0, 0.0, 0.0, 0.0, -1146.689194046163, 0.0]
['beep', 0.0, -969.5292674933992, 0.0, 0.0, 0.0, 0.0, -1147.4491533576434, 0.0]
['beep', 0.0, -969.8421919157735, 0.0, 0.0, 0.0, 0.0, -1148.075002202392, 0.0]
['beep', 0.0, -969.3281017933014, 0.0, 0.0, 0.0, 0.0, -1148.522037091498, 0.0]
['beep', 0.0, -968.7693081819187, 0.0, 0.0, 0.0, 0.0, -1149.0808307028808, 0.0]
['beep', 0.0, -968.3669767817232, 0.0, 0.0, 0.0, 0.0, -1147.5162085910092, 0.0]
['beep', 0.0, -968.0764041038042, 0.0, 0.0, 0.0, 0.0, -1147.4044498687329, 0.0]
['beep', 0.0, -968.6575494596422, 0.0, 0.0, 0.0, 0.0, -1147.56091207992, 0.0]
['beep', 0.0, -969.5516192378544, 0.0, 0.0, 0.0, 0.0, -1146.756249279529, 0.0]
['beep', 0.0, -969.1939913265695, 0.0, 0.0, 0.0, 0.0, -1147.203284168635, 0.0]
['beep', 0.0, -969.6410262156757, 0.0, 0.0, 0.0, 0.0, -1146.8680080018055, 0.0]
['beep', 0.0, -969.8198401713181, 0.0, 0.0, 0.0, 0.0, -1148.4326301136769, 0.0]
['beep', 0.0, -969.7751366824075, 0.0, 0.0, 0.0, 0.0, -1147.851484757839, 0.0]
['beep', 0.0, -968.8140116708294, 0.0, 0.0, 0.0, 0.0, -1148.6114440693193, 0.0]
['beep', 0.0, -969.7080814490416, 0.0, 0.0, 0.0, 0.0, -1148.8349615138725, 0.0]
['beep', 0.0, -970.3786337827008, 0.0, 0.0, 0.0, 0.0, -1149.3714033807998, 0.0]
['beep', 0.0, -970.1104128492372, 0.0, 0.0, 0.0, 0.0, -1149.6619760587187, 0.0]
['beep', 0.0, -968.9257703931058, 0.0, 0.0, 0.0, 0.0, -1149.4161068697103, 0.0]
['beep', 0.0, -969.4845640044886, 0.0, 0.0, 0.0, 0.0, -1149.1031824473362, 0.0]
['beep', 0.0, -970.6692064606198, 0.0, 0.0, 0.0, 0.0, -1148.4102783692215, 0.0]
['beep', 0.0, -970.6468547161645, 0.0, 0.0, 0.0, 0.0, -1149.527865591987, 0.0]
['beep', 0.0, -970.758613438441, 0.0, 0.0, 0.0, 0.0, -1150.1537144367355, 0.0]
['beep', 0.0, -970.4009855271561, 0.0, 0.0, 0.0, 0.0, -1149.684327803174, 0.0]
['beep', 0.0, -969.4845640044886, 0.0, 0.0, 0.0, 0.0, -1149.4831621030762, 0.0]
['beep', 0.0, -968.8810669041952, 0.0, 0.0, 0.0, 0.0, -1149.527865591987, 0.0]
['beep', 0.0, -968.9928256264718, 0.0, 0.0, 0.0, 0.0, -1150.3101766479226, 0.0]
['beep', 0.0, -969.3057500488461, 0.0, 0.0, 0.0, 0.0, -1149.460810358621, 0.0]
['beep', 0.0, -968.8810669041952, 0.0, 0.0, 0.0, 0.0, -1147.9632434801154, 0.0]
['beep', 0.0, -969.0375291153824, 0.0, 0.0, 0.0, 0.0, -1149.0808307028808, 0.0]
['beep', 0.0, -969.3281017933014, 0.0, 0.0, 0.0, 0.0, -1149.013775469515, 0.0]
['beep', 0.0, -969.4845640044886, 0.0, 0.0, 0.0, 0.0, -1149.9972522255484, 0.0]
['beep', 0.0, -968.8140116708294, 0.0, 0.0, 0.0, 0.0, -1150.5783975813863, 0.0]
['beep', 0.0, -968.2999215483572, 0.0, 0.0, 0.0, 0.0, -1149.684327803174, 0.0]
['beep', 0.0, -967.696424448064, 0.0, 0.0, 0.0, 0.0, -1149.6619760587187, 0.0]
['beep', 0.0, -966.2882645473796, 0.0, 0.0, 0.0, 0.0, -1148.0526504579366, 0.0]
['beep', 0.0, -965.8635814027288, 0.0, 0.0, 0.0, 0.0, -1146.331566134878, 0.0]
['beep', 0.0, -965.5730087248098, 0.0, 0.0, 0.0, 0.0, -1145.9292347346825, 0.0]
['beep', 0.0, -964.7459941799634, 0.0, 0.0, 0.0, 0.0, -1145.8845312457718, 0.0]
['beep', 0.0, -966.6682442031198, 0.0, 0.0, 0.0, 0.0, -1145.7280690345847, 0.0]
['beep', 0.0, -967.9422936370723, 0.0, 0.0, 0.0, 0.0, -1145.8398277568613, 0.0]
['beep', 0.0, -968.5234389929103, 0.0, 0.0, 0.0, 0.0, -1145.7280690345847, 0.0]
['beep', 0.0, -969.8198401713181, 0.0, 0.0, 0.0, 0.0, -1146.8680080018055, 0.0]
['beep', 0.0, -970.5127442494327, 0.0, 0.0, 0.0, 0.0, -1146.8233045128948, 0.0]
['beep', 0.0, -968.6128459707315, 0.0, 0.0, 0.0, 0.0, -1146.8680080018055, 0.0]
['beep', 0.0, -968.6128459707315, 0.0, 0.0, 0.0, 0.0, -1146.622138812797, 0.0]
['beep', 0.0, -968.8363634152846, 0.0, 0.0, 0.0, 0.0, -1146.1527521792354, 0.0]
['beep', 0.0, -968.9928256264718, 0.0, 0.0, 0.0, 0.0, -1147.493856846554, 0.0]
['beep', 0.0, -968.4340320150891, 0.0, 0.0, 0.0, 0.0, -1148.2538161580344, 0.0]
['beep', 0.0, -967.6740727036087, 0.0, 0.0, 0.0, 0.0, -1147.1585806797243, 0.0]
['beep', 0.0, -968.4787355039997, 0.0, 0.0, 0.0, 0.0, -1146.4433248571545, 0.0]
['beep', 0.0, -968.3669767817232, 0.0, 0.0, 0.0, 0.0, -1146.2421591570567, 0.0]
['beep', 0.0, -968.5234389929103, 0.0, 0.0, 0.0, 0.0, -1146.1527521792354, 0.0]
['beep', 0.0, -967.8752384037065, 0.0, 0.0, 0.0, 0.0, -1147.1138771908138, 0.0]
['beep', 0.0, -967.3387965367791, 0.0, 0.0, 0.0, 0.0, -1147.56091207992, 0.0]
['beep', 0.0, -967.5176104924216, 0.0, 0.0, 0.0, 0.0, -1147.1809324241797, 0.0]
['beep', 0.0, -968.2999215483572, 0.0, 0.0, 0.0, 0.0, -1147.1809324241797, 0.0]
['beep', 0.0, -968.0093488704383, 0.0, 0.0, 0.0, 0.0, -1146.4209731126994, 0.0]
['beep', 0.0, -968.5234389929103, 0.0, 0.0, 0.0, 0.0, -1145.8398277568613, 0.0]
['beep', 0.0, -969.1269360932037, 0.0, 0.0, 0.0, 0.0, -1145.817476012406, 0.0]
['beep', 0.0, -968.4787355039997, 0.0, 0.0, 0.0, 0.0, -1146.4433248571545, 0.0]
['beep', 0.0, -967.2046860700472, 0.0, 0.0, 0.0, 0.0, -1146.9574149796267, 0.0]
['beep', 0.0, -968.277569803902, 0.0, 0.0, 0.0, 0.0, -1145.9068829902271, 0.0]
['beep', 0.0, -968.1881628260808, 0.0, 0.0, 0.0, 0.0, -1145.973938223593, 0.0]
['beep', 0.0, -969.3951570266673, 0.0, 0.0, 0.0, 0.0, -1146.4433248571545, 0.0]
['beep', 0.0, -971.0044826274494, 0.0, 0.0, 0.0, 0.0, -1145.6610138012188, 0.0]
['beep', 0.0, -969.3057500488461, 0.0, 0.0, 0.0, 0.0, -1146.2421591570567, 0.0]
['beep', 0.0, -969.596322726765, 0.0, 0.0, 0.0, 0.0, -1145.616310312308, 0.0]
['beep', 0.0, -969.2163430710249, 0.0, 0.0, 0.0, 0.0, -1145.7057172901293, 0.0]
['beep', 0.0, -969.7751366824075, 0.0, 0.0, 0.0, 0.0, -1144.6104818118195, 0.0]
['beep', 0.0, -968.85871515974, 0.0, 0.0, 0.0, 0.0, -1143.5375980779647, 0.0]
['beep', 0.0, -968.0317006148936, 0.0, 0.0, 0.0, 0.0, -1144.3422608783558, 0.0]
['beep', 0.0, -969.2610465599355, 0.0, 0.0, 0.0, 0.0, -1143.850522500339, 0.0]
['beep', 0.0, -969.1492878376589, 0.0, 0.0, 0.0, 0.0, -1142.6435282997525, 0.0]
['beep', 0.0, -969.439860515578, 0.0, 0.0, 0.0, 0.0, -1141.6600515437187, 0.0]
['beep', 0.0, -969.596322726765, 0.0, 0.0, 0.0, 0.0, -1141.4812375880763, 0.0]
['beep', 0.0, -969.5516192378544, 0.0, 0.0, 0.0, 0.0, -1140.0283741984815, 0.0]
['beep', 0.0, -970.0657093603265, 0.0, 0.0, 0.0, 0.0, -1138.8660834868056, 0.0]
['beep', 0.0, -968.7469564374634, 0.0, 0.0, 0.0, 0.0, -1138.0614206864143, 0.0]
['beep', 0.0, -969.0375291153824, 0.0, 0.0, 0.0, 0.0, -1136.6756125301854, 0.0]
['beep', 0.0, -969.7527849379522, 0.0, 0.0, 0.0, 0.0, -1136.5638538079088, 0.0]
['beep', 0.0, -969.0375291153824, 0.0, 0.0, 0.0, 0.0, -1134.2839758734674, 0.0]
['beep', 0.0, -968.6575494596422, 0.0, 0.0, 0.0, 0.0, -1132.8981677172385, 0.0]
['beep', 0.0, -969.0598808598377, 0.0, 0.0, 0.0, 0.0, -1132.3170223614004, 0.0]
['beep', 0.0, -968.7022529485528, 0.0, 0.0, 0.0, 0.0, -1129.590109537853, 0.0]
['beep', 0.0, -967.986997125983, 0.0, 0.0, 0.0, 0.0, -1127.55610079242, 0.0]
['beep', 0.0, -967.8305349147959, 0.0, 0.0, 0.0, 0.0, -1123.3763245792777, 0.0]
['beep', 0.0, -969.082232604293, 0.0, 0.0, 0.0, 0.0, -1117.9895541655487, 0.0]
['beep', 0.0, -968.7693081819187, 0.0, 0.0, 0.0, 0.0, -1113.3180395743896, 0.0]
['beep', 0.0, -968.1658110816254, 0.0, 0.0, 0.0, 0.0, -1107.8418621828393, 0.0]
['beep', 0.0, -969.372805282212, 0.0, 0.0, 0.0, 0.0, -1101.2928010574342, 0.0]
['beep', 0.0, -969.5292674933992, 0.0, 0.0, 0.0, 0.0, -1094.5649259763868, 0.0]
['beep', 0.0, -969.2163430710249, 0.0, 0.0, 0.0, 0.0, -1091.234516052546, 0.0]
['beep', 0.0, -967.2493895589578, 0.0, 0.0, 0.0, 0.0, -1086.652408439208, 0.0]
['beep', 0.0, -967.405851770145, 0.0, 0.0, 0.0, 0.0, -1081.4891554700323, 0.0]
['beep', 0.0, -972.6361599726869, 0.0, 0.0, 0.0, 0.0, -1076.4823647120434, 0.0]
['beep', 0.0, -976.4806600189996, 0.0, 0.0, 0.0, 0.0, -1073.0178443214709, 0.0]
['beep', 0.0, -972.502049505955, 0.0, 0.0, 0.0, 0.0, -1072.5037541989989, 0.0]
['beep', 0.0, -967.9422936370723, 0.0, 0.0, 0.0, 0.0, -1069.7768413754513, 0.0]
['beep', 0.0, -972.3902907836784, 0.0, 0.0, 0.0, 0.0, -1066.625245407253, 0.0]
['beep', 0.0, -976.0336251298935, 0.0, 0.0, 0.0, 0.0, -1065.1053267842922, 0.0]
['beep', 0.0, -973.7313954509968, 0.0, 0.0, 0.0, 0.0, -1062.0207860494597, 0.0]
['beep', 0.0, -969.1045843487483, 0.0, 0.0, 0.0, 0.0, -1060.9702540600604, 0.0]
['beep', 0.0, -971.04918611636, 0.0, 0.0, 0.0, 0.0, -1058.9362453146275, 0.0]
['beep', 0.0, -975.0725001183152, 0.0, 0.0, 0.0, 0.0, -1056.879884824739, 0.0]
['beep', 0.0, -975.0948518627706, 0.0, 0.0, 0.0, 0.0, -1053.5494749008983, 0.0]
['beep', 0.0, -977.5311920083991, 0.0, 0.0, 0.0, 0.0, -1053.2365504785241, 0.0]
['beep', 0.0, -979.0287588869046, 0.0, 0.0, 0.0, 0.0, -1052.8789225672392, 0.0]
['beep', 0.0, -982.113299621737, 0.0, 0.0, 0.0, 0.0, -1052.2977772114011, 0.0]
['beep', 0.0, -982.7838519553962, 0.0, 0.0, 0.0, 0.0, -1048.5426841429096, 0.0]
['beep', 0.0, -980.6157327432314, 0.0, 0.0, 0.0, 0.0, -1049.012070776471, 0.0]
['beep', 0.0, -981.018064143427, 0.0, 0.0, 0.0, 0.0, -1050.3978789327, 0.0]
['beep', 0.0, -982.627389744209, 0.0, 0.0, 0.0, 0.0, -1050.174361488147, 0.0]
['beep', 0.0, -984.2143636005359, 0.0, 0.0, 0.0, 0.0, -1049.3026434543901, 0.0]
['beep', 0.0, -985.466061290033, 0.0, 0.0, 0.0, 0.0, -1048.1627044871693, 0.0]
['beep', 0.0, -985.3543025677566, 0.0, 0.0, 0.0, 0.0, -1048.6767946096415, 0.0]
['beep', 0.0, -987.4330148021002, 0.0, 0.0, 0.0, 0.0, -1049.3920504322114, 0.0]
['beep', 0.0, -988.0365119023934, 0.0, 0.0, 0.0, 0.0, -1048.9003120541945, 0.0]
['beep', 0.0, -990.0705206478264, 0.0, 0.0, 0.0, 0.0, -1051.2472452220018, 0.0]
['beep', 0.0, -994.4738143055218, 0.0, 0.0, 0.0, 0.0, -1052.0519080223928, 0.0]
['beep', 0.0, -991.8363084597956, 0.0, 0.0, 0.0, 0.0, -1050.5096376549766, 0.0]
['beep', 0.0, -989.4223200586224, 0.0, 0.0, 0.0, 0.0, -1051.8283905778399, 0.0]
['beep', 0.0, -992.4621573045442, 0.0, 0.0, 0.0, 0.0, -1053.8623993232727, 0.0]
['beep', 0.0, -994.853793961262, 0.0, 0.0, 0.0, 0.0, -1054.4435446791106, 0.0]
['beep', 0.0, -997.2677823624352, 0.0, 0.0, 0.0, 0.0, -1054.4882481680213, 0.0]
['beep', 0.0, -997.6254102737201, 0.0, 0.0, 0.0, 0.0, -1052.9683295450604, 0.0]
['beep', 0.0, -996.0160846729381, 0.0, 0.0, 0.0, 0.0, -1052.1636667446694, 0.0]
['beep', 0.0, -996.306657350857, 0.0, 0.0, 0.0, 0.0, -1052.3424807003119, 0.0]
['beep', 0.0, -996.7983957288737, 0.0, 0.0, 0.0, 0.0, -1053.594178389809, 0.0]
['beep', 0.0, -997.759520740452, 0.0, 0.0, 0.0, 0.0, -1052.141315000214, 0.0]
['beep', 0.0, -998.6535905186643, 0.0, 0.0, 0.0, 0.0, -1051.470762666555, 0.0]
['beep', 0.0, -1000.4417300750888, 0.0, 0.0, 0.0, 0.0, -1054.0635650233705, 0.0]
['beep', 0.0, -1001.6263725312201, 0.0, 0.0, 0.0, 0.0, -1054.9799865460382, 0.0]
['beep', 0.0, -1003.5039190654659, 0.0, 0.0, 0.0, 0.0, -1054.3541377012893, 0.0]
['beep', 0.0, -1003.7721399989296, 0.0, 0.0, 0.0, 0.0, -1055.5387801574207, 0.0]
['beep', 0.0, -1004.1968231435804, 0.0, 0.0, 0.0, 0.0, -1054.756469101485, 0.0]
['beep', 0.0, -1002.1851661426027, 0.0, 0.0, 0.0, 0.0, -1054.7788208459403, 0.0]
['beep', 0.0, -1001.5146138089435, 0.0, 0.0, 0.0, 0.0, -1054.600006890298, 0.0]
['beep', 0.0, -1001.2240411310246, 0.0, 0.0, 0.0, 0.0, -1053.594178389809, 0.0]
['beep', 0.0, -1000.3970265861782, 0.0, 0.0, 0.0, 0.0, -1053.5271231564432, 0.0]
['beep', 0.0, -1002.3863318427005, 0.0, 0.0, 0.0, 0.0, -1053.661233623175, 0.0]
['beep', 0.0, -1003.369808598734, 0.0, 0.0, 0.0, 0.0, -1052.1636667446694, 0.0]
['beep', 0.0, -1004.7332650105078, 0.0, 0.0, 0.0, 0.0, -1050.0626027658705, 0.0]
['beep', 0.0, -1005.1802998996139, 0.0, 0.0, 0.0, 0.0, -1050.5543411438873, 0.0]
['beep', 0.0, -1006.0296661889156, 0.0, 0.0, 0.0, 0.0, -1052.498942911499, 0.0]
['beep', 0.0, -1004.53209931041, 0.0, 0.0, 0.0, 0.0, -1052.2977772114011, 0.0]
['beep', 0.0, -1005.0238376884267, 0.0, 0.0, 0.0, 0.0, -1051.6048731332867, 0.0]
['beep', 0.0, -1005.1802998996139, 0.0, 0.0, 0.0, 0.0, -1051.470762666555, 0.0]
['beep', 0.0, -1003.6827330211083, 0.0, 0.0, 0.0, 0.0, -1051.6719283666525, 0.0]
['beep', 0.0, -1004.5768027993206, 0.0, 0.0, 0.0, 0.0, -1051.6719283666525, 0.0]
['beep', 0.0, -1006.4319975891111, 0.0, 0.0, 0.0, 0.0, -1051.0013760329934, 0.0]
['beep', 0.0, -1008.0413231898932, 0.0, 0.0, 0.0, 0.0, -1050.9119690551722, 0.0]
['beep', 0.0, -1006.9013842226725, 0.0, 0.0, 0.0, 0.0, -1050.531989399432, 0.0]
['beep', 0.0, -1005.3591138552564, 0.0, 0.0, 0.0, 0.0, -1050.1296579992363, 0.0]
['beep', 0.0, -1004.3756370992229, 0.0, 0.0, 0.0, 0.0, -1049.1685329876582, 0.0]
['beep', 0.0, -1006.208480144558, 0.0, 0.0, 0.0, 0.0, -1050.4425824216107, 0.0]
['beep', 0.0, -1008.3318958678122, 0.0, 0.0, 0.0, 0.0, -1048.7662015874628, 0.0]
['beep', 0.0, -1009.0471516903821, 0.0, 0.0, 0.0, 0.0, -1048.20740797608, 0.0]
['beep', 0.0, -1008.7789307569184, 0.0, 0.0, 0.0, 0.0, -1049.1685329876582, 0.0]
['beep', 0.0, -1006.2978871223793, 0.0, 0.0, 0.0, 0.0, -1047.11217249777, 0.0]
['beep', 0.0, -1005.7837969999072, 0.0, 0.0, 0.0, 0.0, -1045.9945852750045, 0.0]
['beep', 0.0, -1006.2531836334687, 0.0, 0.0, 0.0, 0.0, -1046.598082375298, 0.0]
['beep', 0.0, -1006.7672737559407, 0.0, 0.0, 0.0, 0.0, -1044.8322945633286, 0.0]
['beep', 0.0, -1007.9072127231614, 0.0, 0.0, 0.0, 0.0, -1042.9100445401723, 0.0]
['beep', 0.0, -1005.336762110801, 0.0, 0.0, 0.0, 0.0, -1041.881864295228, 0.0]
['beep', 0.0, -1003.1909946430916, 0.0, 0.0, 0.0, 0.0, -1042.1277334842364, 0.0]
['beep', 0.0, -1002.1851661426027, 0.0, 0.0, 0.0, 0.0, -1041.211311961569, 0.0]
['beep', 0.0, -1004.5768027993206, 0.0, 0.0, 0.0, 0.0, -1039.0431927494042, 0.0]
['beep', 0.0, -1004.8003202438737, 0.0, 0.0, 0.0, 0.0, -1039.1549514716808, 0.0]
['beep', 0.0, -1004.7779684994184, 0.0, 0.0, 0.0, 0.0, -1038.5067508824768, 0.0]
['beep', 0.0, -1006.499052822477, 0.0, 0.0, 0.0, 0.0, -1039.2890619384125, 0.0]
['beep', 0.0, -1003.3027533653682, 0.0, 0.0, 0.0, 0.0, -1038.596157860298, 0.0]
['beep', 0.0, -998.3853695852006, 0.0, 0.0, 0.0, 0.0, -1038.0597159933707, 0.0]
['beep', 0.0, -999.0112184299492, 0.0, 0.0, 0.0, 0.0, -1039.5572828718762, 0.0]
['beep', 0.0, -1001.4475585755777, 0.0, 0.0, 0.0, 0.0, -1038.2161782045578, 0.0]
['beep', 0.0, -1000.6652475196419, 0.0, 0.0, 0.0, 0.0, -1036.7856665594181, 0.0]
['beep', 0.0, -998.1395003961921, 0.0, 0.0, 0.0, 0.0, -1036.9197770261499, 0.0]
['beep', 0.0, -999.9052882081614, 0.0, 0.0, 0.0, 0.0, -1038.7079165825744, 0.0]
['beep', 0.0, -1003.146291154181, 0.0, 0.0, 0.0, 0.0, -1038.6185096047532, 0.0]
['beep', 0.0, -1000.1735091416251, 0.0, 0.0, 0.0, 0.0, -1035.9139485256612, 0.0]
['beep', 0.0, -992.7974334713738, 0.0, 0.0, 0.0, 0.0, -1033.432904891122, 0.0]
['beep', 0.0, -994.3844073277006, 0.0, 0.0, 0.0, 0.0, -1034.9751752585382, 0.0]
['beep', 0.0, -999.9723434415274, 0.0, 0.0, 0.0, 0.0, -1035.757486314474, 0.0]
['beep', 0.0, -999.7711777414296, 0.0, 0.0, 0.0, 0.0, -1034.885768280717, 0.0]
['beep', 0.0, -996.6419335176867, 0.0, 0.0, 0.0, 0.0, -1033.8575880357728, 0.0]
['beep', 0.0, -994.5855730277983, 0.0, 0.0, 0.0, 0.0, -1032.1365037127143, 0.0]
['beep', 0.0, -998.8771079632173, 0.0, 0.0, 0.0, 0.0, -1033.4776083800327, 0.0]
['beep', 0.0, -1002.4533870760664, 0.0, 0.0, 0.0, 0.0, -1033.0976287242925, 0.0]
['beep', 0.0, -997.6477620181754, 0.0, 0.0, 0.0, 0.0, -1032.0694484793482, 0.0]
['beep', 0.0, -991.0539974038599, 0.0, 0.0, 0.0, 0.0, -1030.7059920675745, 0.0]
['beep', 0.0, -992.953895682561, 0.0, 0.0, 0.0, 0.0, -1032.404724646178, 0.0]
['beep', 0.0, -997.4018928291671, 0.0, 0.0, 0.0, 0.0, -1029.5437013558985, 0.0]
['beep', 0.0, -996.7760439844185, 0.0, 0.0, 0.0, 0.0, -1028.7166868110523, 0.0]
['beep', 0.0, -989.5117270364436, 0.0, 0.0, 0.0, 0.0, -1027.9790792440272, 0.0]
['beep', 0.0, -987.7682909689297, 0.0, 0.0, 0.0, 0.0, -1028.850797277784, 0.0]
['beep', 0.0, -991.568087526332, 0.0, 0.0, 0.0, 0.0, -1028.113189710759, 0.0]
['beep', 0.0, -995.1220148947257, 0.0, 0.0, 0.0, 0.0, -1026.7497332989851, 0.0]
['beep', 0.0, -995.211421872547, 0.0, 0.0, 0.0, 0.0, -1027.241471677002, 0.0]
['beep', 0.0, -990.6069625147537, 0.0, 0.0, 0.0, 0.0, -1027.017954232449, 0.0]
['beep', 0.0, -985.5107647789437, 0.0, 0.0, 0.0, 0.0, -1026.302698409879, 0.0]
['beep', 0.0, -985.7566339679521, 0.0, 0.0, 0.0, 0.0, -1025.2074629315691, 0.0]
['beep', 0.0, -989.4446718030778, 0.0, 0.0, 0.0, 0.0, -1026.369753643245, 0.0]
['beep', 0.0, -992.4174538156336, 0.0, 0.0, 0.0, 0.0, -1025.7439047984965, 0.0]
['beep', 0.0, -987.3212560798236, 0.0, 0.0, 0.0, 0.0, -1024.3133931533569, 0.0]
['beep', 0.0, -983.3649973112342, 0.0, 0.0, 0.0, 0.0, -1025.2074629315691, 0.0]
['beep', 0.0, -984.728453723008, 0.0, 0.0, 0.0, 0.0, -1024.8945385091947, 0.0]
['beep', 0.0, -988.3270845803124, 0.0, 0.0, 0.0, 0.0, -1024.469855364544, 0.0]
['beep', 0.0, -986.8295177018068, 0.0, 0.0, 0.0, 0.0, -1025.3639251427562, 0.0]
['beep', 0.0, -980.6157327432314, 0.0, 0.0, 0.0, 0.0, -1023.4193233751445, 0.0]
['beep', 0.0, -982.6497414886644, 0.0, 0.0, 0.0, 0.0, -1022.0782187078261, 0.0]
['beep', 0.0, -985.5554682678543, 0.0, 0.0, 0.0, 0.0, -1021.5864803298093, 0.0]
['beep', 0.0, -987.1424421241811, 0.0, 0.0, 0.0, 0.0, -1021.6982390520858, 0.0]
['beep', 0.0, -984.1026048782594, 0.0, 0.0, 0.0, 0.0, -1018.8372157618065, 0.0]
['beep', 0.0, -982.7391484664856, 0.0, 0.0, 0.0, 0.0, -1018.5913465727981, 0.0]
['beep', 0.0, -986.918924679628, 0.0, 0.0, 0.0, 0.0, -1019.1501401841808, 0.0]
['beep', 0.0, -987.0306834019045, 0.0, 0.0, 0.0, 0.0, -1019.3289541398233, 0.0]
['beep', 0.0, -986.4271863016113, 0.0, 0.0, 0.0, 0.0, -1016.6914482940971, 0.0]
['beep', 0.0, -983.6108665002427, 0.0, 0.0, 0.0, 0.0, -1017.0937796942926, 0.0]
['beep', 0.0, -985.309599078846, 0.0, 0.0, 0.0, 0.0, -1016.0432477048931, 0.0]
['beep', 0.0, -986.8295177018068, 0.0, 0.0, 0.0, 0.0, -1015.1044744377703, 0.0]
['beep', 0.0, -986.8965729351727, 0.0, 0.0, 0.0, 0.0, -1014.6350878042088, 0.0]
['beep', 0.0, -988.7741194694186, 0.0, 0.0, 0.0, 0.0, -1014.2327564040132, 0.0]
['beep', 0.0, -990.6069625147537, 0.0, 0.0, 0.0, 0.0, -1011.7070092805636, 0.0]
['beep', 0.0, -990.8304799593068, 0.0, 0.0, 0.0, 0.0, -1010.8352912468066, 0.0]
['beep', 0.0, -990.5846107702984, 0.0, 0.0, 0.0, 0.0, -1011.1705674136363, 0.0]
['beep', 0.0, -991.6127910152426, 0.0, 0.0, 0.0, 0.0, -1010.7682360134406, 0.0]
['beep', 0.0, -991.3892735706895, 0.0, 0.0, 0.0, 0.0, -1008.2201371455357, 0.0]
['beep', 0.0, -991.2551631039577, 0.0, 0.0, 0.0, 0.0, -1007.8625092342508, 0.0]
['beep', 0.0, -993.467985805033, 0.0, 0.0, 0.0, 0.0, -1006.9907912004937, 0.0]
['beep', 0.0, -994.4514625610665, 0.0, 0.0, 0.0, 0.0, -1005.7390935109966, 0.0]
['beep', 0.0, -993.6691515051308, 0.0, 0.0, 0.0, 0.0, -1003.4145120876447, 0.0]
['beep', 0.0, -992.6186195157313, 0.0, 0.0, 0.0, 0.0, -1002.9674771985385, 0.0]
['beep', 0.0, -994.7420352389855, 0.0, 0.0, 0.0, 0.0, -1001.6710760201307, 0.0]
['beep', 0.0, -996.597230028776, 0.0, 0.0, 0.0, 0.0, -1001.9616486980497, 0.0]
['beep', 0.0, -997.4242445736223, 0.0, 0.0, 0.0, 0.0, -1000.6875992640972, 0.0]
['beep', 0.0, -996.6642852621419, 0.0, 0.0, 0.0, 0.0, -996.4184160731336, 0.0]
['beep', 0.0, -996.8430992177844, 0.0, 0.0, 0.0, 0.0, -996.597230028776, 0.0]
['beep', 0.0, -999.4582533190553, 0.0, 0.0, 0.0, 0.0, -997.8265759738179, 0.0]
['beep', 0.0, -999.212384130047, 0.0, 0.0, 0.0, 0.0, -995.4796428060107, 0.0]
['beep', 0.0, -1000.7770062419185, 0.0, 0.0, 0.0, 0.0, -993.7809102274073, 0.0]
['beep', 0.0, -1001.5593172978541, 0.0, 0.0, 0.0, 0.0, -995.725511995019, 0.0]
['beep', 0.0, -999.0335701744044, 0.0, 0.0, 0.0, 0.0, -996.3290090953124, 0.0]
['beep', 0.0, -996.6642852621419, 0.0, 0.0, 0.0, 0.0, -994.3620555832453, 0.0]
['beep', 0.0, -996.5748782843207, 0.0, 0.0, 0.0, 0.0, -994.0044276719603, 0.0]
['beep', 0.0, -996.7983957288737, 0.0, 0.0, 0.0, 0.0, -994.2950003498794, 0.0]
['beep', 0.0, -996.954857940061, 0.0, 0.0, 0.0, 0.0, -992.4845090489995, 0.0]
['beep', 0.0, -997.5360032958989, 0.0, 0.0, 0.0, 0.0, -992.305695093357, 0.0]
['beep', 0.0, -1001.0005236864715, 0.0, 0.0, 0.0, 0.0, -994.6973317500749, 0.0]
['beep', 0.0, -1002.7663114984407, 0.0, 0.0, 0.0, 0.0, -994.5632212833431, 0.0]
['beep', 0.0, -1002.5427940538876, 0.0, 0.0, 0.0, 0.0, -992.9091921936504, 0.0]
['beep', 0.0, -1002.4086835871558, 0.0, 0.0, 0.0, 0.0, -992.6633230046419, 0.0]
['beep', 0.0, -1003.5933260432871, 0.0, 0.0, 0.0, 0.0, -995.4572910615553, 0.0]
['beep', 0.0, -1000.1511573971699, 0.0, 0.0, 0.0, 0.0, -994.6973317500749, 0.0]
['beep', 0.0, -997.6030585292648, 0.0, 0.0, 0.0, 0.0, -994.2279451165134, 0.0]
['beep', 0.0, -999.726474252519, 0.0, 0.0, 0.0, 0.0, -992.6856747490973, 0.0]
['beep', 0.0, -1000.4640818195442, 0.0, 0.0, 0.0, 0.0, -992.6633230046419, 0.0]
['beep', 0.0, -1001.0452271753821, 0.0, 0.0, 0.0, 0.0, -992.2609916044464, 0.0]
['beep', 0.0, -1001.179337642114, 0.0, 0.0, 0.0, 0.0, -990.7410729814856, 0.0]
['beep', 0.0, -1003.1909946430916, 0.0, 0.0, 0.0, 0.0, -991.8586602042509, 0.0]
['beep', 0.0, -1004.1744713991251, 0.0, 0.0, 0.0, 0.0, -991.0092939149492, 0.0]
['beep', 0.0, -1003.146291154181, 0.0, 0.0, 0.0, 0.0, -988.8188229583292, 0.0]
['beep', 0.0, -1001.2463928754798, 0.0, 0.0, 0.0, 0.0, -987.6341805021979, 0.0]
['beep', 0.0, -1000.9111167086503, 0.0, 0.0, 0.0, 0.0, -988.2600293469465, 0.0]
['beep', 0.0, -1000.8664132197397, 0.0, 0.0, 0.0, 0.0, -987.7906427133851, 0.0]
['beep', 0.0, -1001.2910963643905, 0.0, 0.0, 0.0, 0.0, -989.0646921473375, 0.0]
['beep', 0.0, -1001.5146138089435, 0.0, 0.0, 0.0, 0.0, -987.7459392244745, 0.0]
['beep', 0.0, -1000.4417300750888, 0.0, 0.0, 0.0, 0.0, -987.5894770132873, 0.0]
['beep', 0.0, -999.7488259969743, 0.0, 0.0, 0.0, 0.0, -989.1540991251587, 0.0]
['beep', 0.0, -1000.0393986748933, 0.0, 0.0, 0.0, 0.0, -990.048168903371, 0.0]
['beep', 0.0, -1002.3416283537899, 0.0, 0.0, 0.0, 0.0, -989.4223200586224, 0.0]
['beep', 0.0, -1002.1181109092369, 0.0, 0.0, 0.0, 0.0, -988.1035671357594, 0.0]
['beep', 0.0, -1000.1511573971699, 0.0, 0.0, 0.0, 0.0, -989.0646921473375, 0.0]
['beep', 0.0, -1000.1064539082593, 0.0, 0.0, 0.0, 0.0, -990.7857764703962, 0.0]
['beep', 0.0, -1000.6652475196419, 0.0, 0.0, 0.0, 0.0, -989.7128927365414, 0.0]
['beep', 0.0, -1001.0452271753821, 0.0, 0.0, 0.0, 0.0, -990.6069625147537, 0.0]
['beep', 0.0, -1001.6487242756754, 0.0, 0.0, 0.0, 0.0, -989.8693549477285, 0.0]
['beep', 0.0, -1000.3970265861782, 0.0, 0.0, 0.0, 0.0, -989.4223200586224, 0.0]
['beep', 0.0, -1000.9558201975609, 0.0, 0.0, 0.0, 0.0, -988.885878191695, 0.0]
['beep', 0.0, -1001.7381312534966, 0.0, 0.0, 0.0, 0.0, -989.6905409920861, 0.0]
['beep', 0.0, -1003.6156777877425, 0.0, 0.0, 0.0, 0.0, -988.0365119023934, 0.0]
['beep', 0.0, -1002.3416283537899, 0.0, 0.0, 0.0, 0.0, -988.5506020248655, 0.0]
['beep', 0.0, -1000.2629161194463, 0.0, 0.0, 0.0, 0.0, -989.6458375031755, 0.0]
['beep', 0.0, -999.0335701744044, 0.0, 0.0, 0.0, 0.0, -989.3105613363459, 0.0]
['beep', 0.0, -1000.9111167086503, 0.0, 0.0, 0.0, 0.0, -987.8576979467509, 0.0]
['beep', 0.0, -1002.8110149873513, 0.0, 0.0, 0.0, 0.0, -987.1424421241811, 0.0]
['beep', 0.0, -1001.2910963643905, 0.0, 0.0, 0.0, 0.0, -986.3601310682453, 0.0]
['beep', 0.0, -996.9101544511503, 0.0, 0.0, 0.0, 0.0, -987.1200903797258, 0.0]
['beep', 0.0, -998.4747765630218, 0.0, 0.0, 0.0, 0.0, -987.4330148021002, 0.0]
['beep', 0.0, -999.8605847192508, 0.0, 0.0, 0.0, 0.0, -987.5224217799214, 0.0]
['beep', 0.0, -999.9276399526168, 0.0, 0.0, 0.0, 0.0, -987.4106630576448, 0.0]
['beep', 0.0, -999.8829364637062, 0.0, 0.0, 0.0, 0.0, -987.2989043353683, 0.0]
['beep', 0.0, -999.9276399526168, 0.0, 0.0, 0.0, 0.0, -985.0637298898375, 0.0]
['beep', 0.0, -999.0335701744044, 0.0, 0.0, 0.0, 0.0, -986.5165932794325, 0.0]
['beep', 0.0, -998.273610862924, 0.0, 0.0, 0.0, 0.0, -987.9247531801169, 0.0]
['beep', 0.0, -998.1395003961921, 0.0, 0.0, 0.0, 0.0, -987.1200903797258, 0.0]
['beep', 0.0, -999.145328896681, 0.0, 0.0, 0.0, 0.0, -986.9412764240833, 0.0]
['beep', 0.0, -1001.6263725312201, 0.0, 0.0, 0.0, 0.0, -986.1366136236923, 0.0]
['beep', 0.0, -1004.2415266324911, 0.0, 0.0, 0.0, 0.0, -985.7789857124073, 0.0]
['beep', 0.0, -1001.2910963643905, 0.0, 0.0, 0.0, 0.0, -984.6166950007314, 0.0]
['beep', 0.0, -995.6808085061084, 0.0, 0.0, 0.0, 0.0, -983.275590333413, 0.0]
['beep', 0.0, -994.920849194628, 0.0, 0.0, 0.0, 0.0, -985.1084333787481, 0.0]
['beep', 0.0, -999.6817707636084, 0.0, 0.0, 0.0, 0.0, -983.7449769669745, 0.0]
['beep', 0.0, -999.5029568079659, 0.0, 0.0, 0.0, 0.0, -980.6157327432314, 0.0]
['beep', 0.0, -996.9325061956056, 0.0, 0.0, 0.0, 0.0, -980.2134013430359, 0.0]
['beep', 0.0, -997.7371689959966, 0.0, 0.0, 0.0, 0.0, -981.1745263546142, 0.0]
['beep', 0.0, -1001.5816690423095, 0.0, 0.0, 0.0, 0.0, -982.1356513661923, 0.0]
['beep', 0.0, -1003.1909946430916, 0.0, 0.0, 0.0, 0.0, -979.6099042427427, 0.0]
['beep', 0.0, -996.7983957288737, 0.0, 0.0, 0.0, 0.0, -979.0064071424493, 0.0]
['beep', 0.0, -991.2104596150471, 0.0, 0.0, 0.0, 0.0, -979.4981455204661, 0.0]
['beep', 0.0, -992.3503985822676, 0.0, 0.0, 0.0, 0.0, -978.6487792311644, 0.0]
['beep', 0.0, -999.4135498301447, 0.0, 0.0, 0.0, 0.0, -978.2464478309689, 0.0]
['beep', 0.0, -997.8265759738179, 0.0, 0.0, 0.0, 0.0, -979.207572842547, 0.0]
['beep', 0.0, -998.8771079632173, 0.0, 0.0, 0.0, 0.0, -977.821764686318, 0.0]
['beep', 0.0, -998.4077213296558, 0.0, 0.0, 0.0, 0.0, -976.7265292080081, 0.0]
['beep', 0.0, -994.1832416276028, 0.0, 0.0, 0.0, 0.0, -977.9111716641393, 0.0]
['beep', 0.0, -991.6351427596978, 0.0, 0.0, 0.0, 0.0, -975.2289623295025, 0.0]
['beep', 0.0, -995.3455323392789, 0.0, 0.0, 0.0, 0.0, -975.0054448849494, 0.0]
['beep', 0.0, -997.9159829516391, 0.0, 0.0, 0.0, 0.0, -974.6925204625751, 0.0]
['beep', 0.0, -998.9665149410386, 0.0, 0.0, 0.0, 0.0, -974.8042791848516, 0.0]
['beep', 0.0, -994.6079247722537, 0.0, 0.0, 0.0, 0.0, -973.1726018396142, 0.0]
['beep', 0.0, -990.048168903371, 0.0, 0.0, 0.0, 0.0, -974.1337268511924, 0.0]
['beep', 0.0, -991.0987008927705, 0.0, 0.0, 0.0, 0.0, -971.1385930941813, 0.0]
['beep', 0.0, -993.4232823161224, 0.0, 0.0, 0.0, 0.0, -971.5409244943768, 0.0]
['beep', 0.0, -994.5855730277983, 0.0, 0.0, 0.0, 0.0, -972.0326628723935, 0.0]
['beep', 0.0, -994.1161863942369, 0.0, 0.0, 0.0, 0.0, -971.8762006612064, 0.0]
['beep', 0.0, -991.9704189265275, 0.0, 0.0, 0.0, 0.0, -971.2056483275471, 0.0]
['beep', 0.0, -990.3834450702007, 0.0, 0.0, 0.0, 0.0, -970.7139099495304, 0.0]
['beep', 0.0, -991.4116253151448, 0.0, 0.0, 0.0, 0.0, -971.9432558945723, 0.0]
['beep', 0.0, -993.467985805033, 0.0, 0.0, 0.0, 0.0, -971.1162413497259, 0.0]
['beep', 0.0, -993.3338753383011, 0.0, 0.0, 0.0, 0.0, -969.7974884268629, 0.0]
['beep', 0.0, -988.7741194694186, 0.0, 0.0, 0.0, 0.0, -968.8810669041952, 0.0]
['beep', 0.0, -987.4330148021002, 0.0, 0.0, 0.0, 0.0, -969.5069157489438, 0.0]
['beep', 0.0, -990.7187212370302, 0.0, 0.0, 0.0, 0.0, -969.3504535377567, 0.0]
['beep', 0.0, -992.4845090489995, 0.0, 0.0, 0.0, 0.0, -969.1045843487483, 0.0]
['beep', 0.0, -991.3892735706895, 0.0, 0.0, 0.0, 0.0, -969.7080814490416, 0.0]
['beep', 0.0, -987.4553665465554, 0.0, 0.0, 0.0, 0.0, -970.0880611047818, 0.0]
['beep', 0.0, -986.4271863016113, 0.0, 0.0, 0.0, 0.0, -969.1492878376589, 0.0]
['beep', 0.0, -986.8742211907174, 0.0, 0.0, 0.0, 0.0, -967.8752384037065, 0.0]
['beep', 0.0, -988.5729537693207, 0.0, 0.0, 0.0, 0.0, -968.2999215483572, 0.0]
['beep', 0.0, -990.5399072813877, 0.0, 0.0, 0.0, 0.0, -969.5069157489438, 0.0]
['beep', 0.0, -990.5622590258431, 0.0, 0.0, 0.0, 0.0, -969.1269360932037, 0.0]
['beep', 0.0, -988.9752851695163, 0.0, 0.0, 0.0, 0.0, -969.0598808598377, 0.0]
['beep', 0.0, -988.9305816806057, 0.0, 0.0, 0.0, 0.0, -970.0210058714159, 0.0]
['beep', 0.0, -987.276552590913, 0.0, 0.0, 0.0, 0.0, -970.1998198270584, 0.0]
['beep', 0.0, -986.1813171126029, 0.0, 0.0, 0.0, 0.0, -970.4903925049773, 0.0]
['beep', 0.0, -989.3776165697118, 0.0, 0.0, 0.0, 0.0, -970.177468082603, 0.0]
['beep', 0.0, -992.9315439381056, 0.0, 0.0, 0.0, 0.0, -971.2280000720025, 0.0]
['beep', 0.0, -995.2561253614576, 0.0, 0.0, 0.0, 0.0, -969.7080814490416, 0.0]
['beep', 0.0, -990.0705206478264, 0.0, 0.0, 0.0, 0.0, -968.0317006148936, 0.0]
['beep', 0.0, -985.8907444346839, 0.0, 0.0, 0.0, 0.0, -969.6186744712204, 0.0]
['beep', 0.0, -987.3659595687342, 0.0, 0.0, 0.0, 0.0, -970.2221715715136, 0.0]
['beep', 0.0, -991.0539974038599, 0.0, 0.0, 0.0, 0.0, -970.8480204162622, 0.0]
['beep', 0.0, -990.4281485591113, 0.0, 0.0, 0.0, 0.0, -970.0880611047818, 0.0]
['beep', 0.0, -987.7459392244745, 0.0, 0.0, 0.0, 0.0, -969.3281017933014, 0.0]
['beep', 0.0, -986.4271863016113, 0.0, 0.0, 0.0, 0.0, -969.0151773709271, 0.0]
['beep', 0.0, -987.2989043353683, 0.0, 0.0, 0.0, 0.0, -970.5350959938879, 0.0]
['beep', 0.0, -989.6011340142649, 0.0, 0.0, 0.0, 0.0, -972.5467529948656, 0.0]
['beep', 0.0, -990.115224136737, 0.0, 0.0, 0.0, 0.0, -971.04918611636, 0.0]
['beep', 0.0, -986.4271863016113, 0.0, 0.0, 0.0, 0.0, -971.3621105387343, 0.0]
['beep', 0.0, -984.3931775561783, 0.0, 0.0, 0.0, 0.0, -972.8373256727846, 0.0]
['beep', 0.0, -987.9918084134828, 0.0, 0.0, 0.0, 0.0, -974.1337268511924, 0.0]
['beep', 0.0, -991.0092939149492, 0.0, 0.0, 0.0, 0.0, -972.0773663613041, 0.0]
['beep', 0.0, -991.2328113595023, 0.0, 0.0, 0.0, 0.0, -971.7644419389298, 0.0]
['beep', 0.0, -989.8246514588179, 0.0, 0.0, 0.0, 0.0, -971.3397587942791, 0.0]
['beep', 0.0, -985.4213578011224, 0.0, 0.0, 0.0, 0.0, -969.663377960131, 0.0]
['beep', 0.0, -984.1249566227146, 0.0, 0.0, 0.0, 0.0, -969.95395063805, 0.0]
['beep', 0.0, -986.5836485127984, 0.0, 0.0, 0.0, 0.0, -970.825668671807, 0.0]
['beep', 0.0, -986.918924679628, 0.0, 0.0, 0.0, 0.0, -970.7139099495304, 0.0]
['beep', 0.0, -987.7906427133851, 0.0, 0.0, 0.0, 0.0, -972.0550146168489, 0.0]
['beep', 0.0, -986.9859799129939, 0.0, 0.0, 0.0, 0.0, -972.278532061402, 0.0]
['beep', 0.0, -986.5165932794325, 0.0, 0.0, 0.0, 0.0, -971.8762006612064, 0.0]
['beep', 0.0, -985.7342822234967, 0.0, 0.0, 0.0, 0.0, -970.982130882994, 0.0]
['beep', 0.0, -987.7235874800191, 0.0, 0.0, 0.0, 0.0, -970.5350959938879, 0.0]
['beep', 0.0, -986.0695583903264, 0.0, 0.0, 0.0, 0.0, -972.278532061402, 0.0]
['beep', 0.0, -983.6779217336085, 0.0, 0.0, 0.0, 0.0, -971.1385930941813, 0.0]
['beep', 0.0, -983.566163011332, 0.0, 0.0, 0.0, 0.0, -969.2163430710249, 0.0]
['beep', 0.0, -985.1978403565694, 0.0, 0.0, 0.0, 0.0, -971.7867936833852, 0.0]
['beep', 0.0, -987.2542008464577, 0.0, 0.0, 0.0, 0.0, -972.6808634615975, 0.0]
['beep', 0.0, -988.7517677249632, 0.0, 0.0, 0.0, 0.0, -971.3621105387343, 0.0]
['beep', 0.0, -989.0870438917929, 0.0, 0.0, 0.0, 0.0, -970.5797994827985, 0.0]
['beep', 0.0, -985.24254384548, 0.0, 0.0, 0.0, 0.0, -971.5185727499215, 0.0]
['beep', 0.0, -986.8295177018068, 0.0, 0.0, 0.0, 0.0, -972.0773663613041, 0.0]
['beep', 0.0, -989.0199886584269, 0.0, 0.0, 0.0, 0.0, -971.9656076390277, 0.0]
['beep', 0.0, -989.9587619255498, 0.0, 0.0, 0.0, 0.0, -972.502049505955, 0.0]
['beep', 0.0, -985.7566339679521, 0.0, 0.0, 0.0, 0.0, -973.6419884731756, 0.0]
['beep', 0.0, -982.3591688107454, 0.0, 0.0, 0.0, 0.0, -974.8936861626728, 0.0]
['beep', 0.0, -985.3990060566672, 0.0, 0.0, 0.0, 0.0, -973.8208024288181, 0.0]
['beep', 0.0, -988.2376776024912, 0.0, 0.0, 0.0, 0.0, -972.792622183874, 0.0]
['beep', 0.0, -987.8576979467509, 0.0, 0.0, 0.0, 0.0, -971.4515175165556, 0.0]
['beep', 0.0, -986.047206645871, 0.0, 0.0, 0.0, 0.0, -971.7197384500192, 0.0]
['beep', 0.0, -986.695407235075, 0.0, 0.0, 0.0, 0.0, -972.3902907836784, 0.0]
['beep', 0.0, -987.8129944578403, 0.0, 0.0, 0.0, 0.0, -973.083194861793, 0.0]
['beep', 0.0, -989.6458375031755, 0.0, 0.0, 0.0, 0.0, -973.4855262619885, 0.0]
['beep', 0.0, -990.2269828590134, 0.0, 0.0, 0.0, 0.0, -971.7197384500192, 0.0]
['beep', 0.0, -988.885878191695, 0.0, 0.0, 0.0, 0.0, -970.825668671807, 0.0]
['beep', 0.0, -988.4388433025889, 0.0, 0.0, 0.0, 0.0, -972.4796977614997, 0.0]
['beep', 0.0, -987.8800496912063, 0.0, 0.0, 0.0, 0.0, -972.0103111279383, 0.0]
['beep', 0.0, -988.885878191695, 0.0, 0.0, 0.0, 0.0, -971.4962210054662, 0.0]
['beep', 0.0, -989.6011340142649, 0.0, 0.0, 0.0, 0.0, -970.0880611047818, 0.0]
['beep', 0.0, -989.8693549477285, 0.0, 0.0, 0.0, 0.0, -968.7022529485528, 0.0]
['beep', 0.0, -990.8081282148514, 0.0, 0.0, 0.0, 0.0, -970.0210058714159, 0.0]
['beep', 0.0, -990.3610933257453, 0.0, 0.0, 0.0, 0.0, -971.3397587942791, 0.0]
['beep', 0.0, -991.5904392707872, 0.0, 0.0, 0.0, 0.0, -971.1609448386365, 0.0]
['beep', 0.0, -992.7974334713738, 0.0, 0.0, 0.0, 0.0, -969.8868954046841, 0.0]
['beep', 0.0, -991.3445700817789, 0.0, 0.0, 0.0, 0.0, -970.0880611047818, 0.0]
['beep', 0.0, -990.33874158129, 0.0, 0.0, 0.0, 0.0, -970.9374273940834, 0.0]
['beep', 0.0, -990.8081282148514, 0.0, 0.0, 0.0, 0.0, -968.4563837595445, 0.0]
['beep', 0.0, -989.8246514588179, 0.0, 0.0, 0.0, 0.0, -970.5574477383433, 0.0]
['beep', 0.0, -990.629314259209, 0.0, 0.0, 0.0, 0.0, -972.1667733391254, 0.0]
['beep', 0.0, -991.2775148484129, 0.0, 0.0, 0.0, 0.0, -971.1162413497259, 0.0]
['beep', 0.0, -990.9869421704939, 0.0, 0.0, 0.0, 0.0, -972.5914564837763, 0.0]
['beep', 0.0, -992.4174538156336, 0.0, 0.0, 0.0, 0.0, -972.3455872947678, 0.0]
['beep', 0.0, -991.9257154376169, 0.0, 0.0, 0.0, 0.0, -971.6526832166534, 0.0]
['beep', 0.0, -986.9859799129939, 0.0, 0.0, 0.0, 0.0, -971.7644419389298, 0.0]
['beep', 0.0, -986.047206645871, 0.0, 0.0, 0.0, 0.0, -973.887857662184, 0.0]
['beep', 0.0, -989.6234857587202, 0.0, 0.0, 0.0, 0.0, -975.3854245406897, 0.0]
['beep', 0.0, -992.5068607934548, 0.0, 0.0, 0.0, 0.0, -974.6925204625751, 0.0]
['beep', 0.0, -991.1657561261364, 0.0, 0.0, 0.0, 0.0, -974.6254652292091, 0.0]
['beep', 0.0, -990.1599276256476, 0.0, 0.0, 0.0, 0.0, -975.8101076853404, 0.0]
['beep', 0.0, -989.4223200586224, 0.0, 0.0, 0.0, 0.0, -975.6089419852427, 0.0]
['beep', 0.0, -988.8188229583292, 0.0, 0.0, 0.0, 0.0, -974.6031134847539, 0.0]
['beep', 0.0, -989.24350610298, 0.0, 0.0, 0.0, 0.0, -974.178430340103, 0.0]
['beep', 0.0, -990.9869421704939, 0.0, 0.0, 0.0, 0.0, -974.469003018022, 0.0]
['beep', 0.0, -992.5068607934548, 0.0, 0.0, 0.0, 0.0, -975.0948518627706, 0.0]
['beep', 0.0, -993.8926689496839, 0.0, 0.0, 0.0, 0.0, -975.1395553516812, 0.0]
['beep', 0.0, -992.082177648804, 0.0, 0.0, 0.0, 0.0, -974.8266309293069, 0.0]
['beep', 0.0, -988.371788069223, 0.0, 0.0, 0.0, 0.0, -973.1726018396142, 0.0]
['beep', 0.0, -988.4388433025889, 0.0, 0.0, 0.0, 0.0, -973.3290640508013, 0.0]
['beep', 0.0, -992.1045293932593, 0.0, 0.0, 0.0, 0.0, -975.5642384963321, 0.0]
['beep', 0.0, -992.5515642823655, 0.0, 0.0, 0.0, 0.0, -976.7935844413739, 0.0]
['beep', 0.0, -991.8139567153403, 0.0, 0.0, 0.0, 0.0, -977.6205989862203, 0.0]
['beep', 0.0, -990.8304799593068, 0.0, 0.0, 0.0, 0.0, -978.693482720075, 0.0]
['beep', 0.0, -993.7809102274073, 0.0, 0.0, 0.0, 0.0, -978.2017443420583, 0.0]
['beep', 0.0, -995.6808085061084, 0.0, 0.0, 0.0, 0.0, -978.7605379534409, 0.0]
['beep', 0.0, -993.1550613826587, 0.0, 0.0, 0.0, 0.0, -980.6827879765974, 0.0]
['beep', 0.0, -985.5554682678543, 0.0, 0.0, 0.0, 0.0, -980.7721949544186, 0.0]
['beep', 0.0, -982.6720932331197, 0.0, 0.0, 0.0, 0.0, -979.4310902871002, 0.0]
['beep', 0.0, -987.0530351463599, 0.0, 0.0, 0.0, 0.0, -980.9286571656057, 0.0]
['beep', 0.0, -990.5622590258431, 0.0, 0.0, 0.0, 0.0, -980.2581048319465, 0.0]
['beep', 0.0, -990.3834450702007, 0.0, 0.0, 0.0, 0.0, -979.2522763314578, 0.0]
['beep', 0.0, -991.5904392707872, 0.0, 0.0, 0.0, 0.0, -978.8052414423515, 0.0]
['beep', 0.0, -994.2950003498794, 0.0, 0.0, 0.0, 0.0, -980.4145670431337, 0.0]
['beep', 0.0, -994.2055933720582, 0.0, 0.0, 0.0, 0.0, -979.4310902871002, 0.0]
['beep', 0.0, -986.8071659573515, 0.0, 0.0, 0.0, 0.0, -977.7770611974074, 0.0]
['beep', 0.0, -986.7624624684408, 0.0, 0.0, 0.0, 0.0, -979.0958141202706, 0.0]
['beep', 0.0, -989.8693549477285, 0.0, 0.0, 0.0, 0.0, -977.821764686318, 0.0]
['beep', 0.0, -990.8975351926726, 0.0, 0.0, 0.0, 0.0, -977.4194332861225, 0.0]
['beep', 0.0, -992.2386398599912, 0.0, 0.0, 0.0, 0.0, -980.8392501877845, 0.0]
['beep', 0.0, -991.8139567153403, 0.0, 0.0, 0.0, 0.0, -979.9004769206616, 0.0]
['beep', 0.0, -989.4893752919884, 0.0, 0.0, 0.0, 0.0, -978.2687995754242, 0.0]
['beep', 0.0, -983.5885147557873, 0.0, 0.0, 0.0, 0.0, -977.4641367750331, 0.0]
['beep', 0.0, -979.1405176091812, 0.0, 0.0, 0.0, 0.0, -977.6876542195862, 0.0]
['beep', 0.0, -981.822726943818, 0.0, 0.0, 0.0, 0.0, -976.5924187412762, 0.0]
['beep', 0.0, -985.1754886121141, 0.0, 0.0, 0.0, 0.0, -975.4971832629661, 0.0]
['beep', 0.0, -987.4330148021002, 0.0, 0.0, 0.0, 0.0, -977.5088402639437, 0.0]
['beep', 0.0, -990.5399072813877, 0.0, 0.0, 0.0, 0.0, -978.4476135310666, 0.0]
['beep', 0.0, -991.8810119487063, 0.0, 0.0, 0.0, 0.0, -976.2347908299913, 0.0]
['beep', 0.0, -987.7235874800191, 0.0, 0.0, 0.0, 0.0, -976.6818257190974, 0.0]
['beep', 0.0, -987.1647938686364, 0.0, 0.0, 0.0, 0.0, -977.8441164307734, 0.0]
['beep', 0.0, -990.2493346034688, 0.0, 0.0, 0.0, 0.0, -976.9947501414717, 0.0]
['beep', 0.0, -989.8246514588179, 0.0, 0.0, 0.0, 0.0, -977.0394536303824, 0.0]
['beep', 0.0, -985.5778200123096, 0.0, 0.0, 0.0, 0.0, -977.2629710749354, 0.0]
['beep', 0.0, -987.5224217799214, 0.0, 0.0, 0.0, 0.0, -977.8664681752286, 0.0]
['beep', 0.0, -991.1657561261364, 0.0, 0.0, 0.0, 0.0, -977.0618053748376, 0.0]
['beep', 0.0, -993.4456340605777, 0.0, 0.0, 0.0, 0.0, -977.2629710749354, 0.0]
['beep', 0.0, -992.3280468378124, 0.0, 0.0, 0.0, 0.0, -975.2289623295025, 0.0]
['beep', 0.0, -991.4116253151448, 0.0, 0.0, 0.0, 0.0, -977.084157119293, 0.0]
['beep', 0.0, -988.5953055137761, 0.0, 0.0, 0.0, 0.0, -975.5642384963321, 0.0]
['beep', 0.0, -990.2940380923794, 0.0, 0.0, 0.0, 0.0, -976.2347908299913, 0.0]
['beep', 0.0, -991.9033636931615, 0.0, 0.0, 0.0, 0.0, -977.3970815416673, 0.0]
['beep', 0.0, -991.4339770596001, 0.0, 0.0, 0.0, 0.0, -977.3523780527566, 0.0]
['beep', 0.0, -991.724549737519, 0.0, 0.0, 0.0, 0.0, -975.9442181520723, 0.0]
['beep', 0.0, -993.691503249586, 0.0, 0.0, 0.0, 0.0, -977.3523780527566, 0.0]
['beep', 0.0, -995.5466980393766, 0.0, 0.0, 0.0, 0.0, -976.1230321077147, 0.0]
['beep', 0.0, -993.3562270827565, 0.0, 0.0, 0.0, 0.0, -977.084157119293, 0.0]
['beep', 0.0, -992.0151224154381, 0.0, 0.0, 0.0, 0.0, -978.0452821308711, 0.0]
['beep', 0.0, -991.9257154376169, 0.0, 0.0, 0.0, 0.0, -977.1735640971142, 0.0]
['beep', 0.0, -989.4223200586224, 0.0, 0.0, 0.0, 0.0, -979.207572842547, 0.0]
['beep', 0.0, -989.0870438917929, 0.0, 0.0, 0.0, 0.0, -978.1793925976029, 0.0]
['beep', 0.0, -989.534078780899, 0.0, 0.0, 0.0, 0.0, -977.2853228193907, 0.0]
['beep', 0.0, -992.2162881155358, 0.0, 0.0, 0.0, 0.0, -978.0229303864159, 0.0]
['beep', 0.0, -994.0044276719603, 0.0, 0.0, 0.0, 0.0, -976.4806600189996, 0.0]
['beep', 0.0, -988.3270845803124, 0.0, 0.0, 0.0, 0.0, -974.2007820845583, 0.0]
['beep', 0.0, -981.6662647326309, 0.0, 0.0, 0.0, 0.0, -976.1006803632595, 0.0]
['beep', 0.0, -985.3766543122118, 0.0, 0.0, 0.0, 0.0, -976.3912530411784, 0.0]
['beep', 0.0, -989.8246514588179, 0.0, 0.0, 0.0, 0.0, -974.6254652292091, 0.0]
['beep', 0.0, -988.5282502804101, 0.0, 0.0, 0.0, 0.0, -975.2960175628684, 0.0]
['beep', 0.0, -990.5846107702984, 0.0, 0.0, 0.0, 0.0, -973.3737675397119, 0.0]
['beep', 0.0, -988.371788069223, 0.0, 0.0, 0.0, 0.0, -973.3290640508013, 0.0]
['beep', 0.0, -985.0860816342929, 0.0, 0.0, 0.0, 0.0, -972.3455872947678, 0.0]
['beep', 0.0, -986.8965729351727, 0.0, 0.0, 0.0, 0.0, -973.1726018396142, 0.0]
['beep', 0.0, -988.3270845803124, 0.0, 0.0, 0.0, 0.0, -972.792622183874, 0.0]
['beep', 0.0, -986.2930758348795, 0.0, 0.0, 0.0, 0.0, -972.1667733391254, 0.0]
['beep', 0.0, -986.3377793237901, 0.0, 0.0, 0.0, 0.0, -972.434994272589, 0.0]
['beep', 0.0, -989.6011340142649, 0.0, 0.0, 0.0, 0.0, -973.1502500951589, 0.0]
['beep', 0.0, -992.2162881155358, 0.0, 0.0, 0.0, 0.0, -973.1726018396142, 0.0]
['beep', 0.0, -990.9422386815833, 0.0, 0.0, 0.0, 0.0, -972.3679390392232, 0.0]
['beep', 0.0, -987.3883113131895, 0.0, 0.0, 0.0, 0.0, -972.0550146168489, 0.0]
['beep', 0.0, -987.500070035466, 0.0, 0.0, 0.0, 0.0, -972.6361599726869, 0.0]
['beep', 0.0, -990.5399072813877, 0.0, 0.0, 0.0, 0.0, -973.4631745175332, 0.0]
['beep', 0.0, -990.2493346034688, 0.0, 0.0, 0.0, 0.0, -973.3290640508013, 0.0]
['beep', 0.0, -987.5224217799214, 0.0, 0.0, 0.0, 0.0, -972.6585117171421, 0.0]
['beep', 0.0, -987.5894770132873, 0.0, 0.0, 0.0, 0.0, -972.0550146168489, 0.0]
['beep', 0.0, -988.4835467914995, 0.0, 0.0, 0.0, 0.0, -973.9549128955499, 0.0]
['beep', 0.0, -991.7021979930638, 0.0, 0.0, 0.0, 0.0, -974.8936861626728, 0.0]
['beep', 0.0, -992.2162881155358, 0.0, 0.0, 0.0, 0.0, -971.4068140276449, 0.0]
['beep', 0.0, -988.885878191695, 0.0, 0.0, 0.0, 0.0, -972.6138082282315, 0.0]
['beep', 0.0, -986.0919101347816, 0.0, 0.0, 0.0, 0.0, -973.0608431173376, 0.0]
['beep', 0.0, -985.1307851232035, 0.0, 0.0, 0.0, 0.0, -971.9656076390277, 0.0]
['beep', 0.0, -989.1540991251587, 0.0, 0.0, 0.0, 0.0, -972.7032152060527, 0.0]
['beep', 0.0, -990.4952037924771, 0.0, 0.0, 0.0, 0.0, -973.2620088174355, 0.0]
['beep', 0.0, -989.8246514588179, 0.0, 0.0, 0.0, 0.0, -973.0608431173376, 0.0]
['beep', 0.0, -991.6574945041532, 0.0, 0.0, 0.0, 0.0, -972.8820291616952, 0.0]
['beep', 0.0, -992.2162881155358, 0.0, 0.0, 0.0, 0.0, -973.083194861793, 0.0]
['beep', 0.0, -988.371788069223, 0.0, 0.0, 0.0, 0.0, -972.8820291616952, 0.0]
['beep', 0.0, -986.8742211907174, 0.0, 0.0, 0.0, 0.0, -973.9549128955499, 0.0]
['beep', 0.0, -989.0423404028822, 0.0, 0.0, 0.0, 0.0, -974.4242995291114, 0.0]
['beep', 0.0, -992.7974334713738, 0.0, 0.0, 0.0, 0.0, -973.8431541732734, 0.0]
['beep', 0.0, -993.7362067384967, 0.0, 0.0, 0.0, 0.0, -972.3455872947678, 0.0]
['beep', 0.0, -990.3834450702007, 0.0, 0.0, 0.0, 0.0, -973.7090437065416, 0.0]
['beep', 0.0, -986.7401107239856, 0.0, 0.0, 0.0, 0.0, -973.1502500951589, 0.0]
['beep', 0.0, -988.0365119023934, 0.0, 0.0, 0.0, 0.0, -974.1337268511924, 0.0]
['beep', 0.0, -991.0763491483151, 0.0, 0.0, 0.0, 0.0, -974.5584099958432, 0.0]
['beep', 0.0, -991.2328113595023, 0.0, 0.0, 0.0, 0.0, -974.2231338290136, 0.0]
['beep', 0.0, -993.7362067384967, 0.0, 0.0, 0.0, 0.0, -973.9325611510947, 0.0]
['beep', 0.0, -995.8819742062062, 0.0, 0.0, 0.0, 0.0, -972.6361599726869, 0.0]
['beep', 0.0, -992.0598259043487, 0.0, 0.0, 0.0, 0.0, -972.0103111279383, 0.0]
['beep', 0.0, -986.047206645871, 0.0, 0.0, 0.0, 0.0, -973.016139628427, 0.0]
['beep', 0.0, -987.2989043353683, 0.0, 0.0, 0.0, 0.0, -974.178430340103, 0.0]
['beep', 0.0, -991.0092939149492, 0.0, 0.0, 0.0, 0.0, -974.1113751067371, 0.0]
['beep', 0.0, -991.3892735706895, 0.0, 0.0, 0.0, 0.0, -972.3455872947678, 0.0]
['beep', 0.0, -990.9422386815833, 0.0, 0.0, 0.0, 0.0, -973.5749332398098, 0.0]
['beep', 0.0, -990.2716863479241, 0.0, 0.0, 0.0, 0.0, -973.664340217631, 0.0]
['beep', 0.0, -988.3047328358571, 0.0, 0.0, 0.0, 0.0, -974.0666716178265, 0.0]
['beep', 0.0, -988.4164915581337, 0.0, 0.0, 0.0, 0.0, -974.178430340103, 0.0]
['beep', 0.0, -988.662360747142, 0.0, 0.0, 0.0, 0.0, -972.7032152060527, 0.0]
['beep', 0.0, -990.5622590258431, 0.0, 0.0, 0.0, 0.0, -973.5525814953544, 0.0]
['beep', 0.0, -993.3338753383011, 0.0, 0.0, 0.0, 0.0, -974.4913547624773, 0.0]
['beep', 0.0, -992.9091921936504, 0.0, 0.0, 0.0, 0.0, -972.3902907836784, 0.0]
['beep', 0.0, -989.6681892476308, 0.0, 0.0, 0.0, 0.0, -974.4242995291114, 0.0]
['beep', 0.0, -989.8917066921839, 0.0, 0.0, 0.0, 0.0, -975.1842588405918, 0.0]
['beep', 0.0, -991.9033636931615, 0.0, 0.0, 0.0, 0.0, -973.6196367287204, 0.0]
['beep', 0.0, -989.6681892476308, 0.0, 0.0, 0.0, 0.0, -972.4796977614997, 0.0]
['beep', 0.0, -986.8295177018068, 0.0, 0.0, 0.0, 0.0, -973.887857662184, 0.0]
['beep', 0.0, -987.9918084134828, 0.0, 0.0, 0.0, 0.0, -973.9102094066393, 0.0]
['beep', 0.0, -991.3892735706895, 0.0, 0.0, 0.0, 0.0, -974.7148722070303, 0.0]
['beep', 0.0, -993.5797445273096, 0.0, 0.0, 0.0, 0.0, -974.4242995291114, 0.0]
['beep', 0.0, -996.0607881618487, 0.0, 0.0, 0.0, 0.0, -973.3961192841673, 0.0]
['beep', 0.0, -990.919886937128, 0.0, 0.0, 0.0, 0.0, -975.1172036072259, 0.0]
['beep', 0.0, -986.4718897905219, 0.0, 0.0, 0.0, 0.0, -976.1453838521701, 0.0]
['beep', 0.0, -987.7012357355638, 0.0, 0.0, 0.0, 0.0, -973.9102094066393, 0.0]
['beep', 0.0, -991.6798462486084, 0.0, 0.0, 0.0, 0.0, -974.1560785956477, 0.0]
['beep', 0.0, -994.2502968609688, 0.0, 0.0, 0.0, 0.0, -975.9442181520723, 0.0]
['beep', 0.0, -993.9373724385945, 0.0, 0.0, 0.0, 0.0, -975.4748315185109, 0.0]
['beep', 0.0, -990.1599276256476, 0.0, 0.0, 0.0, 0.0, -974.401947784656, 0.0]
['beep', 0.0, -987.4330148021002, 0.0, 0.0, 0.0, 0.0, -974.4466512735667, 0.0]
['beep', 0.0, -989.3552648252565, 0.0, 0.0, 0.0, 0.0, -977.5311920083991, 0.0]
['beep', 0.0, -991.6798462486084, 0.0, 0.0, 0.0, 0.0, -979.1405176091812, 0.0]
['beep', 0.0, -991.0987008927705, 0.0, 0.0, 0.0, 0.0, -975.854811174251, 0.0]
['beep', 0.0, -990.5846107702984, 0.0, 0.0, 0.0, 0.0, -976.2347908299913, 0.0]
['beep', 0.0, -994.0938346497816, 0.0, 0.0, 0.0, 0.0, -977.9335234085946, 0.0]
['beep', 0.0, -994.5855730277983, 0.0, 0.0, 0.0, 0.0, -978.0899856197817, 0.0]
['beep', 0.0, -990.048168903371, 0.0, 0.0, 0.0, 0.0, -976.1900873410807, 0.0]
['beep', 0.0, -987.6565322466532, 0.0, 0.0, 0.0, 0.0, -975.4077762851449, 0.0]
['beep', 0.0, -989.2211543585247, 0.0, 0.0, 0.0, 0.0, -975.921866407617, 0.0]
['beep', 0.0, -988.9305816806057, 0.0, 0.0, 0.0, 0.0, -977.7994129418628, 0.0]
['beep', 0.0, -988.9976369139716, 0.0, 0.0, 0.0, 0.0, -977.2629710749354, 0.0]
['beep', 0.0, -990.7857764703962, 0.0, 0.0, 0.0, 0.0, -975.9665698965276, 0.0]
['beep', 0.0, -990.4728520480219, 0.0, 0.0, 0.0, 0.0, -975.631293729698, 0.0]
['beep', 0.0, -989.9364101810945, 0.0, 0.0, 0.0, 0.0, -973.9102094066393, 0.0]
['beep', 0.0, -989.534078780899, 0.0, 0.0, 0.0, 0.0, -973.2396570729801, 0.0]
['beep', 0.0, -987.2094973575471, 0.0, 0.0, 0.0, 0.0, -973.7984506843628, 0.0]
['beep', 0.0, -987.6788839911085, 0.0, 0.0, 0.0, 0.0, -973.9549128955499, 0.0]
['beep', 0.0, -991.6127910152426, 0.0, 0.0, 0.0, 0.0, -972.7032152060527, 0.0]
['beep', 0.0, -995.0326079169045, 0.0, 0.0, 0.0, 0.0, -972.5914564837763, 0.0]
['beep', 0.0, -991.1881078705917, 0.0, 0.0, 0.0, 0.0, -973.3067123063461, 0.0]
['beep', 0.0, -987.2989043353683, 0.0, 0.0, 0.0, 0.0, -973.9325611510947, 0.0]
['beep', 0.0, -989.4223200586224, 0.0, 0.0, 0.0, 0.0, -973.9772646400053, 0.0]
['beep', 0.0, -994.4738143055218, 0.0, 0.0, 0.0, 0.0, -972.792622183874, 0.0]
['beep', 0.0, -995.4572910615553, 0.0, 0.0, 0.0, 0.0, -971.4068140276449, 0.0]
['beep', 0.0, -990.9869421704939, 0.0, 0.0, 0.0, 0.0, -974.245485573469, 0.0]
['beep', 0.0, -988.0141601579381, 0.0, 0.0, 0.0, 0.0, -973.2843605618907, 0.0]
['beep', 0.0, -987.5224217799214, 0.0, 0.0, 0.0, 0.0, -973.2843605618907, 0.0]
['beep', 0.0, -991.7021979930638, 0.0, 0.0, 0.0, 0.0, -975.1842588405918, 0.0]
['beep', 0.0, -989.9140584366392, 0.0, 0.0, 0.0, 0.0, -974.178430340103, 0.0]
['beep', 0.0, -986.918924679628, 0.0, 0.0, 0.0, 0.0, -973.9549128955499, 0.0]
['beep', 0.0, -984.4602327895443, 0.0, 0.0, 0.0, 0.0, -972.7255669505081, 0.0]
['beep', 0.0, -986.7401107239856, 0.0, 0.0, 0.0, 0.0, -972.3679390392232, 0.0]
['beep', 0.0, -990.0034654144604, 0.0, 0.0, 0.0, 0.0, -973.597284984265, 0.0]
['beep', 0.0, -990.5846107702984, 0.0, 0.0, 0.0, 0.0, -972.434994272589, 0.0]
['beep', 0.0, -988.3047328358571, 0.0, 0.0, 0.0, 0.0, -971.4291657721003, 0.0]
['beep', 0.0, -987.8576979467509, 0.0, 0.0, 0.0, 0.0, -969.8198401713181, 0.0]
['beep', 0.0, -990.629314259209, 0.0, 0.0, 0.0, 0.0, -970.2221715715136, 0.0]
['beep', 0.0, -993.1103578937481, 0.0, 0.0, 0.0, 0.0, -970.2221715715136, 0.0]
['beep', 0.0, -987.0083316574493, 0.0, 0.0, 0.0, 0.0, -970.7139099495304, 0.0]
['beep', 0.0, -988.8188229583292, 0.0, 0.0, 0.0, 0.0, -971.2280000720025, 0.0]
['beep', 0.0, -991.8810119487063, 0.0, 0.0, 0.0, 0.0, -969.7527849379522, 0.0]
['beep', 0.0, -991.0316456594045, 0.0, 0.0, 0.0, 0.0, -969.8868954046841, 0.0]
['beep', 0.0, -988.6176572582314, 0.0, 0.0, 0.0, 0.0, -968.791659926374, 0.0]
['beep', 0.0, -986.3601310682453, 0.0, 0.0, 0.0, 0.0, -966.1988575695584, 0.0]
['beep', 0.0, -987.3212560798236, 0.0, 0.0, 0.0, 0.0, -967.8752384037065, 0.0]
['beep', 0.0, -989.7575962254521, 0.0, 0.0, 0.0, 0.0, -968.8140116708294, 0.0]
['beep', 0.0, -986.8518694462621, 0.0, 0.0, 0.0, 0.0, -967.5846657257874, 0.0]
['beep', 0.0, -987.4106630576448, 0.0, 0.0, 0.0, 0.0, -966.7129476920304, 0.0]
['beep', 0.0, -986.8742211907174, 0.0, 0.0, 0.0, 0.0, -967.2493895589578, 0.0]
['beep', 0.0, -983.3873490556896, 0.0, 0.0, 0.0, 0.0, -967.3835000256897, 0.0]
['beep', 0.0, -982.5156310219326, 0.0, 0.0, 0.0, 0.0, -966.6235407142092, 0.0]
['beep', 0.0, -983.8343839447957, 0.0, 0.0, 0.0, 0.0, -965.9082848916394, 0.0]
['beep', 0.0, -986.6507037461644, 0.0, 0.0, 0.0, 0.0, -967.8752384037065, 0.0]
['beep', 0.0, -986.0695583903264, 0.0, 0.0, 0.0, 0.0, -968.6351977151869, 0.0]
['beep', 0.0, -982.6050379997538, 0.0, 0.0, 0.0, 0.0, -967.405851770145, 0.0]
['beep', 0.0, -981.0404158878823, 0.0, 0.0, 0.0, 0.0, -966.4894302474773, 0.0]
['beep', 0.0, -980.14634610967, 0.0, 0.0, 0.0, 0.0, -966.2882645473796, 0.0]
['beep', 0.0, -979.8781251762064, 0.0, 0.0, 0.0, 0.0, -965.8635814027288, 0.0]
['beep', 0.0, -984.7508054674632, 0.0, 0.0, 0.0, 0.0, -965.4836017469886, 0.0]
['beep', 0.0, -982.9403141665833, 0.0, 0.0, 0.0, 0.0, -967.3611482812344, 0.0]
['beep', 0.0, -979.9898838984828, 0.0, 0.0, 0.0, 0.0, -967.629369214698, 0.0]
['beep', 0.0, -981.4427472880778, 0.0, 0.0, 0.0, 0.0, -966.4223750141115, 0.0]
['beep', 0.0, -979.7440147094745, 0.0, 0.0, 0.0, 0.0, -965.7741744249075, 0.0]
['beep', 0.0, -977.4864885194885, 0.0, 0.0, 0.0, 0.0, -967.2940930478685, 0.0]
['beep', 0.0, -980.0122356429382, 0.0, 0.0, 0.0, 0.0, -967.9422936370723, 0.0]
['beep', 0.0, -982.2921135773795, 0.0, 0.0, 0.0, 0.0, -967.2493895589578, 0.0]
['beep', 0.0, -983.8343839447957, 0.0, 0.0, 0.0, 0.0, -965.6400639581757, 0.0]
['beep', 0.0, -979.4981455204661, 0.0, 0.0, 0.0, 0.0, -966.176505825103, 0.0]
['beep', 0.0, -976.2571425744466, 0.0, 0.0, 0.0, 0.0, -964.1424970796702, 0.0]
['beep', 0.0, -975.9889216409829, 0.0, 0.0, 0.0, 0.0, -964.053090101849, 0.0]
['beep', 0.0, -981.5098025214437, 0.0, 0.0, 0.0, 0.0, -964.276607546402, 0.0]
['beep', 0.0, -982.9179624221281, 0.0, 0.0, 0.0, 0.0, -965.0812703467931, 0.0]
['beep', 0.0, -982.5603345108432, 0.0, 0.0, 0.0, 0.0, -963.2260755570026, 0.0]
['beep', 0.0, -983.2308868445024, 0.0, 0.0, 0.0, 0.0, -963.0472616013601, 0.0]
['beep', 0.0, -981.5545060103543, 0.0, 0.0, 0.0, 0.0, -962.7790406678964, 0.0]
['beep', 0.0, -981.8450786882734, 0.0, 0.0, 0.0, 0.0, -961.0579563448377, 0.0]
['beep', 0.0, -982.7391484664856, 0.0, 0.0, 0.0, 0.0, -961.1026598337484, 0.0]
['beep', 0.0, -983.1414798666812, 0.0, 0.0, 0.0, 0.0, -961.1697150671143, 0.0]
['beep', 0.0, -981.0627676323376, 0.0, 0.0, 0.0, 0.0, -960.0297760998936, 0.0]
['beep', 0.0, -977.307674563846, 0.0, 0.0, 0.0, 0.0, -958.308691776835, 0.0]
['beep', 0.0, -975.5865902407874, 0.0, 0.0, 0.0, 0.0, -958.4204504991116, 0.0]
['beep', 0.0, -979.6993112205639, 0.0, 0.0, 0.0, 0.0, -957.6381394431758, 0.0]
['beep', 0.0, -982.6050379997538, 0.0, 0.0, 0.0, 0.0, -957.6381394431758, 0.0]
['beep', 0.0, -984.4155293006337, 0.0, 0.0, 0.0, 0.0, -958.6439679436646, 0.0]
['beep', 0.0, -980.9510089100611, 0.0, 0.0, 0.0, 0.0, -959.0462993438601, 0.0]
['beep', 0.0, -977.5758954973097, 0.0, 0.0, 0.0, 0.0, -958.1298778211925, 0.0]
['beep', 0.0, -978.0452821308711, 0.0, 0.0, 0.0, 0.0, -954.2183225415138, 0.0]
['beep', 0.0, -976.0783286188041, 0.0, 0.0, 0.0, 0.0, -954.8665231307177, 0.0]
['beep', 0.0, -980.7721949544186, 0.0, 0.0, 0.0, 0.0, -957.4593254875333, 0.0]
['beep', 0.0, -984.1920118560806, 0.0, 0.0, 0.0, 0.0, -958.1969330545585, 0.0]
['beep', 0.0, -979.8110699428404, 0.0, 0.0, 0.0, 0.0, -957.213456298525, 0.0]
['beep', 0.0, -975.8995146631617, 0.0, 0.0, 0.0, 0.0, -957.3475667652568, 0.0]
['beep', 0.0, -973.7984506843628, 0.0, 0.0, 0.0, 0.0, -955.5147237199217, 0.0]
['beep', 0.0, -974.983093140494, 0.0, 0.0, 0.0, 0.0, -956.7217179205082, 0.0]
['beep', 0.0, -974.6701687181197, 0.0, 0.0, 0.0, 0.0, -955.6935376755641, 0.0]
['beep', 0.0, -971.2727035609131, 0.0, 0.0, 0.0, 0.0, -956.0958690757597, 0.0]
['beep', 0.0, -968.4787355039997, 0.0, 0.0, 0.0, 0.0, -956.4311452425892, 0.0]
['beep', 0.0, -969.3057500488461, 0.0, 0.0, 0.0, 0.0, -956.1405725646703, 0.0]
['beep', 0.0, -973.9996163844605, 0.0, 0.0, 0.0, 0.0, -957.2358080429802, 0.0]
['beep', 0.0, -978.4252617866114, 0.0, 0.0, 0.0, 0.0, -958.1075260767373, 0.0]
['beep', 0.0, -976.7041774635527, 0.0, 0.0, 0.0, 0.0, -959.6050929552429, 0.0]
['beep', 0.0, -971.1609448386365, 0.0, 0.0, 0.0, 0.0, -961.147363322659, 0.0]
['beep', 0.0, -971.5632762388321, 0.0, 0.0, 0.0, 0.0, -962.019081356416, 0.0]
['beep', 0.0, -973.1949535840695, 0.0, 0.0, 0.0, 0.0, -961.370880767212, 0.0]
['beep', 0.0, -972.6808634615975, 0.0, 0.0, 0.0, 0.0, -962.8907993901729, 0.0]
['beep', 0.0, -972.0103111279383, 0.0, 0.0, 0.0, 0.0, -964.3436627797679, 0.0]
['beep', 0.0, -971.8985524056617, 0.0, 0.0, 0.0, 0.0, -963.181372068092, 0.0]
['beep', 0.0, -973.887857662184, 0.0, 0.0, 0.0, 0.0, -965.2153808135249, 0.0]
['beep', 0.0, -973.5525814953544, 0.0, 0.0, 0.0, 0.0, -966.3553197807455, 0.0]
['beep', 0.0, -972.6808634615975, 0.0, 0.0, 0.0, 0.0, -966.5117819919327, 0.0]
['beep', 0.0, -971.6526832166534, 0.0, 0.0, 0.0, 0.0, -966.757651180941, 0.0]
['beep', 0.0, -972.7479186949633, 0.0, 0.0, 0.0, 0.0, -967.1152790922259, 0.0]
['beep', 0.0, -973.3290640508013, 0.0, 0.0, 0.0, 0.0, -966.1988575695584, 0.0]
['beep', 0.0, -973.4631745175332, 0.0, 0.0, 0.0, 0.0, -967.0258721144047, 0.0]
['beep', 0.0, -974.1113751067371, 0.0, 0.0, 0.0, 0.0, -966.4223750141115, 0.0]
['beep', 0.0, -974.5137065069326, 0.0, 0.0, 0.0, 0.0, -965.7071191915417, 0.0]
['beep', 0.0, -973.5525814953544, 0.0, 0.0, 0.0, 0.0, -966.5788372252986, 0.0]
['beep', 0.0, -972.6808634615975, 0.0, 0.0, 0.0, 0.0, -967.2940930478685, 0.0]
['beep', 0.0, -972.434994272589, 0.0, 0.0, 0.0, 0.0, -968.6351977151869, 0.0]
['beep', 0.0, -972.9490843950612, 0.0, 0.0, 0.0, 0.0, -968.6799012040975, 0.0]
['beep', 0.0, -973.2396570729801, 0.0, 0.0, 0.0, 0.0, -968.3222732928126, 0.0]
['beep', 0.0, -972.6585117171421, 0.0, 0.0, 0.0, 0.0, -969.6186744712204, 0.0]
['beep', 0.0, -972.3902907836784, 0.0, 0.0, 0.0, 0.0, -969.2610465599355, 0.0]
['beep', 0.0, -971.7644419389298, 0.0, 0.0, 0.0, 0.0, -970.5350959938879, 0.0]
['beep', 0.0, -971.1609448386365, 0.0, 0.0, 0.0, 0.0, -972.3008838058572, 0.0]
['beep', 0.0, -973.016139628427, 0.0, 0.0, 0.0, 0.0, -972.7255669505081, 0.0]
['beep', 0.0, -973.1949535840695, 0.0, 0.0, 0.0, 0.0, -974.4466512735667, 0.0]
['beep', 0.0, -970.8480204162622, 0.0, 0.0, 0.0, 0.0, -975.9442181520723, 0.0]
['beep', 0.0, -969.2163430710249, 0.0, 0.0, 0.0, 0.0, -978.0229303864159, 0.0]
['beep', 0.0, -966.8023546698516, 0.0, 0.0, 0.0, 0.0, -980.0345873873935, 0.0]
['beep', 0.0, -964.6789389465976, 0.0, 0.0, 0.0, 0.0, -981.5321542658991, 0.0]
['beep', 0.0, -973.9325611510947, 0.0, 0.0, 0.0, 0.0, -984.6390467451868, 0.0]
['beep', 0.0, -980.7051397210527, 0.0, 0.0, 0.0, 0.0, -990.9645904260386, 0.0]
['beep', 0.0, -984.4602327895443, 0.0, 0.0, 0.0, 0.0, -998.3630178407452, 0.0]
['beep', 0.0, -989.5787822698096, 0.0, 0.0, 0.0, 0.0, -1004.8897272216949, 0.0]
['beep', 0.0, -993.6020962717648, 0.0, 0.0, 0.0, 0.0, -1008.9800964570161, 0.0]
['beep', 0.0, -995.7702154839296, 0.0, 0.0, 0.0, 0.0, -1014.2551081484686, 0.0]
['beep', 0.0, -994.9432009390832, 0.0, 0.0, 0.0, 0.0, -1021.5864803298093, 0.0]
['beep', 0.0, -993.0433026603822, 0.0, 0.0, 0.0, 0.0, -1025.430980376122, 0.0]
['beep', 0.0, -990.9645904260386, 0.0, 0.0, 0.0, 0.0, -1027.1520646991808, 0.0]
['beep', 0.0, -991.0092939149492, 0.0, 0.0, 0.0, 0.0, -1029.0966664667924, 0.0]
['beep', 0.0, -989.9364101810945, 0.0, 0.0, 0.0, 0.0, -1031.6894688236082, 0.0]
['beep', 0.0, -988.9305816806057, 0.0, 0.0, 0.0, 0.0, -1035.7798380589293, 0.0]
['beep', 0.0, -988.14827062467, 0.0, 0.0, 0.0, 0.0, -1039.601986360787, 0.0]
['beep', 0.0, -987.7235874800191, 0.0, 0.0, 0.0, 0.0, -1042.530064884432, 0.0]
['beep', 0.0, -986.7624624684408, 0.0, 0.0, 0.0, 0.0, -1045.4581434080771, 0.0]
['beep', 0.0, -987.2542008464577, 0.0, 0.0, 0.0, 0.0, -1048.20740797608, 0.0]
['beep', 0.0, -986.0248549014158, 0.0, 0.0, 0.0, 0.0, -1051.9625010445716, 0.0]
['beep', 0.0, -985.0860816342929, 0.0, 0.0, 0.0, 0.0, -1055.5834836463314, 0.0]
['beep', 0.0, -984.8625641897398, 0.0, 0.0, 0.0, 0.0, -1058.9138935701721, 0.0]
['beep', 0.0, -984.080253133804, 0.0, 0.0, 0.0, 0.0, -1062.4231174496554, 0.0]
['beep', 0.0, -984.3261223228125, 0.0, 0.0, 0.0, 0.0, -1065.5076581844876, 0.0]
['beep', 0.0, -983.0073693999493, 0.0, 0.0, 0.0, 0.0, -1069.910951842183, 0.0]
['beep', 0.0, -982.0685961328264, 0.0, 0.0, 0.0, 0.0, -1072.8613821102838, 0.0]
['beep', 0.0, -981.6439129881755, 0.0, 0.0, 0.0, 0.0, -1075.7000536561077, 0.0]
['beep', 0.0, -981.889782177184, 0.0, 0.0, 0.0, 0.0, -1079.6786641691524, 0.0]
['beep', 0.0, -982.627389744209, 0.0, 0.0, 0.0, 0.0, -1082.5843909483422, 0.0]
['beep', 0.0, -982.403872299656, 0.0, 0.0, 0.0, 0.0, -1085.333655516345, 0.0]
['beep', 0.0, -982.1803548551029, 0.0, 0.0, 0.0, 0.0, -1089.4463764961215, 0.0]
['beep', 0.0, -981.7780234549074, 0.0, 0.0, 0.0, 0.0, -1092.5532689754093, 0.0]
['beep', 0.0, -980.8168984433293, 0.0, 0.0, 0.0, 0.0, -1095.302533543412, 0.0]
['beep', 0.0, -980.8392501877845, 0.0, 0.0, 0.0, 0.0, -1097.8282806668617, 0.0]
['beep', 0.0, -980.9286571656057, 0.0, 0.0, 0.0, 0.0, -1100.398731279222, 0.0]
['beep', 0.0, -980.8839536766951, 0.0, 0.0, 0.0, 0.0, -1103.4385685251439, 0.0]
['beep', 0.0, -979.8334216872958, 0.0, 0.0, 0.0, 0.0, -1105.3831702927555, 0.0]
['beep', 0.0, -980.436918787589, 0.0, 0.0, 0.0, 0.0, -1107.0371993824483, 0.0]
['beep', 0.0, -978.3582065532454, 0.0, 0.0, 0.0, 0.0, -1109.5629465058978, 0.0]
['beep', 0.0, -978.5817239977985, 0.0, 0.0, 0.0, 0.0, -1111.529900017965, 0.0]
['beep', 0.0, -978.6040757422538, 0.0, 0.0, 0.0, 0.0, -1113.3850948077554, 0.0]
['beep', 0.0, -978.5370205088878, 0.0, 0.0, 0.0, 0.0, -1116.335525075856, 0.0]
['beep', 0.0, -979.8781251762064, 0.0, 0.0, 0.0, 0.0, -1117.7436849765402, 0.0]
['beep', 0.0, -979.6769594761086, 0.0, 0.0, 0.0, 0.0, -1118.4365890546549, 0.0]
['beep', 0.0, -978.8722966757175, 0.0, 0.0, 0.0, 0.0, -1119.397714066233, 0.0]
['beep', 0.0, -978.3805582977008, 0.0, 0.0, 0.0, 0.0, -1120.9846879225597, 0.0]
['beep', 0.0, -978.3582065532454, 0.0, 0.0, 0.0, 0.0, -1122.6387170122525, 0.0]
['beep', 0.0, -978.2240960865136, 0.0, 0.0, 0.0, 0.0, -1122.7504757345291, 0.0]
['beep', 0.0, -977.9335234085946, 0.0, 0.0, 0.0, 0.0, -1124.3598013353112, 0.0]
['beep', 0.0, -977.307674563846, 0.0, 0.0, 0.0, 0.0, -1125.723257747085, 0.0]
['beep', 0.0, -977.3523780527566, 0.0, 0.0, 0.0, 0.0, -1126.0585339139145, 0.0]
['beep', 0.0, -977.4194332861225, 0.0, 0.0, 0.0, 0.0, -1126.2820513584675, 0.0]
['beep', 0.0, -976.435956530089, 0.0, 0.0, 0.0, 0.0, -1126.7290862475738, 0.0]
['beep', 0.0, -975.9665698965276, 0.0, 0.0, 0.0, 0.0, -1127.623156025786, 0.0]
['beep', 0.0, -975.9442181520723, 0.0, 0.0, 0.0, 0.0, -1127.4666938145988, 0.0]
['beep', 0.0, -976.0783286188041, 0.0, 0.0, 0.0, 0.0, -1128.2490048705347, 0.0]
['beep', 0.0, -976.1006803632595, 0.0, 0.0, 0.0, 0.0, -1128.5842810373642, 0.0]
['beep', 0.0, -975.0948518627706, 0.0, 0.0, 0.0, 0.0, -1129.2771851154787, 0.0]
['beep', 0.0, -974.8713344182175, 0.0, 0.0, 0.0, 0.0, -1130.0147926825039, 0.0]
['beep', 0.0, -975.0277966294046, 0.0, 0.0, 0.0, 0.0, -1130.2383101270568, 0.0]
['beep', 0.0, -974.8042791848516, 0.0, 0.0, 0.0, 0.0, -1131.110028160814, 0.0]
['beep', 0.0, -974.6701687181197, 0.0, 0.0, 0.0, 0.0, -1131.758228750018, 0.0]
['beep', 0.0, -973.8655059177287, 0.0, 0.0, 0.0, 0.0, -1132.4734845725877, 0.0]
['beep', 0.0, -974.0443198733711, 0.0, 0.0, 0.0, 0.0, -1132.585243294864, 0.0]
['beep', 0.0, -973.3514157952567, 0.0, 0.0, 0.0, 0.0, -1133.7028305176295, 0.0]
['beep', 0.0, -972.9490843950612, 0.0, 0.0, 0.0, 0.0, -1134.7757142514843, 0.0]
['beep', 0.0, -973.3067123063461, 0.0, 0.0, 0.0, 0.0, -1135.2674526295011, 0.0]
['beep', 0.0, -973.016139628427, 0.0, 0.0, 0.0, 0.0, -1136.2956328744451, 0.0]
['beep', 0.0, -973.9102094066393, 0.0, 0.0, 0.0, 0.0, -1136.787371252462, 0.0]
['beep', 0.0, -973.597284984265, 0.0, 0.0, 0.0, 0.0, -1137.2120543971128, 0.0]
['beep', 0.0, -972.434994272589, 0.0, 0.0, 0.0, 0.0, -1138.106124175325, 0.0]
['beep', 0.0, -971.4291657721003, 0.0, 0.0, 0.0, 0.0, -1139.4695805870988, 0.0]
['beep', 0.0, -971.8091454278405, 0.0, 0.0, 0.0, 0.0, -1139.7601532650178, 0.0]
['beep', 0.0, -970.9597791385388, 0.0, 0.0, 0.0, 0.0, -1140.2518916430345, 0.0]
['beep', 0.0, -970.982130882994, 0.0, 0.0, 0.0, 0.0, -1140.944795721149, 0.0]
['beep', 0.0, -970.8703721607176, 0.0, 0.0, 0.0, 0.0, -1140.877740487783, 0.0]
['beep', 0.0, -970.758613438441, 0.0, 0.0, 0.0, 0.0, -1141.4588858436211, 0.0]
['beep', 0.0, -970.982130882994, 0.0, 0.0, 0.0, 0.0, -1140.9894992100596, 0.0]
['beep', 0.0, -970.7809651828964, 0.0, 0.0, 0.0, 0.0, -1141.4365340991658, 0.0]
['beep', 0.0, -971.9432558945723, 0.0, 0.0, 0.0, 0.0, -1141.9282724771824, 0.0]
['beep', 0.0, -971.8538489167511, 0.0, 0.0, 0.0, 0.0, -1142.0847346883697, 0.0]
['beep', 0.0, -970.3786337827008, 0.0, 0.0, 0.0, 0.0, -1142.3753073662886, 0.0]
['beep', 0.0, -970.3562820382455, 0.0, 0.0, 0.0, 0.0, -1143.2917288889562, 0.0]
['beep', 0.0, -970.8927239051728, 0.0, 0.0, 0.0, 0.0, -1143.4034876112328, 0.0]
['beep', 0.0, -971.2727035609131, 0.0, 0.0, 0.0, 0.0, -1143.3587841223223, 0.0]
['beep', 0.0, -971.1385930941813, 0.0, 0.0, 0.0, 0.0, -1143.4258393556881, 0.0]
['beep', 0.0, -970.8033169273516, 0.0, 0.0, 0.0, 0.0, -1144.2305021560792, 0.0]
['beep', 0.0, -971.2280000720025, 0.0, 0.0, 0.0, 0.0, -1143.9622812226155, 0.0]
['beep', 0.0, -969.9763023825053, 0.0, 0.0, 0.0, 0.0, -1144.1634469227133, 0.0]
['beep', 0.0, -970.3562820382455, 0.0, 0.0, 0.0, 0.0, -1145.1469236787468, 0.0]
['beep', 0.0, -971.2056483275471, 0.0, 0.0, 0.0, 0.0, -1144.4987230895429, 0.0]
['beep', 0.0, -972.9043809061505, 0.0, 0.0, 0.0, 0.0, -1144.431667856177, 0.0]
['beep', 0.0, -975.0277966294046, 0.0, 0.0, 0.0, 0.0, -1144.789295767462, 0.0]
['beep', 0.0, -969.8868954046841, 0.0, 0.0, 0.0, 0.0, -1142.174141666191, 0.0]
['beep', 0.0, -965.0812703467931, 0.0, 0.0, 0.0, 0.0, -1138.1731794086909, 0.0]
['beep', 0.0, -967.4282035146003, 0.0, 0.0, 0.0, 0.0, -1136.6756125301854, 0.0]
['beep', 0.0, -968.4787355039997, 0.0, 0.0, 0.0, 0.0, -1134.105161917825, 0.0]
['beep', 0.0, -967.7411279369746, 0.0, 0.0, 0.0, 0.0, -1133.8145892399061, 0.0]
['beep', 0.0, -966.6458924586645, 0.0, 0.0, 0.0, 0.0, -1134.7310107625738, 0.0]
['beep', 0.0, -967.0258721144047, 0.0, 0.0, 0.0, 0.0, -1134.4851415735652, 0.0]
['beep', 0.0, -968.0987558482595, 0.0, 0.0, 0.0, 0.0, -1134.3063276179228, 0.0]
['beep', 0.0, -968.5234389929103, 0.0, 0.0, 0.0, 0.0, -1136.0497636854368, 0.0]
['beep', 0.0, -968.210514570536, 0.0, 0.0, 0.0, 0.0, -1137.1897026526574, 0.0]
['beep', 0.0, -968.0764041038042, 0.0, 0.0, 0.0, 0.0, -1137.6814410306743, 0.0]
['beep', 0.0, -967.986997125983, 0.0, 0.0, 0.0, 0.0, -1137.4355718416657, 0.0]
['beep', 0.0, -967.7858314258852, 0.0, 0.0, 0.0, 0.0, -1137.74849626404, 0.0]
['beep', 0.0, -967.405851770145, 0.0, 0.0, 0.0, 0.0, -1137.7037927751294, 0.0]
['beep', 0.0, -967.8081831703405, 0.0, 0.0, 0.0, 0.0, -1136.5191503189983, 0.0]
['beep', 0.0, -967.8752384037065, 0.0, 0.0, 0.0, 0.0, -1136.7426677635513, 0.0]
['beep', 0.0, -968.0317006148936, 0.0, 0.0, 0.0, 0.0, -1136.6309090412747, 0.0]
['beep', 0.0, -967.4952587479662, 0.0, 0.0, 0.0, 0.0, -1137.5696823083977, 0.0]
['beep', 0.0, -967.629369214698, 0.0, 0.0, 0.0, 0.0, -1138.396696853244, 0.0]
['beep', 0.0, -968.7693081819187, 0.0, 0.0, 0.0, 0.0, -1137.8602549863167, 0.0]
['beep', 0.0, -968.6575494596422, 0.0, 0.0, 0.0, 0.0, -1137.9943654530484, 0.0]
['beep', 0.0, -968.0987558482595, 0.0, 0.0, 0.0, 0.0, -1138.8660834868056, 0.0]
['beep', 0.0, -969.3057500488461, 0.0, 0.0, 0.0, 0.0, -1138.5308073199758, 0.0]
['beep', 0.0, -969.2163430710249, 0.0, 0.0, 0.0, 0.0, -1139.2460631425456, 0.0]
['beep', 0.0, -967.9422936370723, 0.0, 0.0, 0.0, 0.0, -1139.7601532650178, 0.0]
['beep', 0.0, -968.1881628260808, 0.0, 0.0, 0.0, 0.0, -1140.073077687392, 0.0]
['beep', 0.0, -967.6740727036087, 0.0, 0.0, 0.0, 0.0, -1139.424877098188, 0.0]
['beep', 0.0, -966.9588168810388, 0.0, 0.0, 0.0, 0.0, -1140.073077687392, 0.0]
['beep', 0.0, -966.757651180941, 0.0, 0.0, 0.0, 0.0, -1140.4083538542216, 0.0]
['beep', 0.0, -966.8694099032176, 0.0, 0.0, 0.0, 0.0, -1140.4083538542216, 0.0]
['beep', 0.0, -966.9811686254941, 0.0, 0.0, 0.0, 0.0, -1140.7436300210513, 0.0]
['beep', 0.0, -965.7518226804523, 0.0, 0.0, 0.0, 0.0, -1140.2965951319452, 0.0]
['beep', 0.0, -965.5283052358992, 0.0, 0.0, 0.0, 0.0, -1140.7659817655065, 0.0]
['beep', 0.0, -965.5283052358992, 0.0, 0.0, 0.0, 0.0, -1140.4083538542216, 0.0]
['beep', 0.0, -966.4670785030221, 0.0, 0.0, 0.0, 0.0, -1140.5648160654089, 0.0]
['beep', 0.0, -967.0929273477707, 0.0, 0.0, 0.0, 0.0, -1140.2965951319452, 0.0]
['beep', 0.0, -966.7352994364858, 0.0, 0.0, 0.0, 0.0, -1140.8106852544172, 0.0]
['beep', 0.0, -966.6682442031198, 0.0, 0.0, 0.0, 0.0, -1140.944795721149, 0.0]
['beep', 0.0, -966.9588168810388, 0.0, 0.0, 0.0, 0.0, -1140.587167809864, 0.0]
['beep', 0.0, -966.7352994364858, 0.0, 0.0, 0.0, 0.0, -1142.1294381772802, 0.0]
['beep', 0.0, -965.9753401250053, 0.0, 0.0, 0.0, 0.0, -1141.8612172438166, 0.0]
['beep', 0.0, -966.4447267585667, 0.0, 0.0, 0.0, 0.0, -1141.2577201435233, 0.0]
['beep', 0.0, -966.8023546698516, 0.0, 0.0, 0.0, 0.0, -1141.3694788658, 0.0]
['beep', 0.0, -966.0870988472818, 0.0, 0.0, 0.0, 0.0, -1140.4530573431323, 0.0]
['beep', 0.0, -965.5953604692651, 0.0, 0.0, 0.0, 0.0, -1142.040031199459, 0.0]
['beep', 0.0, -966.2212093140137, 0.0, 0.0, 0.0, 0.0, -1143.0682114444032, 0.0]
['beep', 0.0, -965.8188779138181, 0.0, 0.0, 0.0, 0.0, -1141.3024236324338, 0.0]
['beep', 0.0, -966.0647471028266, 0.0, 0.0, 0.0, 0.0, -1141.4812375880763, 0.0]
['beep', 0.0, -965.8635814027288, 0.0, 0.0, 0.0, 0.0, -1141.7047550326295, 0.0]
['beep', 0.0, -965.438898258078, 0.0, 0.0, 0.0, 0.0, -1142.1294381772802, 0.0]
['beep', 0.0, -966.9588168810388, 0.0, 0.0, 0.0, 0.0, -1142.6658800442076, 0.0]
['beep', 0.0, -967.6070174702428, 0.0, 0.0, 0.0, 0.0, -1142.9117492332161, 0.0]
['beep', 0.0, -967.5846657257874, 0.0, 0.0, 0.0, 0.0, -1142.6435282997525, 0.0]
['beep', 0.0, -967.5399622368768, 0.0, 0.0, 0.0, 0.0, -1142.621176555297, 0.0]
['beep', 0.0, -967.8975901481617, 0.0, 0.0, 0.0, 0.0, -1141.8612172438166, 0.0]
['beep', 0.0, -967.629369214698, 0.0, 0.0, 0.0, 0.0, -1142.330603877378, 0.0]
['beep', 0.0, -968.1211075927148, 0.0, 0.0, 0.0, 0.0, -1141.7941620104507, 0.0]
['beep', 0.0, -965.3047877913461, 0.0, 0.0, 0.0, 0.0, -1141.2577201435233, 0.0]
['beep', 0.0, -962.9355028790835, 0.0, 0.0, 0.0, 0.0, -1139.916615476205, 0.0]
['beep', 0.0, -962.4437645010668, 0.0, 0.0, 0.0, 0.0, -1138.8213799978948, 0.0]
['beep', 0.0, -963.0696133458154, 0.0, 0.0, 0.0, 0.0, -1138.3743451087887, 0.0]
['beep', 0.0, -963.8519244017511, 0.0, 0.0, 0.0, 0.0, -1136.7426677635513, 0.0]
['beep', 0.0, -964.9248081356059, 0.0, 0.0, 0.0, 0.0, -1137.6143857973082, 0.0]
['beep', 0.0, -963.9636831240277, 0.0, 0.0, 0.0, 0.0, -1138.1955311531462, 0.0]
['beep', 0.0, -965.3941947691674, 0.0, 0.0, 0.0, 0.0, -1139.1119526758139, 0.0]
['beep', 0.0, -966.4447267585667, 0.0, 0.0, 0.0, 0.0, -1141.0342026989701, 0.0]
['beep', 0.0, -966.1988575695584, 0.0, 0.0, 0.0, 0.0, -1141.1459614212467, 0.0]
['beep', 0.0, -966.1988575695584, 0.0, 0.0, 0.0, 0.0, -1140.3860021097664, 0.0]
['beep', 0.0, -966.176505825103, 0.0, 0.0, 0.0, 0.0, -1141.4141823547104, 0.0]
['beep', 0.0, -966.0870988472818, 0.0, 0.0, 0.0, 0.0, -1140.4530573431323, 0.0]
['beep', 0.0, -964.9248081356059, 0.0, 0.0, 0.0, 0.0, -1140.721278276596, 0.0]
['beep', 0.0, -966.1318023361924, 0.0, 0.0, 0.0, 0.0, -1141.3471271213446, 0.0]
['beep', 0.0, -967.1823343255919, 0.0, 0.0, 0.0, 0.0, -1140.9671474656043, 0.0]
['beep', 0.0, -966.2882645473796, 0.0, 0.0, 0.0, 0.0, -1140.1177811763027, 0.0]
['beep', 0.0, -965.3941947691674, 0.0, 0.0, 0.0, 0.0, -1141.3247753768892, 0.0]
['beep', 0.0, -964.5001249909551, 0.0, 0.0, 0.0, 0.0, -1141.1012579323362, 0.0]
['beep', 0.0, -964.790697668874, 0.0, 0.0, 0.0, 0.0, -1139.9613189651154, 0.0]
['beep', 0.0, -965.9753401250053, 0.0, 0.0, 0.0, 0.0, -1140.430705598677, 0.0]
['beep', 0.0, -964.85775290224, 0.0, 0.0, 0.0, 0.0, -1140.1848364096686, 0.0]
['beep', 0.0, -964.4777732464997, 0.0, 0.0, 0.0, 0.0, -1140.073077687392, 0.0]
['beep', 0.0, -964.276607546402, 0.0, 0.0, 0.0, 0.0, -1141.4812375880763, 0.0]
['beep', 0.0, -964.2319040574914, 0.0, 0.0, 0.0, 0.0, -1141.1906649101575, 0.0]
['beep', 0.0, -965.5730087248098, 0.0, 0.0, 0.0, 0.0, -1141.5482928214424, 0.0]
['beep', 0.0, -965.7294709359969, 0.0, 0.0, 0.0, 0.0, -1141.2577201435233, 0.0]
['beep', 0.0, -966.0870988472818, 0.0, 0.0, 0.0, 0.0, -1140.8553887433277, 0.0]
['beep', 0.0, -966.2882645473796, 0.0, 0.0, 0.0, 0.0, -1140.1401329207579, 0.0]
['beep', 0.0, -966.020043613916, 0.0, 0.0, 0.0, 0.0, -1141.3024236324338, 0.0]
['beep', 0.0, -965.5506569803545, 0.0, 0.0, 0.0, 0.0, -1141.4588858436211, 0.0]
['beep', 0.0, -965.9082848916394, 0.0, 0.0, 0.0, 0.0, -1140.7659817655065, 0.0]
['beep', 0.0, -965.8635814027288, 0.0, 0.0, 0.0, 0.0, -1140.2518916430345, 0.0]
['beep', 0.0, -964.2319040574914, 0.0, 0.0, 0.0, 0.0, -1141.8612172438166, 0.0]
['beep', 0.0, -965.1706773246143, 0.0, 0.0, 0.0, 0.0, -1141.2800718879787, 0.0]
['beep', 0.0, -966.020043613916, 0.0, 0.0, 0.0, 0.0, -1141.3247753768892, 0.0]
['beep', 0.0, -966.5117819919327, 0.0, 0.0, 0.0, 0.0, -1141.9953277105485, 0.0]
['beep', 0.0, -965.4612500025332, 0.0, 0.0, 0.0, 0.0, -1142.2635486440122, 0.0]
['beep', 0.0, -965.5730087248098, 0.0, 0.0, 0.0, 0.0, -1141.7718102659953, 0.0]
['beep', 0.0, -966.243561058469, 0.0, 0.0, 0.0, 0.0, -1141.6376997992636, 0.0]
['beep', 0.0, -965.5730087248098, 0.0, 0.0, 0.0, 0.0, -1142.0623829439144, 0.0]
['beep', 0.0, -965.1259738357037, 0.0, 0.0, 0.0, 0.0, -1142.2411968995568, 0.0]
['beep', 0.0, -965.7294709359969, 0.0, 0.0, 0.0, 0.0, -1142.5764730663864, 0.0]
['beep', 0.0, -965.7965261693629, 0.0, 0.0, 0.0, 0.0, -1142.330603877378, 0.0]
['beep', 0.0, -965.1483255801589, 0.0, 0.0, 0.0, 0.0, -1143.0011562110374, 0.0]
['beep', 0.0, -964.276607546402, 0.0, 0.0, 0.0, 0.0, -1143.492894589054, 0.0]
['beep', 0.0, -965.5059534914438, 0.0, 0.0, 0.0, 0.0, -1143.4034876112328, 0.0]
['beep', 0.0, -965.4836017469886, 0.0, 0.0, 0.0, 0.0, -1142.6435282997525, 0.0]
['beep', 0.0, -964.276607546402, 0.0, 0.0, 0.0, 0.0, -1141.8612172438166, 0.0]
['beep', 0.0, -963.3378342792791, 0.0, 0.0, 0.0, 0.0, -1141.9729759660931, 0.0]
['beep', 0.0, -963.8519244017511, 0.0, 0.0, 0.0, 0.0, -1142.4870660885651, 0.0]
['beep', 0.0, -964.1648488241254, 0.0, 0.0, 0.0, 0.0, -1142.7776387664842, 0.0]
['beep', 0.0, -963.471944746011, 0.0, 0.0, 0.0, 0.0, -1141.883568988272, 0.0]
['beep', 0.0, -963.6731104461087, 0.0, 0.0, 0.0, 0.0, -1142.2635486440122, 0.0]
['beep', 0.0, -963.6731104461087, 0.0, 0.0, 0.0, 0.0, -1142.7105835331183, 0.0]
['beep', 0.0, -964.3436627797679, 0.0, 0.0, 0.0, 0.0, -1142.2635486440122, 0.0]
['beep', 0.0, -964.053090101849, 0.0, 0.0, 0.0, 0.0, -1142.174141666191, 0.0]
['beep', 0.0, -964.0307383573936, 0.0, 0.0, 0.0, 0.0, -1141.4365340991658, 0.0]
['beep', 0.0, -965.1036220912483, 0.0, 0.0, 0.0, 0.0, -1142.978804466582, 0.0]
['beep', 0.0, -964.2319040574914, 0.0, 0.0, 0.0, 0.0, -1143.3811358667774, 0.0]
['beep', 0.0, -962.2873022898797, 0.0, 0.0, 0.0, 0.0, -1142.7105835331183, 0.0]
['beep', 0.0, -964.2319040574914, 0.0, 0.0, 0.0, 0.0, -1143.3811358667774, 0.0]
['beep', 0.0, -964.2319040574914, 0.0, 0.0, 0.0, 0.0, -1143.269377144501, 0.0]
['beep', 0.0, -964.5448284798657, 0.0, 0.0, 0.0, 0.0, -1142.5317695774759, 0.0]
['beep', 0.0, -964.9024563911506, 0.0, 0.0, 0.0, 0.0, -1143.135266677769, 0.0]
['beep', 0.0, -964.0083866129384, 0.0, 0.0, 0.0, 0.0, -1143.0458596999479, 0.0]
['beep', 0.0, -964.0977935907596, 0.0, 0.0, 0.0, 0.0, -1142.9341009776713, 0.0]
['beep', 0.0, -963.8295726572959, 0.0, 0.0, 0.0, 0.0, -1142.621176555297, 0.0]
['beep', 0.0, -964.1872005685808, 0.0, 0.0, 0.0, 0.0, -1142.7999905109396, 0.0]
['beep', 0.0, -963.3825377681898, 0.0, 0.0, 0.0, 0.0, -1142.6658800442076, 0.0]
['beep', 0.0, -964.1648488241254, 0.0, 0.0, 0.0, 0.0, -1143.202321911135, 0.0]
['beep', 0.0, -964.5224767354104, 0.0, 0.0, 0.0, 0.0, -1143.5599498224199, 0.0]
['beep', 0.0, -964.7012906910528, 0.0, 0.0, 0.0, 0.0, -1143.269377144501, 0.0]
['beep', 0.0, -964.6789389465976, 0.0, 0.0, 0.0, 0.0, -1142.2635486440122, 0.0]
['beep', 0.0, -964.2989592908573, 0.0, 0.0, 0.0, 0.0, -1142.5988248108417, 0.0]
['beep', 0.0, -964.053090101849, 0.0, 0.0, 0.0, 0.0, -1144.2305021560792, 0.0]
['beep', 0.0, -965.662415702631, 0.0, 0.0, 0.0, 0.0, -1144.3422608783558, 0.0]
['beep', 0.0, -965.3047877913461, 0.0, 0.0, 0.0, 0.0, -1143.2246736555903, 0.0]
['beep', 0.0, -965.9976918694606, 0.0, 0.0, 0.0, 0.0, -1142.978804466582, 0.0]
['beep', 0.0, -965.3047877913461, 0.0, 0.0, 0.0, 0.0, -1143.1129149333137, 0.0]
['beep', 0.0, -965.2153808135249, 0.0, 0.0, 0.0, 0.0, -1142.4200108551993, 0.0]
['beep', 0.0, -965.8635814027288, 0.0, 0.0, 0.0, 0.0, -1141.9506242216378, 0.0]
['beep', 0.0, -966.1318023361924, 0.0, 0.0, 0.0, 0.0, -1142.330603877378, 0.0]
['beep', 0.0, -966.6235407142092, 0.0, 0.0, 0.0, 0.0, -1142.2635486440122, 0.0]
['beep', 0.0, -966.6458924586645, 0.0, 0.0, 0.0, 0.0, -1142.688231788663, 0.0]
['beep', 0.0, -966.1318023361924, 0.0, 0.0, 0.0, 0.0, -1141.4365340991658, 0.0]
['beep', 0.0, -965.5730087248098, 0.0, 0.0, 0.0, 0.0, -1142.1294381772802, 0.0]
['beep', 0.0, -965.7518226804523, 0.0, 0.0, 0.0, 0.0, -1142.0847346883697, 0.0]
['beep', 0.0, -965.2153808135249, 0.0, 0.0, 0.0, 0.0, -1143.850522500339, 0.0]
['beep', 0.0, -965.4612500025332, 0.0, 0.0, 0.0, 0.0, -1143.3811358667774, 0.0]
['beep', 0.0, -966.3329680362903, 0.0, 0.0, 0.0, 0.0, -1142.978804466582, 0.0]
['beep', 0.0, -965.5283052358992, 0.0, 0.0, 0.0, 0.0, -1143.492894589054, 0.0]
['beep', 0.0, -966.6905959475752, 0.0, 0.0, 0.0, 0.0, -1143.3140806334115, 0.0]
['beep', 0.0, -966.7352994364858, 0.0, 0.0, 0.0, 0.0, -1144.2305021560792, 0.0]
['beep', 0.0, -966.5788372252986, 0.0, 0.0, 0.0, 0.0, -1144.7222405340958, 0.0]
['beep', 0.0, -965.95298838055, 0.0, 0.0, 0.0, 0.0, -1145.6610138012188, 0.0]
['beep', 0.0, -966.1318023361924, 0.0, 0.0, 0.0, 0.0, -1144.5657783229087, 0.0]
['beep', 0.0, -967.629369214698, 0.0, 0.0, 0.0, 0.0, -1144.8339992563724, 0.0]
['beep', 0.0, -967.7187761925193, 0.0, 0.0, 0.0, 0.0, -1145.5269033344869, 0.0]
['beep', 0.0, -967.0258721144047, 0.0, 0.0, 0.0, 0.0, -1144.1187434338026, 0.0]
['beep', 0.0, -966.9811686254941, 0.0, 0.0, 0.0, 0.0, -1144.945757978649, 0.0]
['beep', 0.0, -967.629369214698, 0.0, 0.0, 0.0, 0.0, -1144.6775370451853, 0.0]
['beep', 0.0, -967.696424448064, 0.0, 0.0, 0.0, 0.0, -1144.8787027452831, 0.0]
['beep', 0.0, -966.8470581587623, 0.0, 0.0, 0.0, 0.0, -1144.5657783229087, 0.0]
['beep', 0.0, -967.629369214698, 0.0, 0.0, 0.0, 0.0, -1144.2305021560792, 0.0]
['beep', 0.0, -967.2046860700472, 0.0, 0.0, 0.0, 0.0, -1144.8787027452831, 0.0]
['beep', 0.0, -967.1376308366813, 0.0, 0.0, 0.0, 0.0, -1145.169275423202, 0.0]
['beep', 0.0, -967.0705756033153, 0.0, 0.0, 0.0, 0.0, -1144.811647511917, 0.0]
['beep', 0.0, -967.472907003511, 0.0, 0.0, 0.0, 0.0, -1145.0351649564702, 0.0]
['beep', 0.0, -967.5846657257874, 0.0, 0.0, 0.0, 0.0, -1144.7669440230065, 0.0]
['beep', 0.0, -967.629369214698, 0.0, 0.0, 0.0, 0.0, -1145.593958567853, 0.0]
['beep', 0.0, -968.7022529485528, 0.0, 0.0, 0.0, 0.0, -1144.9010544897383, 0.0]
['beep', 0.0, -968.0987558482595, 0.0, 0.0, 0.0, 0.0, -1144.588130067364, 0.0]
['beep', 0.0, -966.6011889697539, 0.0, 0.0, 0.0, 0.0, -1145.0575167009256, 0.0]
['beep', 0.0, -966.5788372252986, 0.0, 0.0, 0.0, 0.0, -1144.5657783229087, 0.0]
['beep', 0.0, -967.472907003511, 0.0, 0.0, 0.0, 0.0, -1144.7222405340958, 0.0]
['beep', 0.0, -967.0929273477707, 0.0, 0.0, 0.0, 0.0, -1145.4374963566656, 0.0]
['beep', 0.0, -966.6458924586645, 0.0, 0.0, 0.0, 0.0, -1146.0633452014142, 0.0]
['beep', 0.0, -966.8917616476729, 0.0, 0.0, 0.0, 0.0, -1145.817476012406, 0.0]
['beep', 0.0, -967.2940930478685, 0.0, 0.0, 0.0, 0.0, -1146.5327318349757, 0.0]
['beep', 0.0, -967.405851770145, 0.0, 0.0, 0.0, 0.0, -1145.5716068233976, 0.0]
['beep', 0.0, -969.2833983043907, 0.0, 0.0, 0.0, 0.0, -1144.7222405340958, 0.0]
['beep', 0.0, -969.663377960131, 0.0, 0.0, 0.0, 0.0, -1144.6775370451853, 0.0]
['beep', 0.0, -969.4845640044886, 0.0, 0.0, 0.0, 0.0, -1144.9904614675595, 0.0]
['beep', 0.0, -967.7187761925193, 0.0, 0.0, 0.0, 0.0, -1145.0798684453807, 0.0]
['beep', 0.0, -966.8470581587623, 0.0, 0.0, 0.0, 0.0, -1144.2305021560792, 0.0]
['beep', 0.0, -966.8694099032176, 0.0, 0.0, 0.0, 0.0, -1144.074039944892, 0.0]
['beep', 0.0, -967.0258721144047, 0.0, 0.0, 0.0, 0.0, -1144.3869643672663, 0.0]
['beep', 0.0, -967.0929273477707, 0.0, 0.0, 0.0, 0.0, -1143.336432377867, 0.0]
['beep', 0.0, -967.6740727036087, 0.0, 0.0, 0.0, 0.0, -1144.0293364559814, 0.0]
['beep', 0.0, -967.3835000256897, 0.0, 0.0, 0.0, 0.0, -1143.7611155225177, 0.0]
['beep', 0.0, -967.0035203699495, 0.0, 0.0, 0.0, 0.0, -1143.4034876112328, 0.0]
['beep', 0.0, -966.8470581587623, 0.0, 0.0, 0.0, 0.0, -1143.3587841223223, 0.0]
['beep', 0.0, -968.5010872484551, 0.0, 0.0, 0.0, 0.0, -1142.3082521329227, 0.0]
['beep', 0.0, -967.7634796814299, 0.0, 0.0, 0.0, 0.0, -1143.7387637780623, 0.0]
['beep', 0.0, -968.5457907373657, 0.0, 0.0, 0.0, 0.0, -1143.649356800241, 0.0]
['beep', 0.0, -968.5234389929103, 0.0, 0.0, 0.0, 0.0, -1143.2470254000457, 0.0]
['beep', 0.0, -967.8081831703405, 0.0, 0.0, 0.0, 0.0, -1142.5094178330205, 0.0]
['beep', 0.0, -968.0317006148936, 0.0, 0.0, 0.0, 0.0, -1143.2246736555903, 0.0]
['beep', 0.0, -967.9422936370723, 0.0, 0.0, 0.0, 0.0, -1143.5375980779647, 0.0]
['beep', 0.0, -966.3329680362903, 0.0, 0.0, 0.0, 0.0, -1144.006984711526, 0.0]
['beep', 0.0, -966.4670785030221, 0.0, 0.0, 0.0, 0.0, -1144.1187434338026, 0.0]
['beep', 0.0, -966.4670785030221, 0.0, 0.0, 0.0, 0.0, -1143.1129149333137, 0.0]
['beep', 0.0, -966.0870988472818, 0.0, 0.0, 0.0, 0.0, -1142.196493410646, 0.0]
['beep', 0.0, -966.4894302474773, 0.0, 0.0, 0.0, 0.0, -1142.822342255395, 0.0]
['beep', 0.0, -966.7352994364858, 0.0, 0.0, 0.0, 0.0, -1143.7164120336072, 0.0]
['beep', 0.0, -965.9082848916394, 0.0, 0.0, 0.0, 0.0, -1143.850522500339, 0.0]
['beep', 0.0, -964.790697668874, 0.0, 0.0, 0.0, 0.0, -1143.8952259892496, 0.0]
['beep', 0.0, -965.2377325579802, 0.0, 0.0, 0.0, 0.0, -1143.6717085446965, 0.0]
['beep', 0.0, -965.0589186023377, 0.0, 0.0, 0.0, 0.0, -1144.141095178258, 0.0]
['beep', 0.0, -964.1201453352148, 0.0, 0.0, 0.0, 0.0, -1144.1187434338026, 0.0]
['beep', 0.0, -963.6731104461087, 0.0, 0.0, 0.0, 0.0, -1144.1187434338026, 0.0]
['beep', 0.0, -963.0249098569047, 0.0, 0.0, 0.0, 0.0, -1144.364612622811, 0.0]
['beep', 0.0, -962.9355028790835, 0.0, 0.0, 0.0, 0.0, -1144.3422608783558, 0.0]
['beep', 0.0, -964.209552313036, 0.0, 0.0, 0.0, 0.0, -1145.2810341454785, 0.0]
['beep', 0.0, -965.438898258078, 0.0, 0.0, 0.0, 0.0, -1145.303385889934, 0.0]
['beep', 0.0, -965.0365668578825, 0.0, 0.0, 0.0, 0.0, -1145.0798684453807, 0.0]
['beep', 0.0, -965.6177122137204, 0.0, 0.0, 0.0, 0.0, -1146.0856969458696, 0.0]
['beep', 0.0, -965.8635814027288, 0.0, 0.0, 0.0, 0.0, -1146.1751039236908, 0.0]
['beep', 0.0, -966.0870988472818, 0.0, 0.0, 0.0, 0.0, -1145.5716068233976, 0.0]
['beep', 0.0, -966.5564854808433, 0.0, 0.0, 0.0, 0.0, -1145.6610138012188, 0.0]
['beep', 0.0, -966.6905959475752, 0.0, 0.0, 0.0, 0.0, -1146.5327318349757, 0.0]
['beep', 0.0, -967.8528866592511, 0.0, 0.0, 0.0, 0.0, -1146.4656766016099, 0.0]
['beep', 0.0, -967.6517209591534, 0.0, 0.0, 0.0, 0.0, -1146.0633452014142, 0.0]
['beep', 0.0, -966.7129476920304, 0.0, 0.0, 0.0, 0.0, -1145.7951242679505, 0.0]
['beep', 0.0, -965.9753401250053, 0.0, 0.0, 0.0, 0.0, -1145.6610138012188, 0.0]
['beep', 0.0, -966.4000232696561, 0.0, 0.0, 0.0, 0.0, -1145.973938223593, 0.0]
['beep', 0.0, -966.6011889697539, 0.0, 0.0, 0.0, 0.0, -1144.65518530073, 0.0]
['beep', 0.0, -967.472907003511, 0.0, 0.0, 0.0, 0.0, -1145.817476012406, 0.0]
['beep', 0.0, -968.5904942262763, 0.0, 0.0, 0.0, 0.0, -1146.4656766016099, 0.0]
['beep', 0.0, -967.4282035146003, 0.0, 0.0, 0.0, 0.0, -1146.2421591570567, 0.0]
['beep', 0.0, -966.6235407142092, 0.0, 0.0, 0.0, 0.0, -1146.2868626459674, 0.0]
['beep', 0.0, -967.5176104924216, 0.0, 0.0, 0.0, 0.0, -1146.2868626459674, 0.0]
['beep', 0.0, -966.9588168810388, 0.0, 0.0, 0.0, 0.0, -1146.108048690325, 0.0]
['beep', 0.0, -967.6070174702428, 0.0, 0.0, 0.0, 0.0, -1145.7951242679505, 0.0]
['beep', 0.0, -967.9199418926171, 0.0, 0.0, 0.0, 0.0, -1145.8621795013166, 0.0]
['beep', 0.0, -966.6235407142092, 0.0, 0.0, 0.0, 0.0, -1146.5997870683418, 0.0]
['beep', 0.0, -966.0870988472818, 0.0, 0.0, 0.0, 0.0, -1145.7951242679505, 0.0]
['beep', 0.0, -966.0647471028266, 0.0, 0.0, 0.0, 0.0, -1145.0128132120149, 0.0]
['beep', 0.0, -965.2377325579802, 0.0, 0.0, 0.0, 0.0, -1144.811647511917, 0.0]
['beep', 0.0, -963.1590203236366, 0.0, 0.0, 0.0, 0.0, -1144.0963916893472, 0.0]
['beep', 0.0, -962.5108197344327, 0.0, 0.0, 0.0, 0.0, -1144.588130067364, 0.0]
['beep', 0.0, -962.2873022898797, 0.0, 0.0, 0.0, 0.0, -1142.7776387664842, 0.0]
['beep', 0.0, -961.3261772783014, 0.0, 0.0, 0.0, 0.0, -1143.0011562110374, 0.0]
['beep', 0.0, -962.5555232233434, 0.0, 0.0, 0.0, 0.0, -1142.8670457443054, 0.0]
['beep', 0.0, -964.7459941799634, 0.0, 0.0, 0.0, 0.0, -1142.5988248108417, 0.0]
['beep', 0.0, -966.7129476920304, 0.0, 0.0, 0.0, 0.0, -1142.330603877378, 0.0]
['beep', 0.0, -967.2940930478685, 0.0, 0.0, 0.0, 0.0, -1142.2411968995568, 0.0]
['beep', 0.0, -967.5176104924216, 0.0, 0.0, 0.0, 0.0, -1142.9564527221266, 0.0]
['beep', 0.0, -967.6517209591534, 0.0, 0.0, 0.0, 0.0, -1143.0011562110374, 0.0]
['beep', 0.0, -967.405851770145, 0.0, 0.0, 0.0, 0.0, -1142.2635486440122, 0.0]
['beep', 0.0, -967.0929273477707, 0.0, 0.0, 0.0, 0.0, -1142.688231788663, 0.0]
['beep', 0.0, -966.9588168810388, 0.0, 0.0, 0.0, 0.0, -1143.3811358667774, 0.0]
['beep', 0.0, -966.243561058469, 0.0, 0.0, 0.0, 0.0, -1143.5375980779647, 0.0]
['beep', 0.0, -965.7965261693629, 0.0, 0.0, 0.0, 0.0, -1143.4258393556881, 0.0]
['beep', 0.0, -966.1318023361924, 0.0, 0.0, 0.0, 0.0, -1145.169275423202, 0.0]
['beep', 0.0, -965.9976918694606, 0.0, 0.0, 0.0, 0.0, -1145.3480893788444, 0.0]
['beep', 0.0, -965.9976918694606, 0.0, 0.0, 0.0, 0.0, -1144.7669440230065, 0.0]
['beep', 0.0, -966.6235407142092, 0.0, 0.0, 0.0, 0.0, -1144.2752056449897, 0.0]
['beep', 0.0, -965.6847674470863, 0.0, 0.0, 0.0, 0.0, -1144.2305021560792, 0.0]
['beep', 0.0, -965.8412296582735, 0.0, 0.0, 0.0, 0.0, -1144.0963916893472, 0.0]
['beep', 0.0, -965.9753401250053, 0.0, 0.0, 0.0, 0.0, -1143.7164120336072, 0.0]
['beep', 0.0, -966.8470581587623, 0.0, 0.0, 0.0, 0.0, -1143.9175777337048, 0.0]
['beep', 0.0, -965.7294709359969, 0.0, 0.0, 0.0, 0.0, -1143.8281707558835, 0.0]
['beep', 0.0, -964.6565872021422, 0.0, 0.0, 0.0, 0.0, -1143.7387637780623, 0.0]
['beep', 0.0, -965.8635814027288, 0.0, 0.0, 0.0, 0.0, -1144.65518530073, 0.0]
['beep', 0.0, -966.757651180941, 0.0, 0.0, 0.0, 0.0, -1144.789295767462, 0.0]
['beep', 0.0, -965.7294709359969, 0.0, 0.0, 0.0, 0.0, -1145.459848101121, 0.0]
['beep', 0.0, -966.1318023361924, 0.0, 0.0, 0.0, 0.0, -1144.789295767462, 0.0]
['beep', 0.0, -967.0705756033153, 0.0, 0.0, 0.0, 0.0, -1144.0516882004367, 0.0]
['beep', 0.0, -966.4223750141115, 0.0, 0.0, 0.0, 0.0, -1144.9904614675595, 0.0]
['beep', 0.0, -965.5283052358992, 0.0, 0.0, 0.0, 0.0, -1144.6104818118195, 0.0]
['beep', 0.0, -965.6400639581757, 0.0, 0.0, 0.0, 0.0, -1144.945757978649, 0.0]
['beep', 0.0, -965.8188779138181, 0.0, 0.0, 0.0, 0.0, -1145.9515864791379, 0.0]
['beep', 0.0, -965.5730087248098, 0.0, 0.0, 0.0, 0.0, -1145.817476012406, 0.0]
['beep', 0.0, -964.790697668874, 0.0, 0.0, 0.0, 0.0, -1145.5716068233976, 0.0]
['beep', 0.0, -965.3941947691674, 0.0, 0.0, 0.0, 0.0, -1144.9904614675595, 0.0]
['beep', 0.0, -966.2212093140137, 0.0, 0.0, 0.0, 0.0, -1144.3869643672663, 0.0]
['beep', 0.0, -965.438898258078, 0.0, 0.0, 0.0, 0.0, -1145.6610138012188, 0.0]
['beep', 0.0, -964.7236424355082, 0.0, 0.0, 0.0, 0.0, -1145.6833655456742, 0.0]
['beep', 0.0, -965.0365668578825, 0.0, 0.0, 0.0, 0.0, -1145.7280690345847, 0.0]
['beep', 0.0, -963.9413313795724, 0.0, 0.0, 0.0, 0.0, -1145.7727725234954, 0.0]
['beep', 0.0, -963.3378342792791, 0.0, 0.0, 0.0, 0.0, -1146.2868626459674, 0.0]
['beep', 0.0, -963.8966278906618, 0.0, 0.0, 0.0, 0.0, -1146.2421591570567, 0.0]
['beep', 0.0, -963.6954621905641, 0.0, 0.0, 0.0, 0.0, -1146.9574149796267, 0.0]
['beep', 0.0, -964.6118837132316, 0.0, 0.0, 0.0, 0.0, -1146.1751039236908, 0.0]
['beep', 0.0, -964.6565872021422, 0.0, 0.0, 0.0, 0.0, -1145.4374963566656, 0.0]
['beep', 0.0, -964.4554215020445, 0.0, 0.0, 0.0, 0.0, -1144.8787027452831, 0.0]
['beep', 0.0, -964.0977935907596, 0.0, 0.0, 0.0, 0.0, -1144.9681097231044, 0.0]
['beep', 0.0, -964.276607546402, 0.0, 0.0, 0.0, 0.0, -1146.108048690325, 0.0]
['beep', 0.0, -964.2319040574914, 0.0, 0.0, 0.0, 0.0, -1146.0856969458696, 0.0]
['beep', 0.0, -963.6060552127428, 0.0, 0.0, 0.0, 0.0, -1145.236330656568, 0.0]
['beep', 0.0, -963.5166482349216, 0.0, 0.0, 0.0, 0.0, -1143.6046533113306, 0.0]
['beep', 0.0, -963.7401656794747, 0.0, 0.0, 0.0, 0.0, -1143.9175777337048, 0.0]
['beep', 0.0, -964.0754418463042, 0.0, 0.0, 0.0, 0.0, -1144.811647511917, 0.0]
['beep', 0.0, -962.8013924123517, 0.0, 0.0, 0.0, 0.0, -1144.1187434338026, 0.0]
['beep', 0.0, -962.823744156807, 0.0, 0.0, 0.0, 0.0, -1144.3422608783558, 0.0]
['beep', 0.0, -963.8072209128405, 0.0, 0.0, 0.0, 0.0, -1144.945757978649, 0.0]
['beep', 0.0, -962.533171478888, 0.0, 0.0, 0.0, 0.0, -1144.3199091339004, 0.0]
['beep', 0.0, -962.0414331008712, 0.0, 0.0, 0.0, 0.0, -1144.945757978649, 0.0]
