['beep', 0.0, -944.2270927699916, 0.0, 0.0, 0.0, 0.0, -1200.3110289944445, 0.0]
['beep', 0.0, -942.66247065812, 0.0, 0.0, 0.0, 0.0, -1201.5403749394864, 0.0]
['beep', 0.0, -943.8694648587067, 0.0, 0.0, 0.0, 0.0, -1203.552031940464, 0.0]
['beep', 0.0, -944.4506102145447, 0.0, 0.0, 0.0, 0.0, -1204.6249156743188, 0.0]
['beep', 0.0, -944.2047410255362, 0.0, 0.0, 0.0, 0.0, -1207.5753459424193, 0.0]
['beep', 0.0, -943.2659677584134, 0.0, 0.0, 0.0, 0.0, -1208.0447325759808, 0.0]
['beep', 0.0, -942.9977468249497, 0.0, 0.0, 0.0, 0.0, -1208.3129535094445, 0.0]
['beep', 0.0, -942.9530433360391, 0.0, 0.0, 0.0, 0.0, -1210.2575552770563, 0.0]
['beep', 0.0, -942.9083398471284, 0.0, 0.0, 0.0, 0.0, -1210.1234448103244, 0.0]
['beep', 0.0, -943.9141683476173, 0.0, 0.0, 0.0, 0.0, -1211.0622180774474, 0.0]
['beep', 0.0, -943.0648020583155, 0.0, 0.0, 0.0, 0.0, -1212.5150814670421, 0.0]
['beep', 0.0, -944.4282584700893, 0.0, 0.0, 0.0, 0.0, -1213.4538547341651, 0.0]
['beep', 0.0, -944.9647003370167, 0.0, 0.0, 0.0, 0.0, -1213.3867995007993, 0.0]
['beep', 0.0, -943.7353543919749, 0.0, 0.0, 0.0, 0.0, -1213.9008896232713, 0.0]
['beep', 0.0, -943.4000782251452, 0.0, 0.0, 0.0, 0.0, -1212.8950611227824, 0.0]
['beep', 0.0, -943.7800578808855, 0.0, 0.0, 0.0, 0.0, -1214.5043867235645, 0.0]
['beep', 0.0, -943.2883195028686, 0.0, 0.0, 0.0, 0.0, -1214.9067181237601, 0.0]
['beep', 0.0, -941.9025113466396, 0.0, 0.0, 0.0, 0.0, -1215.912546624249, 0.0]
['beep', 0.0, -942.7518776359412, 0.0, 0.0, 0.0, 0.0, -1216.784264658006, 0.0]
['beep', 0.0, -943.534188691877, 0.0, 0.0, 0.0, 0.0, -1215.8678431353383, 0.0]
['beep', 0.0, -944.4953137034553, 0.0, 0.0, 0.0, 0.0, -1216.8066164024613, 0.0]
['beep', 0.0, -943.5565404363324, 0.0, 0.0, 0.0, 0.0, -1217.454816991665, 0.0]
['beep', 0.0, -943.1765607805921, 0.0, 0.0, 0.0, 0.0, -1218.4159420032433, 0.0]
['beep', 0.0, -943.6459474141536, 0.0, 0.0, 0.0, 0.0, -1218.3712385143326, 0.0]
['beep', 0.0, -941.8131043688184, 0.0, 0.0, 0.0, 0.0, -1217.2089478026567, 0.0]
['beep', 0.0, -941.6119386687207, 0.0, 0.0, 0.0, 0.0, -1216.2478227910785, 0.0]
['beep', 0.0, -947.4680957160111, 0.0, 0.0, 0.0, 0.0, -1216.3595815133551, 0.0]
['beep', 0.0, -949.3009387613463, 0.0, 0.0, 0.0, 0.0, -1214.750255912573, 0.0]
['beep', 0.0, -948.0268893273937, 0.0, 0.0, 0.0, 0.0, -1212.8950611227824, 0.0]
['beep', 0.0, -947.1775230380921, 0.0, 0.0, 0.0, 0.0, -1212.4480262336763, 0.0]
['beep', 0.0, -947.2892817603686, 0.0, 0.0, 0.0, 0.0, -1214.5490902124752, 0.0]
['beep', 0.0, -947.602206182743, 0.0, 0.0, 0.0, 0.0, -1214.8620146348494, 0.0]
['beep', 0.0, -947.6245579271982, 0.0, 0.0, 0.0, 0.0, -1215.3537530128663, 0.0]
['beep', 0.0, -947.2892817603686, 0.0, 0.0, 0.0, 0.0, -1216.4042850022656, 0.0]
['beep', 0.0, -947.5127992049217, 0.0, 0.0, 0.0, 0.0, -1216.136064068802, 0.0]
['beep', 0.0, -946.7081364045306, 0.0, 0.0, 0.0, 0.0, -1216.5383954689976, 0.0]
['beep', 0.0, -946.4399154710669, 0.0, 0.0, 0.0, 0.0, -1216.4713402356315, 0.0]
['beep', 0.0, -948.0939445607597, 0.0, 0.0, 0.0, 0.0, -1217.7677414140394, 0.0]
['beep', 0.0, -948.0939445607597, 0.0, 0.0, 0.0, 0.0, -1218.4606454921538, 0.0]
['beep', 0.0, -947.6916131605642, 0.0, 0.0, 0.0, 0.0, -1219.6676396927405, 0.0]
['beep', 0.0, -946.9763573379943, 0.0, 0.0, 0.0, 0.0, -1219.0864943369024, 0.0]
['beep', 0.0, -946.0599358153268, 0.0, 0.0, 0.0, 0.0, -1217.4324652472098, 0.0]
['beep', 0.0, -945.7693631374077, 0.0, 0.0, 0.0, 0.0, -1217.588927458397, 0.0]
['beep', 0.0, -948.2504067719468, 0.0, 0.0, 0.0, 0.0, -1218.751218170073, 0.0]
['beep', 0.0, -947.3116335048239, 0.0, 0.0, 0.0, 0.0, -1218.1477210697797, 0.0]
['beep', 0.0, -946.5069707044329, 0.0, 0.0, 0.0, 0.0, -1219.041790847992, 0.0]
['beep', 0.0, -945.9258253485949, 0.0, 0.0, 0.0, 0.0, -1219.0864943369024, 0.0]
['beep', 0.0, -945.4117352261228, 0.0, 0.0, 0.0, 0.0, -1218.7065146811624, 0.0]
['beep', 0.0, -945.4564387150334, 0.0, 0.0, 0.0, 0.0, -1220.3381920263996, 0.0]
['beep', 0.0, -945.0094038259273, 0.0, 0.0, 0.0, 0.0, -1219.3770670148215, 0.0]
['beep', 0.0, -944.9647003370167, 0.0, 0.0, 0.0, 0.0, -1219.779398415017, 0.0]
['beep', 0.0, -944.9647003370167, 0.0, 0.0, 0.0, 0.0, -1219.8911571372935, 0.0]
['beep', 0.0, -945.3446799927569, 0.0, 0.0, 0.0, 0.0, -1218.52770072552, 0.0]
['beep', 0.0, -947.1328195491815, 0.0, 0.0, 0.0, 0.0, -1218.3265350254221, 0.0]
['beep', 0.0, -948.0715928163044, 0.0, 0.0, 0.0, 0.0, -1220.2040815596679, 0.0]
['beep', 0.0, -947.3116335048239, 0.0, 0.0, 0.0, 0.0, -1220.8969856377823, 0.0]
['beep', 0.0, -947.3786887381899, 0.0, 0.0, 0.0, 0.0, -1220.3158402819445, 0.0]
['beep', 0.0, -947.1551712936367, 0.0, 0.0, 0.0, 0.0, -1220.293488537489, 0.0]
['beep', 0.0, -946.3058050043351, 0.0, 0.0, 0.0, 0.0, -1219.8911571372935, 0.0]
['beep', 0.0, -946.5293224488881, 0.0, 0.0, 0.0, 0.0, -1221.0534478489694, 0.0]
['beep', 0.0, -945.9928805819608, 0.0, 0.0, 0.0, 0.0, -1219.4217705037322, 0.0]
['beep', 0.0, -947.0434125713602, 0.0, 0.0, 0.0, 0.0, -1219.779398415017, 0.0]
['beep', 0.0, -946.5740259377988, 0.0, 0.0, 0.0, 0.0, -1220.3381920263996, 0.0]
['beep', 0.0, -946.7528398934412, 0.0, 0.0, 0.0, 0.0, -1220.0252676040254, 0.0]
['beep', 0.0, -946.886950360173, 0.0, 0.0, 0.0, 0.0, -1220.5840612154082, 0.0]
['beep', 0.0, -947.1328195491815, 0.0, 0.0, 0.0, 0.0, -1220.7852269155057, 0.0]
['beep', 0.0, -946.5069707044329, 0.0, 0.0, 0.0, 0.0, -1220.0923228373913, 0.0]
['beep', 0.0, -947.3563369937345, 0.0, 0.0, 0.0, 0.0, -1220.9863926156036, 0.0]
['beep', 0.0, -947.535150949377, 0.0, 0.0, 0.0, 0.0, -1221.2546135490672, 0.0]
['beep', 0.0, -946.6187294267094, 0.0, 0.0, 0.0, 0.0, -1220.2711367930337, 0.0]
['beep', 0.0, -947.535150949377, 0.0, 0.0, 0.0, 0.0, -1220.0476193484808, 0.0]
['beep', 0.0, -947.6469096716536, 0.0, 0.0, 0.0, 0.0, -1221.7016484381734, 0.0]
['beep', 0.0, -946.9093021046284, 0.0, 0.0, 0.0, 0.0, -1222.2380903051007, 0.0]
['beep', 0.0, -947.0210608269049, 0.0, 0.0, 0.0, 0.0, -1222.5063112385644, 0.0]
['beep', 0.0, -947.0657643158155, 0.0, 0.0, 0.0, 0.0, -1221.81340716045, 0.0]
['beep', 0.0, -946.7975433823518, 0.0, 0.0, 0.0, 0.0, -1222.5957182163856, 0.0]
['beep', 0.0, -947.1104678047261, 0.0, 0.0, 0.0, 0.0, -1221.9475176271817, 0.0]
['beep', 0.0, -947.1998747825473, 0.0, 0.0, 0.0, 0.0, -1221.9922211160924, 0.0]
['beep', 0.0, -946.2834532598798, 0.0, 0.0, 0.0, 0.0, -1222.1486833272795, 0.0]
['beep', 0.0, -946.954005593539, 0.0, 0.0, 0.0, 0.0, -1223.0204013610366, 0.0]
['beep', 0.0, -946.4175637266117, 0.0, 0.0, 0.0, 0.0, -1222.3498490273773, 0.0]
['beep', 0.0, -945.8587701152289, 0.0, 0.0, 0.0, 0.0, -1221.8581106493605, 0.0]
['beep', 0.0, -945.6576044151312, 0.0, 0.0, 0.0, 0.0, -1222.4169042607432, 0.0]
['beep', 0.0, -946.4399154710669, 0.0, 0.0, 0.0, 0.0, -1223.1098083388579, 0.0]
['beep', 0.0, -946.8422468712624, 0.0, 0.0, 0.0, 0.0, -1223.2886222945003, 0.0]
['beep', 0.0, -946.4399154710669, 0.0, 0.0, 0.0, 0.0, -1223.6686019502404, 0.0]
['beep', 0.0, -946.730488148986, 0.0, 0.0, 0.0, 0.0, -1222.8415874053942, 0.0]
['beep', 0.0, -946.1046393042374, 0.0, 0.0, 0.0, 0.0, -1223.6909536946957, 0.0]
['beep', 0.0, -945.7470113929525, 0.0, 0.0, 0.0, 0.0, -1223.4450845056874, 0.0]
['beep', 0.0, -946.5293224488881, 0.0, 0.0, 0.0, 0.0, -1222.327497282922, 0.0]
['beep', 0.0, -945.9705288375055, 0.0, 0.0, 0.0, 0.0, -1223.0874565944025, 0.0]
['beep', 0.0, -945.4787904594888, 0.0, 0.0, 0.0, 0.0, -1222.90864263876, 0.0]
['beep', 0.0, -944.5176654479105, 0.0, 0.0, 0.0, 0.0, -1221.455779249165, 0.0]
['beep', 0.0, -945.3893834816676, 0.0, 0.0, 0.0, 0.0, -1221.3887240157992, 0.0]
['beep', 0.0, -946.6410811711647, 0.0, 0.0, 0.0, 0.0, -1222.5510147274751, 0.0]
['beep', 0.0, -945.7917148818631, 0.0, 0.0, 0.0, 0.0, -1221.679296693718, 0.0]
['beep', 0.0, -946.3505084932457, 0.0, 0.0, 0.0, 0.0, -1221.8804623938158, 0.0]
['beep', 0.0, -945.9258253485949, 0.0, 0.0, 0.0, 0.0, -1222.461607749654, 0.0]
['beep', 0.0, -946.4622672155223, 0.0, 0.0, 0.0, 0.0, -1224.5403199839975, 0.0]
['beep', 0.0, -946.7751916378966, 0.0, 0.0, 0.0, 0.0, -1224.3391542838997, 0.0]
['beep', 0.0, -946.2834532598798, 0.0, 0.0, 0.0, 0.0, -1224.1379885838019, 0.0]
['beep', 0.0, -946.5516741933435, 0.0, 0.0, 0.0, 0.0, -1223.9815263726148, 0.0]
['beep', 0.0, -947.535150949377, 0.0, 0.0, 0.0, 0.0, -1224.4732647506314, 0.0]
['beep', 0.0, -946.8645986157178, 0.0, 0.0, 0.0, 0.0, -1223.5791949724191, 0.0]
['beep', 0.0, -946.9987090824496, 0.0, 0.0, 0.0, 0.0, -1223.6462502057852, 0.0]
['beep', 0.0, -947.1104678047261, 0.0, 0.0, 0.0, 0.0, -1224.1379885838019, 0.0]
['beep', 0.0, -945.56819743731, 0.0, 0.0, 0.0, 0.0, -1225.0097066175588, 0.0]
['beep', 0.0, -946.3058050043351, 0.0, 0.0, 0.0, 0.0, -1224.9650031286483, 0.0]
['beep', 0.0, -945.9258253485949, 0.0, 0.0, 0.0, 0.0, -1225.0097066175588, 0.0]
['beep', 0.0, -947.1104678047261, 0.0, 0.0, 0.0, 0.0, -1224.4732647506314, 0.0]
['beep', 0.0, -946.5069707044329, 0.0, 0.0, 0.0, 0.0, -1223.5791949724191, 0.0]
['beep', 0.0, -946.3058050043351, 0.0, 0.0, 0.0, 0.0, -1224.1826920727126, 0.0]
['beep', 0.0, -945.1882177815697, 0.0, 0.0, 0.0, 0.0, -1224.294450794989, 0.0]
['beep', 0.0, -945.4564387150334, 0.0, 0.0, 0.0, 0.0, -1224.6073752173634, 0.0]
['beep', 0.0, -946.8422468712624, 0.0, 0.0, 0.0, 0.0, -1223.8697676503382, 0.0]
['beep', 0.0, -945.501142203944, 0.0, 0.0, 0.0, 0.0, -1224.0262298615253, 0.0]
['beep', 0.0, -945.2999765038463, 0.0, 0.0, 0.0, 0.0, -1224.8979478952824, 0.0]
['beep', 0.0, -945.3893834816676, 0.0, 0.0, 0.0, 0.0, -1225.456741506665, 0.0]
['beep', 0.0, -945.8587701152289, 0.0, 0.0, 0.0, 0.0, -1225.4120380177544, 0.0]
['beep', 0.0, -945.8140666263183, 0.0, 0.0, 0.0, 0.0, -1225.0767618509249, 0.0]
['beep', 0.0, -945.6352526706759, 0.0, 0.0, 0.0, 0.0, -1224.2720990505338, 0.0]
['beep', 0.0, -944.4953137034553, 0.0, 0.0, 0.0, 0.0, -1225.7249624401286, 0.0]
['beep', 0.0, -945.56819743731, 0.0, 0.0, 0.0, 0.0, -1226.037886862503, 0.0]
['beep', 0.0, -946.6857846600753, 0.0, 0.0, 0.0, 0.0, -1227.0437153629919, 0.0]
['beep', 0.0, -947.4680957160111, 0.0, 0.0, 0.0, 0.0, -1226.2390525626008, 0.0]
['beep', 0.0, -947.825723627296, 0.0, 0.0, 0.0, 0.0, -1226.2390525626008, 0.0]
['beep', 0.0, -947.244578271458, 0.0, 0.0, 0.0, 0.0, -1225.1214653398354, 0.0]
['beep', 0.0, -947.0210608269049, 0.0, 0.0, 0.0, 0.0, -1224.4062095172656, 0.0]
['beep', 0.0, -946.5740259377988, 0.0, 0.0, 0.0, 0.0, -1224.3838577728102, 0.0]
['beep', 0.0, -947.1775230380921, 0.0, 0.0, 0.0, 0.0, -1224.1603403282572, 0.0]
['beep', 0.0, -946.8198951268072, 0.0, 0.0, 0.0, 0.0, -1224.4732647506314, 0.0]
['beep', 0.0, -947.4233922271005, 0.0, 0.0, 0.0, 0.0, -1224.71913393964, 0.0]
['beep', 0.0, -947.5798544382876, 0.0, 0.0, 0.0, 0.0, -1224.5179682395421, 0.0]
['beep', 0.0, -946.1940462820586, 0.0, 0.0, 0.0, 0.0, -1224.8979478952824, 0.0]
['beep', 0.0, -946.2834532598798, 0.0, 0.0, 0.0, 0.0, -1225.523796740031, 0.0]
['beep', 0.0, -945.3893834816676, 0.0, 0.0, 0.0, 0.0, -1226.4849217516091, 0.0]
['beep', 0.0, -945.9705288375055, 0.0, 0.0, 0.0, 0.0, -1226.7754944295282, 0.0]
['beep', 0.0, -946.8645986157178, 0.0, 0.0, 0.0, 0.0, -1226.619032218341, 0.0]
['beep', 0.0, -946.9763573379943, 0.0, 0.0, 0.0, 0.0, -1227.1554740852685, 0.0]
['beep', 0.0, -947.1104678047261, 0.0, 0.0, 0.0, 0.0, -1226.8872531518048, 0.0]
['beep', 0.0, -946.886950360173, 0.0, 0.0, 0.0, 0.0, -1225.523796740031, 0.0]
['beep', 0.0, -944.2717962589022, 0.0, 0.0, 0.0, 0.0, -1224.6297269618187, 0.0]
['beep', 0.0, -942.7518776359412, 0.0, 0.0, 0.0, 0.0, -1224.5626717284526, 0.0]
['beep', 0.0, -941.9472148355502, 0.0, 0.0, 0.0, 0.0, -1224.294450794989, 0.0]
['beep', 0.0, -943.0424503138603, 0.0, 0.0, 0.0, 0.0, -1224.1826920727126, 0.0]
['beep', 0.0, -942.5954154247542, 0.0, 0.0, 0.0, 0.0, -1223.914471139249, 0.0]
['beep', 0.0, -942.2824910023799, 0.0, 0.0, 0.0, 0.0, -1223.3333257834108, 0.0]
['beep', 0.0, -942.6177671692094, 0.0, 0.0, 0.0, 0.0, -1224.1379885838019, 0.0]
['beep', 0.0, -943.9141683476173, 0.0, 0.0, 0.0, 0.0, -1224.361506028355, 0.0]
['beep', 0.0, -944.8305898702848, 0.0, 0.0, 0.0, 0.0, -1225.1885205732012, 0.0]
['beep', 0.0, -945.0541073148379, 0.0, 0.0, 0.0, 0.0, -1224.7638374285505, 0.0]
['beep', 0.0, -945.9928805819608, 0.0, 0.0, 0.0, 0.0, -1224.227395561623, 0.0]
['beep', 0.0, -946.0599358153268, 0.0, 0.0, 0.0, 0.0, -1224.9873548731036, 0.0]
['beep', 0.0, -945.277624759391, 0.0, 0.0, 0.0, 0.0, -1224.5403199839975, 0.0]
['beep', 0.0, -944.1600375366256, 0.0, 0.0, 0.0, 0.0, -1225.3673345288437, 0.0]
['beep', 0.0, -944.5400171923659, 0.0, 0.0, 0.0, 0.0, -1226.2390525626008, 0.0]
['beep', 0.0, -944.8976451036508, 0.0, 0.0, 0.0, 0.0, -1224.6967821951846, 0.0]
['beep', 0.0, -945.3893834816676, 0.0, 0.0, 0.0, 0.0, -1226.0155351180476, 0.0]
['beep', 0.0, -945.56819743731, 0.0, 0.0, 0.0, 0.0, -1225.5461484844861, 0.0]
['beep', 0.0, -944.4953137034553, 0.0, 0.0, 0.0, 0.0, -1226.2614043070562, 0.0]
['beep', 0.0, -944.3388514922681, 0.0, 0.0, 0.0, 0.0, -1227.3119362964555, 0.0]
['beep', 0.0, -945.9481770930502, 0.0, 0.0, 0.0, 0.0, -1226.4849217516091, 0.0]
['beep', 0.0, -946.3505084932457, 0.0, 0.0, 0.0, 0.0, -1226.19434907369, 0.0]
['beep', 0.0, -944.3388514922681, 0.0, 0.0, 0.0, 0.0, -1227.0213636185365, 0.0]
['beep', 0.0, -944.6070724257318, 0.0, 0.0, 0.0, 0.0, -1225.9261281402264, 0.0]
['beep', 0.0, -944.8305898702848, 0.0, 0.0, 0.0, 0.0, -1225.5014449955756, 0.0]
['beep', 0.0, -945.3446799927569, 0.0, 0.0, 0.0, 0.0, -1224.1826920727126, 0.0]
['beep', 0.0, -943.1989125250474, 0.0, 0.0, 0.0, 0.0, -1223.914471139249, 0.0]
['beep', 0.0, -944.5400171923659, 0.0, 0.0, 0.0, 0.0, -1225.5461484844861, 0.0]
['beep', 0.0, -944.3835549811787, 0.0, 0.0, 0.0, 0.0, -1226.1272938403242, 0.0]
['beep', 0.0, -944.0706305588044, 0.0, 0.0, 0.0, 0.0, -1226.6637357072516, 0.0]
['beep', 0.0, -944.4506102145447, 0.0, 0.0, 0.0, 0.0, -1224.741485684095, 0.0]
['beep', 0.0, -943.1765607805921, 0.0, 0.0, 0.0, 0.0, -1224.741485684095, 0.0]
['beep', 0.0, -942.148380535648, 0.0, 0.0, 0.0, 0.0, -1225.5908519733969, 0.0]
['beep', 0.0, -943.534188691877, 0.0, 0.0, 0.0, 0.0, -1225.3226310399332, 0.0]
['beep', 0.0, -943.2212642695027, 0.0, 0.0, 0.0, 0.0, -1224.9202996397376, 0.0]
['beep', 0.0, -942.4613049580223, 0.0, 0.0, 0.0, 0.0, -1225.903776395771, 0.0]
['beep', 0.0, -942.66247065812, 0.0, 0.0, 0.0, 0.0, -1224.9873548731036, 0.0]
['beep', 0.0, -943.1318572916815, 0.0, 0.0, 0.0, 0.0, -1225.6355554623074, 0.0]
['beep', 0.0, -943.7353543919749, 0.0, 0.0, 0.0, 0.0, -1225.4120380177544, 0.0]
['beep', 0.0, -943.601243925243, 0.0, 0.0, 0.0, 0.0, -1224.9202996397376, 0.0]
['beep', 0.0, -943.7800578808855, 0.0, 0.0, 0.0, 0.0, -1226.8649014073494, 0.0]
['beep', 0.0, -943.8247613697961, 0.0, 0.0, 0.0, 0.0, -1225.1438170842907, 0.0]
['beep', 0.0, -943.9588718365279, 0.0, 0.0, 0.0, 0.0, -1224.3391542838997, 0.0]
['beep', 0.0, -944.0482788143491, 0.0, 0.0, 0.0, 0.0, -1224.1826920727126, 0.0]
['beep', 0.0, -944.5176654479105, 0.0, 0.0, 0.0, 0.0, -1224.3391542838997, 0.0]
['beep', 0.0, -944.405906725634, 0.0, 0.0, 0.0, 0.0, -1224.9202996397376, 0.0]
['beep', 0.0, -943.7800578808855, 0.0, 0.0, 0.0, 0.0, -1224.0038781170701, 0.0]
['beep', 0.0, -943.4000782251452, 0.0, 0.0, 0.0, 0.0, -1225.0767618509249, 0.0]
['beep', 0.0, -943.4894852029664, 0.0, 0.0, 0.0, 0.0, -1226.7084391961623, 0.0]
['beep', 0.0, -943.1095055472261, 0.0, 0.0, 0.0, 0.0, -1225.8143694179498, 0.0]
['beep', 0.0, -943.7800578808855, 0.0, 0.0, 0.0, 0.0, -1225.680258951218, 0.0]
['beep', 0.0, -943.7130026475195, 0.0, 0.0, 0.0, 0.0, -1224.4062095172656, 0.0]
['beep', 0.0, -943.8471131142513, 0.0, 0.0, 0.0, 0.0, -1224.7861891730058, 0.0]
['beep', 0.0, -943.1765607805921, 0.0, 0.0, 0.0, 0.0, -1224.3391542838997, 0.0]
['beep', 0.0, -943.8918166031619, 0.0, 0.0, 0.0, 0.0, -1224.8532444063717, 0.0]
['beep', 0.0, -942.5507119358435, 0.0, 0.0, 0.0, 0.0, -1224.9202996397376, 0.0]
['beep', 0.0, -942.7742293803966, 0.0, 0.0, 0.0, 0.0, -1224.0262298615253, 0.0]
['beep', 0.0, -943.1765607805921, 0.0, 0.0, 0.0, 0.0, -1224.070933350436, 0.0]
['beep', 0.0, -942.5730636802988, 0.0, 0.0, 0.0, 0.0, -1224.2497473060785, 0.0]
['beep', 0.0, -943.2883195028686, 0.0, 0.0, 0.0, 0.0, -1223.556843227964, 0.0]
['beep', 0.0, -943.0871538027709, 0.0, 0.0, 0.0, 0.0, -1224.1379885838019, 0.0]
['beep', 0.0, -944.3388514922681, 0.0, 0.0, 0.0, 0.0, -1226.0155351180476, 0.0]
['beep', 0.0, -943.6235956696983, 0.0, 0.0, 0.0, 0.0, -1226.551976984975, 0.0]
['beep', 0.0, -943.1765607805921, 0.0, 0.0, 0.0, 0.0, -1225.3226310399332, 0.0]
['beep', 0.0, -943.1095055472261, 0.0, 0.0, 0.0, 0.0, -1225.456741506665, 0.0]
['beep', 0.0, -942.4166014691117, 0.0, 0.0, 0.0, 0.0, -1225.2108723176566, 0.0]
['beep', 0.0, -943.2883195028686, 0.0, 0.0, 0.0, 0.0, -1224.585023472908, 0.0]
['beep', 0.0, -942.7965811248519, 0.0, 0.0, 0.0, 0.0, -1223.6462502057852, 0.0]
['beep', 0.0, -941.7460491354525, 0.0, 0.0, 0.0, 0.0, -1225.2779275510225, 0.0]
['beep', 0.0, -943.0648020583155, 0.0, 0.0, 0.0, 0.0, -1225.5685002289415, 0.0]
['beep', 0.0, -941.6119386687207, 0.0, 0.0, 0.0, 0.0, -1224.294450794989, 0.0]
['beep', 0.0, -942.9977468249497, 0.0, 0.0, 0.0, 0.0, -1223.780360672517, 0.0]
['beep', 0.0, -943.9141683476173, 0.0, 0.0, 0.0, 0.0, -1226.7754944295282, 0.0]
['beep', 0.0, -943.1095055472261, 0.0, 0.0, 0.0, 0.0, -1226.19434907369, 0.0]
['beep', 0.0, -942.8189328693072, 0.0, 0.0, 0.0, 0.0, -1224.070933350436, 0.0]
['beep', 0.0, -944.4953137034553, 0.0, 0.0, 0.0, 0.0, -1224.5179682395421, 0.0]
['beep', 0.0, -944.182389281081, 0.0, 0.0, 0.0, 0.0, -1224.8085409174612, 0.0]
['beep', 0.0, -943.8247613697961, 0.0, 0.0, 0.0, 0.0, -1224.6297269618187, 0.0]
['beep', 0.0, -943.8918166031619, 0.0, 0.0, 0.0, 0.0, -1225.747314184584, 0.0]
['beep', 0.0, -944.2270927699916, 0.0, 0.0, 0.0, 0.0, -1224.875596150827, 0.0]
['beep', 0.0, -943.8918166031619, 0.0, 0.0, 0.0, 0.0, -1224.294450794989, 0.0]
['beep', 0.0, -945.2999765038463, 0.0, 0.0, 0.0, 0.0, -1225.5685002289415, 0.0]
['beep', 0.0, -944.696479403553, 0.0, 0.0, 0.0, 0.0, -1224.1826920727126, 0.0]
['beep', 0.0, -945.6576044151312, 0.0, 0.0, 0.0, 0.0, -1224.5179682395421, 0.0]
['beep', 0.0, -944.6741276590977, 0.0, 0.0, 0.0, 0.0, -1223.8921193947936, 0.0]
['beep', 0.0, -944.405906725634, 0.0, 0.0, 0.0, 0.0, -1224.6967821951846, 0.0]
['beep', 0.0, -945.1882177815697, 0.0, 0.0, 0.0, 0.0, -1224.2497473060785, 0.0]
['beep', 0.0, -944.4506102145447, 0.0, 0.0, 0.0, 0.0, -1224.0262298615253, 0.0]
['beep', 0.0, -943.9141683476173, 0.0, 0.0, 0.0, 0.0, -1224.0038781170701, 0.0]
['beep', 0.0, -945.3446799927569, 0.0, 0.0, 0.0, 0.0, -1223.9591746281594, 0.0]
['beep', 0.0, -943.9812235809832, 0.0, 0.0, 0.0, 0.0, -1225.680258951218, 0.0]
['beep', 0.0, -943.9365200920726, 0.0, 0.0, 0.0, 0.0, -1224.5626717284526, 0.0]
['beep', 0.0, -945.3893834816676, 0.0, 0.0, 0.0, 0.0, -1225.9708316291371, 0.0]
['beep', 0.0, -944.5623689368211, 0.0, 0.0, 0.0, 0.0, -1225.523796740031, 0.0]
['beep', 0.0, -943.6459474141536, 0.0, 0.0, 0.0, 0.0, -1225.2555758065673, 0.0]
['beep', 0.0, -944.2270927699916, 0.0, 0.0, 0.0, 0.0, -1224.070933350436, 0.0]
['beep', 0.0, -943.6459474141536, 0.0, 0.0, 0.0, 0.0, -1225.523796740031, 0.0]
['beep', 0.0, -943.3330229917792, 0.0, 0.0, 0.0, 0.0, -1225.9708316291371, 0.0]
['beep', 0.0, -943.8694648587067, 0.0, 0.0, 0.0, 0.0, -1224.5403199839975, 0.0]
['beep', 0.0, -943.3553747362346, 0.0, 0.0, 0.0, 0.0, -1225.3002792954778, 0.0]
['beep', 0.0, -941.7236973909971, 0.0, 0.0, 0.0, 0.0, -1225.4120380177544, 0.0]
['beep', 0.0, -941.8354561132737, 0.0, 0.0, 0.0, 0.0, -1225.0320583620141, 0.0]
['beep', 0.0, -941.8801596021843, 0.0, 0.0, 0.0, 0.0, -1226.3508112848774, 0.0]
['beep', 0.0, -942.0142700689162, 0.0, 0.0, 0.0, 0.0, -1224.741485684095, 0.0]
['beep', 0.0, -943.7800578808855, 0.0, 0.0, 0.0, 0.0, -1224.4732647506314, 0.0]
['beep', 0.0, -943.3553747362346, 0.0, 0.0, 0.0, 0.0, -1224.9202996397376, 0.0]
['beep', 0.0, -943.3553747362346, 0.0, 0.0, 0.0, 0.0, -1224.1379885838019, 0.0]
['beep', 0.0, -944.8976451036508, 0.0, 0.0, 0.0, 0.0, -1225.3673345288437, 0.0]
['beep', 0.0, -943.310671247324, 0.0, 0.0, 0.0, 0.0, -1225.6579072067627, 0.0]
['beep', 0.0, -942.7071741470306, 0.0, 0.0, 0.0, 0.0, -1225.389686273299, 0.0]
['beep', 0.0, -944.3388514922681, 0.0, 0.0, 0.0, 0.0, -1225.9261281402264, 0.0]
['beep', 0.0, -942.66247065812, 0.0, 0.0, 0.0, 0.0, -1226.0155351180476, 0.0]
['beep', 0.0, -942.9530433360391, 0.0, 0.0, 0.0, 0.0, -1226.4849217516091, 0.0]
['beep', 0.0, -942.9530433360391, 0.0, 0.0, 0.0, 0.0, -1225.5461484844861, 0.0]
['beep', 0.0, -944.9423485925614, 0.0, 0.0, 0.0, 0.0, -1224.6744304507292, 0.0]
['beep', 0.0, -944.7188311480083, 0.0, 0.0, 0.0, 0.0, -1225.680258951218, 0.0]
['beep', 0.0, -944.7188311480083, 0.0, 0.0, 0.0, 0.0, -1225.523796740031, 0.0]
['beep', 0.0, -944.7858863813742, 0.0, 0.0, 0.0, 0.0, -1227.0660671074472, 0.0]
['beep', 0.0, -944.182389281081, 0.0, 0.0, 0.0, 0.0, -1227.334288040911, 0.0]
['beep', 0.0, -944.2717962589022, 0.0, 0.0, 0.0, 0.0, -1227.4683985076426, 0.0]
['beep', 0.0, -944.115334047715, 0.0, 0.0, 0.0, 0.0, -1226.90960489626, 0.0]
['beep', 0.0, -945.3670317372122, 0.0, 0.0, 0.0, 0.0, -1225.881424651316, 0.0]
['beep', 0.0, -945.1882177815697, 0.0, 0.0, 0.0, 0.0, -1226.2614043070562, 0.0]
['beep', 0.0, -944.5400171923659, 0.0, 0.0, 0.0, 0.0, -1226.19434907369, 0.0]
['beep', 0.0, -945.3670317372122, 0.0, 0.0, 0.0, 0.0, -1226.9319566407153, 0.0]
['beep', 0.0, -944.8529416147402, 0.0, 0.0, 0.0, 0.0, -1226.5966804738857, 0.0]
['beep', 0.0, -944.3164997478128, 0.0, 0.0, 0.0, 0.0, -1226.19434907369, 0.0]
['beep', 0.0, -945.0541073148379, 0.0, 0.0, 0.0, 0.0, -1226.395514773788, 0.0]
['beep', 0.0, -944.5400171923659, 0.0, 0.0, 0.0, 0.0, -1225.747314184584, 0.0]
['beep', 0.0, -945.1658660371145, 0.0, 0.0, 0.0, 0.0, -1226.7084391961623, 0.0]
['beep', 0.0, -944.6294241701871, 0.0, 0.0, 0.0, 0.0, -1226.551976984975, 0.0]
['beep', 0.0, -943.9365200920726, 0.0, 0.0, 0.0, 0.0, -1226.4178665182433, 0.0]
['beep', 0.0, -943.7353543919749, 0.0, 0.0, 0.0, 0.0, -1227.4683985076426, 0.0]
['beep', 0.0, -945.0094038259273, 0.0, 0.0, 0.0, 0.0, -1228.138950841302, 0.0]
['beep', 0.0, -944.4506102145447, 0.0, 0.0, 0.0, 0.0, -1227.490750252098, 0.0]
['beep', 0.0, -943.2212642695027, 0.0, 0.0, 0.0, 0.0, -1227.781322930017, 0.0]
['beep', 0.0, -944.405906725634, 0.0, 0.0, 0.0, 0.0, -1227.647212463285, 0.0]
['beep', 0.0, -944.8305898702848, 0.0, 0.0, 0.0, 0.0, -1227.5801572299192, 0.0]
['beep', 0.0, -944.3612032367234, 0.0, 0.0, 0.0, 0.0, -1228.9212618972376, 0.0]
['beep', 0.0, -945.501142203944, 0.0, 0.0, 0.0, 0.0, -1227.2672328075448, 0.0]
['beep', 0.0, -945.3893834816676, 0.0, 0.0, 0.0, 0.0, -1227.2448810630897, 0.0]
['beep', 0.0, -945.7917148818631, 0.0, 0.0, 0.0, 0.0, -1227.5354537410085, 0.0]
['beep', 0.0, -944.4506102145447, 0.0, 0.0, 0.0, 0.0, -1227.714267696651, 0.0]
['beep', 0.0, -944.5176654479105, 0.0, 0.0, 0.0, 0.0, -1226.9319566407153, 0.0]
['beep', 0.0, -945.7023079040418, 0.0, 0.0, 0.0, 0.0, -1226.8649014073494, 0.0]
['beep', 0.0, -945.3893834816676, 0.0, 0.0, 0.0, 0.0, -1227.3789915298214, 0.0]
['beep', 0.0, -944.2941480033575, 0.0, 0.0, 0.0, 0.0, -1227.3119362964555, 0.0]
['beep', 0.0, -944.0929823032598, 0.0, 0.0, 0.0, 0.0, -1226.90960489626, 0.0]
['beep', 0.0, -944.4506102145447, 0.0, 0.0, 0.0, 0.0, -1226.686087451707, 0.0]
['beep', 0.0, -944.2270927699916, 0.0, 0.0, 0.0, 0.0, -1228.0495438634807, 0.0]
['beep', 0.0, -945.0094038259273, 0.0, 0.0, 0.0, 0.0, -1226.5296252405199, 0.0]
['beep', 0.0, -945.56819743731, 0.0, 0.0, 0.0, 0.0, -1226.5296252405199, 0.0]
['beep', 0.0, -944.2941480033575, 0.0, 0.0, 0.0, 0.0, -1227.4236950187321, 0.0]
['beep', 0.0, -945.8364183707737, 0.0, 0.0, 0.0, 0.0, -1228.8318549194164, 0.0]
['beep', 0.0, -945.4340869705782, 0.0, 0.0, 0.0, 0.0, -1228.2730613080337, 0.0]
['beep', 0.0, -944.3164997478128, 0.0, 0.0, 0.0, 0.0, -1228.1836543302124, 0.0]
['beep', 0.0, -944.3835549811787, 0.0, 0.0, 0.0, 0.0, -1227.6919159521958, 0.0]
['beep', 0.0, -944.7411828924636, 0.0, 0.0, 0.0, 0.0, -1227.0213636185365, 0.0]
['beep', 0.0, -945.0541073148379, 0.0, 0.0, 0.0, 0.0, -1227.490750252098, 0.0]
['beep', 0.0, -943.9588718365279, 0.0, 0.0, 0.0, 0.0, -1228.138950841302, 0.0]
['beep', 0.0, -944.2717962589022, 0.0, 0.0, 0.0, 0.0, -1226.2167008181455, 0.0]
['beep', 0.0, -944.1600375366256, 0.0, 0.0, 0.0, 0.0, -1226.19434907369, 0.0]
['beep', 0.0, -946.0375840708714, 0.0, 0.0, 0.0, 0.0, -1227.6025089743746, 0.0]
['beep', 0.0, -945.7023079040418, 0.0, 0.0, 0.0, 0.0, -1229.1894828307013, 0.0]
['beep', 0.0, -944.5623689368211, 0.0, 0.0, 0.0, 0.0, -1228.4518752636761, 0.0]
['beep', 0.0, -945.7023079040418, 0.0, 0.0, 0.0, 0.0, -1227.0213636185365, 0.0]
['beep', 0.0, -945.2329212704803, 0.0, 0.0, 0.0, 0.0, -1225.7696659290393, 0.0]
['beep', 0.0, -945.8364183707737, 0.0, 0.0, 0.0, 0.0, -1226.5296252405199, 0.0]
['beep', 0.0, -946.9316538490837, 0.0, 0.0, 0.0, 0.0, -1224.9873548731036, 0.0]
['beep', 0.0, -945.9928805819608, 0.0, 0.0, 0.0, 0.0, -1226.5296252405199, 0.0]
['beep', 0.0, -945.0764590592933, 0.0, 0.0, 0.0, 0.0, -1226.551976984975, 0.0]
['beep', 0.0, -944.6741276590977, 0.0, 0.0, 0.0, 0.0, -1226.2837560515113, 0.0]
['beep', 0.0, -945.7917148818631, 0.0, 0.0, 0.0, 0.0, -1227.2448810630897, 0.0]
['beep', 0.0, -944.3835549811787, 0.0, 0.0, 0.0, 0.0, -1226.1272938403242, 0.0]
['beep', 0.0, -945.3446799927569, 0.0, 0.0, 0.0, 0.0, -1226.3061077959667, 0.0]
['beep', 0.0, -945.6799561595865, 0.0, 0.0, 0.0, 0.0, -1227.8036746744722, 0.0]
['beep', 0.0, -946.2387497709692, 0.0, 0.0, 0.0, 0.0, -1227.9377851412041, 0.0]
['beep', 0.0, -945.1658660371145, 0.0, 0.0, 0.0, 0.0, -1226.6637357072516, 0.0]
['beep', 0.0, -945.3446799927569, 0.0, 0.0, 0.0, 0.0, -1227.1107705963577, 0.0]
['beep', 0.0, -946.3281567487904, 0.0, 0.0, 0.0, 0.0, -1227.356639785366, 0.0]
['beep', 0.0, -944.6741276590977, 0.0, 0.0, 0.0, 0.0, -1227.0884188519024, 0.0]
['beep', 0.0, -945.1882177815697, 0.0, 0.0, 0.0, 0.0, -1227.6025089743746, 0.0]
['beep', 0.0, -946.3058050043351, 0.0, 0.0, 0.0, 0.0, -1227.200177574179, 0.0]
['beep', 0.0, -946.7751916378966, 0.0, 0.0, 0.0, 0.0, -1226.5743287294304, 0.0]
['beep', 0.0, -946.5069707044329, 0.0, 0.0, 0.0, 0.0, -1227.0437153629919, 0.0]
['beep', 0.0, -946.5516741933435, 0.0, 0.0, 0.0, 0.0, -1226.8649014073494, 0.0]
['beep', 0.0, -945.6352526706759, 0.0, 0.0, 0.0, 0.0, -1227.2672328075448, 0.0]
['beep', 0.0, -945.2329212704803, 0.0, 0.0, 0.0, 0.0, -1227.1107705963577, 0.0]
['beep', 0.0, -946.1046393042374, 0.0, 0.0, 0.0, 0.0, -1227.2895845520002, 0.0]
['beep', 0.0, -944.6294241701871, 0.0, 0.0, 0.0, 0.0, -1227.490750252098, 0.0]
['beep', 0.0, -944.8529416147402, 0.0, 0.0, 0.0, 0.0, -1228.3177647969444, 0.0]
['beep', 0.0, -945.1882177815697, 0.0, 0.0, 0.0, 0.0, -1226.7084391961623, 0.0]
['beep', 0.0, -944.7188311480083, 0.0, 0.0, 0.0, 0.0, -1227.1554740852685, 0.0]
['beep', 0.0, -944.8529416147402, 0.0, 0.0, 0.0, 0.0, -1228.161302585757, 0.0]
['beep', 0.0, -943.5788921807876, 0.0, 0.0, 0.0, 0.0, -1227.133122340813, 0.0]
['beep', 0.0, -943.6235956696983, 0.0, 0.0, 0.0, 0.0, -1227.0213636185365, 0.0]
['beep', 0.0, -944.0035753254385, 0.0, 0.0, 0.0, 0.0, -1227.2448810630897, 0.0]
['beep', 0.0, -945.1658660371145, 0.0, 0.0, 0.0, 0.0, -1227.0213636185365, 0.0]
['beep', 0.0, -946.3505084932457, 0.0, 0.0, 0.0, 0.0, -1227.2448810630897, 0.0]
['beep', 0.0, -944.5847206812765, 0.0, 0.0, 0.0, 0.0, -1227.356639785366, 0.0]
['beep', 0.0, -944.0706305588044, 0.0, 0.0, 0.0, 0.0, -1227.0437153629919, 0.0]
['beep', 0.0, -943.1989125250474, 0.0, 0.0, 0.0, 0.0, -1226.171997329235, 0.0]
['beep', 0.0, -941.2543107574357, 0.0, 0.0, 0.0, 0.0, -1224.5626717284526, 0.0]
['beep', 0.0, -939.8237991122961, 0.0, 0.0, 0.0, 0.0, -1222.975697872126, 0.0]
['beep', 0.0, -940.2261305124916, 0.0, 0.0, 0.0, 0.0, -1224.9650031286483, 0.0]
['beep', 0.0, -940.3825927236787, 0.0, 0.0, 0.0, 0.0, -1224.361506028355, 0.0]
['beep', 0.0, -942.0366218133714, 0.0, 0.0, 0.0, 0.0, -1223.4003810167767, 0.0]
['beep', 0.0, -943.4671334585112, 0.0, 0.0, 0.0, 0.0, -1223.4674362501428, 0.0]
['beep', 0.0, -943.9588718365279, 0.0, 0.0, 0.0, 0.0, -1223.3556775278662, 0.0]
['beep', 0.0, -943.9141683476173, 0.0, 0.0, 0.0, 0.0, -1225.903776395771, 0.0]
['beep', 0.0, -944.7411828924636, 0.0, 0.0, 0.0, 0.0, -1226.2167008181455, 0.0]
['beep', 0.0, -945.9481770930502, 0.0, 0.0, 0.0, 0.0, -1226.8201979184387, 0.0]
['beep', 0.0, -945.6129009262206, 0.0, 0.0, 0.0, 0.0, -1227.6025089743746, 0.0]
['beep', 0.0, -944.2047410255362, 0.0, 0.0, 0.0, 0.0, -1224.4062095172656, 0.0]
['beep', 0.0, -944.3388514922681, 0.0, 0.0, 0.0, 0.0, -1224.5179682395421, 0.0]
['beep', 0.0, -943.9365200920726, 0.0, 0.0, 0.0, 0.0, -1225.3002792954778, 0.0]
['beep', 0.0, -943.7800578808855, 0.0, 0.0, 0.0, 0.0, -1224.6744304507292, 0.0]
['beep', 0.0, -943.2212642695027, 0.0, 0.0, 0.0, 0.0, -1226.6413839627962, 0.0]
['beep', 0.0, -943.5118369474218, 0.0, 0.0, 0.0, 0.0, -1227.1554740852685, 0.0]
['beep', 0.0, -942.9306915915837, 0.0, 0.0, 0.0, 0.0, -1226.7307909406175, 0.0]
['beep', 0.0, -941.5895869242653, 0.0, 0.0, 0.0, 0.0, -1226.7754944295282, 0.0]
['beep', 0.0, -941.7907526243631, 0.0, 0.0, 0.0, 0.0, -1226.7531426850728, 0.0]
['beep', 0.0, -942.0589735578268, 0.0, 0.0, 0.0, 0.0, -1226.3731630293325, 0.0]
['beep', 0.0, -941.6566421576313, 0.0, 0.0, 0.0, 0.0, -1225.1885205732012, 0.0]
['beep', 0.0, -941.9695665800056, 0.0, 0.0, 0.0, 0.0, -1225.7920176734947, 0.0]
['beep', 0.0, -942.9530433360391, 0.0, 0.0, 0.0, 0.0, -1225.8367211624052, 0.0]
['beep', 0.0, -944.4953137034553, 0.0, 0.0, 0.0, 0.0, -1225.5908519733969, 0.0]
['beep', 0.0, -943.1765607805921, 0.0, 0.0, 0.0, 0.0, -1226.19434907369, 0.0]
['beep', 0.0, -942.4613049580223, 0.0, 0.0, 0.0, 0.0, -1227.4236950187321, 0.0]
['beep', 0.0, -943.8918166031619, 0.0, 0.0, 0.0, 0.0, -1226.6413839627962, 0.0]
['beep', 0.0, -942.6177671692094, 0.0, 0.0, 0.0, 0.0, -1225.5685002289415, 0.0]
['beep', 0.0, -941.7236973909971, 0.0, 0.0, 0.0, 0.0, -1225.7920176734947, 0.0]
['beep', 0.0, -942.2377875134692, 0.0, 0.0, 0.0, 0.0, -1227.2895845520002, 0.0]
['beep', 0.0, -942.9977468249497, 0.0, 0.0, 0.0, 0.0, -1227.5801572299192, 0.0]
['beep', 0.0, -941.1649037796145, 0.0, 0.0, 0.0, 0.0, -1226.7754944295282, 0.0]
['beep', 0.0, -940.0920200457598, 0.0, 0.0, 0.0, 0.0, -1227.2225293186343, 0.0]
['beep', 0.0, -941.1425520351592, 0.0, 0.0, 0.0, 0.0, -1226.3508112848774, 0.0]
['beep', 0.0, -940.3825927236787, 0.0, 0.0, 0.0, 0.0, -1226.2837560515113, 0.0]
['beep', 0.0, -940.2931857458575, 0.0, 0.0, 0.0, 0.0, -1227.7589711855617, 0.0]
['beep', 0.0, -940.6061101682318, 0.0, 0.0, 0.0, 0.0, -1227.200177574179, 0.0]
['beep', 0.0, -940.6061101682318, 0.0, 0.0, 0.0, 0.0, -1227.200177574179, 0.0]
['beep', 0.0, -940.8966828461508, 0.0, 0.0, 0.0, 0.0, -1227.4236950187321, 0.0]
['beep', 0.0, -941.5895869242653, 0.0, 0.0, 0.0, 0.0, -1226.686087451707, 0.0]
['beep', 0.0, -941.9919183244608, 0.0, 0.0, 0.0, 0.0, -1227.3119362964555, 0.0]
['beep', 0.0, -940.7402206349636, 0.0, 0.0, 0.0, 0.0, -1229.301241552978, 0.0]
['beep', 0.0, -941.6119386687207, 0.0, 0.0, 0.0, 0.0, -1228.0271921190254, 0.0]
['beep', 0.0, -942.7742293803966, 0.0, 0.0, 0.0, 0.0, -1226.1496455847796, 0.0]
['beep', 0.0, -942.5060084469329, 0.0, 0.0, 0.0, 0.0, -1225.680258951218, 0.0]
['beep', 0.0, -943.243616013958, 0.0, 0.0, 0.0, 0.0, -1226.19434907369, 0.0]
['beep', 0.0, -941.276662501891, 0.0, 0.0, 0.0, 0.0, -1226.7531426850728, 0.0]
['beep', 0.0, -942.0142700689162, 0.0, 0.0, 0.0, 0.0, -1227.0660671074472, 0.0]
['beep', 0.0, -941.5448834353547, 0.0, 0.0, 0.0, 0.0, -1226.8201979184387, 0.0]
['beep', 0.0, -942.1707322801033, 0.0, 0.0, 0.0, 0.0, -1226.6637357072516, 0.0]
['beep', 0.0, -941.3660694797122, 0.0, 0.0, 0.0, 0.0, -1225.5685002289415, 0.0]
['beep', 0.0, -941.1872555240698, 0.0, 0.0, 0.0, 0.0, -1224.9202996397376, 0.0]
['beep', 0.0, -941.1425520351592, 0.0, 0.0, 0.0, 0.0, -1226.0155351180476, 0.0]
['beep', 0.0, -940.5390549348659, 0.0, 0.0, 0.0, 0.0, -1226.90960489626, 0.0]
['beep', 0.0, -941.5225316908994, 0.0, 0.0, 0.0, 0.0, -1226.842549662894, 0.0]
['beep', 0.0, -942.1930840245586, 0.0, 0.0, 0.0, 0.0, -1225.7026106956735, 0.0]
['beep', 0.0, -941.7236973909971, 0.0, 0.0, 0.0, 0.0, -1225.4120380177544, 0.0]
['beep', 0.0, -941.1649037796145, 0.0, 0.0, 0.0, 0.0, -1225.7920176734947, 0.0]
['beep', 0.0, -940.6061101682318, 0.0, 0.0, 0.0, 0.0, -1224.4062095172656, 0.0]
['beep', 0.0, -940.5837584237765, 0.0, 0.0, 0.0, 0.0, -1225.2555758065673, 0.0]
['beep', 0.0, -939.8014473678408, 0.0, 0.0, 0.0, 0.0, -1225.5685002289415, 0.0]
['beep', 0.0, -939.5779299232877, 0.0, 0.0, 0.0, 0.0, -1224.6744304507292, 0.0]
['beep', 0.0, -939.890854345662, 0.0, 0.0, 0.0, 0.0, -1224.361506028355, 0.0]
['beep', 0.0, -940.0473165568492, 0.0, 0.0, 0.0, 0.0, -1225.6355554623074, 0.0]
['beep', 0.0, -940.2484822569469, 0.0, 0.0, 0.0, 0.0, -1225.7920176734947, 0.0]
['beep', 0.0, -940.0920200457598, 0.0, 0.0, 0.0, 0.0, -1226.0825903514137, 0.0]
['beep', 0.0, -940.4496479570447, 0.0, 0.0, 0.0, 0.0, -1224.9202996397376, 0.0]
['beep', 0.0, -940.9190345906061, 0.0, 0.0, 0.0, 0.0, -1224.6744304507292, 0.0]
['beep', 0.0, -941.6342904131759, 0.0, 0.0, 0.0, 0.0, -1225.903776395771, 0.0]
['beep', 0.0, -942.5060084469329, 0.0, 0.0, 0.0, 0.0, -1225.2108723176566, 0.0]
['beep', 0.0, -942.0366218133714, 0.0, 0.0, 0.0, 0.0, -1225.5014449955756, 0.0]
['beep', 0.0, -941.9025113466396, 0.0, 0.0, 0.0, 0.0, -1226.0825903514137, 0.0]
['beep', 0.0, -942.3271944912905, 0.0, 0.0, 0.0, 0.0, -1225.6132037178522, 0.0]
['beep', 0.0, -941.3213659908016, 0.0, 0.0, 0.0, 0.0, -1226.7084391961623, 0.0]
['beep', 0.0, -941.9695665800056, 0.0, 0.0, 0.0, 0.0, -1225.1885205732012, 0.0]
['beep', 0.0, -941.8131043688184, 0.0, 0.0, 0.0, 0.0, -1224.6520787062739, 0.0]
['beep', 0.0, -941.9025113466396, 0.0, 0.0, 0.0, 0.0, -1226.976660129626, 0.0]
['beep', 0.0, -941.1425520351592, 0.0, 0.0, 0.0, 0.0, -1223.8027124169723, 0.0]
['beep', 0.0, -941.7684008799077, 0.0, 0.0, 0.0, 0.0, -1224.6967821951846, 0.0]
['beep', 0.0, -941.8801596021843, 0.0, 0.0, 0.0, 0.0, -1226.037886862503, 0.0]
['beep', 0.0, -940.8519793572402, 0.0, 0.0, 0.0, 0.0, -1225.8367211624052, 0.0]
['beep', 0.0, -940.8966828461508, 0.0, 0.0, 0.0, 0.0, -1225.9261281402264, 0.0]
['beep', 0.0, -941.7013456465419, 0.0, 0.0, 0.0, 0.0, -1225.8143694179498, 0.0]
['beep', 0.0, -942.1260287911927, 0.0, 0.0, 0.0, 0.0, -1225.4120380177544, 0.0]
['beep', 0.0, -942.2377875134692, 0.0, 0.0, 0.0, 0.0, -1226.6637357072516, 0.0]
['beep', 0.0, -941.2990142463464, 0.0, 0.0, 0.0, 0.0, -1223.6909536946957, 0.0]
['beep', 0.0, -940.762572379419, 0.0, 0.0, 0.0, 0.0, -1223.6238984613299, 0.0]
['beep', 0.0, -943.0200985694049, 0.0, 0.0, 0.0, 0.0, -1225.8590729068605, 0.0]
['beep', 0.0, -943.0424503138603, 0.0, 0.0, 0.0, 0.0, -1224.9873548731036, 0.0]
['beep', 0.0, -943.0424503138603, 0.0, 0.0, 0.0, 0.0, -1224.3391542838997, 0.0]
['beep', 0.0, -940.9413863350615, 0.0, 0.0, 0.0, 0.0, -1224.6744304507292, 0.0]
['beep', 0.0, -940.9860898239721, 0.0, 0.0, 0.0, 0.0, -1226.19434907369, 0.0]
['beep', 0.0, -941.0754968017933, 0.0, 0.0, 0.0, 0.0, -1225.1214653398354, 0.0]
['beep', 0.0, -941.3884212241676, 0.0, 0.0, 0.0, 0.0, -1225.1214653398354, 0.0]
['beep', 0.0, -941.4331247130782, 0.0, 0.0, 0.0, 0.0, -1227.1554740852685, 0.0]
['beep', 0.0, -940.0249648123938, 0.0, 0.0, 0.0, 0.0, -1225.7920176734947, 0.0]
['beep', 0.0, -940.6508136571424, 0.0, 0.0, 0.0, 0.0, -1227.6025089743746, 0.0]
['beep', 0.0, -941.1202002907039, 0.0, 0.0, 0.0, 0.0, -1226.9319566407153, 0.0]
['beep', 0.0, -939.6449851566537, 0.0, 0.0, 0.0, 0.0, -1225.0767618509249, 0.0]
['beep', 0.0, -938.5273979338882, 0.0, 0.0, 0.0, 0.0, -1224.3168025394443, 0.0]
['beep', 0.0, -940.4049444681341, 0.0, 0.0, 0.0, 0.0, -1224.4509130061763, 0.0]
['beep', 0.0, -941.6119386687207, 0.0, 0.0, 0.0, 0.0, -1224.9873548731036, 0.0]
['beep', 0.0, -941.343717735257, 0.0, 0.0, 0.0, 0.0, -1227.0884188519024, 0.0]
['beep', 0.0, -940.4719997015, 0.0, 0.0, 0.0, 0.0, -1226.5072734960645, 0.0]
['beep', 0.0, -939.890854345662, 0.0, 0.0, 0.0, 0.0, -1226.1272938403242, 0.0]
['beep', 0.0, -941.3660694797122, 0.0, 0.0, 0.0, 0.0, -1227.356639785366, 0.0]
['beep', 0.0, -941.1202002907039, 0.0, 0.0, 0.0, 0.0, -1225.6355554623074, 0.0]
['beep', 0.0, -941.0084415684273, 0.0, 0.0, 0.0, 0.0, -1225.5685002289415, 0.0]
['beep', 0.0, -940.8296276127849, 0.0, 0.0, 0.0, 0.0, -1226.037886862503, 0.0]
['beep', 0.0, -941.8801596021843, 0.0, 0.0, 0.0, 0.0, -1226.3508112848774, 0.0]
['beep', 0.0, -942.3495462357457, 0.0, 0.0, 0.0, 0.0, -1226.1272938403242, 0.0]
['beep', 0.0, -942.438953213567, 0.0, 0.0, 0.0, 0.0, -1225.8367211624052, 0.0]
['beep', 0.0, -941.5001799464441, 0.0, 0.0, 0.0, 0.0, -1226.1272938403242, 0.0]
['beep', 0.0, -942.0366218133714, 0.0, 0.0, 0.0, 0.0, -1225.4343897622098, 0.0]
['beep', 0.0, -940.181427023581, 0.0, 0.0, 0.0, 0.0, -1226.4178665182433, 0.0]
['beep', 0.0, -940.2037787680363, 0.0, 0.0, 0.0, 0.0, -1226.2837560515113, 0.0]
['beep', 0.0, -941.0531450573379, 0.0, 0.0, 0.0, 0.0, -1224.3391542838997, 0.0]
['beep', 0.0, -940.9413863350615, 0.0, 0.0, 0.0, 0.0, -1224.9202996397376, 0.0]
['beep', 0.0, -941.4331247130782, 0.0, 0.0, 0.0, 0.0, -1225.9261281402264, 0.0]
['beep', 0.0, -941.6119386687207, 0.0, 0.0, 0.0, 0.0, -1226.037886862503, 0.0]
['beep', 0.0, -941.3660694797122, 0.0, 0.0, 0.0, 0.0, -1224.8532444063717, 0.0]
['beep', 0.0, -942.3271944912905, 0.0, 0.0, 0.0, 0.0, -1225.4120380177544, 0.0]
['beep', 0.0, -941.8131043688184, 0.0, 0.0, 0.0, 0.0, -1226.6413839627962, 0.0]
['beep', 0.0, -941.0531450573379, 0.0, 0.0, 0.0, 0.0, -1225.7920176734947, 0.0]
['beep', 0.0, -942.7071741470306, 0.0, 0.0, 0.0, 0.0, -1225.3673345288437, 0.0]
['beep', 0.0, -942.3271944912905, 0.0, 0.0, 0.0, 0.0, -1225.3002792954778, 0.0]
['beep', 0.0, -940.8296276127849, 0.0, 0.0, 0.0, 0.0, -1226.1272938403242, 0.0]
['beep', 0.0, -942.1260287911927, 0.0, 0.0, 0.0, 0.0, -1226.171997329235, 0.0]
['beep', 0.0, -943.1989125250474, 0.0, 0.0, 0.0, 0.0, -1226.1049420958689, 0.0]
['beep', 0.0, -942.5954154247542, 0.0, 0.0, 0.0, 0.0, -1226.5296252405199, 0.0]
['beep', 0.0, -943.1765607805921, 0.0, 0.0, 0.0, 0.0, -1226.7307909406175, 0.0]
['beep', 0.0, -941.5895869242653, 0.0, 0.0, 0.0, 0.0, -1225.4790932511203, 0.0]
['beep', 0.0, -941.2990142463464, 0.0, 0.0, 0.0, 0.0, -1226.7531426850728, 0.0]
['beep', 0.0, -941.2990142463464, 0.0, 0.0, 0.0, 0.0, -1226.9543083851706, 0.0]
['beep', 0.0, -940.0920200457598, 0.0, 0.0, 0.0, 0.0, -1225.2779275510225, 0.0]
['beep', 0.0, -941.6119386687207, 0.0, 0.0, 0.0, 0.0, -1225.0544101064695, 0.0]
['beep', 0.0, -940.9637380795167, 0.0, 0.0, 0.0, 0.0, -1225.7920176734947, 0.0]
['beep', 0.0, -940.9637380795167, 0.0, 0.0, 0.0, 0.0, -1226.1272938403242, 0.0]
['beep', 0.0, -941.3660694797122, 0.0, 0.0, 0.0, 0.0, -1225.680258951218, 0.0]
['beep', 0.0, -939.9802613234832, 0.0, 0.0, 0.0, 0.0, -1226.1496455847796, 0.0]
['beep', 0.0, -939.9355578345726, 0.0, 0.0, 0.0, 0.0, -1226.4402182626986, 0.0]
['beep', 0.0, -940.0473165568492, 0.0, 0.0, 0.0, 0.0, -1224.4509130061763, 0.0]
['beep', 0.0, -940.9413863350615, 0.0, 0.0, 0.0, 0.0, -1225.3449827843885, 0.0]
['beep', 0.0, -940.1367235346704, 0.0, 0.0, 0.0, 0.0, -1225.2779275510225, 0.0]
['beep', 0.0, -941.9472148355502, 0.0, 0.0, 0.0, 0.0, -1224.7638374285505, 0.0]
['beep', 0.0, -941.8801596021843, 0.0, 0.0, 0.0, 0.0, -1225.0767618509249, 0.0]
['beep', 0.0, -940.9413863350615, 0.0, 0.0, 0.0, 0.0, -1225.8367211624052, 0.0]
['beep', 0.0, -939.9802613234832, 0.0, 0.0, 0.0, 0.0, -1225.9484798846818, 0.0]
['beep', 0.0, -940.8519793572402, 0.0, 0.0, 0.0, 0.0, -1226.5743287294304, 0.0]
['beep', 0.0, -940.5167031904106, 0.0, 0.0, 0.0, 0.0, -1227.490750252098, 0.0]
['beep', 0.0, -940.2484822569469, 0.0, 0.0, 0.0, 0.0, -1225.233224062112, 0.0]
['beep', 0.0, -941.3660694797122, 0.0, 0.0, 0.0, 0.0, -1224.5179682395421, 0.0]
['beep', 0.0, -941.2543107574357, 0.0, 0.0, 0.0, 0.0, -1224.2497473060785, 0.0]
['beep', 0.0, -941.0978485462485, 0.0, 0.0, 0.0, 0.0, -1225.7920176734947, 0.0]
['beep', 0.0, -940.9860898239721, 0.0, 0.0, 0.0, 0.0, -1227.5354537410085, 0.0]
['beep', 0.0, -940.7849241238742, 0.0, 0.0, 0.0, 0.0, -1226.3731630293325, 0.0]
['beep', 0.0, -941.2319590129804, 0.0, 0.0, 0.0, 0.0, -1226.2837560515113, 0.0]
['beep', 0.0, -942.1260287911927, 0.0, 0.0, 0.0, 0.0, -1227.5131019965534, 0.0]
['beep', 0.0, -942.6848224025754, 0.0, 0.0, 0.0, 0.0, -1226.5966804738857, 0.0]
['beep', 0.0, -941.4107729686228, 0.0, 0.0, 0.0, 0.0, -1225.166168828746, 0.0]
['beep', 0.0, -941.857807857729, 0.0, 0.0, 0.0, 0.0, -1225.5014449955756, 0.0]
['beep', 0.0, -940.9413863350615, 0.0, 0.0, 0.0, 0.0, -1224.6744304507292, 0.0]
['beep', 0.0, -941.276662501891, 0.0, 0.0, 0.0, 0.0, -1225.9261281402264, 0.0]
['beep', 0.0, -942.3495462357457, 0.0, 0.0, 0.0, 0.0, -1226.6637357072516, 0.0]
['beep', 0.0, -940.0920200457598, 0.0, 0.0, 0.0, 0.0, -1224.4509130061763, 0.0]
['beep', 0.0, -939.6673369011089, 0.0, 0.0, 0.0, 0.0, -1225.3226310399332, 0.0]
['beep', 0.0, -941.9919183244608, 0.0, 0.0, 0.0, 0.0, -1224.6073752173634, 0.0]
['beep', 0.0, -940.8296276127849, 0.0, 0.0, 0.0, 0.0, -1226.3061077959667, 0.0]
['beep', 0.0, -940.695517146053, 0.0, 0.0, 0.0, 0.0, -1228.0942473523912, 0.0]
['beep', 0.0, -940.5390549348659, 0.0, 0.0, 0.0, 0.0, -1226.5296252405199, 0.0]
['beep', 0.0, -941.7236973909971, 0.0, 0.0, 0.0, 0.0, -1226.4178665182433, 0.0]
['beep', 0.0, -943.0648020583155, 0.0, 0.0, 0.0, 0.0, -1227.4236950187321, 0.0]
['beep', 0.0, -941.9695665800056, 0.0, 0.0, 0.0, 0.0, -1226.5296252405199, 0.0]
['beep', 0.0, -942.081325302282, 0.0, 0.0, 0.0, 0.0, -1226.7978461739835, 0.0]
['beep', 0.0, -941.857807857729, 0.0, 0.0, 0.0, 0.0, -1225.9931833735923, 0.0]
['beep', 0.0, -942.0142700689162, 0.0, 0.0, 0.0, 0.0, -1226.9543083851706, 0.0]
['beep', 0.0, -941.7907526243631, 0.0, 0.0, 0.0, 0.0, -1228.2730613080337, 0.0]
['beep', 0.0, -941.9472148355502, 0.0, 0.0, 0.0, 0.0, -1227.9154333967488, 0.0]
['beep', 0.0, -941.6566421576313, 0.0, 0.0, 0.0, 0.0, -1227.9377851412041, 0.0]
['beep', 0.0, -941.6566421576313, 0.0, 0.0, 0.0, 0.0, -1228.8318549194164, 0.0]
['beep', 0.0, -941.8131043688184, 0.0, 0.0, 0.0, 0.0, -1226.8872531518048, 0.0]
['beep', 0.0, -942.0366218133714, 0.0, 0.0, 0.0, 0.0, -1224.9650031286483, 0.0]
['beep', 0.0, -942.2824910023799, 0.0, 0.0, 0.0, 0.0, -1226.7084391961623, 0.0]
['beep', 0.0, -941.0084415684273, 0.0, 0.0, 0.0, 0.0, -1226.3508112848774, 0.0]
['beep', 0.0, -940.2037787680363, 0.0, 0.0, 0.0, 0.0, -1226.395514773788, 0.0]
['beep', 0.0, -940.0473165568492, 0.0, 0.0, 0.0, 0.0, -1227.1107705963577, 0.0]
['beep', 0.0, -941.1202002907039, 0.0, 0.0, 0.0, 0.0, -1226.7084391961623, 0.0]
['beep', 0.0, -940.9190345906061, 0.0, 0.0, 0.0, 0.0, -1226.1049420958689, 0.0]
['beep', 0.0, -941.343717735257, 0.0, 0.0, 0.0, 0.0, -1227.133122340813, 0.0]
['beep', 0.0, -942.5730636802988, 0.0, 0.0, 0.0, 0.0, -1227.3789915298214, 0.0]
['beep', 0.0, -942.0589735578268, 0.0, 0.0, 0.0, 0.0, -1227.3789915298214, 0.0]
['beep', 0.0, -942.1707322801033, 0.0, 0.0, 0.0, 0.0, -1228.362468285855, 0.0]
['beep', 0.0, -940.9413863350615, 0.0, 0.0, 0.0, 0.0, -1228.0271921190254, 0.0]
['beep', 0.0, -939.6449851566537, 0.0, 0.0, 0.0, 0.0, -1226.686087451707, 0.0]
['beep', 0.0, -938.7509153784413, 0.0, 0.0, 0.0, 0.0, -1226.328459540422, 0.0]
['beep', 0.0, -936.2028165105363, 0.0, 0.0, 0.0, 0.0, -1225.523796740031, 0.0]
['beep', 0.0, -937.6109764112207, 0.0, 0.0, 0.0, 0.0, -1223.6015467168745, 0.0]
['beep', 0.0, -939.1755985230922, 0.0, 0.0, 0.0, 0.0, -1225.4343897622098, 0.0]
['beep', 0.0, -940.695517146053, 0.0, 0.0, 0.0, 0.0, -1225.9931833735923, 0.0]
['beep', 0.0, -941.5225316908994, 0.0, 0.0, 0.0, 0.0, -1225.9484798846818, 0.0]
['beep', 0.0, -943.0424503138603, 0.0, 0.0, 0.0, 0.0, -1226.7978461739835, 0.0]
['beep', 0.0, -943.5565404363324, 0.0, 0.0, 0.0, 0.0, -1227.356639785366, 0.0]
['beep', 0.0, -943.0648020583155, 0.0, 0.0, 0.0, 0.0, -1226.9543083851706, 0.0]
['beep', 0.0, -944.2717962589022, 0.0, 0.0, 0.0, 0.0, -1227.4683985076426, 0.0]
['beep', 0.0, -944.0482788143491, 0.0, 0.0, 0.0, 0.0, -1228.4742270081315, 0.0]
['beep', 0.0, -943.9588718365279, 0.0, 0.0, 0.0, 0.0, -1228.2060060746678, 0.0]
['beep', 0.0, -943.601243925243, 0.0, 0.0, 0.0, 0.0, -1227.4013432742768, 0.0]
['beep', 0.0, -942.8412846137625, 0.0, 0.0, 0.0, 0.0, -1225.9261281402264, 0.0]
['beep', 0.0, -943.7130026475195, 0.0, 0.0, 0.0, 0.0, -1226.5966804738857, 0.0]
['beep', 0.0, -943.2212642695027, 0.0, 0.0, 0.0, 0.0, -1227.2448810630897, 0.0]
['beep', 0.0, -943.4447817140558, 0.0, 0.0, 0.0, 0.0, -1227.4013432742768, 0.0]
['beep', 0.0, -941.6566421576313, 0.0, 0.0, 0.0, 0.0, -1227.9824886301146, 0.0]
['beep', 0.0, -942.2824910023799, 0.0, 0.0, 0.0, 0.0, -1227.647212463285, 0.0]
['beep', 0.0, -943.8024096253407, 0.0, 0.0, 0.0, 0.0, -1228.3848200303103, 0.0]
['beep', 0.0, -942.0142700689162, 0.0, 0.0, 0.0, 0.0, -1229.1447793417906, 0.0]
['beep', 0.0, -942.148380535648, 0.0, 0.0, 0.0, 0.0, -1228.2730613080337, 0.0]
['beep', 0.0, -942.6177671692094, 0.0, 0.0, 0.0, 0.0, -1226.3508112848774, 0.0]
['beep', 0.0, -942.5283601913882, 0.0, 0.0, 0.0, 0.0, -1225.7696659290393, 0.0]
['beep', 0.0, -941.0084415684273, 0.0, 0.0, 0.0, 0.0, -1227.0437153629919, 0.0]
['beep', 0.0, -942.9977468249497, 0.0, 0.0, 0.0, 0.0, -1228.6753927082293, 0.0]
['beep', 0.0, -943.243616013958, 0.0, 0.0, 0.0, 0.0, -1227.3119362964555, 0.0]
['beep', 0.0, -943.0648020583155, 0.0, 0.0, 0.0, 0.0, -1227.133122340813, 0.0]
['beep', 0.0, -944.5623689368211, 0.0, 0.0, 0.0, 0.0, -1226.6413839627962, 0.0]
['beep', 0.0, -943.8694648587067, 0.0, 0.0, 0.0, 0.0, -1226.4178665182433, 0.0]
['beep', 0.0, -941.9919183244608, 0.0, 0.0, 0.0, 0.0, -1226.2390525626008, 0.0]
['beep', 0.0, -941.7236973909971, 0.0, 0.0, 0.0, 0.0, -1225.3673345288437, 0.0]
['beep', 0.0, -941.4778282019888, 0.0, 0.0, 0.0, 0.0, -1226.7978461739835, 0.0]
['beep', 0.0, -942.1036770467374, 0.0, 0.0, 0.0, 0.0, -1227.8707299078383, 0.0]
['beep', 0.0, -942.5954154247542, 0.0, 0.0, 0.0, 0.0, -1226.4849217516091, 0.0]
['beep', 0.0, -940.4943514459553, 0.0, 0.0, 0.0, 0.0, -1224.4509130061763, 0.0]
['beep', 0.0, -940.0920200457598, 0.0, 0.0, 0.0, 0.0, -1225.8590729068605, 0.0]
['beep', 0.0, -941.3884212241676, 0.0, 0.0, 0.0, 0.0, -1225.6355554623074, 0.0]
['beep', 0.0, -942.2154357690139, 0.0, 0.0, 0.0, 0.0, -1224.942651384193, 0.0]
['beep', 0.0, -942.7742293803966, 0.0, 0.0, 0.0, 0.0, -1227.3789915298214, 0.0]
['beep', 0.0, -942.438953213567, 0.0, 0.0, 0.0, 0.0, -1227.8707299078383, 0.0]
['beep', 0.0, -943.0648020583155, 0.0, 0.0, 0.0, 0.0, -1228.9883171306035, 0.0]
['beep', 0.0, -943.601243925243, 0.0, 0.0, 0.0, 0.0, -1228.4742270081315, 0.0]
['beep', 0.0, -942.8412846137625, 0.0, 0.0, 0.0, 0.0, -1227.0437153629919, 0.0]
['beep', 0.0, -943.2659677584134, 0.0, 0.0, 0.0, 0.0, -1227.781322930017, 0.0]
['beep', 0.0, -943.8918166031619, 0.0, 0.0, 0.0, 0.0, -1228.161302585757, 0.0]
['beep', 0.0, -942.4836567024776, 0.0, 0.0, 0.0, 0.0, -1227.714267696651, 0.0]
['beep', 0.0, -941.7684008799077, 0.0, 0.0, 0.0, 0.0, -1227.5578054854639, 0.0]
['beep', 0.0, -942.6177671692094, 0.0, 0.0, 0.0, 0.0, -1226.5296252405199, 0.0]
['beep', 0.0, -943.0200985694049, 0.0, 0.0, 0.0, 0.0, -1226.5296252405199, 0.0]
['beep', 0.0, -942.5954154247542, 0.0, 0.0, 0.0, 0.0, -1227.3119362964555, 0.0]
['beep', 0.0, -941.7013456465419, 0.0, 0.0, 0.0, 0.0, -1227.4683985076426, 0.0]
['beep', 0.0, -942.2154357690139, 0.0, 0.0, 0.0, 0.0, -1228.4071717747656, 0.0]
['beep', 0.0, -941.2990142463464, 0.0, 0.0, 0.0, 0.0, -1228.4742270081315, 0.0]
['beep', 0.0, -942.0589735578268, 0.0, 0.0, 0.0, 0.0, -1227.647212463285, 0.0]
['beep', 0.0, -942.4613049580223, 0.0, 0.0, 0.0, 0.0, -1227.1554740852685, 0.0]
['beep', 0.0, -941.924863091095, 0.0, 0.0, 0.0, 0.0, -1226.8649014073494, 0.0]
['beep', 0.0, -941.2096072685251, 0.0, 0.0, 0.0, 0.0, -1227.133122340813, 0.0]
['beep', 0.0, -941.6119386687207, 0.0, 0.0, 0.0, 0.0, -1228.2283578191232, 0.0]
['beep', 0.0, -941.6566421576313, 0.0, 0.0, 0.0, 0.0, -1227.490750252098, 0.0]
['beep', 0.0, -941.4778282019888, 0.0, 0.0, 0.0, 0.0, -1225.6579072067627, 0.0]
['beep', 0.0, -941.6566421576313, 0.0, 0.0, 0.0, 0.0, -1226.0825903514137, 0.0]
['beep', 0.0, -941.2543107574357, 0.0, 0.0, 0.0, 0.0, -1225.9261281402264, 0.0]
['beep', 0.0, -941.1649037796145, 0.0, 0.0, 0.0, 0.0, -1226.1496455847796, 0.0]
['beep', 0.0, -941.2096072685251, 0.0, 0.0, 0.0, 0.0, -1225.7920176734947, 0.0]
['beep', 0.0, -941.7013456465419, 0.0, 0.0, 0.0, 0.0, -1226.9319566407153, 0.0]
['beep', 0.0, -942.7071741470306, 0.0, 0.0, 0.0, 0.0, -1227.2672328075448, 0.0]
['beep', 0.0, -942.2154357690139, 0.0, 0.0, 0.0, 0.0, -1227.2448810630897, 0.0]
['beep', 0.0, -942.9977468249497, 0.0, 0.0, 0.0, 0.0, -1227.714267696651, 0.0]
['beep', 0.0, -942.9306915915837, 0.0, 0.0, 0.0, 0.0, -1225.6579072067627, 0.0]
['beep', 0.0, -941.4778282019888, 0.0, 0.0, 0.0, 0.0, -1226.7084391961623, 0.0]
['beep', 0.0, -941.924863091095, 0.0, 0.0, 0.0, 0.0, -1225.9931833735923, 0.0]
['beep', 0.0, -942.66247065812, 0.0, 0.0, 0.0, 0.0, -1226.5296252405199, 0.0]
['beep', 0.0, -942.7742293803966, 0.0, 0.0, 0.0, 0.0, -1228.2507095635783, 0.0]
['beep', 0.0, -943.1095055472261, 0.0, 0.0, 0.0, 0.0, -1227.8036746744722, 0.0]
['beep', 0.0, -942.1930840245586, 0.0, 0.0, 0.0, 0.0, -1227.647212463285, 0.0]
['beep', 0.0, -942.438953213567, 0.0, 0.0, 0.0, 0.0, -1228.518930497042, 0.0]
['beep', 0.0, -943.2212642695027, 0.0, 0.0, 0.0, 0.0, -1228.585985730408, 0.0]
['beep', 0.0, -943.4671334585112, 0.0, 0.0, 0.0, 0.0, -1226.976660129626, 0.0]
['beep', 0.0, -943.8471131142513, 0.0, 0.0, 0.0, 0.0, -1226.976660129626, 0.0]
['beep', 0.0, -943.2212642695027, 0.0, 0.0, 0.0, 0.0, -1227.2448810630897, 0.0]
['beep', 0.0, -943.5118369474218, 0.0, 0.0, 0.0, 0.0, -1227.6919159521958, 0.0]
['beep', 0.0, -944.2717962589022, 0.0, 0.0, 0.0, 0.0, -1229.7259246976287, 0.0]
['beep', 0.0, -943.5118369474218, 0.0, 0.0, 0.0, 0.0, -1229.4130002752543, 0.0]
['beep', 0.0, -944.182389281081, 0.0, 0.0, 0.0, 0.0, -1228.2507095635783, 0.0]
['beep', 0.0, -944.0706305588044, 0.0, 0.0, 0.0, 0.0, -1228.2730613080337, 0.0]
['beep', 0.0, -944.2941480033575, 0.0, 0.0, 0.0, 0.0, -1227.9601368856595, 0.0]
['beep', 0.0, -944.7188311480083, 0.0, 0.0, 0.0, 0.0, -1227.1778258297236, 0.0]
['beep', 0.0, -942.9530433360391, 0.0, 0.0, 0.0, 0.0, -1227.2225293186343, 0.0]
['beep', 0.0, -943.7130026475195, 0.0, 0.0, 0.0, 0.0, -1229.0330206195142, 0.0]
['beep', 0.0, -942.9530433360391, 0.0, 0.0, 0.0, 0.0, -1227.9377851412041, 0.0]
['beep', 0.0, -944.4282584700893, 0.0, 0.0, 0.0, 0.0, -1227.9824886301146, 0.0]
['beep', 0.0, -944.7858863813742, 0.0, 0.0, 0.0, 0.0, -1228.0271921190254, 0.0]
['beep', 0.0, -943.1542090361368, 0.0, 0.0, 0.0, 0.0, -1227.5131019965534, 0.0]
['beep', 0.0, -943.5565404363324, 0.0, 0.0, 0.0, 0.0, -1226.8649014073494, 0.0]
['beep', 0.0, -943.7800578808855, 0.0, 0.0, 0.0, 0.0, -1225.7920176734947, 0.0]
['beep', 0.0, -942.438953213567, 0.0, 0.0, 0.0, 0.0, -1225.1214653398354, 0.0]
['beep', 0.0, -942.8189328693072, 0.0, 0.0, 0.0, 0.0, -1228.0495438634807, 0.0]
['beep', 0.0, -942.66247065812, 0.0, 0.0, 0.0, 0.0, -1228.362468285855, 0.0]
['beep', 0.0, -943.1095055472261, 0.0, 0.0, 0.0, 0.0, -1226.5296252405199, 0.0]
['beep', 0.0, -941.7013456465419, 0.0, 0.0, 0.0, 0.0, -1226.9990118740811, 0.0]
['beep', 0.0, -941.8131043688184, 0.0, 0.0, 0.0, 0.0, -1226.7531426850728, 0.0]
['beep', 0.0, -941.6789939020865, 0.0, 0.0, 0.0, 0.0, -1226.037886862503, 0.0]
['beep', 0.0, -941.5895869242653, 0.0, 0.0, 0.0, 0.0, -1225.680258951218, 0.0]
['beep', 0.0, -942.7071741470306, 0.0, 0.0, 0.0, 0.0, -1226.1049420958689, 0.0]
['beep', 0.0, -941.9919183244608, 0.0, 0.0, 0.0, 0.0, -1226.0155351180476, 0.0]
['beep', 0.0, -941.6789939020865, 0.0, 0.0, 0.0, 0.0, -1225.903776395771, 0.0]
['beep', 0.0, -941.4107729686228, 0.0, 0.0, 0.0, 0.0, -1225.9931833735923, 0.0]
['beep', 0.0, -941.4107729686228, 0.0, 0.0, 0.0, 0.0, -1226.2390525626008, 0.0]
['beep', 0.0, -942.8412846137625, 0.0, 0.0, 0.0, 0.0, -1225.233224062112, 0.0]
['beep', 0.0, -942.6177671692094, 0.0, 0.0, 0.0, 0.0, -1225.903776395771, 0.0]
['beep', 0.0, -943.6682991586089, 0.0, 0.0, 0.0, 0.0, -1226.8649014073494, 0.0]
['beep', 0.0, -943.243616013958, 0.0, 0.0, 0.0, 0.0, -1225.2779275510225, 0.0]
['beep', 0.0, -943.1095055472261, 0.0, 0.0, 0.0, 0.0, -1226.0825903514137, 0.0]
['beep', 0.0, -942.7071741470306, 0.0, 0.0, 0.0, 0.0, -1225.9261281402264, 0.0]
['beep', 0.0, -942.0589735578268, 0.0, 0.0, 0.0, 0.0, -1226.037886862503, 0.0]
['beep', 0.0, -942.1036770467374, 0.0, 0.0, 0.0, 0.0, -1226.8201979184387, 0.0]
['beep', 0.0, -941.9919183244608, 0.0, 0.0, 0.0, 0.0, -1227.0213636185365, 0.0]
['beep', 0.0, -942.7071741470306, 0.0, 0.0, 0.0, 0.0, -1226.686087451707, 0.0]
['beep', 0.0, -941.4554764575335, 0.0, 0.0, 0.0, 0.0, -1227.3789915298214, 0.0]
['beep', 0.0, -942.66247065812, 0.0, 0.0, 0.0, 0.0, -1227.3789915298214, 0.0]
['beep', 0.0, -943.1765607805921, 0.0, 0.0, 0.0, 0.0, -1226.9543083851706, 0.0]
['beep', 0.0, -941.4554764575335, 0.0, 0.0, 0.0, 0.0, -1226.9319566407153, 0.0]
['beep', 0.0, -941.2543107574357, 0.0, 0.0, 0.0, 0.0, -1225.6355554623074, 0.0]
['beep', 0.0, -942.3048427468351, 0.0, 0.0, 0.0, 0.0, -1225.9261281402264, 0.0]
['beep', 0.0, -942.66247065812, 0.0, 0.0, 0.0, 0.0, -1225.8590729068605, 0.0]
['beep', 0.0, -941.276662501891, 0.0, 0.0, 0.0, 0.0, -1225.7920176734947, 0.0]
['beep', 0.0, -943.4224299696006, 0.0, 0.0, 0.0, 0.0, -1226.7307909406175, 0.0]
['beep', 0.0, -941.9025113466396, 0.0, 0.0, 0.0, 0.0, -1226.619032218341, 0.0]
['beep', 0.0, -941.4554764575335, 0.0, 0.0, 0.0, 0.0, -1227.6695642077405, 0.0]
['beep', 0.0, -941.5448834353547, 0.0, 0.0, 0.0, 0.0, -1226.7531426850728, 0.0]
['beep', 0.0, -940.8072758683296, 0.0, 0.0, 0.0, 0.0, -1225.6579072067627, 0.0]
['beep', 0.0, -942.8412846137625, 0.0, 0.0, 0.0, 0.0, -1228.4295235192208, 0.0]
['beep', 0.0, -942.3718979802011, 0.0, 0.0, 0.0, 0.0, -1225.680258951218, 0.0]
['beep', 0.0, -943.310671247324, 0.0, 0.0, 0.0, 0.0, -1225.4790932511203, 0.0]
['beep', 0.0, -943.6682991586089, 0.0, 0.0, 0.0, 0.0, -1225.7696659290393, 0.0]
['beep', 0.0, -943.7130026475195, 0.0, 0.0, 0.0, 0.0, -1225.8143694179498, 0.0]
['beep', 0.0, -943.1765607805921, 0.0, 0.0, 0.0, 0.0, -1226.4849217516091, 0.0]
['beep', 0.0, -942.0589735578268, 0.0, 0.0, 0.0, 0.0, -1226.9319566407153, 0.0]
['beep', 0.0, -942.8412846137625, 0.0, 0.0, 0.0, 0.0, -1227.1107705963577, 0.0]
['beep', 0.0, -943.7353543919749, 0.0, 0.0, 0.0, 0.0, -1227.5131019965534, 0.0]
['beep', 0.0, -942.7071741470306, 0.0, 0.0, 0.0, 0.0, -1227.9154333967488, 0.0]
['beep', 0.0, -943.243616013958, 0.0, 0.0, 0.0, 0.0, -1226.9319566407153, 0.0]
['beep', 0.0, -942.5283601913882, 0.0, 0.0, 0.0, 0.0, -1227.133122340813, 0.0]
['beep', 0.0, -943.4671334585112, 0.0, 0.0, 0.0, 0.0, -1226.037886862503, 0.0]
['beep', 0.0, -942.7742293803966, 0.0, 0.0, 0.0, 0.0, -1224.9650031286483, 0.0]
['beep', 0.0, -942.9753950804943, 0.0, 0.0, 0.0, 0.0, -1226.3508112848774, 0.0]
['beep', 0.0, -944.0706305588044, 0.0, 0.0, 0.0, 0.0, -1226.5743287294304, 0.0]
['beep', 0.0, -943.6906509030642, 0.0, 0.0, 0.0, 0.0, -1226.842549662894, 0.0]
['beep', 0.0, -943.9365200920726, 0.0, 0.0, 0.0, 0.0, -1227.356639785366, 0.0]
['beep', 0.0, -944.2047410255362, 0.0, 0.0, 0.0, 0.0, -1226.8649014073494, 0.0]
['beep', 0.0, -943.1765607805921, 0.0, 0.0, 0.0, 0.0, -1225.5908519733969, 0.0]
['beep', 0.0, -942.2601392579245, 0.0, 0.0, 0.0, 0.0, -1224.6297269618187, 0.0]
['beep', 0.0, -942.7518776359412, 0.0, 0.0, 0.0, 0.0, -1224.6073752173634, 0.0]
['beep', 0.0, -942.9753950804943, 0.0, 0.0, 0.0, 0.0, -1225.9708316291371, 0.0]
['beep', 0.0, -943.8471131142513, 0.0, 0.0, 0.0, 0.0, -1226.9319566407153, 0.0]
['beep', 0.0, -942.729525891486, 0.0, 0.0, 0.0, 0.0, -1227.0437153629919, 0.0]
['beep', 0.0, -943.310671247324, 0.0, 0.0, 0.0, 0.0, -1225.903776395771, 0.0]
['beep', 0.0, -944.1600375366256, 0.0, 0.0, 0.0, 0.0, -1226.2167008181455, 0.0]
['beep', 0.0, -944.405906725634, 0.0, 0.0, 0.0, 0.0, -1226.2390525626008, 0.0]
['beep', 0.0, -944.5400171923659, 0.0, 0.0, 0.0, 0.0, -1226.3061077959667, 0.0]
['beep', 0.0, -943.6235956696983, 0.0, 0.0, 0.0, 0.0, -1226.328459540422, 0.0]
['beep', 0.0, -943.4671334585112, 0.0, 0.0, 0.0, 0.0, -1226.2614043070562, 0.0]
['beep', 0.0, -942.3718979802011, 0.0, 0.0, 0.0, 0.0, -1226.4625700071538, 0.0]
['beep', 0.0, -942.5060084469329, 0.0, 0.0, 0.0, 0.0, -1225.6355554623074, 0.0]
['beep', 0.0, -941.1202002907039, 0.0, 0.0, 0.0, 0.0, -1224.5626717284526, 0.0]
['beep', 0.0, -941.5225316908994, 0.0, 0.0, 0.0, 0.0, -1225.903776395771, 0.0]
['beep', 0.0, -942.6401189136648, 0.0, 0.0, 0.0, 0.0, -1225.1438170842907, 0.0]
['beep', 0.0, -942.9977468249497, 0.0, 0.0, 0.0, 0.0, -1225.0544101064695, 0.0]
['beep', 0.0, -942.5060084469329, 0.0, 0.0, 0.0, 0.0, -1224.7638374285505, 0.0]
['beep', 0.0, -942.4613049580223, 0.0, 0.0, 0.0, 0.0, -1225.456741506665, 0.0]
['beep', 0.0, -942.8412846137625, 0.0, 0.0, 0.0, 0.0, -1225.8143694179498, 0.0]
['beep', 0.0, -942.7071741470306, 0.0, 0.0, 0.0, 0.0, -1224.9650031286483, 0.0]
['beep', 0.0, -942.5954154247542, 0.0, 0.0, 0.0, 0.0, -1225.9708316291371, 0.0]
['beep', 0.0, -942.148380535648, 0.0, 0.0, 0.0, 0.0, -1225.1885205732012, 0.0]
['beep', 0.0, -942.8636363582178, 0.0, 0.0, 0.0, 0.0, -1225.456741506665, 0.0]
['beep', 0.0, -943.2212642695027, 0.0, 0.0, 0.0, 0.0, -1224.6744304507292, 0.0]
['beep', 0.0, -943.1095055472261, 0.0, 0.0, 0.0, 0.0, -1224.9650031286483, 0.0]
['beep', 0.0, -942.6177671692094, 0.0, 0.0, 0.0, 0.0, -1225.456741506665, 0.0]
['beep', 0.0, -944.6741276590977, 0.0, 0.0, 0.0, 0.0, -1224.3168025394443, 0.0]
['beep', 0.0, -945.6129009262206, 0.0, 0.0, 0.0, 0.0, -1225.8367211624052, 0.0]
['beep', 0.0, -944.2941480033575, 0.0, 0.0, 0.0, 0.0, -1227.9824886301146, 0.0]
['beep', 0.0, -944.1376857921704, 0.0, 0.0, 0.0, 0.0, -1225.9931833735923, 0.0]
['beep', 0.0, -942.66247065812, 0.0, 0.0, 0.0, 0.0, -1224.741485684095, 0.0]
['beep', 0.0, -945.0317555703826, 0.0, 0.0, 0.0, 0.0, -1225.0320583620141, 0.0]
['beep', 0.0, -944.0259270698938, 0.0, 0.0, 0.0, 0.0, -1224.4062095172656, 0.0]
['beep', 0.0, -943.1318572916815, 0.0, 0.0, 0.0, 0.0, -1225.1438170842907, 0.0]
['beep', 0.0, -944.5176654479105, 0.0, 0.0, 0.0, 0.0, -1226.3508112848774, 0.0]
['beep', 0.0, -944.2717962589022, 0.0, 0.0, 0.0, 0.0, -1226.3061077959667, 0.0]
['beep', 0.0, -943.1765607805921, 0.0, 0.0, 0.0, 0.0, -1225.233224062112, 0.0]
['beep', 0.0, -943.1542090361368, 0.0, 0.0, 0.0, 0.0, -1224.294450794989, 0.0]
['beep', 0.0, -943.1542090361368, 0.0, 0.0, 0.0, 0.0, -1225.5461484844861, 0.0]
['beep', 0.0, -943.4224299696006, 0.0, 0.0, 0.0, 0.0, -1225.4790932511203, 0.0]
['beep', 0.0, -942.8859881026731, 0.0, 0.0, 0.0, 0.0, -1224.4732647506314, 0.0]
['beep', 0.0, -942.8636363582178, 0.0, 0.0, 0.0, 0.0, -1224.2050438171677, 0.0]
['beep', 0.0, -941.8801596021843, 0.0, 0.0, 0.0, 0.0, -1224.4732647506314, 0.0]
['beep', 0.0, -939.600281667743, 0.0, 0.0, 0.0, 0.0, -1224.070933350436, 0.0]
['beep', 0.0, -938.8179706118073, 0.0, 0.0, 0.0, 0.0, -1223.2886222945003, 0.0]
['beep', 0.0, -937.923900833595, 0.0, 0.0, 0.0, 0.0, -1223.3109740389555, 0.0]
['beep', 0.0, -940.4943514459553, 0.0, 0.0, 0.0, 0.0, -1223.1768635722237, 0.0]
['beep', 0.0, -941.2096072685251, 0.0, 0.0, 0.0, 0.0, -1222.5286629830198, 0.0]
['beep', 0.0, -943.7353543919749, 0.0, 0.0, 0.0, 0.0, -1222.1710350717349, 0.0]
['beep', 0.0, -943.6459474141536, 0.0, 0.0, 0.0, 0.0, -1224.0262298615253, 0.0]
['beep', 0.0, -943.4894852029664, 0.0, 0.0, 0.0, 0.0, -1222.461607749654, 0.0]
['beep', 0.0, -945.3670317372122, 0.0, 0.0, 0.0, 0.0, -1224.942651384193, 0.0]
['beep', 0.0, -945.0764590592933, 0.0, 0.0, 0.0, 0.0, -1226.5072734960645, 0.0]
['beep', 0.0, -944.2047410255362, 0.0, 0.0, 0.0, 0.0, -1225.5908519733969, 0.0]
['beep', 0.0, -943.8918166031619, 0.0, 0.0, 0.0, 0.0, -1225.9261281402264, 0.0]
['beep', 0.0, -943.6459474141536, 0.0, 0.0, 0.0, 0.0, -1225.9708316291371, 0.0]
['beep', 0.0, -944.0035753254385, 0.0, 0.0, 0.0, 0.0, -1226.9319566407153, 0.0]
['beep', 0.0, -944.0259270698938, 0.0, 0.0, 0.0, 0.0, -1226.19434907369, 0.0]
['beep', 0.0, -943.1318572916815, 0.0, 0.0, 0.0, 0.0, -1226.8201979184387, 0.0]
['beep', 0.0, -941.6566421576313, 0.0, 0.0, 0.0, 0.0, -1227.1778258297236, 0.0]
['beep', 0.0, -942.2824910023799, 0.0, 0.0, 0.0, 0.0, -1226.4178665182433, 0.0]
['beep', 0.0, -942.66247065812, 0.0, 0.0, 0.0, 0.0, -1225.8143694179498, 0.0]
['beep', 0.0, -943.3777264806898, 0.0, 0.0, 0.0, 0.0, -1225.3673345288437, 0.0]
['beep', 0.0, -942.3942497246563, 0.0, 0.0, 0.0, 0.0, -1226.4178665182433, 0.0]
['beep', 0.0, -942.9530433360391, 0.0, 0.0, 0.0, 0.0, -1226.037886862503, 0.0]
['beep', 0.0, -942.7071741470306, 0.0, 0.0, 0.0, 0.0, -1225.6579072067627, 0.0]
['beep', 0.0, -943.2659677584134, 0.0, 0.0, 0.0, 0.0, -1226.395514773788, 0.0]
['beep', 0.0, -942.9306915915837, 0.0, 0.0, 0.0, 0.0, -1226.6413839627962, 0.0]
['beep', 0.0, -942.7071741470306, 0.0, 0.0, 0.0, 0.0, -1226.2167008181455, 0.0]
['beep', 0.0, -942.9306915915837, 0.0, 0.0, 0.0, 0.0, -1225.9708316291371, 0.0]
['beep', 0.0, -942.8859881026731, 0.0, 0.0, 0.0, 0.0, -1225.2555758065673, 0.0]
['beep', 0.0, -942.5060084469329, 0.0, 0.0, 0.0, 0.0, -1224.4509130061763, 0.0]
['beep', 0.0, -943.2212642695027, 0.0, 0.0, 0.0, 0.0, -1225.903776395771, 0.0]
['beep', 0.0, -943.601243925243, 0.0, 0.0, 0.0, 0.0, -1224.585023472908, 0.0]
['beep', 0.0, -943.5788921807876, 0.0, 0.0, 0.0, 0.0, -1225.0097066175588, 0.0]
['beep', 0.0, -942.8189328693072, 0.0, 0.0, 0.0, 0.0, -1226.1496455847796, 0.0]
['beep', 0.0, -943.5788921807876, 0.0, 0.0, 0.0, 0.0, -1224.5403199839975, 0.0]
['beep', 0.0, -942.9977468249497, 0.0, 0.0, 0.0, 0.0, -1224.1156368393465, 0.0]
['beep', 0.0, -943.2659677584134, 0.0, 0.0, 0.0, 0.0, -1226.0825903514137, 0.0]
['beep', 0.0, -943.8247613697961, 0.0, 0.0, 0.0, 0.0, -1225.5014449955756, 0.0]
['beep', 0.0, -943.2212642695027, 0.0, 0.0, 0.0, 0.0, -1226.6413839627962, 0.0]
['beep', 0.0, -944.0259270698938, 0.0, 0.0, 0.0, 0.0, -1227.200177574179, 0.0]
['beep', 0.0, -943.3553747362346, 0.0, 0.0, 0.0, 0.0, -1225.8143694179498, 0.0]
['beep', 0.0, -943.243616013958, 0.0, 0.0, 0.0, 0.0, -1225.8590729068605, 0.0]
['beep', 0.0, -943.9588718365279, 0.0, 0.0, 0.0, 0.0, -1226.5966804738857, 0.0]
['beep', 0.0, -942.9753950804943, 0.0, 0.0, 0.0, 0.0, -1227.6919159521958, 0.0]
['beep', 0.0, -943.4894852029664, 0.0, 0.0, 0.0, 0.0, -1227.6919159521958, 0.0]
['beep', 0.0, -943.601243925243, 0.0, 0.0, 0.0, 0.0, -1228.2283578191232, 0.0]
['beep', 0.0, -942.5954154247542, 0.0, 0.0, 0.0, 0.0, -1226.7978461739835, 0.0]
['beep', 0.0, -943.2659677584134, 0.0, 0.0, 0.0, 0.0, -1227.0437153629919, 0.0]
['beep', 0.0, -944.7411828924636, 0.0, 0.0, 0.0, 0.0, -1226.90960489626, 0.0]
['beep', 0.0, -943.0424503138603, 0.0, 0.0, 0.0, 0.0, -1225.5908519733969, 0.0]
['beep', 0.0, -942.5730636802988, 0.0, 0.0, 0.0, 0.0, -1227.0884188519024, 0.0]
['beep', 0.0, -942.438953213567, 0.0, 0.0, 0.0, 0.0, -1228.4295235192208, 0.0]
['beep', 0.0, -942.1036770467374, 0.0, 0.0, 0.0, 0.0, -1228.6977444526844, 0.0]
['beep', 0.0, -941.9472148355502, 0.0, 0.0, 0.0, 0.0, -1228.161302585757, 0.0]
['beep', 0.0, -942.1260287911927, 0.0, 0.0, 0.0, 0.0, -1228.9212618972376, 0.0]
['beep', 0.0, -942.5060084469329, 0.0, 0.0, 0.0, 0.0, -1227.5354537410085, 0.0]
['beep', 0.0, -942.0366218133714, 0.0, 0.0, 0.0, 0.0, -1225.2555758065673, 0.0]
['beep', 0.0, -942.3718979802011, 0.0, 0.0, 0.0, 0.0, -1225.5685002289415, 0.0]
['beep', 0.0, -942.2154357690139, 0.0, 0.0, 0.0, 0.0, -1226.7531426850728, 0.0]
['beep', 0.0, -941.5448834353547, 0.0, 0.0, 0.0, 0.0, -1225.523796740031, 0.0]
['beep', 0.0, -941.8354561132737, 0.0, 0.0, 0.0, 0.0, -1226.328459540422, 0.0]
['beep', 0.0, -941.1649037796145, 0.0, 0.0, 0.0, 0.0, -1226.3508112848774, 0.0]
['beep', 0.0, -942.0142700689162, 0.0, 0.0, 0.0, 0.0, -1228.0942473523912, 0.0]
['beep', 0.0, -942.438953213567, 0.0, 0.0, 0.0, 0.0, -1228.0718956079359, 0.0]
['beep', 0.0, -941.7236973909971, 0.0, 0.0, 0.0, 0.0, -1225.523796740031, 0.0]
['beep', 0.0, -941.5895869242653, 0.0, 0.0, 0.0, 0.0, -1227.490750252098, 0.0]
['beep', 0.0, -942.1707322801033, 0.0, 0.0, 0.0, 0.0, -1227.4236950187321, 0.0]
['beep', 0.0, -941.4778282019888, 0.0, 0.0, 0.0, 0.0, -1226.4625700071538, 0.0]
['beep', 0.0, -942.2824910023799, 0.0, 0.0, 0.0, 0.0, -1227.2672328075448, 0.0]
['beep', 0.0, -941.6119386687207, 0.0, 0.0, 0.0, 0.0, -1225.747314184584, 0.0]
['beep', 0.0, -941.7907526243631, 0.0, 0.0, 0.0, 0.0, -1225.2108723176566, 0.0]
['beep', 0.0, -940.8296276127849, 0.0, 0.0, 0.0, 0.0, -1226.7084391961623, 0.0]
['beep', 0.0, -941.1425520351592, 0.0, 0.0, 0.0, 0.0, -1226.4849217516091, 0.0]
['beep', 0.0, -942.3718979802011, 0.0, 0.0, 0.0, 0.0, -1226.5296252405199, 0.0]
['beep', 0.0, -943.1318572916815, 0.0, 0.0, 0.0, 0.0, -1227.0884188519024, 0.0]
['beep', 0.0, -943.9588718365279, 0.0, 0.0, 0.0, 0.0, -1225.903776395771, 0.0]
['beep', 0.0, -943.4894852029664, 0.0, 0.0, 0.0, 0.0, -1226.0825903514137, 0.0]
['beep', 0.0, -942.3718979802011, 0.0, 0.0, 0.0, 0.0, -1226.7084391961623, 0.0]
['beep', 0.0, -941.4778282019888, 0.0, 0.0, 0.0, 0.0, -1227.200177574179, 0.0]
['beep', 0.0, -941.7236973909971, 0.0, 0.0, 0.0, 0.0, -1227.4236950187321, 0.0]
['beep', 0.0, -943.1542090361368, 0.0, 0.0, 0.0, 0.0, -1226.8872531518048, 0.0]
['beep', 0.0, -942.66247065812, 0.0, 0.0, 0.0, 0.0, -1226.171997329235, 0.0]
['beep', 0.0, -942.081325302282, 0.0, 0.0, 0.0, 0.0, -1227.6248607188297, 0.0]
['beep', 0.0, -942.8412846137625, 0.0, 0.0, 0.0, 0.0, -1227.6919159521958, 0.0]
['beep', 0.0, -942.9530433360391, 0.0, 0.0, 0.0, 0.0, -1226.7754944295282, 0.0]
['beep', 0.0, -941.7684008799077, 0.0, 0.0, 0.0, 0.0, -1226.4849217516091, 0.0]
['beep', 0.0, -943.534188691877, 0.0, 0.0, 0.0, 0.0, -1227.5801572299192, 0.0]
['beep', 0.0, -942.4166014691117, 0.0, 0.0, 0.0, 0.0, -1226.976660129626, 0.0]
['beep', 0.0, -942.2601392579245, 0.0, 0.0, 0.0, 0.0, -1227.490750252098, 0.0]
['beep', 0.0, -943.7353543919749, 0.0, 0.0, 0.0, 0.0, -1227.4236950187321, 0.0]
['beep', 0.0, -942.8412846137625, 0.0, 0.0, 0.0, 0.0, -1227.490750252098, 0.0]
['beep', 0.0, -943.8471131142513, 0.0, 0.0, 0.0, 0.0, -1227.2448810630897, 0.0]
['beep', 0.0, -943.8471131142513, 0.0, 0.0, 0.0, 0.0, -1227.1554740852685, 0.0]
['beep', 0.0, -943.6682991586089, 0.0, 0.0, 0.0, 0.0, -1226.90960489626, 0.0]
['beep', 0.0, -943.2883195028686, 0.0, 0.0, 0.0, 0.0, -1225.456741506665, 0.0]
['beep', 0.0, -943.3777264806898, 0.0, 0.0, 0.0, 0.0, -1226.7978461739835, 0.0]
['beep', 0.0, -944.0482788143491, 0.0, 0.0, 0.0, 0.0, -1225.5014449955756, 0.0]
['beep', 0.0, -943.3777264806898, 0.0, 0.0, 0.0, 0.0, -1224.4062095172656, 0.0]
['beep', 0.0, -943.4447817140558, 0.0, 0.0, 0.0, 0.0, -1226.037886862503, 0.0]
['beep', 0.0, -943.2659677584134, 0.0, 0.0, 0.0, 0.0, -1226.1049420958689, 0.0]
['beep', 0.0, -943.5565404363324, 0.0, 0.0, 0.0, 0.0, -1224.6967821951846, 0.0]
['beep', 0.0, -943.534188691877, 0.0, 0.0, 0.0, 0.0, -1226.7084391961623, 0.0]
['beep', 0.0, -943.2883195028686, 0.0, 0.0, 0.0, 0.0, -1228.138950841302, 0.0]
['beep', 0.0, -944.2941480033575, 0.0, 0.0, 0.0, 0.0, -1227.2895845520002, 0.0]
['beep', 0.0, -944.3164997478128, 0.0, 0.0, 0.0, 0.0, -1224.875596150827, 0.0]
['beep', 0.0, -944.1600375366256, 0.0, 0.0, 0.0, 0.0, -1224.3391542838997, 0.0]
['beep', 0.0, -944.115334047715, 0.0, 0.0, 0.0, 0.0, -1225.5685002289415, 0.0]
['beep', 0.0, -943.7800578808855, 0.0, 0.0, 0.0, 0.0, -1226.90960489626, 0.0]
['beep', 0.0, -943.9365200920726, 0.0, 0.0, 0.0, 0.0, -1225.6579072067627, 0.0]
['beep', 0.0, -944.6294241701871, 0.0, 0.0, 0.0, 0.0, -1225.903776395771, 0.0]
['beep', 0.0, -944.7411828924636, 0.0, 0.0, 0.0, 0.0, -1226.5966804738857, 0.0]
['beep', 0.0, -944.0482788143491, 0.0, 0.0, 0.0, 0.0, -1225.7920176734947, 0.0]
['beep', 0.0, -945.3446799927569, 0.0, 0.0, 0.0, 0.0, -1226.3061077959667, 0.0]
['beep', 0.0, -944.5623689368211, 0.0, 0.0, 0.0, 0.0, -1225.4790932511203, 0.0]
['beep', 0.0, -944.8305898702848, 0.0, 0.0, 0.0, 0.0, -1225.747314184584, 0.0]
['beep', 0.0, -945.0094038259273, 0.0, 0.0, 0.0, 0.0, -1225.7920176734947, 0.0]
['beep', 0.0, -943.8024096253407, 0.0, 0.0, 0.0, 0.0, -1226.2390525626008, 0.0]
['beep', 0.0, -943.9365200920726, 0.0, 0.0, 0.0, 0.0, -1226.3061077959667, 0.0]
['beep', 0.0, -944.3164997478128, 0.0, 0.0, 0.0, 0.0, -1225.6132037178522, 0.0]
['beep', 0.0, -944.3835549811787, 0.0, 0.0, 0.0, 0.0, -1225.2555758065673, 0.0]
['beep', 0.0, -943.534188691877, 0.0, 0.0, 0.0, 0.0, -1224.8979478952824, 0.0]
['beep', 0.0, -944.3388514922681, 0.0, 0.0, 0.0, 0.0, -1225.9261281402264, 0.0]
['beep', 0.0, -945.1882177815697, 0.0, 0.0, 0.0, 0.0, -1226.2614043070562, 0.0]
['beep', 0.0, -945.5234939483994, 0.0, 0.0, 0.0, 0.0, -1225.747314184584, 0.0]
['beep', 0.0, -944.0482788143491, 0.0, 0.0, 0.0, 0.0, -1225.523796740031, 0.0]
['beep', 0.0, -945.1658660371145, 0.0, 0.0, 0.0, 0.0, -1224.0262298615253, 0.0]
['beep', 0.0, -945.9481770930502, 0.0, 0.0, 0.0, 0.0, -1223.4003810167767, 0.0]
['beep', 0.0, -945.1211625482039, 0.0, 0.0, 0.0, 0.0, -1225.3449827843885, 0.0]
['beep', 0.0, -945.1658660371145, 0.0, 0.0, 0.0, 0.0, -1224.741485684095, 0.0]
['beep', 0.0, -945.5234939483994, 0.0, 0.0, 0.0, 0.0, -1222.6404217052964, 0.0]
['beep', 0.0, -944.9423485925614, 0.0, 0.0, 0.0, 0.0, -1224.9202996397376, 0.0]
['beep', 0.0, -944.1600375366256, 0.0, 0.0, 0.0, 0.0, -1226.19434907369, 0.0]
['beep', 0.0, -944.2270927699916, 0.0, 0.0, 0.0, 0.0, -1226.686087451707, 0.0]
['beep', 0.0, -944.3612032367234, 0.0, 0.0, 0.0, 0.0, -1224.6744304507292, 0.0]
['beep', 0.0, -944.5623689368211, 0.0, 0.0, 0.0, 0.0, -1225.0544101064695, 0.0]
['beep', 0.0, -942.5060084469329, 0.0, 0.0, 0.0, 0.0, -1225.1885205732012, 0.0]
['beep', 0.0, -943.2212642695027, 0.0, 0.0, 0.0, 0.0, -1224.8532444063717, 0.0]
['beep', 0.0, -941.9919183244608, 0.0, 0.0, 0.0, 0.0, -1224.5179682395421, 0.0]
['beep', 0.0, -942.729525891486, 0.0, 0.0, 0.0, 0.0, -1226.7084391961623, 0.0]
['beep', 0.0, -942.5954154247542, 0.0, 0.0, 0.0, 0.0, -1227.9601368856595, 0.0]
['beep', 0.0, -941.7013456465419, 0.0, 0.0, 0.0, 0.0, -1226.4849217516091, 0.0]
['beep', 0.0, -943.601243925243, 0.0, 0.0, 0.0, 0.0, -1227.0213636185365, 0.0]
['beep', 0.0, -942.8859881026731, 0.0, 0.0, 0.0, 0.0, -1227.9377851412041, 0.0]
['beep', 0.0, -942.0589735578268, 0.0, 0.0, 0.0, 0.0, -1227.4236950187321, 0.0]
['beep', 0.0, -942.7742293803966, 0.0, 0.0, 0.0, 0.0, -1225.7249624401286, 0.0]
['beep', 0.0, -943.6682991586089, 0.0, 0.0, 0.0, 0.0, -1226.9990118740811, 0.0]
['beep', 0.0, -943.8471131142513, 0.0, 0.0, 0.0, 0.0, -1227.490750252098, 0.0]
['beep', 0.0, -943.9365200920726, 0.0, 0.0, 0.0, 0.0, -1227.5354537410085, 0.0]
['beep', 0.0, -944.5623689368211, 0.0, 0.0, 0.0, 0.0, -1227.9154333967488, 0.0]
['beep', 0.0, -943.9588718365279, 0.0, 0.0, 0.0, 0.0, -1227.0213636185365, 0.0]
['beep', 0.0, -944.0706305588044, 0.0, 0.0, 0.0, 0.0, -1226.3508112848774, 0.0]
['beep', 0.0, -945.1882177815697, 0.0, 0.0, 0.0, 0.0, -1226.686087451707, 0.0]
['beep', 0.0, -943.8471131142513, 0.0, 0.0, 0.0, 0.0, -1227.714267696651, 0.0]
['beep', 0.0, -944.0482788143491, 0.0, 0.0, 0.0, 0.0, -1228.0942473523912, 0.0]
['beep', 0.0, -945.2329212704803, 0.0, 0.0, 0.0, 0.0, -1227.7366194411063, 0.0]
['beep', 0.0, -944.696479403553, 0.0, 0.0, 0.0, 0.0, -1227.2225293186343, 0.0]
['beep', 0.0, -944.3835549811787, 0.0, 0.0, 0.0, 0.0, -1227.0437153629919, 0.0]
['beep', 0.0, -945.8587701152289, 0.0, 0.0, 0.0, 0.0, -1226.976660129626, 0.0]
['beep', 0.0, -944.3612032367234, 0.0, 0.0, 0.0, 0.0, -1225.4790932511203, 0.0]
['beep', 0.0, -943.4671334585112, 0.0, 0.0, 0.0, 0.0, -1225.1885205732012, 0.0]
['beep', 0.0, -945.2105695260251, 0.0, 0.0, 0.0, 0.0, -1227.0437153629919, 0.0]
['beep', 0.0, -944.4729619589999, 0.0, 0.0, 0.0, 0.0, -1227.5354537410085, 0.0]
['beep', 0.0, -943.9812235809832, 0.0, 0.0, 0.0, 0.0, -1228.2730613080337, 0.0]
['beep', 0.0, -942.9530433360391, 0.0, 0.0, 0.0, 0.0, -1228.943613641693, 0.0]
['beep', 0.0, -943.1318572916815, 0.0, 0.0, 0.0, 0.0, -1227.490750252098, 0.0]
['beep', 0.0, -943.2883195028686, 0.0, 0.0, 0.0, 0.0, -1226.5743287294304, 0.0]
['beep', 0.0, -942.6177671692094, 0.0, 0.0, 0.0, 0.0, -1226.2837560515113, 0.0]
['beep', 0.0, -943.3777264806898, 0.0, 0.0, 0.0, 0.0, -1226.7978461739835, 0.0]
['beep', 0.0, -942.3495462357457, 0.0, 0.0, 0.0, 0.0, -1227.4683985076426, 0.0]
['beep', 0.0, -941.9472148355502, 0.0, 0.0, 0.0, 0.0, -1227.4013432742768, 0.0]
['beep', 0.0, -942.2154357690139, 0.0, 0.0, 0.0, 0.0, -1226.7978461739835, 0.0]
['beep', 0.0, -942.2154357690139, 0.0, 0.0, 0.0, 0.0, -1226.5743287294304, 0.0]
['beep', 0.0, -943.4224299696006, 0.0, 0.0, 0.0, 0.0, -1225.5685002289415, 0.0]
['beep', 0.0, -942.6177671692094, 0.0, 0.0, 0.0, 0.0, -1227.3119362964555, 0.0]
['beep', 0.0, -942.8412846137625, 0.0, 0.0, 0.0, 0.0, -1228.4518752636761, 0.0]
['beep', 0.0, -943.9365200920726, 0.0, 0.0, 0.0, 0.0, -1228.6977444526844, 0.0]
['beep', 0.0, -943.6459474141536, 0.0, 0.0, 0.0, 0.0, -1227.9377851412041, 0.0]
['beep', 0.0, -943.9588718365279, 0.0, 0.0, 0.0, 0.0, -1226.9543083851706, 0.0]
['beep', 0.0, -943.4894852029664, 0.0, 0.0, 0.0, 0.0, -1226.4402182626986, 0.0]
['beep', 0.0, -942.1260287911927, 0.0, 0.0, 0.0, 0.0, -1226.4178665182433, 0.0]
['beep', 0.0, -942.729525891486, 0.0, 0.0, 0.0, 0.0, -1225.5685002289415, 0.0]
['beep', 0.0, -942.438953213567, 0.0, 0.0, 0.0, 0.0, -1225.8590729068605, 0.0]
['beep', 0.0, -942.7742293803966, 0.0, 0.0, 0.0, 0.0, -1225.3449827843885, 0.0]
['beep', 0.0, -941.7684008799077, 0.0, 0.0, 0.0, 0.0, -1224.6297269618187, 0.0]
['beep', 0.0, -942.3271944912905, 0.0, 0.0, 0.0, 0.0, -1226.7084391961623, 0.0]
['beep', 0.0, -942.1260287911927, 0.0, 0.0, 0.0, 0.0, -1225.7026106956735, 0.0]
['beep', 0.0, -942.8859881026731, 0.0, 0.0, 0.0, 0.0, -1226.7084391961623, 0.0]
['beep', 0.0, -943.5565404363324, 0.0, 0.0, 0.0, 0.0, -1227.3119362964555, 0.0]
['beep', 0.0, -942.5954154247542, 0.0, 0.0, 0.0, 0.0, -1226.4849217516091, 0.0]
['beep', 0.0, -942.5507119358435, 0.0, 0.0, 0.0, 0.0, -1225.903776395771, 0.0]
['beep', 0.0, -942.5730636802988, 0.0, 0.0, 0.0, 0.0, -1226.19434907369, 0.0]
['beep', 0.0, -942.1707322801033, 0.0, 0.0, 0.0, 0.0, -1226.5072734960645, 0.0]
['beep', 0.0, -942.438953213567, 0.0, 0.0, 0.0, 0.0, -1225.881424651316, 0.0]
['beep', 0.0, -942.3718979802011, 0.0, 0.0, 0.0, 0.0, -1225.1885205732012, 0.0]
['beep', 0.0, -941.2543107574357, 0.0, 0.0, 0.0, 0.0, -1224.9873548731036, 0.0]
['beep', 0.0, -942.7742293803966, 0.0, 0.0, 0.0, 0.0, -1225.8143694179498, 0.0]
['beep', 0.0, -942.1707322801033, 0.0, 0.0, 0.0, 0.0, -1225.680258951218, 0.0]
['beep', 0.0, -942.1260287911927, 0.0, 0.0, 0.0, 0.0, -1225.9261281402264, 0.0]
['beep', 0.0, -941.6119386687207, 0.0, 0.0, 0.0, 0.0, -1225.5685002289415, 0.0]
['beep', 0.0, -941.7684008799077, 0.0, 0.0, 0.0, 0.0, -1226.1496455847796, 0.0]
['beep', 0.0, -942.3495462357457, 0.0, 0.0, 0.0, 0.0, -1226.551976984975, 0.0]
['beep', 0.0, -943.1542090361368, 0.0, 0.0, 0.0, 0.0, -1225.3449827843885, 0.0]
['beep', 0.0, -943.1095055472261, 0.0, 0.0, 0.0, 0.0, -1225.903776395771, 0.0]
['beep', 0.0, -943.310671247324, 0.0, 0.0, 0.0, 0.0, -1225.4120380177544, 0.0]
['beep', 0.0, -943.5565404363324, 0.0, 0.0, 0.0, 0.0, -1226.4625700071538, 0.0]
['beep', 0.0, -944.6070724257318, 0.0, 0.0, 0.0, 0.0, -1226.6413839627962, 0.0]
['beep', 0.0, -943.4671334585112, 0.0, 0.0, 0.0, 0.0, -1227.8707299078383, 0.0]
['beep', 0.0, -941.9919183244608, 0.0, 0.0, 0.0, 0.0, -1228.6083374748632, 0.0]
['beep', 0.0, -942.5283601913882, 0.0, 0.0, 0.0, 0.0, -1226.976660129626, 0.0]
['beep', 0.0, -941.6342904131759, 0.0, 0.0, 0.0, 0.0, -1225.5685002289415, 0.0]
['beep', 0.0, -939.9802613234832, 0.0, 0.0, 0.0, 0.0, -1223.8027124169723, 0.0]
['beep', 0.0, -938.1250665336927, 0.0, 0.0, 0.0, 0.0, -1224.3391542838997, 0.0]
['beep', 0.0, -937.4545142000335, 0.0, 0.0, 0.0, 0.0, -1225.2555758065673, 0.0]
['beep', 0.0, -938.7956188673519, 0.0, 0.0, 0.0, 0.0, -1225.456741506665, 0.0]
['beep', 0.0, -941.2990142463464, 0.0, 0.0, 0.0, 0.0, -1225.747314184584, 0.0]
['beep', 0.0, -943.0200985694049, 0.0, 0.0, 0.0, 0.0, -1225.1885205732012, 0.0]
['beep', 0.0, -944.0482788143491, 0.0, 0.0, 0.0, 0.0, -1225.5685002289415, 0.0]
['beep', 0.0, -944.4953137034553, 0.0, 0.0, 0.0, 0.0, -1227.7366194411063, 0.0]
['beep', 0.0, -943.601243925243, 0.0, 0.0, 0.0, 0.0, -1228.4295235192208, 0.0]
['beep', 0.0, -942.3271944912905, 0.0, 0.0, 0.0, 0.0, -1226.686087451707, 0.0]
['beep', 0.0, -943.0424503138603, 0.0, 0.0, 0.0, 0.0, -1224.9650031286483, 0.0]
['beep', 0.0, -943.3330229917792, 0.0, 0.0, 0.0, 0.0, -1226.5966804738857, 0.0]
['beep', 0.0, -943.4447817140558, 0.0, 0.0, 0.0, 0.0, -1226.5743287294304, 0.0]
['beep', 0.0, -942.1707322801033, 0.0, 0.0, 0.0, 0.0, -1225.5014449955756, 0.0]
['beep', 0.0, -941.3660694797122, 0.0, 0.0, 0.0, 0.0, -1226.2390525626008, 0.0]
['beep', 0.0, -943.2883195028686, 0.0, 0.0, 0.0, 0.0, -1227.1107705963577, 0.0]
['beep', 0.0, -943.4671334585112, 0.0, 0.0, 0.0, 0.0, -1227.490750252098, 0.0]
['beep', 0.0, -943.2212642695027, 0.0, 0.0, 0.0, 0.0, -1228.7200961971398, 0.0]
['beep', 0.0, -943.2659677584134, 0.0, 0.0, 0.0, 0.0, -1228.0942473523912, 0.0]
['beep', 0.0, -942.2601392579245, 0.0, 0.0, 0.0, 0.0, -1226.5966804738857, 0.0]
['beep', 0.0, -941.7236973909971, 0.0, 0.0, 0.0, 0.0, -1225.9261281402264, 0.0]
['beep', 0.0, -942.66247065812, 0.0, 0.0, 0.0, 0.0, -1226.1049420958689, 0.0]
['beep', 0.0, -941.5001799464441, 0.0, 0.0, 0.0, 0.0, -1227.5578054854639, 0.0]
['beep', 0.0, -943.1989125250474, 0.0, 0.0, 0.0, 0.0, -1228.5412822414974, 0.0]
['beep', 0.0, -943.1095055472261, 0.0, 0.0, 0.0, 0.0, -1227.490750252098, 0.0]
['beep', 0.0, -942.3718979802011, 0.0, 0.0, 0.0, 0.0, -1228.00484037457, 0.0]
['beep', 0.0, -942.9083398471284, 0.0, 0.0, 0.0, 0.0, -1227.848378163383, 0.0]
['beep', 0.0, -943.6235956696983, 0.0, 0.0, 0.0, 0.0, -1229.4130002752543, 0.0]
['beep', 0.0, -944.0259270698938, 0.0, 0.0, 0.0, 0.0, -1228.518930497042, 0.0]
['beep', 0.0, -942.5730636802988, 0.0, 0.0, 0.0, 0.0, -1228.138950841302, 0.0]
['beep', 0.0, -942.729525891486, 0.0, 0.0, 0.0, 0.0, -1229.4130002752543, 0.0]
['beep', 0.0, -942.3942497246563, 0.0, 0.0, 0.0, 0.0, -1229.0777241084247, 0.0]
['beep', 0.0, -943.0200985694049, 0.0, 0.0, 0.0, 0.0, -1229.1894828307013, 0.0]
['beep', 0.0, -942.3718979802011, 0.0, 0.0, 0.0, 0.0, -1229.5471107419862, 0.0]
['beep', 0.0, -944.0035753254385, 0.0, 0.0, 0.0, 0.0, -1229.9941456310924, 0.0]
['beep', 0.0, -943.7353543919749, 0.0, 0.0, 0.0, 0.0, -1230.038849120003, 0.0]
['beep', 0.0, -943.3777264806898, 0.0, 0.0, 0.0, 0.0, -1229.81533167545, 0.0]
['beep', 0.0, -943.3553747362346, 0.0, 0.0, 0.0, 0.0, -1227.848378163383, 0.0]
['beep', 0.0, -944.115334047715, 0.0, 0.0, 0.0, 0.0, -1228.4965787525869, 0.0]
['beep', 0.0, -945.5234939483994, 0.0, 0.0, 0.0, 0.0, -1228.0495438634807, 0.0]
['beep', 0.0, -945.6129009262206, 0.0, 0.0, 0.0, 0.0, -1228.5636339859527, 0.0]
['beep', 0.0, -944.4953137034553, 0.0, 0.0, 0.0, 0.0, -1229.3906485307991, 0.0]
['beep', 0.0, -943.9141683476173, 0.0, 0.0, 0.0, 0.0, -1229.1447793417906, 0.0]
['beep', 0.0, -944.3835549811787, 0.0, 0.0, 0.0, 0.0, -1227.6025089743746, 0.0]
['beep', 0.0, -944.3835549811787, 0.0, 0.0, 0.0, 0.0, -1228.585985730408, 0.0]
['beep', 0.0, -943.8918166031619, 0.0, 0.0, 0.0, 0.0, -1229.81533167545, 0.0]
['beep', 0.0, -944.0706305588044, 0.0, 0.0, 0.0, 0.0, -1229.0553723639694, 0.0]
['beep', 0.0, -943.5565404363324, 0.0, 0.0, 0.0, 0.0, -1228.4071717747656, 0.0]
['beep', 0.0, -945.9705288375055, 0.0, 0.0, 0.0, 0.0, -1228.9212618972376, 0.0]
['beep', 0.0, -945.1435142926591, 0.0, 0.0, 0.0, 0.0, -1230.4411805201985, 0.0]
['beep', 0.0, -944.2270927699916, 0.0, 0.0, 0.0, 0.0, -1229.1447793417906, 0.0]
['beep', 0.0, -943.4000782251452, 0.0, 0.0, 0.0, 0.0, -1227.200177574179, 0.0]
['beep', 0.0, -944.405906725634, 0.0, 0.0, 0.0, 0.0, -1228.9883171306035, 0.0]
['beep', 0.0, -942.9306915915837, 0.0, 0.0, 0.0, 0.0, -1229.6588694642628, 0.0]
['beep', 0.0, -941.9472148355502, 0.0, 0.0, 0.0, 0.0, -1228.6977444526844, 0.0]
['beep', 0.0, -943.5118369474218, 0.0, 0.0, 0.0, 0.0, -1228.138950841302, 0.0]
['beep', 0.0, -942.438953213567, 0.0, 0.0, 0.0, 0.0, -1228.2507095635783, 0.0]
['beep', 0.0, -941.6566421576313, 0.0, 0.0, 0.0, 0.0, -1227.2448810630897, 0.0]
['beep', 0.0, -942.1707322801033, 0.0, 0.0, 0.0, 0.0, -1226.8649014073494, 0.0]
['beep', 0.0, -942.5283601913882, 0.0, 0.0, 0.0, 0.0, -1229.5918142308967, 0.0]
['beep', 0.0, -941.6566421576313, 0.0, 0.0, 0.0, 0.0, -1230.105904353369, 0.0]
['beep', 0.0, -940.9413863350615, 0.0, 0.0, 0.0, 0.0, -1229.7929799309945, 0.0]
['beep', 0.0, -942.0589735578268, 0.0, 0.0, 0.0, 0.0, -1230.396477031288, 0.0]
['beep', 0.0, -941.8131043688184, 0.0, 0.0, 0.0, 0.0, -1229.323593297433, 0.0]
['beep', 0.0, -941.2990142463464, 0.0, 0.0, 0.0, 0.0, -1227.6248607188297, 0.0]
['beep', 0.0, -941.0978485462485, 0.0, 0.0, 0.0, 0.0, -1228.5636339859527, 0.0]
['beep', 0.0, -942.4166014691117, 0.0, 0.0, 0.0, 0.0, -1229.4800555086204, 0.0]
['beep', 0.0, -943.2659677584134, 0.0, 0.0, 0.0, 0.0, -1229.7035729531733, 0.0]
['beep', 0.0, -944.4506102145447, 0.0, 0.0, 0.0, 0.0, -1230.038849120003, 0.0]
['beep', 0.0, -945.0764590592933, 0.0, 0.0, 0.0, 0.0, -1229.5918142308967, 0.0]
['beep', 0.0, -944.8976451036508, 0.0, 0.0, 0.0, 0.0, -1229.7929799309945, 0.0]
['beep', 0.0, -943.5565404363324, 0.0, 0.0, 0.0, 0.0, -1230.4858840091092, 0.0]
['beep', 0.0, -944.3835549811787, 0.0, 0.0, 0.0, 0.0, -1229.9494421421816, 0.0]
['beep', 0.0, -945.0541073148379, 0.0, 0.0, 0.0, 0.0, -1230.1729595867348, 0.0]
['beep', 0.0, -944.2494445144469, 0.0, 0.0, 0.0, 0.0, -1230.4858840091092, 0.0]
['beep', 0.0, -944.7411828924636, 0.0, 0.0, 0.0, 0.0, -1229.5694624864416, 0.0]
['beep', 0.0, -943.6906509030642, 0.0, 0.0, 0.0, 0.0, -1230.0612008644582, 0.0]
['beep', 0.0, -945.1882177815697, 0.0, 0.0, 0.0, 0.0, -1228.8542066638718, 0.0]
['beep', 0.0, -945.3223282483016, 0.0, 0.0, 0.0, 0.0, -1228.2507095635783, 0.0]
['beep', 0.0, -944.6741276590977, 0.0, 0.0, 0.0, 0.0, -1227.8930816522934, 0.0]
['beep', 0.0, -944.182389281081, 0.0, 0.0, 0.0, 0.0, -1228.0942473523912, 0.0]
['beep', 0.0, -944.7858863813742, 0.0, 0.0, 0.0, 0.0, -1228.9883171306035, 0.0]
['beep', 0.0, -944.0482788143491, 0.0, 0.0, 0.0, 0.0, -1228.7647996860505, 0.0]
['beep', 0.0, -943.2883195028686, 0.0, 0.0, 0.0, 0.0, -1229.5694624864416, 0.0]
['beep', 0.0, -943.5118369474218, 0.0, 0.0, 0.0, 0.0, -1229.7929799309945, 0.0]
['beep', 0.0, -942.9530433360391, 0.0, 0.0, 0.0, 0.0, -1230.038849120003, 0.0]
['beep', 0.0, -943.1542090361368, 0.0, 0.0, 0.0, 0.0, -1229.10007585288, 0.0]
['beep', 0.0, -942.3271944912905, 0.0, 0.0, 0.0, 0.0, -1228.4965787525869, 0.0]
['beep', 0.0, -942.3048427468351, 0.0, 0.0, 0.0, 0.0, -1229.3682967863438, 0.0]
['beep', 0.0, -942.4166014691117, 0.0, 0.0, 0.0, 0.0, -1229.2118345751567, 0.0]
['beep', 0.0, -941.8131043688184, 0.0, 0.0, 0.0, 0.0, -1229.1894828307013, 0.0]
['beep', 0.0, -941.4107729686228, 0.0, 0.0, 0.0, 0.0, -1228.8989101527823, 0.0]
['beep', 0.0, -941.9472148355502, 0.0, 0.0, 0.0, 0.0, -1228.3848200303103, 0.0]
['beep', 0.0, -942.729525891486, 0.0, 0.0, 0.0, 0.0, -1228.9212618972376, 0.0]
['beep', 0.0, -942.0142700689162, 0.0, 0.0, 0.0, 0.0, -1228.653040963774, 0.0]
['beep', 0.0, -942.5954154247542, 0.0, 0.0, 0.0, 0.0, -1229.2788898085225, 0.0]
['beep', 0.0, -942.9977468249497, 0.0, 0.0, 0.0, 0.0, -1229.2565380640672, 0.0]
['beep', 0.0, -942.729525891486, 0.0, 0.0, 0.0, 0.0, -1228.585985730408, 0.0]
['beep', 0.0, -943.9588718365279, 0.0, 0.0, 0.0, 0.0, -1227.3119362964555, 0.0]
['beep', 0.0, -943.6682991586089, 0.0, 0.0, 0.0, 0.0, -1227.490750252098, 0.0]
['beep', 0.0, -942.729525891486, 0.0, 0.0, 0.0, 0.0, -1228.362468285855, 0.0]
['beep', 0.0, -943.3777264806898, 0.0, 0.0, 0.0, 0.0, -1228.8318549194164, 0.0]
['beep', 0.0, -943.7130026475195, 0.0, 0.0, 0.0, 0.0, -1228.6083374748632, 0.0]
['beep', 0.0, -943.2883195028686, 0.0, 0.0, 0.0, 0.0, -1228.6083374748632, 0.0]
['beep', 0.0, -943.5118369474218, 0.0, 0.0, 0.0, 0.0, -1230.0164973755477, 0.0]
['beep', 0.0, -943.9588718365279, 0.0, 0.0, 0.0, 0.0, -1229.81533167545, 0.0]
['beep', 0.0, -943.8247613697961, 0.0, 0.0, 0.0, 0.0, -1228.161302585757, 0.0]
['beep', 0.0, -943.4447817140558, 0.0, 0.0, 0.0, 0.0, -1229.0106688750589, 0.0]
['beep', 0.0, -941.2543107574357, 0.0, 0.0, 0.0, 0.0, -1229.2118345751567, 0.0]
['beep', 0.0, -941.276662501891, 0.0, 0.0, 0.0, 0.0, -1228.2730613080337, 0.0]
['beep', 0.0, -944.0929823032598, 0.0, 0.0, 0.0, 0.0, -1230.2176630756455, 0.0]
['beep', 0.0, -942.9753950804943, 0.0, 0.0, 0.0, 0.0, -1229.3459450418884, 0.0]
['beep', 0.0, -943.0648020583155, 0.0, 0.0, 0.0, 0.0, -1227.9601368856595, 0.0]
['beep', 0.0, -943.2883195028686, 0.0, 0.0, 0.0, 0.0, -1228.6753927082293, 0.0]
['beep', 0.0, -943.310671247324, 0.0, 0.0, 0.0, 0.0, -1227.5801572299192, 0.0]
['beep', 0.0, -944.696479403553, 0.0, 0.0, 0.0, 0.0, -1228.0718956079359, 0.0]
['beep', 0.0, -945.2999765038463, 0.0, 0.0, 0.0, 0.0, -1228.653040963774, 0.0]
['beep', 0.0, -944.7411828924636, 0.0, 0.0, 0.0, 0.0, -1228.1836543302124, 0.0]
['beep', 0.0, -945.2552730149357, 0.0, 0.0, 0.0, 0.0, -1227.848378163383, 0.0]
['beep', 0.0, -943.8471131142513, 0.0, 0.0, 0.0, 0.0, -1228.5636339859527, 0.0]
['beep', 0.0, -942.9530433360391, 0.0, 0.0, 0.0, 0.0, -1227.8260264189275, 0.0]
['beep', 0.0, -943.1542090361368, 0.0, 0.0, 0.0, 0.0, -1228.518930497042, 0.0]
['beep', 0.0, -943.7800578808855, 0.0, 0.0, 0.0, 0.0, -1229.10007585288, 0.0]
['beep', 0.0, -943.1542090361368, 0.0, 0.0, 0.0, 0.0, -1228.6083374748632, 0.0]
['beep', 0.0, -943.3777264806898, 0.0, 0.0, 0.0, 0.0, -1228.0271921190254, 0.0]
['beep', 0.0, -942.8859881026731, 0.0, 0.0, 0.0, 0.0, -1226.3061077959667, 0.0]
['beep', 0.0, -943.0424503138603, 0.0, 0.0, 0.0, 0.0, -1228.0495438634807, 0.0]
['beep', 0.0, -942.0142700689162, 0.0, 0.0, 0.0, 0.0, -1227.2225293186343, 0.0]
['beep', 0.0, -942.2154357690139, 0.0, 0.0, 0.0, 0.0, -1228.876558408327, 0.0]
['beep', 0.0, -942.2154357690139, 0.0, 0.0, 0.0, 0.0, -1229.614165975352, 0.0]
['beep', 0.0, -942.1036770467374, 0.0, 0.0, 0.0, 0.0, -1227.7589711855617, 0.0]
['beep', 0.0, -941.4778282019888, 0.0, 0.0, 0.0, 0.0, -1227.0437153629919, 0.0]
['beep', 0.0, -941.8801596021843, 0.0, 0.0, 0.0, 0.0, -1226.976660129626, 0.0]
['beep', 0.0, -941.8354561132737, 0.0, 0.0, 0.0, 0.0, -1227.9377851412041, 0.0]
['beep', 0.0, -942.5730636802988, 0.0, 0.0, 0.0, 0.0, -1228.653040963774, 0.0]
['beep', 0.0, -942.7071741470306, 0.0, 0.0, 0.0, 0.0, -1228.518930497042, 0.0]
['beep', 0.0, -941.9919183244608, 0.0, 0.0, 0.0, 0.0, -1228.362468285855, 0.0]
['beep', 0.0, -941.5895869242653, 0.0, 0.0, 0.0, 0.0, -1227.9154333967488, 0.0]
['beep', 0.0, -941.4778282019888, 0.0, 0.0, 0.0, 0.0, -1227.9824886301146, 0.0]
['beep', 0.0, -942.7071741470306, 0.0, 0.0, 0.0, 0.0, -1228.0942473523912, 0.0]
['beep', 0.0, -943.2659677584134, 0.0, 0.0, 0.0, 0.0, -1227.8036746744722, 0.0]
['beep', 0.0, -942.5954154247542, 0.0, 0.0, 0.0, 0.0, -1228.0271921190254, 0.0]
['beep', 0.0, -943.5788921807876, 0.0, 0.0, 0.0, 0.0, -1229.3459450418884, 0.0]
['beep', 0.0, -943.7353543919749, 0.0, 0.0, 0.0, 0.0, -1229.3906485307991, 0.0]
['beep', 0.0, -943.1765607805921, 0.0, 0.0, 0.0, 0.0, -1228.6977444526844, 0.0]
['beep', 0.0, -943.5788921807876, 0.0, 0.0, 0.0, 0.0, -1229.8600351643604, 0.0]
['beep', 0.0, -944.7858863813742, 0.0, 0.0, 0.0, 0.0, -1228.9883171306035, 0.0]
['beep', 0.0, -944.8305898702848, 0.0, 0.0, 0.0, 0.0, -1228.876558408327, 0.0]
['beep', 0.0, -943.6682991586089, 0.0, 0.0, 0.0, 0.0, -1229.3459450418884, 0.0]
['beep', 0.0, -944.7858863813742, 0.0, 0.0, 0.0, 0.0, -1230.5752909869304, 0.0]
['beep', 0.0, -944.7858863813742, 0.0, 0.0, 0.0, 0.0, -1230.5082357535643, 0.0]
['beep', 0.0, -943.8918166031619, 0.0, 0.0, 0.0, 0.0, -1230.7317531981175, 0.0]
['beep', 0.0, -945.0764590592933, 0.0, 0.0, 0.0, 0.0, -1230.1506078422794, 0.0]
['beep', 0.0, -944.5847206812765, 0.0, 0.0, 0.0, 0.0, -1229.7035729531733, 0.0]
['beep', 0.0, -944.4506102145447, 0.0, 0.0, 0.0, 0.0, -1229.301241552978, 0.0]
['beep', 0.0, -945.0317555703826, 0.0, 0.0, 0.0, 0.0, -1229.2565380640672, 0.0]
['beep', 0.0, -945.1882177815697, 0.0, 0.0, 0.0, 0.0, -1229.5024072530755, 0.0]
['beep', 0.0, -946.082287559782, 0.0, 0.0, 0.0, 0.0, -1229.0330206195142, 0.0]
['beep', 0.0, -944.405906725634, 0.0, 0.0, 0.0, 0.0, -1229.7035729531733, 0.0]
['beep', 0.0, -944.1600375366256, 0.0, 0.0, 0.0, 0.0, -1231.0223258760366, 0.0]
['beep', 0.0, -945.2329212704803, 0.0, 0.0, 0.0, 0.0, -1229.7035729531733, 0.0]
['beep', 0.0, -944.5623689368211, 0.0, 0.0, 0.0, 0.0, -1230.0612008644582, 0.0]
['beep', 0.0, -945.5234939483994, 0.0, 0.0, 0.0, 0.0, -1230.5976427313856, 0.0]
['beep', 0.0, -945.1211625482039, 0.0, 0.0, 0.0, 0.0, -1229.9941456310924, 0.0]
['beep', 0.0, -944.7411828924636, 0.0, 0.0, 0.0, 0.0, -1229.9494421421816, 0.0]
['beep', 0.0, -944.405906725634, 0.0, 0.0, 0.0, 0.0, -1229.10007585288, 0.0]
['beep', 0.0, -945.56819743731, 0.0, 0.0, 0.0, 0.0, -1229.8376834199053, 0.0]
['beep', 0.0, -944.8752933591954, 0.0, 0.0, 0.0, 0.0, -1229.0777241084247, 0.0]
['beep', 0.0, -944.3612032367234, 0.0, 0.0, 0.0, 0.0, -1227.4013432742768, 0.0]
['beep', 0.0, -945.6352526706759, 0.0, 0.0, 0.0, 0.0, -1227.714267696651, 0.0]
['beep', 0.0, -945.6129009262206, 0.0, 0.0, 0.0, 0.0, -1228.943613641693, 0.0]
['beep', 0.0, -944.3164997478128, 0.0, 0.0, 0.0, 0.0, -1229.3682967863438, 0.0]
['beep', 0.0, -943.8471131142513, 0.0, 0.0, 0.0, 0.0, -1228.7871514305057, 0.0]
['beep', 0.0, -944.2717962589022, 0.0, 0.0, 0.0, 0.0, -1228.9883171306035, 0.0]
['beep', 0.0, -944.0482788143491, 0.0, 0.0, 0.0, 0.0, -1229.10007585288, 0.0]
['beep', 0.0, -944.4729619589999, 0.0, 0.0, 0.0, 0.0, -1228.161302585757, 0.0]
['beep', 0.0, -945.0764590592933, 0.0, 0.0, 0.0, 0.0, -1226.976660129626, 0.0]
['beep', 0.0, -945.0988108037485, 0.0, 0.0, 0.0, 0.0, -1228.1836543302124, 0.0]
['beep', 0.0, -944.5623689368211, 0.0, 0.0, 0.0, 0.0, -1230.105904353369, 0.0]
['beep', 0.0, -945.3893834816676, 0.0, 0.0, 0.0, 0.0, -1229.10007585288, 0.0]
['beep', 0.0, -946.0599358153268, 0.0, 0.0, 0.0, 0.0, -1229.7259246976287, 0.0]
['beep', 0.0, -945.5234939483994, 0.0, 0.0, 0.0, 0.0, -1229.10007585288, 0.0]
['beep', 0.0, -945.2552730149357, 0.0, 0.0, 0.0, 0.0, -1228.9883171306035, 0.0]
['beep', 0.0, -945.1658660371145, 0.0, 0.0, 0.0, 0.0, -1228.809503174961, 0.0]
['beep', 0.0, -945.56819743731, 0.0, 0.0, 0.0, 0.0, -1226.842549662894, 0.0]
['beep', 0.0, -945.4340869705782, 0.0, 0.0, 0.0, 0.0, -1226.6413839627962, 0.0]
['beep', 0.0, -945.5458456928546, 0.0, 0.0, 0.0, 0.0, -1227.5354537410085, 0.0]
['beep', 0.0, -946.3058050043351, 0.0, 0.0, 0.0, 0.0, -1227.1107705963577, 0.0]
['beep', 0.0, -945.501142203944, 0.0, 0.0, 0.0, 0.0, -1228.6083374748632, 0.0]
['beep', 0.0, -946.3952119821563, 0.0, 0.0, 0.0, 0.0, -1228.9212618972376, 0.0]
['beep', 0.0, -946.0152323264161, 0.0, 0.0, 0.0, 0.0, -1227.5131019965534, 0.0]
['beep', 0.0, -944.9423485925614, 0.0, 0.0, 0.0, 0.0, -1227.200177574179, 0.0]
['beep', 0.0, -945.7470113929525, 0.0, 0.0, 0.0, 0.0, -1225.456741506665, 0.0]
['beep', 0.0, -944.7188311480083, 0.0, 0.0, 0.0, 0.0, -1225.5461484844861, 0.0]
['beep', 0.0, -944.6070724257318, 0.0, 0.0, 0.0, 0.0, -1226.9319566407153, 0.0]
['beep', 0.0, -945.2105695260251, 0.0, 0.0, 0.0, 0.0, -1226.7978461739835, 0.0]
['beep', 0.0, -944.2941480033575, 0.0, 0.0, 0.0, 0.0, -1226.619032218341, 0.0]
['beep', 0.0, -943.8024096253407, 0.0, 0.0, 0.0, 0.0, -1226.976660129626, 0.0]
['beep', 0.0, -944.0035753254385, 0.0, 0.0, 0.0, 0.0, -1226.5743287294304, 0.0]
['beep', 0.0, -944.6294241701871, 0.0, 0.0, 0.0, 0.0, -1226.4178665182433, 0.0]
['beep', 0.0, -946.372860237701, 0.0, 0.0, 0.0, 0.0, -1226.5072734960645, 0.0]
['beep', 0.0, -945.8587701152289, 0.0, 0.0, 0.0, 0.0, -1226.7084391961623, 0.0]
['beep', 0.0, -945.9034736041395, 0.0, 0.0, 0.0, 0.0, -1226.2390525626008, 0.0]
['beep', 0.0, -945.4564387150334, 0.0, 0.0, 0.0, 0.0, -1228.0718956079359, 0.0]
['beep', 0.0, -945.4564387150334, 0.0, 0.0, 0.0, 0.0, -1228.362468285855, 0.0]
['beep', 0.0, -946.7751916378966, 0.0, 0.0, 0.0, 0.0, -1227.1554740852685, 0.0]
['beep', 0.0, -946.0152323264161, 0.0, 0.0, 0.0, 0.0, -1227.8260264189275, 0.0]
['beep', 0.0, -944.763534636919, 0.0, 0.0, 0.0, 0.0, -1227.0213636185365, 0.0]
['beep', 0.0, -946.1940462820586, 0.0, 0.0, 0.0, 0.0, -1228.00484037457, 0.0]
['beep', 0.0, -947.3563369937345, 0.0, 0.0, 0.0, 0.0, -1228.6083374748632, 0.0]
['beep', 0.0, -945.9034736041395, 0.0, 0.0, 0.0, 0.0, -1228.4965787525869, 0.0]
['beep', 0.0, -945.5905491817653, 0.0, 0.0, 0.0, 0.0, -1228.8318549194164, 0.0]
['beep', 0.0, -946.1716945376032, 0.0, 0.0, 0.0, 0.0, -1229.5024072530755, 0.0]
['beep', 0.0, -946.0599358153268, 0.0, 0.0, 0.0, 0.0, -1229.0777241084247, 0.0]
['beep', 0.0, -945.7470113929525, 0.0, 0.0, 0.0, 0.0, -1228.3401165413995, 0.0]
['beep', 0.0, -944.2494445144469, 0.0, 0.0, 0.0, 0.0, -1228.2060060746678, 0.0]
['beep', 0.0, -943.2659677584134, 0.0, 0.0, 0.0, 0.0, -1228.0718956079359, 0.0]
['beep', 0.0, -940.4943514459553, 0.0, 0.0, 0.0, 0.0, -1228.0495438634807, 0.0]
['beep', 0.0, -939.3767642231899, 0.0, 0.0, 0.0, 0.0, -1227.356639785366, 0.0]
['beep', 0.0, -940.6061101682318, 0.0, 0.0, 0.0, 0.0, -1226.551976984975, 0.0]
['beep', 0.0, -941.6119386687207, 0.0, 0.0, 0.0, 0.0, -1225.9708316291371, 0.0]
['beep', 0.0, -943.5788921807876, 0.0, 0.0, 0.0, 0.0, -1226.0825903514137, 0.0]
['beep', 0.0, -945.2552730149357, 0.0, 0.0, 0.0, 0.0, -1227.3119362964555, 0.0]
['beep', 0.0, -946.1940462820586, 0.0, 0.0, 0.0, 0.0, -1226.8649014073494, 0.0]
['beep', 0.0, -946.1269910486926, 0.0, 0.0, 0.0, 0.0, -1228.876558408327, 0.0]
['beep', 0.0, -947.3563369937345, 0.0, 0.0, 0.0, 0.0, -1228.943613641693, 0.0]
['beep', 0.0, -948.5856829387765, 0.0, 0.0, 0.0, 0.0, -1227.781322930017, 0.0]
['beep', 0.0, -946.730488148986, 0.0, 0.0, 0.0, 0.0, -1227.8260264189275, 0.0]
['beep', 0.0, -945.7246596484971, 0.0, 0.0, 0.0, 0.0, -1227.6025089743746, 0.0]
['beep', 0.0, -945.6799561595865, 0.0, 0.0, 0.0, 0.0, -1228.1836543302124, 0.0]
['beep', 0.0, -946.1716945376032, 0.0, 0.0, 0.0, 0.0, -1228.0718956079359, 0.0]
['beep', 0.0, -945.3893834816676, 0.0, 0.0, 0.0, 0.0, -1226.5966804738857, 0.0]
['beep', 0.0, -946.3505084932457, 0.0, 0.0, 0.0, 0.0, -1227.334288040911, 0.0]
['beep', 0.0, -944.8082381258296, 0.0, 0.0, 0.0, 0.0, -1227.9377851412041, 0.0]
['beep', 0.0, -946.5293224488881, 0.0, 0.0, 0.0, 0.0, -1231.067029364947, 0.0]
['beep', 0.0, -946.4622672155223, 0.0, 0.0, 0.0, 0.0, -1230.552939242475, 0.0]
['beep', 0.0, -945.6576044151312, 0.0, 0.0, 0.0, 0.0, -1228.585985730408, 0.0]
['beep', 0.0, -946.0375840708714, 0.0, 0.0, 0.0, 0.0, -1228.2730613080337, 0.0]
['beep', 0.0, -946.3281567487904, 0.0, 0.0, 0.0, 0.0, -1227.356639785366, 0.0]
['beep', 0.0, -944.8305898702848, 0.0, 0.0, 0.0, 0.0, -1227.9154333967488, 0.0]
['beep', 0.0, -947.0657643158155, 0.0, 0.0, 0.0, 0.0, -1227.0213636185365, 0.0]
['beep', 0.0, -948.8092003833295, 0.0, 0.0, 0.0, 0.0, -1228.0271921190254, 0.0]
['beep', 0.0, -946.4399154710669, 0.0, 0.0, 0.0, 0.0, -1227.7366194411063, 0.0]
['beep', 0.0, -944.7188311480083, 0.0, 0.0, 0.0, 0.0, -1226.2390525626008, 0.0]
['beep', 0.0, -945.501142203944, 0.0, 0.0, 0.0, 0.0, -1226.5072734960645, 0.0]
['beep', 0.0, -945.6352526706759, 0.0, 0.0, 0.0, 0.0, -1225.6355554623074, 0.0]
['beep', 0.0, -946.0152323264161, 0.0, 0.0, 0.0, 0.0, -1227.5131019965534, 0.0]
['beep', 0.0, -944.8082381258296, 0.0, 0.0, 0.0, 0.0, -1226.7307909406175, 0.0]
['beep', 0.0, -945.9705288375055, 0.0, 0.0, 0.0, 0.0, -1227.490750252098, 0.0]
['beep', 0.0, -945.0094038259273, 0.0, 0.0, 0.0, 0.0, -1229.3459450418884, 0.0]
['beep', 0.0, -945.277624759391, 0.0, 0.0, 0.0, 0.0, -1224.6744304507292, 0.0]
['beep', 0.0, -945.0988108037485, 0.0, 0.0, 0.0, 0.0, -1225.9708316291371, 0.0]
['beep', 0.0, -945.3893834816676, 0.0, 0.0, 0.0, 0.0, -1227.5354537410085, 0.0]
['beep', 0.0, -943.6682991586089, 0.0, 0.0, 0.0, 0.0, -1225.09911359538, 0.0]
['beep', 0.0, -944.2047410255362, 0.0, 0.0, 0.0, 0.0, -1225.7920176734947, 0.0]
['beep', 0.0, -945.5458456928546, 0.0, 0.0, 0.0, 0.0, -1227.2448810630897, 0.0]
['beep', 0.0, -945.1882177815697, 0.0, 0.0, 0.0, 0.0, -1228.0942473523912, 0.0]
['beep', 0.0, -944.8305898702848, 0.0, 0.0, 0.0, 0.0, -1227.6919159521958, 0.0]
['beep', 0.0, -944.696479403553, 0.0, 0.0, 0.0, 0.0, -1228.4295235192208, 0.0]
['beep', 0.0, -945.0541073148379, 0.0, 0.0, 0.0, 0.0, -1227.5131019965534, 0.0]
['beep', 0.0, -945.1882177815697, 0.0, 0.0, 0.0, 0.0, -1227.8930816522934, 0.0]
['beep', 0.0, -944.5847206812765, 0.0, 0.0, 0.0, 0.0, -1226.4625700071538, 0.0]
['beep', 0.0, -944.2717962589022, 0.0, 0.0, 0.0, 0.0, -1226.395514773788, 0.0]
['beep', 0.0, -944.5623689368211, 0.0, 0.0, 0.0, 0.0, -1227.2895845520002, 0.0]
['beep', 0.0, -945.4564387150334, 0.0, 0.0, 0.0, 0.0, -1228.4295235192208, 0.0]
['beep', 0.0, -944.6741276590977, 0.0, 0.0, 0.0, 0.0, -1228.9659653861481, 0.0]
['beep', 0.0, -944.6294241701871, 0.0, 0.0, 0.0, 0.0, -1229.3682967863438, 0.0]
['beep', 0.0, -944.0482788143491, 0.0, 0.0, 0.0, 0.0, -1227.6248607188297, 0.0]
['beep', 0.0, -944.1600375366256, 0.0, 0.0, 0.0, 0.0, -1228.0942473523912, 0.0]
['beep', 0.0, -942.9306915915837, 0.0, 0.0, 0.0, 0.0, -1227.9601368856595, 0.0]
['beep', 0.0, -941.9025113466396, 0.0, 0.0, 0.0, 0.0, -1227.0884188519024, 0.0]
['beep', 0.0, -943.1542090361368, 0.0, 0.0, 0.0, 0.0, -1226.8872531518048, 0.0]
['beep', 0.0, -943.0424503138603, 0.0, 0.0, 0.0, 0.0, -1227.8260264189275, 0.0]
['beep', 0.0, -942.4613049580223, 0.0, 0.0, 0.0, 0.0, -1229.3459450418884, 0.0]
['beep', 0.0, -943.5788921807876, 0.0, 0.0, 0.0, 0.0, -1229.9494421421816, 0.0]
['beep', 0.0, -944.9647003370167, 0.0, 0.0, 0.0, 0.0, -1229.9941456310924, 0.0]
['beep', 0.0, -944.0035753254385, 0.0, 0.0, 0.0, 0.0, -1228.9659653861481, 0.0]
['beep', 0.0, -943.8471131142513, 0.0, 0.0, 0.0, 0.0, -1228.4742270081315, 0.0]
['beep', 0.0, -943.6459474141536, 0.0, 0.0, 0.0, 0.0, -1228.3848200303103, 0.0]
['beep', 0.0, -942.0366218133714, 0.0, 0.0, 0.0, 0.0, -1228.876558408327, 0.0]
['beep', 0.0, -943.3777264806898, 0.0, 0.0, 0.0, 0.0, -1228.6083374748632, 0.0]
['beep', 0.0, -944.4506102145447, 0.0, 0.0, 0.0, 0.0, -1227.9824886301146, 0.0]
['beep', 0.0, -943.0648020583155, 0.0, 0.0, 0.0, 0.0, -1227.5801572299192, 0.0]
['beep', 0.0, -943.5788921807876, 0.0, 0.0, 0.0, 0.0, -1227.7589711855617, 0.0]
['beep', 0.0, -944.5847206812765, 0.0, 0.0, 0.0, 0.0, -1230.1729595867348, 0.0]
['beep', 0.0, -944.7188311480083, 0.0, 0.0, 0.0, 0.0, -1230.262366564556, 0.0]
['beep', 0.0, -945.0094038259273, 0.0, 0.0, 0.0, 0.0, -1229.1447793417906, 0.0]
['beep', 0.0, -945.6799561595865, 0.0, 0.0, 0.0, 0.0, -1229.971793886637, 0.0]
['beep', 0.0, -945.5458456928546, 0.0, 0.0, 0.0, 0.0, -1229.323593297433, 0.0]
['beep', 0.0, -945.4787904594888, 0.0, 0.0, 0.0, 0.0, -1228.2507095635783, 0.0]
['beep', 0.0, -945.0541073148379, 0.0, 0.0, 0.0, 0.0, -1228.4742270081315, 0.0]
['beep', 0.0, -945.0988108037485, 0.0, 0.0, 0.0, 0.0, -1228.4965787525869, 0.0]
['beep', 0.0, -944.3164997478128, 0.0, 0.0, 0.0, 0.0, -1229.4353520197096, 0.0]
['beep', 0.0, -945.4564387150334, 0.0, 0.0, 0.0, 0.0, -1230.9999741315812, 0.0]
['beep', 0.0, -945.6352526706759, 0.0, 0.0, 0.0, 0.0, -1230.7094014536622, 0.0]
['beep', 0.0, -946.1716945376032, 0.0, 0.0, 0.0, 0.0, -1229.8823869088158, 0.0]
['beep', 0.0, -946.2611015154245, 0.0, 0.0, 0.0, 0.0, -1230.552939242475, 0.0]
['beep', 0.0, -945.56819743731, 0.0, 0.0, 0.0, 0.0, -1230.8658636648493, 0.0]
['beep', 0.0, -946.082287559782, 0.0, 0.0, 0.0, 0.0, -1230.1506078422794, 0.0]
['beep', 0.0, -945.5458456928546, 0.0, 0.0, 0.0, 0.0, -1229.81533167545, 0.0]
['beep', 0.0, -945.4787904594888, 0.0, 0.0, 0.0, 0.0, -1231.938747398704, 0.0]
['beep', 0.0, -945.9034736041395, 0.0, 0.0, 0.0, 0.0, -1232.296375309989, 0.0]
['beep', 0.0, -945.6799561595865, 0.0, 0.0, 0.0, 0.0, -1230.776456687028, 0.0]
['beep', 0.0, -945.1211625482039, 0.0, 0.0, 0.0, 0.0, -1229.81533167545, 0.0]
['beep', 0.0, -945.5234939483994, 0.0, 0.0, 0.0, 0.0, -1230.4858840091092, 0.0]
['beep', 0.0, -945.6799561595865, 0.0, 0.0, 0.0, 0.0, -1231.7375816986064, 0.0]
['beep', 0.0, -945.0764590592933, 0.0, 0.0, 0.0, 0.0, -1230.6423462202963, 0.0]
['beep', 0.0, -946.149342793148, 0.0, 0.0, 0.0, 0.0, -1229.681221208718, 0.0]
['beep', 0.0, -944.7411828924636, 0.0, 0.0, 0.0, 0.0, -1231.558767742964, 0.0]
['beep', 0.0, -944.4953137034553, 0.0, 0.0, 0.0, 0.0, -1231.1787880872237, 0.0]
['beep', 0.0, -944.8529416147402, 0.0, 0.0, 0.0, 0.0, -1229.5471107419862, 0.0]
['beep', 0.0, -945.9928805819608, 0.0, 0.0, 0.0, 0.0, -1231.067029364947, 0.0]
['beep', 0.0, -944.8305898702848, 0.0, 0.0, 0.0, 0.0, -1229.7706281865392, 0.0]
['beep', 0.0, -946.5293224488881, 0.0, 0.0, 0.0, 0.0, -1230.2847183090114, 0.0]
['beep', 0.0, -947.7363166494748, 0.0, 0.0, 0.0, 0.0, -1230.2176630756455, 0.0]
['beep', 0.0, -946.730488148986, 0.0, 0.0, 0.0, 0.0, -1230.2176630756455, 0.0]
['beep', 0.0, -946.4175637266117, 0.0, 0.0, 0.0, 0.0, -1230.9552706426705, 0.0]
['beep', 0.0, -945.6576044151312, 0.0, 0.0, 0.0, 0.0, -1231.8046369319723, 0.0]
['beep', 0.0, -945.9928805819608, 0.0, 0.0, 0.0, 0.0, -1231.938747398704, 0.0]
['beep', 0.0, -945.9928805819608, 0.0, 0.0, 0.0, 0.0, -1230.9552706426705, 0.0]
['beep', 0.0, -945.4787904594888, 0.0, 0.0, 0.0, 0.0, -1230.5752909869304, 0.0]
['beep', 0.0, -945.5234939483994, 0.0, 0.0, 0.0, 0.0, -1231.6481747207852, 0.0]
['beep', 0.0, -945.2552730149357, 0.0, 0.0, 0.0, 0.0, -1231.4693607651427, 0.0]
['beep', 0.0, -946.5069707044329, 0.0, 0.0, 0.0, 0.0, -1229.3906485307991, 0.0]
['beep', 0.0, -945.7246596484971, 0.0, 0.0, 0.0, 0.0, -1231.581119487419, 0.0]
['beep', 0.0, -945.9928805819608, 0.0, 0.0, 0.0, 0.0, -1233.2127968326565, 0.0]
['beep', 0.0, -945.1882177815697, 0.0, 0.0, 0.0, 0.0, -1233.168093343746, 0.0]
['beep', 0.0, -945.3446799927569, 0.0, 0.0, 0.0, 0.0, -1230.776456687028, 0.0]
['beep', 0.0, -945.8587701152289, 0.0, 0.0, 0.0, 0.0, -1230.3070700534668, 0.0]
['beep', 0.0, -946.0375840708714, 0.0, 0.0, 0.0, 0.0, -1229.0330206195142, 0.0]
['beep', 0.0, -945.6129009262206, 0.0, 0.0, 0.0, 0.0, -1229.2118345751567, 0.0]
['beep', 0.0, -945.56819743731, 0.0, 0.0, 0.0, 0.0, -1229.9270903977265, 0.0]
['beep', 0.0, -945.5905491817653, 0.0, 0.0, 0.0, 0.0, -1230.4635322646538, 0.0]
['beep', 0.0, -944.919996848106, 0.0, 0.0, 0.0, 0.0, -1230.3741252868326, 0.0]
['beep', 0.0, -944.2717962589022, 0.0, 0.0, 0.0, 0.0, -1229.5024072530755, 0.0]
['beep', 0.0, -943.8918166031619, 0.0, 0.0, 0.0, 0.0, -1228.9883171306035, 0.0]
['beep', 0.0, -943.6235956696983, 0.0, 0.0, 0.0, 0.0, -1228.5412822414974, 0.0]
['beep', 0.0, -945.9481770930502, 0.0, 0.0, 0.0, 0.0, -1228.876558408327, 0.0]
['beep', 0.0, -946.5293224488881, 0.0, 0.0, 0.0, 0.0, -1229.2118345751567, 0.0]
['beep', 0.0, -945.0541073148379, 0.0, 0.0, 0.0, 0.0, -1230.262366564556, 0.0]
['beep', 0.0, -945.7693631374077, 0.0, 0.0, 0.0, 0.0, -1230.1729595867348, 0.0]
['beep', 0.0, -945.9928805819608, 0.0, 0.0, 0.0, 0.0, -1228.3401165413995, 0.0]
['beep', 0.0, -946.0599358153268, 0.0, 0.0, 0.0, 0.0, -1229.0777241084247, 0.0]
['beep', 0.0, -945.4340869705782, 0.0, 0.0, 0.0, 0.0, -1230.105904353369, 0.0]
['beep', 0.0, -945.9481770930502, 0.0, 0.0, 0.0, 0.0, -1228.2060060746678, 0.0]
['beep', 0.0, -945.501142203944, 0.0, 0.0, 0.0, 0.0, -1229.2565380640672, 0.0]
['beep', 0.0, -944.919996848106, 0.0, 0.0, 0.0, 0.0, -1230.0835526089136, 0.0]
['beep', 0.0, -944.4953137034553, 0.0, 0.0, 0.0, 0.0, -1229.4353520197096, 0.0]
['beep', 0.0, -943.534188691877, 0.0, 0.0, 0.0, 0.0, -1230.3741252868326, 0.0]
['beep', 0.0, -944.5176654479105, 0.0, 0.0, 0.0, 0.0, -1230.6870497092068, 0.0]
['beep', 0.0, -944.8082381258296, 0.0, 0.0, 0.0, 0.0, -1229.4800555086204, 0.0]
['beep', 0.0, -945.3446799927569, 0.0, 0.0, 0.0, 0.0, -1229.6588694642628, 0.0]
['beep', 0.0, -945.5458456928546, 0.0, 0.0, 0.0, 0.0, -1229.6365177198074, 0.0]
['beep', 0.0, -944.9647003370167, 0.0, 0.0, 0.0, 0.0, -1230.776456687028, 0.0]
['beep', 0.0, -944.2941480033575, 0.0, 0.0, 0.0, 0.0, -1231.3352502984108, 0.0]
['beep', 0.0, -945.0988108037485, 0.0, 0.0, 0.0, 0.0, -1232.1846165877125, 0.0]
['beep', 0.0, -946.0599358153268, 0.0, 0.0, 0.0, 0.0, -1231.0223258760366, 0.0]
['beep', 0.0, -945.6129009262206, 0.0, 0.0, 0.0, 0.0, -1229.0330206195142, 0.0]
['beep', 0.0, -946.5740259377988, 0.0, 0.0, 0.0, 0.0, -1228.3177647969444, 0.0]
['beep', 0.0, -947.4457439715558, 0.0, 0.0, 0.0, 0.0, -1229.3459450418884, 0.0]
['beep', 0.0, -946.0152323264161, 0.0, 0.0, 0.0, 0.0, -1228.809503174961, 0.0]
['beep', 0.0, -945.9705288375055, 0.0, 0.0, 0.0, 0.0, -1229.0553723639694, 0.0]
['beep', 0.0, -945.7470113929525, 0.0, 0.0, 0.0, 0.0, -1229.5471107419862, 0.0]
['beep', 0.0, -945.56819743731, 0.0, 0.0, 0.0, 0.0, -1229.2118345751567, 0.0]
['beep', 0.0, -945.3893834816676, 0.0, 0.0, 0.0, 0.0, -1229.2118345751567, 0.0]
['beep', 0.0, -945.0317555703826, 0.0, 0.0, 0.0, 0.0, -1229.0330206195142, 0.0]
['beep', 0.0, -945.8140666263183, 0.0, 0.0, 0.0, 0.0, -1229.6588694642628, 0.0]
['beep', 0.0, -944.987052081472, 0.0, 0.0, 0.0, 0.0, -1228.6083374748632, 0.0]
['beep', 0.0, -945.8587701152289, 0.0, 0.0, 0.0, 0.0, -1228.3848200303103, 0.0]
['beep', 0.0, -946.1716945376032, 0.0, 0.0, 0.0, 0.0, -1229.301241552978, 0.0]
['beep', 0.0, -944.3835549811787, 0.0, 0.0, 0.0, 0.0, -1230.5082357535643, 0.0]
['beep', 0.0, -945.0764590592933, 0.0, 0.0, 0.0, 0.0, -1230.8211601759388, 0.0]
['beep', 0.0, -944.405906725634, 0.0, 0.0, 0.0, 0.0, -1230.1506078422794, 0.0]
['beep', 0.0, -944.6294241701871, 0.0, 0.0, 0.0, 0.0, -1229.9941456310924, 0.0]
['beep', 0.0, -945.277624759391, 0.0, 0.0, 0.0, 0.0, -1230.2176630756455, 0.0]
['beep', 0.0, -944.763534636919, 0.0, 0.0, 0.0, 0.0, -1228.6083374748632, 0.0]
['beep', 0.0, -945.7023079040418, 0.0, 0.0, 0.0, 0.0, -1230.3517735423773, 0.0]
['beep', 0.0, -946.0599358153268, 0.0, 0.0, 0.0, 0.0, -1229.5471107419862, 0.0]
['beep', 0.0, -945.9481770930502, 0.0, 0.0, 0.0, 0.0, -1229.614165975352, 0.0]
['beep', 0.0, -945.7917148818631, 0.0, 0.0, 0.0, 0.0, -1230.3517735423773, 0.0]
['beep', 0.0, -945.1658660371145, 0.0, 0.0, 0.0, 0.0, -1229.971793886637, 0.0]
['beep', 0.0, -945.9034736041395, 0.0, 0.0, 0.0, 0.0, -1229.5918142308967, 0.0]
['beep', 0.0, -946.1269910486926, 0.0, 0.0, 0.0, 0.0, -1228.585985730408, 0.0]
['beep', 0.0, -946.2387497709692, 0.0, 0.0, 0.0, 0.0, -1229.1447793417906, 0.0]
['beep', 0.0, -945.9481770930502, 0.0, 0.0, 0.0, 0.0, -1229.457703764165, 0.0]
['beep', 0.0, -945.9705288375055, 0.0, 0.0, 0.0, 0.0, -1229.681221208718, 0.0]
['beep', 0.0, -946.6187294267094, 0.0, 0.0, 0.0, 0.0, -1231.5140642540532, 0.0]
['beep', 0.0, -946.2611015154245, 0.0, 0.0, 0.0, 0.0, -1230.9999741315812, 0.0]
['beep', 0.0, -946.3505084932457, 0.0, 0.0, 0.0, 0.0, -1231.6034712318744, 0.0]
['beep', 0.0, -946.4175637266117, 0.0, 0.0, 0.0, 0.0, -1230.776456687028, 0.0]
['beep', 0.0, -945.7693631374077, 0.0, 0.0, 0.0, 0.0, -1231.3799537873215, 0.0]
['beep', 0.0, -945.9481770930502, 0.0, 0.0, 0.0, 0.0, -1230.4411805201985, 0.0]
['beep', 0.0, -946.2163980265138, 0.0, 0.0, 0.0, 0.0, -1229.6365177198074, 0.0]
['beep', 0.0, -945.9258253485949, 0.0, 0.0, 0.0, 0.0, -1230.5752909869304, 0.0]
['beep', 0.0, -946.3952119821563, 0.0, 0.0, 0.0, 0.0, -1230.6423462202963, 0.0]
['beep', 0.0, -945.8587701152289, 0.0, 0.0, 0.0, 0.0, -1229.4353520197096, 0.0]
['beep', 0.0, -945.0317555703826, 0.0, 0.0, 0.0, 0.0, -1230.776456687028, 0.0]
['beep', 0.0, -945.277624759391, 0.0, 0.0, 0.0, 0.0, -1230.9552706426705, 0.0]
['beep', 0.0, -944.405906725634, 0.0, 0.0, 0.0, 0.0, -1229.9941456310924, 0.0]
['beep', 0.0, -945.4787904594888, 0.0, 0.0, 0.0, 0.0, -1231.1787880872237, 0.0]
['beep', 0.0, -945.7023079040418, 0.0, 0.0, 0.0, 0.0, -1231.7375816986064, 0.0]
['beep', 0.0, -945.9258253485949, 0.0, 0.0, 0.0, 0.0, -1231.2458433205895, 0.0]
['beep', 0.0, -946.3952119821563, 0.0, 0.0, 0.0, 0.0, -1230.5305874980197, 0.0]
['beep', 0.0, -946.886950360173, 0.0, 0.0, 0.0, 0.0, -1230.7317531981175, 0.0]
['beep', 0.0, -947.1775230380921, 0.0, 0.0, 0.0, 0.0, -1230.4858840091092, 0.0]
['beep', 0.0, -947.4457439715558, 0.0, 0.0, 0.0, 0.0, -1231.2905468095003, 0.0]
['beep', 0.0, -947.1775230380921, 0.0, 0.0, 0.0, 0.0, -1232.9669276436482, 0.0]
['beep', 0.0, -945.1211625482039, 0.0, 0.0, 0.0, 0.0, -1231.6258229763298, 0.0]
['beep', 0.0, -944.4506102145447, 0.0, 0.0, 0.0, 0.0, -1230.2847183090114, 0.0]
['beep', 0.0, -944.5623689368211, 0.0, 0.0, 0.0, 0.0, -1229.7035729531733, 0.0]
['beep', 0.0, -946.082287559782, 0.0, 0.0, 0.0, 0.0, -1229.9941456310924, 0.0]
['beep', 0.0, -945.6129009262206, 0.0, 0.0, 0.0, 0.0, -1229.8600351643604, 0.0]
['beep', 0.0, -944.6070724257318, 0.0, 0.0, 0.0, 0.0, -1230.6870497092068, 0.0]
['beep', 0.0, -944.9423485925614, 0.0, 0.0, 0.0, 0.0, -1231.1117328538578, 0.0]
['beep', 0.0, -946.1269910486926, 0.0, 0.0, 0.0, 0.0, -1232.0952096098913, 0.0]
['beep', 0.0, -945.2999765038463, 0.0, 0.0, 0.0, 0.0, -1232.072857865436, 0.0]
['beep', 0.0, -945.1658660371145, 0.0, 0.0, 0.0, 0.0, -1231.0223258760366, 0.0]
['beep', 0.0, -945.56819743731, 0.0, 0.0, 0.0, 0.0, -1230.9999741315812, 0.0]
['beep', 0.0, -946.8198951268072, 0.0, 0.0, 0.0, 0.0, -1231.715229954151, 0.0]
['beep', 0.0, -946.6857846600753, 0.0, 0.0, 0.0, 0.0, -1232.743410199095, 0.0]
['beep', 0.0, -947.4233922271005, 0.0, 0.0, 0.0, 0.0, -1231.1564363427683, 0.0]
['beep', 0.0, -947.535150949377, 0.0, 0.0, 0.0, 0.0, -1231.268195065045, 0.0]
['beep', 0.0, -946.2611015154245, 0.0, 0.0, 0.0, 0.0, -1233.3022038104777, 0.0]
['beep', 0.0, -944.4953137034553, 0.0, 0.0, 0.0, 0.0, -1232.6092997323633, 0.0]
['beep', 0.0, -943.1095055472261, 0.0, 0.0, 0.0, 0.0, -1231.2458433205895, 0.0]
['beep', 0.0, -942.9083398471284, 0.0, 0.0, 0.0, 0.0, -1230.8658636648493, 0.0]
['beep', 0.0, -941.5895869242653, 0.0, 0.0, 0.0, 0.0, -1229.6588694642628, 0.0]
['beep', 0.0, -940.762572379419, 0.0, 0.0, 0.0, 0.0, -1230.038849120003, 0.0]
['beep', 0.0, -942.9530433360391, 0.0, 0.0, 0.0, 0.0, -1229.9494421421816, 0.0]
['beep', 0.0, -944.2047410255362, 0.0, 0.0, 0.0, 0.0, -1230.038849120003, 0.0]
['beep', 0.0, -945.4340869705782, 0.0, 0.0, 0.0, 0.0, -1230.7988084314834, 0.0]
['beep', 0.0, -947.244578271458, 0.0, 0.0, 0.0, 0.0, -1230.038849120003, 0.0]
['beep', 0.0, -946.1716945376032, 0.0, 0.0, 0.0, 0.0, -1229.9494421421816, 0.0]
['beep', 0.0, -946.7975433823518, 0.0, 0.0, 0.0, 0.0, -1230.6870497092068, 0.0]
['beep', 0.0, -947.1998747825473, 0.0, 0.0, 0.0, 0.0, -1230.6423462202963, 0.0]
['beep', 0.0, -946.2163980265138, 0.0, 0.0, 0.0, 0.0, -1229.971793886637, 0.0]
['beep', 0.0, -946.6410811711647, 0.0, 0.0, 0.0, 0.0, -1230.6646979647517, 0.0]
['beep', 0.0, -944.5176654479105, 0.0, 0.0, 0.0, 0.0, -1230.105904353369, 0.0]
['beep', 0.0, -946.1716945376032, 0.0, 0.0, 0.0, 0.0, -1230.8658636648493, 0.0]
['beep', 0.0, -946.4622672155223, 0.0, 0.0, 0.0, 0.0, -1232.1399130988018, 0.0]
['beep', 0.0, -944.8529416147402, 0.0, 0.0, 0.0, 0.0, -1232.519892754542, 0.0]
['beep', 0.0, -944.7411828924636, 0.0, 0.0, 0.0, 0.0, -1231.9834508876147, 0.0]
['beep', 0.0, -944.7411828924636, 0.0, 0.0, 0.0, 0.0, -1231.3128985539554, 0.0]
['beep', 0.0, -944.2717962589022, 0.0, 0.0, 0.0, 0.0, -1230.6646979647517, 0.0]
['beep', 0.0, -944.6294241701871, 0.0, 0.0, 0.0, 0.0, -1232.586947987908, 0.0]
['beep', 0.0, -944.3388514922681, 0.0, 0.0, 0.0, 0.0, -1232.0505061209806, 0.0]
['beep', 0.0, -943.5118369474218, 0.0, 0.0, 0.0, 0.0, -1231.8493404208828, 0.0]
['beep', 0.0, -944.1600375366256, 0.0, 0.0, 0.0, 0.0, -1231.9610991431593, 0.0]
['beep', 0.0, -944.4282584700893, 0.0, 0.0, 0.0, 0.0, -1232.5422444989974, 0.0]
['beep', 0.0, -945.0541073148379, 0.0, 0.0, 0.0, 0.0, -1231.1787880872237, 0.0]
['beep', 0.0, -944.6070724257318, 0.0, 0.0, 0.0, 0.0, -1230.5305874980197, 0.0]
['beep', 0.0, -943.7800578808855, 0.0, 0.0, 0.0, 0.0, -1231.1564363427683, 0.0]
['beep', 0.0, -943.9588718365279, 0.0, 0.0, 0.0, 0.0, -1230.9329188982153, 0.0]
['beep', 0.0, -944.8752933591954, 0.0, 0.0, 0.0, 0.0, -1230.9552706426705, 0.0]
['beep', 0.0, -944.2270927699916, 0.0, 0.0, 0.0, 0.0, -1231.067029364947, 0.0]
['beep', 0.0, -944.405906725634, 0.0, 0.0, 0.0, 0.0, -1230.4858840091092, 0.0]
['beep', 0.0, -944.919996848106, 0.0, 0.0, 0.0, 0.0, -1231.715229954151, 0.0]
['beep', 0.0, -945.9034736041395, 0.0, 0.0, 0.0, 0.0, -1231.3352502984108, 0.0]
['beep', 0.0, -945.8587701152289, 0.0, 0.0, 0.0, 0.0, -1229.7035729531733, 0.0]
['beep', 0.0, -945.6352526706759, 0.0, 0.0, 0.0, 0.0, -1230.1506078422794, 0.0]
['beep', 0.0, -945.1435142926591, 0.0, 0.0, 0.0, 0.0, -1230.5082357535643, 0.0]
['beep', 0.0, -945.6352526706759, 0.0, 0.0, 0.0, 0.0, -1231.1787880872237, 0.0]
['beep', 0.0, -945.4564387150334, 0.0, 0.0, 0.0, 0.0, -1231.715229954151, 0.0]
['beep', 0.0, -945.1435142926591, 0.0, 0.0, 0.0, 0.0, -1231.2905468095003, 0.0]
['beep', 0.0, -944.4953137034553, 0.0, 0.0, 0.0, 0.0, -1232.00580263207, 0.0]
['beep', 0.0, -944.6741276590977, 0.0, 0.0, 0.0, 0.0, -1231.5140642540532, 0.0]
['beep', 0.0, -944.8529416147402, 0.0, 0.0, 0.0, 0.0, -1232.00580263207, 0.0]
['beep', 0.0, -943.9141683476173, 0.0, 0.0, 0.0, 0.0, -1231.7375816986064, 0.0]
['beep', 0.0, -942.9977468249497, 0.0, 0.0, 0.0, 0.0, -1231.9610991431593, 0.0]
['beep', 0.0, -944.4953137034553, 0.0, 0.0, 0.0, 0.0, -1233.2351485771119, 0.0]
['beep', 0.0, -944.9423485925614, 0.0, 0.0, 0.0, 0.0, -1233.1233898548353, 0.0]
['beep', 0.0, -945.4117352261228, 0.0, 0.0, 0.0, 0.0, -1231.7375816986064, 0.0]
['beep', 0.0, -945.5458456928546, 0.0, 0.0, 0.0, 0.0, -1232.1175613543464, 0.0]
['beep', 0.0, -944.6294241701871, 0.0, 0.0, 0.0, 0.0, -1231.8940439097935, 0.0]
['beep', 0.0, -943.7577061364301, 0.0, 0.0, 0.0, 0.0, -1232.9669276436482, 0.0]
['beep', 0.0, -944.1600375366256, 0.0, 0.0, 0.0, 0.0, -1232.296375309989, 0.0]
['beep', 0.0, -943.7577061364301, 0.0, 0.0, 0.0, 0.0, -1231.8493404208828, 0.0]
['beep', 0.0, -943.2883195028686, 0.0, 0.0, 0.0, 0.0, -1230.776456687028, 0.0]
['beep', 0.0, -943.1989125250474, 0.0, 0.0, 0.0, 0.0, -1232.2740235655338, 0.0]
['beep', 0.0, -943.2883195028686, 0.0, 0.0, 0.0, 0.0, -1232.72105845464, 0.0]
['beep', 0.0, -942.9306915915837, 0.0, 0.0, 0.0, 0.0, -1232.8998724102823, 0.0]
['beep', 0.0, -943.7353543919749, 0.0, 0.0, 0.0, 0.0, -1231.5140642540532, 0.0]
['beep', 0.0, -944.0706305588044, 0.0, 0.0, 0.0, 0.0, -1232.3857822878101, 0.0]
['beep', 0.0, -942.9306915915837, 0.0, 0.0, 0.0, 0.0, -1233.1457415992907, 0.0]
['beep', 0.0, -942.3942497246563, 0.0, 0.0, 0.0, 0.0, -1233.4363142772097, 0.0]
['beep', 0.0, -943.0200985694049, 0.0, 0.0, 0.0, 0.0, -1232.7881136880058, 0.0]
['beep', 0.0, -944.0482788143491, 0.0, 0.0, 0.0, 0.0, -1232.9892793881036, 0.0]
['beep', 0.0, -944.182389281081, 0.0, 0.0, 0.0, 0.0, -1232.4975410100867, 0.0]
['beep', 0.0, -943.6235956696983, 0.0, 0.0, 0.0, 0.0, -1230.552939242475, 0.0]
['beep', 0.0, -942.8189328693072, 0.0, 0.0, 0.0, 0.0, -1230.9329188982153, 0.0]
['beep', 0.0, -942.7518776359412, 0.0, 0.0, 0.0, 0.0, -1232.7881136880058, 0.0]
['beep', 0.0, -943.9141683476173, 0.0, 0.0, 0.0, 0.0, -1233.4363142772097, 0.0]
['beep', 0.0, -945.4564387150334, 0.0, 0.0, 0.0, 0.0, -1233.7045352106734, 0.0]
['beep', 0.0, -944.4953137034553, 0.0, 0.0, 0.0, 0.0, -1233.391610788299, 0.0]
['beep', 0.0, -944.6294241701871, 0.0, 0.0, 0.0, 0.0, -1233.7939421884946, 0.0]
['beep', 0.0, -944.405906725634, 0.0, 0.0, 0.0, 0.0, -1233.3022038104777, 0.0]
['beep', 0.0, -945.1211625482039, 0.0, 0.0, 0.0, 0.0, -1232.586947987908, 0.0]
['beep', 0.0, -945.6799561595865, 0.0, 0.0, 0.0, 0.0, -1231.581119487419, 0.0]
['beep', 0.0, -944.9647003370167, 0.0, 0.0, 0.0, 0.0, -1232.9669276436482, 0.0]
['beep', 0.0, -945.5905491817653, 0.0, 0.0, 0.0, 0.0, -1233.2351485771119, 0.0]
['beep', 0.0, -944.1600375366256, 0.0, 0.0, 0.0, 0.0, -1232.3187270544443, 0.0]
['beep', 0.0, -944.6070724257318, 0.0, 0.0, 0.0, 0.0, -1232.2740235655338, 0.0]
['beep', 0.0, -943.6235956696983, 0.0, 0.0, 0.0, 0.0, -1232.0505061209806, 0.0]
['beep', 0.0, -944.763534636919, 0.0, 0.0, 0.0, 0.0, -1232.1622648432572, 0.0]
['beep', 0.0, -945.7917148818631, 0.0, 0.0, 0.0, 0.0, -1231.6258229763298, 0.0]
['beep', 0.0, -945.5234939483994, 0.0, 0.0, 0.0, 0.0, -1231.715229954151, 0.0]
['beep', 0.0, -945.0094038259273, 0.0, 0.0, 0.0, 0.0, -1232.1175613543464, 0.0]
['beep', 0.0, -945.3670317372122, 0.0, 0.0, 0.0, 0.0, -1231.4917125095978, 0.0]
['beep', 0.0, -945.1658660371145, 0.0, 0.0, 0.0, 0.0, -1232.2516718210784, 0.0]
['beep', 0.0, -944.2047410255362, 0.0, 0.0, 0.0, 0.0, -1231.8269886764276, 0.0]
['beep', 0.0, -944.5623689368211, 0.0, 0.0, 0.0, 0.0, -1230.1282560978243, 0.0]
['beep', 0.0, -944.6070724257318, 0.0, 0.0, 0.0, 0.0, -1229.7035729531733, 0.0]
['beep', 0.0, -945.0541073148379, 0.0, 0.0, 0.0, 0.0, -1230.91056715376, 0.0]
['beep', 0.0, -945.7470113929525, 0.0, 0.0, 0.0, 0.0, -1232.2516718210784, 0.0]
['beep', 0.0, -944.8976451036508, 0.0, 0.0, 0.0, 0.0, -1231.6928782096957, 0.0]
['beep', 0.0, -944.9647003370167, 0.0, 0.0, 0.0, 0.0, -1230.552939242475, 0.0]
['beep', 0.0, -945.9705288375055, 0.0, 0.0, 0.0, 0.0, -1230.3517735423773, 0.0]
['beep', 0.0, -946.1269910486926, 0.0, 0.0, 0.0, 0.0, -1231.4023055317766, 0.0]
['beep', 0.0, -945.6129009262206, 0.0, 0.0, 0.0, 0.0, -1231.5140642540532, 0.0]
['beep', 0.0, -945.2329212704803, 0.0, 0.0, 0.0, 0.0, -1231.5140642540532, 0.0]
['beep', 0.0, -945.0764590592933, 0.0, 0.0, 0.0, 0.0, -1232.2740235655338, 0.0]
['beep', 0.0, -944.1600375366256, 0.0, 0.0, 0.0, 0.0, -1231.8493404208828, 0.0]
['beep', 0.0, -943.4447817140558, 0.0, 0.0, 0.0, 0.0, -1232.4528375211762, 0.0]
['beep', 0.0, -944.115334047715, 0.0, 0.0, 0.0, 0.0, -1231.8493404208828, 0.0]
['beep', 0.0, -943.8024096253407, 0.0, 0.0, 0.0, 0.0, -1230.2847183090114, 0.0]
['beep', 0.0, -944.2047410255362, 0.0, 0.0, 0.0, 0.0, -1229.614165975352, 0.0]
['beep', 0.0, -945.501142203944, 0.0, 0.0, 0.0, 0.0, -1230.4411805201985, 0.0]
['beep', 0.0, -943.9588718365279, 0.0, 0.0, 0.0, 0.0, -1231.0893811094024, 0.0]
['beep', 0.0, -944.8529416147402, 0.0, 0.0, 0.0, 0.0, -1230.552939242475, 0.0]
['beep', 0.0, -943.8247613697961, 0.0, 0.0, 0.0, 0.0, -1230.1729595867348, 0.0]
['beep', 0.0, -943.6906509030642, 0.0, 0.0, 0.0, 0.0, -1230.6423462202963, 0.0]
['beep', 0.0, -944.0482788143491, 0.0, 0.0, 0.0, 0.0, -1231.2905468095003, 0.0]
['beep', 0.0, -945.1211625482039, 0.0, 0.0, 0.0, 0.0, -1230.5976427313856, 0.0]
['beep', 0.0, -943.5118369474218, 0.0, 0.0, 0.0, 0.0, -1229.9941456310924, 0.0]
['beep', 0.0, -943.1765607805921, 0.0, 0.0, 0.0, 0.0, -1230.619994475841, 0.0]
['beep', 0.0, -943.3777264806898, 0.0, 0.0, 0.0, 0.0, -1231.3128985539554, 0.0]
['beep', 0.0, -942.148380535648, 0.0, 0.0, 0.0, 0.0, -1230.7094014536622, 0.0]
['beep', 0.0, -944.0706305588044, 0.0, 0.0, 0.0, 0.0, -1231.2458433205895, 0.0]
['beep', 0.0, -944.0929823032598, 0.0, 0.0, 0.0, 0.0, -1231.581119487419, 0.0]
['beep', 0.0, -944.0482788143491, 0.0, 0.0, 0.0, 0.0, -1230.9999741315812, 0.0]
['beep', 0.0, -943.6459474141536, 0.0, 0.0, 0.0, 0.0, -1231.067029364947, 0.0]
['beep', 0.0, -942.0589735578268, 0.0, 0.0, 0.0, 0.0, -1230.776456687028, 0.0]
['beep', 0.0, -943.1542090361368, 0.0, 0.0, 0.0, 0.0, -1230.7317531981175, 0.0]
['beep', 0.0, -943.8247613697961, 0.0, 0.0, 0.0, 0.0, -1231.8716921653381, 0.0]
['beep', 0.0, -943.3777264806898, 0.0, 0.0, 0.0, 0.0, -1230.8435119203941, 0.0]
['beep', 0.0, -943.534188691877, 0.0, 0.0, 0.0, 0.0, -1230.9552706426705, 0.0]
['beep', 0.0, -943.1989125250474, 0.0, 0.0, 0.0, 0.0, -1231.3128985539554, 0.0]
['beep', 0.0, -942.3718979802011, 0.0, 0.0, 0.0, 0.0, -1229.9494421421816, 0.0]
['beep', 0.0, -943.0424503138603, 0.0, 0.0, 0.0, 0.0, -1229.7929799309945, 0.0]
['beep', 0.0, -943.0648020583155, 0.0, 0.0, 0.0, 0.0, -1231.134084598313, 0.0]
['beep', 0.0, -944.182389281081, 0.0, 0.0, 0.0, 0.0, -1232.2740235655338, 0.0]
['beep', 0.0, -944.6294241701871, 0.0, 0.0, 0.0, 0.0, -1230.9329188982153, 0.0]
['beep', 0.0, -943.0424503138603, 0.0, 0.0, 0.0, 0.0, -1230.396477031288, 0.0]
['beep', 0.0, -943.2883195028686, 0.0, 0.0, 0.0, 0.0, -1230.9329188982153, 0.0]
['beep', 0.0, -943.2659677584134, 0.0, 0.0, 0.0, 0.0, -1230.2847183090114, 0.0]
['beep', 0.0, -943.8024096253407, 0.0, 0.0, 0.0, 0.0, -1230.105904353369, 0.0]
['beep', 0.0, -942.8189328693072, 0.0, 0.0, 0.0, 0.0, -1229.5918142308967, 0.0]
['beep', 0.0, -943.8024096253407, 0.0, 0.0, 0.0, 0.0, -1230.329421797922, 0.0]
['beep', 0.0, -943.5118369474218, 0.0, 0.0, 0.0, 0.0, -1230.5305874980197, 0.0]
['beep', 0.0, -943.601243925243, 0.0, 0.0, 0.0, 0.0, -1230.1282560978243, 0.0]
['beep', 0.0, -943.0648020583155, 0.0, 0.0, 0.0, 0.0, -1228.943613641693, 0.0]
['beep', 0.0, -942.0366218133714, 0.0, 0.0, 0.0, 0.0, -1230.6646979647517, 0.0]
['beep', 0.0, -942.5507119358435, 0.0, 0.0, 0.0, 0.0, -1231.424657276232, 0.0]
