['beep', 0.0, -1120.9846879225597, 0.0, 0.0, 0.0, 0.0, -1200.1769185277128, 0.0]
['beep', 0.0, -1120.5376530334536, 0.0, 0.0, 0.0, 0.0, -1199.2604970050452, 0.0]
['beep', 0.0, -1120.2470803555348, 0.0, 0.0, 0.0, 0.0, -1199.841642360883, 0.0]
['beep', 0.0, -1119.3306588328671, 0.0, 0.0, 0.0, 0.0, -1199.9310493387043, 0.0]
['beep', 0.0, -1120.9623361781046, 0.0, 0.0, 0.0, 0.0, -1200.8698226058273, 0.0]
['beep', 0.0, -1121.0964466448363, 0.0, 0.0, 0.0, 0.0, -1199.5957731718747, 0.0]
['beep', 0.0, -1121.0293914114704, 0.0, 0.0, 0.0, 0.0, -1199.6404766607855, 0.0]
['beep', 0.0, -1120.4035425667219, 0.0, 0.0, 0.0, 0.0, -1199.9310493387043, 0.0]
['beep', 0.0, -1120.492949544543, 0.0, 0.0, 0.0, 0.0, -1199.4393109606876, 0.0]
['beep', 0.0, -1120.4258943111772, 0.0, 0.0, 0.0, 0.0, -1198.679351649207, 0.0]
['beep', 0.0, -1119.0847896438588, 0.0, 0.0, 0.0, 0.0, -1199.4393109606876, 0.0]
['beep', 0.0, -1120.560004777909, 0.0, 0.0, 0.0, 0.0, -1200.6016016723636, 0.0]
['beep', 0.0, -1121.0293914114704, 0.0, 0.0, 0.0, 0.0, -1199.3722557273218, 0.0]
['beep', 0.0, -1120.7611704780068, 0.0, 0.0, 0.0, 0.0, -1198.5899446713859, 0.0]
['beep', 0.0, -1120.0682663998923, 0.0, 0.0, 0.0, 0.0, -1197.360598726344, 0.0]
['beep', 0.0, -1120.4482460556324, 0.0, 0.0, 0.0, 0.0, -1199.5510696829642, 0.0]
['beep', 0.0, -1120.8952809447385, 0.0, 0.0, 0.0, 0.0, -1200.5568981834529, 0.0]
['beep', 0.0, -1120.9846879225597, 0.0, 0.0, 0.0, 0.0, -1199.4393109606876, 0.0]
['beep', 0.0, -1120.9176326891939, 0.0, 0.0, 0.0, 0.0, -1199.2604970050452, 0.0]
['beep', 0.0, -1121.1635018782022, 0.0, 0.0, 0.0, 0.0, -1199.4840144495981, 0.0]
['beep', 0.0, -1120.0235629109816, 0.0, 0.0, 0.0, 0.0, -1199.2381452605898, 0.0]
['beep', 0.0, -1121.141150133747, 0.0, 0.0, 0.0, 0.0, -1198.5452411824754, 0.0]
['beep', 0.0, -1121.4317228116658, 0.0, 0.0, 0.0, 0.0, -1197.0923777928804, 0.0]
['beep', 0.0, -1119.688286744152, 0.0, 0.0, 0.0, 0.0, -1199.104034793858, 0.0]
['beep', 0.0, -1120.9176326891939, 0.0, 0.0, 0.0, 0.0, -1198.679351649207, 0.0]
['beep', 0.0, -1121.3870193227554, 0.0, 0.0, 0.0, 0.0, -1200.199270272168, 0.0]
['beep', 0.0, -1121.6328885117637, 0.0, 0.0, 0.0, 0.0, -1200.0651598054362, 0.0]
['beep', 0.0, -1119.8894524442499, 0.0, 0.0, 0.0, 0.0, -1199.7745871275172, 0.0]
['beep', 0.0, -1121.0293914114704, 0.0, 0.0, 0.0, 0.0, -1200.3557324833553, 0.0]
['beep', 0.0, -1121.1858536226575, 0.0, 0.0, 0.0, 0.0, -1199.8863458497938, 0.0]
['beep', 0.0, -1121.0964466448363, 0.0, 0.0, 0.0, 0.0, -1197.9193923377268, 0.0]
['beep', 0.0, -1121.0293914114704, 0.0, 0.0, 0.0, 0.0, -1198.4334824601988, 0.0]
['beep', 0.0, -1120.8282257113726, 0.0, 0.0, 0.0, 0.0, -1198.52288943802, 0.0]
['beep', 0.0, -1121.5658332783978, 0.0, 0.0, 0.0, 0.0, -1199.3052004939557, 0.0]
['beep', 0.0, -1127.5113973035095, 0.0, 0.0, 0.0, 0.0, -1199.61812491633, 0.0]
['beep', 0.0, -1130.618289782797, 0.0, 0.0, 0.0, 0.0, -1197.42765395971, 0.0]
['beep', 0.0, -1118.235423354557, 0.0, 0.0, 0.0, 0.0, -1196.2877149924893, 0.0]
['beep', 0.0, -1107.685399971652, 0.0, 0.0, 0.0, 0.0, -1196.71239813714, 0.0]
['beep', 0.0, -1101.8292429243616, 0.0, 0.0, 0.0, 0.0, -1194.2090027581457, 0.0]
['beep', 0.0, -1092.5979724643198, 0.0, 0.0, 0.0, 0.0, -1193.0690637909252, 0.0]
['beep', 0.0, -1085.624228194264, 0.0, 0.0, 0.0, 0.0, -1189.8280608449056, 0.0]
['beep', 0.0, -1077.1529170457027, 0.0, 0.0, 0.0, 0.0, -1188.263438733034, 0.0]
['beep', 0.0, -1068.0334053079373, 0.0, 0.0, 0.0, 0.0, -1186.587057898886, 0.0]
['beep', 0.0, -1064.7029953840965, 0.0, 0.0, 0.0, 0.0, -1185.2906567204782, 0.0]
['beep', 0.0, -1058.2209894920575, 0.0, 0.0, 0.0, 0.0, -1183.4131101862324, 0.0]
['beep', 0.0, -1050.822562077351, 0.0, 0.0, 0.0, 0.0, -1182.7649095970285, 0.0]
['beep', 0.0, -1048.2968149539013, 0.0, 0.0, 0.0, 0.0, -1181.8708398188162, 0.0]
['beep', 0.0, -1043.2453207070018, 0.0, 0.0, 0.0, 0.0, -1180.5297351514978, 0.0]
['beep', 0.0, -1041.948919528594, 0.0, 0.0, 0.0, 0.0, -1179.5686101399197, 0.0]
['beep', 0.0, -1042.1277334842364, 0.0, 0.0, 0.0, 0.0, -1179.7697758400175, 0.0]
['beep', 0.0, -1041.9712712730493, 0.0, 0.0, 0.0, 0.0, -1181.1555839962464, 0.0]
['beep', 0.0, -1041.434829406122, 0.0, 0.0, 0.0, 0.0, -1181.6696741187184, 0.0]
['beep', 0.0, -1041.144256728203, 0.0, 0.0, 0.0, 0.0, -1181.200287485157, 0.0]
['beep', 0.0, -1041.3901259172114, 0.0, 0.0, 0.0, 0.0, -1179.4792031620984, 0.0]
['beep', 0.0, -1040.9430910281053, 0.0, 0.0, 0.0, 0.0, -1175.9699792826152, 0.0]
['beep', 0.0, -1040.8089805613733, 0.0, 0.0, 0.0, 0.0, -1176.0593862604364, 0.0]
['beep', 0.0, -1041.6583468506751, 0.0, 0.0, 0.0, 0.0, -1177.2887322054783, 0.0]
['beep', 0.0, -1040.9877945170158, 0.0, 0.0, 0.0, 0.0, -1176.9534560386487, 0.0]
['beep', 0.0, -1039.758448571974, 0.0, 0.0, 0.0, 0.0, -1178.0486915169588, 0.0]
['beep', 0.0, -1040.5407596279097, 0.0, 0.0, 0.0, 0.0, -1179.523906651009, 0.0]
['beep', 0.0, -1040.8089805613733, 0.0, 0.0, 0.0, 0.0, -1179.6803688621962, 0.0]
['beep', 0.0, -1040.272538694446, 0.0, 0.0, 0.0, 0.0, -1179.3897961842772, 0.0]
['beep', 0.0, -1041.4124776616666, 0.0, 0.0, 0.0, 0.0, -1178.4063194282437, 0.0]
['beep', 0.0, -1041.9042160396834, 0.0, 0.0, 0.0, 0.0, -1178.9651130396264, 0.0]
['beep', 0.0, -1040.3842974167226, 0.0, 0.0, 0.0, 0.0, -1180.5297351514978, 0.0]
['beep', 0.0, -1040.786628816918, 0.0, 0.0, 0.0, 0.0, -1179.6133136288302, 0.0]
['beep', 0.0, -1042.1277334842364, 0.0, 0.0, 0.0, 0.0, -1178.2945607059671, 0.0]
['beep', 0.0, -1041.6806985951303, 0.0, 0.0, 0.0, 0.0, -1178.7639473395286, 0.0]
['beep', 0.0, -1041.6359951062198, 0.0, 0.0, 0.0, 0.0, -1178.6745403617074, 0.0]
['beep', 0.0, -1041.1219049837478, 0.0, 0.0, 0.0, 0.0, -1179.6356653732855, 0.0]
['beep', 0.0, -1041.4571811505773, 0.0, 0.0, 0.0, 0.0, -1179.0768717619028, 0.0]
['beep', 0.0, -1040.9430910281053, 0.0, 0.0, 0.0, 0.0, -1176.5734763829084, 0.0]
['beep', 0.0, -1041.3901259172114, 0.0, 0.0, 0.0, 0.0, -1176.6181798718192, 0.0]
['beep', 0.0, -1040.3172421833567, 0.0, 0.0, 0.0, 0.0, -1177.4228426722102, 0.0]
['beep', 0.0, -1040.4513526500884, 0.0, 0.0, 0.0, 0.0, -1177.0205112720146, 0.0]
['beep', 0.0, -1041.2336637060241, 0.0, 0.0, 0.0, 0.0, -1177.9145810502268, 0.0]
['beep', 0.0, -1041.881864295228, 0.0, 0.0, 0.0, 0.0, -1177.6240083723078, 0.0]
['beep', 0.0, -1039.8925590387057, 0.0, 0.0, 0.0, 0.0, -1176.3499589383555, 0.0]
['beep', 0.0, -1040.049021249893, 0.0, 0.0, 0.0, 0.0, -1176.4170141717213, 0.0]
['beep', 0.0, -1041.2783671949348, 0.0, 0.0, 0.0, 0.0, -1178.0933950058693, 0.0]
['beep', 0.0, -1040.8313323058287, 0.0, 0.0, 0.0, 0.0, -1178.0263397725034, 0.0]
['beep', 0.0, -1040.406649161178, 0.0, 0.0, 0.0, 0.0, -1176.7969938274616, 0.0]
['beep', 0.0, -1040.3842974167226, 0.0, 0.0, 0.0, 0.0, -1176.6181798718192, 0.0]
['beep', 0.0, -1040.1831317166248, 0.0, 0.0, 0.0, 0.0, -1176.551124638453, 0.0]
['beep', 0.0, -1041.2336637060241, 0.0, 0.0, 0.0, 0.0, -1177.1769734832017, 0.0]
['beep', 0.0, -1041.3901259172114, 0.0, 0.0, 0.0, 0.0, -1175.3441304378666, 0.0]
['beep', 0.0, -1040.853684050284, 0.0, 0.0, 0.0, 0.0, -1174.7406333375734, 0.0]
['beep', 0.0, -1040.3172421833567, 0.0, 0.0, 0.0, 0.0, -1174.2041914706458, 0.0]
['beep', 0.0, -1040.9430910281053, 0.0, 0.0, 0.0, 0.0, -1173.5783426258972, 0.0]
['beep', 0.0, -1040.8313323058287, 0.0, 0.0, 0.0, 0.0, -1174.8523920598498, 0.0]
['beep', 0.0, -1039.7360968275186, 0.0, 0.0, 0.0, 0.0, -1175.3888339267771, 0.0]
['beep', 0.0, -1039.7137450830633, 0.0, 0.0, 0.0, 0.0, -1174.5171158930202, 0.0]
['beep', 0.0, -1039.2890619384125, 0.0, 0.0, 0.0, 0.0, -1173.488935648076, 0.0]
['beep', 0.0, -1038.7749718159405, 0.0, 0.0, 0.0, 0.0, -1172.684272847685, 0.0]
['beep', 0.0, -1040.2278352055355, 0.0, 0.0, 0.0, 0.0, -1170.359691424333, 0.0]
['beep', 0.0, -1040.3842974167226, 0.0, 0.0, 0.0, 0.0, -1168.7056623346405, 0.0]
['beep', 0.0, -1040.272538694446, 0.0, 0.0, 0.0, 0.0, -1167.4539646451433, 0.0]
['beep', 0.0, -1041.3454224283007, 0.0, 0.0, 0.0, 0.0, -1166.1575634667354, 0.0]
['beep', 0.0, -1040.3395939278118, 0.0, 0.0, 0.0, 0.0, -1166.3363774223778, 0.0]
['beep', 0.0, -1035.9363002701164, 0.0, 0.0, 0.0, 0.0, -1166.2022669556459, 0.0]
['beep', 0.0, -1036.495093881499, 0.0, 0.0, 0.0, 0.0, -1164.2800169324896, 0.0]
['beep', 0.0, -1045.4581434080771, 0.0, 0.0, 0.0, 0.0, -1168.5044966345426, 0.0]
['beep', 0.0, -1049.883788810228, 0.0, 0.0, 0.0, 0.0, -1178.2498572170566, 0.0]
['beep', 0.0, -1055.1364487572253, 0.0, 0.0, 0.0, 0.0, -1188.7104736221402, 0.0]
['beep', 0.0, -1058.2880447254236, 0.0, 0.0, 0.0, 0.0, -1194.8572033473497, 0.0]
['beep', 0.0, -1061.9090273271831, 0.0, 0.0, 0.0, 0.0, -1200.266325505534, 0.0]
['beep', 0.0, -1064.21125700608, 0.0, 0.0, 0.0, 0.0, -1204.6696191632295, 0.0]
['beep', 0.0, -1067.4522599520994, 0.0, 0.0, 0.0, 0.0, -1209.6540581767629, 0.0]
['beep', 0.0, -1067.787536118929, 0.0, 0.0, 0.0, 0.0, -1214.5937937013857, 0.0]
['beep', 0.0, -1061.4396406936219, 0.0, 0.0, 0.0, 0.0, -1218.035962347503, 0.0]
['beep', 0.0, -1062.1996000051022, 0.0, 0.0, 0.0, 0.0, -1218.9970873590812, 0.0]
['beep', 0.0, -1065.7982308624066, 0.0, 0.0, 0.0, 0.0, -1219.5335292260086, 0.0]
['beep', 0.0, -1066.3123209848786, 0.0, 0.0, 0.0, 0.0, -1221.8357589049053, 0.0]
['beep', 0.0, -1066.6699488961635, 0.0, 0.0, 0.0, 0.0, -1222.1710350717349, 0.0]
['beep', 0.0, -1064.21125700608, 0.0, 0.0, 0.0, 0.0, -1220.00291585957, 0.0]
['beep', 0.0, -1063.9877395615267, 0.0, 0.0, 0.0, 0.0, -1221.1205030823355, 0.0]
['beep', 0.0, -1067.11698378527, 0.0, 0.0, 0.0, 0.0, -1219.265308292545, 0.0]
['beep', 0.0, -1065.6194169067642, 0.0, 0.0, 0.0, 0.0, -1221.2322618046119, 0.0]
['beep', 0.0, -1064.4347744506329, 0.0, 0.0, 0.0, 0.0, -1215.9796018576149, 0.0]
['beep', 0.0, -1063.4736494390547, 0.0, 0.0, 0.0, 0.0, -1210.9281076107154, 0.0]
['beep', 0.0, -1063.339538972323, 0.0, 0.0, 0.0, 0.0, -1213.3420960118885, 0.0]
['beep', 0.0, -1062.6466348942083, 0.0, 0.0, 0.0, 0.0, -1216.0913605798914, 0.0]
['beep', 0.0, -1062.4231174496554, 0.0, 0.0, 0.0, 0.0, -1216.940726869193, 0.0]
['beep', 0.0, -1062.244303494013, 0.0, 0.0, 0.0, 0.0, -1218.103017580869, 0.0]
['beep', 0.0, -1061.9760825605492, 0.0, 0.0, 0.0, 0.0, -1220.360543770855, 0.0]
['beep', 0.0, -1061.6631581381748, 0.0, 0.0, 0.0, 0.0, -1217.879500136316, 0.0]
['beep', 0.0, -1062.8030971053954, 0.0, 0.0, 0.0, 0.0, -1220.4723024931316, 0.0]
['beep', 0.0, -1064.077146539348, 0.0, 0.0, 0.0, 0.0, -1224.1826920727126, 0.0]
['beep', 0.0, -1061.6855098826302, 0.0, 0.0, 0.0, 0.0, -1216.650154191274, 0.0]
['beep', 0.0, -1060.7690883599626, 0.0, 0.0, 0.0, 0.0, -1214.7055524236623, 0.0]
['beep', 0.0, -1060.7467366155072, 0.0, 0.0, 0.0, 0.0, -1218.1477210697797, 0.0]
['beep', 0.0, -1059.338576714823, 0.0, 0.0, 0.0, 0.0, -1218.6394594477963, 0.0]
['beep', 0.0, -1058.109230769781, 0.0, 0.0, 0.0, 0.0, -1216.0913605798914, 0.0]
['beep', 0.0, -1057.4833819250325, 0.0, 0.0, 0.0, 0.0, -1217.9912588585923, 0.0]
['beep', 0.0, -1057.6174923917642, 0.0, 0.0, 0.0, 0.0, -1217.8571483918606, 0.0]
['beep', 0.0, -1058.5115621699765, 0.0, 0.0, 0.0, 0.0, -1216.9183751247376, 0.0]
['beep', 0.0, -1060.076184281848, 0.0, 0.0, 0.0, 0.0, -1216.8513198913718, 0.0]
['beep', 0.0, -1061.1937715046133, 0.0, 0.0, 0.0, 0.0, -1221.1205030823355, 0.0]
['beep', 0.0, -1063.8089256058843, 0.0, 0.0, 0.0, 0.0, -1222.7298286831176, 0.0]
['beep', 0.0, -1063.3842424612335, 0.0, 0.0, 0.0, 0.0, -1221.7910554159946, 0.0]
['beep', 0.0, -1063.9653878170716, 0.0, 0.0, 0.0, 0.0, -1219.6005844593747, 0.0]
['beep', 0.0, -1063.2948354834123, 0.0, 0.0, 0.0, 0.0, -1222.5063112385644, 0.0]
['beep', 0.0, -1064.501829683999, 0.0, 0.0, 0.0, 0.0, -1223.713305439151, 0.0]
['beep', 0.0, -1064.4124227061777, 0.0, 0.0, 0.0, 0.0, -1220.8969856377823, 0.0]
['beep', 0.0, -1064.144201772714, 0.0, 0.0, 0.0, 0.0, -1222.1933868161902, 0.0]
['beep', 0.0, -1061.6184546492643, 0.0, 0.0, 0.0, 0.0, -1227.1107705963577, 0.0]
['beep', 0.0, -1062.7136901275742, 0.0, 0.0, 0.0, 0.0, -1231.0223258760366, 0.0]
['beep', 0.0, -1067.7651843744736, 0.0, 0.0, 0.0, 0.0, -1235.5820817449192, 0.0]
['beep', 0.0, -1071.6767396541525, 0.0, 0.0, 0.0, 0.0, -1241.617052747852, 0.0]
['beep', 0.0, -1076.884696112239, 0.0, 0.0, 0.0, 0.0, -1244.746296971595, 0.0]
['beep', 0.0, -1074.78363213344, 0.0, 0.0, 0.0, 0.0, -1245.4392010497095, 0.0]
['beep', 0.0, -1072.2578850099903, 0.0, 0.0, 0.0, 0.0, -1245.5956632608966, 0.0]
['beep', 0.0, -1071.207353020591, 0.0, 0.0, 0.0, 0.0, -1246.1544568722793, 0.0]
['beep', 0.0, -1071.5873326763312, 0.0, 0.0, 0.0, 0.0, -1246.5120847835642, 0.0]
['beep', 0.0, -1071.4755739540547, 0.0, 0.0, 0.0, 0.0, -1246.713250483662, 0.0]
['beep', 0.0, -1072.9284373436496, 0.0, 0.0, 0.0, 0.0, -1245.5062562830753, 0.0]
['beep', 0.0, -1071.2297047650463, 0.0, 0.0, 0.0, 0.0, -1246.1321051278242, 0.0]
['beep', 0.0, -1070.715614642574, 0.0, 0.0, 0.0, 0.0, -1247.0261749060364, 0.0]
['beep', 0.0, -1071.4532222095993, 0.0, 0.0, 0.0, 0.0, -1244.232206849123, 0.0]
['beep', 0.0, -1071.49792569851, 0.0, 0.0, 0.0, 0.0, -1243.6957649821957, 0.0]
['beep', 0.0, -1070.4026902202, 0.0, 0.0, 0.0, 0.0, -1244.0757446379357, 0.0]
['beep', 0.0, -1071.4532222095993, 0.0, 0.0, 0.0, 0.0, -1244.2545585935782, 0.0]
['beep', 0.0, -1071.0061873204932, 0.0, 0.0, 0.0, 0.0, -1243.785171960017, 0.0]
['beep', 0.0, -1071.0732425538592, 0.0, 0.0, 0.0, 0.0, -1242.5781777594302, 0.0]
['beep', 0.0, -1070.0227105644597, 0.0, 0.0, 0.0, 0.0, -1243.7181167266508, 0.0]
['beep', 0.0, -1070.5815041758424, 0.0, 0.0, 0.0, 0.0, -1243.8522271933828, 0.0]
['beep', 0.0, -1069.68743439763, 0.0, 0.0, 0.0, 0.0, -1243.360488815366, 0.0]
['beep', 0.0, -1070.5815041758424, 0.0, 0.0, 0.0, 0.0, -1243.651061493285, 0.0]
['beep', 0.0, -1069.9556553310938, 0.0, 0.0, 0.0, 0.0, -1243.360488815366, 0.0]
['beep', 0.0, -1070.2238762645575, 0.0, 0.0, 0.0, 0.0, -1243.136971370813, 0.0]
['beep', 0.0, -1071.49792569851, 0.0, 0.0, 0.0, 0.0, -1242.622881248341, 0.0]
['beep', 0.0, -1071.0285390649485, 0.0, 0.0, 0.0, 0.0, -1243.360488815366, 0.0]
['beep', 0.0, -1071.341463487323, 0.0, 0.0, 0.0, 0.0, -1242.6675847372514, 0.0]
['beep', 0.0, -1070.9391320871273, 0.0, 0.0, 0.0, 0.0, -1247.2049888616789, 0.0]
['beep', 0.0, -1070.2238762645575, 0.0, 0.0, 0.0, 0.0, -1250.4683435521536, 0.0]
['beep', 0.0, -1070.5144489424765, 0.0, 0.0, 0.0, 0.0, -1240.4324102917208, 0.0]
['beep', 0.0, -1069.5533239308982, 0.0, 0.0, 0.0, 0.0, -1237.1243521123354, 0.0]
['beep', 0.0, -1069.9780070755492, 0.0, 0.0, 0.0, 0.0, -1237.7949044459945, 0.0]
['beep', 0.0, -1070.4026902202, 0.0, 0.0, 0.0, 0.0, -1238.19723584619, 0.0]
['beep', 0.0, -1070.9614838315827, 0.0, 0.0, 0.0, 0.0, -1241.393535303299, 0.0]
['beep', 0.0, -1071.0732425538592, 0.0, 0.0, 0.0, 0.0, -1242.0193841480475, 0.0]
['beep', 0.0, -1070.5368006869317, 0.0, 0.0, 0.0, 0.0, -1242.0640876369582, 0.0]
['beep', 0.0, -1070.0003588200043, 0.0, 0.0, 0.0, 0.0, -1240.1865411027125, 0.0]
['beep', 0.0, -1069.5756756753535, 0.0, 0.0, 0.0, 0.0, -1240.231244591623, 0.0]
['beep', 0.0, -1071.1626495316805, 0.0, 0.0, 0.0, 0.0, -1240.678279480729, 0.0]
['beep', 0.0, -1071.3861669762334, 0.0, 0.0, 0.0, 0.0, -1243.8969306822933, 0.0]
['beep', 0.0, -1071.0061873204932, 0.0, 0.0, 0.0, 0.0, -1247.7414307286062, 0.0]
['beep', 0.0, -1070.849725109306, 0.0, 0.0, 0.0, 0.0, -1251.1835993747234, 0.0]
['beep', 0.0, -1070.045062308915, 0.0, 0.0, 0.0, 0.0, -1242.1087911258687, 0.0]
['beep', 0.0, -1070.2462280090128, 0.0, 0.0, 0.0, 0.0, -1234.19627358869, 0.0]
['beep', 0.0, -1070.3579867312892, 0.0, 0.0, 0.0, 0.0, -1237.2808143235225, 0.0]
['beep', 0.0, -1069.396861719711, 0.0, 0.0, 0.0, 0.0, -1242.332308570422, 0.0]
['beep', 0.0, -1069.7097861420855, 0.0, 0.0, 0.0, 0.0, -1243.941634171204, 0.0]
['beep', 0.0, -1069.754489630996, 0.0, 0.0, 0.0, 0.0, -1241.0135556475586, 0.0]
['beep', 0.0, -1068.9721785750603, 0.0, 0.0, 0.0, 0.0, -1239.717154469151, 0.0]
['beep', 0.0, -1069.8438966088172, 0.0, 0.0, 0.0, 0.0, -1241.5723492589414, 0.0]
['beep', 0.0, -1069.1286407862474, 0.0, 0.0, 0.0, 0.0, -1241.0582591364694, 0.0]
['beep', 0.0, -1069.396861719711, 0.0, 0.0, 0.0, 0.0, -1241.1029626253799, 0.0]
['beep', 0.0, -1070.8720768537614, 0.0, 0.0, 0.0, 0.0, -1240.4994655250866, 0.0]
['beep', 0.0, -1069.5533239308982, 0.0, 0.0, 0.0, 0.0, -1242.1758463592348, 0.0]
['beep', 0.0, -1069.4862686975323, 0.0, 0.0, 0.0, 0.0, -1242.131142870324, 0.0]
['beep', 0.0, -1070.693262898119, 0.0, 0.0, 0.0, 0.0, -1242.7346399706173, 0.0]
['beep', 0.0, -1069.8438966088172, 0.0, 0.0, 0.0, 0.0, -1242.3993638037878, 0.0]
['beep', 0.0, -1068.726309386052, 0.0, 0.0, 0.0, 0.0, -1243.5169510265532, 0.0]
['beep', 0.0, -1068.8380681083283, 0.0, 0.0, 0.0, 0.0, -1242.5111225260644, 0.0]
['beep', 0.0, -1067.6981291411078, 0.0, 0.0, 0.0, 0.0, -1242.0640876369582, 0.0]
['beep', 0.0, -1068.4580884525883, 0.0, 0.0, 0.0, 0.0, -1243.584006259919, 0.0]
['beep', 0.0, -1071.4755739540547, 0.0, 0.0, 0.0, 0.0, -1243.6287097488296, 0.0]
['beep', 0.0, -1076.303550756401, 0.0, 0.0, 0.0, 0.0, -1241.7958667034945, 0.0]
['beep', 0.0, -1079.7680711469736, 0.0, 0.0, 0.0, 0.0, -1237.9960701460923, 0.0]
['beep', 0.0, -1081.176231047658, 0.0, 0.0, 0.0, 0.0, -1235.7608957005616, 0.0]
['beep', 0.0, -1082.852611881806, 0.0, 0.0, 0.0, 0.0, -1236.7667242010505, 0.0]
['beep', 0.0, -1083.0090740929932, 0.0, 0.0, 0.0, 0.0, -1237.10200036788, 0.0]
['beep', 0.0, -1084.0372543379372, 0.0, 0.0, 0.0, 0.0, -1236.9902416456034, 0.0]
['beep', 0.0, -1082.2491147815126, 0.0, 0.0, 0.0, 0.0, -1238.420753290743, 0.0]
['beep', 0.0, -1082.7408531595295, 0.0, 0.0, 0.0, 0.0, -1238.5101602685643, 0.0]
['beep', 0.0, -1084.1490130602137, 0.0, 0.0, 0.0, 0.0, -1239.3371748134107, 0.0]
['beep', 0.0, -1084.0819578268479, 0.0, 0.0, 0.0, 0.0, -1236.6326137343185, 0.0]
['beep', 0.0, -1083.6349229377417, 0.0, 0.0, 0.0, 0.0, -1236.744372456595, 0.0]
['beep', 0.0, -1084.2160682935796, 0.0, 0.0, 0.0, 0.0, -1237.4372765347096, 0.0]
['beep', 0.0, -1083.5678677043759, 0.0, 0.0, 0.0, 0.0, -1239.0242503910365, 0.0]
['beep', 0.0, -1082.0479490814148, 0.0, 0.0, 0.0, 0.0, -1238.6442707352962, 0.0]
['beep', 0.0, -1083.5678677043759, 0.0, 0.0, 0.0, 0.0, -1236.6996689676844, 0.0]
['beep', 0.0, -1082.5396874594317, 0.0, 0.0, 0.0, 0.0, -1236.9902416456034, 0.0]
['beep', 0.0, -1082.5173357149763, 0.0, 0.0, 0.0, 0.0, -1237.1914073457012, 0.0]
['beep', 0.0, -1082.8302601373507, 0.0, 0.0, 0.0, 0.0, -1238.3536980573772, 0.0]
['beep', 0.0, -1082.919667115172, 0.0, 0.0, 0.0, 0.0, -1237.6831457237179, 0.0]
['beep', 0.0, -1082.919667115172, 0.0, 0.0, 0.0, 0.0, -1236.7667242010505, 0.0]
['beep', 0.0, -1083.6349229377417, 0.0, 0.0, 0.0, 0.0, -1239.3371748134107, 0.0]
['beep', 0.0, -1083.0314258374485, 0.0, 0.0, 0.0, 0.0, -1238.0631253794581, 0.0]
['beep', 0.0, -1083.9254956156608, 0.0, 0.0, 0.0, 0.0, -1236.1408753563019, 0.0]
['beep', 0.0, -1083.366702004278, 0.0, 0.0, 0.0, 0.0, -1236.744372456595, 0.0]
['beep', 0.0, -1082.8973153707166, 0.0, 0.0, 0.0, 0.0, -1237.325517812433, 0.0]
['beep', 0.0, -1082.4726322260658, 0.0, 0.0, 0.0, 0.0, -1236.7890759455056, 0.0]
['beep', 0.0, -1082.4502804816104, 0.0, 0.0, 0.0, 0.0, -1235.2468055780896, 0.0]
['beep', 0.0, -1082.919667115172, 0.0, 0.0, 0.0, 0.0, -1235.5820817449192, 0.0]
['beep', 0.0, -1082.6737979261634, 0.0, 0.0, 0.0, 0.0, -1237.3702213013437, 0.0]
['beep', 0.0, -1082.4726322260658, 0.0, 0.0, 0.0, 0.0, -1238.4878085241091, 0.0]
['beep', 0.0, -1081.9585421035936, 0.0, 0.0, 0.0, 0.0, -1241.2147213476565, 0.0]
['beep', 0.0, -1082.8079083928953, 0.0, 0.0, 0.0, 0.0, -1244.0086894045699, 0.0]
['beep', 0.0, -1082.0032455925043, 0.0, 0.0, 0.0, 0.0, -1237.0572968789693, 0.0]
['beep', 0.0, -1082.0703008258702, 0.0, 0.0, 0.0, 0.0, -1233.7492386995839, 0.0]
['beep', 0.0, -1082.629094437253, 0.0, 0.0, 0.0, 0.0, -1236.297337567489, 0.0]
['beep', 0.0, -1081.5115072144874, 0.0, 0.0, 0.0, 0.0, -1238.3760498018326, 0.0]
['beep', 0.0, -1080.170402547169, 0.0, 0.0, 0.0, 0.0, -1238.554863757475, 0.0]
['beep', 0.0, -1080.3492165028115, 0.0, 0.0, 0.0, 0.0, -1238.8677881798492, 0.0]
['beep', 0.0, -1080.6397891807305, 0.0, 0.0, 0.0, 0.0, -1238.264291079556, 0.0]
['beep', 0.0, -1081.757376403496, 0.0, 0.0, 0.0, 0.0, -1239.0242503910365, 0.0]
['beep', 0.0, -1082.0703008258702, 0.0, 0.0, 0.0, 0.0, -1240.521817269542, 0.0]
['beep', 0.0, -1081.913838614683, 0.0, 0.0, 0.0, 0.0, -1239.717154469151, 0.0]
['beep', 0.0, -1080.0586438248927, 0.0, 0.0, 0.0, 0.0, -1239.940671913704, 0.0]
['beep', 0.0, -1080.3715682472669, 0.0, 0.0, 0.0, 0.0, -1240.3430033138995, 0.0]
['beep', 0.0, -1081.3550450033003, 0.0, 0.0, 0.0, 0.0, -1238.0854771239135, 0.0]
['beep', 0.0, -1080.2821612694456, 0.0, 0.0, 0.0, 0.0, -1239.1583608577682, 0.0]
['beep', 0.0, -1080.97506534756, 0.0, 0.0, 0.0, 0.0, -1241.5052940255755, 0.0]
['beep', 0.0, -1080.8409548808283, 0.0, 0.0, 0.0, 0.0, -1240.365355058355, 0.0]
['beep', 0.0, -1081.69032117013, 0.0, 0.0, 0.0, 0.0, -1238.8677881798492, 0.0]
['beep', 0.0, -1081.69032117013, 0.0, 0.0, 0.0, 0.0, -1241.5052940255755, 0.0]
['beep', 0.0, -1081.5115072144874, 0.0, 0.0, 0.0, 0.0, -1241.5052940255755, 0.0]
['beep', 0.0, -1082.2491147815126, 0.0, 0.0, 0.0, 0.0, -1238.8901399243045, 0.0]
['beep', 0.0, -1082.6514461817083, 0.0, 0.0, 0.0, 0.0, -1242.2876050815112, 0.0]
['beep', 0.0, -1081.332693258845, 0.0, 0.0, 0.0, 0.0, -1245.908587683271, 0.0]
['beep', 0.0, -1081.176231047658, 0.0, 0.0, 0.0, 0.0, -1238.9795469021258, 0.0]
['beep', 0.0, -1081.623265936764, 0.0, 0.0, 0.0, 0.0, -1237.8619596793603, 0.0]
['beep', 0.0, -1080.6174374362752, 0.0, 0.0, 0.0, 0.0, -1239.9630236581593, 0.0]
['beep', 0.0, -1079.723367658063, 0.0, 0.0, 0.0, 0.0, -1243.427544048732, 0.0]
['beep', 0.0, -1081.5785624478535, 0.0, 0.0, 0.0, 0.0, -1244.165151615757, 0.0]
['beep', 0.0, -1081.399748492211, 0.0, 0.0, 0.0, 0.0, -1243.360488815366, 0.0]
['beep', 0.0, -1082.7632049039848, 0.0, 0.0, 0.0, 0.0, -1244.6345382493184, 0.0]
['beep', 0.0, -1081.399748492211, 0.0, 0.0, 0.0, 0.0, -1242.7346399706173, 0.0]
['beep', 0.0, -1080.5727339473647, 0.0, 0.0, 0.0, 0.0, -1241.170017858746, 0.0]
['beep', 0.0, -1081.1315275587474, 0.0, 0.0, 0.0, 0.0, -1242.5781777594302, 0.0]
['beep', 0.0, -1081.8244316368618, 0.0, 0.0, 0.0, 0.0, -1247.361451072866, 0.0]
['beep', 0.0, -1081.1315275587474, 0.0, 0.0, 0.0, 0.0, -1242.1758463592348, 0.0]
['beep', 0.0, -1080.1256990582585, 0.0, 0.0, 0.0, 0.0, -1242.3993638037878, 0.0]
['beep', 0.0, -1080.6397891807305, 0.0, 0.0, 0.0, 0.0, -1245.7074219831732, 0.0]
['beep', 0.0, -1081.4444519811216, 0.0, 0.0, 0.0, 0.0, -1243.4051923042766, 0.0]
['beep', 0.0, -1081.4221002366662, 0.0, 0.0, 0.0, 0.0, -1243.8969306822933, 0.0]
['beep', 0.0, -1081.9585421035936, 0.0, 0.0, 0.0, 0.0, -1243.293433582, 0.0]
['beep', 0.0, -1080.97506534756, 0.0, 0.0, 0.0, 0.0, -1243.6957649821957, 0.0]
['beep', 0.0, -1082.3608735037892, 0.0, 0.0, 0.0, 0.0, -1243.9639859156594, 0.0]
['beep', 0.0, -1082.3385217593338, 0.0, 0.0, 0.0, 0.0, -1243.7404684711062, 0.0]
['beep', 0.0, -1082.5843909483422, 0.0, 0.0, 0.0, 0.0, -1244.2098551046677, 0.0]
['beep', 0.0, -1085.6018764498087, 0.0, 0.0, 0.0, 0.0, -1243.6287097488296, 0.0]
['beep', 0.0, -1084.685454927141, 0.0, 0.0, 0.0, 0.0, -1245.1709801162458, 0.0]
['beep', 0.0, -1076.59412343432, 0.0, 0.0, 0.0, 0.0, -1246.042698150003, 0.0]
['beep', 0.0, -1076.9517513456049, 0.0, 0.0, 0.0, 0.0, -1244.3886690603101, 0.0]
['beep', 0.0, -1076.9293996011495, 0.0, 0.0, 0.0, 0.0, -1243.5169510265532, 0.0]
['beep', 0.0, -1076.2811990119458, 0.0, 0.0, 0.0, 0.0, -1242.3993638037878, 0.0]
['beep', 0.0, -1078.203449035102, 0.0, 0.0, 0.0, 0.0, -1242.6675847372514, 0.0]
['beep', 0.0, -1078.046986823915, 0.0, 0.0, 0.0, 0.0, -1243.0252126485364, 0.0]
['beep', 0.0, -1078.5163734574764, 0.0, 0.0, 0.0, 0.0, -1242.6899364817068, 0.0]
['beep', 0.0, -1079.0751670688592, 0.0, 0.0, 0.0, 0.0, -1242.9805091596259, 0.0]
['beep', 0.0, -1078.9634083465826, 0.0, 0.0, 0.0, 0.0, -1245.752125472084, 0.0]
['beep', 0.0, -1078.4716699685657, 0.0, 0.0, 0.0, 0.0, -1246.3556225723771, 0.0]
['beep', 0.0, -1079.2316292800463, 0.0, 0.0, 0.0, 0.0, -1244.1875033602123, 0.0]
['beep', 0.0, -1078.9410566021272, 0.0, 0.0, 0.0, 0.0, -1243.4498957931871, 0.0]
['beep', 0.0, -1080.1256990582585, 0.0, 0.0, 0.0, 0.0, -1245.1933318607012, 0.0]
['beep', 0.0, -1080.7291961585518, 0.0, 0.0, 0.0, 0.0, -1249.1495906292905, 0.0]
['beep', 0.0, -1080.7962513919176, 0.0, 0.0, 0.0, 0.0, -1247.9202446842487, 0.0]
['beep', 0.0, -1080.528030458454, 0.0, 0.0, 0.0, 0.0, -1243.3381370709108, 0.0]
['beep', 0.0, -1080.2598095249903, 0.0, 0.0, 0.0, 0.0, -1244.4780760381313, 0.0]
['beep', 0.0, -1081.0197688364708, 0.0, 0.0, 0.0, 0.0, -1246.713250483662, 0.0]
['beep', 0.0, -1080.9080101141942, 0.0, 0.0, 0.0, 0.0, -1246.0203464055476, 0.0]
['beep', 0.0, -1081.466803725577, 0.0, 0.0, 0.0, 0.0, -1246.713250483662, 0.0]
['beep', 0.0, -1081.176231047658, 0.0, 0.0, 0.0, 0.0, -1248.7919627180056, 0.0]
['beep', 0.0, -1081.4444519811216, 0.0, 0.0, 0.0, 0.0, -1248.680203995729, 0.0]
['beep', 0.0, -1081.5785624478535, 0.0, 0.0, 0.0, 0.0, -1246.6908987392067, 0.0]
['beep', 0.0, -1082.2938182704233, 0.0, 0.0, 0.0, 0.0, -1245.0815731384246, 0.0]
['beep', 0.0, -1082.9643706040824, 0.0, 0.0, 0.0, 0.0, -1245.8191807054498, 0.0]
['beep', 0.0, -1082.6514461817083, 0.0, 0.0, 0.0, 0.0, -1247.0485266504916, 0.0]
['beep', 0.0, -1082.427928737155, 0.0, 0.0, 0.0, 0.0, -1248.5684452734524, 0.0]
['beep', 0.0, -1083.9701991045713, 0.0, 0.0, 0.0, 0.0, -1248.3449278288995, 0.0]
['beep', 0.0, -1084.9760276050602, 0.0, 0.0, 0.0, 0.0, -1248.456686551176, 0.0]
['beep', 0.0, -1085.2218967940685, 0.0, 0.0, 0.0, 0.0, -1247.2049888616789, 0.0]
['beep', 0.0, -1084.8419171383282, 0.0, 0.0, 0.0, 0.0, -1246.9367679282152, 0.0]
['beep', 0.0, -1085.0877863273367, 0.0, 0.0, 0.0, 0.0, -1247.361451072866, 0.0]
['beep', 0.0, -1084.528992715954, 0.0, 0.0, 0.0, 0.0, -1247.0932301394023, 0.0]
['beep', 0.0, -1085.8700973832724, 0.0, 0.0, 0.0, 0.0, -1252.234131364123, 0.0]
['beep', 0.0, -1085.981856105549, 0.0, 0.0, 0.0, 0.0, -1254.3798988318324, 0.0]
['beep', 0.0, -1084.1937165491245, 0.0, 0.0, 0.0, 0.0, -1246.5344365280196, 0.0]
['beep', 0.0, -1084.5513444604094, 0.0, 0.0, 0.0, 0.0, -1244.0757446379357, 0.0]
['beep', 0.0, -1085.0207310939707, 0.0, 0.0, 0.0, 0.0, -1245.618015005352, 0.0]
['beep', 0.0, -1084.3278270158562, 0.0, 0.0, 0.0, 0.0, -1246.9367679282152, 0.0]
['beep', 0.0, -1085.7136351720853, 0.0, 0.0, 0.0, 0.0, -1247.4508580506872, 0.0]
['beep', 0.0, -1085.4230624941663, 0.0, 0.0, 0.0, 0.0, -1248.4119830622653, 0.0]
['beep', 0.0, -1084.5960479493199, 0.0, 0.0, 0.0, 0.0, -1249.48486679612, 0.0]
['beep', 0.0, -1085.8700973832724, 0.0, 0.0, 0.0, 0.0, -1249.5966255183966, 0.0]
['beep', 0.0, -1086.0489113389149, 0.0, 0.0, 0.0, 0.0, -1249.261349351567, 0.0]
['beep', 0.0, -1085.4901177275322, 0.0, 0.0, 0.0, 0.0, -1249.1495906292905, 0.0]
['beep', 0.0, -1085.4677659830768, 0.0, 0.0, 0.0, 0.0, -1248.3002243399887, 0.0]
['beep', 0.0, -1085.4230624941663, 0.0, 0.0, 0.0, 0.0, -1247.875541195338, 0.0]
['beep', 0.0, -1084.685454927141, 0.0, 0.0, 0.0, 0.0, -1248.5907970179078, 0.0]
['beep', 0.0, -1085.2889520274343, 0.0, 0.0, 0.0, 0.0, -1248.2555208510782, 0.0]
['beep', 0.0, -1084.7078066715965, 0.0, 0.0, 0.0, 0.0, -1248.2778725955336, 0.0]
['beep', 0.0, -1084.2607717824903, 0.0, 0.0, 0.0, 0.0, -1248.2331691066229, 0.0]
['beep', 0.0, -1085.199545049613, 0.0, 0.0, 0.0, 0.0, -1249.976605174137, 0.0]
['beep', 0.0, -1083.232591537546, 0.0, 0.0, 0.0, 0.0, -1249.3731080738435, 0.0]
['beep', 0.0, -1085.624228194264, 0.0, 0.0, 0.0, 0.0, -1247.7190789841509, 0.0]
['beep', 0.0, -1084.8642688827836, 0.0, 0.0, 0.0, 0.0, -1247.9425964287038, 0.0]
['beep', 0.0, -1083.4114054931886, 0.0, 0.0, 0.0, 0.0, -1248.0767068954358, 0.0]
['beep', 0.0, -1085.2666002829792, 0.0, 0.0, 0.0, 0.0, -1248.38963131781, 0.0]
['beep', 0.0, -1087.2335537950462, 0.0, 0.0, 0.0, 0.0, -1247.4508580506872, 0.0]
['beep', 0.0, -1086.1159665722807, 0.0, 0.0, 0.0, 0.0, -1247.808485961972, 0.0]
['beep', 0.0, -1084.7972136494177, 0.0, 0.0, 0.0, 0.0, -1247.227340606134, 0.0]
['beep', 0.0, -1086.4735944835656, 0.0, 0.0, 0.0, 0.0, -1247.7190789841509, 0.0]
['beep', 0.0, -1086.8088706503954, 0.0, 0.0, 0.0, 0.0, -1249.1048871403798, 0.0]
['beep', 0.0, -1086.2500770390127, 0.0, 0.0, 0.0, 0.0, -1246.8250092059386, 0.0]
['beep', 0.0, -1086.2947805279232, 0.0, 0.0, 0.0, 0.0, -1245.1262766273353, 0.0]
['beep', 0.0, -1086.2500770390127, 0.0, 0.0, 0.0, 0.0, -1244.1427998713018, 0.0]
['beep', 0.0, -1086.0042078500041, 0.0, 0.0, 0.0, 0.0, -1243.1816748597234, 0.0]
['beep', 0.0, -1086.9876846060379, 0.0, 0.0, 0.0, 0.0, -1245.1933318607012, 0.0]
['beep', 0.0, -1087.1217950727696, 0.0, 0.0, 0.0, 0.0, -1246.713250483662, 0.0]
['beep', 0.0, -1086.0042078500041, 0.0, 0.0, 0.0, 0.0, -1245.3721458163436, 0.0]
['beep', 0.0, -1086.3171322723786, 0.0, 0.0, 0.0, 0.0, -1245.10392488288, 0.0]
['beep', 0.0, -1086.3171322723786, 0.0, 0.0, 0.0, 0.0, -1245.5286080275307, 0.0]
['beep', 0.0, -1086.6747601836635, 0.0, 0.0, 0.0, 0.0, -1244.232206849123, 0.0]
['beep', 0.0, -1091.4803852415546, 0.0, 0.0, 0.0, 0.0, -1244.4780760381313, 0.0]
['beep', 0.0, -1090.6310189522528, 0.0, 0.0, 0.0, 0.0, -1243.6734132377403, 0.0]
['beep', 0.0, -1080.59508569182, 0.0, 0.0, 0.0, 0.0, -1234.7550672000727, 0.0]
['beep', 0.0, -1075.8341641228396, 0.0, 0.0, 0.0, 0.0, -1221.5004827380756, 0.0]
['beep', 0.0, -1080.170402547169, 0.0, 0.0, 0.0, 0.0, -1210.5928314438859, 0.0]
['beep', 0.0, -1079.2986845134121, 0.0, 0.0, 0.0, 0.0, -1199.2604970050452, 0.0]
['beep', 0.0, -1075.4988879560099, 0.0, 0.0, 0.0, 0.0, -1185.4694706761206, 0.0]
['beep', 0.0, -1073.0848995548367, 0.0, 0.0, 0.0, 0.0, -1171.4102234137326, 0.0]
['beep', 0.0, -1068.7933646194178, 0.0, 0.0, 0.0, 0.0, -1156.1886854396685, 0.0]
['beep', 0.0, -1067.0499285519038, 0.0, 0.0, 0.0, 0.0, -1140.0954294318474, 0.0]
['beep', 0.0, -1069.3521582308006, 0.0, 0.0, 0.0, 0.0, -1125.298574602434, 0.0]
['beep', 0.0, -1065.9993965625044, 0.0, 0.0, 0.0, 0.0, -1111.8428244403392, 0.0]
['beep', 0.0, -1064.7924023619178, 0.0, 0.0, 0.0, 0.0, -1097.2247835665685, 0.0]
['beep', 0.0, -1064.5465331729094, 0.0, 0.0, 0.0, 0.0, -1082.3161700148785, 0.0]
['beep', 0.0, -1064.9265128286497, 0.0, 0.0, 0.0, 0.0, -1068.1898675191246, 0.0]
['beep', 0.0, -1067.4746116965548, 0.0, 0.0, 0.0, 0.0, -1054.9799865460382, 0.0]
['beep', 0.0, -1064.5465331729094, 0.0, 0.0, 0.0, 0.0, -1044.0052800184824, 0.0]
['beep', 0.0, -1065.8652860957725, 0.0, 0.0, 0.0, 0.0, -1030.3483641562896, 0.0]
['beep', 0.0, -1063.4065942056889, 0.0, 0.0, 0.0, 0.0, -1016.6020413162759, 0.0]
['beep', 0.0, -1063.3618907167781, 0.0, 0.0, 0.0, 0.0, -1005.5826312998095, 0.0]
['beep', 0.0, -1065.820582606862, 0.0, 0.0, 0.0, 0.0, -996.5301747954101, 0.0]
['beep', 0.0, -1065.172382017658, 0.0, 0.0, 0.0, 0.0, -983.6332182446979, 0.0]
['beep', 0.0, -1061.6408063937195, 0.0, 0.0, 0.0, 0.0, -975.4077762851449, 0.0]
['beep', 0.0, -1058.6009691477977, 0.0, 0.0, 0.0, 0.0, -972.1891250835807, 0.0]
['beep', 0.0, -1058.466858681066, 0.0, 0.0, 0.0, 0.0, -968.4340320150891, 0.0]
['beep', 0.0, -1057.30456796939, 0.0, 0.0, 0.0, 0.0, -964.6789389465976, 0.0]
['beep', 0.0, -1055.4940766685102, 0.0, 0.0, 0.0, 0.0, -963.7178139350193, 0.0]
['beep', 0.0, -1053.013033033971, 0.0, 0.0, 0.0, 0.0, -963.404889512645, 0.0]
['beep', 0.0, -1049.8614370657726, 0.0, 0.0, 0.0, 0.0, -961.7732121674076, 0.0]
['beep', 0.0, -1049.1238294987477, 0.0, 0.0, 0.0, 0.0, -960.85679064474, 0.0]
['beep', 0.0, -1046.888655053217, 0.0, 0.0, 0.0, 0.0, -962.6896336900752, 0.0]
['beep', 0.0, -1044.631128863231, 0.0, 0.0, 0.0, 0.0, -964.6342354576869, 0.0]
['beep', 0.0, -1043.5805968738314, 0.0, 0.0, 0.0, 0.0, -969.082232604293, 0.0]
['beep', 0.0, -1042.083029995326, 0.0, 0.0, 0.0, 0.0, -972.0550146168489, 0.0]
['beep', 0.0, -1042.0383265064152, 0.0, 0.0, 0.0, 0.0, -974.8936861626728, 0.0]
['beep', 0.0, -1042.6641753511637, 0.0, 0.0, 0.0, 0.0, -983.0520728888599, 0.0]
['beep', 0.0, -1042.8653410512616, 0.0, 0.0, 0.0, 0.0, -988.8635264472398, 0.0]
['beep', 0.0, -1041.4795328950327, 0.0, 0.0, 0.0, 0.0, -992.2833433489018, 0.0]
['beep', 0.0, -1041.5465881283985, 0.0, 0.0, 0.0, 0.0, -996.4631195620442, 0.0]
['beep', 0.0, -1039.244358449502, 0.0, 0.0, 0.0, 0.0, -1002.8110149873513, 0.0]
['beep', 0.0, -1037.9926607600046, 0.0, 0.0, 0.0, 0.0, -1009.2706691349351, 0.0]
['beep', 0.0, -1039.5125793829657, 0.0, 0.0, 0.0, 0.0, -1013.8974802371837, 0.0]
['beep', 0.0, -1039.400820660689, 0.0, 0.0, 0.0, 0.0, -1017.3396488833009, 0.0]
['beep', 0.0, -1038.7526200714851, 0.0, 0.0, 0.0, 0.0, -1022.2570326634685, 0.0]
['beep', 0.0, -1038.3279369268344, 0.0, 0.0, 0.0, 0.0, -1026.1685879431473, 0.0]
['beep', 0.0, -1037.6797363376304, 0.0, 0.0, 0.0, 0.0, -1028.2025966885801, 0.0]
['beep', 0.0, -1038.4396956491107, 0.0, 0.0, 0.0, 0.0, -1031.756524056974, 0.0]
['beep', 0.0, -1039.4455241495996, 0.0, 0.0, 0.0, 0.0, -1034.8634165362616, 0.0]
['beep', 0.0, -1039.1549514716808, 0.0, 0.0, 0.0, 0.0, -1038.305585182379, 0.0]
['beep', 0.0, -1037.947957271094, 0.0, 0.0, 0.0, 0.0, -1040.853684050284, 0.0]
['beep', 0.0, -1037.9703090155494, 0.0, 0.0, 0.0, 0.0, -1044.0946869963036, 0.0]
['beep', 0.0, -1037.9926607600046, 0.0, 0.0, 0.0, 0.0, -1047.559207386876, 0.0]
['beep', 0.0, -1037.9032537821834, 0.0, 0.0, 0.0, 0.0, -1048.565035887365, 0.0]
['beep', 0.0, -1037.8809020377282, 0.0, 0.0, 0.0, 0.0, -1048.788553331918, 0.0]
['beep', 0.0, -1037.2550531929796, 0.0, 0.0, 0.0, 0.0, -1052.1189632557587, 0.0]
['beep', 0.0, -1036.8750735372394, 0.0, 0.0, 0.0, 0.0, -1054.1976754901023, 0.0]
['beep', 0.0, -1036.7186113260523, 0.0, 0.0, 0.0, 0.0, -1055.3152627128677, 0.0]
['beep', 0.0, -1037.6126811042645, 0.0, 0.0, 0.0, 0.0, -1055.8964080687056, 0.0]
['beep', 0.0, -1038.953785771583, 0.0, 0.0, 0.0, 0.0, -1056.723422613552, 0.0]
['beep', 0.0, -1037.500922381988, 0.0, 0.0, 0.0, 0.0, -1059.7185563705632, 0.0]
['beep', 0.0, -1037.4562188930772, 0.0, 0.0, 0.0, 0.0, -1060.9031988266945, 0.0]
['beep', 0.0, -1038.2832334379236, 0.0, 0.0, 0.0, 0.0, -1061.819620349362, 0.0]
['beep', 0.0, -1036.6515560926862, 0.0, 0.0, 0.0, 0.0, -1062.914855827672, 0.0]
['beep', 0.0, -1036.1374659702142, 0.0, 0.0, 0.0, 0.0, -1063.6301116502418, 0.0]
['beep', 0.0, -1036.0257072479376, 0.0, 0.0, 0.0, 0.0, -1065.172382017658, 0.0]
['beep', 0.0, -1036.0927624813037, 0.0, 0.0, 0.0, 0.0, -1065.7758791179513, 0.0]
['beep', 0.0, -1035.7127828255634, 0.0, 0.0, 0.0, 0.0, -1066.3123209848786, 0.0]
['beep', 0.0, -1035.1539892141807, 0.0, 0.0, 0.0, 0.0, -1066.8934663407167, 0.0]
['beep', 0.0, -1036.3162799258566, 0.0, 0.0, 0.0, 0.0, -1068.2569227524905, 0.0]
['beep', 0.0, -1036.2939281814013, 0.0, 0.0, 0.0, 0.0, -1069.5756756753535, 0.0]
['beep', 0.0, -1035.4222101476444, 0.0, 0.0, 0.0, 0.0, -1070.5368006869317, 0.0]
['beep', 0.0, -1034.9304717696275, 0.0, 0.0, 0.0, 0.0, -1072.0790710543479, 0.0]
['beep', 0.0, -1034.4610851360662, 0.0, 0.0, 0.0, 0.0, -1072.5708094323647, 0.0]
['beep', 0.0, -1035.019878747449, 0.0, 0.0, 0.0, 0.0, -1069.4192134641664, 0.0]
['beep', 0.0, -1035.4892653810102, 0.0, 0.0, 0.0, 0.0, -1070.916780342672, 0.0]
['beep', 0.0, -1035.1316374697253, 0.0, 0.0, 0.0, 0.0, -1071.9226088431608, 0.0]
['beep', 0.0, -1035.5116171254656, 0.0, 0.0, 0.0, 0.0, -1070.849725109306, 0.0]
['beep', 0.0, -1035.2657479364573, 0.0, 0.0, 0.0, 0.0, -1072.3472919878116, 0.0]
['beep', 0.0, -1033.8352362913176, 0.0, 0.0, 0.0, 0.0, -1073.1296030437475, 0.0]
['beep', 0.0, -1032.5164833684544, 0.0, 0.0, 0.0, 0.0, -1070.8944285982168, 0.0]
['beep', 0.0, -1031.10832346777, 0.0, 0.0, 0.0, 0.0, -1069.6650826531747, 0.0]
['beep', 0.0, -1036.6068526037757, 0.0, 0.0, 0.0, 0.0, -1066.3793762182447, 0.0]
['beep', 0.0, -1040.3842974167226, 0.0, 0.0, 0.0, 0.0, -1061.752565115996, 0.0]
['beep', 0.0, -1042.1724369731471, 0.0, 0.0, 0.0, 0.0, -1055.9858150465268, 0.0]
['beep', 0.0, -1045.2346259635242, 0.0, 0.0, 0.0, 0.0, -1052.2977772114011, 0.0]
['beep', 0.0, -1048.6097393762755, 0.0, 0.0, 0.0, 0.0, -1052.3424807003119, 0.0]
['beep', 0.0, -1048.8109050763733, 0.0, 0.0, 0.0, 0.0, -1050.5096376549766, 0.0]
['beep', 0.0, -1050.4872859105212, 0.0, 0.0, 0.0, 0.0, -1045.30168119689, 0.0]
['beep', 0.0, -1050.9566725440827, 0.0, 0.0, 0.0, 0.0, -1044.8769980522393, 0.0]
['beep', 0.0, -1049.4144021766665, 0.0, 0.0, 0.0, 0.0, -1046.2181027195577, 0.0]
['beep', 0.0, -1049.8390853213175, 0.0, 0.0, 0.0, 0.0, -1049.1908847321135, 0.0]
['beep', 0.0, -1049.9955475325046, 0.0, 0.0, 0.0, 0.0, -1051.6495766221974, 0.0]
['beep', 0.0, -1048.6097393762755, 0.0, 0.0, 0.0, 0.0, -1052.7448121005073, 0.0]
['beep', 0.0, -1049.883788810228, 0.0, 0.0, 0.0, 0.0, -1054.8235243348508, 0.0]
['beep', 0.0, -1050.6213963772532, 0.0, 0.0, 0.0, 0.0, -1057.8633615807726, 0.0]
['beep', 0.0, -1050.8896173107169, 0.0, 0.0, 0.0, 0.0, -1058.5339139144319, 0.0]
['beep', 0.0, -1049.6379196212197, 0.0, 0.0, 0.0, 0.0, -1059.8303150928398, 0.0]
['beep', 0.0, -1049.2579399654794, 0.0, 0.0, 0.0, 0.0, -1061.0596610378816, 0.0]
['beep', 0.0, -1049.7049748545855, 0.0, 0.0, 0.0, 0.0, -1061.2161232490687, 0.0]
['beep', 0.0, -1050.755506843985, 0.0, 0.0, 0.0, 0.0, -1060.1655912596693, 0.0]
['beep', 0.0, -1051.5154661554654, 0.0, 0.0, 0.0, 0.0, -1060.5232191709542, 0.0]
['beep', 0.0, -1051.0013760329934, 0.0, 0.0, 0.0, 0.0, -1061.082012782337, 0.0]
['beep', 0.0, -1051.0237277774488, 0.0, 0.0, 0.0, 0.0, -1062.7807453609403, 0.0]
['beep', 0.0, -1051.694280111108, 0.0, 0.0, 0.0, 0.0, -1063.9430360726162, 0.0]
['beep', 0.0, -1051.7836870889291, 0.0, 0.0, 0.0, 0.0, -1064.144201772714, 0.0]
['beep', 0.0, -1051.2248934775464, 0.0, 0.0, 0.0, 0.0, -1065.5970651623088, 0.0]
['beep', 0.0, -1050.7778585884403, 0.0, 0.0, 0.0, 0.0, -1066.982873318538, 0.0]
['beep', 0.0, -1051.627224877742, 0.0, 0.0, 0.0, 0.0, -1065.4406029511217, 0.0]
['beep', 0.0, -1051.5825213888313, 0.0, 0.0, 0.0, 0.0, -1061.7972686049068, 0.0]
['beep', 0.0, -1052.3201289558565, 0.0, 0.0, 0.0, 0.0, -1063.0936697833145, 0.0]
['beep', 0.0, -1053.1247917562475, 0.0, 0.0, 0.0, 0.0, -1064.2559604949904, 0.0]
['beep', 0.0, -1052.2977772114011, 0.0, 0.0, 0.0, 0.0, -1065.3735477177559, 0.0]
['beep', 0.0, -1051.984852789027, 0.0, 0.0, 0.0, 0.0, -1065.5523616733983, 0.0]
['beep', 0.0, -1052.3648324447672, 0.0, 0.0, 0.0, 0.0, -1066.7593558739848, 0.0]
['beep', 0.0, -1052.5212946559543, 0.0, 0.0, 0.0, 0.0, -1067.0499285519038, 0.0]
['beep', 0.0, -1053.013033033971, 0.0, 0.0, 0.0, 0.0, -1066.2676174959681, 0.0]
['beep', 0.0, -1053.147143500703, 0.0, 0.0, 0.0, 0.0, -1065.4853064400324, 0.0]
['beep', 0.0, -1051.2472452220018, 0.0, 0.0, 0.0, 0.0, -1065.5970651623088, 0.0]
['beep', 0.0, -1052.4095359336777, 0.0, 0.0, 0.0, 0.0, -1065.977044818049, 0.0]
['beep', 0.0, -1051.180189988636, 0.0, 0.0, 0.0, 0.0, -1066.491134940521, 0.0]
['beep', 0.0, -1051.0684312663593, 0.0, 0.0, 0.0, 0.0, -1066.7817076184401, 0.0]
['beep', 0.0, -1050.5543411438873, 0.0, 0.0, 0.0, 0.0, -1068.145164030214, 0.0]
['beep', 0.0, -1051.984852789027, 0.0, 0.0, 0.0, 0.0, -1068.2569227524905, 0.0]
['beep', 0.0, -1050.2637684659683, 0.0, 0.0, 0.0, 0.0, -1068.2345710080351, 0.0]
['beep', 0.0, -1049.2579399654794, 0.0, 0.0, 0.0, 0.0, -1066.8264111073509, 0.0]
['beep', 0.0, -1051.336652199823, 0.0, 0.0, 0.0, 0.0, -1067.429908207644, 0.0]
['beep', 0.0, -1051.4037074331889, 0.0, 0.0, 0.0, 0.0, -1070.4697454535658, 0.0]
['beep', 0.0, -1050.9566725440827, 0.0, 0.0, 0.0, 0.0, -1070.335634986834, 0.0]
['beep', 0.0, -1050.5096376549766, 0.0, 0.0, 0.0, 0.0, -1070.2909314979233, 0.0]
['beep', 0.0, -1051.6719283666525, 0.0, 0.0, 0.0, 0.0, -1069.8662483532726, 0.0]
['beep', 0.0, -1049.7943818324068, 0.0, 0.0, 0.0, 0.0, -1069.3298064863452, 0.0]
['beep', 0.0, -1049.9061405546834, 0.0, 0.0, 0.0, 0.0, -1069.7991931199067, 0.0]
['beep', 0.0, -1049.7496783434963, 0.0, 0.0, 0.0, 0.0, -1068.5474954304095, 0.0]
['beep', 0.0, -1050.3531754437895, 0.0, 0.0, 0.0, 0.0, -1069.68743439763, 0.0]
['beep', 0.0, -1050.174361488147, 0.0, 0.0, 0.0, 0.0, -1069.240399508524, 0.0]
['beep', 0.0, -1050.01789927696, 0.0, 0.0, 0.0, 0.0, -1069.3298064863452, 0.0]
['beep', 0.0, -1050.531989399432, 0.0, 0.0, 0.0, 0.0, -1071.207353020591, 0.0]
['beep', 0.0, -1050.9343207996276, 0.0, 0.0, 0.0, 0.0, -1071.654387909697, 0.0]
['beep', 0.0, -1050.9566725440827, 0.0, 0.0, 0.0, 0.0, -1071.4085187206888, 0.0]
['beep', 0.0, -1050.0626027658705, 0.0, 0.0, 0.0, 0.0, -1072.3919954767223, 0.0]
['beep', 0.0, -1050.4202306771554, 0.0, 0.0, 0.0, 0.0, -1071.9896640765267, 0.0]
['beep', 0.0, -1049.6826231101302, 0.0, 0.0, 0.0, 0.0, -1072.5484576879094, 0.0]
['beep', 0.0, -1050.2861202104236, 0.0, 0.0, 0.0, 0.0, -1073.1966582771133, 0.0]
['beep', 0.0, -1052.789515589418, 0.0, 0.0, 0.0, 0.0, -1075.9235711006609, 0.0]
['beep', 0.0, -1055.270559223957, 0.0, 0.0, 0.0, 0.0, -1074.6942251556188, 0.0]
['beep', 0.0, -1050.2190649770575, 0.0, 0.0, 0.0, 0.0, -1073.4201757216663, 0.0]
['beep', 0.0, -1046.0616405083706, 0.0, 0.0, 0.0, 0.0, -1071.5873326763312, 0.0]
['beep', 0.0, -1047.268634708957, 0.0, 0.0, 0.0, 0.0, -1073.30841699939, 0.0]
['beep', 0.0, -1047.6039108757868, 0.0, 0.0, 0.0, 0.0, -1074.917742600172, 0.0]
['beep', 0.0, -1047.0898207533146, 0.0, 0.0, 0.0, 0.0, -1076.3929577342221, 0.0]
['beep', 0.0, -1047.6486143646973, 0.0, 0.0, 0.0, 0.0, -1075.2306670225462, 0.0]
['beep', 0.0, -1047.8944835537056, 0.0, 0.0, 0.0, 0.0, -1075.0518530669037, 0.0]
['beep', 0.0, -1047.1792277311358, 0.0, 0.0, 0.0, 0.0, -1076.5494199454095, 0.0]
['beep', 0.0, -1046.8663033087616, 0.0, 0.0, 0.0, 0.0, -1078.8740013687614, 0.0]
['beep', 0.0, -1048.721498098552, 0.0, 0.0, 0.0, 0.0, -1077.4434897236217, 0.0]
['beep', 0.0, -1048.0062422759822, 0.0, 0.0, 0.0, 0.0, -1078.046986823915, 0.0]
['beep', 0.0, -1047.9615387870717, 0.0, 0.0, 0.0, 0.0, -1076.2811990119458, 0.0]
['beep', 0.0, -1048.050945764893, 0.0, 0.0, 0.0, 0.0, -1077.398786234711, 0.0]
['beep', 0.0, -1047.7156695980632, 0.0, 0.0, 0.0, 0.0, -1077.2646757679793, 0.0]
['beep', 0.0, -1047.7827248314293, 0.0, 0.0, 0.0, 0.0, -1076.6164751787753, 0.0]
['beep', 0.0, -1048.5873876318203, 0.0, 0.0, 0.0, 0.0, -1076.8399926233283, 0.0]
['beep', 0.0, -1047.7380213425186, 0.0, 0.0, 0.0, 0.0, -1080.460975225088, 0.0]
['beep', 0.0, -1047.6039108757868, 0.0, 0.0, 0.0, 0.0, -1075.9906263340267, 0.0]
['beep', 0.0, -1047.4474486645995, 0.0, 0.0, 0.0, 0.0, -1076.4823647120434, 0.0]
['beep', 0.0, -1047.7156695980632, 0.0, 0.0, 0.0, 0.0, -1077.5999519348088, 0.0]
['beep', 0.0, -1047.7156695980632, 0.0, 0.0, 0.0, 0.0, -1077.8234693793618, 0.0]
['beep', 0.0, -1048.274463209446, 0.0, 0.0, 0.0, 0.0, -1077.8905246127279, 0.0]
['beep', 0.0, -1048.2521114649905, 0.0, 0.0, 0.0, 0.0, -1077.108213556792, 0.0]
['beep', 0.0, -1048.0285940204376, 0.0, 0.0, 0.0, 0.0, -1077.175268790158, 0.0]
['beep', 0.0, -1047.0004137754934, 0.0, 0.0, 0.0, 0.0, -1078.4493182241104, 0.0]
['beep', 0.0, -1047.3133381978678, 0.0, 0.0, 0.0, 0.0, -1079.1198705577697, 0.0]
['beep', 0.0, -1046.7098410975743, 0.0, 0.0, 0.0, 0.0, -1079.008111835493, 0.0]
['beep', 0.0, -1047.6486143646973, 0.0, 0.0, 0.0, 0.0, -1079.2986845134121, 0.0]
['beep', 0.0, -1048.788553331918, 0.0, 0.0, 0.0, 0.0, -1078.9187048576719, 0.0]
['beep', 0.0, -1048.0956492538035, 0.0, 0.0, 0.0, 0.0, -1081.1985827921133, 0.0]
['beep', 0.0, -1048.430925420633, 0.0, 0.0, 0.0, 0.0, -1080.97506534756, 0.0]
['beep', 0.0, -1048.3415184428118, 0.0, 0.0, 0.0, 0.0, -1081.332693258845, 0.0]
['beep', 0.0, -1048.4532771650884, 0.0, 0.0, 0.0, 0.0, -1081.9361903591384, 0.0]
['beep', 0.0, -1048.2297597205354, 0.0, 0.0, 0.0, 0.0, -1081.7126729145853, 0.0]
['beep', 0.0, -1050.241416721513, 0.0, 0.0, 0.0, 0.0, -1081.4221002366662, 0.0]
['beep', 0.0, -1049.6155678767643, 0.0, 0.0, 0.0, 0.0, -1081.5785624478535, 0.0]
['beep', 0.0, -1049.1685329876582, 0.0, 0.0, 0.0, 0.0, -1081.176231047658, 0.0]
['beep', 0.0, -1049.1908847321135, 0.0, 0.0, 0.0, 0.0, -1081.466803725577, 0.0]
['beep', 0.0, -1049.9508440435939, 0.0, 0.0, 0.0, 0.0, -1082.2938182704233, 0.0]
['beep', 0.0, -1050.1073062547812, 0.0, 0.0, 0.0, 0.0, -1081.4444519811216, 0.0]
['beep', 0.0, -1049.6826231101302, 0.0, 0.0, 0.0, 0.0, -1079.1198705577697, 0.0]
['beep', 0.0, -1048.9450155431052, 0.0, 0.0, 0.0, 0.0, -1079.723367658063, 0.0]
['beep', 0.0, -1049.5485126433985, 0.0, 0.0, 0.0, 0.0, -1080.662140925186, 0.0]
['beep', 0.0, -1050.464934166066, 0.0, 0.0, 0.0, 0.0, -1080.8409548808283, 0.0]
['beep', 0.0, -1049.213236476569, 0.0, 0.0, 0.0, 0.0, -1081.9585421035936, 0.0]
['beep', 0.0, -1050.688451610619, 0.0, 0.0, 0.0, 0.0, -1082.0479490814148, 0.0]
['beep', 0.0, -1049.9731957880492, 0.0, 0.0, 0.0, 0.0, -1080.528030458454, 0.0]
['beep', 0.0, -1049.7943818324068, 0.0, 0.0, 0.0, 0.0, -1082.0926525703255, 0.0]
['beep', 0.0, -1049.213236476569, 0.0, 0.0, 0.0, 0.0, -1082.0703008258702, 0.0]
['beep', 0.0, -1048.5873876318203, 0.0, 0.0, 0.0, 0.0, -1081.8244316368618, 0.0]
['beep', 0.0, -1048.2521114649905, 0.0, 0.0, 0.0, 0.0, -1081.757376403496, 0.0]
['beep', 0.0, -1048.2968149539013, 0.0, 0.0, 0.0, 0.0, -1082.1820595481468, 0.0]
['beep', 0.0, -1046.3745649307448, 0.0, 0.0, 0.0, 0.0, -1081.0197688364708, 0.0]
['beep', 0.0, -1046.3298614418343, 0.0, 0.0, 0.0, 0.0, -1081.176231047658, 0.0]
['beep', 0.0, -1047.0674690088595, 0.0, 0.0, 0.0, 0.0, -1082.2938182704233, 0.0]
['beep', 0.0, -1047.0898207533146, 0.0, 0.0, 0.0, 0.0, -1082.6961496706188, 0.0]
['beep', 0.0, -1047.7156695980632, 0.0, 0.0, 0.0, 0.0, -1083.5008124710098, 0.0]
['beep', 0.0, -1047.0004137754934, 0.0, 0.0, 0.0, 0.0, -1082.1820595481468, 0.0]
['beep', 0.0, -1047.8721318092505, 0.0, 0.0, 0.0, 0.0, -1081.0197688364708, 0.0]
['beep', 0.0, -1046.4416201641106, 0.0, 0.0, 0.0, 0.0, -1082.2938182704233, 0.0]
['beep', 0.0, -1045.7710678304516, 0.0, 0.0, 0.0, 0.0, -1083.143184559725, 0.0]
['beep', 0.0, -1046.9780620310382, 0.0, 0.0, 0.0, 0.0, -1083.2549432820015, 0.0]
['beep', 0.0, -1047.1568759866807, 0.0, 0.0, 0.0, 0.0, -1084.528992715954, 0.0]
['beep', 0.0, -1048.050945764893, 0.0, 0.0, 0.0, 0.0, -1084.8419171383282, 0.0]
['beep', 0.0, -1047.3133381978678, 0.0, 0.0, 0.0, 0.0, -1085.043082838426, 0.0]
['beep', 0.0, -1046.9780620310382, 0.0, 0.0, 0.0, 0.0, -1084.7748619049623, 0.0]
['beep', 0.0, -1046.6427858642085, 0.0, 0.0, 0.0, 0.0, -1083.6125711932864, 0.0]
['beep', 0.0, -1047.4250969201444, 0.0, 0.0, 0.0, 0.0, -1083.7466816600183, 0.0]
['beep', 0.0, -1046.6651376086638, 0.0, 0.0, 0.0, 0.0, -1085.7806904054512, 0.0]
['beep', 0.0, -1048.0062422759822, 0.0, 0.0, 0.0, 0.0, -1085.3783590052556, 0.0]
['beep', 0.0, -1047.2239312200466, 0.0, 0.0, 0.0, 0.0, -1084.685454927141, 0.0]
['beep', 0.0, -1049.6826231101302, 0.0, 0.0, 0.0, 0.0, -1085.5348212164429, 0.0]
['beep', 0.0, -1049.7049748545855, 0.0, 0.0, 0.0, 0.0, -1085.847745638817, 0.0]
['beep', 0.0, -1048.8332568208286, 0.0, 0.0, 0.0, 0.0, -1085.333655516345, 0.0]
['beep', 0.0, -1047.7156695980632, 0.0, 0.0, 0.0, 0.0, -1086.361835761289, 0.0]
['beep', 0.0, -1048.788553331918, 0.0, 0.0, 0.0, 0.0, -1086.0265595944595, 0.0]
['beep', 0.0, -1050.5766928883424, 0.0, 0.0, 0.0, 0.0, -1086.4288909946551, 0.0]
['beep', 0.0, -1049.369698687756, 0.0, 0.0, 0.0, 0.0, -1087.792347406429, 0.0]
['beep', 0.0, -1047.5145038979656, 0.0, 0.0, 0.0, 0.0, -1086.2724287834678, 0.0]
['beep', 0.0, -1046.9333585421275, 0.0, 0.0, 0.0, 0.0, -1086.7641671614847, 0.0]
['beep', 0.0, -1047.0898207533146, 0.0, 0.0, 0.0, 0.0, -1089.0216933514707, 0.0]
['beep', 0.0, -1046.620434119753, 0.0, 0.0, 0.0, 0.0, -1089.0216933514707, 0.0]
['beep', 0.0, -1046.106343997281, 0.0, 0.0, 0.0, 0.0, -1087.0323880949484, 0.0]
['beep', 0.0, -1043.7817625739292, 0.0, 0.0, 0.0, 0.0, -1087.2112020505908, 0.0]
['beep', 0.0, -1043.7370590850187, 0.0, 0.0, 0.0, 0.0, -1086.7641671614847, 0.0]
['beep', 0.0, -1045.793419574907, 0.0, 0.0, 0.0, 0.0, -1086.8312223948506, 0.0]
['beep', 0.0, -1047.7156695980632, 0.0, 0.0, 0.0, 0.0, -1087.0323880949484, 0.0]
['beep', 0.0, -1046.9557102865829, 0.0, 0.0, 0.0, 0.0, -1086.5406497169315, 0.0]
['beep', 0.0, -1049.5708643878538, 0.0, 0.0, 0.0, 0.0, -1086.4735944835656, 0.0]
['beep', 0.0, -1049.593216132309, 0.0, 0.0, 0.0, 0.0, -1087.1664985616803, 0.0]
['beep', 0.0, -1049.012070776471, 0.0, 0.0, 0.0, 0.0, -1087.3453125173228, 0.0]
['beep', 0.0, -1050.174361488147, 0.0, 0.0, 0.0, 0.0, -1086.9653328615825, 0.0]
['beep', 0.0, -1048.430925420633, 0.0, 0.0, 0.0, 0.0, -1087.0323880949484, 0.0]
['beep', 0.0, -1049.0344225209265, 0.0, 0.0, 0.0, 0.0, -1088.6417136957305, 0.0]
['beep', 0.0, -1048.5426841429096, 0.0, 0.0, 0.0, 0.0, -1088.9993416070154, 0.0]
['beep', 0.0, -1048.9673672875604, 0.0, 0.0, 0.0, 0.0, -1087.2112020505908, 0.0]
['beep', 0.0, -1049.369698687756, 0.0, 0.0, 0.0, 0.0, -1087.5241264729652, 0.0]
['beep', 0.0, -1048.6097393762755, 0.0, 0.0, 0.0, 0.0, -1088.7311206735517, 0.0]
['beep', 0.0, -1049.9061405546834, 0.0, 0.0, 0.0, 0.0, -1088.8428793958283, 0.0]
['beep', 0.0, -1049.1908847321135, 0.0, 0.0, 0.0, 0.0, -1087.6135334507865, 0.0]
['beep', 0.0, -1049.4367539211219, 0.0, 0.0, 0.0, 0.0, -1090.78748116344, 0.0]
['beep', 0.0, -1051.0237277774488, 0.0, 0.0, 0.0, 0.0, -1090.6533706967082, 0.0]
['beep', 0.0, -1050.1073062547812, 0.0, 0.0, 0.0, 0.0, -1091.234516052546, 0.0]
['beep', 0.0, -1049.5038091544877, 0.0, 0.0, 0.0, 0.0, -1090.9439433746272, 0.0]
['beep', 0.0, -1049.2579399654794, 0.0, 0.0, 0.0, 0.0, -1089.8040044074064, 0.0]
['beep', 0.0, -1048.5426841429096, 0.0, 0.0, 0.0, 0.0, -1089.1334520737473, 0.0]
['beep', 0.0, -1049.5485126433985, 0.0, 0.0, 0.0, 0.0, -1088.97698986256, 0.0]
['beep', 0.0, -1049.593216132309, 0.0, 0.0, 0.0, 0.0, -1089.8487078963171, 0.0]
['beep', 0.0, -1050.040251021415, 0.0, 0.0, 0.0, 0.0, -1091.078053841359, 0.0]
['beep', 0.0, -1050.4872859105212, 0.0, 0.0, 0.0, 0.0, -1091.7039026861075, 0.0]
['beep', 0.0, -1049.8390853213175, 0.0, 0.0, 0.0, 0.0, -1089.4463764961215, 0.0]
['beep', 0.0, -1050.174361488147, 0.0, 0.0, 0.0, 0.0, -1089.9381148741384, 0.0]
['beep', 0.0, -1048.4532771650884, 0.0, 0.0, 0.0, 0.0, -1091.078053841359, 0.0]
['beep', 0.0, -1048.6544428651862, 0.0, 0.0, 0.0, 0.0, -1092.4191585086774, 0.0]
['beep', 0.0, -1050.1967132326024, 0.0, 0.0, 0.0, 0.0, -1091.9274201306607, 0.0]
['beep', 0.0, -1050.2861202104236, 0.0, 0.0, 0.0, 0.0, -1091.592143963831, 0.0]
['beep', 0.0, -1049.9284922991387, 0.0, 0.0, 0.0, 0.0, -1093.9167253871829, 0.0]
['beep', 0.0, -1050.1520097436917, 0.0, 0.0, 0.0, 0.0, -1092.7097311865964, 0.0]
['beep', 0.0, -1049.9955475325046, 0.0, 0.0, 0.0, 0.0, -1092.9332486311494, 0.0]
['beep', 0.0, -1049.235588221024, 0.0, 0.0, 0.0, 0.0, -1093.7379114315404, 0.0]
['beep', 0.0, -1048.8332568208286, 0.0, 0.0, 0.0, 0.0, -1092.754434675507, 0.0]
['beep', 0.0, -1049.3473469433006, 0.0, 0.0, 0.0, 0.0, -1092.2179928085795, 0.0]
['beep', 0.0, -1049.7049748545855, 0.0, 0.0, 0.0, 0.0, -1092.463861997588, 0.0]
['beep', 0.0, -1050.1073062547812, 0.0, 0.0, 0.0, 0.0, -1093.7602631759958, 0.0]
['beep', 0.0, -1050.3308236993341, 0.0, 0.0, 0.0, 0.0, -1092.8885451422389, 0.0]
['beep', 0.0, -1049.660271365675, 0.0, 0.0, 0.0, 0.0, -1093.0003038645154, 0.0]
['beep', 0.0, -1049.526160898943, 0.0, 0.0, 0.0, 0.0, -1093.7826149204511, 0.0]
['beep', 0.0, -1050.4202306771554, 0.0, 0.0, 0.0, 0.0, -1091.4580334970992, 0.0]
['beep', 0.0, -1051.336652199823, 0.0, 0.0, 0.0, 0.0, -1092.4191585086774, 0.0]
['beep', 0.0, -1050.8002103328956, 0.0, 0.0, 0.0, 0.0, -1093.1120625867918, 0.0]
['beep', 0.0, -1049.7049748545855, 0.0, 0.0, 0.0, 0.0, -1092.754434675507, 0.0]
['beep', 0.0, -1049.6826231101302, 0.0, 0.0, 0.0, 0.0, -1093.1344143312472, 0.0]
['beep', 0.0, -1050.2190649770575, 0.0, 0.0, 0.0, 0.0, -1093.492042242532, 0.0]
['beep', 0.0, -1049.1238294987477, 0.0, 0.0, 0.0, 0.0, -1095.436644010144, 0.0]
['beep', 0.0, -1049.0567742653816, 0.0, 0.0, 0.0, 0.0, -1094.430815509655, 0.0]
['beep', 0.0, -1048.1627044871693, 0.0, 0.0, 0.0, 0.0, -1094.3190567873785, 0.0]
['beep', 0.0, -1046.620434119753, 0.0, 0.0, 0.0, 0.0, -1095.0343126099483, 0.0]
['beep', 0.0, -1050.174361488147, 0.0, 0.0, 0.0, 0.0, -1095.5484027324203, 0.0]
['beep', 0.0, -1052.7448121005073, 0.0, 0.0, 0.0, 0.0, -1094.8107951653953, 0.0]
['beep', 0.0, -1051.627224877742, 0.0, 0.0, 0.0, 0.0, -1093.9390771316382, 0.0]
['beep', 0.0, -1048.497980653999, 0.0, 0.0, 0.0, 0.0, -1094.6766846986634, 0.0]
['beep', 0.0, -1050.01789927696, 0.0, 0.0, 0.0, 0.0, -1095.950734132616, 0.0]
['beep', 0.0, -1051.5154661554654, 0.0, 0.0, 0.0, 0.0, -1095.4142922656886, 0.0]
['beep', 0.0, -1051.5378178999208, 0.0, 0.0, 0.0, 0.0, -1096.107196343803, 0.0]
['beep', 0.0, -1051.336652199823, 0.0, 0.0, 0.0, 0.0, -1096.1518998327138, 0.0]
['beep', 0.0, -1050.5990446327978, 0.0, 0.0, 0.0, 0.0, -1096.1518998327138, 0.0]
['beep', 0.0, -1050.1520097436917, 0.0, 0.0, 0.0, 0.0, -1097.2247835665685, 0.0]
['beep', 0.0, -1050.9119690551722, 0.0, 0.0, 0.0, 0.0, -1097.783577177951, 0.0]
['beep', 0.0, -1049.9061405546834, 0.0, 0.0, 0.0, 0.0, -1097.6271149667639, 0.0]
['beep', 0.0, -1050.2190649770575, 0.0, 0.0, 0.0, 0.0, -1098.6329434672527, 0.0]
['beep', 0.0, -1050.9566725440827, 0.0, 0.0, 0.0, 0.0, -1099.16938533418, 0.0]
['beep', 0.0, -1050.3308236993341, 0.0, 0.0, 0.0, 0.0, -1098.588239978342, 0.0]
['beep', 0.0, -1051.6048731332867, 0.0, 0.0, 0.0, 0.0, -1098.431777767155, 0.0]
['beep', 0.0, -1051.8060388333845, 0.0, 0.0, 0.0, 0.0, -1098.722350445074, 0.0]
['beep', 0.0, -1050.6213963772532, 0.0, 0.0, 0.0, 0.0, -1099.1023301008142, 0.0]
['beep', 0.0, -1052.275425466946, 0.0, 0.0, 0.0, 0.0, -1099.9516963901158, 0.0]
['beep', 0.0, -1051.7836870889291, 0.0, 0.0, 0.0, 0.0, -1100.465786512588, 0.0]
['beep', 0.0, -1051.9625010445716, 0.0, 0.0, 0.0, 0.0, -1099.4152545231884, 0.0]
['beep', 0.0, -1050.8896173107169, 0.0, 0.0, 0.0, 0.0, -1100.3763795347668, 0.0]
['beep', 0.0, -1050.8449138218061, 0.0, 0.0, 0.0, 0.0, -1100.845766168328, 0.0]
['beep', 0.0, -1051.3143004553676, 0.0, 0.0, 0.0, 0.0, -1099.7281789455628, 0.0]
['beep', 0.0, -1050.7108033550744, 0.0, 0.0, 0.0, 0.0, -1100.1305103457582, 0.0]
['beep', 0.0, -1050.531989399432, 0.0, 0.0, 0.0, 0.0, -1102.2762778134677, 0.0]
['beep', 0.0, -1051.5154661554654, 0.0, 0.0, 0.0, 0.0, -1100.5328417459539, 0.0]
['beep', 0.0, -1051.7389836000186, 0.0, 0.0, 0.0, 0.0, -1101.0916353573366, 0.0]
['beep', 0.0, -1052.2307219780353, 0.0, 0.0, 0.0, 0.0, -1101.3822080352554, 0.0]
['beep', 0.0, -1053.30360571189, 0.0, 0.0, 0.0, 0.0, -1100.6669522126856, 0.0]
['beep', 0.0, -1052.9012743116946, 0.0, 0.0, 0.0, 0.0, -1101.1810423351578, 0.0]
['beep', 0.0, -1050.8449138218061, 0.0, 0.0, 0.0, 0.0, -1101.6951324576298, 0.0]
['beep', 0.0, -1051.4037074331889, 0.0, 0.0, 0.0, 0.0, -1101.5386702464427, 0.0]
['beep', 0.0, -1051.2919487109125, 0.0, 0.0, 0.0, 0.0, -1102.2092225801018, 0.0]
['beep', 0.0, -1052.141315000214, 0.0, 0.0, 0.0, 0.0, -1104.0644173698925, 0.0]
['beep', 0.0, -1053.4153644341666, 0.0, 0.0, 0.0, 0.0, -1102.656257469208, 0.0]
['beep', 0.0, -1053.7953440899068, 0.0, 0.0, 0.0, 0.0, -1101.8292429243616, 0.0]
['beep', 0.0, -1053.4824196675324, 0.0, 0.0, 0.0, 0.0, -1102.365684791289, 0.0]
['beep', 0.0, -1053.884751067728, 0.0, 0.0, 0.0, 0.0, -1103.0138853804929, 0.0]
['beep', 0.0, -1054.5329516569318, 0.0, 0.0, 0.0, 0.0, -1102.7680161914845, 0.0]
['beep', 0.0, -1055.3599662017782, 0.0, 0.0, 0.0, 0.0, -1102.0974638578252, 0.0]
['beep', 0.0, -1054.5329516569318, 0.0, 0.0, 0.0, 0.0, -1104.1985278366242, 0.0]
['beep', 0.0, -1053.6835853676303, 0.0, 0.0, 0.0, 0.0, -1104.3326383033561, 0.0]
['beep', 0.0, -1055.3823179462336, 0.0, 0.0, 0.0, 0.0, -1103.6620859696968, 0.0]
['beep', 0.0, -1054.4211929346554, 0.0, 0.0, 0.0, 0.0, -1104.7126179590962, 0.0]
['beep', 0.0, -1055.2035039905911, 0.0, 0.0, 0.0, 0.0, -1104.2208795810795, 0.0]
['beep', 0.0, -1056.3434429578117, 0.0, 0.0, 0.0, 0.0, -1104.7126179590962, 0.0]
['beep', 0.0, -1054.2200272345576, 0.0, 0.0, 0.0, 0.0, -1105.5843359928533, 0.0]
['beep', 0.0, -1056.2540359799905, 0.0, 0.0, 0.0, 0.0, -1105.427873781666, 0.0]
['beep', 0.0, -1055.270559223957, 0.0, 0.0, 0.0, 0.0, -1106.0537226264146, 0.0]
['beep', 0.0, -1055.7175941130631, 0.0, 0.0, 0.0, 0.0, -1105.6290394817638, 0.0]
['beep', 0.0, -1054.8458760793062, 0.0, 0.0, 0.0, 0.0, -1105.6737429706745, 0.0]
['beep', 0.0, -1054.3094342123788, 0.0, 0.0, 0.0, 0.0, -1106.880737171261, 0.0]
['beep', 0.0, -1055.5164284129655, 0.0, 0.0, 0.0, 0.0, -1107.1042546158142, 0.0]
['beep', 0.0, -1055.0246900349487, 0.0, 0.0, 0.0, 0.0, -1107.5065860160096, 0.0]
['beep', 0.0, -1054.3764894457447, 0.0, 0.0, 0.0, 0.0, -1108.490062772043, 0.0]
['beep', 0.0, -1055.2482074795018, 0.0, 0.0, 0.0, 0.0, -1107.7524552050181, 0.0]
['beep', 0.0, -1055.270559223957, 0.0, 0.0, 0.0, 0.0, -1107.3724755492779, 0.0]
['beep', 0.0, -1055.3599662017782, 0.0, 0.0, 0.0, 0.0, -1107.5065860160096, 0.0]
['beep', 0.0, -1055.9858150465268, 0.0, 0.0, 0.0, 0.0, -1108.4453592831326, 0.0]
['beep', 0.0, -1053.6388818787195, 0.0, 0.0, 0.0, 0.0, -1107.461882527099, 0.0]
['beep', 0.0, -1053.4824196675324, 0.0, 0.0, 0.0, 0.0, -1106.210184837602, 0.0]
['beep', 0.0, -1055.404669690689, 0.0, 0.0, 0.0, 0.0, -1106.3889987932444, 0.0]
['beep', 0.0, -1054.0412132789152, 0.0, 0.0, 0.0, 0.0, -1107.7524552050181, 0.0]
['beep', 0.0, -1054.0412132789152, 0.0, 0.0, 0.0, 0.0, -1107.238365082546, 0.0]
['beep', 0.0, -1054.1976754901023, 0.0, 0.0, 0.0, 0.0, -1107.7301034605628, 0.0]
['beep', 0.0, -1054.622358634753, 0.0, 0.0, 0.0, 0.0, -1107.2160133380908, 0.0]
['beep', 0.0, -1054.4882481680213, 0.0, 0.0, 0.0, 0.0, -1108.1324348607582, 0.0]
['beep', 0.0, -1053.951806301094, 0.0, 0.0, 0.0, 0.0, -1108.467711027588, 0.0]
['beep', 0.0, -1053.1247917562475, 0.0, 0.0, 0.0, 0.0, -1109.1159116167917, 0.0]
['beep', 0.0, -1052.9236260561497, 0.0, 0.0, 0.0, 0.0, -1108.467711027588, 0.0]
['beep', 0.0, -1053.2812539674346, 0.0, 0.0, 0.0, 0.0, -1108.5794697498643, 0.0]
['beep', 0.0, -1052.5659981448648, 0.0, 0.0, 0.0, 0.0, -1108.914745916694, 0.0]
['beep', 0.0, -1053.460067923077, 0.0, 0.0, 0.0, 0.0, -1108.624173238775, 0.0]
['beep', 0.0, -1051.8954458112057, 0.0, 0.0, 0.0, 0.0, -1109.0041528945153, 0.0]
['beep', 0.0, -1052.5212946559543, 0.0, 0.0, 0.0, 0.0, -1108.8700424277833, 0.0]
['beep', 0.0, -1052.3648324447672, 0.0, 0.0, 0.0, 0.0, -1108.490062772043, 0.0]
['beep', 0.0, -1051.3813556887337, 0.0, 0.0, 0.0, 0.0, -1108.5347662609538, 0.0]
['beep', 0.0, -1051.984852789027, 0.0, 0.0, 0.0, 0.0, -1107.9983243940264, 0.0]
['beep', 0.0, -1052.8342190783285, 0.0, 0.0, 0.0, 0.0, -1108.5347662609538, 0.0]
['beep', 0.0, -1052.431887678133, 0.0, 0.0, 0.0, 0.0, -1109.6970569726298, 0.0]
['beep', 0.0, -1052.4542394225884, 0.0, 0.0, 0.0, 0.0, -1109.4735395280766, 0.0]
['beep', 0.0, -1052.3648324447672, 0.0, 0.0, 0.0, 0.0, -1110.2558505840125, 0.0]
['beep', 0.0, -1053.460067923077, 0.0, 0.0, 0.0, 0.0, -1109.5852982503532, 0.0]
['beep', 0.0, -1054.756469101485, 0.0, 0.0, 0.0, 0.0, -1109.5629465058978, 0.0]
['beep', 0.0, -1053.2141987340688, 0.0, 0.0, 0.0, 0.0, -1110.5240715174762, 0.0]
['beep', 0.0, -1053.9965097900044, 0.0, 0.0, 0.0, 0.0, -1109.2276703390683, 0.0]
['beep', 0.0, -1052.2977772114011, 0.0, 0.0, 0.0, 0.0, -1111.1946238511352, 0.0]
['beep', 0.0, -1053.460067923077, 0.0, 0.0, 0.0, 0.0, -1111.1499203622247, 0.0]
['beep', 0.0, -1052.5883498893202, 0.0, 0.0, 0.0, 0.0, -1111.0158098954928, 0.0]
['beep', 0.0, -1053.460067923077, 0.0, 0.0, 0.0, 0.0, -1111.6193069957862, 0.0]
['beep', 0.0, -1053.884751067728, 0.0, 0.0, 0.0, 0.0, -1111.2840308289565, 0.0]
['beep', 0.0, -1053.0577365228817, 0.0, 0.0, 0.0, 0.0, -1112.1557488627136, 0.0]
['beep', 0.0, -1053.0577365228817, 0.0, 0.0, 0.0, 0.0, -1113.3627430633, 0.0]
['beep', 0.0, -1055.1588005016806, 0.0, 0.0, 0.0, 0.0, -1112.8263011963727, 0.0]
['beep', 0.0, -1054.3764894457447, 0.0, 0.0, 0.0, 0.0, -1112.0663418848924, 0.0]
['beep', 0.0, -1052.8565708227839, 0.0, 0.0, 0.0, 0.0, -1112.8039494519173, 0.0]
['beep', 0.0, -1053.3706609452558, 0.0, 0.0, 0.0, 0.0, -1112.4239697961773, 0.0]
['beep', 0.0, -1054.8235243348508, 0.0, 0.0, 0.0, 0.0, -1112.043990140437, 0.0]
['beep', 0.0, -1053.6388818787195, 0.0, 0.0, 0.0, 0.0, -1113.1615773632022, 0.0]
['beep', 0.0, -1053.7506406009961, 0.0, 0.0, 0.0, 0.0, -1113.0945221298364, 0.0]
['beep', 0.0, -1054.4882481680213, 0.0, 0.0, 0.0, 0.0, -1112.26750758499, 0.0]
['beep', 0.0, -1055.7175941130631, 0.0, 0.0, 0.0, 0.0, -1112.401618051722, 0.0]
['beep', 0.0, -1055.8293528353397, 0.0, 0.0, 0.0, 0.0, -1112.9604116631047, 0.0]
['beep', 0.0, -1054.5105999124767, 0.0, 0.0, 0.0, 0.0, -1113.0498186409259, 0.0]
['beep', 0.0, -1055.4717249240548, 0.0, 0.0, 0.0, 0.0, -1114.7261994750738, 0.0]
['beep', 0.0, -1056.432849935633, 0.0, 0.0, 0.0, 0.0, -1111.8428244403392, 0.0]
['beep', 0.0, -1054.4211929346554, 0.0, 0.0, 0.0, 0.0, -1111.3287343178672, 0.0]
['beep', 0.0, -1055.7175941130631, 0.0, 0.0, 0.0, 0.0, -1112.692190729641, 0.0]
['beep', 0.0, -1056.20933249108, 0.0, 0.0, 0.0, 0.0, -1113.1615773632022, 0.0]
['beep', 0.0, -1055.7175941130631, 0.0, 0.0, 0.0, 0.0, -1112.5357285184537, 0.0]
['beep', 0.0, -1056.0305185354375, 0.0, 0.0, 0.0, 0.0, -1112.4910250295432, 0.0]
['beep', 0.0, -1056.4552016800883, 0.0, 0.0, 0.0, 0.0, -1113.3850948077554, 0.0]
['beep', 0.0, -1055.270559223957, 0.0, 0.0, 0.0, 0.0, -1113.7650744634957, 0.0]
['beep', 0.0, -1055.4270214351443, 0.0, 0.0, 0.0, 0.0, -1114.1450541192357, 0.0]
['beep', 0.0, -1055.2482074795018, 0.0, 0.0, 0.0, 0.0, -1111.7981209514287, 0.0]
['beep', 0.0, -1055.9411115576163, 0.0, 0.0, 0.0, 0.0, -1110.591126750842, 0.0]
['beep', 0.0, -1055.0693935238594, 0.0, 0.0, 0.0, 0.0, -1111.1275686177694, 0.0]
['beep', 0.0, -1055.7622976019738, 0.0, 0.0, 0.0, 0.0, -1111.0828651288589, 0.0]
['beep', 0.0, -1055.047041779404, 0.0, 0.0, 0.0, 0.0, -1111.0828651288589, 0.0]
['beep', 0.0, -1055.3823179462336, 0.0, 0.0, 0.0, 0.0, -1112.0886936293475, 0.0]
['beep', 0.0, -1055.3152627128677, 0.0, 0.0, 0.0, 0.0, -1112.692190729641, 0.0]
['beep', 0.0, -1054.0859167678257, 0.0, 0.0, 0.0, 0.0, -1110.9040511732164, 0.0]
['beep', 0.0, -1054.0635650233705, 0.0, 0.0, 0.0, 0.0, -1111.0158098954928, 0.0]
['beep', 0.0, -1054.3317859568342, 0.0, 0.0, 0.0, 0.0, -1111.6416587402414, 0.0]
['beep', 0.0, -1053.6165301342644, 0.0, 0.0, 0.0, 0.0, -1112.2228040960795, 0.0]
['beep', 0.0, -1054.4882481680213, 0.0, 0.0, 0.0, 0.0, -1112.4239697961773, 0.0]
['beep', 0.0, -1055.1811522461358, 0.0, 0.0, 0.0, 0.0, -1112.1557488627136, 0.0]
['beep', 0.0, -1053.1918469896134, 0.0, 0.0, 0.0, 0.0, -1110.9711064065823, 0.0]
['beep', 0.0, -1052.945977800605, 0.0, 0.0, 0.0, 0.0, -1110.4793680285654, 0.0]
['beep', 0.0, -1052.9012743116946, 0.0, 0.0, 0.0, 0.0, -1111.462844784599, 0.0]
['beep', 0.0, -1051.917797555661, 0.0, 0.0, 0.0, 0.0, -1111.753417462518, 0.0]
['beep', 0.0, -1051.2248934775464, 0.0, 0.0, 0.0, 0.0, -1110.1664436061913, 0.0]
['beep', 0.0, -1050.1296579992363, 0.0, 0.0, 0.0, 0.0, -1109.1829668501578, 0.0]
['beep', 0.0, -1050.9119690551722, 0.0, 0.0, 0.0, 0.0, -1111.462844784599, 0.0]
['beep', 0.0, -1051.1354864997252, 0.0, 0.0, 0.0, 0.0, -1110.9711064065823, 0.0]
['beep', 0.0, -1051.2248934775464, 0.0, 0.0, 0.0, 0.0, -1109.9876296505488, 0.0]
['beep', 0.0, -1050.1296579992363, 0.0, 0.0, 0.0, 0.0, -1110.8146441953952, 0.0]
['beep', 0.0, -1050.8672655662615, 0.0, 0.0, 0.0, 0.0, -1111.2169755955906, 0.0]
['beep', 0.0, -1049.9955475325046, 0.0, 0.0, 0.0, 0.0, -1110.8369959398503, 0.0]
['beep', 0.0, -1052.141315000214, 0.0, 0.0, 0.0, 0.0, -1110.6805337286632, 0.0]
['beep', 0.0, -1052.7448121005073, 0.0, 0.0, 0.0, 0.0, -1109.786463950451, 0.0]
['beep', 0.0, -1050.2861202104236, 0.0, 0.0, 0.0, 0.0, -1111.2616790845013, 0.0]
['beep', 0.0, -1048.7662015874628, 0.0, 0.0, 0.0, 0.0, -1110.747588962029, 0.0]
['beep', 0.0, -1048.20740797608, 0.0, 0.0, 0.0, 0.0, -1110.948754662127, 0.0]
['beep', 0.0, -1047.6039108757868, 0.0, 0.0, 0.0, 0.0, -1110.300554072923, 0.0]
['beep', 0.0, -1047.045117264404, 0.0, 0.0, 0.0, 0.0, -1109.138263361247, 0.0]
['beep', 0.0, -1046.9333585421275, 0.0, 0.0, 0.0, 0.0, -1109.942926161638, 0.0]
['beep', 0.0, -1046.3298614418343, 0.0, 0.0, 0.0, 0.0, -1108.5347662609538, 0.0]
['beep', 0.0, -1042.2841956954237, 0.0, 0.0, 0.0, 0.0, -1108.8029871944175, 0.0]
['beep', 0.0, -1046.4416201641106, 0.0, 0.0, 0.0, 0.0, -1108.5124145164984, 0.0]
['beep', 0.0, -1047.7827248314293, 0.0, 0.0, 0.0, 0.0, -1107.685399971652, 0.0]
['beep', 0.0, -1049.7943818324068, 0.0, 0.0, 0.0, 0.0, -1107.461882527099, 0.0]
['beep', 0.0, -1050.241416721513, 0.0, 0.0, 0.0, 0.0, -1108.7806354499621, 0.0]
['beep', 0.0, -1049.9731957880492, 0.0, 0.0, 0.0, 0.0, -1109.2947255724341, 0.0]
['beep', 0.0, -1049.1014777542923, 0.0, 0.0, 0.0, 0.0, -1108.847690683328, 0.0]
['beep', 0.0, -1048.9003120541945, 0.0, 0.0, 0.0, 0.0, -1111.0828651288589, 0.0]
['beep', 0.0, -1047.760373086974, 0.0, 0.0, 0.0, 0.0, -1112.6698389851856, 0.0]
['beep', 0.0, -1048.20740797608, 0.0, 0.0, 0.0, 0.0, -1111.2169755955906, 0.0]
['beep', 0.0, -1047.9838905315269, 0.0, 0.0, 0.0, 0.0, -1109.272373827979, 0.0]
['beep', 0.0, -1047.559207386876, 0.0, 0.0, 0.0, 0.0, -1109.0488563834258, 0.0]
['beep', 0.0, -1047.8050765758844, 0.0, 0.0, 0.0, 0.0, -1110.1664436061913, 0.0]
['beep', 0.0, -1048.3191666983566, 0.0, 0.0, 0.0, 0.0, -1110.9040511732164, 0.0]
['beep', 0.0, -1049.3473469433006, 0.0, 0.0, 0.0, 0.0, -1110.5240715174762, 0.0]
['beep', 0.0, -1049.660271365675, 0.0, 0.0, 0.0, 0.0, -1110.7922924509398, 0.0]
['beep', 0.0, -1049.593216132309, 0.0, 0.0, 0.0, 0.0, -1110.8146441953952, 0.0]
['beep', 0.0, -1048.9003120541945, 0.0, 0.0, 0.0, 0.0, -1108.4006557942218, 0.0]
['beep', 0.0, -1049.1461812432028, 0.0, 0.0, 0.0, 0.0, -1109.786463950451, 0.0]
['beep', 0.0, -1049.526160898943, 0.0, 0.0, 0.0, 0.0, -1109.6970569726298, 0.0]
['beep', 0.0, -1048.497980653999, 0.0, 0.0, 0.0, 0.0, -1109.3394290613448, 0.0]
['beep', 0.0, -1048.3638701872671, 0.0, 0.0, 0.0, 0.0, -1109.6747052281744, 0.0]
['beep', 0.0, -1047.2239312200466, 0.0, 0.0, 0.0, 0.0, -1110.07703662837, 0.0]
['beep', 0.0, -1047.4250969201444, 0.0, 0.0, 0.0, 0.0, -1111.105216873314, 0.0]
['beep', 0.0, -1048.0956492538035, 0.0, 0.0, 0.0, 0.0, -1110.1887953506464, 0.0]
['beep', 0.0, -1047.6709661091527, 0.0, 0.0, 0.0, 0.0, -1110.434664539655, 0.0]
['beep', 0.0, -1047.3356899423231, 0.0, 0.0, 0.0, 0.0, -1110.9711064065823, 0.0]
['beep', 0.0, -1047.3580416867783, 0.0, 0.0, 0.0, 0.0, -1109.6970569726298, 0.0]
['beep', 0.0, -1049.8390853213175, 0.0, 0.0, 0.0, 0.0, -1109.3617808058002, 0.0]
['beep', 0.0, -1051.1354864997252, 0.0, 0.0, 0.0, 0.0, -1110.2558505840125, 0.0]
['beep', 0.0, -1049.7720300879514, 0.0, 0.0, 0.0, 0.0, -1109.652353483719, 0.0]
['beep', 0.0, -1049.7496783434963, 0.0, 0.0, 0.0, 0.0, -1109.2500220835236, 0.0]
['beep', 0.0, -1049.9508440435939, 0.0, 0.0, 0.0, 0.0, -1110.5464232619313, 0.0]
['beep', 0.0, -1050.3755271882449, 0.0, 0.0, 0.0, 0.0, -1110.300554072923, 0.0]
['beep', 0.0, -1048.0062422759822, 0.0, 0.0, 0.0, 0.0, -1110.8146441953952, 0.0]
['beep', 0.0, -1049.3473469433006, 0.0, 0.0, 0.0, 0.0, -1111.3063825734118, 0.0]
['beep', 0.0, -1051.2025417330913, 0.0, 0.0, 0.0, 0.0, -1111.0828651288589, 0.0]
['beep', 0.0, -1049.7049748545855, 0.0, 0.0, 0.0, 0.0, -1109.652353483719, 0.0]
['beep', 0.0, -1048.2521114649905, 0.0, 0.0, 0.0, 0.0, -1108.8253389388728, 0.0]
['beep', 0.0, -1049.1238294987477, 0.0, 0.0, 0.0, 0.0, -1110.0993883728252, 0.0]
['beep', 0.0, -1049.6155678767643, 0.0, 0.0, 0.0, 0.0, -1110.45701628411, 0.0]
['beep', 0.0, -1049.9284922991387, 0.0, 0.0, 0.0, 0.0, -1111.1946238511352, 0.0]
['beep', 0.0, -1049.3249951988453, 0.0, 0.0, 0.0, 0.0, -1111.9545831626158, 0.0]
['beep', 0.0, -1049.079126009837, 0.0, 0.0, 0.0, 0.0, -1111.3510860623226, 0.0]
['beep', 0.0, -1049.235588221024, 0.0, 0.0, 0.0, 0.0, -1110.07703662837, 0.0]
['beep', 0.0, -1049.4591056655772, 0.0, 0.0, 0.0, 0.0, -1109.786463950451, 0.0]
['beep', 0.0, -1048.9003120541945, 0.0, 0.0, 0.0, 0.0, -1110.3676093062888, 0.0]
['beep', 0.0, -1051.1354864997252, 0.0, 0.0, 0.0, 0.0, -1109.0041528945153, 0.0]
['beep', 0.0, -1050.2861202104236, 0.0, 0.0, 0.0, 0.0, -1109.3170773168895, 0.0]
['beep', 0.0, -1049.6155678767643, 0.0, 0.0, 0.0, 0.0, -1111.529900017965, 0.0]
['beep', 0.0, -1050.6660998661637, 0.0, 0.0, 0.0, 0.0, -1112.0216383959817, 0.0]
['beep', 0.0, -1049.8390853213175, 0.0, 0.0, 0.0, 0.0, -1112.401618051722, 0.0]
['beep', 0.0, -1049.727326599041, 0.0, 0.0, 0.0, 0.0, -1110.7699407064845, 0.0]
['beep', 0.0, -1049.2802917099348, 0.0, 0.0, 0.0, 0.0, -1109.4511877836214, 0.0]
['beep', 0.0, -1049.012070776471, 0.0, 0.0, 0.0, 0.0, -1110.1887953506464, 0.0]
['beep', 0.0, -1050.8896173107169, 0.0, 0.0, 0.0, 0.0, -1110.3229058173783, 0.0]
['beep', 0.0, -1051.2472452220018, 0.0, 0.0, 0.0, 0.0, -1110.9711064065823, 0.0]
['beep', 0.0, -1050.3755271882449, 0.0, 0.0, 0.0, 0.0, -1110.9264029176716, 0.0]
['beep', 0.0, -1050.01789927696, 0.0, 0.0, 0.0, 0.0, -1110.747588962029, 0.0]
['beep', 0.0, -1049.3026434543901, 0.0, 0.0, 0.0, 0.0, -1110.5017197730208, 0.0]
['beep', 0.0, -1048.497980653999, 0.0, 0.0, 0.0, 0.0, -1111.3734378067777, 0.0]
['beep', 0.0, -1049.8390853213175, 0.0, 0.0, 0.0, 0.0, -1110.5687750063867, 0.0]
['beep', 0.0, -1051.49311441101, 0.0, 0.0, 0.0, 0.0, -1110.5017197730208, 0.0]
['beep', 0.0, -1051.4037074331889, 0.0, 0.0, 0.0, 0.0, -1110.3452575618337, 0.0]
['beep', 0.0, -1050.3978789327, 0.0, 0.0, 0.0, 0.0, -1110.2334988395571, 0.0]
['beep', 0.0, -1051.0684312663593, 0.0, 0.0, 0.0, 0.0, -1109.786463950451, 0.0]
['beep', 0.0, -1051.5154661554654, 0.0, 0.0, 0.0, 0.0, -1110.881699428761, 0.0]
['beep', 0.0, -1050.8449138218061, 0.0, 0.0, 0.0, 0.0, -1112.0216383959817, 0.0]
['beep', 0.0, -1051.4484109220996, 0.0, 0.0, 0.0, 0.0, -1111.3510860623226, 0.0]
['beep', 0.0, -1051.5825213888313, 0.0, 0.0, 0.0, 0.0, -1111.2616790845013, 0.0]
['beep', 0.0, -1053.6388818787195, 0.0, 0.0, 0.0, 0.0, -1112.8039494519173, 0.0]
['beep', 0.0, -1052.3648324447672, 0.0, 0.0, 0.0, 0.0, -1113.072170385381, 0.0]
['beep', 0.0, -1053.3483092008007, 0.0, 0.0, 0.0, 0.0, -1113.0498186409259, 0.0]
['beep', 0.0, -1052.4765911670436, 0.0, 0.0, 0.0, 0.0, -1112.714542474096, 0.0]
['beep', 0.0, -1052.1189632557587, 0.0, 0.0, 0.0, 0.0, -1112.9827634075598, 0.0]
['beep', 0.0, -1052.498942911499, 0.0, 0.0, 0.0, 0.0, -1112.26750758499, 0.0]
['beep', 0.0, -1052.4095359336777, 0.0, 0.0, 0.0, 0.0, -1111.5746035068755, 0.0]
['beep', 0.0, -1052.5659981448648, 0.0, 0.0, 0.0, 0.0, -1111.7757692069733, 0.0]
['beep', 0.0, -1052.275425466946, 0.0, 0.0, 0.0, 0.0, -1113.0051151520152, 0.0]
['beep', 0.0, -1052.633053378231, 0.0, 0.0, 0.0, 0.0, -1114.5026820305206, 0.0]
['beep', 0.0, -1052.4542394225884, 0.0, 0.0, 0.0, 0.0, -1115.821434953384, 0.0]
['beep', 0.0, -1051.5378178999208, 0.0, 0.0, 0.0, 0.0, -1114.9944204085375, 0.0]
['beep', 0.0, -1050.3978789327, 0.0, 0.0, 0.0, 0.0, -1113.3180395743896, 0.0]
['beep', 0.0, -1051.6495766221974, 0.0, 0.0, 0.0, 0.0, -1113.1839291076576, 0.0]
['beep', 0.0, -1051.0907830108147, 0.0, 0.0, 0.0, 0.0, -1113.5639087633979, 0.0]
['beep', 0.0, -1052.8789225672392, 0.0, 0.0, 0.0, 0.0, -1113.6086122523084, 0.0]
['beep', 0.0, -1052.2307219780353, 0.0, 0.0, 0.0, 0.0, -1113.5415570189425, 0.0]
['beep', 0.0, -1051.2919487109125, 0.0, 0.0, 0.0, 0.0, -1114.6367924972526, 0.0]
['beep', 0.0, -1052.4765911670436, 0.0, 0.0, 0.0, 0.0, -1114.7261994750738, 0.0]
['beep', 0.0, -1052.1636667446694, 0.0, 0.0, 0.0, 0.0, -1114.815606452895, 0.0]
['beep', 0.0, -1052.1189632557587, 0.0, 0.0, 0.0, 0.0, -1114.368571563789, 0.0]
['beep', 0.0, -1052.3201289558565, 0.0, 0.0, 0.0, 0.0, -1114.7261994750738, 0.0]
['beep', 0.0, -1054.3317859568342, 0.0, 0.0, 0.0, 0.0, -1116.335525075856, 0.0]
['beep', 0.0, -1053.013033033971, 0.0, 0.0, 0.0, 0.0, -1116.5143390314984, 0.0]
['beep', 0.0, -1050.6213963772532, 0.0, 0.0, 0.0, 0.0, -1116.0002489090264, 0.0]
['beep', 0.0, -1051.4260591776442, 0.0, 0.0, 0.0, 0.0, -1114.592089008342, 0.0]
['beep', 0.0, -1052.4765911670436, 0.0, 0.0, 0.0, 0.0, -1113.4074465522108, 0.0]
['beep', 0.0, -1050.7778585884403, 0.0, 0.0, 0.0, 0.0, -1114.5026820305206, 0.0]
['beep', 0.0, -1050.6213963772532, 0.0, 0.0, 0.0, 0.0, -1114.3909233082443, 0.0]
['beep', 0.0, -1051.0013760329934, 0.0, 0.0, 0.0, 0.0, -1114.5473855194314, 0.0]
['beep', 0.0, -1051.694280111108, 0.0, 0.0, 0.0, 0.0, -1115.7767314644732, 0.0]
['beep', 0.0, -1051.0013760329934, 0.0, 0.0, 0.0, 0.0, -1116.6037460093196, 0.0]
['beep', 0.0, -1049.883788810228, 0.0, 0.0, 0.0, 0.0, -1117.0060774095152, 0.0]
['beep', 0.0, -1050.755506843985, 0.0, 0.0, 0.0, 0.0, -1115.329696575367, 0.0]
['beep', 0.0, -1050.040251021415, 0.0, 0.0, 0.0, 0.0, -1114.949716919627, 0.0]
['beep', 0.0, -1050.01789927696, 0.0, 0.0, 0.0, 0.0, -1115.7767314644732, 0.0]
['beep', 0.0, -1050.241416721513, 0.0, 0.0, 0.0, 0.0, -1114.9944204085375, 0.0]
['beep', 0.0, -1050.9119690551722, 0.0, 0.0, 0.0, 0.0, -1114.9050134307163, 0.0]
['beep', 0.0, -1051.336652199823, 0.0, 0.0, 0.0, 0.0, -1115.4861587865544, 0.0]
['beep', 0.0, -1050.1073062547812, 0.0, 0.0, 0.0, 0.0, -1115.5755657643756, 0.0]
['beep', 0.0, -1051.4037074331889, 0.0, 0.0, 0.0, 0.0, -1115.7990832089286, 0.0]
['beep', 0.0, -1051.0237277774488, 0.0, 0.0, 0.0, 0.0, -1116.0673041423922, 0.0]
['beep', 0.0, -1050.979024288538, 0.0, 0.0, 0.0, 0.0, -1117.1625396207023, 0.0]
['beep', 0.0, -1050.4425824216107, 0.0, 0.0, 0.0, 0.0, -1116.4696355425879, 0.0]
['beep', 0.0, -1049.4367539211219, 0.0, 0.0, 0.0, 0.0, -1116.916670431694, 0.0]
['beep', 0.0, -1048.20740797608, 0.0, 0.0, 0.0, 0.0, -1118.1683681211912, 0.0]
['beep', 0.0, -1050.5543411438873, 0.0, 0.0, 0.0, 0.0, -1118.0566093989146, 0.0]
['beep', 0.0, -1050.688451610619, 0.0, 0.0, 0.0, 0.0, -1116.3131733314005, 0.0]
['beep', 0.0, -1050.5096376549766, 0.0, 0.0, 0.0, 0.0, -1116.7378564760515, 0.0]
['beep', 0.0, -1051.6719283666525, 0.0, 0.0, 0.0, 0.0, -1116.559042520409, 0.0]
['beep', 0.0, -1050.174361488147, 0.0, 0.0, 0.0, 0.0, -1117.6095745098085, 0.0]
['beep', 0.0, -1050.4202306771554, 0.0, 0.0, 0.0, 0.0, -1117.5201675319872, 0.0]
['beep', 0.0, -1049.5485126433985, 0.0, 0.0, 0.0, 0.0, -1116.559042520409, 0.0]
['beep', 0.0, -1049.1685329876582, 0.0, 0.0, 0.0, 0.0, -1116.9390221761491, 0.0]
['beep', 0.0, -1048.9897190320157, 0.0, 0.0, 0.0, 0.0, -1116.6931529871408, 0.0]
['beep', 0.0, -1049.3473469433006, 0.0, 0.0, 0.0, 0.0, -1116.6931529871408, 0.0]
['beep', 0.0, -1049.7049748545855, 0.0, 0.0, 0.0, 0.0, -1116.8943186872386, 0.0]
['beep', 0.0, -1050.01789927696, 0.0, 0.0, 0.0, 0.0, -1116.7378564760515, 0.0]
['beep', 0.0, -1050.6437481217085, 0.0, 0.0, 0.0, 0.0, -1115.9555454201156, 0.0]
['beep', 0.0, -1050.6213963772532, 0.0, 0.0, 0.0, 0.0, -1115.9555454201156, 0.0]
['beep', 0.0, -1050.4202306771554, 0.0, 0.0, 0.0, 0.0, -1117.7660367209955, 0.0]
['beep', 0.0, -1050.9343207996276, 0.0, 0.0, 0.0, 0.0, -1117.2519465985235, 0.0]
['beep', 0.0, -1049.7943818324068, 0.0, 0.0, 0.0, 0.0, -1117.140187876247, 0.0]
['beep', 0.0, -1050.2861202104236, 0.0, 0.0, 0.0, 0.0, -1115.977897164571, 0.0]
['beep', 0.0, -1050.3978789327, 0.0, 0.0, 0.0, 0.0, -1116.7155047315962, 0.0]
['beep', 0.0, -1050.9119690551722, 0.0, 0.0, 0.0, 0.0, -1116.1567111202135, 0.0]
['beep', 0.0, -1051.917797555661, 0.0, 0.0, 0.0, 0.0, -1115.2849930864566, 0.0]
['beep', 0.0, -1051.6048731332867, 0.0, 0.0, 0.0, 0.0, -1115.7320279755627, 0.0]
['beep', 0.0, -1050.8449138218061, 0.0, 0.0, 0.0, 0.0, -1116.6708012426855, 0.0]
['beep', 0.0, -1050.7108033550744, 0.0, 0.0, 0.0, 0.0, -1116.2908215869454, 0.0]
['beep', 0.0, -1049.1461812432028, 0.0, 0.0, 0.0, 0.0, -1116.849615198328, 0.0]
['beep', 0.0, -1051.9625010445716, 0.0, 0.0, 0.0, 0.0, -1116.2237663535793, 0.0]
['beep', 0.0, -1052.0295562779374, 0.0, 0.0, 0.0, 0.0, -1114.6144407527972, 0.0]
['beep', 0.0, -1052.5436464004097, 0.0, 0.0, 0.0, 0.0, -1113.7874262079508, 0.0]
['beep', 0.0, -1052.5883498893202, 0.0, 0.0, 0.0, 0.0, -1112.915708174194, 0.0]
['beep', 0.0, -1051.3590039442784, 0.0, 0.0, 0.0, 0.0, -1113.6086122523084, 0.0]
['beep', 0.0, -1051.5825213888313, 0.0, 0.0, 0.0, 0.0, -1111.9769349070712, 0.0]
['beep', 0.0, -1052.9906812895158, 0.0, 0.0, 0.0, 0.0, -1109.786463950451, 0.0]
['beep', 0.0, -1052.141315000214, 0.0, 0.0, 0.0, 0.0, -1106.7019232156185, 0.0]
['beep', 0.0, -1051.627224877742, 0.0, 0.0, 0.0, 0.0, -1102.5221470024762, 0.0]
['beep', 0.0, -1051.4484109220996, 0.0, 0.0, 0.0, 0.0, -1097.6718184556746, 0.0]
['beep', 0.0, -1051.2472452220018, 0.0, 0.0, 0.0, 0.0, -1091.4803852415546, 0.0]
['beep', 0.0, -1051.9625010445716, 0.0, 0.0, 0.0, 0.0, -1087.4794229840545, 0.0]
['beep', 0.0, -1054.3541377012893, 0.0, 0.0, 0.0, 0.0, -1080.8409548808283, 0.0]
['beep', 0.0, -1055.0023382904933, 0.0, 0.0, 0.0, 0.0, -1075.431832722644, 0.0]
['beep', 0.0, -1055.4493731795994, 0.0, 0.0, 0.0, 0.0, -1070.7826698759402, 0.0]
['beep', 0.0, -1053.080088267337, 0.0, 0.0, 0.0, 0.0, -1064.3900709617224, 0.0]
['beep', 0.0, -1047.760373086974, 0.0, 0.0, 0.0, 0.0, -1059.7632598594737, 0.0]
['beep', 0.0, -1047.268634708957, 0.0, 0.0, 0.0, 0.0, -1053.5271231564432, 0.0]
['beep', 0.0, -1051.1354864997252, 0.0, 0.0, 0.0, 0.0, -1049.9061405546834, 0.0]
['beep', 0.0, -1051.6719283666525, 0.0, 0.0, 0.0, 0.0, -1044.787591074418, 0.0]
['beep', 0.0, -1050.174361488147, 0.0, 0.0, 0.0, 0.0, -1036.8080183038735, 0.0]
['beep', 0.0, -1052.498942911499, 0.0, 0.0, 0.0, 0.0, -1032.3600211572673, 0.0]
['beep', 0.0, -1054.7788208459403, 0.0, 0.0, 0.0, 0.0, -1025.5427390983987, 0.0]
['beep', 0.0, -1053.080088267337, 0.0, 0.0, 0.0, 0.0, -1020.0442099623931, 0.0]
['beep', 0.0, -1054.9576348015828, 0.0, 0.0, 0.0, 0.0, -1017.6749250501306, 0.0]
['beep', 0.0, -1059.0256522924487, 0.0, 0.0, 0.0, 0.0, -1008.7342272680078, 0.0]
['beep', 0.0, -1059.11505927027, 0.0, 0.0, 0.0, 0.0, -1001.0452271753821, 0.0]
['beep', 0.0, -1056.857533080284, 0.0, 0.0, 0.0, 0.0, -996.7983957288737, 0.0]
['beep', 0.0, -1053.460067923077, 0.0, 0.0, 0.0, 0.0, -990.2269828590134, 0.0]
['beep', 0.0, -1053.7059371120856, 0.0, 0.0, 0.0, 0.0, -986.8071659573515, 0.0]
['beep', 0.0, -1056.4552016800883, 0.0, 0.0, 0.0, 0.0, -981.6215612437203, 0.0]
['beep', 0.0, -1056.5893121468202, 0.0, 0.0, 0.0, 0.0, -976.6818257190974, 0.0]
['beep', 0.0, -1058.824486592351, 0.0, 0.0, 0.0, 0.0, -973.1949535840695, 0.0]
['beep', 0.0, -1058.332748214334, 0.0, 0.0, 0.0, 0.0, -971.04918611636, 0.0]
['beep', 0.0, -1055.8070010908843, 0.0, 0.0, 0.0, 0.0, -971.4738692610109, 0.0]
['beep', 0.0, -1052.5883498893202, 0.0, 0.0, 0.0, 0.0, -971.7644419389298, 0.0]
['beep', 0.0, -1052.7001086115968, 0.0, 0.0, 0.0, 0.0, -972.3902907836784, 0.0]
['beep', 0.0, -1055.9411115576163, 0.0, 0.0, 0.0, 0.0, -975.7430524519746, 0.0]
['beep', 0.0, -1057.5504371583984, 0.0, 0.0, 0.0, 0.0, -980.7498432099633, 0.0]
['beep', 0.0, -1059.785611603929, 0.0, 0.0, 0.0, 0.0, -985.0860816342929, 0.0]
['beep', 0.0, -1059.8303150928398, 0.0, 0.0, 0.0, 0.0, -989.1988026140693, 0.0]
['beep', 0.0, -1058.6009691477977, 0.0, 0.0, 0.0, 0.0, -995.5914015282872, 0.0]
['beep', 0.0, -1058.2656929809682, 0.0, 0.0, 0.0, 0.0, -1002.274573120424, 0.0]
['beep', 0.0, -1058.109230769781, 0.0, 0.0, 0.0, 0.0, -1007.080198178315, 0.0]
['beep', 0.0, -1058.466858681066, 0.0, 0.0, 0.0, 0.0, -1013.4057418591669, 0.0]
['beep', 0.0, -1056.2540359799905, 0.0, 0.0, 0.0, 0.0, -1018.5019395949769, 0.0]
['beep', 0.0, -1054.3317859568342, 0.0, 0.0, 0.0, 0.0, -1025.9674222430494, 0.0]
['beep', 0.0, -1052.8565708227839, 0.0, 0.0, 0.0, 0.0, -1031.175378701136, 0.0]
['beep', 0.0, -1051.7389836000186, 0.0, 0.0, 0.0, 0.0, -1036.9421287706052, 0.0]
['beep', 0.0, -1051.0013760329934, 0.0, 0.0, 0.0, 0.0, -1041.568939872854, 0.0]
['beep', 0.0, -1050.688451610619, 0.0, 0.0, 0.0, 0.0, -1046.7992480753956, 0.0]
['beep', 0.0, -1053.080088267337, 0.0, 0.0, 0.0, 0.0, -1049.6155678767643, 0.0]
['beep', 0.0, -1053.3483092008007, 0.0, 0.0, 0.0, 0.0, -1054.0188615344598, 0.0]
['beep', 0.0, -1053.3706609452558, 0.0, 0.0, 0.0, 0.0, -1059.562094159376, 0.0]
['beep', 0.0, -1054.8458760793062, 0.0, 0.0, 0.0, 0.0, -1062.8478005943061, 0.0]
['beep', 0.0, -1053.5271231564432, 0.0, 0.0, 0.0, 0.0, -1067.49696344101, 0.0]
['beep', 0.0, -1053.2141987340688, 0.0, 0.0, 0.0, 0.0, -1070.8720768537614, 0.0]
['beep', 0.0, -1053.7729923454515, 0.0, 0.0, 0.0, 0.0, -1073.0848995548367, 0.0]
['beep', 0.0, -1053.2365504785241, 0.0, 0.0, 0.0, 0.0, -1076.8399926233283, 0.0]
['beep', 0.0, -1052.7001086115968, 0.0, 0.0, 0.0, 0.0, -1080.0809955693478, 0.0]
['beep', 0.0, -1051.9401493001162, 0.0, 0.0, 0.0, 0.0, -1083.210239793091, 0.0]
['beep', 0.0, -1051.470762666555, 0.0, 0.0, 0.0, 0.0, -1083.7466816600183, 0.0]
['beep', 0.0, -1050.8002103328956, 0.0, 0.0, 0.0, 0.0, -1086.6077049502976, 0.0]
['beep', 0.0, -1051.2919487109125, 0.0, 0.0, 0.0, 0.0, -1087.7252921730628, 0.0]
['beep', 0.0, -1049.1685329876582, 0.0, 0.0, 0.0, 0.0, -1089.781652662951, 0.0]
['beep', 0.0, -1050.0626027658705, 0.0, 0.0, 0.0, 0.0, -1090.3627980187891, 0.0]
['beep', 0.0, -1049.3249951988453, 0.0, 0.0, 0.0, 0.0, -1091.525088730465, 0.0]
['beep', 0.0, -1048.6544428651862, 0.0, 0.0, 0.0, 0.0, -1091.8156614083841, 0.0]
['beep', 0.0, -1048.4532771650884, 0.0, 0.0, 0.0, 0.0, -1092.1956410641244, 0.0]
['beep', 0.0, -1048.1627044871693, 0.0, 0.0, 0.0, 0.0, -1094.1849463206465, 0.0]
['beep', 0.0, -1047.7156695980632, 0.0, 0.0, 0.0, 0.0, -1095.88367889925, 0.0]
['beep', 0.0, -1047.916835298161, 0.0, 0.0, 0.0, 0.0, -1095.2578300545015, 0.0]
['beep', 0.0, -1048.0285940204376, 0.0, 0.0, 0.0, 0.0, -1096.1295480882584, 0.0]
['beep', 0.0, -1047.4698004090549, 0.0, 0.0, 0.0, 0.0, -1097.9847428780488, 0.0]
['beep', 0.0, -1047.3356899423231, 0.0, 0.0, 0.0, 0.0, -1099.0576266119035, 0.0]
['beep', 0.0, -1047.7156695980632, 0.0, 0.0, 0.0, 0.0, -1099.0352748674484, 0.0]
['beep', 0.0, -1048.4085736761779, 0.0, 0.0, 0.0, 0.0, -1100.1305103457582, 0.0]
['beep', 0.0, -1048.0956492538035, 0.0, 0.0, 0.0, 0.0, -1100.175213834669, 0.0]
['beep', 0.0, -1047.7827248314293, 0.0, 0.0, 0.0, 0.0, -1101.0916353573366, 0.0]
['beep', 0.0, -1046.1286957417365, 0.0, 0.0, 0.0, 0.0, -1102.0304086244594, 0.0]
['beep', 0.0, -1045.9275300416386, 0.0, 0.0, 0.0, 0.0, -1102.2762778134677, 0.0]
['beep', 0.0, -1045.592253874809, 0.0, 0.0, 0.0, 0.0, -1103.88560341425, 0.0]
['beep', 0.0, -1046.3298614418343, 0.0, 0.0, 0.0, 0.0, -1105.9866673930487, 0.0]
['beep', 0.0, -1046.9333585421275, 0.0, 0.0, 0.0, 0.0, -1105.0925976148364, 0.0]
['beep', 0.0, -1045.9945852750045, 0.0, 0.0, 0.0, 0.0, -1103.9526586476159, 0.0]
['beep', 0.0, -1045.5475503858984, 0.0, 0.0, 0.0, 0.0, -1104.1538243477137, 0.0]
['beep', 0.0, -1045.592253874809, 0.0, 0.0, 0.0, 0.0, -1104.1538243477137, 0.0]
['beep', 0.0, -1046.240454464013, 0.0, 0.0, 0.0, 0.0, -1104.7126179590962, 0.0]
['beep', 0.0, -1045.8604748082728, 0.0, 0.0, 0.0, 0.0, -1104.5785074923645, 0.0]
['beep', 0.0, -1046.6427858642085, 0.0, 0.0, 0.0, 0.0, -1105.6737429706745, 0.0]
['beep', 0.0, -1046.3522131862894, 0.0, 0.0, 0.0, 0.0, -1105.718446459585, 0.0]
['beep', 0.0, -1043.982928274027, 0.0, 0.0, 0.0, 0.0, -1108.4230075386772, 0.0]
['beep', 0.0, -1044.5864253743202, 0.0, 0.0, 0.0, 0.0, -1107.819510438384, 0.0]
['beep', 0.0, -1044.8769980522393, 0.0, 0.0, 0.0, 0.0, -1106.9701441490822, 0.0]
['beep', 0.0, -1045.30168119689, 0.0, 0.0, 0.0, 0.0, -1107.7301034605628, 0.0]
['beep', 0.0, -1045.1005154967922, 0.0, 0.0, 0.0, 0.0, -1108.5347662609538, 0.0]
['beep', 0.0, -1045.0334602634264, 0.0, 0.0, 0.0, 0.0, -1108.333600560856, 0.0]
['beep', 0.0, -1044.2511492074907, 0.0, 0.0, 0.0, 0.0, -1109.5629465058978, 0.0]
['beep', 0.0, -1044.0723352518482, 0.0, 0.0, 0.0, 0.0, -1109.4511877836214, 0.0]
['beep', 0.0, -1044.2287974630353, 0.0, 0.0, 0.0, 0.0, -1110.434664539655, 0.0]
['beep', 0.0, -1042.753582328985, 0.0, 0.0, 0.0, 0.0, -1111.2840308289565, 0.0]
['beep', 0.0, -1041.4124776616666, 0.0, 0.0, 0.0, 0.0, -1111.529900017965, 0.0]
['beep', 0.0, -1041.6136433617644, 0.0, 0.0, 0.0, 0.0, -1111.9322314181604, 0.0]
['beep', 0.0, -1040.8313323058287, 0.0, 0.0, 0.0, 0.0, -1112.26750758499, 0.0]
['beep', 0.0, -1042.01597476196, 0.0, 0.0, 0.0, 0.0, -1112.1333971182582, 0.0]
['beep', 0.0, -1040.1607799721694, 0.0, 0.0, 0.0, 0.0, -1113.7874262079508, 0.0]
['beep', 0.0, -1039.9372625276164, 0.0, 0.0, 0.0, 0.0, -1113.5192052744871, 0.0]
['beep', 0.0, -1039.3114136828679, 0.0, 0.0, 0.0, 0.0, -1114.5026820305206, 0.0]
['beep', 0.0, -1040.2054834610801, 0.0, 0.0, 0.0, 0.0, -1115.8884901867498, 0.0]
['beep', 0.0, -1040.630166605731, 0.0, 0.0, 0.0, 0.0, -1114.949716919627, 0.0]
['beep', 0.0, -1040.9430910281053, 0.0, 0.0, 0.0, 0.0, -1113.1615773632022, 0.0]
['beep', 0.0, -1040.3172421833567, 0.0, 0.0, 0.0, 0.0, -1114.815606452895, 0.0]
['beep', 0.0, -1040.4960561389992, 0.0, 0.0, 0.0, 0.0, -1114.9944204085375, 0.0]
['beep', 0.0, -1040.2054834610801, 0.0, 0.0, 0.0, 0.0, -1116.8943186872386, 0.0]
['beep', 0.0, -1040.630166605731, 0.0, 0.0, 0.0, 0.0, -1116.8272634538728, 0.0]
['beep', 0.0, -1040.1831317166248, 0.0, 0.0, 0.0, 0.0, -1116.849615198328, 0.0]
['beep', 0.0, -1040.4737043945438, 0.0, 0.0, 0.0, 0.0, -1117.073132642881, 0.0]
['beep', 0.0, -1041.8371608063176, 0.0, 0.0, 0.0, 0.0, -1116.2014146091242, 0.0]
['beep', 0.0, -1041.3230706838453, 0.0, 0.0, 0.0, 0.0, -1114.7932547084397, 0.0]
['beep', 0.0, -1040.9430910281053, 0.0, 0.0, 0.0, 0.0, -1115.4414552976436, 0.0]
['beep', 0.0, -1040.3842974167226, 0.0, 0.0, 0.0, 0.0, -1115.8437866978393, 0.0]
['beep', 0.0, -1041.3007189393902, 0.0, 0.0, 0.0, 0.0, -1115.0391238974482, 0.0]
['beep', 0.0, -1041.0101462614712, 0.0, 0.0, 0.0, 0.0, -1114.882661686261, 0.0]
['beep', 0.0, -1041.144256728203, 0.0, 0.0, 0.0, 0.0, -1115.8661384422944, 0.0]
['beep', 0.0, -1041.568939872854, 0.0, 0.0, 0.0, 0.0, -1116.9390221761491, 0.0]
['beep', 0.0, -1041.1666084726583, 0.0, 0.0, 0.0, 0.0, -1117.6766297431743, 0.0]
['beep', 0.0, -1041.5465881283985, 0.0, 0.0, 0.0, 0.0, -1117.7436849765402, 0.0]
['beep', 0.0, -1042.6418236067086, 0.0, 0.0, 0.0, 0.0, -1116.8719669427833, 0.0]
['beep', 0.0, -1043.7147073405633, 0.0, 0.0, 0.0, 0.0, -1117.6319262542638, 0.0]
['beep', 0.0, -1044.5640736298649, 0.0, 0.0, 0.0, 0.0, -1117.587222765353, 0.0]
['beep', 0.0, -1044.4076114186778, 0.0, 0.0, 0.0, 0.0, -1119.17419662168, 0.0]
['beep', 0.0, -1043.8041143183846, 0.0, 0.0, 0.0, 0.0, -1121.0293914114704, 0.0]
['beep', 0.0, -1044.9664050300605, 0.0, 0.0, 0.0, 0.0, -1120.1129698888028, 0.0]
['beep', 0.0, -1044.4076114186778, 0.0, 0.0, 0.0, 0.0, -1121.141150133747, 0.0]
['beep', 0.0, -1044.5864253743202, 0.0, 0.0, 0.0, 0.0, -1120.6717635001855, 0.0]
['beep', 0.0, -1044.1840939741248, 0.0, 0.0, 0.0, 0.0, -1120.0012111665262, 0.0]
['beep', 0.0, -1044.6758323521415, 0.0, 0.0, 0.0, 0.0, -1119.6435832552413, 0.0]
['beep', 0.0, -1045.2122742190688, 0.0, 0.0, 0.0, 0.0, -1119.6212315107862, 0.0]
['beep', 0.0, -1043.7594108294738, 0.0, 0.0, 0.0, 0.0, -1120.2470803555348, 0.0]
['beep', 0.0, -1043.9382247851163, 0.0, 0.0, 0.0, 0.0, -1121.2529088560234, 0.0]
['beep', 0.0, -1043.6700038516526, 0.0, 0.0, 0.0, 0.0, -1120.202376866624, 0.0]
['beep', 0.0, -1043.2900241959126, 0.0, 0.0, 0.0, 0.0, -1120.716466989096, 0.0]
['beep', 0.0, -1044.0946869963036, 0.0, 0.0, 0.0, 0.0, -1121.8340542118615, 0.0]
['beep', 0.0, -1042.3959544177, 0.0, 0.0, 0.0, 0.0, -1122.303440845423, 0.0]
['beep', 0.0, -1043.848817807295, 0.0, 0.0, 0.0, 0.0, -1122.0575716564144, 0.0]
['beep', 0.0, -1044.5640736298649, 0.0, 0.0, 0.0, 0.0, -1122.236385612057, 0.0]
['beep', 0.0, -1043.8711695517504, 0.0, 0.0, 0.0, 0.0, -1122.6834205011633, 0.0]
['beep', 0.0, -1043.6476521071975, 0.0, 0.0, 0.0, 0.0, -1123.756304235018, 0.0]
['beep', 0.0, -1043.2900241959126, 0.0, 0.0, 0.0, 0.0, -1122.973993179082, 0.0]
['beep', 0.0, -1044.139390485214, 0.0, 0.0, 0.0, 0.0, -1122.5493100344313, 0.0]
['beep', 0.0, -1043.848817807295, 0.0, 0.0, 0.0, 0.0, -1123.4880833015543, 0.0]
['beep', 0.0, -1043.5135416404655, 0.0, 0.0, 0.0, 0.0, -1124.3598013353112, 0.0]
['beep', 0.0, -1043.2453207070018, 0.0, 0.0, 0.0, 0.0, -1124.6503740132302, 0.0]
['beep', 0.0, -1043.2900241959126, 0.0, 0.0, 0.0, 0.0, -1123.7786559794731, 0.0]
['beep', 0.0, -1044.5193701409544, 0.0, 0.0, 0.0, 0.0, -1124.0468769129368, 0.0]
['beep', 0.0, -1044.1170387407587, 0.0, 0.0, 0.0, 0.0, -1124.203339124124, 0.0]
['beep', 0.0, -1045.0334602634264, 0.0, 0.0, 0.0, 0.0, -1123.8904147017497, 0.0]
['beep', 0.0, -1045.435791663622, 0.0, 0.0, 0.0, 0.0, -1125.0527054134257, 0.0]
['beep', 0.0, -1044.20644571858, 0.0, 0.0, 0.0, 0.0, -1124.7621327355066, 0.0]
['beep', 0.0, -1043.82646606284, 0.0, 0.0, 0.0, 0.0, -1124.784484479962, 0.0]
['beep', 0.0, -1044.8099428188734, 0.0, 0.0, 0.0, 0.0, -1125.0527054134257, 0.0]
['beep', 0.0, -1045.1228672412476, 0.0, 0.0, 0.0, 0.0, -1123.7116007461073, 0.0]
['beep', 0.0, -1044.9440532856052, 0.0, 0.0, 0.0, 0.0, -1125.5444437914425, 0.0]
['beep', 0.0, -1043.7817625739292, 0.0, 0.0, 0.0, 0.0, -1126.527920547476, 0.0]
['beep', 0.0, -1043.4464864070997, 0.0, 0.0, 0.0, 0.0, -1124.7621327355066, 0.0]
['beep', 0.0, -1042.9770997735382, 0.0, 0.0, 0.0, 0.0, -1125.3432780913447, 0.0]
['beep', 0.0, -1042.4183061621554, 0.0, 0.0, 0.0, 0.0, -1124.6056705243195, 0.0]
['beep', 0.0, -1042.1947887176025, 0.0, 0.0, 0.0, 0.0, -1126.0138304250038, 0.0]
['beep', 0.0, -1043.401782918189, 0.0, 0.0, 0.0, 0.0, -1126.170292636191, 0.0]
['beep', 0.0, -1041.5018846394878, 0.0, 0.0, 0.0, 0.0, -1127.399638581233, 0.0]
['beep', 0.0, -1042.7982858178957, 0.0, 0.0, 0.0, 0.0, -1127.4890455590541, 0.0]
['beep', 0.0, -1043.848817807295, 0.0, 0.0, 0.0, 0.0, -1126.9749554365821, 0.0]
['beep', 0.0, -1044.4746666520437, 0.0, 0.0, 0.0, 0.0, -1126.8408449698502, 0.0]
['beep', 0.0, -1043.5358933849209, 0.0, 0.0, 0.0, 0.0, -1127.4443420701436, 0.0]
['beep', 0.0, -1044.9440532856052, 0.0, 0.0, 0.0, 0.0, -1128.0701909148922, 0.0]
['beep', 0.0, -1046.1510474861918, 0.0, 0.0, 0.0, 0.0, -1128.4278188261771, 0.0]
['beep', 0.0, -1045.2122742190688, 0.0, 0.0, 0.0, 0.0, -1128.204301381624, 0.0]
['beep', 0.0, -1042.3959544177, 0.0, 0.0, 0.0, 0.0, -1127.8913769592498, 0.0]
['beep', 0.0, -1041.434829406122, 0.0, 0.0, 0.0, 0.0, -1126.818493225395, 0.0]
['beep', 0.0, -1042.5747683733425, 0.0, 0.0, 0.0, 0.0, -1127.2208246255905, 0.0]
['beep', 0.0, -1042.9100445401723, 0.0, 0.0, 0.0, 0.0, -1127.6008042813307, 0.0]
['beep', 0.0, -1041.9042160396834, 0.0, 0.0, 0.0, 0.0, -1127.3549350923224, 0.0]
['beep', 0.0, -1041.9936230175047, 0.0, 0.0, 0.0, 0.0, -1127.6008042813307, 0.0]
['beep', 0.0, -1043.7370590850187, 0.0, 0.0, 0.0, 0.0, -1128.1148944038027, 0.0]
['beep', 0.0, -1041.077201494837, 0.0, 0.0, 0.0, 0.0, -1129.3218886043894, 0.0]
['beep', 0.0, -1041.0324980059265, 0.0, 0.0, 0.0, 0.0, -1128.4054670817218, 0.0]
['beep', 0.0, -1043.6700038516526, 0.0, 0.0, 0.0, 0.0, -1128.137246148258, 0.0]
['beep', 0.0, -1045.435791663622, 0.0, 0.0, 0.0, 0.0, -1128.360763592811, 0.0]
['beep', 0.0, -1042.686527095619, 0.0, 0.0, 0.0, 0.0, -1130.1936066381463, 0.0]
['beep', 0.0, -1042.1277334842364, 0.0, 0.0, 0.0, 0.0, -1129.7018682601295, 0.0]
['beep', 0.0, -1043.0665067513594, 0.0, 0.0, 0.0, 0.0, -1128.785446737462, 0.0]
['beep', 0.0, -1043.2006172180913, 0.0, 0.0, 0.0, 0.0, -1129.0760194153809, 0.0]
['beep', 0.0, -1042.9100445401723, 0.0, 0.0, 0.0, 0.0, -1129.6348130267636, 0.0]
['beep', 0.0, -1041.8595125507727, 0.0, 0.0, 0.0, 0.0, -1129.2771851154787, 0.0]
['beep', 0.0, -1041.6359951062198, 0.0, 0.0, 0.0, 0.0, -1131.2217868830905, 0.0]
['beep', 0.0, -1043.5358933849209, 0.0, 0.0, 0.0, 0.0, -1130.7971037384395, 0.0]
['beep', 0.0, -1043.6700038516526, 0.0, 0.0, 0.0, 0.0, -1131.2441386275457, 0.0]
['beep', 0.0, -1043.5135416404655, 0.0, 0.0, 0.0, 0.0, -1131.914690961205, 0.0]
['beep', 0.0, -1043.3123759403677, 0.0, 0.0, 0.0, 0.0, -1131.7135252611072, 0.0]
['beep', 0.0, -1041.8371608063176, 0.0, 0.0, 0.0, 0.0, -1131.8476357278391, 0.0]
['beep', 0.0, -1041.6136433617644, 0.0, 0.0, 0.0, 0.0, -1133.0322781839702, 0.0]
['beep', 0.0, -1041.1666084726583, 0.0, 0.0, 0.0, 0.0, -1134.2169206401015, 0.0]
['beep', 0.0, -1042.2841956954237, 0.0, 0.0, 0.0, 0.0, -1132.8981677172385, 0.0]
['beep', 0.0, -1042.9770997735382, 0.0, 0.0, 0.0, 0.0, -1134.4851415735652, 0.0]
['beep', 0.0, -1044.0276317629375, 0.0, 0.0, 0.0, 0.0, -1133.3228508618893, 0.0]
['beep', 0.0, -1045.4804951525325, 0.0, 0.0, 0.0, 0.0, -1133.6804787731742, 0.0]
['beep', 0.0, -1045.435791663622, 0.0, 0.0, 0.0, 0.0, -1134.5969002958418, 0.0]
['beep', 0.0, -1043.8041143183846, 0.0, 0.0, 0.0, 0.0, -1136.1838741521685, 0.0]
['beep', 0.0, -1044.2958526964012, 0.0, 0.0, 0.0, 0.0, -1135.200397396135, 0.0]
['beep', 0.0, -1044.9887567745159, 0.0, 0.0, 0.0, 0.0, -1134.8651212293055, 0.0]
['beep', 0.0, -1043.692355596108, 0.0, 0.0, 0.0, 0.0, -1137.0779439303808, 0.0]
['beep', 0.0, -1039.601986360787, 0.0, 0.0, 0.0, 0.0, -1137.3461648638445, 0.0]
['beep', 0.0, -1036.9421287706052, 0.0, 0.0, 0.0, 0.0, -1137.74849626404, 0.0]
['beep', 0.0, -1042.753582328985, 0.0, 0.0, 0.0, 0.0, -1137.3685166082998, 0.0]
['beep', 0.0, -1047.4921521535102, 0.0, 0.0, 0.0, 0.0, -1135.8038944964285, 0.0]
['beep', 0.0, -1045.1005154967922, 0.0, 0.0, 0.0, 0.0, -1137.301461374934, 0.0]
['beep', 0.0, -1043.11121024027, 0.0, 0.0, 0.0, 0.0, -1139.6707462871966, 0.0]
['beep', 0.0, -1043.5358933849209, 0.0, 0.0, 0.0, 0.0, -1137.2120543971128, 0.0]
['beep', 0.0, -1043.848817807295, 0.0, 0.0, 0.0, 0.0, -1139.55898756492, 0.0]
['beep', 0.0, -1043.2229689625465, 0.0, 0.0, 0.0, 0.0, -1140.3412986208557, 0.0]
['beep', 0.0, -1042.9770997735382, 0.0, 0.0, 0.0, 0.0, -1140.207188154124, 0.0]
['beep', 0.0, -1044.4299631631332, 0.0, 0.0, 0.0, 0.0, -1141.2130166546126, 0.0]
['beep', 0.0, -1045.5251986414432, 0.0, 0.0, 0.0, 0.0, -1141.1906649101575, 0.0]
['beep', 0.0, -1045.815771319362, 0.0, 0.0, 0.0, 0.0, -1140.2965951319452, 0.0]
['beep', 0.0, -1046.6427858642085, 0.0, 0.0, 0.0, 0.0, -1138.262586386512, 0.0]
['beep', 0.0, -1041.9042160396834, 0.0, 0.0, 0.0, 0.0, -1139.916615476205, 0.0]
['beep', 0.0, -1042.1053817397813, 0.0, 0.0, 0.0, 0.0, -1141.011850954515, 0.0]
['beep', 0.0, -1041.2336637060241, 0.0, 0.0, 0.0, 0.0, -1138.7990282534395, 0.0]
['beep', 0.0, -1038.6855648381193, 0.0, 0.0, 0.0, 0.0, -1140.3189468764003, 0.0]
['beep', 0.0, -1043.848817807295, 0.0, 0.0, 0.0, 0.0, -1141.4365340991658, 0.0]
['beep', 0.0, -1046.3745649307448, 0.0, 0.0, 0.0, 0.0, -1140.2965951319452, 0.0]
['beep', 0.0, -1046.106343997281, 0.0, 0.0, 0.0, 0.0, -1139.402525353733, 0.0]
['beep', 0.0, -1043.0665067513594, 0.0, 0.0, 0.0, 0.0, -1141.1459614212467, 0.0]
['beep', 0.0, -1042.2171404620576, 0.0, 0.0, 0.0, 0.0, -1141.816513754906, 0.0]
['beep', 0.0, -1039.3561171717784, 0.0, 0.0, 0.0, 0.0, -1145.3257376343893, 0.0]
['beep', 0.0, -1042.4853613955213, 0.0, 0.0, 0.0, 0.0, -1140.9894992100596, 0.0]
['beep', 0.0, -1040.8089805613733, 0.0, 0.0, 0.0, 0.0, -1140.7436300210513, 0.0]
['beep', 0.0, -1038.171474715647, 0.0, 0.0, 0.0, 0.0, -1143.627005055786, 0.0]
['beep', 0.0, -1041.3454224283007, 0.0, 0.0, 0.0, 0.0, -1142.3082521329227, 0.0]
['beep', 0.0, -1044.0276317629375, 0.0, 0.0, 0.0, 0.0, -1137.8602549863167, 0.0]
['beep', 0.0, -1043.6476521071975, 0.0, 0.0, 0.0, 0.0, -1139.402525353733, 0.0]
['beep', 0.0, -1041.9712712730493, 0.0, 0.0, 0.0, 0.0, -1143.135266677769, 0.0]
['beep', 0.0, -1043.1335619847252, 0.0, 0.0, 0.0, 0.0, -1140.9671474656043, 0.0]
['beep', 0.0, -1040.9877945170158, 0.0, 0.0, 0.0, 0.0, -1139.9389672206603, 0.0]
['beep', 0.0, -1043.2676724514572, 0.0, 0.0, 0.0, 0.0, -1141.3024236324338, 0.0]
['beep', 0.0, -1046.3969166752001, 0.0, 0.0, 0.0, 0.0, -1140.8106852544172, 0.0]
['beep', 0.0, -1046.0616405083706, 0.0, 0.0, 0.0, 0.0, -1140.207188154124, 0.0]
['beep', 0.0, -1045.6146056192645, 0.0, 0.0, 0.0, 0.0, -1141.9282724771824, 0.0]
['beep', 0.0, -1042.5971201177979, 0.0, 0.0, 0.0, 0.0, -1144.006984711526, 0.0]
['beep', 0.0, -1044.7428875855073, 0.0, 0.0, 0.0, 0.0, -1142.7552870220288, 0.0]
['beep', 0.0, -1047.045117264404, 0.0, 0.0, 0.0, 0.0, -1141.2577201435233, 0.0]
['beep', 0.0, -1050.1967132326024, 0.0, 0.0, 0.0, 0.0, -1141.5929963103529, 0.0]
['beep', 0.0, -1048.5873876318203, 0.0, 0.0, 0.0, 0.0, -1142.5317695774759, 0.0]
['beep', 0.0, -1045.1899224746135, 0.0, 0.0, 0.0, 0.0, -1142.7999905109396, 0.0]
['beep', 0.0, -1045.6369573637196, 0.0, 0.0, 0.0, 0.0, -1142.3753073662886, 0.0]
['beep', 0.0, -1047.045117264404, 0.0, 0.0, 0.0, 0.0, -1143.0011562110374, 0.0]
['beep', 0.0, -1047.6486143646973, 0.0, 0.0, 0.0, 0.0, -1141.9953277105485, 0.0]
['beep', 0.0, -1046.6874893531192, 0.0, 0.0, 0.0, 0.0, -1142.5541213219312, 0.0]
['beep', 0.0, -1047.4250969201444, 0.0, 0.0, 0.0, 0.0, -1140.7659817655065, 0.0]
['beep', 0.0, -1048.9673672875604, 0.0, 0.0, 0.0, 0.0, -1139.2460631425456, 0.0]
['beep', 0.0, -1047.8944835537056, 0.0, 0.0, 0.0, 0.0, -1139.7378015205625, 0.0]
['beep', 0.0, -1046.4863236530214, 0.0, 0.0, 0.0, 0.0, -1139.4472288426434, 0.0]
['beep', 0.0, -1047.8944835537056, 0.0, 0.0, 0.0, 0.0, -1140.3189468764003, 0.0]
['beep', 0.0, -1046.821599819851, 0.0, 0.0, 0.0, 0.0, -1140.073077687392, 0.0]
['beep', 0.0, -1046.9780620310382, 0.0, 0.0, 0.0, 0.0, -1139.6260427982859, 0.0]
['beep', 0.0, -1048.0062422759822, 0.0, 0.0, 0.0, 0.0, -1138.620214297797, 0.0]
['beep', 0.0, -1049.593216132309, 0.0, 0.0, 0.0, 0.0, -1139.6260427982859, 0.0]
['beep', 0.0, -1049.5038091544877, 0.0, 0.0, 0.0, 0.0, -1140.0060224540262, 0.0]
['beep', 0.0, -1048.6320911207308, 0.0, 0.0, 0.0, 0.0, -1139.8719119872942, 0.0]
['beep', 0.0, -1049.1461812432028, 0.0, 0.0, 0.0, 0.0, -1139.5813393093754, 0.0]
['beep', 0.0, -1047.0227655199487, 0.0, 0.0, 0.0, 0.0, -1140.0954294318474, 0.0]
['beep', 0.0, -1046.307509697379, 0.0, 0.0, 0.0, 0.0, -1139.6036910538305, 0.0]
['beep', 0.0, -1045.7487160859962, 0.0, 0.0, 0.0, 0.0, -1139.3354701203668, 0.0]
['beep', 0.0, -1047.6039108757868, 0.0, 0.0, 0.0, 0.0, -1138.687269531163, 0.0]
['beep', 0.0, -1048.1850562316247, 0.0, 0.0, 0.0, 0.0, -1136.8097229969171, 0.0]
['beep', 0.0, -1046.821599819851, 0.0, 0.0, 0.0, 0.0, -1138.3743451087887, 0.0]
['beep', 0.0, -1046.307509697379, 0.0, 0.0, 0.0, 0.0, -1137.972013708593, 0.0]
['beep', 0.0, -1046.240454464013, 0.0, 0.0, 0.0, 0.0, -1137.7708480084955, 0.0]
['beep', 0.0, -1046.2181027195577, 0.0, 0.0, 0.0, 0.0, -1138.754324764529, 0.0]
['beep', 0.0, -1047.4474486645995, 0.0, 0.0, 0.0, 0.0, -1137.2567578860233, 0.0]
['beep', 0.0, -1045.5028468969879, 0.0, 0.0, 0.0, 0.0, -1139.0672491869032, 0.0]
['beep', 0.0, -1046.106343997281, 0.0, 0.0, 0.0, 0.0, -1138.1731794086909, 0.0]
['beep', 0.0, -1045.592253874809, 0.0, 0.0, 0.0, 0.0, -1136.4073915967217, 0.0]
['beep', 0.0, -1044.8993497966947, 0.0, 0.0, 0.0, 0.0, -1136.005060196526, 0.0]
['beep', 0.0, -1046.2851579529236, 0.0, 0.0, 0.0, 0.0, -1135.625080540786, 0.0]
['beep', 0.0, -1044.9664050300605, 0.0, 0.0, 0.0, 0.0, -1135.6697840296965, 0.0]
['beep', 0.0, -1044.653480607686, 0.0, 0.0, 0.0, 0.0, -1137.9273102196826, 0.0]
['beep', 0.0, -1043.8711695517504, 0.0, 0.0, 0.0, 0.0, -1138.9554904646268, 0.0]
['beep', 0.0, -1045.1675707301583, 0.0, 0.0, 0.0, 0.0, -1136.8544264858278, 0.0]
['beep', 0.0, -1046.0392887639152, 0.0, 0.0, 0.0, 0.0, -1136.3179846189005, 0.0]
['beep', 0.0, -1045.368736430256, 0.0, 0.0, 0.0, 0.0, -1137.0555921859257, 0.0]
['beep', 0.0, -1043.625300362742, 0.0, 0.0, 0.0, 0.0, -1137.3461648638445, 0.0]
['beep', 0.0, -1042.8429893068062, 0.0, 0.0, 0.0, 0.0, -1137.301461374934, 0.0]
['beep', 0.0, -1043.7594108294738, 0.0, 0.0, 0.0, 0.0, -1137.1897026526574, 0.0]
['beep', 0.0, -1042.4406579066108, 0.0, 0.0, 0.0, 0.0, -1137.301461374934, 0.0]
['beep', 0.0, -1042.8653410512616, 0.0, 0.0, 0.0, 0.0, -1138.5084555755207, 0.0]
['beep', 0.0, -1043.044155006904, 0.0, 0.0, 0.0, 0.0, -1136.787371252462, 0.0]
['beep', 0.0, -1041.1666084726583, 0.0, 0.0, 0.0, 0.0, -1136.429743341177, 0.0]
['beep', 0.0, -1042.2618439509683, 0.0, 0.0, 0.0, 0.0, -1138.5755108088865, 0.0]
['beep', 0.0, -1043.3794311737338, 0.0, 0.0, 0.0, 0.0, -1138.6425660422524, 0.0]
['beep', 0.0, -1043.9605765295717, 0.0, 0.0, 0.0, 0.0, -1135.4239148406882, 0.0]
['beep', 0.0, -1042.6194718622532, 0.0, 0.0, 0.0, 0.0, -1132.7417055060514, 0.0]
['beep', 0.0, -1043.7147073405633, 0.0, 0.0, 0.0, 0.0, -1133.4346095841659, 0.0]
['beep', 0.0, -1042.753582328985, 0.0, 0.0, 0.0, 0.0, -1134.1498654067357, 0.0]
['beep', 0.0, -1042.5077131399767, 0.0, 0.0, 0.0, 0.0, -1136.0944671743473, 0.0]
['beep', 0.0, -1043.3794311737338, 0.0, 0.0, 0.0, 0.0, -1137.74849626404, 0.0]
['beep', 0.0, -1041.3901259172114, 0.0, 0.0, 0.0, 0.0, -1140.0954294318474, 0.0]
['beep', 0.0, -1041.9712712730493, 0.0, 0.0, 0.0, 0.0, -1135.625080540786, 0.0]
['beep', 0.0, -1045.6146056192645, 0.0, 0.0, 0.0, 0.0, -1134.172217151191, 0.0]
['beep', 0.0, -1045.078163752337, 0.0, 0.0, 0.0, 0.0, -1135.17804565168, 0.0]
['beep', 0.0, -1043.5135416404655, 0.0, 0.0, 0.0, 0.0, -1137.9273102196826, 0.0]
['beep', 0.0, -1042.8429893068062, 0.0, 0.0, 0.0, 0.0, -1136.429743341177, 0.0]
['beep', 0.0, -1043.2676724514572, 0.0, 0.0, 0.0, 0.0, -1134.9098247182162, 0.0]
['beep', 0.0, -1044.20644571858, 0.0, 0.0, 0.0, 0.0, -1136.362688107811, 0.0]
['beep', 0.0, -1046.5086753974767, 0.0, 0.0, 0.0, 0.0, -1135.6697840296965, 0.0]
['beep', 0.0, -1044.1170387407587, 0.0, 0.0, 0.0, 0.0, -1136.206225896624, 0.0]
['beep', 0.0, -1043.4464864070997, 0.0, 0.0, 0.0, 0.0, -1137.167350908202, 0.0]
['beep', 0.0, -1044.3629079297673, 0.0, 0.0, 0.0, 0.0, -1135.7815427519731, 0.0]
['beep', 0.0, -1045.7040125970857, 0.0, 0.0, 0.0, 0.0, -1134.5969002958418, 0.0]
['beep', 0.0, -1045.368736430256, 0.0, 0.0, 0.0, 0.0, -1134.9321764626714, 0.0]
['beep', 0.0, -1045.4134399191666, 0.0, 0.0, 0.0, 0.0, -1136.429743341177, 0.0]
['beep', 0.0, -1044.7652393299627, 0.0, 0.0, 0.0, 0.0, -1136.9661852081044, 0.0]
['beep', 0.0, -1046.0169370194599, 0.0, 0.0, 0.0, 0.0, -1135.6697840296965, 0.0]
['beep', 0.0, -1043.7370590850187, 0.0, 0.0, 0.0, 0.0, -1135.9603567076156, 0.0]
['beep', 0.0, -1043.2676724514572, 0.0, 0.0, 0.0, 0.0, -1135.334507862867, 0.0]
['beep', 0.0, -1045.3240329413454, 0.0, 0.0, 0.0, 0.0, -1136.9885369525596, 0.0]
['beep', 0.0, -1042.4183061621554, 0.0, 0.0, 0.0, 0.0, -1138.3072898754228, 0.0]
['beep', 0.0, -1044.8993497966947, 0.0, 0.0, 0.0, 0.0, -1137.167350908202, 0.0]
['beep', 0.0, -1044.4299631631332, 0.0, 0.0, 0.0, 0.0, -1136.8097229969171, 0.0]
['beep', 0.0, -1044.2511492074907, 0.0, 0.0, 0.0, 0.0, -1138.8660834868056, 0.0]
['beep', 0.0, -1045.592253874809, 0.0, 0.0, 0.0, 0.0, -1136.7426677635513, 0.0]
['beep', 0.0, -1045.7040125970857, 0.0, 0.0, 0.0, 0.0, -1136.2956328744451, 0.0]
['beep', 0.0, -1045.3910881747113, 0.0, 0.0, 0.0, 0.0, -1135.1556939072245, 0.0]
['beep', 0.0, -1044.9887567745159, 0.0, 0.0, 0.0, 0.0, -1135.5133218185094, 0.0]
['beep', 0.0, -1044.2958526964012, 0.0, 0.0, 0.0, 0.0, -1136.206225896624, 0.0]
['beep', 0.0, -1044.2287974630353, 0.0, 0.0, 0.0, 0.0, -1138.262586386512, 0.0]
['beep', 0.0, -1043.9605765295717, 0.0, 0.0, 0.0, 0.0, -1135.5133218185094, 0.0]
['beep', 0.0, -1044.653480607686, 0.0, 0.0, 0.0, 0.0, -1136.1615224077134, 0.0]
['beep', 0.0, -1044.6087771187756, 0.0, 0.0, 0.0, 0.0, -1137.457923586121, 0.0]
['beep', 0.0, -1045.1005154967922, 0.0, 0.0, 0.0, 0.0, -1135.9603567076156, 0.0]
['beep', 0.0, -1046.2628062084682, 0.0, 0.0, 0.0, 0.0, -1137.74849626404, 0.0]
['beep', 0.0, -1046.598082375298, 0.0, 0.0, 0.0, 0.0, -1136.1838741521685, 0.0]
['beep', 0.0, -1045.1899224746135, 0.0, 0.0, 0.0, 0.0, -1134.9545282071267, 0.0]
['beep', 0.0, -1044.787591074418, 0.0, 0.0, 0.0, 0.0, -1138.9331387201714, 0.0]
['beep', 0.0, -1044.20644571858, 0.0, 0.0, 0.0, 0.0, -1137.301461374934, 0.0]
['beep', 0.0, -1045.4581434080771, 0.0, 0.0, 0.0, 0.0, -1134.5521968069313, 0.0]
['beep', 0.0, -1045.3463846858008, 0.0, 0.0, 0.0, 0.0, -1138.8660834868056, 0.0]
['beep', 0.0, -1045.949881786094, 0.0, 0.0, 0.0, 0.0, -1139.402525353733, 0.0]
['beep', 0.0, -1045.145218985703, 0.0, 0.0, 0.0, 0.0, -1135.490970074054, 0.0]
['beep', 0.0, -1043.9382247851163, 0.0, 0.0, 0.0, 0.0, -1135.043935184948, 0.0]
['beep', 0.0, -1043.982928274027, 0.0, 0.0, 0.0, 0.0, -1135.4015630962328, 0.0]
['beep', 0.0, -1042.9547480290828, 0.0, 0.0, 0.0, 0.0, -1136.6085572968195, 0.0]
['beep', 0.0, -1041.367774172756, 0.0, 0.0, 0.0, 0.0, -1135.8709497297943, 0.0]
['beep', 0.0, -1041.7924573174068, 0.0, 0.0, 0.0, 0.0, -1135.1109904183138, 0.0]
['beep', 0.0, -1042.5971201177979, 0.0, 0.0, 0.0, 0.0, -1135.2674526295011, 0.0]
['beep', 0.0, -1043.692355596108, 0.0, 0.0, 0.0, 0.0, -1135.0662869294033, 0.0]
['beep', 0.0, -1042.5077131399767, 0.0, 0.0, 0.0, 0.0, -1137.167350908202, 0.0]
['beep', 0.0, -1041.5242363839432, 0.0, 0.0, 0.0, 0.0, -1135.043935184948, 0.0]
['beep', 0.0, -1040.1831317166248, 0.0, 0.0, 0.0, 0.0, -1135.8038944964285, 0.0]
['beep', 0.0, -1040.5854631168204, 0.0, 0.0, 0.0, 0.0, -1137.2791096304786, 0.0]
['beep', 0.0, -1040.4960561389992, 0.0, 0.0, 0.0, 0.0, -1134.2839758734674, 0.0]
['beep', 0.0, -1041.9042160396834, 0.0, 0.0, 0.0, 0.0, -1133.9486997066379, 0.0]
['beep', 0.0, -1044.1840939741248, 0.0, 0.0, 0.0, 0.0, -1133.9934031955486, 0.0]
['beep', 0.0, -1043.468838151555, 0.0, 0.0, 0.0, 0.0, -1134.1498654067357, 0.0]
['beep', 0.0, -1043.7370590850187, 0.0, 0.0, 0.0, 0.0, -1135.0662869294033, 0.0]
['beep', 0.0, -1043.5358933849209, 0.0, 0.0, 0.0, 0.0, -1133.3452026063446, 0.0]
['beep', 0.0, -1041.948919528594, 0.0, 0.0, 0.0, 0.0, -1132.27231887249, 0.0]
['beep', 0.0, -1043.1559137291806, 0.0, 0.0, 0.0, 0.0, -1132.6970020171407, 0.0]
['beep', 0.0, -1044.497018396499, 0.0, 0.0, 0.0, 0.0, -1133.5463683064424, 0.0]
['beep', 0.0, -1041.211311961569, 0.0, 0.0, 0.0, 0.0, -1132.6522985282302, 0.0]
['beep', 0.0, -1038.1044194822812, 0.0, 0.0, 0.0, 0.0, -1131.1323799052693, 0.0]
['beep', 0.0, -1041.7477538284963, 0.0, 0.0, 0.0, 0.0, -1130.975917694082, 0.0]
['beep', 0.0, -1042.8653410512616, 0.0, 0.0, 0.0, 0.0, -1130.3724205937888, 0.0]
['beep', 0.0, -1041.5018846394878, 0.0, 0.0, 0.0, 0.0, -1130.6629932717078, 0.0]
['beep', 0.0, -1041.7477538284963, 0.0, 0.0, 0.0, 0.0, -1128.4501705706323, 0.0]
['beep', 0.0, -1042.1277334842364, 0.0, 0.0, 0.0, 0.0, -1128.137246148258, 0.0]
['beep', 0.0, -1042.3065474398788, 0.0, 0.0, 0.0, 0.0, -1129.4783508155765, 0.0]
['beep', 0.0, -1040.9654427725604, 0.0, 0.0, 0.0, 0.0, -1129.947737449138, 0.0]
['beep', 0.0, -1042.1053817397813, 0.0, 0.0, 0.0, 0.0, -1130.5512345494312, 0.0]
['beep', 0.0, -1043.0665067513594, 0.0, 0.0, 0.0, 0.0, -1130.3500688493334, 0.0]
['beep', 0.0, -1042.6194718622532, 0.0, 0.0, 0.0, 0.0, -1131.4900078165542, 0.0]
['beep', 0.0, -1042.6641753511637, 0.0, 0.0, 0.0, 0.0, -1130.327717104878, 0.0]
['beep', 0.0, -1042.5971201177979, 0.0, 0.0, 0.0, 0.0, -1129.5454060489424, 0.0]
['beep', 0.0, -1043.625300362742, 0.0, 0.0, 0.0, 0.0, -1129.4559990711211, 0.0]
['beep', 0.0, -1043.334727684823, 0.0, 0.0, 0.0, 0.0, -1129.813626982406, 0.0]
['beep', 0.0, -1043.625300362742, 0.0, 0.0, 0.0, 0.0, -1130.3500688493334, 0.0]
['beep', 0.0, -1042.9547480290828, 0.0, 0.0, 0.0, 0.0, -1130.5512345494312, 0.0]
['beep', 0.0, -1043.7817625739292, 0.0, 0.0, 0.0, 0.0, -1130.3947723382441, 0.0]
['beep', 0.0, -1044.0946869963036, 0.0, 0.0, 0.0, 0.0, -1130.171254893691, 0.0]
['beep', 0.0, -1042.686527095619, 0.0, 0.0, 0.0, 0.0, -1130.46182757161, 0.0]
['beep', 0.0, -1041.5018846394878, 0.0, 0.0, 0.0, 0.0, -1130.5288828049759, 0.0]
['beep', 0.0, -1043.0888584958147, 0.0, 0.0, 0.0, 0.0, -1131.0206211829927, 0.0]
['beep', 0.0, -1041.6136433617644, 0.0, 0.0, 0.0, 0.0, -1130.1489031492356, 0.0]
['beep', 0.0, -1040.6748700946416, 0.0, 0.0, 0.0, 0.0, -1131.042972927448, 0.0]
['beep', 0.0, -1042.3959544177, 0.0, 0.0, 0.0, 0.0, -1130.3500688493334, 0.0]
['beep', 0.0, -1041.9712712730493, 0.0, 0.0, 0.0, 0.0, -1130.1489031492356, 0.0]
['beep', 0.0, -1041.4571811505773, 0.0, 0.0, 0.0, 0.0, -1130.4841793160654, 0.0]
['beep', 0.0, -1042.0606782508705, 0.0, 0.0, 0.0, 0.0, -1129.7689234934955, 0.0]
['beep', 0.0, -1042.4630096510662, 0.0, 0.0, 0.0, 0.0, -1129.165426393202, 0.0]
['beep', 0.0, -1043.5358933849209, 0.0, 0.0, 0.0, 0.0, -1128.3831153372664, 0.0]
['beep', 0.0, -1042.9100445401723, 0.0, 0.0, 0.0, 0.0, -1127.8913769592498, 0.0]
['beep', 0.0, -1041.948919528594, 0.0, 0.0, 0.0, 0.0, -1128.8077984819172, 0.0]
['beep', 0.0, -1041.4571811505773, 0.0, 0.0, 0.0, 0.0, -1128.360763592811, 0.0]
['beep', 0.0, -1041.1219049837478, 0.0, 0.0, 0.0, 0.0, -1129.165426393202, 0.0]
['beep', 0.0, -1040.6748700946416, 0.0, 0.0, 0.0, 0.0, -1129.0760194153809, 0.0]
['beep', 0.0, -1040.406649161178, 0.0, 0.0, 0.0, 0.0, -1127.913728703705, 0.0]
['beep', 0.0, -1041.1889602171136, 0.0, 0.0, 0.0, 0.0, -1128.1819496371686, 0.0]
['beep', 0.0, -1041.0995532392924, 0.0, 0.0, 0.0, 0.0, -1129.4112955822106, 0.0]
['beep', 0.0, -1041.9712712730493, 0.0, 0.0, 0.0, 0.0, -1129.523054304487, 0.0]
['beep', 0.0, -1041.4795328950327, 0.0, 0.0, 0.0, 0.0, -1129.143074648747, 0.0]
['beep', 0.0, -1041.5242363839432, 0.0, 0.0, 0.0, 0.0, -1128.204301381624, 0.0]
['beep', 0.0, -1040.6078148612755, 0.0, 0.0, 0.0, 0.0, -1127.980783937071, 0.0]
['beep', 0.0, -1040.630166605731, 0.0, 0.0, 0.0, 0.0, -1128.7407432485513, 0.0]
['beep', 0.0, -1040.3842974167226, 0.0, 0.0, 0.0, 0.0, -1130.0594961714144, 0.0]
['beep', 0.0, -1041.4124776616666, 0.0, 0.0, 0.0, 0.0, -1128.7407432485513, 0.0]
['beep', 0.0, -1041.4124776616666, 0.0, 0.0, 0.0, 0.0, -1128.1819496371686, 0.0]
['beep', 0.0, -1041.948919528594, 0.0, 0.0, 0.0, 0.0, -1127.1537693922246, 0.0]
['beep', 0.0, -1041.6806985951303, 0.0, 0.0, 0.0, 0.0, -1126.9079002032163, 0.0]
['beep', 0.0, -1041.7030503395856, 0.0, 0.0, 0.0, 0.0, -1127.6678595146966, 0.0]
['beep', 0.0, -1042.4183061621554, 0.0, 0.0, 0.0, 0.0, -1127.2655281145012, 0.0]
['beep', 0.0, -1042.1947887176025, 0.0, 0.0, 0.0, 0.0, -1127.7572664925178, 0.0]
['beep', 0.0, -1042.9323962846277, 0.0, 0.0, 0.0, 0.0, -1127.332583347867, 0.0]
['beep', 0.0, -1041.9712712730493, 0.0, 0.0, 0.0, 0.0, -1128.6289845262747, 0.0]
['beep', 0.0, -1041.725402084041, 0.0, 0.0, 0.0, 0.0, -1128.8972054597384, 0.0]
['beep', 0.0, -1042.0606782508705, 0.0, 0.0, 0.0, 0.0, -1128.137246148258, 0.0]
['beep', 0.0, -1041.8595125507727, 0.0, 0.0, 0.0, 0.0, -1126.9973071810375, 0.0]
['beep', 0.0, -1043.4911898960102, 0.0, 0.0, 0.0, 0.0, -1127.846673470339, 0.0]
['beep', 0.0, -1043.468838151555, 0.0, 0.0, 0.0, 0.0, -1126.9973071810375, 0.0]
['beep', 0.0, -1042.6418236067086, 0.0, 0.0, 0.0, 0.0, -1126.9749554365821, 0.0]
['beep', 0.0, -1041.948919528594, 0.0, 0.0, 0.0, 0.0, -1127.4443420701436, 0.0]
['beep', 0.0, -1041.3454224283007, 0.0, 0.0, 0.0, 0.0, -1126.46086531411, 0.0]
['beep', 0.0, -1039.624338105242, 0.0, 0.0, 0.0, 0.0, -1125.0080019245152, 0.0]
['beep', 0.0, -1038.5067508824768, 0.0, 0.0, 0.0, 0.0, -1124.3821530797666, 0.0]
['beep', 0.0, -1037.2550531929796, 0.0, 0.0, 0.0, 0.0, -1124.8291879688727, 0.0]
['beep', 0.0, -1037.5903293598092, 0.0, 0.0, 0.0, 0.0, -1125.3209263468893, 0.0]
['beep', 0.0, -1037.3891636597114, 0.0, 0.0, 0.0, 0.0, -1123.5551385349202, 0.0]
['beep', 0.0, -1039.400820660689, 0.0, 0.0, 0.0, 0.0, -1124.2256908685792, 0.0]
['beep', 0.0, -1040.6748700946416, 0.0, 0.0, 0.0, 0.0, -1124.560967035409, 0.0]
['beep', 0.0, -1042.7982858178957, 0.0, 0.0, 0.0, 0.0, -1124.5386152909537, 0.0]
['beep', 0.0, -1043.2006172180913, 0.0, 0.0, 0.0, 0.0, -1124.4492083131324, 0.0]
['beep', 0.0, -1042.686527095619, 0.0, 0.0, 0.0, 0.0, -1124.113932146303, 0.0]
['beep', 0.0, -1040.8313323058287, 0.0, 0.0, 0.0, 0.0, -1124.4492083131324, 0.0]
['beep', 0.0, -1042.8429893068062, 0.0, 0.0, 0.0, 0.0, -1125.231519369068, 0.0]
['beep', 0.0, -1042.01597476196, 0.0, 0.0, 0.0, 0.0, -1125.3209263468893, 0.0]
['beep', 0.0, -1042.083029995326, 0.0, 0.0, 0.0, 0.0, -1124.8962432022386, 0.0]
['beep', 0.0, -1042.1053817397813, 0.0, 0.0, 0.0, 0.0, -1125.1644641357022, 0.0]
['beep', 0.0, -1040.563111372365, 0.0, 0.0, 0.0, 0.0, -1124.136283890758, 0.0]
['beep', 0.0, -1041.1889602171136, 0.0, 0.0, 0.0, 0.0, -1123.979821679571, 0.0]
['beep', 0.0, -1040.6078148612755, 0.0, 0.0, 0.0, 0.0, -1124.784484479962, 0.0]
['beep', 0.0, -1041.0101462614712, 0.0, 0.0, 0.0, 0.0, -1124.0245251684817, 0.0]
['beep', 0.0, -1042.1277334842364, 0.0, 0.0, 0.0, 0.0, -1123.979821679571, 0.0]
['beep', 0.0, -1041.6806985951303, 0.0, 0.0, 0.0, 0.0, -1124.940946691149, 0.0]
['beep', 0.0, -1042.3959544177, 0.0, 0.0, 0.0, 0.0, -1124.1586356352134, 0.0]
['beep', 0.0, -1042.1724369731471, 0.0, 0.0, 0.0, 0.0, -1124.27039435749, 0.0]
['beep', 0.0, -1041.7030503395856, 0.0, 0.0, 0.0, 0.0, -1124.2256908685792, 0.0]
['beep', 0.0, -1041.5242363839432, 0.0, 0.0, 0.0, 0.0, -1124.6503740132302, 0.0]
['beep', 0.0, -1042.01597476196, 0.0, 0.0, 0.0, 0.0, -1124.8291879688727, 0.0]
['beep', 0.0, -1040.6748700946416, 0.0, 0.0, 0.0, 0.0, -1124.1586356352134, 0.0]
['beep', 0.0, -1040.563111372365, 0.0, 0.0, 0.0, 0.0, -1124.918594946694, 0.0]
['beep', 0.0, -1041.4571811505773, 0.0, 0.0, 0.0, 0.0, -1123.979821679571, 0.0]
['beep', 0.0, -1041.9265677841388, 0.0, 0.0, 0.0, 0.0, -1122.8845862012608, 0.0]
['beep', 0.0, -1042.1947887176025, 0.0, 0.0, 0.0, 0.0, -1123.1975106236353, 0.0]
['beep', 0.0, -1041.591291617309, 0.0, 0.0, 0.0, 0.0, -1123.6445455127414, 0.0]
['beep', 0.0, -1041.3007189393902, 0.0, 0.0, 0.0, 0.0, -1123.9351181906604, 0.0]
['beep', 0.0, -1042.3065474398788, 0.0, 0.0, 0.0, 0.0, -1123.0186966679928, 0.0]
['beep', 0.0, -1042.0383265064152, 0.0, 0.0, 0.0, 0.0, -1122.973993179082, 0.0]
['beep', 0.0, -1042.239492206513, 0.0, 0.0, 0.0, 0.0, -1123.2198623680906, 0.0]
['beep', 0.0, -1041.7924573174068, 0.0, 0.0, 0.0, 0.0, -1122.3257925898781, 0.0]
['beep', 0.0, -1041.1666084726583, 0.0, 0.0, 0.0, 0.0, -1123.8233594683838, 0.0]
['beep', 0.0, -1041.2336637060241, 0.0, 0.0, 0.0, 0.0, -1123.7786559794731, 0.0]
['beep', 0.0, -1041.2560154504795, 0.0, 0.0, 0.0, 0.0, -1122.7951792234396, 0.0]
['beep', 0.0, -1041.948919528594, 0.0, 0.0, 0.0, 0.0, -1123.7116007461073, 0.0]
['beep', 0.0, -1041.077201494837, 0.0, 0.0, 0.0, 0.0, -1123.465731557099, 0.0]
['beep', 0.0, -1040.3842974167226, 0.0, 0.0, 0.0, 0.0, -1123.108103645814, 0.0]
['beep', 0.0, -1041.3454224283007, 0.0, 0.0, 0.0, 0.0, -1122.3257925898781, 0.0]
['beep', 0.0, -1040.4960561389992, 0.0, 0.0, 0.0, 0.0, -1121.8117024674061, 0.0]
['beep', 0.0, -1041.3007189393902, 0.0, 0.0, 0.0, 0.0, -1123.6668972571968, 0.0]
['beep', 0.0, -1039.9596142720718, 0.0, 0.0, 0.0, 0.0, -1125.432685069166, 0.0]
['beep', 0.0, -1040.92073928365, 0.0, 0.0, 0.0, 0.0, -1123.5104350460094, 0.0]
['beep', 0.0, -1040.0937247388035, 0.0, 0.0, 0.0, 0.0, -1122.0352199119593, 0.0]
['beep', 0.0, -1040.2278352055355, 0.0, 0.0, 0.0, 0.0, -1122.236385612057, 0.0]
['beep', 0.0, -1041.3901259172114, 0.0, 0.0, 0.0, 0.0, -1122.4151995676993, 0.0]
['beep', 0.0, -1040.0266695054377, 0.0, 0.0, 0.0, 0.0, -1121.8117024674061, 0.0]
['beep', 0.0, -1040.9430910281053, 0.0, 0.0, 0.0, 0.0, -1123.0410484124482, 0.0]
['beep', 0.0, -1041.077201494837, 0.0, 0.0, 0.0, 0.0, -1123.2869176014565, 0.0]
['beep', 0.0, -1040.5854631168204, 0.0, 0.0, 0.0, 0.0, -1122.8622344568057, 0.0]
['beep', 0.0, -1040.2948904389013, 0.0, 0.0, 0.0, 0.0, -1121.945812934138, 0.0]
['beep', 0.0, -1040.8089805613733, 0.0, 0.0, 0.0, 0.0, -1121.6999437451295, 0.0]
['beep', 0.0, -1040.1607799721694, 0.0, 0.0, 0.0, 0.0, -1121.1858536226575, 0.0]
['beep', 0.0, -1039.5572828718762, 0.0, 0.0, 0.0, 0.0, -1120.4258943111772, 0.0]
['beep', 0.0, -1039.4231724051444, 0.0, 0.0, 0.0, 0.0, -1120.2470803555348, 0.0]
['beep', 0.0, -1038.0597159933707, 0.0, 0.0, 0.0, 0.0, -1120.1576733777135, 0.0]
['beep', 0.0, -1038.6185096047532, 0.0, 0.0, 0.0, 0.0, -1120.7388187335514, 0.0]
['beep', 0.0, -1040.049021249893, 0.0, 0.0, 0.0, 0.0, -1119.7776937219733, 0.0]
['beep', 0.0, -1040.049021249893, 0.0, 0.0, 0.0, 0.0, -1119.5765280218754, 0.0]
['beep', 0.0, -1040.406649161178, 0.0, 0.0, 0.0, 0.0, -1120.6270600112748, 0.0]
['beep', 0.0, -1041.367774172756, 0.0, 0.0, 0.0, 0.0, -1120.7835222224621, 0.0]
['beep', 0.0, -1041.1219049837478, 0.0, 0.0, 0.0, 0.0, -1119.978859422071, 0.0]
['beep', 0.0, -1041.4124776616666, 0.0, 0.0, 0.0, 0.0, -1120.26943209999, 0.0]
['beep', 0.0, -1040.8983875391946, 0.0, 0.0, 0.0, 0.0, -1120.560004777909, 0.0]
['beep', 0.0, -1040.0043177609823, 0.0, 0.0, 0.0, 0.0, -1120.1576733777135, 0.0]
['beep', 0.0, -1039.981966016527, 0.0, 0.0, 0.0, 0.0, -1120.2470803555348, 0.0]
['beep', 0.0, -1040.563111372365, 0.0, 0.0, 0.0, 0.0, -1119.5765280218754, 0.0]
['beep', 0.0, -1040.8983875391946, 0.0, 0.0, 0.0, 0.0, -1120.1800251221687, 0.0]
['beep', 0.0, -1040.272538694446, 0.0, 0.0, 0.0, 0.0, -1120.5376530334536, 0.0]
['beep', 0.0, -1041.1889602171136, 0.0, 0.0, 0.0, 0.0, -1119.1294931327693, 0.0]
['beep', 0.0, -1041.2783671949348, 0.0, 0.0, 0.0, 0.0, -1119.531824532965, 0.0]
['beep', 0.0, -1039.601986360787, 0.0, 0.0, 0.0, 0.0, -1120.8729292002834, 0.0]
['beep', 0.0, -1040.9877945170158, 0.0, 0.0, 0.0, 0.0, -1120.9176326891939, 0.0]
['beep', 0.0, -1040.8983875391946, 0.0, 0.0, 0.0, 0.0, -1121.2529088560234, 0.0]
['beep', 0.0, -1041.568939872854, 0.0, 0.0, 0.0, 0.0, -1121.3199640893895, 0.0]
['beep', 0.0, -1043.0888584958147, 0.0, 0.0, 0.0, 0.0, -1121.7669989784956, 0.0]
['beep', 0.0, -1042.820637562351, 0.0, 0.0, 0.0, 0.0, -1120.9399844336492, 0.0]
['beep', 0.0, -1043.5805968738314, 0.0, 0.0, 0.0, 0.0, -1120.560004777909, 0.0]
['beep', 0.0, -1043.5135416404655, 0.0, 0.0, 0.0, 0.0, -1121.6328885117637, 0.0]
['beep', 0.0, -1044.6087771187756, 0.0, 0.0, 0.0, 0.0, -1119.9565076776157, 0.0]
['beep', 0.0, -1045.078163752337, 0.0, 0.0, 0.0, 0.0, -1119.8671006997945, 0.0]
['beep', 0.0, -1040.116076483259, 0.0, 0.0, 0.0, 0.0, -1120.5823565223643, 0.0]
['beep', 0.0, -1036.4503903925886, 0.0, 0.0, 0.0, 0.0, -1119.8671006997945, 0.0]
['beep', 0.0, -1037.9926607600046, 0.0, 0.0, 0.0, 0.0, -1121.0517431559258, 0.0]
['beep', 0.0, -1039.8478555497952, 0.0, 0.0, 0.0, 0.0, -1121.722295489585, 0.0]
['beep', 0.0, -1039.3784689162337, 0.0, 0.0, 0.0, 0.0, -1121.7446472340403, 0.0]
['beep', 0.0, -1038.8420270493064, 0.0, 0.0, 0.0, 0.0, -1121.7446472340403, 0.0]
['beep', 0.0, -1039.6466898496974, 0.0, 0.0, 0.0, 0.0, -1122.012868167504, 0.0]
['beep', 0.0, -1039.400820660689, 0.0, 0.0, 0.0, 0.0, -1122.3704960787888, 0.0]
['beep', 0.0, -1039.6913933386081, 0.0, 0.0, 0.0, 0.0, -1122.0799234008698, 0.0]
['beep', 0.0, -1040.1831317166248, 0.0, 0.0, 0.0, 0.0, -1121.5881850228532, 0.0]
['beep', 0.0, -1038.4396956491107, 0.0, 0.0, 0.0, 0.0, -1120.850577455828, 0.0]
['beep', 0.0, -1040.0043177609823, 0.0, 0.0, 0.0, 0.0, -1121.655240256219, 0.0]
['beep', 0.0, -1040.4513526500884, 0.0, 0.0, 0.0, 0.0, -1121.5881850228532, 0.0]
['beep', 0.0, -1040.0266695054377, 0.0, 0.0, 0.0, 0.0, -1121.3870193227554, 0.0]
['beep', 0.0, -1040.1831317166248, 0.0, 0.0, 0.0, 0.0, -1121.878757700772, 0.0]
['beep', 0.0, -1039.601986360787, 0.0, 0.0, 0.0, 0.0, -1120.9176326891939, 0.0]
['beep', 0.0, -1040.8983875391946, 0.0, 0.0, 0.0, 0.0, -1120.694115244641, 0.0]
['beep', 0.0, -1041.6136433617644, 0.0, 0.0, 0.0, 0.0, -1121.3199640893895, 0.0]
['beep', 0.0, -1040.853684050284, 0.0, 0.0, 0.0, 0.0, -1120.9623361781046, 0.0]
['beep', 0.0, -1040.1384282277143, 0.0, 0.0, 0.0, 0.0, -1120.336487333356, 0.0]
['beep', 0.0, -1040.2501869499906, 0.0, 0.0, 0.0, 0.0, -1120.2247286110794, 0.0]
['beep', 0.0, -1038.9314340271276, 0.0, 0.0, 0.0, 0.0, -1120.4035425667219, 0.0]
['beep', 0.0, -1038.9761375160383, 0.0, 0.0, 0.0, 0.0, -1121.1635018782022, 0.0]
['beep', 0.0, -1039.177303216136, 0.0, 0.0, 0.0, 0.0, -1120.7611704780068, 0.0]
['beep', 0.0, -1039.2667101939571, 0.0, 0.0, 0.0, 0.0, -1121.2529088560234, 0.0]
['beep', 0.0, -1040.0713729943482, 0.0, 0.0, 0.0, 0.0, -1120.6270600112748, 0.0]
['beep', 0.0, -1040.7419253280075, 0.0, 0.0, 0.0, 0.0, -1121.6105367673083, 0.0]
['beep', 0.0, -1040.3172421833567, 0.0, 0.0, 0.0, 0.0, -1120.9846879225597, 0.0]
['beep', 0.0, -1040.2278352055355, 0.0, 0.0, 0.0, 0.0, -1121.2976123449341, 0.0]
['beep', 0.0, -1040.4513526500884, 0.0, 0.0, 0.0, 0.0, -1121.3199640893895, 0.0]
['beep', 0.0, -1040.563111372365, 0.0, 0.0, 0.0, 0.0, -1121.655240256219, 0.0]
['beep', 0.0, -1039.2890619384125, 0.0, 0.0, 0.0, 0.0, -1120.7611704780068, 0.0]
['beep', 0.0, -1039.1996549605913, 0.0, 0.0, 0.0, 0.0, -1121.4540745561212, 0.0]
['beep', 0.0, -1039.9596142720718, 0.0, 0.0, 0.0, 0.0, -1121.4764263005766, 0.0]
['beep', 0.0, -1040.1831317166248, 0.0, 0.0, 0.0, 0.0, -1121.2529088560234, 0.0]
['beep', 0.0, -1040.2948904389013, 0.0, 0.0, 0.0, 0.0, -1122.1022751453252, 0.0]
['beep', 0.0, -1041.0548497503817, 0.0, 0.0, 0.0, 0.0, -1122.5493100344313, 0.0]
['beep', 0.0, -1040.5854631168204, 0.0, 0.0, 0.0, 0.0, -1121.9681646785932, 0.0]
['beep', 0.0, -1041.2336637060241, 0.0, 0.0, 0.0, 0.0, -1121.3423158338446, 0.0]
['beep', 0.0, -1041.077201494837, 0.0, 0.0, 0.0, 0.0, -1121.0293914114704, 0.0]
['beep', 0.0, -1041.077201494837, 0.0, 0.0, 0.0, 0.0, -1122.012868167504, 0.0]
['beep', 0.0, -1040.6078148612755, 0.0, 0.0, 0.0, 0.0, -1122.3257925898781, 0.0]
['beep', 0.0, -1040.3842974167226, 0.0, 0.0, 0.0, 0.0, -1121.655240256219, 0.0]
['beep', 0.0, -1041.3454224283007, 0.0, 0.0, 0.0, 0.0, -1121.6775920006744, 0.0]
['beep', 0.0, -1041.1889602171136, 0.0, 0.0, 0.0, 0.0, -1122.817530967895, 0.0]
['beep', 0.0, -1040.6078148612755, 0.0, 0.0, 0.0, 0.0, -1121.3199640893895, 0.0]
