['beep', 0.0, -796.057378775761, 0.0, 0.0, 0.0, 0.0, -1074.4260042221551, 0.0]
['beep', 0.0, -796.4373584315013, 0.0, 0.0, 0.0, 0.0, -1074.7389286445296, 0.0]
['beep', 0.0, -795.9679717979398, 0.0, 0.0, 0.0, 0.0, -1075.6553501671972, 0.0]
['beep', 0.0, -795.6997508644761, 0.0, 0.0, 0.0, 0.0, -1075.7671088894735, 0.0]
['beep', 0.0, -796.7726345983309, 0.0, 0.0, 0.0, 0.0, -1075.275370511457, 0.0]
['beep', 0.0, -796.6161723871437, 0.0, 0.0, 0.0, 0.0, -1075.5435914449206, 0.0]
['beep', 0.0, -796.5267654093225, 0.0, 0.0, 0.0, 0.0, -1074.7389286445296, 0.0]
['beep', 0.0, -796.3926549425906, 0.0, 0.0, 0.0, 0.0, -1074.2918937554234, 0.0]
['beep', 0.0, -795.9456200534845, 0.0, 0.0, 0.0, 0.0, -1074.0907280553256, 0.0]
['beep', 0.0, -795.1409572530935, 0.0, 0.0, 0.0, 0.0, -1073.978969333049, 0.0]
['beep', 0.0, -796.1691374980376, 0.0, 0.0, 0.0, 0.0, -1075.8565158672948, 0.0]
['beep', 0.0, -795.766806097842, 0.0, 0.0, 0.0, 0.0, -1075.0965565558145, 0.0]
['beep', 0.0, -794.962143297451, 0.0, 0.0, 0.0, 0.0, -1075.0295013224486, 0.0]
['beep', 0.0, -795.0515502752722, 0.0, 0.0, 0.0, 0.0, -1076.6388269232307, 0.0]
['beep', 0.0, -795.0291985308169, 0.0, 0.0, 0.0, 0.0, -1074.3142454998786, 0.0]
['beep', 0.0, -795.2527159753699, 0.0, 0.0, 0.0, 0.0, -1073.4201757216663, 0.0]
['beep', 0.0, -794.090425263694, 0.0, 0.0, 0.0, 0.0, -1074.6495216667083, 0.0]
['beep', 0.0, -794.8727363196298, 0.0, 0.0, 0.0, 0.0, -1075.275370511457, 0.0]
['beep', 0.0, -796.2138409869482, 0.0, 0.0, 0.0, 0.0, -1077.2199722790685, 0.0]
['beep', 0.0, -796.929096809518, 0.0, 0.0, 0.0, 0.0, -1077.0188065789707, 0.0]
['beep', 0.0, -796.4820619204119, 0.0, 0.0, 0.0, 0.0, -1077.0635100678815, 0.0]
['beep', 0.0, -795.9903235423951, 0.0, 0.0, 0.0, 0.0, -1077.2199722790685, 0.0]
['beep', 0.0, -795.9679717979398, 0.0, 0.0, 0.0, 0.0, -1077.532896701443, 0.0]
['beep', 0.0, -796.2138409869482, 0.0, 0.0, 0.0, 0.0, -1078.9187048576719, 0.0]
['beep', 0.0, -796.5267654093225, 0.0, 0.0, 0.0, 0.0, -1076.7058821565965, 0.0]
['beep', 0.0, -796.5938206426885, 0.0, 0.0, 0.0, 0.0, -1076.2141437785797, 0.0]
['beep', 0.0, -796.2585444758588, 0.0, 0.0, 0.0, 0.0, -1076.5047164564987, 0.0]
['beep', 0.0, -795.3421229531912, 0.0, 0.0, 0.0, 0.0, -1076.527068200954, 0.0]
['beep', 0.0, -796.2585444758588, 0.0, 0.0, 0.0, 0.0, -1077.1529170457027, 0.0]
['beep', 0.0, -796.7055793649649, 0.0, 0.0, 0.0, 0.0, -1076.750585645507, 0.0]
['beep', 0.0, -797.4431869319901, 0.0, 0.0, 0.0, 0.0, -1076.4153094786775, 0.0]
['beep', 0.0, -797.1079107651605, 0.0, 0.0, 0.0, 0.0, -1077.1529170457027, 0.0]
['beep', 0.0, -795.7891578422973, 0.0, 0.0, 0.0, 0.0, -1076.59412343432, 0.0]
['beep', 0.0, -795.7444543533867, 0.0, 0.0, 0.0, 0.0, -1076.7729373899624, 0.0]
['beep', 0.0, -795.543288653289, 0.0, 0.0, 0.0, 0.0, -1076.3929577342221, 0.0]
['beep', 0.0, -795.4538816754678, 0.0, 0.0, 0.0, 0.0, -1076.2811990119458, 0.0]
['beep', 0.0, -796.929096809518, 0.0, 0.0, 0.0, 0.0, -1075.945922845116, 0.0]
['beep', 0.0, -797.5996491431772, 0.0, 0.0, 0.0, 0.0, -1076.7729373899624, 0.0]
['beep', 0.0, -797.7114078654538, 0.0, 0.0, 0.0, 0.0, -1077.7117106570854, 0.0]
['beep', 0.0, -796.3703031981354, 0.0, 0.0, 0.0, 0.0, -1076.728233901052, 0.0]
['beep', 0.0, -795.6997508644761, 0.0, 0.0, 0.0, 0.0, -1076.6164751787753, 0.0]
['beep', 0.0, -795.766806097842, 0.0, 0.0, 0.0, 0.0, -1077.4434897236217, 0.0]
['beep', 0.0, -796.2361927314035, 0.0, 0.0, 0.0, 0.0, -1077.0635100678815, 0.0]
['beep', 0.0, -797.2420212318923, 0.0, 0.0, 0.0, 0.0, -1077.398786234711, 0.0]
['beep', 0.0, -797.2867247208029, 0.0, 0.0, 0.0, 0.0, -1078.6728356686635, 0.0]
['beep', 0.0, -798.1360910101046, 0.0, 0.0, 0.0, 0.0, -1078.4493182241104, 0.0]
['beep', 0.0, -797.9796287989175, 0.0, 0.0, 0.0, 0.0, -1077.6446554237193, 0.0]
['beep', 0.0, -795.8115095867527, 0.0, 0.0, 0.0, 0.0, -1078.1140420572808, 0.0]
['beep', 0.0, -795.9903235423951, 0.0, 0.0, 0.0, 0.0, -1078.3822629907445, 0.0]
['beep', 0.0, -796.7726345983309, 0.0, 0.0, 0.0, 0.0, -1078.0022833350042, 0.0]
['beep', 0.0, -796.9067450650628, 0.0, 0.0, 0.0, 0.0, -1076.6164751787753, 0.0]
['beep', 0.0, -797.1302625096158, 0.0, 0.0, 0.0, 0.0, -1077.0635100678815, 0.0]
['beep', 0.0, -796.9738002984286, 0.0, 0.0, 0.0, 0.0, -1079.2986845134121, 0.0]
['beep', 0.0, -796.7279311094203, 0.0, 0.0, 0.0, 0.0, -1078.851649624306, 0.0]
['beep', 0.0, -796.9738002984286, 0.0, 0.0, 0.0, 0.0, -1078.0693385683703, 0.0]
['beep', 0.0, -797.4878904209007, 0.0, 0.0, 0.0, 0.0, -1077.1305653012473, 0.0]
['beep', 0.0, -796.6832276205097, 0.0, 0.0, 0.0, 0.0, -1078.1810972906467, 0.0]
['beep', 0.0, -795.8115095867527, 0.0, 0.0, 0.0, 0.0, -1078.6728356686635, 0.0]
['beep', 0.0, -795.7891578422973, 0.0, 0.0, 0.0, 0.0, -1078.4269664796552, 0.0]
['beep', 0.0, -796.996152042884, 0.0, 0.0, 0.0, 0.0, -1078.0693385683703, 0.0]
['beep', 0.0, -796.3703031981354, 0.0, 0.0, 0.0, 0.0, -1077.9352281016384, 0.0]
['beep', 0.0, -795.1856607420041, 0.0, 0.0, 0.0, 0.0, -1078.2258007795574, 0.0]
['beep', 0.0, -795.4538816754678, 0.0, 0.0, 0.0, 0.0, -1078.203449035102, 0.0]
['beep', 0.0, -795.543288653289, 0.0, 0.0, 0.0, 0.0, -1076.7058821565965, 0.0]
['beep', 0.0, -795.6773991200208, 0.0, 0.0, 0.0, 0.0, -1075.2530187670015, 0.0]
['beep', 0.0, -794.8503845751744, 0.0, 0.0, 0.0, 0.0, -1077.2646757679793, 0.0]
['beep', 0.0, -795.5209369088336, 0.0, 0.0, 0.0, 0.0, -1077.7117106570854, 0.0]
['beep', 0.0, -795.8115095867527, 0.0, 0.0, 0.0, 0.0, -1077.5105449569876, 0.0]
['beep', 0.0, -796.2585444758588, 0.0, 0.0, 0.0, 0.0, -1079.2763327689568, 0.0]
['beep', 0.0, -796.7055793649649, 0.0, 0.0, 0.0, 0.0, -1078.1140420572808, 0.0]
['beep', 0.0, -797.4655386764454, 0.0, 0.0, 0.0, 0.0, -1077.2870275124344, 0.0]
['beep', 0.0, -797.1526142540711, 0.0, 0.0, 0.0, 0.0, -1077.9352281016384, 0.0]
['beep', 0.0, -796.5267654093225, 0.0, 0.0, 0.0, 0.0, -1078.1587455461915, 0.0]
['beep', 0.0, -796.0126752868504, 0.0, 0.0, 0.0, 0.0, -1076.5717716898646, 0.0]
['beep', 0.0, -796.9738002984286, 0.0, 0.0, 0.0, 0.0, -1077.1529170457027, 0.0]
['beep', 0.0, -797.1079107651605, 0.0, 0.0, 0.0, 0.0, -1077.5105449569876, 0.0]
['beep', 0.0, -797.0632072762498, 0.0, 0.0, 0.0, 0.0, -1076.5494199454095, 0.0]
['beep', 0.0, -797.1302625096158, 0.0, 0.0, 0.0, 0.0, -1075.431832722644, 0.0]
['beep', 0.0, -796.6161723871437, 0.0, 0.0, 0.0, 0.0, -1075.7671088894735, 0.0]
['beep', 0.0, -796.7055793649649, 0.0, 0.0, 0.0, 0.0, -1076.9517513456049, 0.0]
['beep', 0.0, -796.8843933206074, 0.0, 0.0, 0.0, 0.0, -1076.59412343432, 0.0]
['beep', 0.0, -796.7055793649649, 0.0, 0.0, 0.0, 0.0, -1075.7447571450184, 0.0]
['beep', 0.0, -797.4431869319901, 0.0, 0.0, 0.0, 0.0, -1075.141260044725, 0.0]
['beep', 0.0, -796.5267654093225, 0.0, 0.0, 0.0, 0.0, -1076.2811990119458, 0.0]
['beep', 0.0, -797.6443526320878, 0.0, 0.0, 0.0, 0.0, -1075.6553501671972, 0.0]
['beep', 0.0, -797.3984834430795, 0.0, 0.0, 0.0, 0.0, -1074.2024867776022, 0.0]
['beep', 0.0, -796.7279311094203, 0.0, 0.0, 0.0, 0.0, -1075.722405400563, 0.0]
['beep', 0.0, -796.6608758760543, 0.0, 0.0, 0.0, 0.0, -1074.8283356223508, 0.0]
['beep', 0.0, -796.4820619204119, 0.0, 0.0, 0.0, 0.0, -1075.1636117891803, 0.0]
['beep', 0.0, -796.0350270313057, 0.0, 0.0, 0.0, 0.0, -1075.588294933831, 0.0]
['beep', 0.0, -796.5044136648672, 0.0, 0.0, 0.0, 0.0, -1076.4823647120434, 0.0]
['beep', 0.0, -797.6667043765432, 0.0, 0.0, 0.0, 0.0, -1075.9906263340267, 0.0]
['beep', 0.0, -796.6832276205097, 0.0, 0.0, 0.0, 0.0, -1077.1305653012473, 0.0]
['beep', 0.0, -797.2643729763477, 0.0, 0.0, 0.0, 0.0, -1077.2646757679793, 0.0]
['beep', 0.0, -797.3984834430795, 0.0, 0.0, 0.0, 0.0, -1076.527068200954, 0.0]
['beep', 0.0, -797.0408555317946, 0.0, 0.0, 0.0, 0.0, -1075.074204811359, 0.0]
['beep', 0.0, -797.0408555317946, 0.0, 0.0, 0.0, 0.0, -1075.9682745895714, 0.0]
['beep', 0.0, -795.4091781865571, 0.0, 0.0, 0.0, 0.0, -1076.6164751787753, 0.0]
['beep', 0.0, -796.3926549425906, 0.0, 0.0, 0.0, 0.0, -1075.2977222559123, 0.0]
['beep', 0.0, -796.8396898316968, 0.0, 0.0, 0.0, 0.0, -1077.108213556792, 0.0]
['beep', 0.0, -795.4091781865571, 0.0, 0.0, 0.0, 0.0, -1077.7787658904513, 0.0]
['beep', 0.0, -796.1020822646716, 0.0, 0.0, 0.0, 0.0, -1076.6835304121412, 0.0]
['beep', 0.0, -797.9349253100069, 0.0, 0.0, 0.0, 0.0, -1076.9293996011495, 0.0]
['beep', 0.0, -797.3314282097135, 0.0, 0.0, 0.0, 0.0, -1077.4658414680769, 0.0]
['beep', 0.0, -797.4878904209007, 0.0, 0.0, 0.0, 0.0, -1075.6106466782865, 0.0]
['beep', 0.0, -796.3926549425906, 0.0, 0.0, 0.0, 0.0, -1075.9906263340267, 0.0]
['beep', 0.0, -797.3761316986241, 0.0, 0.0, 0.0, 0.0, -1075.4765362115547, 0.0]
['beep', 0.0, -798.1584427545599, 0.0, 0.0, 0.0, 0.0, -1076.1470885452138, 0.0]
['beep', 0.0, -797.9349253100069, 0.0, 0.0, 0.0, 0.0, -1077.1976205346132, 0.0]
['beep', 0.0, -796.8173380872415, 0.0, 0.0, 0.0, 0.0, -1077.4881932125322, 0.0]
['beep', 0.0, -796.2585444758588, 0.0, 0.0, 0.0, 0.0, -1076.236495523035, 0.0]
['beep', 0.0, -796.8620415761521, 0.0, 0.0, 0.0, 0.0, -1076.370605989767, 0.0]
['beep', 0.0, -796.4373584315013, 0.0, 0.0, 0.0, 0.0, -1077.4434897236217, 0.0]
['beep', 0.0, -796.5714688982331, 0.0, 0.0, 0.0, 0.0, -1077.4434897236217, 0.0]
['beep', 0.0, -796.8843933206074, 0.0, 0.0, 0.0, 0.0, -1077.1529170457027, 0.0]
['beep', 0.0, -796.8843933206074, 0.0, 0.0, 0.0, 0.0, -1077.5105449569876, 0.0]
['beep', 0.0, -796.7949863427862, 0.0, 0.0, 0.0, 0.0, -1078.494021713021, 0.0]
['beep', 0.0, -796.3255997092248, 0.0, 0.0, 0.0, 0.0, -1077.5999519348088, 0.0]
['beep', 0.0, -795.9679717979398, 0.0, 0.0, 0.0, 0.0, -1078.3822629907445, 0.0]
['beep', 0.0, -795.3644746976465, 0.0, 0.0, 0.0, 0.0, -1078.0693385683703, 0.0]
['beep', 0.0, -794.6492188750767, 0.0, 0.0, 0.0, 0.0, -1077.4434897236217, 0.0]
['beep', 0.0, -794.7833293418086, 0.0, 0.0, 0.0, 0.0, -1077.108213556792, 0.0]
['beep', 0.0, -794.3586461971577, 0.0, 0.0, 0.0, 0.0, -1078.0022833350042, 0.0]
['beep', 0.0, -793.1963554854817, 0.0, 0.0, 0.0, 0.0, -1077.756414145996, 0.0]
['beep', 0.0, -794.090425263694, 0.0, 0.0, 0.0, 0.0, -1077.1976205346132, 0.0]
['beep', 0.0, -794.7386258528979, 0.0, 0.0, 0.0, 0.0, -1076.5047164564987, 0.0]
['beep', 0.0, -793.799852585775, 0.0, 0.0, 0.0, 0.0, -1076.1470885452138, 0.0]
['beep', 0.0, -794.0457217747834, 0.0, 0.0, 0.0, 0.0, -1075.4988879560099, 0.0]
['beep', 0.0, -794.2245357304258, 0.0, 0.0, 0.0, 0.0, -1076.750585645507, 0.0]
['beep', 0.0, -795.3197712087359, 0.0, 0.0, 0.0, 0.0, -1077.4434897236217, 0.0]
['beep', 0.0, -796.34795145368, 0.0, 0.0, 0.0, 0.0, -1076.370605989767, 0.0]
['beep', 0.0, -796.1020822646716, 0.0, 0.0, 0.0, 0.0, -1076.9070478566944, 0.0]
['beep', 0.0, -794.6939223639873, 0.0, 0.0, 0.0, 0.0, -1077.4434897236217, 0.0]
['beep', 0.0, -794.7386258528979, 0.0, 0.0, 0.0, 0.0, -1077.8458211238171, 0.0]
['beep', 0.0, -793.9339630525069, 0.0, 0.0, 0.0, 0.0, -1078.6057804352977, 0.0]
['beep', 0.0, -794.5598118972555, 0.0, 0.0, 0.0, 0.0, -1077.4434897236217, 0.0]
['beep', 0.0, -795.0515502752722, 0.0, 0.0, 0.0, 0.0, -1077.3764344902556, 0.0]
['beep', 0.0, -795.0962537641828, 0.0, 0.0, 0.0, 0.0, -1078.6057804352977, 0.0]
['beep', 0.0, -794.8056810862638, 0.0, 0.0, 0.0, 0.0, -1078.0246350794596, 0.0]
['beep', 0.0, -793.6880938634985, 0.0, 0.0, 0.0, 0.0, -1079.7457194025183, 0.0]
['beep', 0.0, -793.8669078191409, 0.0, 0.0, 0.0, 0.0, -1079.7457194025183, 0.0]
['beep', 0.0, -794.2021839859706, 0.0, 0.0, 0.0, 0.0, -1077.8234693793618, 0.0]
['beep', 0.0, -794.0457217747834, 0.0, 0.0, 0.0, 0.0, -1078.717539157574, 0.0]
['beep', 0.0, -793.8222043302303, 0.0, 0.0, 0.0, 0.0, -1078.270504268468, 0.0]
['beep', 0.0, -793.5316316523114, 0.0, 0.0, 0.0, 0.0, -1078.3599112462891, 0.0]
['beep', 0.0, -794.7386258528979, 0.0, 0.0, 0.0, 0.0, -1077.0858618123368, 0.0]
['beep', 0.0, -793.7327973524091, 0.0, 0.0, 0.0, 0.0, -1077.2646757679793, 0.0]
['beep', 0.0, -795.766806097842, 0.0, 0.0, 0.0, 0.0, -1077.5105449569876, 0.0]
['beep', 0.0, -796.5714688982331, 0.0, 0.0, 0.0, 0.0, -1077.1976205346132, 0.0]
['beep', 0.0, -795.1633089975487, 0.0, 0.0, 0.0, 0.0, -1077.9352281016384, 0.0]
['beep', 0.0, -795.0962537641828, 0.0, 0.0, 0.0, 0.0, -1077.8905246127279, 0.0]
['beep', 0.0, -794.5821636417107, 0.0, 0.0, 0.0, 0.0, -1076.7058821565965, 0.0]
['beep', 0.0, -794.3586461971577, 0.0, 0.0, 0.0, 0.0, -1076.7058821565965, 0.0]
['beep', 0.0, -793.1740037410265, 0.0, 0.0, 0.0, 0.0, -1077.3317310013451, 0.0]
['beep', 0.0, -793.1963554854817, 0.0, 0.0, 0.0, 0.0, -1075.722405400563, 0.0]
['beep', 0.0, -795.0068467863616, 0.0, 0.0, 0.0, 0.0, -1075.8341641228396, 0.0]
['beep', 0.0, -794.7609775973532, 0.0, 0.0, 0.0, 0.0, -1075.6777019116523, 0.0]
['beep', 0.0, -794.7609775973532, 0.0, 0.0, 0.0, 0.0, -1075.7000536561077, 0.0]
['beep', 0.0, -795.2080124864593, 0.0, 0.0, 0.0, 0.0, -1075.8341641228396, 0.0]
['beep', 0.0, -795.2750677198253, 0.0, 0.0, 0.0, 0.0, -1076.9741030900602, 0.0]
['beep', 0.0, -795.8562130756633, 0.0, 0.0, 0.0, 0.0, -1075.945922845116, 0.0]
['beep', 0.0, -796.5044136648672, 0.0, 0.0, 0.0, 0.0, -1076.6388269232307, 0.0]
['beep', 0.0, -797.3090764652583, 0.0, 0.0, 0.0, 0.0, -1077.6223036792642, 0.0]
['beep', 0.0, -797.1302625096158, 0.0, 0.0, 0.0, 0.0, -1077.3317310013451, 0.0]
['beep', 0.0, -795.4315299310124, 0.0, 0.0, 0.0, 0.0, -1076.6164751787753, 0.0]
['beep', 0.0, -796.996152042884, 0.0, 0.0, 0.0, 0.0, -1076.6164751787753, 0.0]
['beep', 0.0, -795.6550473755655, 0.0, 0.0, 0.0, 0.0, -1077.7340624015405, 0.0]
['beep', 0.0, -795.5656403977442, 0.0, 0.0, 0.0, 0.0, -1076.9517513456049, 0.0]
['beep', 0.0, -795.4985851643784, 0.0, 0.0, 0.0, 0.0, -1077.2199722790685, 0.0]
['beep', 0.0, -796.415006687046, 0.0, 0.0, 0.0, 0.0, -1078.270504268468, 0.0]
['beep', 0.0, -797.7561113543644, 0.0, 0.0, 0.0, 0.0, -1076.3482542453116, 0.0]
['beep', 0.0, -795.8785648201185, 0.0, 0.0, 0.0, 0.0, -1076.370605989767, 0.0]
['beep', 0.0, -795.6326956311102, 0.0, 0.0, 0.0, 0.0, -1077.1305653012473, 0.0]
['beep', 0.0, -796.4820619204119, 0.0, 0.0, 0.0, 0.0, -1077.7340624015405, 0.0]
['beep', 0.0, -795.6326956311102, 0.0, 0.0, 0.0, 0.0, -1077.6670071681747, 0.0]
['beep', 0.0, -797.3314282097135, 0.0, 0.0, 0.0, 0.0, -1077.041158323426, 0.0]
['beep', 0.0, -795.2080124864593, 0.0, 0.0, 0.0, 0.0, -1077.3093792568898, 0.0]
['beep', 0.0, -795.8338613312079, 0.0, 0.0, 0.0, 0.0, -1078.561076946387, 0.0]
['beep', 0.0, -795.2080124864593, 0.0, 0.0, 0.0, 0.0, -1078.8292978798506, 0.0]
['beep', 0.0, -792.6152101296437, 0.0, 0.0, 0.0, 0.0, -1076.9293996011495, 0.0]
['beep', 0.0, -792.0117130293504, 0.0, 0.0, 0.0, 0.0, -1076.3259025008563, 0.0]
['beep', 0.0, -790.961181039951, 0.0, 0.0, 0.0, 0.0, -1076.2141437785797, 0.0]
['beep', 0.0, -790.3353321952025, 0.0, 0.0, 0.0, 0.0, -1076.5494199454095, 0.0]
['beep', 0.0, -791.0952915066829, 0.0, 0.0, 0.0, 0.0, -1075.3200740003674, 0.0]
['beep', 0.0, -792.6822653630097, 0.0, 0.0, 0.0, 0.0, -1075.7447571450184, 0.0]
['beep', 0.0, -794.9844950419063, 0.0, 0.0, 0.0, 0.0, -1076.0576815673926, 0.0]
['beep', 0.0, -794.7609775973532, 0.0, 0.0, 0.0, 0.0, -1075.074204811359, 0.0]
['beep', 0.0, -794.313942708247, 0.0, 0.0, 0.0, 0.0, -1076.1023850563033, 0.0]
['beep', 0.0, -795.4091781865571, 0.0, 0.0, 0.0, 0.0, -1075.275370511457, 0.0]
['beep', 0.0, -795.3644746976465, 0.0, 0.0, 0.0, 0.0, -1075.4988879560099, 0.0]
['beep', 0.0, -794.9844950419063, 0.0, 0.0, 0.0, 0.0, -1076.1470885452138, 0.0]
['beep', 0.0, -794.8727363196298, 0.0, 0.0, 0.0, 0.0, -1076.1023850563033, 0.0]
['beep', 0.0, -794.5374601528001, 0.0, 0.0, 0.0, 0.0, -1077.0188065789707, 0.0]
['beep', 0.0, -793.799852585775, 0.0, 0.0, 0.0, 0.0, -1078.270504268468, 0.0]
['beep', 0.0, -793.7327973524091, 0.0, 0.0, 0.0, 0.0, -1078.7398909020294, 0.0]
['beep', 0.0, -796.2585444758588, 0.0, 0.0, 0.0, 0.0, -1077.7117106570854, 0.0]
['beep', 0.0, -796.2585444758588, 0.0, 0.0, 0.0, 0.0, -1077.6223036792642, 0.0]
['beep', 0.0, -795.6326956311102, 0.0, 0.0, 0.0, 0.0, -1078.4716699685657, 0.0]
['beep', 0.0, -795.2974194642806, 0.0, 0.0, 0.0, 0.0, -1078.1140420572808, 0.0]
['beep', 0.0, -794.4704049194343, 0.0, 0.0, 0.0, 0.0, -1077.3317310013451, 0.0]
['beep', 0.0, -794.8056810862638, 0.0, 0.0, 0.0, 0.0, -1078.0022833350042, 0.0]
['beep', 0.0, -793.799852585775, 0.0, 0.0, 0.0, 0.0, -1078.6057804352977, 0.0]
['beep', 0.0, -793.4198729300348, 0.0, 0.0, 0.0, 0.0, -1079.0304635799484, 0.0]
['beep', 0.0, -793.285762463303, 0.0, 0.0, 0.0, 0.0, -1079.1869257911355, 0.0]
['beep', 0.0, -792.9057828075628, 0.0, 0.0, 0.0, 0.0, -1078.4046147351999, 0.0]
['beep', 0.0, -792.5034514073673, 0.0, 0.0, 0.0, 0.0, -1076.3929577342221, 0.0]
['beep', 0.0, -794.0010182858728, 0.0, 0.0, 0.0, 0.0, -1076.59412343432, 0.0]
['beep', 0.0, -793.509279907856, 0.0, 0.0, 0.0, 0.0, -1077.5105449569876, 0.0]
['beep', 0.0, -794.3586461971577, 0.0, 0.0, 0.0, 0.0, -1076.9964548345156, 0.0]
['beep', 0.0, -793.5316316523114, 0.0, 0.0, 0.0, 0.0, -1077.4881932125322, 0.0]
['beep', 0.0, -794.4257014305236, 0.0, 0.0, 0.0, 0.0, -1077.68935891263, 0.0]
['beep', 0.0, -794.313942708247, 0.0, 0.0, 0.0, 0.0, -1078.4269664796552, 0.0]
['beep', 0.0, -794.0457217747834, 0.0, 0.0, 0.0, 0.0, -1078.1587455461915, 0.0]
['beep', 0.0, -794.1127770081494, 0.0, 0.0, 0.0, 0.0, -1077.7340624015405, 0.0]
['beep', 0.0, -793.8445560746857, 0.0, 0.0, 0.0, 0.0, -1078.0693385683703, 0.0]
['beep', 0.0, -793.6210386301326, 0.0, 0.0, 0.0, 0.0, -1078.3599112462891, 0.0]
['beep', 0.0, -792.8834310631074, 0.0, 0.0, 0.0, 0.0, -1076.9517513456049, 0.0]
['beep', 0.0, -792.056416518261, 0.0, 0.0, 0.0, 0.0, -1077.4658414680769, 0.0]
['beep', 0.0, -792.9728380409287, 0.0, 0.0, 0.0, 0.0, -1076.9741030900602, 0.0]
['beep', 0.0, -793.3975211855795, 0.0, 0.0, 0.0, 0.0, -1076.3259025008563, 0.0]
['beep', 0.0, -794.313942708247, 0.0, 0.0, 0.0, 0.0, -1076.9964548345156, 0.0]
['beep', 0.0, -794.380997941613, 0.0, 0.0, 0.0, 0.0, -1078.6504839242082, 0.0]
['beep', 0.0, -794.1351287526046, 0.0, 0.0, 0.0, 0.0, -1078.5387252019316, 0.0]
['beep', 0.0, -794.9397915529956, 0.0, 0.0, 0.0, 0.0, -1077.398786234711, 0.0]
['beep', 0.0, -796.415006687046, 0.0, 0.0, 0.0, 0.0, -1077.2646757679793, 0.0]
['beep', 0.0, -796.2361927314035, 0.0, 0.0, 0.0, 0.0, -1076.303550756401, 0.0]
['beep', 0.0, -796.3032479647694, 0.0, 0.0, 0.0, 0.0, -1077.2199722790685, 0.0]
['beep', 0.0, -795.8562130756633, 0.0, 0.0, 0.0, 0.0, -1077.555248445898, 0.0]
['beep', 0.0, -796.2138409869482, 0.0, 0.0, 0.0, 0.0, -1078.203449035102, 0.0]
['beep', 0.0, -795.8115095867527, 0.0, 0.0, 0.0, 0.0, -1077.8905246127279, 0.0]
['beep', 0.0, -794.9844950419063, 0.0, 0.0, 0.0, 0.0, -1077.2199722790685, 0.0]
['beep', 0.0, -793.8445560746857, 0.0, 0.0, 0.0, 0.0, -1077.0635100678815, 0.0]
['beep', 0.0, -794.313942708247, 0.0, 0.0, 0.0, 0.0, -1077.7787658904513, 0.0]
['beep', 0.0, -794.2468874748812, 0.0, 0.0, 0.0, 0.0, -1077.3540827458005, 0.0]
['beep', 0.0, -794.8280328307192, 0.0, 0.0, 0.0, 0.0, -1077.0858618123368, 0.0]
['beep', 0.0, -794.6492188750767, 0.0, 0.0, 0.0, 0.0, -1077.1529170457027, 0.0]
['beep', 0.0, -794.6045153861661, 0.0, 0.0, 0.0, 0.0, -1077.1529170457027, 0.0]
['beep', 0.0, -794.7386258528979, 0.0, 0.0, 0.0, 0.0, -1077.8905246127279, 0.0]
['beep', 0.0, -794.0457217747834, 0.0, 0.0, 0.0, 0.0, -1078.0693385683703, 0.0]
['beep', 0.0, -794.1351287526046, 0.0, 0.0, 0.0, 0.0, -1078.851649624306, 0.0]
['beep', 0.0, -795.0291985308169, 0.0, 0.0, 0.0, 0.0, -1077.2199722790685, 0.0]
['beep', 0.0, -794.8727363196298, 0.0, 0.0, 0.0, 0.0, -1076.9070478566944, 0.0]
['beep', 0.0, -794.8503845751744, 0.0, 0.0, 0.0, 0.0, -1077.7117106570854, 0.0]
['beep', 0.0, -795.476233419923, 0.0, 0.0, 0.0, 0.0, -1079.0304635799484, 0.0]
['beep', 0.0, -794.2021839859706, 0.0, 0.0, 0.0, 0.0, -1078.337559501834, 0.0]
['beep', 0.0, -793.3304659522136, 0.0, 0.0, 0.0, 0.0, -1076.9964548345156, 0.0]
['beep', 0.0, -793.4869281634008, 0.0, 0.0, 0.0, 0.0, -1078.561076946387, 0.0]
['beep', 0.0, -793.9116113080515, 0.0, 0.0, 0.0, 0.0, -1078.3599112462891, 0.0]
['beep', 0.0, -794.671570619532, 0.0, 0.0, 0.0, 0.0, -1079.365739746778, 0.0]
['beep', 0.0, -796.0350270313057, 0.0, 0.0, 0.0, 0.0, -1080.2821612694456, 0.0]
['beep', 0.0, -795.6103438866548, 0.0, 0.0, 0.0, 0.0, -1080.1927542916244, 0.0]
['beep', 0.0, -796.6385241315991, 0.0, 0.0, 0.0, 0.0, -1079.6786641691524, 0.0]
['beep', 0.0, -796.2138409869482, 0.0, 0.0, 0.0, 0.0, -1080.3715682472669, 0.0]
['beep', 0.0, -796.415006687046, 0.0, 0.0, 0.0, 0.0, -1079.790422891429, 0.0]
['beep', 0.0, -797.8678700766409, 0.0, 0.0, 0.0, 0.0, -1079.946885102616, 0.0]
['beep', 0.0, -796.5714688982331, 0.0, 0.0, 0.0, 0.0, -1080.0586438248927, 0.0]
['beep', 0.0, -796.8620415761521, 0.0, 0.0, 0.0, 0.0, -1079.8351263803395, 0.0]
['beep', 0.0, -797.5996491431772, 0.0, 0.0, 0.0, 0.0, -1078.9410566021272, 0.0]
['beep', 0.0, -798.4266636880236, 0.0, 0.0, 0.0, 0.0, -1078.9410566021272, 0.0]
['beep', 0.0, -797.1973177429817, 0.0, 0.0, 0.0, 0.0, -1079.4104432356887, 0.0]
['beep', 0.0, -796.5491171537778, 0.0, 0.0, 0.0, 0.0, -1080.0586438248927, 0.0]
['beep', 0.0, -796.2138409869482, 0.0, 0.0, 0.0, 0.0, -1081.1985827921133, 0.0]
['beep', 0.0, -795.2750677198253, 0.0, 0.0, 0.0, 0.0, -1081.2879897699345, 0.0]
['beep', 0.0, -793.509279907856, 0.0, 0.0, 0.0, 0.0, -1084.5513444604094, 0.0]
['beep', 0.0, -798.6278293881213, 0.0, 0.0, 0.0, 0.0, -1091.8380131528395, 0.0]
['beep', 0.0, -804.6851521355096, 0.0, 0.0, 0.0, 0.0, -1101.9633533910935, 0.0]
['beep', 0.0, -805.8697945916408, 0.0, 0.0, 0.0, 0.0, -1111.105216873314, 0.0]
['beep', 0.0, -802.7405503678979, 0.0, 0.0, 0.0, 0.0, -1117.9001471877275, 0.0]
['beep', 0.0, -804.573393413233, 0.0, 0.0, 0.0, 0.0, -1125.6785542581742, 0.0]
['beep', 0.0, -808.5520039262777, 0.0, 0.0, 0.0, 0.0, -1133.6134235398083, 0.0]
['beep', 0.0, -815.1904720295039, 0.0, 0.0, 0.0, 0.0, -1142.84469399985, 0.0]
['beep', 0.0, -815.1457685405933, 0.0, 0.0, 0.0, 0.0, -1148.8573132583276, 0.0]
['beep', 0.0, -806.6968091364872, 0.0, 0.0, 0.0, 0.0, -1155.3393191503667, 0.0]
['beep', 0.0, -805.1098352801604, 0.0, 0.0, 0.0, 0.0, -1162.1789529536907, 0.0]
['beep', 0.0, -807.6802858925207, 0.0, 0.0, 0.0, 0.0, -1169.1750489682017, 0.0]
['beep', 0.0, -809.0213905598391, 0.0, 0.0, 0.0, 0.0, -1173.108955992336, 0.0]
['beep', 0.0, -812.3294487392246, 0.0, 0.0, 0.0, 0.0, -1177.9592845391376, 0.0]
['beep', 0.0, -817.1350737971156, 0.0, 0.0, 0.0, 0.0, -1182.2508194745565, 0.0]
['beep', 0.0, -817.1574255415709, 0.0, 0.0, 0.0, 0.0, -1185.8718020763163, 0.0]
['beep', 0.0, -816.3751144856352, 0.0, 0.0, 0.0, 0.0, -1190.4762614341096, 0.0]
['beep', 0.0, -814.5869749292106, 0.0, 0.0, 0.0, 0.0, -1194.7901481139838, 0.0]
['beep', 0.0, -814.5199196958447, 0.0, 0.0, 0.0, 0.0, -1198.232316760101, 0.0]
['beep', 0.0, -816.3751144856352, 0.0, 0.0, 0.0, 0.0, -1201.3839127282993, 0.0]
['beep', 0.0, -816.4421697190011, 0.0, 0.0, 0.0, 0.0, -1204.6472674187742, 0.0]
['beep', 0.0, -818.0514953197832, 0.0, 0.0, 0.0, 0.0, -1206.4354069751987, 0.0]
['beep', 0.0, -817.2021290304815, 0.0, 0.0, 0.0, 0.0, -1206.5918691863858, 0.0]
['beep', 0.0, -817.9844400864173, 0.0, 0.0, 0.0, 0.0, -1206.7930348864836, 0.0]
['beep', 0.0, -819.2361377759145, 0.0, 0.0, 0.0, 0.0, -1205.586040685897, 0.0]
['beep', 0.0, -818.6996959089871, 0.0, 0.0, 0.0, 0.0, -1205.2954680079781, 0.0]
['beep', 0.0, -818.476178464434, 0.0, 0.0, 0.0, 0.0, -1203.4402732181875, 0.0]
['beep', 0.0, -819.6161174316546, 0.0, 0.0, 0.0, 0.0, -1202.0321133175032, 0.0]
['beep', 0.0, -819.2361377759145, 0.0, 0.0, 0.0, 0.0, -1202.9932383290814, 0.0]
['beep', 0.0, -818.9455650979954, 0.0, 0.0, 0.0, 0.0, -1203.0602935624474, 0.0]
['beep', 0.0, -818.7220476534424, 0.0, 0.0, 0.0, 0.0, -1202.2779825065115, 0.0]
['beep', 0.0, -819.5267104538334, 0.0, 0.0, 0.0, 0.0, -1201.3392092393888, 0.0]
['beep', 0.0, -819.7278761539312, 0.0, 0.0, 0.0, 0.0, -1201.7638923840395, 0.0]
['beep', 0.0, -819.8843383651183, 0.0, 0.0, 0.0, 0.0, -1200.7580638835507, 0.0]
['beep', 0.0, -819.9290418540289, 0.0, 0.0, 0.0, 0.0, -1200.9145260947378, 0.0]
['beep', 0.0, -819.347896498191, 0.0, 0.0, 0.0, 0.0, -1201.2050987726568, 0.0]
['beep', 0.0, -818.476178464434, 0.0, 0.0, 0.0, 0.0, -1202.1438720397798, 0.0]
['beep', 0.0, -818.2079575309704, 0.0, 0.0, 0.0, 0.0, -1202.6132586733413, 0.0]
['beep', 0.0, -820.0184488318503, 0.0, 0.0, 0.0, 0.0, -1201.0486365614697, 0.0]
['beep', 0.0, -819.9290418540289, 0.0, 0.0, 0.0, 0.0, -1199.5957731718747, 0.0]
['beep', 0.0, -819.5267104538334, 0.0, 0.0, 0.0, 0.0, -1199.819290616428, 0.0]
['beep', 0.0, -820.1525592985821, 0.0, 0.0, 0.0, 0.0, -1199.036979560492, 0.0]
['beep', 0.0, -820.1749110430374, 0.0, 0.0, 0.0, 0.0, -1199.2381452605898, 0.0]
['beep', 0.0, -818.5208819533447, 0.0, 0.0, 0.0, 0.0, -1199.1934417716793, 0.0]
['beep', 0.0, -818.5655854422553, 0.0, 0.0, 0.0, 0.0, -1198.8581656048495, 0.0]
['beep', 0.0, -818.8785098646296, 0.0, 0.0, 0.0, 0.0, -1197.9864475710926, 0.0]
['beep', 0.0, -818.5655854422553, 0.0, 0.0, 0.0, 0.0, -1199.036979560492, 0.0]
['beep', 0.0, -817.1797772860263, 0.0, 0.0, 0.0, 0.0, -1200.7357121390953, 0.0]
['beep', 0.0, -819.7278761539312, 0.0, 0.0, 0.0, 0.0, -1204.9154883522378, 0.0]
['beep', 0.0, -823.2371000334144, 0.0, 0.0, 0.0, 0.0, -1210.52577621052, 0.0]
['beep', 0.0, -827.7745041578418, 0.0, 0.0, 0.0, 0.0, -1215.912546624249, 0.0]
['beep', 0.0, -829.7861611588194, 0.0, 0.0, 0.0, 0.0, -1219.041790847992, 0.0]
['beep', 0.0, -824.8464256341965, 0.0, 0.0, 0.0, 0.0, -1221.679296693718, 0.0]
['beep', 0.0, -824.8017221452859, 0.0, 0.0, 0.0, 0.0, -1222.774532172028, 0.0]
['beep', 0.0, -824.3323355117245, 0.0, 0.0, 0.0, 0.0, -1221.0310961045143, 0.0]
['beep', 0.0, -822.8124168887636, 0.0, 0.0, 0.0, 0.0, -1220.5840612154082, 0.0]
['beep', 0.0, -824.511149467367, 0.0, 0.0, 0.0, 0.0, -1221.6569449492629, 0.0]
['beep', 0.0, -824.6005564451882, 0.0, 0.0, 0.0, 0.0, -1222.461607749654, 0.0]
['beep', 0.0, -824.9805361009284, 0.0, 0.0, 0.0, 0.0, -1221.7687036715392, 0.0]
['beep', 0.0, -824.7570186563753, 0.0, 0.0, 0.0, 0.0, -1221.321668782433, 0.0]
['beep', 0.0, -823.2594517778697, 0.0, 0.0, 0.0, 0.0, -1221.9922211160924, 0.0]
['beep', 0.0, -823.9747076004396, 0.0, 0.0, 0.0, 0.0, -1222.1710350717349, 0.0]
['beep', 0.0, -823.6617831780652, 0.0, 0.0, 0.0, 0.0, -1222.461607749654, 0.0]
['beep', 0.0, -823.3265070112357, 0.0, 0.0, 0.0, 0.0, -1222.8639391498493, 0.0]
['beep', 0.0, -822.2983267662916, 0.0, 0.0, 0.0, 0.0, -1223.0651048499471, 0.0]
['beep', 0.0, -823.1253413111378, 0.0, 0.0, 0.0, 0.0, -1222.0592763494583, 0.0]
['beep', 0.0, -823.0806378222272, 0.0, 0.0, 0.0, 0.0, -1222.461607749654, 0.0]
['beep', 0.0, -823.4606174779675, 0.0, 0.0, 0.0, 0.0, -1223.3556775278662, 0.0]
['beep', 0.0, -823.862948878163, 0.0, 0.0, 0.0, 0.0, -1223.4450845056874, 0.0]
['beep', 0.0, -823.5947279446993, 0.0, 0.0, 0.0, 0.0, -1223.3109740389555, 0.0]
['beep', 0.0, -824.0194110893502, 0.0, 0.0, 0.0, 0.0, -1222.9309943832154, 0.0]
['beep', 0.0, -823.3712105001463, 0.0, 0.0, 0.0, 0.0, -1223.2886222945003, 0.0]
['beep', 0.0, -823.1253413111378, 0.0, 0.0, 0.0, 0.0, -1223.1768635722237, 0.0]
['beep', 0.0, -822.5665476997552, 0.0, 0.0, 0.0, 0.0, -1223.4450845056874, 0.0]
['beep', 0.0, -822.5888994442105, 0.0, 0.0, 0.0, 0.0, -1223.3780292723216, 0.0]
['beep', 0.0, -822.8794721221295, 0.0, 0.0, 0.0, 0.0, -1223.5791949724191, 0.0]
['beep', 0.0, -822.6336029331211, 0.0, 0.0, 0.0, 0.0, -1223.8027124169723, 0.0]
['beep', 0.0, -823.5947279446993, 0.0, 0.0, 0.0, 0.0, -1223.0204013610366, 0.0]
['beep', 0.0, -824.3323355117245, 0.0, 0.0, 0.0, 0.0, -1223.4450845056874, 0.0]
['beep', 0.0, -824.8017221452859, 0.0, 0.0, 0.0, 0.0, -1222.774532172028, 0.0]
['beep', 0.0, -824.0641145782608, 0.0, 0.0, 0.0, 0.0, -1222.4839594941093, 0.0]
['beep', 0.0, -824.4217424895457, 0.0, 0.0, 0.0, 0.0, -1222.5286629830198, 0.0]
['beep', 0.0, -824.4217424895457, 0.0, 0.0, 0.0, 0.0, -1222.752180427573, 0.0]
['beep', 0.0, -824.6229081896435, 0.0, 0.0, 0.0, 0.0, -1222.9980496165813, 0.0]
['beep', 0.0, -823.281803522325, 0.0, 0.0, 0.0, 0.0, -1222.1263315828244, 0.0]
['beep', 0.0, -823.3712105001463, 0.0, 0.0, 0.0, 0.0, -1221.8357589049053, 0.0]
['beep', 0.0, -824.4664459784564, 0.0, 0.0, 0.0, 0.0, -1220.874633893327, 0.0]
['beep', 0.0, -827.4392279910121, 0.0, 0.0, 0.0, 0.0, -1220.2040815596679, 0.0]
['beep', 0.0, -827.9533181134842, 0.0, 0.0, 0.0, 0.0, -1219.3100117814556, 0.0]
['beep', 0.0, -818.3867714866128, 0.0, 0.0, 0.0, 0.0, -1210.3246105104222, 0.0]
['beep', 0.0, -818.3420679977022, 0.0, 0.0, 0.0, 0.0, -1195.2148312586346, 0.0]
['beep', 0.0, -820.5772424432329, 0.0, 0.0, 0.0, 0.0, -1181.2449909740676, 0.0]
['beep', 0.0, -818.476178464434, 0.0, 0.0, 0.0, 0.0, -1167.9233512787046, 0.0]
['beep', 0.0, -815.2128237739591, 0.0, 0.0, 0.0, 0.0, -1151.427763870688, 0.0]
['beep', 0.0, -814.0952365511938, 0.0, 0.0, 0.0, 0.0, -1136.6756125301854, 0.0]
['beep', 0.0, -817.2244807749369, 0.0, 0.0, 0.0, 0.0, -1120.9846879225597, 0.0]
['beep', 0.0, -815.928079596529, 0.0, 0.0, 0.0, 0.0, -1105.1149493592918, 0.0]
['beep', 0.0, -813.2458702618922, 0.0, 0.0, 0.0, 0.0, -1087.948809617616, 0.0]
['beep', 0.0, -812.798835372786, 0.0, 0.0, 0.0, 0.0, -1073.7331001440407, 0.0]
['beep', 0.0, -811.4577307054676, 0.0, 0.0, 0.0, 0.0, -1059.2938732259124, 0.0]
['beep', 0.0, -809.0213905598391, 0.0, 0.0, 0.0, 0.0, -1043.2006172180913, 0.0]
['beep', 0.0, -805.0427800467945, 0.0, 0.0, 0.0, 0.0, -1032.0023932459824, 0.0]
['beep', 0.0, -803.187585257004, 0.0, 0.0, 0.0, 0.0, -1022.7040675525747, 0.0]
['beep', 0.0, -803.4558061904677, 0.0, 0.0, 0.0, 0.0, -1013.62925930372, 0.0]
['beep', 0.0, -801.4441491894901, 0.0, 0.0, 0.0, 0.0, -1007.2590121339575, 0.0]
['beep', 0.0, -800.4830241779118, 0.0, 0.0, 0.0, 0.0, -1002.7439597539855, 0.0]
['beep', 0.0, -802.1147015231493, 0.0, 0.0, 0.0, 0.0, -998.3630178407452, 0.0]
['beep', 0.0, -803.4781579349229, 0.0, 0.0, 0.0, 0.0, -1001.3134481088458, 0.0]
['beep', 0.0, -804.5286899243224, 0.0, 0.0, 0.0, 0.0, -999.949991697072, 0.0]
['beep', 0.0, -801.3323904672135, 0.0, 0.0, 0.0, 0.0, -1002.8557184762619, 0.0]
['beep', 0.0, -799.2313264884147, 0.0, 0.0, 0.0, 0.0, -1009.3600761127564, 0.0]
['beep', 0.0, -801.1312247671158, 0.0, 0.0, 0.0, 0.0, -1011.5058435804658, 0.0]
['beep', 0.0, -801.2653352338476, 0.0, 0.0, 0.0, 0.0, -1016.244413404991, 0.0]
['beep', 0.0, -797.3537799541689, 0.0, 0.0, 0.0, 0.0, -1021.8994047521836, 0.0]
['beep', 0.0, -797.6443526320878, 0.0, 0.0, 0.0, 0.0, -1027.82261703284, 0.0]
['beep', 0.0, -799.767768355342, 0.0, 0.0, 0.0, 0.0, -1030.951861256583, 0.0]
['beep', 0.0, -800.3936172000906, 0.0, 0.0, 0.0, 0.0, -1034.4834368805214, 0.0]
['beep', 0.0, -798.2031462434705, 0.0, 0.0, 0.0, 0.0, -1040.3842974167226, 0.0]
['beep', 0.0, -797.8902218210962, 0.0, 0.0, 0.0, 0.0, -1045.078163752337, 0.0]
['beep', 0.0, -797.3314282097135, 0.0, 0.0, 0.0, 0.0, -1047.4250969201444, 0.0]
['beep', 0.0, -797.4878904209007, 0.0, 0.0, 0.0, 0.0, -1049.8167335768621, 0.0]
['beep', 0.0, -796.7055793649649, 0.0, 0.0, 0.0, 0.0, -1051.2919487109125, 0.0]
['beep', 0.0, -796.7055793649649, 0.0, 0.0, 0.0, 0.0, -1052.3648324447672, 0.0]
['beep', 0.0, -797.1973177429817, 0.0, 0.0, 0.0, 0.0, -1054.7341173570296, 0.0]
['beep', 0.0, -797.510242165356, 0.0, 0.0, 0.0, 0.0, -1057.1928092471135, 0.0]
['beep', 0.0, -796.0797305202163, 0.0, 0.0, 0.0, 0.0, -1057.8410098363174, 0.0]
['beep', 0.0, -795.5656403977442, 0.0, 0.0, 0.0, 0.0, -1059.562094159376, 0.0]
['beep', 0.0, -795.9232683090291, 0.0, 0.0, 0.0, 0.0, -1061.1267162712475, 0.0]
['beep', 0.0, -795.2527159753699, 0.0, 0.0, 0.0, 0.0, -1062.8925040832169, 0.0]
['beep', 0.0, -794.6268671306213, 0.0, 0.0, 0.0, 0.0, -1063.8759808392504, 0.0]
['beep', 0.0, -794.895088064085, 0.0, 0.0, 0.0, 0.0, -1064.3006639839011, 0.0]
['beep', 0.0, -795.6997508644761, 0.0, 0.0, 0.0, 0.0, -1064.6359401507307, 0.0]
['beep', 0.0, -795.9232683090291, 0.0, 0.0, 0.0, 0.0, -1065.4406029511217, 0.0]
['beep', 0.0, -794.7386258528979, 0.0, 0.0, 0.0, 0.0, -1066.0217483069598, 0.0]
['beep', 0.0, -795.0068467863616, 0.0, 0.0, 0.0, 0.0, -1066.3570244737894, 0.0]
['beep', 0.0, -795.2303642309147, 0.0, 0.0, 0.0, 0.0, -1068.6369024082308, 0.0]
['beep', 0.0, -794.5374601528001, 0.0, 0.0, 0.0, 0.0, -1069.2180477640686, 0.0]
['beep', 0.0, -793.5539833967666, 0.0, 0.0, 0.0, 0.0, -1069.2851029974345, 0.0]
['beep', 0.0, -795.3644746976465, 0.0, 0.0, 0.0, 0.0, -1069.2180477640686, 0.0]
['beep', 0.0, -795.4091781865571, 0.0, 0.0, 0.0, 0.0, -1068.659254152686, 0.0]
['beep', 0.0, -795.6326956311102, 0.0, 0.0, 0.0, 0.0, -1069.2627512529793, 0.0]
['beep', 0.0, -795.6103438866548, 0.0, 0.0, 0.0, 0.0, -1070.916780342672, 0.0]
['beep', 0.0, -794.4704049194343, 0.0, 0.0, 0.0, 0.0, -1071.0285390649485, 0.0]
['beep', 0.0, -794.5374601528001, 0.0, 0.0, 0.0, 0.0, -1070.201524520102, 0.0]
['beep', 0.0, -795.0291985308169, 0.0, 0.0, 0.0, 0.0, -1070.335634986834, 0.0]
['beep', 0.0, -794.4704049194343, 0.0, 0.0, 0.0, 0.0, -1071.721443143063, 0.0]
['beep', 0.0, -795.6326956311102, 0.0, 0.0, 0.0, 0.0, -1071.9002570987054, 0.0]
['beep', 0.0, -797.0855590207052, 0.0, 0.0, 0.0, 0.0, -1070.983835576038, 0.0]
['beep', 0.0, -797.0855590207052, 0.0, 0.0, 0.0, 0.0, -1071.9449605876162, 0.0]
['beep', 0.0, -797.3090764652583, 0.0, 0.0, 0.0, 0.0, -1073.7107483995853, 0.0]
['beep', 0.0, -796.5267654093225, 0.0, 0.0, 0.0, 0.0, -1073.9566175885936, 0.0]
['beep', 0.0, -797.3314282097135, 0.0, 0.0, 0.0, 0.0, -1075.275370511457, 0.0]
['beep', 0.0, -796.4820619204119, 0.0, 0.0, 0.0, 0.0, -1075.789460633929, 0.0]
['beep', 0.0, -795.4985851643784, 0.0, 0.0, 0.0, 0.0, -1074.4707077110659, 0.0]
['beep', 0.0, -797.5325939098113, 0.0, 0.0, 0.0, 0.0, -1074.6942251556188, 0.0]
['beep', 0.0, -795.9456200534845, 0.0, 0.0, 0.0, 0.0, -1075.2530187670015, 0.0]
['beep', 0.0, -795.766806097842, 0.0, 0.0, 0.0, 0.0, -1077.242324023524, 0.0]
['beep', 0.0, -793.8892595635963, 0.0, 0.0, 0.0, 0.0, -1076.0576815673926, 0.0]
['beep', 0.0, -791.8552508181633, 0.0, 0.0, 0.0, 0.0, -1075.588294933831, 0.0]
['beep', 0.0, -791.7881955847973, 0.0, 0.0, 0.0, 0.0, -1076.2141437785797, 0.0]
['beep', 0.0, -790.6259048731214, 0.0, 0.0, 0.0, 0.0, -1074.8730391112613, 0.0]
['beep', 0.0, -790.7823670843086, 0.0, 0.0, 0.0, 0.0, -1074.5377629444317, 0.0]
['beep', 0.0, -792.771672340831, 0.0, 0.0, 0.0, 0.0, -1073.7107483995853, 0.0]
['beep', 0.0, -795.4091781865571, 0.0, 0.0, 0.0, 0.0, -1073.7778036329512, 0.0]
['beep', 0.0, -794.7162741084426, 0.0, 0.0, 0.0, 0.0, -1073.7107483995853, 0.0]
['beep', 0.0, -795.1409572530935, 0.0, 0.0, 0.0, 0.0, -1071.6320361652417, 0.0]
['beep', 0.0, -796.0350270313057, 0.0, 0.0, 0.0, 0.0, -1070.7603181314848, 0.0]
['beep', 0.0, -796.8173380872415, 0.0, 0.0, 0.0, 0.0, -1071.788498376429, 0.0]
['beep', 0.0, -796.0126752868504, 0.0, 0.0, 0.0, 0.0, -1069.4415652086218, 0.0]
['beep', 0.0, -795.9456200534845, 0.0, 0.0, 0.0, 0.0, -1066.4240797071552, 0.0]
['beep', 0.0, -798.4490154324789, 0.0, 0.0, 0.0, 0.0, -1063.4065942056889, 0.0]
['beep', 0.0, -799.2536782328699, 0.0, 0.0, 0.0, 0.0, -1063.1830767611357, 0.0]
['beep', 0.0, -799.5666026552442, 0.0, 0.0, 0.0, 0.0, -1063.0713180388593, 0.0]
['beep', 0.0, -800.7735968558309, 0.0, 0.0, 0.0, 0.0, -1063.1160215277698, 0.0]
['beep', 0.0, -799.6783613775208, 0.0, 0.0, 0.0, 0.0, -1063.9206843281609, 0.0]
['beep', 0.0, -799.767768355342, 0.0, 0.0, 0.0, 0.0, -1065.2841407399346, 0.0]
['beep', 0.0, -799.3877886996017, 0.0, 0.0, 0.0, 0.0, -1067.0946320408145, 0.0]
['beep', 0.0, -798.963105554951, 0.0, 0.0, 0.0, 0.0, -1067.6087221632865, 0.0]
['beep', 0.0, -799.0972160216828, 0.0, 0.0, 0.0, 0.0, -1069.3521582308006, 0.0]
['beep', 0.0, -798.1137392656493, 0.0, 0.0, 0.0, 0.0, -1068.2122192635798, 0.0]
['beep', 0.0, -798.5160706658448, 0.0, 0.0, 0.0, 0.0, -1067.3181494853675, 0.0]
['beep', 0.0, -799.8795270776185, 0.0, 0.0, 0.0, 0.0, -1068.6369024082308, 0.0]
['beep', 0.0, -798.9184020660404, 0.0, 0.0, 0.0, 0.0, -1068.4133849636776, 0.0]
['beep', 0.0, -798.4937189213895, 0.0, 0.0, 0.0, 0.0, -1068.7933646194178, 0.0]
['beep', 0.0, -799.2760299773253, 0.0, 0.0, 0.0, 0.0, -1068.0334053079373, 0.0]
['beep', 0.0, -798.4266636880236, 0.0, 0.0, 0.0, 0.0, -1069.530972186443, 0.0]
['beep', 0.0, -798.2702014768364, 0.0, 0.0, 0.0, 0.0, -1070.8944285982168, 0.0]
['beep', 0.0, -798.4490154324789, 0.0, 0.0, 0.0, 0.0, -1069.7991931199067, 0.0]
['beep', 0.0, -798.4266636880236, 0.0, 0.0, 0.0, 0.0, -1070.2238762645575, 0.0]
['beep', 0.0, -798.5384224103001, 0.0, 0.0, 0.0, 0.0, -1070.4026902202, 0.0]
['beep', 0.0, -798.1584427545599, 0.0, 0.0, 0.0, 0.0, -1070.6709111536636, 0.0]
['beep', 0.0, -798.7619398548532, 0.0, 0.0, 0.0, 0.0, -1072.4814024545435, 0.0]
['beep', 0.0, -798.4713671769342, 0.0, 0.0, 0.0, 0.0, -1072.2578850099903, 0.0]
['beep', 0.0, -795.2303642309147, 0.0, 0.0, 0.0, 0.0, -1071.6767396541525, 0.0]
['beep', 0.0, -795.8115095867527, 0.0, 0.0, 0.0, 0.0, -1072.526105943454, 0.0]
['beep', 0.0, -794.8503845751744, 0.0, 0.0, 0.0, 0.0, -1072.7943268769177, 0.0]
['beep', 0.0, -794.5151084083449, 0.0, 0.0, 0.0, 0.0, -1071.363815231778, 0.0]
['beep', 0.0, -794.8503845751744, 0.0, 0.0, 0.0, 0.0, -1070.983835576038, 0.0]
['beep', 0.0, -795.1856607420041, 0.0, 0.0, 0.0, 0.0, -1070.8050216203956, 0.0]
['beep', 0.0, -793.4645764189454, 0.0, 0.0, 0.0, 0.0, -1072.0567193098927, 0.0]
['beep', 0.0, -793.9786665414175, 0.0, 0.0, 0.0, 0.0, -1072.526105943454, 0.0]
['beep', 0.0, -794.8056810862638, 0.0, 0.0, 0.0, 0.0, -1071.721443143063, 0.0]
['beep', 0.0, -795.7444543533867, 0.0, 0.0, 0.0, 0.0, -1072.146126287714, 0.0]
['beep', 0.0, -795.0291985308169, 0.0, 0.0, 0.0, 0.0, -1073.1966582771133, 0.0]
['beep', 0.0, -794.1798322415152, 0.0, 0.0, 0.0, 0.0, -1073.8448588663173, 0.0]
['beep', 0.0, -793.5986868856772, 0.0, 0.0, 0.0, 0.0, -1073.1966582771133, 0.0]
['beep', 0.0, -794.1127770081494, 0.0, 0.0, 0.0, 0.0, -1072.9060855991943, 0.0]
['beep', 0.0, -794.0010182858728, 0.0, 0.0, 0.0, 0.0, -1072.883733854739, 0.0]
['beep', 0.0, -794.0457217747834, 0.0, 0.0, 0.0, 0.0, -1073.8001553774066, 0.0]
['beep', 0.0, -793.9116113080515, 0.0, 0.0, 0.0, 0.0, -1072.9060855991943, 0.0]
['beep', 0.0, -794.090425263694, 0.0, 0.0, 0.0, 0.0, -1072.2355332655352, 0.0]
['beep', 0.0, -793.7551490968644, 0.0, 0.0, 0.0, 0.0, -1074.9624460890825, 0.0]
['beep', 0.0, -794.0010182858728, 0.0, 0.0, 0.0, 0.0, -1074.8953908557166, 0.0]
['beep', 0.0, -793.9563147969621, 0.0, 0.0, 0.0, 0.0, -1072.59316117682, 0.0]
['beep', 0.0, -793.5316316523114, 0.0, 0.0, 0.0, 0.0, -1072.0790710543479, 0.0]
['beep', 0.0, -794.2692392193364, 0.0, 0.0, 0.0, 0.0, -1071.1179460427697, 0.0]
['beep', 0.0, -794.5374601528001, 0.0, 0.0, 0.0, 0.0, -1071.49792569851, 0.0]
['beep', 0.0, -794.0680735192387, 0.0, 0.0, 0.0, 0.0, -1072.9731408325601, 0.0]
['beep', 0.0, -793.0622450187499, 0.0, 0.0, 0.0, 0.0, -1073.2637135104792, 0.0]
['beep', 0.0, -793.4198729300348, 0.0, 0.0, 0.0, 0.0, -1073.0401960659262, 0.0]
['beep', 0.0, -793.6657421190432, 0.0, 0.0, 0.0, 0.0, -1072.0790710543479, 0.0]
['beep', 0.0, -792.8163758297416, 0.0, 0.0, 0.0, 0.0, -1071.6320361652417, 0.0]
['beep', 0.0, -793.3528176966689, 0.0, 0.0, 0.0, 0.0, -1072.2802367544457, 0.0]
['beep', 0.0, -793.576335141222, 0.0, 0.0, 0.0, 0.0, -1070.916780342672, 0.0]
['beep', 0.0, -791.6317333736102, 0.0, 0.0, 0.0, 0.0, -1071.140297787225, 0.0]
['beep', 0.0, -791.9670095404398, 0.0, 0.0, 0.0, 0.0, -1071.4755739540547, 0.0]
['beep', 0.0, -793.0175415298393, 0.0, 0.0, 0.0, 0.0, -1071.855553609795, 0.0]
['beep', 0.0, -792.8387275741968, 0.0, 0.0, 0.0, 0.0, -1072.5708094323647, 0.0]
['beep', 0.0, -793.7775008413197, 0.0, 0.0, 0.0, 0.0, -1073.4872309550324, 0.0]
['beep', 0.0, -793.6657421190432, 0.0, 0.0, 0.0, 0.0, -1074.3589489887893, 0.0]
['beep', 0.0, -794.8056810862638, 0.0, 0.0, 0.0, 0.0, -1073.8001553774066, 0.0]
['beep', 0.0, -794.8056810862638, 0.0, 0.0, 0.0, 0.0, -1074.627169922253, 0.0]
['beep', 0.0, -795.0739020197275, 0.0, 0.0, 0.0, 0.0, -1072.59316117682, 0.0]
['beep', 0.0, -796.1914892424929, 0.0, 0.0, 0.0, 0.0, -1073.5989896773087, 0.0]
['beep', 0.0, -794.1351287526046, 0.0, 0.0, 0.0, 0.0, -1075.2530187670015, 0.0]
['beep', 0.0, -794.4033496860683, 0.0, 0.0, 0.0, 0.0, -1073.9566175885936, 0.0]
['beep', 0.0, -796.0126752868504, 0.0, 0.0, 0.0, 0.0, -1074.5377629444317, 0.0]
['beep', 0.0, -796.5491171537778, 0.0, 0.0, 0.0, 0.0, -1075.8341641228396, 0.0]
['beep', 0.0, -794.8056810862638, 0.0, 0.0, 0.0, 0.0, -1075.7447571450184, 0.0]
['beep', 0.0, -794.6268671306213, 0.0, 0.0, 0.0, 0.0, -1074.2471902665127, 0.0]
['beep', 0.0, -794.7162741084426, 0.0, 0.0, 0.0, 0.0, -1075.1636117891803, 0.0]
['beep', 0.0, -795.2303642309147, 0.0, 0.0, 0.0, 0.0, -1076.0576815673926, 0.0]
['beep', 0.0, -795.2080124864593, 0.0, 0.0, 0.0, 0.0, -1074.8059838778954, 0.0]
['beep', 0.0, -794.1798322415152, 0.0, 0.0, 0.0, 0.0, -1073.978969333049, 0.0]
['beep', 0.0, -794.5821636417107, 0.0, 0.0, 0.0, 0.0, -1075.141260044725, 0.0]
['beep', 0.0, -794.4927566638895, 0.0, 0.0, 0.0, 0.0, -1075.3871292337335, 0.0]
['beep', 0.0, -793.8445560746857, 0.0, 0.0, 0.0, 0.0, -1074.0460245664149, 0.0]
['beep', 0.0, -791.6317333736102, 0.0, 0.0, 0.0, 0.0, -1073.7778036329512, 0.0]
['beep', 0.0, -795.6997508644761, 0.0, 0.0, 0.0, 0.0, -1074.336597244334, 0.0]
['beep', 0.0, -798.5384224103001, 0.0, 0.0, 0.0, 0.0, -1074.5824664333422, 0.0]
['beep', 0.0, -797.510242165356, 0.0, 0.0, 0.0, 0.0, -1075.8341641228396, 0.0]
['beep', 0.0, -797.1079107651605, 0.0, 0.0, 0.0, 0.0, -1075.3871292337335, 0.0]
['beep', 0.0, -796.2361927314035, 0.0, 0.0, 0.0, 0.0, -1075.7447571450184, 0.0]
['beep', 0.0, -795.8785648201185, 0.0, 0.0, 0.0, 0.0, -1075.945922845116, 0.0]
['beep', 0.0, -796.7055793649649, 0.0, 0.0, 0.0, 0.0, -1076.527068200954, 0.0]
['beep', 0.0, -797.4655386764454, 0.0, 0.0, 0.0, 0.0, -1075.4988879560099, 0.0]
['beep', 0.0, -796.8396898316968, 0.0, 0.0, 0.0, 0.0, -1075.6553501671972, 0.0]
['beep', 0.0, -795.9232683090291, 0.0, 0.0, 0.0, 0.0, -1075.722405400563, 0.0]
['beep', 0.0, -796.0797305202163, 0.0, 0.0, 0.0, 0.0, -1075.9012193562055, 0.0]
['beep', 0.0, -796.8173380872415, 0.0, 0.0, 0.0, 0.0, -1075.9235711006609, 0.0]
['beep', 0.0, -797.5549456542666, 0.0, 0.0, 0.0, 0.0, -1076.3259025008563, 0.0]
['beep', 0.0, -797.3761316986241, 0.0, 0.0, 0.0, 0.0, -1075.8341641228396, 0.0]
['beep', 0.0, -796.7055793649649, 0.0, 0.0, 0.0, 0.0, -1075.2530187670015, 0.0]
['beep', 0.0, -797.3984834430795, 0.0, 0.0, 0.0, 0.0, -1074.4707077110659, 0.0]
['beep', 0.0, -797.7784630988197, 0.0, 0.0, 0.0, 0.0, -1075.565943189376, 0.0]
['beep', 0.0, -797.4431869319901, 0.0, 0.0, 0.0, 0.0, -1076.1694402896692, 0.0]
['beep', 0.0, -797.1749659985264, 0.0, 0.0, 0.0, 0.0, -1077.68935891263, 0.0]
['beep', 0.0, -796.4820619204119, 0.0, 0.0, 0.0, 0.0, -1076.4376612231329, 0.0]
['beep', 0.0, -796.7055793649649, 0.0, 0.0, 0.0, 0.0, -1076.303550756401, 0.0]
['beep', 0.0, -796.9738002984286, 0.0, 0.0, 0.0, 0.0, -1075.431832722644, 0.0]
['beep', 0.0, -797.1302625096158, 0.0, 0.0, 0.0, 0.0, -1074.9847978335379, 0.0]
['beep', 0.0, -797.6443526320878, 0.0, 0.0, 0.0, 0.0, -1075.0518530669037, 0.0]
['beep', 0.0, -797.1749659985264, 0.0, 0.0, 0.0, 0.0, -1076.2141437785797, 0.0]
['beep', 0.0, -797.219669487437, 0.0, 0.0, 0.0, 0.0, -1075.8341641228396, 0.0]
['beep', 0.0, -798.314904965747, 0.0, 0.0, 0.0, 0.0, -1074.8059838778954, 0.0]
['beep', 0.0, -797.510242165356, 0.0, 0.0, 0.0, 0.0, -1075.0295013224486, 0.0]
['beep', 0.0, -796.7502828538755, 0.0, 0.0, 0.0, 0.0, -1075.0965565558145, 0.0]
['beep', 0.0, -796.2138409869482, 0.0, 0.0, 0.0, 0.0, -1076.5047164564987, 0.0]
['beep', 0.0, -796.4820619204119, 0.0, 0.0, 0.0, 0.0, -1076.0353298229372, 0.0]
['beep', 0.0, -797.9125735655515, 0.0, 0.0, 0.0, 0.0, -1075.3871292337335, 0.0]
['beep', 0.0, -797.3314282097135, 0.0, 0.0, 0.0, 0.0, -1075.9682745895714, 0.0]
['beep', 0.0, -796.1467857535823, 0.0, 0.0, 0.0, 0.0, -1077.7340624015405, 0.0]
['beep', 0.0, -796.4820619204119, 0.0, 0.0, 0.0, 0.0, -1076.5047164564987, 0.0]
['beep', 0.0, -797.1973177429817, 0.0, 0.0, 0.0, 0.0, -1076.5717716898646, 0.0]
['beep', 0.0, -796.6608758760543, 0.0, 0.0, 0.0, 0.0, -1077.2646757679793, 0.0]
['beep', 0.0, -796.9738002984286, 0.0, 0.0, 0.0, 0.0, -1077.8681728682725, 0.0]
['beep', 0.0, -799.0525125327722, 0.0, 0.0, 0.0, 0.0, -1076.9964548345156, 0.0]
['beep', 0.0, -797.7784630988197, 0.0, 0.0, 0.0, 0.0, -1077.912876357183, 0.0]
['beep', 0.0, -796.6385241315991, 0.0, 0.0, 0.0, 0.0, -1079.142222302225, 0.0]
['beep', 0.0, -797.3090764652583, 0.0, 0.0, 0.0, 0.0, -1079.0528153244038, 0.0]
['beep', 0.0, -797.3314282097135, 0.0, 0.0, 0.0, 0.0, -1078.6728356686635, 0.0]
['beep', 0.0, -797.9125735655515, 0.0, 0.0, 0.0, 0.0, -1077.555248445898, 0.0]
['beep', 0.0, -798.4937189213895, 0.0, 0.0, 0.0, 0.0, -1077.3540827458005, 0.0]
['beep', 0.0, -797.800814843275, 0.0, 0.0, 0.0, 0.0, -1078.561076946387, 0.0]
['beep', 0.0, -797.6667043765432, 0.0, 0.0, 0.0, 0.0, -1078.1140420572808, 0.0]
['beep', 0.0, -798.3372567102024, 0.0, 0.0, 0.0, 0.0, -1079.2316292800463, 0.0]
['beep', 0.0, -797.7114078654538, 0.0, 0.0, 0.0, 0.0, -1078.7398909020294, 0.0]
['beep', 0.0, -797.0632072762498, 0.0, 0.0, 0.0, 0.0, -1078.2928560129233, 0.0]
['beep', 0.0, -795.5879921421996, 0.0, 0.0, 0.0, 0.0, -1079.3433880023229, 0.0]
['beep', 0.0, -796.4597101759566, 0.0, 0.0, 0.0, 0.0, -1079.1869257911355, 0.0]
['beep', 0.0, -795.9232683090291, 0.0, 0.0, 0.0, 0.0, -1079.7010159136078, 0.0]
['beep', 0.0, -796.3255997092248, 0.0, 0.0, 0.0, 0.0, -1078.6504839242082, 0.0]
['beep', 0.0, -796.7726345983309, 0.0, 0.0, 0.0, 0.0, -1078.5834286908423, 0.0]
['beep', 0.0, -796.2138409869482, 0.0, 0.0, 0.0, 0.0, -1079.008111835493, 0.0]
['beep', 0.0, -796.8620415761521, 0.0, 0.0, 0.0, 0.0, -1079.9692368470714, 0.0]
['beep', 0.0, -797.0855590207052, 0.0, 0.0, 0.0, 0.0, -1080.5056787139988, 0.0]
['beep', 0.0, -797.510242165356, 0.0, 0.0, 0.0, 0.0, -1079.6339606802417, 0.0]
['beep', 0.0, -796.996152042884, 0.0, 0.0, 0.0, 0.0, -1080.7291961585518, 0.0]
['beep', 0.0, -797.3761316986241, 0.0, 0.0, 0.0, 0.0, -1080.7068444140964, 0.0]
['beep', 0.0, -796.9067450650628, 0.0, 0.0, 0.0, 0.0, -1080.0362920804373, 0.0]
['beep', 0.0, -797.3761316986241, 0.0, 0.0, 0.0, 0.0, -1079.5669054468758, 0.0]
['beep', 0.0, -797.9796287989175, 0.0, 0.0, 0.0, 0.0, -1078.4493182241104, 0.0]
['beep', 0.0, -797.1749659985264, 0.0, 0.0, 0.0, 0.0, -1078.2481525240128, 0.0]
['beep', 0.0, -798.0466840322833, 0.0, 0.0, 0.0, 0.0, -1079.6339606802417, 0.0]
['beep', 0.0, -797.2643729763477, 0.0, 0.0, 0.0, 0.0, -1079.7010159136078, 0.0]
['beep', 0.0, -796.7055793649649, 0.0, 0.0, 0.0, 0.0, -1079.4774984690546, 0.0]
['beep', 0.0, -796.7726345983309, 0.0, 0.0, 0.0, 0.0, -1080.7962513919176, 0.0]
['beep', 0.0, -798.6054776436661, 0.0, 0.0, 0.0, 0.0, -1079.6339606802417, 0.0]
['beep', 0.0, -798.4937189213895, 0.0, 0.0, 0.0, 0.0, -1080.3939199917222, 0.0]
['beep', 0.0, -798.0019805433727, 0.0, 0.0, 0.0, 0.0, -1080.528030458454, 0.0]
['beep', 0.0, -796.7502828538755, 0.0, 0.0, 0.0, 0.0, -1079.1198705577697, 0.0]
['beep', 0.0, -796.3255997092248, 0.0, 0.0, 0.0, 0.0, -1079.946885102616, 0.0]
['beep', 0.0, -796.996152042884, 0.0, 0.0, 0.0, 0.0, -1079.2316292800463, 0.0]
['beep', 0.0, -796.5714688982331, 0.0, 0.0, 0.0, 0.0, -1080.013940335982, 0.0]
['beep', 0.0, -796.7726345983309, 0.0, 0.0, 0.0, 0.0, -1079.946885102616, 0.0]
['beep', 0.0, -796.5267654093225, 0.0, 0.0, 0.0, 0.0, -1079.7680711469736, 0.0]
['beep', 0.0, -796.7726345983309, 0.0, 0.0, 0.0, 0.0, -1080.170402547169, 0.0]
['beep', 0.0, -797.4878904209007, 0.0, 0.0, 0.0, 0.0, -1079.9692368470714, 0.0]
['beep', 0.0, -797.3090764652583, 0.0, 0.0, 0.0, 0.0, -1081.5115072144874, 0.0]
['beep', 0.0, -798.0690357767387, 0.0, 0.0, 0.0, 0.0, -1081.399748492211, 0.0]
['beep', 0.0, -797.733759609909, 0.0, 0.0, 0.0, 0.0, -1079.656312424697, 0.0]
['beep', 0.0, -797.8678700766409, 0.0, 0.0, 0.0, 0.0, -1080.3492165028115, 0.0]
['beep', 0.0, -797.6220008876326, 0.0, 0.0, 0.0, 0.0, -1080.6397891807305, 0.0]
['beep', 0.0, -796.5938206426885, 0.0, 0.0, 0.0, 0.0, -1079.7010159136078, 0.0]
['beep', 0.0, -797.0408555317946, 0.0, 0.0, 0.0, 0.0, -1080.4162717361776, 0.0]
['beep', 0.0, -798.4266636880236, 0.0, 0.0, 0.0, 0.0, -1081.6456176812194, 0.0]
['beep', 0.0, -798.091387521194, 0.0, 0.0, 0.0, 0.0, -1080.4833269695434, 0.0]
['beep', 0.0, -797.577297398722, 0.0, 0.0, 0.0, 0.0, -1081.399748492211, 0.0]
['beep', 0.0, -796.8843933206074, 0.0, 0.0, 0.0, 0.0, -1081.0421205809262, 0.0]
['beep', 0.0, -797.733759609909, 0.0, 0.0, 0.0, 0.0, -1080.4162717361776, 0.0]
['beep', 0.0, -797.8902218210962, 0.0, 0.0, 0.0, 0.0, -1079.3433880023229, 0.0]
['beep', 0.0, -797.3314282097135, 0.0, 0.0, 0.0, 0.0, -1079.5222019579653, 0.0]
['beep', 0.0, -798.4490154324789, 0.0, 0.0, 0.0, 0.0, -1079.8798298692502, 0.0]
['beep', 0.0, -797.3314282097135, 0.0, 0.0, 0.0, 0.0, -1080.7291961585518, 0.0]
['beep', 0.0, -796.7279311094203, 0.0, 0.0, 0.0, 0.0, -1080.013940335982, 0.0]
['beep', 0.0, -797.4208351875347, 0.0, 0.0, 0.0, 0.0, -1079.1645740466804, 0.0]
['beep', 0.0, -796.8396898316968, 0.0, 0.0, 0.0, 0.0, -1080.4833269695434, 0.0]
['beep', 0.0, -796.1691374980376, 0.0, 0.0, 0.0, 0.0, -1081.399748492211, 0.0]
['beep', 0.0, -795.3644746976465, 0.0, 0.0, 0.0, 0.0, -1080.4162717361776, 0.0]
['beep', 0.0, -795.4091781865571, 0.0, 0.0, 0.0, 0.0, -1080.9303618586496, 0.0]
['beep', 0.0, -796.7055793649649, 0.0, 0.0, 0.0, 0.0, -1080.013940335982, 0.0]
['beep', 0.0, -796.8843933206074, 0.0, 0.0, 0.0, 0.0, -1078.7398909020294, 0.0]
['beep', 0.0, -796.9067450650628, 0.0, 0.0, 0.0, 0.0, -1080.0809955693478, 0.0]
['beep', 0.0, -795.7444543533867, 0.0, 0.0, 0.0, 0.0, -1081.0868240698367, 0.0]
['beep', 0.0, -795.6550473755655, 0.0, 0.0, 0.0, 0.0, -1080.3492165028115, 0.0]
['beep', 0.0, -797.6667043765432, 0.0, 0.0, 0.0, 0.0, -1079.8798298692502, 0.0]
['beep', 0.0, -797.1749659985264, 0.0, 0.0, 0.0, 0.0, -1080.0809955693478, 0.0]
['beep', 0.0, -797.1973177429817, 0.0, 0.0, 0.0, 0.0, -1078.851649624306, 0.0]
['beep', 0.0, -798.0466840322833, 0.0, 0.0, 0.0, 0.0, -1079.0528153244038, 0.0]
['beep', 0.0, -797.5325939098113, 0.0, 0.0, 0.0, 0.0, -1077.8905246127279, 0.0]
['beep', 0.0, -797.5996491431772, 0.0, 0.0, 0.0, 0.0, -1077.2870275124344, 0.0]
['beep', 0.0, -798.4490154324789, 0.0, 0.0, 0.0, 0.0, -1078.561076946387, 0.0]
['beep', 0.0, -797.3090764652583, 0.0, 0.0, 0.0, 0.0, -1078.6728356686635, 0.0]
['beep', 0.0, -796.4820619204119, 0.0, 0.0, 0.0, 0.0, -1078.4269664796552, 0.0]
['beep', 0.0, -796.4597101759566, 0.0, 0.0, 0.0, 0.0, -1079.656312424697, 0.0]
['beep', 0.0, -797.0408555317946, 0.0, 0.0, 0.0, 0.0, -1080.0362920804373, 0.0]
['beep', 0.0, -796.929096809518, 0.0, 0.0, 0.0, 0.0, -1079.6339606802417, 0.0]
['beep', 0.0, -796.5938206426885, 0.0, 0.0, 0.0, 0.0, -1081.5338589589428, 0.0]
['beep', 0.0, -797.3984834430795, 0.0, 0.0, 0.0, 0.0, -1080.8409548808283, 0.0]
['beep', 0.0, -797.4878904209007, 0.0, 0.0, 0.0, 0.0, -1080.1256990582585, 0.0]
['beep', 0.0, -797.9349253100069, 0.0, 0.0, 0.0, 0.0, -1079.8351263803395, 0.0]
['beep', 0.0, -797.6220008876326, 0.0, 0.0, 0.0, 0.0, -1078.9634083465826, 0.0]
['beep', 0.0, -798.2478497323812, 0.0, 0.0, 0.0, 0.0, -1080.5056787139988, 0.0]
['beep', 0.0, -797.9349253100069, 0.0, 0.0, 0.0, 0.0, -1081.466803725577, 0.0]
['beep', 0.0, -797.6443526320878, 0.0, 0.0, 0.0, 0.0, -1080.8409548808283, 0.0]
['beep', 0.0, -797.6443526320878, 0.0, 0.0, 0.0, 0.0, -1080.460975225088, 0.0]
['beep', 0.0, -796.6608758760543, 0.0, 0.0, 0.0, 0.0, -1080.97506534756, 0.0]
['beep', 0.0, -796.7055793649649, 0.0, 0.0, 0.0, 0.0, -1080.5503822029093, 0.0]
['beep', 0.0, -798.6725328770319, 0.0, 0.0, 0.0, 0.0, -1079.3880914912334, 0.0]
['beep', 0.0, -798.9854572994062, 0.0, 0.0, 0.0, 0.0, -1080.528030458454, 0.0]
['beep', 0.0, -797.5325939098113, 0.0, 0.0, 0.0, 0.0, -1079.5669054468758, 0.0]
['beep', 0.0, -797.1749659985264, 0.0, 0.0, 0.0, 0.0, -1079.2763327689568, 0.0]
['beep', 0.0, -797.4878904209007, 0.0, 0.0, 0.0, 0.0, -1080.4162717361776, 0.0]
['beep', 0.0, -798.5607741547554, 0.0, 0.0, 0.0, 0.0, -1080.5727339473647, 0.0]
['beep', 0.0, -797.8678700766409, 0.0, 0.0, 0.0, 0.0, -1081.3550450033003, 0.0]
['beep', 0.0, -797.0855590207052, 0.0, 0.0, 0.0, 0.0, -1081.0197688364708, 0.0]
['beep', 0.0, -797.1749659985264, 0.0, 0.0, 0.0, 0.0, -1082.0703008258702, 0.0]
['beep', 0.0, -796.6161723871437, 0.0, 0.0, 0.0, 0.0, -1081.913838614683, 0.0]
['beep', 0.0, -797.8678700766409, 0.0, 0.0, 0.0, 0.0, -1081.6679694256748, 0.0]
['beep', 0.0, -795.766806097842, 0.0, 0.0, 0.0, 0.0, -1081.4891554700323, 0.0]
['beep', 0.0, -794.5821636417107, 0.0, 0.0, 0.0, 0.0, -1080.9303618586496, 0.0]
['beep', 0.0, -793.4645764189454, 0.0, 0.0, 0.0, 0.0, -1079.8574781247949, 0.0]
['beep', 0.0, -791.7881955847973, 0.0, 0.0, 0.0, 0.0, -1078.9410566021272, 0.0]
['beep', 0.0, -792.7940240852862, 0.0, 0.0, 0.0, 0.0, -1078.0916903128254, 0.0]
['beep', 0.0, -795.3421229531912, 0.0, 0.0, 0.0, 0.0, -1079.6339606802417, 0.0]
['beep', 0.0, -796.2808962203142, 0.0, 0.0, 0.0, 0.0, -1081.7350246590406, 0.0]
['beep', 0.0, -797.3314282097135, 0.0, 0.0, 0.0, 0.0, -1081.623265936764, 0.0]
['beep', 0.0, -797.6667043765432, 0.0, 0.0, 0.0, 0.0, -1081.7126729145853, 0.0]
['beep', 0.0, -799.2089747439593, 0.0, 0.0, 0.0, 0.0, -1081.8691351257723, 0.0]
['beep', 0.0, -799.7230648664314, 0.0, 0.0, 0.0, 0.0, -1080.8856583697388, 0.0]
['beep', 0.0, -799.1642712550487, 0.0, 0.0, 0.0, 0.0, -1080.4162717361776, 0.0]
['beep', 0.0, -798.381960199113, 0.0, 0.0, 0.0, 0.0, -1080.9974170920154, 0.0]
['beep', 0.0, -798.7172363659425, 0.0, 0.0, 0.0, 0.0, -1082.9867223485378, 0.0]
['beep', 0.0, -797.3090764652583, 0.0, 0.0, 0.0, 0.0, -1083.590219448831, 0.0]
['beep', 0.0, -797.577297398722, 0.0, 0.0, 0.0, 0.0, -1081.980893848049, 0.0]
['beep', 0.0, -797.8231665877303, 0.0, 0.0, 0.0, 0.0, -1082.271466525968, 0.0]
['beep', 0.0, -797.4431869319901, 0.0, 0.0, 0.0, 0.0, -1083.2772950264568, 0.0]
['beep', 0.0, -797.8902218210962, 0.0, 0.0, 0.0, 0.0, -1082.3161700148785, 0.0]
['beep', 0.0, -797.3761316986241, 0.0, 0.0, 0.0, 0.0, -1082.2491147815126, 0.0]
['beep', 0.0, -796.3926549425906, 0.0, 0.0, 0.0, 0.0, -1080.6397891807305, 0.0]
['beep', 0.0, -796.1914892424929, 0.0, 0.0, 0.0, 0.0, -1079.8574781247949, 0.0]
['beep', 0.0, -795.8115095867527, 0.0, 0.0, 0.0, 0.0, -1080.528030458454, 0.0]
['beep', 0.0, -794.7386258528979, 0.0, 0.0, 0.0, 0.0, -1081.5562107033982, 0.0]
['beep', 0.0, -795.2750677198253, 0.0, 0.0, 0.0, 0.0, -1080.3939199917222, 0.0]
['beep', 0.0, -794.5374601528001, 0.0, 0.0, 0.0, 0.0, -1081.0868240698367, 0.0]
['beep', 0.0, -794.7386258528979, 0.0, 0.0, 0.0, 0.0, -1081.176231047658, 0.0]
['beep', 0.0, -795.476233419923, 0.0, 0.0, 0.0, 0.0, -1082.1820595481468, 0.0]
['beep', 0.0, -796.7949863427862, 0.0, 0.0, 0.0, 0.0, -1081.6456176812194, 0.0]
['beep', 0.0, -795.766806097842, 0.0, 0.0, 0.0, 0.0, -1080.4386234806327, 0.0]
['beep', 0.0, -795.1856607420041, 0.0, 0.0, 0.0, 0.0, -1079.142222302225, 0.0]
['beep', 0.0, -795.6326956311102, 0.0, 0.0, 0.0, 0.0, -1079.4551467245992, 0.0]
['beep', 0.0, -795.9903235423951, 0.0, 0.0, 0.0, 0.0, -1079.5669054468758, 0.0]
['beep', 0.0, -795.9009165645739, 0.0, 0.0, 0.0, 0.0, -1079.9021816137054, 0.0]
['beep', 0.0, -795.2750677198253, 0.0, 0.0, 0.0, 0.0, -1079.8351263803395, 0.0]
['beep', 0.0, -794.8727363196298, 0.0, 0.0, 0.0, 0.0, -1079.2316292800463, 0.0]
['beep', 0.0, -795.0068467863616, 0.0, 0.0, 0.0, 0.0, -1081.2879897699345, 0.0]
['beep', 0.0, -795.9679717979398, 0.0, 0.0, 0.0, 0.0, -1081.6456176812194, 0.0]
['beep', 0.0, -796.3032479647694, 0.0, 0.0, 0.0, 0.0, -1080.304513013901, 0.0]
['beep', 0.0, -794.9844950419063, 0.0, 0.0, 0.0, 0.0, -1080.1927542916244, 0.0]
['beep', 0.0, -794.9397915529956, 0.0, 0.0, 0.0, 0.0, -1081.4221002366662, 0.0]
['beep', 0.0, -793.3081142077583, 0.0, 0.0, 0.0, 0.0, -1082.919667115172, 0.0]
['beep', 0.0, -793.5986868856772, 0.0, 0.0, 0.0, 0.0, -1081.1315275587474, 0.0]
['beep', 0.0, -793.5316316523114, 0.0, 0.0, 0.0, 0.0, -1081.5115072144874, 0.0]
['beep', 0.0, -795.476233419923, 0.0, 0.0, 0.0, 0.0, -1080.6397891807305, 0.0]
['beep', 0.0, -796.1914892424929, 0.0, 0.0, 0.0, 0.0, -1081.7797281479511, 0.0]
['beep', 0.0, -795.9679717979398, 0.0, 0.0, 0.0, 0.0, -1080.9303618586496, 0.0]
['beep', 0.0, -794.9397915529956, 0.0, 0.0, 0.0, 0.0, -1081.2209345365686, 0.0]
['beep', 0.0, -793.3751694411242, 0.0, 0.0, 0.0, 0.0, -1082.5173357149763, 0.0]
['beep', 0.0, -792.5705066407331, 0.0, 0.0, 0.0, 0.0, -1082.4055769926997, 0.0]
['beep', 0.0, -793.4645764189454, 0.0, 0.0, 0.0, 0.0, -1080.460975225088, 0.0]
['beep', 0.0, -795.9232683090291, 0.0, 0.0, 0.0, 0.0, -1079.008111835493, 0.0]
['beep', 0.0, -796.0126752868504, 0.0, 0.0, 0.0, 0.0, -1081.7797281479511, 0.0]
['beep', 0.0, -795.9679717979398, 0.0, 0.0, 0.0, 0.0, -1082.3161700148785, 0.0]
['beep', 0.0, -796.7055793649649, 0.0, 0.0, 0.0, 0.0, -1082.4055769926997, 0.0]
['beep', 0.0, -794.1798322415152, 0.0, 0.0, 0.0, 0.0, -1083.590219448831, 0.0]
['beep', 0.0, -793.1740037410265, 0.0, 0.0, 0.0, 0.0, -1083.4784607265547, 0.0]
['beep', 0.0, -794.4704049194343, 0.0, 0.0, 0.0, 0.0, -1082.0703008258702, 0.0]
['beep', 0.0, -795.3197712087359, 0.0, 0.0, 0.0, 0.0, -1082.6737979261634, 0.0]
['beep', 0.0, -795.6326956311102, 0.0, 0.0, 0.0, 0.0, -1082.2491147815126, 0.0]
['beep', 0.0, -794.3362944527024, 0.0, 0.0, 0.0, 0.0, -1082.1820595481468, 0.0]
['beep', 0.0, -793.6880938634985, 0.0, 0.0, 0.0, 0.0, -1081.8467833813172, 0.0]
['beep', 0.0, -794.8727363196298, 0.0, 0.0, 0.0, 0.0, -1080.528030458454, 0.0]
['beep', 0.0, -794.7386258528979, 0.0, 0.0, 0.0, 0.0, -1081.3550450033003, 0.0]
['beep', 0.0, -797.1973177429817, 0.0, 0.0, 0.0, 0.0, -1080.148050802714, 0.0]
['beep', 0.0, -796.5267654093225, 0.0, 0.0, 0.0, 0.0, -1080.59508569182, 0.0]
['beep', 0.0, -795.6997508644761, 0.0, 0.0, 0.0, 0.0, -1082.0926525703255, 0.0]
['beep', 0.0, -795.476233419923, 0.0, 0.0, 0.0, 0.0, -1082.137356059236, 0.0]
['beep', 0.0, -796.6385241315991, 0.0, 0.0, 0.0, 0.0, -1082.7408531595295, 0.0]
['beep', 0.0, -794.090425263694, 0.0, 0.0, 0.0, 0.0, -1082.3608735037892, 0.0]
['beep', 0.0, -794.1127770081494, 0.0, 0.0, 0.0, 0.0, -1081.1315275587474, 0.0]
['beep', 0.0, -797.0855590207052, 0.0, 0.0, 0.0, 0.0, -1079.9692368470714, 0.0]
['beep', 0.0, -794.3362944527024, 0.0, 0.0, 0.0, 0.0, -1081.176231047658, 0.0]
['beep', 0.0, -792.3693409406354, 0.0, 0.0, 0.0, 0.0, -1081.0868240698367, 0.0]
['beep', 0.0, -792.414044429546, 0.0, 0.0, 0.0, 0.0, -1081.2879897699345, 0.0]
['beep', 0.0, -796.057378775761, 0.0, 0.0, 0.0, 0.0, -1080.7962513919176, 0.0]
['beep', 0.0, -795.9679717979398, 0.0, 0.0, 0.0, 0.0, -1080.460975225088, 0.0]
['beep', 0.0, -793.9116113080515, 0.0, 0.0, 0.0, 0.0, -1082.2267630370573, 0.0]
['beep', 0.0, -789.1953932279818, 0.0, 0.0, 0.0, 0.0, -1083.3443502598227, 0.0]
['beep', 0.0, -791.0729397622275, 0.0, 0.0, 0.0, 0.0, -1082.9420188596273, 0.0]
['beep', 0.0, -795.8785648201185, 0.0, 0.0, 0.0, 0.0, -1082.4726322260658, 0.0]
['beep', 0.0, -794.6492188750767, 0.0, 0.0, 0.0, 0.0, -1082.6514461817083, 0.0]
['beep', 0.0, -792.8163758297416, 0.0, 0.0, 0.0, 0.0, -1083.5231642154652, 0.0]
['beep', 0.0, -797.8678700766409, 0.0, 0.0, 0.0, 0.0, -1082.0479490814148, 0.0]
['beep', 0.0, -797.2643729763477, 0.0, 0.0, 0.0, 0.0, -1082.5843909483422, 0.0]
['beep', 0.0, -795.6326956311102, 0.0, 0.0, 0.0, 0.0, -1083.3443502598227, 0.0]
['beep', 0.0, -791.5870298846996, 0.0, 0.0, 0.0, 0.0, -1084.7748619049623, 0.0]
['beep', 0.0, -781.8863727910964, 0.0, 0.0, 0.0, 0.0, -1084.752510160507, 0.0]
['beep', 0.0, -787.2060879714594, 0.0, 0.0, 0.0, 0.0, -1083.0537775819037, 0.0]
['beep', 0.0, -799.3207334662359, 0.0, 0.0, 0.0, 0.0, -1080.5056787139988, 0.0]
['beep', 0.0, -804.573393413233, 0.0, 0.0, 0.0, 0.0, -1080.8409548808283, 0.0]
['beep', 0.0, -799.6336578886102, 0.0, 0.0, 0.0, 0.0, -1081.399748492211, 0.0]
['beep', 0.0, -788.4577856609567, 0.0, 0.0, 0.0, 0.0, -1081.6679694256748, 0.0]
['beep', 0.0, -791.7211403514315, 0.0, 0.0, 0.0, 0.0, -1082.7185014150741, 0.0]
['beep', 0.0, -796.1691374980376, 0.0, 0.0, 0.0, 0.0, -1082.0255973369597, 0.0]
['beep', 0.0, -793.3751694411242, 0.0, 0.0, 0.0, 0.0, -1082.8079083928953, 0.0]
['beep', 0.0, -789.4412624169902, 0.0, 0.0, 0.0, 0.0, -1084.2160682935796, 0.0]
['beep', 0.0, -792.056416518261, 0.0, 0.0, 0.0, 0.0, -1083.4114054931886, 0.0]
['beep', 0.0, -795.0068467863616, 0.0, 0.0, 0.0, 0.0, -1082.4726322260658, 0.0]
['beep', 0.0, -791.7434920958867, 0.0, 0.0, 0.0, 0.0, -1085.4901177275322, 0.0]
['beep', 0.0, -791.1623467400487, 0.0, 0.0, 0.0, 0.0, -1084.5736962048645, 0.0]
['beep', 0.0, -794.1798322415152, 0.0, 0.0, 0.0, 0.0, -1084.2607717824903, 0.0]
['beep', 0.0, -792.9504862964734, 0.0, 0.0, 0.0, 0.0, -1086.4512427391103, 0.0]
['beep', 0.0, -789.7765385838197, 0.0, 0.0, 0.0, 0.0, -1086.1606700611915, 0.0]
['beep', 0.0, -794.7609775973532, 0.0, 0.0, 0.0, 0.0, -1084.2160682935796, 0.0]
['beep', 0.0, -800.0359892888057, 0.0, 0.0, 0.0, 0.0, -1083.6125711932864, 0.0]
['beep', 0.0, -798.314904965747, 0.0, 0.0, 0.0, 0.0, -1085.4454142386217, 0.0]
['beep', 0.0, -794.7609775973532, 0.0, 0.0, 0.0, 0.0, -1086.6300566947527, 0.0]
['beep', 0.0, -794.4257014305236, 0.0, 0.0, 0.0, 0.0, -1086.652408439208, 0.0]
['beep', 0.0, -793.7104456079538, 0.0, 0.0, 0.0, 0.0, -1086.9206293726718, 0.0]
['beep', 0.0, -792.928134552018, 0.0, 0.0, 0.0, 0.0, -1085.8253938943617, 0.0]
['beep', 0.0, -793.0175415298393, 0.0, 0.0, 0.0, 0.0, -1085.7806904054512, 0.0]
['beep', 0.0, -793.4198729300348, 0.0, 0.0, 0.0, 0.0, -1087.5017747285099, 0.0]
['beep', 0.0, -793.4645764189454, 0.0, 0.0, 0.0, 0.0, -1086.6077049502976, 0.0]
['beep', 0.0, -791.8105473292527, 0.0, 0.0, 0.0, 0.0, -1085.2218967940685, 0.0]
['beep', 0.0, -787.8542885606633, 0.0, 0.0, 0.0, 0.0, -1087.6358851952416, 0.0]
['beep', 0.0, -789.3965589280796, 0.0, 0.0, 0.0, 0.0, -1085.8700973832724, 0.0]
['beep', 0.0, -796.8843933206074, 0.0, 0.0, 0.0, 0.0, -1084.9313241161494, 0.0]
['beep', 0.0, -802.8523090901743, 0.0, 0.0, 0.0, 0.0, -1085.199545049613, 0.0]
['beep', 0.0, -797.4655386764454, 0.0, 0.0, 0.0, 0.0, -1086.2724287834678, 0.0]
['beep', 0.0, -792.2352304739036, 0.0, 0.0, 0.0, 0.0, -1086.4512427391103, 0.0]
['beep', 0.0, -793.7551490968644, 0.0, 0.0, 0.0, 0.0, -1086.9876846060379, 0.0]
['beep', 0.0, -797.1526142540711, 0.0, 0.0, 0.0, 0.0, -1087.8817543842501, 0.0]
['beep', 0.0, -796.5938206426885, 0.0, 0.0, 0.0, 0.0, -1087.8370508953394, 0.0]
['beep', 0.0, -791.9670095404398, 0.0, 0.0, 0.0, 0.0, -1088.9993416070154, 0.0]
['beep', 0.0, -792.6375618740991, 0.0, 0.0, 0.0, 0.0, -1088.9993416070154, 0.0]
['beep', 0.0, -800.3936172000906, 0.0, 0.0, 0.0, 0.0, -1087.0323880949484, 0.0]
['beep', 0.0, -800.3042102222694, 0.0, 0.0, 0.0, 0.0, -1088.7311206735517, 0.0]
['beep', 0.0, -796.415006687046, 0.0, 0.0, 0.0, 0.0, -1087.591181706331, 0.0]
['beep', 0.0, -794.5151084083449, 0.0, 0.0, 0.0, 0.0, -1087.1217950727696, 0.0]
['beep', 0.0, -796.0126752868504, 0.0, 0.0, 0.0, 0.0, -1088.59701020682, 0.0]
['beep', 0.0, -797.8231665877303, 0.0, 0.0, 0.0, 0.0, -1088.3734927622668, 0.0]
['beep', 0.0, -800.4383206890012, 0.0, 0.0, 0.0, 0.0, -1087.658236939697, 0.0]
['beep', 0.0, -801.8911840785962, 0.0, 0.0, 0.0, 0.0, -1087.2112020505908, 0.0]
['beep', 0.0, -798.6725328770319, 0.0, 0.0, 0.0, 0.0, -1088.5523067179092, 0.0]
['beep', 0.0, -797.0408555317946, 0.0, 0.0, 0.0, 0.0, -1090.2286875520572, 0.0]
['beep', 0.0, -797.4208351875347, 0.0, 0.0, 0.0, 0.0, -1088.7311206735517, 0.0]
['beep', 0.0, -795.2303642309147, 0.0, 0.0, 0.0, 0.0, -1087.9041061287053, 0.0]
['beep', 0.0, -795.3197712087359, 0.0, 0.0, 0.0, 0.0, -1086.652408439208, 0.0]
['beep', 0.0, -796.7055793649649, 0.0, 0.0, 0.0, 0.0, -1086.361835761289, 0.0]
['beep', 0.0, -795.9232683090291, 0.0, 0.0, 0.0, 0.0, -1086.78651890594, 0.0]
['beep', 0.0, -796.7279311094203, 0.0, 0.0, 0.0, 0.0, -1086.7418154170293, 0.0]
['beep', 0.0, -796.0350270313057, 0.0, 0.0, 0.0, 0.0, -1087.8817543842501, 0.0]
['beep', 0.0, -795.8338613312079, 0.0, 0.0, 0.0, 0.0, -1088.1946788066243, 0.0]
['beep', 0.0, -797.3090764652583, 0.0, 0.0, 0.0, 0.0, -1087.5688299618757, 0.0]
['beep', 0.0, -796.2808962203142, 0.0, 0.0, 0.0, 0.0, -1088.820527651373, 0.0]
['beep', 0.0, -797.7784630988197, 0.0, 0.0, 0.0, 0.0, -1089.4910799850322, 0.0]
['beep', 0.0, -799.8348235887079, 0.0, 0.0, 0.0, 0.0, -1087.9935131065265, 0.0]
['beep', 0.0, -797.9349253100069, 0.0, 0.0, 0.0, 0.0, -1088.239382295535, 0.0]
['beep', 0.0, -794.2468874748812, 0.0, 0.0, 0.0, 0.0, -1088.6864171846412, 0.0]
['beep', 0.0, -792.056416518261, 0.0, 0.0, 0.0, 0.0, -1089.5134317294874, 0.0]
['beep', 0.0, -796.996152042884, 0.0, 0.0, 0.0, 0.0, -1088.4852514845434, 0.0]
['beep', 0.0, -800.9747625559286, 0.0, 0.0, 0.0, 0.0, -1087.6805886841523, 0.0]
['beep', 0.0, -802.1817567565151, 0.0, 0.0, 0.0, 0.0, -1089.4910799850322, 0.0]
['beep', 0.0, -800.9747625559286, 0.0, 0.0, 0.0, 0.0, -1090.139280574236, 0.0]
['beep', 0.0, -797.4431869319901, 0.0, 0.0, 0.0, 0.0, -1090.6980741856187, 0.0]
['beep', 0.0, -797.1973177429817, 0.0, 0.0, 0.0, 0.0, -1091.592143963831, 0.0]
['beep', 0.0, -798.5607741547554, 0.0, 0.0, 0.0, 0.0, -1092.2179928085795, 0.0]
['beep', 0.0, -797.8455183321856, 0.0, 0.0, 0.0, 0.0, -1091.9050683862054, 0.0]
['beep', 0.0, -796.2361927314035, 0.0, 0.0, 0.0, 0.0, -1091.8380131528395, 0.0]
['beep', 0.0, -796.996152042884, 0.0, 0.0, 0.0, 0.0, -1090.6086672077975, 0.0]
['beep', 0.0, -798.2254979879258, 0.0, 0.0, 0.0, 0.0, -1090.6533706967082, 0.0]
['beep', 0.0, -797.6443526320878, 0.0, 0.0, 0.0, 0.0, -1091.7486061750183, 0.0]
['beep', 0.0, -796.9738002984286, 0.0, 0.0, 0.0, 0.0, -1090.8321846523506, 0.0]
['beep', 0.0, -796.057378775761, 0.0, 0.0, 0.0, 0.0, -1090.1839840631467, 0.0]
['beep', 0.0, -796.3926549425906, 0.0, 0.0, 0.0, 0.0, -1091.234516052546, 0.0]
['beep', 0.0, -797.219669487437, 0.0, 0.0, 0.0, 0.0, -1091.9721236195712, 0.0]
['beep', 0.0, -798.0690357767387, 0.0, 0.0, 0.0, 0.0, -1092.016827108482, 0.0]
['beep', 0.0, -797.4431869319901, 0.0, 0.0, 0.0, 0.0, -1090.0498735964147, 0.0]
['beep', 0.0, -796.5714688982331, 0.0, 0.0, 0.0, 0.0, -1089.6698939406747, 0.0]
['beep', 0.0, -796.9514485539734, 0.0, 0.0, 0.0, 0.0, -1091.5027369860097, 0.0]
['beep', 0.0, -794.6939223639873, 0.0, 0.0, 0.0, 0.0, -1090.6757224411635, 0.0]
['beep', 0.0, -794.2915909637918, 0.0, 0.0, 0.0, 0.0, -1090.6980741856187, 0.0]
['beep', 0.0, -796.3926549425906, 0.0, 0.0, 0.0, 0.0, -1090.7427776745294, 0.0]
['beep', 0.0, -796.929096809518, 0.0, 0.0, 0.0, 0.0, -1088.9546381181049, 0.0]
['beep', 0.0, -796.3926549425906, 0.0, 0.0, 0.0, 0.0, -1090.5192602299762, 0.0]
['beep', 0.0, -798.4490154324789, 0.0, 0.0, 0.0, 0.0, -1092.6426759532305, 0.0]
['beep', 0.0, -798.4266636880236, 0.0, 0.0, 0.0, 0.0, -1090.9662951190824, 0.0]
['beep', 0.0, -796.8843933206074, 0.0, 0.0, 0.0, 0.0, -1090.8768881412611, 0.0]
['beep', 0.0, -796.0350270313057, 0.0, 0.0, 0.0, 0.0, -1091.8156614083841, 0.0]
['beep', 0.0, -795.7891578422973, 0.0, 0.0, 0.0, 0.0, -1091.9721236195712, 0.0]
['beep', 0.0, -796.929096809518, 0.0, 0.0, 0.0, 0.0, -1091.8603648972946, 0.0]
['beep', 0.0, -797.1079107651605, 0.0, 0.0, 0.0, 0.0, -1091.6368474527417, 0.0]
['beep', 0.0, -796.8396898316968, 0.0, 0.0, 0.0, 0.0, -1090.0051701075042, 0.0]
['beep', 0.0, -796.415006687046, 0.0, 0.0, 0.0, 0.0, -1090.0498735964147, 0.0]
['beep', 0.0, -795.6997508644761, 0.0, 0.0, 0.0, 0.0, -1090.1839840631467, 0.0]
['beep', 0.0, -794.8280328307192, 0.0, 0.0, 0.0, 0.0, -1091.078053841359, 0.0]
['beep', 0.0, -796.124434009127, 0.0, 0.0, 0.0, 0.0, -1091.078053841359, 0.0]
['beep', 0.0, -794.6492188750767, 0.0, 0.0, 0.0, 0.0, -1090.5192602299762, 0.0]
['beep', 0.0, -795.2974194642806, 0.0, 0.0, 0.0, 0.0, -1090.4745567410657, 0.0]
['beep', 0.0, -796.1467857535823, 0.0, 0.0, 0.0, 0.0, -1091.525088730465, 0.0]
['beep', 0.0, -795.766806097842, 0.0, 0.0, 0.0, 0.0, -1093.1567660757025, 0.0]
['beep', 0.0, -795.0068467863616, 0.0, 0.0, 0.0, 0.0, -1092.6426759532305, 0.0]
['beep', 0.0, -795.1856607420041, 0.0, 0.0, 0.0, 0.0, -1090.8992398857165, 0.0]
['beep', 0.0, -795.0291985308169, 0.0, 0.0, 0.0, 0.0, -1092.530917230954, 0.0]
['beep', 0.0, -796.1020822646716, 0.0, 0.0, 0.0, 0.0, -1093.6485044537192, 0.0]
['beep', 0.0, -794.8727363196298, 0.0, 0.0, 0.0, 0.0, -1093.201469564613, 0.0]
['beep', 0.0, -794.8280328307192, 0.0, 0.0, 0.0, 0.0, -1093.2908765424343, 0.0]
['beep', 0.0, -796.1020822646716, 0.0, 0.0, 0.0, 0.0, -1093.1567660757025, 0.0]
['beep', 0.0, -796.6385241315991, 0.0, 0.0, 0.0, 0.0, -1094.140242831736, 0.0]
['beep', 0.0, -795.7444543533867, 0.0, 0.0, 0.0, 0.0, -1093.8273184093616, 0.0]
['beep', 0.0, -795.7891578422973, 0.0, 0.0, 0.0, 0.0, -1094.9002021432166, 0.0]
['beep', 0.0, -795.1409572530935, 0.0, 0.0, 0.0, 0.0, -1093.5367457314428, 0.0]
['beep', 0.0, -795.1409572530935, 0.0, 0.0, 0.0, 0.0, -1094.4755189985656, 0.0]
['beep', 0.0, -796.5938206426885, 0.0, 0.0, 0.0, 0.0, -1095.2131265655908, 0.0]
['beep', 0.0, -795.8338613312079, 0.0, 0.0, 0.0, 0.0, -1094.4531672541102, 0.0]
['beep', 0.0, -797.0408555317946, 0.0, 0.0, 0.0, 0.0, -1093.3802835202555, 0.0]
['beep', 0.0, -797.4431869319901, 0.0, 0.0, 0.0, 0.0, -1093.6708561981745, 0.0]
['beep', 0.0, -796.3703031981354, 0.0, 0.0, 0.0, 0.0, -1095.1684230766803, 0.0]
['beep', 0.0, -796.1467857535823, 0.0, 0.0, 0.0, 0.0, -1095.7719201769735, 0.0]
['beep', 0.0, -794.9844950419063, 0.0, 0.0, 0.0, 0.0, -1095.2578300545015, 0.0]
['beep', 0.0, -793.6880938634985, 0.0, 0.0, 0.0, 0.0, -1095.7495684325181, 0.0]
['beep', 0.0, -793.6880938634985, 0.0, 0.0, 0.0, 0.0, -1096.2636585549901, 0.0]
['beep', 0.0, -793.4645764189454, 0.0, 0.0, 0.0, 0.0, -1095.660161454697, 0.0]
['beep', 0.0, -791.5199746513337, 0.0, 0.0, 0.0, 0.0, -1094.9896091210378, 0.0]
['beep', 0.0, -788.5248408943226, 0.0, 0.0, 0.0, 0.0, -1094.0955393428253, 0.0]
['beep', 0.0, -788.6589513610544, 0.0, 0.0, 0.0, 0.0, -1093.7155596870853, 0.0]
['beep', 0.0, -788.3460269386801, 0.0, 0.0, 0.0, 0.0, -1093.335580031345, 0.0]
['beep', 0.0, -788.9048205500628, 0.0, 0.0, 0.0, 0.0, -1093.7602631759958, 0.0]
['beep', 0.0, -790.4247391730237, 0.0, 0.0, 0.0, 0.0, -1093.2908765424343, 0.0]
['beep', 0.0, -790.4023874285683, 0.0, 0.0, 0.0, 0.0, -1093.6708561981745, 0.0]
['beep', 0.0, -791.6764368625209, 0.0, 0.0, 0.0, 0.0, -1093.3802835202555, 0.0]
['beep', 0.0, -792.6599136185544, 0.0, 0.0, 0.0, 0.0, -1093.983780620549, 0.0]
['beep', 0.0, -792.3469891961801, 0.0, 0.0, 0.0, 0.0, -1094.9672573765824, 0.0]
['beep', 0.0, -793.576335141222, 0.0, 0.0, 0.0, 0.0, -1095.816623665884, 0.0]
['beep', 0.0, -793.576335141222, 0.0, 0.0, 0.0, 0.0, -1095.6378097102415, 0.0]
['beep', 0.0, -791.6093816291549, 0.0, 0.0, 0.0, 0.0, -1096.107196343803, 0.0]
['beep', 0.0, -792.2352304739036, 0.0, 0.0, 0.0, 0.0, -1095.6825131991523, 0.0]
['beep', 0.0, -790.9164775510404, 0.0, 0.0, 0.0, 0.0, -1096.4201207661774, 0.0]
['beep', 0.0, -791.6764368625209, 0.0, 0.0, 0.0, 0.0, -1097.4930045000322, 0.0]
['beep', 0.0, -792.6152101296437, 0.0, 0.0, 0.0, 0.0, -1096.7330451885516, 0.0]
['beep', 0.0, -792.6152101296437, 0.0, 0.0, 0.0, 0.0, -1096.8224521663728, 0.0]
['beep', 0.0, -791.1846984845041, 0.0, 0.0, 0.0, 0.0, -1098.2753155559678, 0.0]
['beep', 0.0, -790.5364978953002, 0.0, 0.0, 0.0, 0.0, -1098.1412050892359, 0.0]
['beep', 0.0, -791.3411606956912, 0.0, 0.0, 0.0, 0.0, -1098.2529638115125, 0.0]
['beep', 0.0, -791.2294019734147, 0.0, 0.0, 0.0, 0.0, -1097.6494667112192, 0.0]
['beep', 0.0, -789.9106490505516, 0.0, 0.0, 0.0, 0.0, -1097.6271149667639, 0.0]
['beep', 0.0, -791.0505880177723, 0.0, 0.0, 0.0, 0.0, -1097.425949266666, 0.0]
['beep', 0.0, -791.6540851180655, 0.0, 0.0, 0.0, 0.0, -1097.4483010111214, 0.0]
['beep', 0.0, -792.056416518261, 0.0, 0.0, 0.0, 0.0, -1096.97891437756, 0.0]
['beep', 0.0, -791.3858641846018, 0.0, 0.0, 0.0, 0.0, -1097.045969610926, 0.0]
['beep', 0.0, -791.4305676735124, 0.0, 0.0, 0.0, 0.0, -1097.7388736890405, 0.0]
['beep', 0.0, -791.6093816291549, 0.0, 0.0, 0.0, 0.0, -1097.9623911335934, 0.0]
['beep', 0.0, -791.7434920958867, 0.0, 0.0, 0.0, 0.0, -1098.6105917227974, 0.0]
['beep', 0.0, -791.2294019734147, 0.0, 0.0, 0.0, 0.0, -1098.9011644007164, 0.0]
['beep', 0.0, -791.7881955847973, 0.0, 0.0, 0.0, 0.0, -1096.5765829773645, 0.0]
['beep', 0.0, -791.2070502289594, 0.0, 0.0, 0.0, 0.0, -1097.8282806668617, 0.0]
['beep', 0.0, -790.3129804507471, 0.0, 0.0, 0.0, 0.0, -1097.6941702001297, 0.0]
['beep', 0.0, -790.3800356841131, 0.0, 0.0, 0.0, 0.0, -1098.588239978342, 0.0]
['beep', 0.0, -789.6647798615433, 0.0, 0.0, 0.0, 0.0, -1098.0070946225042, 0.0]
['beep', 0.0, -789.7765385838197, 0.0, 0.0, 0.0, 0.0, -1097.850632411317, 0.0]
['beep', 0.0, -790.4917944063895, 0.0, 0.0, 0.0, 0.0, -1098.4541295116103, 0.0]
['beep', 0.0, -790.7823670843086, 0.0, 0.0, 0.0, 0.0, -1098.3870742782444, 0.0]
['beep', 0.0, -790.961181039951, 0.0, 0.0, 0.0, 0.0, -1097.2247835665685, 0.0]
['beep', 0.0, -791.9670095404398, 0.0, 0.0, 0.0, 0.0, -1097.5377079889427, 0.0]
['beep', 0.0, -791.4529194179678, 0.0, 0.0, 0.0, 0.0, -1098.6329434672527, 0.0]
['beep', 0.0, -790.8047188287638, 0.0, 0.0, 0.0, 0.0, -1099.0576266119035, 0.0]
['beep', 0.0, -791.7658438403421, 0.0, 0.0, 0.0, 0.0, -1098.1188533447807, 0.0]
['beep', 0.0, -792.2799339628142, 0.0, 0.0, 0.0, 0.0, -1098.0965016003254, 0.0]
['beep', 0.0, -793.0175415298393, 0.0, 0.0, 0.0, 0.0, -1099.2140888230908, 0.0]
['beep', 0.0, -792.2799339628142, 0.0, 0.0, 0.0, 0.0, -1099.527013245465, 0.0]
['beep', 0.0, -790.6259048731214, 0.0, 0.0, 0.0, 0.0, -1099.236440567546, 0.0]
['beep', 0.0, -792.3916926850907, 0.0, 0.0, 0.0, 0.0, -1098.6776469561635, 0.0]
['beep', 0.0, -792.8387275741968, 0.0, 0.0, 0.0, 0.0, -1099.1246818452696, 0.0]
['beep', 0.0, -790.961181039951, 0.0, 0.0, 0.0, 0.0, -1100.1528620902136, 0.0]
['beep', 0.0, -792.7493205963756, 0.0, 0.0, 0.0, 0.0, -1100.2422690680348, 0.0]
['beep', 0.0, -793.5316316523114, 0.0, 0.0, 0.0, 0.0, -1099.6164202232862, 0.0]
['beep', 0.0, -792.7269688519203, 0.0, 0.0, 0.0, 0.0, -1098.3870742782444, 0.0]
['beep', 0.0, -792.2575822183588, 0.0, 0.0, 0.0, 0.0, -1100.3763795347668, 0.0]
['beep', 0.0, -791.4082159290572, 0.0, 0.0, 0.0, 0.0, -1100.331676045856, 0.0]
['beep', 0.0, -791.8999543070739, 0.0, 0.0, 0.0, 0.0, -1100.1305103457582, 0.0]
['beep', 0.0, -793.3081142077583, 0.0, 0.0, 0.0, 0.0, -1101.2928010574342, 0.0]
['beep', 0.0, -792.6599136185544, 0.0, 0.0, 0.0, 0.0, -1101.5833737353532, 0.0]
['beep', 0.0, -791.8776025626186, 0.0, 0.0, 0.0, 0.0, -1101.0692836128812, 0.0]
['beep', 0.0, -790.8717740621298, 0.0, 0.0, 0.0, 0.0, -1101.628077224264, 0.0]
['beep', 0.0, -791.2294019734147, 0.0, 0.0, 0.0, 0.0, -1100.8010626794176, 0.0]
['beep', 0.0, -791.4082159290572, 0.0, 0.0, 0.0, 0.0, -1100.6446004682305, 0.0]
['beep', 0.0, -792.5258031518225, 0.0, 0.0, 0.0, 0.0, -1101.0692836128812, 0.0]
['beep', 0.0, -792.0117130293504, 0.0, 0.0, 0.0, 0.0, -1101.0692836128812, 0.0]
['beep', 0.0, -792.3469891961801, 0.0, 0.0, 0.0, 0.0, -1101.8292429243616, 0.0]
['beep', 0.0, -792.7493205963756, 0.0, 0.0, 0.0, 0.0, -1101.2928010574342, 0.0]
['beep', 0.0, -791.6764368625209, 0.0, 0.0, 0.0, 0.0, -1101.136338846247, 0.0]
['beep', 0.0, -793.576335141222, 0.0, 0.0, 0.0, 0.0, -1101.6727807131745, 0.0]
['beep', 0.0, -793.6880938634985, 0.0, 0.0, 0.0, 0.0, -1103.0138853804929, 0.0]
['beep', 0.0, -793.5986868856772, 0.0, 0.0, 0.0, 0.0, -1101.5610219908979, 0.0]
['beep', 0.0, -793.3528176966689, 0.0, 0.0, 0.0, 0.0, -1101.628077224264, 0.0]
['beep', 0.0, -793.6657421190432, 0.0, 0.0, 0.0, 0.0, -1102.7009609581187, 0.0]
['beep', 0.0, -793.1963554854817, 0.0, 0.0, 0.0, 0.0, -1102.3209813023784, 0.0]
['beep', 0.0, -793.0398932742946, 0.0, 0.0, 0.0, 0.0, -1102.589202235842, 0.0]
['beep', 0.0, -793.1293002521159, 0.0, 0.0, 0.0, 0.0, -1103.1926993361353, 0.0]
['beep', 0.0, -791.7658438403421, 0.0, 0.0, 0.0, 0.0, -1103.2150510805907, 0.0]
['beep', 0.0, -793.0622450187499, 0.0, 0.0, 0.0, 0.0, -1102.142167346736, 0.0]
['beep', 0.0, -793.9563147969621, 0.0, 0.0, 0.0, 0.0, -1101.3598562908003, 0.0]
['beep', 0.0, -794.5598118972555, 0.0, 0.0, 0.0, 0.0, -1103.080940613859, 0.0]
['beep', 0.0, -793.8892595635963, 0.0, 0.0, 0.0, 0.0, -1103.2597545695014, 0.0]
['beep', 0.0, -793.2187072299371, 0.0, 0.0, 0.0, 0.0, -1102.9691818915824, 0.0]
['beep', 0.0, -793.9339630525069, 0.0, 0.0, 0.0, 0.0, -1103.1926993361353, 0.0]
['beep', 0.0, -793.9116113080515, 0.0, 0.0, 0.0, 0.0, -1102.298629557923, 0.0]
['beep', 0.0, -792.8610793186522, 0.0, 0.0, 0.0, 0.0, -1102.0974638578252, 0.0]
['beep', 0.0, -792.4363961740013, 0.0, 0.0, 0.0, 0.0, -1102.5444987469314, 0.0]
['beep', 0.0, -791.5646781402443, 0.0, 0.0, 0.0, 0.0, -1103.3715132917778, 0.0]
['beep', 0.0, -791.5870298846996, 0.0, 0.0, 0.0, 0.0, -1103.7291412030627, 0.0]
['beep', 0.0, -792.0117130293504, 0.0, 0.0, 0.0, 0.0, -1102.9244784026716, 0.0]
['beep', 0.0, -790.7823670843086, 0.0, 0.0, 0.0, 0.0, -1103.527975502965, 0.0]
['beep', 0.0, -790.8270705732192, 0.0, 0.0, 0.0, 0.0, -1104.3773417922666, 0.0]
['beep', 0.0, -792.0787682627164, 0.0, 0.0, 0.0, 0.0, -1102.9691818915824, 0.0]
['beep', 0.0, -791.4305676735124, 0.0, 0.0, 0.0, 0.0, -1103.8632516697946, 0.0]
['beep', 0.0, -792.3469891961801, 0.0, 0.0, 0.0, 0.0, -1102.723312702574, 0.0]
['beep', 0.0, -792.704617107465, 0.0, 0.0, 0.0, 0.0, -1102.1868708356465, 0.0]
['beep', 0.0, -791.475271162423, 0.0, 0.0, 0.0, 0.0, -1102.0527603689147, 0.0]
['beep', 0.0, -791.542326395789, 0.0, 0.0, 0.0, 0.0, -1102.4774435135655, 0.0]
['beep', 0.0, -791.4529194179678, 0.0, 0.0, 0.0, 0.0, -1102.07511211337, 0.0]
['beep', 0.0, -790.7153118509426, 0.0, 0.0, 0.0, 0.0, -1103.7738446919734, 0.0]
['beep', 0.0, -789.8882973060963, 0.0, 0.0, 0.0, 0.0, -1103.7738446919734, 0.0]
['beep', 0.0, -790.5141461508449, 0.0, 0.0, 0.0, 0.0, -1104.109120858803, 0.0]
['beep', 0.0, -791.4976229068784, 0.0, 0.0, 0.0, 0.0, -1103.6397342252415, 0.0]
['beep', 0.0, -791.0282362733169, 0.0, 0.0, 0.0, 0.0, -1103.0585888694036, 0.0]
['beep', 0.0, -791.4976229068784, 0.0, 0.0, 0.0, 0.0, -1102.7456644470292, 0.0]
['beep', 0.0, -791.7434920958867, 0.0, 0.0, 0.0, 0.0, -1102.298629557923, 0.0]
['beep', 0.0, -790.9164775510404, 0.0, 0.0, 0.0, 0.0, -1103.6844377141522, 0.0]
['beep', 0.0, -791.3635124401466, 0.0, 0.0, 0.0, 0.0, -1103.6620859696968, 0.0]
['beep', 0.0, -793.4198729300348, 0.0, 0.0, 0.0, 0.0, -1103.527975502965, 0.0]
['beep', 0.0, -793.4422246744901, 0.0, 0.0, 0.0, 0.0, -1104.109120858803, 0.0]
['beep', 0.0, -793.6210386301326, 0.0, 0.0, 0.0, 0.0, -1103.818548180884, 0.0]
['beep', 0.0, -793.1516519965711, 0.0, 0.0, 0.0, 0.0, -1104.4443970256325, 0.0]
['beep', 0.0, -792.8610793186522, 0.0, 0.0, 0.0, 0.0, -1105.0031906370152, 0.0]
['beep', 0.0, -792.4363961740013, 0.0, 0.0, 0.0, 0.0, -1103.5503272474202, 0.0]
['beep', 0.0, -792.9504862964734, 0.0, 0.0, 0.0, 0.0, -1103.8632516697946, 0.0]
['beep', 0.0, -793.4198729300348, 0.0, 0.0, 0.0, 0.0, -1103.88560341425, 0.0]
['beep', 0.0, -793.285762463303, 0.0, 0.0, 0.0, 0.0, -1103.9973621365264, 0.0]
['beep', 0.0, -792.5705066407331, 0.0, 0.0, 0.0, 0.0, -1103.3938650362331, 0.0]
['beep', 0.0, -792.8387275741968, 0.0, 0.0, 0.0, 0.0, -1103.751492947518, 0.0]
['beep', 0.0, -792.2352304739036, 0.0, 0.0, 0.0, 0.0, -1103.6620859696968, 0.0]
['beep', 0.0, -792.5034514073673, 0.0, 0.0, 0.0, 0.0, -1103.6620859696968, 0.0]
['beep', 0.0, -793.3528176966689, 0.0, 0.0, 0.0, 0.0, -1103.1479958472248, 0.0]
['beep', 0.0, -792.4587479184567, 0.0, 0.0, 0.0, 0.0, -1103.4385685251439, 0.0]
['beep', 0.0, -791.832899073708, 0.0, 0.0, 0.0, 0.0, -1104.5114522589986, 0.0]
['beep', 0.0, -792.5705066407331, 0.0, 0.0, 0.0, 0.0, -1103.6173824807863, 0.0]
['beep', 0.0, -792.123471751627, 0.0, 0.0, 0.0, 0.0, -1102.7456644470292, 0.0]
['beep', 0.0, -791.3411606956912, 0.0, 0.0, 0.0, 0.0, -1104.26558306999, 0.0]
['beep', 0.0, -792.123471751627, 0.0, 0.0, 0.0, 0.0, -1104.913783659194, 0.0]
['beep', 0.0, -792.3022857072694, 0.0, 0.0, 0.0, 0.0, -1105.427873781666, 0.0]
['beep', 0.0, -792.6152101296437, 0.0, 0.0, 0.0, 0.0, -1106.1431296042358, 0.0]
['beep', 0.0, -792.9728380409287, 0.0, 0.0, 0.0, 0.0, -1106.1207778597807, 0.0]
['beep', 0.0, -793.576335141222, 0.0, 0.0, 0.0, 0.0, -1105.785501692951, 0.0]
['beep', 0.0, -792.0787682627164, 0.0, 0.0, 0.0, 0.0, -1107.461882527099, 0.0]
['beep', 0.0, -793.1963554854817, 0.0, 0.0, 0.0, 0.0, -1106.5678127488868, 0.0]
['beep', 0.0, -793.2187072299371, 0.0, 0.0, 0.0, 0.0, -1106.8136819378951, 0.0]
['beep', 0.0, -792.2352304739036, 0.0, 0.0, 0.0, 0.0, -1107.1936615936354, 0.0]
['beep', 0.0, -792.8387275741968, 0.0, 0.0, 0.0, 0.0, -1107.1042546158142, 0.0]
['beep', 0.0, -794.0233700303281, 0.0, 0.0, 0.0, 0.0, -1108.2218418385794, 0.0]
['beep', 0.0, -793.9563147969621, 0.0, 0.0, 0.0, 0.0, -1108.2441935830348, 0.0]
['beep', 0.0, -793.8222043302303, 0.0, 0.0, 0.0, 0.0, -1107.7524552050181, 0.0]
['beep', 0.0, -795.0068467863616, 0.0, 0.0, 0.0, 0.0, -1108.3559523053113, 0.0]
['beep', 0.0, -794.4033496860683, 0.0, 0.0, 0.0, 0.0, -1109.2947255724341, 0.0]
['beep', 0.0, -795.543288653289, 0.0, 0.0, 0.0, 0.0, -1109.4064842947107, 0.0]
['beep', 0.0, -796.1020822646716, 0.0, 0.0, 0.0, 0.0, -1109.4511877836214, 0.0]
['beep', 0.0, -795.5656403977442, 0.0, 0.0, 0.0, 0.0, -1109.0488563834258, 0.0]
['beep', 0.0, -794.7833293418086, 0.0, 0.0, 0.0, 0.0, -1108.177138349669, 0.0]
['beep', 0.0, -796.0350270313057, 0.0, 0.0, 0.0, 0.0, -1107.3501238048225, 0.0]
['beep', 0.0, -795.5209369088336, 0.0, 0.0, 0.0, 0.0, -1107.9536209051157, 0.0]
['beep', 0.0, -795.6550473755655, 0.0, 0.0, 0.0, 0.0, -1106.7019232156185, 0.0]
['beep', 0.0, -795.7444543533867, 0.0, 0.0, 0.0, 0.0, -1106.880737171261, 0.0]
['beep', 0.0, -796.4373584315013, 0.0, 0.0, 0.0, 0.0, -1106.3219435598783, 0.0]
['beep', 0.0, -796.2585444758588, 0.0, 0.0, 0.0, 0.0, -1107.1489581047247, 0.0]
['beep', 0.0, -797.3984834430795, 0.0, 0.0, 0.0, 0.0, -1106.9924958935376, 0.0]
['beep', 0.0, -796.7726345983309, 0.0, 0.0, 0.0, 0.0, -1107.2830685714566, 0.0]
['beep', 0.0, -796.5938206426885, 0.0, 0.0, 0.0, 0.0, -1107.2160133380908, 0.0]
['beep', 0.0, -797.6443526320878, 0.0, 0.0, 0.0, 0.0, -1106.366647048789, 0.0]
['beep', 0.0, -797.2867247208029, 0.0, 0.0, 0.0, 0.0, -1106.590164493342, 0.0]
['beep', 0.0, -797.5325939098113, 0.0, 0.0, 0.0, 0.0, -1106.9701441490822, 0.0]
['beep', 0.0, -796.7726345983309, 0.0, 0.0, 0.0, 0.0, -1106.5454610044314, 0.0]
['beep', 0.0, -797.8902218210962, 0.0, 0.0, 0.0, 0.0, -1107.7748069494733, 0.0]
['beep', 0.0, -797.8902218210962, 0.0, 0.0, 0.0, 0.0, -1106.8360336823505, 0.0]
['beep', 0.0, -796.9738002984286, 0.0, 0.0, 0.0, 0.0, -1107.2830685714566, 0.0]
['beep', 0.0, -797.3314282097135, 0.0, 0.0, 0.0, 0.0, -1107.014847637993, 0.0]
['beep', 0.0, -796.6385241315991, 0.0, 0.0, 0.0, 0.0, -1106.2548883265124, 0.0]
['beep', 0.0, -798.8066433437638, 0.0, 0.0, 0.0, 0.0, -1105.0031906370152, 0.0]
['beep', 0.0, -798.9854572994062, 0.0, 0.0, 0.0, 0.0, -1105.8972604152275, 0.0]
['beep', 0.0, -797.0632072762498, 0.0, 0.0, 0.0, 0.0, -1106.6125162377973, 0.0]
['beep', 0.0, -796.8620415761521, 0.0, 0.0, 0.0, 0.0, -1105.427873781666, 0.0]
['beep', 0.0, -795.8785648201185, 0.0, 0.0, 0.0, 0.0, -1105.6737429706745, 0.0]
['beep', 0.0, -797.0632072762498, 0.0, 0.0, 0.0, 0.0, -1105.0031906370152, 0.0]
['beep', 0.0, -798.1137392656493, 0.0, 0.0, 0.0, 0.0, -1104.7796731924623, 0.0]
['beep', 0.0, -798.1137392656493, 0.0, 0.0, 0.0, 0.0, -1104.1761760921688, 0.0]
['beep', 0.0, -797.4208351875347, 0.0, 0.0, 0.0, 0.0, -1103.5726789918756, 0.0]
['beep', 0.0, -796.4597101759566, 0.0, 0.0, 0.0, 0.0, -1102.8350714248504, 0.0]
['beep', 0.0, -795.8115095867527, 0.0, 0.0, 0.0, 0.0, -1101.628077224264, 0.0]
['beep', 0.0, -796.6161723871437, 0.0, 0.0, 0.0, 0.0, -1101.650428968719, 0.0]
['beep', 0.0, -796.6832276205097, 0.0, 0.0, 0.0, 0.0, -1101.1586905907025, 0.0]
['beep', 0.0, -796.3703031981354, 0.0, 0.0, 0.0, 0.0, -1102.2092225801018, 0.0]
['beep', 0.0, -797.7784630988197, 0.0, 0.0, 0.0, 0.0, -1101.8739464132723, 0.0]
['beep', 0.0, -798.0466840322833, 0.0, 0.0, 0.0, 0.0, -1101.1586905907025, 0.0]
['beep', 0.0, -796.2361927314035, 0.0, 0.0, 0.0, 0.0, -1101.6057254798086, 0.0]
['beep', 0.0, -796.9514485539734, 0.0, 0.0, 0.0, 0.0, -1101.4716150130766, 0.0]
['beep', 0.0, -796.3926549425906, 0.0, 0.0, 0.0, 0.0, -1102.2315743245572, 0.0]
['beep', 0.0, -797.4431869319901, 0.0, 0.0, 0.0, 0.0, -1101.203394079613, 0.0]
['beep', 0.0, -797.3537799541689, 0.0, 0.0, 0.0, 0.0, -1101.4492632686215, 0.0]
['beep', 0.0, -797.6443526320878, 0.0, 0.0, 0.0, 0.0, -1102.0304086244594, 0.0]
['beep', 0.0, -797.7784630988197, 0.0, 0.0, 0.0, 0.0, -1101.8068911799064, 0.0]
['beep', 0.0, -797.0632072762498, 0.0, 0.0, 0.0, 0.0, -1101.9186499021828, 0.0]
['beep', 0.0, -797.219669487437, 0.0, 0.0, 0.0, 0.0, -1100.8010626794176, 0.0]
['beep', 0.0, -797.8678700766409, 0.0, 0.0, 0.0, 0.0, -1100.8681179127834, 0.0]
['beep', 0.0, -796.7726345983309, 0.0, 0.0, 0.0, 0.0, -1101.650428968719, 0.0]
['beep', 0.0, -797.0408555317946, 0.0, 0.0, 0.0, 0.0, -1102.8127196803953, 0.0]
['beep', 0.0, -796.6385241315991, 0.0, 0.0, 0.0, 0.0, -1103.9973621365264, 0.0]
['beep', 0.0, -797.219669487437, 0.0, 0.0, 0.0, 0.0, -1103.103292358314, 0.0]
['beep', 0.0, -797.4655386764454, 0.0, 0.0, 0.0, 0.0, -1101.851594668817, 0.0]
['beep', 0.0, -796.996152042884, 0.0, 0.0, 0.0, 0.0, -1101.7398359465403, 0.0]
['beep', 0.0, -796.415006687046, 0.0, 0.0, 0.0, 0.0, -1101.4716150130766, 0.0]
['beep', 0.0, -798.1137392656493, 0.0, 0.0, 0.0, 0.0, -1102.5444987469314, 0.0]
['beep', 0.0, -796.8843933206074, 0.0, 0.0, 0.0, 0.0, -1102.0527603689147, 0.0]
['beep', 0.0, -796.7055793649649, 0.0, 0.0, 0.0, 0.0, -1101.4269115241661, 0.0]
['beep', 0.0, -797.1749659985264, 0.0, 0.0, 0.0, 0.0, -1101.8739464132723, 0.0]
['beep', 0.0, -797.1973177429817, 0.0, 0.0, 0.0, 0.0, -1102.9915336360377, 0.0]
['beep', 0.0, -796.2361927314035, 0.0, 0.0, 0.0, 0.0, -1102.9244784026716, 0.0]
['beep', 0.0, -795.9456200534845, 0.0, 0.0, 0.0, 0.0, -1101.9633533910935, 0.0]
['beep', 0.0, -796.1914892424929, 0.0, 0.0, 0.0, 0.0, -1101.7621876909957, 0.0]
['beep', 0.0, -795.9009165645739, 0.0, 0.0, 0.0, 0.0, -1100.5775452348644, 0.0]
['beep', 0.0, -796.0350270313057, 0.0, 0.0, 0.0, 0.0, -1099.2140888230908, 0.0]
['beep', 0.0, -795.8785648201185, 0.0, 0.0, 0.0, 0.0, -1099.5940684788309, 0.0]
['beep', 0.0, -794.7386258528979, 0.0, 0.0, 0.0, 0.0, -1099.370551034278, 0.0]
['beep', 0.0, -794.2915909637918, 0.0, 0.0, 0.0, 0.0, -1098.856460911806, 0.0]
['beep', 0.0, -797.2420212318923, 0.0, 0.0, 0.0, 0.0, -1098.6105917227974, 0.0]
['beep', 0.0, -799.186622999504, 0.0, 0.0, 0.0, 0.0, -1097.9400393891383, 0.0]
['beep', 0.0, -798.6054776436661, 0.0, 0.0, 0.0, 0.0, -1097.0906730998365, 0.0]
['beep', 0.0, -798.1584427545599, 0.0, 0.0, 0.0, 0.0, -1098.230612067057, 0.0]
['beep', 0.0, -797.7114078654538, 0.0, 0.0, 0.0, 0.0, -1098.7894056784398, 0.0]
['beep', 0.0, -799.2089747439593, 0.0, 0.0, 0.0, 0.0, -1098.1635568336912, 0.0]
['beep', 0.0, -800.3936172000906, 0.0, 0.0, 0.0, 0.0, -1097.1577283332024, 0.0]
['beep', 0.0, -799.9912857998951, 0.0, 0.0, 0.0, 0.0, -1097.2247835665685, 0.0]
['beep', 0.0, -799.8795270776185, 0.0, 0.0, 0.0, 0.0, -1096.4871759995433, 0.0]
['beep', 0.0, -799.6783613775208, 0.0, 0.0, 0.0, 0.0, -1097.3365422888448, 0.0]
['beep', 0.0, -801.0418177892946, 0.0, 0.0, 0.0, 0.0, -1096.7106934440963, 0.0]
['beep', 0.0, -801.0194660448392, 0.0, 0.0, 0.0, 0.0, -1093.492042242532, 0.0]
['beep', 0.0, -797.9796287989175, 0.0, 0.0, 0.0, 0.0, -1091.2792195414568, 0.0]
['beep', 0.0, -798.7842915993085, 0.0, 0.0, 0.0, 0.0, -1088.462899740088, 0.0]
['beep', 0.0, -801.2876869783029, 0.0, 0.0, 0.0, 0.0, -1083.657274682197, 0.0]
['beep', 0.0, -801.4665009339453, 0.0, 0.0, 0.0, 0.0, -1080.9080101141942, 0.0]
['beep', 0.0, -800.5500794112778, 0.0, 0.0, 0.0, 0.0, -1070.4697454535658, 0.0]
['beep', 0.0, -804.8863178356073, 0.0, 0.0, 0.0, 0.0, -1064.21125700608, 0.0]
['beep', 0.0, -804.5286899243224, 0.0, 0.0, 0.0, 0.0, -1061.1714197601582, 0.0]
['beep', 0.0, -803.2322887459146, 0.0, 0.0, 0.0, 0.0, -1052.4542394225884, 0.0]
['beep', 0.0, -799.767768355342, 0.0, 0.0, 0.0, 0.0, -1041.5018846394878, 0.0]
['beep', 0.0, -802.4946811788894, 0.0, 0.0, 0.0, 0.0, -1033.3658496577561, 0.0]
['beep', 0.0, -803.0087713013615, 0.0, 0.0, 0.0, 0.0, -1025.1851111871138, 0.0]
['beep', 0.0, -806.8532713476743, 0.0, 0.0, 0.0, 0.0, -1015.3503436267787, 0.0]
['beep', 0.0, -809.8260533602302, 0.0, 0.0, 0.0, 0.0, -1009.0918551792927, 0.0]
['beep', 0.0, -810.3848469716129, 0.0, 0.0, 0.0, 0.0, -1000.7770062419185, 0.0]
['beep', 0.0, -808.7308178819202, 0.0, 0.0, 0.0, 0.0, -991.501032292966, 0.0]
['beep', 0.0, -808.2167277594481, 0.0, 0.0, 0.0, 0.0, -985.2648955899353, 0.0]
['beep', 0.0, -808.0379138038056, 0.0, 0.0, 0.0, 0.0, -977.9782268975052, 0.0]
['beep', 0.0, -810.5636609272553, 0.0, 0.0, 0.0, 0.0, -970.5350959938879, 0.0]
['beep', 0.0, -809.2672597488476, 0.0, 0.0, 0.0, 0.0, -965.8412296582735, 0.0]
['beep', 0.0, -807.2108992589592, 0.0, 0.0, 0.0, 0.0, -960.5438662223658, 0.0]
['beep', 0.0, -806.6297539031212, 0.0, 0.0, 0.0, 0.0, -957.1016975762484, 0.0]
['beep', 0.0, -809.5131289378559, 0.0, 0.0, 0.0, 0.0, -954.7771161528965, 0.0]
['beep', 0.0, -811.1448062830933, 0.0, 0.0, 0.0, 0.0, -953.4360114855781, 0.0]
['beep', 0.0, -810.1166260381492, 0.0, 0.0, 0.0, 0.0, -954.5535987083434, 0.0]
['beep', 0.0, -809.2672597488476, 0.0, 0.0, 0.0, 0.0, -957.146401065159, 0.0]
['beep', 0.0, -813.0447045617944, 0.0, 0.0, 0.0, 0.0, -960.566217966821, 0.0]
['beep', 0.0, -811.8600621056631, 0.0, 0.0, 0.0, 0.0, -965.1930290690696, 0.0]
['beep', 0.0, -809.6025359156771, 0.0, 0.0, 0.0, 0.0, -970.7362616939857, 0.0]
['beep', 0.0, -808.8872800931073, 0.0, 0.0, 0.0, 0.0, -978.2464478309689, 0.0]
['beep', 0.0, -808.4402452040011, 0.0, 0.0, 0.0, 0.0, -983.9014391781616, 0.0]
['beep', 0.0, -808.3731899706353, 0.0, 0.0, 0.0, 0.0, -991.568087526332, 0.0]
['beep', 0.0, -808.5967074151883, 0.0, 0.0, 0.0, 0.0, -999.2570876189576, 0.0]
['beep', 0.0, -806.0486085472833, 0.0, 0.0, 0.0, 0.0, -1005.9626109555496, 0.0]
['beep', 0.0, -805.221594002437, 0.0, 0.0, 0.0, 0.0, -1011.5728988138318, 0.0]
['beep', 0.0, -805.6015736581771, 0.0, 0.0, 0.0, 0.0, -1018.9936779729936, 0.0]
['beep', 0.0, -804.7075038799649, 0.0, 0.0, 0.0, 0.0, -1025.3862768872116, 0.0]
['beep', 0.0, -804.8863178356073, 0.0, 0.0, 0.0, 0.0, -1030.7283438120298, 0.0]
['beep', 0.0, -803.5899166571995, 0.0, 0.0, 0.0, 0.0, -1035.4222101476444, 0.0]
['beep', 0.0, -802.9193643235403, 0.0, 0.0, 0.0, 0.0, -1039.467875894055, 0.0]
['beep', 0.0, -802.6958468789873, 0.0, 0.0, 0.0, 0.0, -1043.8041143183846, 0.0]
['beep', 0.0, -802.1147015231493, 0.0, 0.0, 0.0, 0.0, -1046.106343997281, 0.0]
['beep', 0.0, -802.025294545328, 0.0, 0.0, 0.0, 0.0, -1050.3531754437895, 0.0]
['beep', 0.0, -802.0029428008727, 0.0, 0.0, 0.0, 0.0, -1053.594178389809, 0.0]
['beep', 0.0, -800.0136375443503, 0.0, 0.0, 0.0, 0.0, -1058.5562656588872, 0.0]
['beep', 0.0, -800.6171346446437, 0.0, 0.0, 0.0, 0.0, -1060.076184281848, 0.0]
['beep', 0.0, -800.2371549889035, 0.0, 0.0, 0.0, 0.0, -1063.048966294404, 0.0]
['beep', 0.0, -800.4606724334566, 0.0, 0.0, 0.0, 0.0, -1065.172382017658, 0.0]
['beep', 0.0, -799.8795270776185, 0.0, 0.0, 0.0, 0.0, -1067.1840390186358, 0.0]
['beep', 0.0, -800.5053759223672, 0.0, 0.0, 0.0, 0.0, -1069.2627512529793, 0.0]
['beep', 0.0, -799.9465823109845, 0.0, 0.0, 0.0, 0.0, -1070.3803384757446, 0.0]
['beep', 0.0, -799.7230648664314, 0.0, 0.0, 0.0, 0.0, -1071.855553609795, 0.0]
['beep', 0.0, -799.2983817217805, 0.0, 0.0, 0.0, 0.0, -1073.0178443214709, 0.0]
['beep', 0.0, -799.0301607883168, 0.0, 0.0, 0.0, 0.0, -1075.3871292337335, 0.0]
['beep', 0.0, -799.8348235887079, 0.0, 0.0, 0.0, 0.0, -1076.1694402896692, 0.0]
['beep', 0.0, -798.4043119435682, 0.0, 0.0, 0.0, 0.0, -1078.1810972906467, 0.0]
['beep', 0.0, -798.1807944990152, 0.0, 0.0, 0.0, 0.0, -1079.1869257911355, 0.0]
['beep', 0.0, -798.1137392656493, 0.0, 0.0, 0.0, 0.0, -1080.6844926696413, 0.0]
['beep', 0.0, -800.6171346446437, 0.0, 0.0, 0.0, 0.0, -1081.9585421035936, 0.0]
['beep', 0.0, -800.058341033261, 0.0, 0.0, 0.0, 0.0, -1082.137356059236, 0.0]
['beep', 0.0, -798.3372567102024, 0.0, 0.0, 0.0, 0.0, -1083.9925508490267, 0.0]
['beep', 0.0, -799.6560096330654, 0.0, 0.0, 0.0, 0.0, -1084.752510160507, 0.0]
['beep', 0.0, -799.4101404440571, 0.0, 0.0, 0.0, 0.0, -1085.0207310939707, 0.0]
['beep', 0.0, -799.186622999504, 0.0, 0.0, 0.0, 0.0, -1085.3560072608004, 0.0]
['beep', 0.0, -799.6560096330654, 0.0, 0.0, 0.0, 0.0, -1085.4677659830768, 0.0]
['beep', 0.0, -797.3537799541689, 0.0, 0.0, 0.0, 0.0, -1086.9429811171271, 0.0]
['beep', 0.0, -798.6725328770319, 0.0, 0.0, 0.0, 0.0, -1087.2112020505908, 0.0]
['beep', 0.0, -798.7619398548532, 0.0, 0.0, 0.0, 0.0, -1087.2335537950462, 0.0]
['beep', 0.0, -798.7619398548532, 0.0, 0.0, 0.0, 0.0, -1086.8312223948506, 0.0]
['beep', 0.0, -799.0078090438616, 0.0, 0.0, 0.0, 0.0, -1086.7194636725742, 0.0]
['beep', 0.0, -800.2595067333588, 0.0, 0.0, 0.0, 0.0, -1088.0605683398926, 0.0]
['beep', 0.0, -799.2313264884147, 0.0, 0.0, 0.0, 0.0, -1088.8875828847388, 0.0]
['beep', 0.0, -798.2925532212918, 0.0, 0.0, 0.0, 0.0, -1089.401673007211, 0.0]
['beep', 0.0, -798.6725328770319, 0.0, 0.0, 0.0, 0.0, -1089.1781555626578, 0.0]
['beep', 0.0, -799.9912857998951, 0.0, 0.0, 0.0, 0.0, -1088.8428793958283, 0.0]
['beep', 0.0, -799.3654369551465, 0.0, 0.0, 0.0, 0.0, -1089.8040044074064, 0.0]
['beep', 0.0, -798.896050321585, 0.0, 0.0, 0.0, 0.0, -1091.212164308091, 0.0]
['beep', 0.0, -799.7901200997973, 0.0, 0.0, 0.0, 0.0, -1090.139280574236, 0.0]
['beep', 0.0, -800.4606724334566, 0.0, 0.0, 0.0, 0.0, -1090.9215916301719, 0.0]
['beep', 0.0, -800.5947829001884, 0.0, 0.0, 0.0, 0.0, -1091.4580334970992, 0.0]
['beep', 0.0, -798.3372567102024, 0.0, 0.0, 0.0, 0.0, -1090.8992398857165, 0.0]
['beep', 0.0, -798.4490154324789, 0.0, 0.0, 0.0, 0.0, -1091.3015712859121, 0.0]
['beep', 0.0, -798.4266636880236, 0.0, 0.0, 0.0, 0.0, -1091.3909782637334, 0.0]
['beep', 0.0, -797.6443526320878, 0.0, 0.0, 0.0, 0.0, -1091.8603648972946, 0.0]
['beep', 0.0, -797.8902218210962, 0.0, 0.0, 0.0, 0.0, -1091.4133300081885, 0.0]
['beep', 0.0, -797.7561113543644, 0.0, 0.0, 0.0, 0.0, -1091.6815509416522, 0.0]
['beep', 0.0, -797.219669487437, 0.0, 0.0, 0.0, 0.0, -1091.368626519278, 0.0]
['beep', 0.0, -797.7561113543644, 0.0, 0.0, 0.0, 0.0, -1092.1509375752137, 0.0]
['beep', 0.0, -798.4490154324789, 0.0, 0.0, 0.0, 0.0, -1092.2179928085795, 0.0]
['beep', 0.0, -797.7114078654538, 0.0, 0.0, 0.0, 0.0, -1091.88271664175, 0.0]
['beep', 0.0, -796.5938206426885, 0.0, 0.0, 0.0, 0.0, -1092.1956410641244, 0.0]
['beep', 0.0, -794.7162741084426, 0.0, 0.0, 0.0, 0.0, -1091.9721236195712, 0.0]
['beep', 0.0, -795.8562130756633, 0.0, 0.0, 0.0, 0.0, -1093.0226556089706, 0.0]
['beep', 0.0, -798.091387521194, 0.0, 0.0, 0.0, 0.0, -1094.1625945761914, 0.0]
['beep', 0.0, -798.2031462434705, 0.0, 0.0, 0.0, 0.0, -1093.7155596870853, 0.0]
['beep', 0.0, -796.8620415761521, 0.0, 0.0, 0.0, 0.0, -1093.2238213090684, 0.0]
['beep', 0.0, -796.8173380872415, 0.0, 0.0, 0.0, 0.0, -1093.1344143312472, 0.0]
['beep', 0.0, -797.4431869319901, 0.0, 0.0, 0.0, 0.0, -1093.69320794263, 0.0]
['beep', 0.0, -796.9514485539734, 0.0, 0.0, 0.0, 0.0, -1094.3861120207443, 0.0]
['beep', 0.0, -796.8173380872415, 0.0, 0.0, 0.0, 0.0, -1093.7379114315404, 0.0]
['beep', 0.0, -797.6667043765432, 0.0, 0.0, 0.0, 0.0, -1093.5814492203533, 0.0]
['beep', 0.0, -798.2478497323812, 0.0, 0.0, 0.0, 0.0, -1093.201469564613, 0.0]
['beep', 0.0, -797.9349253100069, 0.0, 0.0, 0.0, 0.0, -1093.8273184093616, 0.0]
['beep', 0.0, -797.3090764652583, 0.0, 0.0, 0.0, 0.0, -1093.492042242532, 0.0]
['beep', 0.0, -798.5831258992107, 0.0, 0.0, 0.0, 0.0, -1095.9954376215264, 0.0]
['beep', 0.0, -800.1030445221717, 0.0, 0.0, 0.0, 0.0, -1096.7777486774623, 0.0]
['beep', 0.0, -800.3265619667247, 0.0, 0.0, 0.0, 0.0, -1095.816623665884, 0.0]
['beep', 0.0, -800.34891371118, 0.0, 0.0, 0.0, 0.0, -1097.1353765887472, 0.0]
['beep', 0.0, -800.1253962666269, 0.0, 0.0, 0.0, 0.0, -1095.9283823881606, 0.0]
['beep', 0.0, -798.3596084546576, 0.0, 0.0, 0.0, 0.0, -1096.5765829773645, 0.0]
['beep', 0.0, -799.0748642772274, 0.0, 0.0, 0.0, 0.0, -1096.2636585549901, 0.0]
['beep', 0.0, -799.0078090438616, 0.0, 0.0, 0.0, 0.0, -1096.2189550660796, 0.0]
['beep', 0.0, -797.8231665877303, 0.0, 0.0, 0.0, 0.0, -1096.3754172772667, 0.0]
['beep', 0.0, -798.5607741547554, 0.0, 0.0, 0.0, 0.0, -1095.5260509879652, 0.0]
['beep', 0.0, -798.2702014768364, 0.0, 0.0, 0.0, 0.0, -1096.4424725106326, 0.0]
['beep', 0.0, -799.2089747439593, 0.0, 0.0, 0.0, 0.0, -1096.0624928548925, 0.0]
['beep', 0.0, -798.314904965747, 0.0, 0.0, 0.0, 0.0, -1095.7048649436076, 0.0]
['beep', 0.0, -799.4324921885124, 0.0, 0.0, 0.0, 0.0, -1095.816623665884, 0.0]
['beep', 0.0, -799.3207334662359, 0.0, 0.0, 0.0, 0.0, -1096.5318794884538, 0.0]
['beep', 0.0, -800.3936172000906, 0.0, 0.0, 0.0, 0.0, -1096.5542312329092, 0.0]
['beep', 0.0, -801.8464805896856, 0.0, 0.0, 0.0, 0.0, -1096.5095277439987, 0.0]
['beep', 0.0, -800.5500794112778, 0.0, 0.0, 0.0, 0.0, -1097.4930045000322, 0.0]
['beep', 0.0, -800.1700997555375, 0.0, 0.0, 0.0, 0.0, -1097.202431822113, 0.0]
['beep', 0.0, -800.9077073225627, 0.0, 0.0, 0.0, 0.0, -1096.4201207661774, 0.0]
['beep', 0.0, -800.1253962666269, 0.0, 0.0, 0.0, 0.0, -1096.7106934440963, 0.0]
['beep', 0.0, -799.9465823109845, 0.0, 0.0, 0.0, 0.0, -1097.850632411317, 0.0]
['beep', 0.0, -799.0748642772274, 0.0, 0.0, 0.0, 0.0, -1097.403597522211, 0.0]
['beep', 0.0, -799.3430852106911, 0.0, 0.0, 0.0, 0.0, -1097.1353765887472, 0.0]
['beep', 0.0, -800.3936172000906, 0.0, 0.0, 0.0, 0.0, -1097.5153562444873, 0.0]
['beep', 0.0, -799.6560096330654, 0.0, 0.0, 0.0, 0.0, -1098.2753155559678, 0.0]
['beep', 0.0, -799.5218991663336, 0.0, 0.0, 0.0, 0.0, -1098.3423707893337, 0.0]
['beep', 0.0, -798.9854572994062, 0.0, 0.0, 0.0, 0.0, -1098.588239978342, 0.0]
['beep', 0.0, -799.3430852106911, 0.0, 0.0, 0.0, 0.0, -1098.0070946225042, 0.0]
['beep', 0.0, -801.0641695337498, 0.0, 0.0, 0.0, 0.0, -1097.5153562444873, 0.0]
['beep', 0.0, -800.8183003447415, 0.0, 0.0, 0.0, 0.0, -1097.783577177951, 0.0]
['beep', 0.0, -800.2148032444481, 0.0, 0.0, 0.0, 0.0, -1098.1635568336912, 0.0]
['beep', 0.0, -798.7842915993085, 0.0, 0.0, 0.0, 0.0, -1097.917687644683, 0.0]
['beep', 0.0, -798.7842915993085, 0.0, 0.0, 0.0, 0.0, -1098.3423707893337, 0.0]
['beep', 0.0, -800.6171346446437, 0.0, 0.0, 0.0, 0.0, -1097.0683213553812, 0.0]
['beep', 0.0, -800.8630038336521, 0.0, 0.0, 0.0, 0.0, -1096.2636585549901, 0.0]
['beep', 0.0, -801.3547422116688, 0.0, 0.0, 0.0, 0.0, -1096.6436382107304, 0.0]
['beep', 0.0, -799.544250910789, 0.0, 0.0, 0.0, 0.0, -1097.8059289224063, 0.0]
['beep', 0.0, -799.7901200997973, 0.0, 0.0, 0.0, 0.0, -1095.950734132616, 0.0]
['beep', 0.0, -798.091387521194, 0.0, 0.0, 0.0, 0.0, -1096.59893472182, 0.0]
['beep', 0.0, -799.2760299773253, 0.0, 0.0, 0.0, 0.0, -1096.6436382107304, 0.0]
['beep', 0.0, -799.2760299773253, 0.0, 0.0, 0.0, 0.0, -1096.174251577169, 0.0]
['beep', 0.0, -798.9854572994062, 0.0, 0.0, 0.0, 0.0, -1097.2918387999343, 0.0]
['beep', 0.0, -797.9349253100069, 0.0, 0.0, 0.0, 0.0, -1097.3812457777556, 0.0]
['beep', 0.0, -797.8455183321856, 0.0, 0.0, 0.0, 0.0, -1097.4483010111214, 0.0]
['beep', 0.0, -796.929096809518, 0.0, 0.0, 0.0, 0.0, -1097.7388736890405, 0.0]
['beep', 0.0, -796.2585444758588, 0.0, 0.0, 0.0, 0.0, -1098.3200190448783, 0.0]
['beep', 0.0, -797.1079107651605, 0.0, 0.0, 0.0, 0.0, -1097.4483010111214, 0.0]
['beep', 0.0, -797.2643729763477, 0.0, 0.0, 0.0, 0.0, -1097.6047632223085, 0.0]
['beep', 0.0, -796.5938206426885, 0.0, 0.0, 0.0, 0.0, -1098.2976673004232, 0.0]
['beep', 0.0, -796.1691374980376, 0.0, 0.0, 0.0, 0.0, -1099.0352748674484, 0.0]
['beep', 0.0, -796.2138409869482, 0.0, 0.0, 0.0, 0.0, -1098.6776469561635, 0.0]
['beep', 0.0, -795.9679717979398, 0.0, 0.0, 0.0, 0.0, -1098.9682196340823, 0.0]
['beep', 0.0, -796.5267654093225, 0.0, 0.0, 0.0, 0.0, -1098.4988330005208, 0.0]
['beep', 0.0, -797.1749659985264, 0.0, 0.0, 0.0, 0.0, -1098.9682196340823, 0.0]
['beep', 0.0, -796.9514485539734, 0.0, 0.0, 0.0, 0.0, -1098.6776469561635, 0.0]
['beep', 0.0, -798.1807944990152, 0.0, 0.0, 0.0, 0.0, -1100.0858068568477, 0.0]
['beep', 0.0, -798.7172363659425, 0.0, 0.0, 0.0, 0.0, -1099.0576266119035, 0.0]
['beep', 0.0, -797.5549456542666, 0.0, 0.0, 0.0, 0.0, -1099.012923122993, 0.0]
['beep', 0.0, -797.5996491431772, 0.0, 0.0, 0.0, 0.0, -1100.689303957141, 0.0]
['beep', 0.0, -799.4995474218783, 0.0, 0.0, 0.0, 0.0, -1100.1528620902136, 0.0]
['beep', 0.0, -798.896050321585, 0.0, 0.0, 0.0, 0.0, -1100.1528620902136, 0.0]
['beep', 0.0, -797.8678700766409, 0.0, 0.0, 0.0, 0.0, -1099.5493649899204, 0.0]
['beep', 0.0, -799.5666026552442, 0.0, 0.0, 0.0, 0.0, -1099.16938533418, 0.0]
['beep', 0.0, -798.6725328770319, 0.0, 0.0, 0.0, 0.0, -1100.2646208124902, 0.0]
['beep', 0.0, -799.4548439329677, 0.0, 0.0, 0.0, 0.0, -1099.7505306900182, 0.0]
['beep', 0.0, -800.2148032444481, 0.0, 0.0, 0.0, 0.0, -1099.0799783563589, 0.0]
['beep', 0.0, -798.2254979879258, 0.0, 0.0, 0.0, 0.0, -1099.5493649899204, 0.0]
['beep', 0.0, -799.0525125327722, 0.0, 0.0, 0.0, 0.0, -1100.622248723775, 0.0]
['beep', 0.0, -797.0855590207052, 0.0, 0.0, 0.0, 0.0, -1099.7952341789287, 0.0]
['beep', 0.0, -794.8056810862638, 0.0, 0.0, 0.0, 0.0, -1099.9516963901158, 0.0]
['beep', 0.0, -794.895088064085, 0.0, 0.0, 0.0, 0.0, -1099.16938533418, 0.0]
['beep', 0.0, -794.1351287526046, 0.0, 0.0, 0.0, 0.0, -1097.6494667112192, 0.0]
['beep', 0.0, -793.8669078191409, 0.0, 0.0, 0.0, 0.0, -1099.303495800912, 0.0]
['beep', 0.0, -794.5821636417107, 0.0, 0.0, 0.0, 0.0, -1098.1635568336912, 0.0]
['beep', 0.0, -796.0350270313057, 0.0, 0.0, 0.0, 0.0, -1098.0070946225042, 0.0]
['beep', 0.0, -797.4878904209007, 0.0, 0.0, 0.0, 0.0, -1098.1188533447807, 0.0]
['beep', 0.0, -799.1642712550487, 0.0, 0.0, 0.0, 0.0, -1097.8282806668617, 0.0]
['beep', 0.0, -800.2148032444481, 0.0, 0.0, 0.0, 0.0, -1098.4541295116103, 0.0]
['beep', 0.0, -799.700713121976, 0.0, 0.0, 0.0, 0.0, -1099.3481992898226, 0.0]
['beep', 0.0, -800.3265619667247, 0.0, 0.0, 0.0, 0.0, -1099.2140888230908, 0.0]
['beep', 0.0, -800.34891371118, 0.0, 0.0, 0.0, 0.0, -1100.0187516234819, 0.0]
['beep', 0.0, -798.8066433437638, 0.0, 0.0, 0.0, 0.0, -1099.303495800912, 0.0]
['beep', 0.0, -798.2254979879258, 0.0, 0.0, 0.0, 0.0, -1099.2587923120013, 0.0]
['beep', 0.0, -798.896050321585, 0.0, 0.0, 0.0, 0.0, -1098.2976673004232, 0.0]
['beep', 0.0, -798.381960199113, 0.0, 0.0, 0.0, 0.0, -1099.2587923120013, 0.0]
['beep', 0.0, -797.8678700766409, 0.0, 0.0, 0.0, 0.0, -1099.303495800912, 0.0]
['beep', 0.0, -797.9572770544621, 0.0, 0.0, 0.0, 0.0, -1098.230612067057, 0.0]
['beep', 0.0, -797.3090764652583, 0.0, 0.0, 0.0, 0.0, -1098.7447021895293, 0.0]
['beep', 0.0, -796.2138409869482, 0.0, 0.0, 0.0, 0.0, -1097.8282806668617, 0.0]
['beep', 0.0, -796.3703031981354, 0.0, 0.0, 0.0, 0.0, -1101.9633533910935, 0.0]
['beep', 0.0, -797.4431869319901, 0.0, 0.0, 0.0, 0.0, -1100.9351731461493, 0.0]
['beep', 0.0, -799.186622999504, 0.0, 0.0, 0.0, 0.0, -1099.4599580120992, 0.0]
['beep', 0.0, -798.2254979879258, 0.0, 0.0, 0.0, 0.0, -1101.1810423351578, 0.0]
['beep', 0.0, -797.4878904209007, 0.0, 0.0, 0.0, 0.0, -1100.7116557015963, 0.0]
['beep', 0.0, -797.510242165356, 0.0, 0.0, 0.0, 0.0, -1100.6446004682305, 0.0]
['beep', 0.0, -798.381960199113, 0.0, 0.0, 0.0, 0.0, -1101.3822080352554, 0.0]
['beep', 0.0, -798.1807944990152, 0.0, 0.0, 0.0, 0.0, -1101.0692836128812, 0.0]
['beep', 0.0, -795.9679717979398, 0.0, 0.0, 0.0, 0.0, -1102.4550917691101, 0.0]
['beep', 0.0, -796.7055793649649, 0.0, 0.0, 0.0, 0.0, -1103.1479958472248, 0.0]
['beep', 0.0, -797.4655386764454, 0.0, 0.0, 0.0, 0.0, -1102.946830147127, 0.0]
['beep', 0.0, -798.1137392656493, 0.0, 0.0, 0.0, 0.0, -1103.304458058412, 0.0]
['beep', 0.0, -798.091387521194, 0.0, 0.0, 0.0, 0.0, -1102.7456644470292, 0.0]
['beep', 0.0, -797.0855590207052, 0.0, 0.0, 0.0, 0.0, -1103.080940613859, 0.0]
['beep', 0.0, -796.3703031981354, 0.0, 0.0, 0.0, 0.0, -1103.4385685251439, 0.0]
['beep', 0.0, -795.476233419923, 0.0, 0.0, 0.0, 0.0, -1102.298629557923, 0.0]
['beep', 0.0, -795.5879921421996, 0.0, 0.0, 0.0, 0.0, -1103.6173824807863, 0.0]
['beep', 0.0, -795.766806097842, 0.0, 0.0, 0.0, 0.0, -1103.1703475916802, 0.0]
['beep', 0.0, -795.9009165645739, 0.0, 0.0, 0.0, 0.0, -1103.1926993361353, 0.0]
['beep', 0.0, -796.0126752868504, 0.0, 0.0, 0.0, 0.0, -1102.4103882801996, 0.0]
['beep', 0.0, -795.2303642309147, 0.0, 0.0, 0.0, 0.0, -1101.8292429243616, 0.0]
['beep', 0.0, -794.9844950419063, 0.0, 0.0, 0.0, 0.0, -1101.7174842020852, 0.0]
['beep', 0.0, -794.6268671306213, 0.0, 0.0, 0.0, 0.0, -1101.628077224264, 0.0]
['beep', 0.0, -793.9339630525069, 0.0, 0.0, 0.0, 0.0, -1102.4997952580209, 0.0]
['beep', 0.0, -795.1856607420041, 0.0, 0.0, 0.0, 0.0, -1101.851594668817, 0.0]
['beep', 0.0, -794.671570619532, 0.0, 0.0, 0.0, 0.0, -1101.6951324576298, 0.0]
['beep', 0.0, -794.5151084083449, 0.0, 0.0, 0.0, 0.0, -1102.8127196803953, 0.0]
['beep', 0.0, -794.5151084083449, 0.0, 0.0, 0.0, 0.0, -1102.5221470024762, 0.0]
['beep', 0.0, -794.6492188750767, 0.0, 0.0, 0.0, 0.0, -1101.5833737353532, 0.0]
['beep', 0.0, -794.0233700303281, 0.0, 0.0, 0.0, 0.0, -1102.3880365357443, 0.0]
['beep', 0.0, -794.5151084083449, 0.0, 0.0, 0.0, 0.0, -1104.243231325535, 0.0]
['beep', 0.0, -794.6268671306213, 0.0, 0.0, 0.0, 0.0, -1102.9915336360377, 0.0]
['beep', 0.0, -794.4033496860683, 0.0, 0.0, 0.0, 0.0, -1103.6397342252415, 0.0]
['beep', 0.0, -794.4033496860683, 0.0, 0.0, 0.0, 0.0, -1102.9244784026716, 0.0]
['beep', 0.0, -793.576335141222, 0.0, 0.0, 0.0, 0.0, -1102.79036793594, 0.0]
['beep', 0.0, -792.9057828075628, 0.0, 0.0, 0.0, 0.0, -1102.9021266582165, 0.0]
['beep', 0.0, -793.1516519965711, 0.0, 0.0, 0.0, 0.0, -1102.0527603689147, 0.0]
['beep', 0.0, -793.2410589743923, 0.0, 0.0, 0.0, 0.0, -1102.8574231693058, 0.0]
['beep', 0.0, -793.6433903745879, 0.0, 0.0, 0.0, 0.0, -1103.8408999253393, 0.0]
['beep', 0.0, -792.1458234960824, 0.0, 0.0, 0.0, 0.0, -1103.7067894586075, 0.0]
['beep', 0.0, -791.2741054623253, 0.0, 0.0, 0.0, 0.0, -1102.07511211337, 0.0]
['beep', 0.0, -792.0117130293504, 0.0, 0.0, 0.0, 0.0, -1101.9857051355489, 0.0]
['beep', 0.0, -793.7775008413197, 0.0, 0.0, 0.0, 0.0, -1102.8574231693058, 0.0]
['beep', 0.0, -793.4645764189454, 0.0, 0.0, 0.0, 0.0, -1103.304458058412, 0.0]
['beep', 0.0, -792.4810996629119, 0.0, 0.0, 0.0, 0.0, -1102.5221470024762, 0.0]
['beep', 0.0, -794.4257014305236, 0.0, 0.0, 0.0, 0.0, -1101.4269115241661, 0.0]
['beep', 0.0, -794.2468874748812, 0.0, 0.0, 0.0, 0.0, -1100.6446004682305, 0.0]
['beep', 0.0, -793.6880938634985, 0.0, 0.0, 0.0, 0.0, -1101.9633533910935, 0.0]
['beep', 0.0, -793.5539833967666, 0.0, 0.0, 0.0, 0.0, -1102.2315743245572, 0.0]
['beep', 0.0, -793.576335141222, 0.0, 0.0, 0.0, 0.0, -1103.3938650362331, 0.0]
['beep', 0.0, -794.6492188750767, 0.0, 0.0, 0.0, 0.0, -1102.9915336360377, 0.0]
['beep', 0.0, -793.6657421190432, 0.0, 0.0, 0.0, 0.0, -1103.5503272474202, 0.0]
['beep', 0.0, -793.9786665414175, 0.0, 0.0, 0.0, 0.0, -1102.8574231693058, 0.0]
['beep', 0.0, -794.2468874748812, 0.0, 0.0, 0.0, 0.0, -1102.0527603689147, 0.0]
['beep', 0.0, -795.2080124864593, 0.0, 0.0, 0.0, 0.0, -1103.304458058412, 0.0]
['beep', 0.0, -794.1798322415152, 0.0, 0.0, 0.0, 0.0, -1105.047894125926, 0.0]
['beep', 0.0, -794.895088064085, 0.0, 0.0, 0.0, 0.0, -1104.1538243477137, 0.0]
['beep', 0.0, -796.0350270313057, 0.0, 0.0, 0.0, 0.0, -1102.432740024655, 0.0]
['beep', 0.0, -795.0068467863616, 0.0, 0.0, 0.0, 0.0, -1102.589202235842, 0.0]
['beep', 0.0, -794.3586461971577, 0.0, 0.0, 0.0, 0.0, -1103.9750103920712, 0.0]
['beep', 0.0, -793.3528176966689, 0.0, 0.0, 0.0, 0.0, -1104.1761760921688, 0.0]
['beep', 0.0, -793.3975211855795, 0.0, 0.0, 0.0, 0.0, -1105.204356337113, 0.0]
['beep', 0.0, -794.2468874748812, 0.0, 0.0, 0.0, 0.0, -1104.7126179590962, 0.0]
['beep', 0.0, -793.3081142077583, 0.0, 0.0, 0.0, 0.0, -1104.556155747909, 0.0]
['beep', 0.0, -794.0010182858728, 0.0, 0.0, 0.0, 0.0, -1103.1479958472248, 0.0]
['beep', 0.0, -794.8056810862638, 0.0, 0.0, 0.0, 0.0, -1102.4103882801996, 0.0]
['beep', 0.0, -794.5821636417107, 0.0, 0.0, 0.0, 0.0, -1102.4103882801996, 0.0]
['beep', 0.0, -795.3868264421018, 0.0, 0.0, 0.0, 0.0, -1103.5726789918756, 0.0]
['beep', 0.0, -795.1186055086381, 0.0, 0.0, 0.0, 0.0, -1102.6339057247528, 0.0]
['beep', 0.0, -795.476233419923, 0.0, 0.0, 0.0, 0.0, -1102.589202235842, 0.0]
['beep', 0.0, -795.7444543533867, 0.0, 0.0, 0.0, 0.0, -1103.2597545695014, 0.0]
['beep', 0.0, -795.2750677198253, 0.0, 0.0, 0.0, 0.0, -1102.6786092136633, 0.0]
['beep', 0.0, -793.8222043302303, 0.0, 0.0, 0.0, 0.0, -1103.5503272474202, 0.0]
['beep', 0.0, -793.799852585775, 0.0, 0.0, 0.0, 0.0, -1103.3938650362331, 0.0]
['beep', 0.0, -794.5151084083449, 0.0, 0.0, 0.0, 0.0, -1102.7009609581187, 0.0]
['beep', 0.0, -794.15748049706, 0.0, 0.0, 0.0, 0.0, -1103.080940613859, 0.0]
['beep', 0.0, -793.4869281634008, 0.0, 0.0, 0.0, 0.0, -1101.9857051355489, 0.0]
['beep', 0.0, -792.2575822183588, 0.0, 0.0, 0.0, 0.0, -1102.9915336360377, 0.0]
['beep', 0.0, -793.7104456079538, 0.0, 0.0, 0.0, 0.0, -1103.4162167806885, 0.0]
['beep', 0.0, -793.7551490968644, 0.0, 0.0, 0.0, 0.0, -1104.1761760921688, 0.0]
['beep', 0.0, -793.6210386301326, 0.0, 0.0, 0.0, 0.0, -1104.1538243477137, 0.0]
['beep', 0.0, -794.7386258528979, 0.0, 0.0, 0.0, 0.0, -1103.9750103920712, 0.0]
['beep', 0.0, -793.3975211855795, 0.0, 0.0, 0.0, 0.0, -1103.4162167806885, 0.0]
['beep', 0.0, -793.7327973524091, 0.0, 0.0, 0.0, 0.0, -1102.365684791289, 0.0]
['beep', 0.0, -793.3975211855795, 0.0, 0.0, 0.0, 0.0, -1104.4220452811774, 0.0]
['beep', 0.0, -795.0739020197275, 0.0, 0.0, 0.0, 0.0, -1106.657219726708, 0.0]
['beep', 0.0, -795.766806097842, 0.0, 0.0, 0.0, 0.0, -1103.88560341425, 0.0]
['beep', 0.0, -791.2741054623253, 0.0, 0.0, 0.0, 0.0, -1101.7174842020852, 0.0]
['beep', 0.0, -791.5870298846996, 0.0, 0.0, 0.0, 0.0, -1103.6620859696968, 0.0]
['beep', 0.0, -793.1293002521159, 0.0, 0.0, 0.0, 0.0, -1106.232536582057, 0.0]
['beep', 0.0, -794.5374601528001, 0.0, 0.0, 0.0, 0.0, -1104.9808388925599, 0.0]
['beep', 0.0, -795.0739020197275, 0.0, 0.0, 0.0, 0.0, -1105.3608185483001, 0.0]
['beep', 0.0, -794.6268671306213, 0.0, 0.0, 0.0, 0.0, -1105.8749086707721, 0.0]
['beep', 0.0, -795.0739020197275, 0.0, 0.0, 0.0, 0.0, -1105.4055220372109, 0.0]
['beep', 0.0, -793.8669078191409, 0.0, 0.0, 0.0, 0.0, -1106.3219435598783, 0.0]
['beep', 0.0, -793.5539833967666, 0.0, 0.0, 0.0, 0.0, -1105.8749086707721, 0.0]
['beep', 0.0, -793.576335141222, 0.0, 0.0, 0.0, 0.0, -1105.2267080815684, 0.0]
['beep', 0.0, -793.5539833967666, 0.0, 0.0, 0.0, 0.0, -1103.7067894586075, 0.0]
['beep', 0.0, -792.7269688519203, 0.0, 0.0, 0.0, 0.0, -1103.5726789918756, 0.0]
['beep', 0.0, -794.4704049194343, 0.0, 0.0, 0.0, 0.0, -1104.6008592368198, 0.0]
['beep', 0.0, -792.995189785384, 0.0, 0.0, 0.0, 0.0, -1104.1761760921688, 0.0]
['beep', 0.0, -793.3751694411242, 0.0, 0.0, 0.0, 0.0, -1102.7009609581187, 0.0]
['beep', 0.0, -793.8445560746857, 0.0, 0.0, 0.0, 0.0, -1104.4220452811774, 0.0]
['beep', 0.0, -793.6433903745879, 0.0, 0.0, 0.0, 0.0, -1104.3773417922666, 0.0]
['beep', 0.0, -794.1351287526046, 0.0, 0.0, 0.0, 0.0, -1104.3326383033561, 0.0]
['beep', 0.0, -792.8834310631074, 0.0, 0.0, 0.0, 0.0, -1105.427873781666, 0.0]
['beep', 0.0, -792.7940240852862, 0.0, 0.0, 0.0, 0.0, -1105.3384668038448, 0.0]
['beep', 0.0, -791.9670095404398, 0.0, 0.0, 0.0, 0.0, -1105.8972604152275, 0.0]
['beep', 0.0, -792.6599136185544, 0.0, 0.0, 0.0, 0.0, -1104.0867691143476, 0.0]
['beep', 0.0, -793.285762463303, 0.0, 0.0, 0.0, 0.0, -1103.3938650362331, 0.0]
['beep', 0.0, -792.9504862964734, 0.0, 0.0, 0.0, 0.0, -1105.561984248398, 0.0]
['beep', 0.0, -791.7211403514315, 0.0, 0.0, 0.0, 0.0, -1106.2772400709678, 0.0]
['beep', 0.0, -793.4422246744901, 0.0, 0.0, 0.0, 0.0, -1106.2772400709678, 0.0]
['beep', 0.0, -794.3586461971577, 0.0, 0.0, 0.0, 0.0, -1105.4502255261214, 0.0]
['beep', 0.0, -794.5151084083449, 0.0, 0.0, 0.0, 0.0, -1105.4502255261214, 0.0]
['beep', 0.0, -792.7940240852862, 0.0, 0.0, 0.0, 0.0, -1105.4502255261214, 0.0]
['beep', 0.0, -793.4198729300348, 0.0, 0.0, 0.0, 0.0, -1105.6290394817638, 0.0]
['beep', 0.0, -792.7940240852862, 0.0, 0.0, 0.0, 0.0, -1106.6125162377973, 0.0]
['beep', 0.0, -791.8999543070739, 0.0, 0.0, 0.0, 0.0, -1107.5065860160096, 0.0]
['beep', 0.0, -791.5199746513337, 0.0, 0.0, 0.0, 0.0, -1106.947792404627, 0.0]
['beep', 0.0, -793.0845967632052, 0.0, 0.0, 0.0, 0.0, -1105.6066877373084, 0.0]
['beep', 0.0, -794.090425263694, 0.0, 0.0, 0.0, 0.0, -1107.1266063602695, 0.0]
['beep', 0.0, -794.7609775973532, 0.0, 0.0, 0.0, 0.0, -1106.7689784489846, 0.0]
['beep', 0.0, -794.8056810862638, 0.0, 0.0, 0.0, 0.0, -1107.1266063602695, 0.0]
['beep', 0.0, -794.2915909637918, 0.0, 0.0, 0.0, 0.0, -1107.3948272937332, 0.0]
['beep', 0.0, -793.5539833967666, 0.0, 0.0, 0.0, 0.0, -1106.8583854268059, 0.0]
['beep', 0.0, -795.0291985308169, 0.0, 0.0, 0.0, 0.0, -1105.8972604152275, 0.0]
['beep', 0.0, -794.4927566638895, 0.0, 0.0, 0.0, 0.0, -1107.819510438384, 0.0]
['beep', 0.0, -794.1351287526046, 0.0, 0.0, 0.0, 0.0, -1107.0371993824483, 0.0]
['beep', 0.0, -792.6375618740991, 0.0, 0.0, 0.0, 0.0, -1106.6795714711634, 0.0]
['beep', 0.0, -792.5258031518225, 0.0, 0.0, 0.0, 0.0, -1106.6125162377973, 0.0]
['beep', 0.0, -791.6987886069761, 0.0, 0.0, 0.0, 0.0, -1105.852556926317, 0.0]
['beep', 0.0, -792.9057828075628, 0.0, 0.0, 0.0, 0.0, -1106.657219726708, 0.0]
['beep', 0.0, -792.3246374517248, 0.0, 0.0, 0.0, 0.0, -1106.210184837602, 0.0]
['beep', 0.0, -792.5705066407331, 0.0, 0.0, 0.0, 0.0, -1106.3442953043336, 0.0]
['beep', 0.0, -792.1011200071716, 0.0, 0.0, 0.0, 0.0, -1107.3501238048225, 0.0]
['beep', 0.0, -794.0233700303281, 0.0, 0.0, 0.0, 0.0, -1107.3948272937332, 0.0]
['beep', 0.0, -792.771672340831, 0.0, 0.0, 0.0, 0.0, -1107.4842342715544, 0.0]
['beep', 0.0, -792.6599136185544, 0.0, 0.0, 0.0, 0.0, -1107.17130984918, 0.0]
['beep', 0.0, -793.3751694411242, 0.0, 0.0, 0.0, 0.0, -1107.2160133380908, 0.0]
['beep', 0.0, -792.9057828075628, 0.0, 0.0, 0.0, 0.0, -1108.5124145164984, 0.0]
['beep', 0.0, -792.6375618740991, 0.0, 0.0, 0.0, 0.0, -1106.3219435598783, 0.0]
['beep', 0.0, -791.5646781402443, 0.0, 0.0, 0.0, 0.0, -1105.8749086707721, 0.0]
['beep', 0.0, -793.285762463303, 0.0, 0.0, 0.0, 0.0, -1106.210184837602, 0.0]
['beep', 0.0, -793.3975211855795, 0.0, 0.0, 0.0, 0.0, -1106.6125162377973, 0.0]
['beep', 0.0, -792.3022857072694, 0.0, 0.0, 0.0, 0.0, -1108.3559523053113, 0.0]
['beep', 0.0, -791.8999543070739, 0.0, 0.0, 0.0, 0.0, -1108.9370976611492, 0.0]
['beep', 0.0, -793.5316316523114, 0.0, 0.0, 0.0, 0.0, -1108.0653796273923, 0.0]
['beep', 0.0, -793.2410589743923, 0.0, 0.0, 0.0, 0.0, -1107.3501238048225, 0.0]
['beep', 0.0, -794.2468874748812, 0.0, 0.0, 0.0, 0.0, -1107.3501238048225, 0.0]
['beep', 0.0, -794.2021839859706, 0.0, 0.0, 0.0, 0.0, -1109.3394290613448, 0.0]
['beep', 0.0, -791.832899073708, 0.0, 0.0, 0.0, 0.0, -1107.0819028713588, 0.0]
['beep', 0.0, -787.7425298383868, 0.0, 0.0, 0.0, 0.0, -1106.8360336823505, 0.0]
['beep', 0.0, -787.2060879714594, 0.0, 0.0, 0.0, 0.0, -1109.6970569726298, 0.0]
['beep', 0.0, -788.122509494127, 0.0, 0.0, 0.0, 0.0, -1108.8029871944175, 0.0]
['beep', 0.0, -789.9777042839175, 0.0, 0.0, 0.0, 0.0, -1111.1499203622247, 0.0]
['beep', 0.0, -791.5199746513337, 0.0, 0.0, 0.0, 0.0, -1111.88752792925, 0.0]
['beep', 0.0, -791.6317333736102, 0.0, 0.0, 0.0, 0.0, -1112.3792663072666, 0.0]
['beep', 0.0, -793.4422246744901, 0.0, 0.0, 0.0, 0.0, -1111.462844784599, 0.0]
['beep', 0.0, -793.1293002521159, 0.0, 0.0, 0.0, 0.0, -1110.5687750063867, 0.0]
['beep', 0.0, -794.0233700303281, 0.0, 0.0, 0.0, 0.0, -1109.2500220835236, 0.0]
['beep', 0.0, -791.1176432511381, 0.0, 0.0, 0.0, 0.0, -1109.272373827979, 0.0]
['beep', 0.0, -791.3411606956912, 0.0, 0.0, 0.0, 0.0, -1108.8700424277833, 0.0]
['beep', 0.0, -791.2294019734147, 0.0, 0.0, 0.0, 0.0, -1109.2276703390683, 0.0]
['beep', 0.0, -788.1448612385823, 0.0, 0.0, 0.0, 0.0, -1111.0828651288589, 0.0]
['beep', 0.0, -788.9495240389734, 0.0, 0.0, 0.0, 0.0, -1111.9322314181604, 0.0]
['beep', 0.0, -790.3800356841131, 0.0, 0.0, 0.0, 0.0, -1111.7087139736075, 0.0]
['beep', 0.0, -789.1730414835265, 0.0, 0.0, 0.0, 0.0, -1107.9536209051157, 0.0]
['beep', 0.0, -785.9990937708728, 0.0, 0.0, 0.0, 0.0, -1108.490062772043, 0.0]
['beep', 0.0, -786.2449629598813, 0.0, 0.0, 0.0, 0.0, -1108.333600560856, 0.0]
['beep', 0.0, -789.5530211392667, 0.0, 0.0, 0.0, 0.0, -1107.2830685714566, 0.0]
['beep', 0.0, -790.3353321952025, 0.0, 0.0, 0.0, 0.0, -1108.1324348607582, 0.0]
['beep', 0.0, -792.190526984993, 0.0, 0.0, 0.0, 0.0, -1108.333600560856, 0.0]
['beep', 0.0, -791.3411606956912, 0.0, 0.0, 0.0, 0.0, -1107.7524552050181, 0.0]
['beep', 0.0, -790.6259048731214, 0.0, 0.0, 0.0, 0.0, -1107.9536209051157, 0.0]
['beep', 0.0, -790.1788699840153, 0.0, 0.0, 0.0, 0.0, -1107.3501238048225, 0.0]
['beep', 0.0, -789.1283379946159, 0.0, 0.0, 0.0, 0.0, -1109.2947255724341, 0.0]
['beep', 0.0, -790.0671112617388, 0.0, 0.0, 0.0, 0.0, -1109.205318594613, 0.0]
['beep', 0.0, -790.6929601064874, 0.0, 0.0, 0.0, 0.0, -1107.1489581047247, 0.0]
['beep', 0.0, -790.1118147506494, 0.0, 0.0, 0.0, 0.0, -1109.4511877836214, 0.0]
['beep', 0.0, -789.7318350949091, 0.0, 0.0, 0.0, 0.0, -1109.9876296505488, 0.0]
['beep', 0.0, -789.1730414835265, 0.0, 0.0, 0.0, 0.0, -1109.8982226727276, 0.0]
['beep', 0.0, -790.0671112617388, 0.0, 0.0, 0.0, 0.0, -1110.1217401172805, 0.0]
['beep', 0.0, -789.8212420727303, 0.0, 0.0, 0.0, 0.0, -1109.786463950451, 0.0]
['beep', 0.0, -789.4412624169902, 0.0, 0.0, 0.0, 0.0, -1111.239327340046, 0.0]
['beep', 0.0, -788.7260065944204, 0.0, 0.0, 0.0, 0.0, -1109.8088156949063, 0.0]
['beep', 0.0, -789.4412624169902, 0.0, 0.0, 0.0, 0.0, -1108.177138349669, 0.0]
['beep', 0.0, -790.2459252173812, 0.0, 0.0, 0.0, 0.0, -1109.9205744171827, 0.0]
['beep', 0.0, -789.3965589280796, 0.0, 0.0, 0.0, 0.0, -1108.490062772043, 0.0]
['beep', 0.0, -789.9553525394622, 0.0, 0.0, 0.0, 0.0, -1108.8923941722387, 0.0]
['beep', 0.0, -790.2235734729259, 0.0, 0.0, 0.0, 0.0, -1110.0546848839147, 0.0]
['beep', 0.0, -790.0447595172834, 0.0, 0.0, 0.0, 0.0, -1110.1664436061913, 0.0]
['beep', 0.0, -790.6035531286661, 0.0, 0.0, 0.0, 0.0, -1108.624173238775, 0.0]
['beep', 0.0, -791.0282362733169, 0.0, 0.0, 0.0, 0.0, -1107.8642139272945, 0.0]
['beep', 0.0, -791.4305676735124, 0.0, 0.0, 0.0, 0.0, -1108.2218418385794, 0.0]
['beep', 0.0, -791.4529194179678, 0.0, 0.0, 0.0, 0.0, -1107.8865656717498, 0.0]
['beep', 0.0, -787.6307711161103, 0.0, 0.0, 0.0, 0.0, -1108.5571180054092, 0.0]
['beep', 0.0, -788.5918961276885, 0.0, 0.0, 0.0, 0.0, -1107.461882527099, 0.0]
['beep', 0.0, -789.2177449724371, 0.0, 0.0, 0.0, 0.0, -1107.1042546158142, 0.0]
['beep', 0.0, -788.770710083331, 0.0, 0.0, 0.0, 0.0, -1107.7301034605628, 0.0]
['beep', 0.0, -788.2566199608589, 0.0, 0.0, 0.0, 0.0, -1108.8029871944175, 0.0]
['beep', 0.0, -786.7590530823533, 0.0, 0.0, 0.0, 0.0, -1110.300554072923, 0.0]
['beep', 0.0, -786.669646104532, 0.0, 0.0, 0.0, 0.0, -1109.2947255724341, 0.0]
['beep', 0.0, -787.9660472829398, 0.0, 0.0, 0.0, 0.0, -1107.9089174162052, 0.0]
['beep', 0.0, -785.7532245818645, 0.0, 0.0, 0.0, 0.0, -1108.9594494056046, 0.0]
['beep', 0.0, -787.831936816208, 0.0, 0.0, 0.0, 0.0, -1106.3219435598783, 0.0]
['beep', 0.0, -784.8144513147416, 0.0, 0.0, 0.0, 0.0, -1105.494929015032, 0.0]
['beep', 0.0, -783.4062914140573, 0.0, 0.0, 0.0, 0.0, -1107.238365082546, 0.0]
['beep', 0.0, -788.994227527884, 0.0, 0.0, 0.0, 0.0, -1108.8700424277833, 0.0]
['beep', 0.0, -789.351855439169, 0.0, 0.0, 0.0, 0.0, -1110.144091861736, 0.0]
['beep', 0.0, -787.6978263494761, 0.0, 0.0, 0.0, 0.0, -1108.8923941722387, 0.0]
['beep', 0.0, -785.1273757371159, 0.0, 0.0, 0.0, 0.0, -1112.3792663072666, 0.0]
['beep', 0.0, -786.3120181932471, 0.0, 0.0, 0.0, 0.0, -1111.4851965290543, 0.0]
['beep', 0.0, -787.9436955384846, 0.0, 0.0, 0.0, 0.0, -1103.818548180884, 0.0]
['beep', 0.0, -786.3790734266131, 0.0, 0.0, 0.0, 0.0, -1106.2772400709678, 0.0]
['beep', 0.0, -786.7143495934426, 0.0, 0.0, 0.0, 0.0, -1109.786463950451, 0.0]
['beep', 0.0, -787.4519571604678, 0.0, 0.0, 0.0, 0.0, -1107.7301034605628, 0.0]
['beep', 0.0, -787.8766403051186, 0.0, 0.0, 0.0, 0.0, -1107.7971586939286, 0.0]
['beep', 0.0, -787.4743089049231, 0.0, 0.0, 0.0, 0.0, -1110.0323331394593, 0.0]
['beep', 0.0, -786.9378670379957, 0.0, 0.0, 0.0, 0.0, -1111.9322314181604, 0.0]
['beep', 0.0, -789.4412624169902, 0.0, 0.0, 0.0, 0.0, -1110.7922924509398, 0.0]
['beep', 0.0, -785.4850036484008, 0.0, 0.0, 0.0, 0.0, -1110.3899610507442, 0.0]
['beep', 0.0, -784.9038582925629, 0.0, 0.0, 0.0, 0.0, -1108.5571180054092, 0.0]
['beep', 0.0, -784.188602469993, 0.0, 0.0, 0.0, 0.0, -1109.9652779060934, 0.0]
['beep', 0.0, -783.6298088586103, 0.0, 0.0, 0.0, 0.0, -1110.9040511732164, 0.0]
['beep', 0.0, -785.3732449261242, 0.0, 0.0, 0.0, 0.0, -1106.7689784489846, 0.0]
