[[-155.59049315339246, -156.0822315314092, -155.47873443111592, -154.58466465290365, -154.1376297637975, -155.47873443111592, -155.63519664230307, -154.7634786085461, -153.78000185251258, -153.98116755261034, -153.42237394122768, -153.78000185251258, -154.7187751196355, -154.31644371943997, -153.5341326635042, -154.11527801934218, -154.24938848607405, -154.47290593062712, -153.95881580815504, -152.8412285853897, -152.97533905212154, -153.71294661914666, -152.8859320743003, -152.37184195182826, -151.81304834044556, -154.27174023052936, -154.65171988626957, -155.14345826428632, -152.97533905212154, -152.43889718519418, -153.26591173004053, -152.2377314850964, -152.59535939638133, -153.60118789687013, -153.8023535969679, -153.37767045231706, -153.8023535969679, -155.00934779755448, -154.04822278597626, -153.64589138578074, -155.21051349765224, -155.0540512864651, -154.09292627488688, -154.04822278597626, -154.7634786085461, -155.59049315339246, -156.0375280424986, -155.12110651983102, -153.98116755261034, -154.1599815082528, -154.7634786085461, -155.3893274532947, -156.19399025368574, -153.26591173004053, -153.35531870786176, -154.29409197498467, -155.45638268666062, -153.93646406369973, -153.1988564966746, -154.24938848607405, -154.7187751196355, -154.80818209745672, -154.98699605309918, -154.78583035300142, -154.29409197498467, -153.71294661914666, -154.11527801934218, -152.97533905212154, -149.84609482837854, -149.0414320279875, -147.94619654967744, -147.05212677146517, -148.61674888333667, -148.99672853907688, -150.6284058843143, -151.52247566252657, -153.75765010805728, -154.7411268640908, -154.94229256418856, -153.93646406369973, -154.02587104152096, -153.42237394122768, -152.5059524185601, -153.10944951885338, -152.77417335202378, -152.14832450727516, -152.12597276281986, -151.88010357381148, -152.30478671846234, -152.2377314850964, -152.75182160756847, -151.9248070627221, -151.65658612925841, -151.67893787371372, -150.53899890649308, -152.14832450727516, -151.2542547290629, -151.2766064735182, -152.21537974064108, -152.10362101836455, -152.57300765192602, -152.90828381875562, -153.26591173004053, -153.4894291745936, -151.9024553182668, -152.34949020737295, -153.71294661914666, -152.19302799618578, -152.75182160756847, -152.8412285853897, -154.09292627488688, -154.22703674161872, -153.55648440795952, -153.5117809190489, -152.95298730766623, -153.4670774301383, -153.75765010805728, -152.68476637420255, -151.41071694025004, -150.9189785622333, -152.21537974064108, -153.35531870786176, -151.47777217361596, -151.07544077342044, -149.44376342818302, -150.13666750629753, -149.62257738382547, -150.11431576184222, -151.34366170688412, -149.93550180619977, -149.30965296145118, -149.93550180619977, -149.89079831728915, -149.17554249471934, -150.22607448411875, -150.85192332886737, -151.45542042916065, -151.03073728450983, -151.6342343848031, -149.62257738382547, -150.13666750629753, -151.18719949569697, -150.87427507332268, -151.05308902896513, -150.0919640173869, -150.78486809550145, -151.36601345133943, -148.81791458343443, -150.78486809550145, -151.20955124015228, -149.84609482837854, -150.44959192867185, -151.03073728450983, -150.5837023954037, -151.5671791514372, -150.0696122729316, -150.31548146194, -151.45542042916065, -152.95298730766623, -152.59535939638133, -151.81304834044556, -152.34949020737295, -152.30478671846234, -150.67310937322492, -150.47194367312716, -150.024908784021, -151.12014426233105, -150.9636820511439, -150.024908784021, -149.91315006174446, -150.9413303066886, -150.42724018421654, -149.6896326171914, -150.0919640173869, -149.51081866154894, -149.3990599392724, -150.33783320639532, -149.6672808727361, -149.57787389491486, -148.23676922759643, -148.88496981680035, -148.77321109452382, -150.9189785622333, -149.30965296145118, -148.30382446096237, -149.6896326171914, -149.33200470590648, -149.48846691709363, -148.88496981680035, -148.7061558611579, -148.10265876086459, -148.21441748314112, -149.82374308392323, -149.734336106102, -148.348527949873, -147.90149306076682, -149.95785355065507, -149.3990599392724, -148.81791458343443, -148.77321109452382, -148.59439713888136, -148.7285076056132, -148.7285076056132, -148.01325178304336, -147.61092038284784, -148.84026632788974, -148.7285076056132, -149.17554249471934, -136.32328943291776, -136.45739989964963, -136.3903446662837, -136.32328943291776, -136.05506849945408, -135.831551054901, -135.4292196547055, -135.7421440770798, -135.92095803272224, -133.61872835382562, -134.98218476559936, -136.03271675499877, -135.0939434878759, -134.69161208768037, -134.53514987649322, -135.85390279935632, -136.50210338856024, -135.94330977717755, -135.69744058816917, -136.83737955538984, -136.1444754772753, -136.3679929218284, -136.41269641073902, -135.51862663252672, -135.69744058816917, -135.51862663252672, -135.94330977717755, -136.1444754772753, -134.11046673184237, -134.06576324293175, -134.13281847629767, -133.574024864915, -134.71396383213568, -134.15517022075298, -133.9316527761999, -134.8033708099569, -135.25040569906304, -135.04923999896528, -135.4292196547055, -135.98801326608816, -135.60803361034795, -135.0939434878759, -134.73631557659098, -134.4233911542167, -135.04923999896528, -135.56333012143733, -134.87042604332282, -135.1386469767865, -135.07159174342058, -133.64108009828092, -132.67995508670273, -132.3446789198731, -132.72465857561335, -133.43991439818316, -134.11046673184237, -134.28928068748482, -133.5963766093703, -132.5458446199709, -132.3446789198731, -133.574024864915, -134.69161208768037, -135.71979233262448, -133.64108009828092, -132.5905481088815, -131.78588530849044, -132.23292019759657, -132.3223271754178, -130.53418761899326, -129.23778644058544, -127.71786781762455, -127.91903351772233, -129.28248992949605, -131.16003646374185, -131.94234751967758, -133.864597542834, -135.1609987212418, -135.02688825450997, -135.69744058816917, -137.82085631142334, -136.45739989964963, -129.17073120721952, -129.1036759738536, -129.86363528533403, -125.19212069417486, -122.28639391498494, -125.08036197189833, -126.35441140585083, -125.72856256110222, -125.639155583281, -127.62846083980332, -127.02496373951004, -127.31553641742903, -127.62846083980332, -124.47686487160503, -123.58279509339275, -125.08036197189833, -126.2650044280296, -125.25917592754078, -125.16976894971955, -124.54392010497095, -123.26987067101845, -123.49338811557152, -122.19698693716371, -122.04052472597657, -121.97346949261065, -121.45937937013858, -122.62167008181454, -123.56044334893744, -124.34275440487319, -123.15811194874192, -124.52156836051564, -123.67220207121397, -123.35927764883968, -123.4263328822056, -122.17463519270841, -122.08522821488718, -123.18046369319723, -122.4652078706274, -120.74412354756875, -119.96181249163301, -120.31944040291792, -122.01817298152126, -121.1911584366749, -121.41467588122796, -122.91224275973354, -121.57113809241511, -120.23003342509669, -120.05121946945424, -120.49825435856037, -121.41467588122796, -121.50408285904919, -120.81117878093467, -120.09592295836485, -119.24655666906318, -119.33596364688441, -119.04539096896542, -118.7101148021358, -119.06774271342073, -119.2912601579738, -118.3748386353062, -119.42537062470564, -119.9394607471777, -117.88310025728944, -118.62070782431458, -119.55948109143748, -120.61001308083691, -120.11827470282016, -120.72177180311344, -120.38649563628384, -121.68289681469165, -121.41467588122796, -120.29708865846261, -121.01234448103244, -119.71594330262462, -119.51477760252686, -119.76064679153524, -121.1911584366749, -121.16880669221959, -121.45937937013858, -120.81117878093467, -121.23586192558551, -121.57113809241511, -122.35344914835086, -122.4652078706274, -122.800484037457, -121.83935902587879, -121.74995204805757, -121.57113809241511, -121.63819332578103, -120.74412354756875, -121.45937937013858, -121.23586192558551, -122.01817298152126, -120.67706831420283, -121.70524855914695, -121.23586192558551, -120.18532993618608, -118.88892875777826, -116.1396641897755, -118.33013514639559, -126.39911489476144, -128.07549572890946, -125.54974860545977, -123.35927764883968, -123.67220207121397, -123.53809160448213, -123.87336777131173, -123.64985032675867, -123.26987067101845, -123.35927764883968, -124.23099568259666, -123.18046369319723, -124.52156836051564, -122.21933868161902, -121.1911584366749, -121.70524855914695, -122.88989101527822, -121.30291715895143, -121.50408285904919, -121.41467588122796, -121.8617107703341, -121.41467588122796, -122.28639391498494, -122.42050438171678, -121.50408285904919, -121.41467588122796, -121.45937937013858, -122.55461484844862, -122.17463519270841, -122.28639391498494, -121.83935902587879, -122.30874565944025, -123.7392573045799, -122.30874565944025, -122.8228357819123, -124.7003823161581, -124.0298299824989, -121.32526890340674, -121.05704796994306, -121.41467588122796, -120.34179214737323, -120.78882703647936, -120.29708865846261, -119.73829504707993, -119.85005376935646, -121.45937937013858, -121.41467588122796, -120.34179214737323, -120.52060610301568, -118.41954212421682, -118.41954212421682, -118.53130084649335, -118.33013514639559, -117.19019617917493, -114.44093161117216, -117.65958281273637, -116.65375431224756, -116.31847814541796, -115.15618743374199, -113.90448974424478, -119.17950143569726, -117.25725141254085, -115.8714432563118, -117.7489897905576, -121.70524855914695, -122.68872531518046, -121.1911584366749, -121.5487863479598, -121.30291715895143, -121.63819332578103, -122.42050438171678, -123.31457415992907, -124.43216138269442, -123.78396079349051, -123.13576020428661, -123.22516718210784, -123.62749858230336, -123.96277474913298, -122.50991135953801, -121.95111774815534, -122.50991135953801, -121.99582123706595, -122.30874565944025, -122.73342880409108, -124.20864393814135, -124.58862359388156, -124.14158870477543, -123.13576020428661, -122.44285612617209, -123.69455381566928, -122.8228357819123, -122.08522821488718, -123.091056715376, -121.5487863479598, -121.28056541449612, -122.24169042607433, -122.06287647043187, -122.1299317037978, -121.70524855914695, -120.94528924766652, -120.40884738073915, -120.31944040291792, -120.18532993618608, -121.28056541449612, -122.4652078706274, -121.74995204805757, -121.16880669221959, -122.30874565944025, -122.24169042607433, -122.4652078706274, -121.83935902587879, -121.39232413677266, -120.54295784747099, -119.89475725826708, -121.8617107703341, -121.39232413677266, -120.61001308083691, -121.90641425924473, -121.41467588122796, -120.5876613363816, -120.9005857587559, -123.82866428240112, -122.68872531518046, -122.06287647043187, -121.95111774815534, -121.8617107703341, -122.21933868161902, -122.17463519270841, -121.97346949261065, -121.2135101811302, -119.06774271342073, -118.30778340194028, -118.48659735758274, -117.83839676837883, -118.17367293520844, -119.04539096896542, -119.73829504707993, -120.52060610301568, -121.97346949261065, -121.05704796994306, -120.40884738073915, -120.40884738073915, -120.11827470282016, -119.15714969124195, -117.16784443471963, -117.45841711263861, -118.15132119075314, -118.50894910203804, -119.00068748005481, -119.47007411361625, -118.66541131322519, -119.15714969124195, -118.86657701332295, -119.02303922451011, -118.44189386867212, -117.79369327946821, -117.95015549065538, -117.36901013481739, -117.3913618792727, -117.90545200174475, -117.50312060154923, -119.55948109143748, -119.69359155816932, -118.46424561312743, -117.92780374620007, -117.7266380461023, -118.12896944629783, -116.07260895640958, -116.38553337878388, -118.21837642411906, -117.70428630164699, -118.59835607985927, -117.99485897956599, -118.12896944629783, -118.0395624684766, -117.68193455719168, -117.77134153501291, -118.50894910203804, -117.21254792363024, -117.0784374568984, -117.01138222353248, -117.95015549065538, -116.54199558997102, -117.90545200174475, -117.36901013481739, -118.86657701332295, -120.34179214737323, -119.96181249163301, -119.15714969124195, -118.91128050223357, -117.92780374620007, -117.77134153501291, -119.06774271342073, -118.55365259094866, -118.48659735758274, -118.17367293520844, -117.48076885709392, -117.90545200174475, -116.16201593423081, -113.88213799978948, -115.13383568928668, -116.36318163432857, -115.73733278957997, -116.87727175680062, -117.48076885709392, -116.83256826789001, -116.38553337878388, -116.16201593423081, -115.15618743374199, -113.97154497761072, -115.29029790047383, -115.46911185611629, -115.64792581175874, -115.26794615601852, -115.78203627849058, -115.22324266710791, -116.69845780115817, -116.7878647789794, -115.8490915118565, -115.5361670894822, -117.34665839036208, -117.81604502392352, -118.3524868908509, -118.21837642411906, -118.9559839911442, -118.93363224668889, -118.28543165748498, -117.16784443471963, -117.1007892013537, -118.46424561312743, -118.0395624684766, -118.84422526886765, -118.44189386867212, -116.4749403566051, -117.0784374568984, -116.54199558997102, -116.83256826789001, -118.3748386353062, -117.01138222353248, -117.34665839036208, -118.44189386867212, -116.72080954561348, -117.05608571244309, -116.94432699016656, -115.91614674522242, -116.36318163432857, -116.7878647789794, -115.31264964492914, -116.1396641897755, -116.92197524571124, -117.61487932382576, -117.59252757937045, -116.87727175680062, -116.43023686769449, -115.5361670894822, -115.42440836720567, -115.8714432563118, -116.54199558997102, -116.87727175680062, -116.38553337878388, -116.69845780115817, -116.65375431224756, -117.68193455719168, -117.81604502392352, -118.44189386867212, -118.26307991302967, -117.0784374568984, -116.54199558997102, -116.31847814541796, -115.55851883393751, -114.8879665002783, -115.71498104512466, -115.15618743374199, -114.2621176555297, -114.77620777800176, -115.40205662275037, -115.46911185611629, -114.68680080018054, -114.35152463335093, -114.75385603354646, -114.86561475582299, -113.99389672206603, -114.8879665002783, -114.59739382235931, -115.5138153450269, -115.91614674522242, -115.40205662275037, -116.02790546749897, -116.76551303452409, -116.85492001234532, -117.27960315699616, -116.34082988987326, -115.8267397674012, -114.97737347809954, -115.31264964492914, -115.46911185611629, -114.99972522255484, -114.93266998918891, -113.6139170663258, -114.2621176555297, -115.04442871146546, -114.03860021097664, -112.87630949930066, -112.94336473266658, -113.36804787731742, -113.70332404414702, -113.07747519939844, -112.11635018782023, -111.55755657643755, -111.44579785416101, -112.47397809910514, -112.45162635464983, -113.83743451087886, -112.45162635464983, -113.05512345494313, -112.92101298821127, -112.92101298821127, -113.70332404414702, -114.12800718879787, -114.61974556681461, -114.2174141666191, -113.34569613286212, -112.38457112128391, -112.3398676323733, -111.4010943652504, -113.41275136622804, -113.47980659959396, -113.07747519939844, -113.14453043276436, -113.18923392167497, -113.18923392167497, -112.38457112128391, -113.12217868830905, -112.49632984356045, -110.99876296505488, -111.57990832089286, -111.42344610970571, -113.52451008850457, -112.87630949930066, -112.60808856583698, -113.23393741058558, -114.01624846652133, -114.06095195543195, -113.14453043276436, -112.6751437992029, -113.3009926439515, -115.02207696701015, -114.2397659110744, -112.80925426593474, -113.36804787731742, -113.32334438840681, -113.92684148870009, -113.6362688107811, -114.12800718879787, -112.29516414346269, -112.51868158801575, -112.94336473266658, -113.36804787731742, -113.41275136622804, -114.15035893325317, -113.92684148870009, -114.86561475582299], [-44.77054414398005, -46.06694532238786, -45.73166915555825, -46.961015100600136, -48.413878490195096, -48.45858197910571, -48.16800930118672, -48.63739593474817, -47.430401734161585, -47.87743662326773, -48.950320357122465, -49.732631413058215, -50.42553549117273, -48.86091337930124, -48.70445116811409, -49.21854129058615, -48.1009540678208, -49.3750035017733, -48.92796861266716, -48.413878490195096, -48.97267210157777, -49.44205873513922, -49.598520946326374, -49.30794826840738, -48.03389883445488, -50.49259072453865, -50.44788723562804, -50.3137767688962, -49.866741879790055, -51.051384335921334, -50.6267011912705, -49.97850060206659, -48.816209890390624, -47.810381389901806, -47.87743662326773, -48.16800930118672, -49.263244779496766, -48.57034070138225, -48.70445116811409, -50.60434944681519, -49.17383780167554, -48.45858197910571, -48.816209890390624, -49.21854129058615, -49.75498315751352, -49.263244779496766, -50.336128513351504, -49.799686646424135, -49.95614885761128, -48.79385814593532, -49.933797113155975, -50.045555835432516, -49.48676222404983, -49.0397273349437, -48.525637212471636, -48.30211976791856, -48.23506453455264, -47.87743662326773, -48.59269244583756, -49.21854129058615, -49.77733490196883, -47.810381389901806, -48.59269244583756, -50.80551514691295, -50.38083200226212, -47.810381389901806, -49.44205873513922, -50.82786689136826, -50.76081165800234, -48.79385814593532, -48.92796861266716, -48.279768023463255, -48.59269244583756, -48.413878490195096, -46.06694532238786, -48.145657556731415, -49.97850060206659, -49.84439013533475, -50.38083200226212, -49.48676222404983, -49.17383780167554, -48.883265123756544, -48.99502384603308, -47.497456967527505, -47.83273313435711, -48.99502384603308, -48.883265123756544, -49.0397273349437, -49.330300012862686, -50.11261106879844, -49.30794826840738, -49.665576179692295, -50.82786689136826, -49.598520946326374, -48.525637212471636, -49.55381745741576, -50.000852346521896, -49.88909362424536, -49.55381745741576, -50.336128513351504, -50.3137767688962, -47.89978836772303, -47.85508487881242, -48.749154657024704, -49.28559652395207, -49.799686646424135, -48.86091337930124, -49.0397273349437, -49.732631413058215, -47.63156743425935, -47.38569824525097, -47.27393952297444, -46.60338718931523, -47.810381389901806, -48.83856163484593, -48.1009540678208, -49.64322443523699, -50.89492212473418, -48.480933723561016, -48.1009540678208, -49.10678256830962, -48.54798895692694, -48.59269244583756, -47.18453254515321, -46.42457323367277, -46.558683700404615, -45.39639298872864, -44.36821274378452, -43.96588134358899, -45.642262177737024, -45.46344822209456, -44.68113716615882, -44.72584065506943, -45.41874473318395, -44.83759937734597, -45.53050345546049, -45.39639298872864, -43.27297726547447, -44.41291623269513, -44.79289588843535, -44.50232321051636, -45.39639298872864, -46.13400055575378, -44.256454021507984, -45.239930777541495, -45.66461392219233, -45.73166915555825, -43.80941913240184, -45.06111682189904, -46.64809067822584, -46.625738933770535, -46.625738933770535, -47.76567790099119, -47.76567790099119, -48.25741627900795, -47.162180800697904, -48.63739593474817, -46.71514591159176, -43.3623842432957, -42.82594237636833, -45.08346856635435, -45.575206944371104, -46.53633195594931, -47.7880296454465, -46.156352300209086, -45.508151711005176, -46.64809067822584, -46.58103544485992, -47.38569824525097, -47.296291267429744, -48.39152674573979, -48.63739593474817, -46.87160812277891, -45.01641333298842, -45.79872438892417, -47.363346500795664, -47.87743662326773, -47.296291267429744, -45.642262177737024, -46.17870404466439, -46.02224183347724, -47.51980871198282, -48.346823256829175, -47.87743662326773, -48.03389883445488, -47.363346500795664, -47.31864301188505, -46.53633195594931, -45.66461392219233, -48.145657556731415, -47.89978836772303, -48.90561686821185, -48.279768023463255, -48.32447151237387, -47.38569824525097, -46.04459357793255, -47.31864301188505, -48.50328546801632, -48.525637212471636, -47.34099475634036, -46.67044242268115, -47.92214011217834, -48.77150640148001, -47.40804998970628, -46.35751800030685, -48.19036104564203, -48.078602323365494, -47.63156743425935, -51.61017794730401, -52.32543376987383, -51.453715736116855, -51.76664015849116, -52.79482040343528, -51.990157603044224, -51.36430875829563, -51.118439569287254, -51.990157603044224, -53.51007622600511, -50.783163402457646, -50.42553549117273, -50.3137767688962, -50.67140468018111, -50.20201804661966, -50.581997702359885, -53.375965759273264, -52.101916325320765, -51.20784654710848, -52.101916325320765, -51.76664015849116, -52.5265994699716, -52.034861091954845, -51.386660502750935, -50.9619773581001, -51.23019829156379, -51.00668084701072, -50.24672153553028, -50.24672153553028, -50.98432910255541, -52.839523892345895, -52.72776517006936, -52.92893087016712, -51.81134364740177, -51.386660502750935, -52.14661981423138, -51.386660502750935, -50.22436979107497, -53.10774482580958, -53.21950354808612, -52.370137258784446, -51.900750625223, -50.53729421344927, -52.54895121442691, -53.84535239283471, -53.66653843719226, -53.443020992639184, -52.81717214789059, -52.19132330314199, -52.839523892345895, -53.152448314720196, -52.05721283641015, -52.34778551432914, -53.621834948281645, -52.973634359077735, -53.554779714915725, -55.812305904901734, -54.02416634847717, -54.06886983738779, -54.18062855966432, -55.58878846034867, -54.448849493128, -54.69471868213638, -55.92406462717827, -56.0134716049995, -54.962939615600064, -54.448849493128, -55.49938148252744, -55.63349194925928, -52.88422738125651, -52.101916325320765, -52.32543376987383, -52.88422738125651, -54.739422171046996, -53.443020992639184, -53.554779714915725, -53.554779714915725, -49.665576179692295, -50.49259072453865, -49.6879279241476, -44.524674954971665, -38.19913127411977, -33.684078894147746, -26.911500324189703, -19.311907209385303, -14.215709473575291, -9.477139649050194, -0.9387732671228967, 4.358590168784877, 9.790064071424494, 14.930965296145118, 19.40131418720653, 24.385753200740005, 30.308965481396378, 33.52761668296059, 34.66755565018126, 38.57911092985999, 39.85316036381249, 40.233140019552714, 42.602424931815264, 42.91534935418956, 48.19036104564203, 48.12330581227611, 48.816209890390624, 46.13400055575378, 40.45665746410578, 44.9493580996225, 51.14079131374256, 49.866741879790055, 48.413878490195096, 44.74819239952474, 47.4751052230722, 45.39639298872864, 44.74819239952474, 45.508151711005176, 43.54119819893816, 37.84150336283486, 39.07084930787675, 41.93187259815605, 41.57424468687114, 36.88037835125665, 36.23217776205275, 38.512055696494066, 34.53344518344941, 33.72878238305836, 30.934814326144974, 31.985346315544408, 35.96395682858906, 35.65103240621477, 34.24287250553042, 35.04753530592147, 34.086410294343274, 33.41585796068406, 32.03004980445502, 34.91342483918963, 35.82984636185722, 33.99700331652204, 33.19234051613099, 32.94647132712261, 31.918291082178484, 34.421686461172875, 34.33227948335165, 32.968823071577916, 31.784180615446644, 31.918291082178484, 33.371154471773444, 32.38767771573993, 33.5499684274159, 33.10293353830976, 31.471256193072342, 32.097105037820945, 32.74530562702485, 34.39933471671757, 32.99117481603322, 31.985346315544408, 30.912462581689667, 31.247738748519275, 32.052401548910325, 33.035878304943836, 34.68990739463656, 34.66755565018126, 32.2759189934634, 30.577186414860062, 34.84636960582371, 35.62868066175946, 34.86872135027902, 33.92994808315612, 31.11362828178743, 32.32062248237401, 33.63937540523713, 34.75696262800248, 35.405163217206386, 33.304099238407524, 33.70643063860305, 31.985346315544408, 33.66172714969244, 33.84054110533489, 33.39350621622875, 32.521788182471774, 33.818189360879586, 32.164160271186866, 32.834712604846075, 31.80653235990195, 29.23608174754164, 28.20790150259751, 30.711296881591903, 30.621889903770676, 27.872625335767907, 27.582052657848916, 30.174855014664534, 32.9241195826673, 30.97951781505559, 29.817227103379622, 32.164160271186866, 31.51595968198296, 32.81236086039077, 34.19816901661981, 32.38767771573993, 30.688945137136596, 31.493607937527653, 33.32645098286283, 30.621889903770676, 28.699639880614267, 30.95716607060028, 32.87941609375669, 31.068924792876818, 31.985346315544408, 33.99700331652204, 33.818189360879586, 32.2759189934634, 34.33227948335165, 32.74530562702485, 31.471256193072342, 31.985346315544408, 32.81236086039077, 33.572320171871205, 34.5110934389941, 34.13111378325389, 32.097105037820945, 33.10293353830976, 34.421686461172875, 32.99117481603322, 32.052401548910325, 34.220520761075115, 35.49457019502761, 33.5499684274159, 34.91342483918963, 33.66172714969244, 32.365325971284626, 31.672421893170107, 32.14180852673156, 29.90663408120085, 18.41783743117302, 7.443130903617252, -4.693866335614483, -13.679267606647922, -22.44115143312829, -33.885244594245506, -45.06111682189904, -54.40414600421739, -62.942512386144685, -71.32441655688484, -78.4769747825831, -84.75781497452438, -90.61397202181483, -96.04544592445446, -98.52648955899353, -100.60520179333709, -100.18051864868626, -98.37002734780638, -97.92299245870024, -98.90646921473375, -98.88411747027844, -98.50413781453823, -97.54301280296002, -96.44777732464998, -94.57023079040418, -94.90550695723378, -95.19607963515278, -95.19607963515278, -94.05614066793213, -94.36906509030642, -93.89967845674497, -91.99978017804386, -92.0668354114098, -92.15624238923102, -92.737387745069, -91.7986144779461, -91.21746912210813, -91.06100691092098, -90.34575108835115, -90.59162027735952, -88.84818420984557, -88.84818420984557, -87.86470745381206, -86.74712023104671, -86.68006499768079, -86.25538185302996, -86.43419580867241, -84.53429752997131, -82.88026844027858, -83.79668996294618, -80.98037016157748, -75.86182068131217, -70.72091945659155, -67.92695139967816, -69.75979444501334, -67.92695139967816, -69.71509095610273, -70.09507061184294, -68.55280024442676, -70.5644572454044, -72.10672761282058, -71.12325085678707, -70.87738166777869, -70.54210550094909, -71.8608584238122, -72.08437586836527, -71.45852702361668, -71.5032305125273, -69.6256839782815, -72.01732063499935, -72.64316947974795, -71.59263749034852, -70.5644572454044, -70.83267817886808, -70.11742235629825, -69.2904078114519, -71.12325085678707, -70.899733412234, -70.29623631194072, -70.05036712293233, -70.45269852312786, -69.53627700046027, -68.53044849997146, -67.79284093294632, -67.81519267740163, -67.70343395512509, -68.351634544329, -69.71509095610273, -69.22335257808598, -71.01149213451053, -70.51975375649378, -68.82102117789044, -66.47408801008321, -68.88807641125636, -70.05036712293233, -67.54697174393795, -68.79866943343514, -69.22335257808598, -68.79866943343514, -69.9609601451111, -67.97165488858877, -68.0387101219547, -67.25639906601896, -67.45756476611672, -67.65873046621448, -66.56349498790443, -66.47408801008321, -66.63055022127035, -68.28457931096308, -68.23987582205247, -67.32345429938488, -67.52461999948264, -66.02705312097706, -66.7646606880022, -64.73065194256925, -65.37885253177316, -65.62472172078154, -65.24474206504132, -66.40703277671729, -66.25057056553014, -64.5741897313821, -65.24474206504132, -65.26709380949663, -63.68011995316982, -62.741346686046924, -63.70247169762513, -63.523657741982674, -62.62958796377039, -62.31666354139609, -62.808401919412844, -61.601407718826266, -60.10384084032069, -60.84144840734582, -61.17672457417543, -61.10966934080951, -62.607236219315084, -61.69081469664749, -61.0649658518989, -62.69664319713631, -62.875457152778765, -62.607236219315084, -62.62958796377039, -62.003739119021795, -60.97555887407767, -61.221428063086044, -61.020262362988284, -59.8132681624017, -60.97555887407767, -62.42842226367262, -60.483820496060915, -59.433288506661476, -59.99208211804416, -59.835619906857005, -60.50617224051622, -61.7131664411028, -61.80257341892403, -60.17089607368661, -60.439117007150294, -61.44494550763911, -60.93085538516705, -60.52852398497153, -59.88032339576762, -59.165067573197796, -59.00860536201065, -60.84144840734582, -60.081489095865386, -60.483820496060915, -60.21559956259723, -59.20977106210841, -57.55574197241569, -57.42163150568384, -58.5392187284492, -58.82979140636819, -58.114535583798364, -60.99791061853298, -58.919198384189414, -59.07566059537657, -58.80743966191288, -58.69568093963635, -59.65680595121455, -59.4779919955721, -58.47216349508328, -56.6393204497481, -57.198114061130774, -58.561570472904506, -58.00277686152183, -56.974596616577706, -57.287521038952, -56.929893127667086, -57.30987278340731, -57.48868673904977, -56.08052683836542, -57.42163150568384, -58.36040477280674, -58.15923907270898, -58.40510826171735, -57.42163150568384, -57.712204183602836, -58.382756517262045, -60.14854432923131, -57.9357216281559, -56.862837894301165, -58.98625361755534, -59.433288506661476, -60.95320712962236, -61.04261410744359, -59.25447455101902, -57.578093716870995, -57.198114061130774, -57.53339022796038, -58.60627396181512, -57.42163150568384, -57.24281755004139, -58.60627396181512, -56.90754138321178, -57.08635533885424, -56.41580300519502, -55.45467799361682, -55.812305904901734, -56.08052683836542, -56.259340794007876, -53.91240762620063, -54.49355298203862, -55.43232624916151, -54.49355298203862, -54.94058787114476, -54.739422171046996, -56.48285823856095, -56.90754138321178, -56.37109951628441, -54.962939615600064, -56.75107917202463, -55.92406462717827, -54.40414600421739, -54.13592507075371, -53.51007622600511, -52.88422738125651, -53.621834948281645, -52.59365470333752, -51.74428841403585, -52.839523892345895, -51.00668084701072, -51.900750625223, -51.453715736116855, -51.990157603044224, -52.92893087016712, -52.88422738125651, -53.152448314720196, -53.621834948281645, -53.24185529254142, -53.018337847988356, -51.02903259146603, -51.54312271393809, -52.59365470333752, -52.12426806977607, -53.19715180363081, -52.101916325320765, -52.79482040343528, -52.66070993670344, -51.00668084701072, -51.40901224720624, -51.02903259146603, -51.788991902946464, -52.19132330314199, -52.39248900323975, -50.98432910255541, -50.716108169091726, -51.923102369678304, -53.04068959244366, -53.42066924818388, -53.77829715946879, -53.91240762620063, -52.839523892345895, -52.54895121442691, -52.88422738125651, -52.28073028096322, -51.36430875829563, -52.236026792052606, -52.95128261462243, -51.43136399166155, -50.24672153553028, -51.54312271393809, -51.16314305819787, -52.39248900323975, -51.900750625223, -51.40901224720624, -52.01250934749954, -51.61017794730401, -52.99598610353305, -52.437192492150366, -52.07956458086546, -52.32543376987383, -52.12426806977607, -53.018337847988356, -53.06304133689897, -52.370137258784446, -51.43136399166155, -51.72193666958054, -52.14661981423138, -52.437192492150366, -53.21950354808612, -54.13592507075371, -52.19132330314199, -49.75498315751352, -50.69375642463642, -49.39735524622861, -50.045555835432516, -50.53729421344927, -50.60434944681519, -52.2136750475973]]
[[-97.92299245870024, -96.69364651365835, -95.12902440178686, -95.82192847990137, -97.31949535840695, -96.58188779138182, -96.15720464673099, -95.64311452425892, -95.19607963515278, -94.48082381258295, -95.75487324653545, -95.71016975762484, -96.29131511346283, -96.09014941336507, -96.40307383573936, -97.23008838058573, -96.67129476920304, -96.2019081356416, -97.1183296583092, -96.2019081356416, -96.15720464673099, -95.576059290893, -95.93368720217791, -96.98421919157734, -96.58188779138182, -95.68781801316953, -95.5984110353483, -96.80540523593488, -94.90550695723378, -92.737387745069, -92.96090518962207, -92.51387030051593, -91.50804180002712, -91.82096622240141, -90.56926853290422, -90.77043423300198, -90.8374894663679, -89.98812317706623, -90.70337899963606, -92.69268425615839, -92.49151855606063, -90.32339934389584, -90.8374894663679, -90.79278597745729, -90.8374894663679, -89.96577143261092, -90.56926853290422, -90.88219295527851, -91.66450401121426, -93.49734705654944, -93.43029182318352, -92.29035285596287, -91.95507668913325, -93.00560867853268, -91.82096622240141, -92.46916681160532, -92.35740808932879, -91.59744877784834, -93.16207088971984, -92.46916681160532, -92.46916681160532, -92.29035285596287, -92.33505634487348, -90.61397202181483, -91.15041388874221, -92.37975983378409, -91.17276563319751, -90.77043423300198, -89.5410882879601, -90.34575108835115, -90.25634411052992, -90.72573074409136, -90.5022132995383, -89.96577143261092, -89.78695747696847, -88.75877723202434, -89.45168131013887, -91.08335865537629, -89.36227433231764, -89.16110863221988, -89.20581212113049, -89.49638479904948, -89.80930922142377, -89.18346037667519, -89.02699816548802, -88.78112897647965, -88.78112897647965, -87.86470745381206, -88.89288769875618, -89.16110863221988, -89.38462607677295, -90.45750981062768, -89.96577143261092, -91.28452435547405, -91.48569005557181, -90.90454469973382, -90.01047492152153, -88.17763187618637, -89.83166096587908, -91.28452435547405, -91.50804180002712, -89.49638479904948, -88.15528013173106, -88.55761153192658, -90.43515806617238, -89.67519875469193, -88.6023150208372, -88.87053595430088, -88.42350106519474, -89.5857917768707, -89.16110863221988, -89.20581212113049, -89.38462607677295, -89.96577143261092, -89.8763644547897, -88.98229467657741, -89.5857917768707, -90.36810283280646, -87.73059698708022, -87.9988179205439, -89.09405339885396, -89.96577143261092, -89.76460573251316, -89.11640514330927, -89.71990224360255, -89.31757084340703, -89.65284701023663, -87.84235570935675, -86.99298942005508, -87.01534116451039, -86.12127138629812, -87.50707954252715, -86.7024167421361, -86.92593418668916, -86.21067836411935, -86.47889929758303, -86.92593418668916, -86.68006499768079, -87.23885860906347, -88.82583246539026, -88.82583246539026, -87.70824524262491, -86.88123069777855, -87.060044653421, -85.62953300828136, -84.86957369680091, -84.62370450779254, -85.7636434750132, -86.4118440642171, -82.90262018473389, -83.12613762928697, -83.14848937374228, -84.08726264086516, -84.73546323006907, -84.28842834096294, -85.4283673081836, -83.97550391858863, -83.79668996294618, -84.08726264086516, -85.36131207481768, -86.25538185302996, -86.7024167421361, -86.83652720886793, -85.71893998610258, -86.43419580867241, -85.4283673081836, -84.75781497452438, -84.89192544125622, -85.40601556372829, -86.4118440642171, -86.50125104203833, -85.98716091956626, -85.29425684145176, -84.511945785516, -86.43419580867241, -87.26121035351878, -87.48472779807184, -87.70824524262491, -86.59065801985956, -86.52360278649364, -85.74129173055789, -84.98133241907745, -85.31660858590706, -83.66257949621433, -85.58482951937074, -86.79182371995732, -85.02603590798806, -82.70145448463613, -83.39435856275065, -83.8860969407674, -83.95315217413332, -83.77433821849087, -83.90844868522271, -83.2155446071082, -84.73546323006907, -83.50611728502719, -83.72963472958025, -84.511945785516, -83.64022775175903, -84.1766696186864, -83.95315217413332, -83.01437890701042, -83.57317251839311, -82.79086146245736, -83.68493124066964, -83.66257949621433, -83.30495158492943, -83.34965507384004, -83.84139345185679, -84.98133241907745, -85.47307079709421, -83.08143414037634, -82.9473236736445, -85.16014637471991, -86.74712023104671, -86.81417546441263, -85.38366381927298, -84.60135276333723, -82.79086146245736, -81.20388760613056, -80.04159689445459, -79.92983817217805, -79.25928583851885, -81.44975679513894, -83.68493124066964, -84.42253880769478, -86.14362313075343, -86.7024167421361, -84.511945785516, -85.093091141354, -86.07656789738749, -84.98133241907745, -83.70728298512495, -84.10961438532048, -84.4895940410607, -84.26607659650763, -83.97550391858863, -83.75198647403556, -83.93080042967802, -82.6120475068149, -83.28259984047412, -83.34965507384004, -83.5508207739378, -82.63439925127021, -82.52264052899368, -83.08143414037634, -83.84139345185679, -82.63439925127021, -82.5896957623596, -83.5508207739378, -85.18249811917522, -83.99785566304394, -83.1931928626529, -81.74032947305793, -82.6120475068149, -82.6120475068149, -81.82973645087915, -81.74032947305793, -82.6120475068149, -82.79086146245736, -81.963846917611, -82.05325389543222, -81.9861986620663, -81.20388760613056, -81.0474253949434, -82.16501261770877, -82.50028878453837, -81.74032947305793, -81.673274239692, -82.41088180671714, -82.63439925127021, -82.03090215097691, -82.2767713399853, -81.9861986620663, -82.88026844027858, -82.29912308444061, -81.71797772860262, -80.89096318375626, -80.62274225029257, -80.53333527247135, -79.39339630525069, -78.90165792723393, -79.46045153861661, -79.50515502752722, -78.85695443832331, -78.23110559357472, -79.4380997941613, -80.24276259455236, -81.09212888385402, -81.51681202850486, -81.51681202850486, -82.0085504065216, -80.26511433900767, -80.3768730612842, -81.60621900632609, -81.0474253949434, -80.15335561673113, -79.88513468326744, -79.95218991663336, -81.78503296196854, -81.963846917611, -81.40505330622833, -80.15335561673113, -79.88513468326744, -79.97454166108867, -79.70632072762498, -78.65578873822555, -80.6897974836585, -80.62274225029257, -79.81807944990152, -80.15335561673113, -80.33216957237359, -80.15335561673113, -79.48280328307192, -78.76754746050209, -78.96871316059985, -80.17570736118644, -79.48280328307192, -80.7121492281138, -80.93566667266687, -78.61108524931494, -79.21458234960824, -78.4993265270384, -79.72867247208029, -79.10282362733169, -79.415748049706, -78.76754746050209, -79.52750677198253, -78.09699512684287, -77.49349802654959, -77.5382015154602, -78.70049222713617, -78.87930618277862, -80.7121492281138, -80.1086521278205, -80.01924514999928, -80.04159689445459, -79.39339630525069, -79.7733759609909, -79.39339630525069, -78.58873350485963, -78.72284397159147, -79.32634107188477, -79.05812013842107, -78.94636141614454, -78.834602693868, -78.34286431585126, -78.834602693868, -80.66744573920319, -81.51681202850486, -82.83556495136797, -81.74032947305793, -81.22623935058587, -82.18736436216408, -81.44975679513894, -81.18153586167526, -80.17570736118644, -80.44392829465012, -80.64509399474788, -78.65578873822555, -78.92400967168923, -78.43227129367249, -78.92400967168923, -78.90165792723393, -78.09699512684287, -76.46531778160546, -76.46531778160546, -77.47114628209428, -76.10768987032054, -76.75589045952445, -77.1805736041753, -79.16987886069762, -78.52167827149371, -77.8511259378345, -78.40991954921718, -77.49349802654959, -77.42644279318367, -76.51002127051608, -77.02411139298813, -75.86182068131217, -73.96192240261107, -72.93374215766694, -74.00662589152168, -73.85016368033453, -74.14073635825353, -76.2418003370524, -77.33703581536244, -76.9123526707116, -78.67814048268086, -78.40991954921718, -77.31468407090713, -75.19126834765297, -77.76171896001327, -77.04646313744344, -76.86764918180099, -75.0124543920105, -75.88417242576747, -75.41478579220603, -75.79476544794625, -76.66648348170322, -76.33120731487362, -77.2029253486306, -77.76171896001327, -76.86764918180099, -75.0124543920105, -74.47601252508314, -73.69370146914738, -68.46339326660554, -68.12811709977592, -64.41772752019496, -67.14464034374241, -69.37981478927313, -69.89390491174518, -71.34676830134015, -70.5868089898597, -69.15629734472004, -69.37981478927313, -70.899733412234, -73.55959100241554, -72.10672761282058, -70.2291810785748, -69.84920142283457, -71.32441655688484, -70.72091945659155, -71.27971306797423, -69.9386084006558, -71.1679543456977, -71.190306090153, -70.34093980085133, -70.83267817886808, -71.190306090153, -70.18447758966418, -69.69273921164742, -69.51392525600497, -69.0221868779882, -69.15629734472004, -68.06106186641, -68.88807641125636, -68.0834136108653, -67.47991651057202, -66.02705312097706, -66.18351533216422, -67.21169557710834, -66.85406766582342, -68.12811709977592, -67.34580604384018, -65.78118393196868, -67.34580604384018, -66.87641941027873, -67.21169557710834, -67.18934383265304, -67.79284093294632, -67.34580604384018, -67.79284093294632, -66.7646606880022, -68.0834136108653, -68.53044849997146, -68.21752407759716, -67.85989616631224, -68.59750373333738, -68.84337292234575, -68.10576535532061, -66.7646606880022, -68.77631768897983, -70.94443690114461, -71.41382353470607, -72.08437586836527, -71.41382353470607, -71.39147179025076, -70.27388456748541, -70.36329154530664, -70.49740201203848, -71.32441655688484, -72.37494854628427, -73.4254805356837, -73.02314913548817, -71.39147179025076, -71.74909970153567, -72.06202412390996, -71.1679543456977, -70.60916073431501, -69.69273921164742, -71.63734097925914, -72.50905901301611, -71.59263749034852, -72.12907935727588, -71.57028574589322, -72.4867072685608, -71.36912004579546, -71.68204446816975, -71.05619562342115, -71.1679543456977, -70.29623631194072, -70.67621596768093, -70.78797468995747, -69.42451827818374, -68.48574501106084, -68.75396594452452, -68.6869107111586, -69.35746304481782, -69.6033322338262, -68.59750373333738, -68.93277990016698, -68.0834136108653, -67.56932348839325, -68.48574501106084, -68.93277990016698, -68.30693105541839, -69.75979444501334, -68.70926245561391, -68.53044849997146, -66.87641941027873, -65.62472172078154, -67.25639906601896, -68.17282058868655, -67.03288162146588, -66.31762579889606, -67.7481374440357, -68.48574501106084, -68.15046884423123, -68.9998351335329, -68.59750373333738, -68.6869107111586, -69.26805606699659, -67.36815778829549, -67.16699208819772, -67.63637872175917, -65.20003857613071, -65.22239032058602, -68.15046884423123, -67.43521302166141, -66.4293845211726, -66.13881184325359, -67.4128612772061, -65.87059090978991, -66.47408801008321, -65.58001823187092, -67.7481374440357, -72.39730029073958, -71.10089911233176, -71.32441655688484, -69.64803572273681, -68.6645589667033, -72.28554156846305, -73.04550087994348, -70.96678864559992, -72.28554156846305, -73.738404958058, -73.22431483558594, -72.4643555241055, -72.4420037796502, -72.62081773529265, -73.17961134667533, -73.17961134667533, -72.93374215766694, -74.18543984716415, -74.23014333607476, -73.98427414706637, -73.44783228013901, -72.71022471311387, -72.33024505737366, -73.55959100241554, -72.12907935727588, -73.93957065815576, -72.88903866875633, -71.90556191272282, -72.33024505737366, -72.88903866875633, -72.4643555241055, -71.8385066793569, -71.99496889054404, -71.77145144599098, -73.24666658004125, -73.69370146914738, -73.1349078577647, -72.4643555241055, -73.1125561133094, -74.02897763597699, -73.47018402459432, -73.49253576904962, -75.52654451448257, -76.08533812586523, -74.18543984716415, -75.68300672566971, -76.37591080378424, -74.47601252508314, -72.68787296865857, -73.38077704677309, -74.47601252508314, -73.51488751350493, -73.1125561133094, -74.02897763597699, -75.25832358101889, -75.68300672566971, -75.77241370349094, -75.41478579220603, -74.74423345854682, -74.40895729171721, -74.6995299696362, -74.90069566973396, -74.56541950290436, -74.11838461379821, -73.58194274687085, -74.72188171409151, -74.52071601399375, -74.43130903617252, -75.3030270699295, -75.25832358101889, -75.12421311428703, -74.00662589152168, -73.06785262439878, -72.7772799464798, -72.24083807955243, -71.59263749034852, -70.07271886738764, -68.57515198888207, -68.70926245561391, -70.11742235629825, -72.73257645756918, -73.49253576904962, -73.62664623578146, -73.85016368033453, -74.94539915864458, -73.87251542478984, -73.53723925796024, -74.3642538028066, -72.91139041321163, -72.17378284618651, -73.80546019142392, -73.51488751350493, -73.00079739103286, -72.41965203519489, -72.53141075747142, -73.78310844696861, -74.0960328693429, -73.89486716924515, -74.45366078062783, -75.0124543920105, -75.37008230329542, -75.81711719240155, -73.93957065815576, -73.7607567025133, -74.0736811248876, -74.18543984716415, -73.62664623578146, -74.85599218082335, -73.78310844696861, -73.69370146914738, -74.87834392527866, -75.54889625893787, -75.37008230329542, -73.53723925796024, -74.87834392527866, -74.14073635825353, -74.25249508053007, -75.23597183656358, -73.55959100241554, -73.53723925796024, -72.95609390212225, -71.95026540163343, -72.4420037796502, -72.30789331291835, -72.17378284618651, -72.4420037796502, -72.7996316909351, -72.4643555241055, -71.95026540163343, -71.8385066793569, -70.83267817886808, -70.9220851566893, -71.43617527916138, -71.12325085678707, -71.99496889054404, -71.39147179025076, -71.90556191272282, -70.2515328230301, -70.38564328976194, -70.20682933411949, -70.31858805639602, -70.16212584520888, -70.05036712293233, -69.71509095610273, -69.49157351154966, -70.83267817886808, -71.57028574589322, -71.70439621262506, -72.06202412390996, -72.21848633509713, -72.73257645756918, -71.190306090153, -72.24083807955243, -72.17378284618651, -71.95026540163343, -73.1349078577647, -72.17378284618651, -72.82198343539041, -73.00079739103286, -71.68204446816975, -70.20682933411949, -70.83267817886808, -70.49740201203848, -70.96678864559992, -71.27971306797423, -70.74327120104685, -70.65386422322563, -71.59263749034852, -71.70439621262506, -71.10089911233176, -71.63734097925914, -71.10089911233176, -68.70926245561391, -69.84920142283457, -70.60916073431501, -69.67038746719211, -68.53044849997146, -69.04453862244351, -69.9386084006558, -68.70926245561391, -70.43034677867256, -71.10089911233176, -71.79380319044628, -71.74909970153567, -70.54210550094909, -72.28554156846305, -71.5032305125273, -71.01149213451053, -71.27971306797423, -72.88903866875633, -71.23500957906361, -70.54210550094909, -68.88807641125636, -68.6645589667033, -69.55862874491558, -70.60916073431501, -69.55862874491558, -71.01149213451053, -70.899733412234, -71.5032305125273, -72.33024505737366, -72.24083807955243, -72.01732063499935, -71.79380319044628, -73.33607355786248, -73.71605321360269, -74.29719856944068, -72.93374215766694, -72.73257645756918, -72.73257645756918, -72.30789331291835, -71.54793400143791], [-54.7617739155023, -53.06304133689897, -53.443020992639184, -54.18062855966432, -53.91240762620063, -55.56643671589336, -54.47120123758331, -54.13592507075371, -54.426497748672695, -54.158276815209014, -54.292387281940854, -54.85118089332353, -54.02416634847717, -54.47120123758331, -54.426497748672695, -53.24185529254142, -53.823000648379406, -54.091221581843094, -53.57713145937103, -54.24768379303024, -55.0523465934213, -56.192285560641956, -54.58295995985985, -52.839523892345895, -54.51590472649393, -56.75107917202463, -56.43815474965033, -54.27003553748555, -53.19715180363081, -54.225332048574934, -53.28655878145204, -51.96780585858892, -53.51007622600511, -53.957111115111246, -53.71124192610287, -54.02416634847717, -53.91240762620063, -53.66653843719226, -54.1135733262984, -53.51007622600511, -53.24185529254142, -54.605311704315156, -54.40414600421739, -53.91240762620063, -53.8006489039241, -54.538256470949236, -55.02999484896599, -54.91823612668945, -55.56643671589336, -55.16410531569783, -55.477029738072126, -55.45467799361682, -54.91823612668945, -55.36527101579559, -54.13592507075371, -54.78412565995761, -55.29821578242967, -54.82882914886822, -54.13592507075371, -53.46537273709449, -53.30891052590734, -54.739422171046996, -56.3487477718291, -55.678195438169894, -56.192285560641956, -56.795782660935245, -56.70637568311402, -55.09705008233191, -54.78412565995761, -54.38179425976208, -53.21950354808612, -54.1135733262984, -53.152448314720196, -54.359442515306775, -54.158276815209014, -54.605311704315156, -54.739422171046996, -53.57713145937103, -52.772468658979975, -52.772468658979975, -53.91240762620063, -53.91240762620063, -53.8006489039241, -54.40414600421739, -55.23116054906375, -54.18062855966432, -54.00181460402187, -54.31473902639616, -55.25351229351906, -55.52173322698275, -54.31473902639616, -53.77829715946879, -55.007643104510684, -55.52173322698275, -55.16410531569783, -55.45467799361682, -55.96876811608888, -54.47120123758331, -54.69471868213638, -53.755945415013485, -53.8006489039241, -54.04651809293248, -54.1135733262984, -54.02416634847717, -55.11940182678722, -54.62766344877046, -53.755945415013485, -52.370137258784446, -53.085393081354276, -53.73359367055818, -55.007643104510684, -55.007643104510684, -56.39345126073972, -55.3876227602509, -53.91240762620063, -53.46537273709449, -52.95128261462243, -52.973634359077735, -54.962939615600064, -54.538256470949236, -52.973634359077735, -54.49355298203862, -53.57713145937103, -53.375965759273264, -53.46537273709449, -53.890055881745326, -55.812305904901734, -55.65584369371459, -54.672366937681076, -55.25351229351906, -55.29821578242967, -55.007643104510684, -55.78995416044643, -56.03582334945481, -55.65584369371459, -55.18645706015314, -55.52173322698275, -56.594616960837484, -56.41580300519502, -55.52173322698275, -55.43232624916151, -55.23116054906375, -55.63349194925928, -53.35361401481796, -53.8006489039241, -55.45467799361682, -57.578093716870995, -56.14758207173134, -54.82882914886822, -55.65584369371459, -56.259340794007876, -55.409974504706206, -54.292387281940854, -56.08052683836542, -55.90171288272296, -57.04165184994363, -56.23698904955257, -55.7005471826252, -56.23698904955257, -56.48285823856095, -57.86866639478998, -56.3487477718291, -54.448849493128, -54.51590472649393, -54.7617739155023, -53.957111115111246, -55.745250671535814, -56.75107917202463, -56.125230327276036, -56.46050649410564, -57.24281755004139, -55.007643104510684, -53.823000648379406, -55.76760241599112, -56.6393204497481, -55.141753571242525, -55.23116054906375, -56.23698904955257, -56.527561727471564, -57.466334994594455, -55.074698337876605, -55.141753571242525, -56.70637568311402, -56.527561727471564, -56.39345126073972, -55.25351229351906, -53.554779714915725, -54.58295995985985, -56.974596616577706, -56.75107917202463, -55.92406462717827, -57.42163150568384, -56.03582334945481, -55.78995416044643, -55.52173322698275, -53.152448314720196, -55.63349194925928, -58.94155012864472, -57.73455592805814, -58.02512860597714, -58.67332919518104, -57.80161116142406, -54.78412565995761, -54.31473902639616, -56.75107917202463, -56.90754138321178, -56.23698904955257, -56.48285823856095, -55.3876227602509, -55.85700939381235, -56.08052683836542, -56.48285823856095, -53.97946285956655, -55.92406462717827, -56.68402393865871, -54.40414600421739, -55.23116054906375, -56.30404428291849, -54.91823612668945, -54.02416634847717, -53.018337847988356, -52.75011691452467, -52.72776517006936, -51.83369539185708, -52.95128261462243, -53.91240762620063, -51.051384335921334, -52.54895121442691, -54.82882914886822, -55.18645706015314, -54.82882914886822, -53.688890181647565, -53.57713145937103, -55.18645706015314, -54.58295995985985, -52.99598610353305, -54.65001519322577, -54.80647740441292, -54.158276815209014, -53.018337847988356, -54.51590472649393, -55.02999484896599, -55.52173322698275, -54.91823612668945, -53.57713145937103, -54.51590472649393, -55.409974504706206, -55.812305904901734, -55.72289892708051, -54.56060821540454, -54.448849493128, -54.1135733262984, -55.477029738072126, -54.47120123758331, -54.56060821540454, -55.23116054906375, -54.962939615600064, -54.85118089332353, -54.04651809293248, -54.38179425976208, -55.58878846034867, -54.538256470949236, -53.77829715946879, -53.890055881745326, -54.158276815209014, -54.1135733262984, -54.225332048574934, -54.448849493128, -53.890055881745326, -54.04651809293248, -53.24185529254142, -53.86770413729002, -56.3263960273738, -56.75107917202463, -58.47216349508328, -58.5392187284492, -55.85700939381235, -55.11940182678722, -55.946416371633575, -56.68402393865871, -57.13105882776485, -57.35457627231792, -58.919198384189414, -59.54504722893802, -58.67332919518104, -58.248646050530205, -58.315701283896125, -59.1874193176531, -59.165067573197796, -58.2262943060749, -57.80161116142406, -57.42163150568384, -56.527561727471564, -57.55574197241569, -57.645148950236916, -57.779259416968756, -57.42163150568384, -58.494515239538586, -59.45564025111678, -57.48868673904977, -57.73455592805814, -57.6004454613263, -59.098012339831875, -60.05913735141008, -59.34388152884025, -60.03678560695477, -59.20977106210841, -59.54504722893802, -59.030957106465955, -58.65097745072573, -58.315701283896125, -59.05330885092126, -58.02512860597714, -57.779259416968756, -59.61210246230394, -60.23795130705253, -58.20394256161959, -59.030957106465955, -58.76273617300227, -58.852143150823494, -57.466334994594455, -56.28169253846318, -57.48868673904977, -57.86866639478998, -57.9357216281559, -59.32152978438494, -60.886151896256436, -59.54504722893802, -57.82396290587937, -57.95807337261121, -57.82396290587937, -58.33805302835143, -58.114535583798364, -57.265169294496694, -57.66750069469222, -59.67915769566986, -58.5392187284492, -59.14271582874249, -58.74038442854696, -59.61210246230394, -59.92502688467823, -60.28265479596315, -61.33318678536258, -60.28265479596315, -60.28265479596315, -60.886151896256436, -59.00860536201065, -59.99208211804416, -60.32735828487376, -60.50617224051622, -60.14854432923131, -61.48964899654973, -61.57905597437096, -59.79091641794639, -59.94737862913354, -60.05913735141008, -60.21559956259723, -58.60627396181512, -58.5392187284492, -59.567398973393324, -58.74038442854696, -58.20394256161959, -58.94155012864472, -59.34388152884025, -59.20977106210841, -59.92502688467823, -59.88032339576762, -60.95320712962236, -61.93668388565587, -61.82492516337933, -60.59557921833745, -59.902675140222925, -60.64028270724806, -60.23795130705253, -59.366233273295556, -60.32735828487376, -61.221428063086044, -61.020262362988284, -62.56253273040447, -60.28265479596315, -59.768564673491085, -59.85797165131231, -59.500343740027404, -60.03678560695477, -59.768564673491085, -61.04261410744359, -62.56253273040447, -60.50617224051622, -61.62375946328157, -62.62958796377039, -62.47312575258324, -61.51200074100504, -62.54018098594916, -62.741346686046924, -62.11549784129833, -61.84727690783464, -62.51782924149386, -62.29431179694078, -62.51782924149386, -65.20003857613071, -64.28361705346312, -60.52852398497153, -60.41676526269499, -56.70637568311402, -52.303082025418526, -44.34586099932921, -35.472218450572306, -30.711296881591903, -24.72102936756961, -17.993154286522184, -14.461578662583669, -12.338162939329498, -5.677343091647994, 1.6316773452374156, 2.9951337570111463, 6.459654147583741, 10.19239547162002, 11.578203627849058, 14.282764706941213, 13.656915862192616, 15.176834485153496, 19.066038020376926, 17.970802542066878, 19.133093253742846, 19.200148487108766, 19.133093253742846, 15.109779251787574, 18.149616497709335, 22.552910155404827, 20.47419792106127, 21.301212465907632, 16.875567063756833, 16.227366474552927, 14.550985640404898, 13.299287950907702, 14.260412962485907, 12.293459450418885, 8.717180337569754, 6.99609601451111, 10.840596060823925, 11.086465249832303, 10.818244316368618, 10.438264660628398, 8.13603498173177, 8.44895940410607, 12.047590261410507, 11.757017583491516, 9.8124158158798, 10.170043727164714, 8.963049526578132, 8.44895940410607, 9.678305349147958, 10.907651294189847, 10.102988493798792, 10.617078616270854, 8.337200681829534, 8.381904170740148, 9.566546626871423, 10.080636749343485, 10.170043727164714, 12.271107705963578, 11.80172107240213, 11.555851883393752, 15.847386818812707, 18.842520575823855, 20.138921754231664, 20.5636048988825, 20.5636048988825, 21.524729910460703, 19.066038020376926, 20.675363621159033, 21.23415723254171, 20.429494432150655, 22.37409619976237, 24.43045668965062, 24.341049711829392, 21.278860721452325, 22.21763398857522, 23.178759000153423, 22.754075855502588, 21.792950843924388, 19.55777639839368, 21.703543866103157, 22.888186322234432, 21.301212465907632, 22.798779344413205, 21.32356421036294, 24.385753200740005, 21.77059909946908, 20.720067110069646, 21.412971188184166, 21.569433399371317, 25.12336076776514, 24.631622389748383, 24.11753226727632, 24.229290989552855, 24.72102936756961, 24.29634622291878, 22.016468288477455, 21.480026421550086, 26.79974160191317, 22.44115143312829, 21.815302588379694, 24.11753226727632, 24.341049711829392, 23.60344214480426, 25.41393344568413, 24.87749157875676, 22.7764275999579, 23.379924700251188, 23.581090400348952, 24.139884011731628, 22.262337477485833, 23.49168342252772, 24.072828778365707, 24.832788089846147, 24.765732856480227, 24.542215411927156, 22.262337477485833, 23.581090400348952, 23.60344214480426, 22.59761364431544, 24.631622389748383, 26.64327939072602, 25.34687821231821, 24.698677623114303, 25.145712512220445, 21.792950843924388, 13.634564117737309, 2.928078523645225, -5.185604713631238, -13.656915862192616, -21.480026421550086, -30.018392803477386, -41.52954119796052, -50.93962561364479, -58.98625361755534, -65.42355602068378, -73.4254805356837, -81.82973645087915, -87.19415512015286, -91.7986144779461, -96.26896336900752, -98.28062036998516, -98.66060002572537, -96.91716395821142, -95.41959707970585, -95.576059290893, -97.56536454741533, -97.07362616939858, -96.26896336900752, -95.35254184633993, -95.2631348685187, -94.81609997941256, -94.54787904594887, -94.48082381258295, -95.5984110353483, -93.56440228991536, -93.56440228991536, -93.54205054546006, -93.6985127566472, -94.74904474604664, -93.05031216744331, -91.75391098903549, -90.45750981062768, -89.94341968815561, -90.70337899963606, -88.66937025420312, -89.38462607677295, -90.21164062161931, -87.6858934981696, -87.70824524262491, -87.10474814233163, -86.52360278649364, -87.55178303143776, -86.3671405753065, -86.83652720886793, -86.74712023104671, -82.99202716255512, -83.17084111819759, -80.39922480573951, -77.26998058199652, -75.37008230329542, -73.80546019142392, -75.43713753666134, -74.72188171409151, -74.47601252508314, -73.71605321360269, -73.78310844696861, -75.23597183656358, -75.43713753666134, -74.11838461379821, -75.6606549812144, -74.90069566973396, -73.98427414706637, -72.64316947974795, -72.35259680182897, -73.1125561133094, -73.738404958058, -72.24083807955243, -71.48087876807199, -73.60429449132616, -74.38660554726191, -73.47018402459432, -73.58194274687085, -73.78310844696861, -72.4420037796502, -72.17378284618651, -70.87738166777869, -71.41382353470607, -71.36912004579546, -70.74327120104685, -70.43034677867256, -71.1679543456977, -69.75979444501334, -69.33511130036251, -67.59167523284856, -68.10576535532061, -68.75396594452452, -67.65873046621448, -66.7646606880022, -67.52461999948264, -67.68108221066979, -67.30110255492957, -65.46825950959439, -64.30596879791842, -66.56349498790443, -67.32345429938488, -66.7870124324575, -66.02705312097706, -64.64124496474803, -64.08245135336534, -64.59654147583741, -65.53531474296031, -65.91529439870052, -65.93764614315583, -65.08827985385416, -64.8871141537564, -63.74717518653574, -64.37302403128434, -64.17185833118657, -64.39537577573965, -66.04940486543236, -65.69177695414746, -64.93181764266701, -65.53531474296031, -63.456602508616754, -64.5518379869268, -65.46825950959439, -66.13881184325359, -65.69177695414746, -65.8258874208793, -65.28944555395194, -65.42355602068378, -65.71412869860276, -65.31179729840724, -64.03774786445473, -64.06009960891004, -64.97652113157763, -66.40703277671729, -65.42355602068378, -63.38954727525083, -64.17185833118657, -64.08245135336534, -63.590712975348595, -65.17768683167539, -64.61889322029272, -62.51782924149386, -63.36719553079552, -61.80257341892403, -60.21559956259723, -61.891980396745254, -62.0260908634771, -62.674291452681004, -62.204904819119555, -59.8132681624017, -60.439117007150294, -61.86962865228995, -62.808401919412844, -63.858933908812276, -61.33318678536258, -61.221428063086044, -60.84144840734582, -60.550875729426835, -59.54504722893802, -59.8132681624017, -60.57322747388214, -61.86962865228995, -62.09314609684302, -60.52852398497153, -60.95320712962236, -60.19324781814192, -59.65680595121455, -59.65680595121455, -58.80743966191288, -59.88032339576762, -61.17672457417543, -60.7743931739799, -62.406070519217316, -61.44494550763911, -59.500343740027404, -59.61210246230394, -60.34971002932907, -61.33318678536258, -59.72386118458047, -60.14854432923131, -61.17672457417543, -59.92502688467823, -61.26613155199666, -60.99791061853298, -59.92502688467823, -59.768564673491085, -59.38858501775086, -59.030957106465955, -58.40510826171735, -58.69568093963635, -59.61210246230394, -59.12036408428718, -59.14271582874249, -59.25447455101902, -58.42746000617266, -58.09218383934306, -57.980425117066524, -56.37109951628441, -56.48285823856095, -58.36040477280674, -58.36040477280674, -57.75690767251345, -58.74038442854696, -59.701509440125164, -59.701509440125164, -58.20394256161959, -57.511038483505075, -59.14271582874249, -58.15923907270898, -56.81813440539055, -56.88518963875647, -56.862837894301165, -58.02512860597714, -58.71803268409165, -57.37692801677323, -56.728727427569325, -57.82396290587937, -58.15923907270898, -58.02512860597714, -57.712204183602836, -57.04165184994363, -55.43232624916151, -55.812305904901734, -57.15341057222016]]
[[-57.86866639478998, -58.42746000617266, -58.13688732825367, -58.29334953944082, -59.92502688467823, -60.03678560695477, -57.9357216281559, -57.73455592805814, -57.75690767251345, -57.980425117066524, -57.48868673904977, -57.86866639478998, -57.82396290587937, -58.2262943060749, -59.165067573197796, -56.125230327276036, -55.78995416044643, -56.125230327276036, -57.578093716870995, -57.22046580558608, -57.15341057222016, -56.75107917202463, -57.06400359439893, -57.48868673904977, -57.86866639478998, -58.69568093963635, -59.366233273295556, -57.66750069469222, -58.65097745072573, -57.980425117066524, -57.265169294496694, -57.04165184994363, -55.09705008233191, -54.962939615600064, -56.21463730509726, -55.678195438169894, -54.739422171046996, -54.962939615600064, -54.1135733262984, -54.359442515306775, -53.30891052590734, -53.93475937065594, -55.58878846034867, -55.76760241599112, -55.3876227602509, -55.63349194925928, -55.25351229351906, -54.91823612668945, -54.91823612668945, -54.85118089332353, -54.962939615600064, -54.87353263777884, -53.33126227036265, -53.823000648379406, -54.85118089332353, -54.47120123758331, -54.27003553748555, -54.33709077085147, -55.56643671589336, -54.51590472649393, -54.65001519322577, -54.739422171046996, -55.0523465934213, -55.36527101579559, -55.23116054906375, -54.359442515306775, -54.06886983738779, -53.64418669273695, -54.895884382234144, -55.007643104510684, -55.63349194925928, -55.745250671535814, -54.292387281940854, -55.09705008233191, -56.14758207173134, -55.90171288272296, -55.45467799361682, -56.594616960837484, -55.96876811608888, -55.78995416044643, -57.10870708330955, -55.25351229351906, -53.71124192610287, -54.85118089332353, -54.82882914886822, -54.38179425976208, -51.69958492512524, -50.42553549117273, -49.263244779496766, -50.15731455770905, -48.86091337930124, -50.09025932434313, -51.76664015849116, -52.638358192248134, -52.705413425614054, -53.21950354808612, -53.13009657026489, -54.158276815209014, -53.57713145937103, -54.51590472649393, -52.5265994699716, -51.65488143621462, -53.21950354808612, -53.73359367055818, -54.82882914886822, -53.51007622600511, -53.24185529254142, -53.957111115111246, -54.06886983738779, -54.02416634847717, -53.10774482580958, -53.46537273709449, -52.370137258784446, -51.81134364740177, -53.51007622600511, -52.88422738125651, -51.47606748057216, -53.35361401481796, -52.973634359077735, -52.88422738125651, -53.890055881745326, -53.24185529254142, -53.26420703699673, -54.51590472649393, -53.28655878145204, -54.13592507075371, -53.46537273709449, -52.66070993670344, -53.890055881745326, -54.672366937681076, -52.81717214789059, -52.39248900323975, -52.07956458086546, -51.900750625223, -51.67723318066993, -52.28073028096322, -51.47606748057216, -50.716108169091726, -51.54312271393809, -52.05721283641015, -51.565474458393396, -50.93962561364479, -51.02903259146603, -51.856047136312384, -51.52077096948278, -50.89492212473418, -51.051384335921334, -50.38083200226212, -50.53729421344927, -51.72193666958054, -51.81134364740177, -51.00668084701072, -50.716108169091726, -51.72193666958054, -51.34195701384032, -50.87257038027887, -50.269073279985584, -49.95614885761128, -50.55964595790458, -52.14661981423138, -52.168971558686685, -51.23019829156379, -51.16314305819787, -50.42553549117273, -51.09608782483195, -51.252550036019095, -51.96780585858892, -51.43136399166155, -51.23019829156379, -52.12426806977607, -51.16314305819787, -51.69958492512524, -51.252550036019095, -51.61017794730401, -51.16314305819787, -51.118439569287254, -50.336128513351504, -50.55964595790458, -52.236026792052606, -52.2136750475973, -51.118439569287254, -51.051384335921334, -50.42553549117273, -49.196189546130846, -50.649052935725805, -49.95614885761128, -49.10678256830962, -48.97267210157777, -49.129134312764926, -49.330300012862686, -49.598520946326374, -47.85508487881242, -48.97267210157777, -48.63739593474817, -49.28559652395207, -49.933797113155975, -48.61504419029286, -48.97267210157777, -50.53729421344927, -49.44205873513922, -48.97267210157777, -48.54798895692694, -48.32447151237387, -48.816209890390624, -49.44205873513922, -50.336128513351504, -50.06790757988782, -49.64322443523699, -50.6267011912705, -49.866741879790055, -50.20201804661966, -48.45858197910571, -47.27393952297444, -48.279768023463255, -49.0397273349437, -50.06790757988782, -48.92796861266716, -49.732631413058215, -49.57616920187107, -49.866741879790055, -50.20201804661966, -49.866741879790055, -50.89492212473418, -50.716108169091726, -50.49259072453865, -51.118439569287254, -50.67140468018111, -50.403183746717424, -50.49259072453865, -50.15731455770905, -43.87647436576776, -43.38473598775101, -44.524674954971665, -44.457619721605745, -45.12817205526496, -44.07764006586553, -45.28463426645211, -44.6140819327929, -44.59173018833759, -45.01641333298842, -44.994061588533114, -46.2010557891197, -44.859951121801274, -44.390564488239825, -43.56354994339347, -44.189398788142064, -45.28463426645211, -44.83759937734597, -43.720012154580616, -42.53536969844934, -43.89882611022307, -44.03293657695491, -44.3011575104186, -45.306986010907416, -44.90465461071189, -44.0105848324996, -44.65878542170351, -44.34586099932921, -44.16704704368676, -43.720012154580616, -44.636433677248206, -45.39639298872864, -45.61991043328172, -46.02224183347724, -45.82107613337948, -46.13400055575378, -45.86577962229009, -46.35751800030685, -46.24575927803031, -46.13400055575378, -45.239930777541495, -45.642262177737024, -46.13400055575378, -45.46344822209456, -45.79872438892417, -45.12817205526496, -45.038765077443735, -45.172875544175575, -45.41874473318395, -44.23410227705268, -43.25062552101917, -43.18357028765325, -43.45179122111693, -43.116515054287326, -43.049459820921406, -47.63156743425935, -45.172875544175575, -39.94256734163372, -39.58493943034881, -38.42264871867284, -36.56745392888235, -34.73461088354718, -36.36628822878459, -37.14859928472034, -36.29923299541867, -38.46735220758345, -39.830808619357185, -39.8755121082678, -38.75792488550245, -38.109724296298545, -38.780276629957754, -39.696698152625345, -38.40029697421753, -38.62381441877061, -40.836637119846, -40.45665746410578, -40.747230142024776, -39.65199466371473, -38.80262837441306, -38.55675918540468, -40.76958188648008, -40.09902955282087, -40.09902955282087, -39.80845687490188, -40.367250486284554, -39.02614581896613, -40.92604409766723, -39.13790454124267, -37.930910340656084, -38.512055696494066, -38.243834763030385, -38.26618650748569, -38.243834763030385, -38.19913127411977, -37.50622719600525, -36.96978532907788, -36.7015643956142, -37.126247540265034, -35.82984636185722, -34.93577658364494, -36.09806729532091, -35.24870100601924, -33.12528528276507, -32.41002946019524, -34.06405854988796, -35.405163217206386, -36.76861962898012, -36.478046951061124, -37.394468473728715, -36.858026606801346, -38.109724296298545, -39.13790454124267, -38.6014626743153, -38.512055696494066, -38.53440744094937, -38.981442330055515, -39.048497563421435, -34.958128328100244, -35.89690159522314, -37.75209638501363, -40.367250486284554, -39.49553245252758, -37.86385510729016, -35.89690159522314, -36.94743358462257, -37.48387545154994, -39.00379407451082, -37.05919230689911, -35.78514287294661, -35.203997517108625, -35.53927368393823, -36.008660317499675, -36.05336380641029, -35.09223879483209, -35.18164577265332, -34.44403820562818, -35.338107983840466, -34.84636960582371, -34.62285216127064, -34.891073094734324, -34.66755565018126, -34.91342483918963, -36.76861962898012, -35.91925333967845, -33.97465157206673, -35.22634926156393, -35.56162542839353, -33.885244594245506, -34.57814867236002, -34.44403820562818, -33.572320171871205, -34.19816901661981, -35.1145905392874, -35.06988705037678, -34.04170680543265, -33.12528528276507, -33.885244594245506, -33.28174749395222, -34.1758172721645, -34.354631227806955, -34.64520390572595, -35.09223879483209, -34.68990739463656, -33.79583761642428, -33.66172714969244, -34.39933471671757, -35.24870100601924, -33.14763702722038, -33.572320171871205, -34.086410294343274, -33.59467191632652, -33.77348587196897, -34.91342483918963, -35.00283181701086, -34.91342483918963, -33.99700331652204, -35.136942283742705, -36.45569520660582, -34.86872135027902, -33.572320171871205, -35.00283181701086, -35.136942283742705, -35.85219810631253, -35.29340449492985, -36.410991717695204, -36.67921265115889, -37.9756138295667, -36.96978532907788, -35.56162542839353, -36.589805673337665, -36.858026606801346, -35.874549850767835, -36.52275043997174, -36.187474273142136, -34.37698297226226, -35.53927368393823, -35.69573589512538, -34.86872135027902, -35.136942283742705, -34.57814867236002, -35.449866706117, -34.958128328100244, -34.75696262800248, -36.90273009571196, -35.740439384035994, -32.633546904748314, -35.36045972829577, -36.36628822878459, -32.94647132712261, -32.45473294910585, -37.573282429371176, -39.897863852723106, -33.99700331652204, -32.32062248237401, -38.48970395203876, -37.21565451808626, -32.11945678227625, -35.807494617401915, -37.84150336283486, -37.6626894071924, -39.78610513044657, -38.713221396591834, -39.80845687490188, -38.69086965213653, -39.696698152625345, -40.367250486284554, -38.19913127411977, -38.15442778520916, -38.377945229762226, -37.48387545154994, -38.02031731847731, -37.997965574022004, -37.528578940460555, -37.72974464055832, -37.21565451808626, -37.81915161837955, -38.75792488550245, -38.86968360777898, -38.512055696494066, -37.640337662737096, -38.15442778520916, -37.75209638501363, -38.57911092985999, -39.27201500797451, -38.9367388411449, -39.13790454124267, -39.07084930787675, -37.997965574022004, -36.7015643956142, -38.13207604075385, -38.981442330055515, -37.68504115164771, -37.573282429371176, -37.77444812946894, -36.81332311789073, -38.15442778520916, -38.981442330055515, -39.20495977460859, -39.38377373025104, -39.13790454124267, -39.54023594143819, -40.32254699737394, -40.45665746410578, -40.367250486284554, -39.40612547470635, -39.54023594143819, -39.80845687490188, -40.05432606391025, -39.13790454124267, -38.780276629957754, -39.11555279678736, -38.48970395203876, -39.11555279678736, -39.2496632635192, -39.18260803015328, -39.27201500797451, -39.38377373025104, -38.15442778520916, -36.858026606801346, -36.0757155508656, -37.68504115164771, -39.18260803015328, -39.897863852723106, -40.501360953016395, -39.60729117480412, -39.58493943034881, -40.32254699737394, -40.45665746410578, -39.31671849688512, -39.38377373025104, -39.517884196982884, -38.86968360777898, -38.713221396591834, -38.42264871867284, -39.562587685893504, -38.310889996396305, -36.925081840167266, -39.18260803015328, -39.98727083054433, -39.36142198579574, -38.33324174085161, -38.57911092985999, -39.65199466371473, -37.86385510729016, -37.0368405624438, -36.790971373435426, -37.77444812946894, -37.75209638501363, -37.43917196263933, -38.22148301857508, -38.73557314104714, -37.68504115164771, -38.35559348530692, -37.95326208511139, -38.713221396591834, -39.54023594143819, -39.11555279678736, -38.69086965213653, -38.80262837441306, -38.62381441877061, -39.47318070807227, -39.160256285697976, -38.53440744094937, -38.6014626743153, -39.897863852723106, -39.093201052332056, -38.19913127411977, -38.86968360777898, -38.35559348530692, -39.093201052332056, -38.95909058560021, -39.20495977460859, -38.62381441877061, -37.43917196263933, -36.723916140069505, -35.449866706117, -34.13111378325389, -33.39350621622875, -34.220520761075115, -34.66755565018126, -35.24870100601924, -38.02031731847731, -38.04266906293262, -37.23800626254157, -37.260358006996874, -37.640337662737096, -38.512055696494066, -37.75209638501363, -37.43917196263933, -38.310889996396305, -37.48387545154994, -37.9756138295667, -38.288538251941, -37.930910340656084, -38.08737255184324, -37.28270975145218, -37.21565451808626, -37.30506149590749, -36.76861962898012, -36.36628822878459, -37.01448881798849, -35.807494617401915, -35.71808763958069, -35.740439384035994, -36.120419039776216, -35.06988705037678, -34.84636960582371, -35.22634926156393, -35.58397717284885, -33.77348587196897, -34.555796927904716, -35.69573589512538, -36.76861962898012, -36.723916140069505, -35.62868066175946, -35.53927368393823, -35.338107983840466, -36.16512252868683, -35.69573589512538, -37.23800626254157, -38.53440744094937, -36.74626788452481, -36.925081840167266, -36.25452950650806, -36.7015643956142, -36.27688125096336, -36.858026606801346, -38.04266906293262, -36.723916140069505, -36.56745392888235, -36.90273009571196, -36.14277078423152, -38.13207604075385, -37.21565451808626, -36.45569520660582, -37.260358006996874, -35.71808763958069, -36.61215741779297, -38.42264871867284, -37.573282429371176, -38.22148301857508, -37.86385510729016, -38.62381441877061, -37.37211672927341, -36.3886399732399, -35.271052750474546, -36.56745392888235, -37.43917196263933, -36.343936484329284, -37.9756138295667, -37.37211672927341, -37.79679987392424, -38.26618650748569, -38.15442778520916, -38.06502080738793, -36.63450916224828, -37.08154405135442, -37.193302773630954, -36.03101206195498, -36.32158473987398, -35.673384150670074, -35.136942283742705, -34.91342483918963, -35.338107983840466, -35.69573589512538, -34.62285216127064, -34.5110934389941, -35.98630857304437, -35.85219810631253, -36.7015643956142, -36.120419039776216, -36.27688125096336, -37.68504115164771, -36.63450916224828, -37.14859928472034, -38.86968360777898, -35.91925333967845, -34.06405854988796, -35.807494617401915, -35.85219810631253, -36.16512252868683, -36.410991717695204, -36.56745392888235, -37.48387545154994, -36.67921265115889, -38.40029697421753, -37.50622719600525, -36.478046951061124, -36.81332311789073, -35.449866706117, -34.84636960582371, -36.410991717695204, -37.260358006996874, -35.807494617401915, -36.76861962898012, -36.81332311789073, -37.68504115164771, -37.95326208511139, -36.36628822878459, -37.14859928472034, -36.925081840167266, -35.58397717284885, -36.656860906703585, -35.98630857304437, -35.89690159522314, -37.30506149590749, -37.90855859620078, -37.930910340656084, -37.10389579580973, -37.461523707094635, -37.23800626254157, -37.461523707094635, -37.394468473728715, -38.26618650748569, -37.126247540265034, -36.29923299541867, -37.08154405135442, -37.05919230689911, -37.23800626254157, -36.589805673337665, -36.56745392888235, -36.63450916224828, -36.29923299541867, -36.008660317499675, -36.81332311789073, -36.723916140069505, -35.673384150670074, -35.98630857304437, -35.71808763958069, -36.343936484329284, -36.74626788452481, -37.55093068491586, -37.05919230689911, -36.7015643956142, -38.62381441877061, -37.997965574022004, -37.79679987392424, -38.713221396591834, -37.17095102917565, -37.05919230689911, -38.40029697421753, -39.18260803015328, -38.288538251941, -37.79679987392424, -38.82498011886837, -38.914387096689595, -39.093201052332056, -39.763753385991265, -39.048497563421435, -38.57911092985999, -38.914387096689595, -40.38960223073986, -38.713221396591834, -37.126247540265034, -38.26618650748569, -38.981442330055515, -39.47318070807227, -39.60729117480412, -39.92021559717841, -39.38377373025104], [-54.98529136005538, -55.678195438169894, -55.63349194925928, -55.25351229351906, -57.9133698837006, -56.70637568311402, -56.03582334945481, -56.81813440539055, -57.13105882776485, -56.41580300519502, -55.52173322698275, -56.81813440539055, -55.991119860544195, -55.812305904901734, -56.21463730509726, -56.259340794007876, -56.259340794007876, -57.35457627231792, -57.08635533885424, -56.46050649410564, -57.198114061130774, -57.62279720578161, -57.08635533885424, -56.6393204497481, -57.980425117066524, -58.42746000617266, -58.42746000617266, -59.54504722893802, -59.61210246230394, -58.58392221735981, -58.20394256161959, -59.4779919955721, -58.561570472904506, -57.68985243914753, -56.30404428291849, -57.75690767251345, -58.60627396181512, -58.27099779498551, -57.9133698837006, -59.54504722893802, -58.5392187284492, -58.33805302835143, -59.27682629547433, -58.69568093963635, -59.634454206759244, -59.99208211804416, -58.60627396181512, -57.86866639478998, -58.315701283896125, -57.15341057222016, -57.75690767251345, -58.74038442854696, -58.27099779498551, -59.098012339831875, -58.58392221735981, -57.9133698837006, -57.04165184994363, -58.248646050530205, -59.098012339831875, -57.9357216281559, -58.58392221735981, -58.20394256161959, -59.00860536201065, -59.88032339576762, -59.768564673491085, -60.41676526269499, -59.4779919955721, -59.20977106210841, -57.75690767251345, -58.2262943060749, -58.15923907270898, -58.65097745072573, -58.47216349508328, -58.94155012864472, -57.9357216281559, -58.71803268409165, -60.17089607368661, -58.98625361755534, -59.768564673491085, -59.38858501775086, -57.95807337261121, -58.69568093963635, -59.299178039929636, -59.567398973393324, -59.96973037358885, -59.45564025111678, -60.05913735141008, -58.2262943060749, -58.5392187284492, -56.75107917202463, -55.52173322698275, -56.99694836103301, -56.14758207173134, -56.81813440539055, -58.15923907270898, -59.61210246230394, -59.835619906857005, -59.05330885092126, -57.48868673904977, -57.9133698837006, -58.919198384189414, -58.74038442854696, -57.48868673904977, -59.500343740027404, -60.70733794061398, -59.165067573197796, -59.433288506661476, -59.14271582874249, -58.42746000617266, -60.439117007150294, -61.95903563011118, -60.21559956259723, -59.41093676220617, -59.88032339576762, -59.72386118458047, -59.299178039929636, -58.76273617300227, -59.92502688467823, -61.19907631863074, -61.13202108526482, -60.305006540418454, -60.05913735141008, -60.14854432923131, -61.891980396745254, -63.121326341787146, -62.204904819119555, -61.26613155199666, -62.56253273040447, -62.137849585753635, -62.04844260793241, -62.11549784129833, -61.55670422991565, -62.83075366386815, -64.35067228682904, -61.84727690783464, -62.71899494159162, -61.668462952192186, -61.82492516337933, -61.33318678536258, -61.534352485460346, -61.44494550763911, -60.23795130705253, -60.14854432923131, -60.99791061853298, -61.24377980754135, -60.26030305150784, -59.65680595121455, -61.0649658518989, -61.95903563011118, -59.92502688467823, -61.7131664411028, -62.406070519217316, -59.72386118458047, -60.305006540418454, -61.26613155199666, -61.44494550763911, -60.57322747388214, -60.39441351823968, -60.84144840734582, -60.64028270724806, -60.439117007150294, -59.701509440125164, -59.25447455101902, -61.33318678536258, -61.4002420187285, -60.081489095865386, -60.28265479596315, -61.80257341892403, -61.55670422991565, -60.66263445170337, -60.03678560695477, -57.9133698837006, -58.919198384189414, -59.634454206759244, -59.92502688467823, -60.84144840734582, -62.92016064168938, -63.56836123089329, -61.087317596354204, -60.439117007150294, -61.4002420187285, -61.7131664411028, -62.83075366386815, -61.44494550763911, -61.55670422991565, -59.835619906857005, -60.28265479596315, -60.439117007150294, -60.03678560695477, -61.51200074100504, -61.82492516337933, -61.10966934080951, -58.98625361755534, -59.99208211804416, -61.288483296451965, -61.86962865228995, -62.51782924149386, -61.891980396745254, -60.550875729426835, -60.50617224051622, -60.46146875160561, -59.32152978438494, -61.17672457417543, -61.73551818555811, -61.93668388565587, -60.99791061853298, -61.26613155199666, -61.93668388565587, -61.087317596354204, -62.78605017495754, -60.70733794061398, -59.567398973393324, -61.601407718826266, -62.003739119021795, -62.137849585753635, -61.4002420187285, -61.98138737456649, -59.99208211804416, -59.99208211804416, -61.7131664411028, -61.64611120773688, -63.925989142178196, -63.54600948643798, -62.6519397082257, -62.38371877476201, -61.51200074100504, -62.29431179694078, -62.406070519217316, -62.04844260793241, -61.75786993001341, -63.456602508616754, -63.121326341787146, -63.16602983069776, -63.56836123089329, -64.39537577573965, -64.61889322029272, -62.987215875055306, -63.054271108421226, -62.29431179694078, -62.31666354139609, -63.724823442080435, -64.84241066484579, -65.24474206504132, -65.53531474296031, -63.411899019706134, -62.137849585753635, -62.56253273040447, -61.51200074100504, -61.10966934080951, -62.51782924149386, -63.23308506406368, -62.0260908634771, -62.339015285851396, -63.38954727525083, -62.51782924149386, -62.339015285851396, -60.7743931739799, -59.1874193176531, -61.31083504090727, -61.891980396745254, -62.56253273040447, -61.62375946328157, -62.0260908634771, -61.355538529817885, -62.003739119021795, -62.271960052485476, -64.06009960891004, -64.30596879791842, -64.50713449801619, -65.17768683167539, -65.75883218751338, -65.20003857613071, -64.14950658673126, -63.63541646425921, -63.88128565326758, -62.62958796377039, -63.90363739772289, -65.40120427622847, -65.04357636494355, -64.9094658982117, -65.22239032058602, -65.17768683167539, -64.82005892039048, -61.82492516337933, -60.439117007150294, -59.99208211804416, -58.181590817164285, -52.14661981423138, -43.60825343230408, -38.6014626743153, -32.11945678227625, -26.889148579734396, -22.97759330005566, -17.635526375237273, -11.198223972108838, -9.097159993309974, -8.091331492821157, -2.883375034734611, -0.7599593114804402, 1.430511645139652, 3.0845407348323746, 4.917383780167554, 4.291534935418956, 6.0126192584776, 9.924174538156336, 14.595689129315511, 12.539328639427263, 8.404255915195456, 9.924174538156336, 11.309982694385374, 13.54515713991608, 13.791026328924458, 14.483930407038976, 14.550985640404898, 12.494625150516647, 12.919308295167482, 13.209880973086474, 10.371209427262476, 9.20891871558651, 9.275973948952432, 8.225441959552999, 8.06897974836585, 6.325543680851899, 4.760921568980405, 5.006790757988782, 7.823110559357472, 6.99609601451111, 6.169081469664749, 8.158386726187079, 8.940697782122825, 8.44895940410607, 7.063151247877032, 9.05245650439936, 10.102988493798792, 9.58889837132673, 8.985401271033439, 9.275973948952432, 9.857119304790414, 8.404255915195456, 7.756055325991551, 10.237098960530634, 9.074808248854668, 9.365380926773659, 6.839633803323961, 8.113683237276463, 11.533500138938445, 10.415912916173092, 11.64525886121498, 13.500453651005467, 12.002886772499892, 14.260412962485907, 18.619003131270784, 19.71423860958083, 18.48489266453894, 18.730761853547317, 17.12143625276521, 16.808511830390913, 16.96497404157806, 20.429494432150655, 19.133093253742846, 14.30511645139652, 14.059247262388142, 16.383828685740077, 15.847386818812707, 16.115607752276393, 16.942622297122753, 16.249718219008233, 18.12726475325403, 18.328430453351793, 15.892090307723322, 17.322601952862975, 15.668572863170251, 16.67440136365907, 16.249718219008233, 13.835729817835071, 16.562642641382535, 16.74145659702499, 17.36730544177359, 16.115607752276393, 16.473235663561304, 15.37800018525126, 16.942622297122753, 20.138921754231664, 17.412008930684202, 15.489758907527795, 17.680229864147886, 17.076732763854597, 18.216671731075255, 18.10491300879872, 17.05438101939929, 15.869738563268015, 15.333296696340645, 15.512110651983102, 17.903747308700957, 17.300250208407668, 16.67440136365907, 15.780331585446786, 15.467407163072487, 16.74145659702499, 16.629697874748455, 16.07090426336578, 16.339125196829464, 14.841558318323889, 16.093256007821086, 18.19431998661995, 16.182662985642313, 16.74145659702499, 19.580128142848988, 19.11074150928754, 19.423665931661837, 16.562642641382535, 17.791988586424424, 18.842520575823855, 18.529596153449553, 17.791988586424424, 18.26137521998587, 17.50141590850543, 16.808511830390913, 17.34495369731828, 16.83086357484622, 15.087427507332267, 11.86877630576805, 14.886261807234504, 18.41783743117302, 18.462540920083633, 17.233194975041744, 18.0378577754328, 18.10491300879872, 17.300250208407668, 18.462540920083633, 18.19431998661995, 13.679267606647922, 14.416875173673056, 16.160311241187006, 13.969840284566914, 7.53253788143848, -3.442168646117288, -10.035933260432872, -15.020372273966347, -23.223462489064037, -33.572320171871205, -42.22244527607504, -52.39248900323975, -60.886151896256436, -69.08924211135412, -77.13587011526468, -83.12613762928697, -89.07170165439865, -96.11250115782038, -99.84524248185664, -103.95796346163314, -105.7013995291471, -106.3272483738957, -108.60712630833702, -107.6236495523035, -107.6012978078482, -108.13773967477557, -108.31655363041803, -106.05902744043202, -106.64017279627, -106.23784139607447, -103.84620473935661, -104.53910881747113, -106.39430360726162, -105.81315825142363, -105.63434429578118, -106.59546930735938, -105.88021348478955, -105.23201289558565, -104.36029486182868, -104.06972218390969, -103.13094891678679, -102.43804483867227, -102.01336169402144, -102.01336169402144, -103.04154193896557, -101.56632680491529, -101.23105063808569, -100.962829704622, -99.7111320151248, -100.56049830442647, -99.59937329284827, -98.14650990325332, -98.4370825811723, -98.25826862552985, -96.76070174702427, -97.1406814027645, -95.2407831240634, -96.06779766890976, -94.59258253485949, -91.91037320022264, -90.54691678844891, -87.6635417537143, -88.37879757628413, -89.49638479904948, -89.92106794370031, -91.55274528893773, -90.63632376627014, -88.87053595430088, -90.07753015488747, -91.26217261101874, -89.20581212113049, -87.57413477589307, -86.30008534194057, -86.85887895332324, -88.53525978747128, -86.92593418668916, -86.90358244223385, -85.54012603046013, -85.02603590798806, -85.87540219728973, -85.58482951937074, -86.47889929758303, -84.86957369680091, -84.73546323006907, -85.02603590798806, -85.7859952194685, -85.7859952194685, -84.80251846343499, -84.66840799670315, -86.47889929758303, -85.33896033036237, -84.8472219523456, -85.92010568620034, -86.99298942005508, -84.95898067462214, -85.7636434750132, -86.07656789738749, -84.86957369680091, -85.20484986363053, -85.47307079709421, -84.98133241907745, -85.47307079709421, -85.47307079709421, -84.62370450779254, -83.84139345185679, -84.4895940410607, -85.56247777491544, -85.65188475273666, -86.21067836411935, -86.97063767559978, -86.3671405753065, -85.74129173055789, -85.47307079709421, -84.31078008541824, -83.43906205166127, -83.72963472958025, -84.64605625224785, -84.95898067462214, -83.79668996294618, -83.95315217413332, -84.8472219523456, -84.62370450779254, -84.511945785516, -83.05908239592104, -80.98037016157748, -82.0085504065216, -82.67910274018082, -81.00272190603279, -81.87443993978977, -82.54499227344898, -82.16501261770877, -83.2155446071082, -82.47793704008306, -81.47210853959425, -79.90748642772274, -79.34869281634008, -78.85695443832331, -79.03576839396577, -81.18153586167526, -79.30398932742946, -79.95218991663336, -81.0250736504881, -80.55568701692665, -80.66744573920319, -80.73450097256911, -80.62274225029257, -81.15918411721995, -80.60039050583727, -80.44392829465012, -80.7121492281138, -80.82390795039034, -81.18153586167526, -81.71797772860262, -80.57803876138196, -79.70632072762498, -78.58873350485963, -79.68396898316968, -81.11448062830934, -81.09212888385402, -78.4993265270384, -78.1416986157535, -79.90748642772274, -79.08047188287638, -79.54985851643784, -80.28746608346297, -80.06394863890989, -78.38756780476187, -78.4769747825831, -77.56055325991551, -76.71118697061384, -78.23110559357472, -79.68396898316968, -79.30398932742946, -79.28163758297416, -78.87930618277862, -79.48280328307192, -79.46045153861661, -78.07464338238756, -77.24762883754121, -78.4769747825831, -79.72867247208029, -80.98037016157748, -81.49446028404955, -79.4380997941613, -78.09699512684287, -76.9123526707116, -77.96288466011103, -78.54403001594902, -77.38173930427305, -77.00175964853283, -78.02993989347695, -79.95218991663336, -78.834602693868, -78.70049222713617, -78.09699512684287, -77.22527709308591, -78.63343699377025, -77.73936721555796, -78.09699512684287, -78.36521606030657, -77.69466372664735, -77.31468407090713, -76.35355905932893, -76.97940790407752, -76.35355905932893, -78.76754746050209, -77.29233232645183, -76.77824220397976, -79.4380997941613, -78.25345733803003, -78.02993989347695, -78.4769747825831, -77.94053291565572, -76.77824220397976, -75.79476544794625, -75.6159514923038, -76.53237301497138, -74.40895729171721, -76.15239335923117, -77.44879453763897, -76.2641520815077, -75.99593114804401, -75.43713753666134, -75.12421311428703, -75.14656485874235, -75.41478579220603, -75.92887591467809, -77.22527709308591, -76.42061429269485, -75.45948928111665, -75.90652417022278, -74.6771782251809, -72.88903866875633, -73.85016368033453, -75.14656485874235, -72.26318982400774, -74.0960328693429, -75.34773055884011, -73.69370146914738, -74.45366078062783, -73.4031287912284, -74.45366078062783, -75.92887591467809, -75.0124543920105, -74.02897763597699, -74.54306775844906, -74.83364043636804, -73.4031287912284, -72.64316947974795, -75.52654451448257, -75.05715788092111, -73.49253576904962, -72.55376250192673, -71.90556191272282, -72.4643555241055, -73.35842530231778, -72.7996316909351, -73.24666658004125, -73.47018402459432, -73.98427414706637, -73.58194274687085, -72.86668692430102, -73.89486716924515, -73.55959100241554, -71.68204446816975, -71.32441655688484, -70.94443690114461, -72.30789331291835, -73.62664623578146, -73.20196309113064, -70.94443690114461, -71.34676830134015, -72.28554156846305, -73.33607355786248, -74.16308810270884, -72.93374215766694, -70.65386422322563, -71.68204446816975, -71.68204446816975, -71.8385066793569, -72.12907935727588, -72.59846599083734, -72.08437586836527, -71.25736132351892, -70.49740201203848, -70.49740201203848, -70.49740201203848, -71.10089911233176, -71.30206481242953, -71.72674795708036, -71.63734097925914, -70.83267817886808, -72.08437586836527, -72.10672761282058, -70.54210550094909, -70.65386422322563, -70.34093980085133, -70.05036712293233, -71.72674795708036, -71.99496889054404, -72.17378284618651, -72.35259680182897, -71.79380319044628, -72.26318982400774, -71.99496889054404, -71.77145144599098, -71.07854736787645, -70.20682933411949, -70.45269852312786, -71.68204446816975, -72.10672761282058, -70.85502992332339, -70.72091945659155, -70.60916073431501, -70.51975375649378, -71.21265783460831, -71.68204446816975, -72.68787296865857, -71.07854736787645]]
