['beep', 0.0, 4289.053891784417, 0.0, 0.0, 0.0, 0.0, -2662.1151163715263, 0.0]
['beep', 0.0, 4292.5631156639, 0.0, 0.0, 0.0, 0.0, -2661.8245436936077, 0.0]
['beep', 0.0, 4300.94501983464, 0.0, 0.0, 0.0, 0.0, -2659.4329070368894, 0.0]
['beep', 0.0, 4299.782729122964, 0.0, 0.0, 0.0, 0.0, -2659.611720992532, 0.0]
['beep', 0.0, 4290.03736854045, 0.0, 0.0, 0.0, 0.0, -2664.0150146502274, 0.0]
['beep', 0.0, 4283.2647899704925, 0.0, 0.0, 0.0, 0.0, -2661.109287871038, 0.0]
['beep', 0.0, 4285.522316160478, 0.0, 0.0, 0.0, 0.0, -2657.7118227138308, 0.0]
['beep', 0.0, 4291.84785984133, 0.0, 0.0, 0.0, 0.0, -2662.00335764925, 0.0]
['beep', 0.0, 4293.457185442113, 0.0, 0.0, 0.0, 0.0, -2660.9975291487613, 0.0]
['beep', 0.0, 4284.22591498207, 0.0, 0.0, 0.0, 0.0, -2660.103459370549, 0.0]
['beep', 0.0, 4276.581618378355, 0.0, 0.0, 0.0, 0.0, -2662.1151163715263, 0.0]
['beep', 0.0, 4280.090842257839, 0.0, 0.0, 0.0, 0.0, -2660.774011704208, 0.0]
['beep', 0.0, 4289.031540039961, 0.0, 0.0, 0.0, 0.0, -2660.0587558816383, 0.0]
['beep', 0.0, 4290.059720284906, 0.0, 0.0, 0.0, 0.0, -2661.779840204697, 0.0]
['beep', 0.0, 4280.649635869221, 0.0, 0.0, 0.0, 0.0, -2662.830372194096, 0.0]
['beep', 0.0, 4270.8819235422525, 0.0, 0.0, 0.0, 0.0, -2663.120944872015, 0.0]
['beep', 0.0, 4272.826525309864, 0.0, 0.0, 0.0, 0.0, -2664.2832355836913, 0.0]
['beep', 0.0, 4282.169554492182, 0.0, 0.0, 0.0, 0.0, -2662.4056890494453, 0.0]
['beep', 0.0, 4285.634074882755, 0.0, 0.0, 0.0, 0.0, -2659.6564244814426, 0.0]
['beep', 0.0, 4273.2288567100595, 0.0, 0.0, 0.0, 0.0, -2662.1151163715263, 0.0]
['beep', 0.0, 4257.336766402336, 0.0, 0.0, 0.0, 0.0, -2660.550494259655, 0.0]
['beep', 0.0, 4253.738135545032, 0.0, 0.0, 0.0, 0.0, -2655.8342761795852, 0.0]
['beep', 0.0, 4260.287196670437, 0.0, 0.0, 0.0, 0.0, -2649.061697609627, 0.0]
['beep', 0.0, 4255.638033823733, 0.0, 0.0, 0.0, 0.0, -2646.200674319348, 0.0]
['beep', 0.0, 4243.903367984697, 0.0, 0.0, 0.0, 0.0, -2647.0276888641943, 0.0]
['beep', 0.0, 4233.912138213174, 0.0, 0.0, 0.0, 0.0, -2644.971328374306, 0.0]
['beep', 0.0, 4234.7838562469315, 0.0, 0.0, 0.0, 0.0, -2644.5242934852, 0.0]
['beep', 0.0, 4242.204635406093, 0.0, 0.0, 0.0, 0.0, -2642.2444155507583, 0.0]
['beep', 0.0, 4246.138542430227, 0.0, 0.0, 0.0, 0.0, -2641.1268283279933, 0.0]
['beep', 0.0, 4237.510769070479, 0.0, 0.0, 0.0, 0.0, -2639.1598748159263, 0.0]
['beep', 0.0, 4228.0336294214285, 0.0, 0.0, 0.0, 0.0, -2635.784761403175, 0.0]
['beep', 0.0, 4229.710010255577, 0.0, 0.0, 0.0, 0.0, -2636.2541480367363, 0.0]
['beep', 0.0, 4239.74594351601, 0.0, 0.0, 0.0, 0.0, -2639.7857236606746, 0.0]
['beep', 0.0, 4242.338745872825, 0.0, 0.0, 0.0, 0.0, -2641.596214961555, 0.0]
['beep', 0.0, 4232.660440523678, 0.0, 0.0, 0.0, 0.0, -2643.1161335845154, 0.0]
['beep', 0.0, 4224.993792175507, 0.0, 0.0, 0.0, 0.0, -2644.457238251834, 0.0]
['beep', 0.0, 4227.273670109948, 0.0, 0.0, 0.0, 0.0, -2645.261901052225, 0.0]
['beep', 0.0, 4236.415533592169, 0.0, 0.0, 0.0, 0.0, -2643.3620027735237, 0.0]
['beep', 0.0, 4238.918928971163, 0.0, 0.0, 0.0, 0.0, -2642.4008777619456, 0.0]
['beep', 0.0, 4228.748885243998, 0.0, 0.0, 0.0, 0.0, -2644.5913487185658, 0.0]
['beep', 0.0, 4221.149292129194, 0.0, 0.0, 0.0, 0.0, -2647.9441103868617, 0.0]
['beep', 0.0, 4221.775140973943, 0.0, 0.0, 0.0, 0.0, -2647.1170958420153, 0.0]
['beep', 0.0, 4228.771236988454, 0.0, 0.0, 0.0, 0.0, -2648.8828836539847, 0.0]
['beep', 0.0, 4225.731399742532, 0.0, 0.0, 0.0, 0.0, -2650.38045053249, 0.0]
['beep', 0.0, 4221.953954929585, 0.0, 0.0, 0.0, 0.0, -2649.732249943286, 0.0]
['beep', 0.0, 4227.497187554502, 0.0, 0.0, 0.0, 0.0, -2643.451409751345, 0.0]
['beep', 0.0, 4239.500074327001, 0.0, 0.0, 0.0, 0.0, -2644.1219620850043, 0.0]
['beep', 0.0, 4259.303719914404, 0.0, 0.0, 0.0, 0.0, -2647.4747237533, 0.0]
['beep', 0.0, 4271.485420642545, 0.0, 0.0, 0.0, 0.0, -2647.1170958420153, 0.0]
['beep', 0.0, 4270.948978775618, 0.0, 0.0, 0.0, 0.0, -2647.9441103868617, 0.0]
['beep', 0.0, 4272.088917742839, 0.0, 0.0, 0.0, 0.0, -2648.815828420619, 0.0]
['beep', 0.0, 4287.042234783439, 0.0, 0.0, 0.0, 0.0, -2650.00047087675, 0.0]
['beep', 0.0, 4304.320133247392, 0.0, 0.0, 0.0, 0.0, -2648.771124931708, 0.0]
['beep', 0.0, 4315.585412452867, 0.0, 0.0, 0.0, 0.0, -2647.765296431219, 0.0]
['beep', 0.0, 4314.467825230101, 0.0, 0.0, 0.0, 0.0, -2649.486380754278, 0.0]
['beep', 0.0, 4313.126720562783, 0.0, 0.0, 0.0, 0.0, -2650.514560999222, 0.0]
['beep', 0.0, 4321.598031711344, 0.0, 0.0, 0.0, 0.0, -2651.9003691554512, 0.0]
['beep', 0.0, 4338.920633664207, 0.0, 0.0, 0.0, 0.0, -2654.1802470898924, 0.0]
['beep', 0.0, 4346.877854690297, 0.0, 0.0, 0.0, 0.0, -2651.6321482219873, 0.0]
['beep', 0.0, 4344.463866289123, 0.0, 0.0, 0.0, 0.0, -2653.129715100493, 0.0]
['beep', 0.0, 4339.702944720143, 0.0, 0.0, 0.0, 0.0, -2662.2492268382584, 0.0]
['beep', 0.0, 4347.436648301679, 0.0, 0.0, 0.0, 0.0, -2654.1802470898924, 0.0]
['beep', 0.0, 4355.304462349947, 0.0, 0.0, 0.0, 0.0, -2650.1122295990267, 0.0]
['beep', 0.0, 4357.182008884193, 0.0, 0.0, 0.0, 0.0, -2644.0772585960935, 0.0]
['beep', 0.0, 4346.363764567825, 0.0, 0.0, 0.0, 0.0, -2645.8877498969737, 0.0]
['beep', 0.0, 4338.76417145302, 0.0, 0.0, 0.0, 0.0, -2649.687546454376, 0.0]
['beep', 0.0, 4341.781656954487, 0.0, 0.0, 0.0, 0.0, -2648.8605319095295, 0.0]
['beep', 0.0, 4349.0683256469165, 0.0, 0.0, 0.0, 0.0, -2648.972290631806, 0.0]
['beep', 0.0, 4348.956566924639, 0.0, 0.0, 0.0, 0.0, -2650.9168923994175, 0.0]
['beep', 0.0, 4337.490122019068, 0.0, 0.0, 0.0, 0.0, -2652.615624978021, 0.0]
['beep', 0.0, 4328.437665514668, 0.0, 0.0, 0.0, 0.0, -2653.979081389795, 0.0]
['beep', 0.0, 4327.543595736456, 0.0, 0.0, 0.0, 0.0, -2654.515523256722, 0.0]
['beep', 0.0, 4336.081962118383, 0.0, 0.0, 0.0, 0.0, -2652.973252889306, 0.0]
['beep', 0.0, 4338.495950519557, 0.0, 0.0, 0.0, 0.0, -2653.554398245144, 0.0]
['beep', 0.0, 4328.549424236944, 0.0, 0.0, 0.0, 0.0, -2655.5660552461213, 0.0]
['beep', 0.0, 4320.122816577294, 0.0, 0.0, 0.0, 0.0, -2656.974215146806, 0.0]
['beep', 0.0, 4321.2404038000595, 0.0, 0.0, 0.0, 0.0, -2657.9800436472947, 0.0]
['beep', 0.0, 4329.063514359416, 0.0, 0.0, 0.0, 0.0, -2658.0918023695713, 0.0]
['beep', 0.0, 4331.432799271679, 0.0, 0.0, 0.0, 0.0, -2656.5271802577, 0.0]
['beep', 0.0, 4321.2404038000595, 0.0, 0.0, 0.0, 0.0, -2656.996566891261, 0.0]
['beep', 0.0, 4312.120892062294, 0.0, 0.0, 0.0, 0.0, -2658.583540747588, 0.0]
['beep', 0.0, 4314.266659530003, 0.0, 0.0, 0.0, 0.0, -2658.7623547032304, 0.0]
['beep', 0.0, 4322.693267189654, 0.0, 0.0, 0.0, 0.0, -2657.7341744582864, 0.0]
['beep', 0.0, 4324.749627679543, 0.0, 0.0, 0.0, 0.0, -2659.835238437085, 0.0]
['beep', 0.0, 4313.886679874263, 0.0, 0.0, 0.0, 0.0, -2662.5845030050878, 0.0]
['beep', 0.0, 4305.907107103719, 0.0, 0.0, 0.0, 0.0, -2661.936302415884, 0.0]
['beep', 0.0, 4308.544612949445, 0.0, 0.0, 0.0, 0.0, -2660.796363448663, 0.0]
['beep', 0.0, 4316.0771508308835, 0.0, 0.0, 0.0, 0.0, -2660.818715193119, 0.0]
['beep', 0.0, 4318.826415398886, 0.0, 0.0, 0.0, 0.0, -2661.131639615493, 0.0]
['beep', 0.0, 4308.254040271526, 0.0, 0.0, 0.0, 0.0, -2663.4338692943898, 0.0]
['beep', 0.0, 4298.8216041113865, 0.0, 0.0, 0.0, 0.0, -2666.1384303734817, 0.0]
['beep', 0.0, 4301.257944257015, 0.0, 0.0, 0.0, 0.0, -2664.640863494976, 0.0]
['beep', 0.0, 4308.343447249347, 0.0, 0.0, 0.0, 0.0, -2662.785668705186, 0.0]
['beep', 0.0, 4310.958601350618, 0.0, 0.0, 0.0, 0.0, -2661.6680814824203, 0.0]
['beep', 0.0, 4302.2861245019585, 0.0, 0.0, 0.0, 0.0, -2661.578674504599, 0.0]
['beep', 0.0, 4293.121909275283, 0.0, 0.0, 0.0, 0.0, -2663.2997588276576, 0.0]
['beep', 0.0, 4295.602952909822, 0.0, 0.0, 0.0, 0.0, -2662.808020449641, 0.0]
['beep', 0.0, 4305.035389069962, 0.0, 0.0, 0.0, 0.0, -2663.970311161317, 0.0]
['beep', 0.0, 4306.734121648565, 0.0, 0.0, 0.0, 0.0, -2662.472744282811, 0.0]
['beep', 0.0, 4297.592258166344, 0.0, 0.0, 0.0, 0.0, -2665.803154206652, 0.0]
['beep', 0.0, 4288.763319106498, 0.0, 0.0, 0.0, 0.0, -2667.948921674362, 0.0]
['beep', 0.0, 4289.702092373621, 0.0, 0.0, 0.0, 0.0, -2666.9207414294174, 0.0]
['beep', 0.0, 4299.0004180670285, 0.0, 0.0, 0.0, 0.0, -2659.2093895923367, 0.0]
['beep', 0.0, 4302.084958801861, 0.0, 0.0, 0.0, 0.0, -2658.203561091848, 0.0]
['beep', 0.0, 4291.624342396777, 0.0, 0.0, 0.0, 0.0, -2661.3104535711354, 0.0]
['beep', 0.0, 4281.767223091987, 0.0, 0.0, 0.0, 0.0, -2662.5845030050878, 0.0]
['beep', 0.0, 4282.862458570296, 0.0, 0.0, 0.0, 0.0, -2662.673909982909, 0.0]
['beep', 0.0, 4292.004322052518, 0.0, 0.0, 0.0, 0.0, -2663.6350349944873, 0.0]
['beep', 0.0, 4295.1782697651715, 0.0, 0.0, 0.0, 0.0, -2664.3055873281464, 0.0]
['beep', 0.0, 4286.505792916512, 0.0, 0.0, 0.0, 0.0, -2667.658348996443, 0.0]
['beep', 0.0, 4277.207467223104, 0.0, 0.0, 0.0, 0.0, -2663.9256076724064, 0.0]
['beep', 0.0, 4279.599103879822, 0.0, 0.0, 0.0, 0.0, -2660.706956470842, 0.0]
['beep', 0.0, 4288.875077828775, 0.0, 0.0, 0.0, 0.0, -2659.611720992532, 0.0]
['beep', 0.0, 4292.004322052518, 0.0, 0.0, 0.0, 0.0, -2660.3046250706466, 0.0]
['beep', 0.0, 4282.214257981093, 0.0, 0.0, 0.0, 0.0, -2663.5232762722108, 0.0]
['beep', 0.0, 4272.625359609766, 0.0, 0.0, 0.0, 0.0, -2665.713747228831, 0.0]
['beep', 0.0, 4275.061699755394, 0.0, 0.0, 0.0, 0.0, -2663.612683250032, 0.0]
['beep', 0.0, 4282.951865548118, 0.0, 0.0, 0.0, 0.0, -2661.869247182518, 0.0]
['beep', 0.0, 4286.528144660967, 0.0, 0.0, 0.0, 0.0, -2660.0140523927275, 0.0]
['beep', 0.0, 4277.140411989738, 0.0, 0.0, 0.0, 0.0, -2662.159819860437, 0.0]
['beep', 0.0, 4267.08212698485, 0.0, 0.0, 0.0, 0.0, -2663.9479594168615, 0.0]
['beep', 0.0, 4269.630225852755, 0.0, 0.0, 0.0, 0.0, -2664.104421628049, 0.0]
['beep', 0.0, 4278.392109679236, 0.0, 0.0, 0.0, 0.0, -2661.3775088045013, 0.0]
['beep', 0.0, 4281.99074053654, 0.0, 0.0, 0.0, 0.0, -2661.153991359948, 0.0]
['beep', 0.0, 4273.027691009962, 0.0, 0.0, 0.0, 0.0, -2667.032500151694, 0.0]
['beep', 0.0, 4262.790592049431, 0.0, 0.0, 0.0, 0.0, -2668.2394943522804, 0.0]
['beep', 0.0, 4265.159876961694, 0.0, 0.0, 0.0, 0.0, -2660.2152180928256, 0.0]
['beep', 0.0, 4275.866362555786, 0.0, 0.0, 0.0, 0.0, -2658.4047267919454, 0.0]
['beep', 0.0, 4278.660330612699, 0.0, 0.0, 0.0, 0.0, -2656.236607579781, 0.0]
['beep', 0.0, 4268.020900251973, 0.0, 0.0, 0.0, 0.0, -2657.8235814361074, 0.0]
['beep', 0.0, 4256.286234412937, 0.0, 0.0, 0.0, 0.0, -2659.1199826145153, 0.0]
['beep', 0.0, 4260.153086203705, 0.0, 0.0, 0.0, 0.0, -2660.9528256598505, 0.0]
['beep', 0.0, 4275.441679411135, 0.0, 0.0, 0.0, 0.0, -2660.796363448663, 0.0]
['beep', 0.0, 4280.649635869221, 0.0, 0.0, 0.0, 0.0, -2658.0918023695713, 0.0]
['beep', 0.0, 4265.785725806442, 0.0, 0.0, 0.0, 0.0, -2658.6282442364986, 0.0]
['beep', 0.0, 4251.815885521875, 0.0, 0.0, 0.0, 0.0, -2660.483439026289, 0.0]
['beep', 0.0, 4254.118115200772, 0.0, 0.0, 0.0, 0.0, -2660.461087281834, 0.0]
['beep', 0.0, 4269.160839219194, 0.0, 0.0, 0.0, 0.0, -2658.7176512143196, 0.0]
['beep', 0.0, 4275.396975922225, 0.0, 0.0, 0.0, 0.0, -2659.187037847881, 0.0]
['beep', 0.0, 4260.622472837266, 0.0, 0.0, 0.0, 0.0, -2662.472744282811, 0.0]
['beep', 0.0, 4244.104533684795, 0.0, 0.0, 0.0, 0.0, -2664.104421628049, 0.0]
['beep', 0.0, 4252.84406576682, 0.0, 0.0, 0.0, 0.0, -2665.445526295367, 0.0]
['beep', 0.0, 4274.838182310842, 0.0, 0.0, 0.0, 0.0, -2667.032500151694, 0.0]
['beep', 0.0, 4277.699205601121, 0.0, 0.0, 0.0, 0.0, -2669.558247275144, 0.0]
['beep', 0.0, 4263.304682171904, 0.0, 0.0, 0.0, 0.0, -2671.972235676317, 0.0]
['beep', 0.0, 4249.804228520898, 0.0, 0.0, 0.0, 0.0, -2675.3026456001576, 0.0]
['beep', 0.0, 4253.022879722462, 0.0, 0.0, 0.0, 0.0, -2674.4309275664004, 0.0]
['beep', 0.0, 4267.864438040786, 0.0, 0.0, 0.0, 0.0, -2672.6874914988866, 0.0]
['beep', 0.0, 4273.184153221149, 0.0, 0.0, 0.0, 0.0, -2674.0062444217497, 0.0]
['beep', 0.0, 4258.364946647281, 0.0, 0.0, 0.0, 0.0, -2674.095651399571, 0.0]
['beep', 0.0, 4244.864492996275, 0.0, 0.0, 0.0, 0.0, -2676.2414188672806, 0.0]
['beep', 0.0, 4249.200731420605, 0.0, 0.0, 0.0, 0.0, -2677.001378178761, 0.0]
['beep', 0.0, 4265.115173472783, 0.0, 0.0, 0.0, 0.0, -2674.229761866303, 0.0]
['beep', 0.0, 4270.144315975227, 0.0, 0.0, 0.0, 0.0, -2671.905180442951, 0.0]
['beep', 0.0, 4256.375641390758, 0.0, 0.0, 0.0, 0.0, -2672.3969188209676, 0.0]
['beep', 0.0, 4241.534083072434, 0.0, 0.0, 0.0, 0.0, -2673.6262647660096, 0.0]
['beep', 0.0, 4245.244472652015, 0.0, 0.0, 0.0, 0.0, -2675.324997344613, 0.0]
['beep', 0.0, 4260.488362370535, 0.0, 0.0, 0.0, 0.0, -2674.3191688441243, 0.0]
['beep', 0.0, 4266.612740351288, 0.0, 0.0, 0.0, 0.0, -2670.452317053356, 0.0]
['beep', 0.0, 4251.41355412168, 0.0, 0.0, 0.0, 0.0, -2671.7263664873085, 0.0]
['beep', 0.0, 4236.50494056999, 0.0, 0.0, 0.0, 0.0, -2675.459107811345, 0.0]
['beep', 0.0, 4239.4777225825455, 0.0, 0.0, 0.0, 0.0, -2674.6320932664985, 0.0]
['beep', 0.0, 4255.123943701261, 0.0, 0.0, 0.0, 0.0, -2671.3463868315685, 0.0]
['beep', 0.0, 4262.343557160325, 0.0, 0.0, 0.0, 0.0, -2668.552418774655, 0.0]
['beep', 0.0, 4248.9325104871405, 0.0, 0.0, 0.0, 0.0, -2670.251151353258, 0.0]
['beep', 0.0, 4233.442751579613, 0.0, 0.0, 0.0, 0.0, -2673.2462851102696, 0.0]
['beep', 0.0, 4235.230891136038, 0.0, 0.0, 0.0, 0.0, -2673.9168374439287, 0.0]
['beep', 0.0, 4250.36302213228, 0.0, 0.0, 0.0, 0.0, -2671.9498839318617, 0.0]
['beep', 0.0, 4257.783801291443, 0.0, 0.0, 0.0, 0.0, -2670.608779264543, 0.0]
['beep', 0.0, 4243.724554029054, 0.0, 0.0, 0.0, 0.0, -2671.6369595094875, 0.0]
['beep', 0.0, 4229.397085833202, 0.0, 0.0, 0.0, 0.0, -2674.4979827997668, 0.0]
['beep', 0.0, 4231.833425978831, 0.0, 0.0, 0.0, 0.0, -2674.6991484998644, 0.0]
['beep', 0.0, 4247.569054075367, 0.0, 0.0, 0.0, 0.0, -2670.586427520088, 0.0]
['beep', 0.0, 4254.967481490074, 0.0, 0.0, 0.0, 0.0, -2667.4124798074345, 0.0]
['beep', 0.0, 4241.98111796154, 0.0, 0.0, 0.0, 0.0, -2671.771069976219, 0.0]
['beep', 0.0, 4226.31254509837, 0.0, 0.0, 0.0, 0.0, -2672.1063461430485, 0.0]
['beep', 0.0, 4229.307678855381, 0.0, 0.0, 0.0, 0.0, -2670.0946891420713, 0.0]
['beep', 0.0, 4246.674984297155, 0.0, 0.0, 0.0, 0.0, -2669.714709486331, 0.0]
['beep', 0.0, 4253.671080311666, 0.0, 0.0, 0.0, 0.0, -2670.586427520088, 0.0]
['beep', 0.0, 4233.107475412783, 0.0, 0.0, 0.0, 0.0, -2671.458145553845, 0.0]
['beep', 0.0, 4214.332010070326, 0.0, 0.0, 0.0, 0.0, -2670.809944964641, 0.0]
['beep', 0.0, 4219.897594439697, 0.0, 0.0, 0.0, 0.0, -2673.4027473214564, 0.0]
['beep', 0.0, 4233.509806812979, 0.0, 0.0, 0.0, 0.0, -2674.6544450109536, 0.0]
['beep', 0.0, 4239.0083359489845, 0.0, 0.0, 0.0, 0.0, -2673.29098859918, 0.0]
['beep', 0.0, 4225.798454975898, 0.0, 0.0, 0.0, 0.0, -2674.2074101218477, 0.0]
['beep', 0.0, 4209.21346059006, 0.0, 0.0, 0.0, 0.0, -2676.9790264343055, 0.0]
['beep', 0.0, 4213.862623436764, 0.0, 0.0, 0.0, 0.0, -2678.029558423705, 0.0]
['beep', 0.0, 4230.291155611415, 0.0, 0.0, 0.0, 0.0, -2673.6262647660096, 0.0]
['beep', 0.0, 4236.616699292266, 0.0, 0.0, 0.0, 0.0, -2670.4970205422665, 0.0]
['beep', 0.0, 4222.8703764522525, 0.0, 0.0, 0.0, 0.0, -2672.709843243342, 0.0]
['beep', 0.0, 4209.034646634418, 0.0, 0.0, 0.0, 0.0, -2674.185058377392, 0.0]
['beep', 0.0, 4211.426283291135, 0.0, 0.0, 0.0, 0.0, -2675.704977000353, 0.0]
['beep', 0.0, 4227.541891043412, 0.0, 0.0, 0.0, 0.0, -2673.6486165104648, 0.0]
['beep', 0.0, 4233.688620768621, 0.0, 0.0, 0.0, 0.0, -2670.586427520088, 0.0]
['beep', 0.0, 4219.763483972965, 0.0, 0.0, 0.0, 0.0, -2671.0781658981045, 0.0]
['beep', 0.0, 4204.676056465632, 0.0, 0.0, 0.0, 0.0, -2673.447450810367, 0.0]
['beep', 0.0, 4207.313562311359, 0.0, 0.0, 0.0, 0.0, -2672.9780641768057, 0.0]
['beep', 0.0, 4223.004486918984, 0.0, 0.0, 0.0, 0.0, -2672.5310292876998, 0.0]
['beep', 0.0, 4230.2017486335935, 0.0, 0.0, 0.0, 0.0, -2670.3629100755347, 0.0]
['beep', 0.0, 4217.952992672085, 0.0, 0.0, 0.0, 0.0, -2668.1724391189146, 0.0]
['beep', 0.0, 4202.865565164753, 0.0, 0.0, 0.0, 0.0, -2670.675834497909, 0.0]
['beep', 0.0, 4205.011332632463, 0.0, 0.0, 0.0, 0.0, -2671.0558141536494, 0.0]
['beep', 0.0, 4220.948126429096, 0.0, 0.0, 0.0, 0.0, -2670.161744375437, 0.0]
['beep', 0.0, 4227.251318365493, 0.0, 0.0, 0.0, 0.0, -2666.8983896849622, 0.0]
['beep', 0.0, 4213.460292036569, 0.0, 0.0, 0.0, 0.0, -2666.607817007043, 0.0]
['beep', 0.0, 4198.194050573594, 0.0, 0.0, 0.0, 0.0, -2668.5971222635653, 0.0]
['beep', 0.0, 4202.217364575549, 0.0, 0.0, 0.0, 0.0, -2668.708880985842, 0.0]
['beep', 0.0, 4218.2882688389145, 0.0, 0.0, 0.0, 0.0, -2667.7924594631745, 0.0]
['beep', 0.0, 4223.9209084416525, 0.0, 0.0, 0.0, 0.0, -2666.965444918328, 0.0]
['beep', 0.0, 4211.448635035591, 0.0, 0.0, 0.0, 0.0, -2667.390128062979, 0.0]
['beep', 0.0, 4196.1600418281605, 0.0, 0.0, 0.0, 0.0, -2667.323072829613, 0.0]
['beep', 0.0, 4199.468100007546, 0.0, 0.0, 0.0, 0.0, -2667.4124798074345, 0.0]
['beep', 0.0, 4215.02491414844, 0.0, 0.0, 0.0, 0.0, -2666.361947818035, 0.0]
['beep', 0.0, 4220.992829918007, 0.0, 0.0, 0.0, 0.0, -2664.3055873281464, 0.0]
['beep', 0.0, 4206.575954744334, 0.0, 0.0, 0.0, 0.0, -2666.5407617736773, 0.0]
['beep', 0.0, 4191.332065025815, 0.0, 0.0, 0.0, 0.0, -2668.0830321410936, 0.0]
['beep', 0.0, 4196.83059416182, 0.0, 0.0, 0.0, 0.0, -2663.5903315055766, 0.0]
['beep', 0.0, 4213.21442284756, 0.0, 0.0, 0.0, 0.0, -2662.2045233493477, 0.0]
['beep', 0.0, 4219.74113222851, 0.0, 0.0, 0.0, 0.0, -2662.6292064939985, 0.0]
['beep', 0.0, 4206.263030321959, 0.0, 0.0, 0.0, 0.0, -2662.4056890494453, 0.0]
['beep', 0.0, 4190.683864436611, 0.0, 0.0, 0.0, 0.0, -2663.2550553387473, 0.0]
['beep', 0.0, 4194.215440060549, 0.0, 0.0, 0.0, 0.0, -2664.260883839236, 0.0]
['beep', 0.0, 4208.83348093432, 0.0, 0.0, 0.0, 0.0, -2662.360985560535, 0.0]
['beep', 0.0, 4217.036571149418, 0.0, 0.0, 0.0, 0.0, -2660.6846047263866, 0.0]
['beep', 0.0, 4203.670227965144, 0.0, 0.0, 0.0, 0.0, -2661.3328053155906, 0.0]
['beep', 0.0, 4188.359283013258, 0.0, 0.0, 0.0, 0.0, -2661.444564037867, 0.0]
['beep', 0.0, 4190.952085370074, 0.0, 0.0, 0.0, 0.0, -2661.578674504599, 0.0]
['beep', 0.0, 4205.637181477211, 0.0, 0.0, 0.0, 0.0, -2662.9421309163727, 0.0]
['beep', 0.0, 4212.834443191819, 0.0, 0.0, 0.0, 0.0, -2666.585465262588, 0.0]
['beep', 0.0, 4198.842251162798, 0.0, 0.0, 0.0, 0.0, -2664.126773372504, 0.0]
['beep', 0.0, 4183.173678299628, 0.0, 0.0, 0.0, 0.0, -2661.2433983377696, 0.0]
['beep', 0.0, 4185.989998100996, 0.0, 0.0, 0.0, 0.0, -2660.2152180928256, 0.0]
['beep', 0.0, 4199.848079663287, 0.0, 0.0, 0.0, 0.0, -2658.740002958775, 0.0]
['beep', 0.0, 4208.028818133929, 0.0, 0.0, 0.0, 0.0, -2659.7905349481744, 0.0]
['beep', 0.0, 4196.6294284617225, 0.0, 0.0, 0.0, 0.0, -2661.5563227601438, 0.0]
['beep', 0.0, 4182.234905032505, 0.0, 0.0, 0.0, 0.0, -2661.4669157823228, 0.0]
['beep', 0.0, 4185.900591123175, 0.0, 0.0, 0.0, 0.0, -2659.2764448257026, 0.0]
['beep', 0.0, 4201.993847130996, 0.0, 0.0, 0.0, 0.0, -2659.4329070368894, 0.0]
['beep', 0.0, 4210.1298821127275, 0.0, 0.0, 0.0, 0.0, -2658.5611890031328, 0.0]
['beep', 0.0, 4196.361207528259, 0.0, 0.0, 0.0, 0.0, -2656.281311068691, 0.0]
['beep', 0.0, 4180.290303264893, 0.0, 0.0, 0.0, 0.0, -2656.594235491066, 0.0]
['beep', 0.0, 4180.871448620731, 0.0, 0.0, 0.0, 0.0, -2658.1141541140264, 0.0]
['beep', 0.0, 4194.841288905298, 0.0, 0.0, 0.0, 0.0, -2658.0470988806605, 0.0]
['beep', 0.0, 4201.859736664264, 0.0, 0.0, 0.0, 0.0, -2658.225912836303, 0.0]
['beep', 0.0, 4188.202820802071, 0.0, 0.0, 0.0, 0.0, -2656.7954011911634, 0.0]
['beep', 0.0, 4175.529381695912, 0.0, 0.0, 0.0, 0.0, -2654.6943372123646, 0.0]
['beep', 0.0, 4176.691672407588, 0.0, 0.0, 0.0, 0.0, -2652.056831366638, 0.0]
['beep', 0.0, 4191.488527237002, 0.0, 0.0, 0.0, 0.0, -2652.056831366638, 0.0]
['beep', 0.0, 4199.870431407742, 0.0, 0.0, 0.0, 0.0, -2653.420287778412, 0.0]
['beep', 0.0, 4186.213515545549, 0.0, 0.0, 0.0, 0.0, -2652.414459277923, 0.0]
['beep', 0.0, 4172.0872130497955, 0.0, 0.0, 0.0, 0.0, -2653.8673226675182, 0.0]
['beep', 0.0, 4173.2048002725605, 0.0, 0.0, 0.0, 0.0, -2655.0966686125603, 0.0]
['beep', 0.0, 4187.845192890786, 0.0, 0.0, 0.0, 0.0, -2653.129715100493, 0.0]
['beep', 0.0, 4197.456443006568, 0.0, 0.0, 0.0, 0.0, -2652.5262180001996, 0.0]
['beep', 0.0, 4184.112451566751, 0.0, 0.0, 0.0, 0.0, -2654.023784878705, 0.0]
['beep', 0.0, 4167.795678114376, 0.0, 0.0, 0.0, 0.0, -2652.90619765594, 0.0]
['beep', 0.0, 4124.254479915438, 0.0, 0.0, 0.0, 0.0, -2413.42960756178, 0.0]
['beep', 0.0, 4133.642212586667, 0.0, 0.0, 0.0, 0.0, -2412.33437208347, 0.0]
['beep', 0.0, 4120.745256035955, 0.0, 0.0, 0.0, 0.0, -2414.2566221066263, 0.0]
['beep', 0.0, 4104.584944794768, 0.0, 0.0, 0.0, 0.0, -2415.307154096026, 0.0]
['beep', 0.0, 4105.926049462086, 0.0, 0.0, 0.0, 0.0, -2417.519976797101, 0.0]
['beep', 0.0, 4121.236994413972, 0.0, 0.0, 0.0, 0.0, -2417.3188110970036, 0.0]
['beep', 0.0, 4129.015401484418, 0.0, 0.0, 0.0, 0.0, -2413.8095872175204, 0.0]
['beep', 0.0, 4115.827872255787, 0.0, 0.0, 0.0, 0.0, -2416.1565203853274, 0.0]
['beep', 0.0, 4099.846374970242, 0.0, 0.0, 0.0, 0.0, -2419.7104477537214, 0.0]
['beep', 0.0, 4100.00283718143, 0.0, 0.0, 0.0, 0.0, -2421.6326977768776, 0.0]
['beep', 0.0, 4113.972677465997, 0.0, 0.0, 0.0, 0.0, -2421.9679739437074, 0.0]
['beep', 0.0, 4124.0756659597955, 0.0, 0.0, 0.0, 0.0, -2421.722104754699, 0.0]
['beep', 0.0, 4112.1621861651165, 0.0, 0.0, 0.0, 0.0, -2419.0398954200623, 0.0]
['beep', 0.0, 4094.7278254899775, 0.0, 0.0, 0.0, 0.0, -2413.071979650495, 0.0]
['beep', 0.0, 4093.967866178497, 0.0, 0.0, 0.0, 0.0, -2417.1623488858163, 0.0]
['beep', 0.0, 4112.00572395393, 0.0, 0.0, 0.0, 0.0, -2415.016581418107, 0.0]
['beep', 0.0, 4121.438160114069, 0.0, 0.0, 0.0, 0.0, -2405.7406074691544, 0.0]
['beep', 0.0, 4108.809424496821, 0.0, 0.0, 0.0, 0.0, -2404.7347789686655, 0.0]
['beep', 0.0, 4090.682159743567, 0.0, 0.0, 0.0, 0.0, -2396.4199300312916, 0.0]
['beep', 0.0, 4089.9445521765415, 0.0, 0.0, 0.0, 0.0, -2396.107005608917, 0.0]
['beep', 0.0, 4103.780281994376, 0.0, 0.0, 0.0, 0.0, -2390.183793328261, 0.0]
['beep', 0.0, 4110.888136731164, 0.0, 0.0, 0.0, 0.0, -2388.1050810939173, 0.0]
['beep', 0.0, 4099.8910784591535, 0.0, 0.0, 0.0, 0.0, -2386.920438637786, 0.0]
['beep', 0.0, 4085.3400928187484, 0.0, 0.0, 0.0, 0.0, -2383.791194414043, 0.0]
['beep', 0.0, 4085.0271683963742, 0.0, 0.0, 0.0, 0.0, -2386.942790382241, 0.0]
['beep', 0.0, 4100.38281683717, 0.0, 0.0, 0.0, 0.0, -2388.976799127674, 0.0]
['beep', 0.0, 4109.234107641471, 0.0, 0.0, 0.0, 0.0, -2392.2178020736937, 0.0]
['beep', 0.0, 4096.828889468777, 0.0, 0.0, 0.0, 0.0, -2396.084653864462, 0.0]
['beep', 0.0, 4080.579171249768, 0.0, 0.0, 0.0, 0.0, -2395.3470462974365, 0.0]
['beep', 0.0, 4079.059252626807, 0.0, 0.0, 0.0, 0.0, -2398.655104476822, 0.0]
['beep', 0.0, 4094.4596045565136, 0.0, 0.0, 0.0, 0.0, -2398.7668631990987, 0.0]
['beep', 0.0, 4104.316723861304, 0.0, 0.0, 0.0, 0.0, -2393.9612381412076, 0.0]
['beep', 0.0, 4093.3643690782037, 0.0, 0.0, 0.0, 0.0, -2395.9952468866404, 0.0]
['beep', 0.0, 4076.1535258476174, 0.0, 0.0, 0.0, 0.0, -2399.280953321571, 0.0]
['beep', 0.0, 4073.8512961687206, 0.0, 0.0, 0.0, 0.0, -2401.1584998558164, 0.0]
['beep', 0.0, 4090.9503806770304, 0.0, 0.0, 0.0, 0.0, -2397.2022410872273, 0.0]
['beep', 0.0, 4101.254534870927, 0.0, 0.0, 0.0, 0.0, -2393.76007244111, 0.0]
['beep', 0.0, 4088.7822614648658, 0.0, 0.0, 0.0, 0.0, -2395.101177108428, 0.0]
['beep', 0.0, 4072.2866740568493, 0.0, 0.0, 0.0, 0.0, -2398.208069587716, 0.0]
['beep', 0.0, 4071.839639167743, 0.0, 0.0, 0.0, 0.0, -2399.3480085549368, 0.0]
['beep', 0.0, 4087.195287608539, 0.0, 0.0, 0.0, 0.0, -2399.884450421864, 0.0]
['beep', 0.0, 4095.934819690564, 0.0, 0.0, 0.0, 0.0, -2397.2022410872273, 0.0]
['beep', 0.0, 4083.7531189624215, 0.0, 0.0, 0.0, 0.0, -2398.4762905211796, 0.0]
['beep', 0.0, 4067.190476321039, 0.0, 0.0, 0.0, 0.0, -2399.884450421864, 0.0]
['beep', 0.0, 4067.99513912143, 0.0, 0.0, 0.0, 0.0, -2397.6492759763332, 0.0]
['beep', 0.0, 4083.417842795592, 0.0, 0.0, 0.0, 0.0, -2395.9058399088194, 0.0]
['beep', 0.0, 4091.6209330106894, 0.0, 0.0, 0.0, 0.0, -2394.765900941599, 0.0]
['beep', 0.0, 4079.8192119382875, 0.0, 0.0, 0.0, 0.0, -2397.984552143163, 0.0]
['beep', 0.0, 4064.664729197589, 0.0, 0.0, 0.0, 0.0, -2400.0632643775066, 0.0]
['beep', 0.0, 4063.5694937192793, 0.0, 0.0, 0.0, 0.0, -2398.8786219213753, 0.0]
['beep', 0.0, 4078.9474939045303, 0.0, 0.0, 0.0, 0.0, -2399.325656810481, 0.0]
['beep', 0.0, 4088.7822614648658, 0.0, 0.0, 0.0, 0.0, -2398.0292556320737, 0.0]
['beep', 0.0, 4076.7570229479106, 0.0, 0.0, 0.0, 0.0, -2399.1244911103836, 0.0]
['beep', 0.0, 4059.3673657616814, 0.0, 0.0, 0.0, 0.0, -2400.264430077604, 0.0]
['beep', 0.0, 4057.5568744608017, 0.0, 0.0, 0.0, 0.0, -2401.6725899782887, 0.0]
['beep', 0.0, 4071.906694401109, 0.0, 0.0, 0.0, 0.0, -2397.9622003987074, 0.0]
['beep', 0.0, 4081.7414619614437, 0.0, 0.0, 0.0, 0.0, -2397.04577887604, 0.0]
['beep', 0.0, 4071.0349763673516, 0.0, 0.0, 0.0, 0.0, -2398.275124821082, 0.0]
['beep', 0.0, 4056.5286942158577, 0.0, 0.0, 0.0, 0.0, -2395.0341218750623, 0.0]
['beep', 0.0, 4052.5053802139023, 0.0, 0.0, 0.0, 0.0, -2396.6434474758444, 0.0]
['beep', 0.0, 4064.016528608385, 0.0, 0.0, 0.0, 0.0, -2393.76007244111, 0.0]
['beep', 0.0, 4071.3702525341814, 0.0, 0.0, 0.0, 0.0, -2384.037063603051, 0.0]
['beep', 0.0, 4060.440249495536, 0.0, 0.0, 0.0, 0.0, -2380.460784490202, 0.0]
['beep', 0.0, 4043.4082202205923, 0.0, 0.0, 0.0, 0.0, -2382.0030548576183, 0.0]
['beep', 0.0, 4043.0505923093074, 0.0, 0.0, 0.0, 0.0, -2382.271275791082, 0.0]
['beep', 0.0, 4060.2390837954385, 0.0, 0.0, 0.0, 0.0, -2379.142031567339, 0.0]
['beep', 0.0, 4069.895037400131, 0.0, 0.0, 0.0, 0.0, -2379.3431972674366, 0.0]
['beep', 0.0, 4058.6521099391116, 0.0, 0.0, 0.0, 0.0, -2383.411214758303, 0.0]
['beep', 0.0, 4042.290632997827, 0.0, 0.0, 0.0, 0.0, -2386.2275345596713, 0.0]
['beep', 0.0, 4041.9777085754527, 0.0, 0.0, 0.0, 0.0, -2385.400520014825, 0.0]
['beep', 0.0, 4057.579226205257, 0.0, 0.0, 0.0, 0.0, -2383.344159524937, 0.0]
['beep', 0.0, 4067.637511210145, 0.0, 0.0, 0.0, 0.0, -2384.394691514336, 0.0]
['beep', 0.0, 4056.3051767713046, 0.0, 0.0, 0.0, 0.0, -2384.014711858596, 0.0]
['beep', 0.0, 4039.94369983002, 0.0, 0.0, 0.0, 0.0, -2385.4675752481908, 0.0]
['beep', 0.0, 4038.0438015513187, 0.0, 0.0, 0.0, 0.0, -2385.8028514150205, 0.0]
['beep', 0.0, 4054.002947092408, 0.0, 0.0, 0.0, 0.0, -2385.8028514150205, 0.0]
['beep', 0.0, 4065.223522808972, 0.0, 0.0, 0.0, 0.0, -2385.624037459378, 0.0]
['beep', 0.0, 4052.974766847464, 0.0, 0.0, 0.0, 0.0, -2383.724139180677, 0.0]
['beep', 0.0, 4037.3061939842937, 0.0, 0.0, 0.0, 0.0, -2386.9651421266967, 0.0]
['beep', 0.0, 4034.333411971738, 0.0, 0.0, 0.0, 0.0, -2387.4121770158026, 0.0]
['beep', 0.0, 4049.286729012338, 0.0, 0.0, 0.0, 0.0, -2384.9981886146297, 0.0]
['beep', 0.0, 4059.769697161877, 0.0, 0.0, 0.0, 0.0, -2382.8300694024647, 0.0]
['beep', 0.0, 4049.4431912235254, 0.0, 0.0, 0.0, 0.0, -2384.394691514336, 0.0]
['beep', 0.0, 4033.104066026696, 0.0, 0.0, 0.0, 0.0, -2385.646389203833, 0.0]
['beep', 0.0, 4031.137112514629, 0.0, 0.0, 0.0, 0.0, -2385.8475549039313, 0.0]
['beep', 0.0, 4046.13513304414, 0.0, 0.0, 0.0, 0.0, -2381.8912961353417, 0.0]
['beep', 0.0, 4056.9757291049636, 0.0, 0.0, 0.0, 0.0, -2382.1818688132607, 0.0]
['beep', 0.0, 4045.6657464105783, 0.0, 0.0, 0.0, 0.0, -2386.719272937688, 0.0]
['beep', 0.0, 4029.4383799360253, 0.0, 0.0, 0.0, 0.0, -2386.4063485153138, 0.0]
['beep', 0.0, 4028.678420624545, 0.0, 0.0, 0.0, 0.0, -2388.529764238568, 0.0]
['beep', 0.0, 4043.184702776039, 0.0, 0.0, 0.0, 0.0, -2385.9369618817523, 0.0]
['beep', 0.0, 4051.588958691235, 0.0, 0.0, 0.0, 0.0, -2380.9972263571294, 0.0]
['beep', 0.0, 4042.156522531095, 0.0, 0.0, 0.0, 0.0, -2382.8077176580096, 0.0]
['beep', 0.0, 4026.644411879112, 0.0, 0.0, 0.0, 0.0, -2385.3558165259146, 0.0]
['beep', 0.0, 4024.968031044964, 0.0, 0.0, 0.0, 0.0, -2386.696921193233, 0.0]
['beep', 0.0, 4039.7648858743773, 0.0, 0.0, 0.0, 0.0, -2383.344159524937, 0.0]
['beep', 0.0, 4050.4713714684694, 0.0, 0.0, 0.0, 0.0, -2383.411214758303, 0.0]
['beep', 0.0, 4040.927176586053, 0.0, 0.0, 0.0, 0.0, -2383.5676769694896, 0.0]
['beep', 0.0, 4024.945679300509, 0.0, 0.0, 0.0, 0.0, -2385.2887612925483, 0.0]
['beep', 0.0, 4023.649278122101, 0.0, 0.0, 0.0, 0.0, -2386.1828310707606, 0.0]
['beep', 0.0, 4039.250795751905, 0.0, 0.0, 0.0, 0.0, -2385.109947336906, 0.0]
['beep', 0.0, 4048.347955745215, 0.0, 0.0, 0.0, 0.0, -2383.94765662523, 0.0]
['beep', 0.0, 4038.2449672514163, 0.0, 0.0, 0.0, 0.0, -2383.6794356917662, 0.0]
['beep', 0.0, 4022.956374043986, 0.0, 0.0, 0.0, 0.0, -2385.4675752481908, 0.0]
['beep', 0.0, 4021.101179254196, 0.0, 0.0, 0.0, 0.0, -2385.981665370663, 0.0]
['beep', 0.0, 4038.1108567846845, 0.0, 0.0, 0.0, 0.0, -2384.104118836417, 0.0]
['beep', 0.0, 4050.873702868665, 0.0, 0.0, 0.0, 0.0, -2382.8971246358306, 0.0]
['beep', 0.0, 4041.0389353083297, 0.0, 0.0, 0.0, 0.0, -2382.5171449800905, 0.0]
['beep', 0.0, 4024.968031044964, 0.0, 0.0, 0.0, 0.0, -2385.981665370663, 0.0]
['beep', 0.0, 4021.5929176322124, 0.0, 0.0, 0.0, 0.0, -2387.0992525934284, 0.0]
['beep', 0.0, 4035.1827782610394, 0.0, 0.0, 0.0, 0.0, -2386.629865959867, 0.0]
['beep', 0.0, 4044.3693452321704, 0.0, 0.0, 0.0, 0.0, -2385.5793339704674, 0.0]
['beep', 0.0, 4032.5676241597685, 0.0, 0.0, 0.0, 0.0, -2386.3169415374928, 0.0]
['beep', 0.0, 4016.474368151947, 0.0, 0.0, 0.0, 0.0, -2386.607514215412, 0.0]
['beep', 0.0, 4013.2110134614727, 0.0, 0.0, 0.0, 0.0, -2390.6084764729117, 0.0]
['beep', 0.0, 4027.538481657324, 0.0, 0.0, 0.0, 0.0, -2388.820336916487, 0.0]
['beep', 0.0, 4040.4354382080364, 0.0, 0.0, 0.0, 0.0, -2385.020540359085, 0.0]
['beep', 0.0, 4030.8241880922546, 0.0, 0.0, 0.0, 0.0, -2386.5404589820455, 0.0]
['beep', 0.0, 4013.881565795132, 0.0, 0.0, 0.0, 0.0, -2388.529764238568, 0.0]
['beep', 0.0, 4010.8193768047545, 0.0, 0.0, 0.0, 0.0, -2389.490889250146, 0.0]
['beep', 0.0, 4025.9515078009977, 0.0, 0.0, 0.0, 0.0, -2387.300418293526, 0.0]
['beep', 0.0, 4036.702696884, 0.0, 0.0, 0.0, 0.0, -2388.1497845828276, 0.0]
['beep', 0.0, 4025.4597694229806, 0.0, 0.0, 0.0, 0.0, -2390.273200306082, 0.0]
['beep', 0.0, 4008.9194785260534, 0.0, 0.0, 0.0, 0.0, -2388.4180055162915, 0.0]
['beep', 0.0, 4007.712484325467, 0.0, 0.0, 0.0, 0.0, -2389.7367584391545, 0.0]
['beep', 0.0, 4021.9505455434974, 0.0, 0.0, 0.0, 0.0, -2388.8426886609423, 0.0]
['beep', 0.0, 4032.366458459671, 0.0, 0.0, 0.0, 0.0, -2388.909743894308, 0.0]
['beep', 0.0, 4021.771731587855, 0.0, 0.0, 0.0, 0.0, -2389.2226683166828, 0.0]
['beep', 0.0, 4005.387902902115, 0.0, 0.0, 0.0, 0.0, -2390.0496828615287, 0.0]
['beep', 0.0, 4002.482176122925, 0.0, 0.0, 0.0, 0.0, -2390.6755317062775, 0.0]
['beep', 0.0, 4017.6366588636233, 0.0, 0.0, 0.0, 0.0, -2389.6697032057887, 0.0]
['beep', 0.0, 4029.818359591766, 0.0, 0.0, 0.0, 0.0, -2389.4461857612355, 0.0]
['beep', 0.0, 4019.7824263313328, 0.0, 0.0, 0.0, 0.0, -2389.3791305278696, 0.0]
['beep', 0.0, 4003.1750802010397, 0.0, 0.0, 0.0, 0.0, -2390.496717750635, 0.0]
['beep', 0.0, 3999.0847109657184, 0.0, 0.0, 0.0, 0.0, -2391.0108078731073, 0.0]
['beep', 0.0, 4014.3956559176036, 0.0, 0.0, 0.0, 0.0, -2391.659008462311, 0.0]
['beep', 0.0, 4026.89028106812, 0.0, 0.0, 0.0, 0.0, -2390.787290428554, 0.0]
['beep', 0.0, 4017.2790309523384, 0.0, 0.0, 0.0, 0.0, -2390.496717750635, 0.0]
['beep', 0.0, 3999.7552632993775, 0.0, 0.0, 0.0, 0.0, -2391.56960148449, 0.0]
['beep', 0.0, 3996.916591753554, 0.0, 0.0, 0.0, 0.0, -2394.341217796948, 0.0]
['beep', 0.0, 4012.831033805732, 0.0, 0.0, 0.0, 0.0, -2392.5530782405235, 0.0]
['beep', 0.0, 4023.60457463319, 0.0, 0.0, 0.0, 0.0, -2391.1002148509283, 0.0]
['beep', 0.0, 4014.909746040076, 0.0, 0.0, 0.0, 0.0, -2391.7707671845874, 0.0]
['beep', 0.0, 3998.972952243442, 0.0, 0.0, 0.0, 0.0, -2394.5870869859564, 0.0]
['beep', 0.0, 3993.7649957853555, 0.0, 0.0, 0.0, 0.0, -2398.5433457545455, 0.0]
['beep', 0.0, 4008.383036659126, 0.0, 0.0, 0.0, 0.0, -2395.3470462974365, 0.0]
['beep', 0.0, 4021.1682344875617, 0.0, 0.0, 0.0, 0.0, -2393.7377206966544, 0.0]
['beep', 0.0, 4012.6745715945453, 0.0, 0.0, 0.0, 0.0, -2395.2576393196155, 0.0]
['beep', 0.0, 3995.1284521971293, 0.0, 0.0, 0.0, 0.0, -2396.9116684093083, 0.0]
['beep', 0.0, 3990.971027728442, 0.0, 0.0, 0.0, 0.0, -2396.039950375551, 0.0]
['beep', 0.0, 4006.3713796581487, 0.0, 0.0, 0.0, 0.0, -2395.7046742087214, 0.0]
['beep', 0.0, 4017.3013826967936, 0.0, 0.0, 0.0, 0.0, -2393.9612381412076, 0.0]
['beep', 0.0, 4007.980705258931, 0.0, 0.0, 0.0, 0.0, -2395.078825363973, 0.0]
['beep', 0.0, 3990.2781236503274, 0.0, 0.0, 0.0, 0.0, -2397.38105504287, 0.0]
['beep', 0.0, 3987.394748615593, 0.0, 0.0, 0.0, 0.0, -2397.313999809504, 0.0]
['beep', 0.0, 4002.549231356291, 0.0, 0.0, 0.0, 0.0, -2395.659970719811, 0.0]
['beep', 0.0, 4013.188661717017, 0.0, 0.0, 0.0, 0.0, -2393.9388863967524, 0.0]
['beep', 0.0, 4004.6055918461793, 0.0, 0.0, 0.0, 0.0, -2395.145880597339, 0.0]
['beep', 0.0, 3986.5677340707466, 0.0, 0.0, 0.0, 0.0, -2395.2799910640706, 0.0]
['beep', 0.0, 3982.3656061131487, 0.0, 0.0, 0.0, 0.0, -2395.391749786347, 0.0]
['beep', 0.0, 3997.0954057091963, 0.0, 0.0, 0.0, 0.0, -2395.95054339773, 0.0]
['beep', 0.0, 4008.964182014964, 0.0, 0.0, 0.0, 0.0, -2394.6094387304115, 0.0]
['beep', 0.0, 4001.163423200062, 0.0, 0.0, 0.0, 0.0, -2395.2799910640706, 0.0]
['beep', 0.0, 3984.0866904362074, 0.0, 0.0, 0.0, 0.0, -2398.051607376529, 0.0]
['beep', 0.0, 3980.8903909790984, 0.0, 0.0, 0.0, 0.0, -2397.42575853178, 0.0]
['beep', 0.0, 3995.620190575146, 0.0, 0.0, 0.0, 0.0, -2394.9000114083306, 0.0]
['beep', 0.0, 4006.706655824978, 0.0, 0.0, 0.0, 0.0, -2394.0059416301183, 0.0]
['beep', 0.0, 3998.1235859541403, 0.0, 0.0, 0.0, 0.0, -2395.7046742087214, 0.0]
['beep', 0.0, 3981.8291642462214, 0.0, 0.0, 0.0, 0.0, -2396.9340201537634, 0.0]
['beep', 0.0, 3976.710614765956, 0.0, 0.0, 0.0, 0.0, -2399.593877743945, 0.0]
['beep', 0.0, 3990.5463445837913, 0.0, 0.0, 0.0, 0.0, -2394.363569541403, 0.0]
['beep', 0.0, 4002.772748800844, 0.0, 0.0, 0.0, 0.0, -2390.228496817171, 0.0]
['beep', 0.0, 3993.452071362981, 0.0, 0.0, 0.0, 0.0, -2392.374264284881, 0.0]
['beep', 0.0, 3976.621207788135, 0.0, 0.0, 0.0, 0.0, -2394.9223631527857, 0.0]
['beep', 0.0, 3972.7320042529113, 0.0, 0.0, 0.0, 0.0, -2396.598743986934, 0.0]
['beep', 0.0, 3986.254809648372, 0.0, 0.0, 0.0, 0.0, -2395.8387846754536, 0.0]
['beep', 0.0, 3998.525917354336, 0.0, 0.0, 0.0, 0.0, -2395.3246945529813, 0.0]
['beep', 0.0, 3989.719330038945, 0.0, 0.0, 0.0, 0.0, -2394.341217796948, 0.0]
['beep', 0.0, 3971.5920652856908, 0.0, 0.0, 0.0, 0.0, -2395.078825363973, 0.0]
['beep', 0.0, 3967.8146204727436, 0.0, 0.0, 0.0, 0.0, -2395.5482119975345, 0.0]
['beep', 0.0, 3983.3937863580927, 0.0, 0.0, 0.0, 0.0, -2394.810604430509, 0.0]
['beep', 0.0, 3993.8320510187214, 0.0, 0.0, 0.0, 0.0, -2394.85530791942, 0.0]
['beep', 0.0, 3984.6231323031348, 0.0, 0.0, 0.0, 0.0, -2394.9000114083306, 0.0]
['beep', 0.0, 3967.7922687282885, 0.0, 0.0, 0.0, 0.0, -2394.810604430509, 0.0]
['beep', 0.0, 3963.2772163483164, 0.0, 0.0, 0.0, 0.0, -2392.9777613851743, 0.0]
['beep', 0.0, 3978.901085722576, 0.0, 0.0, 0.0, 0.0, -2392.9554096407187, 0.0]
['beep', 0.0, 3990.8592690061655, 0.0, 0.0, 0.0, 0.0, -2391.1002148509283, 0.0]
['beep', 0.0, 3981.806812501766, 0.0, 0.0, 0.0, 0.0, -2393.2906858075485, 0.0]
['beep', 0.0, 3964.327748337716, 0.0, 0.0, 0.0, 0.0, -2396.4199300312916, 0.0]
['beep', 0.0, 3960.460896546948, 0.0, 0.0, 0.0, 0.0, -2399.7950434440427, 0.0]
['beep', 0.0, 3976.1741728990287, 0.0, 0.0, 0.0, 0.0, -2393.491851507646, 0.0]
['beep', 0.0, 3987.908838738065, 0.0, 0.0, 0.0, 0.0, -2391.077863106473, 0.0]
['beep', 0.0, 3979.4822310784143, 0.0, 0.0, 0.0, 0.0, -2391.9942846291406, 0.0]
['beep', 0.0, 3962.5396087812915, 0.0, 0.0, 0.0, 0.0, -2392.6424852183445, 0.0]
['beep', 0.0, 3958.851570946166, 0.0, 0.0, 0.0, 0.0, -2395.302342808526, 0.0]
['beep', 0.0, 3972.910818208554, 0.0, 0.0, 0.0, 0.0, -2394.497680008135, 0.0]
['beep', 0.0, 3985.830126503721, 0.0, 0.0, 0.0, 0.0, -2393.2906858075485, 0.0]
['beep', 0.0, 3978.744623511389, 0.0, 0.0, 0.0, 0.0, -2395.0341218750623, 0.0]
['beep', 0.0, 3962.6066640146573, 0.0, 0.0, 0.0, 0.0, -2396.2411160756487, 0.0]
['beep', 0.0, 3957.912797679043, 0.0, 0.0, 0.0, 0.0, -2396.442281775747, 0.0]
['beep', 0.0, 3971.2120856299507, 0.0, 0.0, 0.0, 0.0, -2393.111871851906, 0.0]
['beep', 0.0, 3982.7008822799785, 0.0, 0.0, 0.0, 0.0, -2391.659008462311, 0.0]
['beep', 0.0, 3975.458917076459, 0.0, 0.0, 0.0, 0.0, -2393.402444529825, 0.0]
['beep', 0.0, 3958.1139633791404, 0.0, 0.0, 0.0, 0.0, -2392.9554096407187, 0.0]
['beep', 0.0, 3953.5095040213473, 0.0, 0.0, 0.0, 0.0, -2394.117700352395, 0.0]
['beep', 0.0, 3967.54639953928, 0.0, 0.0, 0.0, 0.0, -2394.1847555857607, 0.0]
['beep', 0.0, 3979.906914223065, 0.0, 0.0, 0.0, 0.0, -2393.134223596361, 0.0]
['beep', 0.0, 3970.7874024852995, 0.0, 0.0, 0.0, 0.0, -2393.469499763191, 0.0]
['beep', 0.0, 3953.241283087884, 0.0, 0.0, 0.0, 0.0, -2394.85530791942, 0.0]
['beep', 0.0, 3948.2344923298947, 0.0, 0.0, 0.0, 0.0, -2392.441319518247, 0.0]
['beep', 0.0, 3962.137277381096, 0.0, 0.0, 0.0, 0.0, -2391.2790288065708, 0.0]
['beep', 0.0, 3974.9001234650764, 0.0, 0.0, 0.0, 0.0, -2391.591953228945, 0.0]
['beep', 0.0, 3966.898198950076, 0.0, 0.0, 0.0, 0.0, -2392.150746840328, 0.0]
['beep', 0.0, 3949.5085417638475, 0.0, 0.0, 0.0, 0.0, -2394.14005209685, 0.0]
['beep', 0.0, 3944.6582132170456, 0.0, 0.0, 0.0, 0.0, -2394.9000114083306, 0.0]
['beep', 0.0, 3958.158666868051, 0.0, 0.0, 0.0, 0.0, -2393.0224648740846, 0.0]
['beep', 0.0, 3970.5638850407468, 0.0, 0.0, 0.0, 0.0, -2391.1002148509283, 0.0]
['beep', 0.0, 3963.8807134486096, 0.0, 0.0, 0.0, 0.0, -2392.5530782405235, 0.0]
['beep', 0.0, 3947.8545126741546, 0.0, 0.0, 0.0, 0.0, -2393.6259619743782, 0.0]
['beep', 0.0, 3942.423038771515, 0.0, 0.0, 0.0, 0.0, -2393.3577410409143, 0.0]
['beep', 0.0, 3955.968195911431, 0.0, 0.0, 0.0, 0.0, -2391.94958114023, 0.0]
['beep', 0.0, 3966.6299780166128, 0.0, 0.0, 0.0, 0.0, -2392.6871887072552, 0.0]
['beep', 0.0, 3960.192675613484, 0.0, 0.0, 0.0, 0.0, -2394.117700352395, 0.0]
['beep', 0.0, 3942.9818323828977, 0.0, 0.0, 0.0, 0.0, -2393.5142032521017, 0.0]
['beep', 0.0, 3938.198559069462, 0.0, 0.0, 0.0, 0.0, -2394.072996863484, 0.0]
['beep', 0.0, 3951.8554749316545, 0.0, 0.0, 0.0, 0.0, -2394.430624774769, 0.0]
['beep', 0.0, 3963.388975070593, 0.0, 0.0, 0.0, 0.0, -2392.6648369627997, 0.0]
['beep', 0.0, 3956.5940447561798, 0.0, 0.0, 0.0, 0.0, -2391.7037119512215, 0.0]
['beep', 0.0, 3939.1820358254954, 0.0, 0.0, 0.0, 0.0, -2393.8047759300207, 0.0]
['beep', 0.0, 3934.5775764677023, 0.0, 0.0, 0.0, 0.0, -2394.0059416301183, 0.0]
['beep', 0.0, 3948.5697684967245, 0.0, 0.0, 0.0, 0.0, -2392.5530782405235, 0.0]
['beep', 0.0, 3960.25973084685, 0.0, 0.0, 0.0, 0.0, -2392.6871887072552, 0.0]
['beep', 0.0, 3953.7553732103556, 0.0, 0.0, 0.0, 0.0, -2395.3246945529813, 0.0]
['beep', 0.0, 3936.1198468351186, 0.0, 0.0, 0.0, 0.0, -2396.2411160756487, 0.0]
['beep', 0.0, 3931.582442710691, 0.0, 0.0, 0.0, 0.0, -2394.363569541403, 0.0]
['beep', 0.0, 3946.3792975401043, 0.0, 0.0, 0.0, 0.0, -2393.9612381412076, 0.0]
['beep', 0.0, 3958.9186261795317, 0.0, 0.0, 0.0, 0.0, -2392.6424852183445, 0.0]
['beep', 0.0, 3951.2072743424505, 0.0, 0.0, 0.0, 0.0, -2392.843650918442, 0.0]
['beep', 0.0, 3934.8010939122555, 0.0, 0.0, 0.0, 0.0, -2393.111871851906, 0.0]
['beep', 0.0, 3928.1849775534843, 0.0, 0.0, 0.0, 0.0, -2397.023427131585, 0.0]
['beep', 0.0, 3941.3501550376604, 0.0, 0.0, 0.0, 0.0, -2396.688150964755, 0.0]
['beep', 0.0, 3953.710669721445, 0.0, 0.0, 0.0, 0.0, -2393.402444529825, 0.0]
['beep', 0.0, 3947.072201618219, 0.0, 0.0, 0.0, 0.0, -2393.849479418931, 0.0]
['beep', 0.0, 3930.487207232381, 0.0, 0.0, 0.0, 0.0, -2393.9612381412076, 0.0]
['beep', 0.0, 3924.4075327405376, 0.0, 0.0, 0.0, 0.0, -2395.5482119975345, 0.0]
['beep', 0.0, 3937.5727102247133, 0.0, 0.0, 0.0, 0.0, -2394.810604430509, 0.0]
['beep', 0.0, 3951.1402191090847, 0.0, 0.0, 0.0, 0.0, -2392.754243940621, 0.0]
['beep', 0.0, 3943.87590216111, 0.0, 0.0, 0.0, 0.0, -2393.536554996557, 0.0]
['beep', 0.0, 3925.592175196669, 0.0, 0.0, 0.0, 0.0, -2396.4869852646575, 0.0]
['beep', 0.0, 3921.2112332834286, 0.0, 0.0, 0.0, 0.0, -2397.470462020691, 0.0]
['beep', 0.0, 3936.321012535216, 0.0, 0.0, 0.0, 0.0, -2396.2411160756487, 0.0]
['beep', 0.0, 3948.5921202411796, 0.0, 0.0, 0.0, 0.0, -2395.2352875751603, 0.0]
['beep', 0.0, 3942.0430591157747, 0.0, 0.0, 0.0, 0.0, -2395.3470462974365, 0.0]
['beep', 0.0, 3925.4804164743923, 0.0, 0.0, 0.0, 0.0, -2398.5433457545455, 0.0]
['beep', 0.0, 3918.9984105823532, 0.0, 0.0, 0.0, 0.0, -2399.2586015771153, 0.0]
['beep', 0.0, 3932.6553264445456, 0.0, 0.0, 0.0, 0.0, -2399.6162294884, 0.0]
['beep', 0.0, 3945.4405242729813, 0.0, 0.0, 0.0, 0.0, -2396.8669649203975, 0.0]
['beep', 0.0, 3939.2490910588613, 0.0, 0.0, 0.0, 0.0, -2399.23624983266, 0.0]
['beep', 0.0, 3923.0217245843087, 0.0, 0.0, 0.0, 0.0, -2403.23721209016, 0.0]
['beep', 0.0, 3917.9478785929537, 0.0, 0.0, 0.0, 0.0, -2400.8455754334423, 0.0]
['beep', 0.0, 3930.5319107212918, 0.0, 0.0, 0.0, 0.0, -2399.7726916995875, 0.0]
['beep', 0.0, 3944.3452887946714, 0.0, 0.0, 0.0, 0.0, -2398.8339184324645, 0.0]
['beep', 0.0, 3936.812750913233, 0.0, 0.0, 0.0, 0.0, -2399.035084132562, 0.0]
['beep', 0.0, 3919.8924803605655, 0.0, 0.0, 0.0, 0.0, -2402.2537353341268, 0.0]
['beep', 0.0, 3915.6680006585125, 0.0, 0.0, 0.0, 0.0, -2402.566659756501, 0.0]
['beep', 0.0, 3928.497901975859, 0.0, 0.0, 0.0, 0.0, -2400.4432440332466, 0.0]
['beep', 0.0, 3940.456085259448, 0.0, 0.0, 0.0, 0.0, -2397.8280899319757, 0.0]
['beep', 0.0, 3933.5270444783027, 0.0, 0.0, 0.0, 0.0, -2399.1244911103836, 0.0]
['beep', 0.0, 3915.9809250808867, 0.0, 0.0, 0.0, 0.0, -2400.398540544336, 0.0]
['beep', 0.0, 3910.0800645446857, 0.0, 0.0, 0.0, 0.0, -2400.622057988889, 0.0]
['beep', 0.0, 3923.044076328764, 0.0, 0.0, 0.0, 0.0, -2399.973857399685, 0.0]
['beep', 0.0, 3935.8739776461102, 0.0, 0.0, 0.0, 0.0, -2400.1303196108724, 0.0]
['beep', 0.0, 3930.196634554462, 0.0, 0.0, 0.0, 0.0, -2398.8115666880094, 0.0]
['beep', 0.0, 3913.1869570239733, 0.0, 0.0, 0.0, 0.0, -2398.8562701769197, 0.0]
['beep', 0.0, 3906.5931924096576, 0.0, 0.0, 0.0, 0.0, -2403.170156856794, 0.0]
['beep', 0.0, 3920.741846649867, 0.0, 0.0, 0.0, 0.0, -2402.7007702232327, 0.0]
['beep', 0.0, 3933.6611549450345, 0.0, 0.0, 0.0, 0.0, -2399.8173951884983, 0.0]
['beep', 0.0, 3927.6708874310125, 0.0, 0.0, 0.0, 0.0, -2399.1915463437495, 0.0]
['beep', 0.0, 3911.242355256362, 0.0, 0.0, 0.0, 0.0, -2400.622057988889, 0.0]
['beep', 0.0, 3906.6378958985683, 0.0, 0.0, 0.0, 0.0, -2403.8407091904533, 0.0]
['beep', 0.0, 3920.004239082842, 0.0, 0.0, 0.0, 0.0, -2404.0865783794616, 0.0]
['beep', 0.0, 3931.6942014329675, 0.0, 0.0, 0.0, 0.0, -2401.3820173003696, 0.0]
['beep', 0.0, 3925.0557333297415, 0.0, 0.0, 0.0, 0.0, -2400.8455754334423, 0.0]
['beep', 0.0, 3909.4989191888476, 0.0, 0.0, 0.0, 0.0, -2400.979685900174, 0.0]
['beep', 0.0, 3902.9722098078983, 0.0, 0.0, 0.0, 0.0, -2402.6113632454117, 0.0]
['beep', 0.0, 3915.4444832139593, 0.0, 0.0, 0.0, 0.0, -2401.493776022646, 0.0]
['beep', 0.0, 3929.4143234985263, 0.0, 0.0, 0.0, 0.0, -2398.699807965733, 0.0]
['beep', 0.0, 3923.0217245843087, 0.0, 0.0, 0.0, 0.0, -2397.5375172540566, 0.0]
['beep', 0.0, 3905.3191429757053, 0.0, 0.0, 0.0, 0.0, -2399.303305066026, 0.0]
['beep', 0.0, 3899.4406341839594, 0.0, 0.0, 0.0, 0.0, -2400.7114649667105, 0.0]
['beep', 0.0, 3911.8011488677444, 0.0, 0.0, 0.0, 0.0, -2400.2197265886934, 0.0]
['beep', 0.0, 3925.7262856634006, 0.0, 0.0, 0.0, 0.0, -2397.2022410872273, 0.0]
['beep', 0.0, 3920.719494905412, 0.0, 0.0, 0.0, 0.0, -2399.23624983266, 0.0]
['beep', 0.0, 3903.8662795861105, 0.0, 0.0, 0.0, 0.0, -2399.9068021663193, 0.0]
['beep', 0.0, 3898.211288238918, 0.0, 0.0, 0.0, 0.0, -2400.8455754334423, 0.0]
['beep', 0.0, 3911.711741889923, 0.0, 0.0, 0.0, 0.0, -2398.1633660988055, 0.0]
['beep', 0.0, 3923.938146106976, 0.0, 0.0, 0.0, 0.0, -2396.2634678201043, 0.0]
['beep', 0.0, 3919.2889832602723, 0.0, 0.0, 0.0, 0.0, -2396.4199300312916, 0.0]
['beep', 0.0, 3902.9275063189875, 0.0, 0.0, 0.0, 0.0, -2397.313999809504, 0.0]
['beep', 0.0, 3897.205459738429, 0.0, 0.0, 0.0, 0.0, -2399.0574358770177, 0.0]
['beep', 0.0, 3911.354113978638, 0.0, 0.0, 0.0, 0.0, -2396.3528747979253, 0.0]
['beep', 0.0, 3925.3686577521157, 0.0, 0.0, 0.0, 0.0, -2395.0341218750623, 0.0]
['beep', 0.0, 3920.8759571165992, 0.0, 0.0, 0.0, 0.0, -2394.721197452688, 0.0]
['beep', 0.0, 3903.463948185915, 0.0, 0.0, 0.0, 0.0, -2395.727025953177, 0.0]
['beep', 0.0, 3895.9314103044762, 0.0, 0.0, 0.0, 0.0, -2395.302342808526, 0.0]
['beep', 0.0, 3908.4707389439036, 0.0, 0.0, 0.0, 0.0, -2393.134223596361, 0.0]
['beep', 0.0, 3921.658268172535, 0.0, 0.0, 0.0, 0.0, -2393.2236305741826, 0.0]
['beep', 0.0, 3916.159739036529, 0.0, 0.0, 0.0, 0.0, -2392.508374751613, 0.0]
['beep', 0.0, 3897.6748463719905, 0.0, 0.0, 0.0, 0.0, -2394.765900941599, 0.0]
['beep', 0.0, 3890.4105294240153, 0.0, 0.0, 0.0, 0.0, -2394.430624774769, 0.0]
['beep', 0.0, 3904.6709423865013, 0.0, 0.0, 0.0, 0.0, -2392.463671262702, 0.0]
['beep', 0.0, 3917.8584716151327, 0.0, 0.0, 0.0, 0.0, -2390.0943863504394, 0.0]
['beep', 0.0, 3913.7010471464455, 0.0, 0.0, 0.0, 0.0, -2390.273200306082, 0.0]
['beep', 0.0, 3898.233639983373, 0.0, 0.0, 0.0, 0.0, -2393.9612381412076, 0.0]
['beep', 0.0, 3889.6058666236245, 0.0, 0.0, 0.0, 0.0, -2390.496717750635, 0.0]
['beep', 0.0, 3901.9663813074094, 0.0, 0.0, 0.0, 0.0, -2388.32859853847, 0.0]
['beep', 0.0, 3916.159739036529, 0.0, 0.0, 0.0, 0.0, -2387.4792322491685, 0.0]
['beep', 0.0, 3912.2481837568503, 0.0, 0.0, 0.0, 0.0, -2388.1050810939173, 0.0]
['beep', 0.0, 3895.10439575963, 0.0, 0.0, 0.0, 0.0, -2389.6697032057887, 0.0]
['beep', 0.0, 3888.555334634225, 0.0, 0.0, 0.0, 0.0, -2389.4461857612355, 0.0]
['beep', 0.0, 3901.787567351767, 0.0, 0.0, 0.0, 0.0, -2386.5181072375904, 0.0]
['beep', 0.0, 3914.6621721580236, 0.0, 0.0, 0.0, 0.0, -2385.177002570272, 0.0]
['beep', 0.0, 3910.951782578443, 0.0, 0.0, 0.0, 0.0, -2385.8699066483864, 0.0]
['beep', 0.0, 3892.8692213140994, 0.0, 0.0, 0.0, 0.0, -2386.8086799155094, 0.0]
['beep', 0.0, 3886.0966427441413, 0.0, 0.0, 0.0, 0.0, -2387.7027496937217, 0.0]
['beep', 0.0, 3900.0217795397975, 0.0, 0.0, 0.0, 0.0, -2384.528801981068, 0.0]
['beep', 0.0, 3915.198614024951, 0.0, 0.0, 0.0, 0.0, -2379.3879007563473, 0.0]
['beep', 0.0, 3910.8623756006214, 0.0, 0.0, 0.0, 0.0, -2381.019578101585, 0.0]
['beep', 0.0, 3892.1763172359847, 0.0, 0.0, 0.0, 0.0, -2381.086633334951, 0.0]
['beep', 0.0, 3884.934352032465, 0.0, 0.0, 0.0, 0.0, -2382.718310680188, 0.0]
['beep', 0.0, 3898.4795091723813, 0.0, 0.0, 0.0, 0.0, -2378.13620306685, 0.0]
['beep', 0.0, 3912.6952186459566, 0.0, 0.0, 0.0, 0.0, -2370.2236855296715, 0.0]
['beep', 0.0, 3908.5377941772695, 0.0, 0.0, 0.0, 0.0, -2364.725156393666, 0.0]
['beep', 0.0, 3892.2433724693506, 0.0, 0.0, 0.0, 0.0, -2361.7076708921995, 0.0]
['beep', 0.0, 3887.7953753227443, 0.0, 0.0, 0.0, 0.0, -2358.5784266684564, 0.0]
['beep', 0.0, 3898.747730105845, 0.0, 0.0, 0.0, 0.0, -2352.1858277542387, 0.0]
['beep', 0.0, 3905.4085499535267, 0.0, 0.0, 0.0, 0.0, -2348.140162007828, 0.0]
['beep', 0.0, 3892.757462591823, 0.0, 0.0, 0.0, 0.0, -2352.3199382209705, 0.0]
['beep', 0.0, 3871.143325703541, 0.0, 0.0, 0.0, 0.0, -2358.4443162017246, 0.0]
['beep', 0.0, 3856.1453051740295, 0.0, 0.0, 0.0, 0.0, -2363.2946447485265, 0.0]
['beep', 0.0, 3862.1802761769627, 0.0, 0.0, 0.0, 0.0, -2368.8602291178977, 0.0]
['beep', 0.0, 3869.578703591669, 0.0, 0.0, 0.0, 0.0, -2375.0293105875626, 0.0]
['beep', 0.0, 3858.8945697420327, 0.0, 0.0, 0.0, 0.0, -2386.4287002597694, 0.0]
['beep', 0.0, 3836.1851973754406, 0.0, 0.0, 0.0, 0.0, -2402.432549289769, 0.0]
['beep', 0.0, 3821.9024326684994, 0.0, 0.0, 0.0, 0.0, -2415.597726773945, 0.0]
['beep', 0.0, 3828.1162176270745, 0.0, 0.0, 0.0, 0.0, -2428.941718213763, 0.0]
['beep', 0.0, 3837.392191576027, 0.0, 0.0, 0.0, 0.0, -2443.4032968763468, 0.0]
['beep', 0.0, 3826.395133304016, 0.0, 0.0, 0.0, 0.0, -2460.2788639401037, 0.0]
['beep', 0.0, 3801.919973125455, 0.0, 0.0, 0.0, 0.0, -2479.814288594042, 0.0]
['beep', 0.0, 3788.7100921523684, 0.0, 0.0, 0.0, 0.0, -2500.489652215201, 0.0]
['beep', 0.0, 3795.393263744505, 0.0, 0.0, 0.0, 0.0, -2517.0522948565836, 0.0]
['beep', 0.0, 3804.0210371042535, 0.0, 0.0, 0.0, 0.0, -2531.3127078190696, 0.0]
['beep', 0.0, 3796.309685267173, 0.0, 0.0, 0.0, 0.0, -2545.9978039262064, 0.0]
['beep', 0.0, 3775.3437489680946, 0.0, 0.0, 0.0, 0.0, -2560.4146790998793, 0.0]
['beep', 0.0, 3763.117344751042, 0.0, 0.0, 0.0, 0.0, -2574.205705428804, 0.0]
['beep', 0.0, 3769.3758331985277, 0.0, 0.0, 0.0, 0.0, -2583.638141588943, 0.0]
['beep', 0.0, 3779.814097859156, 0.0, 0.0, 0.0, 0.0, -2591.6624178483985, 0.0]
['beep', 0.0, 3772.3709669555387, 0.0, 0.0, 0.0, 0.0, -2601.9218685533847, 0.0]
['beep', 0.0, 3752.8802457905113, 0.0, 0.0, 0.0, 0.0, -2612.717761125298, 0.0]
['beep', 0.0, 3742.0396497296874, 0.0, 0.0, 0.0, 0.0, -2619.6691536508984, 0.0]
['beep', 0.0, 3751.852065545567, 0.0, 0.0, 0.0, 0.0, -2626.0841043095716, 0.0]
['beep', 0.0, 3761.6421296169915, 0.0, 0.0, 0.0, 0.0, -2630.487397967267, 0.0]
['beep', 0.0, 3755.3836411695056, 0.0, 0.0, 0.0, 0.0, -2633.5048834687336, 0.0]
['beep', 0.0, 3738.97746073931, 0.0, 0.0, 0.0, 0.0, -2636.6341276924763, 0.0]
['beep', 0.0, 3734.2165391703297, 0.0, 0.0, 0.0, 0.0, -2639.7857236606746, 0.0]
['beep', 0.0, 3744.6101003420476, 0.0, 0.0, 0.0, 0.0, -2643.004374862239, 0.0]
['beep', 0.0, 3760.144562738486, 0.0, 0.0, 0.0, 0.0, -2641.260938794725, 0.0]
['beep', 0.0, 3757.8423330595892, 0.0, 0.0, 0.0, 0.0, -2638.71283992682, 0.0]
['beep', 0.0, 3740.631489829003, 0.0, 0.0, 0.0, 0.0, -2639.5622062161215, 0.0]
['beep', 0.0, 3731.7131437913354, 0.0, 0.0, 0.0, 0.0, -2640.2104068053254, 0.0]
['beep', 0.0, 3744.4759898753155, 0.0, 0.0, 0.0, 0.0, -2638.5340259711775, 0.0]
['beep', 0.0, 3760.6363011165026, 0.0, 0.0, 0.0, 0.0, -2633.3707730020014, 0.0]
['beep', 0.0, 3759.6081208715586, 0.0, 0.0, 0.0, 0.0, -2631.6049851900325, 0.0]
['beep', 0.0, 3741.7490770517684, 0.0, 0.0, 0.0, 0.0, -2632.543758457155, 0.0]
['beep', 0.0, 3732.6072135695476, 0.0, 0.0, 0.0, 0.0, -2634.041325335661, 0.0]
['beep', 0.0, 3743.537216608193, 0.0, 0.0, 0.0, 0.0, -2630.845025878552, 0.0]
['beep', 0.0, 3759.3398999380947, 0.0, 0.0, 0.0, 0.0, -2634.3318980135796, 0.0]
['beep', 0.0, 3757.8870365485, 0.0, 0.0, 0.0, 0.0, -2639.1822265603814, 0.0]
['beep', 0.0, 3742.687850318891, 0.0, 0.0, 0.0, 0.0, -2628.945127599851, 0.0]
['beep', 0.0, 3736.362306638039, 0.0, 0.0, 0.0, 0.0, -2625.748828142742, 0.0]
['beep', 0.0, 3748.119324221531, 0.0, 0.0, 0.0, 0.0, -2625.8158833761076, 0.0]
['beep', 0.0, 3762.178571483919, 0.0, 0.0, 0.0, 0.0, -2623.334839741569, 0.0]
['beep', 0.0, 3760.07750750512, 0.0, 0.0, 0.0, 0.0, -2616.3163919826025, 0.0]
['beep', 0.0, 3743.6713270749246, 0.0, 0.0, 0.0, 0.0, -2624.877110108985, 0.0]
['beep', 0.0, 3734.9317949928995, 0.0, 0.0, 0.0, 0.0, -2626.620546176499, 0.0]
['beep', 0.0, 3748.5887108550924, 0.0, 0.0, 0.0, 0.0, -2628.7216101552976, 0.0]
['beep', 0.0, 3762.98323428431, 0.0, 0.0, 0.0, 0.0, -2623.290136252658, 0.0]
['beep', 0.0, 3760.3457284385836, 0.0, 0.0, 0.0, 0.0, -2612.6954093808426, 0.0]
['beep', 0.0, 3747.113495721042, 0.0, 0.0, 0.0, 0.0, -2614.7294181262755, 0.0]
['beep', 0.0, 3738.083390961098, 0.0, 0.0, 0.0, 0.0, -2614.7964733596414, 0.0]
['beep', 0.0, 3750.421553900427, 0.0, 0.0, 0.0, 0.0, -2615.869357093496, 0.0]
['beep', 0.0, 3764.592559885092, 0.0, 0.0, 0.0, 0.0, -2615.0423425486497, 0.0]
['beep', 0.0, 3762.3126819506506, 0.0, 0.0, 0.0, 0.0, -2614.282383237169, 0.0]
['beep', 0.0, 3745.9735567538214, 0.0, 0.0, 0.0, 0.0, -2612.561298914111, 0.0]
['beep', 0.0, 3737.077562460609, 0.0, 0.0, 0.0, 0.0, -2612.7401128697534, 0.0]
['beep', 0.0, 3750.086277733598, 0.0, 0.0, 0.0, 0.0, -2611.4660634358006, 0.0]
['beep', 0.0, 3764.2349319738073, 0.0, 0.0, 0.0, 0.0, -2610.8178628465967, 0.0]
['beep', 0.0, 3762.4467924173828, 0.0, 0.0, 0.0, 0.0, -2608.716798867798, 0.0]
['beep', 0.0, 3746.174722453919, 0.0, 0.0, 0.0, 0.0, -2607.196880244837, 0.0]
['beep', 0.0, 3737.8151700276344, 0.0, 0.0, 0.0, 0.0, -2607.778025600675, 0.0]
['beep', 0.0, 3748.9463387663773, 0.0, 0.0, 0.0, 0.0, -2606.6380866334543, 0.0]
['beep', 0.0, 3763.787897084701, 0.0, 0.0, 0.0, 0.0, -2605.2969819661357, 0.0]
['beep', 0.0, 3762.5138476507486, 0.0, 0.0, 0.0, 0.0, -2604.4029121879234, 0.0]
['beep', 0.0, 3746.2194259428297, 0.0, 0.0, 0.0, 0.0, -2605.811072088608, 0.0]
['beep', 0.0, 3734.9764984818103, 0.0, 0.0, 0.0, 0.0, -2606.191051744348, 0.0]
['beep', 0.0, 3745.8394462870892, 0.0, 0.0, 0.0, 0.0, -2605.095816266038, 0.0]
['beep', 0.0, 3761.3515569390725, 0.0, 0.0, 0.0, 0.0, -2605.5875546440548, 0.0]
['beep', 0.0, 3760.658652860958, 0.0, 0.0, 0.0, 0.0, -2607.42039768939, 0.0]
['beep', 0.0, 3743.939548008388, 0.0, 0.0, 0.0, 0.0, -2606.816900589097, 0.0]
['beep', 0.0, 3734.015373470232, 0.0, 0.0, 0.0, 0.0, -2606.2804587221694, 0.0]
['beep', 0.0, 3744.230120686307, 0.0, 0.0, 0.0, 0.0, -2606.3028104666246, 0.0]
['beep', 0.0, 3758.0658505041424, 0.0, 0.0, 0.0, 0.0, -2604.6264296324766, 0.0]
['beep', 0.0, 3756.925911536922, 0.0, 0.0, 0.0, 0.0, -2604.782891843664, 0.0]
['beep', 0.0, 3739.5809578396033, 0.0, 0.0, 0.0, 0.0, -2604.648781376932, 0.0]
['beep', 0.0, 3730.7073152908465, 0.0, 0.0, 0.0, 0.0, -2606.7274936112753, 0.0]
['beep', 0.0, 3742.59844334107, 0.0, 0.0, 0.0, 0.0, -2606.392217444446, 0.0]
['beep', 0.0, 3755.338937680595, 0.0, 0.0, 0.0, 0.0, -2604.715836610298, 0.0]
['beep', 0.0, 3751.405030656461, 0.0, 0.0, 0.0, 0.0, -2604.492319165745, 0.0]
['beep', 0.0, 3734.9541467373547, 0.0, 0.0, 0.0, 0.0, -2605.9451825553397, 0.0]
['beep', 0.0, 3725.946393721866, 0.0, 0.0, 0.0, 0.0, -2606.101644766527, 0.0]
['beep', 0.0, 3738.8657020170335, 0.0, 0.0, 0.0, 0.0, -2606.414569188901, 0.0]
['beep', 0.0, 3753.081411490609, 0.0, 0.0, 0.0, 0.0, -2606.70514186682, 0.0]
['beep', 0.0, 3750.6003678560696, 0.0, 0.0, 0.0, 0.0, -2604.7605400992084, 0.0]
['beep', 0.0, 3734.685925803891, 0.0, 0.0, 0.0, 0.0, -2605.9675342997953, 0.0]
['beep', 0.0, 3725.8346349995895, 0.0, 0.0, 0.0, 0.0, -2606.3475139555353, 0.0]
['beep', 0.0, 3735.781161282201, 0.0, 0.0, 0.0, 0.0, -2605.6099063885104, 0.0]
['beep', 0.0, 3751.136809722997, 0.0, 0.0, 0.0, 0.0, -2605.006409288217, 0.0]
['beep', 0.0, 3749.4827806333046, 0.0, 0.0, 0.0, 0.0, -2604.067636021094, 0.0]
['beep', 0.0, 3731.8696060025227, 0.0, 0.0, 0.0, 0.0, -2604.3358569545576, 0.0]
['beep', 0.0, 3723.085370431587, 0.0, 0.0, 0.0, 0.0, -2606.5263279111778, 0.0]
['beep', 0.0, 3733.367172881028, 0.0, 0.0, 0.0, 0.0, -2605.453444177323, 0.0]
['beep', 0.0, 3748.879283533011, 0.0, 0.0, 0.0, 0.0, -2604.2464499767366, 0.0]
['beep', 0.0, 3746.9570335098547, 0.0, 0.0, 0.0, 0.0, -2602.6594761204096, 0.0]
['beep', 0.0, 3729.7014867903576, 0.0, 0.0, 0.0, 0.0, -2606.1463482554377, 0.0]
['beep', 0.0, 3720.9396029638774, 0.0, 0.0, 0.0, 0.0, -2606.1463482554377, 0.0]
['beep', 0.0, 3731.3331641355953, 0.0, 0.0, 0.0, 0.0, -2604.3135052101024, 0.0]
['beep', 0.0, 3745.951205009366, 0.0, 0.0, 0.0, 0.0, -2601.94422029784, 0.0]
['beep', 0.0, 3744.230120686307, 0.0, 0.0, 0.0, 0.0, -2602.5700691425886, 0.0]
['beep', 0.0, 3726.527539077704, 0.0, 0.0, 0.0, 0.0, -2604.715836610298, 0.0]
['beep', 0.0, 3717.9444692068664, 0.0, 0.0, 0.0, 0.0, -2604.8946505659405, 0.0]
['beep', 0.0, 3729.209748412341, 0.0, 0.0, 0.0, 0.0, -2605.8557755775187, 0.0]
['beep', 0.0, 3743.3584026525505, 0.0, 0.0, 0.0, 0.0, -2603.911173809907, 0.0]
['beep', 0.0, 3741.279690418207, 0.0, 0.0, 0.0, 0.0, -2603.5758976430775, 0.0]
['beep', 0.0, 3724.1806059098967, 0.0, 0.0, 0.0, 0.0, -2603.844118576541, 0.0]
['beep', 0.0, 3714.010562182732, 0.0, 0.0, 0.0, 0.0, -2605.22992673277, 0.0]
['beep', 0.0, 3725.8346349995895, 0.0, 0.0, 0.0, 0.0, -2604.738188354753, 0.0]
['beep', 0.0, 3740.586786340092, 0.0, 0.0, 0.0, 0.0, -2602.100682509027, 0.0]
['beep', 0.0, 3739.111571206042, 0.0, 0.0, 0.0, 0.0, -2602.748883098231, 0.0]
['beep', 0.0, 3722.459521586838, 0.0, 0.0, 0.0, 0.0, -2604.5593743991108, 0.0]
['beep', 0.0, 3713.1388441489753, 0.0, 0.0, 0.0, 0.0, -2605.6322581329655, 0.0]
['beep', 0.0, 3724.02414369871, 0.0, 0.0, 0.0, 0.0, -2604.782891843664, 0.0]
['beep', 0.0, 3738.753943294757, 0.0, 0.0, 0.0, 0.0, -2601.3407231975466, 0.0]
['beep', 0.0, 3735.825864771112, 0.0, 0.0, 0.0, 0.0, -2599.977266785773, 0.0]
['beep', 0.0, 3718.145634906964, 0.0, 0.0, 0.0, 0.0, -2600.7372260972534, 0.0]
['beep', 0.0, 3708.087349902076, 0.0, 0.0, 0.0, 0.0, -2603.106511009516, 0.0]
['beep', 0.0, 3716.178681394897, 0.0, 0.0, 0.0, 0.0, -2602.7265313537755, 0.0]
['beep', 0.0, 3727.1310361779974, 0.0, 0.0, 0.0, 0.0, -2602.257144720214, 0.0]
['beep', 0.0, 3729.142693178975, 0.0, 0.0, 0.0, 0.0, -2601.497185408734, 0.0]
['beep', 0.0, 3728.181568167397, 0.0, 0.0, 0.0, 0.0, -2589.427243402868, 0.0]
['beep', 0.0, 3720.693733774869, 0.0, 0.0, 0.0, 0.0, -2573.870429261974, 0.0]
['beep', 0.0, 3733.6130420700365, 0.0, 0.0, 0.0, 0.0, -2558.581836054544, 0.0]
['beep', 0.0, 3752.5449696236815, 0.0, 0.0, 0.0, 0.0, -2537.750010222198, 0.0]
['beep', 0.0, 3758.8034580711674, 0.0, 0.0, 0.0, 0.0, -2518.751027435187, 0.0]
['beep', 0.0, 3745.9065015204555, 0.0, 0.0, 0.0, 0.0, -2502.25544002717, 0.0]
['beep', 0.0, 3735.1553124374527, 0.0, 0.0, 0.0, 0.0, -2480.73071011671, 0.0]
['beep', 0.0, 3749.303966677662, 0.0, 0.0, 0.0, 0.0, -2459.205980206249, 0.0]
['beep', 0.0, 3767.654748875469, 0.0, 0.0, 0.0, 0.0, -2437.9941747181624, 0.0]
['beep', 0.0, 3771.432193688416, 0.0, 0.0, 0.0, 0.0, -2418.883433208875, 0.0]
['beep', 0.0, 3760.7704115832344, 0.0, 0.0, 0.0, 0.0, -2401.337313811459, 0.0]
['beep', 0.0, 3753.4837428908045, 0.0, 0.0, 0.0, 0.0, -2386.0710723484844, 0.0]
['beep', 0.0, 3767.3194727086393, 0.0, 0.0, 0.0, 0.0, -2368.6814151622552, 0.0]
['beep', 0.0, 3785.0891095506086, 0.0, 0.0, 0.0, 0.0, -2355.695051633722, 0.0]
['beep', 0.0, 3790.162955541963, 0.0, 0.0, 0.0, 0.0, -2336.3607926798813, 0.0]
['beep', 0.0, 3778.1600687694636, 0.0, 0.0, 0.0, 0.0, -2314.5007866025912, 0.0]
['beep', 0.0, 3773.823830345134, 0.0, 0.0, 0.0, 0.0, -2296.9099637162644, 0.0]
['beep', 0.0, 3787.905429351977, 0.0, 0.0, 0.0, 0.0, -2287.343417089393, 0.0]
['beep', 0.0, 3807.5302609837368, 0.0, 0.0, 0.0, 0.0, -2272.1442308597843, 0.0]
['beep', 0.0, 3811.598278474603, 0.0, 0.0, 0.0, 0.0, -2260.0295853650077, 0.0]
['beep', 0.0, 3798.8130806461672, 0.0, 0.0, 0.0, 0.0, -2249.7030794266557, 0.0]
['beep', 0.0, 3793.5157172102595, 0.0, 0.0, 0.0, 0.0, -2243.2657770235273, 0.0]
['beep', 0.0, 3805.853880149589, 0.0, 0.0, 0.0, 0.0, -2242.304652011949, 0.0]
['beep', 0.0, 3825.94809841491, 0.0, 0.0, 0.0, 0.0, -2230.7935036174663, 0.0]
['beep', 0.0, 3827.7138862268794, 0.0, 0.0, 0.0, 0.0, -2222.2998407244495, 0.0]
['beep', 0.0, 3815.0627988651754, 0.0, 0.0, 0.0, 0.0, -2224.1326837697848, 0.0]
['beep', 0.0, 3809.5195662402593, 0.0, 0.0, 0.0, 0.0, -2226.8819483377874, 0.0]
['beep', 0.0, 3824.13760711403, 0.0, 0.0, 0.0, 0.0, -2227.8430733493656, 0.0]
['beep', 0.0, 3844.008307934798, 0.0, 0.0, 0.0, 0.0, -2230.7935036174663, 0.0]
['beep', 0.0, 3847.9422149589323, 0.0, 0.0, 0.0, 0.0, -2232.894567596265, 0.0]
['beep', 0.0, 3836.1851973754406, 0.0, 0.0, 0.0, 0.0, -2236.0014600755526, 0.0]
['beep', 0.0, 3827.6691827379686, 0.0, 0.0, 0.0, 0.0, -2239.6224426773124, 0.0]
['beep', 0.0, 3837.816874720678, 0.0, 0.0, 0.0, 0.0, -2245.7691724025217, 0.0]
['beep', 0.0, 3850.71383127139, 0.0, 0.0, 0.0, 0.0, -2251.804143405455, 0.0]
['beep', 0.0, 3849.2162643928846, 0.0, 0.0, 0.0, 0.0, -2258.1967423196725, 0.0]
['beep', 0.0, 3832.720676984868, 0.0, 0.0, 0.0, 0.0, -2269.6184837363344, 0.0]
['beep', 0.0, 3821.164825101474, 0.0, 0.0, 0.0, 0.0, -2278.3356640739044, 0.0]
['beep', 0.0, 3828.272679838262, 0.0, 0.0, 0.0, 0.0, -2284.1024141433736, 0.0]
['beep', 0.0, 3843.4495143234153, 0.0, 0.0, 0.0, 0.0, -2289.243315368094, 0.0]
['beep', 0.0, 3842.2201683783733, 0.0, 0.0, 0.0, 0.0, -2295.5912107934014, 0.0]
['beep', 0.0, 3824.562290258681, 0.0, 0.0, 0.0, 0.0, -2300.396835851292, 0.0]
['beep', 0.0, 3813.6099354755806, 0.0, 0.0, 0.0, 0.0, -2304.822481253443, 0.0]
['beep', 0.0, 3824.6069937475913, 0.0, 0.0, 0.0, 0.0, -2310.477472600636, 0.0]
['beep', 0.0, 3840.4990840553146, 0.0, 0.0, 0.0, 0.0, -2313.718475546655, 0.0]
['beep', 0.0, 3839.940290443932, 0.0, 0.0, 0.0, 0.0, -2318.300583159993, 0.0]
['beep', 0.0, 3821.4106942904828, 0.0, 0.0, 0.0, 0.0, -2324.6037750963897, 0.0]
['beep', 0.0, 3810.7712639297565, 0.0, 0.0, 0.0, 0.0, -2327.5765571089455, 0.0]
['beep', 0.0, 3820.5613280011808, 0.0, 0.0, 0.0, 0.0, -2329.7670280655657, 0.0]
['beep', 0.0, 3835.0229066637644, 0.0, 0.0, 0.0, 0.0, -2332.829217055943, 0.0]
['beep', 0.0, 3833.8606159520887, 0.0, 0.0, 0.0, 0.0, -2333.4103624117806, 0.0]
['beep', 0.0, 3816.113330854575, 0.0, 0.0, 0.0, 0.0, -2338.46185665868, 0.0]
['beep', 0.0, 3805.0939208381083, 0.0, 0.0, 0.0, 0.0, -2341.3899351823256, 0.0]
['beep', 0.0, 3814.816929676167, 0.0, 0.0, 0.0, 0.0, -2341.5911008824232, 0.0]
['beep', 0.0, 3829.0549908941975, 0.0, 0.0, 0.0, 0.0, -2343.468647416669, 0.0]
['beep', 0.0, 3830.2843368392396, 0.0, 0.0, 0.0, 0.0, -2346.530836407046, 0.0]
['beep', 0.0, 3813.3864180310275, 0.0, 0.0, 0.0, 0.0, -2349.9283015642527, 0.0]
['beep', 0.0, 3800.7576824137786, 0.0, 0.0, 0.0, 0.0, -2352.9457870657193, 0.0]
['beep', 0.0, 3809.921897640455, 0.0, 0.0, 0.0, 0.0, -2354.175133010761, 0.0]
['beep', 0.0, 3825.3446013146167, 0.0, 0.0, 0.0, 0.0, -2353.4822289326466, 0.0]
['beep', 0.0, 3824.7634559587786, 0.0, 0.0, 0.0, 0.0, -2355.0021475556073, 0.0]
['beep', 0.0, 3807.820833661656, 0.0, 0.0, 0.0, 0.0, -2356.99145281213, 0.0]
['beep', 0.0, 3796.8237753896447, 0.0, 0.0, 0.0, 0.0, -2361.2606360030936, 0.0]
['beep', 0.0, 3807.083226094631, 0.0, 0.0, 0.0, 0.0, -2360.0312900580516, 0.0]
['beep', 0.0, 3821.6118599905803, 0.0, 0.0, 0.0, 0.0, -2360.2548075026048, 0.0]
['beep', 0.0, 3821.5671565016696, 0.0, 0.0, 0.0, 0.0, -2360.0536418025067, 0.0]
['beep', 0.0, 3806.4126737609718, 0.0, 0.0, 0.0, 0.0, -2360.880656347353, 0.0]
['beep', 0.0, 3794.4768422218376, 0.0, 0.0, 0.0, 0.0, -2365.306301749504, 0.0]
['beep', 0.0, 3802.791691159212, 0.0, 0.0, 0.0, 0.0, -2367.206200028205, 0.0]
['beep', 0.0, 3818.840243678122, 0.0, 0.0, 0.0, 0.0, -2365.820391871976, 0.0]
['beep', 0.0, 3819.2872785672284, 0.0, 0.0, 0.0, 0.0, -2369.821354129476, 0.0]
['beep', 0.0, 3801.2494207917957, 0.0, 0.0, 0.0, 0.0, -2371.698900663722, 0.0]
['beep', 0.0, 3791.2134875313627, 0.0, 0.0, 0.0, 0.0, -2368.8602291178977, 0.0]
['beep', 0.0, 3801.875269636544, 0.0, 0.0, 0.0, 0.0, -2369.1284500513616, 0.0]
['beep', 0.0, 3816.560365743681, 0.0, 0.0, 0.0, 0.0, -2368.2120285286937, 0.0]
['beep', 0.0, 3817.789711688723, 0.0, 0.0, 0.0, 0.0, -2369.106098306906, 0.0]
['beep', 0.0, 3800.601220202592, 0.0, 0.0, 0.0, 0.0, -2370.983644841152, 0.0]
['beep', 0.0, 3789.760624141768, 0.0, 0.0, 0.0, 0.0, -2374.202296042716, 0.0]
['beep', 0.0, 3799.7965574022005, 0.0, 0.0, 0.0, 0.0, -2376.1245460658724, 0.0]
['beep', 0.0, 3814.951040142899, 0.0, 0.0, 0.0, 0.0, -2374.604627442912, 0.0]
['beep', 0.0, 3815.3086680541837, 0.0, 0.0, 0.0, 0.0, -2375.4092902433026, 0.0]
['beep', 0.0, 3797.650789934491, 0.0, 0.0, 0.0, 0.0, -2375.4092902433026, 0.0]
['beep', 0.0, 3785.916124095455, 0.0, 0.0, 0.0, 0.0, -2376.795098399532, 0.0]
['beep', 0.0, 3797.56138295667, 0.0, 0.0, 0.0, 0.0, -2378.9408658672414, 0.0]
['beep', 0.0, 3812.1570720859854, 0.0, 0.0, 0.0, 0.0, -2378.113851322395, 0.0]
['beep', 0.0, 3812.715865697368, 0.0, 0.0, 0.0, 0.0, -2377.175078055272, 0.0]
['beep', 0.0, 3795.9967608447982, 0.0, 0.0, 0.0, 0.0, -2377.800926900021, 0.0]
['beep', 0.0, 3785.200868272885, 0.0, 0.0, 0.0, 0.0, -2379.6561216898112, 0.0]
['beep', 0.0, 3794.342731755106, 0.0, 0.0, 0.0, 0.0, -2380.9972263571294, 0.0]
['beep', 0.0, 3810.1007115960974, 0.0, 0.0, 0.0, 0.0, -2381.8912961353417, 0.0]
['beep', 0.0, 3811.2182988188624, 0.0, 0.0, 0.0, 0.0, -2378.47147923368, 0.0]
['beep', 0.0, 3793.113385810064, 0.0, 0.0, 0.0, 0.0, -2374.112889064895, 0.0]
['beep', 0.0, 3781.4904786933043, 0.0, 0.0, 0.0, 0.0, -2375.923380365775, 0.0]
['beep', 0.0, 3792.2863712652174, 0.0, 0.0, 0.0, 0.0, -2375.543400710035, 0.0]
['beep', 0.0, 3809.050179606698, 0.0, 0.0, 0.0, 0.0, -2371.3859762413476, 0.0]
['beep', 0.0, 3808.8713656510554, 0.0, 0.0, 0.0, 0.0, -2368.9719878401743, 0.0]
['beep', 0.0, 3792.46518522086, 0.0, 0.0, 0.0, 0.0, -2369.597836684923, 0.0]
['beep', 0.0, 3783.010397316265, 0.0, 0.0, 0.0, 0.0, -2371.8330111304535, 0.0]
['beep', 0.0, 3791.816984631656, 0.0, 0.0, 0.0, 0.0, -2373.1964675422273, 0.0]
['beep', 0.0, 3805.8315284051337, 0.0, 0.0, 0.0, 0.0, -2372.0565285750067, 0.0]
['beep', 0.0, 3806.815005161167, 0.0, 0.0, 0.0, 0.0, -2371.8330111304535, 0.0]
['beep', 0.0, 3790.0064933307763, 0.0, 0.0, 0.0, 0.0, -2371.3859762413476, 0.0]
['beep', 0.0, 3779.434118203416, 0.0, 0.0, 0.0, 0.0, -2373.330578008959, 0.0]
['beep', 0.0, 3788.0842433076195, 0.0, 0.0, 0.0, 0.0, -2373.4423367312356, 0.0]
['beep', 0.0, 3804.915106882466, 0.0, 0.0, 0.0, 0.0, -2373.911723364797, 0.0]
['beep', 0.0, 3806.1221010830527, 0.0, 0.0, 0.0, 0.0, -2374.202296042716, 0.0]
['beep', 0.0, 3789.9394380974104, 0.0, 0.0, 0.0, 0.0, -2372.7717843975765, 0.0]
['beep', 0.0, 3778.696510636391, 0.0, 0.0, 0.0, 0.0, -2375.0740140764733, 0.0]
['beep', 0.0, 3787.659560162969, 0.0, 0.0, 0.0, 0.0, -2372.32474950847, 0.0]
['beep', 0.0, 3802.0093801032763, 0.0, 0.0, 0.0, 0.0, -2372.078880319462, 0.0]
['beep', 0.0, 3802.881098137033, 0.0, 0.0, 0.0, 0.0, -2372.7717843975765, 0.0]
['beep', 0.0, 3786.787842129212, 0.0, 0.0, 0.0, 0.0, -2373.4423367312356, 0.0]
['beep', 0.0, 3774.829658845623, 0.0, 0.0, 0.0, 0.0, -2376.0574908325066, 0.0]
['beep', 0.0, 3783.0998042940864, 0.0, 0.0, 0.0, 0.0, -2373.665854175789, 0.0]
['beep', 0.0, 3798.634266690525, 0.0, 0.0, 0.0, 0.0, -2373.1294123088614, 0.0]
['beep', 0.0, 3800.5118132247703, 0.0, 0.0, 0.0, 0.0, -2373.7329094091547, 0.0]
['beep', 0.0, 3784.753833383779, 0.0, 0.0, 0.0, 0.0, -2374.6716826762777, 0.0]
['beep', 0.0, 3773.6673681339466, 0.0, 0.0, 0.0, 0.0, -2373.218819286683, 0.0]
['beep', 0.0, 3784.016225816754, 0.0, 0.0, 0.0, 0.0, -2375.23047628766, 0.0]
['beep', 0.0, 3799.3495225130946, 0.0, 0.0, 0.0, 0.0, -2375.23047628766, 0.0]
['beep', 0.0, 3801.94232486991, 0.0, 0.0, 0.0, 0.0, -2373.576447197968, 0.0]
['beep', 0.0, 3786.4078624734716, 0.0, 0.0, 0.0, 0.0, -2373.7999646425205, 0.0]
['beep', 0.0, 3772.818001844645, 0.0, 0.0, 0.0, 0.0, -2375.6104559434007, 0.0]
['beep', 0.0, 3783.36802522755, 0.0, 0.0, 0.0, 0.0, -2375.4539937322133, 0.0]
['beep', 0.0, 3798.7683771572565, 0.0, 0.0, 0.0, 0.0, -2375.632807687856, 0.0]
['beep', 0.0, 3800.4447579914045, 0.0, 0.0, 0.0, 0.0, -2373.3529297534146, 0.0]
['beep', 0.0, 3784.7314816393236, 0.0, 0.0, 0.0, 0.0, -2373.3752814978698, 0.0]
['beep', 0.0, 3772.1027460220753, 0.0, 0.0, 0.0, 0.0, -2372.1906390417385, 0.0]
['beep', 0.0, 3779.9705600703433, 0.0, 0.0, 0.0, 0.0, -2371.8330111304535, 0.0]
['beep', 0.0, 3796.242630033807, 0.0, 0.0, 0.0, 0.0, -2371.8330111304535, 0.0]
['beep', 0.0, 3798.5448597127033, 0.0, 0.0, 0.0, 0.0, -2371.0954035634286, 0.0]
['beep', 0.0, 3783.1445077829967, 0.0, 0.0, 0.0, 0.0, -2373.0623570754956, 0.0]
['beep', 0.0, 3771.789821599701, 0.0, 0.0, 0.0, 0.0, -2374.559923954001, 0.0]
['beep', 0.0, 3780.305836237173, 0.0, 0.0, 0.0, 0.0, -2373.3976332423254, 0.0]
['beep', 0.0, 3796.1979265448963, 0.0, 0.0, 0.0, 0.0, -2370.603665185412, 0.0]
['beep', 0.0, 3799.327170768639, 0.0, 0.0, 0.0, 0.0, -2368.5473046955235, 0.0]
['beep', 0.0, 3782.7645281272567, 0.0, 0.0, 0.0, 0.0, -2371.721252408177, 0.0]
['beep', 0.0, 3770.1134407655527, 0.0, 0.0, 0.0, 0.0, -2375.0293105875626, 0.0]
['beep', 0.0, 3778.629455403025, 0.0, 0.0, 0.0, 0.0, -2374.045833831529, 0.0]
['beep', 0.0, 3794.588600944114, 0.0, 0.0, 0.0, 0.0, -2372.3918047418365, 0.0]
['beep', 0.0, 3797.628438190036, 0.0, 0.0, 0.0, 0.0, -2372.883543119853, 0.0]
['beep', 0.0, 3780.9987403152873, 0.0, 0.0, 0.0, 0.0, -2373.956426853708, 0.0]
['beep', 0.0, 3769.241722731796, 0.0, 0.0, 0.0, 0.0, -2375.2528280321158, 0.0]
['beep', 0.0, 3776.729557124324, 0.0, 0.0, 0.0, 0.0, -2375.8339733879534, 0.0]
['beep', 0.0, 3791.816984631656, 0.0, 0.0, 0.0, 0.0, -2372.9953018421297, 0.0]
['beep', 0.0, 3794.9685805998542, 0.0, 0.0, 0.0, 0.0, -2375.0740140764733, 0.0]
['beep', 0.0, 3779.948208325888, 0.0, 0.0, 0.0, 0.0, -2374.2917030205376, 0.0]
['beep', 0.0, 3768.5711703981365, 0.0, 0.0, 0.0, 0.0, -2375.7222146656773, 0.0]
['beep', 0.0, 3776.237818746307, 0.0, 0.0, 0.0, 0.0, -2375.4092902433026, 0.0]
['beep', 0.0, 3793.4486619768936, 0.0, 0.0, 0.0, 0.0, -2375.297531521026, 0.0]
['beep', 0.0, 3795.2144497888626, 0.0, 0.0, 0.0, 0.0, -2376.504525721613, 0.0]
['beep', 0.0, 3777.422461202438, 0.0, 0.0, 0.0, 0.0, -2377.2868367775486, 0.0]
['beep', 0.0, 3766.9394930528993, 0.0, 0.0, 0.0, 0.0, -2378.0914995779394, 0.0]
['beep', 0.0, 3775.120231523542, 0.0, 0.0, 0.0, 0.0, -2375.789269899043, 0.0]
['beep', 0.0, 3790.878211364533, 0.0, 0.0, 0.0, 0.0, -2373.7552611536103, 0.0]
['beep', 0.0, 3793.6051241880805, 0.0, 0.0, 0.0, 0.0, -2376.012787343596, 0.0]
['beep', 0.0, 3778.204772258374, 0.0, 0.0, 0.0, 0.0, -2377.9797408556633, 0.0]
['beep', 0.0, 3766.4477546748826, 0.0, 0.0, 0.0, 0.0, -2377.4209472442803, 0.0]
['beep', 0.0, 3775.1872867569077, 0.0, 0.0, 0.0, 0.0, -2375.0293105875626, 0.0]
['beep', 0.0, 3790.2523625197846, 0.0, 0.0, 0.0, 0.0, -2373.8670198758864, 0.0]
['beep', 0.0, 3792.621647432047, 0.0, 0.0, 0.0, 0.0, -2373.218819286683, 0.0]
['beep', 0.0, 3776.729557124324, 0.0, 0.0, 0.0, 0.0, -2374.6493309318225, 0.0]
['beep', 0.0, 3765.084298263109, 0.0, 0.0, 0.0, 0.0, -2377.6444646888335, 0.0]
['beep', 0.0, 3772.147449510986, 0.0, 0.0, 0.0, 0.0, -2377.488002477646, 0.0]
['beep', 0.0, 3787.1901735294073, 0.0, 0.0, 0.0, 0.0, -2377.5774094554677, 0.0]
['beep', 0.0, 3790.5429351977036, 0.0, 0.0, 0.0, 0.0, -2375.297531521026, 0.0]
['beep', 0.0, 3775.3437489680946, 0.0, 0.0, 0.0, 0.0, -2376.1021943214173, 0.0]
['beep', 0.0, 3763.0055860287653, 0.0, 0.0, 0.0, 0.0, -2377.3762437553696, 0.0]
['beep', 0.0, 3771.7451181107904, 0.0, 0.0, 0.0, 0.0, -2377.0186158440847, 0.0]
['beep', 0.0, 3788.0395398187093, 0.0, 0.0, 0.0, 0.0, -2374.47051697618, 0.0]
['beep', 0.0, 3790.9899700868095, 0.0, 0.0, 0.0, 0.0, -2373.576447197968, 0.0]
['beep', 0.0, 3774.762603612257, 0.0, 0.0, 0.0, 0.0, -2375.543400710035, 0.0]
['beep', 0.0, 3761.083336005609, 0.0, 0.0, 0.0, 0.0, -2375.2528280321158, 0.0]
['beep', 0.0, 3769.308777965162, 0.0, 0.0, 0.0, 0.0, -2376.213953043694, 0.0]
['beep', 0.0, 3790.5876386866144, 0.0, 0.0, 0.0, 0.0, -2372.9058948643083, 0.0]
['beep', 0.0, 3792.487536965315, 0.0, 0.0, 0.0, 0.0, -2372.727080908666, 0.0]
['beep', 0.0, 3774.6061414010696, 0.0, 0.0, 0.0, 0.0, -2374.895200120831, 0.0]
['beep', 0.0, 3761.9103505504554, 0.0, 0.0, 0.0, 0.0, -2374.3140547649928, 0.0]
['beep', 0.0, 3769.9346268099102, 0.0, 0.0, 0.0, 0.0, -2375.0740140764733, 0.0]
['beep', 0.0, 3785.4020339729827, 0.0, 0.0, 0.0, 0.0, -2376.1021943214173, 0.0]
['beep', 0.0, 3789.470051463849, 0.0, 0.0, 0.0, 0.0, -2375.7445664101324, 0.0]
['beep', 0.0, 3774.1591065119633, 0.0, 0.0, 0.0, 0.0, -2375.9904355991407, 0.0]
['beep', 0.0, 3761.8656470615447, 0.0, 0.0, 0.0, 0.0, -2376.4151187437915, 0.0]
['beep', 0.0, 3768.9287983094214, 0.0, 0.0, 0.0, 0.0, -2376.079842576962, 0.0]
['beep', 0.0, 3785.4690892063486, 0.0, 0.0, 0.0, 0.0, -2374.0234820870737, 0.0]
['beep', 0.0, 3788.8442026191, 0.0, 0.0, 0.0, 0.0, -2374.112889064895, 0.0]
['beep', 0.0, 3773.8014786006784, 0.0, 0.0, 0.0, 0.0, -2377.7785751555652, 0.0]
['beep', 0.0, 3762.6032546285696, 0.0, 0.0, 0.0, 0.0, -2378.6502931893224, 0.0]
['beep', 0.0, 3769.7111093653575, 0.0, 0.0, 0.0, 0.0, -2378.046796089029, 0.0]
['beep', 0.0, 3785.4020339729827, 0.0, 0.0, 0.0, 0.0, -2375.0963658209284, 0.0]
['beep', 0.0, 3790.0959003085973, 0.0, 0.0, 0.0, 0.0, -2374.828144887465, 0.0]
['beep', 0.0, 3773.9355890674105, 0.0, 0.0, 0.0, 0.0, -2376.213953043694, 0.0]
['beep', 0.0, 3760.07750750512, 0.0, 0.0, 0.0, 0.0, -2378.0244443445736, 0.0]
['beep', 0.0, 3767.945321553388, 0.0, 0.0, 0.0, 0.0, -2379.879639134364, 0.0]
['beep', 0.0, 3784.2844467502177, 0.0, 0.0, 0.0, 0.0, -2378.9855693561517, 0.0]
['beep', 0.0, 3786.430214217927, 0.0, 0.0, 0.0, 0.0, -2377.8679821333867, 0.0]
['beep', 0.0, 3770.940455310399, 0.0, 0.0, 0.0, 0.0, -2381.176040312772, 0.0]
['beep', 0.0, 3758.6469958599805, 0.0, 0.0, 0.0, 0.0, -2379.7455286676322, 0.0]
['beep', 0.0, 3766.917141308444, 0.0, 0.0, 0.0, 0.0, -2380.2149153011937, 0.0]
['beep', 0.0, 3782.7645281272567, 0.0, 0.0, 0.0, 0.0, -2377.443298988736, 0.0]
['beep', 0.0, 3786.139641540008, 0.0, 0.0, 0.0, 0.0, -2377.4209472442803, 0.0]
['beep', 0.0, 3770.694586121391, 0.0, 0.0, 0.0, 0.0, -2376.7056914217105, 0.0]
['beep', 0.0, 3757.7529260817682, 0.0, 0.0, 0.0, 0.0, -2377.532705966557, 0.0]
['beep', 0.0, 3766.626568630525, 0.0, 0.0, 0.0, 0.0, -2378.1585548113057, 0.0]
['beep', 0.0, 3781.110499037564, 0.0, 0.0, 0.0, 0.0, -2378.538534467046, 0.0]
['beep', 0.0, 3786.586676429114, 0.0, 0.0, 0.0, 0.0, -2378.0691478334843, 0.0]
['beep', 0.0, 3770.336958210106, 0.0, 0.0, 0.0, 0.0, -2378.2256100446716, 0.0]
['beep', 0.0, 3756.7023940923686, 0.0, 0.0, 0.0, 0.0, -2380.527839723568, 0.0]
['beep', 0.0, 3764.167876740441, 0.0, 0.0, 0.0, 0.0, -2377.2644850330935, 0.0]
['beep', 0.0, 3779.6352839035135, 0.0, 0.0, 0.0, 0.0, -2377.6221129443784, 0.0]
['beep', 0.0, 3783.233914760818, 0.0, 0.0, 0.0, 0.0, -2378.3150170224926, 0.0]
['beep', 0.0, 3767.9006180644774, 0.0, 0.0, 0.0, 0.0, -2379.477307734169, 0.0]
['beep', 0.0, 3756.9035597924662, 0.0, 0.0, 0.0, 0.0, -2380.6619501903, 0.0]
['beep', 0.0, 3765.2407604742957, 0.0, 0.0, 0.0, 0.0, -2379.365549011892, 0.0]
['beep', 0.0, 3781.334016482117, 0.0, 0.0, 0.0, 0.0, -2375.18577279875, 0.0]
['beep', 0.0, 3786.519621195748, 0.0, 0.0, 0.0, 0.0, -2375.56575245449, 0.0]
['beep', 0.0, 3772.7285948668236, 0.0, 0.0, 0.0, 0.0, -2378.0020926001184, 0.0]
['beep', 0.0, 3760.7704115832344, 0.0, 0.0, 0.0, 0.0, -2377.5774094554677, 0.0]
['beep', 0.0, 3765.5983883855806, 0.0, 0.0, 0.0, 0.0, -2376.817450143987, 0.0]
['beep', 0.0, 3780.954036826377, 0.0, 0.0, 0.0, 0.0, -2375.2528280321158, 0.0]
['beep', 0.0, 3784.6420746615026, 0.0, 0.0, 0.0, 0.0, -2374.3811099983586, 0.0]
['beep', 0.0, 3768.8393913316004, 0.0, 0.0, 0.0, 0.0, -2373.688205920244, 0.0]
['beep', 0.0, 3755.9647865253437, 0.0, 0.0, 0.0, 0.0, -2376.8398018884423, 0.0]
['beep', 0.0, 3762.3797371840164, 0.0, 0.0, 0.0, 0.0, -2378.8067554005092, 0.0]
['beep', 0.0, 3779.6352839035135, 0.0, 0.0, 0.0, 0.0, -2376.4151187437915, 0.0]
['beep', 0.0, 3784.954999083877, 0.0, 0.0, 0.0, 0.0, -2376.817450143987, 0.0]
['beep', 0.0, 3768.325301209128, 0.0, 0.0, 0.0, 0.0, -2377.175078055272, 0.0]
['beep', 0.0, 3755.36128942505, 0.0, 0.0, 0.0, 0.0, -2377.465650733191, 0.0]
['beep', 0.0, 3762.178571483919, 0.0, 0.0, 0.0, 0.0, -2376.9739123551744, 0.0]
['beep', 0.0, 3778.2494757472846, 0.0, 0.0, 0.0, 0.0, -2377.7338716666545, 0.0]
['beep', 0.0, 3782.2280862603293, 0.0, 0.0, 0.0, 0.0, -2378.5832379559565, 0.0]
['beep', 0.0, 3767.677100619924, 0.0, 0.0, 0.0, 0.0, -2377.75622341111, 0.0]
['beep', 0.0, 3753.1261149795196, 0.0, 0.0, 0.0, 0.0, -2376.795098399532, 0.0]
['beep', 0.0, 3758.4458301598825, 0.0, 0.0, 0.0, 0.0, -2378.180906555761, 0.0]
['beep', 0.0, 3775.522562923737, 0.0, 0.0, 0.0, 0.0, -2377.5774094554677, 0.0]
['beep', 0.0, 3780.015263559254, 0.0, 0.0, 0.0, 0.0, -2377.488002477646, 0.0]
['beep', 0.0, 3765.754850596768, 0.0, 0.0, 0.0, 0.0, -2377.4209472442803, 0.0]
['beep', 0.0, 3753.7966673131787, 0.0, 0.0, 0.0, 0.0, -2378.538534467046, 0.0]
['beep', 0.0, 3758.110553993053, 0.0, 0.0, 0.0, 0.0, -2379.723176923177, 0.0]
['beep', 0.0, 3773.622664645036, 0.0, 0.0, 0.0, 0.0, -2380.147860067828, 0.0]
['beep', 0.0, 3779.3223594811393, 0.0, 0.0, 0.0, 0.0, -2375.9904355991407, 0.0]
['beep', 0.0, 3764.391394184994, 0.0, 0.0, 0.0, 0.0, -2376.169249554783, 0.0]
['beep', 0.0, 3751.6061963565585, 0.0, 0.0, 0.0, 0.0, -2377.152726310817, 0.0]
['beep', 0.0, 3756.568283625637, 0.0, 0.0, 0.0, 0.0, -2378.538534467046, 0.0]
['beep', 0.0, 3772.818001844645, 0.0, 0.0, 0.0, 0.0, -2379.164383311794, 0.0]
['beep', 0.0, 3778.629455403025, 0.0, 0.0, 0.0, 0.0, -2375.0740140764733, 0.0]
['beep', 0.0, 3763.3855656845053, 0.0, 0.0, 0.0, 0.0, -2376.951560610719, 0.0]
['beep', 0.0, 3750.041574244687, 0.0, 0.0, 0.0, 0.0, -2378.426775744769, 0.0]
['beep', 0.0, 3755.718917336335, 0.0, 0.0, 0.0, 0.0, -2379.0973280784283, 0.0]
['beep', 0.0, 3771.8345250886114, 0.0, 0.0, 0.0, 0.0, -2375.878676876864, 0.0]
['beep', 0.0, 3777.3777577135274, 0.0, 0.0, 0.0, 0.0, -2374.582275698456, 0.0]
['beep', 0.0, 3761.5974261280808, 0.0, 0.0, 0.0, 0.0, -2377.2868367775486, 0.0]
['beep', 0.0, 3747.9852137547987, 0.0, 0.0, 0.0, 0.0, -2378.7397001671434, 0.0]
['beep', 0.0, 3752.947301023877, 0.0, 0.0, 0.0, 0.0, -2379.9243426232747, 0.0]
['beep', 0.0, 3768.3476529535837, 0.0, 0.0, 0.0, 0.0, -2377.890333877842, 0.0]
['beep', 0.0, 3773.846182089589, 0.0, 0.0, 0.0, 0.0, -2379.074976333973, 0.0]
['beep', 0.0, 3758.3117196931507, 0.0, 0.0, 0.0, 0.0, -2379.3208455229815, 0.0]
['beep', 0.0, 3743.0678299746314, 0.0, 0.0, 0.0, 0.0, -2378.3150170224926, 0.0]
['beep', 0.0, 3750.2650916892403, 0.0, 0.0, 0.0, 0.0, -2378.9855693561517, 0.0]
['beep', 0.0, 3768.07943202012, 0.0, 0.0, 0.0, 0.0, -2378.493830978135, 0.0]
['beep', 0.0, 3772.6838913779134, 0.0, 0.0, 0.0, 0.0, -2376.9292088662637, 0.0]
['beep', 0.0, 3756.6800423479135, 0.0, 0.0, 0.0, 0.0, -2379.9913978566406, 0.0]
['beep', 0.0, 3744.7665625532345, 0.0, 0.0, 0.0, 0.0, -2381.734833924155, 0.0]
['beep', 0.0, 3740.3185654066287, 0.0, 0.0, 0.0, 0.0, -2381.176040312772, 0.0]
['beep', 0.0, 3746.2194259428297, 0.0, 0.0, 0.0, 0.0, -2381.5560199685124, 0.0]
['beep', 0.0, 3762.759716839757, 0.0, 0.0, 0.0, 0.0, -2380.438432745747, 0.0]
['beep', 0.0, 3766.8724378195334, 0.0, 0.0, 0.0, 0.0, -2379.1867350562497, 0.0]
['beep', 0.0, 3752.79083881269, 0.0, 0.0, 0.0, 0.0, -2380.9972263571294, 0.0]
['beep', 0.0, 3739.8715305175224, 0.0, 0.0, 0.0, 0.0, -2381.444261246236, 0.0]
['beep', 0.0, 3744.7218590643242, 0.0, 0.0, 0.0, 0.0, -2380.371377512381, 0.0]
['beep', 0.0, 3761.753888339268, 0.0, 0.0, 0.0, 0.0, -2378.6055897004117, 0.0]
['beep', 0.0, 3767.8112110866564, 0.0, 0.0, 0.0, 0.0, -2377.599761199923, 0.0]
['beep', 0.0, 3753.9978330132767, 0.0, 0.0, 0.0, 0.0, -2379.3431972674366, 0.0]
['beep', 0.0, 3740.363268895539, 0.0, 0.0, 0.0, 0.0, -2381.37720601287, 0.0]
['beep', 0.0, 3744.7218590643242, 0.0, 0.0, 0.0, 0.0, -2380.6619501903, 0.0]
['beep', 0.0, 3761.0386325166983, 0.0, 0.0, 0.0, 0.0, -2378.180906555761, 0.0]
['beep', 0.0, 3767.2524174752734, 0.0, 0.0, 0.0, 0.0, -2378.9632176116966, 0.0]
['beep', 0.0, 3752.8131905571454, 0.0, 0.0, 0.0, 0.0, -2379.432604245258, 0.0]
['beep', 0.0, 3738.6421845724803, 0.0, 0.0, 0.0, 0.0, -2379.812583900998, 0.0]
['beep', 0.0, 3744.0289549862096, 0.0, 0.0, 0.0, 0.0, -2381.8465926464314, 0.0]
['beep', 0.0, 3759.8092865716562, 0.0, 0.0, 0.0, 0.0, -2381.37720601287, 0.0]
['beep', 0.0, 3765.4419261743938, 0.0, 0.0, 0.0, 0.0, -2379.365549011892, 0.0]
['beep', 0.0, 3751.3826789120058, 0.0, 0.0, 0.0, 0.0, -2380.6172467013894, 0.0]
['beep', 0.0, 3738.1280944500086, 0.0, 0.0, 0.0, 0.0, -2383.746490925132, 0.0]
['beep', 0.0, 3742.0396497296874, 0.0, 0.0, 0.0, 0.0, -2383.634732202856, 0.0]
['beep', 0.0, 3758.4458301598825, 0.0, 0.0, 0.0, 0.0, -2380.170211812283, 0.0]
['beep', 0.0, 3764.3243389516283, 0.0, 0.0, 0.0, 0.0, -2380.170211812283, 0.0]
['beep', 0.0, 3749.661594588947, 0.0, 0.0, 0.0, 0.0, -2378.918514122786, 0.0]
['beep', 0.0, 3735.088257204087, 0.0, 0.0, 0.0, 0.0, -2382.0924618354397, 0.0]
['beep', 0.0, 3740.206806684352, 0.0, 0.0, 0.0, 0.0, -2382.763014169099, 0.0]
['beep', 0.0, 3756.3447661810837, 0.0, 0.0, 0.0, 0.0, -2381.1983920572275, 0.0]
['beep', 0.0, 3763.0055860287653, 0.0, 0.0, 0.0, 0.0, -2381.6230752018782, 0.0]
['beep', 0.0, 3749.2145596998407, 0.0, 0.0, 0.0, 0.0, -2380.6619501903, 0.0]
['beep', 0.0, 3735.5129403487376, 0.0, 0.0, 0.0, 0.0, -2383.500621736124, 0.0]
['beep', 0.0, 3740.0279927287097, 0.0, 0.0, 0.0, 0.0, -2384.618208958889, 0.0]
['beep', 0.0, 3756.724745836824, 0.0, 0.0, 0.0, 0.0, -2383.1876973137496, 0.0]
['beep', 0.0, 3762.178571483919, 0.0, 0.0, 0.0, 0.0, -2379.3879007563473, 0.0]
['beep', 0.0, 3747.918158521433, 0.0, 0.0, 0.0, 0.0, -2378.7173484226882, 0.0]
['beep', 0.0, 3735.110608948542, 0.0, 0.0, 0.0, 0.0, -2381.176040312772, 0.0]
['beep', 0.0, 3739.335088650595, 0.0, 0.0, 0.0, 0.0, -2380.9078193793084, 0.0]
['beep', 0.0, 3756.4118214144496, 0.0, 0.0, 0.0, 0.0, -2379.454955989713, 0.0]
['beep', 0.0, 3762.98323428431, 0.0, 0.0, 0.0, 0.0, -2377.6444646888335, 0.0]
['beep', 0.0, 3748.40989689945, 0.0, 0.0, 0.0, 0.0, -2378.694996678233, 0.0]
['beep', 0.0, 3734.730629292802, 0.0, 0.0, 0.0, 0.0, -2381.2207438016826, 0.0]
['beep', 0.0, 3738.3516118945618, 0.0, 0.0, 0.0, 0.0, -2380.5501914680235, 0.0]
['beep', 0.0, 3756.1883039698964, 0.0, 0.0, 0.0, 0.0, -2380.5948949569342, 0.0]
['beep', 0.0, 3762.8938273064887, 0.0, 0.0, 0.0, 0.0, -2378.0244443445736, 0.0]
['beep', 0.0, 3749.5721876111256, 0.0, 0.0, 0.0, 0.0, -2378.5832379559565, 0.0]
['beep', 0.0, 3734.5071118482488, 0.0, 0.0, 0.0, 0.0, -2381.8018891575207, 0.0]
['beep', 0.0, 3738.5751293391145, 0.0, 0.0, 0.0, 0.0, -2381.6007234574226, 0.0]
['beep', 0.0, 3755.2271789583183, 0.0, 0.0, 0.0, 0.0, -2379.3208455229815, 0.0]
['beep', 0.0, 3762.2456267172847, 0.0, 0.0, 0.0, 0.0, -2378.9632176116966, 0.0]
['beep', 0.0, 3748.2310829438075, 0.0, 0.0, 0.0, 0.0, -2379.5443629675347, 0.0]
['beep', 0.0, 3733.590690325581, 0.0, 0.0, 0.0, 0.0, -2381.7124821796992, 0.0]
['beep', 0.0, 3736.8987485049665, 0.0, 0.0, 0.0, 0.0, -2382.0924618354397, 0.0]
['beep', 0.0, 3753.7072603353577, 0.0, 0.0, 0.0, 0.0, -2382.1818688132607, 0.0]
['beep', 0.0, 3760.3233766941285, 0.0, 0.0, 0.0, 0.0, -2381.444261246236, 0.0]
['beep', 0.0, 3746.755867809757, 0.0, 0.0, 0.0, 0.0, -2381.310150779504, 0.0]
['beep', 0.0, 3733.590690325581, 0.0, 0.0, 0.0, 0.0, -2382.85242114692, 0.0]
['beep', 0.0, 3737.658707816447, 0.0, 0.0, 0.0, 0.0, -2383.411214758303, 0.0]
['beep', 0.0, 3752.947301023877, 0.0, 0.0, 0.0, 0.0, -2382.8971246358306, 0.0]
['beep', 0.0, 3758.0211470152317, 0.0, 0.0, 0.0, 0.0, -2381.6007234574226, 0.0]
['beep', 0.0, 3744.520693364226, 0.0, 0.0, 0.0, 0.0, -2383.5900287139452, 0.0]
['beep', 0.0, 3729.567376323626, 0.0, 0.0, 0.0, 0.0, -2385.7357961816547, 0.0]
['beep', 0.0, 3732.875434503011, 0.0, 0.0, 0.0, 0.0, -2384.1488223253277, 0.0]
['beep', 0.0, 3749.5945393555808, 0.0, 0.0, 0.0, 0.0, -2383.94765662523, 0.0]
['beep', 0.0, 3757.17178072593, 0.0, 0.0, 0.0, 0.0, -2381.690130435244, 0.0]
['beep', 0.0, 3743.894844519478, 0.0, 0.0, 0.0, 0.0, -2385.266409548093, 0.0]
['beep', 0.0, 3729.1203414345196, 0.0, 0.0, 0.0, 0.0, -2385.4228717592805, 0.0]
['beep', 0.0, 3732.0931234470754, 0.0, 0.0, 0.0, 0.0, -2384.6629124478, 0.0]
['beep', 0.0, 3748.5887108550924, 0.0, 0.0, 0.0, 0.0, -2384.953485125719, 0.0]
['beep', 0.0, 3755.9647865253437, 0.0, 0.0, 0.0, 0.0, -2382.0924618354397, 0.0]
['beep', 0.0, 3742.8666642745334, 0.0, 0.0, 0.0, 0.0, -2384.394691514336, 0.0]
['beep', 0.0, 3727.667478044925, 0.0, 0.0, 0.0, 0.0, -2386.294589793037, 0.0]
['beep', 0.0, 3731.0425914576763, 0.0, 0.0, 0.0, 0.0, -2386.7639764265987, 0.0]
['beep', 0.0, 3746.800571298668, 0.0, 0.0, 0.0, 0.0, -2384.0594153475067, 0.0]
['beep', 0.0, 3754.668385346936, 0.0, 0.0, 0.0, 0.0, -2383.8582496474087, 0.0]
['beep', 0.0, 3742.3972776409723, 0.0, 0.0, 0.0, 0.0, -2385.400520014825, 0.0]
['beep', 0.0, 3727.8015885116565, 0.0, 0.0, 0.0, 0.0, -2385.959313626208, 0.0]
['beep', 0.0, 3731.243757157774, 0.0, 0.0, 0.0, 0.0, -2386.9651421266967, 0.0]
['beep', 0.0, 3747.918158521433, 0.0, 0.0, 0.0, 0.0, -2384.1488223253277, 0.0]
['beep', 0.0, 3755.1824754694076, 0.0, 0.0, 0.0, 0.0, -2384.618208958889, 0.0]
['beep', 0.0, 3740.4079723844497, 0.0, 0.0, 0.0, 0.0, -2385.020540359085, 0.0]
['beep', 0.0, 3726.885166988989, 0.0, 0.0, 0.0, 0.0, -2386.8757351488753, 0.0]
['beep', 0.0, 3730.7073152908465, 0.0, 0.0, 0.0, 0.0, -2386.585162470956, 0.0]
['beep', 0.0, 3746.8676265320337, 0.0, 0.0, 0.0, 0.0, -2385.1322990813615, 0.0]
['beep', 0.0, 3753.6402051019913, 0.0, 0.0, 0.0, 0.0, -2383.2547525471155, 0.0]
['beep', 0.0, 3741.4138008849386, 0.0, 0.0, 0.0, 0.0, -2385.2887612925483, 0.0]
['beep', 0.0, 3726.0581524441427, 0.0, 0.0, 0.0, 0.0, -2388.9991508721296, 0.0]
['beep', 0.0, 3728.8744722455112, 0.0, 0.0, 0.0, 0.0, -2388.596819471934, 0.0]
['beep', 0.0, 3745.4818183758043, 0.0, 0.0, 0.0, 0.0, -2386.5404589820455, 0.0]
['beep', 0.0, 3752.656728345958, 0.0, 0.0, 0.0, 0.0, -2385.914610137297, 0.0]
['beep', 0.0, 3739.1339229504974, 0.0, 0.0, 0.0, 0.0, -2386.987493871152, 0.0]
['beep', 0.0, 3723.040666942676, 0.0, 0.0, 0.0, 0.0, -2388.954447383219, 0.0]
['beep', 0.0, 3725.4770070883046, 0.0, 0.0, 0.0, 0.0, -2389.3567787834145, 0.0]
['beep', 0.0, 3742.4419811298826, 0.0, 0.0, 0.0, 0.0, -2387.859211904909, 0.0]
['beep', 0.0, 3750.5333126227038, 0.0, 0.0, 0.0, 0.0, -2387.7474531826324, 0.0]
['beep', 0.0, 3737.5693008386256, 0.0, 0.0, 0.0, 0.0, -2390.3849590283585, 0.0]
['beep', 0.0, 3723.68886753188, 0.0, 0.0, 0.0, 0.0, -2391.3237322954815, 0.0]
['beep', 0.0, 3726.9075187334442, 0.0, 0.0, 0.0, 0.0, -2389.490889250146, 0.0]
['beep', 0.0, 3742.97842299681, 0.0, 0.0, 0.0, 0.0, -2387.300418293526, 0.0]
['beep', 0.0, 3750.756830067257, 0.0, 0.0, 0.0, 0.0, -2386.920438637786, 0.0]
['beep', 0.0, 3738.4857223612935, 0.0, 0.0, 0.0, 0.0, -2388.820336916487, 0.0]
['beep', 0.0, 3722.101893675553, 0.0, 0.0, 0.0, 0.0, -2391.8378224179532, 0.0]
['beep', 0.0, 3723.8676814875225, 0.0, 0.0, 0.0, 0.0, -2391.5472497400347, 0.0]
['beep', 0.0, 3740.8103037846454, 0.0, 0.0, 0.0, 0.0, -2387.8145084159983, 0.0]
['beep', 0.0, 3748.812228299645, 0.0, 0.0, 0.0, 0.0, -2384.7746711700765, 0.0]
['beep', 0.0, 3734.6188705705254, 0.0, 0.0, 0.0, 0.0, -2387.94861888273, 0.0]
['beep', 0.0, 3720.5149198192266, 0.0, 0.0, 0.0, 0.0, -2388.216839816194, 0.0]
['beep', 0.0, 3722.9289082203995, 0.0, 0.0, 0.0, 0.0, -2388.552115983023, 0.0]
['beep', 0.0, 3739.0668677171316, 0.0, 0.0, 0.0, 0.0, -2387.4568805047134, 0.0]
['beep', 0.0, 3746.6664608319356, 0.0, 0.0, 0.0, 0.0, -2387.859211904909, 0.0]
['beep', 0.0, 3733.657745558947, 0.0, 0.0, 0.0, 0.0, -2388.7532816831213, 0.0]
['beep', 0.0, 3720.045533185665, 0.0, 0.0, 0.0, 0.0, -2389.1556130833164, 0.0]
['beep', 0.0, 3724.40412335445, 0.0, 0.0, 0.0, 0.0, -2390.0720346059843, 0.0]
['beep', 0.0, 3741.302042162662, 0.0, 0.0, 0.0, 0.0, -2388.4403572607466, 0.0]
['beep', 0.0, 3750.309795178151, 0.0, 0.0, 0.0, 0.0, -2387.9933223716407, 0.0]
['beep', 0.0, 3737.949280494366, 0.0, 0.0, 0.0, 0.0, -2388.976799127674, 0.0]
['beep', 0.0, 3720.760789008235, 0.0, 0.0, 0.0, 0.0, -2391.7707671845874, 0.0]
['beep', 0.0, 3721.5654518086258, 0.0, 0.0, 0.0, 0.0, -2390.630828217367, 0.0]
['beep', 0.0, 3738.396315383472, 0.0, 0.0, 0.0, 0.0, -2388.1274328383724, 0.0]
['beep', 0.0, 3746.3311846651063, 0.0, 0.0, 0.0, 0.0, -2388.0380258605514, 0.0]
['beep', 0.0, 3733.791856025679, 0.0, 0.0, 0.0, 0.0, -2388.7532816831213, 0.0]
['beep', 0.0, 3718.7491320072572, 0.0, 0.0, 0.0, 0.0, -2391.726063695677, 0.0]
['beep', 0.0, 3720.5372715636818, 0.0, 0.0, 0.0, 0.0, -2390.3402555394478, 0.0]
['beep', 0.0, 3736.116437449031, 0.0, 0.0, 0.0, 0.0, -2388.3733020273808, 0.0]
['beep', 0.0, 3744.7442108087794, 0.0, 0.0, 0.0, 0.0, -2387.8368601604534, 0.0]
['beep', 0.0, 3732.1601786804413, 0.0, 0.0, 0.0, 0.0, -2387.1886595712494, 0.0]
['beep', 0.0, 3716.893937217467, 0.0, 0.0, 0.0, 0.0, -2388.6638747053, 0.0]
['beep', 0.0, 3718.950297707355, 0.0, 0.0, 0.0, 0.0, -2389.624999716878, 0.0]
['beep', 0.0, 3736.1611409379416, 0.0, 0.0, 0.0, 0.0, -2388.1274328383724, 0.0]
['beep', 0.0, 3744.140713708486, 0.0, 0.0, 0.0, 0.0, -2389.401482272325, 0.0]
['beep', 0.0, 3731.8025507691564, 0.0, 0.0, 0.0, 0.0, -2389.6473514613335, 0.0]
['beep', 0.0, 3717.0951029175644, 0.0, 0.0, 0.0, 0.0, -2390.7425869396434, 0.0]
['beep', 0.0, 3718.1009314180533, 0.0, 0.0, 0.0, 0.0, -2391.1002148509283, 0.0]
['beep', 0.0, 3734.171835681419, 0.0, 0.0, 0.0, 0.0, -2389.3120752945038, 0.0]
['beep', 0.0, 3743.179588696908, 0.0, 0.0, 0.0, 0.0, -2388.887392149853, 0.0]
['beep', 0.0, 3730.796722268668, 0.0, 0.0, 0.0, 0.0, -2388.1050810939173, 0.0]
['beep', 0.0, 3716.6480680284585, 0.0, 0.0, 0.0, 0.0, -2390.8990491508307, 0.0]
['beep', 0.0, 3718.0338761846874, 0.0, 0.0, 0.0, 0.0, -2391.23432531766, 0.0]
['beep', 0.0, 3733.16600718093, 0.0, 0.0, 0.0, 0.0, -2391.3907875288473, 0.0]
['beep', 0.0, 3741.302042162662, 0.0, 0.0, 0.0, 0.0, -2391.211973573205, 0.0]
['beep', 0.0, 3730.3720391240167, 0.0, 0.0, 0.0, 0.0, -2390.4520142617243, 0.0]
['beep', 0.0, 3714.949335449855, 0.0, 0.0, 0.0, 0.0, -2392.0613398625064, 0.0]
['beep', 0.0, 3716.0445709281653, 0.0, 0.0, 0.0, 0.0, -2392.195450329238, 0.0]
['beep', 0.0, 3732.0931234470754, 0.0, 0.0, 0.0, 0.0, -2391.0555113620176, 0.0]
['beep', 0.0, 3741.4808561183045, 0.0, 0.0, 0.0, 0.0, -2387.881563649364, 0.0]
['beep', 0.0, 3729.4556176013493, 0.0, 0.0, 0.0, 0.0, -2389.334427038959, 0.0]
['beep', 0.0, 3713.272954615707, 0.0, 0.0, 0.0, 0.0, -2390.6755317062775, 0.0]
['beep', 0.0, 3713.943506949366, 0.0, 0.0, 0.0, 0.0, -2391.3907875288473, 0.0]
['beep', 0.0, 3730.573204824115, 0.0, 0.0, 0.0, 0.0, -2392.754243940621, 0.0]
['beep', 0.0, 3740.0279927287097, 0.0, 0.0, 0.0, 0.0, -2392.5530782405235, 0.0]
['beep', 0.0, 3728.4050856119497, 0.0, 0.0, 0.0, 0.0, -2393.402444529825, 0.0]
['beep', 0.0, 3713.5188238047153, 0.0, 0.0, 0.0, 0.0, -2394.85530791942, 0.0]
['beep', 0.0, 3714.3905418384725, 0.0, 0.0, 0.0, 0.0, -2395.011770130607, 0.0]
['beep', 0.0, 3730.506149590749, 0.0, 0.0, 0.0, 0.0, -2395.3470462974365, 0.0]
['beep', 0.0, 3738.1951496833744, 0.0, 0.0, 0.0, 0.0, -2393.6259619743782, 0.0]
['beep', 0.0, 3725.4770070883046, 0.0, 0.0, 0.0, 0.0, -2394.117700352395, 0.0]
['beep', 0.0, 3710.59074528107, 0.0, 0.0, 0.0, 0.0, -2395.816432930998, 0.0]
['beep', 0.0, 3713.719989504813, 0.0, 0.0, 0.0, 0.0, -2396.2187643311936, 0.0]
['beep', 0.0, 3729.9697077238216, 0.0, 0.0, 0.0, 0.0, -2394.117700352395, 0.0]
['beep', 0.0, 3739.1339229504974, 0.0, 0.0, 0.0, 0.0, -2391.5472497400347, 0.0]
['beep', 0.0, 3725.8346349995895, 0.0, 0.0, 0.0, 0.0, -2392.754243940621, 0.0]
['beep', 0.0, 3709.2496406137516, 0.0, 0.0, 0.0, 0.0, -2394.341217796948, 0.0]
['beep', 0.0, 3711.64127727047, 0.0, 0.0, 0.0, 0.0, -2394.6764939637774, 0.0]
['beep', 0.0, 3727.958050722844, 0.0, 0.0, 0.0, 0.0, -2392.798947429532, 0.0]
['beep', 0.0, 3736.9434519938773, 0.0, 0.0, 0.0, 0.0, -2395.95054339773, 0.0]
['beep', 0.0, 3725.6111175550363, 0.0, 0.0, 0.0, 0.0, -2396.2858195645595, 0.0]
['beep', 0.0, 3710.1884138808746, 0.0, 0.0, 0.0, 0.0, -2397.1351858538615, 0.0]
['beep', 0.0, 3710.9036697034444, 0.0, 0.0, 0.0, 0.0, -2399.9291539107744, 0.0]
['beep', 0.0, 3726.3487251220618, 0.0, 0.0, 0.0, 0.0, -2399.1691945992943, 0.0]
['beep', 0.0, 3735.5576438376484, 0.0, 0.0, 0.0, 0.0, -2396.2634678201043, 0.0]
['beep', 0.0, 3723.5324053206928, 0.0, 0.0, 0.0, 0.0, -2395.3470462974365, 0.0]
['beep', 0.0, 3707.729721990791, 0.0, 0.0, 0.0, 0.0, -2397.5375172540566, 0.0]
['beep', 0.0, 3708.8920127024667, 0.0, 0.0, 0.0, 0.0, -2399.4597672772134, 0.0]
['beep', 0.0, 3724.270012887718, 0.0, 0.0, 0.0, 0.0, -2395.95054339773, 0.0]
['beep', 0.0, 3733.456579858849, 0.0, 0.0, 0.0, 0.0, -2395.525860253079, 0.0]
['beep', 0.0, 3722.2807076311956, 0.0, 0.0, 0.0, 0.0, -2397.42575853178, 0.0]
['beep', 0.0, 3707.8414807130675, 0.0, 0.0, 0.0, 0.0, -2399.2138980882046, 0.0]
['beep', 0.0, 3708.73555049128, 0.0, 0.0, 0.0, 0.0, -2400.264430077604, 0.0]
['beep', 0.0, 3724.2253093988074, 0.0, 0.0, 0.0, 0.0, -2398.9680288991963, 0.0]
['beep', 0.0, 3733.2554141587516, 0.0, 0.0, 0.0, 0.0, -2398.1857178432606, 0.0]
['beep', 0.0, 3719.844367485567, 0.0, 0.0, 0.0, 0.0, -2398.722159710188, 0.0]
['beep', 0.0, 3705.0922161450644, 0.0, 0.0, 0.0, 0.0, -2398.4986422656348, 0.0]
['beep', 0.0, 3706.8356522125787, 0.0, 0.0, 0.0, 0.0, -2399.526822510579, 0.0]
['beep', 0.0, 3723.018315198221, 0.0, 0.0, 0.0, 0.0, -2399.95150565523, 0.0]
['beep', 0.0, 3732.4507513583603, 0.0, 0.0, 0.0, 0.0, -2398.3868835433586, 0.0]
['beep', 0.0, 3721.408989597439, 0.0, 0.0, 0.0, 0.0, -2400.823223688987, 0.0]
['beep', 0.0, 3706.3886173234723, 0.0, 0.0, 0.0, 0.0, -2401.0690928779954, 0.0]
['beep', 0.0, 3707.439149312872, 0.0, 0.0, 0.0, 0.0, -2403.23721209016, 0.0]
['beep', 0.0, 3722.794797753668, 0.0, 0.0, 0.0, 0.0, -2401.896107422842, 0.0]
['beep', 0.0, 3732.830731014101, 0.0, 0.0, 0.0, 0.0, -2398.8115666880094, 0.0]
['beep', 0.0, 3721.073713430609, 0.0, 0.0, 0.0, 0.0, -2400.823223688987, 0.0]
['beep', 0.0, 3706.5674312791148, 0.0, 0.0, 0.0, 0.0, -2403.0583981345176, 0.0]
['beep', 0.0, 3707.1262248904977, 0.0, 0.0, 0.0, 0.0, -2402.4549010342243, 0.0]
['beep', 0.0, 3722.1689489089194, 0.0, 0.0, 0.0, 0.0, -2401.7172934671994, 0.0]
['beep', 0.0, 3731.891957746978, 0.0, 0.0, 0.0, 0.0, -2402.7454737121434, 0.0]
['beep', 0.0, 3721.1631204084306, 0.0, 0.0, 0.0, 0.0, -2401.918459167297, 0.0]
['beep', 0.0, 3704.0416841556653, 0.0, 0.0, 0.0, 0.0, -2401.4490725337355, 0.0]
['beep', 0.0, 3704.600477767048, 0.0, 0.0, 0.0, 0.0, -2401.7172934671994, 0.0]
['beep', 0.0, 3722.370114609017, 0.0, 0.0, 0.0, 0.0, -2401.1137963669057, 0.0]
['beep', 0.0, 3731.6684403024246, 0.0, 0.0, 0.0, 0.0, -2400.6444097333447, 0.0]
['beep', 0.0, 3718.2797453736957, 0.0, 0.0, 0.0, 0.0, -2401.9631626562077, 0.0]
['beep', 0.0, 3702.54411727716, 0.0, 0.0, 0.0, 0.0, -2402.656066734322, 0.0]
['beep', 0.0, 3704.8686987005117, 0.0, 0.0, 0.0, 0.0, -2404.7347789686655, 0.0]
['beep', 0.0, 3722.0348384421873, 0.0, 0.0, 0.0, 0.0, -2401.7619969561097, 0.0]
['beep', 0.0, 3731.3331641355953, 0.0, 0.0, 0.0, 0.0, -2402.432549289769, 0.0]
['beep', 0.0, 3719.6655535299246, 0.0, 0.0, 0.0, 0.0, -2406.14293886935, 0.0]
['beep', 0.0, 3703.9746289222994, 0.0, 0.0, 0.0, 0.0, -2406.3217528249925, 0.0]
['beep', 0.0, 3703.30407658864, 0.0, 0.0, 0.0, 0.0, -2406.0088284026183, 0.0]
['beep', 0.0, 3719.173815151908, 0.0, 0.0, 0.0, 0.0, -2404.8018342020314, 0.0]
['beep', 0.0, 3728.6733065454137, 0.0, 0.0, 0.0, 0.0, -2404.243040590649, 0.0]
['beep', 0.0, 3718.1009314180533, 0.0, 0.0, 0.0, 0.0, -2405.2488690911377, 0.0]
['beep', 0.0, 3702.477062043794, 0.0, 0.0, 0.0, 0.0, -2406.075883635984, 0.0]
['beep', 0.0, 3702.9240969329, 0.0, 0.0, 0.0, 0.0, -2407.819319703498, 0.0]
['beep', 0.0, 3719.3526291075505, 0.0, 0.0, 0.0, 0.0, -2407.8640231924087, 0.0]
['beep', 0.0, 3728.2262716563073, 0.0, 0.0, 0.0, 0.0, -2405.7182557246992, 0.0]
['beep', 0.0, 3715.664591272425, 0.0, 0.0, 0.0, 0.0, -2405.830014446976, 0.0]
['beep', 0.0, 3699.3925213089615, 0.0, 0.0, 0.0, 0.0, -2407.0370086475623, 0.0]
['beep', 0.0, 3700.7783294651904, 0.0, 0.0, 0.0, 0.0, -2406.85819469192, 0.0]
['beep', 0.0, 3717.788006995679, 0.0, 0.0, 0.0, 0.0, -2407.148767369839, 0.0]
['beep', 0.0, 3727.890995489478, 0.0, 0.0, 0.0, 0.0, -2406.232345847171, 0.0]
['beep', 0.0, 3717.564489551126, 0.0, 0.0, 0.0, 0.0, -2406.9923051586516, 0.0]
['beep', 0.0, 3703.080559144087, 0.0, 0.0, 0.0, 0.0, -2409.3839418153693, 0.0]
['beep', 0.0, 3701.895916687956, 0.0, 0.0, 0.0, 0.0, -2411.440302305258, 0.0]
['beep', 0.0, 3717.7656552512235, 0.0, 0.0, 0.0, 0.0, -2408.5122237816126, 0.0]
['beep', 0.0, 3727.890995489478, 0.0, 0.0, 0.0, 0.0, -2405.3606278134143, 0.0]
['beep', 0.0, 3715.262259872229, 0.0, 0.0, 0.0, 0.0, -2404.824185946487, 0.0]
['beep', 0.0, 3701.247716098752, 0.0, 0.0, 0.0, 0.0, -2407.3275813254813, 0.0]
['beep', 0.0, 3702.0523788991427, 0.0, 0.0, 0.0, 0.0, -2408.087540636962, 0.0]
['beep', 0.0, 3717.6538965289474, 0.0, 0.0, 0.0, 0.0, -2407.372284814392, 0.0]
['beep', 0.0, 3726.952222222355, 0.0, 0.0, 0.0, 0.0, -2404.7794824575763, 0.0]
['beep', 0.0, 3715.664591272425, 0.0, 0.0, 0.0, 0.0, -2402.85723243442, 0.0]
['beep', 0.0, 3701.4265300543943, 0.0, 0.0, 0.0, 0.0, -2406.6346772473667, 0.0]
['beep', 0.0, 3700.8453846985562, 0.0, 0.0, 0.0, 0.0, -2407.0593603920174, 0.0]
['beep', 0.0, 3715.262259872229, 0.0, 0.0, 0.0, 0.0, -2406.6123255029115, 0.0]
['beep', 0.0, 3724.8958617324665, 0.0, 0.0, 0.0, 0.0, -2405.181813857772, 0.0]
['beep', 0.0, 3716.111626161531, 0.0, 0.0, 0.0, 0.0, -2406.5452702695457, 0.0]
['beep', 0.0, 3701.694750987858, 0.0, 0.0, 0.0, 0.0, -2407.506395281124, 0.0]
['beep', 0.0, 3701.582992265581, 0.0, 0.0, 0.0, 0.0, -2406.813491203009, 0.0]
['beep', 0.0, 3716.6704197729136, 0.0, 0.0, 0.0, 0.0, -2404.980648157674, 0.0]
['beep', 0.0, 3728.2262716563073, 0.0, 0.0, 0.0, 0.0, -2405.7406074691544, 0.0]
['beep', 0.0, 3717.8997657179557, 0.0, 0.0, 0.0, 0.0, -2406.6123255029115, 0.0]
['beep', 0.0, 3701.0689021431094, 0.0, 0.0, 0.0, 0.0, -2407.752264470132, 0.0]
['beep', 0.0, 3702.432358554883, 0.0, 0.0, 0.0, 0.0, -2408.8698516928976, 0.0]
['beep', 0.0, 3718.3244488626065, 0.0, 0.0, 0.0, 0.0, -2407.6405057478555, 0.0]
['beep', 0.0, 3728.2262716563073, 0.0, 0.0, 0.0, 0.0, -2406.120587124895, 0.0]
['beep', 0.0, 3718.480911073794, 0.0, 0.0, 0.0, 0.0, -2405.6512004913334, 0.0]
['beep', 0.0, 3702.54411727716, 0.0, 0.0, 0.0, 0.0, -2407.528747025579, 0.0]
['beep', 0.0, 3701.8735649435002, 0.0, 0.0, 0.0, 0.0, -2409.1604243708166, 0.0]
['beep', 0.0, 3717.6538965289474, 0.0, 0.0, 0.0, 0.0, -2408.5792790149785, 0.0]
['beep', 0.0, 3726.4604838443383, 0.0, 0.0, 0.0, 0.0, -2407.752264470132, 0.0]
['beep', 0.0, 3716.268088372718, 0.0, 0.0, 0.0, 0.0, -2410.076845893484, 0.0]
['beep', 0.0, 3699.7725009647015, 0.0, 0.0, 0.0, 0.0, -2410.367418571403, 0.0]
['beep', 0.0, 3698.632561997481, 0.0, 0.0, 0.0, 0.0, -2409.719217982199, 0.0]
['beep', 0.0, 3713.898803460456, 0.0, 0.0, 0.0, 0.0, -2408.8027964595317, 0.0]
['beep', 0.0, 3723.6441640429694, 0.0, 0.0, 0.0, 0.0, -2406.880546436375, 0.0]
['beep', 0.0, 3713.585879038081, 0.0, 0.0, 0.0, 0.0, -2407.7746162145872, 0.0]
['beep', 0.0, 3699.1913556088634, 0.0, 0.0, 0.0, 0.0, -2410.6803429937772, 0.0]
['beep', 0.0, 3697.962009663822, 0.0, 0.0, 0.0, 0.0, -2412.244965105649, 0.0]
['beep', 0.0, 3714.368190094017, 0.0, 0.0, 0.0, 0.0, -2410.345066826948, 0.0]
['beep', 0.0, 3724.649992543458, 0.0, 0.0, 0.0, 0.0, -2408.825148203987, 0.0]
['beep', 0.0, 3714.3234866051066, 0.0, 0.0, 0.0, 0.0, -2410.099197637939, 0.0]
['beep', 0.0, 3697.984361408277, 0.0, 0.0, 0.0, 0.0, -2411.1273778828836, 0.0]
['beep', 0.0, 3698.4313962973833, 0.0, 0.0, 0.0, 0.0, -2412.110854638917, 0.0]
['beep', 0.0, 3714.0999691605534, 0.0, 0.0, 0.0, 0.0, -2412.401427316836, 0.0]
['beep', 0.0, 3724.0911989320757, 0.0, 0.0, 0.0, 0.0, -2411.5520610275344, 0.0]
['beep', 0.0, 3714.1223209050086, 0.0, 0.0, 0.0, 0.0, -2412.6696482503, 0.0]
['beep', 0.0, 3698.2302305972853, 0.0, 0.0, 0.0, 0.0, -2415.7765407295874, 0.0]
['beep', 0.0, 3697.269105585707, 0.0, 0.0, 0.0, 0.0, -2416.201223874238, 0.0]
['beep', 0.0, 3714.0552656716427, 0.0, 0.0, 0.0, 0.0, -2414.278973851082, 0.0]
['beep', 0.0, 3725.7675797662237, 0.0, 0.0, 0.0, 0.0, -2414.211918617716, 0.0]
['beep', 0.0, 3715.4857773167823, 0.0, 0.0, 0.0, 0.0, -2414.1448633843497, 0.0]
['beep', 0.0, 3698.721968975302, 0.0, 0.0, 0.0, 0.0, -2416.1341686408723, 0.0]
['beep', 0.0, 3697.045588141154, 0.0, 0.0, 0.0, 0.0, -2416.3800378298806, 0.0]
['beep', 0.0, 3712.0883121595757, 0.0, 0.0, 0.0, 0.0, -2415.7094854962215, 0.0]
['beep', 0.0, 3722.5489285646595, 0.0, 0.0, 0.0, 0.0, -2417.2517558636378, 0.0]
['beep', 0.0, 3712.3788848374948, 0.0, 0.0, 0.0, 0.0, -2416.4247413187913, 0.0]
['beep', 0.0, 3696.822070696601, 0.0, 0.0, 0.0, 0.0, -2419.6880960092662, 0.0]
['beep', 0.0, 3695.4809660292826, 0.0, 0.0, 0.0, 0.0, -2419.509282053624, 0.0]
['beep', 0.0, 3711.238945870274, 0.0, 0.0, 0.0, 0.0, -2416.581203529978, 0.0]
['beep', 0.0, 3721.5878035530814, 0.0, 0.0, 0.0, 0.0, -2416.938831441263, 0.0]
['beep', 0.0, 3710.568393536615, 0.0, 0.0, 0.0, 0.0, -2417.3635145859143, 0.0]
['beep', 0.0, 3693.49166077276, 0.0, 0.0, 0.0, 0.0, -2419.2187093757047, 0.0]
['beep', 0.0, 3693.2457915837517, 0.0, 0.0, 0.0, 0.0, -2421.7444564991542, 0.0]
['beep', 0.0, 3709.696675502858, 0.0, 0.0, 0.0, 0.0, -2418.9281366977857, 0.0]
['beep', 0.0, 3718.167986651419, 0.0, 0.0, 0.0, 0.0, -2415.664782007311, 0.0]
['beep', 0.0, 3708.333219091084, 0.0, 0.0, 0.0, 0.0, -2416.9611831857187, 0.0]
['beep', 0.0, 3693.5140125172156, 0.0, 0.0, 0.0, 0.0, -2420.269241365104, 0.0]
['beep', 0.0, 3691.6141142385145, 0.0, 0.0, 0.0, 0.0, -2423.174968144294, 0.0]
['beep', 0.0, 3707.729721990791, 0.0, 0.0, 0.0, 0.0, -2420.626869276389, 0.0]
['beep', 0.0, 3719.2855738741846, 0.0, 0.0, 0.0, 0.0, -2417.7434942416544, 0.0]
['beep', 0.0, 3708.713198746824, 0.0, 0.0, 0.0, 0.0, -2418.8387297199642, 0.0]
['beep', 0.0, 3692.239963083263, 0.0, 0.0, 0.0, 0.0, -2420.760979743121, 0.0]
['beep', 0.0, 3691.144727604953, 0.0, 0.0, 0.0, 0.0, -2420.828034976487, 0.0]
['beep', 0.0, 3707.7744254797017, 0.0, 0.0, 0.0, 0.0, -2419.397523331347, 0.0]
['beep', 0.0, 3718.458559329338, 0.0, 0.0, 0.0, 0.0, -2417.8105494750203, 0.0]
['beep', 0.0, 3710.635448769981, 0.0, 0.0, 0.0, 0.0, -2419.598689031445, 0.0]
['beep', 0.0, 3695.726835218291, 0.0, 0.0, 0.0, 0.0, -2418.570508786501, 0.0]
['beep', 0.0, 3696.0621113851207, 0.0, 0.0, 0.0, 0.0, -2419.7998547315424, 0.0]
['beep', 0.0, 3713.3847133379836, 0.0, 0.0, 0.0, 0.0, -2417.6987907527437, 0.0]
['beep', 0.0, 3726.3934286109725, 0.0, 0.0, 0.0, 0.0, -2415.687133751766, 0.0]
['beep', 0.0, 3715.9998674392546, 0.0, 0.0, 0.0, 0.0, -2416.849424463442, 0.0]
['beep', 0.0, 3698.006713152732, 0.0, 0.0, 0.0, 0.0, -2418.0564186640286, 0.0]
['beep', 0.0, 3694.698654973347, 0.0, 0.0, 0.0, 0.0, -2416.6706105077997, 0.0]
['beep', 0.0, 3710.143710391964, 0.0, 0.0, 0.0, 0.0, -2417.274107608093, 0.0]
['beep', 0.0, 3720.2466988857627, 0.0, 0.0, 0.0, 0.0, -2414.52484304009, 0.0]
['beep', 0.0, 3710.1884138808746, 0.0, 0.0, 0.0, 0.0, -2415.754188985132, 0.0]
['beep', 0.0, 3693.089329372565, 0.0, 0.0, 0.0, 0.0, -2419.598689031445, 0.0]
['beep', 0.0, 3691.480003771783, 0.0, 0.0, 0.0, 0.0, -2419.7104477537214, 0.0]
['beep', 0.0, 3708.1544051354417, 0.0, 0.0, 0.0, 0.0, -2418.212880875216, 0.0]
['beep', 0.0, 3720.0231814412095, 0.0, 0.0, 0.0, 0.0, -2415.463616307213, 0.0]
['beep', 0.0, 3710.635448769981, 0.0, 0.0, 0.0, 0.0, -2418.6152122754115, 0.0]
['beep', 0.0, 3694.564544506615, 0.0, 0.0, 0.0, 0.0, -2420.0010204316404, 0.0]
['beep', 0.0, 3692.1952595943526, 0.0, 0.0, 0.0, 0.0, -2420.135130898372, 0.0]
['beep', 0.0, 3707.3497423350505, 0.0, 0.0, 0.0, 0.0, -2418.14582564185, 0.0]
['beep', 0.0, 3720.0008296967544, 0.0, 0.0, 0.0, 0.0, -2418.4811018086793, 0.0]
['beep', 0.0, 3710.724855747802, 0.0, 0.0, 0.0, 0.0, -2419.4422268202575, 0.0]
['beep', 0.0, 3694.721006717802, 0.0, 0.0, 0.0, 0.0, -2418.7269709976877, 0.0]
['beep', 0.0, 3691.524707260693, 0.0, 0.0, 0.0, 0.0, -2418.4811018086793, 0.0]
['beep', 0.0, 3706.6121347680255, 0.0, 0.0, 0.0, 0.0, -2416.536500041068, 0.0]
['beep', 0.0, 3718.7491320072572, 0.0, 0.0, 0.0, 0.0, -2414.301325595537, 0.0]
['beep', 0.0, 3711.0601319146317, 0.0, 0.0, 0.0, 0.0, -2415.553023285034, 0.0]
['beep', 0.0, 3694.430434039883, 0.0, 0.0, 0.0, 0.0, -2420.3810000873805, 0.0]
['beep', 0.0, 3691.3458933050506, 0.0, 0.0, 0.0, 0.0, -2418.0340669195734, 0.0]
['beep', 0.0, 3706.858003957034, 0.0, 0.0, 0.0, 0.0, -2416.938831441263, 0.0]
['beep', 0.0, 3719.3526291075505, 0.0, 0.0, 0.0, 0.0, -2415.597726773945, 0.0]
['beep', 0.0, 3710.3895795809726, 0.0, 0.0, 0.0, 0.0, -2417.7211424971993, 0.0]
['beep', 0.0, 3694.721006717802, 0.0, 0.0, 0.0, 0.0, -2419.0398954200623, 0.0]
['beep', 0.0, 3692.7093497168244, 0.0, 0.0, 0.0, 0.0, -2418.0340669195734, 0.0]
['beep', 0.0, 3707.5062045462378, 0.0, 0.0, 0.0, 0.0, -2416.7153139967104, 0.0]
['beep', 0.0, 3719.1961668963636, 0.0, 0.0, 0.0, 0.0, -2416.1341686408723, 0.0]
['beep', 0.0, 3711.1495388924527, 0.0, 0.0, 0.0, 0.0, -2417.7658459861095, 0.0]
['beep', 0.0, 3694.8774689289894, 0.0, 0.0, 0.0, 0.0, -2419.2857646090706, 0.0]
['beep', 0.0, 3692.9552189058327, 0.0, 0.0, 0.0, 0.0, -2417.139997141361, 0.0]
['beep', 0.0, 3709.5849167805814, 0.0, 0.0, 0.0, 0.0, -2417.1623488858163, 0.0]
['beep', 0.0, 3719.9784779522993, 0.0, 0.0, 0.0, 0.0, -2416.938831441263, 0.0]
['beep', 0.0, 3711.8200912261123, 0.0, 0.0, 0.0, 0.0, -2417.9893634306627, 0.0]
['beep', 0.0, 3696.1738701073973, 0.0, 0.0, 0.0, 0.0, -2420.0904274094614, 0.0]
['beep', 0.0, 3694.430434039883, 0.0, 0.0, 0.0, 0.0, -2421.9009187103416, 0.0]
['beep', 0.0, 3709.987248180777, 0.0, 0.0, 0.0, 0.0, -2421.2750698655927, 0.0]
['beep', 0.0, 3721.051361686154, 0.0, 0.0, 0.0, 0.0, -2419.9339651982746, 0.0]
['beep', 0.0, 3710.076655158598, 0.0, 0.0, 0.0, 0.0, -2420.6715727652995, 0.0]
['beep', 0.0, 3693.983399150777, 0.0, 0.0, 0.0, 0.0, -2421.1856628877717, 0.0]
['beep', 0.0, 3691.1894310938637, 0.0, 0.0, 0.0, 0.0, -2422.6832297662772, 0.0]
['beep', 0.0, 3707.1262248904977, 0.0, 0.0, 0.0, 0.0, -2423.130264655383, 0.0]
['beep', 0.0, 3718.21269014033, 0.0, 0.0, 0.0, 0.0, -2421.163311143316, 0.0]
['beep', 0.0, 3709.339047591573, 0.0, 0.0, 0.0, 0.0, -2421.3421250989586, 0.0]
['beep', 0.0, 3693.1563846059307, 0.0, 0.0, 0.0, 0.0, -2422.2585466216265, 0.0]
['beep', 0.0, 3689.8036229376344, 0.0, 0.0, 0.0, 0.0, -2424.471369322702, 0.0]
['beep', 0.0, 3706.1650998789196, 0.0, 0.0, 0.0, 0.0, -2423.7114100112212, 0.0]
['beep', 0.0, 3719.173815151908, 0.0, 0.0, 0.0, 0.0, -2422.8620437219197, 0.0]
['beep', 0.0, 3711.283649359185, 0.0, 0.0, 0.0, 0.0, -2422.0350291770733, 0.0]
['beep', 0.0, 3695.2574485847294, 0.0, 0.0, 0.0, 0.0, -2425.298383867548, 0.0]
['beep', 0.0, 3692.083500872076, 0.0, 0.0, 0.0, 0.0, -2426.103046667939, 0.0]
['beep', 0.0, 3705.6063062675366, 0.0, 0.0, 0.0, 0.0, -2425.1195699119057, 0.0]
['beep', 0.0, 3717.49743431776, 0.0, 0.0, 0.0, 0.0, -2423.8008169890427, 0.0]
['beep', 0.0, 3708.8473092135564, 0.0, 0.0, 0.0, 0.0, -2423.2420233776597, 0.0]
['beep', 0.0, 3692.1282043609867, 0.0, 0.0, 0.0, 0.0, -2424.6501832783442, 0.0]
['beep', 0.0, 3688.574276992593, 0.0, 0.0, 0.0, 0.0, -2425.0301629340843, 0.0]
['beep', 0.0, 3704.3099050891287, 0.0, 0.0, 0.0, 0.0, -2423.823168733498, 0.0]
['beep', 0.0, 3717.475082573305, 0.0, 0.0, 0.0, 0.0, -2423.6220030334002, 0.0]
['beep', 0.0, 3710.948373192355, 0.0, 0.0, 0.0, 0.0, -2422.6385262773665, 0.0]
['beep', 0.0, 3694.497489273249, 0.0, 0.0, 0.0, 0.0, -2424.985459445174, 0.0]
['beep', 0.0, 3689.155422348431, 0.0, 0.0, 0.0, 0.0, -2426.2148053902156, 0.0]
['beep', 0.0, 3703.862870200023, 0.0, 0.0, 0.0, 0.0, -2426.304212368037, 0.0]
['beep', 0.0, 3716.2904401171736, 0.0, 0.0, 0.0, 0.0, -2425.0301629340843, 0.0]
['beep', 0.0, 3708.9143644469223, 0.0, 0.0, 0.0, 0.0, -2424.136093155872, 0.0]
['beep', 0.0, 3691.1894310938637, 0.0, 0.0, 0.0, 0.0, -2424.1807966447827, 0.0]
['beep', 0.0, 3687.7472624477464, 0.0, 0.0, 0.0, 0.0, -2426.974764701696, 0.0]
['beep', 0.0, 3701.7841579656792, 0.0, 0.0, 0.0, 0.0, -2425.745418756654, 0.0]
['beep', 0.0, 3714.5470040496593, 0.0, 0.0, 0.0, 0.0, -2424.069037922506, 0.0]
['beep', 0.0, 3706.3886173234723, 0.0, 0.0, 0.0, 0.0, -2425.8571774789307, 0.0]
['beep', 0.0, 3689.6918642153582, 0.0, 0.0, 0.0, 0.0, -2426.684192023777, 0.0]
['beep', 0.0, 3685.914419402411, 0.0, 0.0, 0.0, 0.0, -2428.1147036689167, 0.0]
['beep', 0.0, 3702.3653033215173, 0.0, 0.0, 0.0, 0.0, -2426.7065437682327, 0.0]
['beep', 0.0, 3714.882280216489, 0.0, 0.0, 0.0, 0.0, -2424.3149071115145, 0.0]
['beep', 0.0, 3707.2156318683187, 0.0, 0.0, 0.0, 0.0, -2425.8795292233863, 0.0]
['beep', 0.0, 3691.0329688826764, 0.0, 0.0, 0.0, 0.0, -2427.667668779811, 0.0]
['beep', 0.0, 3687.7249107032912, 0.0, 0.0, 0.0, 0.0, -2428.1594071578274, 0.0]
['beep', 0.0, 3702.58882076607, 0.0, 0.0, 0.0, 0.0, -2426.7735990015985, 0.0]
['beep', 0.0, 3715.955163950344, 0.0, 0.0, 0.0, 0.0, -2425.5442530565565, 0.0]
['beep', 0.0, 3709.271992358207, 0.0, 0.0, 0.0, 0.0, -2426.6394885348664, 0.0]
['beep', 0.0, 3692.8658119280117, 0.0, 0.0, 0.0, 0.0, -2429.7463810141544, 0.0]
['beep', 0.0, 3689.468346770805, 0.0, 0.0, 0.0, 0.0, -2429.366401358414, 0.0]
['beep', 0.0, 3704.0416841556653, 0.0, 0.0, 0.0, 0.0, -2429.008773447129, 0.0]
['beep', 0.0, 3716.9386407063776, 0.0, 0.0, 0.0, 0.0, -2428.8299594914865, 0.0]
['beep', 0.0, 3709.026123169199, 0.0, 0.0, 0.0, 0.0, -2429.3216978695036, 0.0]
['beep', 0.0, 3691.502355516238, 0.0, 0.0, 0.0, 0.0, -2431.24394789266, 0.0]
['beep', 0.0, 3687.6802072143805, 0.0, 0.0, 0.0, 0.0, -2431.489817081668, 0.0]
['beep', 0.0, 3702.119434132509, 0.0, 0.0, 0.0, 0.0, -2431.176892659294, 0.0]
['beep', 0.0, 3713.921155204911, 0.0, 0.0, 0.0, 0.0, -2429.075828680495, 0.0]
['beep', 0.0, 3706.2321551122855, 0.0, 0.0, 0.0, 0.0, -2429.7463810141544, 0.0]
['beep', 0.0, 3690.273009571196, 0.0, 0.0, 0.0, 0.0, -2433.076790937995, 0.0]
['beep', 0.0, 3686.048529869143, 0.0, 0.0, 0.0, 0.0, -2432.3168316265146, 0.0]
['beep', 0.0, 3702.186489365875, 0.0, 0.0, 0.0, 0.0, -2430.9980787036516, 0.0]
['beep', 0.0, 3716.0445709281653, 0.0, 0.0, 0.0, 0.0, -2430.4392850922686, 0.0]
['beep', 0.0, 3708.310867346629, 0.0, 0.0, 0.0, 0.0, -2432.1603694153273, 0.0]
['beep', 0.0, 3692.6199427390034, 0.0, 0.0, 0.0, 0.0, -2434.820227005509, 0.0]
['beep', 0.0, 3689.3565880485285, 0.0, 0.0, 0.0, 0.0, -2435.2449101501597, 0.0]
['beep', 0.0, 3704.3546085780395, 0.0, 0.0, 0.0, 0.0, -2434.4178956053133, 0.0]
['beep', 0.0, 3716.849233728556, 0.0, 0.0, 0.0, 0.0, -2432.428590348791, 0.0]
['beep', 0.0, 3709.562565036126, 0.0, 0.0, 0.0, 0.0, -2433.233253149182, 0.0]
['beep', 0.0, 3693.424605539394, 0.0, 0.0, 0.0, 0.0, -2435.3790206168915, 0.0]
['beep', 0.0, 3690.273009571196, 0.0, 0.0, 0.0, 0.0, -2435.9825177171847, 0.0]
['beep', 0.0, 3705.8074719676342, 0.0, 0.0, 0.0, 0.0, -2435.267261894615, 0.0]
['beep', 0.0, 3717.7433035067684, 0.0, 0.0, 0.0, 0.0, -2433.3450118714586, 0.0]
['beep', 0.0, 3709.026123169199, 0.0, 0.0, 0.0, 0.0, -2431.7803897595873, 0.0]
['beep', 0.0, 3693.2234398392966, 0.0, 0.0, 0.0, 0.0, -2434.797875261054, 0.0]
['beep', 0.0, 3690.138899104464, 0.0, 0.0, 0.0, 0.0, -2436.429552606291, 0.0]
['beep', 0.0, 3703.795814966657, 0.0, 0.0, 0.0, 0.0, -2435.759000272632, 0.0]
['beep', 0.0, 3715.821053483612, 0.0, 0.0, 0.0, 0.0, -2435.401372361347, 0.0]
['beep', 0.0, 3708.2661638577183, 0.0, 0.0, 0.0, 0.0, -2436.34014562847, 0.0]
['beep', 0.0, 3691.859983427523, 0.0, 0.0, 0.0, 0.0, -2437.7706572736097, 0.0]
['beep', 0.0, 3687.30022755864, 0.0, 0.0, 0.0, 0.0, -2436.2730903951037, 0.0]
['beep', 0.0, 3701.560640521126, 0.0, 0.0, 0.0, 0.0, -2435.490779339168, 0.0]
['beep', 0.0, 3714.8152249831232, 0.0, 0.0, 0.0, 0.0, -2434.239081649671, 0.0]
['beep', 0.0, 3707.2379836127743, 0.0, 0.0, 0.0, 0.0, -2435.3119653835256, 0.0]
['beep', 0.0, 3691.3011898161403, 0.0, 0.0, 0.0, 0.0, -2437.5918433179672, 0.0]
['beep', 0.0, 3687.0096548807214, 0.0, 0.0, 0.0, 0.0, -2439.7376107856767, 0.0]
['beep', 0.0, 3702.3653033215173, 0.0, 0.0, 0.0, 0.0, -2438.687078796277, 0.0]
['beep', 0.0, 3716.4469023283605, 0.0, 0.0, 0.0, 0.0, -2436.206035161738, 0.0]
['beep', 0.0, 3709.0037714247433, 0.0, 0.0, 0.0, 0.0, -2435.6695932948105, 0.0]
['beep', 0.0, 3692.8434601835565, 0.0, 0.0, 0.0, 0.0, -2437.524788084601, 0.0]
['beep', 0.0, 3687.8143176811122, 0.0, 0.0, 0.0, 0.0, -2439.268224152115, 0.0]
['beep', 0.0, 3701.7618062212237, 0.0, 0.0, 0.0, 0.0, -2437.8377125069755, 0.0]
['beep', 0.0, 3713.7646929937237, 0.0, 0.0, 0.0, 0.0, -2435.177854916794, 0.0]
['beep', 0.0, 3707.8414807130675, 0.0, 0.0, 0.0, 0.0, -2434.52965432759, 0.0]
['beep', 0.0, 3692.01644563871, 0.0, 0.0, 0.0, 0.0, -2434.7308200276875, 0.0]
['beep', 0.0, 3686.5179165027043, 0.0, 0.0, 0.0, 0.0, -2436.72012528421, 0.0]
['beep', 0.0, 3699.928963175889, 0.0, 0.0, 0.0, 0.0, -2433.233253149182, 0.0]
['beep', 0.0, 3712.1330156484864, 0.0, 0.0, 0.0, 0.0, -2432.853273493442, 0.0]
['beep', 0.0, 3706.343913834562, 0.0, 0.0, 0.0, 0.0, -2434.2167299052157, 0.0]
['beep', 0.0, 3691.122375860498, 0.0, 0.0, 0.0, 0.0, -2433.0097357046293, 0.0]
['beep', 0.0, 3688.239000825763, 0.0, 0.0, 0.0, 0.0, -2435.9601659727296, 0.0]
['beep', 0.0, 3702.0747306435983, 0.0, 0.0, 0.0, 0.0, -2434.4178956053133, 0.0]
['beep', 0.0, 3716.1339779059863, 0.0, 0.0, 0.0, 0.0, -2433.724991527199, 0.0]
['beep', 0.0, 3708.2214603688076, 0.0, 0.0, 0.0, 0.0, -2435.6695932948105, 0.0]
['beep', 0.0, 3689.5801054930816, 0.0, 0.0, 0.0, 0.0, -2439.1788171742937, 0.0]
['beep', 0.0, 3684.975646135288, 0.0, 0.0, 0.0, 0.0, -2439.8270177634977, 0.0]
['beep', 0.0, 3698.856079442034, 0.0, 0.0, 0.0, 0.0, -2439.7376107856767, 0.0]
['beep', 0.0, 3711.68598075938, 0.0, 0.0, 0.0, 0.0, -2438.396506118358, 0.0]
['beep', 0.0, 3704.801643467146, 0.0, 0.0, 0.0, 0.0, -2440.050535208051, 0.0]
['beep', 0.0, 3687.210820580819, 0.0, 0.0, 0.0, 0.0, -2444.4538288657463, 0.0]
['beep', 0.0, 3683.3216170455958, 0.0, 0.0, 0.0, 0.0, -2442.7997997760535, 0.0]
['beep', 0.0, 3696.2632770852183, 0.0, 0.0, 0.0, 0.0, -2442.1963026757603, 0.0]
['beep', 0.0, 3709.2496406137516, 0.0, 0.0, 0.0, 0.0, -2444.0962009544614, 0.0]
['beep', 0.0, 3702.633524254981, 0.0, 0.0, 0.0, 0.0, -2445.7949335330645, 0.0]
['beep', 0.0, 3687.0990618585424, 0.0, 0.0, 0.0, 0.0, -2447.560721345034, 0.0]
['beep', 0.0, 3681.9358088893664, 0.0, 0.0, 0.0, 0.0, -2448.5441981010676, 0.0]
['beep', 0.0, 3696.3526840630398, 0.0, 0.0, 0.0, 0.0, -2448.2759771676037, 0.0]
['beep', 0.0, 3709.4508063138496, 0.0, 0.0, 0.0, 0.0, -2445.9960992331626, 0.0]
['beep', 0.0, 3702.477062043794, 0.0, 0.0, 0.0, 0.0, -2447.940701000774, 0.0]
['beep', 0.0, 3686.4285095248833, 0.0, 0.0, 0.0, 0.0, -2450.7123173132322, 0.0]
['beep', 0.0, 3681.5781809780815, 0.0, 0.0, 0.0, 0.0, -2454.3780034039028, 0.0]
['beep', 0.0, 3694.7433584622577, 0.0, 0.0, 0.0, 0.0, -2453.752154559154, 0.0]
['beep', 0.0, 3707.953239435344, 0.0, 0.0, 0.0, 0.0, -2452.813381292031, 0.0]
['beep', 0.0, 3703.5499457776486, 0.0, 0.0, 0.0, 0.0, -2455.272073182115, 0.0]
['beep', 0.0, 3686.8755444139892, 0.0, 0.0, 0.0, 0.0, -2458.3789656614026, 0.0]
['beep', 0.0, 3679.5441722326486, 0.0, 0.0, 0.0, 0.0, -2459.3847941618915, 0.0]
['beep', 0.0, 3694.3186753176064, 0.0, 0.0, 0.0, 0.0, -2458.1554482168494, 0.0]
['beep', 0.0, 3707.5062045462378, 0.0, 0.0, 0.0, 0.0, -2459.496552884168, 0.0]
['beep', 0.0, 3701.627695754492, 0.0, 0.0, 0.0, 0.0, -2459.3400906729808, 0.0]
['beep', 0.0, 3686.1602885914194, 0.0, 0.0, 0.0, 0.0, -2460.1224017289164, 0.0]
['beep', 0.0, 3681.756994933724, 0.0, 0.0, 0.0, 0.0, -2462.4469831522683, 0.0]
['beep', 0.0, 3695.391559051461, 0.0, 0.0, 0.0, 0.0, -2464.078660497506, 0.0]
['beep', 0.0, 3708.623791769003, 0.0, 0.0, 0.0, 0.0, -2463.452811652757, 0.0]
['beep', 0.0, 3703.147614377453, 0.0, 0.0, 0.0, 0.0, -2465.9338552872964, 0.0]
['beep', 0.0, 3687.277875814185, 0.0, 0.0, 0.0, 0.0, -2468.8395820664864, 0.0]
['beep', 0.0, 3681.5334774891708, 0.0, 0.0, 0.0, 0.0, -2469.1972099777713, 0.0]
['beep', 0.0, 3696.1291666184866, 0.0, 0.0, 0.0, 0.0, -2469.018396022129, 0.0]
['beep', 0.0, 3710.4789865587936, 0.0, 0.0, 0.0, 0.0, -2466.0903174984837, 0.0]
['beep', 0.0, 3704.600477767048, 0.0, 0.0, 0.0, 0.0, -2465.44211690928, 0.0]
['beep', 0.0, 3687.881372914478, 0.0, 0.0, 0.0, 0.0, -2469.7336518446987, 0.0]
['beep', 0.0, 3680.751166433235, 0.0, 0.0, 0.0, 0.0, -2472.4382129237906, 0.0]
['beep', 0.0, 3696.4867945297715, 0.0, 0.0, 0.0, 0.0, -2472.572323390523, 0.0]
['beep', 0.0, 3712.3565330930396, 0.0, 0.0, 0.0, 0.0, -2472.460564668246, 0.0]
['beep', 0.0, 3705.8745272010005, 0.0, 0.0, 0.0, 0.0, -2474.3828146914025, 0.0]
['beep', 0.0, 3687.2555240697297, 0.0, 0.0, 0.0, 0.0, -2474.874553069419, 0.0]
['beep', 0.0, 3683.7463001902465, 0.0, 0.0, 0.0, 0.0, -2475.7015676142655, 0.0]
['beep', 0.0, 3698.1408236194643, 0.0, 0.0, 0.0, 0.0, -2477.5120589151456, 0.0]
['beep', 0.0, 3712.311829604129, 0.0, 0.0, 0.0, 0.0, -2473.3993379353687, 0.0]
['beep', 0.0, 3706.3886173234723, 0.0, 0.0, 0.0, 0.0, -2475.0310152806064, 0.0]
['beep', 0.0, 3692.083500872076, 0.0, 0.0, 0.0, 0.0, -2475.209829236249, 0.0]
['beep', 0.0, 3687.1214136029976, 0.0, 0.0, 0.0, 0.0, -2474.0698902690283, 0.0]
['beep', 0.0, 3700.241887598263, 0.0, 0.0, 0.0, 0.0, -2473.0864135129946, 0.0]
['beep', 0.0, 3713.943506949366, 0.0, 0.0, 0.0, 0.0, -2472.7958408350755, 0.0]
['beep', 0.0, 3707.2603353572295, 0.0, 0.0, 0.0, 0.0, -2472.527619901612, 0.0]
['beep', 0.0, 3689.3342363040733, 0.0, 0.0, 0.0, 0.0, -2475.0980705139723, 0.0]
['beep', 0.0, 3682.405195522928, 0.0, 0.0, 0.0, 0.0, -2478.406128693358, 0.0]
['beep', 0.0, 3694.855117184534, 0.0, 0.0, 0.0, 0.0, -2476.7297478592095, 0.0]
['beep', 0.0, 3708.1991086243524, 0.0, 0.0, 0.0, 0.0, -2473.7122623577434, 0.0]
['beep', 0.0, 3702.3653033215173, 0.0, 0.0, 0.0, 0.0, -2476.2603612256485, 0.0]
['beep', 0.0, 3686.1379368469643, 0.0, 0.0, 0.0, 0.0, -2479.2778467271146, 0.0]
['beep', 0.0, 3682.1816780783747, 0.0, 0.0, 0.0, 0.0, -2479.4119571938463, 0.0]
['beep', 0.0, 3695.5480212626485, 0.0, 0.0, 0.0, 0.0, -2476.6850443702992, 0.0]
['beep', 0.0, 3709.562565036126, 0.0, 0.0, 0.0, 0.0, -2475.4780501697123, 0.0]
['beep', 0.0, 3704.511070789227, 0.0, 0.0, 0.0, 0.0, -2476.0591955255504, 0.0]
['beep', 0.0, 3688.909553159422, 0.0, 0.0, 0.0, 0.0, -2478.9202188158297, 0.0]
['beep', 0.0, 3683.433375767872, 0.0, 0.0, 0.0, 0.0, -2480.037806038595, 0.0]
['beep', 0.0, 3697.358512563528, 0.0, 0.0, 0.0, 0.0, -2480.01545429414, 0.0]
['beep', 0.0, 3709.987248180777, 0.0, 0.0, 0.0, 0.0, -2479.5684194050336, 0.0]
['beep', 0.0, 3705.0251609116985, 0.0, 0.0, 0.0, 0.0, -2478.6967013712765, 0.0]
['beep', 0.0, 3686.853192669534, 0.0, 0.0, 0.0, 0.0, -2480.820117094531, 0.0]
['beep', 0.0, 3681.5558292336264, 0.0, 0.0, 0.0, 0.0, -2481.5130211726455, 0.0]
['beep', 0.0, 3695.4809660292826, 0.0, 0.0, 0.0, 0.0, -2480.6413031388884, 0.0]
['beep', 0.0, 3709.2496406137516, 0.0, 0.0, 0.0, 0.0, -2477.7355763596984, 0.0]
['beep', 0.0, 3703.0135039107213, 0.0, 0.0, 0.0, 0.0, -2474.91925655833, 0.0]
['beep', 0.0, 3685.981474635777, 0.0, 0.0, 0.0, 0.0, -2476.3721199479246, 0.0]
['beep', 0.0, 3679.119489087998, 0.0, 0.0, 0.0, 0.0, -2476.796803092576, 0.0]
['beep', 0.0, 3692.5975909945478, 0.0, 0.0, 0.0, 0.0, -2474.852201324964, 0.0]
['beep', 0.0, 3707.5509080351485, 0.0, 0.0, 0.0, 0.0, -2472.8405443239863, 0.0]
['beep', 0.0, 3703.7734632222014, 0.0, 0.0, 0.0, 0.0, -2472.4829164127013, 0.0]
['beep', 0.0, 3689.1330706039753, 0.0, 0.0, 0.0, 0.0, -2472.527619901612, 0.0]
['beep', 0.0, 3679.790041421657, 0.0, 0.0, 0.0, 0.0, -2475.008663536151, 0.0]
['beep', 0.0, 3693.4469572838498, 0.0, 0.0, 0.0, 0.0, -2473.935779802296, 0.0]
['beep', 0.0, 3706.3215620901065, 0.0, 0.0, 0.0, 0.0, -2471.924122801319, 0.0]
['beep', 0.0, 3703.7064079888355, 0.0, 0.0, 0.0, 0.0, -2472.8628960684414, 0.0]
['beep', 0.0, 3685.5120880022155, 0.0, 0.0, 0.0, 0.0, -2475.6121606364445, 0.0]
['beep', 0.0, 3678.9406751323554, 0.0, 0.0, 0.0, 0.0, -2476.39447169238, 0.0]
['beep', 0.0, 3692.374073549995, 0.0, 0.0, 0.0, 0.0, -2473.0193582796287, 0.0]
['beep', 0.0, 3706.9027074459445, 0.0, 0.0, 0.0, 0.0, -2473.0864135129946, 0.0]
['beep', 0.0, 3702.3653033215173, 0.0, 0.0, 0.0, 0.0, -2473.913428057841, 0.0]
['beep', 0.0, 3684.886239157467, 0.0, 0.0, 0.0, 0.0, -2473.0864135129946, 0.0]
['beep', 0.0, 3680.9746838777883, 0.0, 0.0, 0.0, 0.0, -2474.53927690259, 0.0]
['beep', 0.0, 3696.7997189521457, 0.0, 0.0, 0.0, 0.0, -2474.293407713581, 0.0]
['beep', 0.0, 3707.886184201978, 0.0, 0.0, 0.0, 0.0, -2472.8628960684414, 0.0]
['beep', 0.0, 3701.3818265654836, 0.0, 0.0, 0.0, 0.0, -2472.7287856017097, 0.0]
['beep', 0.0, 3691.368245049506, 0.0, 0.0, 0.0, 0.0, -2477.1544310038607, 0.0]
['beep', 0.0, 3681.8464019115454, 0.0, 0.0, 0.0, 0.0, -2475.433346680802, 0.0]
['beep', 0.0, 3692.1282043609867, 0.0, 0.0, 0.0, 0.0, -2474.561628647045, 0.0]
['beep', 0.0, 3708.1544051354417, 0.0, 0.0, 0.0, 0.0, -2475.1204222584274, 0.0]
['beep', 0.0, 3704.4216638114053, 0.0, 0.0, 0.0, 0.0, -2474.9863117916957, 0.0]
['beep', 0.0, 3688.01548338121, 0.0, 0.0, 0.0, 0.0, -2475.656864125355, 0.0]
['beep', 0.0, 3683.209858323319, 0.0, 0.0, 0.0, 0.0, -2477.780279848609, 0.0]
['beep', 0.0, 3693.178736350386, 0.0, 0.0, 0.0, 0.0, -2476.081547270006, 0.0]
['beep', 0.0, 3707.2826871016846, 0.0, 0.0, 0.0, 0.0, -2473.3769861909136, 0.0]
['beep', 0.0, 3706.2321551122855, 0.0, 0.0, 0.0, 0.0, -2472.7958408350755, 0.0]
['beep', 0.0, 3690.5859339935705, 0.0, 0.0, 0.0, 0.0, -2476.39447169238, 0.0]
['beep', 0.0, 3683.9698176347993, 0.0, 0.0, 0.0, 0.0, -2478.8978670713745, 0.0]
['beep', 0.0, 3694.5868962510704, 0.0, 0.0, 0.0, 0.0, -2474.651035624866, 0.0]
['beep', 0.0, 3709.5849167805814, 0.0, 0.0, 0.0, 0.0, -2475.3662914474357, 0.0]
['beep', 0.0, 3705.6510097564474, 0.0, 0.0, 0.0, 0.0, -2473.935779802296, 0.0]
['beep', 0.0, 3689.9600851488217, 0.0, 0.0, 0.0, 0.0, -2474.4498699247683, 0.0]
['beep', 0.0, 3680.371186777495, 0.0, 0.0, 0.0, 0.0, -2477.690872870788, 0.0]
['beep', 0.0, 3694.5421927621596, 0.0, 0.0, 0.0, 0.0, -2477.176782748316, 0.0]
['beep', 0.0, 3710.2331173697853, 0.0, 0.0, 0.0, 0.0, -2473.332282702003, 0.0]
