['beep', 0.0, 204.83138618843392, 0.0, 0.0, 0.0, 0.0, 1162.9836157540817, 0.0]
['beep', 0.0, 204.65257223279147, 0.0, 0.0, 0.0, 0.0, 1164.5482378659533, 0.0]
['beep', 0.0, 205.94897341119926, 0.0, 0.0, 0.0, 0.0, 1164.3247204214001, 0.0]
['beep', 0.0, 208.07238913445346, 0.0, 0.0, 0.0, 0.0, 1163.9223890212047, 0.0]
['beep', 0.0, 205.7701594555568, 0.0, 0.0, 0.0, 0.0, 1162.3801186537885, 0.0]
['beep', 0.0, 202.90913616527752, 0.0, 0.0, 0.0, 0.0, 1163.1624297097242, 0.0]
['beep', 0.0, 202.75267395409037, 0.0, 0.0, 0.0, 0.0, 1164.2800169324896, 0.0]
['beep', 0.0, 204.98784839962107, 0.0, 0.0, 0.0, 0.0, 1164.3917756547662, 0.0]
['beep', 0.0, 207.2677263340624, 0.0, 0.0, 0.0, 0.0, 1163.4082988987327, 0.0]
['beep', 0.0, 206.17249085575236, 0.0, 0.0, 0.0, 0.0, 1164.3694239103108, 0.0]
['beep', 0.0, 203.44557803220488, 0.0, 0.0, 0.0, 0.0, 1165.0846797328807, 0.0]
['beep', 0.0, 202.216232087163, 0.0, 0.0, 0.0, 0.0, 1165.107031477336, 0.0]
['beep', 0.0, 204.94314491071046, 0.0, 0.0, 0.0, 0.0, 1164.65999658823, 0.0]
['beep', 0.0, 206.26189783357358, 0.0, 0.0, 0.0, 0.0, 1164.525886121498, 0.0]
['beep', 0.0, 205.03255188853169, 0.0, 0.0, 0.0, 0.0, 1163.94474076566, 0.0]
['beep', 0.0, 204.31729606596187, 0.0, 0.0, 0.0, 0.0, 1163.0953744763583, 0.0]
['beep', 0.0, 204.7196274661574, 0.0, 0.0, 0.0, 0.0, 1163.9670925101152, 0.0]
['beep', 0.0, 206.5971740004032, 0.0, 0.0, 0.0, 0.0, 1164.65999658823, 0.0]
['beep', 0.0, 207.6253542453473, 0.0, 0.0, 0.0, 0.0, 1164.3247204214001, 0.0]
['beep', 0.0, 206.50776702258196, 0.0, 0.0, 0.0, 0.0, 1162.491877376065, 0.0]
['beep', 0.0, 204.13848211031942, 0.0, 0.0, 0.0, 0.0, 1163.497705876554, 0.0]
['beep', 0.0, 204.0937786214088, 0.0, 0.0, 0.0, 0.0, 1164.7270518215958, 0.0]
['beep', 0.0, 206.77598795604564, 0.0, 0.0, 0.0, 0.0, 1165.2858454329785, 0.0]
['beep', 0.0, 206.84304318941156, 0.0, 0.0, 0.0, 0.0, 1166.1575634667354, 0.0]
['beep', 0.0, 205.0996071218976, 0.0, 0.0, 0.0, 0.0, 1165.2187901996124, 0.0]
['beep', 0.0, 203.73615071012387, 0.0, 0.0, 0.0, 0.0, 1164.65999658823, 0.0]
['beep', 0.0, 203.66909547675795, 0.0, 0.0, 0.0, 0.0, 1165.7105285776292, 0.0]
['beep', 0.0, 206.08308387793113, 0.0, 0.0, 0.0, 0.0, 1164.3247204214001, 0.0]
['beep', 0.0, 207.11126412287524, 0.0, 0.0, 0.0, 0.0, 1162.4695256316097, 0.0]
['beep', 0.0, 205.7031042221909, 0.0, 0.0, 0.0, 0.0, 1163.7882785544728, 0.0]
['beep', 0.0, 204.83138618843392, 0.0, 0.0, 0.0, 0.0, 1164.2129616991238, 0.0]
['beep', 0.0, 205.56899375545905, 0.0, 0.0, 0.0, 0.0, 1164.3917756547662, 0.0]
['beep', 0.0, 207.37948505633892, 0.0, 0.0, 0.0, 0.0, 1165.330548921889, 0.0]
['beep', 0.0, 206.77598795604564, 0.0, 0.0, 0.0, 0.0, 1163.877685532294, 0.0]
['beep', 0.0, 205.3901797998166, 0.0, 0.0, 0.0, 0.0, 1162.4471738871543, 0.0]
['beep', 0.0, 202.66326697626914, 0.0, 0.0, 0.0, 0.0, 1162.0895459758694, 0.0]
['beep', 0.0, 203.64674373230264, 0.0, 0.0, 0.0, 0.0, 1164.65999658823, 0.0]
['beep', 0.0, 205.4348832887272, 0.0, 0.0, 0.0, 0.0, 1163.7882785544728, 0.0]
['beep', 0.0, 208.18414785673, 0.0, 0.0, 0.0, 0.0, 1163.207133198635, 0.0]
['beep', 0.0, 207.22302284515177, 0.0, 0.0, 0.0, 0.0, 1164.2576651880343, 0.0]
['beep', 0.0, 204.60786874388086, 0.0, 0.0, 0.0, 0.0, 1166.1575634667354, 0.0]
['beep', 0.0, 205.34547631090598, 0.0, 0.0, 0.0, 0.0, 1167.4092611562326, 0.0]
['beep', 0.0, 207.80416820098975, 0.0, 0.0, 0.0, 0.0, 1166.8951710337606, 0.0]
['beep', 0.0, 210.19580485770763, 0.0, 0.0, 0.0, 0.0, 1165.5093628775314, 0.0]
['beep', 0.0, 208.8323484459339, 0.0, 0.0, 0.0, 0.0, 1165.2858454329785, 0.0]
['beep', 0.0, 206.37365655585012, 0.0, 0.0, 0.0, 0.0, 1164.168258210213, 0.0]
['beep', 0.0, 206.12778736684174, 0.0, 0.0, 0.0, 0.0, 1163.1624297097242, 0.0]
['beep', 0.0, 208.27355483455122, 0.0, 0.0, 0.0, 0.0, 1165.6434733442634, 0.0]
['beep', 0.0, 208.27355483455122, 0.0, 0.0, 0.0, 0.0, 1166.3363774223778, 0.0]
['beep', 0.0, 207.69240947871322, 0.0, 0.0, 0.0, 0.0, 1165.5093628775314, 0.0]
['beep', 0.0, 206.48541527812665, 0.0, 0.0, 0.0, 0.0, 1166.0681564889142, 0.0]
['beep', 0.0, 206.82069144495625, 0.0, 0.0, 0.0, 0.0, 1166.2246187001012, 0.0]
['beep', 0.0, 210.1287496243417, 0.0, 0.0, 0.0, 0.0, 1167.1857437116796, 0.0]
['beep', 0.0, 210.7769502135456, 0.0, 0.0, 0.0, 0.0, 1166.269322189012, 0.0]
['beep', 0.0, 208.4970722791043, 0.0, 0.0, 0.0, 0.0, 1165.1964384551572, 0.0]
['beep', 0.0, 206.3066013224842, 0.0, 0.0, 0.0, 0.0, 1165.2858454329785, 0.0]
['beep', 0.0, 205.18901409971883, 0.0, 0.0, 0.0, 0.0, 1165.263493688523, 0.0]
['beep', 0.0, 207.58065075643668, 0.0, 0.0, 0.0, 0.0, 1165.5093628775314, 0.0]
['beep', 0.0, 209.36879031286125, 0.0, 0.0, 0.0, 0.0, 1167.5210198785092, 0.0]
['beep', 0.0, 207.40183680079423, 0.0, 0.0, 0.0, 0.0, 1167.8339443008833, 0.0]
['beep', 0.0, 205.59134549991435, 0.0, 0.0, 0.0, 0.0, 1167.6774820896962, 0.0]
['beep', 0.0, 204.80903444397862, 0.0, 0.0, 0.0, 0.0, 1167.0069297560372, 0.0]
['beep', 0.0, 207.15596761178585, 0.0, 0.0, 0.0, 0.0, 1166.559894866931, 0.0]
['beep', 0.0, 208.34061006791714, 0.0, 0.0, 0.0, 0.0, 1165.7552320665397, 0.0]
['beep', 0.0, 206.3289530669395, 0.0, 0.0, 0.0, 0.0, 1163.6988715766515, 0.0]
['beep', 0.0, 203.5349850100261, 0.0, 0.0, 0.0, 0.0, 1164.4364791436767, 0.0]
['beep', 0.0, 204.25024083259595, 0.0, 0.0, 0.0, 0.0, 1165.487011133076, 0.0]
['beep', 0.0, 206.10543562238644, 0.0, 0.0, 0.0, 0.0, 1165.03997624397, 0.0]
['beep', 0.0, 206.2842495780289, 0.0, 0.0, 0.0, 0.0, 1166.3810809112886, 0.0]
['beep', 0.0, 204.0490751324982, 0.0, 0.0, 0.0, 0.0, 1166.4034326557437, 0.0]
['beep', 0.0, 202.64091523181384, 0.0, 0.0, 0.0, 0.0, 1164.8388105438723, 0.0]
['beep', 0.0, 202.8197291874563, 0.0, 0.0, 0.0, 0.0, 1165.621121599808, 0.0]
['beep', 0.0, 204.98784839962107, 0.0, 0.0, 0.0, 0.0, 1165.330548921889, 0.0]
['beep', 0.0, 206.70893272267972, 0.0, 0.0, 0.0, 0.0, 1165.263493688523, 0.0]
['beep', 0.0, 205.83721468892273, 0.0, 0.0, 0.0, 0.0, 1163.6765198321964, 0.0]
['beep', 0.0, 203.892612921311, 0.0, 0.0, 0.0, 0.0, 1165.3752524107997, 0.0]
['beep', 0.0, 203.1997088431965, 0.0, 0.0, 0.0, 0.0, 1167.7668890675175, 0.0]
['beep', 0.0, 206.9771536561434, 0.0, 0.0, 0.0, 0.0, 1167.297502433956, 0.0]
['beep', 0.0, 207.9606304121769, 0.0, 0.0, 0.0, 0.0, 1167.1633919672242, 0.0]
['beep', 0.0, 206.82069144495625, 0.0, 0.0, 0.0, 0.0, 1167.0292815004923, 0.0]
['beep', 0.0, 205.85956643337803, 0.0, 0.0, 0.0, 0.0, 1166.8728192893052, 0.0]
['beep', 0.0, 206.03838038902052, 0.0, 0.0, 0.0, 0.0, 1166.7387088225735, 0.0]
['beep', 0.0, 206.03838038902052, 0.0, 0.0, 0.0, 0.0, 1167.297502433956, 0.0]
['beep', 0.0, 207.06656063396463, 0.0, 0.0, 0.0, 0.0, 1167.2751506895008, 0.0]
['beep', 0.0, 207.17831935624116, 0.0, 0.0, 0.0, 0.0, 1165.464659388621, 0.0]
['beep', 0.0, 204.47375827714902, 0.0, 0.0, 0.0, 0.0, 1165.5764181108973, 0.0]
['beep', 0.0, 205.47958677763782, 0.0, 0.0, 0.0, 0.0, 1164.3917756547662, 0.0]
['beep', 0.0, 208.63118274583613, 0.0, 0.0, 0.0, 0.0, 1165.3976041552548, 0.0]
['beep', 0.0, 209.41349380177186, 0.0, 0.0, 0.0, 0.0, 1166.917522778216, 0.0]
['beep', 0.0, 206.91009842277748, 0.0, 0.0, 0.0, 0.0, 1166.0234530000034, 0.0]
['beep', 0.0, 205.85956643337803, 0.0, 0.0, 0.0, 0.0, 1164.816458799417, 0.0]
['beep', 0.0, 207.17831935624116, 0.0, 0.0, 0.0, 0.0, 1164.9952727550594, 0.0]
['beep', 0.0, 209.07821763494226, 0.0, 0.0, 0.0, 0.0, 1164.9505692661487, 0.0]
['beep', 0.0, 212.14040662531934, 0.0, 0.0, 0.0, 0.0, 1163.5871128543752, 0.0]
['beep', 0.0, 210.68754323572438, 0.0, 0.0, 0.0, 0.0, 1165.487011133076, 0.0]
['beep', 0.0, 208.45236879019367, 0.0, 0.0, 0.0, 0.0, 1166.0234530000034, 0.0]
['beep', 0.0, 208.43001704573837, 0.0, 0.0, 0.0, 0.0, 1167.5210198785092, 0.0]
['beep', 0.0, 208.63118274583613, 0.0, 0.0, 0.0, 0.0, 1167.6327786007857, 0.0]
['beep', 0.0, 209.8381769464227, 0.0, 0.0, 0.0, 0.0, 1166.7387088225735, 0.0]
['beep', 0.0, 208.29590657900653, 0.0, 0.0, 0.0, 0.0, 1166.3810809112886, 0.0]
['beep', 0.0, 205.7478077111015, 0.0, 0.0, 0.0, 0.0, 1165.7552320665397, 0.0]
['beep', 0.0, 206.84304318941156, 0.0, 0.0, 0.0, 0.0, 1166.425784400199, 0.0]
['beep', 0.0, 208.5641275124702, 0.0, 0.0, 0.0, 0.0, 1166.2246187001012, 0.0]
['beep', 0.0, 209.2123281016741, 0.0, 0.0, 0.0, 0.0, 1164.65999658823, 0.0]
['beep', 0.0, 208.76529321256797, 0.0, 0.0, 0.0, 0.0, 1163.94474076566, 0.0]
['beep', 0.0, 206.17249085575236, 0.0, 0.0, 0.0, 0.0, 1164.6376448437745, 0.0]
['beep', 0.0, 206.48541527812665, 0.0, 0.0, 0.0, 0.0, 1164.458830888132, 0.0]
['beep', 0.0, 208.63118274583613, 0.0, 0.0, 0.0, 0.0, 1164.6152930993192, 0.0]
['beep', 0.0, 208.5194240235596, 0.0, 0.0, 0.0, 0.0, 1164.6152930993192, 0.0]
['beep', 0.0, 206.50776702258196, 0.0, 0.0, 0.0, 0.0, 1163.7435750655623, 0.0]
['beep', 0.0, 204.31729606596187, 0.0, 0.0, 0.0, 0.0, 1163.4753541320986, 0.0]
['beep', 0.0, 204.22788908814064, 0.0, 0.0, 0.0, 0.0, 1163.2741884320008, 0.0]
['beep', 0.0, 207.9382786677216, 0.0, 0.0, 0.0, 0.0, 1164.1235547213025, 0.0]
['beep', 0.0, 209.41349380177186, 0.0, 0.0, 0.0, 0.0, 1164.7717553105063, 0.0]
['beep', 0.0, 208.00533390108754, 0.0, 0.0, 0.0, 0.0, 1164.525886121498, 0.0]
['beep', 0.0, 205.9936769001099, 0.0, 0.0, 0.0, 0.0, 1165.0846797328807, 0.0]
['beep', 0.0, 205.7254559666462, 0.0, 0.0, 0.0, 0.0, 1165.7105285776292, 0.0]
['beep', 0.0, 203.64674373230264, 0.0, 0.0, 0.0, 0.0, 1166.269322189012, 0.0]
['beep', 0.0, 208.05003738999815, 0.0, 0.0, 0.0, 0.0, 1165.621121599808, 0.0]
['beep', 0.0, 212.3639240698724, 0.0, 0.0, 0.0, 0.0, 1166.2246187001012, 0.0]
['beep', 0.0, 212.20746185868526, 0.0, 0.0, 0.0, 0.0, 1165.2858454329785, 0.0]
['beep', 0.0, 212.25216534759588, 0.0, 0.0, 0.0, 0.0, 1165.3976041552548, 0.0]
['beep', 0.0, 213.92854618174388, 0.0, 0.0, 0.0, 0.0, 1166.7610605670286, 0.0]
['beep', 0.0, 216.4542933051936, 0.0, 0.0, 0.0, 0.0, 1166.3810809112886, 0.0]
['beep', 0.0, 214.5990985154031, 0.0, 0.0, 0.0, 0.0, 1167.0963367338584, 0.0]
['beep', 0.0, 211.31339208047297, 0.0, 0.0, 0.0, 0.0, 1166.9622262671264, 0.0]
['beep', 0.0, 211.8051304584897, 0.0, 0.0, 0.0, 0.0, 1166.2246187001012, 0.0]
['beep', 0.0, 213.6379735038249, 0.0, 0.0, 0.0, 0.0, 1167.1857437116796, 0.0]
['beep', 0.0, 214.71085723767965, 0.0, 0.0, 0.0, 0.0, 1165.1293832217912, 0.0]
['beep', 0.0, 214.35322932639474, 0.0, 0.0, 0.0, 0.0, 1166.0234530000034, 0.0]
['beep', 0.0, 213.59327001491428, 0.0, 0.0, 0.0, 0.0, 1166.6045983558415, 0.0]
['beep', 0.0, 213.86149094837796, 0.0, 0.0, 0.0, 0.0, 1166.4481361446544, 0.0]
['beep', 0.0, 216.70016249420198, 0.0, 0.0, 0.0, 0.0, 1167.0516332449477, 0.0]
['beep', 0.0, 218.82357821745615, 0.0, 0.0, 0.0, 0.0, 1167.1186884783135, 0.0]
['beep', 0.0, 216.27547934955115, 0.0, 0.0, 0.0, 0.0, 1165.5987698553527, 0.0]
['beep', 0.0, 212.989772914621, 0.0, 0.0, 0.0, 0.0, 1165.03997624397, 0.0]
['beep', 0.0, 212.6544967477914, 0.0, 0.0, 0.0, 0.0, 1164.525886121498, 0.0]
['beep', 0.0, 214.82261595995618, 0.0, 0.0, 0.0, 0.0, 1166.716357078118, 0.0]
['beep', 0.0, 216.63310726083606, 0.0, 0.0, 0.0, 0.0, 1167.6104268563304, 0.0]
['beep', 0.0, 215.2025956156964, 0.0, 0.0, 0.0, 0.0, 1167.4763163895984, 0.0]
['beep', 0.0, 213.6379735038249, 0.0, 0.0, 0.0, 0.0, 1166.9845780115818, 0.0]
['beep', 0.0, 212.83331070343385, 0.0, 0.0, 0.0, 0.0, 1167.4986681340538, 0.0]
['beep', 0.0, 215.78374097153437, 0.0, 0.0, 0.0, 0.0, 1166.6045983558415, 0.0]
['beep', 0.0, 216.54370028301483, 0.0, 0.0, 0.0, 0.0, 1166.0681564889142, 0.0]
['beep', 0.0, 215.00142991559864, 0.0, 0.0, 0.0, 0.0, 1164.458830888132, 0.0]
['beep', 0.0, 212.6544967477914, 0.0, 0.0, 0.0, 0.0, 1164.3694239103108, 0.0]
['beep', 0.0, 212.74390372561263, 0.0, 0.0, 0.0, 0.0, 1164.5035343770426, 0.0]
['beep', 0.0, 214.33087758193943, 0.0, 0.0, 0.0, 0.0, 1164.5482378659533, 0.0]
['beep', 0.0, 216.34253458291707, 0.0, 0.0, 0.0, 0.0, 1164.1459064657577, 0.0]
['beep', 0.0, 216.25312760509584, 0.0, 0.0, 0.0, 0.0, 1163.7659268100176, 0.0]
['beep', 0.0, 213.6379735038249, 0.0, 0.0, 0.0, 0.0, 1163.94474076566, 0.0]
['beep', 0.0, 213.6379735038249, 0.0, 0.0, 0.0, 0.0, 1165.844639044361, 0.0]
['beep', 0.0, 215.00142991559864, 0.0, 0.0, 0.0, 0.0, 1165.4423076441656, 0.0]
['beep', 0.0, 216.7895694720232, 0.0, 0.0, 0.0, 0.0, 1164.5705896104087, 0.0]
['beep', 0.0, 215.64963050480253, 0.0, 0.0, 0.0, 0.0, 1164.0788512323918, 0.0]
['beep', 0.0, 212.78860721452324, 0.0, 0.0, 0.0, 0.0, 1164.0564994879364, 0.0]
['beep', 0.0, 213.70502873719082, 0.0, 0.0, 0.0, 0.0, 1163.0506709874478, 0.0]
['beep', 0.0, 215.8507962049003, 0.0, 0.0, 0.0, 0.0, 1164.5035343770426, 0.0]
['beep', 0.0, 217.03543866103158, 0.0, 0.0, 0.0, 0.0, 1164.3694239103108, 0.0]
['beep', 0.0, 214.93437468223271, 0.0, 0.0, 0.0, 0.0, 1164.0788512323918, 0.0]
['beep', 0.0, 213.74973222610143, 0.0, 0.0, 0.0, 0.0, 1165.4199558997102, 0.0]
['beep', 0.0, 211.62631650284726, 0.0, 0.0, 0.0, 0.0, 1165.2858454329785, 0.0]
['beep', 0.0, 212.6768484922467, 0.0, 0.0, 0.0, 0.0, 1165.330548921889, 0.0]
['beep', 0.0, 214.46498804867127, 0.0, 0.0, 0.0, 0.0, 1164.0341477434813, 0.0]
['beep', 0.0, 213.0344764035316, 0.0, 0.0, 0.0, 0.0, 1162.9836157540817, 0.0]
['beep', 0.0, 211.64866824730257, 0.0, 0.0, 0.0, 0.0, 1163.5871128543752, 0.0]
['beep', 0.0, 211.17928161374113, 0.0, 0.0, 0.0, 0.0, 1164.2129616991238, 0.0]
['beep', 0.0, 213.3474008259059, 0.0, 0.0, 0.0, 0.0, 1162.8942087762605, 0.0]
['beep', 0.0, 214.71085723767965, 0.0, 0.0, 0.0, 0.0, 1162.9389122651712, 0.0]
['beep', 0.0, 214.30852583748413, 0.0, 0.0, 0.0, 0.0, 1163.2965401764561, 0.0]
['beep', 0.0, 210.68754323572438, 0.0, 0.0, 0.0, 0.0, 1162.4248221426992, 0.0]
['beep', 0.0, 209.79347345751208, 0.0, 0.0, 0.0, 0.0, 1162.9165605207158, 0.0]
['beep', 0.0, 210.03934264652048, 0.0, 0.0, 0.0, 0.0, 1163.94474076566, 0.0]
['beep', 0.0, 210.7993019580009, 0.0, 0.0, 0.0, 0.0, 1163.0283192429924, 0.0]
['beep', 0.0, 210.7993019580009, 0.0, 0.0, 0.0, 0.0, 1163.140077965269, 0.0]
['beep', 0.0, 208.29590657900653, 0.0, 0.0, 0.0, 0.0, 1162.5142291205204, 0.0]
['beep', 0.0, 207.6477059898026, 0.0, 0.0, 0.0, 0.0, 1163.363595409822, 0.0]
['beep', 0.0, 209.1899763572188, 0.0, 0.0, 0.0, 0.0, 1163.497705876554, 0.0]
['beep', 0.0, 211.67101999175787, 0.0, 0.0, 0.0, 0.0, 1162.3577669093331, 0.0]
['beep', 0.0, 210.35226706889478, 0.0, 0.0, 0.0, 0.0, 1160.9049035197381, 0.0]
['beep', 0.0, 208.13944436781938, 0.0, 0.0, 0.0, 0.0, 1161.6648628312187, 0.0]
['beep', 0.0, 207.6253542453473, 0.0, 0.0, 0.0, 0.0, 1162.4248221426992, 0.0]
['beep', 0.0, 210.26286009107355, 0.0, 0.0, 0.0, 0.0, 1162.5365808649756, 0.0]
['beep', 0.0, 212.6321450033361, 0.0, 0.0, 0.0, 0.0, 1162.9836157540817, 0.0]
['beep', 0.0, 212.699200236702, 0.0, 0.0, 0.0, 0.0, 1164.4141273992213, 0.0]
['beep', 0.0, 211.1345781248305, 0.0, 0.0, 0.0, 0.0, 1165.107031477336, 0.0]
['beep', 0.0, 210.55343276899254, 0.0, 0.0, 0.0, 0.0, 1165.5317146219868, 0.0]
['beep', 0.0, 212.85566244788916, 0.0, 0.0, 0.0, 0.0, 1165.0176244995148, 0.0]
['beep', 0.0, 211.8051304584897, 0.0, 0.0, 0.0, 0.0, 1165.6434733442634, 0.0]
['beep', 0.0, 209.72641822414616, 0.0, 0.0, 0.0, 0.0, 1166.13521172228, 0.0]
['beep', 0.0, 207.04420888950932, 0.0, 0.0, 0.0, 0.0, 1164.5482378659533, 0.0]
['beep', 0.0, 206.75363621159033, 0.0, 0.0, 0.0, 0.0, 1165.0846797328807, 0.0]
['beep', 0.0, 208.8547001903892, 0.0, 0.0, 0.0, 0.0, 1163.6988715766515, 0.0]
['beep', 0.0, 209.41349380177186, 0.0, 0.0, 0.0, 0.0, 1161.5307523644867, 0.0]
['beep', 0.0, 208.47472053464898, 0.0, 0.0, 0.0, 0.0, 1161.1954761976572, 0.0]
['beep', 0.0, 207.11126412287524, 0.0, 0.0, 0.0, 0.0, 1162.4695256316097, 0.0]
['beep', 0.0, 206.48541527812665, 0.0, 0.0, 0.0, 0.0, 1164.0788512323918, 0.0]
['beep', 0.0, 208.18414785673, 0.0, 0.0, 0.0, 0.0, 1163.6765198321964, 0.0]
['beep', 0.0, 209.48054903513778, 0.0, 0.0, 0.0, 0.0, 1162.6259878427968, 0.0]
['beep', 0.0, 207.9382786677216, 0.0, 0.0, 0.0, 0.0, 1161.0837174753806, 0.0]
['beep', 0.0, 205.21136584417414, 0.0, 0.0, 0.0, 0.0, 1161.240179686568, 0.0]
['beep', 0.0, 205.59134549991435, 0.0, 0.0, 0.0, 0.0, 1161.3519384088443, 0.0]
['beep', 0.0, 207.22302284515177, 0.0, 0.0, 0.0, 0.0, 1163.0283192429924, 0.0]
['beep', 0.0, 208.2288513456406, 0.0, 0.0, 0.0, 0.0, 1164.1906099546684, 0.0]
['beep', 0.0, 206.9548019116881, 0.0, 0.0, 0.0, 0.0, 1162.8718570318053, 0.0]
['beep', 0.0, 203.75850245457917, 0.0, 0.0, 0.0, 0.0, 1162.7824500539841, 0.0]
['beep', 0.0, 203.37852279883896, 0.0, 0.0, 0.0, 0.0, 1162.491877376065, 0.0]
['beep', 0.0, 205.21136584417414, 0.0, 0.0, 0.0, 0.0, 1163.005967498537, 0.0]
['beep', 0.0, 206.77598795604564, 0.0, 0.0, 0.0, 0.0, 1162.3130634204226, 0.0]
['beep', 0.0, 205.59134549991435, 0.0, 0.0, 0.0, 0.0, 1161.4636971311209, 0.0]
['beep', 0.0, 203.1550053542859, 0.0, 0.0, 0.0, 0.0, 1160.524923863998, 0.0]
['beep', 0.0, 203.5573367544814, 0.0, 0.0, 0.0, 0.0, 1159.6755575746963, 0.0]
['beep', 0.0, 205.32312456645067, 0.0, 0.0, 0.0, 0.0, 1161.240179686568, 0.0]
['beep', 0.0, 206.88774667832217, 0.0, 0.0, 0.0, 0.0, 1162.8048017984393, 0.0]
['beep', 0.0, 206.88774667832217, 0.0, 0.0, 0.0, 0.0, 1161.910732020227, 0.0]
['beep', 0.0, 206.15013911129705, 0.0, 0.0, 0.0, 0.0, 1161.0166622420147, 0.0]
['beep', 0.0, 206.48541527812665, 0.0, 0.0, 0.0, 0.0, 1161.3742901532996, 0.0]
['beep', 0.0, 208.5194240235596, 0.0, 0.0, 0.0, 0.0, 1163.2741884320008, 0.0]
['beep', 0.0, 208.09474087890877, 0.0, 0.0, 0.0, 0.0, 1163.9894442545706, 0.0]
['beep', 0.0, 208.63118274583613, 0.0, 0.0, 0.0, 0.0, 1161.1507727087467, 0.0]
['beep', 0.0, 206.3289530669395, 0.0, 0.0, 0.0, 0.0, 1160.8602000308276, 0.0]
['beep', 0.0, 204.65257223279147, 0.0, 0.0, 0.0, 0.0, 1160.882551775283, 0.0]
['beep', 0.0, 207.603002500892, 0.0, 0.0, 0.0, 0.0, 1162.067194231414, 0.0]
['beep', 0.0, 208.94410716821042, 0.0, 0.0, 0.0, 0.0, 1162.8048017984393, 0.0]
['beep', 0.0, 207.91592692326628, 0.0, 0.0, 0.0, 0.0, 1161.8213250424058, 0.0]
['beep', 0.0, 205.56899375545905, 0.0, 0.0, 0.0, 0.0, 1161.5754558533974, 0.0]
['beep', 0.0, 203.98201989913224, 0.0, 0.0, 0.0, 0.0, 1160.9719587531042, 0.0]
['beep', 0.0, 205.54664201100374, 0.0, 0.0, 0.0, 0.0, 1160.3237581639003, 0.0]
['beep', 0.0, 206.9995054005987, 0.0, 0.0, 0.0, 0.0, 1158.3568046518333, 0.0]
['beep', 0.0, 207.6253542453473, 0.0, 0.0, 0.0, 0.0, 1158.0662319739142, 0.0]
['beep', 0.0, 204.89844142179984, 0.0, 0.0, 0.0, 0.0, 1160.1449442082578, 0.0]
['beep', 0.0, 203.8702611768557, 0.0, 0.0, 0.0, 0.0, 1159.9884819970707, 0.0]
['beep', 0.0, 205.81486294446742, 0.0, 0.0, 0.0, 0.0, 1159.295577918956, 0.0]
['beep', 0.0, 208.05003738999815, 0.0, 0.0, 0.0, 0.0, 1158.6026738408416, 0.0]
['beep', 0.0, 207.44654028970484, 0.0, 0.0, 0.0, 0.0, 1156.4569063731321, 0.0]
['beep', 0.0, 204.27259257705126, 0.0, 0.0, 0.0, 0.0, 1157.5074383625315, 0.0]
['beep', 0.0, 203.1773570987412, 0.0, 0.0, 0.0, 0.0, 1159.4073366412326, 0.0]
['beep', 0.0, 205.03255188853169, 0.0, 0.0, 0.0, 0.0, 1160.234351186079, 0.0]
['beep', 0.0, 207.37948505633892, 0.0, 0.0, 0.0, 0.0, 1159.2285226855902, 0.0]
['beep', 0.0, 205.03255188853169, 0.0, 0.0, 0.0, 0.0, 1158.0885837183696, 0.0]
['beep', 0.0, 203.46792977666018, 0.0, 0.0, 0.0, 0.0, 1159.720261063607, 0.0]
['beep', 0.0, 203.71379896566856, 0.0, 0.0, 0.0, 0.0, 1160.1896476971683, 0.0]
['beep', 0.0, 205.7478077111015, 0.0, 0.0, 0.0, 0.0, 1160.4355168861769, 0.0]
['beep', 0.0, 207.2900780785177, 0.0, 0.0, 0.0, 0.0, 1160.3237581639003, 0.0]
['beep', 0.0, 205.32312456645067, 0.0, 0.0, 0.0, 0.0, 1159.586150596875, 0.0]
['beep', 0.0, 203.60204024339203, 0.0, 0.0, 0.0, 0.0, 1160.524923863998, 0.0]
['beep', 0.0, 203.2220605876518, 0.0, 0.0, 0.0, 0.0, 1160.7931447974618, 0.0]
['beep', 0.0, 204.47375827714902, 0.0, 0.0, 0.0, 0.0, 1159.9661302526154, 0.0]
['beep', 0.0, 204.92079316625515, 0.0, 0.0, 0.0, 0.0, 1159.8096680414283, 0.0]
['beep', 0.0, 203.35617105438365, 0.0, 0.0, 0.0, 0.0, 1159.8543715303388, 0.0]
['beep', 0.0, 200.56220299747028, 0.0, 0.0, 0.0, 0.0, 1160.234351186079, 0.0]
['beep', 0.0, 199.82459543044513, 0.0, 0.0, 0.0, 0.0, 1161.8213250424058, 0.0]
['beep', 0.0, 201.12099660885295, 0.0, 0.0, 0.0, 0.0, 1161.687214575674, 0.0]
['beep', 0.0, 202.01506638706525, 0.0, 0.0, 0.0, 0.0, 1161.1954761976572, 0.0]
['beep', 0.0, 201.54567975350378, 0.0, 0.0, 0.0, 0.0, 1160.1225924638024, 0.0]
['beep', 0.0, 199.80224368598982, 0.0, 0.0, 0.0, 0.0, 1160.9943104975594, 0.0]
['beep', 0.0, 202.30563906498423, 0.0, 0.0, 0.0, 0.0, 1335.8296556269713, 0.0]
['beep', 0.0, 198.28232506302896, 0.0, 0.0, 0.0, 0.0, 1332.5886526809518, 0.0]
['beep', 0.0, 196.27066806205133, 0.0, 0.0, 0.0, 0.0, 1330.5099404466082, 0.0]
['beep', 0.0, 197.05297911798706, 0.0, 0.0, 0.0, 0.0, 1330.5993474244294, 0.0]
['beep', 0.0, 197.2094413291742, 0.0, 0.0, 0.0, 0.0, 1332.0075073251137, 0.0]
['beep', 0.0, 200.6516099752915, 0.0, 0.0, 0.0, 0.0, 1329.9287950907703, 0.0]
['beep', 0.0, 201.14334835330826, 0.0, 0.0, 0.0, 0.0, 1327.7159723896948, 0.0]
['beep', 0.0, 198.3940837853055, 0.0, 0.0, 0.0, 0.0, 1327.3136409894994, 0.0]
['beep', 0.0, 197.56706924045912, 0.0, 0.0, 0.0, 0.0, 1328.0736003009797, 0.0]
['beep', 0.0, 198.63995297431387, 0.0, 0.0, 0.0, 0.0, 1325.1678735217897, 0.0]
['beep', 0.0, 197.45531051818259, 0.0, 0.0, 0.0, 0.0, 1323.9161758322925, 0.0]
['beep', 0.0, 197.76823494055688, 0.0, 0.0, 0.0, 0.0, 1321.5021874311194, 0.0]
['beep', 0.0, 200.36103729737252, 0.0, 0.0, 0.0, 0.0, 1318.9764403076697, 0.0]
['beep', 0.0, 200.45044427519375, 0.0, 0.0, 0.0, 0.0, 1316.7636176065944, 0.0]
['beep', 0.0, 200.2716303195513, 0.0, 0.0, 0.0, 0.0, 1316.7636176065944, 0.0]
['beep', 0.0, 200.89747916429988, 0.0, 0.0, 0.0, 0.0, 1314.3719809498766, 0.0]
['beep', 0.0, 199.4222640302496, 0.0, 0.0, 0.0, 0.0, 1312.159158248801, 0.0]
['beep', 0.0, 196.2036128286854, 0.0, 0.0, 0.0, 0.0, 1309.253431469611, 0.0]
['beep', 0.0, 196.38242678432786, 0.0, 0.0, 0.0, 0.0, 1308.0911407579351, 0.0]
['beep', 0.0, 199.3552087968837, 0.0, 0.0, 0.0, 0.0, 1306.3030012015106, 0.0]
['beep', 0.0, 202.26093557607362, 0.0, 0.0, 0.0, 0.0, 1304.2689924560777, 0.0]
['beep', 0.0, 202.46210127617138, 0.0, 0.0, 0.0, 0.0, 1301.8550040549046, 0.0]
['beep', 0.0, 200.2716303195513, 0.0, 0.0, 0.0, 0.0, 1297.384655163843, 0.0]
['beep', 0.0, 199.60107798589206, 0.0, 0.0, 0.0, 0.0, 1295.2835911850443, 0.0]
['beep', 0.0, 201.52332800904847, 0.0, 0.0, 0.0, 0.0, 1293.4954516286198, 0.0]
['beep', 0.0, 203.60204024339203, 0.0, 0.0, 0.0, 0.0, 1291.2826289275442, 0.0]
['beep', 0.0, 204.87608967734454, 0.0, 0.0, 0.0, 0.0, 1288.7568818040945, 0.0]
['beep', 0.0, 201.9480111536993, 0.0, 0.0, 0.0, 0.0, 1286.097024213913, 0.0]
['beep', 0.0, 199.0646361189647, 0.0, 0.0, 0.0, 0.0, 1283.6383323238292, 0.0]
['beep', 0.0, 199.95870589717697, 0.0, 0.0, 0.0, 0.0, 1280.5761433334521, 0.0]
['beep', 0.0, 202.57385999844792, 0.0, 0.0, 0.0, 0.0, 1277.4692508541646, 0.0]
['beep', 0.0, 202.97619139864344, 0.0, 0.0, 0.0, 0.0, 1273.781213019039, 0.0]
['beep', 0.0, 200.45044427519375, 0.0, 0.0, 0.0, 0.0, 1271.68014904024, 0.0]
['beep', 0.0, 199.55637449698145, 0.0, 0.0, 0.0, 0.0, 1270.2049339061898, 0.0]
['beep', 0.0, 199.95870589717697, 0.0, 0.0, 0.0, 0.0, 1266.6733582822512, 0.0]
['beep', 0.0, 202.90913616527752, 0.0, 0.0, 0.0, 0.0, 1262.806506491483, 0.0]
['beep', 0.0, 203.31146756547304, 0.0, 0.0, 0.0, 0.0, 1259.297282612, 0.0]
['beep', 0.0, 201.54567975350378, 0.0, 0.0, 0.0, 0.0, 1255.229265121134, 0.0]
['beep', 0.0, 199.6904849637133, 0.0, 0.0, 0.0, 0.0, 1251.9882621751144, 0.0]
['beep', 0.0, 201.07629311994233, 0.0, 0.0, 0.0, 0.0, 1248.8813696958268, 0.0]
['beep', 0.0, 203.57968849893672, 0.0, 0.0, 0.0, 0.0, 1245.260387094067, 0.0]
['beep', 0.0, 202.43974953171607, 0.0, 0.0, 0.0, 0.0, 1242.332308570422, 0.0]
['beep', 0.0, 200.9868861421211, 0.0, 0.0, 0.0, 0.0, 1239.0242503910365, 0.0]
['beep', 0.0, 201.16570009776356, 0.0, 0.0, 0.0, 0.0, 1236.1185236118465, 0.0]
['beep', 0.0, 202.216232087163, 0.0, 0.0, 0.0, 0.0, 1233.682183466218, 0.0]
['beep', 0.0, 203.46792977666018, 0.0, 0.0, 0.0, 0.0, 1231.8716921653381, 0.0]
['beep', 0.0, 204.83138618843392, 0.0, 0.0, 0.0, 0.0, 1229.0777241084247, 0.0]
['beep', 0.0, 203.02089488755405, 0.0, 0.0, 0.0, 0.0, 1226.4625700071538, 0.0]
['beep', 0.0, 200.6739617197468, 0.0, 0.0, 0.0, 0.0, 1223.2215670611342, 0.0]
['beep', 0.0, 202.46210127617138, 0.0, 0.0, 0.0, 0.0, 1220.4723024931316, 0.0]
['beep', 0.0, 204.94314491071046, 0.0, 0.0, 0.0, 0.0, 1217.3654100138438, 0.0]
['beep', 0.0, 204.87608967734454, 0.0, 0.0, 0.0, 0.0, 1215.6443256907853, 0.0]
['beep', 0.0, 202.59621174290322, 0.0, 0.0, 0.0, 0.0, 1214.2138140456457, 0.0]
['beep', 0.0, 201.36686579786132, 0.0, 0.0, 0.0, 0.0, 1212.0009913445701, 0.0]
['beep', 0.0, 203.37852279883896, 0.0, 0.0, 0.0, 0.0, 1209.81052038795, 0.0]
['beep', 0.0, 206.21719434466297, 0.0, 0.0, 0.0, 0.0, 1207.6871046646959, 0.0]
['beep', 0.0, 206.9771536561434, 0.0, 0.0, 0.0, 0.0, 1206.5695174419307, 0.0]
['beep', 0.0, 205.63604898882497, 0.0, 0.0, 0.0, 0.0, 1205.1390057967908, 0.0]
['beep', 0.0, 205.32312456645067, 0.0, 0.0, 0.0, 0.0, 1203.104997051358, 0.0]
['beep', 0.0, 206.73128446713503, 0.0, 0.0, 0.0, 0.0, 1201.2498022615675, 0.0]
['beep', 0.0, 209.25703159058472, 0.0, 0.0, 0.0, 0.0, 1199.4169592162323, 0.0]
['beep', 0.0, 208.00533390108754, 0.0, 0.0, 0.0, 0.0, 1197.6064679153524, 0.0]
['beep', 0.0, 205.21136584417414, 0.0, 0.0, 0.0, 0.0, 1196.5112324370423, 0.0]
['beep', 0.0, 203.35617105438365, 0.0, 0.0, 0.0, 0.0, 1196.555935925953, 0.0]
['beep', 0.0, 205.01020014407638, 0.0, 0.0, 0.0, 0.0, 1195.9300870812044, 0.0]
['beep', 0.0, 206.2842495780289, 0.0, 0.0, 0.0, 0.0, 1194.5442789249753, 0.0]
['beep', 0.0, 207.6253542453473, 0.0, 0.0, 0.0, 0.0, 1194.2760579915116, 0.0]
['beep', 0.0, 206.70893272267972, 0.0, 0.0, 0.0, 0.0, 1193.359636468844, 0.0]
['beep', 0.0, 204.92079316625515, 0.0, 0.0, 0.0, 0.0, 1193.1584707687464, 0.0]
['beep', 0.0, 206.03838038902052, 0.0, 0.0, 0.0, 0.0, 1192.6443806462742, 0.0]
['beep', 0.0, 209.32408682395064, 0.0, 0.0, 0.0, 0.0, 1191.750310868062, 0.0]
['beep', 0.0, 209.9052321797886, 0.0, 0.0, 0.0, 0.0, 1190.6997788786625, 0.0]
['beep', 0.0, 208.27355483455122, 0.0, 0.0, 0.0, 0.0, 1189.8727643338161, 0.0]
['beep', 0.0, 206.70893272267972, 0.0, 0.0, 0.0, 0.0, 1189.4927846780759, 0.0]
['beep', 0.0, 208.13944436781938, 0.0, 0.0, 0.0, 0.0, 1190.7444823675733, 0.0]
['beep', 0.0, 210.7545984690903, 0.0, 0.0, 0.0, 0.0, 1189.8504125893608, 0.0]
['beep', 0.0, 210.64283974681376, 0.0, 0.0, 0.0, 0.0, 1188.3081422219448, 0.0]
['beep', 0.0, 209.30173507949533, 0.0, 0.0, 0.0, 0.0, 1188.0622730329362, 0.0]
['beep', 0.0, 207.11126412287524, 0.0, 0.0, 0.0, 0.0, 1187.7269968661067, 0.0]
['beep', 0.0, 207.603002500892, 0.0, 0.0, 0.0, 0.0, 1187.8611073328386, 0.0]
['beep', 0.0, 209.10056937939757, 0.0, 0.0, 0.0, 0.0, 1186.7435201100732, 0.0]
['beep', 0.0, 208.74294146811266, 0.0, 0.0, 0.0, 0.0, 1186.5200026655202, 0.0]
['beep', 0.0, 208.00533390108754, 0.0, 0.0, 0.0, 0.0, 1186.0729677764139, 0.0]
['beep', 0.0, 207.15596761178585, 0.0, 0.0, 0.0, 0.0, 1184.7542148535508, 0.0]
['beep', 0.0, 208.2288513456406, 0.0, 0.0, 0.0, 0.0, 1184.5306974089979, 0.0]
['beep', 0.0, 211.0898746359199, 0.0, 0.0, 0.0, 0.0, 1185.1118427648357, 0.0]
['beep', 0.0, 211.0675228914646, 0.0, 0.0, 0.0, 0.0, 1183.5025171640536, 0.0]
['beep', 0.0, 210.24050834661824, 0.0, 0.0, 0.0, 0.0, 1184.0613107754364, 0.0]
['beep', 0.0, 209.1899763572188, 0.0, 0.0, 0.0, 0.0, 1184.4412904311766, 0.0]
['beep', 0.0, 210.62048800235846, 0.0, 0.0, 0.0, 0.0, 1183.9495520531598, 0.0]
['beep', 0.0, 212.09570313640873, 0.0, 0.0, 0.0, 0.0, 1184.8659735758274, 0.0]
['beep', 0.0, 213.70502873719082, 0.0, 0.0, 0.0, 0.0, 1183.7707380975173, 0.0]
['beep', 0.0, 211.55926126948134, 0.0, 0.0, 0.0, 0.0, 1182.2955229634672, 0.0]
['beep', 0.0, 209.07821763494226, 0.0, 0.0, 0.0, 0.0, 1182.2955229634672, 0.0]
['beep', 0.0, 209.72641822414616, 0.0, 0.0, 0.0, 0.0, 1182.653150874752, 0.0]
['beep', 0.0, 212.43097930323833, 0.0, 0.0, 0.0, 0.0, 1182.6084473858414, 0.0]
['beep', 0.0, 213.25799384808468, 0.0, 0.0, 0.0, 0.0, 1182.7872613414838, 0.0]
['beep', 0.0, 210.0616943909758, 0.0, 0.0, 0.0, 0.0, 1182.586095641386, 0.0]
['beep', 0.0, 209.1676246127635, 0.0, 0.0, 0.0, 0.0, 1180.753252596051, 0.0]
['beep', 0.0, 210.97811591364336, 0.0, 0.0, 0.0, 0.0, 1180.2168107291236, 0.0]
['beep', 0.0, 212.87801419234447, 0.0, 0.0, 0.0, 0.0, 1181.0885287628805, 0.0]
['beep', 0.0, 213.79443571501204, 0.0, 0.0, 0.0, 0.0, 1181.2449909740676, 0.0]
['beep', 0.0, 211.69337173621318, 0.0, 0.0, 0.0, 0.0, 1180.3285694514, 0.0]
['beep', 0.0, 211.29104033601766, 0.0, 0.0, 0.0, 0.0, 1179.747424095562, 0.0]
['beep', 0.0, 212.09570313640873, 0.0, 0.0, 0.0, 0.0, 1180.7979560849615, 0.0]
['beep', 0.0, 213.28034559254, 0.0, 0.0, 0.0, 0.0, 1180.5744386404085, 0.0]
['beep', 0.0, 215.31435433797293, 0.0, 0.0, 0.0, 0.0, 1178.6968921061627, 0.0]
['beep', 0.0, 213.6156217593696, 0.0, 0.0, 0.0, 0.0, 1178.5851333838862, 0.0]
['beep', 0.0, 210.88870893582214, 0.0, 0.0, 0.0, 0.0, 1178.4510229171542, 0.0]
['beep', 0.0, 212.11805488086404, 0.0, 0.0, 0.0, 0.0, 1177.6463601167632, 0.0]
['beep', 0.0, 213.43680780372713, 0.0, 0.0, 0.0, 0.0, 1177.3557874388441, 0.0]
['beep', 0.0, 213.48151129263775, 0.0, 0.0, 0.0, 0.0, 1176.685235105185, 0.0]
['beep', 0.0, 211.49220603611542, 0.0, 0.0, 0.0, 0.0, 1177.2887322054783, 0.0]
['beep', 0.0, 209.81582520196739, 0.0, 0.0, 0.0, 0.0, 1176.9311042941933, 0.0]
['beep', 0.0, 212.3639240698724, 0.0, 0.0, 0.0, 0.0, 1177.4675461611207, 0.0]
['beep', 0.0, 215.8731479493556, 0.0, 0.0, 0.0, 0.0, 1177.5346013944866, 0.0]
['beep', 0.0, 217.19190087221872, 0.0, 0.0, 0.0, 0.0, 1176.3276071939001, 0.0]
['beep', 0.0, 215.26965084906232, 0.0, 0.0, 0.0, 0.0, 1176.9534560386487, 0.0]
['beep', 0.0, 213.70502873719082, 0.0, 0.0, 0.0, 0.0, 1177.2440287165678, 0.0]
['beep', 0.0, 214.2414706041182, 0.0, 0.0, 0.0, 0.0, 1178.003988028048, 0.0]
['beep', 0.0, 216.65545900529136, 0.0, 0.0, 0.0, 0.0, 1178.071043261414, 0.0]
['beep', 0.0, 217.68363925023547, 0.0, 0.0, 0.0, 0.0, 1177.0875665053804, 0.0]
['beep', 0.0, 216.54370028301483, 0.0, 0.0, 0.0, 0.0, 1177.1769734832017, 0.0]
['beep', 0.0, 214.93437468223271, 0.0, 0.0, 0.0, 0.0, 1177.199325227657, 0.0]
['beep', 0.0, 215.96255492717685, 0.0, 0.0, 0.0, 0.0, 1175.7688135825174, 0.0]
['beep', 0.0, 217.61658401686955, 0.0, 0.0, 0.0, 0.0, 1176.3499589383555, 0.0]
['beep', 0.0, 218.3094880949841, 0.0, 0.0, 0.0, 0.0, 1175.6123513713303, 0.0]
['beep', 0.0, 216.83427296093382, 0.0, 0.0, 0.0, 0.0, 1174.3830054262885, 0.0]
['beep', 0.0, 215.26965084906232, 0.0, 0.0, 0.0, 0.0, 1174.8970955487605, 0.0]
['beep', 0.0, 216.1637206272746, 0.0, 0.0, 0.0, 0.0, 1174.5394676374756, 0.0]
['beep', 0.0, 218.0412671615204, 0.0, 0.0, 0.0, 0.0, 1174.2935984484673, 0.0]
['beep', 0.0, 218.75652298409022, 0.0, 0.0, 0.0, 0.0, 1174.6065228708414, 0.0]
['beep', 0.0, 216.05196190499808, 0.0, 0.0, 0.0, 0.0, 1172.9301420366935, 0.0]
['beep', 0.0, 214.17441537075229, 0.0, 0.0, 0.0, 0.0, 1173.0642525034252, 0.0]
['beep', 0.0, 214.44263630421597, 0.0, 0.0, 0.0, 0.0, 1175.1429647377688, 0.0]
['beep', 0.0, 216.29783109400645, 0.0, 0.0, 0.0, 0.0, 1174.9194472932159, 0.0]
['beep', 0.0, 216.49899679410422, 0.0, 0.0, 0.0, 0.0, 1173.8912670482716, 0.0]
['beep', 0.0, 214.2414706041182, 0.0, 0.0, 0.0, 0.0, 1172.818383314417, 0.0]
['beep', 0.0, 213.0121246590763, 0.0, 0.0, 0.0, 0.0, 1173.1536594812465, 0.0]
['beep', 0.0, 214.04030490402045, 0.0, 0.0, 0.0, 0.0, 1173.6677496037184, 0.0]
['beep', 0.0, 214.8896711933221, 0.0, 0.0, 0.0, 0.0, 1175.3441304378666, 0.0]
['beep', 0.0, 214.5543950264925, 0.0, 0.0, 0.0, 0.0, 1174.4053571707436, 0.0]
['beep', 0.0, 211.53690952502603, 0.0, 0.0, 0.0, 0.0, 1173.265418203523, 0.0]
['beep', 0.0, 210.24050834661824, 0.0, 0.0, 0.0, 0.0, 1174.2488949595565, 0.0]
['beep', 0.0, 211.17928161374113, 0.0, 0.0, 0.0, 0.0, 1174.1594879817353, 0.0]
['beep', 0.0, 213.36975257036121, 0.0, 0.0, 0.0, 0.0, 1174.2041914706458, 0.0]
['beep', 0.0, 214.48733979312658, 0.0, 0.0, 0.0, 0.0, 1173.6453978592633, 0.0]
['beep', 0.0, 212.92271768125508, 0.0, 0.0, 0.0, 0.0, 1173.0195490145147, 0.0]
['beep', 0.0, 212.2968688365065, 0.0, 0.0, 0.0, 0.0, 1172.3489966808554, 0.0]
['beep', 0.0, 212.76625547006793, 0.0, 0.0, 0.0, 0.0, 1172.818383314417, 0.0]
['beep', 0.0, 215.09083689341986, 0.0, 0.0, 0.0, 0.0, 1173.0866042478806, 0.0]
['beep', 0.0, 215.67198224925784, 0.0, 0.0, 0.0, 0.0, 1173.488935648076, 0.0]
['beep', 0.0, 214.80026421550087, 0.0, 0.0, 0.0, 0.0, 1173.0866042478806, 0.0]
['beep', 0.0, 214.48733979312658, 0.0, 0.0, 0.0, 0.0, 1173.265418203523, 0.0]
['beep', 0.0, 217.1248456388528, 0.0, 0.0, 0.0, 0.0, 1173.5783426258972, 0.0]
['beep', 0.0, 220.5670142849701, 0.0, 0.0, 0.0, 0.0, 1175.0312060154922, 0.0]
['beep', 0.0, 220.72347649615725, 0.0, 0.0, 0.0, 0.0, 1175.8135170714281, 0.0]
['beep', 0.0, 218.57770902844777, 0.0, 0.0, 0.0, 0.0, 1176.0817380048918, 0.0]
['beep', 0.0, 216.70016249420198, 0.0, 0.0, 0.0, 0.0, 1175.522944393509, 0.0]
['beep', 0.0, 215.29200259351762, 0.0, 0.0, 0.0, 0.0, 1175.724110093607, 0.0]
['beep', 0.0, 215.35905782688354, 0.0, 0.0, 0.0, 0.0, 1175.2770752045008, 0.0]
['beep', 0.0, 216.90132819429974, 0.0, 0.0, 0.0, 0.0, 1173.0419007589699, 0.0]
['beep', 0.0, 214.64380200431373, 0.0, 0.0, 0.0, 0.0, 1173.332473436889, 0.0]
['beep', 0.0, 213.92854618174388, 0.0, 0.0, 0.0, 0.0, 1175.0535577599476, 0.0]
['beep', 0.0, 214.2191188596629, 0.0, 0.0, 0.0, 0.0, 1174.3159501929224, 0.0]
['beep', 0.0, 215.06848514896456, 0.0, 0.0, 0.0, 0.0, 1173.3548251813443, 0.0]
['beep', 0.0, 216.119017138364, 0.0, 0.0, 0.0, 0.0, 1172.7066245921403, 0.0]
['beep', 0.0, 214.82261595995618, 0.0, 0.0, 0.0, 0.0, 1171.142002480269, 0.0]
['beep', 0.0, 213.19093861471876, 0.0, 0.0, 0.0, 0.0, 1170.0020635130481, 0.0]
['beep', 0.0, 214.44263630421597, 0.0, 0.0, 0.0, 0.0, 1171.521982136009, 0.0]
['beep', 0.0, 215.78374097153437, 0.0, 0.0, 0.0, 0.0, 1171.4549269026431, 0.0]
['beep', 0.0, 215.78374097153437, 0.0, 0.0, 0.0, 0.0, 1170.8067263134392, 0.0]
['beep', 0.0, 213.3026973369953, 0.0, 0.0, 0.0, 0.0, 1170.784374568984, 0.0]
['beep', 0.0, 211.55926126948134, 0.0, 0.0, 0.0, 0.0, 1170.8290780578945, 0.0]
['beep', 0.0, 211.33574382492827, 0.0, 0.0, 0.0, 0.0, 1169.845601301861, 0.0]
['beep', 0.0, 213.74973222610143, 0.0, 0.0, 0.0, 0.0, 1169.9573600241376, 0.0]
['beep', 0.0, 215.09083689341986, 0.0, 0.0, 0.0, 0.0, 1171.589037369375, 0.0]
['beep', 0.0, 214.2638223485735, 0.0, 0.0, 0.0, 0.0, 1171.9913687695705, 0.0]
['beep', 0.0, 212.52038628105956, 0.0, 0.0, 0.0, 0.0, 1172.9971972700594, 0.0]
['beep', 0.0, 214.66615374876903, 0.0, 0.0, 0.0, 0.0, 1172.6395693587745, 0.0]
['beep', 0.0, 217.1248456388528, 0.0, 0.0, 0.0, 0.0, 1172.751328081051, 0.0]
['beep', 0.0, 217.16954912776342, 0.0, 0.0, 0.0, 0.0, 1172.617217614319, 0.0]
['beep', 0.0, 215.78374097153437, 0.0, 0.0, 0.0, 0.0, 1172.6619211032298, 0.0]
['beep', 0.0, 214.33087758193943, 0.0, 0.0, 0.0, 0.0, 1172.7289763365957, 0.0]
['beep', 0.0, 217.1471973833081, 0.0, 0.0, 0.0, 0.0, 1171.7007960916515, 0.0]
['beep', 0.0, 220.5670142849701, 0.0, 0.0, 0.0, 0.0, 1171.4772786470985, 0.0]
['beep', 0.0, 215.71668573816845, 0.0, 0.0, 0.0, 0.0, 1172.3266449364, 0.0]
['beep', 0.0, 208.8994036792998, 0.0, 0.0, 0.0, 0.0, 1172.9301420366935, 0.0]
['beep', 0.0, 206.44071178921604, 0.0, 0.0, 0.0, 0.0, 1171.879610047294, 0.0]
['beep', 0.0, 209.12292112385288, 0.0, 0.0, 0.0, 0.0, 1173.9806740260929, 0.0]
['beep', 0.0, 212.54273802551486, 0.0, 0.0, 0.0, 0.0, 1170.8961332912604, 0.0]
['beep', 0.0, 214.1967671152076, 0.0, 0.0, 0.0, 0.0, 1169.8679530463164, 0.0]
['beep', 0.0, 212.25216534759588, 0.0, 0.0, 0.0, 0.0, 1169.5773803683974, 0.0]
['beep', 0.0, 209.72641822414616, 0.0, 0.0, 0.0, 0.0, 1169.04093850147, 0.0]
['beep', 0.0, 209.25703159058472, 0.0, 0.0, 0.0, 0.0, 1170.4043949132438, 0.0]
['beep', 0.0, 211.35809556938358, 0.0, 0.0, 0.0, 0.0, 1169.7338425795845, 0.0]
['beep', 0.0, 211.84983394740033, 0.0, 0.0, 0.0, 0.0, 1169.331511179389, 0.0]
['beep', 0.0, 209.72641822414616, 0.0, 0.0, 0.0, 0.0, 1169.4209181572103, 0.0]
['beep', 0.0, 208.60883100138082, 0.0, 0.0, 0.0, 0.0, 1168.7280140790956, 0.0]
['beep', 0.0, 208.60883100138082, 0.0, 0.0, 0.0, 0.0, 1168.5939036123639, 0.0]
['beep', 0.0, 211.02281940255398, 0.0, 0.0, 0.0, 0.0, 1168.5715518679085, 0.0]
['beep', 0.0, 211.9839444141322, 0.0, 0.0, 0.0, 0.0, 1168.2586274455343, 0.0]
['beep', 0.0, 210.35226706889478, 0.0, 0.0, 0.0, 0.0, 1168.0798134898919, 0.0]
['beep', 0.0, 208.43001704573837, 0.0, 0.0, 0.0, 0.0, 1168.5939036123639, 0.0]
['beep', 0.0, 208.27355483455122, 0.0, 0.0, 0.0, 0.0, 1168.8397728013722, 0.0]
['beep', 0.0, 210.62048800235846, 0.0, 0.0, 0.0, 0.0, 1168.169220467713, 0.0]
['beep', 0.0, 210.19580485770763, 0.0, 0.0, 0.0, 0.0, 1168.9738832681041, 0.0]
['beep', 0.0, 208.94410716821042, 0.0, 0.0, 0.0, 0.0, 1169.0185867570146, 0.0]
['beep', 0.0, 207.15596761178585, 0.0, 0.0, 0.0, 0.0, 1168.5044966345426, 0.0]
['beep', 0.0, 208.13944436781938, 0.0, 0.0, 0.0, 0.0, 1169.2868076904783, 0.0]
['beep', 0.0, 210.48637753562662, 0.0, 0.0, 0.0, 0.0, 1168.683310590185, 0.0]
['beep', 0.0, 210.3969705578054, 0.0, 0.0, 0.0, 0.0, 1169.1079937348359, 0.0]
['beep', 0.0, 208.31825832346183, 0.0, 0.0, 0.0, 0.0, 1168.0351100009811, 0.0]
['beep', 0.0, 206.6195257448585, 0.0, 0.0, 0.0, 0.0, 1168.392737912266, 0.0]
['beep', 0.0, 207.2677263340624, 0.0, 0.0, 0.0, 0.0, 1169.398566412755, 0.0]
['beep', 0.0, 209.8381769464227, 0.0, 0.0, 0.0, 0.0, 1168.6162553568192, 0.0]
['beep', 0.0, 210.64283974681376, 0.0, 0.0, 0.0, 0.0, 1167.0963367338584, 0.0]
['beep', 0.0, 208.60883100138082, 0.0, 0.0, 0.0, 0.0, 1167.2751506895008, 0.0]
['beep', 0.0, 206.82069144495625, 0.0, 0.0, 0.0, 0.0, 1167.23044720059, 0.0]
['beep', 0.0, 207.6253542453473, 0.0, 0.0, 0.0, 0.0, 1168.3703861678107, 0.0]
['beep', 0.0, 209.8828804353333, 0.0, 0.0, 0.0, 0.0, 1169.197400712657, 0.0]
['beep', 0.0, 211.58161301393665, 0.0, 0.0, 0.0, 0.0, 1168.4150896567214, 0.0]
['beep', 0.0, 208.96645891266573, 0.0, 0.0, 0.0, 0.0, 1168.683310590185, 0.0]
['beep', 0.0, 206.5971740004032, 0.0, 0.0, 0.0, 0.0, 1168.1915722121682, 0.0]
['beep', 0.0, 208.94410716821042, 0.0, 0.0, 0.0, 0.0, 1167.722185578607, 0.0]
['beep', 0.0, 211.22398510265174, 0.0, 0.0, 0.0, 0.0, 1167.2751506895008, 0.0]
['beep', 0.0, 209.97228741315453, 0.0, 0.0, 0.0, 0.0, 1167.1633919672242, 0.0]
['beep', 0.0, 206.9995054005987, 0.0, 0.0, 0.0, 0.0, 1167.073984989403, 0.0]
['beep', 0.0, 206.0160286445652, 0.0, 0.0, 0.0, 0.0, 1167.744537323062, 0.0]
['beep', 0.0, 206.3513048113948, 0.0, 0.0, 0.0, 0.0, 1167.744537323062, 0.0]
['beep', 0.0, 208.34061006791714, 0.0, 0.0, 0.0, 0.0, 1167.94570302316, 0.0]
['beep', 0.0, 208.67588623474674, 0.0, 0.0, 0.0, 0.0, 1168.0127582565258, 0.0]
['beep', 0.0, 208.1617961122747, 0.0, 0.0, 0.0, 0.0, 1166.7387088225735, 0.0]
['beep', 0.0, 205.61369724436966, 0.0, 0.0, 0.0, 0.0, 1166.6493018447522, 0.0]
['beep', 0.0, 204.96549665516577, 0.0, 0.0, 0.0, 0.0, 1167.431612900688, 0.0]
['beep', 0.0, 207.71476122316852, 0.0, 0.0, 0.0, 0.0, 1166.8281158003947, 0.0]
['beep', 0.0, 208.8770519348445, 0.0, 0.0, 0.0, 0.0, 1166.8281158003947, 0.0]
['beep', 0.0, 207.55829901198138, 0.0, 0.0, 0.0, 0.0, 1166.6716535892074, 0.0]
['beep', 0.0, 204.98784839962107, 0.0, 0.0, 0.0, 0.0, 1166.8951710337606, 0.0]
['beep', 0.0, 205.59134549991435, 0.0, 0.0, 0.0, 0.0, 1166.4481361446544, 0.0]
['beep', 0.0, 206.82069144495625, 0.0, 0.0, 0.0, 0.0, 1166.3810809112886, 0.0]
['beep', 0.0, 208.2288513456406, 0.0, 0.0, 0.0, 0.0, 1166.1799152111907, 0.0]
['beep', 0.0, 207.35713331188362, 0.0, 0.0, 0.0, 0.0, 1166.0234530000034, 0.0]
['beep', 0.0, 205.14431061080822, 0.0, 0.0, 0.0, 0.0, 1165.9563977666376, 0.0]
['beep', 0.0, 205.54664201100374, 0.0, 0.0, 0.0, 0.0, 1165.2858454329785, 0.0]
['beep', 0.0, 208.18414785673, 0.0, 0.0, 0.0, 0.0, 1165.7105285776292, 0.0]
['beep', 0.0, 209.34643856840594, 0.0, 0.0, 0.0, 0.0, 1167.4092611562326, 0.0]
['beep', 0.0, 206.88774667832217, 0.0, 0.0, 0.0, 0.0, 1166.8281158003947, 0.0]
['beep', 0.0, 204.54081351051494, 0.0, 0.0, 0.0, 0.0, 1166.0011012555483, 0.0]
['beep', 0.0, 205.0996071218976, 0.0, 0.0, 0.0, 0.0, 1166.4481361446544, 0.0]
['beep', 0.0, 207.11126412287524, 0.0, 0.0, 0.0, 0.0, 1165.621121599808, 0.0]
['beep', 0.0, 207.89357517881098, 0.0, 0.0, 0.0, 0.0, 1164.3470721658555, 0.0]
['beep', 0.0, 206.9324501672328, 0.0, 0.0, 0.0, 0.0, 1164.5482378659533, 0.0]
['beep', 0.0, 205.25606933308475, 0.0, 0.0, 0.0, 0.0, 1166.13521172228, 0.0]
['beep', 0.0, 206.10543562238644, 0.0, 0.0, 0.0, 0.0, 1166.2246187001012, 0.0]
['beep', 0.0, 209.61465950186962, 0.0, 0.0, 0.0, 0.0, 1165.9563977666376, 0.0]
['beep', 0.0, 210.62048800235846, 0.0, 0.0, 0.0, 0.0, 1166.1799152111907, 0.0]
['beep', 0.0, 208.58647925692551, 0.0, 0.0, 0.0, 0.0, 1164.7047000771404, 0.0]
['beep', 0.0, 206.17249085575236, 0.0, 0.0, 0.0, 0.0, 1164.7717553105063, 0.0]
['beep', 0.0, 206.15013911129705, 0.0, 0.0, 0.0, 0.0, 1166.783412311484, 0.0]
['beep', 0.0, 207.49124377861546, 0.0, 0.0, 0.0, 0.0, 1166.783412311484, 0.0]
['beep', 0.0, 207.80416820098975, 0.0, 0.0, 0.0, 0.0, 1166.1799152111907, 0.0]
['beep', 0.0, 205.50193852209313, 0.0, 0.0, 0.0, 0.0, 1166.1799152111907, 0.0]
['beep', 0.0, 202.75267395409037, 0.0, 0.0, 0.0, 0.0, 1166.291673933467, 0.0]
['beep', 0.0, 204.13848211031942, 0.0, 0.0, 0.0, 0.0, 1165.7999355554505, 0.0]
['beep', 0.0, 206.48541527812665, 0.0, 0.0, 0.0, 0.0, 1166.3810809112886, 0.0]
['beep', 0.0, 206.6865809782244, 0.0, 0.0, 0.0, 0.0, 1166.3363774223778, 0.0]
['beep', 0.0, 205.7701594555568, 0.0, 0.0, 0.0, 0.0, 1166.559894866931, 0.0]
['beep', 0.0, 203.8702611768557, 0.0, 0.0, 0.0, 0.0, 1167.5433716229645, 0.0]
['beep', 0.0, 204.22788908814064, 0.0, 0.0, 0.0, 0.0, 1169.0185867570146, 0.0]
['beep', 0.0, 206.26189783357358, 0.0, 0.0, 0.0, 0.0, 1168.9291797791934, 0.0]
['beep', 0.0, 206.06073213347582, 0.0, 0.0, 0.0, 0.0, 1168.2809791899895, 0.0]
['beep', 0.0, 204.27259257705126, 0.0, 0.0, 0.0, 0.0, 1168.526848378998, 0.0]
['beep', 0.0, 201.85860417587807, 0.0, 0.0, 0.0, 0.0, 1167.9904065120706, 0.0]
['beep', 0.0, 202.30563906498423, 0.0, 0.0, 0.0, 0.0, 1168.169220467713, 0.0]
['beep', 0.0, 204.98784839962107, 0.0, 0.0, 0.0, 0.0, 1167.9233512787046, 0.0]
['beep', 0.0, 205.27842107754006, 0.0, 0.0, 0.0, 0.0, 1166.939874522671, 0.0]
['beep', 0.0, 202.57385999844792, 0.0, 0.0, 0.0, 0.0, 1166.0681564889142, 0.0]
['beep', 0.0, 200.18222334173007, 0.0, 0.0, 0.0, 0.0, 1166.6716535892074, 0.0]
['beep', 0.0, 200.71866520865743, 0.0, 0.0, 0.0, 0.0, 1166.3810809112886, 0.0]
['beep', 0.0, 203.2220605876518, 0.0, 0.0, 0.0, 0.0, 1165.4423076441656, 0.0]
['beep', 0.0, 204.16083385477472, 0.0, 0.0, 0.0, 0.0, 1165.911694277727, 0.0]
['beep', 0.0, 202.08212162043117, 0.0, 0.0, 0.0, 0.0, 1164.8611622883275, 0.0]
['beep', 0.0, 200.38338904182783, 0.0, 0.0, 0.0, 0.0, 1166.4704878891098, 0.0]
['beep', 0.0, 199.62342973034737, 0.0, 0.0, 0.0, 0.0, 1165.621121599808, 0.0]
['beep', 0.0, 202.08212162043117, 0.0, 0.0, 0.0, 0.0, 1164.5482378659533, 0.0]
['beep', 0.0, 202.79737744300098, 0.0, 0.0, 0.0, 0.0, 1165.3976041552548, 0.0]
['beep', 0.0, 202.10447336488647, 0.0, 0.0, 0.0, 0.0, 1165.107031477336, 0.0]
['beep', 0.0, 201.6574384757803, 0.0, 0.0, 0.0, 0.0, 1165.5093628775314, 0.0]
['beep', 0.0, 203.06559837646466, 0.0, 0.0, 0.0, 0.0, 1167.1633919672242, 0.0]
['beep', 0.0, 205.3901797998166, 0.0, 0.0, 0.0, 0.0, 1167.1633919672242, 0.0]
['beep', 0.0, 206.41836004476073, 0.0, 0.0, 0.0, 0.0, 1166.3587291668332, 0.0]
['beep', 0.0, 204.3843512993278, 0.0, 0.0, 0.0, 0.0, 1166.0458047444588, 0.0]
['beep', 0.0, 201.90330766478868, 0.0, 0.0, 0.0, 0.0, 1167.1633919672242, 0.0]
['beep', 0.0, 202.99854314309874, 0.0, 0.0, 0.0, 0.0, 1166.6269501002969, 0.0]
['beep', 0.0, 204.94314491071046, 0.0, 0.0, 0.0, 0.0, 1165.5987698553527, 0.0]
['beep', 0.0, 205.61369724436966, 0.0, 0.0, 0.0, 0.0, 1166.2469704445566, 0.0]
['beep', 0.0, 204.0490751324982, 0.0, 0.0, 0.0, 0.0, 1166.1575634667354, 0.0]
['beep', 0.0, 202.37269429835015, 0.0, 0.0, 0.0, 0.0, 1165.1517349662465, 0.0]
['beep', 0.0, 203.5126332655708, 0.0, 0.0, 0.0, 0.0, 1166.5151913780203, 0.0]
['beep', 0.0, 205.32312456645067, 0.0, 0.0, 0.0, 0.0, 1166.4034326557437, 0.0]
['beep', 0.0, 207.11126412287524, 0.0, 0.0, 0.0, 0.0, 1165.3976041552548, 0.0]
['beep', 0.0, 205.4348832887272, 0.0, 0.0, 0.0, 0.0, 1163.9670925101152, 0.0]
['beep', 0.0, 203.8255576879451, 0.0, 0.0, 0.0, 0.0, 1164.8388105438723, 0.0]
['beep', 0.0, 204.7196274661574, 0.0, 0.0, 0.0, 0.0, 1165.464659388621, 0.0]
['beep', 0.0, 206.73128446713503, 0.0, 0.0, 0.0, 0.0, 1164.5929413548638, 0.0]
['beep', 0.0, 208.00533390108754, 0.0, 0.0, 0.0, 0.0, 1164.7494035660511, 0.0]
['beep', 0.0, 206.19484260020766, 0.0, 0.0, 0.0, 0.0, 1164.302368676945, 0.0]
['beep', 0.0, 204.18318559923003, 0.0, 0.0, 0.0, 0.0, 1165.3752524107997, 0.0]
['beep', 0.0, 205.47958677763782, 0.0, 0.0, 0.0, 0.0, 1164.5705896104087, 0.0]
['beep', 0.0, 208.05003738999815, 0.0, 0.0, 0.0, 0.0, 1164.682348332685, 0.0]
['beep', 0.0, 208.65353449029143, 0.0, 0.0, 0.0, 0.0, 1165.5987698553527, 0.0]
['beep', 0.0, 206.9324501672328, 0.0, 0.0, 0.0, 0.0, 1164.3470721658555, 0.0]
['beep', 0.0, 204.54081351051494, 0.0, 0.0, 0.0, 0.0, 1164.2576651880343, 0.0]
['beep', 0.0, 203.93731641022163, 0.0, 0.0, 0.0, 0.0, 1165.2858454329785, 0.0]
['beep', 0.0, 204.92079316625515, 0.0, 0.0, 0.0, 0.0, 1164.7941070549616, 0.0]
['beep', 0.0, 205.34547631090598, 0.0, 0.0, 0.0, 0.0, 1165.3976041552548, 0.0]
['beep', 0.0, 204.49611002160432, 0.0, 0.0, 0.0, 0.0, 1164.2800169324896, 0.0]
['beep', 0.0, 201.9703628981546, 0.0, 0.0, 0.0, 0.0, 1164.5705896104087, 0.0]
['beep', 0.0, 203.93731641022163, 0.0, 0.0, 0.0, 0.0, 1165.3081971774336, 0.0]
['beep', 0.0, 206.6642292337691, 0.0, 0.0, 0.0, 0.0, 1164.7270518215958, 0.0]
['beep', 0.0, 208.07238913445346, 0.0, 0.0, 0.0, 0.0, 1164.7047000771404, 0.0]
['beep', 0.0, 207.89357517881098, 0.0, 0.0, 0.0, 0.0, 1165.6881768331739, 0.0]
['beep', 0.0, 205.65840073328027, 0.0, 0.0, 0.0, 0.0, 1165.9340460221822, 0.0]
['beep', 0.0, 205.23371758862945, 0.0, 0.0, 0.0, 0.0, 1165.978749511093, 0.0]
['beep', 0.0, 207.15596761178585, 0.0, 0.0, 0.0, 0.0, 1166.2246187001012, 0.0]
['beep', 0.0, 207.91592692326628, 0.0, 0.0, 0.0, 0.0, 1165.263493688523, 0.0]
['beep', 0.0, 205.65840073328027, 0.0, 0.0, 0.0, 0.0, 1164.302368676945, 0.0]
['beep', 0.0, 202.95383965418813, 0.0, 0.0, 0.0, 0.0, 1163.4530023876432, 0.0]
['beep', 0.0, 204.02672338804288, 0.0, 0.0, 0.0, 0.0, 1163.4306506431878, 0.0]
['beep', 0.0, 206.9324501672328, 0.0, 0.0, 0.0, 0.0, 1163.2518366875454, 0.0]
['beep', 0.0, 208.60883100138082, 0.0, 0.0, 0.0, 0.0, 1163.9223890212047, 0.0]
['beep', 0.0, 207.51359552307076, 0.0, 0.0, 0.0, 0.0, 1164.9952727550594, 0.0]
['beep', 0.0, 206.06073213347582, 0.0, 0.0, 0.0, 0.0, 1164.8835140327828, 0.0]
['beep', 0.0, 206.10543562238644, 0.0, 0.0, 0.0, 0.0, 1165.2187901996124, 0.0]
['beep', 0.0, 208.78764495702328, 0.0, 0.0, 0.0, 0.0, 1166.6940053336627, 0.0]
['beep', 0.0, 208.67588623474674, 0.0, 0.0, 0.0, 0.0, 1167.0069297560372, 0.0]
['beep', 0.0, 207.55829901198138, 0.0, 0.0, 0.0, 0.0, 1165.330548921889, 0.0]
['beep', 0.0, 205.90426992228865, 0.0, 0.0, 0.0, 0.0, 1165.621121599808, 0.0]
['beep', 0.0, 205.65840073328027, 0.0, 0.0, 0.0, 0.0, 1166.3363774223778, 0.0]
['beep', 0.0, 206.91009842277748, 0.0, 0.0, 0.0, 0.0, 1166.5151913780203, 0.0]
['beep', 0.0, 208.09474087890877, 0.0, 0.0, 0.0, 0.0, 1166.559894866931, 0.0]
['beep', 0.0, 206.12778736684174, 0.0, 0.0, 0.0, 0.0, 1166.269322189012, 0.0]
['beep', 0.0, 204.0490751324982, 0.0, 0.0, 0.0, 0.0, 1166.425784400199, 0.0]
['beep', 0.0, 204.80903444397862, 0.0, 0.0, 0.0, 0.0, 1166.4481361446544, 0.0]
['beep', 0.0, 206.70893272267972, 0.0, 0.0, 0.0, 0.0, 1165.3529006663443, 0.0]
['beep', 0.0, 206.77598795604564, 0.0, 0.0, 0.0, 0.0, 1165.3752524107997, 0.0]
['beep', 0.0, 205.59134549991435, 0.0, 0.0, 0.0, 0.0, 1164.9952727550594, 0.0]
['beep', 0.0, 204.58551699942555, 0.0, 0.0, 0.0, 0.0, 1164.0341477434813, 0.0]
['beep', 0.0, 205.83721468892273, 0.0, 0.0, 0.0, 0.0, 1165.3752524107997, 0.0]
['beep', 0.0, 209.59230775741432, 0.0, 0.0, 0.0, 0.0, 1166.5375431224757, 0.0]
['beep', 0.0, 211.62631650284726, 0.0, 0.0, 0.0, 0.0, 1166.8281158003947, 0.0]
['beep', 0.0, 210.1287496243417, 0.0, 0.0, 0.0, 0.0, 1166.9622262671264, 0.0]
['beep', 0.0, 208.94410716821042, 0.0, 0.0, 0.0, 0.0, 1167.4986681340538, 0.0]
['beep', 0.0, 208.69823797920205, 0.0, 0.0, 0.0, 0.0, 1169.3091594349337, 0.0]
['beep', 0.0, 209.72641822414616, 0.0, 0.0, 0.0, 0.0, 1168.8397728013722, 0.0]
['beep', 0.0, 208.00533390108754, 0.0, 0.0, 0.0, 0.0, 1168.750365823551, 0.0]
['beep', 0.0, 204.7866826995233, 0.0, 0.0, 0.0, 0.0, 1168.4821448900873, 0.0]
['beep', 0.0, 202.37269429835015, 0.0, 0.0, 0.0, 0.0, 1168.1468687232577, 0.0]
['beep', 0.0, 203.8702611768557, 0.0, 0.0, 0.0, 0.0, 1167.8562960453387, 0.0]
['beep', 0.0, 206.06073213347582, 0.0, 0.0, 0.0, 0.0, 1167.4763163895984, 0.0]
['beep', 0.0, 206.82069144495625, 0.0, 0.0, 0.0, 0.0, 1168.6609588457297, 0.0]
['beep', 0.0, 205.63604898882497, 0.0, 0.0, 0.0, 0.0, 1168.6609588457297, 0.0]
['beep', 0.0, 204.92079316625515, 0.0, 0.0, 0.0, 0.0, 1167.5210198785092, 0.0]
['beep', 0.0, 204.13848211031942, 0.0, 0.0, 0.0, 0.0, 1167.878647789794, 0.0]
['beep', 0.0, 205.7478077111015, 0.0, 0.0, 0.0, 0.0, 1168.6386071012744, 0.0]
['beep', 0.0, 206.3289530669395, 0.0, 0.0, 0.0, 0.0, 1168.5715518679085, 0.0]
['beep', 0.0, 205.0772553774423, 0.0, 0.0, 0.0, 0.0, 1167.9680547676153, 0.0]
['beep', 0.0, 204.16083385477472, 0.0, 0.0, 0.0, 0.0, 1167.722185578607, 0.0]
['beep', 0.0, 204.0937786214088, 0.0, 0.0, 0.0, 0.0, 1167.6551303452409, 0.0]
['beep', 0.0, 205.16666235526353, 0.0, 0.0, 0.0, 0.0, 1167.7892408119728, 0.0]
['beep', 0.0, 206.37365655585012, 0.0, 0.0, 0.0, 0.0, 1167.3869094117772, 0.0]
['beep', 0.0, 204.47375827714902, 0.0, 0.0, 0.0, 0.0, 1166.3810809112886, 0.0]
['beep', 0.0, 201.85860417587807, 0.0, 0.0, 0.0, 0.0, 1166.9622262671264, 0.0]
['beep', 0.0, 203.33381930992834, 0.0, 0.0, 0.0, 0.0, 1167.6551303452409, 0.0]
['beep', 0.0, 204.83138618843392, 0.0, 0.0, 0.0, 0.0, 1166.1128599778247, 0.0]
['beep', 0.0, 205.59134549991435, 0.0, 0.0, 0.0, 0.0, 1164.9505692661487, 0.0]
['beep', 0.0, 204.67492397724678, 0.0, 0.0, 0.0, 0.0, 1165.3752524107997, 0.0]
['beep', 0.0, 202.68561872072445, 0.0, 0.0, 0.0, 0.0, 1165.7999355554505, 0.0]
['beep', 0.0, 203.08795012091997, 0.0, 0.0, 0.0, 0.0, 1167.9009995342494, 0.0]
['beep', 0.0, 205.34547631090598, 0.0, 0.0, 0.0, 0.0, 1167.8339443008833, 0.0]
['beep', 0.0, 206.15013911129705, 0.0, 0.0, 0.0, 0.0, 1167.297502433956, 0.0]
['beep', 0.0, 204.63022048833616, 0.0, 0.0, 0.0, 0.0, 1166.4034326557437, 0.0]
['beep', 0.0, 202.93148790973282, 0.0, 0.0, 0.0, 0.0, 1165.911694277727, 0.0]
['beep', 0.0, 202.05976987597586, 0.0, 0.0, 0.0, 0.0, 1166.7387088225735, 0.0]
['beep', 0.0, 204.4290547882384, 0.0, 0.0, 0.0, 0.0, 1167.297502433956, 0.0]
['beep', 0.0, 204.87608967734454, 0.0, 0.0, 0.0, 0.0, 1166.0905082333695, 0.0]
['beep', 0.0, 204.54081351051494, 0.0, 0.0, 0.0, 0.0, 1165.5764181108973, 0.0]
['beep', 0.0, 202.1715285982524, 0.0, 0.0, 0.0, 0.0, 1164.7717553105063, 0.0]
['beep', 0.0, 200.6516099752915, 0.0, 0.0, 0.0, 0.0, 1165.2187901996124, 0.0]
['beep', 0.0, 202.99854314309874, 0.0, 0.0, 0.0, 0.0, 1164.9952727550594, 0.0]
['beep', 0.0, 204.18318559923003, 0.0, 0.0, 0.0, 0.0, 1164.7941070549616, 0.0]
['beep', 0.0, 203.35617105438365, 0.0, 0.0, 0.0, 0.0, 1163.94474076566, 0.0]
['beep', 0.0, 202.93148790973282, 0.0, 0.0, 0.0, 0.0, 1163.9223890212047, 0.0]
['beep', 0.0, 204.31729606596187, 0.0, 0.0, 0.0, 0.0, 1164.7717553105063, 0.0]
['beep', 0.0, 206.5971740004032, 0.0, 0.0, 0.0, 0.0, 1165.0623279884253, 0.0]
['beep', 0.0, 206.9548019116881, 0.0, 0.0, 0.0, 0.0, 1164.1012029768472, 0.0]
['beep', 0.0, 205.21136584417414, 0.0, 0.0, 0.0, 0.0, 1165.5317146219868, 0.0]
['beep', 0.0, 204.22788908814064, 0.0, 0.0, 0.0, 0.0, 1164.5035343770426, 0.0]
['beep', 0.0, 204.13848211031942, 0.0, 0.0, 0.0, 0.0, 1164.7717553105063, 0.0]
['beep', 0.0, 206.19484260020766, 0.0, 0.0, 0.0, 0.0, 1165.3752524107997, 0.0]
['beep', 0.0, 207.71476122316852, 0.0, 0.0, 0.0, 0.0, 1165.621121599808, 0.0]
['beep', 0.0, 206.44071178921604, 0.0, 0.0, 0.0, 0.0, 1164.816458799417, 0.0]
['beep', 0.0, 204.51846176605963, 0.0, 0.0, 0.0, 0.0, 1163.9670925101152, 0.0]
['beep', 0.0, 204.69727572170208, 0.0, 0.0, 0.0, 0.0, 1165.5987698553527, 0.0]
['beep', 0.0, 206.9324501672328, 0.0, 0.0, 0.0, 0.0, 1167.6774820896962, 0.0]
['beep', 0.0, 208.8547001903892, 0.0, 0.0, 0.0, 0.0, 1166.0681564889142, 0.0]
['beep', 0.0, 207.84887168990036, 0.0, 0.0, 0.0, 0.0, 1165.0846797328807, 0.0]
['beep', 0.0, 206.15013911129705, 0.0, 0.0, 0.0, 0.0, 1165.2858454329785, 0.0]
['beep', 0.0, 205.27842107754006, 0.0, 0.0, 0.0, 0.0, 1165.330548921889, 0.0]
['beep', 0.0, 207.37948505633892, 0.0, 0.0, 0.0, 0.0, 1165.9563977666376, 0.0]
['beep', 0.0, 208.96645891266573, 0.0, 0.0, 0.0, 0.0, 1166.425784400199, 0.0]
['beep', 0.0, 207.17831935624116, 0.0, 0.0, 0.0, 0.0, 1165.7328803220846, 0.0]
['beep', 0.0, 203.69144722121325, 0.0, 0.0, 0.0, 0.0, 1165.6434733442634, 0.0]
['beep', 0.0, 203.4902815211155, 0.0, 0.0, 0.0, 0.0, 1167.588075111875, 0.0]
['beep', 0.0, 205.92662166674396, 0.0, 0.0, 0.0, 0.0, 1168.3480344233556, 0.0]
['beep', 0.0, 207.15596761178585, 0.0, 0.0, 0.0, 0.0, 1167.3869094117772, 0.0]
['beep', 0.0, 205.68075247773558, 0.0, 0.0, 0.0, 0.0, 1167.1186884783135, 0.0]
['beep', 0.0, 205.30077282199537, 0.0, 0.0, 0.0, 0.0, 1166.939874522671, 0.0]
['beep', 0.0, 205.83721468892273, 0.0, 0.0, 0.0, 0.0, 1167.23044720059, 0.0]
['beep', 0.0, 207.06656063396463, 0.0, 0.0, 0.0, 0.0, 1168.5044966345426, 0.0]
['beep', 0.0, 207.91592692326628, 0.0, 0.0, 0.0, 0.0, 1167.6104268563304, 0.0]
['beep', 0.0, 206.88774667832217, 0.0, 0.0, 0.0, 0.0, 1167.23044720059, 0.0]
['beep', 0.0, 205.30077282199537, 0.0, 0.0, 0.0, 0.0, 1168.750365823551, 0.0]
['beep', 0.0, 203.37852279883896, 0.0, 0.0, 0.0, 0.0, 1168.2809791899895, 0.0]
['beep', 0.0, 203.73615071012387, 0.0, 0.0, 0.0, 0.0, 1167.297502433956, 0.0]
['beep', 0.0, 208.05003738999815, 0.0, 0.0, 0.0, 0.0, 1167.5657233674197, 0.0]
['beep', 0.0, 210.7993019580009, 0.0, 0.0, 0.0, 0.0, 1167.722185578607, 0.0]
['beep', 0.0, 208.29590657900653, 0.0, 0.0, 0.0, 0.0, 1167.6327786007857, 0.0]
['beep', 0.0, 207.11126412287524, 0.0, 0.0, 0.0, 0.0, 1168.4150896567214, 0.0]
['beep', 0.0, 208.38531355682775, 0.0, 0.0, 0.0, 0.0, 1168.683310590185, 0.0]
['beep', 0.0, 208.5194240235596, 0.0, 0.0, 0.0, 0.0, 1167.6327786007857, 0.0]
['beep', 0.0, 205.65840073328027, 0.0, 0.0, 0.0, 0.0, 1167.8115925564282, 0.0]
['beep', 0.0, 203.93731641022163, 0.0, 0.0, 0.0, 0.0, 1168.102165234347, 0.0]
['beep', 0.0, 204.3843512993278, 0.0, 0.0, 0.0, 0.0, 1167.9009995342494, 0.0]
['beep', 0.0, 206.55247051149257, 0.0, 0.0, 0.0, 0.0, 1168.7280140790956, 0.0]
['beep', 0.0, 207.6253542453473, 0.0, 0.0, 0.0, 0.0, 1168.3033309344448, 0.0]
['beep', 0.0, 205.83721468892273, 0.0, 0.0, 0.0, 0.0, 1168.0574617454365, 0.0]
['beep', 0.0, 204.65257223279147, 0.0, 0.0, 0.0, 0.0, 1168.236275701079, 0.0]
['beep', 0.0, 204.54081351051494, 0.0, 0.0, 0.0, 0.0, 1168.683310590185, 0.0]
['beep', 0.0, 205.81486294446742, 0.0, 0.0, 0.0, 0.0, 1168.4821448900873, 0.0]
['beep', 0.0, 207.06656063396463, 0.0, 0.0, 0.0, 0.0, 1168.526848378998, 0.0]
['beep', 0.0, 205.7031042221909, 0.0, 0.0, 0.0, 0.0, 1168.3703861678107, 0.0]
['beep', 0.0, 204.3843512993278, 0.0, 0.0, 0.0, 0.0, 1167.5657233674197, 0.0]
['beep', 0.0, 204.94314491071046, 0.0, 0.0, 0.0, 0.0, 1168.0574617454365, 0.0]
['beep', 0.0, 206.84304318941156, 0.0, 0.0, 0.0, 0.0, 1168.526848378998, 0.0]
['beep', 0.0, 207.49124377861546, 0.0, 0.0, 0.0, 0.0, 1168.7950693124617, 0.0]
['beep', 0.0, 207.89357517881098, 0.0, 0.0, 0.0, 0.0, 1167.6774820896962, 0.0]
['beep', 0.0, 205.61369724436966, 0.0, 0.0, 0.0, 0.0, 1167.878647789794, 0.0]
['beep', 0.0, 205.81486294446742, 0.0, 0.0, 0.0, 0.0, 1168.2586274455343, 0.0]
['beep', 0.0, 208.8770519348445, 0.0, 0.0, 0.0, 0.0, 1167.722185578607, 0.0]
['beep', 0.0, 210.97811591364336, 0.0, 0.0, 0.0, 0.0, 1167.7892408119728, 0.0]
['beep', 0.0, 209.99463915760987, 0.0, 0.0, 0.0, 0.0, 1167.8339443008833, 0.0]
['beep', 0.0, 208.43001704573837, 0.0, 0.0, 0.0, 0.0, 1166.8504675448498, 0.0]
['beep', 0.0, 208.45236879019367, 0.0, 0.0, 0.0, 0.0, 1167.0516332449477, 0.0]
['beep', 0.0, 210.68754323572438, 0.0, 0.0, 0.0, 0.0, 1168.0574617454365, 0.0]
['beep', 0.0, 211.8051304584897, 0.0, 0.0, 0.0, 0.0, 1168.5939036123639, 0.0]
['beep', 0.0, 211.00046765809867, 0.0, 0.0, 0.0, 0.0, 1168.0798134898919, 0.0]
['beep', 0.0, 208.34061006791714, 0.0, 0.0, 0.0, 0.0, 1167.9680547676153, 0.0]
['beep', 0.0, 208.40766530128306, 0.0, 0.0, 0.0, 0.0, 1168.884476290283, 0.0]
['beep', 0.0, 210.19580485770763, 0.0, 0.0, 0.0, 0.0, 1167.722185578607, 0.0]
['beep', 0.0, 211.62631650284726, 0.0, 0.0, 0.0, 0.0, 1167.297502433956, 0.0]
['beep', 0.0, 211.0675228914646, 0.0, 0.0, 0.0, 0.0, 1166.9622262671264, 0.0]
['beep', 0.0, 208.07238913445346, 0.0, 0.0, 0.0, 0.0, 1166.6045983558415, 0.0]
['beep', 0.0, 209.36879031286125, 0.0, 0.0, 0.0, 0.0, 1167.8562960453387, 0.0]
['beep', 0.0, 211.64866824730257, 0.0, 0.0, 0.0, 0.0, 1168.526848378998, 0.0]
['beep', 0.0, 211.20163335819643, 0.0, 0.0, 0.0, 0.0, 1168.4374414011768, 0.0]
['beep', 0.0, 208.8547001903892, 0.0, 0.0, 0.0, 0.0, 1168.1245169788024, 0.0]
['beep', 0.0, 206.15013911129705, 0.0, 0.0, 0.0, 0.0, 1169.0185867570146, 0.0]
['beep', 0.0, 206.15013911129705, 0.0, 0.0, 0.0, 0.0, 1170.1585257242352, 0.0]
['beep', 0.0, 208.63118274583613, 0.0, 0.0, 0.0, 0.0, 1170.9855402690816, 0.0]
['beep', 0.0, 210.7545984690903, 0.0, 0.0, 0.0, 0.0, 1170.4043949132438, 0.0]
['beep', 0.0, 209.45819729068248, 0.0, 0.0, 0.0, 0.0, 1170.6949675911628, 0.0]
['beep', 0.0, 205.7701594555568, 0.0, 0.0, 0.0, 0.0, 1170.203229213146, 0.0]
['beep', 0.0, 206.39600830030543, 0.0, 0.0, 0.0, 0.0, 1169.398566412755, 0.0]
['beep', 0.0, 207.78181645653444, 0.0, 0.0, 0.0, 0.0, 1169.2868076904783, 0.0]
['beep', 0.0, 208.96645891266573, 0.0, 0.0, 0.0, 0.0, 1169.4209181572103, 0.0]
['beep', 0.0, 207.84887168990036, 0.0, 0.0, 0.0, 0.0, 1168.3033309344448, 0.0]
['beep', 0.0, 206.6195257448585, 0.0, 0.0, 0.0, 0.0, 1168.0798134898919, 0.0]
['beep', 0.0, 205.90426992228865, 0.0, 0.0, 0.0, 0.0, 1169.0856419903805, 0.0]
['beep', 0.0, 208.05003738999815, 0.0, 0.0, 0.0, 0.0, 1169.2197524571125, 0.0]
['beep', 0.0, 209.34643856840594, 0.0, 0.0, 0.0, 0.0, 1169.6444356017632, 0.0]
['beep', 0.0, 207.58065075643668, 0.0, 0.0, 0.0, 0.0, 1169.3762146682996, 0.0]
['beep', 0.0, 204.764330955068, 0.0, 0.0, 0.0, 0.0, 1168.2586274455343, 0.0]
['beep', 0.0, 205.14431061080822, 0.0, 0.0, 0.0, 0.0, 1167.7892408119728, 0.0]
['beep', 0.0, 208.67588623474674, 0.0, 0.0, 0.0, 0.0, 1167.1633919672242, 0.0]
['beep', 0.0, 209.1676246127635, 0.0, 0.0, 0.0, 0.0, 1166.269322189012, 0.0]
['beep', 0.0, 206.55247051149257, 0.0, 0.0, 0.0, 0.0, 1166.783412311484, 0.0]
['beep', 0.0, 204.764330955068, 0.0, 0.0, 0.0, 0.0, 1167.431612900688, 0.0]
['beep', 0.0, 205.16666235526353, 0.0, 0.0, 0.0, 0.0, 1167.3869094117772, 0.0]
['beep', 0.0, 208.11709262336407, 0.0, 0.0, 0.0, 0.0, 1168.0798134898919, 0.0]
['beep', 0.0, 208.5641275124702, 0.0, 0.0, 0.0, 0.0, 1168.169220467713, 0.0]
['beep', 0.0, 206.5971740004032, 0.0, 0.0, 0.0, 0.0, 1166.783412311484, 0.0]
['beep', 0.0, 203.892612921311, 0.0, 0.0, 0.0, 0.0, 1166.917522778216, 0.0]
['beep', 0.0, 204.3843512993278, 0.0, 0.0, 0.0, 0.0, 1167.3198541784113, 0.0]
['beep', 0.0, 206.70893272267972, 0.0, 0.0, 0.0, 0.0, 1166.6269501002969, 0.0]
['beep', 0.0, 207.40183680079423, 0.0, 0.0, 0.0, 0.0, 1167.0292815004923, 0.0]
['beep', 0.0, 206.77598795604564, 0.0, 0.0, 0.0, 0.0, 1166.6493018447522, 0.0]
['beep', 0.0, 205.1219588663529, 0.0, 0.0, 0.0, 0.0, 1166.783412311484, 0.0]
['beep', 0.0, 204.60786874388086, 0.0, 0.0, 0.0, 0.0, 1168.169220467713, 0.0]
['beep', 0.0, 206.21719434466297, 0.0, 0.0, 0.0, 0.0, 1169.5997321128527, 0.0]
['beep', 0.0, 208.74294146811266, 0.0, 0.0, 0.0, 0.0, 1169.197400712657, 0.0]
['beep', 0.0, 208.4970722791043, 0.0, 0.0, 0.0, 0.0, 1168.6162553568192, 0.0]
['beep', 0.0, 206.9324501672328, 0.0, 0.0, 0.0, 0.0, 1169.0185867570146, 0.0]
['beep', 0.0, 207.3347815674283, 0.0, 0.0, 0.0, 0.0, 1168.9515315236488, 0.0]
['beep', 0.0, 209.569956012959, 0.0, 0.0, 0.0, 0.0, 1169.4209181572103, 0.0]
['beep', 0.0, 209.36879031286125, 0.0, 0.0, 0.0, 0.0, 1168.526848378998, 0.0]
['beep', 0.0, 208.45236879019367, 0.0, 0.0, 0.0, 0.0, 1168.0798134898919, 0.0]
['beep', 0.0, 206.73128446713503, 0.0, 0.0, 0.0, 0.0, 1168.0127582565258, 0.0]
['beep', 0.0, 207.04420888950932, 0.0, 0.0, 0.0, 0.0, 1169.689139090674, 0.0]
['beep', 0.0, 209.74876996860147, 0.0, 0.0, 0.0, 0.0, 1170.5161536355204, 0.0]
['beep', 0.0, 210.7545984690903, 0.0, 0.0, 0.0, 0.0, 1169.3762146682996, 0.0]
['beep', 0.0, 208.63118274583613, 0.0, 0.0, 0.0, 0.0, 1168.3033309344448, 0.0]
['beep', 0.0, 206.6195257448585, 0.0, 0.0, 0.0, 0.0, 1168.169220467713, 0.0]
['beep', 0.0, 208.07238913445346, 0.0, 0.0, 0.0, 0.0, 1169.4656216461208, 0.0]
['beep', 0.0, 210.26286009107355, 0.0, 0.0, 0.0, 0.0, 1169.912656535227, 0.0]
['beep', 0.0, 211.89453743631094, 0.0, 0.0, 0.0, 0.0, 1169.4209181572103, 0.0]
['beep', 0.0, 210.03934264652048, 0.0, 0.0, 0.0, 0.0, 1169.3762146682996, 0.0]
['beep', 0.0, 208.18414785673, 0.0, 0.0, 0.0, 0.0, 1169.8232495574057, 0.0]
['beep', 0.0, 208.8547001903892, 0.0, 0.0, 0.0, 0.0, 1169.5326768794866, 0.0]
['beep', 0.0, 211.17928161374113, 0.0, 0.0, 0.0, 0.0, 1170.2479327020565, 0.0]
['beep', 0.0, 213.41445605927183, 0.0, 0.0, 0.0, 0.0, 1168.5492001234531, 0.0]
['beep', 0.0, 212.90036593679977, 0.0, 0.0, 0.0, 0.0, 1169.1079937348359, 0.0]
['beep', 0.0, 210.86635719136683, 0.0, 0.0, 0.0, 0.0, 1170.0914704908694, 0.0]
['beep', 0.0, 211.0898746359199, 0.0, 0.0, 0.0, 0.0, 1169.6444356017632, 0.0]
['beep', 0.0, 213.83913920392266, 0.0, 0.0, 0.0, 0.0, 1171.1196507358136, 0.0]
['beep', 0.0, 214.1967671152076, 0.0, 0.0, 0.0, 0.0, 1170.6949675911628, 0.0]
['beep', 0.0, 213.48151129263775, 0.0, 0.0, 0.0, 0.0, 1169.689139090674, 0.0]
['beep', 0.0, 211.29104033601766, 0.0, 0.0, 0.0, 0.0, 1171.0972989913582, 0.0]
['beep', 0.0, 211.00046765809867, 0.0, 0.0, 0.0, 0.0, 1170.85142980235, 0.0]
['beep', 0.0, 213.19093861471876, 0.0, 0.0, 0.0, 0.0, 1171.879610047294, 0.0]
['beep', 0.0, 213.90619443728858, 0.0, 0.0, 0.0, 0.0, 1172.1925344696683, 0.0]
['beep', 0.0, 212.699200236702, 0.0, 0.0, 0.0, 0.0, 1171.6337408582856, 0.0]
['beep', 0.0, 209.92758392424392, 0.0, 0.0, 0.0, 0.0, 1171.4102234137326, 0.0]
['beep', 0.0, 209.30173507949533, 0.0, 0.0, 0.0, 0.0, 1171.6784443471963, 0.0]
['beep', 0.0, 211.87218569185563, 0.0, 0.0, 0.0, 0.0, 1173.3101216924335, 0.0]
['beep', 0.0, 213.72738048164612, 0.0, 0.0, 0.0, 0.0, 1171.9690170251151, 0.0]
['beep', 0.0, 213.25799384808468, 0.0, 0.0, 0.0, 0.0, 1172.4831071475874, 0.0]
['beep', 0.0, 212.989772914621, 0.0, 0.0, 0.0, 0.0, 1172.103127491847, 0.0]
['beep', 0.0, 214.97907817114333, 0.0, 0.0, 0.0, 0.0, 1172.8407350588723, 0.0]
['beep', 0.0, 217.84010146142262, 0.0, 0.0, 0.0, 0.0, 1174.271246704012, 0.0]
['beep', 0.0, 220.81288347397847, 0.0, 0.0, 0.0, 0.0, 1175.0312060154922, 0.0]
['beep', 0.0, 220.16468288477458, 0.0, 0.0, 0.0, 0.0, 1173.5112873925314, 0.0]
['beep', 0.0, 216.1637206272746, 0.0, 0.0, 0.0, 0.0, 1173.332473436889, 0.0]
['beep', 0.0, 214.2191188596629, 0.0, 0.0, 0.0, 0.0, 1174.6959298486627, 0.0]
['beep', 0.0, 216.20842411618523, 0.0, 0.0, 0.0, 0.0, 1174.6065228708414, 0.0]
['beep', 0.0, 216.05196190499808, 0.0, 0.0, 0.0, 0.0, 1173.6677496037184, 0.0]
['beep', 0.0, 214.71085723767965, 0.0, 0.0, 0.0, 0.0, 1173.7124530926292, 0.0]
['beep', 0.0, 213.0121246590763, 0.0, 0.0, 0.0, 0.0, 1172.9971972700594, 0.0]
['beep', 0.0, 213.50386303709305, 0.0, 0.0, 0.0, 0.0, 1172.3266449364, 0.0]
['beep', 0.0, 216.20842411618523, 0.0, 0.0, 0.0, 0.0, 1171.2761129470007, 0.0]
['beep', 0.0, 216.7895694720232, 0.0, 0.0, 0.0, 0.0, 1171.365519924822, 0.0]
['beep', 0.0, 216.90132819429974, 0.0, 0.0, 0.0, 0.0, 1171.142002480269, 0.0]
['beep', 0.0, 214.1967671152076, 0.0, 0.0, 0.0, 0.0, 1170.3149879354226, 0.0]
['beep', 0.0, 214.5990985154031, 0.0, 0.0, 0.0, 0.0, 1169.9573600241376, 0.0]
['beep', 0.0, 216.0966653939087, 0.0, 0.0, 0.0, 0.0, 1169.6444356017632, 0.0]
['beep', 0.0, 217.68363925023547, 0.0, 0.0, 0.0, 0.0, 1170.0467670019589, 0.0]
['beep', 0.0, 216.00725841608747, 0.0, 0.0, 0.0, 0.0, 1169.4432699016654, 0.0]
['beep', 0.0, 212.85566244788916, 0.0, 0.0, 0.0, 0.0, 1169.04093850147, 0.0]
['beep', 0.0, 213.3026973369953, 0.0, 0.0, 0.0, 0.0, 1169.0632902459254, 0.0]
['beep', 0.0, 215.71668573816845, 0.0, 0.0, 0.0, 0.0, 1169.0185867570146, 0.0]
['beep', 0.0, 216.87897644984443, 0.0, 0.0, 0.0, 0.0, 1169.197400712657, 0.0]
['beep', 0.0, 215.38140957133885, 0.0, 0.0, 0.0, 0.0, 1167.8339443008833, 0.0]
['beep', 0.0, 213.88384269283327, 0.0, 0.0, 0.0, 0.0, 1167.5657233674197, 0.0]
['beep', 0.0, 213.86149094837796, 0.0, 0.0, 0.0, 0.0, 1168.906828034738, 0.0]
['beep', 0.0, 216.56605202747014, 0.0, 0.0, 0.0, 0.0, 1169.1750489682017, 0.0]
['beep', 0.0, 217.39306657231649, 0.0, 0.0, 0.0, 0.0, 1168.236275701079, 0.0]
['beep', 0.0, 216.7448659831126, 0.0, 0.0, 0.0, 0.0, 1168.3703861678107, 0.0]
['beep', 0.0, 214.9120229377774, 0.0, 0.0, 0.0, 0.0, 1167.1186884783135, 0.0]
['beep', 0.0, 214.8673194488668, 0.0, 0.0, 0.0, 0.0, 1167.5433716229645, 0.0]
['beep', 0.0, 215.67198224925784, 0.0, 0.0, 0.0, 0.0, 1169.7338425795845, 0.0]
['beep', 0.0, 216.99073517212096, 0.0, 0.0, 0.0, 0.0, 1168.8621245458276, 0.0]
['beep', 0.0, 215.9178514382662, 0.0, 0.0, 0.0, 0.0, 1167.431612900688, 0.0]
['beep', 0.0, 213.3026973369953, 0.0, 0.0, 0.0, 0.0, 1168.7280140790956, 0.0]
['beep', 0.0, 213.25799384808468, 0.0, 0.0, 0.0, 0.0, 1168.526848378998, 0.0]
['beep', 0.0, 215.13554038233048, 0.0, 0.0, 0.0, 0.0, 1167.4539646451433, 0.0]
['beep', 0.0, 216.4542933051936, 0.0, 0.0, 0.0, 0.0, 1168.3480344233556, 0.0]
['beep', 0.0, 213.9508979261992, 0.0, 0.0, 0.0, 0.0, 1169.0185867570146, 0.0]
['beep', 0.0, 211.67101999175787, 0.0, 0.0, 0.0, 0.0, 1168.5044966345426, 0.0]
['beep', 0.0, 212.16275836977465, 0.0, 0.0, 0.0, 0.0, 1168.4374414011768, 0.0]
['beep', 0.0, 214.5543950264925, 0.0, 0.0, 0.0, 0.0, 1168.1245169788024, 0.0]
['beep', 0.0, 216.56605202747014, 0.0, 0.0, 0.0, 0.0, 1168.459793145632, 0.0]
['beep', 0.0, 216.36488632737237, 0.0, 0.0, 0.0, 0.0, 1167.8339443008833, 0.0]
['beep', 0.0, 214.42028455976066, 0.0, 0.0, 0.0, 0.0, 1166.6045983558415, 0.0]
['beep', 0.0, 216.00725841608747, 0.0, 0.0, 0.0, 0.0, 1166.269322189012, 0.0]
['beep', 0.0, 217.39306657231649, 0.0, 0.0, 0.0, 0.0, 1167.1633919672242, 0.0]
['beep', 0.0, 219.53883404002596, 0.0, 0.0, 0.0, 0.0, 1168.0127582565258, 0.0]
['beep', 0.0, 218.91298519527737, 0.0, 0.0, 0.0, 0.0, 1166.9622262671264, 0.0]
['beep', 0.0, 216.65545900529136, 0.0, 0.0, 0.0, 0.0, 1166.1575634667354, 0.0]
['beep', 0.0, 215.2025956156964, 0.0, 0.0, 0.0, 0.0, 1166.4481361446544, 0.0]
['beep', 0.0, 217.16954912776342, 0.0, 0.0, 0.0, 0.0, 1166.783412311484, 0.0]
['beep', 0.0, 218.44359856171593, 0.0, 0.0, 0.0, 0.0, 1165.5317146219868, 0.0]
['beep', 0.0, 216.1637206272746, 0.0, 0.0, 0.0, 0.0, 1165.6658250887185, 0.0]
['beep', 0.0, 213.6379735038249, 0.0, 0.0, 0.0, 0.0, 1166.3810809112886, 0.0]
['beep', 0.0, 212.699200236702, 0.0, 0.0, 0.0, 0.0, 1167.4092611562326, 0.0]
['beep', 0.0, 214.5767467709478, 0.0, 0.0, 0.0, 0.0, 1166.6269501002969, 0.0]
['beep', 0.0, 216.20842411618523, 0.0, 0.0, 0.0, 0.0, 1164.65999658823, 0.0]
['beep', 0.0, 215.71668573816845, 0.0, 0.0, 0.0, 0.0, 1163.9894442545706, 0.0]
['beep', 0.0, 213.10153163689753, 0.0, 0.0, 0.0, 0.0, 1165.2858454329785, 0.0]
['beep', 0.0, 213.6379735038249, 0.0, 0.0, 0.0, 0.0, 1166.0011012555483, 0.0]
['beep', 0.0, 215.8507962049003, 0.0, 0.0, 0.0, 0.0, 1166.9845780115818, 0.0]
['beep', 0.0, 216.4766450496489, 0.0, 0.0, 0.0, 0.0, 1167.0069297560372, 0.0]
['beep', 0.0, 215.00142991559864, 0.0, 0.0, 0.0, 0.0, 1167.4539646451433, 0.0]
['beep', 0.0, 212.699200236702, 0.0, 0.0, 0.0, 0.0, 1166.939874522671, 0.0]
['beep', 0.0, 211.53690952502603, 0.0, 0.0, 0.0, 0.0, 1167.0516332449477, 0.0]
['beep', 0.0, 214.30852583748413, 0.0, 0.0, 0.0, 0.0, 1167.23044720059, 0.0]
['beep', 0.0, 215.8507962049003, 0.0, 0.0, 0.0, 0.0, 1168.5044966345426, 0.0]
['beep', 0.0, 212.87801419234447, 0.0, 0.0, 0.0, 0.0, 1168.1468687232577, 0.0]
['beep', 0.0, 211.4251508027495, 0.0, 0.0, 0.0, 0.0, 1166.4704878891098, 0.0]
['beep', 0.0, 209.860528690878, 0.0, 0.0, 0.0, 0.0, 1166.1575634667354, 0.0]
['beep', 0.0, 212.56508976997017, 0.0, 0.0, 0.0, 0.0, 1165.9563977666376, 0.0]
['beep', 0.0, 214.39793281530535, 0.0, 0.0, 0.0, 0.0, 1167.0516332449477, 0.0]
['beep', 0.0, 213.6603252482802, 0.0, 0.0, 0.0, 0.0, 1165.6658250887185, 0.0]
['beep', 0.0, 211.60396475839195, 0.0, 0.0, 0.0, 0.0, 1164.7270518215958, 0.0]
['beep', 0.0, 211.96159266967686, 0.0, 0.0, 0.0, 0.0, 1165.1293832217912, 0.0]
['beep', 0.0, 213.41445605927183, 0.0, 0.0, 0.0, 0.0, 1165.464659388621, 0.0]
['beep', 0.0, 215.247299104607, 0.0, 0.0, 0.0, 0.0, 1164.65999658823, 0.0]
['beep', 0.0, 213.6379735038249, 0.0, 0.0, 0.0, 0.0, 1164.8835140327828, 0.0]
['beep', 0.0, 211.17928161374113, 0.0, 0.0, 0.0, 0.0, 1165.6881768331739, 0.0]
['beep', 0.0, 210.50872928008192, 0.0, 0.0, 0.0, 0.0, 1165.0846797328807, 0.0]
['beep', 0.0, 213.86149094837796, 0.0, 0.0, 0.0, 0.0, 1163.94474076566, 0.0]
['beep', 0.0, 216.27547934955115, 0.0, 0.0, 0.0, 0.0, 1165.6434733442634, 0.0]
['beep', 0.0, 216.34253458291707, 0.0, 0.0, 0.0, 0.0, 1164.65999658823, 0.0]
['beep', 0.0, 212.6544967477914, 0.0, 0.0, 0.0, 0.0, 1165.03997624397, 0.0]
['beep', 0.0, 211.87218569185563, 0.0, 0.0, 0.0, 0.0, 1166.2022669556459, 0.0]
['beep', 0.0, 215.31435433797293, 0.0, 0.0, 0.0, 0.0, 1166.4704878891098, 0.0]
['beep', 0.0, 216.94603168321035, 0.0, 0.0, 0.0, 0.0, 1164.9505692661487, 0.0]
['beep', 0.0, 214.5320432820372, 0.0, 0.0, 0.0, 0.0, 1163.2741884320008, 0.0]
['beep', 0.0, 212.0286479030428, 0.0, 0.0, 0.0, 0.0, 1163.9894442545706, 0.0]
['beep', 0.0, 211.0898746359199, 0.0, 0.0, 0.0, 0.0, 1166.4481361446544, 0.0]
['beep', 0.0, 214.71085723767965, 0.0, 0.0, 0.0, 0.0, 1167.5433716229645, 0.0]
['beep', 0.0, 216.4319415607383, 0.0, 0.0, 0.0, 0.0, 1167.4763163895984, 0.0]
['beep', 0.0, 214.66615374876903, 0.0, 0.0, 0.0, 0.0, 1167.1633919672242, 0.0]
['beep', 0.0, 212.3639240698724, 0.0, 0.0, 0.0, 0.0, 1166.4481361446544, 0.0]
['beep', 0.0, 213.92854618174388, 0.0, 0.0, 0.0, 0.0, 1166.4481361446544, 0.0]
['beep', 0.0, 214.5543950264925, 0.0, 0.0, 0.0, 0.0, 1166.9622262671264, 0.0]
['beep', 0.0, 216.36488632737237, 0.0, 0.0, 0.0, 0.0, 1166.3810809112886, 0.0]
['beep', 0.0, 214.71085723767965, 0.0, 0.0, 0.0, 0.0, 1166.939874522671, 0.0]
['beep', 0.0, 213.36975257036121, 0.0, 0.0, 0.0, 0.0, 1166.1128599778247, 0.0]
['beep', 0.0, 215.78374097153437, 0.0, 0.0, 0.0, 0.0, 1165.5540663664422, 0.0]
['beep', 0.0, 213.88384269283327, 0.0, 0.0, 0.0, 0.0, 1166.0458047444588, 0.0]
['beep', 0.0, 213.19093861471876, 0.0, 0.0, 0.0, 0.0, 1165.6658250887185, 0.0]
['beep', 0.0, 212.40862755878302, 0.0, 0.0, 0.0, 0.0, 1165.487011133076, 0.0]
['beep', 0.0, 211.51455778057073, 0.0, 0.0, 0.0, 0.0, 1164.168258210213, 0.0]
['beep', 0.0, 210.97811591364336, 0.0, 0.0, 0.0, 0.0, 1163.8329820433835, 0.0]
['beep', 0.0, 212.52038628105956, 0.0, 0.0, 0.0, 0.0, 1165.0623279884253, 0.0]
['beep', 0.0, 215.5155200380707, 0.0, 0.0, 0.0, 0.0, 1164.9058657772382, 0.0]
['beep', 0.0, 215.78374097153437, 0.0, 0.0, 0.0, 0.0, 1164.5482378659533, 0.0]
['beep', 0.0, 210.84400544691152, 0.0, 0.0, 0.0, 0.0, 1165.6658250887185, 0.0]
['beep', 0.0, 212.6321450033361, 0.0, 0.0, 0.0, 0.0, 1164.5482378659533, 0.0]
['beep', 0.0, 215.09083689341986, 0.0, 0.0, 0.0, 0.0, 1163.4306506431878, 0.0]
['beep', 0.0, 217.05779040548688, 0.0, 0.0, 0.0, 0.0, 1161.8883802757716, 0.0]
['beep', 0.0, 215.11318863787517, 0.0, 0.0, 0.0, 0.0, 1162.044842486959, 0.0]
['beep', 0.0, 212.18511011422996, 0.0, 0.0, 0.0, 0.0, 1162.8718570318053, 0.0]
['beep', 0.0, 212.72155198115732, 0.0, 0.0, 0.0, 0.0, 1164.235313443579, 0.0]
['beep', 0.0, 213.3250490814506, 0.0, 0.0, 0.0, 0.0, 1165.3976041552548, 0.0]
['beep', 0.0, 215.33670608242824, 0.0, 0.0, 0.0, 0.0, 1163.6988715766515, 0.0]
['beep', 0.0, 212.3415723254171, 0.0, 0.0, 0.0, 0.0, 1163.0506709874478, 0.0]
['beep', 0.0, 208.5417757680149, 0.0, 0.0, 0.0, 0.0, 1162.8271535428946, 0.0]
['beep', 0.0, 208.07238913445346, 0.0, 0.0, 0.0, 0.0, 1162.4471738871543, 0.0]
['beep', 0.0, 211.62631650284726, 0.0, 0.0, 0.0, 0.0, 1161.75426980904, 0.0]
['beep', 0.0, 213.74973222610143, 0.0, 0.0, 0.0, 0.0, 1162.0224907425036, 0.0]
['beep', 0.0, 214.80026421550087, 0.0, 0.0, 0.0, 0.0, 1161.1954761976572, 0.0]
['beep', 0.0, 215.09083689341986, 0.0, 0.0, 0.0, 0.0, 1159.6755575746963, 0.0]
['beep', 0.0, 214.8673194488668, 0.0, 0.0, 0.0, 0.0, 1161.5307523644867, 0.0]
['beep', 0.0, 216.7895694720232, 0.0, 0.0, 0.0, 0.0, 1163.6094645988303, 0.0]
['beep', 0.0, 219.06944740646452, 0.0, 0.0, 0.0, 0.0, 1163.2294849430903, 0.0]
['beep', 0.0, 217.01308691657627, 0.0, 0.0, 0.0, 0.0, 1162.5142291205204, 0.0]
['beep', 0.0, 213.3474008259059, 0.0, 0.0, 0.0, 0.0, 1161.910732020227, 0.0]
['beep', 0.0, 211.60396475839195, 0.0, 0.0, 0.0, 0.0, 1162.7600983095288, 0.0]
['beep', 0.0, 215.49316829361538, 0.0, 0.0, 0.0, 0.0, 1164.4364791436767, 0.0]
['beep', 0.0, 216.7895694720232, 0.0, 0.0, 0.0, 0.0, 1162.491877376065, 0.0]
['beep', 0.0, 212.2968688365065, 0.0, 0.0, 0.0, 0.0, 1162.8271535428946, 0.0]
['beep', 0.0, 209.97228741315453, 0.0, 0.0, 0.0, 0.0, 1163.3188919209115, 0.0]
['beep', 0.0, 209.45819729068248, 0.0, 0.0, 0.0, 0.0, 1163.2965401764561, 0.0]
['beep', 0.0, 212.56508976997017, 0.0, 0.0, 0.0, 0.0, 1165.7105285776292, 0.0]
['beep', 0.0, 216.34253458291707, 0.0, 0.0, 0.0, 0.0, 1164.5035343770426, 0.0]
['beep', 0.0, 215.94020318272152, 0.0, 0.0, 0.0, 0.0, 1164.6376448437745, 0.0]
['beep', 0.0, 213.39210431481652, 0.0, 0.0, 0.0, 0.0, 1164.9505692661487, 0.0]
['beep', 0.0, 212.9674211701657, 0.0, 0.0, 0.0, 0.0, 1164.5929413548638, 0.0]
['beep', 0.0, 213.14623512580815, 0.0, 0.0, 0.0, 0.0, 1164.5035343770426, 0.0]
['beep', 0.0, 212.74390372561263, 0.0, 0.0, 0.0, 0.0, 1163.207133198635, 0.0]
['beep', 0.0, 211.7157234806685, 0.0, 0.0, 0.0, 0.0, 1163.497705876554, 0.0]
['beep', 0.0, 212.52038628105956, 0.0, 0.0, 0.0, 0.0, 1162.8048017984393, 0.0]
['beep', 0.0, 211.20163335819643, 0.0, 0.0, 0.0, 0.0, 1164.1235547213025, 0.0]
['beep', 0.0, 212.81095895897855, 0.0, 0.0, 0.0, 0.0, 1165.7328803220846, 0.0]
['beep', 0.0, 213.92854618174388, 0.0, 0.0, 0.0, 0.0, 1165.3752524107997, 0.0]
['beep', 0.0, 213.19093861471876, 0.0, 0.0, 0.0, 0.0, 1164.4141273992213, 0.0]
['beep', 0.0, 212.09570313640873, 0.0, 0.0, 0.0, 0.0, 1164.2129616991238, 0.0]
['beep', 0.0, 211.4027990582942, 0.0, 0.0, 0.0, 0.0, 1164.65999658823, 0.0]
['beep', 0.0, 212.6321450033361, 0.0, 0.0, 0.0, 0.0, 1165.2187901996124, 0.0]
['beep', 0.0, 216.00725841608747, 0.0, 0.0, 0.0, 0.0, 1164.7270518215958, 0.0]
['beep', 0.0, 216.4319415607383, 0.0, 0.0, 0.0, 0.0, 1163.6318163432857, 0.0]
['beep', 0.0, 214.33087758193943, 0.0, 0.0, 0.0, 0.0, 1164.5035343770426, 0.0]
['beep', 0.0, 214.08500839293106, 0.0, 0.0, 0.0, 0.0, 1163.6988715766515, 0.0]
['beep', 0.0, 216.58840377192544, 0.0, 0.0, 0.0, 0.0, 1162.9612640096266, 0.0]
['beep', 0.0, 218.24243286161817, 0.0, 0.0, 0.0, 0.0, 1161.5978075978528, 0.0]
['beep', 0.0, 217.05779040548688, 0.0, 0.0, 0.0, 0.0, 1161.9777872535929, 0.0]
['beep', 0.0, 216.05196190499808, 0.0, 0.0, 0.0, 0.0, 1161.75426980904, 0.0]
['beep', 0.0, 214.97907817114333, 0.0, 0.0, 0.0, 0.0, 1162.4695256316097, 0.0]
['beep', 0.0, 216.4766450496489, 0.0, 0.0, 0.0, 0.0, 1164.65999658823, 0.0]
['beep', 0.0, 219.9411654402215, 0.0, 0.0, 0.0, 0.0, 1165.4199558997102, 0.0]
['beep', 0.0, 218.91298519527737, 0.0, 0.0, 0.0, 0.0, 1165.2858454329785, 0.0]
['beep', 0.0, 215.29200259351762, 0.0, 0.0, 0.0, 0.0, 1165.1964384551572, 0.0]
['beep', 0.0, 214.8673194488668, 0.0, 0.0, 0.0, 0.0, 1164.9282175216936, 0.0]
['beep', 0.0, 217.05779040548688, 0.0, 0.0, 0.0, 0.0, 1164.8835140327828, 0.0]
['beep', 0.0, 216.67781074974667, 0.0, 0.0, 0.0, 0.0, 1165.8222872999058, 0.0]
['beep', 0.0, 215.94020318272152, 0.0, 0.0, 0.0, 0.0, 1165.1293832217912, 0.0]
['beep', 0.0, 215.98490667163216, 0.0, 0.0, 0.0, 0.0, 1163.6988715766515, 0.0]
['beep', 0.0, 215.76138922707906, 0.0, 0.0, 0.0, 0.0, 1165.9340460221822, 0.0]
['beep', 0.0, 215.60492701589192, 0.0, 0.0, 0.0, 0.0, 1165.9563977666376, 0.0]
['beep', 0.0, 216.4319415607383, 0.0, 0.0, 0.0, 0.0, 1165.3976041552548, 0.0]
['beep', 0.0, 215.64963050480253, 0.0, 0.0, 0.0, 0.0, 1165.5540663664422, 0.0]
['beep', 0.0, 214.62145025985842, 0.0, 0.0, 0.0, 0.0, 1165.1964384551572, 0.0]
['beep', 0.0, 211.53690952502603, 0.0, 0.0, 0.0, 0.0, 1165.621121599808, 0.0]
['beep', 0.0, 213.25799384808468, 0.0, 0.0, 0.0, 0.0, 1165.6658250887185, 0.0]
['beep', 0.0, 214.77791247104557, 0.0, 0.0, 0.0, 0.0, 1165.1517349662465, 0.0]
['beep', 0.0, 213.10153163689753, 0.0, 0.0, 0.0, 0.0, 1164.7270518215958, 0.0]
['beep', 0.0, 212.05099964749812, 0.0, 0.0, 0.0, 0.0, 1165.2858454329785, 0.0]
['beep', 0.0, 214.42028455976066, 0.0, 0.0, 0.0, 0.0, 1166.291673933467, 0.0]
['beep', 0.0, 226.9372614547326, 0.0, 0.0, 0.0, 0.0, 1171.0972989913582, 0.0]
['beep', 0.0, 226.35611609889463, 0.0, 0.0, 0.0, 0.0, 1171.0302437579924, 0.0]
['beep', 0.0, 226.11024690988626, 0.0, 0.0, 0.0, 0.0, 1169.9573600241376, 0.0]
['beep', 0.0, 230.62529928985828, 0.0, 0.0, 0.0, 0.0, 1165.978749511093, 0.0]
['beep', 0.0, 220.47760730714887, 0.0, 0.0, 0.0, 0.0, 1175.4782409045984, 0.0]
['beep', 0.0, 216.38723807182768, 0.0, 0.0, 0.0, 0.0, 1178.428671172699, 0.0]
['beep', 0.0, 230.021802189565, 0.0, 0.0, 0.0, 0.0, 1174.0924327483694, 0.0]
['beep', 0.0, 229.1724359002633, 0.0, 0.0, 0.0, 0.0, 1177.9816362835927, 0.0]
['beep', 0.0, 222.69043000822427, 0.0, 0.0, 0.0, 0.0, 1176.5734763829084, 0.0]
['beep', 0.0, 221.46108406318237, 0.0, 0.0, 0.0, 0.0, 1172.8630868033274, 0.0]
['beep', 0.0, 223.51744455307062, 0.0, 0.0, 0.0, 0.0, 1176.8416973163721, 0.0]
['beep', 0.0, 226.69139226572423, 0.0, 0.0, 0.0, 0.0, 1175.6570548602408, 0.0]
['beep', 0.0, 225.61850853186948, 0.0, 0.0, 0.0, 0.0, 1175.9476275381598, 0.0]
['beep', 0.0, 217.4601218056824, 0.0, 0.0, 0.0, 0.0, 1177.5793048833973, 0.0]
['beep', 0.0, 220.36584858487234, 0.0, 0.0, 0.0, 0.0, 1179.814479328928, 0.0]
['beep', 0.0, 225.99848818760972, 0.0, 0.0, 0.0, 0.0, 1177.6463601167632, 0.0]
['beep', 0.0, 221.05875266298685, 0.0, 0.0, 0.0, 0.0, 1176.1264414938023, 0.0]
['beep', 0.0, 221.70695325219074, 0.0, 0.0, 0.0, 0.0, 1178.6968921061627, 0.0]
['beep', 0.0, 216.32018283846176, 0.0, 0.0, 0.0, 0.0, 1180.8203078294168, 0.0]
['beep', 0.0, 220.74582824061255, 0.0, 0.0, 0.0, 0.0, 1182.8990200637604, 0.0]
['beep', 0.0, 221.84106371892258, 0.0, 0.0, 0.0, 0.0, 1183.2566479750453, 0.0]
['beep', 0.0, 223.96447944217678, 0.0, 0.0, 0.0, 0.0, 1181.6473223742632, 0.0]
['beep', 0.0, 218.51065379508185, 0.0, 0.0, 0.0, 0.0, 1184.8212700869167, 0.0]
['beep', 0.0, 222.66807826376896, 0.0, 0.0, 0.0, 0.0, 1181.8037845854503, 0.0]
['beep', 0.0, 221.79636023001197, 0.0, 0.0, 0.0, 0.0, 1180.0603485179363, 0.0]
['beep', 0.0, 225.21617713167396, 0.0, 0.0, 0.0, 0.0, 1181.4685084186208, 0.0]
['beep', 0.0, 224.23270037564046, 0.0, 0.0, 0.0, 0.0, 1180.5073834070424, 0.0]
['beep', 0.0, 218.89063345082207, 0.0, 0.0, 0.0, 0.0, 1185.201249742657, 0.0]
['beep', 0.0, 221.8634154633779, 0.0, 0.0, 0.0, 0.0, 1184.8212700869167, 0.0]
['beep', 0.0, 224.41151433128292, 0.0, 0.0, 0.0, 0.0, 1185.9388573096821, 0.0]
['beep', 0.0, 223.69625850871307, 0.0, 0.0, 0.0, 0.0, 1184.7542148535508, 0.0]
['beep', 0.0, 226.17730214325218, 0.0, 0.0, 0.0, 0.0, 1183.8601450753386, 0.0]
['beep', 0.0, 228.74775275561248, 0.0, 0.0, 0.0, 0.0, 1184.1507177532576, 0.0]
['beep', 0.0, 222.06458116347568, 0.0, 0.0, 0.0, 0.0, 1180.9320665516934, 0.0]
['beep', 0.0, 224.59032828692537, 0.0, 0.0, 0.0, 0.0, 1181.6249706298079, 0.0]
['beep', 0.0, 225.0373631760315, 0.0, 0.0, 0.0, 0.0, 1183.2119444861346, 0.0]
['beep', 0.0, 219.78470322903433, 0.0, 0.0, 0.0, 0.0, 1184.4859939200871, 0.0]
['beep', 0.0, 219.11415089537513, 0.0, 0.0, 0.0, 0.0, 1187.7940520994725, 0.0]
['beep', 0.0, 224.7020870092019, 0.0, 0.0, 0.0, 0.0, 1185.1118427648357, 0.0]
['beep', 0.0, 230.42413358976052, 0.0, 0.0, 0.0, 0.0, 1181.7367293520845, 0.0]
['beep', 0.0, 228.97127020016555, 0.0, 0.0, 0.0, 0.0, 1183.6589793752407, 0.0]
['beep', 0.0, 223.8080172309896, 0.0, 0.0, 0.0, 0.0, 1186.944685810171, 0.0]
['beep', 0.0, 219.78470322903433, 0.0, 0.0, 0.0, 0.0, 1184.4859939200871, 0.0]
['beep', 0.0, 225.84202597642255, 0.0, 0.0, 0.0, 0.0, 1188.2857904774894, 0.0]
['beep', 0.0, 229.91004346728846, 0.0, 0.0, 0.0, 0.0, 1184.4412904311766, 0.0]
['beep', 0.0, 227.29488936601751, 0.0, 0.0, 0.0, 0.0, 1185.201249742657, 0.0]
['beep', 0.0, 220.34349684041703, 0.0, 0.0, 0.0, 0.0, 1188.755177111051, 0.0]
['beep', 0.0, 222.93629919723264, 0.0, 0.0, 0.0, 0.0, 1187.2799619770005, 0.0]
['beep', 0.0, 221.8857672078332, 0.0, 0.0, 0.0, 0.0, 1190.006874800548, 0.0]
['beep', 0.0, 230.7370580121348, 0.0, 0.0, 0.0, 0.0, 1188.9339910666934, 0.0]
['beep', 0.0, 226.9372614547326, 0.0, 0.0, 0.0, 0.0, 1188.8669358333273, 0.0]
['beep', 0.0, 222.95865094168795, 0.0, 0.0, 0.0, 0.0, 1189.135156766791, 0.0]
['beep', 0.0, 221.30462185199522, 0.0, 0.0, 0.0, 0.0, 1193.5831539133972, 0.0]
['beep', 0.0, 230.91587196777726, 0.0, 0.0, 0.0, 0.0, 1193.1584707687464, 0.0]
['beep', 0.0, 224.9926596871209, 0.0, 0.0, 0.0, 0.0, 1193.8290231024055, 0.0]
['beep', 0.0, 223.65155501980246, 0.0, 0.0, 0.0, 0.0, 1189.3810259557995, 0.0]
['beep', 0.0, 228.41247658878288, 0.0, 0.0, 0.0, 0.0, 1192.622028901819, 0.0]
['beep', 0.0, 221.93047069674384, 0.0, 0.0, 0.0, 0.0, 1200.132215038802, 0.0]
['beep', 0.0, 223.4280375752494, 0.0, 0.0, 0.0, 0.0, 1195.4383487031876, 0.0]
['beep', 0.0, 220.41055207378295, 0.0, 0.0, 0.0, 0.0, 1192.5996771573637, 0.0]
['beep', 0.0, 224.7244387536572, 0.0, 0.0, 0.0, 0.0, 1195.3042382364558, 0.0]
['beep', 0.0, 222.73513349713488, 0.0, 0.0, 0.0, 0.0, 1195.0583690474475, 0.0]
['beep', 0.0, 224.47856956464884, 0.0, 0.0, 0.0, 0.0, 1191.7726626125173, 0.0]
['beep', 0.0, 224.053886419998, 0.0, 0.0, 0.0, 0.0, 1192.7561393685507, 0.0]
['beep', 0.0, 227.16077889928567, 0.0, 0.0, 0.0, 0.0, 1192.7337876240954, 0.0]
['beep', 0.0, 224.3891625868276, 0.0, 0.0, 0.0, 0.0, 1191.5938486568748, 0.0]
['beep', 0.0, 225.84202597642255, 0.0, 0.0, 0.0, 0.0, 1193.6725608912184, 0.0]
['beep', 0.0, 223.51744455307062, 0.0, 0.0, 0.0, 0.0, 1193.4490434466652, 0.0]
['beep', 0.0, 223.24922361960694, 0.0, 0.0, 0.0, 0.0, 1197.226488259612, 0.0]
['beep', 0.0, 226.6243370323583, 0.0, 0.0, 0.0, 0.0, 1194.6113341583414, 0.0]
['beep', 0.0, 229.66417427828006, 0.0, 0.0, 0.0, 0.0, 1189.8727643338161, 0.0]
['beep', 0.0, 231.80994174598953, 0.0, 0.0, 0.0, 0.0, 1196.399473714766, 0.0]
['beep', 0.0, 222.37750558584997, 0.0, 0.0, 0.0, 0.0, 1198.4558342046541, 0.0]
['beep', 0.0, 221.17051138526338, 0.0, 0.0, 0.0, 0.0, 1197.4053022152546, 0.0]
['beep', 0.0, 226.40081958780524, 0.0, 0.0, 0.0, 0.0, 1195.6618661477407, 0.0]
['beep', 0.0, 227.2278341326516, 0.0, 0.0, 0.0, 0.0, 1193.0467120464698, 0.0]
['beep', 0.0, 220.67877300724663, 0.0, 0.0, 0.0, 0.0, 1189.202212000157, 0.0]
['beep', 0.0, 222.01987767456507, 0.0, 0.0, 0.0, 0.0, 1195.751273125562, 0.0]
['beep', 0.0, 222.7574852415902, 0.0, 0.0, 0.0, 0.0, 1201.786244128495, 0.0]
['beep', 0.0, 231.60877604589177, 0.0, 0.0, 0.0, 0.0, 1196.3324184813998, 0.0]
['beep', 0.0, 228.99362194462086, 0.0, 0.0, 0.0, 0.0, 1188.1963834996682, 0.0]
['beep', 0.0, 223.47274106416, 0.0, 0.0, 0.0, 0.0, 1193.3819882132993, 0.0]
['beep', 0.0, 224.63503177583598, 0.0, 0.0, 0.0, 0.0, 1193.6725608912184, 0.0]
['beep', 0.0, 220.70112475170194, 0.0, 0.0, 0.0, 0.0, 1196.8018051149613, 0.0]
['beep', 0.0, 224.76914224256782, 0.0, 0.0, 0.0, 0.0, 1198.5899446713859, 0.0]
['beep', 0.0, 219.3376683399282, 0.0, 0.0, 0.0, 0.0, 1197.2935434929782, 0.0]
['beep', 0.0, 221.37167708536114, 0.0, 0.0, 0.0, 0.0, 1194.432520202699, 0.0]
['beep', 0.0, 221.8634154633779, 0.0, 0.0, 0.0, 0.0, 1194.8348516028943, 0.0]
['beep', 0.0, 221.41638057427176, 0.0, 0.0, 0.0, 0.0, 1202.6579621622518, 0.0]
['beep', 0.0, 221.2375666186293, 0.0, 0.0, 0.0, 0.0, 1201.7191888951288, 0.0]
['beep', 0.0, 225.48439806513764, 0.0, 0.0, 0.0, 0.0, 1198.1429097822797, 0.0]
['beep', 0.0, 217.66128750578017, 0.0, 0.0, 0.0, 0.0, 1200.3780842278104, 0.0]
['beep', 0.0, 224.6573835202913, 0.0, 0.0, 0.0, 0.0, 1196.555935925953, 0.0]
['beep', 0.0, 221.37167708536114, 0.0, 0.0, 0.0, 0.0, 1203.104997051358, 0.0]
['beep', 0.0, 222.53396779703712, 0.0, 0.0, 0.0, 0.0, 1203.3061627514558, 0.0]
['beep', 0.0, 216.7895694720232, 0.0, 0.0, 0.0, 0.0, 1202.52385169552, 0.0]
['beep', 0.0, 215.71668573816845, 0.0, 0.0, 0.0, 0.0, 1205.0943023078803, 0.0]
['beep', 0.0, 220.45525556269357, 0.0, 0.0, 0.0, 0.0, 1197.6288196598077, 0.0]
['beep', 0.0, 221.75165674110136, 0.0, 0.0, 0.0, 0.0, 1201.4956714505759, 0.0]
['beep', 0.0, 222.53396779703712, 0.0, 0.0, 0.0, 0.0, 1203.0602935624474, 0.0]
['beep', 0.0, 221.5281392965483, 0.0, 0.0, 0.0, 0.0, 1203.1497005402687, 0.0]
['beep', 0.0, 219.91881369576618, 0.0, 0.0, 0.0, 0.0, 1202.5462034399752, 0.0]
['beep', 0.0, 219.40472357329412, 0.0, 0.0, 0.0, 0.0, 1196.0641975479361, 0.0]
['beep', 0.0, 226.42317133226055, 0.0, 0.0, 0.0, 0.0, 1198.5005376935646, 0.0]
['beep', 0.0, 223.22687187515163, 0.0, 0.0, 0.0, 0.0, 1205.8989651082713, 0.0]
['beep', 0.0, 224.0315346755427, 0.0, 0.0, 0.0, 0.0, 1202.5014999510647, 0.0]
['beep', 0.0, 219.3376683399282, 0.0, 0.0, 0.0, 0.0, 1202.881479606805, 0.0]
['beep', 0.0, 213.92854618174388, 0.0, 0.0, 0.0, 0.0, 1198.7687586270283, 0.0]
['beep', 0.0, 218.24243286161817, 0.0, 0.0, 0.0, 0.0, 1197.0029708150591, 0.0]
['beep', 0.0, 221.48343580763768, 0.0, 0.0, 0.0, 0.0, 1195.7736248700173, 0.0]
['beep', 0.0, 225.9537846986991, 0.0, 0.0, 0.0, 0.0, 1199.819290616428, 0.0]
['beep', 0.0, 218.60006077290308, 0.0, 0.0, 0.0, 0.0, 1201.8532993618608, 0.0]
['beep', 0.0, 207.78181645653444, 0.0, 0.0, 0.0, 0.0, 1200.8251191169165, 0.0]
['beep', 0.0, 212.56508976997017, 0.0, 0.0, 0.0, 0.0, 1197.8970405932714, 0.0]
['beep', 0.0, 219.56118578448127, 0.0, 0.0, 0.0, 0.0, 1199.5957731718747, 0.0]
['beep', 0.0, 221.70695325219074, 0.0, 0.0, 0.0, 0.0, 1198.3440754823775, 0.0]
['beep', 0.0, 223.4950928086153, 0.0, 0.0, 0.0, 0.0, 1194.231354502601, 0.0]
['beep', 0.0, 216.7895694720232, 0.0, 0.0, 0.0, 0.0, 1199.61812491633, 0.0]
['beep', 0.0, 214.66615374876903, 0.0, 0.0, 0.0, 0.0, 1197.8970405932714, 0.0]
['beep', 0.0, 219.49413055111535, 0.0, 0.0, 0.0, 0.0, 1200.1545667832575, 0.0]
['beep', 0.0, 222.04222941902037, 0.0, 0.0, 0.0, 0.0, 1201.652133661763, 0.0]
['beep', 0.0, 217.90715669478854, 0.0, 0.0, 0.0, 0.0, 1196.3547702258552, 0.0]
['beep', 0.0, 216.54370028301483, 0.0, 0.0, 0.0, 0.0, 1198.1429097822797, 0.0]
['beep', 0.0, 219.60588927339188, 0.0, 0.0, 0.0, 0.0, 1198.0982062933692, 0.0]
['beep', 0.0, 216.52134853855952, 0.0, 0.0, 0.0, 0.0, 1197.8523371043607, 0.0]
['beep', 0.0, 214.75556072659026, 0.0, 0.0, 0.0, 0.0, 1198.366427226833, 0.0]
['beep', 0.0, 211.29104033601766, 0.0, 0.0, 0.0, 0.0, 1198.3887789712883, 0.0]
['beep', 0.0, 213.6379735038249, 0.0, 0.0, 0.0, 0.0, 1198.366427226833, 0.0]
['beep', 0.0, 213.23564210362937, 0.0, 0.0, 0.0, 0.0, 1200.9368778391931, 0.0]
['beep', 0.0, 217.90715669478854, 0.0, 0.0, 0.0, 0.0, 1201.3839127282993, 0.0]
['beep', 0.0, 216.94603168321035, 0.0, 0.0, 0.0, 0.0, 1199.975752827615, 0.0]
['beep', 0.0, 214.5990985154031, 0.0, 0.0, 0.0, 0.0, 1198.9475725826708, 0.0]
['beep', 0.0, 211.38044731383889, 0.0, 0.0, 0.0, 0.0, 1200.1545667832575, 0.0]
['beep', 0.0, 208.63118274583613, 0.0, 0.0, 0.0, 0.0, 1199.5734214274194, 0.0]
['beep', 0.0, 213.70502873719082, 0.0, 0.0, 0.0, 0.0, 1198.0535028044585, 0.0]
['beep', 0.0, 218.53300553953716, 0.0, 0.0, 0.0, 0.0, 1195.6618661477407, 0.0]
['beep', 0.0, 214.66615374876903, 0.0, 0.0, 0.0, 0.0, 1195.0807207919026, 0.0]
['beep', 0.0, 213.10153163689753, 0.0, 0.0, 0.0, 0.0, 1195.8183283589278, 0.0]
['beep', 0.0, 210.26286009107355, 0.0, 0.0, 0.0, 0.0, 1197.0029708150591, 0.0]
['beep', 0.0, 215.33670608242824, 0.0, 0.0, 0.0, 0.0, 1195.0807207919026, 0.0]
['beep', 0.0, 215.537871782526, 0.0, 0.0, 0.0, 0.0, 1192.9349533241932, 0.0]
['beep', 0.0, 210.7769502135456, 0.0, 0.0, 0.0, 0.0, 1192.8231946019166, 0.0]
['beep', 0.0, 210.19580485770763, 0.0, 0.0, 0.0, 0.0, 1192.6890841351849, 0.0]
['beep', 0.0, 213.0344764035316, 0.0, 0.0, 0.0, 0.0, 1194.0748922914138, 0.0]
['beep', 0.0, 212.3639240698724, 0.0, 0.0, 0.0, 0.0, 1194.946610325171, 0.0]
['beep', 0.0, 212.0062961585875, 0.0, 0.0, 0.0, 0.0, 1194.745444625073, 0.0]
['beep', 0.0, 213.10153163689753, 0.0, 0.0, 0.0, 0.0, 1193.4490434466652, 0.0]
['beep', 0.0, 213.48151129263775, 0.0, 0.0, 0.0, 0.0, 1191.9291248237043, 0.0]
['beep', 0.0, 213.39210431481652, 0.0, 0.0, 0.0, 0.0, 1192.0855870348917, 0.0]
['beep', 0.0, 215.26965084906232, 0.0, 0.0, 0.0, 0.0, 1192.845546346372, 0.0]
['beep', 0.0, 215.69433399371314, 0.0, 0.0, 0.0, 0.0, 1192.4432149461766, 0.0]
['beep', 0.0, 213.14623512580815, 0.0, 0.0, 0.0, 0.0, 1191.6162004013302, 0.0]
['beep', 0.0, 210.3969705578054, 0.0, 0.0, 0.0, 0.0, 1190.655075389752, 0.0]
['beep', 0.0, 211.60396475839195, 0.0, 0.0, 0.0, 0.0, 1188.7998805999614, 0.0]
['beep', 0.0, 215.94020318272152, 0.0, 0.0, 0.0, 0.0, 1188.0622730329362, 0.0]
['beep', 0.0, 214.64380200431373, 0.0, 0.0, 0.0, 0.0, 1188.9786945556039, 0.0]
['beep', 0.0, 213.43680780372713, 0.0, 0.0, 0.0, 0.0, 1189.2245637446122, 0.0]
['beep', 0.0, 211.24633684710705, 0.0, 0.0, 0.0, 0.0, 1188.1516800107574, 0.0]
['beep', 0.0, 213.6603252482802, 0.0, 0.0, 0.0, 0.0, 1188.0175695440257, 0.0]
['beep', 0.0, 217.23660436112934, 0.0, 0.0, 0.0, 0.0, 1187.5034794215537, 0.0]
['beep', 0.0, 218.3318398394394, 0.0, 0.0, 0.0, 0.0, 1186.14002300978, 0.0]
['beep', 0.0, 214.10736013738637, 0.0, 0.0, 0.0, 0.0, 1186.4082439432436, 0.0]
['beep', 0.0, 212.9450694257104, 0.0, 0.0, 0.0, 0.0, 1186.5423544099754, 0.0]
['beep', 0.0, 212.07335139195342, 0.0, 0.0, 0.0, 0.0, 1187.9281625662045, 0.0]
['beep', 0.0, 215.2025956156964, 0.0, 0.0, 0.0, 0.0, 1186.5200026655202, 0.0]
['beep', 0.0, 216.7448659831126, 0.0, 0.0, 0.0, 0.0, 1187.302313721456, 0.0]
['beep', 0.0, 216.38723807182768, 0.0, 0.0, 0.0, 0.0, 1186.8329270878944, 0.0]
['beep', 0.0, 212.92271768125508, 0.0, 0.0, 0.0, 0.0, 1185.7600433540397, 0.0]
['beep', 0.0, 210.86635719136683, 0.0, 0.0, 0.0, 0.0, 1185.4024154427548, 0.0]
['beep', 0.0, 214.9120229377774, 0.0, 0.0, 0.0, 0.0, 1185.2906567204782, 0.0]
['beep', 0.0, 217.57188052795894, 0.0, 0.0, 0.0, 0.0, 1184.8883253202828, 0.0]
['beep', 0.0, 213.86149094837796, 0.0, 0.0, 0.0, 0.0, 1182.3178747079223, 0.0]
['beep', 0.0, 210.0840461354311, 0.0, 0.0, 0.0, 0.0, 1182.653150874752, 0.0]
['beep', 0.0, 212.38627581432772, 0.0, 0.0, 0.0, 0.0, 1181.5802671408971, 0.0]
['beep', 0.0, 216.49899679410422, 0.0, 0.0, 0.0, 0.0, 1181.8037845854503, 0.0]
['beep', 0.0, 216.85662470538912, 0.0, 0.0, 0.0, 0.0, 1185.201249742657, 0.0]
['beep', 0.0, 213.3026973369953, 0.0, 0.0, 0.0, 0.0, 1183.4354619306878, 0.0]
['beep', 0.0, 210.32991532443947, 0.0, 0.0, 0.0, 0.0, 1182.1390607522799, 0.0]
['beep', 0.0, 212.11805488086404, 0.0, 0.0, 0.0, 0.0, 1181.9825985410928, 0.0]
['beep', 0.0, 213.48151129263775, 0.0, 0.0, 0.0, 0.0, 1179.7250723511067, 0.0]
['beep', 0.0, 213.92854618174388, 0.0, 0.0, 0.0, 0.0, 1178.3169124504225, 0.0]
['beep', 0.0, 214.04030490402045, 0.0, 0.0, 0.0, 0.0, 1180.0156450290258, 0.0]
['beep', 0.0, 213.25799384808468, 0.0, 0.0, 0.0, 0.0, 1180.1274037513024, 0.0]
['beep', 0.0, 213.77208397055674, 0.0, 0.0, 0.0, 0.0, 1179.6803688621962, 0.0]
['beep', 0.0, 215.09083689341986, 0.0, 0.0, 0.0, 0.0, 1179.5015549065538, 0.0]
['beep', 0.0, 217.7283427391461, 0.0, 0.0, 0.0, 0.0, 1180.8203078294168, 0.0]
['beep', 0.0, 216.83427296093382, 0.0, 0.0, 0.0, 0.0, 1180.1497554957575, 0.0]
['beep', 0.0, 213.10153163689753, 0.0, 0.0, 0.0, 0.0, 1180.261514218034, 0.0]
['beep', 0.0, 214.71085723767965, 0.0, 0.0, 0.0, 0.0, 1179.9038863067492, 0.0]
['beep', 0.0, 218.57770902844777, 0.0, 0.0, 0.0, 0.0, 1180.3732729403107, 0.0]
['beep', 0.0, 215.26965084906232, 0.0, 0.0, 0.0, 0.0, 1179.8815345622938, 0.0]
['beep', 0.0, 208.4970722791043, 0.0, 0.0, 0.0, 0.0, 1180.753252596051, 0.0]
['beep', 0.0, 206.5971740004032, 0.0, 0.0, 0.0, 0.0, 1183.4801654195983, 0.0]
['beep', 0.0, 209.36879031286125, 0.0, 0.0, 0.0, 0.0, 1182.8990200637604, 0.0]
['beep', 0.0, 210.7769502135456, 0.0, 0.0, 0.0, 0.0, 1182.8319648303946, 0.0]
['beep', 0.0, 211.33574382492827, 0.0, 0.0, 0.0, 0.0, 1184.5083456645425, 0.0]
['beep', 0.0, 208.69823797920205, 0.0, 0.0, 0.0, 0.0, 1185.0224357870145, 0.0]
['beep', 0.0, 204.49611002160432, 0.0, 0.0, 0.0, 0.0, 1182.362578196833, 0.0]
['beep', 0.0, 206.9548019116881, 0.0, 0.0, 0.0, 0.0, 1182.362578196833, 0.0]
['beep', 0.0, 210.4640257911713, 0.0, 0.0, 0.0, 0.0, 1182.4743369191096, 0.0]
['beep', 0.0, 211.0898746359199, 0.0, 0.0, 0.0, 0.0, 1183.0554822749475, 0.0]
['beep', 0.0, 209.77112171305677, 0.0, 0.0, 0.0, 0.0, 1183.5025171640536, 0.0]
['beep', 0.0, 209.39114205731656, 0.0, 0.0, 0.0, 0.0, 1183.748386353062, 0.0]
['beep', 0.0, 210.4640257911713, 0.0, 0.0, 0.0, 0.0, 1185.6259328873077, 0.0]
['beep', 0.0, 213.3250490814506, 0.0, 0.0, 0.0, 0.0, 1183.390758441777, 0.0]
['beep', 0.0, 213.19093861471876, 0.0, 0.0, 0.0, 0.0, 1182.720206108118, 0.0]
['beep', 0.0, 209.99463915760987, 0.0, 0.0, 0.0, 0.0, 1183.8377933308832, 0.0]
['beep', 0.0, 206.9324501672328, 0.0, 0.0, 0.0, 0.0, 1184.396586942266, 0.0]
['beep', 0.0, 208.34061006791714, 0.0, 0.0, 0.0, 0.0, 1183.3237032084112, 0.0]
['beep', 0.0, 211.58161301393665, 0.0, 0.0, 0.0, 0.0, 1184.977732298104, 0.0]
['beep', 0.0, 209.9052321797886, 0.0, 0.0, 0.0, 0.0, 1184.7542148535508, 0.0]
['beep', 0.0, 208.96645891266573, 0.0, 0.0, 0.0, 0.0, 1183.6142758863302, 0.0]
['beep', 0.0, 207.51359552307076, 0.0, 0.0, 0.0, 0.0, 1184.1283660088022, 0.0]
['beep', 0.0, 207.6700577342579, 0.0, 0.0, 0.0, 0.0, 1183.368406697322, 0.0]
['beep', 0.0, 210.91106068027744, 0.0, 0.0, 0.0, 0.0, 1180.5744386404085, 0.0]
['beep', 0.0, 210.17345311325232, 0.0, 0.0, 0.0, 0.0, 1181.0438252739698, 0.0]
['beep', 0.0, 208.27355483455122, 0.0, 0.0, 0.0, 0.0, 1180.7085491071402, 0.0]
['beep', 0.0, 207.6700577342579, 0.0, 0.0, 0.0, 0.0, 1181.42380492971, 0.0]
['beep', 0.0, 207.44654028970484, 0.0, 0.0, 0.0, 0.0, 1182.4519851746543, 0.0]
['beep', 0.0, 210.50872928008192, 0.0, 0.0, 0.0, 0.0, 1181.6026188853525, 0.0]
['beep', 0.0, 213.70502873719082, 0.0, 0.0, 0.0, 0.0, 1180.1944589846682, 0.0]
['beep', 0.0, 212.18511011422996, 0.0, 0.0, 0.0, 0.0, 1180.4179764292212, 0.0]
['beep', 0.0, 209.77112171305677, 0.0, 0.0, 0.0, 0.0, 1181.1555839962464, 0.0]
['beep', 0.0, 210.4640257911713, 0.0, 0.0, 0.0, 0.0, 1181.557915396442, 0.0]
['beep', 0.0, 212.58744151442548, 0.0, 0.0, 0.0, 0.0, 1178.9874647840816, 0.0]
['beep', 0.0, 209.48054903513778, 0.0, 0.0, 0.0, 0.0, 1180.2391624735787, 0.0]
['beep', 0.0, 208.40766530128306, 0.0, 0.0, 0.0, 0.0, 1179.9932932845704, 0.0]
['beep', 0.0, 207.51359552307076, 0.0, 0.0, 0.0, 0.0, 1178.652188617252, 0.0]
['beep', 0.0, 208.2064996011853, 0.0, 0.0, 0.0, 0.0, 1178.2498572170566, 0.0]
['beep', 0.0, 209.30173507949533, 0.0, 0.0, 0.0, 0.0, 1180.0156450290258, 0.0]
['beep', 0.0, 208.5194240235596, 0.0, 0.0, 0.0, 0.0, 1180.8203078294168, 0.0]
['beep', 0.0, 207.13361586733055, 0.0, 0.0, 0.0, 0.0, 1179.4792031620984, 0.0]
['beep', 0.0, 205.3678280553613, 0.0, 0.0, 0.0, 0.0, 1177.7581188390398, 0.0]
['beep', 0.0, 206.2842495780289, 0.0, 0.0, 0.0, 0.0, 1177.3557874388441, 0.0]
['beep', 0.0, 211.02281940255398, 0.0, 0.0, 0.0, 0.0, 1176.7746420830063, 0.0]
['beep', 0.0, 210.4640257911713, 0.0, 0.0, 0.0, 0.0, 1177.2887322054783, 0.0]
['beep', 0.0, 208.98881065712104, 0.0, 0.0, 0.0, 0.0, 1177.9369327946822, 0.0]
['beep', 0.0, 207.35713331188362, 0.0, 0.0, 0.0, 0.0, 1177.5122496500314, 0.0]
['beep', 0.0, 207.11126412287524, 0.0, 0.0, 0.0, 0.0, 1178.7192438506179, 0.0]
['beep', 0.0, 210.4193223022607, 0.0, 0.0, 0.0, 0.0, 1177.1769734832017, 0.0]
['beep', 0.0, 211.55926126948134, 0.0, 0.0, 0.0, 0.0, 1175.4558891601432, 0.0]
['beep', 0.0, 208.07238913445346, 0.0, 0.0, 0.0, 0.0, 1175.6570548602408, 0.0]
['beep', 0.0, 206.55247051149257, 0.0, 0.0, 0.0, 0.0, 1175.880572304794, 0.0]
['beep', 0.0, 207.6477059898026, 0.0, 0.0, 0.0, 0.0, 1176.2829037049894, 0.0]
['beep', 0.0, 210.7993019580009, 0.0, 0.0, 0.0, 0.0, 1175.0982612488583, 0.0]
['beep', 0.0, 213.41445605927183, 0.0, 0.0, 0.0, 0.0, 1176.2829037049894, 0.0]
['beep', 0.0, 210.50872928008192, 0.0, 0.0, 0.0, 0.0, 1176.4617176606318, 0.0]
['beep', 0.0, 209.10056937939757, 0.0, 0.0, 0.0, 0.0, 1175.5005926490537, 0.0]
['beep', 0.0, 209.05586589048696, 0.0, 0.0, 0.0, 0.0, 1175.7911653269728, 0.0]
['beep', 0.0, 210.15110136879701, 0.0, 0.0, 0.0, 0.0, 1176.394662427266, 0.0]
['beep', 0.0, 210.7545984690903, 0.0, 0.0, 0.0, 0.0, 1176.9534560386487, 0.0]
['beep', 0.0, 207.9606304121769, 0.0, 0.0, 0.0, 0.0, 1176.2158484716235, 0.0]
['beep', 0.0, 204.94314491071046, 0.0, 0.0, 0.0, 0.0, 1175.4782409045984, 0.0]
['beep', 0.0, 206.19484260020766, 0.0, 0.0, 0.0, 0.0, 1175.6123513713303, 0.0]
['beep', 0.0, 209.65936299078024, 0.0, 0.0, 0.0, 0.0, 1175.9699792826152, 0.0]
['beep', 0.0, 210.1063978798864, 0.0, 0.0, 0.0, 0.0, 1175.6570548602408, 0.0]
['beep', 0.0, 207.22302284515177, 0.0, 0.0, 0.0, 0.0, 1175.3888339267771, 0.0]
['beep', 0.0, 204.94314491071046, 0.0, 0.0, 0.0, 0.0, 1176.2158484716235, 0.0]
['beep', 0.0, 207.82651994544506, 0.0, 0.0, 0.0, 0.0, 1175.6123513713303, 0.0]
['beep', 0.0, 210.62048800235846, 0.0, 0.0, 0.0, 0.0, 1175.8582205603386, 0.0]
['beep', 0.0, 212.18511011422996, 0.0, 0.0, 0.0, 0.0, 1175.9029240492493, 0.0]
['beep', 0.0, 211.69337173621318, 0.0, 0.0, 0.0, 0.0, 1176.5734763829084, 0.0]
['beep', 0.0, 206.77598795604564, 0.0, 0.0, 0.0, 0.0, 1177.8922293057715, 0.0]
['beep', 0.0, 205.94897341119926, 0.0, 0.0, 0.0, 0.0, 1179.2780374620006, 0.0]
['beep', 0.0, 210.7545984690903, 0.0, 0.0, 0.0, 0.0, 1176.7075868496404, 0.0]
['beep', 0.0, 210.86635719136683, 0.0, 0.0, 0.0, 0.0, 1174.4053571707436, 0.0]
['beep', 0.0, 209.41349380177186, 0.0, 0.0, 0.0, 0.0, 1174.584171126386, 0.0]
['beep', 0.0, 204.31729606596187, 0.0, 0.0, 0.0, 0.0, 1175.724110093607, 0.0]
['beep', 0.0, 205.16666235526353, 0.0, 0.0, 0.0, 0.0, 1173.6677496037184, 0.0]
['beep', 0.0, 207.58065075643668, 0.0, 0.0, 0.0, 0.0, 1174.3159501929224, 0.0]
['beep', 0.0, 208.76529321256797, 0.0, 0.0, 0.0, 0.0, 1174.4947641485649, 0.0]
['beep', 0.0, 206.9324501672328, 0.0, 0.0, 0.0, 0.0, 1173.332473436889, 0.0]
['beep', 0.0, 207.51359552307076, 0.0, 0.0, 0.0, 0.0, 1172.8407350588723, 0.0]
['beep', 0.0, 207.3347815674283, 0.0, 0.0, 0.0, 0.0, 1173.3771769257996, 0.0]
['beep', 0.0, 209.43584554622717, 0.0, 0.0, 0.0, 0.0, 1173.1536594812465, 0.0]
['beep', 0.0, 210.86635719136683, 0.0, 0.0, 0.0, 0.0, 1172.9077902922381, 0.0]
['beep', 0.0, 208.5194240235596, 0.0, 0.0, 0.0, 0.0, 1172.0584240029364, 0.0]
['beep', 0.0, 206.82069144495625, 0.0, 0.0, 0.0, 0.0, 1171.9019617917493, 0.0]
['beep', 0.0, 206.6195257448585, 0.0, 0.0, 0.0, 0.0, 1174.271246704012, 0.0]
['beep', 0.0, 210.4193223022607, 0.0, 0.0, 0.0, 0.0, 1175.5452961379644, 0.0]
['beep', 0.0, 212.09570313640873, 0.0, 0.0, 0.0, 0.0, 1176.037034515981, 0.0]
['beep', 0.0, 211.0898746359199, 0.0, 0.0, 0.0, 0.0, 1175.3888339267771, 0.0]
['beep', 0.0, 208.60883100138082, 0.0, 0.0, 0.0, 0.0, 1175.0982612488583, 0.0]
['beep', 0.0, 207.9382786677216, 0.0, 0.0, 0.0, 0.0, 1173.7571565815397, 0.0]
['beep', 0.0, 210.0616943909758, 0.0, 0.0, 0.0, 0.0, 1174.0253775150034, 0.0]
['beep', 0.0, 211.31339208047297, 0.0, 0.0, 0.0, 0.0, 1174.2041914706458, 0.0]
['beep', 0.0, 211.62631650284726, 0.0, 0.0, 0.0, 0.0, 1173.131307736791, 0.0]
['beep', 0.0, 209.92758392424392, 0.0, 0.0, 0.0, 0.0, 1173.8242118149058, 0.0]
['beep', 0.0, 209.34643856840594, 0.0, 0.0, 0.0, 0.0, 1173.7124530926292, 0.0]
['beep', 0.0, 211.00046765809867, 0.0, 0.0, 0.0, 0.0, 1172.8407350588723, 0.0]
['beep', 0.0, 212.6544967477914, 0.0, 0.0, 0.0, 0.0, 1172.0807757473917, 0.0]
['beep', 0.0, 210.30756357998416, 0.0, 0.0, 0.0, 0.0, 1171.8572583028388, 0.0]
['beep', 0.0, 208.18414785673, 0.0, 0.0, 0.0, 0.0, 1173.0642525034252, 0.0]
['beep', 0.0, 208.13944436781938, 0.0, 0.0, 0.0, 0.0, 1172.818383314417, 0.0]
['beep', 0.0, 211.67101999175787, 0.0, 0.0, 0.0, 0.0, 1172.1254792363025, 0.0]
['beep', 0.0, 211.96159266967686, 0.0, 0.0, 0.0, 0.0, 1172.2595897030342, 0.0]
['beep', 0.0, 209.30173507949533, 0.0, 0.0, 0.0, 0.0, 1171.656092602741, 0.0]
['beep', 0.0, 207.78181645653444, 0.0, 0.0, 0.0, 0.0, 1172.751328081051, 0.0]
['beep', 0.0, 209.61465950186962, 0.0, 0.0, 0.0, 0.0, 1173.4218804147101, 0.0]
['beep', 0.0, 210.86635719136683, 0.0, 0.0, 0.0, 0.0, 1173.0195490145147, 0.0]
['beep', 0.0, 211.4475025472048, 0.0, 0.0, 0.0, 0.0, 1171.9690170251151, 0.0]
['beep', 0.0, 207.49124377861546, 0.0, 0.0, 0.0, 0.0, 1173.5112873925314, 0.0]
['beep', 0.0, 206.2842495780289, 0.0, 0.0, 0.0, 0.0, 1173.846563559361, 0.0]
['beep', 0.0, 204.85373793288923, 0.0, 0.0, 0.0, 0.0, 1174.6065228708414, 0.0]
['beep', 0.0, 205.4348832887272, 0.0, 0.0, 0.0, 0.0, 1174.3606536818331, 0.0]
['beep', 0.0, 208.13944436781938, 0.0, 0.0, 0.0, 0.0, 1173.265418203523, 0.0]
['beep', 0.0, 207.55829901198138, 0.0, 0.0, 0.0, 0.0, 1173.131307736791, 0.0]
['beep', 0.0, 206.9995054005987, 0.0, 0.0, 0.0, 0.0, 1171.7007960916515, 0.0]
['beep', 0.0, 205.81486294446742, 0.0, 0.0, 0.0, 0.0, 1171.7902030694727, 0.0]
['beep', 0.0, 206.6865809782244, 0.0, 0.0, 0.0, 0.0, 1173.3995286702548, 0.0]
['beep', 0.0, 209.8381769464227, 0.0, 0.0, 0.0, 0.0, 1171.1867059691795, 0.0]
['beep', 0.0, 208.09474087890877, 0.0, 0.0, 0.0, 0.0, 1169.689139090674, 0.0]
['beep', 0.0, 204.87608967734454, 0.0, 0.0, 0.0, 0.0, 1169.3091594349337, 0.0]
['beep', 0.0, 204.92079316625515, 0.0, 0.0, 0.0, 0.0, 1171.0972989913582, 0.0]
['beep', 0.0, 207.2677263340624, 0.0, 0.0, 0.0, 0.0, 1170.13617397978, 0.0]
['beep', 0.0, 210.48637753562662, 0.0, 0.0, 0.0, 0.0, 1169.5997321128527, 0.0]
['beep', 0.0, 208.8323484459339, 0.0, 0.0, 0.0, 0.0, 1169.689139090674, 0.0]
['beep', 0.0, 207.04420888950932, 0.0, 0.0, 0.0, 0.0, 1168.4374414011768, 0.0]
['beep', 0.0, 206.57482225594788, 0.0, 0.0, 0.0, 0.0, 1170.1585257242352, 0.0]
['beep', 0.0, 205.0772553774423, 0.0, 0.0, 0.0, 0.0, 1171.6784443471963, 0.0]
['beep', 0.0, 205.50193852209313, 0.0, 0.0, 0.0, 0.0, 1169.6444356017632, 0.0]
['beep', 0.0, 204.29494432150656, 0.0, 0.0, 0.0, 0.0, 1171.8572583028388, 0.0]
['beep', 0.0, 202.95383965418813, 0.0, 0.0, 0.0, 0.0, 1172.617217614319, 0.0]
['beep', 0.0, 204.25024083259595, 0.0, 0.0, 0.0, 0.0, 1172.0360722584812, 0.0]
['beep', 0.0, 205.94897341119926, 0.0, 0.0, 0.0, 0.0, 1172.1478309807576, 0.0]
['beep', 0.0, 206.50776702258196, 0.0, 0.0, 0.0, 0.0, 1171.7678513250175, 0.0]
['beep', 0.0, 205.21136584417414, 0.0, 0.0, 0.0, 0.0, 1171.8349065583834, 0.0]
['beep', 0.0, 203.71379896566856, 0.0, 0.0, 0.0, 0.0, 1171.1196507358136, 0.0]
['beep', 0.0, 203.75850245457917, 0.0, 0.0, 0.0, 0.0, 1170.9631885246265, 0.0]
['beep', 0.0, 202.93148790973282, 0.0, 0.0, 0.0, 0.0, 1171.0302437579924, 0.0]
['beep', 0.0, 204.65257223279147, 0.0, 0.0, 0.0, 0.0, 1171.0972989913582, 0.0]
['beep', 0.0, 204.80903444397862, 0.0, 0.0, 0.0, 0.0, 1170.4043949132438, 0.0]
['beep', 0.0, 205.4572350331825, 0.0, 0.0, 0.0, 0.0, 1169.6667873462186, 0.0]
['beep', 0.0, 203.8702611768557, 0.0, 0.0, 0.0, 0.0, 1170.3149879354226, 0.0]
['beep', 0.0, 204.0714268769535, 0.0, 0.0, 0.0, 0.0, 1171.589037369375, 0.0]
['beep', 0.0, 204.87608967734454, 0.0, 0.0, 0.0, 0.0, 1171.4325751581878, 0.0]
['beep', 0.0, 204.98784839962107, 0.0, 0.0, 0.0, 0.0, 1169.4656216461208, 0.0]
['beep', 0.0, 201.3221623089507, 0.0, 0.0, 0.0, 0.0, 1169.04093850147, 0.0]
['beep', 0.0, 200.2939820640066, 0.0, 0.0, 0.0, 0.0, 1169.6444356017632, 0.0]
['beep', 0.0, 201.85860417587807, 0.0, 0.0, 0.0, 0.0, 1170.069118746414, 0.0]
['beep', 0.0, 204.80903444397862, 0.0, 0.0, 0.0, 0.0, 1168.9515315236488, 0.0]
['beep', 0.0, 202.5291565095373, 0.0, 0.0, 0.0, 0.0, 1168.392737912266, 0.0]
['beep', 0.0, 202.61856348735853, 0.0, 0.0, 0.0, 0.0, 1168.4374414011768, 0.0]
['beep', 0.0, 200.89747916429988, 0.0, 0.0, 0.0, 0.0, 1168.5492001234531, 0.0]
['beep', 0.0, 203.04324663200936, 0.0, 0.0, 0.0, 0.0, 1168.906828034738, 0.0]
['beep', 0.0, 207.15596761178585, 0.0, 0.0, 0.0, 0.0, 1168.750365823551, 0.0]
['beep', 0.0, 203.35617105438365, 0.0, 0.0, 0.0, 0.0, 1170.7396710800733, 0.0]
['beep', 0.0, 194.14725233879716, 0.0, 0.0, 0.0, 0.0, 1172.4831071475874, 0.0]
['beep', 0.0, 191.75561568207928, 0.0, 0.0, 0.0, 0.0, 1170.5832088688862, 0.0]
['beep', 0.0, 194.54958373899268, 0.0, 0.0, 0.0, 0.0, 1170.717319335618, 0.0]
['beep', 0.0, 199.17639484124123, 0.0, 0.0, 0.0, 0.0, 1170.0244152575035, 0.0]
['beep', 0.0, 196.8741651623446, 0.0, 0.0, 0.0, 0.0, 1169.5773803683974, 0.0]
['beep', 0.0, 194.46017676117145, 0.0, 0.0, 0.0, 0.0, 1170.3820431687884, 0.0]
['beep', 0.0, 194.0131418720653, 0.0, 0.0, 0.0, 0.0, 1170.784374568984, 0.0]
['beep', 0.0, 196.27066806205133, 0.0, 0.0, 0.0, 0.0, 1170.717319335618, 0.0]
['beep', 0.0, 199.24345007460715, 0.0, 0.0, 0.0, 0.0, 1170.7396710800733, 0.0]
['beep', 0.0, 198.46113901867142, 0.0, 0.0, 0.0, 0.0, 1168.7280140790956, 0.0]
['beep', 0.0, 195.48835700611556, 0.0, 0.0, 0.0, 0.0, 1168.683310590185, 0.0]
['beep', 0.0, 196.62829597333624, 0.0, 0.0, 0.0, 0.0, 1168.8397728013722, 0.0]
['beep', 0.0, 198.0811593629312, 0.0, 0.0, 0.0, 0.0, 1170.0467670019589, 0.0]
['beep', 0.0, 198.90817390777755, 0.0, 0.0, 0.0, 0.0, 1171.3208164359114, 0.0]
['beep', 0.0, 199.51167100807083, 0.0, 0.0, 0.0, 0.0, 1170.7396710800733, 0.0]
['beep', 0.0, 197.63412447382504, 0.0, 0.0, 0.0, 0.0, 1170.650264102252, 0.0]
['beep', 0.0, 196.04715061749826, 0.0, 0.0, 0.0, 0.0, 1171.142002480269, 0.0]
['beep', 0.0, 197.27649656254013, 0.0, 0.0, 0.0, 0.0, 1170.337339679878, 0.0]
['beep', 0.0, 199.64578147480267, 0.0, 0.0, 0.0, 0.0, 1170.493801891065, 0.0]
['beep', 0.0, 198.95287739668817, 0.0, 0.0, 0.0, 0.0, 1169.5997321128527, 0.0]
['beep', 0.0, 196.31537155096194, 0.0, 0.0, 0.0, 0.0, 1168.6386071012744, 0.0]
['beep', 0.0, 194.66134246126921, 0.0, 0.0, 0.0, 0.0, 1169.8679530463164, 0.0]
['beep', 0.0, 197.5223657515485, 0.0, 0.0, 0.0, 0.0, 1170.7620228245287, 0.0]
['beep', 0.0, 199.6904849637133, 0.0, 0.0, 0.0, 0.0, 1168.8621245458276, 0.0]
['beep', 0.0, 199.22109833015185, 0.0, 0.0, 0.0, 0.0, 1168.2139239566236, 0.0]
['beep', 0.0, 195.80128142848986, 0.0, 0.0, 0.0, 0.0, 1169.2868076904783, 0.0]
['beep', 0.0, 195.15308083928596, 0.0, 0.0, 0.0, 0.0, 1170.9855402690816, 0.0]
['beep', 0.0, 196.33772329541725, 0.0, 0.0, 0.0, 0.0, 1171.3208164359114, 0.0]
['beep', 0.0, 197.7905866850122, 0.0, 0.0, 0.0, 0.0, 1169.0632902459254, 0.0]
['beep', 0.0, 195.53306049502618, 0.0, 0.0, 0.0, 0.0, 1168.884476290283, 0.0]
['beep', 0.0, 193.54375523850385, 0.0, 0.0, 0.0, 0.0, 1169.8008978129503, 0.0]
['beep', 0.0, 193.58845872741446, 0.0, 0.0, 0.0, 0.0, 1168.526848378998, 0.0]
['beep', 0.0, 195.75657793957924, 0.0, 0.0, 0.0, 0.0, 1168.3033309344448, 0.0]
['beep', 0.0, 196.76240644006808, 0.0, 0.0, 0.0, 0.0, 1168.4374414011768, 0.0]
['beep', 0.0, 196.09185410640887, 0.0, 0.0, 0.0, 0.0, 1169.1750489682017, 0.0]
['beep', 0.0, 195.17543258374127, 0.0, 0.0, 0.0, 0.0, 1168.236275701079, 0.0]
['beep', 0.0, 194.14725233879716, 0.0, 0.0, 0.0, 0.0, 1168.5715518679085, 0.0]
['beep', 0.0, 196.44948201769378, 0.0, 0.0, 0.0, 0.0, 1169.1079937348359, 0.0]
['beep', 0.0, 196.44948201769378, 0.0, 0.0, 0.0, 0.0, 1167.8562960453387, 0.0]
['beep', 0.0, 196.829461673434, 0.0, 0.0, 0.0, 0.0, 1168.0127582565258, 0.0]
['beep', 0.0, 195.80128142848986, 0.0, 0.0, 0.0, 0.0, 1168.8397728013722, 0.0]
['beep', 0.0, 195.957743639677, 0.0, 0.0, 0.0, 0.0, 1168.5492001234531, 0.0]
['beep', 0.0, 197.00827562907645, 0.0, 0.0, 0.0, 0.0, 1168.683310590185, 0.0]
['beep', 0.0, 197.67882796273565, 0.0, 0.0, 0.0, 0.0, 1168.7280140790956, 0.0]
['beep', 0.0, 198.0588076184759, 0.0, 0.0, 0.0, 0.0, 1167.9233512787046, 0.0]
['beep', 0.0, 196.29301980650663, 0.0, 0.0, 0.0, 0.0, 1168.2809791899895, 0.0]
['beep', 0.0, 195.10837735037535, 0.0, 0.0, 0.0, 0.0, 1169.7785460684952, 0.0]
['beep', 0.0, 197.23179307362952, 0.0, 0.0, 0.0, 0.0, 1168.459793145632, 0.0]
['beep', 0.0, 197.8799936628334, 0.0, 0.0, 0.0, 0.0, 1168.8174210569168, 0.0]
['beep', 0.0, 197.8129384294675, 0.0, 0.0, 0.0, 0.0, 1167.6327786007857, 0.0]
['beep', 0.0, 196.33772329541725, 0.0, 0.0, 0.0, 0.0, 1168.526848378998, 0.0]
['beep', 0.0, 193.87903140533345, 0.0, 0.0, 0.0, 0.0, 1170.0244152575035, 0.0]
['beep', 0.0, 194.9519151391882, 0.0, 0.0, 0.0, 0.0, 1169.845601301861, 0.0]
['beep', 0.0, 197.03062737353176, 0.0, 0.0, 0.0, 0.0, 1167.8339443008833, 0.0]
['beep', 0.0, 195.5777639839368, 0.0, 0.0, 0.0, 0.0, 1167.23044720059, 0.0]
['beep', 0.0, 193.25318256058486, 0.0, 0.0, 0.0, 0.0, 1166.939874522671, 0.0]
['beep', 0.0, 192.82849941593403, 0.0, 0.0, 0.0, 0.0, 1169.197400712657, 0.0]
['beep', 0.0, 195.15308083928596, 0.0, 0.0, 0.0, 0.0, 1168.906828034738, 0.0]
['beep', 0.0, 198.17056634075243, 0.0, 0.0, 0.0, 0.0, 1167.4986681340538, 0.0]
['beep', 0.0, 196.00244712858762, 0.0, 0.0, 0.0, 0.0, 1166.8281158003947, 0.0]
['beep', 0.0, 193.63316221632508, 0.0, 0.0, 0.0, 0.0, 1167.8339443008833, 0.0]
['beep', 0.0, 191.4650430041603, 0.0, 0.0, 0.0, 0.0, 1168.6162553568192, 0.0]
['beep', 0.0, 193.96843838315468, 0.0, 0.0, 0.0, 0.0, 1168.9738832681041, 0.0]
['beep', 0.0, 197.58942098491443, 0.0, 0.0, 0.0, 0.0, 1167.5433716229645, 0.0]
['beep', 0.0, 196.40477852878317, 0.0, 0.0, 0.0, 0.0, 1168.1245169788024, 0.0]
['beep', 0.0, 194.0131418720653, 0.0, 0.0, 0.0, 0.0, 1168.5715518679085, 0.0]
['beep', 0.0, 194.79545292800105, 0.0, 0.0, 0.0, 0.0, 1168.2809791899895, 0.0]
['beep', 0.0, 196.78475818452338, 0.0, 0.0, 0.0, 0.0, 1168.2139239566236, 0.0]
['beep', 0.0, 199.0199326300541, 0.0, 0.0, 0.0, 0.0, 1168.4150896567214, 0.0]
['beep', 0.0, 197.63412447382504, 0.0, 0.0, 0.0, 0.0, 1167.9233512787046, 0.0]
['beep', 0.0, 195.9800953841323, 0.0, 0.0, 0.0, 0.0, 1168.1915722121682, 0.0]
['beep', 0.0, 194.41547327226084, 0.0, 0.0, 0.0, 0.0, 1169.689139090674, 0.0]
['beep', 0.0, 196.76240644006808, 0.0, 0.0, 0.0, 0.0, 1168.9738832681041, 0.0]
['beep', 0.0, 199.22109833015185, 0.0, 0.0, 0.0, 0.0, 1168.0127582565258, 0.0]
['beep', 0.0, 197.70117970719096, 0.0, 0.0, 0.0, 0.0, 1168.4374414011768, 0.0]
['beep', 0.0, 196.76240644006808, 0.0, 0.0, 0.0, 0.0, 1168.6386071012744, 0.0]
['beep', 0.0, 196.58359248442562, 0.0, 0.0, 0.0, 0.0, 1168.5715518679085, 0.0]
['beep', 0.0, 200.51749950855967, 0.0, 0.0, 0.0, 0.0, 1167.8562960453387, 0.0]
['beep', 0.0, 200.49514776410436, 0.0, 0.0, 0.0, 0.0, 1168.9515315236488, 0.0]
['beep', 0.0, 198.46113901867142, 0.0, 0.0, 0.0, 0.0, 1169.264455946023, 0.0]
['beep', 0.0, 196.8741651623446, 0.0, 0.0, 0.0, 0.0, 1169.3762146682996, 0.0]
['beep', 0.0, 195.73422619512394, 0.0, 0.0, 0.0, 0.0, 1167.8339443008833, 0.0]
['beep', 0.0, 196.1365575953195, 0.0, 0.0, 0.0, 0.0, 1167.94570302316, 0.0]
['beep', 0.0, 200.6292582308362, 0.0, 0.0, 0.0, 0.0, 1168.8397728013722, 0.0]
['beep', 0.0, 199.0646361189647, 0.0, 0.0, 0.0, 0.0, 1168.0574617454365, 0.0]
['beep', 0.0, 196.42713027323848, 0.0, 0.0, 0.0, 0.0, 1166.0011012555483, 0.0]
['beep', 0.0, 196.829461673434, 0.0, 0.0, 0.0, 0.0, 1166.4481361446544, 0.0]
['beep', 0.0, 198.88582216332225, 0.0, 0.0, 0.0, 0.0, 1167.722185578607, 0.0]
['beep', 0.0, 199.51167100807083, 0.0, 0.0, 0.0, 0.0, 1166.6716535892074, 0.0]
['beep', 0.0, 197.5000140070932, 0.0, 0.0, 0.0, 0.0, 1165.8893425332717, 0.0]
['beep', 0.0, 194.54958373899268, 0.0, 0.0, 0.0, 0.0, 1164.9505692661487, 0.0]
['beep', 0.0, 194.99661862809882, 0.0, 0.0, 0.0, 0.0, 1165.777583810995, 0.0]
['beep', 0.0, 196.1589093397748, 0.0, 0.0, 0.0, 0.0, 1166.4704878891098, 0.0]
['beep', 0.0, 198.01410412956525, 0.0, 0.0, 0.0, 0.0, 1164.5929413548638, 0.0]
['beep', 0.0, 197.41060702927197, 0.0, 0.0, 0.0, 0.0, 1165.5987698553527, 0.0]
['beep', 0.0, 195.2648395615625, 0.0, 0.0, 0.0, 0.0, 1167.4763163895984, 0.0]
['beep', 0.0, 194.37076978335023, 0.0, 0.0, 0.0, 0.0, 1168.1915722121682, 0.0]
['beep', 0.0, 197.23179307362952, 0.0, 0.0, 0.0, 0.0, 1166.8951710337606, 0.0]
['beep', 0.0, 199.15404309678593, 0.0, 0.0, 0.0, 0.0, 1166.425784400199, 0.0]
['beep', 0.0, 197.72353145164627, 0.0, 0.0, 0.0, 0.0, 1166.7610605670286, 0.0]
['beep', 0.0, 193.81197617196753, 0.0, 0.0, 0.0, 0.0, 1166.1128599778247, 0.0]
['beep', 0.0, 195.33189479492842, 0.0, 0.0, 0.0, 0.0, 1167.297502433956, 0.0]
['beep', 0.0, 195.9800953841323, 0.0, 0.0, 0.0, 0.0, 1168.0574617454365, 0.0]
['beep', 0.0, 198.46113901867142, 0.0, 0.0, 0.0, 0.0, 1167.6104268563304, 0.0]
['beep', 0.0, 201.14334835330826, 0.0, 0.0, 0.0, 0.0, 1167.0292815004923, 0.0]
['beep', 0.0, 199.6904849637133, 0.0, 0.0, 0.0, 0.0, 1168.0127582565258, 0.0]
['beep', 0.0, 198.86347041886694, 0.0, 0.0, 0.0, 0.0, 1171.0749472469029, 0.0]
['beep', 0.0, 201.74684545360154, 0.0, 0.0, 0.0, 0.0, 1170.9631885246265, 0.0]
['beep', 0.0, 204.0714268769535, 0.0, 0.0, 0.0, 0.0, 1171.2761129470007, 0.0]
['beep', 0.0, 203.24441233210712, 0.0, 0.0, 0.0, 0.0, 1170.2255809576013, 0.0]
['beep', 0.0, 199.7351884526239, 0.0, 0.0, 0.0, 0.0, 1169.5103251350315, 0.0]
['beep', 0.0, 198.59524948540326, 0.0, 0.0, 0.0, 0.0, 1169.845601301861, 0.0]
['beep', 0.0, 198.48349076312672, 0.0, 0.0, 0.0, 0.0, 1171.0972989913582, 0.0]
['beep', 0.0, 198.59524948540326, 0.0, 0.0, 0.0, 0.0, 1171.298464691456, 0.0]
['beep', 0.0, 198.12586285184182, 0.0, 0.0, 0.0, 0.0, 1169.7338425795845, 0.0]
['beep', 0.0, 195.6001157283921, 0.0, 0.0, 0.0, 0.0, 1169.2868076904783, 0.0]
['beep', 0.0, 193.63316221632508, 0.0, 0.0, 0.0, 0.0, 1170.1808774686906, 0.0]
['beep', 0.0, 195.48835700611556, 0.0, 0.0, 0.0, 0.0, 1169.8679530463164, 0.0]
['beep', 0.0, 197.2094413291742, 0.0, 0.0, 0.0, 0.0, 1169.7785460684952, 0.0]
['beep', 0.0, 195.08602560592004, 0.0, 0.0, 0.0, 0.0, 1168.9515315236488, 0.0]
['beep', 0.0, 192.87320290484465, 0.0, 0.0, 0.0, 0.0, 1167.94570302316, 0.0]
['beep', 0.0, 193.52140349404854, 0.0, 0.0, 0.0, 0.0, 1168.0574617454365, 0.0]
['beep', 0.0, 195.73422619512394, 0.0, 0.0, 0.0, 0.0, 1168.6386071012744, 0.0]
['beep', 0.0, 195.08602560592004, 0.0, 0.0, 0.0, 0.0, 1167.6774820896962, 0.0]
['beep', 0.0, 193.27553430504017, 0.0, 0.0, 0.0, 0.0, 1167.6104268563304, 0.0]
['beep', 0.0, 190.88389764832232, 0.0, 0.0, 0.0, 0.0, 1167.1186884783135, 0.0]
['beep', 0.0, 191.75561568207928, 0.0, 0.0, 0.0, 0.0, 1166.6269501002969, 0.0]
['beep', 0.0, 192.56027848247035, 0.0, 0.0, 0.0, 0.0, 1166.8057640559393, 0.0]
['beep', 0.0, 193.3872930273167, 0.0, 0.0, 0.0, 0.0, 1165.7999355554505, 0.0]
['beep', 0.0, 191.5097464930709, 0.0, 0.0, 0.0, 0.0, 1165.6434733442634, 0.0]
['beep', 0.0, 191.28622904851784, 0.0, 0.0, 0.0, 0.0, 1166.1128599778247, 0.0]
['beep', 0.0, 189.38633076981674, 0.0, 0.0, 0.0, 0.0, 1167.1186884783135, 0.0]
['beep', 0.0, 192.47087150464912, 0.0, 0.0, 0.0, 0.0, 1167.4092611562326, 0.0]
['beep', 0.0, 196.06950236195357, 0.0, 0.0, 0.0, 0.0, 1165.7328803220846, 0.0]
['beep', 0.0, 195.04132211700943, 0.0, 0.0, 0.0, 0.0, 1163.9670925101152, 0.0]
['beep', 0.0, 192.31440929346198, 0.0, 0.0, 0.0, 0.0, 1164.9058657772382, 0.0]
['beep', 0.0, 192.51557499355974, 0.0, 0.0, 0.0, 0.0, 1166.3587291668332, 0.0]
['beep', 0.0, 193.54375523850385, 0.0, 0.0, 0.0, 0.0, 1165.621121599808, 0.0]
['beep', 0.0, 195.46600526166026, 0.0, 0.0, 0.0, 0.0, 1166.5151913780203, 0.0]
['beep', 0.0, 196.8071099289787, 0.0, 0.0, 0.0, 0.0, 1166.5822466113862, 0.0]
['beep', 0.0, 194.41547327226084, 0.0, 0.0, 0.0, 0.0, 1165.2858454329785, 0.0]
['beep', 0.0, 191.8003191709899, 0.0, 0.0, 0.0, 0.0, 1166.1575634667354, 0.0]
['beep', 0.0, 190.66038020376925, 0.0, 0.0, 0.0, 0.0, 1167.722185578607, 0.0]
['beep', 0.0, 194.66134246126921, 0.0, 0.0, 0.0, 0.0, 1167.6327786007857, 0.0]
['beep', 0.0, 196.40477852878317, 0.0, 0.0, 0.0, 0.0, 1165.7999355554505, 0.0]
['beep', 0.0, 194.37076978335023, 0.0, 0.0, 0.0, 0.0, 1164.9282175216936, 0.0]
['beep', 0.0, 193.65551396078038, 0.0, 0.0, 0.0, 0.0, 1167.5657233674197, 0.0]
['beep', 0.0, 197.99175238510995, 0.0, 0.0, 0.0, 0.0, 1168.0574617454365, 0.0]
['beep', 0.0, 200.38338904182783, 0.0, 0.0, 0.0, 0.0, 1166.8951710337606, 0.0]
['beep', 0.0, 200.3163338084619, 0.0, 0.0, 0.0, 0.0, 1167.3869094117772, 0.0]
['beep', 0.0, 197.2094413291742, 0.0, 0.0, 0.0, 0.0, 1166.6045983558415, 0.0]
['beep', 0.0, 195.77892968403455, 0.0, 0.0, 0.0, 0.0, 1165.978749511093, 0.0]
['beep', 0.0, 199.4446157747049, 0.0, 0.0, 0.0, 0.0, 1167.4986681340538, 0.0]
['beep', 0.0, 200.69631346420212, 0.0, 0.0, 0.0, 0.0, 1166.0681564889142, 0.0]
['beep', 0.0, 196.27066806205133, 0.0, 0.0, 0.0, 0.0, 1167.0069297560372, 0.0]
['beep', 0.0, 194.37076978335023, 0.0, 0.0, 0.0, 0.0, 1165.8222872999058, 0.0]
['beep', 0.0, 195.37659828383903, 0.0, 0.0, 0.0, 0.0, 1165.4423076441656, 0.0]
['beep', 0.0, 198.99758088559878, 0.0, 0.0, 0.0, 0.0, 1166.425784400199, 0.0]
['beep', 0.0, 200.9645343976658, 0.0, 0.0, 0.0, 0.0, 1165.9563977666376, 0.0]
['beep', 0.0, 199.26580181906246, 0.0, 0.0, 0.0, 0.0, 1165.1517349662465, 0.0]
['beep', 0.0, 197.61177272936973, 0.0, 0.0, 0.0, 0.0, 1164.816458799417, 0.0]
['beep', 0.0, 197.56706924045912, 0.0, 0.0, 0.0, 0.0, 1165.2187901996124, 0.0]
['beep', 0.0, 198.21526982966304, 0.0, 0.0, 0.0, 0.0, 1166.8504675448498, 0.0]
['beep', 0.0, 200.5845547419256, 0.0, 0.0, 0.0, 0.0, 1167.6104268563304, 0.0]
['beep', 0.0, 199.80224368598982, 0.0, 0.0, 0.0, 0.0, 1165.978749511093, 0.0]
['beep', 0.0, 198.57289774094795, 0.0, 0.0, 0.0, 0.0, 1164.682348332685, 0.0]
['beep', 0.0, 197.72353145164627, 0.0, 0.0, 0.0, 0.0, 1164.5929413548638, 0.0]
['beep', 0.0, 199.62342973034737, 0.0, 0.0, 0.0, 0.0, 1166.3363774223778, 0.0]
['beep', 0.0, 202.59621174290322, 0.0, 0.0, 0.0, 0.0, 1166.291673933467, 0.0]
['beep', 0.0, 200.40574078628313, 0.0, 0.0, 0.0, 0.0, 1166.5822466113862, 0.0]
['beep', 0.0, 197.99175238510995, 0.0, 0.0, 0.0, 0.0, 1166.3140256779225, 0.0]
['beep', 0.0, 198.34938029639488, 0.0, 0.0, 0.0, 0.0, 1164.9282175216936, 0.0]
['beep', 0.0, 198.32702855193958, 0.0, 0.0, 0.0, 0.0, 1168.1915722121682, 0.0]
['beep', 0.0, 200.2939820640066, 0.0, 0.0, 0.0, 0.0, 1168.3480344233556, 0.0]
['beep', 0.0, 201.2998105644954, 0.0, 0.0, 0.0, 0.0, 1168.0127582565258, 0.0]
['beep', 0.0, 199.0199326300541, 0.0, 0.0, 0.0, 0.0, 1172.3713484253108, 0.0]
['beep', 0.0, 196.4718337621491, 0.0, 0.0, 0.0, 0.0, 1175.3888339267771, 0.0]
['beep', 0.0, 196.22596457314071, 0.0, 0.0, 0.0, 0.0, 1179.3450926953665, 0.0]
['beep', 0.0, 198.4387872742161, 0.0, 0.0, 0.0, 0.0, 1182.6084473858414, 0.0]
['beep', 0.0, 198.57289774094795, 0.0, 0.0, 0.0, 0.0, 1185.1565462537465, 0.0]
['beep', 0.0, 195.22013607265188, 0.0, 0.0, 0.0, 0.0, 1193.3149329799335, 0.0]
['beep', 0.0, 194.19195582770777, 0.0, 0.0, 0.0, 0.0, 1200.3780842278104, 0.0]
['beep', 0.0, 196.76240644006808, 0.0, 0.0, 0.0, 0.0, 1205.1613575412462, 0.0]
['beep', 0.0, 202.1938803427077, 0.0, 0.0, 0.0, 0.0, 1211.553956455464, 0.0]
['beep', 0.0, 200.20457508618537, 0.0, 0.0, 0.0, 0.0, 1219.1311978258132, 0.0]
['beep', 0.0, 197.07533086244237, 0.0, 0.0, 0.0, 0.0, 1225.1885205732012, 0.0]
['beep', 0.0, 198.23762157411835, 0.0, 0.0, 0.0, 0.0, 1230.3517735423773, 0.0]
['beep', 0.0, 199.0646361189647, 0.0, 0.0, 0.0, 0.0, 1236.1185236118465, 0.0]
['beep', 0.0, 200.11516810836414, 0.0, 0.0, 0.0, 0.0, 1242.2429015926007, 0.0]
['beep', 0.0, 198.61760122985856, 0.0, 0.0, 0.0, 0.0, 1244.9921661606033, 0.0]
['beep', 0.0, 194.2366593166184, 0.0, 0.0, 0.0, 0.0, 1251.1388958858129, 0.0]
['beep', 0.0, 196.33772329541725, 0.0, 0.0, 0.0, 0.0, 1254.1787331317346, 0.0]
['beep', 0.0, 196.8518134178893, 0.0, 0.0, 0.0, 0.0, 1255.5645412879637, 0.0]
['beep', 0.0, 196.538888995515, 0.0, 0.0, 0.0, 0.0, 1257.6879570112178, 0.0]
['beep', 0.0, 196.76240644006808, 0.0, 0.0, 0.0, 0.0, 1260.3254628569441, 0.0]
['beep', 0.0, 195.86833666185578, 0.0, 0.0, 0.0, 0.0, 1263.6335210363295, 0.0]
['beep', 0.0, 194.9742668836435, 0.0, 0.0, 0.0, 0.0, 1266.6063030488854, 0.0]
['beep', 0.0, 195.9353918952217, 0.0, 0.0, 0.0, 0.0, 1270.1825821617344, 0.0]
['beep', 0.0, 196.62829597333624, 0.0, 0.0, 0.0, 0.0, 1269.646140294807, 0.0]
['beep', 0.0, 196.22596457314071, 0.0, 0.0, 0.0, 0.0, 1272.4177566072651, 0.0]
['beep', 0.0, 194.2366593166184, 0.0, 0.0, 0.0, 0.0, 1276.2622566535779, 0.0]
['beep', 0.0, 193.20847907167425, 0.0, 0.0, 0.0, 0.0, 1278.6538933102959, 0.0]
['beep', 0.0, 194.75074943909044, 0.0, 0.0, 0.0, 0.0, 1279.4138526217762, 0.0]
['beep', 0.0, 195.13072909483066, 0.0, 0.0, 0.0, 0.0, 1278.162154932279, 0.0]
['beep', 0.0, 194.19195582770777, 0.0, 0.0, 0.0, 0.0, 1277.2680851540667, 0.0]
['beep', 0.0, 191.1968220706966, 0.0, 0.0, 0.0, 0.0, 1276.2622566535779, 0.0]
