['beep', 0.0, 0.0, 0.0, 0.0, 0.0, 0.0, 0.0, 0.0]
['beep', 0.0, -894.8744410126735, 0.0, 0.0, 0.0, 0.0, 1419.8722147789258, 0.0]
['beep', 0.0, -898.2495544254249, 0.0, 0.0, 0.0, 0.0, 1426.801255560071, 0.0]
['beep', 0.0, -900.3506184042238, 0.0, 0.0, 0.0, 0.0, 1434.6020143749731, 0.0]
['beep', 0.0, -901.1552812046149, 0.0, 0.0, 0.0, 0.0, 1441.642813878395, 0.0]
['beep', 0.0, -901.5799643492657, 0.0, 0.0, 0.0, 0.0, 1446.4260871918307, 0.0]
['beep', 0.0, -902.2505166829249, 0.0, 0.0, 0.0, 0.0, 1450.8517325939815, 0.0]
['beep', 0.0, -900.0823974707602, 0.0, 0.0, 0.0, 0.0, 1457.4231454638418, 0.0]
['beep', 0.0, -901.7587783049081, 0.0, 0.0, 0.0, 0.0, 1461.7817356326266, 0.0]
['beep', 0.0, -901.9152405160953, 0.0, 0.0, 0.0, 0.0, 1465.8721048679479, 0.0]
['beep', 0.0, -898.8530515257182, 0.0, 0.0, 0.0, 0.0, 1468.5319624581293, 0.0]
['beep', 0.0, -900.5294323598663, 0.0, 0.0, 0.0, 0.0, 1470.7000816702941, 0.0]
['beep', 0.0, -902.8093102943076, 0.0, 0.0, 0.0, 0.0, 1475.282189283632, 0.0]
['beep', 0.0, -903.859842283707, 0.0, 0.0, 0.0, 0.0, 1477.4279567513415, 0.0]
['beep', 0.0, -901.8258335382741, 0.0, 0.0, 0.0, 0.0, 1481.2724567976543, 0.0]
['beep', 0.0, -898.0036852364166, 0.0, 0.0, 0.0, 0.0, 1481.6971399423053, 0.0]
['beep', 0.0, -900.9764672489724, 0.0, 0.0, 0.0, 0.0, 1485.251067310699, 0.0]
['beep', 0.0, -905.8714992846847, 0.0, 0.0, 0.0, 0.0, 1488.380311534442, 0.0]
['beep', 0.0, -909.246612697436, 0.0, 0.0, 0.0, 0.0, 1487.7544626896934, 0.0]
['beep', 0.0, -907.6819905855646, 0.0, 0.0, 0.0, 0.0, 1489.475547012752, 0.0]
['beep', 0.0, -900.0823974707602, 0.0, 0.0, 0.0, 0.0, 1490.3249133020538, 0.0]
['beep', 0.0, -899.2106794370031, 0.0, 0.0, 0.0, 0.0, 1492.895363914414, 0.0]
['beep', 0.0, -905.5138713733998, 0.0, 0.0, 0.0, 0.0, 1492.6718464698608, 0.0]
['beep', 0.0, -909.0454469973382, 0.0, 0.0, 0.0, 0.0, 1492.2024598362996, 0.0]
['beep', 0.0, -908.9783917639724, 0.0, 0.0, 0.0, 0.0, 1494.214116837277, 0.0]
['beep', 0.0, -904.5080428729109, 0.0, 0.0, 0.0, 0.0, 1495.4658145267742, 0.0]
['beep', 0.0, -901.2670399268914, 0.0, 0.0, 0.0, 0.0, 1494.504689515196, 0.0]
['beep', 0.0, -906.7655690628969, 0.0, 0.0, 0.0, 0.0, 1494.7505587042044, 0.0]
['beep', 0.0, -908.3972464081344, 0.0, 0.0, 0.0, 0.0, 1495.734035460238, 0.0]
['beep', 0.0, -908.3078394303132, 0.0, 0.0, 0.0, 0.0, 1494.9293726598469, 0.0]
['beep', 0.0, -909.2019092085254, 0.0, 0.0, 0.0, 0.0, 1494.9070209153917, 0.0]
['beep', 0.0, -906.184423707059, 0.0, 0.0, 0.0, 0.0, 1494.6835034708386, 0.0]
['beep', 0.0, -905.6256300956762, 0.0, 0.0, 0.0, 0.0, 1494.3929307929195, 0.0]
['beep', 0.0, -906.9443830185394, 0.0, 0.0, 0.0, 0.0, 1493.4988610147072, 0.0]
['beep', 0.0, -906.9443830185394, 0.0, 0.0, 0.0, 0.0, 1492.0012941362018, 0.0]
['beep', 0.0, -906.0056097514165, 0.0, 0.0, 0.0, 0.0, 1494.4152825373749, 0.0]
['beep', 0.0, -909.9618685200059, 0.0, 0.0, 0.0, 0.0, 1492.9624191477799, 0.0]
['beep', 0.0, -913.6499063551315, 0.0, 0.0, 0.0, 0.0, 1492.0683493695676, 0.0]
['beep', 0.0, -908.8442812972405, 0.0, 0.0, 0.0, 0.0, 1493.3871022924309, 0.0]
['beep', 0.0, -904.8209672952852, 0.0, 0.0, 0.0, 0.0, 1494.348227304009, 0.0]
['beep', 0.0, -908.6878190860533, 0.0, 0.0, 0.0, 0.0, 1492.5824394920396, 0.0]
['beep', 0.0, -910.0512754978271, 0.0, 0.0, 0.0, 0.0, 1492.381273791942, 0.0]
['beep', 0.0, -910.2971446868354, 0.0, 0.0, 0.0, 0.0, 1493.2976953146097, 0.0]
['beep', 0.0, -910.3641999202014, 0.0, 0.0, 0.0, 0.0, 1493.7447302037158, 0.0]
['beep', 0.0, -910.4759586424778, 0.0, 0.0, 0.0, 0.0, 1493.2082883367884, 0.0]
['beep', 0.0, -906.2738306848802, 0.0, 0.0, 0.0, 0.0, 1493.4541575257967, 0.0]
['beep', 0.0, -906.5420516183439, 0.0, 0.0, 0.0, 0.0, 1494.9517244043022, 0.0]
['beep', 0.0, -909.4924818864444, 0.0, 0.0, 0.0, 0.0, 1495.5775732490508, 0.0]
['beep', 0.0, -912.666429599098, 0.0, 0.0, 0.0, 0.0, 1493.0741778700565, 0.0]
['beep', 0.0, -912.4205604100896, 0.0, 0.0, 0.0, 0.0, 1492.2248115807547, 0.0]
['beep', 0.0, -912.5099673879108, 0.0, 0.0, 0.0, 0.0, 1495.1305383599447, 0.0]
['beep', 0.0, -913.4487406550337, 0.0, 0.0, 0.0, 0.0, 1494.862317426481, 0.0]
['beep', 0.0, -916.8238540677851, 0.0, 0.0, 0.0, 0.0, 1495.376407548953, 0.0]
['beep', 0.0, -915.9968395229388, 0.0, 0.0, 0.0, 0.0, 1495.6222767379616, 0.0]
['beep', 0.0, -912.08528424326, 0.0, 0.0, 0.0, 0.0, 1498.1703756058664, 0.0]
['beep', 0.0, -910.0736272422823, 0.0, 0.0, 0.0, 0.0, 1499.0420936396235, 0.0]
['beep', 0.0, -911.0124005094052, 0.0, 0.0, 0.0, 0.0, 1500.3161430735759, 0.0]
['beep', 0.0, -914.566327877799, 0.0, 0.0, 0.0, 0.0, 1500.6290674959503, 0.0]
['beep', 0.0, -916.4662261565002, 0.0, 0.0, 0.0, 0.0, 1502.573669263562, 0.0]
['beep', 0.0, -914.1639964776035, 0.0, 0.0, 0.0, 0.0, 1504.1606431198888, 0.0]
['beep', 0.0, -914.7004383445309, 0.0, 0.0, 0.0, 0.0, 1504.0712361420676, 0.0]
['beep', 0.0, -917.9190895460952, 0.0, 0.0, 0.0, 0.0, 1504.7864919646374, 0.0]
['beep', 0.0, -916.2427087119471, 0.0, 0.0, 0.0, 0.0, 1506.06054139859, 0.0]
['beep', 0.0, -911.7723598208858, 0.0, 0.0, 0.0, 0.0, 1507.2675355991764, 0.0]
['beep', 0.0, -910.922993531584, 0.0, 0.0, 0.0, 0.0, 1506.9322594323469, 0.0]
['beep', 0.0, -911.5935458652433, 0.0, 0.0, 0.0, 0.0, 1507.0440181546235, 0.0]
['beep', 0.0, -913.1581679771148, 0.0, 0.0, 0.0, 0.0, 1508.0945501440228, 0.0]
['beep', 0.0, -916.6450401121426, 0.0, 0.0, 0.0, 0.0, 1508.8768611999585, 0.0]
['beep', 0.0, -914.8792523001733, 0.0, 0.0, 0.0, 0.0, 1509.4133030668859, 0.0]
['beep', 0.0, -910.8112348093075, 0.0, 0.0, 0.0, 0.0, 1510.665000756383, 0.0]
['beep', 0.0, -907.8161010522964, 0.0, 0.0, 0.0, 0.0, 1510.5755937785618, 0.0]
['beep', 0.0, -911.0124005094052, 0.0, 0.0, 0.0, 0.0, 1510.3297245895535, 0.0]
['beep', 0.0, -915.3262871892795, 0.0, 0.0, 0.0, 0.0, 1512.3413815905312, 0.0]
['beep', 0.0, -918.0084965239164, 0.0, 0.0, 0.0, 0.0, 1512.2296228682546, 0.0]
['beep', 0.0, -916.019191267394, 0.0, 0.0, 0.0, 0.0, 1515.314163603087, 0.0]
['beep', 0.0, -914.7004383445309, 0.0, 0.0, 0.0, 0.0, 1517.9069659599027, 0.0]
['beep', 0.0, -915.2592319559136, 0.0, 0.0, 0.0, 0.0, 1517.281117115154, 0.0]
['beep', 0.0, -919.7742843358857, 0.0, 0.0, 0.0, 0.0, 1517.7058002598048, 0.0]
['beep', 0.0, -920.6907058585532, 0.0, 0.0, 0.0, 0.0, 1522.3549631065086, 0.0]
['beep', 0.0, -917.0697232567935, 0.0, 0.0, 0.0, 0.0, 1522.958460206802, 0.0]
['beep', 0.0, -915.9968395229388, 0.0, 0.0, 0.0, 0.0, 1524.0089921962015, 0.0]
['beep', 0.0, -916.2427087119471, 0.0, 0.0, 0.0, 0.0, 1526.0430009416343, 0.0]
['beep', 0.0, -916.3321156897683, 0.0, 0.0, 0.0, 0.0, 1526.2665183861875, 0.0]
['beep', 0.0, -916.890909301151, 0.0, 0.0, 0.0, 0.0, 1525.931242219358, 0.0]
['beep', 0.0, -913.8734237996846, 0.0, 0.0, 0.0, 0.0, 1527.8534922425142, 0.0]
['beep', 0.0, -913.0687609992935, 0.0, 0.0, 0.0, 0.0, 1528.345230620531, 0.0]
['beep', 0.0, -916.0638947563046, 0.0, 0.0, 0.0, 0.0, 1528.6805067873606, 0.0]
['beep', 0.0, -916.667391856598, 0.0, 0.0, 0.0, 0.0, 1530.513349832696, 0.0]
['beep', 0.0, -916.8685575566957, 0.0, 0.0, 0.0, 0.0, 1532.279137644665, 0.0]
['beep', 0.0, -917.472054656989, 0.0, 0.0, 0.0, 0.0, 1534.5143120901957, 0.0]
['beep', 0.0, -918.0308482683716, 0.0, 0.0, 0.0, 0.0, 1535.6318993129612, 0.0]
['beep', 0.0, -915.9521360340282, 0.0, 0.0, 0.0, 0.0, 1535.7436580352376, 0.0]
['beep', 0.0, -913.7840168218634, 0.0, 0.0, 0.0, 0.0, 1538.157646436411, 0.0]
['beep', 0.0, -917.8743860571846, 0.0, 0.0, 0.0, 0.0, 1539.0964197035337, 0.0]
['beep', 0.0, -919.9307465470728, 0.0, 0.0, 0.0, 0.0, 1539.4540476148186, 0.0]
['beep', 0.0, -915.8180255672963, 0.0, 0.0, 0.0, 0.0, 1540.5492830931287, 0.0]
['beep', 0.0, -910.2747929423801, 0.0, 0.0, 0.0, 0.0, 1542.8068092831147, 0.0]
['beep', 0.0, -910.5430138758438, 0.0, 0.0, 0.0, 0.0, 1542.1809604383661, 0.0]
['beep', 0.0, -916.2650604564025, 0.0, 0.0, 0.0, 0.0, 1541.8009807826259, 0.0]
['beep', 0.0, -917.8520343127292, 0.0, 0.0, 0.0, 0.0, 1544.2596726727097, 0.0]
['beep', 0.0, -910.632420853665, 0.0, 0.0, 0.0, 0.0, 1546.1595709514108, 0.0]
['beep', 0.0, -909.3136679308019, 0.0, 0.0, 0.0, 0.0, 1545.824294784581, 0.0]
['beep', 0.0, -913.2699266993912, 0.0, 0.0, 0.0, 0.0, 1547.3665651519973, 0.0]
['beep', 0.0, -911.8170633097964, 0.0, 0.0, 0.0, 0.0, 1549.0652977306006, 0.0]
['beep', 0.0, -908.2407841969472, 0.0, 0.0, 0.0, 0.0, 1548.5512076081286, 0.0]
['beep', 0.0, -910.1183307311929, 0.0, 0.0, 0.0, 0.0, 1550.4511058868297, 0.0]
['beep', 0.0, -914.2534034554247, 0.0, 0.0, 0.0, 0.0, 1551.9263210208799, 0.0]
['beep', 0.0, -913.761665077408, 0.0, 0.0, 0.0, 0.0, 1551.3898791539525, 0.0]
['beep', 0.0, -910.5430138758438, 0.0, 0.0, 0.0, 0.0, 1551.3898791539525, 0.0]
['beep', 0.0, -908.7995778083299, 0.0, 0.0, 0.0, 0.0, 1554.1391437219554, 0.0]
['beep', 0.0, -909.760702819908, 0.0, 0.0, 0.0, 0.0, 1554.9438065223464, 0.0]
['beep', 0.0, -909.8948132866399, 0.0, 0.0, 0.0, 0.0, 1555.2120274558101, 0.0]
['beep', 0.0, -908.3525429192238, 0.0, 0.0, 0.0, 0.0, 1554.764992566704, 0.0]
['beep', 0.0, -908.0843219857601, 0.0, 0.0, 0.0, 0.0, 1556.150800722933, 0.0]
['beep', 0.0, -907.9502115190282, 0.0, 0.0, 0.0, 0.0, 1557.1789809678771, 0.0]
['beep', 0.0, -909.2913161863466, 0.0, 0.0, 0.0, 0.0, 1558.2742164461872, 0.0]
['beep', 0.0, -911.5488423763327, 0.0, 0.0, 0.0, 0.0, 1558.4530304018297, 0.0]
['beep', 0.0, -910.0959789867377, 0.0, 0.0, 0.0, 0.0, 1559.5929693690503, 0.0]
['beep', 0.0, -908.8442812972405, 0.0, 0.0, 0.0, 0.0, 1559.6153211135056, 0.0]
['beep', 0.0, -911.4147319096007, 0.0, 0.0, 0.0, 0.0, 1561.5152193922067, 0.0]
['beep', 0.0, -910.2971446868354, 0.0, 0.0, 0.0, 0.0, 1561.5822746255726, 0.0]
['beep', 0.0, -907.3690661631902, 0.0, 0.0, 0.0, 0.0, 1558.4530304018297, 0.0]
['beep', 0.0, -906.1620719626036, 0.0, 0.0, 0.0, 0.0, 1560.2635217027096, 0.0]
['beep', 0.0, -905.4468161400338, 0.0, 0.0, 0.0, 0.0, 1562.7892688261593, 0.0]
['beep', 0.0, -907.1008452297265, 0.0, 0.0, 0.0, 0.0, 1562.5881031260615, 0.0]
['beep', 0.0, -908.0843219857601, 0.0, 0.0, 0.0, 0.0, 1562.8339723150698, 0.0]
['beep', 0.0, -909.3583714197125, 0.0, 0.0, 0.0, 0.0, 1562.632806614972, 0.0]
['beep', 0.0, -909.6489440976316, 0.0, 0.0, 0.0, 0.0, 1562.2975304481424, 0.0]
['beep', 0.0, -908.9783917639724, 0.0, 0.0, 0.0, 0.0, 1562.9680827818017, 0.0]
['beep', 0.0, -905.4244643955785, 0.0, 0.0, 0.0, 0.0, 1561.112887992011, 0.0]
['beep', 0.0, -904.7762638063746, 0.0, 0.0, 0.0, 0.0, 1560.7552600807262, 0.0]
['beep', 0.0, -908.3525429192238, 0.0, 0.0, 0.0, 0.0, 1561.0011292697347, 0.0]
['beep', 0.0, -908.2184324524919, 0.0, 0.0, 0.0, 0.0, 1561.5152193922067, 0.0]
['beep', 0.0, -907.1902522075477, 0.0, 0.0, 0.0, 0.0, 1561.0011292697347, 0.0]
['beep', 0.0, -903.6810283280646, 0.0, 0.0, 0.0, 0.0, 1561.4481641588409, 0.0]
['beep', 0.0, -900.149452704126, 0.0, 0.0, 0.0, 0.0, 1561.112887992011, 0.0]
['beep', 0.0, -901.021170737883, 0.0, 0.0, 0.0, 0.0, 1561.3587571810197, 0.0]
['beep', 0.0, -903.5469178613326, 0.0, 0.0, 0.0, 0.0, 1560.6211496139945, 0.0]
['beep', 0.0, -906.7432173184416, 0.0, 0.0, 0.0, 0.0, 1560.5764461250837, 0.0]
['beep', 0.0, -906.9443830185394, 0.0, 0.0, 0.0, 0.0, 1563.1468967374442, 0.0]
['beep', 0.0, -907.1231969741818, 0.0, 0.0, 0.0, 0.0, 1564.1527252379328, 0.0]
['beep', 0.0, -900.1941561930366, 0.0, 0.0, 0.0, 0.0, 1562.275178703687, 0.0]
['beep', 0.0, -899.277734670369, 0.0, 0.0, 0.0, 0.0, 1561.761088581215, 0.0]
['beep', 0.0, -905.3797609066679, 0.0, 0.0, 0.0, 0.0, 1560.9117222919135, 0.0]
['beep', 0.0, -908.7995778083299, 0.0, 0.0, 0.0, 0.0, 1562.051661259134, 0.0]
['beep', 0.0, -906.8773277851734, 0.0, 0.0, 0.0, 0.0, 1561.5822746255726, 0.0]
['beep', 0.0, -908.1290254746707, 0.0, 0.0, 0.0, 0.0, 1559.570617624595, 0.0]
['beep', 0.0, -912.2193947099919, 0.0, 0.0, 0.0, 0.0, 1559.1235827354888, 0.0]
['beep', 0.0, -913.4040371661231, 0.0, 0.0, 0.0, 0.0, 1559.0788792465783, 0.0]
['beep', 0.0, -910.4312551535672, 0.0, 0.0, 0.0, 0.0, 1559.1682862243995, 0.0]
['beep', 0.0, -906.0279614958718, 0.0, 0.0, 0.0, 0.0, 1559.8835420469693, 0.0]
['beep', 0.0, -905.4915196289444, 0.0, 0.0, 0.0, 0.0, 1559.503562391229, 0.0]
['beep', 0.0, -909.023095252883, 0.0, 0.0, 0.0, 0.0, 1558.6318443574721, 0.0]
['beep', 0.0, -911.5488423763327, 0.0, 0.0, 0.0, 0.0, 1559.570617624595, 0.0]
['beep', 0.0, -909.5595371198103, 0.0, 0.0, 0.0, 0.0, 1560.799963569637, 0.0]
['beep', 0.0, -908.6654673415981, 0.0, 0.0, 0.0, 0.0, 1558.8777135464804, 0.0]
['beep', 0.0, -910.408903409112, 0.0, 0.0, 0.0, 0.0, 1557.5142571347067, 0.0]
['beep', 0.0, -912.442912154545, 0.0, 0.0, 0.0, 0.0, 1558.9000652909358, 0.0]
['beep', 0.0, -910.5877173647544, 0.0, 0.0, 0.0, 0.0, 1559.6823763468715, 0.0]
['beep', 0.0, -910.1630342201036, 0.0, 0.0, 0.0, 0.0, 1558.5200856351955, 0.0]
['beep', 0.0, -910.7665313203969, 0.0, 0.0, 0.0, 0.0, 1557.7601263237152, 0.0]
['beep', 0.0, -910.8782900426734, 0.0, 0.0, 0.0, 0.0, 1558.6765478463826, 0.0]
['beep', 0.0, -913.6722580995868, 0.0, 0.0, 0.0, 0.0, 1557.9836437682682, 0.0]
['beep', 0.0, -914.0298860108717, 0.0, 0.0, 0.0, 0.0, 1559.056527502123, 0.0]
['beep', 0.0, -912.6440778546427, 0.0, 0.0, 0.0, 0.0, 1559.9058937914247, 0.0]
['beep', 0.0, -911.1912144650477, 0.0, 0.0, 0.0, 0.0, 1559.8835420469693, 0.0]
['beep', 0.0, -911.1241592316818, 0.0, 0.0, 0.0, 0.0, 1559.9729490247905, 0.0]
['beep', 0.0, -911.8170633097964, 0.0, 0.0, 0.0, 0.0, 1559.9505972803352, 0.0]
['beep', 0.0, -910.4312551535672, 0.0, 0.0, 0.0, 0.0, 1559.4588589023185, 0.0]
['beep', 0.0, -908.956040019517, 0.0, 0.0, 0.0, 0.0, 1558.6541961019275, 0.0]
['beep', 0.0, -907.3690661631902, 0.0, 0.0, 0.0, 0.0, 1558.7212513352933, 0.0]
['beep', 0.0, -908.2407841969472, 0.0, 0.0, 0.0, 0.0, 1557.6483676014386, 0.0]
['beep', 0.0, -910.632420853665, 0.0, 0.0, 0.0, 0.0, 1559.0118240132124, 0.0]
['beep', 0.0, -913.0911127437488, 0.0, 0.0, 0.0, 0.0, 1558.9447687798463, 0.0]
['beep', 0.0, -915.0357145113605, 0.0, 0.0, 0.0, 0.0, 1558.8777135464804, 0.0]
['beep', 0.0, -915.4603976560113, 0.0, 0.0, 0.0, 0.0, 1557.894236790447, 0.0]
['beep', 0.0, -912.8899470436511, 0.0, 0.0, 0.0, 0.0, 1557.4919053902515, 0.0]
['beep', 0.0, -909.5818888642656, 0.0, 0.0, 0.0, 0.0, 1557.7601263237152, 0.0]
['beep', 0.0, -910.4759586424778, 0.0, 0.0, 0.0, 0.0, 1557.9165885349023, 0.0]
['beep', 0.0, -914.0745894997823, 0.0, 0.0, 0.0, 0.0, 1558.7883065686592, 0.0]
['beep', 0.0, -912.2417464544471, 0.0, 0.0, 0.0, 0.0, 1558.2071612128213, 0.0]
['beep', 0.0, -910.8112348093075, 0.0, 0.0, 0.0, 0.0, 1559.6153211135056, 0.0]
['beep', 0.0, -908.8442812972405, 0.0, 0.0, 0.0, 0.0, 1559.21298971331, 0.0]
['beep', 0.0, -910.4312551535672, 0.0, 0.0, 0.0, 0.0, 1558.2518647017318, 0.0]
['beep', 0.0, -912.6887813435533, 0.0, 0.0, 0.0, 0.0, 1558.0954024905448, 0.0]
['beep', 0.0, -912.2193947099919, 0.0, 0.0, 0.0, 0.0, 1559.6600246024161, 0.0]
['beep', 0.0, -911.3029731873243, 0.0, 0.0, 0.0, 0.0, 1558.2518647017318, 0.0]
['beep', 0.0, -910.1853859645589, 0.0, 0.0, 0.0, 0.0, 1558.6541961019275, 0.0]
['beep', 0.0, -910.99004876495, 0.0, 0.0, 0.0, 0.0, 1558.4530304018297, 0.0]
['beep', 0.0, -912.3311534322684, 0.0, 0.0, 0.0, 0.0, 1560.3305769360754, 0.0]
['beep', 0.0, -912.4876156434556, 0.0, 0.0, 0.0, 0.0, 1560.5540943806286, 0.0]
['beep', 0.0, -914.0745894997823, 0.0, 0.0, 0.0, 0.0, 1562.923379292891, 0.0]
['beep', 0.0, -915.1698249780924, 0.0, 0.0, 0.0, 0.0, 1561.7163850923046, 0.0]
['beep', 0.0, -917.5614616348103, 0.0, 0.0, 0.0, 0.0, 1560.3529286805308, 0.0]
['beep', 0.0, -917.5614616348103, 0.0, 0.0, 0.0, 0.0, 1562.5881031260615, 0.0]
['beep', 0.0, -913.1134644882042, 0.0, 0.0, 0.0, 0.0, 1564.666815360405, 0.0]
['beep', 0.0, -907.2126039520031, 0.0, 0.0, 0.0, 0.0, 1563.1245449929888, 0.0]
['beep', 0.0, -910.6994760870309, 0.0, 0.0, 0.0, 0.0, 1562.7892688261593, 0.0]
['beep', 0.0, -913.4934441439443, 0.0, 0.0, 0.0, 0.0, 1563.5268763931842, 0.0]
['beep', 0.0, -912.4876156434556, 0.0, 0.0, 0.0, 0.0, 1565.4044229274302, 0.0]
['beep', 0.0, -912.1076359877153, 0.0, 0.0, 0.0, 0.0, 1567.1255072504887, 0.0]
['beep', 0.0, -916.019191267394, 0.0, 0.0, 0.0, 0.0, 1565.9632165388127, 0.0]
['beep', 0.0, -916.9132610456063, 0.0, 0.0, 0.0, 0.0, 1568.31014970662, 0.0]
['beep', 0.0, -913.0017057659276, 0.0, 0.0, 0.0, 0.0, 1567.3937281839524, 0.0]
['beep', 0.0, -913.6052028662209, 0.0, 0.0, 0.0, 0.0, 1568.3995566844412, 0.0]
['beep', 0.0, -914.0075342664164, 0.0, 0.0, 0.0, 0.0, 1568.8242398290922, 0.0]
['beep', 0.0, -909.3583714197125, 0.0, 0.0, 0.0, 0.0, 1570.2100479853211, 0.0]
['beep', 0.0, -908.9336882750617, 0.0, 0.0, 0.0, 0.0, 1570.2994549631424, 0.0]
['beep', 0.0, -911.0124005094052, 0.0, 0.0, 0.0, 0.0, 1569.8524200740362, 0.0]
['beep', 0.0, -908.2854876858578, 0.0, 0.0, 0.0, 0.0, 1573.0934230200558, 0.0]
['beep', 0.0, -905.1785952065701, 0.0, 0.0, 0.0, 0.0, 1573.696920120349, 0.0]
['beep', 0.0, -904.5750981062769, 0.0, 0.0, 0.0, 0.0, 1573.473402675796, 0.0]
['beep', 0.0, -907.4137696521008, 0.0, 0.0, 0.0, 0.0, 1574.6580451319273, 0.0]
['beep', 0.0, -910.5877173647544, 0.0, 0.0, 0.0, 0.0, 1574.7027486208378, 0.0]
['beep', 0.0, -909.8501097977293, 0.0, 0.0, 0.0, 0.0, 1575.1050800210335, 0.0]
['beep', 0.0, -907.570231863288, 0.0, 0.0, 0.0, 0.0, 1575.3956526989523, 0.0]
['beep', 0.0, -907.860804541207, 0.0, 0.0, 0.0, 0.0, 1575.663873632416, 0.0]
['beep', 0.0, -909.4924818864444, 0.0, 0.0, 0.0, 0.0, 1576.535591666173, 0.0]
['beep', 0.0, -910.1183307311929, 0.0, 0.0, 0.0, 0.0, 1577.8990480779469, 0.0]
['beep', 0.0, -908.3972464081344, 0.0, 0.0, 0.0, 0.0, 1577.7202341223044, 0.0]
['beep', 0.0, -906.2738306848802, 0.0, 0.0, 0.0, 0.0, 1578.5472486671506, 0.0]
['beep', 0.0, -901.2446881824361, 0.0, 0.0, 0.0, 0.0, 1576.9379230663685, 0.0]
['beep', 0.0, -901.8258335382741, 0.0, 0.0, 0.0, 0.0, 1578.3684347115081, 0.0]
['beep', 0.0, -905.603278351221, 0.0, 0.0, 0.0, 0.0, 1582.0788242910892, 0.0]
['beep', 0.0, -906.7208655739863, 0.0, 0.0, 0.0, 0.0, 1579.4636701898182, 0.0]
['beep', 0.0, -902.6081445942098, 0.0, 0.0, 0.0, 0.0, 1580.2906847346646, 0.0]
['beep', 0.0, -898.2048509365143, 0.0, 0.0, 0.0, 0.0, 1580.5142021792178, 0.0]
['beep', 0.0, -899.1883276925478, 0.0, 0.0, 0.0, 0.0, 1581.9000103354467, 0.0]
['beep', 0.0, -906.5420516183439, 0.0, 0.0, 0.0, 0.0, 1583.0399493026673, 0.0]
['beep', 0.0, -909.1572057196148, 0.0, 0.0, 0.0, 0.0, 1582.4141004579187, 0.0]
['beep', 0.0, -901.2670399268914, 0.0, 0.0, 0.0, 0.0, 1581.8106033576255, 0.0]
['beep', 0.0, -900.216507937492, 0.0, 0.0, 0.0, 0.0, 1581.1400510239664, 0.0]
['beep', 0.0, -903.4798626279668, 0.0, 0.0, 0.0, 0.0, 1582.4141004579187, 0.0]
['beep', 0.0, -903.6139730946986, 0.0, 0.0, 0.0, 0.0, 1583.5763911695947, 0.0]
['beep', 0.0, -900.79765329333, 0.0, 0.0, 0.0, 0.0, 1583.8222603586032, 0.0]
['beep', 0.0, -899.9929904929389, 0.0, 0.0, 0.0, 0.0, 1583.2634667472205, 0.0]
['beep', 0.0, -901.7140748159975, 0.0, 0.0, 0.0, 0.0, 1583.2411150027651, 0.0]
['beep', 0.0, -901.0435224823383, 0.0, 0.0, 0.0, 0.0, 1584.1575365254328, 0.0]
['beep', 0.0, -899.0095137369053, 0.0, 0.0, 0.0, 0.0, 1584.537516181173, 0.0]
['beep', 0.0, -898.0036852364166, 0.0, 0.0, 0.0, 0.0, 1584.3587022255306, 0.0]
['beep', 0.0, -899.9929904929389, 0.0, 0.0, 0.0, 0.0, 1584.9398475813684, 0.0]
['beep', 0.0, -901.2446881824361, 0.0, 0.0, 0.0, 0.0, 1583.8446121030584, 0.0]
['beep', 0.0, -902.0046474939165, 0.0, 0.0, 0.0, 0.0, 1582.12352778, 0.0]
['beep', 0.0, -901.9152405160953, 0.0, 0.0, 0.0, 0.0, 1584.4704609478072, 0.0]
['beep', 0.0, -898.8083480368076, 0.0, 0.0, 0.0, 0.0, 1585.118661537011, 0.0]
['beep', 0.0, -897.2437259249361, 0.0, 0.0, 0.0, 0.0, 1584.0457778031562, 0.0]
['beep', 0.0, -902.5410893608439, 0.0, 0.0, 0.0, 0.0, 1583.5763911695947, 0.0]
['beep', 0.0, -906.184423707059, 0.0, 0.0, 0.0, 0.0, 1584.0010743142457, 0.0]
['beep', 0.0, -903.8374905392517, 0.0, 0.0, 0.0, 0.0, 1584.5822196700835, 0.0]
['beep', 0.0, -899.4789003704668, 0.0, 0.0, 0.0, 0.0, 1585.051606303645, 0.0]
['beep', 0.0, -896.9531532470171, 0.0, 0.0, 0.0, 0.0, 1585.6551034039383, 0.0]
['beep', 0.0, -899.9035835151177, 0.0, 0.0, 0.0, 0.0, 1583.5316876806842, 0.0]
['beep', 0.0, -902.0717027272824, 0.0, 0.0, 0.0, 0.0, 1584.7163301368155, 0.0]
['beep', 0.0, -898.6295340811652, 0.0, 0.0, 0.0, 0.0, 1584.828088859092, 0.0]
['beep', 0.0, -894.8297375237629, 0.0, 0.0, 0.0, 0.0, 1584.761033625726, 0.0]
['beep', 0.0, -898.6295340811652, 0.0, 0.0, 0.0, 0.0, 1584.6939783923601, 0.0]
['beep', 0.0, -903.278696927869, 0.0, 0.0, 0.0, 0.0, 1582.950542324846, 0.0]
['beep', 0.0, -939.600281667743, 0.0, 0.0, 0.0, 0.0, 1555.435544900363, 0.0]
['beep', 0.0, -939.5779299232877, 0.0, 0.0, 0.0, 0.0, 1553.7591640662151, 0.0]
['beep', 0.0, -942.9306915915837, 0.0, 0.0, 0.0, 0.0, 1557.1119257345113, 0.0]
['beep', 0.0, -941.0531450573379, 0.0, 0.0, 0.0, 0.0, 1556.1060972340224, 0.0]
['beep', 0.0, -937.6780316445866, 0.0, 0.0, 0.0, 0.0, 1555.6590623449163, 0.0]
['beep', 0.0, -937.3874589666676, 0.0, 0.0, 0.0, 0.0, 1555.4802483892738, 0.0]
['beep', 0.0, -942.1930840245586, 0.0, 0.0, 0.0, 0.0, 1555.122620477989, 0.0]
['beep', 0.0, -941.4107729686228, 0.0, 0.0, 0.0, 0.0, 1554.6755855888828, 0.0]
['beep', 0.0, -937.1862932665698, 0.0, 0.0, 0.0, 0.0, 1552.954501265824, 0.0]
['beep', 0.0, -933.8335315982738, 0.0, 0.0, 0.0, 0.0, 1553.960329766313, 0.0]
['beep', 0.0, -939.1308950341815, 0.0, 0.0, 0.0, 0.0, 1553.8038675551259, 0.0]
['beep', 0.0, -943.310671247324, 0.0, 0.0, 0.0, 0.0, 1550.5628646091063, 0.0]
['beep', 0.0, -942.1707322801033, 0.0, 0.0, 0.0, 0.0, 1550.7416785647488, 0.0]
['beep', 0.0, -935.3981537101453, 0.0, 0.0, 0.0, 0.0, 1551.4569343873186, 0.0]
['beep', 0.0, -932.5594821643213, 0.0, 0.0, 0.0, 0.0, 1550.6299198424722, 0.0]
['beep', 0.0, -933.5876624092654, 0.0, 0.0, 0.0, 0.0, 1549.1770564528772, 0.0]
['beep', 0.0, -933.7441246204526, 0.0, 0.0, 0.0, 0.0, 1548.6182628414945, 0.0]
['beep', 0.0, -933.6770693870866, 0.0, 0.0, 0.0, 0.0, 1549.8476087865365, 0.0]
['beep', 0.0, -931.1289705191816, 0.0, 0.0, 0.0, 0.0, 1548.215931441299, 0.0]
['beep', 0.0, -930.8831013301732, 0.0, 0.0, 0.0, 0.0, 1548.6182628414945, 0.0]
['beep', 0.0, -932.0900955307599, 0.0, 0.0, 0.0, 0.0, 1548.5512076081286, 0.0]
['beep', 0.0, -934.5711391652989, 0.0, 0.0, 0.0, 0.0, 1547.8806552744693, 0.0]
['beep', 0.0, -934.213511254014, 0.0, 0.0, 0.0, 0.0, 1549.8029052976258, 0.0]
['beep', 0.0, -932.1124472752151, 0.0, 0.0, 0.0, 0.0, 1549.9593675088129, 0.0]
['beep', 0.0, -930.6819356300755, 0.0, 0.0, 0.0, 0.0, 1548.8864837749582, 0.0]
['beep', 0.0, -932.1571507641257, 0.0, 0.0, 0.0, 0.0, 1550.1381814644553, 0.0]
['beep', 0.0, -934.437028698567, 0.0, 0.0, 0.0, 0.0, 1550.4958093757402, 0.0]
['beep', 0.0, -932.7159443755085, 0.0, 0.0, 0.0, 0.0, 1550.9651960093017, 0.0]
['beep', 0.0, -929.698458874042, 0.0, 0.0, 0.0, 0.0, 1549.892312275447, 0.0]
['beep', 0.0, -929.2737757293911, 0.0, 0.0, 0.0, 0.0, 1548.148876207933, 0.0]
['beep', 0.0, -933.1629792646146, 0.0, 0.0, 0.0, 0.0, 1545.2431494287432, 0.0]
['beep', 0.0, -936.1134095327151, 0.0, 0.0, 0.0, 0.0, 1545.9360535068577, 0.0]
['beep', 0.0, -932.5818339087766, 0.0, 0.0, 0.0, 0.0, 1547.4336203853632, 0.0]
['beep', 0.0, -926.859787328218, 0.0, 0.0, 0.0, 0.0, 1543.9690999947907, 0.0]
['beep', 0.0, -924.244633226947, 0.0, 0.0, 0.0, 0.0, 1540.3257656485755, 0.0]
['beep', 0.0, -925.8092553388185, 0.0, 0.0, 0.0, 0.0, 1540.2140069262991, 0.0]
['beep', 0.0, -929.1620170071146, 0.0, 0.0, 0.0, 0.0, 1534.760181279204, 0.0]
['beep', 0.0, -929.0949617737487, 0.0, 0.0, 0.0, 0.0, 1533.6872975453493, 0.0]
['beep', 0.0, -923.1493977486369, 0.0, 0.0, 0.0, 0.0, 1530.8486259995254, 0.0]
['beep', 0.0, -918.2990692018353, 0.0, 0.0, 0.0, 0.0, 1526.7582567642041, 0.0]
['beep', 0.0, -920.601298880732, 0.0, 0.0, 0.0, 0.0, 1528.702858531816, 0.0]
['beep', 0.0, -923.2164529820029, 0.0, 0.0, 0.0, 0.0, 1527.3394021200422, 0.0]
['beep', 0.0, -922.5011971594331, 0.0, 0.0, 0.0, 0.0, 1524.5454340631288, 0.0]
['beep', 0.0, -919.3496011912348, 0.0, 0.0, 0.0, 0.0, 1523.5843090515507, 0.0]
['beep', 0.0, -919.0590285133158, 0.0, 0.0, 0.0, 0.0, 1522.8019979956148, 0.0]
['beep', 0.0, -921.405961681123, 0.0, 0.0, 0.0, 0.0, 1523.7854747516483, 0.0]
['beep', 0.0, -922.791769837352, 0.0, 0.0, 0.0, 0.0, 1525.640669541439, 0.0]
['beep', 0.0, -922.1435692481482, 0.0, 0.0, 0.0, 0.0, 1525.2606898856986, 0.0]
['beep', 0.0, -918.7461040909415, 0.0, 0.0, 0.0, 0.0, 1524.7913032521371, 0.0]
['beep', 0.0, -918.1426069906482, 0.0, 0.0, 0.0, 0.0, 1525.4842073302518, 0.0]
['beep', 0.0, -919.5954703802432, 0.0, 0.0, 0.0, 0.0, 1525.8641869859919, 0.0]
['beep', 0.0, -920.4224849250895, 0.0, 0.0, 0.0, 0.0, 1524.9701172077796, 0.0]
['beep', 0.0, -919.2378424689582, 0.0, 0.0, 0.0, 0.0, 1525.8418352415367, 0.0]
['beep', 0.0, -914.9910110224499, 0.0, 0.0, 0.0, 0.0, 1526.4676840862853, 0.0]
['beep', 0.0, -912.7334848324639, 0.0, 0.0, 0.0, 0.0, 1527.764085264693, 0.0]
['beep', 0.0, -914.5216243888884, 0.0, 0.0, 0.0, 0.0, 1527.5852713090505, 0.0]
['beep', 0.0, -916.019191267394, 0.0, 0.0, 0.0, 0.0, 1527.115884675489, 0.0]
['beep', 0.0, -915.8850808006622, 0.0, 0.0, 0.0, 0.0, 1529.2840038876539, 0.0]
['beep', 0.0, -914.0969412442377, 0.0, 0.0, 0.0, 0.0, 1528.6581550429053, 0.0]
['beep', 0.0, -913.3146301883019, 0.0, 0.0, 0.0, 0.0, 1527.8311404980589, 0.0]
['beep', 0.0, -916.1085982452153, 0.0, 0.0, 0.0, 0.0, 1527.7864370091484, 0.0]
['beep', 0.0, -918.567290135299, 0.0, 0.0, 0.0, 0.0, 1528.546396320629, 0.0]
['beep', 0.0, -917.8073308238186, 0.0, 0.0, 0.0, 0.0, 1527.9428992203354, 0.0]
['beep', 0.0, -920.0425052693494, 0.0, 0.0, 0.0, 0.0, 1528.859320743003, 0.0]
['beep', 0.0, -918.4555314130225, 0.0, 0.0, 0.0, 0.0, 1529.1722451653775, 0.0]
['beep', 0.0, -911.9511737765282, 0.0, 0.0, 0.0, 0.0, 1525.283041630154, 0.0]
['beep', 0.0, -910.922993531584, 0.0, 0.0, 0.0, 0.0, 1526.6464980419278, 0.0]
['beep', 0.0, -916.3544674342237, 0.0, 0.0, 0.0, 0.0, 1526.5347393196512, 0.0]
['beep', 0.0, -917.4497029125337, 0.0, 0.0, 0.0, 0.0, 1526.892367230936, 0.0]
['beep', 0.0, -910.4312551535672, 0.0, 0.0, 0.0, 0.0, 1525.797131752626, 0.0]
['beep', 0.0, -909.9171650310952, 0.0, 0.0, 0.0, 0.0, 1520.5891752945395, 0.0]
['beep', 0.0, -911.1912144650477, 0.0, 0.0, 0.0, 0.0, 1521.8855764729474, 0.0]
['beep', 0.0, -908.8889847861511, 0.0, 0.0, 0.0, 0.0, 1523.7631230071931, 0.0]
['beep', 0.0, -905.9832580069611, 0.0, 0.0, 0.0, 0.0, 1521.0138584391902, 0.0]
['beep', 0.0, -906.5196998738885, 0.0, 0.0, 0.0, 0.0, 1518.510463060196, 0.0]
['beep', 0.0, -908.4643016415002, 0.0, 0.0, 0.0, 0.0, 1517.1917101373328, 0.0]
['beep', 0.0, -905.7373888179528, 0.0, 0.0, 0.0, 0.0, 1516.7893787371372, 0.0]
['beep', 0.0, -903.4128073946008, 0.0, 0.0, 0.0, 0.0, 1515.53768104764, 0.0]
['beep', 0.0, -901.021170737883, 0.0, 0.0, 0.0, 0.0, 1512.7213612462715, 0.0]
['beep', 0.0, -900.5294323598663, 0.0, 0.0, 0.0, 0.0, 1511.0449804121233, 0.0]
['beep', 0.0, -901.021170737883, 0.0, 0.0, 0.0, 0.0, 1509.8826897004474, 0.0]
['beep', 0.0, -903.1445864611371, 0.0, 0.0, 0.0, 0.0, 1506.06054139859, 0.0]
['beep', 0.0, -904.6198015951875, 0.0, 0.0, 0.0, 0.0, 1503.6242012529615, 0.0]
['beep', 0.0, -900.8200050377852, 0.0, 0.0, 0.0, 0.0, 1505.255878598199, 0.0]
['beep', 0.0, -899.0542172258159, 0.0, 0.0, 0.0, 0.0, 1504.4065123088972, 0.0]
['beep', 0.0, -900.9541155045171, 0.0, 0.0, 0.0, 0.0, 1502.6183727524726, 0.0]
['beep', 0.0, -901.311743415802, 0.0, 0.0, 0.0, 0.0, 1503.1548146194, 0.0]
['beep', 0.0, -901.2670399268914, 0.0, 0.0, 0.0, 0.0, 1503.1995181083105, 0.0]
['beep', 0.0, -900.1271009596708, 0.0, 0.0, 0.0, 0.0, 1505.1888233648328, 0.0]
['beep', 0.0, -899.5236038593774, 0.0, 0.0, 0.0, 0.0, 1505.1888233648328, 0.0]
['beep', 0.0, -899.7918247928411, 0.0, 0.0, 0.0, 0.0, 1503.3559803194978, 0.0]
['beep', 0.0, -901.2446881824361, 0.0, 0.0, 0.0, 0.0, 1504.3618088199864, 0.0]
['beep', 0.0, -900.6635428265981, 0.0, 0.0, 0.0, 0.0, 1505.7252652317602, 0.0]
['beep', 0.0, -898.7189410589864, 0.0, 0.0, 0.0, 0.0, 1505.6805617428497, 0.0]
['beep', 0.0, -897.6684090695869, 0.0, 0.0, 0.0, 0.0, 1505.6135065094838, 0.0]
['beep', 0.0, -899.2553829259138, 0.0, 0.0, 0.0, 0.0, 1504.9429541758245, 0.0]
['beep', 0.0, -901.0435224823383, 0.0, 0.0, 0.0, 0.0, 1504.898250686914, 0.0]
['beep', 0.0, -899.2553829259138, 0.0, 0.0, 0.0, 0.0, 1506.0381896541346, 0.0]
['beep', 0.0, -897.6237055806763, 0.0, 0.0, 0.0, 0.0, 1505.1664716203777, 0.0]
['beep', 0.0, -898.182499192059, 0.0, 0.0, 0.0, 0.0, 1504.5853262645396, 0.0]
['beep', 0.0, -901.1776329490701, 0.0, 0.0, 0.0, 0.0, 1504.4288640533525, 0.0]
['beep', 0.0, -898.9424585035395, 0.0, 0.0, 0.0, 0.0, 1504.1159396309781, 0.0]
['beep', 0.0, -894.3827026346568, 0.0, 0.0, 0.0, 0.0, 1505.635858253939, 0.0]
['beep', 0.0, -896.4390631245451, 0.0, 0.0, 0.0, 0.0, 1504.026532653157, 0.0]
['beep', 0.0, -902.0717027272824, 0.0, 0.0, 0.0, 0.0, 1500.4726052847632, 0.0]
['beep', 0.0, -900.0376939818495, 0.0, 0.0, 0.0, 0.0, 1498.2597825836876, 0.0]
['beep', 0.0, -898.9424585035395, 0.0, 0.0, 0.0, 0.0, 1499.3326663175424, 0.0]
['beep', 0.0, -899.5236038593774, 0.0, 0.0, 0.0, 0.0, 1498.0139133946793, 0.0]
['beep', 0.0, -896.9978567359277, 0.0, 0.0, 0.0, 0.0, 1497.253954083199, 0.0]
['beep', 0.0, -893.2204119229808, 0.0, 0.0, 0.0, 0.0, 1496.0469598826123, 0.0]
['beep', 0.0, -894.5838683347546, 0.0, 0.0, 0.0, 0.0, 1495.0634831265788, 0.0]
['beep', 0.0, -900.4176736375897, 0.0, 0.0, 0.0, 0.0, 1496.9410296608246, 0.0]
['beep', 0.0, -900.9541155045171, 0.0, 0.0, 0.0, 0.0, 1495.2870005711318, 0.0]
['beep', 0.0, -894.3379991457462, 0.0, 0.0, 0.0, 0.0, 1493.5882679925285, 0.0]
['beep', 0.0, -892.2592869114027, 0.0, 0.0, 0.0, 0.0, 1493.4541575257967, 0.0]
['beep', 0.0, -894.8297375237629, 0.0, 0.0, 0.0, 0.0, 1492.2695150696654, 0.0]
['beep', 0.0, -897.958981747506, 0.0, 0.0, 0.0, 0.0, 1490.1460993464113, 0.0]
['beep', 0.0, -897.4448916250338, 0.0, 0.0, 0.0, 0.0, 1490.8390034245258, 0.0]
['beep', 0.0, -895.276772412869, 0.0, 0.0, 0.0, 0.0, 1491.3307418025424, 0.0]
['beep', 0.0, -894.6285718236652, 0.0, 0.0, 0.0, 0.0, 1490.8166516800704, 0.0]
['beep', 0.0, -895.8132142797965, 0.0, 0.0, 0.0, 0.0, 1490.995465635713, 0.0]
['beep', 0.0, -897.310781158302, 0.0, 0.0, 0.0, 0.0, 1490.2131545797772, 0.0]
['beep', 0.0, -896.3496561467239, 0.0, 0.0, 0.0, 0.0, 1487.6874074563275, 0.0]
['beep', 0.0, -894.8744410126735, 0.0, 0.0, 0.0, 0.0, 1488.9391051458247, 0.0]
['beep', 0.0, -894.3156474012909, 0.0, 0.0, 0.0, 0.0, 1487.2403725672214, 0.0]
['beep', 0.0, -896.1261387021708, 0.0, 0.0, 0.0, 0.0, 1485.7428056887159, 0.0]
['beep', 0.0, -896.9531532470171, 0.0, 0.0, 0.0, 0.0, 1486.3910062779196, 0.0]
['beep', 0.0, -897.0202084803831, 0.0, 0.0, 0.0, 0.0, 1487.9779801342465, 0.0]
['beep', 0.0, -894.9861997349501, 0.0, 0.0, 0.0, 0.0, 1487.6203522229616, 0.0]
['beep', 0.0, -894.6732753125758, 0.0, 0.0, 0.0, 0.0, 1485.9663231332688, 0.0]
['beep', 0.0, -895.9026212576177, 0.0, 0.0, 0.0, 0.0, 1485.6310469664393, 0.0]
['beep', 0.0, -898.0036852364166, 0.0, 0.0, 0.0, 0.0, 1486.413358022375, 0.0]
['beep', 0.0, -897.1766706915702, 0.0, 0.0, 0.0, 0.0, 1486.7486341892045, 0.0]
['beep', 0.0, -894.1591851901037, 0.0, 0.0, 0.0, 0.0, 1487.5980004785063, 0.0]
['beep', 0.0, -893.2651154118914, 0.0, 0.0, 0.0, 0.0, 1486.860392911481, 0.0]
['beep', 0.0, -895.1650136905926, 0.0, 0.0, 0.0, 0.0, 1486.547468489107, 0.0]
['beep', 0.0, -895.6791038130647, 0.0, 0.0, 0.0, 0.0, 1485.7204539442605, 0.0]
['beep', 0.0, -894.5615165902992, 0.0, 0.0, 0.0, 0.0, 1485.6981021998051, 0.0]
['beep', 0.0, -892.8404322672407, 0.0, 0.0, 0.0, 0.0, 1485.3404742885202, 0.0]
['beep', 0.0, -892.5945630782322, 0.0, 0.0, 0.0, 0.0, 1484.9157911438695, 0.0]
['beep', 0.0, -893.667446812087, 0.0, 0.0, 0.0, 0.0, 1483.440576009819, 0.0]
['beep', 0.0, -895.1650136905926, 0.0, 0.0, 0.0, 0.0, 1483.127651587445, 0.0]
['beep', 0.0, -895.1426619461372, 0.0, 0.0, 0.0, 0.0, 1483.4182242653637, 0.0]
['beep', 0.0, -892.9745427339725, 0.0, 0.0, 0.0, 0.0, 1483.1723550763554, 0.0]
['beep', 0.0, -891.3875688776457, 0.0, 0.0, 0.0, 0.0, 1482.4347475093302, 0.0]
['beep', 0.0, -893.7792055343635, 0.0, 0.0, 0.0, 0.0, 1482.8817823984364, 0.0]
['beep', 0.0, -895.8579177687071, 0.0, 0.0, 0.0, 0.0, 1482.0994713425007, 0.0]
['beep', 0.0, -895.5002898574221, 0.0, 0.0, 0.0, 0.0, 1483.127651587445, 0.0]
['beep', 0.0, -892.1922316780367, 0.0, 0.0, 0.0, 0.0, 1483.4629277542745, 0.0]
['beep', 0.0, -893.086301456249, 0.0, 0.0, 0.0, 0.0, 1481.1383463309226, 0.0]
['beep', 0.0, -894.539164845844, 0.0, 0.0, 0.0, 0.0, 1480.534849230629, 0.0]
['beep', 0.0, -897.1096154582043, 0.0, 0.0, 0.0, 0.0, 1480.8924771419142, 0.0]
['beep', 0.0, -897.5119468583998, 0.0, 0.0, 0.0, 0.0, 1483.0605963540788, 0.0]
['beep', 0.0, -894.5838683347546, 0.0, 0.0, 0.0, 0.0, 1482.3006370425985, 0.0]
['beep', 0.0, -892.9074875006065, 0.0, 0.0, 0.0, 0.0, 1480.4677939972632, 0.0]
['beep', 0.0, -894.6062200792098, 0.0, 0.0, 0.0, 0.0, 1480.9818841197355, 0.0]
['beep', 0.0, -896.1708421910814, 0.0, 0.0, 0.0, 0.0, 1480.4901457417186, 0.0]
['beep', 0.0, -895.0979584572266, 0.0, 0.0, 0.0, 0.0, 1481.317160286565, 0.0]
['beep', 0.0, -891.8122520222965, 0.0, 0.0, 0.0, 0.0, 1481.5630294755733, 0.0]
['beep', 0.0, -891.0969961997266, 0.0, 0.0, 0.0, 0.0, 1481.607732964484, 0.0]
['beep', 0.0, -892.8851357561513, 0.0, 0.0, 0.0, 0.0, 1480.7583666751823, 0.0]
['beep', 0.0, -894.9638479904947, 0.0, 0.0, 0.0, 0.0, 1481.5183259866628, 0.0]
['beep', 0.0, -894.0697782122825, 0.0, 0.0, 0.0, 0.0, 1482.0547678535902, 0.0]
['beep', 0.0, -891.7675485333859, 0.0, 0.0, 0.0, 0.0, 1482.5241544871515, 0.0]
['beep', 0.0, -890.1805746770591, 0.0, 0.0, 0.0, 0.0, 1482.4570992537856, 0.0]
['beep', 0.0, -892.0804729557602, 0.0, 0.0, 0.0, 0.0, 1481.7194916867604, 0.0]
['beep', 0.0, -893.667446812087, 0.0, 0.0, 0.0, 0.0, 1481.6971399423053, 0.0]
['beep', 0.0, -892.505156100411, 0.0, 0.0, 0.0, 0.0, 1482.0547678535902, 0.0]
['beep', 0.0, -890.9181822440842, 0.0, 0.0, 0.0, 0.0, 1481.1159945864672, 0.0]
['beep', 0.0, -890.3593886327016, 0.0, 0.0, 0.0, 0.0, 1479.3725585189532, 0.0]
['beep', 0.0, -892.8180805227853, 0.0, 0.0, 0.0, 0.0, 1476.9138666288695, 0.0]
['beep', 0.0, -893.2874671563468, 0.0, 0.0, 0.0, 0.0, 1478.2326195517326, 0.0]
['beep', 0.0, -892.3933973781345, 0.0, 0.0, 0.0, 0.0, 1478.7914131631153, 0.0]
['beep', 0.0, -890.1358711881485, 0.0, 0.0, 0.0, 0.0, 1477.6738259403498, 0.0]
['beep', 0.0, -889.6217810656764, 0.0, 0.0, 0.0, 0.0, 1477.740881173716, 0.0]
['beep', 0.0, -892.7733770338747, 0.0, 0.0, 0.0, 0.0, 1478.4337852518304, 0.0]
['beep', 0.0, -893.667446812087, 0.0, 0.0, 0.0, 0.0, 1478.545543974107, 0.0]
['beep', 0.0, -892.2816386558579, 0.0, 0.0, 0.0, 0.0, 1478.120860829456, 0.0]
['beep', 0.0, -890.0017607214166, 0.0, 0.0, 0.0, 0.0, 1480.2666282971654, 0.0]
['beep', 0.0, -889.2641531543915, 0.0, 0.0, 0.0, 0.0, 1479.4172620078639, 0.0]
['beep', 0.0, -890.2699816548803, 0.0, 0.0, 0.0, 0.0, 1479.3055032855873, 0.0]
['beep', 0.0, -892.5275078448664, 0.0, 0.0, 0.0, 0.0, 1481.3395120310204, 0.0]
['beep', 0.0, -891.3205136442797, 0.0, 0.0, 0.0, 0.0, 1483.5523347320957, 0.0]
['beep', 0.0, -888.0571589538049, 0.0, 0.0, 0.0, 0.0, 1483.1052998429896, 0.0]
['beep', 0.0, -888.1912694205367, 0.0, 0.0, 0.0, 0.0, 1483.507631243185, 0.0]
['beep', 0.0, -891.1416996886372, 0.0, 0.0, 0.0, 0.0, 1483.284113798632, 0.0]
['beep', 0.0, -892.7063218005088, 0.0, 0.0, 0.0, 0.0, 1484.5358114881292, 0.0]
['beep', 0.0, -892.7063218005088, 0.0, 0.0, 0.0, 0.0, 1484.8487359105036, 0.0]
['beep', 0.0, -890.5829060772546, 0.0, 0.0, 0.0, 0.0, 1486.4804132557408, 0.0]
['beep', 0.0, -889.5100223433999, 0.0, 0.0, 0.0, 0.0, 1484.8487359105036, 0.0]
['beep', 0.0, -891.4322723665563, 0.0, 0.0, 0.0, 0.0, 1483.6193899654616, 0.0]
['beep', 0.0, -894.472109612478, 0.0, 0.0, 0.0, 0.0, 1485.251067310699, 0.0]
['beep', 0.0, -894.762682290397, 0.0, 0.0, 0.0, 0.0, 1485.1393085884224, 0.0]
['beep', 0.0, -894.4497578680227, 0.0, 0.0, 0.0, 0.0, 1482.8147271650705, 0.0]
['beep', 0.0, -892.7733770338747, 0.0, 0.0, 0.0, 0.0, 1480.4230905083527, 0.0]
['beep', 0.0, -889.2865048988468, 0.0, 0.0, 0.0, 0.0, 1476.6903491843163, 0.0]
['beep', 0.0, -888.7947665208301, 0.0, 0.0, 0.0, 0.0, 1477.3609015179757, 0.0]
['beep', 0.0, -892.5498595893216, 0.0, 0.0, 0.0, 0.0, 1476.4668317397634, 0.0]
['beep', 0.0, -892.7733770338747, 0.0, 0.0, 0.0, 0.0, 1474.3881195054198, 0.0]
['beep', 0.0, -890.9181822440842, 0.0, 0.0, 0.0, 0.0, 1471.8847241264255, 0.0]
['beep', 0.0, -890.9405339885395, 0.0, 0.0, 0.0, 0.0, 1469.8060118920819, 0.0]
['beep', 0.0, -889.8676502546848, 0.0, 0.0, 0.0, 0.0, 1467.0120438351685, 0.0]
['beep', 0.0, -887.2301444089585, 0.0, 0.0, 0.0, 0.0, 1465.2909595121098, 0.0]
['beep', 0.0, -885.3749496191681, 0.0, 0.0, 0.0, 0.0, 1464.57570368954, 0.0]
['beep', 0.0, -887.1630891755926, 0.0, 0.0, 0.0, 0.0, 1463.2345990222216, 0.0]
['beep', 0.0, -892.6392665671428, 0.0, 0.0, 0.0, 0.0, 1461.513514699163, 0.0]
['beep', 0.0, -895.120310201682, 0.0, 0.0, 0.0, 0.0, 1458.9877675757132, 0.0]
['beep', 0.0, -893.0639497117937, 0.0, 0.0, 0.0, 0.0, 1457.6690146528501, 0.0]
['beep', 0.0, -891.1416996886372, 0.0, 0.0, 0.0, 0.0, 1457.7137181417606, 0.0]
['beep', 0.0, -890.1358711881485, 0.0, 0.0, 0.0, 0.0, 1455.120915784945, 0.0]
['beep', 0.0, -891.0299409663608, 0.0, 0.0, 0.0, 0.0, 1453.5562936730737, 0.0]
['beep', 0.0, -892.6392665671428, 0.0, 0.0, 0.0, 0.0, 1452.215189005755, 0.0]
['beep', 0.0, -893.1980601785256, 0.0, 0.0, 0.0, 0.0, 1451.6116919054618, 0.0]
['beep', 0.0, -890.7170165439865, 0.0, 0.0, 0.0, 0.0, 1451.254063994177, 0.0]
['beep', 0.0, -890.2923333993356, 0.0, 0.0, 0.0, 0.0, 1450.0023663046798, 0.0]
['beep', 0.0, -892.3933973781345, 0.0, 0.0, 0.0, 0.0, 1449.6447383933948, 0.0]
['beep', 0.0, -894.7179788014864, 0.0, 0.0, 0.0, 0.0, 1450.1588285158668, 0.0]
['beep', 0.0, -893.376874134168, 0.0, 0.0, 0.0, 0.0, 1451.2093605052664, 0.0]
['beep', 0.0, -891.5887345777434, 0.0, 0.0, 0.0, 0.0, 1450.739973871705, 0.0]
['beep', 0.0, -890.7617200328971, 0.0, 0.0, 0.0, 0.0, 1449.577683160029, 0.0]
['beep', 0.0, -891.2311066664585, 0.0, 0.0, 0.0, 0.0, 1449.3541657154758, 0.0]
['beep', 0.0, -891.6781415555647, 0.0, 0.0, 0.0, 0.0, 1449.6000349044843, 0.0]
['beep', 0.0, -890.8958304996289, 0.0, 0.0, 0.0, 0.0, 1450.7846773606154, 0.0]
['beep', 0.0, -888.4147868650898, 0.0, 0.0, 0.0, 0.0, 1450.6505668938837, 0.0]
['beep', 0.0, -887.3642548756903, 0.0, 0.0, 0.0, 0.0, 1449.7117936267607, 0.0]
['beep', 0.0, -888.861821754196, 0.0, 0.0, 0.0, 0.0, 1448.5047994261743, 0.0]
['beep', 0.0, -891.2087549220032, 0.0, 0.0, 0.0, 0.0, 1448.5271511706294, 0.0]
['beep', 0.0, -891.4769758554669, 0.0, 0.0, 0.0, 0.0, 1449.0412412931016, 0.0]
['beep', 0.0, -889.8005950213188, 0.0, 0.0, 0.0, 0.0, 1448.8624273374592, 0.0]
['beep', 0.0, -887.8336415092518, 0.0, 0.0, 0.0, 0.0, 1448.3259854705318, 0.0]
['beep', 0.0, -889.6888362990424, 0.0, 0.0, 0.0, 0.0, 1447.0519360365793, 0.0]
['beep', 0.0, -892.3710456336792, 0.0, 0.0, 0.0, 0.0, 1448.2589302371657, 0.0]
['beep', 0.0, -890.6946647995311, 0.0, 0.0, 0.0, 0.0, 1448.6836133818167, 0.0]
['beep', 0.0, -888.1242141871709, 0.0, 0.0, 0.0, 0.0, 1447.47661918123, 0.0]
['beep', 0.0, -887.9006967426178, 0.0, 0.0, 0.0, 0.0, 1446.806066847571, 0.0]
['beep', 0.0, -890.0911676992379, 0.0, 0.0, 0.0, 0.0, 1445.576720902529, 0.0]
['beep', 0.0, -891.9463624890284, 0.0, 0.0, 0.0, 0.0, 1446.2025697472775, 0.0]
['beep', 0.0, -892.3263421447685, 0.0, 0.0, 0.0, 0.0, 1447.5883779035066, 0.0]
['beep', 0.0, -889.9794089769613, 0.0, 0.0, 0.0, 0.0, 1448.1918750037999, 0.0]
['beep', 0.0, -889.3088566433021, 0.0, 0.0, 0.0, 0.0, 1449.801200604582, 0.0]
['beep', 0.0, -890.3146851437909, 0.0, 0.0, 0.0, 0.0, 1447.9236540703362, 0.0]
['beep', 0.0, -892.7510252894194, 0.0, 0.0, 0.0, 0.0, 1448.1695232593445, 0.0]
['beep', 0.0, -891.8569555112072, 0.0, 0.0, 0.0, 0.0, 1449.0412412931016, 0.0]
['beep', 0.0, -889.2194496654809, 0.0, 0.0, 0.0, 0.0, 1450.8740843384367, 0.0]
['beep', 0.0, -889.733539787953, 0.0, 0.0, 0.0, 0.0, 1450.8517325939815, 0.0]
['beep', 0.0, -891.052292710816, 0.0, 0.0, 0.0, 0.0, 1449.5106279266631, 0.0]
['beep', 0.0, -892.7286735449641, 0.0, 0.0, 0.0, 0.0, 1450.3152907270542, 0.0]
['beep', 0.0, -892.5275078448664, 0.0, 0.0, 0.0, 0.0, 1451.1199535274452, 0.0]
['beep', 0.0, -890.1805746770591, 0.0, 0.0, 0.0, 0.0, 1451.4552296942747, 0.0]
['beep', 0.0, -888.4147868650898, 0.0, 0.0, 0.0, 0.0, 1450.9187878273474, 0.0]
['beep', 0.0, -888.7947665208301, 0.0, 0.0, 0.0, 0.0, 1450.7846773606154, 0.0]
['beep', 0.0, -890.6723130550758, 0.0, 0.0, 0.0, 0.0, 1451.1646570163557, 0.0]
['beep', 0.0, -889.1747461765702, 0.0, 0.0, 0.0, 0.0, 1452.4834099392187, 0.0]
['beep', 0.0, -887.1630891755926, 0.0, 0.0, 0.0, 0.0, 1452.0140233056575, 0.0]
['beep', 0.0, -886.7160542864865, 0.0, 0.0, 0.0, 0.0, 1451.9022645833809, 0.0]
['beep', 0.0, -889.0182839653831, 0.0, 0.0, 0.0, 0.0, 1452.215189005755, 0.0]
['beep', 0.0, -891.1416996886372, 0.0, 0.0, 0.0, 0.0, 1452.058726794568, 0.0]
['beep', 0.0, -891.1864031775478, 0.0, 0.0, 0.0, 0.0, 1452.9527965727802, 0.0]
['beep', 0.0, -887.6101240646988, 0.0, 0.0, 0.0, 0.0, 1452.8186861060485, 0.0]
['beep', 0.0, -884.5926385632323, 0.0, 0.0, 0.0, 0.0, 1452.639872150406, 0.0]
['beep', 0.0, -884.9949699634278, 0.0, 0.0, 0.0, 0.0, 1454.2939012400986, 0.0]
['beep', 0.0, -885.1067286857044, 0.0, 0.0, 0.0, 0.0, 1455.7020611407831, 0.0]
['beep', 0.0, -884.4138246075898, 0.0, 0.0, 0.0, 0.0, 1455.8138198630595, 0.0]
['beep', 0.0, -884.1456036741262, 0.0, 0.0, 0.0, 0.0, 1456.797296619093, 0.0]
['beep', 0.0, -884.7267490299641, 0.0, 0.0, 0.0, 0.0, 1455.9479303297915, 0.0]
['beep', 0.0, -887.7442345314306, 0.0, 0.0, 0.0, 0.0, 1455.0315088071238, 0.0]
['beep', 0.0, -891.4322723665563, 0.0, 0.0, 0.0, 0.0, 1454.0480320510903, 0.0]
['beep', 0.0, -892.0804729557602, 0.0, 0.0, 0.0, 0.0, 1455.2326745072216, 0.0]
['beep', 0.0, -889.152394432115, 0.0, 0.0, 0.0, 0.0, 1456.0820407965232, 0.0]
['beep', 0.0, -885.8443362527295, 0.0, 0.0, 0.0, 0.0, 1453.9139215843586, 0.0]
['beep', 0.0, -887.5207170868775, 0.0, 0.0, 0.0, 0.0, 1452.505761683674, 0.0]
['beep', 0.0, -896.4837666134557, 0.0, 0.0, 0.0, 0.0, 1454.606825662473, 0.0]
['beep', 0.0, -895.0309032238607, 0.0, 0.0, 0.0, 0.0, 1453.153962272878, 0.0]
['beep', 0.0, -886.1349089306485, 0.0, 0.0, 0.0, 0.0, 1453.2657209951547, 0.0]
['beep', 0.0, -884.6596937965983, 0.0, 0.0, 0.0, 0.0, 1454.5174186846518, 0.0]
['beep', 0.0, -891.0969961997266, 0.0, 0.0, 0.0, 0.0, 1455.7467646296936, 0.0]
['beep', 0.0, -892.9074875006065, 0.0, 0.0, 0.0, 0.0, 1455.2326745072216, 0.0]
['beep', 0.0, -888.8394700097407, 0.0, 0.0, 0.0, 0.0, 1454.9421018293026, 0.0]
['beep', 0.0, -885.0396734523384, 0.0, 0.0, 0.0, 0.0, 1453.6233489064396, 0.0]
['beep', 0.0, -885.3973013636233, 0.0, 0.0, 0.0, 0.0, 1454.092735540001, 0.0]
['beep', 0.0, -890.5158508438886, 0.0, 0.0, 0.0, 0.0, 1454.1374390289116, 0.0]
['beep', 0.0, -893.1310049451596, 0.0, 0.0, 0.0, 0.0, 1454.0703837955457, 0.0]
['beep', 0.0, -891.633438066654, 0.0, 0.0, 0.0, 0.0, 1454.3833082179199, 0.0]
['beep', 0.0, -887.9454002315284, 0.0, 0.0, 0.0, 0.0, 1454.0480320510903, 0.0]
['beep', 0.0, -886.7607577753971, 0.0, 0.0, 0.0, 0.0, 1453.2657209951547, 0.0]
['beep', 0.0, -888.504193842911, 0.0, 0.0, 0.0, 0.0, 1451.030546549624, 0.0]
['beep', 0.0, -891.4993275999221, 0.0, 0.0, 0.0, 0.0, 1451.835209350015, 0.0]
['beep', 0.0, -892.0804729557602, 0.0, 0.0, 0.0, 0.0, 1451.8575610944702, 0.0]
['beep', 0.0, -890.6723130550758, 0.0, 0.0, 0.0, 0.0, 1451.2764157386323, 0.0]
['beep', 0.0, -889.1747461765702, 0.0, 0.0, 0.0, 0.0, 1449.7788488601268, 0.0]
['beep', 0.0, -891.7451967889306, 0.0, 0.0, 0.0, 0.0, 1451.0528982940791, 0.0]
['beep', 0.0, -892.4828043559557, 0.0, 0.0, 0.0, 0.0, 1451.6116919054618, 0.0]
['beep', 0.0, -892.7286735449641, 0.0, 0.0, 0.0, 0.0, 1450.8070291050708, 0.0]
['beep', 0.0, -891.0299409663608, 0.0, 0.0, 0.0, 0.0, 1450.6952703827942, 0.0]
['beep', 0.0, -889.375911876668, 0.0, 0.0, 0.0, 0.0, 1450.3599942159647, 0.0]
['beep', 0.0, -890.9628857329948, 0.0, 0.0, 0.0, 0.0, 1449.2647587376546, 0.0]
['beep', 0.0, -893.3321706452574, 0.0, 0.0, 0.0, 0.0, 1448.7283168707272, 0.0]
['beep', 0.0, -892.9968944784277, 0.0, 0.0, 0.0, 0.0, 1449.3988692043865, 0.0]
['beep', 0.0, -890.247629910425, 0.0, 0.0, 0.0, 0.0, 1449.4882761822078, 0.0]
['beep', 0.0, -889.6888362990424, 0.0, 0.0, 0.0, 0.0, 1450.38234596042, 0.0]
['beep', 0.0, -890.8064235218077, 0.0, 0.0, 0.0, 0.0, 1450.6952703827942, 0.0]
['beep', 0.0, -892.7510252894194, 0.0, 0.0, 0.0, 0.0, 1450.8517325939815, 0.0]
['beep', 0.0, -892.1028247002155, 0.0, 0.0, 0.0, 0.0, 1450.8070291050708, 0.0]
['beep', 0.0, -889.5323740878551, 0.0, 0.0, 0.0, 0.0, 1451.2093605052664, 0.0]
['beep', 0.0, -887.7442345314306, 0.0, 0.0, 0.0, 0.0, 1451.47758143873, 0.0]
['beep', 0.0, -889.0629874542938, 0.0, 0.0, 0.0, 0.0, 1451.6340436499172, 0.0]
['beep', 0.0, -891.7228450444753, 0.0, 0.0, 0.0, 0.0, 1453.0645552950568, 0.0]
['beep', 0.0, -891.9687142334836, 0.0, 0.0, 0.0, 0.0, 1453.511590184163, 0.0]
['beep', 0.0, -889.8452985102294, 0.0, 0.0, 0.0, 0.0, 1454.7632878736601, 0.0]
['beep', 0.0, -888.571249076277, 0.0, 0.0, 0.0, 0.0, 1455.7914681186044, 0.0]
['beep', 0.0, -890.2252781659697, 0.0, 0.0, 0.0, 0.0, 1454.3386047290094, 0.0]
['beep', 0.0, -892.1251764446708, 0.0, 0.0, 0.0, 0.0, 1456.6184826634505, 0.0]
['beep', 0.0, -891.2758101553691, 0.0, 0.0, 0.0, 0.0, 1458.4066222198753, 0.0]
['beep', 0.0, -888.347731631724, 0.0, 0.0, 0.0, 0.0, 1456.7749448746379, 0.0]
['beep', 0.0, -890.0688159547825, 0.0, 0.0, 0.0, 0.0, 1455.9032268408807, 0.0]
['beep', 0.0, -893.6897985565423, 0.0, 0.0, 0.0, 0.0, 1456.9761105747357, 0.0]
['beep', 0.0, -892.5498595893216, 0.0, 0.0, 0.0, 0.0, 1456.417316963353, 0.0]
['beep', 0.0, -892.4157491225898, 0.0, 0.0, 0.0, 0.0, 1456.283206496621, 0.0]
['beep', 0.0, -890.4040921216122, 0.0, 0.0, 0.0, 0.0, 1457.8254768640372, 0.0]
['beep', 0.0, -889.0406357098384, 0.0, 0.0, 0.0, 0.0, 1456.059689052068, 0.0]
['beep', 0.0, -891.2981618998244, 0.0, 0.0, 0.0, 0.0, 1454.606825662473, 0.0]
['beep', 0.0, -892.505156100411, 0.0, 0.0, 0.0, 0.0, 1454.0480320510903, 0.0]
['beep', 0.0, -892.7063218005088, 0.0, 0.0, 0.0, 0.0, 1453.8468663509925, 0.0]
['beep', 0.0, -891.2758101553691, 0.0, 0.0, 0.0, 0.0, 1454.1821425178223, 0.0]
['beep', 0.0, -892.8627840116959, 0.0, 0.0, 0.0, 0.0, 1453.4221832063417, 0.0]
['beep', 0.0, -893.7568537899082, 0.0, 0.0, 0.0, 0.0, 1452.215189005755, 0.0]
['beep', 0.0, -893.309818900802, 0.0, 0.0, 0.0, 0.0, 1451.701098883283, 0.0]
['beep', 0.0, -891.991065977939, 0.0, 0.0, 0.0, 0.0, 1453.7574593731713, 0.0]
['beep', 0.0, -891.4322723665563, 0.0, 0.0, 0.0, 0.0, 1453.6904041398054, 0.0]
['beep', 0.0, -891.633438066654, 0.0, 0.0, 0.0, 0.0, 1452.0810785390233, 0.0]
['beep', 0.0, -893.309818900802, 0.0, 0.0, 0.0, 0.0, 1450.4941046826966, 0.0]
['beep', 0.0, -894.9191445015841, 0.0, 0.0, 0.0, 0.0, 1450.605863404973, 0.0]
['beep', 0.0, -894.1815369345591, 0.0, 0.0, 0.0, 0.0, 1453.511590184163, 0.0]
['beep', 0.0, -893.6003915787211, 0.0, 0.0, 0.0, 0.0, 1454.7185843847496, 0.0]
['beep', 0.0, -892.8627840116959, 0.0, 0.0, 0.0, 0.0, 1453.9139215843586, 0.0]
['beep', 0.0, -894.3156474012909, 0.0, 0.0, 0.0, 0.0, 1454.2939012400986, 0.0]
['beep', 0.0, -896.5731735912769, 0.0, 0.0, 0.0, 0.0, 1455.255026251677, 0.0]
['beep', 0.0, -897.4001881361232, 0.0, 0.0, 0.0, 0.0, 1455.8138198630595, 0.0]
['beep', 0.0, -897.2884294138468, 0.0, 0.0, 0.0, 0.0, 1456.0820407965232, 0.0]
['beep', 0.0, -895.4555863685115, 0.0, 0.0, 0.0, 0.0, 1457.3113867415652, 0.0]
['beep', 0.0, -895.9473247465284, 0.0, 0.0, 0.0, 0.0, 1457.9372355863138, 0.0]
['beep', 0.0, -897.7131125584975, 0.0, 0.0, 0.0, 0.0, 1455.6573576518724, 0.0]
['beep', 0.0, -897.5342986028551, 0.0, 0.0, 0.0, 0.0, 1455.0315088071238, 0.0]
['beep', 0.0, -894.4274061235674, 0.0, 0.0, 0.0, 0.0, 1455.3891367184087, 0.0]
['beep', 0.0, -891.0299409663608, 0.0, 0.0, 0.0, 0.0, 1455.7020611407831, 0.0]
['beep', 0.0, -892.8627840116959, 0.0, 0.0, 0.0, 0.0, 1455.3667849739534, 0.0]
['beep', 0.0, -895.0979584572266, 0.0, 0.0, 0.0, 0.0, 1454.964453573758, 0.0]
['beep', 0.0, -894.2038886790143, 0.0, 0.0, 0.0, 0.0, 1455.120915784945, 0.0]
['beep', 0.0, -891.5663828332881, 0.0, 0.0, 0.0, 0.0, 1454.964453573758, 0.0]
['beep', 0.0, -891.991065977939, 0.0, 0.0, 0.0, 0.0, 1454.8079913625709, 0.0]
['beep', 0.0, -895.9473247465284, 0.0, 0.0, 0.0, 0.0, 1454.9421018293026, 0.0]
['beep', 0.0, -897.5790020917657, 0.0, 0.0, 0.0, 0.0, 1454.830343107026, 0.0]
['beep', 0.0, -893.8686125121848, 0.0, 0.0, 0.0, 0.0, 1454.964453573758, 0.0]
['beep', 0.0, -890.3146851437909, 0.0, 0.0, 0.0, 0.0, 1455.187971018311, 0.0]
['beep', 0.0, -891.7899002778412, 0.0, 0.0, 0.0, 0.0, 1454.7856396181155, 0.0]
['beep', 0.0, -894.2038886790143, 0.0, 0.0, 0.0, 0.0, 1455.2103227627663, 0.0]
['beep', 0.0, -895.3885311351456, 0.0, 0.0, 0.0, 0.0, 1455.411488462864, 0.0]
['beep', 0.0, -893.89096425664, 0.0, 0.0, 0.0, 0.0, 1456.3502617299869, 0.0]
['beep', 0.0, -892.1028247002155, 0.0, 0.0, 0.0, 0.0, 1455.0762122960346, 0.0]
['beep', 0.0, -892.4604526115004, 0.0, 0.0, 0.0, 0.0, 1455.4338402073195, 0.0]
['beep', 0.0, -892.3710456336792, 0.0, 0.0, 0.0, 0.0, 1455.7244128852383, 0.0]
['beep', 0.0, -892.7510252894194, 0.0, 0.0, 0.0, 0.0, 1456.3502617299869, 0.0]
['beep', 0.0, -892.9745427339725, 0.0, 0.0, 0.0, 0.0, 1458.5183809421517, 0.0]
['beep', 0.0, -891.342865388735, 0.0, 0.0, 0.0, 0.0, 1458.8760088534366, 0.0]
['beep', 0.0, -890.5605543327993, 0.0, 0.0, 0.0, 0.0, 1458.38427047542, 0.0]
['beep', 0.0, -890.6946647995311, 0.0, 0.0, 0.0, 0.0, 1457.6243111639394, 0.0]
['beep', 0.0, -892.7733770338747, 0.0, 0.0, 0.0, 0.0, 1457.8254768640372, 0.0]
['beep', 0.0, -893.6450950676317, 0.0, 0.0, 0.0, 0.0, 1458.9207123423473, 0.0]
['beep', 0.0, -892.79572877833, 0.0, 0.0, 0.0, 0.0, 1458.5854361755178, 0.0]
['beep', 0.0, -892.0581212113049, 0.0, 0.0, 0.0, 0.0, 1459.6583199093725, 0.0]
['beep', 0.0, -892.0581212113049, 0.0, 0.0, 0.0, 0.0, 1459.9712443317467, 0.0]
['beep', 0.0, -895.120310201682, 0.0, 0.0, 0.0, 0.0, 1460.798258876593, 0.0]
['beep', 0.0, -896.5508218468216, 0.0, 0.0, 0.0, 0.0, 1461.446459465797, 0.0]
['beep', 0.0, -894.3827026346568, 0.0, 0.0, 0.0, 0.0, 1462.76521238866, 0.0]
['beep', 0.0, -891.3652171331903, 0.0, 0.0, 0.0, 0.0, 1464.0839653115231, 0.0]
['beep', 0.0, -892.0357694668496, 0.0, 0.0, 0.0, 0.0, 1463.4357647223194, 0.0]
['beep', 0.0, -898.115443958693, 0.0, 0.0, 0.0, 0.0, 1463.122840299945, 0.0]
['beep', 0.0, -898.6295340811652, 0.0, 0.0, 0.0, 0.0, 1465.8274013790372, 0.0]
['beep', 0.0, -893.5556880898105, 0.0, 0.0, 0.0, 0.0, 1468.1296310579337, 0.0]
['beep', 0.0, -890.0017607214166, 0.0, 0.0, 0.0, 0.0, 1467.190857790811, 0.0]
['beep', 0.0, -893.7345020454529, 0.0, 0.0, 0.0, 0.0, 1466.7661746461602, 0.0]
['beep', 0.0, -897.8695747696847, 0.0, 0.0, 0.0, 0.0, 1466.6320641794282, 0.0]
['beep', 0.0, -897.2213741804808, 0.0, 0.0, 0.0, 0.0, 1468.7107764137718, 0.0]
['beep', 0.0, -895.2320689239584, 0.0, 0.0, 0.0, 0.0, 1469.5824944475287, 0.0]
['beep', 0.0, -895.6344003241541, 0.0, 0.0, 0.0, 0.0, 1469.9177706143585, 0.0]
['beep', 0.0, -898.6295340811652, 0.0, 0.0, 0.0, 0.0, 1470.096584570001, 0.0]
['beep', 0.0, -900.9094120156064, 0.0, 0.0, 0.0, 0.0, 1470.76713690366, 0.0]
['beep', 0.0, -898.4507201255227, 0.0, 0.0, 0.0, 0.0, 1471.1471165594003, 0.0]
['beep', 0.0, -895.276772412869, 0.0, 0.0, 0.0, 0.0, 1471.0353578371237, 0.0]
['beep', 0.0, -896.2378974244473, 0.0, 0.0, 0.0, 0.0, 1471.8400206375147, 0.0]
['beep', 0.0, -898.2942579143355, 0.0, 0.0, 0.0, 0.0, 1471.2365235372215, 0.0]
['beep', 0.0, -897.7354643029529, 0.0, 0.0, 0.0, 0.0, 1472.1529450598891, 0.0]
['beep', 0.0, -895.4332346240562, 0.0, 0.0, 0.0, 0.0, 1472.9799596047355, 0.0]
['beep', 0.0, -893.5333363453551, 0.0, 0.0, 0.0, 0.0, 1471.705910170783, 0.0]
['beep', 0.0, -893.5556880898105, 0.0, 0.0, 0.0, 0.0, 1471.8847241264255, 0.0]
['beep', 0.0, -896.729635802464, 0.0, 0.0, 0.0, 0.0, 1471.6835584263276, 0.0]
['beep', 0.0, -898.2942579143355, 0.0, 0.0, 0.0, 0.0, 1472.443517737808, 0.0]
['beep', 0.0, -897.5790020917657, 0.0, 0.0, 0.0, 0.0, 1473.2034770492885, 0.0]
['beep', 0.0, -896.6178770801876, 0.0, 0.0, 0.0, 0.0, 1473.6952154273054, 0.0]
['beep', 0.0, -896.4390631245451, 0.0, 0.0, 0.0, 0.0, 1474.4998782276964, 0.0]
['beep', 0.0, -899.4565486260115, 0.0, 0.0, 0.0, 0.0, 1475.0810235835343, 0.0]
['beep', 0.0, -901.2223364379807, 0.0, 0.0, 0.0, 0.0, 1474.9692648612577, 0.0]
['beep', 0.0, -898.8754032701735, 0.0, 0.0, 0.0, 0.0, 1477.8079364070818, 0.0]
['beep', 0.0, -895.7461590464305, 0.0, 0.0, 0.0, 0.0, 1481.5630294755733, 0.0]
['beep', 0.0, -893.8015572788188, 0.0, 0.0, 0.0, 0.0, 1482.7253201872493, 0.0]
['beep', 0.0, -896.3496561467239, 0.0, 0.0, 0.0, 0.0, 1483.127651587445, 0.0]
['beep', 0.0, -898.7859962923523, 0.0, 0.0, 0.0, 0.0, 1484.736977188227, 0.0]
['beep', 0.0, -897.8025195363188, 0.0, 0.0, 0.0, 0.0, 1484.893439399414, 0.0]
['beep', 0.0, -894.3827026346568, 0.0, 0.0, 0.0, 0.0, 1486.0780818555454, 0.0]
['beep', 0.0, -890.7170165439865, 0.0, 0.0, 0.0, 0.0, 1487.1286138449448, 0.0]
['beep', 0.0, -891.924010744573, 0.0, 0.0, 0.0, 0.0, 1486.4580615112857, 0.0]
['beep', 0.0, -894.0474264678272, 0.0, 0.0, 0.0, 0.0, 1487.6650557118721, 0.0]
['beep', 0.0, -896.0590834688048, 0.0, 0.0, 0.0, 0.0, 1488.2685528121654, 0.0]
['beep', 0.0, -894.8520892682183, 0.0, 0.0, 0.0, 0.0, 1489.0955673570118, 0.0]
['beep', 0.0, -894.3827026346568, 0.0, 0.0, 0.0, 0.0, 1488.9838086347354, 0.0]
['beep', 0.0, -896.3943596356345, 0.0, 0.0, 0.0, 0.0, 1486.569820233562, 0.0]
['beep', 0.0, -899.5012521149221, 0.0, 0.0, 0.0, 0.0, 1487.0839103560343, 0.0]
['beep', 0.0, -898.3613131477015, 0.0, 0.0, 0.0, 0.0, 1490.4366720243302, 0.0]
['beep', 0.0, -893.8239090232742, 0.0, 0.0, 0.0, 0.0, 1490.8166516800704, 0.0]
['beep', 0.0, -893.8239090232742, 0.0, 0.0, 0.0, 0.0, 1489.3861400349308, 0.0]
['beep', 0.0, -895.6567520686093, 0.0, 0.0, 0.0, 0.0, 1491.2636865691766, 0.0]
['beep', 0.0, -894.9191445015841, 0.0, 0.0, 0.0, 0.0, 1491.956590647291, 0.0]
['beep', 0.0, -891.9016590001178, 0.0, 0.0, 0.0, 0.0, 1492.3589220474867, 0.0]
['beep', 0.0, -889.5100223433999, 0.0, 0.0, 0.0, 0.0, 1492.2918668141208, 0.0]
['beep', 0.0, -890.2252781659697, 0.0, 0.0, 0.0, 0.0, 1493.7223784592604, 0.0]
['beep', 0.0, -891.342865388735, 0.0, 0.0, 0.0, 0.0, 1494.4152825373749, 0.0]
['beep', 0.0, -892.1028247002155, 0.0, 0.0, 0.0, 0.0, 1493.9682476482687, 0.0]
['beep', 0.0, -890.9181822440842, 0.0, 0.0, 0.0, 0.0, 1494.5940964930173, 0.0]
['beep', 0.0, -890.3370368882462, 0.0, 0.0, 0.0, 0.0, 1494.9517244043022, 0.0]
['beep', 0.0, -889.5323740878551, 0.0, 0.0, 0.0, 0.0, 1493.6106197369838, 0.0]
['beep', 0.0, -891.4322723665563, 0.0, 0.0, 0.0, 0.0, 1494.1694133483666, 0.0]
['beep', 0.0, -893.8239090232742, 0.0, 0.0, 0.0, 0.0, 1494.4599860262856, 0.0]
['beep', 0.0, -894.7179788014864, 0.0, 0.0, 0.0, 0.0, 1493.5882679925285, 0.0]
['beep', 0.0, -893.4439293675339, 0.0, 0.0, 0.0, 0.0, 1494.9293726598469, 0.0]
['beep', 0.0, -891.4322723665563, 0.0, 0.0, 0.0, 0.0, 1495.9352011603357, 0.0]
['beep', 0.0, -891.3652171331903, 0.0, 0.0, 0.0, 0.0, 1496.471643027263, 0.0]
['beep', 0.0, -892.7510252894194, 0.0, 0.0, 0.0, 0.0, 1496.2034220937994, 0.0]
['beep', 0.0, -893.89096425664, 0.0, 0.0, 0.0, 0.0, 1496.6504569829056, 0.0]
['beep', 0.0, -892.1698799335815, 0.0, 0.0, 0.0, 0.0, 1497.2986575721095, 0.0]
['beep', 0.0, -890.0688159547825, 0.0, 0.0, 0.0, 0.0, 1498.125672116956, 0.0]
['beep', 0.0, -891.8122520222965, 0.0, 0.0, 0.0, 0.0, 1498.1480238614113, 0.0]
['beep', 0.0, -893.3321706452574, 0.0, 0.0, 0.0, 0.0, 1498.7738727061599, 0.0]
['beep', 0.0, -893.0415979673384, 0.0, 0.0, 0.0, 0.0, 1499.9808669067463, 0.0]
['beep', 0.0, -889.9123537435954, 0.0, 0.0, 0.0, 0.0, 1500.2714395846654, 0.0]
['beep', 0.0, -886.9395717310396, 0.0, 0.0, 0.0, 0.0, 1500.1596808623888, 0.0]
['beep', 0.0, -888.7053595430089, 0.0, 0.0, 0.0, 0.0, 1498.9526866618023, 0.0]
['beep', 0.0, -892.0581212113049, 0.0, 0.0, 0.0, 0.0, 1499.4667767842743, 0.0]
['beep', 0.0, -893.4886328564445, 0.0, 0.0, 0.0, 0.0, 1500.7631779626822, 0.0]
['beep', 0.0, -892.9074875006065, 0.0, 0.0, 0.0, 0.0, 1502.8195384525704, 0.0]
['beep', 0.0, -892.9745427339725, 0.0, 0.0, 0.0, 0.0, 1500.539660518129, 0.0]
['beep', 0.0, -891.3875688776457, 0.0, 0.0, 0.0, 0.0, 1500.2267360957546, 0.0]
['beep', 0.0, -891.7675485333859, 0.0, 0.0, 0.0, 0.0, 1500.383198306942, 0.0]
['beep', 0.0, -893.0639497117937, 0.0, 0.0, 0.0, 0.0, 1500.4726052847632, 0.0]
['beep', 0.0, -891.0969961997266, 0.0, 0.0, 0.0, 0.0, 1499.4891285287297, 0.0]
['beep', 0.0, -889.6888362990424, 0.0, 0.0, 0.0, 0.0, 1498.572707006062, 0.0]
['beep', 0.0, -893.1086532007043, 0.0, 0.0, 0.0, 0.0, 1499.7797012066485, 0.0]
['beep', 0.0, -895.4779381129669, 0.0, 0.0, 0.0, 0.0, 1498.8856314284362, 0.0]
['beep', 0.0, -894.7179788014864, 0.0, 0.0, 0.0, 0.0, 1497.9021546724027, 0.0]
['beep', 0.0, -892.4604526115004, 0.0, 0.0, 0.0, 0.0, 1499.3103145730872, 0.0]
['beep', 0.0, -890.7170165439865, 0.0, 0.0, 0.0, 0.0, 1498.1703756058664, 0.0]
['beep', 0.0, -893.086301456249, 0.0, 0.0, 0.0, 0.0, 1499.1091488729894, 0.0]
['beep', 0.0, -895.276772412869, 0.0, 0.0, 0.0, 0.0, 1498.7068174727938, 0.0]
['beep', 0.0, -895.2097171795032, 0.0, 0.0, 0.0, 0.0, 1496.7398639607268, 0.0]
['beep', 0.0, -893.1980601785256, 0.0, 0.0, 0.0, 0.0, 1497.8574511834922, 0.0]
['beep', 0.0, -890.7840717773523, 0.0, 0.0, 0.0, 0.0, 1498.9973901507128, 0.0]
['beep', 0.0, -892.5945630782322, 0.0, 0.0, 0.0, 0.0, 1497.7456924612156, 0.0]
['beep', 0.0, -893.9356677455506, 0.0, 0.0, 0.0, 0.0, 1497.7456924612156, 0.0]
['beep', 0.0, -893.2204119229808, 0.0, 0.0, 0.0, 0.0, 1498.9750384062575, 0.0]
['beep', 0.0, -891.2311066664585, 0.0, 0.0, 0.0, 0.0, 1498.639762239428, 0.0]
['beep', 0.0, -889.1970979210256, 0.0, 0.0, 0.0, 0.0, 1498.3268378170537, 0.0]
['beep', 0.0, -890.4040921216122, 0.0, 0.0, 0.0, 0.0, 1499.1538523619, 0.0]
['beep', 0.0, -892.7510252894194, 0.0, 0.0, 0.0, 0.0, 1499.9808669067463, 0.0]
['beep', 0.0, -894.5168131013886, 0.0, 0.0, 0.0, 0.0, 1499.220907595266, 0.0]
['beep', 0.0, -893.2427636674362, 0.0, 0.0, 0.0, 0.0, 1499.8691081844697, 0.0]
['beep', 0.0, -892.0581212113049, 0.0, 0.0, 0.0, 0.0, 1499.9808669067463, 0.0]
['beep', 0.0, -893.667446812087, 0.0, 0.0, 0.0, 0.0, 1498.3491895615089, 0.0]
['beep', 0.0, -896.506118357911, 0.0, 0.0, 0.0, 0.0, 1497.8798029279476, 0.0]
['beep', 0.0, -897.3331329027574, 0.0, 0.0, 0.0, 0.0, 1498.2374308392325, 0.0]
['beep', 0.0, -896.6625805690982, 0.0, 0.0, 0.0, 0.0, 1498.43859653933, 0.0]
['beep', 0.0, -891.4099206221009, 0.0, 0.0, 0.0, 0.0, 1498.125672116956, 0.0]
['beep', 0.0, -888.6159525651876, 0.0, 0.0, 0.0, 0.0, 1496.2257738382548, 0.0]
['beep', 0.0, -895.120310201682, 0.0, 0.0, 0.0, 0.0, 1495.4211110378637, 0.0]
['beep', 0.0, -900.1941561930366, 0.0, 0.0, 0.0, 0.0, 1496.829270938548, 0.0]
['beep', 0.0, -895.1650136905926, 0.0, 0.0, 0.0, 0.0, 1498.5503552616067, 0.0]
['beep', 0.0, -886.3360746307462, 0.0, 0.0, 0.0, 0.0, 1499.0420936396235, 0.0]
['beep', 0.0, -886.6266473086653, 0.0, 0.0, 0.0, 0.0, 1497.4998232722073, 0.0]
['beep', 0.0, -894.1815369345591, 0.0, 0.0, 0.0, 0.0, 1496.7845674496375, 0.0]
['beep', 0.0, -897.6237055806763, 0.0, 0.0, 0.0, 0.0, 1496.2034220937994, 0.0]
['beep', 0.0, -895.7908625353411, 0.0, 0.0, 0.0, 0.0, 1498.7068174727938, 0.0]
['beep', 0.0, -892.7063218005088, 0.0, 0.0, 0.0, 0.0, 1497.611581994484, 0.0]
['beep', 0.0, -892.2816386558579, 0.0, 0.0, 0.0, 0.0, 1495.9128494158804, 0.0]
['beep', 0.0, -895.6791038130647, 0.0, 0.0, 0.0, 0.0, 1496.829270938548, 0.0]
['beep', 0.0, -897.0202084803831, 0.0, 0.0, 0.0, 0.0, 1496.5610500050843, 0.0]
['beep', 0.0, -893.376874134168, 0.0, 0.0, 0.0, 0.0, 1495.6446284824167, 0.0]
['beep', 0.0, -890.247629910425, 0.0, 0.0, 0.0, 0.0, 1497.8574511834922, 0.0]
['beep', 0.0, -892.1028247002155, 0.0, 0.0, 0.0, 0.0, 1497.3210093165649, 0.0]
['beep', 0.0, -895.4332346240562, 0.0, 0.0, 0.0, 0.0, 1496.9857331497353, 0.0]
['beep', 0.0, -895.5002898574221, 0.0, 0.0, 0.0, 0.0, 1496.96338140528, 0.0]
['beep', 0.0, -893.667446812087, 0.0, 0.0, 0.0, 0.0, 1497.1421953609224, 0.0]
['beep', 0.0, -892.9968944784277, 0.0, 0.0, 0.0, 0.0, 1497.410416294386, 0.0]
['beep', 0.0, -894.4944613569334, 0.0, 0.0, 0.0, 0.0, 1497.5221750166627, 0.0]
['beep', 0.0, -896.1708421910814, 0.0, 0.0, 0.0, 0.0, 1497.4327680388415, 0.0]
['beep', 0.0, -895.4779381129669, 0.0, 0.0, 0.0, 0.0, 1497.5668785055732, 0.0]
['beep', 0.0, -893.5109846008999, 0.0, 0.0, 0.0, 0.0, 1497.5668785055732, 0.0]
['beep', 0.0, -890.1358711881485, 0.0, 0.0, 0.0, 0.0, 1498.0139133946793, 0.0]
['beep', 0.0, -891.633438066654, 0.0, 0.0, 0.0, 0.0, 1497.6562854833944, 0.0]
['beep', 0.0, -894.8744410126735, 0.0, 0.0, 0.0, 0.0, 1495.4881662712296, 0.0]
['beep', 0.0, -894.472109612478, 0.0, 0.0, 0.0, 0.0, 1495.2646488266766, 0.0]
['beep', 0.0, -894.2038886790143, 0.0, 0.0, 0.0, 0.0, 1498.0362651391347, 0.0]
['beep', 0.0, -893.2651154118914, 0.0, 0.0, 0.0, 0.0, 1495.8234424380591, 0.0]
['beep', 0.0, -895.0085514794054, 0.0, 0.0, 0.0, 0.0, 1495.5328697601403, 0.0]
['beep', 0.0, -896.3496561467239, 0.0, 0.0, 0.0, 0.0, 1495.9128494158804, 0.0]
['beep', 0.0, -894.6509235681204, 0.0, 0.0, 0.0, 0.0, 1497.1421953609224, 0.0]
['beep', 0.0, -893.89096425664, 0.0, 0.0, 0.0, 0.0, 1498.863279683981, 0.0]
['beep', 0.0, -893.4215776230786, 0.0, 0.0, 0.0, 0.0, 1497.2986575721095, 0.0]
['beep', 0.0, -896.215545679992, 0.0, 0.0, 0.0, 0.0, 1496.5163465161738, 0.0]
['beep', 0.0, -899.2330311814584, 0.0, 0.0, 0.0, 0.0, 1496.96338140528, 0.0]
['beep', 0.0, -900.4623771265003, 0.0, 0.0, 0.0, 0.0, 1496.2034220937994, 0.0]
['beep', 0.0, -900.0153422373942, 0.0, 0.0, 0.0, 0.0, 1495.666980226872, 0.0]
['beep', 0.0, -895.053254968316, 0.0, 0.0, 0.0, 0.0, 1493.7894336926263, 0.0]
['beep', 0.0, -893.6450950676317, 0.0, 0.0, 0.0, 0.0, 1494.0129511371795, 0.0]
['beep', 0.0, -896.6849323135534, 0.0, 0.0, 0.0, 0.0, 1493.1188813589672, 0.0]
['beep', 0.0, -899.9706387484836, 0.0, 0.0, 0.0, 0.0, 1492.2695150696654, 0.0]
['beep', 0.0, -899.6800660705646, 0.0, 0.0, 0.0, 0.0, 1493.252991825699, 0.0]
['beep', 0.0, -896.7743392913746, 0.0, 0.0, 0.0, 0.0, 1492.5824394920396, 0.0]
['beep', 0.0, -896.1708421910814, 0.0, 0.0, 0.0, 0.0, 1491.4201487803637, 0.0]
['beep', 0.0, -897.5566503473104, 0.0, 0.0, 0.0, 0.0, 1491.5989627360061, 0.0]
['beep', 0.0, -898.6742375700758, 0.0, 0.0, 0.0, 0.0, 1491.5542592470956, 0.0]
['beep', 0.0, -896.8413945247406, 0.0, 0.0, 0.0, 0.0, 1492.4259772808525, 0.0]
['beep', 0.0, -894.1591851901037, 0.0, 0.0, 0.0, 0.0, 1492.537736003129, 0.0]
['beep', 0.0, -895.6567520686093, 0.0, 0.0, 0.0, 0.0, 1493.4988610147072, 0.0]
['beep', 0.0, -898.3613131477015, 0.0, 0.0, 0.0, 0.0, 1490.928410402347, 0.0]
['beep', 0.0, -898.0707404697824, 0.0, 0.0, 0.0, 0.0, 1490.8613551689812, 0.0]
['beep', 0.0, -895.992028235439, 0.0, 0.0, 0.0, 0.0, 1492.7165499587716, 0.0]
['beep', 0.0, -894.1368334456484, 0.0, 0.0, 0.0, 0.0, 1493.8564889259922, 0.0]
['beep', 0.0, -894.3827026346568, 0.0, 0.0, 0.0, 0.0, 1492.5153842586737, 0.0]
['beep', 0.0, -896.4614148690004, 0.0, 0.0, 0.0, 0.0, 1493.1635848478777, 0.0]
['beep', 0.0, -896.8860980136512, 0.0, 0.0, 0.0, 0.0, 1494.4599860262856, 0.0]
['beep', 0.0, -895.053254968316, 0.0, 0.0, 0.0, 0.0, 1494.05765462609, 0.0]
['beep', 0.0, -891.991065977939, 0.0, 0.0, 0.0, 0.0, 1494.4599860262856, 0.0]
['beep', 0.0, -892.4828043559557, 0.0, 0.0, 0.0, 0.0, 1493.4541575257967, 0.0]
['beep', 0.0, -894.4944613569334, 0.0, 0.0, 0.0, 0.0, 1493.0965296145118, 0.0]
['beep', 0.0, -894.762682290397, 0.0, 0.0, 0.0, 0.0, 1493.834137181537, 0.0]
['beep', 0.0, -892.7063218005088, 0.0, 0.0, 0.0, 0.0, 1494.1023581150007, 0.0]
['beep', 0.0, -890.0241124658719, 0.0, 0.0, 0.0, 0.0, 1492.0459976251122, 0.0]
['beep', 0.0, -891.5216793443775, 0.0, 0.0, 0.0, 0.0, 1491.442500524819, 0.0]
['beep', 0.0, -895.6567520686093, 0.0, 0.0, 0.0, 0.0, 1491.4648522692744, 0.0]
['beep', 0.0, -894.6732753125758, 0.0, 0.0, 0.0, 0.0, 1493.1188813589672, 0.0]
['beep', 0.0, -890.5158508438886, 0.0, 0.0, 0.0, 0.0, 1492.0459976251122, 0.0]
['beep', 0.0, -888.1465659316261, 0.0, 0.0, 0.0, 0.0, 1492.5600877475845, 0.0]
['beep', 0.0, -890.3593886327016, 0.0, 0.0, 0.0, 0.0, 1492.381273791942, 0.0]
['beep', 0.0, -895.7238073019753, 0.0, 0.0, 0.0, 0.0, 1491.3754452914532, 0.0]
['beep', 0.0, -896.79669103583, 0.0, 0.0, 0.0, 0.0, 1491.509555758185, 0.0]
['beep', 0.0, -891.2311066664585, 0.0, 0.0, 0.0, 0.0, 1491.934238902836, 0.0]
['beep', 0.0, -889.2865048988468, 0.0, 0.0, 0.0, 0.0, 1491.218983080266, 0.0]
['beep', 0.0, -890.471147354978, 0.0, 0.0, 0.0, 0.0, 1492.5600877475845, 0.0]
['beep', 0.0, -893.309818900802, 0.0, 0.0, 0.0, 0.0, 1493.051826125601, 0.0]
['beep', 0.0, -895.4332346240562, 0.0, 0.0, 0.0, 0.0, 1490.794299935615, 0.0]
['beep', 0.0, -895.5449933463327, 0.0, 0.0, 0.0, 0.0, 1490.7272447022492, 0.0]
['beep', 0.0, -894.3379991457462, 0.0, 0.0, 0.0, 0.0, 1490.5037272576963, 0.0]
['beep', 0.0, -895.343827646235, 0.0, 0.0, 0.0, 0.0, 1491.5319075026403, 0.0]
['beep', 0.0, -897.8025195363188, 0.0, 0.0, 0.0, 0.0, 1490.123747601956, 0.0]
['beep', 0.0, -897.6684090695869, 0.0, 0.0, 0.0, 0.0, 1489.8778784129477, 0.0]
['beep', 0.0, -893.3545223897127, 0.0, 0.0, 0.0, 0.0, 1489.9449336463135, 0.0]
['beep', 0.0, -891.9687142334836, 0.0, 0.0, 0.0, 0.0, 1489.766119690671, 0.0]
['beep', 0.0, -893.4215776230786, 0.0, 0.0, 0.0, 0.0, 1488.5591254900844, 0.0]
['beep', 0.0, -896.5284701023663, 0.0, 0.0, 0.0, 0.0, 1488.089738856523, 0.0]
['beep', 0.0, -896.729635802464, 0.0, 0.0, 0.0, 0.0, 1489.2073260792884, 0.0]
['beep', 0.0, -894.0027229789166, 0.0, 0.0, 0.0, 0.0, 1489.2073260792884, 0.0]
['beep', 0.0, -892.1251764446708, 0.0, 0.0, 0.0, 0.0, 1489.6320092239391, 0.0]
['beep', 0.0, -895.0085514794054, 0.0, 0.0, 0.0, 0.0, 1489.967285390769, 0.0]
['beep', 0.0, -896.79669103583, 0.0, 0.0, 0.0, 0.0, 1489.8555266684923, 0.0]
['beep', 0.0, -897.4448916250338, 0.0, 0.0, 0.0, 0.0, 1489.8778784129477, 0.0]
['beep', 0.0, -895.120310201682, 0.0, 0.0, 0.0, 0.0, 1489.9449336463135, 0.0]
['beep', 0.0, -893.309818900802, 0.0, 0.0, 0.0, 0.0, 1488.2685528121654, 0.0]
['beep', 0.0, -894.3379991457462, 0.0, 0.0, 0.0, 0.0, 1489.2073260792884, 0.0]
['beep', 0.0, -895.8355660242518, 0.0, 0.0, 0.0, 0.0, 1488.022683623157, 0.0]
['beep', 0.0, -896.0590834688048, 0.0, 0.0, 0.0, 0.0, 1488.804994679093, 0.0]
['beep', 0.0, -893.8686125121848, 0.0, 0.0, 0.0, 0.0, 1489.3861400349308, 0.0]
['beep', 0.0, -892.9298392450619, 0.0, 0.0, 0.0, 0.0, 1488.2909045566207, 0.0]
['beep', 0.0, -894.762682290397, 0.0, 0.0, 0.0, 0.0, 1488.022683623157, 0.0]
['beep', 0.0, -896.8860980136512, 0.0, 0.0, 0.0, 0.0, 1488.022683623157, 0.0]
['beep', 0.0, -897.0425602248383, 0.0, 0.0, 0.0, 0.0, 1488.2462010677102, 0.0]
['beep', 0.0, -895.5449933463327, 0.0, 0.0, 0.0, 0.0, 1488.827346423548, 0.0]
['beep', 0.0, -893.89096425664, 0.0, 0.0, 0.0, 0.0, 1488.6038289789951, 0.0]
['beep', 0.0, -894.3603508902015, 0.0, 0.0, 0.0, 0.0, 1488.2909045566207, 0.0]
['beep', 0.0, -896.9978567359277, 0.0, 0.0, 0.0, 0.0, 1489.028512123646, 0.0]
['beep', 0.0, -897.3554846472126, 0.0, 0.0, 0.0, 0.0, 1488.022683623157, 0.0]
['beep', 0.0, -895.6567520686093, 0.0, 0.0, 0.0, 0.0, 1488.9391051458247, 0.0]
['beep', 0.0, -893.4215776230786, 0.0, 0.0, 0.0, 0.0, 1488.2909045566207, 0.0]
['beep', 0.0, -894.6062200792098, 0.0, 0.0, 0.0, 0.0, 1486.994503378213, 0.0]
['beep', 0.0, -897.4001881361232, 0.0, 0.0, 0.0, 0.0, 1486.413358022375, 0.0]
['beep', 0.0, -898.115443958693, 0.0, 0.0, 0.0, 0.0, 1486.05573011109, 0.0]
['beep', 0.0, -895.2320689239584, 0.0, 0.0, 0.0, 0.0, 1486.7933376781152, 0.0]
['beep', 0.0, -891.2534584109138, 0.0, 0.0, 0.0, 0.0, 1487.374483033953, 0.0]
['beep', 0.0, -892.3039904003133, 0.0, 0.0, 0.0, 0.0, 1487.1509655894001, 0.0]
['beep', 0.0, -894.9414962460395, 0.0, 0.0, 0.0, 0.0, 1485.407529521886, 0.0]
['beep', 0.0, -896.8413945247406, 0.0, 0.0, 0.0, 0.0, 1485.7204539442605, 0.0]
['beep', 0.0, -894.7179788014864, 0.0, 0.0, 0.0, 0.0, 1486.9721516337577, 0.0]
['beep', 0.0, -892.5498595893216, 0.0, 0.0, 0.0, 0.0, 1488.089738856523, 0.0]
['beep', 0.0, -894.3603508902015, 0.0, 0.0, 0.0, 0.0, 1486.5251167446515, 0.0]
['beep', 0.0, -896.5284701023663, 0.0, 0.0, 0.0, 0.0, 1486.6368754669281, 0.0]
['beep', 0.0, -896.6625805690982, 0.0, 0.0, 0.0, 0.0, 1487.374483033953, 0.0]
['beep', 0.0, -893.9356677455506, 0.0, 0.0, 0.0, 0.0, 1487.4862417562297, 0.0]
['beep', 0.0, -892.8851357561513, 0.0, 0.0, 0.0, 0.0, 1487.3074278005872, 0.0]
['beep', 0.0, -894.0027229789166, 0.0, 0.0, 0.0, 0.0, 1486.346302789009, 0.0]
['beep', 0.0, -895.5673450907881, 0.0, 0.0, 0.0, 0.0, 1485.7428056887159, 0.0]
['beep', 0.0, -894.6285718236652, 0.0, 0.0, 0.0, 0.0, 1486.05573011109, 0.0]
['beep', 0.0, -892.2145834224921, 0.0, 0.0, 0.0, 0.0, 1486.7933376781152, 0.0]
['beep', 0.0, -891.70049330002, 0.0, 0.0, 0.0, 0.0, 1484.2899422991209, 0.0]
['beep', 0.0, -895.992028235439, 0.0, 0.0, 0.0, 0.0, 1482.7923754206151, 0.0]
['beep', 0.0, -896.2378974244473, 0.0, 0.0, 0.0, 0.0, 1481.3842155199309, 0.0]
['beep', 0.0, -892.1475281891261, 0.0, 0.0, 0.0, 0.0, 1480.6019044639952, 0.0]
['beep', 0.0, -891.991065977939, 0.0, 0.0, 0.0, 0.0, 1483.1052998429896, 0.0]
['beep', 0.0, -894.3379991457462, 0.0, 0.0, 0.0, 0.0, 1480.378387019442, 0.0]
['beep', 0.0, -895.7014555575199, 0.0, 0.0, 0.0, 0.0, 1479.3055032855873, 0.0]
['beep', 0.0, -895.6120485796987, 0.0, 0.0, 0.0, 0.0, 1480.9818841197355, 0.0]
['beep', 0.0, -895.8802695131624, 0.0, 0.0, 0.0, 0.0, 1481.1159945864672, 0.0]
['beep', 0.0, -896.1037869577154, 0.0, 0.0, 0.0, 0.0, 1480.1101660859783, 0.0]
['beep', 0.0, -895.5449933463327, 0.0, 0.0, 0.0, 0.0, 1480.512497486174, 0.0]
['beep', 0.0, -895.0309032238607, 0.0, 0.0, 0.0, 0.0, 1479.707834685783, 0.0]
['beep', 0.0, -896.6849323135534, 0.0, 0.0, 0.0, 0.0, 1479.8419451525147, 0.0]
['beep', 0.0, -897.5119468583998, 0.0, 0.0, 0.0, 0.0, 1481.1159945864672, 0.0]
['beep', 0.0, -894.9191445015841, 0.0, 0.0, 0.0, 0.0, 1479.6184277079617, 0.0]
['beep', 0.0, -893.2427636674362, 0.0, 0.0, 0.0, 0.0, 1479.0819858410343, 0.0]
['beep', 0.0, -895.2097171795032, 0.0, 0.0, 0.0, 0.0, 1479.3725585189532, 0.0]
['beep', 0.0, -898.5177753588886, 0.0, 0.0, 0.0, 0.0, 1478.6125992074728, 0.0]
['beep', 0.0, -899.3000864148244, 0.0, 0.0, 0.0, 0.0, 1478.76906141866, 0.0]
['beep', 0.0, -897.1319672026596, 0.0, 0.0, 0.0, 0.0, 1479.3949102634085, 0.0]
['beep', 0.0, -895.992028235439, 0.0, 0.0, 0.0, 0.0, 1479.1043375854895, 0.0]
['beep', 0.0, -896.729635802464, 0.0, 0.0, 0.0, 0.0, 1478.4337852518304, 0.0]
['beep', 0.0, -898.0930922142378, 0.0, 0.0, 0.0, 0.0, 1478.8808201409365, 0.0]
['beep', 0.0, -898.8977550146288, 0.0, 0.0, 0.0, 0.0, 1479.0819858410343, 0.0]
['beep', 0.0, -896.8190427802853, 0.0, 0.0, 0.0, 0.0, 1478.2773230406433, 0.0]
['beep', 0.0, -895.1426619461372, 0.0, 0.0, 0.0, 0.0, 1478.0761573405455, 0.0]
['beep', 0.0, -896.0143799798942, 0.0, 0.0, 0.0, 0.0, 1478.4784887407409, 0.0]
['beep', 0.0, -897.6684090695869, 0.0, 0.0, 0.0, 0.0, 1479.0149306076682, 0.0]
['beep', 0.0, -898.696589314531, 0.0, 0.0, 0.0, 0.0, 1478.9702271187577, 0.0]
['beep', 0.0, -897.2884294138468, 0.0, 0.0, 0.0, 0.0, 1480.4007387638974, 0.0]
['beep', 0.0, -896.0143799798942, 0.0, 0.0, 0.0, 0.0, 1479.6184277079617, 0.0]
['beep', 0.0, -896.6849323135534, 0.0, 0.0, 0.0, 0.0, 1478.1432125739113, 0.0]
['beep', 0.0, -898.3389614032461, 0.0, 0.0, 0.0, 0.0, 1479.0819858410343, 0.0]
['beep', 0.0, -899.3894933926456, 0.0, 0.0, 0.0, 0.0, 1478.925523629847, 0.0]
['beep', 0.0, -898.7189410589864, 0.0, 0.0, 0.0, 0.0, 1480.2442765527103, 0.0]
['beep', 0.0, -897.1766706915702, 0.0, 0.0, 0.0, 0.0, 1479.573724219051, 0.0]
['beep', 0.0, -897.4895951139445, 0.0, 0.0, 0.0, 0.0, 1477.964398618269, 0.0]
['beep', 0.0, -898.763644547897, 0.0, 0.0, 0.0, 0.0, 1479.3278550300427, 0.0]
['beep', 0.0, -899.8365282817517, 0.0, 0.0, 0.0, 0.0, 1479.8195934080593, 0.0]
['beep', 0.0, -897.8025195363188, 0.0, 0.0, 0.0, 0.0, 1479.3949102634085, 0.0]
['beep', 0.0, -895.992028235439, 0.0, 0.0, 0.0, 0.0, 1480.1995730637996, 0.0]
['beep', 0.0, -895.6791038130647, 0.0, 0.0, 0.0, 0.0, 1479.4172620078639, 0.0]
['beep', 0.0, -897.958981747506, 0.0, 0.0, 0.0, 0.0, 1479.7525381746934, 0.0]
['beep', 0.0, -898.2048509365143, 0.0, 0.0, 0.0, 0.0, 1479.9313521303359, 0.0]
['beep', 0.0, -896.1931939355367, 0.0, 0.0, 0.0, 0.0, 1479.2607997966768, 0.0]
['beep', 0.0, -893.958019490006, 0.0, 0.0, 0.0, 0.0, 1479.283151541132, 0.0]
['beep', 0.0, -894.3156474012909, 0.0, 0.0, 0.0, 0.0, 1478.7243579297494, 0.0]
['beep', 0.0, -897.7801677918635, 0.0, 0.0, 0.0, 0.0, 1478.8808201409365, 0.0]
['beep', 0.0, -897.6237055806763, 0.0, 0.0, 0.0, 0.0, 1478.1655643183667, 0.0]
['beep', 0.0, -895.4332346240562, 0.0, 0.0, 0.0, 0.0, 1478.9031718853919, 0.0]
['beep', 0.0, -894.2262404234697, 0.0, 0.0, 0.0, 0.0, 1478.3667300184645, 0.0]
['beep', 0.0, -895.2097171795032, 0.0, 0.0, 0.0, 0.0, 1477.8079364070818, 0.0]
['beep', 0.0, -896.8637462691959, 0.0, 0.0, 0.0, 0.0, 1477.763232918171, 0.0]
['beep', 0.0, -896.1708421910814, 0.0, 0.0, 0.0, 0.0, 1477.4279567513415, 0.0]
['beep', 0.0, -892.9074875006065, 0.0, 0.0, 0.0, 0.0, 1477.316198029065, 0.0]
['beep', 0.0, -892.2816386558579, 0.0, 0.0, 0.0, 0.0, 1476.8468113955037, 0.0]
['beep', 0.0, -892.2145834224921, 0.0, 0.0, 0.0, 0.0, 1475.7739276616487, 0.0]
['beep', 0.0, -893.6897985565423, 0.0, 0.0, 0.0, 0.0, 1476.4891834842185, 0.0]
['beep', 0.0, -895.1650136905926, 0.0, 0.0, 0.0, 0.0, 1476.8468113955037, 0.0]
['beep', 0.0, -894.0921299567378, 0.0, 0.0, 0.0, 0.0, 1475.3939480059087, 0.0]
['beep', 0.0, -891.2534584109138, 0.0, 0.0, 0.0, 0.0, 1475.282189283632, 0.0]
['beep', 0.0, -891.9687142334836, 0.0, 0.0, 0.0, 0.0, 1475.058671839079, 0.0]
['beep', 0.0, -894.2709439123803, 0.0, 0.0, 0.0, 0.0, 1474.701043927794, 0.0]
['beep', 0.0, -895.5002898574221, 0.0, 0.0, 0.0, 0.0, 1474.3657677609644, 0.0]
['beep', 0.0, -894.0697782122825, 0.0, 0.0, 0.0, 0.0, 1476.2209625507548, 0.0]
['beep', 0.0, -892.3710456336792, 0.0, 0.0, 0.0, 0.0, 1476.802107906593, 0.0]
['beep', 0.0, -892.9968944784277, 0.0, 0.0, 0.0, 0.0, 1476.8468113955037, 0.0]
['beep', 0.0, -894.6732753125758, 0.0, 0.0, 0.0, 0.0, 1477.8749916404477, 0.0]
['beep', 0.0, -894.9414962460395, 0.0, 0.0, 0.0, 0.0, 1478.0761573405455, 0.0]
['beep', 0.0, -893.086301456249, 0.0, 0.0, 0.0, 0.0, 1480.4007387638974, 0.0]
['beep', 0.0, -891.991065977939, 0.0, 0.0, 0.0, 0.0, 1481.8983056424029, 0.0]
['beep', 0.0, -891.052292710816, 0.0, 0.0, 0.0, 0.0, 1481.607732964484, 0.0]
['beep', 0.0, -892.8180805227853, 0.0, 0.0, 0.0, 0.0, 1481.7641951756711, 0.0]
['beep', 0.0, -893.9356677455506, 0.0, 0.0, 0.0, 0.0, 1483.4182242653637, 0.0]
['beep', 0.0, -891.4769758554669, 0.0, 0.0, 0.0, 0.0, 1485.027549866146, 0.0]
['beep', 0.0, -890.1358711881485, 0.0, 0.0, 0.0, 0.0, 1485.5639917330734, 0.0]
['beep', 0.0, -891.3652171331903, 0.0, 0.0, 0.0, 0.0, 1484.379349276942, 0.0]
['beep', 0.0, -893.1310049451596, 0.0, 0.0, 0.0, 0.0, 1483.6193899654616, 0.0]
['beep', 0.0, -892.9521909895171, 0.0, 0.0, 0.0, 0.0, 1484.5581632325845, 0.0]
['beep', 0.0, -891.0299409663608, 0.0, 0.0, 0.0, 0.0, 1484.96049463278, 0.0]
['beep', 0.0, -890.2029264215143, 0.0, 0.0, 0.0, 0.0, 1484.96049463278, 0.0]
['beep', 0.0, -891.3205136442797, 0.0, 0.0, 0.0, 0.0, 1485.1840120773331, 0.0]
['beep', 0.0, -894.3603508902015, 0.0, 0.0, 0.0, 0.0, 1485.7875091776264, 0.0]
['beep', 0.0, -894.6062200792098, 0.0, 0.0, 0.0, 0.0, 1484.8040324215929, 0.0]
['beep', 0.0, -892.9298392450619, 0.0, 0.0, 0.0, 0.0, 1484.5134597436738, 0.0]
['beep', 0.0, -890.6946647995311, 0.0, 0.0, 0.0, 0.0, 1484.96049463278, 0.0]
['beep', 0.0, -891.0299409663608, 0.0, 0.0, 0.0, 0.0, 1484.602866721495, 0.0]
['beep', 0.0, -893.3992258786233, 0.0, 0.0, 0.0, 0.0, 1485.2287155662436, 0.0]
['beep', 0.0, -894.2709439123803, 0.0, 0.0, 0.0, 0.0, 1486.2792475556432, 0.0]
['beep', 0.0, -891.7675485333859, 0.0, 0.0, 0.0, 0.0, 1486.3686545334645, 0.0]
['beep', 0.0, -888.9735804764725, 0.0, 0.0, 0.0, 0.0, 1486.8156894225706, 0.0]
['beep', 0.0, -891.052292710816, 0.0, 0.0, 0.0, 0.0, 1486.413358022375, 0.0]
['beep', 0.0, -891.5216793443775, 0.0, 0.0, 0.0, 0.0, 1487.2850760561319, 0.0]
['beep', 0.0, -891.6781415555647, 0.0, 0.0, 0.0, 0.0, 1486.1004336000008, 0.0]
['beep', 0.0, -890.2699816548803, 0.0, 0.0, 0.0, 0.0, 1486.860392911481, 0.0]
['beep', 0.0, -889.085339198749, 0.0, 0.0, 0.0, 0.0, 1487.4638900117743, 0.0]
['beep', 0.0, -890.3146851437909, 0.0, 0.0, 0.0, 0.0, 1486.3686545334645, 0.0]
['beep', 0.0, -893.3992258786233, 0.0, 0.0, 0.0, 0.0, 1486.189840577822, 0.0]
['beep', 0.0, -893.7792055343635, 0.0, 0.0, 0.0, 0.0, 1486.6368754669281, 0.0]
['beep', 0.0, -891.1640514330926, 0.0, 0.0, 0.0, 0.0, 1487.352131289498, 0.0]
['beep', 0.0, -887.990103720439, 0.0, 0.0, 0.0, 0.0, 1486.9721516337577, 0.0]
['beep', 0.0, -886.9842752199502, 0.0, 0.0, 0.0, 0.0, 1488.1120906009783, 0.0]
['beep', 0.0, -888.4147868650898, 0.0, 0.0, 0.0, 0.0, 1489.2296778237437, 0.0]
['beep', 0.0, -888.0795106982603, 0.0, 0.0, 0.0, 0.0, 1489.475547012752, 0.0]
['beep', 0.0, -886.2913711418356, 0.0, 0.0, 0.0, 0.0, 1489.5202505016628, 0.0]
['beep', 0.0, -886.6042955642099, 0.0, 0.0, 0.0, 0.0, 1489.3861400349308, 0.0]
['beep', 0.0, -889.4429671100339, 0.0, 0.0, 0.0, 0.0, 1489.5202505016628, 0.0]
['beep', 0.0, -893.153356689615, 0.0, 0.0, 0.0, 0.0, 1488.8720499124588, 0.0]
['beep', 0.0, -893.6450950676317, 0.0, 0.0, 0.0, 0.0, 1487.0168551226682, 0.0]
['beep', 0.0, -891.8122520222965, 0.0, 0.0, 0.0, 0.0, 1485.2063638217885, 0.0]
['beep', 0.0, -889.9123537435954, 0.0, 0.0, 0.0, 0.0, 1483.7758521766486, 0.0]
['beep', 0.0, -851.959091658484, 0.0, 0.0, 0.0, 0.0, 1471.8400206375147, 0.0]
['beep', 0.0, -853.2554928368918, 0.0, 0.0, 0.0, 0.0, 1472.5999799489953, 0.0]
['beep', 0.0, -854.6413009931208, 0.0, 0.0, 0.0, 0.0, 1473.6058084494841, 0.0]
['beep', 0.0, -853.5460655148108, 0.0, 0.0, 0.0, 0.0, 1475.058671839079, 0.0]
['beep', 0.0, -850.5509317577996, 0.0, 0.0, 0.0, 0.0, 1475.3045410280874, 0.0]
['beep', 0.0, -850.1486003576041, 0.0, 0.0, 0.0, 0.0, 1475.48335498373, 0.0]
['beep', 0.0, -853.5684172592661, 0.0, 0.0, 0.0, 0.0, 1476.1762590618443, 0.0]
['beep', 0.0, -853.6354724926321, 0.0, 0.0, 0.0, 0.0, 1475.8409828950148, 0.0]
['beep', 0.0, -848.5169230123668, 0.0, 0.0, 0.0, 0.0, 1475.349244516998, 0.0]
['beep', 0.0, -848.9416061570175, 0.0, 0.0, 0.0, 0.0, 1476.3327212730314, 0.0]
['beep', 0.0, -855.6694812380649, 0.0, 0.0, 0.0, 0.0, 1476.6903491843163, 0.0]
['beep', 0.0, -856.0494608938052, 0.0, 0.0, 0.0, 0.0, 1476.8691631399588, 0.0]
['beep', 0.0, -854.21661784847, 0.0, 0.0, 0.0, 0.0, 1478.4561369962857, 0.0]
['beep', 0.0, -853.8813416816404, 0.0, 0.0, 0.0, 0.0, 1478.6573026963833, 0.0]
['beep', 0.0, -853.4343067925342, 0.0, 0.0, 0.0, 0.0, 1478.0985090850008, 0.0]
['beep', 0.0, -854.6636527375762, 0.0, 0.0, 0.0, 0.0, 1476.8468113955037, 0.0]
['beep', 0.0, -858.5305045283443, 0.0, 0.0, 0.0, 0.0, 1477.316198029065, 0.0]
['beep', 0.0, -861.0338999073387, 0.0, 0.0, 0.0, 0.0, 1478.3220265295538, 0.0]
['beep', 0.0, -858.9998911619057, 0.0, 0.0, 0.0, 0.0, 1478.2102678072772, 0.0]
['beep', 0.0, -855.1106876266823, 0.0, 0.0, 0.0, 0.0, 1476.6903491843163, 0.0]
['beep', 0.0, -853.6578242370873, 0.0, 0.0, 0.0, 0.0, 1475.5504102170958, 0.0]
['beep', 0.0, -857.055289394294, 0.0, 0.0, 0.0, 0.0, 1473.963436360769, 0.0]
['beep', 0.0, -858.5081527838889, 0.0, 0.0, 0.0, 0.0, 1474.4328229943303, 0.0]
['beep', 0.0, -858.2399318504253, 0.0, 0.0, 0.0, 0.0, 1475.2598375391767, 0.0]
['beep', 0.0, -856.3176818272689, 0.0, 0.0, 0.0, 0.0, 1475.0363200946238, 0.0]
['beep', 0.0, -856.3623853161795, 0.0, 0.0, 0.0, 0.0, 1475.349244516998, 0.0]
['beep', 0.0, -858.7540219728974, 0.0, 0.0, 0.0, 0.0, 1474.7904509056152, 0.0]
['beep', 0.0, -860.3409958292242, 0.0, 0.0, 0.0, 0.0, 1475.639817194917, 0.0]
['beep', 0.0, -858.5752080172549, 0.0, 0.0, 0.0, 0.0, 1476.3550730174868, 0.0]
['beep', 0.0, -856.0494608938052, 0.0, 0.0, 0.0, 0.0, 1477.8749916404477, 0.0]
['beep', 0.0, -857.3235103277577, 0.0, 0.0, 0.0, 0.0, 1477.7185294292606, 0.0]
['beep', 0.0, -858.7540219728974, 0.0, 0.0, 0.0, 0.0, 1477.8302881515372, 0.0]
['beep', 0.0, -861.056251651794, 0.0, 0.0, 0.0, 0.0, 1477.3385497735203, 0.0]
['beep', 0.0, -860.3186440847688, 0.0, 0.0, 0.0, 0.0, 1477.9420468738135, 0.0]
['beep', 0.0, -857.7034899834979, 0.0, 0.0, 0.0, 0.0, 1478.925523629847, 0.0]
['beep', 0.0, -857.2117516054811, 0.0, 0.0, 0.0, 0.0, 1478.992578863213, 0.0]
['beep', 0.0, -858.6646149950761, 0.0, 0.0, 0.0, 0.0, 1479.6631311968722, 0.0]
['beep', 0.0, -860.0280714068499, 0.0, 0.0, 0.0, 0.0, 1480.221924808255, 0.0]
['beep', 0.0, -859.2234086064587, 0.0, 0.0, 0.0, 0.0, 1480.668959697361, 0.0]
['beep', 0.0, -856.1612196160818, 0.0, 0.0, 0.0, 0.0, 1481.160698075378, 0.0]
['beep', 0.0, -855.0883358822269, 0.0, 0.0, 0.0, 0.0, 1480.3560352749867, 0.0]
['beep', 0.0, -857.7705452168639, 0.0, 0.0, 0.0, 0.0, 1481.2054015642884, 0.0]
['beep', 0.0, -858.5528562727995, 0.0, 0.0, 0.0, 0.0, 1481.607732964484, 0.0]
['beep', 0.0, -857.3682138166683, 0.0, 0.0, 0.0, 0.0, 1482.2782852981431, 0.0]
['beep', 0.0, -856.0271091493499, 0.0, 0.0, 0.0, 0.0, 1481.987712620224, 0.0]
['beep', 0.0, -855.8259434492521, 0.0, 0.0, 0.0, 0.0, 1481.6300847089392, 0.0]
['beep', 0.0, -858.3516905727018, 0.0, 0.0, 0.0, 0.0, 1480.8701253974589, 0.0]
['beep', 0.0, -861.1456586296152, 0.0, 0.0, 0.0, 0.0, 1481.540677731118, 0.0]
['beep', 0.0, -859.9163126845733, 0.0, 0.0, 0.0, 0.0, 1482.7923754206151, 0.0]
['beep', 0.0, -857.569379516766, 0.0, 0.0, 0.0, 0.0, 1482.6806166983388, 0.0]
['beep', 0.0, -856.6529579940985, 0.0, 0.0, 0.0, 0.0, 1480.154869574889, 0.0]
['beep', 0.0, -855.8259434492521, 0.0, 0.0, 0.0, 0.0, 1477.897343384903, 0.0]
['beep', 0.0, -856.2729783383583, 0.0, 0.0, 0.0, 0.0, 1480.7583666751823, 0.0]
['beep', 0.0, -855.4906672824225, 0.0, 0.0, 0.0, 0.0, 1481.1159945864672, 0.0]
['beep', 0.0, -849.9027311685958, 0.0, 0.0, 0.0, 0.0, 1477.9867503627243, 0.0]
['beep', 0.0, -849.3662893016684, 0.0, 0.0, 0.0, 0.0, 1479.6407794524168, 0.0]
['beep', 0.0, -852.8084579477857, 0.0, 0.0, 0.0, 0.0, 1481.2724567976543, 0.0]
['beep', 0.0, -854.21661784847, 0.0, 0.0, 0.0, 0.0, 1481.8536021534924, 0.0]
['beep', 0.0, -852.2049608474924, 0.0, 0.0, 0.0, 0.0, 1482.5018027426963, 0.0]
['beep', 0.0, -849.12042011266, 0.0, 0.0, 0.0, 0.0, 1482.4347475093302, 0.0]
['beep', 0.0, -849.3886410461237, 0.0, 0.0, 0.0, 0.0, 1481.4959742422075, 0.0]
['beep', 0.0, -851.8249811917522, 0.0, 0.0, 0.0, 0.0, 1481.4959742422075, 0.0]
['beep', 0.0, -852.830809692241, 0.0, 0.0, 0.0, 0.0, 1481.160698075378, 0.0]
['beep', 0.0, -850.5285800133444, 0.0, 0.0, 0.0, 0.0, 1480.7136631862716, 0.0]
['beep', 0.0, -847.3993357896013, 0.0, 0.0, 0.0, 0.0, 1481.2054015642884, 0.0]
['beep', 0.0, -846.0582311222829, 0.0, 0.0, 0.0, 0.0, 1482.3676922759644, 0.0]
['beep', 0.0, -849.2768823238472, 0.0, 0.0, 0.0, 0.0, 1481.6971399423053, 0.0]
['beep', 0.0, -851.5344085138331, 0.0, 0.0, 0.0, 0.0, 1481.4289190088416, 0.0]
['beep', 0.0, -850.506228268889, 0.0, 0.0, 0.0, 0.0, 1481.6524364533946, 0.0]
['beep', 0.0, -848.4945712679114, 0.0, 0.0, 0.0, 0.0, 1481.987712620224, 0.0]
['beep', 0.0, -847.8240189342522, 0.0, 0.0, 0.0, 0.0, 1483.2394103097213, 0.0]
['beep', 0.0, -850.8415044357187, 0.0, 0.0, 0.0, 0.0, 1482.2335818092326, 0.0]
['beep', 0.0, -852.8755131811516, 0.0, 0.0, 0.0, 0.0, 1482.5465062316068, 0.0]
['beep', 0.0, -851.8249811917522, 0.0, 0.0, 0.0, 0.0, 1482.5688579760622, 0.0]
['beep', 0.0, -849.187475346026, 0.0, 0.0, 0.0, 0.0, 1482.77002367616, 0.0]
['beep', 0.0, -848.0698881232606, 0.0, 0.0, 0.0, 0.0, 1481.4289190088416, 0.0]
['beep', 0.0, -850.1709521020595, 0.0, 0.0, 0.0, 0.0, 1482.479450998241, 0.0]
['beep', 0.0, -851.6461672361097, 0.0, 0.0, 0.0, 0.0, 1483.4629277542745, 0.0]
['beep', 0.0, -849.9474346575064, 0.0, 0.0, 0.0, 0.0, 1485.0722533550565, 0.0]
['beep', 0.0, -847.3993357896013, 0.0, 0.0, 0.0, 0.0, 1484.0217213656572, 0.0]
['beep', 0.0, -847.6452049786097, 0.0, 0.0, 0.0, 0.0, 1484.8040324215929, 0.0]
['beep', 0.0, -849.2992340683024, 0.0, 0.0, 0.0, 0.0, 1484.7146254437716, 0.0]
['beep', 0.0, -851.668518980565, 0.0, 0.0, 0.0, 0.0, 1485.541639988618, 0.0]
['beep', 0.0, -850.9085596690845, 0.0, 0.0, 0.0, 0.0, 1486.927448144847, 0.0]
['beep', 0.0, -848.1369433566265, 0.0, 0.0, 0.0, 0.0, 1485.0499016106012, 0.0]
['beep', 0.0, -848.4945712679114, 0.0, 0.0, 0.0, 0.0, 1484.7816806771375, 0.0]
['beep', 0.0, -849.5451032573109, 0.0, 0.0, 0.0, 0.0, 1485.2734190551544, 0.0]
['beep', 0.0, -849.9474346575064, 0.0, 0.0, 0.0, 0.0, 1487.1286138449448, 0.0]
['beep', 0.0, -853.2107893479812, 0.0, 0.0, 0.0, 0.0, 1487.5309452451404, 0.0]
['beep', 0.0, -853.5460655148108, 0.0, 0.0, 0.0, 0.0, 1485.1393085884224, 0.0]
['beep', 0.0, -848.606329990188, 0.0, 0.0, 0.0, 0.0, 1485.6310469664393, 0.0]
['beep', 0.0, -847.9357776565288, 0.0, 0.0, 0.0, 0.0, 1487.1956690783106, 0.0]
['beep', 0.0, -848.1369433566265, 0.0, 0.0, 0.0, 0.0, 1488.2014975787995, 0.0]
['beep', 0.0, -848.4945712679114, 0.0, 0.0, 0.0, 0.0, 1489.475547012752, 0.0]
['beep', 0.0, -850.4838765244338, 0.0, 0.0, 0.0, 0.0, 1489.475547012752, 0.0]
['beep', 0.0, -851.9814434029394, 0.0, 0.0, 0.0, 0.0, 1486.860392911481, 0.0]
['beep', 0.0, -854.8201149487633, 0.0, 0.0, 0.0, 0.0, 1484.8487359105036, 0.0]
['beep', 0.0, -856.7870684608304, 0.0, 0.0, 0.0, 0.0, 1486.2121923222771, 0.0]
['beep', 0.0, -853.4790102814449, 0.0, 0.0, 0.0, 0.0, 1486.3686545334645, 0.0]
['beep', 0.0, -850.2827108243359, 0.0, 0.0, 0.0, 0.0, 1483.507631243185, 0.0]
['beep', 0.0, -851.0426701358164, 0.0, 0.0, 0.0, 0.0, 1483.127651587445, 0.0]
['beep', 0.0, -855.4459637935119, 0.0, 0.0, 0.0, 0.0, 1484.0217213656572, 0.0]
['beep', 0.0, -856.8541236941962, 0.0, 0.0, 0.0, 0.0, 1484.446404510308, 0.0]
['beep', 0.0, -855.4683155379672, 0.0, 0.0, 0.0, 0.0, 1483.284113798632, 0.0]
['beep', 0.0, -852.540237014322, 0.0, 0.0, 0.0, 0.0, 1483.284113798632, 0.0]
['beep', 0.0, -851.6014637471991, 0.0, 0.0, 0.0, 0.0, 1483.3064655430874, 0.0]
['beep', 0.0, -853.2107893479812, 0.0, 0.0, 0.0, 0.0, 1483.7758521766486, 0.0]
['beep', 0.0, -855.2671498378694, 0.0, 0.0, 0.0, 0.0, 1483.5523347320957, 0.0]
['beep', 0.0, -855.0659841377717, 0.0, 0.0, 0.0, 0.0, 1483.932314387836, 0.0]
['beep', 0.0, -853.6131207481767, 0.0, 0.0, 0.0, 0.0, 1484.4017010213972, 0.0]
['beep', 0.0, -851.959091658484, 0.0, 0.0, 0.0, 0.0, 1484.5581632325845, 0.0]
['beep', 0.0, -854.1942661040147, 0.0, 0.0, 0.0, 0.0, 1483.1723550763554, 0.0]
['beep', 0.0, -856.7200132274644, 0.0, 0.0, 0.0, 0.0, 1482.9488376318025, 0.0]
['beep', 0.0, -854.8648184376739, 0.0, 0.0, 0.0, 0.0, 1483.0605963540788, 0.0]
['beep', 0.0, -851.9814434029394, 0.0, 0.0, 0.0, 0.0, 1484.155831832389, 0.0]
['beep', 0.0, -852.7190509699644, 0.0, 0.0, 0.0, 0.0, 1483.440576009819, 0.0]
['beep', 0.0, -855.8929986826181, 0.0, 0.0, 0.0, 0.0, 1483.8429074100147, 0.0]
['beep', 0.0, -857.8599521946851, 0.0, 0.0, 0.0, 0.0, 1484.2452388102101, 0.0]
['beep', 0.0, -856.9211789275622, 0.0, 0.0, 0.0, 0.0, 1484.9157911438695, 0.0]
['beep', 0.0, -853.3225480702578, 0.0, 0.0, 0.0, 0.0, 1485.899267899903, 0.0]
['beep', 0.0, -852.540237014322, 0.0, 0.0, 0.0, 0.0, 1485.385177777431, 0.0]
['beep', 0.0, -854.9765771599505, 0.0, 0.0, 0.0, 0.0, 1485.2063638217885, 0.0]
['beep', 0.0, -857.7258417279533, 0.0, 0.0, 0.0, 0.0, 1486.0780818555454, 0.0]
['beep', 0.0, -856.4964957829113, 0.0, 0.0, 0.0, 0.0, 1486.5251167446515, 0.0]
['beep', 0.0, -854.4848387819337, 0.0, 0.0, 0.0, 0.0, 1486.994503378213, 0.0]
['beep', 0.0, -854.2836730818359, 0.0, 0.0, 0.0, 0.0, 1485.7204539442605, 0.0]
['beep', 0.0, -856.831771949741, 0.0, 0.0, 0.0, 0.0, 1484.4017010213972, 0.0]
['beep', 0.0, -858.3963940616125, 0.0, 0.0, 0.0, 0.0, 1487.1286138449448, 0.0]
['beep', 0.0, -859.2457603509141, 0.0, 0.0, 0.0, 0.0, 1488.2685528121654, 0.0]
['beep', 0.0, -859.6257400066543, 0.0, 0.0, 0.0, 0.0, 1483.3511690319979, 0.0]
['beep', 0.0, -856.5188475273667, 0.0, 0.0, 0.0, 0.0, 1481.6300847089392, 0.0]
['beep', 0.0, -855.1553911155929, 0.0, 0.0, 0.0, 0.0, 1482.9041341428917, 0.0]
['beep', 0.0, -856.8764754386516, 0.0, 0.0, 0.0, 0.0, 1483.0158928651683, 0.0]
['beep', 0.0, -856.2729783383583, 0.0, 0.0, 0.0, 0.0, 1483.0829480985342, 0.0]
['beep', 0.0, -854.1942661040147, 0.0, 0.0, 0.0, 0.0, 1482.4570992537856, 0.0]
['beep', 0.0, -852.6966992255092, 0.0, 0.0, 0.0, 0.0, 1482.7923754206151, 0.0]
['beep', 0.0, -854.797763204308, 0.0, 0.0, 0.0, 0.0, 1484.1111283434784, 0.0]
['beep', 0.0, -853.7695829593639, 0.0, 0.0, 0.0, 0.0, 1484.446404510308, 0.0]
['beep', 0.0, -849.7909724463192, 0.0, 0.0, 0.0, 0.0, 1483.1052998429896, 0.0]
['beep', 0.0, -848.2934055678137, 0.0, 0.0, 0.0, 0.0, 1483.2394103097213, 0.0]
['beep', 0.0, -849.8356759352298, 0.0, 0.0, 0.0, 0.0, 1484.1781835768443, 0.0]
['beep', 0.0, -851.7355742139309, 0.0, 0.0, 0.0, 0.0, 1485.407529521886, 0.0]
['beep', 0.0, -853.0990306257047, 0.0, 0.0, 0.0, 0.0, 1485.2957707996097, 0.0]
['beep', 0.0, -852.0932021252158, 0.0, 0.0, 0.0, 0.0, 1485.5192882441627, 0.0]
['beep', 0.0, -850.0591933797829, 0.0, 0.0, 0.0, 0.0, 1486.3910062779196, 0.0]
['beep', 0.0, -849.3662893016684, 0.0, 0.0, 0.0, 0.0, 1486.927448144847, 0.0]
['beep', 0.0, -851.668518980565, 0.0, 0.0, 0.0, 0.0, 1485.2287155662436, 0.0]
['beep', 0.0, -853.8589899371851, 0.0, 0.0, 0.0, 0.0, 1485.541639988618, 0.0]
['beep', 0.0, -852.249664336403, 0.0, 0.0, 0.0, 0.0, 1485.9663231332688, 0.0]
['beep', 0.0, -850.0144898908723, 0.0, 0.0, 0.0, 0.0, 1487.5309452451404, 0.0]
['beep', 0.0, -849.3662893016684, 0.0, 0.0, 0.0, 0.0, 1488.8496981680034, 0.0]
['beep', 0.0, -852.3614230586795, 0.0, 0.0, 0.0, 0.0, 1489.0955673570118, 0.0]
['beep', 0.0, -854.3283765707465, 0.0, 0.0, 0.0, 0.0, 1487.6427039674168, 0.0]
['beep', 0.0, -853.4343067925342, 0.0, 0.0, 0.0, 0.0, 1489.6767127128498, 0.0]
['beep', 0.0, -851.4673532804673, 0.0, 0.0, 0.0, 0.0, 1490.1460993464113, 0.0]
['beep', 0.0, -849.2992340683024, 0.0, 0.0, 0.0, 0.0, 1489.1402708459225, 0.0]
['beep', 0.0, -847.6005014896991, 0.0, 0.0, 0.0, 0.0, 1489.8108231795816, 0.0]
['beep', 0.0, -846.8405421782187, 0.0, 0.0, 0.0, 0.0, 1490.9731138912575, 0.0]
['beep', 0.0, -846.3935072891126, 0.0, 0.0, 0.0, 0.0, 1491.3307418025424, 0.0]
['beep', 0.0, -848.606329990188, 0.0, 0.0, 0.0, 0.0, 1491.6660179693722, 0.0]
['beep', 0.0, -846.6617282225762, 0.0, 0.0, 0.0, 0.0, 1489.6990644573052, 0.0]
['beep', 0.0, -844.5159607548668, 0.0, 0.0, 0.0, 0.0, 1490.3249133020538, 0.0]
['beep', 0.0, -848.4051642900902, 0.0, 0.0, 0.0, 0.0, 1490.2131545797772, 0.0]
['beep', 0.0, -852.249664336403, 0.0, 0.0, 0.0, 0.0, 1489.6320092239391, 0.0]
['beep', 0.0, -849.6568619795873, 0.0, 0.0, 0.0, 0.0, 1488.4250150233527, 0.0]
['beep', 0.0, -846.7958386893081, 0.0, 0.0, 0.0, 0.0, 1487.5309452451404, 0.0]
['beep', 0.0, -849.6121584906767, 0.0, 0.0, 0.0, 0.0, 1487.4191865228638, 0.0]
['beep', 0.0, -856.2059231049924, 0.0, 0.0, 0.0, 0.0, 1487.0168551226682, 0.0]
['beep', 0.0, -854.9318736710399, 0.0, 0.0, 0.0, 0.0, 1485.0051981216907, 0.0]
['beep', 0.0, -849.8803794241404, 0.0, 0.0, 0.0, 0.0, 1485.0722533550565, 0.0]
['beep', 0.0, -848.2710538233583, 0.0, 0.0, 0.0, 0.0, 1484.9157911438695, 0.0]
['beep', 0.0, -849.6345102351321, 0.0, 0.0, 0.0, 0.0, 1483.9993696212018, 0.0]
['beep', 0.0, -852.1602573585818, 0.0, 0.0, 0.0, 0.0, 1483.0158928651683, 0.0]
['beep', 0.0, -851.1320771136376, 0.0, 0.0, 0.0, 0.0, 1484.1334800879335, 0.0]
['beep', 0.0, -850.0144898908723, 0.0, 0.0, 0.0, 0.0, 1482.7253201872493, 0.0]
['beep', 0.0, -851.2885393248248, 0.0, 0.0, 0.0, 0.0, 1483.3735207764532, 0.0]
['beep', 0.0, -852.763754458875, 0.0, 0.0, 0.0, 0.0, 1484.1781835768443, 0.0]
['beep', 0.0, -856.2953300828136, 0.0, 0.0, 0.0, 0.0, 1486.1004336000008, 0.0]
['beep', 0.0, -857.5023242834002, 0.0, 0.0, 0.0, 0.0, 1484.1781835768443, 0.0]
['beep', 0.0, -854.4177835485677, 0.0, 0.0, 0.0, 0.0, 1484.2228870657548, 0.0]
['beep', 0.0, -851.2885393248248, 0.0, 0.0, 0.0, 0.0, 1485.7428056887159, 0.0]
['beep', 0.0, -852.8084579477857, 0.0, 0.0, 0.0, 0.0, 1484.8040324215929, 0.0]
['beep', 0.0, -856.2059231049924, 0.0, 0.0, 0.0, 0.0, 1484.9828463772353, 0.0]
['beep', 0.0, -855.8482951937075, 0.0, 0.0, 0.0, 0.0, 1485.5192882441627, 0.0]
['beep', 0.0, -851.4897050249225, 0.0, 0.0, 0.0, 0.0, 1486.703930700294, 0.0]
['beep', 0.0, -851.7132224694756, 0.0, 0.0, 0.0, 0.0, 1486.9497998893023, 0.0]
['beep', 0.0, -853.5460655148108, 0.0, 0.0, 0.0, 0.0, 1486.2568958111879, 0.0]
['beep', 0.0, -856.1165161271712, 0.0, 0.0, 0.0, 0.0, 1486.6368754669281, 0.0]
['beep', 0.0, -858.3740423171571, 0.0, 0.0, 0.0, 0.0, 1486.5921719780174, 0.0]
['beep', 0.0, -857.9046556835957, 0.0, 0.0, 0.0, 0.0, 1485.385177777431, 0.0]
['beep', 0.0, -860.2292371069476, 0.0, 0.0, 0.0, 0.0, 1485.5192882441627, 0.0]
['beep', 0.0, -859.6927952400202, 0.0, 0.0, 0.0, 0.0, 1484.1334800879335, 0.0]
['beep', 0.0, -858.9998911619057, 0.0, 0.0, 0.0, 0.0, 1483.8205556655594, 0.0]
['beep', 0.0, -860.0727748957605, 0.0, 0.0, 0.0, 0.0, 1484.6252184659504, 0.0]
['beep', 0.0, -859.7374987289309, 0.0, 0.0, 0.0, 0.0, 1486.0780818555454, 0.0]
['beep', 0.0, -857.0999928832047, 0.0, 0.0, 0.0, 0.0, 1485.8098609220817, 0.0]
['beep', 0.0, -856.5188475273667, 0.0, 0.0, 0.0, 0.0, 1485.3404742885202, 0.0]
['beep', 0.0, -858.9551876729951, 0.0, 0.0, 0.0, 0.0, 1486.122785344456, 0.0]
['beep', 0.0, -858.4634492949783, 0.0, 0.0, 0.0, 0.0, 1486.3910062779196, 0.0]
['beep', 0.0, -856.5635510162773, 0.0, 0.0, 0.0, 0.0, 1487.0839103560343, 0.0]
['beep', 0.0, -855.5577225157884, 0.0, 0.0, 0.0, 0.0, 1488.96145689028, 0.0]
['beep', 0.0, -855.9377021715287, 0.0, 0.0, 0.0, 0.0, 1489.3637882904754, 0.0]
['beep', 0.0, -857.1223446276599, 0.0, 0.0, 0.0, 0.0, 1488.2685528121654, 0.0]
['beep', 0.0, -855.4906672824225, 0.0, 0.0, 0.0, 0.0, 1488.7602911901822, 0.0]
['beep', 0.0, -854.6636527375762, 0.0, 0.0, 0.0, 0.0, 1490.1013958575006, 0.0]
['beep', 0.0, -856.6529579940985, 0.0, 0.0, 0.0, 0.0, 1488.514422001174, 0.0]
['beep', 0.0, -858.5975597617102, 0.0, 0.0, 0.0, 0.0, 1488.4697185122632, 0.0]
['beep', 0.0, -858.8210772062632, 0.0, 0.0, 0.0, 0.0, 1489.2967330571096, 0.0]
['beep', 0.0, -856.9211789275622, 0.0, 0.0, 0.0, 0.0, 1489.4978987572074, 0.0]
['beep', 0.0, -854.7530597153974, 0.0, 0.0, 0.0, 0.0, 1489.0732156125566, 0.0]
['beep', 0.0, -853.9483969150064, 0.0, 0.0, 0.0, 0.0, 1488.7155877012715, 0.0]
['beep', 0.0, -856.5411992718219, 0.0, 0.0, 0.0, 0.0, 1488.7602911901822, 0.0]
['beep', 0.0, -861.0115481628834, 0.0, 0.0, 0.0, 0.0, 1487.5980004785063, 0.0]
['beep', 0.0, -860.251588851403, 0.0, 0.0, 0.0, 0.0, 1487.2627243116767, 0.0]
['beep', 0.0, -855.6247777491543, 0.0, 0.0, 0.0, 0.0, 1488.156794089889, 0.0]
['beep', 0.0, -854.8871701821292, 0.0, 0.0, 0.0, 0.0, 1489.542602246118, 0.0]
['beep', 0.0, -855.1553911155929, 0.0, 0.0, 0.0, 0.0, 1491.3083900580873, 0.0]
['beep', 0.0, -856.6529579940985, 0.0, 0.0, 0.0, 0.0, 1490.995465635713, 0.0]
['beep', 0.0, -855.602426004699, 0.0, 0.0, 0.0, 0.0, 1493.0071226366906, 0.0]
['beep', 0.0, -853.3225480702578, 0.0, 0.0, 0.0, 0.0, 1496.1363668604336, 0.0]
['beep', 0.0, -852.763754458875, 0.0, 0.0, 0.0, 0.0, 1495.9128494158804, 0.0]
['beep', 0.0, -854.3060248262913, 0.0, 0.0, 0.0, 0.0, 1497.253954083199, 0.0]
['beep', 0.0, -855.0659841377717, 0.0, 0.0, 0.0, 0.0, 1497.8574511834922, 0.0]
['beep', 0.0, -855.9377021715287, 0.0, 0.0, 0.0, 0.0, 1498.2597825836876, 0.0]
['beep', 0.0, -856.5635510162773, 0.0, 0.0, 0.0, 0.0, 1498.5280035171513, 0.0]
['beep', 0.0, -856.2729783383583, 0.0, 0.0, 0.0, 0.0, 1498.5280035171513, 0.0]
['beep', 0.0, -857.345862072213, 0.0, 0.0, 0.0, 0.0, 1498.2150790947771, 0.0]
['beep', 0.0, -857.4352690500342, 0.0, 0.0, 0.0, 0.0, 1497.4327680388415, 0.0]
['beep', 0.0, -854.5965975042102, 0.0, 0.0, 0.0, 0.0, 1498.930334917347, 0.0]
['beep', 0.0, -853.4790102814449, 0.0, 0.0, 0.0, 0.0, 1501.0761023850564, 0.0]
['beep', 0.0, -854.21661784847, 0.0, 0.0, 0.0, 0.0, 1499.5338320176402, 0.0]
['beep', 0.0, -855.1106876266823, 0.0, 0.0, 0.0, 0.0, 1500.0032186512017, 0.0]
['beep', 0.0, -855.3342050712354, 0.0, 0.0, 0.0, 0.0, 1500.0032186512017, 0.0]
['beep', 0.0, -856.6082545051879, 0.0, 0.0, 0.0, 0.0, 1500.1596808623888, 0.0]
['beep', 0.0, -857.1223446276599, 0.0, 0.0, 0.0, 0.0, 1500.2043843512995, 0.0]
['beep', 0.0, -853.4343067925342, 0.0, 0.0, 0.0, 0.0, 1498.2150790947771, 0.0]
['beep', 0.0, -850.0815451242382, 0.0, 0.0, 0.0, 0.0, 1497.8798029279476, 0.0]
['beep', 0.0, -851.8473329362075, 0.0, 0.0, 0.0, 0.0, 1498.6844657283386, 0.0]
['beep', 0.0, -856.4964957829113, 0.0, 0.0, 0.0, 0.0, 1498.2597825836876, 0.0]
['beep', 0.0, -858.7540219728974, 0.0, 0.0, 0.0, 0.0, 1498.7738727061599, 0.0]
['beep', 0.0, -854.5295422708443, 0.0, 0.0, 0.0, 0.0, 1498.7291692172491, 0.0]
['beep', 0.0, -856.0941643827158, 0.0, 0.0, 0.0, 0.0, 1497.2986575721095, 0.0]
['beep', 0.0, -863.1349638861375, 0.0, 0.0, 0.0, 0.0, 1497.0751401275566, 0.0]
['beep', 0.0, -864.6325307646431, 0.0, 0.0, 0.0, 0.0, 1498.1703756058664, 0.0]
['beep', 0.0, -864.2525511089029, 0.0, 0.0, 0.0, 0.0, 1497.768044205671, 0.0]
['beep', 0.0, -857.9046556835957, 0.0, 0.0, 0.0, 0.0, 1496.0916633715228, 0.0]
['beep', 0.0, -856.3623853161795, 0.0, 0.0, 0.0, 0.0, 1495.2870005711318, 0.0]
['beep', 0.0, -860.765678973875, 0.0, 0.0, 0.0, 0.0, 1496.7622157051821, 0.0]
['beep', 0.0, -865.638359265132, 0.0, 0.0, 0.0, 0.0, 1494.996427893213, 0.0]
['beep', 0.0, -860.4527545515007, 0.0, 0.0, 0.0, 0.0, 1495.3987592934084, 0.0]
['beep', 0.0, -856.0494608938052, 0.0, 0.0, 0.0, 0.0, 1496.605753493995, 0.0]
['beep', 0.0, -862.8667429526738, 0.0, 0.0, 0.0, 0.0, 1494.1694133483666, 0.0]
['beep', 0.0, -868.7899552333303, 0.0, 0.0, 0.0, 0.0, 1494.348227304009, 0.0]
['beep', 0.0, -867.6276645216542, 0.0, 0.0, 0.0, 0.0, 1494.5270412596515, 0.0]
['beep', 0.0, -866.443022065523, 0.0, 0.0, 0.0, 0.0, 1488.8720499124588, 0.0]
['beep', 0.0, -855.6247777491543, 0.0, 0.0, 0.0, 0.0, 1461.7817356326266, 0.0]
['beep', 0.0, -825.7628471568642, 0.0, 0.0, 0.0, 0.0, 1427.8517875494704, 0.0]
['beep', 0.0, -824.2429285339033, 0.0, 0.0, 0.0, 0.0, 1416.9441362552807, 0.0]
['beep', 0.0, -826.3216407682468, 0.0, 0.0, 0.0, 0.0, 1415.7818455436047, 0.0]
['beep', 0.0, -821.0466290767944, 0.0, 0.0, 0.0, 0.0, 1414.284278665099, 0.0]
['beep', 0.0, -817.380942986124, 0.0, 0.0, 0.0, 0.0, 1415.6700868213281, 0.0]
['beep', 0.0, -821.7395331549088, 0.0, 0.0, 0.0, 0.0, 1413.8819472649036, 0.0]
['beep', 0.0, -823.5053209668781, 0.0, 0.0, 0.0, 0.0, 1412.5855460864957, 0.0]
['beep', 0.0, -811.927117339029, 0.0, 0.0, 0.0, 0.0, 1411.8479385194705, 0.0]
['beep', 0.0, -821.5830709437217, 0.0, 0.0, 0.0, 0.0, 1410.640944318884, 0.0]
['beep', 0.0, -825.3828675011239, 0.0, 0.0, 0.0, 0.0, 1410.5291855966075, 0.0]
['beep', 0.0, -817.2244807749369, 0.0, 0.0, 0.0, 0.0, 1410.7750547856158, 0.0]
['beep', 0.0, -788.0331025163058, 0.0, 0.0, 0.0, 0.0, 1409.7468745406718, 0.0]
['beep', 0.0, -785.864983304141, 0.0, 0.0, 0.0, 0.0, 1410.0150954741355, 0.0]
['beep', 0.0, -815.9727830854396, 0.0, 0.0, 0.0, 0.0, 1409.7468745406718, 0.0]
['beep', 0.0, -825.896957623596, 0.0, 0.0, 0.0, 0.0, 1410.1045024519567, 0.0]
['beep', 0.0, -808.8425766041967, 0.0, 0.0, 0.0, 0.0, 1409.0539704625571, 0.0]
['beep', 0.0, -781.4616896464455, 0.0, 0.0, 0.0, 0.0, 1408.5622320845405, 0.0]
['beep', 0.0, -784.9709135259287, 0.0, 0.0, 0.0, 0.0, 1408.8528047624595, 0.0]
['beep', 0.0, -812.9776493284285, 0.0, 0.0, 0.0, 0.0, 1406.7517407836606, 0.0]
['beep', 0.0, -826.4333994905234, 0.0, 0.0, 0.0, 0.0, 1406.125891938912, 0.0]
['beep', 0.0, -809.8037016157749, 0.0, 0.0, 0.0, 0.0, 1404.9859529716914, 0.0]
['beep', 0.0, -791.3411606956912, 0.0, 0.0, 0.0, 0.0, 1404.449511104764, 0.0]
['beep', 0.0, -793.576335141222, 0.0, 0.0, 0.0, 0.0, 1402.5943163149734, 0.0]
['beep', 0.0, -816.0845418077162, 0.0, 0.0, 0.0, 0.0, 1402.1025779369568, 0.0]
['beep', 0.0, -831.283728037325, 0.0, 0.0, 0.0, 0.0, 1400.9179354808255, 0.0]
['beep', 0.0, -821.895995366096, 0.0, 0.0, 0.0, 0.0, 1401.8790604924036, 0.0]
['beep', 0.0, -795.6550473755655, 0.0, 0.0, 0.0, 0.0, 1403.510737837641, 0.0]
['beep', 0.0, -796.9514485539734, 0.0, 0.0, 0.0, 0.0, 1402.70607503725, 0.0]
['beep', 0.0, -822.8347686332189, 0.0, 0.0, 0.0, 0.0, 1402.6390198038841, 0.0]
['beep', 0.0, -828.5344634693222, 0.0, 0.0, 0.0, 0.0, 1403.577793071007, 0.0]
['beep', 0.0, -811.8600621056631, 0.0, 0.0, 0.0, 0.0, 1403.287220393088, 0.0]
['beep', 0.0, -787.831936816208, 0.0, 0.0, 0.0, 0.0, 1403.063702948535, 0.0]
['beep', 0.0, -794.962143297451, 0.0, 0.0, 0.0, 0.0, 1403.8236622600155, 0.0]
['beep', 0.0, -821.82894013273, 0.0, 0.0, 0.0, 0.0, 1404.9412494827807, 0.0]
['beep', 0.0, -830.5014169813892, 0.0, 0.0, 0.0, 0.0, 1404.4942145936745, 0.0]
['beep', 0.0, -816.6433354190989, 0.0, 0.0, 0.0, 0.0, 1404.002476215658, 0.0]
['beep', 0.0, -792.7493205963756, 0.0, 0.0, 0.0, 0.0, 1403.577793071007, 0.0]
['beep', 0.0, -792.6375618740991, 0.0, 0.0, 0.0, 0.0, 1403.3766273709093, 0.0]
['beep', 0.0, -820.800759887786, 0.0, 0.0, 0.0, 0.0, 1403.2648686486327, 0.0]
['beep', 0.0, -830.9037483815847, 0.0, 0.0, 0.0, 0.0, 1403.3319238819986, 0.0]
['beep', 0.0, -809.7813498713195, 0.0, 0.0, 0.0, 0.0, 1403.9801244712025, 0.0]
['beep', 0.0, -787.7872333272974, 0.0, 0.0, 0.0, 0.0, 1404.9412494827807, 0.0]
['beep', 0.0, -794.4480531749789, 0.0, 0.0, 0.0, 0.0, 1404.158938426845, 0.0]
['beep', 0.0, -822.3430302552022, 0.0, 0.0, 0.0, 0.0, 1403.8236622600155, 0.0]
['beep', 0.0, -830.2778995368361, 0.0, 0.0, 0.0, 0.0, 1404.6059733159511, 0.0]
['beep', 0.0, -815.2351755184145, 0.0, 0.0, 0.0, 0.0, 1403.4660343487305, 0.0]
['beep', 0.0, -788.2119164719483, 0.0, 0.0, 0.0, 0.0, 1401.096749436468, 0.0]
['beep', 0.0, -792.414044429546, 0.0, 0.0, 0.0, 0.0, 1401.834357003493, 0.0]
['beep', 0.0, -819.057323820272, 0.0, 0.0, 0.0, 0.0, 1402.415502359331, 0.0]
['beep', 0.0, -828.4003530025904, 0.0, 0.0, 0.0, 0.0, 1402.2143366592334, 0.0]
['beep', 0.0, -816.7774458858307, 0.0, 0.0, 0.0, 0.0, 1402.035522703591, 0.0]
['beep', 0.0, -787.5860676271997, 0.0, 0.0, 0.0, 0.0, 1402.1249296814121, 0.0]
['beep', 0.0, -787.0496257602723, 0.0, 0.0, 0.0, 0.0, 1403.1084064374456, 0.0]
['beep', 0.0, -815.3245824962357, 0.0, 0.0, 0.0, 0.0, 1403.1084064374456, 0.0]
['beep', 0.0, -827.1933588020038, 0.0, 0.0, 0.0, 0.0, 1402.5719645705183, 0.0]
['beep', 0.0, -811.3012684942804, 0.0, 0.0, 0.0, 0.0, 1403.4660343487305, 0.0]
['beep', 0.0, -784.7920995702863, 0.0, 0.0, 0.0, 0.0, 1404.7847872715936, 0.0]
['beep', 0.0, -788.0107507718504, 0.0, 0.0, 0.0, 0.0, 1403.4883860931857, 0.0]
['beep', 0.0, -816.6656871635541, 0.0, 0.0, 0.0, 0.0, 1404.2706971491216, 0.0]
['beep', 0.0, -824.8240738897413, 0.0, 0.0, 0.0, 0.0, 1404.9412494827807, 0.0]
['beep', 0.0, -810.608364416166, 0.0, 0.0, 0.0, 0.0, 1404.5612698270404, 0.0]
['beep', 0.0, -782.6686838470321, 0.0, 0.0, 0.0, 0.0, 1405.2988773940656, 0.0]
['beep', 0.0, -783.8756780476186, 0.0, 0.0, 0.0, 0.0, 1405.9917814721803, 0.0]
['beep', 0.0, -813.7376086399089, 0.0, 0.0, 0.0, 0.0, 1405.3435808829763, 0.0]
['beep', 0.0, -824.9581843564731, 0.0, 0.0, 0.0, 0.0, 1406.7293890392052, 0.0]
['beep', 0.0, -807.2108992589592, 0.0, 0.0, 0.0, 0.0, 1406.3941128723757, 0.0]
['beep', 0.0, -783.5627536252443, 0.0, 0.0, 0.0, 0.0, 1405.61180181644, 0.0]
['beep', 0.0, -788.994227527884, 0.0, 0.0, 0.0, 0.0, 1406.0141332166354, 0.0]
['beep', 0.0, -815.5928034296994, 0.0, 0.0, 0.0, 0.0, 1406.7964442725713, 0.0]
['beep', 0.0, -827.215710546459, 0.0, 0.0, 0.0, 0.0, 1406.8634995059372, 0.0]
['beep', 0.0, -810.1166260381492, 0.0, 0.0, 0.0, 0.0, 1403.8460140044706, 0.0]
['beep', 0.0, -786.4908321488896, 0.0, 0.0, 0.0, 0.0, 1402.5049093371522, 0.0]
['beep', 0.0, -792.3469891961801, 0.0, 0.0, 0.0, 0.0, 1404.4271593603087, 0.0]
['beep', 0.0, -814.0728848067386, 0.0, 0.0, 0.0, 0.0, 1405.8800227499037, 0.0]
['beep', 0.0, -820.5772424432329, 0.0, 0.0, 0.0, 0.0, 1400.7614732696384, 0.0]
['beep', 0.0, -812.0835795502162, 0.0, 0.0, 0.0, 0.0, 1397.4981185791635, 0.0]
['beep', 0.0, -787.2060879714594, 0.0, 0.0, 0.0, 0.0, 1399.8227000025154, 0.0]
['beep', 0.0, -784.0097885143505, 0.0, 0.0, 0.0, 0.0, 1400.448548847264, 0.0]
['beep', 0.0, -806.2721259918363, 0.0, 0.0, 0.0, 0.0, 1398.6827610352948, 0.0]
['beep', 0.0, -818.9008616090848, 0.0, 0.0, 0.0, 0.0, 1395.3970546003645, 0.0]
['beep', 0.0, -805.154538769071, 0.0, 0.0, 0.0, 0.0, 1393.2959906215658, 0.0]
['beep', 0.0, -784.3897681700907, 0.0, 0.0, 0.0, 0.0, 1392.446624332264, 0.0]
['beep', 0.0, -783.9650850254399, 0.0, 0.0, 0.0, 0.0, 1389.518545808619, 0.0]
['beep', 0.0, -802.0923497786939, 0.0, 0.0, 0.0, 0.0, 1388.9821039416915, 0.0]
['beep', 0.0, -825.1369983121156, 0.0, 0.0, 0.0, 0.0, 1385.5399352955742, 0.0]
['beep', 0.0, -809.1107975376603, 0.0, 0.0, 0.0, 0.0, 1381.8295457159932, 0.0]
['beep', 0.0, -781.6852070909986, 0.0, 0.0, 0.0, 0.0, 1383.6176852724177, 0.0]
['beep', 0.0, -781.5063931353561, 0.0, 0.0, 0.0, 0.0, 1383.3271125944989, 0.0]
['beep', 0.0, -804.573393413233, 0.0, 0.0, 0.0, 0.0, 1380.5331445375855, 0.0]
['beep', 0.0, -823.8182453892524, 0.0, 0.0, 0.0, 0.0, 1380.7566619821384, 0.0]
['beep', 0.0, -802.7852538568085, 0.0, 0.0, 0.0, 0.0, 1379.7955369705603, 0.0]
['beep', 0.0, -778.9806460119064, 0.0, 0.0, 0.0, 0.0, 1380.0190544151133, 0.0]
['beep', 0.0, -781.8193175577304, 0.0, 0.0, 0.0, 0.0, 1381.158993382334, 0.0]
['beep', 0.0, -809.8260533602302, 0.0, 0.0, 0.0, 0.0, 1380.5331445375855, 0.0]
['beep', 0.0, -820.1749110430374, 0.0, 0.0, 0.0, 0.0, 1379.7284817371944, 0.0]
['beep', 0.0, -799.4101404440571, 0.0, 0.0, 0.0, 0.0, 1378.2756183475994, 0.0]
['beep', 0.0, -779.1147564786382, 0.0, 0.0, 0.0, 0.0, 1378.096804391957, 0.0]
['beep', 0.0, -779.1147564786382, 0.0, 0.0, 0.0, 0.0, 1379.7284817371944, 0.0]
['beep', 0.0, -802.6958468789873, 0.0, 0.0, 0.0, 0.0, 1380.6449032598618, 0.0]
['beep', 0.0, -820.9795738434284, 0.0, 0.0, 0.0, 0.0, 1380.2425718596664, 0.0]
['beep', 0.0, -805.1321870246157, 0.0, 0.0, 0.0, 0.0, 1380.9578276822363, 0.0]
['beep', 0.0, -778.9135907785405, 0.0, 0.0, 0.0, 0.0, 1379.8849439483815, 0.0]
['beep', 0.0, -779.3159221787361, 0.0, 0.0, 0.0, 0.0, 1379.6167230149179, 0.0]
['beep', 0.0, -801.801777100775, 0.0, 0.0, 0.0, 0.0, 1379.6837782482837, 0.0]
['beep', 0.0, -819.9290418540289, 0.0, 0.0, 0.0, 0.0, 1380.5331445375855, 0.0]
['beep', 0.0, -807.2779544923252, 0.0, 0.0, 0.0, 0.0, 1379.9519991817474, 0.0]
['beep', 0.0, -780.0758814902165, 0.0, 0.0, 0.0, 0.0, 1379.8625922039262, 0.0]
['beep', 0.0, -781.5510966242667, 0.0, 0.0, 0.0, 0.0, 1380.1978683707557, 0.0]
['beep', 0.0, -809.5131289378559, 0.0, 0.0, 0.0, 0.0, 1379.6390747593732, 0.0]
['beep', 0.0, -822.7006581664871, 0.0, 0.0, 0.0, 0.0, 1379.3708538259095, 0.0]
['beep', 0.0, -806.6968091364872, 0.0, 0.0, 0.0, 0.0, 1378.745004981161, 0.0]
['beep', 0.0, -781.7969658132752, 0.0, 0.0, 0.0, 0.0, 1378.610894514429, 0.0]
['beep', 0.0, -782.4675181469344, 0.0, 0.0, 0.0, 0.0, 1379.7284817371944, 0.0]
['beep', 0.0, -809.960163826962, 0.0, 0.0, 0.0, 0.0, 1380.8907724488704, 0.0]
['beep', 0.0, -821.2924982658027, 0.0, 0.0, 0.0, 0.0, 1380.1978683707557, 0.0]
['beep', 0.0, -803.4558061904677, 0.0, 0.0, 0.0, 0.0, 1379.1026328924459, 0.0]
['beep', 0.0, -780.5005646348674, 0.0, 0.0, 0.0, 0.0, 1379.192039870267, 0.0]
['beep', 0.0, -784.2780094478143, 0.0, 0.0, 0.0, 0.0, 1379.6837782482837, 0.0]
['beep', 0.0, -808.8872800931073, 0.0, 0.0, 0.0, 0.0, 1379.1473363813564, 0.0]
['beep', 0.0, -820.510187209867, 0.0, 0.0, 0.0, 0.0, 1379.259095103633, 0.0]
['beep', 0.0, -803.0087713013615, 0.0, 0.0, 0.0, 0.0, 1377.8509352029487, 0.0]
['beep', 0.0, -777.0807477332054, 0.0, 0.0, 0.0, 0.0, 1377.1803828692894, 0.0]
['beep', 0.0, -779.897067534574, 0.0, 0.0, 0.0, 0.0, 1377.4709555472084, 0.0]
['beep', 0.0, -806.4285882030235, 0.0, 0.0, 0.0, 0.0, 1377.0462724025574, 0.0]
['beep', 0.0, -819.4149517315569, 0.0, 0.0, 0.0, 0.0, 1376.934513680281, 0.0]
['beep', 0.0, -799.5666026552442, 0.0, 0.0, 0.0, 0.0, 1376.5545340245408, 0.0]
['beep', 0.0, -778.511259378345, 0.0, 0.0, 0.0, 0.0, 1376.7780514690937, 0.0]
['beep', 0.0, -778.8241838007193, 0.0, 0.0, 0.0, 0.0, 1377.515659036119, 0.0]
['beep', 0.0, -797.219669487437, 0.0, 0.0, 0.0, 0.0, 1378.5885427699736, 0.0]
['beep', 0.0, -817.0009633303838, 0.0, 0.0, 0.0, 0.0, 1377.2027346137447, 0.0]
['beep', 0.0, -802.7405503678979, 0.0, 0.0, 0.0, 0.0, 1376.5321822800854, 0.0]
['beep', 0.0, -778.3995006560684, 0.0, 0.0, 0.0, 0.0, 1376.5545340245408, 0.0]
['beep', 0.0, -775.5608291102444, 0.0, 0.0, 0.0, 0.0, 1377.8509352029487, 0.0]
['beep', 0.0, -801.2876869783029, 0.0, 0.0, 0.0, 0.0, 1378.1862113697782, 0.0]
['beep', 0.0, -818.0514953197832, 0.0, 0.0, 0.0, 0.0, 1377.2250863581999, 0.0]
['beep', 0.0, -797.1973177429817, 0.0, 0.0, 0.0, 0.0, 1377.292141591566, 0.0]
['beep', 0.0, -778.3100936782472, 0.0, 0.0, 0.0, 0.0, 1379.0802811479905, 0.0]
['beep', 0.0, -781.7299105799092, 0.0, 0.0, 0.0, 0.0, 1378.5214875366078, 0.0]
['beep', 0.0, -807.0544370477721, 0.0, 0.0, 0.0, 0.0, 1376.934513680281, 0.0]
['beep', 0.0, -818.3197162532468, 0.0, 0.0, 0.0, 0.0, 1377.3368450804765, 0.0]
['beep', 0.0, -798.0466840322833, 0.0, 0.0, 0.0, 0.0, 1378.4767840476973, 0.0]
['beep', 0.0, -774.6220558431215, 0.0, 0.0, 0.0, 0.0, 1378.5661910255185, 0.0]
['beep', 0.0, -775.8290500437081, 0.0, 0.0, 0.0, 0.0, 1379.2367433591776, 0.0]
['beep', 0.0, -798.8066433437638, 0.0, 0.0, 0.0, 0.0, 1380.6449032598618, 0.0]
['beep', 0.0, -816.0398383188056, 0.0, 0.0, 0.0, 0.0, 1381.3154555935212, 0.0]
['beep', 0.0, -795.5656403977442, 0.0, 0.0, 0.0, 0.0, 1382.2318771161888, 0.0]
['beep', 0.0, -774.7338145653981, 0.0, 0.0, 0.0, 0.0, 1383.483574805686, 0.0]
['beep', 0.0, -776.9913407553842, 0.0, 0.0, 0.0, 0.0, 1383.0588916610352, 0.0]
['beep', 0.0, -798.381960199113, 0.0, 0.0, 0.0, 0.0, 1383.3047608500435, 0.0]
['beep', 0.0, -817.4032947305793, 0.0, 0.0, 0.0, 0.0, 1383.41651957232, 0.0]
['beep', 0.0, -799.4548439329677, 0.0, 0.0, 0.0, 0.0, 1383.0365399165798, 0.0]
['beep', 0.0, -775.7619948103422, 0.0, 0.0, 0.0, 0.0, 1382.8577259609374, 0.0]
['beep', 0.0, -772.4762883754121, 0.0, 0.0, 0.0, 0.0, 1382.8577259609374, 0.0]
['beep', 0.0, -791.9223060515292, 0.0, 0.0, 0.0, 0.0, 1383.5953335279626, 0.0]
['beep', 0.0, -815.0787133072273, 0.0, 0.0, 0.0, 0.0, 1383.3271125944989, 0.0]
['beep', 0.0, -798.7395881103979, 0.0, 0.0, 0.0, 0.0, 1382.0530631605463, 0.0]
['beep', 0.0, -770.9563697524512, 0.0, 0.0, 0.0, 0.0, 1381.807193971538, 0.0]
['beep', 0.0, -775.4714221324232, 0.0, 0.0, 0.0, 0.0, 1380.9578276822363, 0.0]
['beep', 0.0, -801.3547422116688, 0.0, 0.0, 0.0, 0.0, 1379.706129992739, 0.0]
['beep', 0.0, -819.1467307980932, 0.0, 0.0, 0.0, 0.0, 1380.354330581943, 0.0]
['beep', 0.0, -803.2099370014593, 0.0, 0.0, 0.0, 0.0, 1380.868420704415, 0.0]
['beep', 0.0, -781.5734483687221, 0.0, 0.0, 0.0, 0.0, 1378.5214875366078, 0.0]
['beep', 0.0, -780.5676198682332, 0.0, 0.0, 0.0, 0.0, 1377.1356793803786, 0.0]
['beep', 0.0, -801.0194660448392, 0.0, 0.0, 0.0, 0.0, 1377.4262520582977, 0.0]
['beep', 0.0, -822.477140721934, 0.0, 0.0, 0.0, 0.0, 1377.0686241470128, 0.0]
['beep', 0.0, -806.8309196032191, 0.0, 0.0, 0.0, 0.0, 1376.7333479801832, 0.0]
['beep', 0.0, -785.1944309704818, 0.0, 0.0, 0.0, 0.0, 1378.7226532367056, 0.0]
['beep', 0.0, -785.9990937708728, 0.0, 0.0, 0.0, 0.0, 1377.4933072916638, 0.0]
['beep', 0.0, -794.7162741084426, 0.0, 0.0, 0.0, 0.0, 1376.2639613466217, 0.0]
['beep', 0.0, -825.9193093680512, 0.0, 0.0, 0.0, 0.0, 1376.1745543688005, 0.0]
['beep', 0.0, -813.9387743400067, 0.0, 0.0, 0.0, 0.0, 1376.1522026243451, 0.0]
['beep', 0.0, -791.7434920958867, 0.0, 0.0, 0.0, 0.0, 1376.5992375134513, 0.0]
['beep', 0.0, -790.8717740621298, 0.0, 0.0, 0.0, 0.0, 1374.6322840013843, 0.0]
['beep', 0.0, -813.4917394509006, 0.0, 0.0, 0.0, 0.0, 1376.062795646524, 0.0]
['beep', 0.0, -833.8765303941406, 0.0, 0.0, 0.0, 0.0, 1378.0073974141358, 0.0]
['beep', 0.0, -811.6812481500207, 0.0, 0.0, 0.0, 0.0, 1375.5263537795965, 0.0]
['beep', 0.0, -796.8173380872415, 0.0, 0.0, 0.0, 0.0, 1372.5312200225856, 0.0]
['beep', 0.0, -797.8902218210962, 0.0, 0.0, 0.0, 0.0, 1373.8276212009932, 0.0]
['beep', 0.0, -811.0777510497273, 0.0, 0.0, 0.0, 0.0, 1376.3757200688983, 0.0]
['beep', 0.0, -836.312870539769, 0.0, 0.0, 0.0, 0.0, 1374.4981735346526, 0.0]
['beep', 0.0, -815.1010650516827, 0.0, 0.0, 0.0, 0.0, 1372.8217927005044, 0.0]
['beep', 0.0, -798.4266636880236, 0.0, 0.0, 0.0, 0.0, 1370.7877839550715, 0.0]
['beep', 0.0, -800.5500794112778, 0.0, 0.0, 0.0, 0.0, 1370.899542677348, 0.0]
['beep', 0.0, -821.0689808212496, 0.0, 0.0, 0.0, 0.0, 1370.2066385992337, 0.0]
['beep', 0.0, -841.9678618869617, 0.0, 0.0, 0.0, 0.0, 1368.5526095095408, 0.0]
['beep', 0.0, -822.3206785107468, 0.0, 0.0, 0.0, 0.0, 1367.390318797865, 0.0]
['beep', 0.0, -806.4509399474788, 0.0, 0.0, 0.0, 0.0, 1368.12792636489, 0.0]
['beep', 0.0, -805.2662974913476, 0.0, 0.0, 0.0, 0.0, 1369.7372519656722, 0.0]
['beep', 0.0, -827.9533181134842, 0.0, 0.0, 0.0, 0.0, 1371.3689293109096, 0.0]
['beep', 0.0, -847.7793154453416, 0.0, 0.0, 0.0, 0.0, 1377.3591968249318, 0.0]
['beep', 0.0, -826.2769372793362, 0.0, 0.0, 0.0, 0.0, 1372.4418130447643, 0.0]
['beep', 0.0, -808.9766870709285, 0.0, 0.0, 0.0, 0.0, 1369.0443478875575, 0.0]
['beep', 0.0, -810.5636609272553, 0.0, 0.0, 0.0, 0.0, 1370.743080466161, 0.0]
['beep', 0.0, -828.4003530025904, 0.0, 0.0, 0.0, 0.0, 1379.192039870267, 0.0]
['beep', 0.0, -843.7560014433863, 0.0, 0.0, 0.0, 0.0, 1388.7585864971384, 0.0]
['beep', 0.0, -821.5607191992664, 0.0, 0.0, 0.0, 0.0, 1375.0122636571245, 0.0]
['beep', 0.0, -816.1515970410821, 0.0, 0.0, 0.0, 0.0, 1368.194981598256, 0.0]
['beep', 0.0, -816.7774458858307, 0.0, 0.0, 0.0, 0.0, 1368.8878856763704, 0.0]
['beep', 0.0, -832.6918879380094, 0.0, 0.0, 0.0, 0.0, 1379.6167230149179, 0.0]
['beep', 0.0, -842.9066351540846, 0.0, 0.0, 0.0, 0.0, 1391.2396301316776, 0.0]
['beep', 0.0, -825.1146465676602, 0.0, 0.0, 0.0, 0.0, 1378.0744526475016, 0.0]
['beep', 0.0, -815.928079596529, 0.0, 0.0, 0.0, 0.0, 1368.2843885760772, 0.0]
['beep', 0.0, -816.6433354190989, 0.0, 0.0, 0.0, 0.0, 1369.357272309932, 0.0]
['beep', 0.0, -827.4168762465569, 0.0, 0.0, 0.0, 0.0, 1381.5836765269848, 0.0]
['beep', 0.0, -836.6481467065987, 0.0, 0.0, 0.0, 0.0, 1393.3630458549317, 0.0]
['beep', 0.0, -825.4052192455792, 0.0, 0.0, 0.0, 0.0, 1380.0861096484794, 0.0]
['beep', 0.0, -820.5995941876882, 0.0, 0.0, 0.0, 0.0, 1372.9782549116917, 0.0]
['beep', 0.0, -821.3819052436239, 0.0, 0.0, 0.0, 0.0, 1373.6041037564403, 0.0]
['beep', 0.0, -829.3838297586238, 0.0, 0.0, 0.0, 0.0, 1382.7012637497503, 0.0]
['beep', 0.0, -837.8998443960959, 0.0, 0.0, 0.0, 0.0, 1394.0559499330461, 0.0]
['beep', 0.0, -825.606384945677, 0.0, 0.0, 0.0, 0.0, 1383.3941678278647, 0.0]
['beep', 0.0, -822.7453616553977, 0.0, 0.0, 0.0, 0.0, 1373.6488072453508, 0.0]
['beep', 0.0, -822.4547889774786, 0.0, 0.0, 0.0, 0.0, 1373.6041037564403, 0.0]
['beep', 0.0, -833.8765303941406, 0.0, 0.0, 0.0, 0.0, 1384.3105893505324, 0.0]
['beep', 0.0, -836.8716641511518, 0.0, 0.0, 0.0, 0.0, 1396.9393249677807, 0.0]
['beep', 0.0, -822.7230099109423, 0.0, 0.0, 0.0, 0.0, 1379.41555731482, 0.0]
['beep', 0.0, -824.4217424895457, 0.0, 0.0, 0.0, 0.0, 1370.676025232795, 0.0]
['beep', 0.0, -824.1535215560821, 0.0, 0.0, 0.0, 0.0, 1372.7547374671385, 0.0]
['beep', 0.0, -831.1049140816825, 0.0, 0.0, 0.0, 0.0, 1384.9140864508256, 0.0]
['beep', 0.0, -834.8153036612634, 0.0, 0.0, 0.0, 0.0, 1393.8771359774037, 0.0]
['beep', 0.0, -823.3265070112357, 0.0, 0.0, 0.0, 0.0, 1377.6274177583955, 0.0]
['beep', 0.0, -817.0456668192944, 0.0, 0.0, 0.0, 0.0, 1369.960769410225, 0.0]
['beep', 0.0, -820.5995941876882, 0.0, 0.0, 0.0, 0.0, 1371.6595019888284, 0.0]
['beep', 0.0, -835.5305594838333, 0.0, 0.0, 0.0, 0.0, 1387.4398335742753, 0.0]
['beep', 0.0, -840.3585362861796, 0.0, 0.0, 0.0, 0.0, 1394.6594470333396, 0.0]
['beep', 0.0, -827.7521524133864, 0.0, 0.0, 0.0, 0.0, 1380.2649236041218, 0.0]
['beep', 0.0, -826.1428268126043, 0.0, 0.0, 0.0, 0.0, 1363.6575774738285, 0.0]
['beep', 0.0, -825.82990239023, 0.0, 0.0, 0.0, 0.0, 1362.2717693175996, 0.0]
['beep', 0.0, -824.0194110893502, 0.0, 0.0, 0.0, 0.0, 1381.0695864045128, 0.0]
['beep', 0.0, -825.8746058791406, 0.0, 0.0, 0.0, 0.0, 1394.8159092445267, 0.0]
['beep', 0.0, -827.2604140353696, 0.0, 0.0, 0.0, 0.0, 1384.6011620284512, 0.0]
['beep', 0.0, -826.7239721684423, 0.0, 0.0, 0.0, 0.0, 1359.3436907939542, 0.0]
['beep', 0.0, -825.2264052899368, 0.0, 0.0, 0.0, 0.0, 1355.2533215586332, 0.0]
['beep', 0.0, -823.7511901558864, 0.0, 0.0, 0.0, 0.0, 1373.0453101450576, 0.0]
['beep', 0.0, -824.4887977229116, 0.0, 0.0, 0.0, 0.0, 1385.0705486620127, 0.0]
['beep', 0.0, -826.701620423987, 0.0, 0.0, 0.0, 0.0, 1373.2688275896105, 0.0]
['beep', 0.0, -828.3109460247691, 0.0, 0.0, 0.0, 0.0, 1346.5361412210634, 0.0]
['beep', 0.0, -827.4392279910121, 0.0, 0.0, 0.0, 0.0, 1343.2504347861332, 0.0]
['beep', 0.0, -822.8347686332189, 0.0, 0.0, 0.0, 0.0, 1359.2319320716779, 0.0]
['beep', 0.0, -822.0301058328279, 0.0, 0.0, 0.0, 0.0, 1366.518600764108, 0.0]
['beep', 0.0, -824.8687773786519, 0.0, 0.0, 0.0, 0.0, 1354.873341902893, 0.0]
['beep', 0.0, -828.445056491501, 0.0, 0.0, 0.0, 0.0, 1328.5206351900858, 0.0]
['beep', 0.0, -831.1272658261378, 0.0, 0.0, 0.0, 0.0, 1320.1163792748905, 0.0]
['beep', 0.0, -828.4003530025904, 0.0, 0.0, 0.0, 0.0, 1335.1814550377674, 0.0]
['beep', 0.0, -825.5393297123111, 0.0, 0.0, 0.0, 0.0, 1338.713030661706, 0.0]
['beep', 0.0, -825.5616814567663, 0.0, 0.0, 0.0, 0.0, 1329.3476497349322, 0.0]
['beep', 0.0, -826.3886960016127, 0.0, 0.0, 0.0, 0.0, 1304.1125302448906, 0.0]
['beep', 0.0, -827.7074489244758, 0.0, 0.0, 0.0, 0.0, 1296.2670679410778, 0.0]
['beep', 0.0, -824.5335012118222, 0.0, 0.0, 0.0, 0.0, 1304.648972111818, 0.0]
['beep', 0.0, -822.1418645551043, 0.0, 0.0, 0.0, 0.0, 1304.2019372227119, 0.0]
['beep', 0.0, -824.3546872561798, 0.0, 0.0, 0.0, 0.0, 1291.9084777722928, 0.0]
['beep', 0.0, -827.9533181134842, 0.0, 0.0, 0.0, 0.0, 1271.9483699737036, 0.0]
['beep', 0.0, -828.5791669582328, 0.0, 0.0, 0.0, 0.0, 1264.0582041809803, 0.0]
['beep', 0.0, -828.3109460247691, 0.0, 0.0, 0.0, 0.0, 1267.7685937605613, 0.0]
['beep', 0.0, -826.992193101906, 0.0, 0.0, 0.0, 0.0, 1263.0747274249468, 0.0]
['beep', 0.0, -828.73562916942, 0.0, 0.0, 0.0, 0.0, 1252.904683697782, 0.0]
['beep', 0.0, -830.7472861703976, 0.0, 0.0, 0.0, 0.0, 1228.362468285855, 0.0]
['beep', 0.0, -830.3896582591127, 0.0, 0.0, 0.0, 0.0, 1219.9358606262042, 0.0]
['beep', 0.0, -829.8755681366406, 0.0, 0.0, 0.0, 0.0, 1234.5762532444303, 0.0]
['beep', 0.0, -829.6520506920875, 0.0, 0.0, 0.0, 0.0, 1231.7375816986064, 0.0]
['beep', 0.0, -831.2390245484144, 0.0, 0.0, 0.0, 0.0, 1217.2536512915674, 0.0]
['beep', 0.0, -833.2953850383026, 0.0, 0.0, 0.0, 0.0, 1193.0914155353803, 0.0]
['beep', 0.0, -832.8707018936518, 0.0, 0.0, 0.0, 0.0, 1184.7095113646403, 0.0]
['beep', 0.0, -830.6802309370316, 0.0, 0.0, 0.0, 0.0, 1199.5510696829642, 0.0]
['beep', 0.0, -829.7861611588194, 0.0, 0.0, 0.0, 0.0, 1206.7259796531177, 0.0]
['beep', 0.0, -830.5237687258445, 0.0, 0.0, 0.0, 0.0, 1182.6755026192072, 0.0]
['beep', 0.0, -833.0718675937495, 0.0, 0.0, 0.0, 0.0, 1164.4811826325874, 0.0]
['beep', 0.0, -834.9494141279953, 0.0, 0.0, 0.0, 0.0, 1160.3237581639003, 0.0]
['beep', 0.0, -835.1952833170037, 0.0, 0.0, 0.0, 0.0, 1176.1934967271682, 0.0]
['beep', 0.0, -834.055344349783, 0.0, 0.0, 0.0, 0.0, 1179.300389206456, 0.0]
['beep', 0.0, -834.3012135387914, 0.0, 0.0, 0.0, 0.0, 1169.6667873462186, 0.0]
['beep', 0.0, -837.6092717181768, 0.0, 0.0, 0.0, 0.0, 1148.3208713914003, 0.0]
['beep', 0.0, -838.8386176632188, 0.0, 0.0, 0.0, 0.0, 1132.1158566613028, 0.0]
['beep', 0.0, -838.8833211521294, 0.0, 0.0, 0.0, 0.0, 1144.7222405340958, 0.0]
['beep', 0.0, -839.8891496526181, 0.0, 0.0, 0.0, 0.0, 1157.2168656846125, 0.0]
['beep', 0.0, -841.8561031646852, 0.0, 0.0, 0.0, 0.0, 1149.8631417588165, 0.0]
['beep', 0.0, -844.9182921550623, 0.0, 0.0, 0.0, 0.0, 1122.0799234008698, 0.0]
['beep', 0.0, -845.767658444364, 0.0, 0.0, 0.0, 0.0, 1105.6960947151297, 0.0]
['beep', 0.0, -844.2477398214031, 0.0, 0.0, 0.0, 0.0, 1123.0857519013587, 0.0]
['beep', 0.0, -844.5606642437774, 0.0, 0.0, 0.0, 0.0, 1133.5016648175317, 0.0]
['beep', 0.0, -847.1087631116824, 0.0, 0.0, 0.0, 0.0, 1119.3753623217776, 0.0]
['beep', 0.0, -850.3497660577019, 0.0, 0.0, 0.0, 0.0, 1096.0624928548925, 0.0]
['beep', 0.0, -850.506228268889, 0.0, 0.0, 0.0, 0.0, 1090.2957427854233, 0.0]
['beep', 0.0, -847.8910741676182, 0.0, 0.0, 0.0, 0.0, 1101.5610219908979, 0.0]
['beep', 0.0, -847.4440392785119, 0.0, 0.0, 0.0, 0.0, 1113.2509843410235, 0.0]
['beep', 0.0, -851.1767806025482, 0.0, 0.0, 0.0, 0.0, 1104.0867691143476, 0.0]
['beep', 0.0, -853.5237137703555, 0.0, 0.0, 0.0, 0.0, 1081.3550450033003, 0.0]
['beep', 0.0, -854.9989289044057, 0.0, 0.0, 0.0, 0.0, 1069.4862686975323, 0.0]
['beep', 0.0, -853.5684172592661, 0.0, 0.0, 0.0, 0.0, 1080.4162717361776, 0.0]
['beep', 0.0, -854.3507283152019, 0.0, 0.0, 0.0, 0.0, 1097.5377079889427, 0.0]
['beep', 0.0, -856.0271091493499, 0.0, 0.0, 0.0, 0.0, 1090.563963718887, 0.0]
['beep', 0.0, -860.7880307183303, 0.0, 0.0, 0.0, 0.0, 1062.043137793915, 0.0]
['beep', 0.0, -862.6879289970313, 0.0, 0.0, 0.0, 0.0, 1054.2200272345576, 0.0]
