['beep', 0.0, 658.549446886712, 0.0, 0.0, 0.0, 0.0, 983.8343839447957, 0.0]
['beep', 0.0, 659.421164920469, 0.0, 0.0, 0.0, 0.0, 981.9568374105498, 0.0]
['beep', 0.0, 662.7515748443097, 0.0, 0.0, 0.0, 0.0, 982.5603345108432, 0.0]
['beep', 0.0, 666.6631301239885, 0.0, 0.0, 0.0, 0.0, 980.4145670431337, 0.0]
['beep', 0.0, 664.3832521895471, 0.0, 0.0, 0.0, 0.0, 980.14634610967, 0.0]
['beep', 0.0, 661.455173665902, 0.0, 0.0, 0.0, 0.0, 980.503974020955, 0.0]
['beep', 0.0, 660.1811242319494, 0.0, 0.0, 0.0, 0.0, 981.7109682215415, 0.0]
['beep', 0.0, 663.578589389156, 0.0, 0.0, 0.0, 0.0, 979.1405176091812, 0.0]
['beep', 0.0, 665.2102667343935, 0.0, 0.0, 0.0, 0.0, 978.1793925976029, 0.0]
['beep', 0.0, 664.6067696341001, 0.0, 0.0, 0.0, 0.0, 982.470927533022, 0.0]
['beep', 0.0, 660.4493451654131, 0.0, 0.0, 0.0, 0.0, 985.309599078846, 0.0]
['beep', 0.0, 660.0246620207622, 0.0, 0.0, 0.0, 0.0, 983.3873490556896, 0.0]
['beep', 0.0, 665.3667289455807, 0.0, 0.0, 0.0, 0.0, 980.1239943652147, 0.0]
['beep', 0.0, 669.3453394586253, 0.0, 0.0, 0.0, 0.0, 979.1405176091812, 0.0]
['beep', 0.0, 665.5455429012231, 0.0, 0.0, 0.0, 0.0, 981.7556717104521, 0.0]
['beep', 0.0, 662.3045399552036, 0.0, 0.0, 0.0, 0.0, 984.1026048782594, 0.0]
['beep', 0.0, 661.6339876215444, 0.0, 0.0, 0.0, 0.0, 982.7391484664856, 0.0]
['beep', 0.0, 665.3443772011253, 0.0, 0.0, 0.0, 0.0, 980.436918787589, 0.0]
['beep', 0.0, 667.8924760690303, 0.0, 0.0, 0.0, 0.0, 978.2687995754242, 0.0]
['beep', 0.0, 665.9925777903293, 0.0, 0.0, 0.0, 0.0, 980.4592705320443, 0.0]
['beep', 0.0, 662.7962783332204, 0.0, 0.0, 0.0, 0.0, 981.4427472880778, 0.0]
['beep', 0.0, 663.3997754335136, 0.0, 0.0, 0.0, 0.0, 980.5486775098656, 0.0]
['beep', 0.0, 665.1655632454829, 0.0, 0.0, 0.0, 0.0, 977.7994129418628, 0.0]
['beep', 0.0, 666.0372812792399, 0.0, 0.0, 0.0, 0.0, 976.5253635079102, 0.0]
['beep', 0.0, 665.5455429012231, 0.0, 0.0, 0.0, 0.0, 977.7994129418628, 0.0]
['beep', 0.0, 664.6738248674661, 0.0, 0.0, 0.0, 0.0, 979.5652007538321, 0.0]
['beep', 0.0, 665.2326184788488, 0.0, 0.0, 0.0, 0.0, 979.4757937760108, 0.0]
['beep', 0.0, 667.4230894354689, 0.0, 0.0, 0.0, 0.0, 978.9170001646281, 0.0]
['beep', 0.0, 669.5688569031784, 0.0, 0.0, 0.0, 0.0, 979.3640350537343, 0.0]
['beep', 0.0, 666.193743490427, 0.0, 0.0, 0.0, 0.0, 979.4534420315555, 0.0]
['beep', 0.0, 662.1033742551058, 0.0, 0.0, 0.0, 0.0, 977.9782268975052, 0.0]
['beep', 0.0, 661.7457463438209, 0.0, 0.0, 0.0, 0.0, 981.7780234549074, 0.0]
['beep', 0.0, 665.5902463901338, 0.0, 0.0, 0.0, 0.0, 981.5321542658991, 0.0]
['beep', 0.0, 667.3113307131923, 0.0, 0.0, 0.0, 0.0, 978.9617036535387, 0.0]
['beep', 0.0, 665.9925777903293, 0.0, 0.0, 0.0, 0.0, 980.3922152986784, 0.0]
['beep', 0.0, 662.5504091442119, 0.0, 0.0, 0.0, 0.0, 980.8392501877845, 0.0]
['beep', 0.0, 662.2374847218376, 0.0, 0.0, 0.0, 0.0, 982.0462443883711, 0.0]
['beep', 0.0, 666.6184266350779, 0.0, 0.0, 0.0, 0.0, 980.1016426207594, 0.0]
['beep', 0.0, 669.1218220140722, 0.0, 0.0, 0.0, 0.0, 979.1852210980918, 0.0]
['beep', 0.0, 667.2219237353711, 0.0, 0.0, 0.0, 0.0, 980.7945466988739, 0.0]
['beep', 0.0, 664.3609004450918, 0.0, 0.0, 0.0, 0.0, 981.8674304327286, 0.0]
['beep', 0.0, 662.259836466293, 0.0, 0.0, 0.0, 0.0, 978.6264274867091, 0.0]
['beep', 0.0, 667.8030690912091, 0.0, 0.0, 0.0, 0.0, 978.693482720075, 0.0]
['beep', 0.0, 671.7369761153432, 0.0, 0.0, 0.0, 0.0, 978.693482720075, 0.0]
['beep', 0.0, 669.8147260921868, 0.0, 0.0, 0.0, 0.0, 979.1181658647258, 0.0]
['beep', 0.0, 666.4619644238907, 0.0, 0.0, 0.0, 0.0, 979.6322559871979, 0.0]
['beep', 0.0, 666.7078336128991, 0.0, 0.0, 0.0, 0.0, 976.3689012967232, 0.0]
['beep', 0.0, 669.1888772474382, 0.0, 0.0, 0.0, 0.0, 972.7702704394187, 0.0]
['beep', 0.0, 672.4298801934576, 0.0, 0.0, 0.0, 0.0, 981.4203955436225, 0.0]
['beep', 0.0, 669.9711883033739, 0.0, 0.0, 0.0, 0.0, 982.8956106776727, 0.0]
['beep', 0.0, 665.6573016234996, 0.0, 0.0, 0.0, 0.0, 982.1803548551029, 0.0]
['beep', 0.0, 666.2831504682482, 0.0, 0.0, 0.0, 0.0, 982.9403141665833, 0.0]
['beep', 0.0, 670.6864441259437, 0.0, 0.0, 0.0, 0.0, 981.5992094992649, 0.0]
['beep', 0.0, 672.9886738048403, 0.0, 0.0, 0.0, 0.0, 978.9617036535387, 0.0]
['beep', 0.0, 670.5076301703012, 0.0, 0.0, 0.0, 0.0, 978.8722966757175, 0.0]
['beep', 0.0, 667.5124964132901, 0.0, 0.0, 0.0, 0.0, 980.9510089100611, 0.0]
['beep', 0.0, 667.3336824576477, 0.0, 0.0, 0.0, 0.0, 981.7556717104521, 0.0]
['beep', 0.0, 672.0722522821727, 0.0, 0.0, 0.0, 0.0, 981.5545060103543, 0.0]
['beep', 0.0, 674.8215168501755, 0.0, 0.0, 0.0, 0.0, 978.0899856197817, 0.0]
['beep', 0.0, 672.8769150825639, 0.0, 0.0, 0.0, 0.0, 977.9111716641393, 0.0]
['beep', 0.0, 666.7301853573543, 0.0, 0.0, 0.0, 0.0, 980.7498432099633, 0.0]
['beep', 0.0, 666.6631301239885, 0.0, 0.0, 0.0, 0.0, 981.4650990325331, 0.0]
['beep', 0.0, 668.9877115473404, 0.0, 0.0, 0.0, 0.0, 979.6099042427427, 0.0]
['beep', 0.0, 672.3628249600918, 0.0, 0.0, 0.0, 0.0, 977.4194332861225, 0.0]
['beep', 0.0, 671.7369761153432, 0.0, 0.0, 0.0, 0.0, 977.4194332861225, 0.0]
['beep', 0.0, 667.7583656022985, 0.0, 0.0, 0.0, 0.0, 980.3251600653125, 0.0]
['beep', 0.0, 666.3278539571588, 0.0, 0.0, 0.0, 0.0, 981.7780234549074, 0.0]
['beep', 0.0, 671.871086582075, 0.0, 0.0, 0.0, 0.0, 979.6993112205639, 0.0]
['beep', 0.0, 674.8215168501755, 0.0, 0.0, 0.0, 0.0, 977.4641367750331, 0.0]
['beep', 0.0, 672.3404732156364, 0.0, 0.0, 0.0, 0.0, 976.0112733854382, 0.0]
['beep', 0.0, 669.5241534142677, 0.0, 0.0, 0.0, 0.0, 979.207572842547, 0.0]
['beep', 0.0, 668.4959731693236, 0.0, 0.0, 0.0, 0.0, 978.0229303864159, 0.0]
['beep', 0.0, 671.7593278597984, 0.0, 0.0, 0.0, 0.0, 971.7867936833852, 0.0]
['beep', 0.0, 673.3686534605806, 0.0, 0.0, 0.0, 0.0, 975.2513140739578, 0.0]
['beep', 0.0, 671.4911069263347, 0.0, 0.0, 0.0, 0.0, 982.403872299656, 0.0]
['beep', 0.0, 668.6747871249661, 0.0, 0.0, 0.0, 0.0, 985.7566339679521, 0.0]
['beep', 0.0, 668.2501039803152, 0.0, 0.0, 0.0, 0.0, 983.4991077779661, 0.0]
['beep', 0.0, 671.4687551818795, 0.0, 0.0, 0.0, 0.0, 980.1016426207594, 0.0]
['beep', 0.0, 674.1062610276057, 0.0, 0.0, 0.0, 0.0, 977.9558751530499, 0.0]
['beep', 0.0, 672.7204528713767, 0.0, 0.0, 0.0, 0.0, 978.3358548087901, 0.0]
['beep', 0.0, 668.0936417691281, 0.0, 0.0, 0.0, 0.0, 978.2911513198795, 0.0]
['beep', 0.0, 667.1772202464605, 0.0, 0.0, 0.0, 0.0, 978.6711309756197, 0.0]
['beep', 0.0, 671.7593278597984, 0.0, 0.0, 0.0, 0.0, 976.3465495522678, 0.0]
['beep', 0.0, 674.6650546389884, 0.0, 0.0, 0.0, 0.0, 977.017101885927, 0.0]
['beep', 0.0, 673.7486331163208, 0.0, 0.0, 0.0, 0.0, 979.922828665117, 0.0]
['beep', 0.0, 670.6417406370331, 0.0, 0.0, 0.0, 0.0, 982.4262240441113, 0.0]
['beep', 0.0, 669.1888772474382, 0.0, 0.0, 0.0, 0.0, 981.9121339216392, 0.0]
['beep', 0.0, 673.9274470719632, 0.0, 0.0, 0.0, 0.0, 977.5535437528544, 0.0]
['beep', 0.0, 677.5707814181783, 0.0, 0.0, 0.0, 0.0, 975.4748315185109, 0.0]
['beep', 0.0, 673.5027639273125, 0.0, 0.0, 0.0, 0.0, 976.3689012967232, 0.0]
['beep', 0.0, 668.7418423583321, 0.0, 0.0, 0.0, 0.0, 979.4087385426449, 0.0]
['beep', 0.0, 668.6300836360555, 0.0, 0.0, 0.0, 0.0, 978.9617036535387, 0.0]
['beep', 0.0, 672.0946040266281, 0.0, 0.0, 0.0, 0.0, 976.1900873410807, 0.0]
['beep', 0.0, 674.1062610276057, 0.0, 0.0, 0.0, 0.0, 975.1842588405918, 0.0]
['beep', 0.0, 674.642702894533, 0.0, 0.0, 0.0, 0.0, 977.2629710749354, 0.0]
['beep', 0.0, 670.7087958703991, 0.0, 0.0, 0.0, 0.0, 979.6099042427427, 0.0]
['beep', 0.0, 669.5688569031784, 0.0, 0.0, 0.0, 0.0, 979.3193315648236, 0.0]
['beep', 0.0, 672.8545633381085, 0.0, 0.0, 0.0, 0.0, 976.0112733854382, 0.0]
['beep', 0.0, 675.7826418617537, 0.0, 0.0, 0.0, 0.0, 975.4524797740555, 0.0]
['beep', 0.0, 673.905095327508, 0.0, 0.0, 0.0, 0.0, 978.0899856197817, 0.0]
['beep', 0.0, 670.485278425846, 0.0, 0.0, 0.0, 0.0, 978.2240960865136, 0.0]
['beep', 0.0, 668.7865458472427, 0.0, 0.0, 0.0, 0.0, 977.1735640971142, 0.0]
['beep', 0.0, 672.9663220603851, 0.0, 0.0, 0.0, 0.0, 976.0112733854382, 0.0]
['beep', 0.0, 675.6261796505665, 0.0, 0.0, 0.0, 0.0, 976.2347908299913, 0.0]
['beep', 0.0, 669.837077836642, 0.0, 0.0, 0.0, 0.0, 980.9286571656057, 0.0]
['beep', 0.0, 670.9546650594074, 0.0, 0.0, 0.0, 0.0, 982.1580031106477, 0.0]
['beep', 0.0, 679.3142174856922, 0.0, 0.0, 0.0, 0.0, 981.4427472880778, 0.0]
['beep', 0.0, 678.2189820073822, 0.0, 0.0, 0.0, 0.0, 979.6769594761086, 0.0]
['beep', 0.0, 680.2529907528151, 0.0, 0.0, 0.0, 0.0, 980.4592705320443, 0.0]
['beep', 0.0, 678.710720385399, 0.0, 0.0, 0.0, 0.0, 982.0909478772817, 0.0]
['beep', 0.0, 675.4920691838347, 0.0, 0.0, 0.0, 0.0, 982.8732589332175, 0.0]
['beep', 0.0, 675.4473656949241, 0.0, 0.0, 0.0, 0.0, 983.1191281222258, 0.0]
['beep', 0.0, 677.9954645628292, 0.0, 0.0, 0.0, 0.0, 982.3815205552007, 0.0]
['beep', 0.0, 680.9905983198403, 0.0, 0.0, 0.0, 0.0, 979.6993112205639, 0.0]
['beep', 0.0, 679.0236448077733, 0.0, 0.0, 0.0, 0.0, 980.8839536766951, 0.0]
['beep', 0.0, 674.8215168501755, 0.0, 0.0, 0.0, 0.0, 982.7615002109409, 0.0]
['beep', 0.0, 674.8885720835415, 0.0, 0.0, 0.0, 0.0, 982.5603345108432, 0.0]
['beep', 0.0, 677.9284093294632, 0.0, 0.0, 0.0, 0.0, 980.3698635542231, 0.0]
['beep', 0.0, 682.4211099649799, 0.0, 0.0, 0.0, 0.0, 978.4923170199772, 0.0]
['beep', 0.0, 679.805955863709, 0.0, 0.0, 0.0, 0.0, 980.8839536766951, 0.0]
['beep', 0.0, 675.4473656949241, 0.0, 0.0, 0.0, 0.0, 987.0306834019045, 0.0]
['beep', 0.0, 675.6708831394772, 0.0, 0.0, 0.0, 0.0, 986.7848142128962, 0.0]
['beep', 0.0, 679.0012930633179, 0.0, 0.0, 0.0, 0.0, 982.7838519553962, 0.0]
['beep', 0.0, 682.5775721761671, 0.0, 0.0, 0.0, 0.0, 982.403872299656, 0.0]
['beep', 0.0, 681.1917640199381, 0.0, 0.0, 0.0, 0.0, 984.4602327895443, 0.0]
['beep', 0.0, 676.1179180285833, 0.0, 0.0, 0.0, 0.0, 986.1813171126029, 0.0]
['beep', 0.0, 675.3132552281922, 0.0, 0.0, 0.0, 0.0, 986.2930758348795, 0.0]
['beep', 0.0, 679.7389006303431, 0.0, 0.0, 0.0, 0.0, 982.6050379997538, 0.0]
['beep', 0.0, 682.0411303092397, 0.0, 0.0, 0.0, 0.0, 980.6380844876868, 0.0]
['beep', 0.0, 681.1470605310275, 0.0, 0.0, 0.0, 0.0, 982.113299621737, 0.0]
['beep', 0.0, 676.9225808289744, 0.0, 0.0, 0.0, 0.0, 984.9966746564717, 0.0]
['beep', 0.0, 677.2131535068934, 0.0, 0.0, 0.0, 0.0, 984.2367153449912, 0.0]
['beep', 0.0, 682.3764064760693, 0.0, 0.0, 0.0, 0.0, 980.8616019322399, 0.0]
['beep', 0.0, 682.7340343873542, 0.0, 0.0, 0.0, 0.0, 980.1016426207594, 0.0]
['beep', 0.0, 680.7000256419213, 0.0, 0.0, 0.0, 0.0, 982.6720932331197, 0.0]
['beep', 0.0, 675.8944005840302, 0.0, 0.0, 0.0, 0.0, 984.4602327895443, 0.0]
['beep', 0.0, 675.2461999948264, 0.0, 0.0, 0.0, 0.0, 984.1249566227146, 0.0]
['beep', 0.0, 678.7330721298542, 0.0, 0.0, 0.0, 0.0, 981.9791891550052, 0.0]
['beep', 0.0, 682.1975925204268, 0.0, 0.0, 0.0, 0.0, 981.0404158878823, 0.0]
['beep', 0.0, 680.0071215638068, 0.0, 0.0, 0.0, 0.0, 982.3144653218347, 0.0]
['beep', 0.0, 677.5707814181783, 0.0, 0.0, 0.0, 0.0, 984.2367153449912, 0.0]
['beep', 0.0, 676.095566284128, 0.0, 0.0, 0.0, 0.0, 983.5438112668767, 0.0]
['beep', 0.0, 678.2636854962929, 0.0, 0.0, 0.0, 0.0, 980.6380844876868, 0.0]
['beep', 0.0, 681.3482262311252, 0.0, 0.0, 0.0, 0.0, 981.24158158798, 0.0]
['beep', 0.0, 679.9624180748962, 0.0, 0.0, 0.0, 0.0, 982.0015408994605, 0.0]
['beep', 0.0, 676.7884703622426, 0.0, 0.0, 0.0, 0.0, 978.3135030643348, 0.0]
['beep', 0.0, 675.8273453506644, 0.0, 0.0, 0.0, 0.0, 981.308636821346, 0.0]
['beep', 0.0, 677.7719471182761, 0.0, 0.0, 0.0, 0.0, 986.9636281685387, 0.0]
['beep', 0.0, 681.3035227422146, 0.0, 0.0, 0.0, 0.0, 985.533116523399, 0.0]
['beep', 0.0, 680.8341361086532, 0.0, 0.0, 0.0, 0.0, 985.8013374568627, 0.0]
['beep', 0.0, 676.0508627952174, 0.0, 0.0, 0.0, 0.0, 987.3436078242789, 0.0]
['beep', 0.0, 675.7602901172984, 0.0, 0.0, 0.0, 0.0, 986.3377793237901, 0.0]
['beep', 0.0, 679.2471622523263, 0.0, 0.0, 0.0, 0.0, 983.6108665002427, 0.0]
['beep', 0.0, 682.4211099649799, 0.0, 0.0, 0.0, 0.0, 981.6439129881755, 0.0]
['beep', 0.0, 680.6329704085554, 0.0, 0.0, 0.0, 0.0, 983.0073693999493, 0.0]
['beep', 0.0, 675.6932348839325, 0.0, 0.0, 0.0, 0.0, 985.7789857124073, 0.0]
['beep', 0.0, 676.7884703622426, 0.0, 0.0, 0.0, 0.0, 985.3319508233012, 0.0]
['beep', 0.0, 679.8953628415302, 0.0, 0.0, 0.0, 0.0, 982.9403141665833, 0.0]
['beep', 0.0, 680.4765081973682, 0.0, 0.0, 0.0, 0.0, 979.9675321540276, 0.0]
['beep', 0.0, 673.6815778829549, 0.0, 0.0, 0.0, 0.0, 976.9276949081058, 0.0]
['beep', 0.0, 671.4687551818795, 0.0, 0.0, 0.0, 0.0, 977.7100059640416, 0.0]
['beep', 0.0, 684.2539530103151, 0.0, 0.0, 0.0, 0.0, 986.3377793237901, 0.0]
['beep', 0.0, 692.0994153141279, 0.0, 0.0, 0.0, 0.0, 988.7517677249632, 0.0]
['beep', 0.0, 697.0167990942955, 0.0, 0.0, 0.0, 0.0, 984.2814188339019, 0.0]
['beep', 0.0, 697.7320549168653, 0.0, 0.0, 0.0, 0.0, 987.0083316574493, 0.0]
['beep', 0.0, 699.8778223845748, 0.0, 0.0, 0.0, 0.0, 991.0316456594045, 0.0]
['beep', 0.0, 704.5493369757339, 0.0, 0.0, 0.0, 0.0, 994.6302765167089, 0.0]
['beep', 0.0, 710.7631219343093, 0.0, 0.0, 0.0, 0.0, 995.8819742062062, 0.0]
['beep', 0.0, 719.5250057607897, 0.0, 0.0, 0.0, 0.0, 997.8265759738179, 0.0]
['beep', 0.0, 721.8719389285969, 0.0, 0.0, 0.0, 0.0, 1000.598192286276, 0.0]
['beep', 0.0, 721.9166424175075, 0.0, 0.0, 0.0, 0.0, 1004.6215062882312, 0.0]
['beep', 0.0, 727.7504477203427, 0.0, 0.0, 0.0, 0.0, 1005.2697068774352, 0.0]
['beep', 0.0, 735.4170960685129, 0.0, 0.0, 0.0, 0.0, 1007.4601778340552, 0.0]
['beep', 0.0, 741.0497356712503, 0.0, 0.0, 0.0, 0.0, 1010.0976836797814, 0.0]
['beep', 0.0, 743.1284479055939, 0.0, 0.0, 0.0, 0.0, 1013.562204070354, 0.0]
['beep', 0.0, 741.7202880049095, 0.0, 0.0, 0.0, 0.0, 1016.177358171625, 0.0]
['beep', 0.0, 740.8485699711526, 0.0, 0.0, 0.0, 0.0, 1018.5019395949769, 0.0]
['beep', 0.0, 744.0895729171721, 0.0, 0.0, 0.0, 0.0, 1014.7021430375747, 0.0]
['beep', 0.0, 747.5317415632894, 0.0, 0.0, 0.0, 0.0, 1013.338686625801, 0.0]
['beep', 0.0, 746.0118229403286, 0.0, 0.0, 0.0, 0.0, 1017.9207942391389, 0.0]
['beep', 0.0, 741.899101960552, 0.0, 0.0, 0.0, 0.0, 1020.7818175294183, 0.0]
['beep', 0.0, 741.317956604714, 0.0, 0.0, 0.0, 0.0, 1021.3406111408009, 0.0]
['beep', 0.0, 743.0837444166833, 0.0, 0.0, 0.0, 0.0, 1017.2278901610244, 0.0]
['beep', 0.0, 745.2295118843928, 0.0, 0.0, 0.0, 0.0, 1014.72449478203, 0.0]
['beep', 0.0, 744.2236833839039, 0.0, 0.0, 0.0, 0.0, 1015.2162331600468, 0.0]
['beep', 0.0, 741.6755845159989, 0.0, 0.0, 0.0, 0.0, 1017.1831866721138, 0.0]
['beep', 0.0, 740.3791833375911, 0.0, 0.0, 0.0, 0.0, 1018.3231256393344, 0.0]
['beep', 0.0, 742.6590612720324, 0.0, 0.0, 0.0, 0.0, 1015.596212815787, 0.0]
['beep', 0.0, 746.0118229403286, 0.0, 0.0, 0.0, 0.0, 1014.5680325708429, 0.0]
['beep', 0.0, 745.2965671177587, 0.0, 0.0, 0.0, 0.0, 1015.2832883934127, 0.0]
['beep', 0.0, 740.4909420598677, 0.0, 0.0, 0.0, 0.0, 1018.0325529614155, 0.0]
['beep', 0.0, 742.4355438274794, 0.0, 0.0, 0.0, 0.0, 1017.4737593500328, 0.0]
['beep', 0.0, 744.9165874620185, 0.0, 0.0, 0.0, 0.0, 1015.082122693315, 0.0]
['beep', 0.0, 746.0788781736944, 0.0, 0.0, 0.0, 0.0, 1014.4115703596557, 0.0]
['beep', 0.0, 745.2295118843928, 0.0, 0.0, 0.0, 0.0, 1015.7526750269742, 0.0]
['beep', 0.0, 741.2732531158034, 0.0, 0.0, 0.0, 0.0, 1017.6749250501306, 0.0]
['beep', 0.0, 741.9885089383732, 0.0, 0.0, 0.0, 0.0, 1017.1161314387479, 0.0]
['beep', 0.0, 744.0001659393508, 0.0, 0.0, 0.0, 0.0, 1015.0597709488596, 0.0]
['beep', 0.0, 746.7494305073536, 0.0, 0.0, 0.0, 0.0, 1012.5563755698653, 0.0]
['beep', 0.0, 744.2683868728145, 0.0, 0.0, 0.0, 0.0, 1013.8080732593625, 0.0]
['beep', 0.0, 739.9992036818509, 0.0, 0.0, 0.0, 0.0, 1013.62925930372, 0.0]
['beep', 0.0, 739.7756862372978, 0.0, 0.0, 0.0, 0.0, 1012.8916517366948, 0.0]
['beep', 0.0, 741.2509013713482, 0.0, 0.0, 0.0, 0.0, 1014.6127360597535, 0.0]
['beep', 0.0, 744.4024973395465, 0.0, 0.0, 0.0, 0.0, 1012.8469482477842, 0.0]
['beep', 0.0, 742.547302549756, 0.0, 0.0, 0.0, 0.0, 1014.9703639710384, 0.0]
['beep', 0.0, 739.2615961148258, 0.0, 0.0, 0.0, 0.0, 1021.1394454407032, 0.0]
['beep', 0.0, 738.0769536586945, 0.0, 0.0, 0.0, 0.0, 1020.6030035737758, 0.0]
['beep', 0.0, 739.932148448485, 0.0, 0.0, 0.0, 0.0, 1018.5242913394322, 0.0]
['beep', 0.0, 744.0225176838062, 0.0, 0.0, 0.0, 0.0, 1016.5349860829099, 0.0]
['beep', 0.0, 741.5191223048118, 0.0, 0.0, 0.0, 0.0, 1018.1219599392367, 0.0]
['beep', 0.0, 738.5910437811666, 0.0, 0.0, 0.0, 0.0, 1020.6030035737758, 0.0]
['beep', 0.0, 739.2392443703704, 0.0, 0.0, 0.0, 0.0, 1020.1783204291249, 0.0]
['beep', 0.0, 741.0273839267951, 0.0, 0.0, 0.0, 0.0, 1014.0315907039155, 0.0]
['beep', 0.0, 743.1507996500492, 0.0, 0.0, 0.0, 0.0, 1013.1151691812479, 0.0]
['beep', 0.0, 741.5414740492671, 0.0, 0.0, 0.0, 0.0, 1012.1316924252144, 0.0]
['beep', 0.0, 737.5181600473119, 0.0, 0.0, 0.0, 0.0, 1019.2618989064574, 0.0]
['beep', 0.0, 738.7251542478984, 0.0, 0.0, 0.0, 0.0, 1018.367829128245, 0.0]
['beep', 0.0, 741.0497356712503, 0.0, 0.0, 0.0, 0.0, 1015.2385849045021, 0.0]
['beep', 0.0, 742.9049304610409, 0.0, 0.0, 0.0, 0.0, 1016.9149657386502, 0.0]
['beep', 0.0, 741.317956604714, 0.0, 0.0, 0.0, 0.0, 1017.4067041166669, 0.0]
['beep', 0.0, 739.127485648094, 0.0, 0.0, 0.0, 0.0, 1016.6020413162759, 0.0]
['beep', 0.0, 736.28881410227, 0.0, 0.0, 0.0, 0.0, 1016.7808552719183, 0.0]
['beep', 0.0, 738.8592647146303, 0.0, 0.0, 0.0, 0.0, 1017.4067041166669, 0.0]
['beep', 0.0, 740.2003693819487, 0.0, 0.0, 0.0, 0.0, 1017.2949453943903, 0.0]
['beep', 0.0, 739.9992036818509, 0.0, 0.0, 0.0, 0.0, 1016.9373174831054, 0.0]
['beep', 0.0, 737.674622258499, 0.0, 0.0, 0.0, 0.0, 1019.2618989064574, 0.0]
['beep', 0.0, 736.1547036355381, 0.0, 0.0, 0.0, 0.0, 1017.1831866721138, 0.0]
['beep', 0.0, 738.8145612257197, 0.0, 0.0, 0.0, 0.0, 1015.1491779266809, 0.0]
['beep', 0.0, 740.9156252045185, 0.0, 0.0, 0.0, 0.0, 1013.2939831368903, 0.0]
['beep', 0.0, 740.3791833375911, 0.0, 0.0, 0.0, 0.0, 1013.7410180259965, 0.0]
['beep', 0.0, 736.4899798023678, 0.0, 0.0, 0.0, 0.0, 1015.4621023490552, 0.0]
['beep', 0.0, 734.5006745458454, 0.0, 0.0, 0.0, 0.0, 1016.0432477048931, 0.0]
['beep', 0.0, 738.3675263366135, 0.0, 0.0, 0.0, 0.0, 1014.72449478203, 0.0]
['beep', 0.0, 741.38501183808, 0.0, 0.0, 0.0, 0.0, 1013.4057418591669, 0.0]
['beep', 0.0, 740.7815147377867, 0.0, 0.0, 0.0, 0.0, 1012.2658028919462, 0.0]
['beep', 0.0, 734.7912472237643, 0.0, 0.0, 0.0, 0.0, 1014.3892186152004, 0.0]
['beep', 0.0, 734.8806542015856, 0.0, 0.0, 0.0, 0.0, 1014.2327564040132, 0.0]
['beep', 0.0, 736.6911455024655, 0.0, 0.0, 0.0, 0.0, 1012.5116720809547, 0.0]
['beep', 0.0, 737.3393460916694, 0.0, 0.0, 0.0, 0.0, 1013.0034104589714, 0.0]
['beep', 0.0, 734.6794885014879, 0.0, 0.0, 0.0, 0.0, 1014.3892186152004, 0.0]
['beep', 0.0, 732.7348867338761, 0.0, 0.0, 0.0, 0.0, 1016.3114686383568, 0.0]
['beep', 0.0, 733.2042733674376, 0.0, 0.0, 0.0, 0.0, 1017.5408145833987, 0.0]
['beep', 0.0, 736.9593664359292, 0.0, 0.0, 0.0, 0.0, 1014.3445151262898, 0.0]
['beep', 0.0, 740.6250525265996, 0.0, 0.0, 0.0, 0.0, 1011.5505470693764, 0.0]
['beep', 0.0, 739.2392443703704, 0.0, 0.0, 0.0, 0.0, 1012.7351895255077, 0.0]
['beep', 0.0, 736.1100001466275, 0.0, 0.0, 0.0, 0.0, 1015.663268049153, 0.0]
['beep', 0.0, 734.6571367570325, 0.0, 0.0, 0.0, 0.0, 1013.8304250038177, 0.0]
['beep', 0.0, 731.8855204445745, 0.0, 0.0, 0.0, 0.0, 1011.8634714917507, 0.0]
['beep', 0.0, 734.7018402459431, 0.0, 0.0, 0.0, 0.0, 1012.1540441696698, 0.0]
['beep', 0.0, 741.38501183808, 0.0, 0.0, 0.0, 0.0, 1013.8304250038177, 0.0]
['beep', 0.0, 742.3014333607475, 0.0, 0.0, 0.0, 0.0, 1016.0208959604379, 0.0]
['beep', 0.0, 741.5191223048118, 0.0, 0.0, 0.0, 0.0, 1016.4902825939993, 0.0]
['beep', 0.0, 746.2576921293369, 0.0, 0.0, 0.0, 0.0, 1009.9412214685943, 0.0]
['beep', 0.0, 752.8067532547419, 0.0, 0.0, 0.0, 0.0, 1005.9402592110944, 0.0]
['beep', 0.0, 756.383032367591, 0.0, 0.0, 0.0, 0.0, 1009.5835935573094, 0.0]
['beep', 0.0, 756.4277358565016, 0.0, 0.0, 0.0, 0.0, 1014.4786255930217, 0.0]
['beep', 0.0, 761.3004161477586, 0.0, 0.0, 0.0, 0.0, 1010.3882563577005, 0.0]
['beep', 0.0, 728.28688958727, 0.0, 0.0, 0.0, 0.0, 1235.9620614006594, 0.0]
['beep', 0.0, 729.4715320434013, 0.0, 0.0, 0.0, 0.0, 1239.0018986465811, 0.0]
['beep', 0.0, 727.6833924869767, 0.0, 0.0, 0.0, 0.0, 1248.523741784542, 0.0]
['beep', 0.0, 725.2694040858036, 0.0, 0.0, 0.0, 0.0, 1259.0514134229916, 0.0]
['beep', 0.0, 723.5259680182896, 0.0, 0.0, 0.0, 0.0, 1260.4372215792205, 0.0]
['beep', 0.0, 722.3189738177031, 0.0, 0.0, 0.0, 0.0, 1266.4945443266088, 0.0]
['beep', 0.0, 724.3753343075913, 0.0, 0.0, 0.0, 0.0, 1264.8852187258267, 0.0]
['beep', 0.0, 725.448218041446, 0.0, 0.0, 0.0, 0.0, 1265.0863844259245, 0.0]
['beep', 0.0, 724.0177063963064, 0.0, 0.0, 0.0, 0.0, 1267.9921112051143, 0.0]
['beep', 0.0, 721.1343313615718, 0.0, 0.0, 0.0, 0.0, 1270.294340884011, 0.0]
['beep', 0.0, 722.7213052178986, 0.0, 0.0, 0.0, 0.0, 1265.8016402484943, 0.0]
['beep', 0.0, 724.3753343075913, 0.0, 0.0, 0.0, 0.0, 1264.460535581176, 0.0]
['beep', 0.0, 725.4035145525354, 0.0, 0.0, 0.0, 0.0, 1264.7287565146396, 0.0]
['beep', 0.0, 722.4530842844349, 0.0, 0.0, 0.0, 0.0, 1260.258407623578, 0.0]
['beep', 0.0, 718.1168458601053, 0.0, 0.0, 0.0, 0.0, 1258.8055442339833, 0.0]
['beep', 0.0, 720.8214069391975, 0.0, 0.0, 0.0, 0.0, 1257.196218633201, 0.0]
['beep', 0.0, 721.7601802063203, 0.0, 0.0, 0.0, 0.0, 1249.9319016852262, 0.0]
['beep', 0.0, 722.5648430067114, 0.0, 0.0, 0.0, 0.0, 1243.9192824267486, 0.0]
['beep', 0.0, 722.4307325399795, 0.0, 0.0, 0.0, 0.0, 1239.0913056244024, 0.0]
['beep', 0.0, 721.1566831060271, 0.0, 0.0, 0.0, 0.0, 1233.8833491663158, 0.0]
['beep', 0.0, 721.9389941619628, 0.0, 0.0, 0.0, 0.0, 1226.3061077959667, 0.0]
['beep', 0.0, 726.0070116528287, 0.0, 0.0, 0.0, 0.0, 1219.6005844593747, 0.0]
['beep', 0.0, 727.1469506200493, 0.0, 0.0, 0.0, 0.0, 1216.9183751247376, 0.0]
['beep', 0.0, 724.9564796634293, 0.0, 0.0, 0.0, 0.0, 1213.2079855451568, 0.0]
['beep', 0.0, 720.642592983555, 0.0, 0.0, 0.0, 0.0, 1206.301296508467, 0.0]
['beep', 0.0, 722.4307325399795, 0.0, 0.0, 0.0, 0.0, 1201.585078428397, 0.0]
['beep', 0.0, 726.0070116528287, 0.0, 0.0, 0.0, 0.0, 1201.4509679616651, 0.0]
['beep', 0.0, 727.5716337647002, 0.0, 0.0, 0.0, 0.0, 1196.7347498815955, 0.0]
['beep', 0.0, 723.995354651851, 0.0, 0.0, 0.0, 0.0, 1192.8678980908273, 0.0]
['beep', 0.0, 722.0060493953288, 0.0, 0.0, 0.0, 0.0, 1189.1798602557017, 0.0]
['beep', 0.0, 721.3802005505802, 0.0, 0.0, 0.0, 0.0, 1184.4859939200871, 0.0]
['beep', 0.0, 725.4258662969908, 0.0, 0.0, 0.0, 0.0, 1179.0321682729923, 0.0]
['beep', 0.0, 726.2752325862924, 0.0, 0.0, 0.0, 0.0, 1175.3217786934113, 0.0]
['beep', 0.0, 724.5094447743231, 0.0, 0.0, 0.0, 0.0, 1172.751328081051, 0.0]
['beep', 0.0, 722.6542499845326, 0.0, 0.0, 0.0, 0.0, 1168.9738832681041, 0.0]
['beep', 0.0, 723.8612441851192, 0.0, 0.0, 0.0, 0.0, 1164.2576651880343, 0.0]
['beep', 0.0, 725.2470523413483, 0.0, 0.0, 0.0, 0.0, 1161.2848831754784, 0.0]
['beep', 0.0, 726.7893227087644, 0.0, 0.0, 0.0, 0.0, 1159.072060474403, 0.0]
['beep', 0.0, 723.7271337183873, 0.0, 0.0, 0.0, 0.0, 1158.8038395409394, 0.0]
['beep', 0.0, 720.9108139170187, 0.0, 0.0, 0.0, 0.0, 1155.9428162506601, 0.0]
['beep', 0.0, 721.9389941619628, 0.0, 0.0, 0.0, 0.0, 1154.557008094431, 0.0]
['beep', 0.0, 723.995354651851, 0.0, 0.0, 0.0, 0.0, 1153.975862738593, 0.0]
['beep', 0.0, 725.1129418746165, 0.0, 0.0, 0.0, 0.0, 1151.7630400375176, 0.0]
['beep', 0.0, 724.2188720964041, 0.0, 0.0, 0.0, 0.0, 1149.684327803174, 0.0]
['beep', 0.0, 720.9778691503847, 0.0, 0.0, 0.0, 0.0, 1148.3879266247664, 0.0]
['beep', 0.0, 722.6989534734432, 0.0, 0.0, 0.0, 0.0, 1144.588130067364, 0.0]
['beep', 0.0, 727.0798953866835, 0.0, 0.0, 0.0, 0.0, 1141.9729759660931, 0.0]
['beep', 0.0, 727.5716337647002, 0.0, 0.0, 0.0, 0.0, 1141.525941076987, 0.0]
['beep', 0.0, 723.1012848736387, 0.0, 0.0, 0.0, 0.0, 1141.1236096767914, 0.0]
['beep', 0.0, 721.4025522950354, 0.0, 0.0, 0.0, 0.0, 1139.6930980316517, 0.0]
['beep', 0.0, 723.1236366180941, 0.0, 0.0, 0.0, 0.0, 1137.7708480084955, 0.0]
['beep', 0.0, 725.2694040858036, 0.0, 0.0, 0.0, 0.0, 1133.009926439515, 0.0]
['beep', 0.0, 725.2694040858036, 0.0, 0.0, 0.0, 0.0, 1138.8884352312607, 0.0]
['beep', 0.0, 724.8894244300634, 0.0, 0.0, 0.0, 0.0, 1138.9554904646268, 0.0]
['beep', 0.0, 722.1401598620606, 0.0, 0.0, 0.0, 0.0, 1135.7144875186073, 0.0]
['beep', 0.0, 722.8777674290857, 0.0, 0.0, 0.0, 0.0, 1138.2849381309675, 0.0]
['beep', 0.0, 727.4598750424236, 0.0, 0.0, 0.0, 0.0, 1134.6416037847525, 0.0]
['beep', 0.0, 729.0244971542952, 0.0, 0.0, 0.0, 0.0, 1131.5794147943755, 0.0]
['beep', 0.0, 727.7504477203427, 0.0, 0.0, 0.0, 0.0, 1129.0760194153809, 0.0]
['beep', 0.0, 726.4987500308455, 0.0, 0.0, 0.0, 0.0, 1126.9749554365821, 0.0]
['beep', 0.0, 727.3481163201471, 0.0, 0.0, 0.0, 0.0, 1129.3889438377553, 0.0]
['beep', 0.0, 730.9690989219068, 0.0, 0.0, 0.0, 0.0, 1129.9030339602273, 0.0]
['beep', 0.0, 733.9865844233733, 0.0, 0.0, 0.0, 0.0, 1127.846673470339, 0.0]
['beep', 0.0, 731.8184652112085, 0.0, 0.0, 0.0, 0.0, 1126.0585339139145, 0.0]
['beep', 0.0, 728.5327587762785, 0.0, 0.0, 0.0, 0.0, 1126.2149961251016, 0.0]
['beep', 0.0, 732.9360524339739, 0.0, 0.0, 0.0, 0.0, 1124.203339124124, 0.0]
['beep', 0.0, 737.160532136027, 0.0, 0.0, 0.0, 0.0, 1124.1586356352134, 0.0]
['beep', 0.0, 739.1721891370046, 0.0, 0.0, 0.0, 0.0, 1122.7057722456184, 0.0]
['beep', 0.0, 735.7300204908872, 0.0, 0.0, 0.0, 0.0, 1121.4764263005766, 0.0]
['beep', 0.0, 734.1206948901051, 0.0, 0.0, 0.0, 0.0, 1120.8729292002834, 0.0]
['beep', 0.0, 736.8923112025633, 0.0, 0.0, 0.0, 0.0, 1118.101312887825, 0.0]
['beep', 0.0, 740.736811248876, 0.0, 0.0, 0.0, 0.0, 1118.5036442880207, 0.0]
['beep', 0.0, 741.9214537050074, 0.0, 0.0, 0.0, 0.0, 1119.9565076776157, 0.0]
['beep', 0.0, 740.4462385709571, 0.0, 0.0, 0.0, 0.0, 1115.9108419312051, 0.0]
['beep', 0.0, 737.741677491865, 0.0, 0.0, 0.0, 0.0, 1115.8437866978393, 0.0]
['beep', 0.0, 738.0546019142392, 0.0, 0.0, 0.0, 0.0, 1118.9506791771269, 0.0]
['beep', 0.0, 741.5414740492671, 0.0, 0.0, 0.0, 0.0, 1119.040086154948, 0.0]
['beep', 0.0, 741.6085292826331, 0.0, 0.0, 0.0, 0.0, 1116.335525075856, 0.0]
['beep', 0.0, 739.2168926259152, 0.0, 0.0, 0.0, 0.0, 1115.687324486652, 0.0]
['beep', 0.0, 738.5910437811666, 0.0, 0.0, 0.0, 0.0, 1114.5026820305206, 0.0]
['beep', 0.0, 739.0380786702727, 0.0, 0.0, 0.0, 0.0, 1115.2402895975458, 0.0]
['beep', 0.0, 744.0672211727168, 0.0, 0.0, 0.0, 0.0, 1115.329696575367, 0.0]
['beep', 0.0, 746.9505962074514, 0.0, 0.0, 0.0, 0.0, 1115.307344830912, 0.0]
['beep', 0.0, 746.9505962074514, 0.0, 0.0, 0.0, 0.0, 1114.592089008342, 0.0]
['beep', 0.0, 745.1177531621163, 0.0, 0.0, 0.0, 0.0, 1113.7874262079508, 0.0]
['beep', 0.0, 745.8106572402307, 0.0, 0.0, 0.0, 0.0, 1114.1227023747806, 0.0]
['beep', 0.0, 748.448163085957, 0.0, 0.0, 0.0, 0.0, 1113.5192052744871, 0.0]
['beep', 0.0, 748.8728462306078, 0.0, 0.0, 0.0, 0.0, 1111.3063825734118, 0.0]
['beep', 0.0, 746.2129886404263, 0.0, 0.0, 0.0, 0.0, 1110.6134784952974, 0.0]
['beep', 0.0, 742.6143577831218, 0.0, 0.0, 0.0, 0.0, 1109.205318594613, 0.0]
['beep', 0.0, 743.1284479055939, 0.0, 0.0, 0.0, 0.0, 1111.6640104846967, 0.0]
['beep', 0.0, 747.7552590078425, 0.0, 0.0, 0.0, 0.0, 1113.6980192301296, 0.0]
['beep', 0.0, 742.8155234832196, 0.0, 0.0, 0.0, 0.0, 1113.876833185772, 0.0]
['beep', 0.0, 731.9525756779403, 0.0, 0.0, 0.0, 0.0, 1113.6086122523084, 0.0]
['beep', 0.0, 725.8952529305521, 0.0, 0.0, 0.0, 0.0, 1114.0779988858699, 0.0]
['beep', 0.0, 719.9049854165298, 0.0, 0.0, 0.0, 0.0, 1115.307344830912, 0.0]
['beep', 0.0, 718.1391976045606, 0.0, 0.0, 0.0, 0.0, 1116.8272634538728, 0.0]
['beep', 0.0, 717.5580522487227, 0.0, 0.0, 0.0, 0.0, 1115.9108419312051, 0.0]
['beep', 0.0, 714.9428981474517, 0.0, 0.0, 0.0, 0.0, 1114.2568128415123, 0.0]
['beep', 0.0, 712.707723701921, 0.0, 0.0, 0.0, 0.0, 1115.4191035531883, 0.0]
['beep', 0.0, 714.0041248803288, 0.0, 0.0, 0.0, 0.0, 1116.5143390314984, 0.0]
['beep', 0.0, 716.3287063036807, 0.0, 0.0, 0.0, 0.0, 1114.882661686261, 0.0]
['beep', 0.0, 717.5580522487227, 0.0, 0.0, 0.0, 0.0, 1115.1285308752695, 0.0]
['beep', 0.0, 715.18876733646, 0.0, 0.0, 0.0, 0.0, 1114.815606452895, 0.0]
['beep', 0.0, 715.3228778031919, 0.0, 0.0, 0.0, 0.0, 1114.815606452895, 0.0]
['beep', 0.0, 715.3675812921025, 0.0, 0.0, 0.0, 0.0, 1110.8369959398503, 0.0]
['beep', 0.0, 718.1615493490159, 0.0, 0.0, 0.0, 0.0, 1109.9652779060934, 0.0]
['beep', 0.0, 718.2733080712925, 0.0, 0.0, 0.0, 0.0, 1111.8651761847946, 0.0]
['beep', 0.0, 717.4462935264461, 0.0, 0.0, 0.0, 0.0, 1116.8049117094174, 0.0]
['beep', 0.0, 715.0546568697282, 0.0, 0.0, 0.0, 0.0, 1117.296650087434, 0.0]
['beep', 0.0, 717.803921437731, 0.0, 0.0, 0.0, 0.0, 1115.0838273863587, 0.0]
['beep', 0.0, 721.447255783946, 0.0, 0.0, 0.0, 0.0, 1113.5639087633979, 0.0]
['beep', 0.0, 723.3695058071024, 0.0, 0.0, 0.0, 0.0, 1113.0274668964705, 0.0]
['beep', 0.0, 721.0225726392953, 0.0, 0.0, 0.0, 0.0, 1113.1839291076576, 0.0]
['beep', 0.0, 717.8933284155522, 0.0, 0.0, 0.0, 0.0, 1114.8379581973504, 0.0]
['beep', 0.0, 718.4297702824796, 0.0, 0.0, 0.0, 0.0, 1114.4356267971548, 0.0]
['beep', 0.0, 721.5366627617673, 0.0, 0.0, 0.0, 0.0, 1111.239327340046, 0.0]
['beep', 0.0, 720.8437586836528, 0.0, 0.0, 0.0, 0.0, 1112.915708174194, 0.0]
['beep', 0.0, 720.5531860057338, 0.0, 0.0, 0.0, 0.0, 1114.301516330423, 0.0]
['beep', 0.0, 718.4744737713902, 0.0, 0.0, 0.0, 0.0, 1116.782559964962, 0.0]
['beep', 0.0, 717.4909970153567, 0.0, 0.0, 0.0, 0.0, 1117.788388465451, 0.0]
['beep', 0.0, 720.6649447280104, 0.0, 0.0, 0.0, 0.0, 1117.7660367209955, 0.0]
['beep', 0.0, 721.1566831060271, 0.0, 0.0, 0.0, 0.0, 1116.8719669427833, 0.0]
['beep', 0.0, 719.5473575052449, 0.0, 0.0, 0.0, 0.0, 1116.3802285647666, 0.0]
['beep', 0.0, 717.3345348041696, 0.0, 0.0, 0.0, 0.0, 1118.3471820768336, 0.0]
['beep', 0.0, 718.2509563268371, 0.0, 0.0, 0.0, 0.0, 1118.302478587923, 0.0]
['beep', 0.0, 718.6309359825774, 0.0, 0.0, 0.0, 0.0, 1116.849615198328, 0.0]
['beep', 0.0, 718.4074185380243, 0.0, 0.0, 0.0, 0.0, 1115.1508826197246, 0.0]
['beep', 0.0, 714.7640841918093, 0.0, 0.0, 0.0, 0.0, 1117.0284291539704, 0.0]
['beep', 0.0, 713.3335725466696, 0.0, 0.0, 0.0, 0.0, 1117.3860570652553, 0.0]
['beep', 0.0, 713.8476626691416, 0.0, 0.0, 0.0, 0.0, 1116.9837256650599, 0.0]
['beep', 0.0, 716.1275406035829, 0.0, 0.0, 0.0, 0.0, 1118.0566093989146, 0.0]
['beep', 0.0, 717.9603836489182, 0.0, 0.0, 0.0, 0.0, 1118.101312887825, 0.0]
['beep', 0.0, 717.5357005042673, 0.0, 0.0, 0.0, 0.0, 1115.5979175088307, 0.0]
['beep', 0.0, 716.0157818813065, 0.0, 0.0, 0.0, 0.0, 1115.821434953384, 0.0]
['beep', 0.0, 715.7922644367534, 0.0, 0.0, 0.0, 0.0, 1115.2626413420012, 0.0]
['beep', 0.0, 719.480302271879, 0.0, 0.0, 0.0, 0.0, 1115.9331936756605, 0.0]
['beep', 0.0, 719.3238400606919, 0.0, 0.0, 0.0, 0.0, 1116.4472837981325, 0.0]
['beep', 0.0, 716.0604853702171, 0.0, 0.0, 0.0, 0.0, 1116.4472837981325, 0.0]
['beep', 0.0, 715.3005260587366, 0.0, 0.0, 0.0, 0.0, 1116.6708012426855, 0.0]
['beep', 0.0, 716.5522237482338, 0.0, 0.0, 0.0, 0.0, 1117.430760554166, 0.0]
['beep', 0.0, 719.2344330828706, 0.0, 0.0, 0.0, 0.0, 1116.3802285647666, 0.0]
['beep', 0.0, 722.2742703287925, 0.0, 0.0, 0.0, 0.0, 1115.5308622754649, 0.0]
['beep', 0.0, 721.4919592728567, 0.0, 0.0, 0.0, 0.0, 1116.2014146091242, 0.0]
['beep', 0.0, 718.8991569160411, 0.0, 0.0, 0.0, 0.0, 1115.9331936756605, 0.0]
['beep', 0.0, 719.4355987829684, 0.0, 0.0, 0.0, 0.0, 1116.2237663535793, 0.0]
['beep', 0.0, 722.3189738177031, 0.0, 0.0, 0.0, 0.0, 1116.0449523979369, 0.0]
['beep', 0.0, 724.3306308186807, 0.0, 0.0, 0.0, 0.0, 1115.4861587865544, 0.0]
['beep', 0.0, 722.1401598620606, 0.0, 0.0, 0.0, 0.0, 1116.491987287043, 0.0]
['beep', 0.0, 718.9662121494069, 0.0, 0.0, 0.0, 0.0, 1116.5366907759537, 0.0]
['beep', 0.0, 717.1333691040718, 0.0, 0.0, 0.0, 0.0, 1116.0673041423922, 0.0]
['beep', 0.0, 720.2626133278147, 0.0, 0.0, 0.0, 0.0, 1115.8661384422944, 0.0]
['beep', 0.0, 721.9166424175075, 0.0, 0.0, 0.0, 0.0, 1116.6708012426855, 0.0]
['beep', 0.0, 719.2120813384154, 0.0, 0.0, 0.0, 0.0, 1116.6037460093196, 0.0]
['beep', 0.0, 717.7368662043651, 0.0, 0.0, 0.0, 0.0, 1114.525033774976, 0.0]
['beep', 0.0, 718.675639471488, 0.0, 0.0, 0.0, 0.0, 1115.4414552976436, 0.0]
['beep', 0.0, 721.4696075284014, 0.0, 0.0, 0.0, 0.0, 1115.6649727421968, 0.0]
['beep', 0.0, 721.9836976508734, 0.0, 0.0, 0.0, 0.0, 1115.2179378530907, 0.0]
['beep', 0.0, 719.5026540163343, 0.0, 0.0, 0.0, 0.0, 1114.368571563789, 0.0]
['beep', 0.0, 718.5191772603008, 0.0, 0.0, 0.0, 0.0, 1113.2733360854788, 0.0]
['beep', 0.0, 719.994392394351, 0.0, 0.0, 0.0, 0.0, 1114.525033774976, 0.0]
['beep', 0.0, 721.7378284618651, 0.0, 0.0, 0.0, 0.0, 1114.0332953969594, 0.0]
['beep', 0.0, 722.6989534734432, 0.0, 0.0, 0.0, 0.0, 1113.1839291076576, 0.0]
['beep', 0.0, 721.7825319507757, 0.0, 0.0, 0.0, 0.0, 1115.2849930864566, 0.0]
['beep', 0.0, 721.0896278726611, 0.0, 0.0, 0.0, 0.0, 1114.9720686640821, 0.0]
['beep', 0.0, 722.028401139784, 0.0, 0.0, 0.0, 0.0, 1116.7378564760515, 0.0]
['beep', 0.0, 726.0740668861946, 0.0, 0.0, 0.0, 0.0, 1117.8777954432721, 0.0]
['beep', 0.0, 725.7611424638203, 0.0, 0.0, 0.0, 0.0, 1117.2519465985235, 0.0]
['beep', 0.0, 722.8777674290857, 0.0, 0.0, 0.0, 0.0, 1115.0167721529929, 0.0]
['beep', 0.0, 720.8214069391975, 0.0, 0.0, 0.0, 0.0, 1117.0954843873365, 0.0]
['beep', 0.0, 720.642592983555, 0.0, 0.0, 0.0, 0.0, 1117.6095745098085, 0.0]
['beep', 0.0, 723.9282994184852, 0.0, 0.0, 0.0, 0.0, 1117.4754640430765, 0.0]
['beep', 0.0, 726.7222674753986, 0.0, 0.0, 0.0, 0.0, 1116.0002489090264, 0.0]
['beep', 0.0, 723.7047819739321, 0.0, 0.0, 0.0, 0.0, 1116.5813942648642, 0.0]
['beep', 0.0, 721.6037179951333, 0.0, 0.0, 0.0, 0.0, 1116.8272634538728, 0.0]
['beep', 0.0, 722.1625116065159, 0.0, 0.0, 0.0, 0.0, 1116.2237663535793, 0.0]
['beep', 0.0, 725.8281976971863, 0.0, 0.0, 0.0, 0.0, 1118.5483477769315, 0.0]
['beep', 0.0, 727.2140058534153, 0.0, 0.0, 0.0, 0.0, 1117.274298342979, 0.0]
['beep', 0.0, 725.515273274812, 0.0, 0.0, 0.0, 0.0, 1117.1178361317916, 0.0]
['beep', 0.0, 723.1012848736387, 0.0, 0.0, 0.0, 0.0, 1119.397714066233, 0.0]
['beep', 0.0, 724.8223691966974, 0.0, 0.0, 0.0, 0.0, 1120.7611704780068, 0.0]
['beep', 0.0, 728.7562762208315, 0.0, 0.0, 0.0, 0.0, 1122.6834205011633, 0.0]
['beep', 0.0, 729.8515116991415, 0.0, 0.0, 0.0, 0.0, 1124.6503740132302, 0.0]
['beep', 0.0, 726.6552122420326, 0.0, 0.0, 0.0, 0.0, 1128.4501705706323, 0.0]
['beep', 0.0, 723.9282994184852, 0.0, 0.0, 0.0, 0.0, 1134.3286793623781, 0.0]
['beep', 0.0, 725.224700596893, 0.0, 0.0, 0.0, 0.0, 1139.6260427982859, 0.0]
['beep', 0.0, 729.0692006432058, 0.0, 0.0, 0.0, 0.0, 1145.4374963566656, 0.0]
['beep', 0.0, 730.7232297328985, 0.0, 0.0, 0.0, 0.0, 1148.9690719806042, 0.0]
['beep', 0.0, 728.9797936653846, 0.0, 0.0, 0.0, 0.0, 1153.75234529404, 0.0]
['beep', 0.0, 725.4929215303566, 0.0, 0.0, 0.0, 0.0, 1158.7367843075735, 0.0]
['beep', 0.0, 725.2917558302589, 0.0, 0.0, 0.0, 0.0, 1166.2022669556459, 0.0]
['beep', 0.0, 728.5327587762785, 0.0, 0.0, 0.0, 0.0, 1171.5666856249197, 0.0]
['beep', 0.0, 731.997279166851, 0.0, 0.0, 0.0, 0.0, 1176.3052554494448, 0.0]
['beep', 0.0, 725.8505494416415, 0.0, 0.0, 0.0, 0.0, 1181.2226392296122, 0.0]
['beep', 0.0, 721.2460900838483, 0.0, 0.0, 0.0, 0.0, 1186.4976509210649, 0.0]
['beep', 0.0, 722.5871947511667, 0.0, 0.0, 0.0, 0.0, 1193.8960783357713, 0.0]
['beep', 0.0, 726.610508753122, 0.0, 0.0, 0.0, 0.0, 1200.646305161274, 0.0]
['beep', 0.0, 725.8505494416415, 0.0, 0.0, 0.0, 0.0, 1205.8319098749055, 0.0]
['beep', 0.0, 725.3141075747142, 0.0, 0.0, 0.0, 0.0, 1208.0670843204362, 0.0]
['beep', 0.0, 724.7776657077868, 0.0, 0.0, 0.0, 0.0, 1214.8396628903943, 0.0]
['beep', 0.0, 725.4258662969908, 0.0, 0.0, 0.0, 0.0, 1221.7016484381734, 0.0]
['beep', 0.0, 726.4093430530243, 0.0, 0.0, 0.0, 0.0, 1226.19434907369, 0.0]
['beep', 0.0, 725.4705697859014, 0.0, 0.0, 0.0, 0.0, 1227.5801572299192, 0.0]
['beep', 0.0, 725.1352936190717, 0.0, 0.0, 0.0, 0.0, 1233.5927764883968, 0.0]
['beep', 0.0, 725.8281976971863, 0.0, 0.0, 0.0, 0.0, 1235.4032677892767, 0.0]
['beep', 0.0, 728.4433517984572, 0.0, 0.0, 0.0, 0.0, 1239.2701195800448, 0.0]
['beep', 0.0, 724.8447209411528, 0.0, 0.0, 0.0, 0.0, 1245.3721458163436, 0.0]
['beep', 0.0, 723.2130435959153, 0.0, 0.0, 0.0, 0.0, 1247.5402650285084, 0.0]
['beep', 0.0, 728.063372142717, 0.0, 0.0, 0.0, 0.0, 1247.4508580506872, 0.0]
['beep', 0.0, 727.5045785313342, 0.0, 0.0, 0.0, 0.0, 1250.1554191297794, 0.0]
['beep', 0.0, 727.6386889980661, 0.0, 0.0, 0.0, 0.0, 1252.7705732310503, 0.0]
['beep', 0.0, 727.6833924869767, 0.0, 0.0, 0.0, 0.0, 1255.519837799053, 0.0]
['beep', 0.0, 726.0517151417394, 0.0, 0.0, 0.0, 0.0, 1256.033927921525, 0.0]
['beep', 0.0, 725.0011831523399, 0.0, 0.0, 0.0, 0.0, 1256.9056459552821, 0.0]
['beep', 0.0, 723.2800988292812, 0.0, 0.0, 0.0, 0.0, 1256.972701188648, 0.0]
['beep', 0.0, 726.2305290973818, 0.0, 0.0, 0.0, 0.0, 1259.2078756341787, 0.0]
['beep', 0.0, 731.3490785776471, 0.0, 0.0, 0.0, 0.0, 1260.616035534863, 0.0]
['beep', 0.0, 731.639651255566, 0.0, 0.0, 0.0, 0.0, 1262.7618030025726, 0.0]
['beep', 0.0, 730.6114710106219, 0.0, 0.0, 0.0, 0.0, 1263.4994105695976, 0.0]
['beep', 0.0, 728.28688958727, 0.0, 0.0, 0.0, 0.0, 1265.7569367595836, 0.0]
['beep', 0.0, 730.1420843770605, 0.0, 0.0, 0.0, 0.0, 1266.3157303709663, 0.0]
['beep', 0.0, 734.9253576904962, 0.0, 0.0, 0.0, 0.0, 1266.7627652600725, 0.0]
['beep', 0.0, 735.126523390594, 0.0, 0.0, 0.0, 0.0, 1265.9804542041368, 0.0]
['beep', 0.0, 731.9749274223957, 0.0, 0.0, 0.0, 0.0, 1265.645178037307, 0.0]
['beep', 0.0, 728.063372142717, 0.0, 0.0, 0.0, 0.0, 1266.2710268820558, 0.0]
['beep', 0.0, 728.5327587762785, 0.0, 0.0, 0.0, 0.0, 1265.5110675705753, 0.0]
['beep', 0.0, 732.4666658004124, 0.0, 0.0, 0.0, 0.0, 1266.0251576930473, 0.0]
['beep', 0.0, 735.6182617686108, 0.0, 0.0, 0.0, 0.0, 1265.2204948926562, 0.0]
['beep', 0.0, 733.4054390675353, 0.0, 0.0, 0.0, 0.0, 1263.454707080687, 0.0]
['beep', 0.0, 730.253843099337, 0.0, 0.0, 0.0, 0.0, 1264.5052390700864, 0.0]
['beep', 0.0, 729.2033111099377, 0.0, 0.0, 0.0, 0.0, 1264.1923146477122, 0.0]
['beep', 0.0, 731.3937820665577, 0.0, 0.0, 0.0, 0.0, 1265.935750715226, 0.0]
['beep', 0.0, 733.6066047676331, 0.0, 0.0, 0.0, 0.0, 1265.5110675705753, 0.0]
['beep', 0.0, 734.545378034756, 0.0, 0.0, 0.0, 0.0, 1265.4663640816646, 0.0]
['beep', 0.0, 732.2655001003146, 0.0, 0.0, 0.0, 0.0, 1266.0922129264134, 0.0]
['beep', 0.0, 729.9856221658733, 0.0, 0.0, 0.0, 0.0, 1266.5392478155195, 0.0]
['beep', 0.0, 732.2655001003146, 0.0, 0.0, 0.0, 0.0, 1265.0193291925584, 0.0]
['beep', 0.0, 735.4170960685129, 0.0, 0.0, 0.0, 0.0, 1265.1757914037457, 0.0]
['beep', 0.0, 733.964232678918, 0.0, 0.0, 0.0, 0.0, 1267.2545036380893, 0.0]
['beep', 0.0, 732.6678315005103, 0.0, 0.0, 0.0, 0.0, 1265.0863844259245, 0.0]
['beep', 0.0, 729.4268285544907, 0.0, 0.0, 0.0, 0.0, 1266.0475094375026, 0.0]
['beep', 0.0, 729.739752976865, 0.0, 0.0, 0.0, 0.0, 1267.3662623603657, 0.0]
['beep', 0.0, 731.4384855554683, 0.0, 0.0, 0.0, 0.0, 1268.4838495831311, 0.0]
['beep', 0.0, 730.6561744995325, 0.0, 0.0, 0.0, 0.0, 1269.847305994905, 0.0]
['beep', 0.0, 728.4210000540019, 0.0, 0.0, 0.0, 0.0, 1267.746242016106, 0.0]
['beep', 0.0, 727.415171553513, 0.0, 0.0, 0.0, 0.0, 1269.0426431945139, 0.0]
['beep', 0.0, 730.9243954329962, 0.0, 0.0, 0.0, 0.0, 1270.9201897287596, 0.0]
['beep', 0.0, 733.1819216229823, 0.0, 0.0, 0.0, 0.0, 1272.104832184891, 0.0]
['beep', 0.0, 733.8524739566415, 0.0, 0.0, 0.0, 0.0, 1272.0601286959802, 0.0]
['beep', 0.0, 732.9360524339739, 0.0, 0.0, 0.0, 0.0, 1274.518820586064, 0.0]
['beep', 0.0, 731.8855204445745, 0.0, 0.0, 0.0, 0.0, 1276.6869397982289, 0.0]
['beep', 0.0, 731.3267268331917, 0.0, 0.0, 0.0, 0.0, 1276.6422363093182, 0.0]
['beep', 0.0, 730.4326570549795, 0.0, 0.0, 0.0, 0.0, 1276.8210502649606, 0.0]
['beep', 0.0, 729.7621047213203, 0.0, 0.0, 0.0, 0.0, 1280.263218911078, 0.0]
['beep', 0.0, 728.7562762208315, 0.0, 0.0, 0.0, 0.0, 1280.1067566998909, 0.0]
['beep', 0.0, 733.2936803452588, 0.0, 0.0, 0.0, 0.0, 1283.2583526680892, 0.0]
['beep', 0.0, 737.674622258499, 0.0, 0.0, 0.0, 0.0, 1284.4653468686756, 0.0]
['beep', 0.0, 737.1828838804822, 0.0, 0.0, 0.0, 0.0, 1285.6276375803516, 0.0]
['beep', 0.0, 733.7854187232756, 0.0, 0.0, 0.0, 0.0, 1286.8793352698488, 0.0]
['beep', 0.0, 731.1479128775493, 0.0, 0.0, 0.0, 0.0, 1288.1086812148908, 0.0]
['beep', 0.0, 733.1148663896164, 0.0, 0.0, 0.0, 0.0, 1285.9182102582706, 0.0]
['beep', 0.0, 737.2499391138482, 0.0, 0.0, 0.0, 0.0, 1287.8628120258822, 0.0]
['beep', 0.0, 737.9204914475074, 0.0, 0.0, 0.0, 0.0, 1284.3982916353098, 0.0]
['beep', 0.0, 735.2159303684152, 0.0, 0.0, 0.0, 0.0, 1281.9843032341366, 0.0]
['beep', 0.0, 735.059468157228, 0.0, 0.0, 0.0, 0.0, 1281.738434045128, 0.0]
['beep', 0.0, 736.8252559691973, 0.0, 0.0, 0.0, 0.0, 1280.3302741444438, 0.0]
['beep', 0.0, 740.1556658930381, 0.0, 0.0, 0.0, 0.0, 1279.1456316883125, 0.0]
['beep', 0.0, 739.9545001929403, 0.0, 0.0, 0.0, 0.0, 1277.1563264317901, 0.0]
['beep', 0.0, 739.3733548371023, 0.0, 0.0, 0.0, 0.0, 1276.843402009416, 0.0]
['beep', 0.0, 738.0769536586945, 0.0, 0.0, 0.0, 0.0, 1274.7870415195277, 0.0]
['beep', 0.0, 738.7922094812643, 0.0, 0.0, 0.0, 0.0, 1273.133012429835, 0.0]
['beep', 0.0, 741.2509013713482, 0.0, 0.0, 0.0, 0.0, 1272.3507013738993, 0.0]
['beep', 0.0, 741.6085292826331, 0.0, 0.0, 0.0, 0.0, 1273.5353438300306, 0.0]
['beep', 0.0, 739.4180583260129, 0.0, 0.0, 0.0, 0.0, 1272.8871432408266, 0.0]
['beep', 0.0, 737.9428431919627, 0.0, 0.0, 0.0, 0.0, 1271.7919077625165, 0.0]
['beep', 0.0, 738.8816164590855, 0.0, 0.0, 0.0, 0.0, 1272.842439751916, 0.0]
['beep', 0.0, 740.8932734600633, 0.0, 0.0, 0.0, 0.0, 1273.1106606853796, 0.0]
['beep', 0.0, 742.1449711495604, 0.0, 0.0, 0.0, 0.0, 1275.2564281530892, 0.0]
['beep', 0.0, 738.47928505889, 0.0, 0.0, 0.0, 0.0, 1275.9493322312037, 0.0]
['beep', 0.0, 734.4559710569348, 0.0, 0.0, 0.0, 0.0, 1276.9775124761477, 0.0]
['beep', 0.0, 739.3733548371023, 0.0, 0.0, 0.0, 0.0, 1279.7938322775165, 0.0]
['beep', 0.0, 743.7095932614319, 0.0, 0.0, 0.0, 0.0, 1280.1067566998909, 0.0]
['beep', 0.0, 743.0390409277727, 0.0, 0.0, 0.0, 0.0, 1280.933771244737, 0.0]
['beep', 0.0, 739.641575770566, 0.0, 0.0, 0.0, 0.0, 1282.8560212678935, 0.0]
['beep', 0.0, 739.5745205372001, 0.0, 0.0, 0.0, 0.0, 1283.1242422013572, 0.0]
['beep', 0.0, 739.5298170482895, 0.0, 0.0, 0.0, 0.0, 1284.8676782688713, 0.0]
['beep', 0.0, 738.2781193587923, 0.0, 0.0, 0.0, 0.0, 1287.035797481036, 0.0]
['beep', 0.0, 739.6862792594766, 0.0, 0.0, 0.0, 0.0, 1284.9347335022371, 0.0]
['beep', 0.0, 737.8087327252308, 0.0, 0.0, 0.0, 0.0, 1287.0134457365807, 0.0]
['beep', 0.0, 734.6571367570325, 0.0, 0.0, 0.0, 0.0, 1286.5217073585638, 0.0]
['beep', 0.0, 735.3500408351471, 0.0, 0.0, 0.0, 0.0, 1287.5051841145973, 0.0]
['beep', 0.0, 740.3568315931358, 0.0, 0.0, 0.0, 0.0, 1287.6392945813293, 0.0]
['beep', 0.0, 743.0837444166833, 0.0, 0.0, 0.0, 0.0, 1290.2097451936895, 0.0]
['beep', 0.0, 739.4627618149235, 0.0, 0.0, 0.0, 0.0, 1288.8909922708265, 0.0]
['beep', 0.0, 733.6960117454544, 0.0, 0.0, 0.0, 0.0, 1286.7899282920275, 0.0]
['beep', 0.0, 733.3607355786247, 0.0, 0.0, 0.0, 0.0, 1286.5440591030192, 0.0]
['beep', 0.0, 737.4734565584013, 0.0, 0.0, 0.0, 0.0, 1285.2700096690667, 0.0]
['beep', 0.0, 739.7980379817532, 0.0, 0.0, 0.0, 0.0, 1285.649989324807, 0.0]
['beep', 0.0, 736.5570350357336, 0.0, 0.0, 0.0, 0.0, 1284.7559195465947, 0.0]
['beep', 0.0, 731.8631687001191, 0.0, 0.0, 0.0, 0.0, 1284.2865329130332, 0.0]
['beep', 0.0, 735.5735582797001, 0.0, 0.0, 0.0, 0.0, 1282.0960619564132, 0.0]
['beep', 0.0, 740.803866482242, 0.0, 0.0, 0.0, 0.0, 1281.3808061338432, 0.0]
['beep', 0.0, 742.3908403385688, 0.0, 0.0, 0.0, 0.0, 1281.9843032341366, 0.0]
['beep', 0.0, 740.3791833375911, 0.0, 0.0, 0.0, 0.0, 1279.5032595995974, 0.0]
['beep', 0.0, 736.3558693356358, 0.0, 0.0, 0.0, 0.0, 1278.3409688879215, 0.0]
['beep', 0.0, 737.6299187695884, 0.0, 0.0, 0.0, 0.0, 1276.8657537538713, 0.0]
['beep', 0.0, 739.3286513481917, 0.0, 0.0, 0.0, 0.0, 1275.904628742293, 0.0]
['beep', 0.0, 740.6027007821442, 0.0, 0.0, 0.0, 0.0, 1273.9823787191367, 0.0]
['beep', 0.0, 736.8476077136527, 0.0, 0.0, 0.0, 0.0, 1272.5295153295417, 0.0]
['beep', 0.0, 734.4559710569348, 0.0, 0.0, 0.0, 0.0, 1270.6743205397513, 0.0]
['beep', 0.0, 737.0487734137504, 0.0, 0.0, 0.0, 0.0, 1270.3166926284664, 0.0]
['beep', 0.0, 740.1333141485827, 0.0, 0.0, 0.0, 0.0, 1268.0591664384804, 0.0]
['beep', 0.0, 739.5074653038341, 0.0, 0.0, 0.0, 0.0, 1266.0922129264134, 0.0]
['beep', 0.0, 736.221758868904, 0.0, 0.0, 0.0, 0.0, 1266.2486751376005, 0.0]
['beep', 0.0, 734.5006745458454, 0.0, 0.0, 0.0, 0.0, 1264.3934803478098, 0.0]
['beep', 0.0, 736.1770553799934, 0.0, 0.0, 0.0, 0.0, 1263.007672191581, 0.0]
['beep', 0.0, 739.5521687927447, 0.0, 0.0, 0.0, 0.0, 1262.0241954355474, 0.0]
['beep', 0.0, 740.7591629933314, 0.0, 0.0, 0.0, 0.0, 1260.5713320459524, 0.0]
['beep', 0.0, 740.1780176374933, 0.0, 0.0, 0.0, 0.0, 1256.9279976997373, 0.0]
['beep', 0.0, 738.4122298255242, 0.0, 0.0, 0.0, 0.0, 1257.0397564220139, 0.0]
['beep', 0.0, 738.9933751813621, 0.0, 0.0, 0.0, 0.0, 1256.7268319996397, 0.0]
['beep', 0.0, 741.966157193918, 0.0, 0.0, 0.0, 0.0, 1256.5927215329077, 0.0]
['beep', 0.0, 743.3743170946022, 0.0, 0.0, 0.0, 0.0, 1255.4751343101425, 0.0]
['beep', 0.0, 742.4578955719347, 0.0, 0.0, 0.0, 0.0, 1255.67630001024, 0.0]
['beep', 0.0, 739.5745205372001, 0.0, 0.0, 0.0, 0.0, 1253.552884286986, 0.0]
['beep', 0.0, 739.6862792594766, 0.0, 0.0, 0.0, 0.0, 1252.39059357531, 0.0]
['beep', 0.0, 742.0555641717392, 0.0, 0.0, 0.0, 0.0, 1252.457648808676, 0.0]
['beep', 0.0, 742.8825787165855, 0.0, 0.0, 0.0, 0.0, 1250.4012883187877, 0.0]
['beep', 0.0, 741.1167909046163, 0.0, 0.0, 0.0, 0.0, 1248.8590179513715, 0.0]
['beep', 0.0, 737.5852152806777, 0.0, 0.0, 0.0, 0.0, 1250.7365644856172, 0.0]
['beep', 0.0, 738.3898780810688, 0.0, 0.0, 0.0, 0.0, 1253.2399598646116, 0.0]
['beep', 0.0, 742.48024731639, 0.0, 0.0, 0.0, 0.0, 1254.4693058096536, 0.0]
['beep', 0.0, 742.6590612720324, 0.0, 0.0, 0.0, 0.0, 1254.3128435984665, 0.0]
['beep', 0.0, 741.6979362604543, 0.0, 0.0, 0.0, 0.0, 1257.3526808443883, 0.0]
['beep', 0.0, 739.8427414706638, 0.0, 0.0, 0.0, 0.0, 1263.521762314053, 0.0]
['beep', 0.0, 738.7475059923537, 0.0, 0.0, 0.0, 0.0, 1268.036814694025, 0.0]
['beep', 0.0, 739.7980379817532, 0.0, 0.0, 0.0, 0.0, 1273.065957196469, 0.0]
['beep', 0.0, 743.0390409277727, 0.0, 0.0, 0.0, 0.0, 1276.038739209025, 0.0]
['beep', 0.0, 739.2168926259152, 0.0, 0.0, 0.0, 0.0, 1278.8774107548488, 0.0]
['beep', 0.0, 736.3335175911806, 0.0, 0.0, 0.0, 0.0, 1284.6888643132288, 0.0]
['beep', 0.0, 738.2781193587923, 0.0, 0.0, 0.0, 0.0, 1289.8968207713153, 0.0]
['beep', 0.0, 741.2509013713482, 0.0, 0.0, 0.0, 0.0, 1294.7024458292062, 0.0]
['beep', 0.0, 737.9428431919627, 0.0, 0.0, 0.0, 0.0, 1294.5683353624745, 0.0]
['beep', 0.0, 733.6960117454544, 0.0, 0.0, 0.0, 0.0, 1296.9599720191923, 0.0]
['beep', 0.0, 731.9525756779403, 0.0, 0.0, 0.0, 0.0, 1298.2563731976002, 0.0]
['beep', 0.0, 733.6289565120884, 0.0, 0.0, 0.0, 0.0, 1297.384655163843, 0.0]
['beep', 0.0, 737.8534362141414, 0.0, 0.0, 0.0, 0.0, 1298.1446144753236, 0.0]
['beep', 0.0, 740.6250525265996, 0.0, 0.0, 0.0, 0.0, 1299.262201698089, 0.0]
['beep', 0.0, 735.9982414243509, 0.0, 0.0, 0.0, 0.0, 1296.0882539854354, 0.0]
['beep', 0.0, 729.4044768100354, 0.0, 0.0, 0.0, 0.0, 1294.5906871069299, 0.0]
['beep', 0.0, 731.7961134667532, 0.0, 0.0, 0.0, 0.0, 1294.1436522178237, 0.0]
['beep', 0.0, 738.3675263366135, 0.0, 0.0, 0.0, 0.0, 1291.4614428831867, 0.0]
['beep', 0.0, 742.0108606828286, 0.0, 0.0, 0.0, 0.0, 1288.2204399371672, 0.0]
['beep', 0.0, 743.061392672228, 0.0, 0.0, 0.0, 0.0, 1284.5100503575864, 0.0]
['beep', 0.0, 739.6862792594766, 0.0, 0.0, 0.0, 0.0, 1281.1125852003795, 0.0]
['beep', 0.0, 739.3062996037364, 0.0, 0.0, 0.0, 0.0, 1278.9221142437596, 0.0]
['beep', 0.0, 740.1780176374933, 0.0, 0.0, 0.0, 0.0, 1275.4128903642763, 0.0]
['beep', 0.0, 739.3957065815576, 0.0, 0.0, 0.0, 0.0, 1269.9814164616366, 0.0]
['beep', 0.0, 738.6804507589878, 0.0, 0.0, 0.0, 0.0, 1265.48871582612, 0.0]
['beep', 0.0, 733.3830873230801, 0.0, 0.0, 0.0, 0.0, 1261.0854221684244, 0.0]
['beep', 0.0, 732.6678315005103, 0.0, 0.0, 0.0, 0.0, 1257.196218633201, 0.0]
['beep', 0.0, 735.640613513066, 0.0, 0.0, 0.0, 0.0, 1252.256483108578, 0.0]
['beep', 0.0, 737.0264216692951, 0.0, 0.0, 0.0, 0.0, 1246.1768086167347, 0.0]
['beep', 0.0, 736.0876484021721, 0.0, 0.0, 0.0, 0.0, 1240.7676864585503, 0.0]
['beep', 0.0, 735.2159303684152, 0.0, 0.0, 0.0, 0.0, 1234.3080323109666, 0.0]
['beep', 0.0, 737.1158286471164, 0.0, 0.0, 0.0, 0.0, 1231.938747398704, 0.0]
['beep', 0.0, 738.9486716924515, 0.0, 0.0, 0.0, 0.0, 1229.0330206195142, 0.0]
['beep', 0.0, 739.2392443703704, 0.0, 0.0, 0.0, 0.0, 1223.9815263726148, 0.0]
['beep', 0.0, 738.5239885478006, 0.0, 0.0, 0.0, 0.0, 1217.8571483918606, 0.0]
['beep', 0.0, 736.1100001466275, 0.0, 0.0, 0.0, 0.0, 1213.2079855451568, 0.0]
['beep', 0.0, 735.5065030463342, 0.0, 0.0, 0.0, 0.0, 1209.0505610764696, 0.0]
['beep', 0.0, 739.0380786702727, 0.0, 0.0, 0.0, 0.0, 1203.1497005402687, 0.0]
['beep', 0.0, 738.7922094812643, 0.0, 0.0, 0.0, 0.0, 1198.4111307157434, 0.0]
['beep', 0.0, 737.8757879585968, 0.0, 0.0, 0.0, 0.0, 1194.7230928806177, 0.0]
['beep', 0.0, 736.3335175911806, 0.0, 0.0, 0.0, 0.0, 1190.9232963232157, 0.0]
['beep', 0.0, 737.3393460916694, 0.0, 0.0, 0.0, 0.0, 1186.162374754235, 0.0]
['beep', 0.0, 738.4569333144348, 0.0, 0.0, 0.0, 0.0, 1181.9825985410928, 0.0]
['beep', 0.0, 740.7144595044208, 0.0, 0.0, 0.0, 0.0, 1178.003988028048, 0.0]
['beep', 0.0, 739.6639275150213, 0.0, 0.0, 0.0, 0.0, 1175.5676478824196, 0.0]
['beep', 0.0, 737.093476902661, 0.0, 0.0, 0.0, 0.0, 1173.5336391369867, 0.0]
['beep', 0.0, 739.7533344928426, 0.0, 0.0, 0.0, 0.0, 1170.3820431687884, 0.0]
['beep', 0.0, 741.0497356712503, 0.0, 0.0, 0.0, 0.0, 1169.197400712657, 0.0]
['beep', 0.0, 742.3237851052029, 0.0, 0.0, 0.0, 0.0, 1166.6045983558415, 0.0]
['beep', 0.0, 741.6755845159989, 0.0, 0.0, 0.0, 0.0, 1163.8329820433835, 0.0]
['beep', 0.0, 740.6250525265996, 0.0, 0.0, 0.0, 0.0, 1160.1896476971683, 0.0]
['beep', 0.0, 739.7086310039319, 0.0, 0.0, 0.0, 0.0, 1158.13328720728, 0.0]
['beep', 0.0, 743.1731513945045, 0.0, 0.0, 0.0, 0.0, 1157.5074383625315, 0.0]
['beep', 0.0, 745.1401049065715, 0.0, 0.0, 0.0, 0.0, 1155.8087057839282, 0.0]
['beep', 0.0, 742.2120263829263, 0.0, 0.0, 0.0, 0.0, 1154.6017115833417, 0.0]
['beep', 0.0, 740.3121281042252, 0.0, 0.0, 0.0, 0.0, 1153.685290060674, 0.0]
['beep', 0.0, 740.9379769489739, 0.0, 0.0, 0.0, 0.0, 1151.6959848041517, 0.0]
['beep', 0.0, 743.7766484947978, 0.0, 0.0, 0.0, 0.0, 1151.204246426135, 0.0]
['beep', 0.0, 744.6260147840995, 0.0, 0.0, 0.0, 0.0, 1149.5055138475316, 0.0]
['beep', 0.0, 742.0332124272838, 0.0, 0.0, 0.0, 0.0, 1149.2149411696125, 0.0]
['beep', 0.0, 740.3791833375911, 0.0, 0.0, 0.0, 0.0, 1147.9408917356602, 0.0]
['beep', 0.0, 739.3062996037364, 0.0, 0.0, 0.0, 0.0, 1148.2538161580344, 0.0]
['beep', 0.0, 741.9885089383732, 0.0, 0.0, 0.0, 0.0, 1146.4433248571545, 0.0]
['beep', 0.0, 743.4860758168788, 0.0, 0.0, 0.0, 0.0, 1145.2810341454785, 0.0]
['beep', 0.0, 742.3684885941135, 0.0, 0.0, 0.0, 0.0, 1144.6104818118195, 0.0]
['beep', 0.0, 740.1333141485827, 0.0, 0.0, 0.0, 0.0, 1144.2081504116238, 0.0]
['beep', 0.0, 740.3344798486805, 0.0, 0.0, 0.0, 0.0, 1143.4705428445986, 0.0]
['beep', 0.0, 742.9272822054961, 0.0, 0.0, 0.0, 0.0, 1141.6153480548082, 0.0]
['beep', 0.0, 743.3966688390576, 0.0, 0.0, 0.0, 0.0, 1138.396696853244, 0.0]
['beep', 0.0, 741.1614943935269, 0.0, 0.0, 0.0, 0.0, 1140.4754090875876, 0.0]
['beep', 0.0, 738.7028025034431, 0.0, 0.0, 0.0, 0.0, 1140.6989265321406, 0.0]
['beep', 0.0, 738.47928505889, 0.0, 0.0, 0.0, 0.0, 1140.65422304323, 0.0]
['beep', 0.0, 740.6474042710548, 0.0, 0.0, 0.0, 0.0, 1140.363650365311, 0.0]
['beep', 0.0, 742.6367095275772, 0.0, 0.0, 0.0, 0.0, 1138.3072898754228, 0.0]
['beep', 0.0, 741.1614943935269, 0.0, 0.0, 0.0, 0.0, 1137.0555921859257, 0.0]
['beep', 0.0, 739.7980379817532, 0.0, 0.0, 0.0, 0.0, 1135.3121561184116, 0.0]
['beep', 0.0, 738.7922094812643, 0.0, 0.0, 0.0, 0.0, 1133.9486997066379, 0.0]
['beep', 0.0, 741.7426397493649, 0.0, 0.0, 0.0, 0.0, 1133.300499117434, 0.0]
['beep', 0.0, 744.6707182730102, 0.0, 0.0, 0.0, 0.0, 1131.1547316497245, 0.0]
['beep', 0.0, 742.8825787165855, 0.0, 0.0, 0.0, 0.0, 1130.9088624607161, 0.0]
['beep', 0.0, 739.9768519373956, 0.0, 0.0, 0.0, 0.0, 1129.143074648747, 0.0]
['beep', 0.0, 741.0720874157057, 0.0, 0.0, 0.0, 0.0, 1128.6736880151855, 0.0]
['beep', 0.0, 742.6814130164878, 0.0, 0.0, 0.0, 0.0, 1131.5347113054647, 0.0]
['beep', 0.0, 744.0448694282614, 0.0, 0.0, 0.0, 0.0, 1131.3558973498223, 0.0]
['beep', 0.0, 741.317956604714, 0.0, 0.0, 0.0, 0.0, 1128.2713566149898, 0.0]
['beep', 0.0, 738.7698577368091, 0.0, 0.0, 0.0, 0.0, 1126.4385135696548, 0.0]
['beep', 0.0, 739.351003092647, 0.0, 0.0, 0.0, 0.0, 1127.17612113668, 0.0]
['beep', 0.0, 741.7202880049095, 0.0, 0.0, 0.0, 0.0, 1126.3044031029228, 0.0]
['beep', 0.0, 742.6143577831218, 0.0, 0.0, 0.0, 0.0, 1126.6173275252972, 0.0]
['beep', 0.0, 740.0215554263062, 0.0, 0.0, 0.0, 0.0, 1121.945812934138, 0.0]
['beep', 0.0, 738.47928505889, 0.0, 0.0, 0.0, 0.0, 1123.689249001652, 0.0]
['beep', 0.0, 737.0264216692951, 0.0, 0.0, 0.0, 0.0, 1125.0974089023364, 0.0]
['beep', 0.0, 738.4569333144348, 0.0, 0.0, 0.0, 0.0, 1124.136283890758, 0.0]
['beep', 0.0, 739.7756862372978, 0.0, 0.0, 0.0, 0.0, 1122.594013523342, 0.0]
['beep', 0.0, 738.1887123809711, 0.0, 0.0, 0.0, 0.0, 1122.817530967895, 0.0]
['beep', 0.0, 735.7300204908872, 0.0, 0.0, 0.0, 0.0, 1122.2140338676018, 0.0]
['beep', 0.0, 736.1100001466275, 0.0, 0.0, 0.0, 0.0, 1121.007039667015, 0.0]
['beep', 0.0, 737.8757879585968, 0.0, 0.0, 0.0, 0.0, 1121.2752606004788, 0.0]
['beep', 0.0, 738.47928505889, 0.0, 0.0, 0.0, 0.0, 1121.9234611896827, 0.0]
['beep', 0.0, 737.0040699248398, 0.0, 0.0, 0.0, 0.0, 1120.0235629109816, 0.0]
['beep', 0.0, 734.6124332681219, 0.0, 0.0, 0.0, 0.0, 1118.1907198656463, 0.0]
['beep', 0.0, 734.4336193124794, 0.0, 0.0, 0.0, 0.0, 1116.8943186872386, 0.0]
['beep', 0.0, 736.0205931688063, 0.0, 0.0, 0.0, 0.0, 1117.9672024210934, 0.0]
['beep', 0.0, 738.2110641254263, 0.0, 0.0, 0.0, 0.0, 1117.0060774095152, 0.0]
['beep', 0.0, 736.7358489913761, 0.0, 0.0, 0.0, 0.0, 1116.3802285647666, 0.0]
['beep', 0.0, 732.7572384783315, 0.0, 0.0, 0.0, 0.0, 1117.4754640430765, 0.0]
['beep', 0.0, 731.8408169556639, 0.0, 0.0, 0.0, 0.0, 1114.9050134307163, 0.0]
['beep', 0.0, 734.9924129238622, 0.0, 0.0, 0.0, 0.0, 1113.0051151520152, 0.0]
['beep', 0.0, 736.5570350357336, 0.0, 0.0, 0.0, 0.0, 1113.2733360854788, 0.0]
['beep', 0.0, 734.5677297792113, 0.0, 0.0, 0.0, 0.0, 1113.6980192301296, 0.0]
['beep', 0.0, 731.9749274223957, 0.0, 0.0, 0.0, 0.0, 1113.0051151520152, 0.0]
['beep', 0.0, 731.7514099778426, 0.0, 0.0, 0.0, 0.0, 1111.5969552513309, 0.0]
['beep', 0.0, 734.5900815236666, 0.0, 0.0, 0.0, 0.0, 1111.1275686177694, 0.0]
['beep', 0.0, 734.5230262903007, 0.0, 0.0, 0.0, 0.0, 1106.7466267045293, 0.0]
['beep', 0.0, 734.3442123346582, 0.0, 0.0, 0.0, 0.0, 1104.1314726032583, 0.0]
['beep', 0.0, 733.6066047676331, 0.0, 0.0, 0.0, 0.0, 1110.6134784952974, 0.0]
['beep', 0.0, 732.1090378891275, 0.0, 0.0, 0.0, 0.0, 1111.8651761847946, 0.0]
['beep', 0.0, 734.5677297792113, 0.0, 0.0, 0.0, 0.0, 1109.7417604615403, 0.0]
['beep', 0.0, 735.5065030463342, 0.0, 0.0, 0.0, 0.0, 1108.6688767276855, 0.0]
['beep', 0.0, 733.4724943009013, 0.0, 0.0, 0.0, 0.0, 1104.2208795810795, 0.0]
['beep', 0.0, 731.8184652112085, 0.0, 0.0, 0.0, 0.0, 1102.2762778134677, 0.0]
['beep', 0.0, 732.3325553336806, 0.0, 0.0, 0.0, 0.0, 1104.2879348144454, 0.0]
['beep', 0.0, 735.7523722353426, 0.0, 0.0, 0.0, 0.0, 1104.4667487700879, 0.0]
['beep', 0.0, 736.6687937580102, 0.0, 0.0, 0.0, 0.0, 1102.7456644470292, 0.0]
['beep', 0.0, 734.321860590203, 0.0, 0.0, 0.0, 0.0, 1101.0692836128812, 0.0]
['beep', 0.0, 732.7125349894209, 0.0, 0.0, 0.0, 0.0, 1100.7340074460517, 0.0]
['beep', 0.0, 732.6901832449655, 0.0, 0.0, 0.0, 0.0, 1101.5833737353532, 0.0]
['beep', 0.0, 735.5288547907895, 0.0, 0.0, 0.0, 0.0, 1100.8904696572388, 0.0]
['beep', 0.0, 737.0040699248398, 0.0, 0.0, 0.0, 0.0, 1101.1139871017917, 0.0]
['beep', 0.0, 736.6240902690996, 0.0, 0.0, 0.0, 0.0, 1102.946830147127, 0.0]
['beep', 0.0, 735.9982414243509, 0.0, 0.0, 0.0, 0.0, 1102.9691818915824, 0.0]
['beep', 0.0, 731.8855204445745, 0.0, 0.0, 0.0, 0.0, 1100.5775452348644, 0.0]
['beep', 0.0, 730.320898332703, 0.0, 0.0, 0.0, 0.0, 1102.6786092136633, 0.0]
['beep', 0.0, 729.1809593654823, 0.0, 0.0, 0.0, 0.0, 1105.2490598260235, 0.0]
['beep', 0.0, 727.2587093423259, 0.0, 0.0, 0.0, 0.0, 1107.3277720603671, 0.0]
['beep', 0.0, 725.2023488524377, 0.0, 0.0, 0.0, 0.0, 1106.6795714711634, 0.0]
['beep', 0.0, 724.0177063963064, 0.0, 0.0, 0.0, 0.0, 1107.0371993824483, 0.0]
['beep', 0.0, 728.1080756316276, 0.0, 0.0, 0.0, 0.0, 1108.1547866052135, 0.0]
['beep', 0.0, 731.5055407888342, 0.0, 0.0, 0.0, 0.0, 1106.8136819378951, 0.0]
['beep', 0.0, 729.739752976865, 0.0, 0.0, 0.0, 0.0, 1102.9915336360377, 0.0]
['beep', 0.0, 725.8281976971863, 0.0, 0.0, 0.0, 0.0, 1101.0469318684259, 0.0]
['beep', 0.0, 724.9788314078846, 0.0, 0.0, 0.0, 0.0, 1103.3938650362331, 0.0]
['beep', 0.0, 726.610508753122, 0.0, 0.0, 0.0, 0.0, 1105.494929015032, 0.0]
['beep', 0.0, 728.6445174985549, 0.0, 0.0, 0.0, 0.0, 1103.6844377141522, 0.0]
['beep', 0.0, 727.9739651648957, 0.0, 0.0, 0.0, 0.0, 1102.008056880004, 0.0]
['beep', 0.0, 726.1858256084712, 0.0, 0.0, 0.0, 0.0, 1100.689303957141, 0.0]
['beep', 0.0, 727.0575436422281, 0.0, 0.0, 0.0, 0.0, 1099.7952341789287, 0.0]
['beep', 0.0, 730.1420843770605, 0.0, 0.0, 0.0, 0.0, 1099.3929027787333, 0.0]
['beep', 0.0, 731.1032093886387, 0.0, 0.0, 0.0, 0.0, 1097.3365422888448, 0.0]
['beep', 0.0, 728.9127384320186, 0.0, 0.0, 0.0, 0.0, 1098.364722533789, 0.0]
['beep', 0.0, 727.5269302757896, 0.0, 0.0, 0.0, 0.0, 1098.9011644007164, 0.0]
['beep', 0.0, 726.6775639864879, 0.0, 0.0, 0.0, 0.0, 1099.817585923384, 0.0]
['beep', 0.0, 731.1032093886387, 0.0, 0.0, 0.0, 0.0, 1097.6718184556746, 0.0]
['beep', 0.0, 730.1420843770605, 0.0, 0.0, 0.0, 0.0, 1097.0236178664707, 0.0]
['beep', 0.0, 727.0575436422281, 0.0, 0.0, 0.0, 0.0, 1097.425949266666, 0.0]
['beep', 0.0, 725.7834942082757, 0.0, 0.0, 0.0, 0.0, 1097.425949266666, 0.0]
['beep', 0.0, 726.252880841837, 0.0, 0.0, 0.0, 0.0, 1096.8448039108282, 0.0]
['beep', 0.0, 729.1139041321164, 0.0, 0.0, 0.0, 0.0, 1095.146071332225, 0.0]
['beep', 0.0, 730.8573401996304, 0.0, 0.0, 0.0, 0.0, 1092.6203242087752, 0.0]
['beep', 0.0, 728.5104070318231, 0.0, 0.0, 0.0, 0.0, 1093.2461730535238, 0.0]
['beep', 0.0, 725.6717354859991, 0.0, 0.0, 0.0, 0.0, 1094.6319812097527, 0.0]
['beep', 0.0, 726.6775639864879, 0.0, 0.0, 0.0, 0.0, 1095.2131265655908, 0.0]
['beep', 0.0, 728.3092413317253, 0.0, 0.0, 0.0, 0.0, 1095.0343126099483, 0.0]
['beep', 0.0, 731.416133811013, 0.0, 0.0, 0.0, 0.0, 1092.7991381644176, 0.0]
['beep', 0.0, 729.9632704214181, 0.0, 0.0, 0.0, 0.0, 1093.1344143312472, 0.0]
['beep', 0.0, 727.5269302757896, 0.0, 0.0, 0.0, 0.0, 1092.9332486311494, 0.0]
['beep', 0.0, 726.1858256084712, 0.0, 0.0, 0.0, 0.0, 1091.7709579194734, 0.0]
['beep', 0.0, 728.3092413317253, 0.0, 0.0, 0.0, 0.0, 1092.0838823418478, 0.0]
['beep', 0.0, 731.3937820665577, 0.0, 0.0, 0.0, 0.0, 1090.6086672077975, 0.0]
['beep', 0.0, 728.4210000540019, 0.0, 0.0, 0.0, 0.0, 1092.2179928085795, 0.0]
['beep', 0.0, 725.9846599083734, 0.0, 0.0, 0.0, 0.0, 1091.726254430563, 0.0]
['beep', 0.0, 726.4540465419349, 0.0, 0.0, 0.0, 0.0, 1092.0838823418478, 0.0]
['beep', 0.0, 729.8068082102309, 0.0, 0.0, 0.0, 0.0, 1091.234516052546, 0.0]
['beep', 0.0, 730.4326570549795, 0.0, 0.0, 0.0, 0.0, 1091.9721236195712, 0.0]
['beep', 0.0, 730.0750291436946, 0.0, 0.0, 0.0, 0.0, 1092.240344553035, 0.0]
['beep', 0.0, 728.1304273760828, 0.0, 0.0, 0.0, 0.0, 1090.9662951190824, 0.0]
['beep', 0.0, 727.3928198090578, 0.0, 0.0, 0.0, 0.0, 1090.5192602299762, 0.0]
['beep', 0.0, 730.5220640328007, 0.0, 0.0, 0.0, 0.0, 1091.659199197197, 0.0]
['beep', 0.0, 732.28785184477, 0.0, 0.0, 0.0, 0.0, 1090.4745567410657, 0.0]
['beep', 0.0, 730.2761948437924, 0.0, 0.0, 0.0, 0.0, 1087.9264578731606, 0.0]
['beep', 0.0, 727.5269302757896, 0.0, 0.0, 0.0, 0.0, 1085.0654345828814, 0.0]
['beep', 0.0, 726.7893227087644, 0.0, 0.0, 0.0, 0.0, 1088.172327062169, 0.0]
['beep', 0.0, 728.1974826094488, 0.0, 0.0, 0.0, 0.0, 1089.044045095926, 0.0]
['beep', 0.0, 730.3432500771582, 0.0, 0.0, 0.0, 0.0, 1089.625190451764, 0.0]
['beep', 0.0, 729.6950494879544, 0.0, 0.0, 0.0, 0.0, 1089.1334520737473, 0.0]
['beep', 0.0, 727.3928198090578, 0.0, 0.0, 0.0, 0.0, 1089.111100329292, 0.0]
['beep', 0.0, 726.4093430530243, 0.0, 0.0, 0.0, 0.0, 1089.4240247516661, 0.0]
['beep', 0.0, 730.4326570549795, 0.0, 0.0, 0.0, 0.0, 1088.97698986256, 0.0]
['beep', 0.0, 732.9137006895186, 0.0, 0.0, 0.0, 0.0, 1087.6805886841523, 0.0]
['beep', 0.0, 731.2820233442811, 0.0, 0.0, 0.0, 0.0, 1086.9206293726718, 0.0]
['beep', 0.0, 728.3315930761806, 0.0, 0.0, 0.0, 0.0, 1087.814699150884, 0.0]
['beep', 0.0, 729.9409186769627, 0.0, 0.0, 0.0, 0.0, 1088.9546381181049, 0.0]
['beep', 0.0, 734.0983431456499, 0.0, 0.0, 0.0, 0.0, 1087.6805886841523, 0.0]
['beep', 0.0, 734.9924129238622, 0.0, 0.0, 0.0, 0.0, 1087.1888503061355, 0.0]
['beep', 0.0, 734.7688954793091, 0.0, 0.0, 0.0, 0.0, 1086.6077049502976, 0.0]
['beep', 0.0, 733.4948460453566, 0.0, 0.0, 0.0, 0.0, 1086.0265595944595, 0.0]
['beep', 0.0, 733.1148663896164, 0.0, 0.0, 0.0, 0.0, 1086.2724287834678, 0.0]
['beep', 0.0, 735.0818199016834, 0.0, 0.0, 0.0, 0.0, 1086.9429811171271, 0.0]
['beep', 0.0, 736.1770553799934, 0.0, 0.0, 0.0, 0.0, 1084.4619374825882, 0.0]
['beep', 0.0, 734.6124332681219, 0.0, 0.0, 0.0, 0.0, 1084.7748619049623, 0.0]
['beep', 0.0, 732.1313896335828, 0.0, 0.0, 0.0, 0.0, 1085.2666002829792, 0.0]
['beep', 0.0, 732.1984448669488, 0.0, 0.0, 0.0, 0.0, 1084.5736962048645, 0.0]
['beep', 0.0, 736.0876484021721, 0.0, 0.0, 0.0, 0.0, 1084.238420038035, 0.0]
['beep', 0.0, 739.4627618149235, 0.0, 0.0, 0.0, 0.0, 1082.78555664844, 0.0]
['beep', 0.0, 738.9263199479961, 0.0, 0.0, 0.0, 0.0, 1082.2044112926021, 0.0]
['beep', 0.0, 736.0652966577169, 0.0, 0.0, 0.0, 0.0, 1083.9254956156608, 0.0]
['beep', 0.0, 737.3393460916694, 0.0, 0.0, 0.0, 0.0, 1085.3560072608004, 0.0]
['beep', 0.0, 739.1498373925492, 0.0, 0.0, 0.0, 0.0, 1087.010036350493, 0.0]
['beep', 0.0, 739.127485648094, 0.0, 0.0, 0.0, 0.0, 1086.7641671614847, 0.0]
['beep', 0.0, 734.7688954793091, 0.0, 0.0, 0.0, 0.0, 1085.69128342763, 0.0]
['beep', 0.0, 732.1537413780381, 0.0, 0.0, 0.0, 0.0, 1086.4288909946551, 0.0]
['beep', 0.0, 732.0866861446722, 0.0, 0.0, 0.0, 0.0, 1085.7583386609958, 0.0]
['beep', 0.0, 734.1653983790158, 0.0, 0.0, 0.0, 0.0, 1084.685454927141, 0.0]
['beep', 0.0, 735.1041716461386, 0.0, 0.0, 0.0, 0.0, 1085.1101380717919, 0.0]
['beep', 0.0, 734.9477094349515, 0.0, 0.0, 0.0, 0.0, 1084.0819578268479, 0.0]
['beep', 0.0, 732.1090378891275, 0.0, 0.0, 0.0, 0.0, 1083.590219448831, 0.0]
['beep', 0.0, 731.2149681109153, 0.0, 0.0, 0.0, 0.0, 1084.685454927141, 0.0]
['beep', 0.0, 732.4890175448678, 0.0, 0.0, 0.0, 0.0, 1086.1159665722807, 0.0]
['beep', 0.0, 735.1712268795046, 0.0, 0.0, 0.0, 0.0, 1085.8924491277278, 0.0]
['beep', 0.0, 734.6571367570325, 0.0, 0.0, 0.0, 0.0, 1085.1548415607026, 0.0]
['beep', 0.0, 731.1926163664599, 0.0, 0.0, 0.0, 0.0, 1084.2831235269457, 0.0]
['beep', 0.0, 731.706706488932, 0.0, 0.0, 0.0, 0.0, 1084.3501787603116, 0.0]
['beep', 0.0, 733.2042733674376, 0.0, 0.0, 0.0, 0.0, 1085.0207310939707, 0.0]
['beep', 0.0, 732.5337210337784, 0.0, 0.0, 0.0, 0.0, 1084.9313241161494, 0.0]
['beep', 0.0, 732.1090378891275, 0.0, 0.0, 0.0, 0.0, 1086.3171322723786, 0.0]
['beep', 0.0, 729.7174012324097, 0.0, 0.0, 0.0, 0.0, 1085.3783590052556, 0.0]
['beep', 0.0, 730.1420843770605, 0.0, 0.0, 0.0, 0.0, 1085.3560072608004, 0.0]
['beep', 0.0, 732.5337210337784, 0.0, 0.0, 0.0, 0.0, 1084.5066409714987, 0.0]
['beep', 0.0, 733.9418809344627, 0.0, 0.0, 0.0, 0.0, 1084.1266613157584, 0.0]
['beep', 0.0, 732.3772588225912, 0.0, 0.0, 0.0, 0.0, 1086.6077049502976, 0.0]
['beep', 0.0, 730.3656018216136, 0.0, 0.0, 0.0, 0.0, 1087.9711613620714, 0.0]
['beep', 0.0, 730.0973808881499, 0.0, 0.0, 0.0, 0.0, 1088.8652311402836, 0.0]
['beep', 0.0, 732.2431483558594, 0.0, 0.0, 0.0, 0.0, 1088.7311206735517, 0.0]
['beep', 0.0, 733.9195291900074, 0.0, 0.0, 0.0, 0.0, 1087.2335537950462, 0.0]
['beep', 0.0, 732.3102035892252, 0.0, 0.0, 0.0, 0.0, 1087.010036350493, 0.0]
['beep', 0.0, 730.9690989219068, 0.0, 0.0, 0.0, 0.0, 1089.0887485848366, 0.0]
['beep', 0.0, 730.5220640328007, 0.0, 0.0, 0.0, 0.0, 1089.5357834739427, 0.0]
['beep', 0.0, 732.2655001003146, 0.0, 0.0, 0.0, 0.0, 1089.4463764961215, 0.0]
['beep', 0.0, 733.740715234365, 0.0, 0.0, 0.0, 0.0, 1090.563963718887, 0.0]
['beep', 0.0, 733.2266251118929, 0.0, 0.0, 0.0, 0.0, 1091.9050683862054, 0.0]
['beep', 0.0, 731.0361541552728, 0.0, 0.0, 0.0, 0.0, 1092.530917230954, 0.0]
['beep', 0.0, 729.672697743499, 0.0, 0.0, 0.0, 0.0, 1092.5532689754093, 0.0]
['beep', 0.0, 730.8126367107197, 0.0, 0.0, 0.0, 0.0, 1093.6485044537192, 0.0]
['beep', 0.0, 731.416133811013, 0.0, 0.0, 0.0, 0.0, 1094.8331469098505, 0.0]
['beep', 0.0, 731.7737617222979, 0.0, 0.0, 0.0, 0.0, 1093.7602631759958, 0.0]
['beep', 0.0, 730.7679332218091, 0.0, 0.0, 0.0, 0.0, 1094.2743532984678, 0.0]
['beep', 0.0, 729.9856221658733, 0.0, 0.0, 0.0, 0.0, 1095.5484027324203, 0.0]
['beep', 0.0, 732.5560727782337, 0.0, 0.0, 0.0, 0.0, 1096.0848445993477, 0.0]
['beep', 0.0, 734.5230262903007, 0.0, 0.0, 0.0, 0.0, 1096.8895073997387, 0.0]
['beep', 0.0, 732.9807559228846, 0.0, 0.0, 0.0, 0.0, 1095.8389754103393, 0.0]
['beep', 0.0, 730.9690989219068, 0.0, 0.0, 0.0, 0.0, 1097.0906730998365, 0.0]
['beep', 0.0, 730.5220640328007, 0.0, 0.0, 0.0, 0.0, 1098.8341091673506, 0.0]
['beep', 0.0, 732.4443140559572, 0.0, 0.0, 0.0, 0.0, 1099.1023301008142, 0.0]
['beep', 0.0, 734.1653983790158, 0.0, 0.0, 0.0, 0.0, 1100.9128214016941, 0.0]
['beep', 0.0, 732.6678315005103, 0.0, 0.0, 0.0, 0.0, 1101.0245801239705, 0.0]
['beep', 0.0, 729.9632704214181, 0.0, 0.0, 0.0, 0.0, 1100.97987663506, 0.0]
['beep', 0.0, 728.4433517984572, 0.0, 0.0, 0.0, 0.0, 1101.7621876909957, 0.0]
['beep', 0.0, 730.5220640328007, 0.0, 0.0, 0.0, 0.0, 1103.080940613859, 0.0]
['beep', 0.0, 732.8913489450633, 0.0, 0.0, 0.0, 0.0, 1102.3209813023784, 0.0]
['beep', 0.0, 731.9302239334851, 0.0, 0.0, 0.0, 0.0, 1102.9021266582165, 0.0]
['beep', 0.0, 731.1702646220047, 0.0, 0.0, 0.0, 0.0, 1102.946830147127, 0.0]
['beep', 0.0, 731.5278925332896, 0.0, 0.0, 0.0, 0.0, 1103.6844377141522, 0.0]
['beep', 0.0, 733.2936803452588, 0.0, 0.0, 0.0, 0.0, 1105.427873781666, 0.0]
['beep', 0.0, 735.5959100241554, 0.0, 0.0, 0.0, 0.0, 1106.1654813486912, 0.0]
['beep', 0.0, 734.2995088457476, 0.0, 0.0, 0.0, 0.0, 1106.6125162377973, 0.0]
['beep', 0.0, 732.3102035892252, 0.0, 0.0, 0.0, 0.0, 1106.9030889157164, 0.0]
['beep', 0.0, 731.416133811013, 0.0, 0.0, 0.0, 0.0, 1106.8583854268059, 0.0]
['beep', 0.0, 732.8019419672421, 0.0, 0.0, 0.0, 0.0, 1107.3501238048225, 0.0]
['beep', 0.0, 734.321860590203, 0.0, 0.0, 0.0, 0.0, 1107.4842342715544, 0.0]
['beep', 0.0, 732.3772588225912, 0.0, 0.0, 0.0, 0.0, 1106.880737171261, 0.0]
['beep', 0.0, 729.8515116991415, 0.0, 0.0, 0.0, 0.0, 1107.8418621828393, 0.0]
['beep', 0.0, 728.9797936653846, 0.0, 0.0, 0.0, 0.0, 1109.0041528945153, 0.0]
['beep', 0.0, 730.6338227550773, 0.0, 0.0, 0.0, 0.0, 1111.1275686177694, 0.0]
['beep', 0.0, 732.4443140559572, 0.0, 0.0, 0.0, 0.0, 1113.429798296666, 0.0]
['beep', 0.0, 731.2149681109153, 0.0, 0.0, 0.0, 0.0, 1112.6027837518197, 0.0]
['beep', 0.0, 728.3986483095465, 0.0, 0.0, 0.0, 0.0, 1112.9604116631047, 0.0]
['beep', 0.0, 728.5774622651891, 0.0, 0.0, 0.0, 0.0, 1113.206280852113, 0.0]
['beep', 0.0, 729.9185669325075, 0.0, 0.0, 0.0, 0.0, 1113.4074465522108, 0.0]
['beep', 0.0, 730.8796919440856, 0.0, 0.0, 0.0, 0.0, 1115.329696575367, 0.0]
['beep', 0.0, 729.3597733211247, 0.0, 0.0, 0.0, 0.0, 1114.9050134307163, 0.0]
['beep', 0.0, 726.3646395641136, 0.0, 0.0, 0.0, 0.0, 1112.9604116631047, 0.0]
['beep', 0.0, 725.7834942082757, 0.0, 0.0, 0.0, 0.0, 1114.1897576081465, 0.0]
['beep', 0.0, 727.1469506200493, 0.0, 0.0, 0.0, 0.0, 1114.9720686640821, 0.0]
['beep', 0.0, 728.935090176474, 0.0, 0.0, 0.0, 0.0, 1114.2121093526018, 0.0]
['beep', 0.0, 729.3150698322141, 0.0, 0.0, 0.0, 0.0, 1114.8603099418058, 0.0]
['beep', 0.0, 727.7504477203427, 0.0, 0.0, 0.0, 0.0, 1115.8437866978393, 0.0]
['beep', 0.0, 726.7446192198538, 0.0, 0.0, 0.0, 0.0, 1115.7767314644732, 0.0]
['beep', 0.0, 730.320898332703, 0.0, 0.0, 0.0, 0.0, 1115.5755657643756, 0.0]
['beep', 0.0, 732.4443140559572, 0.0, 0.0, 0.0, 0.0, 1115.4414552976436, 0.0]
['beep', 0.0, 731.3267268331917, 0.0, 0.0, 0.0, 0.0, 1115.17323436418, 0.0]
['beep', 0.0, 728.9127384320186, 0.0, 0.0, 0.0, 0.0, 1115.17323436418, 0.0]
['beep', 0.0, 727.415171553513, 0.0, 0.0, 0.0, 0.0, 1116.6484494982303, 0.0]
['beep', 0.0, 731.5502442777448, 0.0, 0.0, 0.0, 0.0, 1115.4191035531883, 0.0]
['beep', 0.0, 733.5619012787225, 0.0, 0.0, 0.0, 0.0, 1116.6484494982303, 0.0]
['beep', 0.0, 731.639651255566, 0.0, 0.0, 0.0, 0.0, 1118.2130716101017, 0.0]
['beep', 0.0, 729.3374215766695, 0.0, 0.0, 0.0, 0.0, 1118.593051265842, 0.0]
['beep', 0.0, 728.1974826094488, 0.0, 0.0, 0.0, 0.0, 1116.782559964962, 0.0]
['beep', 0.0, 729.6950494879544, 0.0, 0.0, 0.0, 0.0, 1117.9001471877275, 0.0]
['beep', 0.0, 730.2091396104264, 0.0, 0.0, 0.0, 0.0, 1116.9613739206045, 0.0]
['beep', 0.0, 729.3597733211247, 0.0, 0.0, 0.0, 0.0, 1118.1683681211912, 0.0]
['beep', 0.0, 727.6163372536108, 0.0, 0.0, 0.0, 0.0, 1119.2189001105905, 0.0]
['beep', 0.0, 726.1187703751052, 0.0, 0.0, 0.0, 0.0, 1118.5036442880207, 0.0]
['beep', 0.0, 729.0915523876611, 0.0, 0.0, 0.0, 0.0, 1118.5706995213866, 0.0]
['beep', 0.0, 732.1537413780381, 0.0, 0.0, 0.0, 0.0, 1119.4424175551437, 0.0]
['beep', 0.0, 730.030325654784, 0.0, 0.0, 0.0, 0.0, 1119.8000454664286, 0.0]
['beep', 0.0, 727.0128401533175, 0.0, 0.0, 0.0, 0.0, 1118.9506791771269, 0.0]
['beep', 0.0, 727.415171553513, 0.0, 0.0, 0.0, 0.0, 1119.4647692995989, 0.0]
['beep', 0.0, 729.4938837878566, 0.0, 0.0, 0.0, 0.0, 1120.0906181443474, 0.0]
['beep', 0.0, 731.3937820665577, 0.0, 0.0, 0.0, 0.0, 1119.1965483661352, 0.0]
['beep', 0.0, 729.4715320434013, 0.0, 0.0, 0.0, 0.0, 1118.1236646322805, 0.0]
['beep', 0.0, 726.834026197675, 0.0, 0.0, 0.0, 0.0, 1117.788388465451, 0.0]
['beep', 0.0, 727.4375232979684, 0.0, 0.0, 0.0, 0.0, 1118.1683681211912, 0.0]
['beep', 0.0, 727.5045785313342, 0.0, 0.0, 0.0, 0.0, 1118.883623943761, 0.0]
['beep', 0.0, 728.4210000540019, 0.0, 0.0, 0.0, 0.0, 1118.6154030102973, 0.0]
['beep', 0.0, 728.28688958727, 0.0, 0.0, 0.0, 0.0, 1117.1625396207023, 0.0]
['beep', 0.0, 725.4035145525354, 0.0, 0.0, 0.0, 0.0, 1116.7155047315962, 0.0]
['beep', 0.0, 726.2081773529264, 0.0, 0.0, 0.0, 0.0, 1118.6377547547527, 0.0]
['beep', 0.0, 729.8962151880521, 0.0, 0.0, 0.0, 0.0, 1119.040086154948, 0.0]
['beep', 0.0, 731.5725960222002, 0.0, 0.0, 0.0, 0.0, 1118.9283274326715, 0.0]
['beep', 0.0, 729.449180298946, 0.0, 0.0, 0.0, 0.0, 1118.7718652214844, 0.0]
['beep', 0.0, 727.6163372536108, 0.0, 0.0, 0.0, 0.0, 1118.883623943761, 0.0]
['beep', 0.0, 727.7504477203427, 0.0, 0.0, 0.0, 0.0, 1119.5094727885096, 0.0]
['beep', 0.0, 730.6338227550773, 0.0, 0.0, 0.0, 0.0, 1118.9506791771269, 0.0]
['beep', 0.0, 731.6172995111108, 0.0, 0.0, 0.0, 0.0, 1117.8330919543614, 0.0]
['beep', 0.0, 728.2645378428147, 0.0, 0.0, 0.0, 0.0, 1118.883623943761, 0.0]
['beep', 0.0, 726.2975843307477, 0.0, 0.0, 0.0, 0.0, 1120.2470803555348, 0.0]
['beep', 0.0, 726.4540465419349, 0.0, 0.0, 0.0, 0.0, 1120.2247286110794, 0.0]
['beep', 0.0, 728.7562762208315, 0.0, 0.0, 0.0, 0.0, 1120.7388187335514, 0.0]
['beep', 0.0, 729.3821250655801, 0.0, 0.0, 0.0, 0.0, 1122.4822548010654, 0.0]
['beep', 0.0, 728.219834353904, 0.0, 0.0, 0.0, 0.0, 1121.5434815339424, 0.0]
['beep', 0.0, 725.224700596893, 0.0, 0.0, 0.0, 0.0, 1121.0517431559258, 0.0]
['beep', 0.0, 725.6940872304544, 0.0, 0.0, 0.0, 0.0, 1123.5998420238307, 0.0]
['beep', 0.0, 727.3034128312365, 0.0, 0.0, 0.0, 0.0, 1123.912766446205, 0.0]
['beep', 0.0, 729.3597733211247, 0.0, 0.0, 0.0, 0.0, 1122.8398827123503, 0.0]
['beep', 0.0, 727.7727994647979, 0.0, 0.0, 0.0, 0.0, 1122.1916821231464, 0.0]
['beep', 0.0, 726.2081773529264, 0.0, 0.0, 0.0, 0.0, 1122.2810891009676, 0.0]
['beep', 0.0, 726.0517151417394, 0.0, 0.0, 0.0, 0.0, 1122.0799234008698, 0.0]
['beep', 0.0, 726.7222674753986, 0.0, 0.0, 0.0, 0.0, 1122.012868167504, 0.0]
['beep', 0.0, 727.1693023645047, 0.0, 0.0, 0.0, 0.0, 1120.8952809447385, 0.0]
['beep', 0.0, 726.5881570086667, 0.0, 0.0, 0.0, 0.0, 1120.8058739669173, 0.0]
['beep', 0.0, 723.5483197627449, 0.0, 0.0, 0.0, 0.0, 1120.4705978000877, 0.0]
['beep', 0.0, 723.8165406962086, 0.0, 0.0, 0.0, 0.0, 1120.6270600112748, 0.0]
['beep', 0.0, 727.1245988755941, 0.0, 0.0, 0.0, 0.0, 1121.9011094452273, 0.0]
['beep', 0.0, 729.4715320434013, 0.0, 0.0, 0.0, 0.0, 1120.1800251221687, 0.0]
['beep', 0.0, 728.2421860983594, 0.0, 0.0, 0.0, 0.0, 1120.7611704780068, 0.0]
['beep', 0.0, 724.4200377965019, 0.0, 0.0, 0.0, 0.0, 1121.074094900381, 0.0]
['beep', 0.0, 723.5259680182896, 0.0, 0.0, 0.0, 0.0, 1119.978859422071, 0.0]
['beep', 0.0, 724.8447209411528, 0.0, 0.0, 0.0, 0.0, 1119.9565076776157, 0.0]
['beep', 0.0, 727.8175029537085, 0.0, 0.0, 0.0, 0.0, 1119.688286744152, 0.0]
['beep', 0.0, 727.2810610867812, 0.0, 0.0, 0.0, 0.0, 1119.4647692995989, 0.0]
['beep', 0.0, 724.8447209411528, 0.0, 0.0, 0.0, 0.0, 1118.9730309215822, 0.0]
['beep', 0.0, 724.643555241055, 0.0, 0.0, 0.0, 0.0, 1117.4978157875319, 0.0]
['beep', 0.0, 725.515273274812, 0.0, 0.0, 0.0, 0.0, 1118.1236646322805, 0.0]
['beep', 0.0, 725.3811628080801, 0.0, 0.0, 0.0, 0.0, 1118.1236646322805, 0.0]
['beep', 0.0, 725.5599767637226, 0.0, 0.0, 0.0, 0.0, 1118.3248303323783, 0.0]
['beep', 0.0, 726.2975843307477, 0.0, 0.0, 0.0, 0.0, 1117.6095745098085, 0.0]
['beep', 0.0, 725.6046802526332, 0.0, 0.0, 0.0, 0.0, 1118.9059756882164, 0.0]
['beep', 0.0, 725.9176046750075, 0.0, 0.0, 0.0, 0.0, 1120.9623361781046, 0.0]
['beep', 0.0, 729.0915523876611, 0.0, 0.0, 0.0, 0.0, 1120.5153012889984, 0.0]
['beep', 0.0, 729.9632704214181, 0.0, 0.0, 0.0, 0.0, 1119.9565076776157, 0.0]
['beep', 0.0, 727.5492820202448, 0.0, 0.0, 0.0, 0.0, 1121.9011094452273, 0.0]
['beep', 0.0, 725.5376250192672, 0.0, 0.0, 0.0, 0.0, 1121.074094900381, 0.0]
['beep', 0.0, 727.8622064426191, 0.0, 0.0, 0.0, 0.0, 1119.8894524442499, 0.0]
['beep', 0.0, 729.8962151880521, 0.0, 0.0, 0.0, 0.0, 1120.8058739669173, 0.0]
['beep', 0.0, 729.5832907656778, 0.0, 0.0, 0.0, 0.0, 1120.8952809447385, 0.0]
['beep', 0.0, 726.610508753122, 0.0, 0.0, 0.0, 0.0, 1119.0624378994034, 0.0]
['beep', 0.0, 725.8952529305521, 0.0, 0.0, 0.0, 0.0, 1119.7776937219733, 0.0]
['beep', 0.0, 727.5045785313342, 0.0, 0.0, 0.0, 0.0, 1120.2917838444453, 0.0]
['beep', 0.0, 728.4880552873678, 0.0, 0.0, 0.0, 0.0, 1117.654277998719, 0.0]
['beep', 0.0, 727.7280959758873, 0.0, 0.0, 0.0, 0.0, 1117.3413535763448, 0.0]
['beep', 0.0, 726.3646395641136, 0.0, 0.0, 0.0, 0.0, 1117.4084088097106, 0.0]
['beep', 0.0, 726.5434535197561, 0.0, 0.0, 0.0, 0.0, 1118.1907198656463, 0.0]
['beep', 0.0, 729.7621047213203, 0.0, 0.0, 0.0, 0.0, 1119.0177344104927, 0.0]
['beep', 0.0, 731.2149681109153, 0.0, 0.0, 0.0, 0.0, 1118.45894079911, 0.0]
['beep', 0.0, 730.1644361215158, 0.0, 0.0, 0.0, 0.0, 1118.1236646322805, 0.0]
['beep', 0.0, 727.5492820202448, 0.0, 0.0, 0.0, 0.0, 1119.7329902330625, 0.0]
['beep', 0.0, 728.5327587762785, 0.0, 0.0, 0.0, 0.0, 1119.7329902330625, 0.0]
['beep', 0.0, 728.9797936653846, 0.0, 0.0, 0.0, 0.0, 1119.4200658106884, 0.0]
['beep', 0.0, 729.4268285544907, 0.0, 0.0, 0.0, 0.0, 1119.17419662168, 0.0]
['beep', 0.0, 727.2363575978706, 0.0, 0.0, 0.0, 0.0, 1117.5648710208977, 0.0]
['beep', 0.0, 723.9730029073958, 0.0, 0.0, 0.0, 0.0, 1118.727161732574, 0.0]
['beep', 0.0, 728.1304273760828, 0.0, 0.0, 0.0, 0.0, 1120.560004777909, 0.0]
['beep', 0.0, 733.7630669788202, 0.0, 0.0, 0.0, 0.0, 1120.0235629109816, 0.0]
['beep', 0.0, 736.6687937580102, 0.0, 0.0, 0.0, 0.0, 1116.7378564760515, 0.0]
['beep', 0.0, 733.1148663896164, 0.0, 0.0, 0.0, 0.0, 1115.821434953384, 0.0]
['beep', 0.0, 728.3315930761806, 0.0, 0.0, 0.0, 0.0, 1115.3744000642778, 0.0]
['beep', 0.0, 729.0468488987505, 0.0, 0.0, 0.0, 0.0, 1116.0449523979369, 0.0]
['beep', 0.0, 737.3393460916694, 0.0, 0.0, 0.0, 0.0, 1189.9621713116373, 0.0]
['beep', 0.0, 733.3160320897141, 0.0, 0.0, 0.0, 0.0, 1187.61523814383, 0.0]
['beep', 0.0, 734.4559710569348, 0.0, 0.0, 0.0, 0.0, 1184.7765665980062, 0.0]
['beep', 0.0, 732.5560727782337, 0.0, 0.0, 0.0, 0.0, 1181.3567496963442, 0.0]
['beep', 0.0, 734.1430466345605, 0.0, 0.0, 0.0, 0.0, 1176.3499589383555, 0.0]
['beep', 0.0, 735.1488751350493, 0.0, 0.0, 0.0, 0.0, 1173.8018600704504, 0.0]
['beep', 0.0, 733.964232678918, 0.0, 0.0, 0.0, 0.0, 1168.6162553568192, 0.0]
['beep', 0.0, 734.9253576904962, 0.0, 0.0, 0.0, 0.0, 1162.7600983095288, 0.0]
['beep', 0.0, 735.3276890906917, 0.0, 0.0, 0.0, 0.0, 1160.5696273529086, 0.0]
['beep', 0.0, 739.4180583260129, 0.0, 0.0, 0.0, 0.0, 1161.262531431023, 0.0]
['beep', 0.0, 737.4734565584013, 0.0, 0.0, 0.0, 0.0, 1159.8990750192495, 0.0]
['beep', 0.0, 732.5560727782337, 0.0, 0.0, 0.0, 0.0, 1158.2897494184672, 0.0]
['beep', 0.0, 730.8573401996304, 0.0, 0.0, 0.0, 0.0, 1157.105106962336, 0.0]
['beep', 0.0, 736.9370146914739, 0.0, 0.0, 0.0, 0.0, 1152.2100749266237, 0.0]
['beep', 0.0, 740.1556658930381, 0.0, 0.0, 0.0, 0.0, 1149.0584789584254, 0.0]
['beep', 0.0, 740.0215554263062, 0.0, 0.0, 0.0, 0.0, 1149.5055138475316, 0.0]
['beep', 0.0, 735.4170960685129, 0.0, 0.0, 0.0, 0.0, 1150.1313626922802, 0.0]
['beep', 0.0, 731.5502442777448, 0.0, 0.0, 0.0, 0.0, 1148.9914237250596, 0.0]
['beep', 0.0, 736.9146629470185, 0.0, 0.0, 0.0, 0.0, 1145.8398277568613, 0.0]
['beep', 0.0, 738.7698577368091, 0.0, 0.0, 0.0, 0.0, 1142.978804466582, 0.0]
['beep', 0.0, 737.2499391138482, 0.0, 0.0, 0.0, 0.0, 1139.916615476205, 0.0]
['beep', 0.0, 734.7688954793091, 0.0, 0.0, 0.0, 0.0, 1140.8553887433277, 0.0]
['beep', 0.0, 734.1877501234711, 0.0, 0.0, 0.0, 0.0, 1140.0060224540262, 0.0]
['beep', 0.0, 732.28785184477, 0.0, 0.0, 0.0, 0.0, 1137.949661964138, 0.0]
['beep', 0.0, 735.059468157228, 0.0, 0.0, 0.0, 0.0, 1137.815551497406, 0.0]
['beep', 0.0, 733.2266251118929, 0.0, 0.0, 0.0, 0.0, 1136.3403363633558, 0.0]
['beep', 0.0, 734.0536396567393, 0.0, 0.0, 0.0, 0.0, 1133.7698857509954, 0.0]
['beep', 0.0, 734.835950712675, 0.0, 0.0, 0.0, 0.0, 1134.0157549400037, 0.0]
['beep', 0.0, 731.8184652112085, 0.0, 0.0, 0.0, 0.0, 1134.9992316960374, 0.0]
['beep', 0.0, 734.2101018679264, 0.0, 0.0, 0.0, 0.0, 1134.6416037847525, 0.0]
['beep', 0.0, 734.47832280139, 0.0, 0.0, 0.0, 0.0, 1131.6688217721967, 0.0]
['beep', 0.0, 732.1984448669488, 0.0, 0.0, 0.0, 0.0, 1129.1207229042916, 0.0]
['beep', 0.0, 730.2985465882476, 0.0, 0.0, 0.0, 0.0, 1130.752400249529, 0.0]
['beep', 0.0, 730.902043688541, 0.0, 0.0, 0.0, 0.0, 1132.8087607394173, 0.0]
['beep', 0.0, 732.4890175448678, 0.0, 0.0, 0.0, 0.0, 1127.7125630036073, 0.0]
['beep', 0.0, 733.6066047676331, 0.0, 0.0, 0.0, 0.0, 1128.785446737462, 0.0]
['beep', 0.0, 727.0575436422281, 0.0, 0.0, 0.0, 0.0, 1129.0760194153809, 0.0]
['beep', 0.0, 728.1080756316276, 0.0, 0.0, 0.0, 0.0, 1130.0818479158697, 0.0]
['beep', 0.0, 731.2149681109153, 0.0, 0.0, 0.0, 0.0, 1130.6853450161632, 0.0]
['beep', 0.0, 732.868997200608, 0.0, 0.0, 0.0, 0.0, 1129.1207229042916, 0.0]
['beep', 0.0, 729.0244971542952, 0.0, 0.0, 0.0, 0.0, 1127.8019699814286, 0.0]
['beep', 0.0, 727.482226786879, 0.0, 0.0, 0.0, 0.0, 1124.9632984356044, 0.0]
['beep', 0.0, 728.219834353904, 0.0, 0.0, 0.0, 0.0, 1124.3598013353112, 0.0]
['beep', 0.0, 729.2480145988483, 0.0, 0.0, 0.0, 0.0, 1126.9079002032163, 0.0]
['beep', 0.0, 731.3043750887365, 0.0, 0.0, 0.0, 0.0, 1126.0361821694592, 0.0]
['beep', 0.0, 732.5337210337784, 0.0, 0.0, 0.0, 0.0, 1121.9681646785932, 0.0]
['beep', 0.0, 732.4666658004124, 0.0, 0.0, 0.0, 0.0, 1122.7951792234396, 0.0]
['beep', 0.0, 728.0857238871722, 0.0, 0.0, 0.0, 0.0, 1127.4666938145988, 0.0]
['beep', 0.0, 727.996316909351, 0.0, 0.0, 0.0, 0.0, 1124.784484479962, 0.0]
['beep', 0.0, 731.4384855554683, 0.0, 0.0, 0.0, 0.0, 1121.6105367673083, 0.0]
['beep', 0.0, 733.7854187232756, 0.0, 0.0, 0.0, 0.0, 1123.689249001652, 0.0]
['beep', 0.0, 731.3937820665577, 0.0, 0.0, 0.0, 0.0, 1125.2091676246127, 0.0]
['beep', 0.0, 729.516235532312, 0.0, 0.0, 0.0, 0.0, 1123.5104350460094, 0.0]
['beep', 0.0, 731.8184652112085, 0.0, 0.0, 0.0, 0.0, 1122.0799234008698, 0.0]
['beep', 0.0, 733.092514645161, 0.0, 0.0, 0.0, 0.0, 1122.1246268897805, 0.0]
['beep', 0.0, 731.2820233442811, 0.0, 0.0, 0.0, 0.0, 1121.4317228116658, 0.0]
['beep', 0.0, 727.2363575978706, 0.0, 0.0, 0.0, 0.0, 1120.560004777909, 0.0]
['beep', 0.0, 728.0186686538063, 0.0, 0.0, 0.0, 0.0, 1120.3588390778111, 0.0]
['beep', 0.0, 731.0808576441834, 0.0, 0.0, 0.0, 0.0, 1120.9846879225597, 0.0]
['beep', 0.0, 732.1537413780381, 0.0, 0.0, 0.0, 0.0, 1120.0906181443474, 0.0]
['beep', 0.0, 734.0983431456499, 0.0, 0.0, 0.0, 0.0, 1120.9846879225597, 0.0]
['beep', 0.0, 729.9856221658733, 0.0, 0.0, 0.0, 0.0, 1121.9681646785932, 0.0]
['beep', 0.0, 727.3257645756918, 0.0, 0.0, 0.0, 0.0, 1124.784484479962, 0.0]
['beep', 0.0, 732.2655001003146, 0.0, 0.0, 0.0, 0.0, 1121.5434815339424, 0.0]
['beep', 0.0, 733.673660000999, 0.0, 0.0, 0.0, 0.0, 1121.6775920006744, 0.0]
['beep', 0.0, 731.416133811013, 0.0, 0.0, 0.0, 0.0, 1122.3704960787888, 0.0]
['beep', 0.0, 730.0750291436946, 0.0, 0.0, 0.0, 0.0, 1118.6377547547527, 0.0]
['beep', 0.0, 729.4715320434013, 0.0, 0.0, 0.0, 0.0, 1116.0896558868476, 0.0]
['beep', 0.0, 732.4443140559572, 0.0, 0.0, 0.0, 0.0, 1119.2189001105905, 0.0]
['beep', 0.0, 734.9030059460409, 0.0, 0.0, 0.0, 0.0, 1122.0352199119593, 0.0]
['beep', 0.0, 735.5735582797001, 0.0, 0.0, 0.0, 0.0, 1122.4151995676993, 0.0]
['beep', 0.0, 730.253843099337, 0.0, 0.0, 0.0, 0.0, 1120.8058739669173, 0.0]
['beep', 0.0, 726.6999157309432, 0.0, 0.0, 0.0, 0.0, 1118.9059756882164, 0.0]
['beep', 0.0, 729.8068082102309, 0.0, 0.0, 0.0, 0.0, 1120.0235629109816, 0.0]
['beep', 0.0, 732.2655001003146, 0.0, 0.0, 0.0, 0.0, 1118.9730309215822, 0.0]
['beep', 0.0, 733.3383838341695, 0.0, 0.0, 0.0, 0.0, 1117.0284291539704, 0.0]
['beep', 0.0, 731.8855204445745, 0.0, 0.0, 0.0, 0.0, 1117.2072431096128, 0.0]
['beep', 0.0, 725.738790719365, 0.0, 0.0, 0.0, 0.0, 1116.0002489090264, 0.0]
['beep', 0.0, 726.9904884088622, 0.0, 0.0, 0.0, 0.0, 1115.5979175088307, 0.0]
['beep', 0.0, 731.1032093886387, 0.0, 0.0, 0.0, 0.0, 1115.5755657643756, 0.0]
['beep', 0.0, 728.219834353904, 0.0, 0.0, 0.0, 0.0, 1114.882661686261, 0.0]
['beep', 0.0, 727.1245988755941, 0.0, 0.0, 0.0, 0.0, 1116.3131733314005, 0.0]
['beep', 0.0, 728.1974826094488, 0.0, 0.0, 0.0, 0.0, 1116.7378564760515, 0.0]
['beep', 0.0, 728.5327587762785, 0.0, 0.0, 0.0, 0.0, 1115.620269253286, 0.0]
['beep', 0.0, 730.9243954329962, 0.0, 0.0, 0.0, 0.0, 1117.5648710208977, 0.0]
['beep', 0.0, 729.739752976865, 0.0, 0.0, 0.0, 0.0, 1119.2859553439564, 0.0]
['beep', 0.0, 726.5881570086667, 0.0, 0.0, 0.0, 0.0, 1117.7660367209955, 0.0]
['beep', 0.0, 723.8388924406639, 0.0, 0.0, 0.0, 0.0, 1115.4861587865544, 0.0]
['beep', 0.0, 727.2810610867812, 0.0, 0.0, 0.0, 0.0, 1114.7932547084397, 0.0]
['beep', 0.0, 728.1751308649934, 0.0, 0.0, 0.0, 0.0, 1115.7096762311073, 0.0]
['beep', 0.0, 727.415171553513, 0.0, 0.0, 0.0, 0.0, 1114.9720686640821, 0.0]
['beep', 0.0, 727.7280959758873, 0.0, 0.0, 0.0, 0.0, 1112.8039494519173, 0.0]
['beep', 0.0, 728.3315930761806, 0.0, 0.0, 0.0, 0.0, 1112.4463215406324, 0.0]
['beep', 0.0, 730.8796919440856, 0.0, 0.0, 0.0, 0.0, 1115.4414552976436, 0.0]
['beep', 0.0, 735.4170960685129, 0.0, 0.0, 0.0, 0.0, 1116.26846984249, 0.0]
['beep', 0.0, 733.9865844233733, 0.0, 0.0, 0.0, 0.0, 1116.0449523979369, 0.0]
['beep', 0.0, 731.6172995111108, 0.0, 0.0, 0.0, 0.0, 1114.882661686261, 0.0]
['beep', 0.0, 728.4433517984572, 0.0, 0.0, 0.0, 0.0, 1114.7709029639846, 0.0]
['beep', 0.0, 728.3762965650913, 0.0, 0.0, 0.0, 0.0, 1114.6367924972526, 0.0]
['beep', 0.0, 730.030325654784, 0.0, 0.0, 0.0, 0.0, 1114.882661686261, 0.0]
['beep', 0.0, 727.5716337647002, 0.0, 0.0, 0.0, 0.0, 1114.9720686640821, 0.0]
['beep', 0.0, 723.2800988292812, 0.0, 0.0, 0.0, 0.0, 1114.8603099418058, 0.0]
['beep', 0.0, 723.8612441851192, 0.0, 0.0, 0.0, 0.0, 1114.6367924972526, 0.0]
['beep', 0.0, 726.6328604975773, 0.0, 0.0, 0.0, 0.0, 1113.2509843410235, 0.0]
['beep', 0.0, 731.4384855554683, 0.0, 0.0, 0.0, 0.0, 1112.692190729641, 0.0]
['beep', 0.0, 729.7174012324097, 0.0, 0.0, 0.0, 0.0, 1110.3676093062888, 0.0]
['beep', 0.0, 725.5823285081779, 0.0, 0.0, 0.0, 0.0, 1106.947792404627, 0.0]
['beep', 0.0, 725.0458866412505, 0.0, 0.0, 0.0, 0.0, 1109.630001739264, 0.0]
['beep', 0.0, 726.0517151417394, 0.0, 0.0, 0.0, 0.0, 1112.8263011963727, 0.0]
['beep', 0.0, 729.4044768100354, 0.0, 0.0, 0.0, 0.0, 1113.072170385381, 0.0]
['beep', 0.0, 730.5891192661667, 0.0, 0.0, 0.0, 0.0, 1111.3510860623226, 0.0]
['beep', 0.0, 724.6659069855103, 0.0, 0.0, 0.0, 0.0, 1111.6193069957862, 0.0]
['beep', 0.0, 723.6153749961109, 0.0, 0.0, 0.0, 0.0, 1110.434664539655, 0.0]
['beep', 0.0, 725.448218041446, 0.0, 0.0, 0.0, 0.0, 1113.2509843410235, 0.0]
['beep', 0.0, 726.9234331754963, 0.0, 0.0, 0.0, 0.0, 1116.4472837981325, 0.0]
['beep', 0.0, 724.2859273297701, 0.0, 0.0, 0.0, 0.0, 1112.692190729641, 0.0]
['beep', 0.0, 719.7038197164321, 0.0, 0.0, 0.0, 0.0, 1112.0216383959817, 0.0]
['beep', 0.0, 721.2013865949377, 0.0, 0.0, 0.0, 0.0, 1111.3734378067777, 0.0]
['beep', 0.0, 727.9069099315298, 0.0, 0.0, 0.0, 0.0, 1107.0595511269034, 0.0]
['beep', 0.0, 734.0089361678287, 0.0, 0.0, 0.0, 0.0, 1104.4667487700879, 0.0]
['beep', 0.0, 730.0750291436946, 0.0, 0.0, 0.0, 0.0, 1100.622248723775, 0.0]
['beep', 0.0, 727.8398546981639, 0.0, 0.0, 0.0, 0.0, 1099.8622894122946, 0.0]
['beep', 0.0, 727.4598750424236, 0.0, 0.0, 0.0, 0.0, 1104.6679144701857, 0.0]
['beep', 0.0, 728.4210000540019, 0.0, 0.0, 0.0, 0.0, 1103.1703475916802, 0.0]
['beep', 0.0, 731.8631687001191, 0.0, 0.0, 0.0, 0.0, 1099.8399376678394, 0.0]
['beep', 0.0, 732.0866861446722, 0.0, 0.0, 0.0, 0.0, 1100.0187516234819, 0.0]
['beep', 0.0, 727.7504477203427, 0.0, 0.0, 0.0, 0.0, 1100.7787109349622, 0.0]
['beep', 0.0, 726.8787296865856, 0.0, 0.0, 0.0, 0.0, 1099.7952341789287, 0.0]
['beep', 0.0, 731.639651255566, 0.0, 0.0, 0.0, 0.0, 1098.208260322602, 0.0]
['beep', 0.0, 732.8913489450633, 0.0, 0.0, 0.0, 0.0, 1100.5104900014985, 0.0]
['beep', 0.0, 731.3490785776471, 0.0, 0.0, 0.0, 0.0, 1102.3880365357443, 0.0]
['beep', 0.0, 728.0186686538063, 0.0, 0.0, 0.0, 0.0, 1102.008056880004, 0.0]
['beep', 0.0, 725.738790719365, 0.0, 0.0, 0.0, 0.0, 1101.3822080352554, 0.0]
['beep', 0.0, 727.1469506200493, 0.0, 0.0, 0.0, 0.0, 1100.9575248906046, 0.0]
['beep', 0.0, 730.8126367107197, 0.0, 0.0, 0.0, 0.0, 1098.1635568336912, 0.0]
['beep', 0.0, 730.1420843770605, 0.0, 0.0, 0.0, 0.0, 1098.4541295116103, 0.0]
['beep', 0.0, 725.3811628080801, 0.0, 0.0, 0.0, 0.0, 1100.0634551123924, 0.0]
['beep', 0.0, 723.0565813847281, 0.0, 0.0, 0.0, 0.0, 1101.493966757532, 0.0]
['beep', 0.0, 723.6600784850215, 0.0, 0.0, 0.0, 0.0, 1101.8292429243616, 0.0]
['beep', 0.0, 728.6892209874655, 0.0, 0.0, 0.0, 0.0, 1099.5940684788309, 0.0]
['beep', 0.0, 730.9690989219068, 0.0, 0.0, 0.0, 0.0, 1098.9458678896272, 0.0]
['beep', 0.0, 726.7893227087644, 0.0, 0.0, 0.0, 0.0, 1099.7952341789287, 0.0]
['beep', 0.0, 725.4035145525354, 0.0, 0.0, 0.0, 0.0, 1100.7563591905068, 0.0]
['beep', 0.0, 728.9574419209292, 0.0, 0.0, 0.0, 0.0, 1100.1528620902136, 0.0]
['beep', 0.0, 731.5502442777448, 0.0, 0.0, 0.0, 0.0, 1101.2480975685237, 0.0]
['beep', 0.0, 731.5502442777448, 0.0, 0.0, 0.0, 0.0, 1100.6446004682305, 0.0]
['beep', 0.0, 727.8175029537085, 0.0, 0.0, 0.0, 0.0, 1099.683475456652, 0.0]
['beep', 0.0, 726.0740668861946, 0.0, 0.0, 0.0, 0.0, 1098.655295211708, 0.0]
['beep', 0.0, 729.3150698322141, 0.0, 0.0, 0.0, 0.0, 1099.7505306900182, 0.0]
['beep', 0.0, 731.9078721890297, 0.0, 0.0, 0.0, 0.0, 1101.6057254798086, 0.0]
['beep', 0.0, 731.2373198553705, 0.0, 0.0, 0.0, 0.0, 1100.2869725569456, 0.0]
['beep', 0.0, 727.8622064426191, 0.0, 0.0, 0.0, 0.0, 1099.4823097565545, 0.0]
['beep', 0.0, 728.6221657540997, 0.0, 0.0, 0.0, 0.0, 1100.2422690680348, 0.0]
['beep', 0.0, 729.2033111099377, 0.0, 0.0, 0.0, 0.0, 1099.9740481345711, 0.0]
['beep', 0.0, 731.8855204445745, 0.0, 0.0, 0.0, 0.0, 1098.208260322602, 0.0]
['beep', 0.0, 731.997279166851, 0.0, 0.0, 0.0, 0.0, 1099.2140888230908, 0.0]
['beep', 0.0, 729.9856221658733, 0.0, 0.0, 0.0, 0.0, 1099.012923122993, 0.0]
['beep', 0.0, 728.6445174985549, 0.0, 0.0, 0.0, 0.0, 1098.431777767155, 0.0]
['beep', 0.0, 729.5609390212226, 0.0, 0.0, 0.0, 0.0, 1098.9458678896272, 0.0]
['beep', 0.0, 732.9360524339739, 0.0, 0.0, 0.0, 0.0, 1096.0401411104372, 0.0]
['beep', 0.0, 732.6678315005103, 0.0, 0.0, 0.0, 0.0, 1094.8778503987612, 0.0]
['beep', 0.0, 728.935090176474, 0.0, 0.0, 0.0, 0.0, 1098.3423707893337, 0.0]
['beep', 0.0, 727.5269302757896, 0.0, 0.0, 0.0, 0.0, 1098.588239978342, 0.0]
['beep', 0.0, 730.7455814773538, 0.0, 0.0, 0.0, 0.0, 1099.1023301008142, 0.0]
['beep', 0.0, 728.7562762208315, 0.0, 0.0, 0.0, 0.0, 1100.3763795347668, 0.0]
['beep', 0.0, 726.5658052642113, 0.0, 0.0, 0.0, 0.0, 1101.1139871017917, 0.0]
['beep', 0.0, 727.5939855091555, 0.0, 0.0, 0.0, 0.0, 1098.7670539339847, 0.0]
['beep', 0.0, 724.7329622188762, 0.0, 0.0, 0.0, 0.0, 1097.6494667112192, 0.0]
['beep', 0.0, 727.9739651648957, 0.0, 0.0, 0.0, 0.0, 1095.88367889925, 0.0]
['beep', 0.0, 731.8184652112085, 0.0, 0.0, 0.0, 0.0, 1097.8729841557722, 0.0]
['beep', 0.0, 731.5055407888342, 0.0, 0.0, 0.0, 0.0, 1099.4599580120992, 0.0]
['beep', 0.0, 727.9292616759851, 0.0, 0.0, 0.0, 0.0, 1097.7612254334958, 0.0]
['beep', 0.0, 727.6163372536108, 0.0, 0.0, 0.0, 0.0, 1100.4434347681326, 0.0]
['beep', 0.0, 727.0128401533175, 0.0, 0.0, 0.0, 0.0, 1099.7728824344733, 0.0]
['beep', 0.0, 728.1751308649934, 0.0, 0.0, 0.0, 0.0, 1098.431777767155, 0.0]
['beep', 0.0, 728.0857238871722, 0.0, 0.0, 0.0, 0.0, 1098.0517981114147, 0.0]
['beep', 0.0, 726.5658052642113, 0.0, 0.0, 0.0, 0.0, 1097.202431822113, 0.0]
['beep', 0.0, 723.2130435959153, 0.0, 0.0, 0.0, 0.0, 1097.6047632223085, 0.0]
['beep', 0.0, 724.062409885217, 0.0, 0.0, 0.0, 0.0, 1097.9400393891383, 0.0]
['beep', 0.0, 726.6328604975773, 0.0, 0.0, 0.0, 0.0, 1100.2199173235795, 0.0]
['beep', 0.0, 729.8068082102309, 0.0, 0.0, 0.0, 0.0, 1099.0576266119035, 0.0]
['beep', 0.0, 725.9399564194628, 0.0, 0.0, 0.0, 0.0, 1097.9847428780488, 0.0]
['beep', 0.0, 724.4647412854125, 0.0, 0.0, 0.0, 0.0, 1098.9458678896272, 0.0]
['beep', 0.0, 725.2023488524377, 0.0, 0.0, 0.0, 0.0, 1100.2646208124902, 0.0]
['beep', 0.0, 726.7893227087644, 0.0, 0.0, 0.0, 0.0, 1098.3200190448783, 0.0]
['beep', 0.0, 727.5045785313342, 0.0, 0.0, 0.0, 0.0, 1094.9896091210378, 0.0]
['beep', 0.0, 727.9069099315298, 0.0, 0.0, 0.0, 0.0, 1094.5202224874763, 0.0]
['beep', 0.0, 722.4307325399795, 0.0, 0.0, 0.0, 0.0, 1096.97891437756, 0.0]
['beep', 0.0, 725.6493837415438, 0.0, 0.0, 0.0, 0.0, 1097.8729841557722, 0.0]
['beep', 0.0, 728.1751308649934, 0.0, 0.0, 0.0, 0.0, 1097.0236178664707, 0.0]
['beep', 0.0, 726.6999157309432, 0.0, 0.0, 0.0, 0.0, 1096.2189550660796, 0.0]
['beep', 0.0, 724.2635755853147, 0.0, 0.0, 0.0, 0.0, 1094.6096294652975, 0.0]
['beep', 0.0, 722.6542499845326, 0.0, 0.0, 0.0, 0.0, 1095.6378097102415, 0.0]
['beep', 0.0, 726.2305290973818, 0.0, 0.0, 0.0, 0.0, 1098.0517981114147, 0.0]
['beep', 0.0, 728.6668692430103, 0.0, 0.0, 0.0, 0.0, 1096.8895073997387, 0.0]
['beep', 0.0, 728.1974826094488, 0.0, 0.0, 0.0, 0.0, 1094.8554986543058, 0.0]
['beep', 0.0, 724.3306308186807, 0.0, 0.0, 0.0, 0.0, 1094.363760276289, 0.0]
['beep', 0.0, 723.6600784850215, 0.0, 0.0, 0.0, 0.0, 1097.5377079889427, 0.0]
['beep', 0.0, 724.5541482632337, 0.0, 0.0, 0.0, 0.0, 1096.3754172772667, 0.0]
['beep', 0.0, 726.8563779421304, 0.0, 0.0, 0.0, 0.0, 1097.045969610926, 0.0]
['beep', 0.0, 728.6668692430103, 0.0, 0.0, 0.0, 0.0, 1095.4813474990544, 0.0]
['beep', 0.0, 725.8505494416415, 0.0, 0.0, 0.0, 0.0, 1093.8273184093616, 0.0]
['beep', 0.0, 723.19069185146, 0.0, 0.0, 0.0, 0.0, 1092.2850480419456, 0.0]
['beep', 0.0, 724.4423895409572, 0.0, 0.0, 0.0, 0.0, 1092.687379442141, 0.0]
['beep', 0.0, 725.448218041446, 0.0, 0.0, 0.0, 0.0, 1095.3248852878673, 0.0]
['beep', 0.0, 726.6328604975773, 0.0, 0.0, 0.0, 0.0, 1094.8107951653953, 0.0]
['beep', 0.0, 725.8281976971863, 0.0, 0.0, 0.0, 0.0, 1093.6038009648087, 0.0]
['beep', 0.0, 723.9282994184852, 0.0, 0.0, 0.0, 0.0, 1095.5260509879652, 0.0]
['beep', 0.0, 725.4929215303566, 0.0, 0.0, 0.0, 0.0, 1094.4755189985656, 0.0]
['beep', 0.0, 727.7280959758873, 0.0, 0.0, 0.0, 0.0, 1092.4191585086774, 0.0]
['beep', 0.0, 728.2645378428147, 0.0, 0.0, 0.0, 0.0, 1092.173289319669, 0.0]
['beep', 0.0, 726.9457849199516, 0.0, 0.0, 0.0, 0.0, 1092.2850480419456, 0.0]
['beep', 0.0, 721.7378284618651, 0.0, 0.0, 0.0, 0.0, 1095.3472370323227, 0.0]
['beep', 0.0, 721.7601802063203, 0.0, 0.0, 0.0, 0.0, 1095.7495684325181, 0.0]
['beep', 0.0, 725.2917558302589, 0.0, 0.0, 0.0, 0.0, 1094.6319812097527, 0.0]
['beep', 0.0, 728.3762965650913, 0.0, 0.0, 0.0, 0.0, 1094.0731875983702, 0.0]
['beep', 0.0, 725.2470523413483, 0.0, 0.0, 0.0, 0.0, 1094.5202224874763, 0.0]
['beep', 0.0, 722.7213052178986, 0.0, 0.0, 0.0, 0.0, 1094.5425742319314, 0.0]
['beep', 0.0, 726.9234331754963, 0.0, 0.0, 0.0, 0.0, 1094.2520015540126, 0.0]
['beep', 0.0, 727.2810610867812, 0.0, 0.0, 0.0, 0.0, 1093.3579317758004, 0.0]
['beep', 0.0, 727.5045785313342, 0.0, 0.0, 0.0, 0.0, 1093.7602631759958, 0.0]
['beep', 0.0, 724.0400581407616, 0.0, 0.0, 0.0, 0.0, 1091.4580334970992, 0.0]
['beep', 0.0, 722.3636773066137, 0.0, 0.0, 0.0, 0.0, 1092.8885451422389, 0.0]
['beep', 0.0, 724.6659069855103, 0.0, 0.0, 0.0, 0.0, 1091.2792195414568, 0.0]
['beep', 0.0, 723.6600784850215, 0.0, 0.0, 0.0, 0.0, 1090.4969084855209, 0.0]
['beep', 0.0, 722.7883604512645, 0.0, 0.0, 0.0, 0.0, 1090.6310189522528, 0.0]
['beep', 0.0, 723.5036162738343, 0.0, 0.0, 0.0, 0.0, 1089.1558038182025, 0.0]
['beep', 0.0, 724.3082790742253, 0.0, 0.0, 0.0, 0.0, 1090.2957427854233, 0.0]
['beep', 0.0, 723.3248023181918, 0.0, 0.0, 0.0, 0.0, 1090.6086672077975, 0.0]
['beep', 0.0, 728.5998140096443, 0.0, 0.0, 0.0, 0.0, 1088.7311206735517, 0.0]
['beep', 0.0, 726.610508753122, 0.0, 0.0, 0.0, 0.0, 1089.5134317294874, 0.0]
['beep', 0.0, 724.5094447743231, 0.0, 0.0, 0.0, 0.0, 1086.7418154170293, 0.0]
['beep', 0.0, 722.4530842844349, 0.0, 0.0, 0.0, 0.0, 1087.3900160062333, 0.0]
['beep', 0.0, 726.901081431041, 0.0, 0.0, 0.0, 0.0, 1087.948809617616, 0.0]
['beep', 0.0, 728.7339244763762, 0.0, 0.0, 0.0, 0.0, 1088.0382165954372, 0.0]
['beep', 0.0, 727.1916541089599, 0.0, 0.0, 0.0, 0.0, 1086.0265595944595, 0.0]
['beep', 0.0, 725.6717354859991, 0.0, 0.0, 0.0, 0.0, 1084.5066409714987, 0.0]
['beep', 0.0, 725.1129418746165, 0.0, 0.0, 0.0, 0.0, 1083.724329915563, 0.0]
['beep', 0.0, 726.7446192198538, 0.0, 0.0, 0.0, 0.0, 1086.4288909946551, 0.0]
['beep', 0.0, 727.9516134204404, 0.0, 0.0, 0.0, 0.0, 1088.6864171846412, 0.0]
['beep', 0.0, 727.5492820202448, 0.0, 0.0, 0.0, 0.0, 1085.3113037718897, 0.0]
['beep', 0.0, 727.3928198090578, 0.0, 0.0, 0.0, 0.0, 1085.3113037718897, 0.0]
['beep', 0.0, 722.7660087068092, 0.0, 0.0, 0.0, 0.0, 1088.3958445067221, 0.0]
['beep', 0.0, 723.8612441851192, 0.0, 0.0, 0.0, 0.0, 1087.077091583859, 0.0]
['beep', 0.0, 726.6775639864879, 0.0, 0.0, 0.0, 0.0, 1085.9371526166383, 0.0]
['beep', 0.0, 727.6833924869767, 0.0, 0.0, 0.0, 0.0, 1085.8700973832724, 0.0]
['beep', 0.0, 727.482226786879, 0.0, 0.0, 0.0, 0.0, 1082.5843909483422, 0.0]
['beep', 0.0, 726.319936075203, 0.0, 0.0, 0.0, 0.0, 1083.3890537487334, 0.0]
['beep', 0.0, 724.8447209411528, 0.0, 0.0, 0.0, 0.0, 1086.6077049502976, 0.0]
['beep', 0.0, 728.3539448206359, 0.0, 0.0, 0.0, 0.0, 1083.5678677043759, 0.0]
['beep', 0.0, 728.4210000540019, 0.0, 0.0, 0.0, 0.0, 1082.4502804816104, 0.0]
['beep', 0.0, 725.1352936190717, 0.0, 0.0, 0.0, 0.0, 1085.5124694719875, 0.0]
['beep', 0.0, 722.6542499845326, 0.0, 0.0, 0.0, 0.0, 1084.4619374825882, 0.0]
['beep', 0.0, 722.4307325399795, 0.0, 0.0, 0.0, 0.0, 1083.0537775819037, 0.0]
['beep', 0.0, 729.9632704214181, 0.0, 0.0, 0.0, 0.0, 1080.3492165028115, 0.0]
['beep', 0.0, 729.5385872767672, 0.0, 0.0, 0.0, 0.0, 1082.5843909483422, 0.0]
['beep', 0.0, 727.9516134204404, 0.0, 0.0, 0.0, 0.0, 1083.7690334044735, 0.0]
['beep', 0.0, 724.8223691966974, 0.0, 0.0, 0.0, 0.0, 1081.466803725577, 0.0]
['beep', 0.0, 723.7941889517533, 0.0, 0.0, 0.0, 0.0, 1081.7126729145853, 0.0]
['beep', 0.0, 729.0468488987505, 0.0, 0.0, 0.0, 0.0, 1082.5843909483422, 0.0]
['beep', 0.0, 728.6892209874655, 0.0, 0.0, 0.0, 0.0, 1083.6796264266522, 0.0]
['beep', 0.0, 729.7844564657756, 0.0, 0.0, 0.0, 0.0, 1081.9585421035936, 0.0]
['beep', 0.0, 727.0351918977728, 0.0, 0.0, 0.0, 0.0, 1081.3550450033003, 0.0]
['beep', 0.0, 726.901081431041, 0.0, 0.0, 0.0, 0.0, 1081.109175814292, 0.0]
['beep', 0.0, 726.5658052642113, 0.0, 0.0, 0.0, 0.0, 1082.562039203887, 0.0]
['beep', 0.0, 728.1080756316276, 0.0, 0.0, 0.0, 0.0, 1083.5008124710098, 0.0]
['beep', 0.0, 727.2810610867812, 0.0, 0.0, 0.0, 0.0, 1083.143184559725, 0.0]
['beep', 0.0, 726.1187703751052, 0.0, 0.0, 0.0, 0.0, 1081.0197688364708, 0.0]
['beep', 0.0, 727.5269302757896, 0.0, 0.0, 0.0, 0.0, 1080.9974170920154, 0.0]
['beep', 0.0, 730.0973808881499, 0.0, 0.0, 0.0, 0.0, 1082.629094437253, 0.0]
['beep', 0.0, 731.0808576441834, 0.0, 0.0, 0.0, 0.0, 1084.4842892270433, 0.0]
['beep', 0.0, 728.3762965650913, 0.0, 0.0, 0.0, 0.0, 1083.0314258374485, 0.0]
['beep', 0.0, 727.1693023645047, 0.0, 0.0, 0.0, 0.0, 1082.5843909483422, 0.0]
['beep', 0.0, 728.1304273760828, 0.0, 0.0, 0.0, 0.0, 1083.7019781711076, 0.0]
['beep', 0.0, 727.5716337647002, 0.0, 0.0, 0.0, 0.0, 1085.2666002829792, 0.0]
['beep', 0.0, 729.0915523876611, 0.0, 0.0, 0.0, 0.0, 1083.7690334044735, 0.0]
['beep', 0.0, 726.610508753122, 0.0, 0.0, 0.0, 0.0, 1083.7913851489288, 0.0]
['beep', 0.0, 726.4093430530243, 0.0, 0.0, 0.0, 0.0, 1083.0314258374485, 0.0]
['beep', 0.0, 727.4598750424236, 0.0, 0.0, 0.0, 0.0, 1081.3550450033003, 0.0]
['beep', 0.0, 731.0361541552728, 0.0, 0.0, 0.0, 0.0, 1085.3113037718897, 0.0]
['beep', 0.0, 731.483189044379, 0.0, 0.0, 0.0, 0.0, 1084.3278270158562, 0.0]
['beep', 0.0, 730.9243954329962, 0.0, 0.0, 0.0, 0.0, 1082.9643706040824, 0.0]
['beep', 0.0, 730.253843099337, 0.0, 0.0, 0.0, 0.0, 1083.232591537546, 0.0]
['beep', 0.0, 732.4890175448678, 0.0, 0.0, 0.0, 0.0, 1084.9313241161494, 0.0]
['beep', 0.0, 735.6853170019766, 0.0, 0.0, 0.0, 0.0, 1085.7806904054512, 0.0]
['beep', 0.0, 738.1663606365157, 0.0, 0.0, 0.0, 0.0, 1084.0372543379372, 0.0]
['beep', 0.0, 736.3558693356358, 0.0, 0.0, 0.0, 0.0, 1083.7019781711076, 0.0]
['beep', 0.0, 732.8242937116974, 0.0, 0.0, 0.0, 0.0, 1084.752510160507, 0.0]
['beep', 0.0, 730.0750291436946, 0.0, 0.0, 0.0, 0.0, 1089.334617773845, 0.0]
['beep', 0.0, 730.7679332218091, 0.0, 0.0, 0.0, 0.0, 1087.0547398394037, 0.0]
['beep', 0.0, 731.6620030000214, 0.0, 0.0, 0.0, 0.0, 1086.2500770390127, 0.0]
['beep', 0.0, 728.3092413317253, 0.0, 0.0, 0.0, 0.0, 1084.0819578268479, 0.0]
['beep', 0.0, 728.3539448206359, 0.0, 0.0, 0.0, 0.0, 1084.9760276050602, 0.0]
['beep', 0.0, 732.5560727782337, 0.0, 0.0, 0.0, 0.0, 1084.685454927141, 0.0]
['beep', 0.0, 735.5065030463342, 0.0, 0.0, 0.0, 0.0, 1082.3608735037892, 0.0]
['beep', 0.0, 734.5230262903007, 0.0, 0.0, 0.0, 0.0, 1082.7632049039848, 0.0]
['beep', 0.0, 731.0361541552728, 0.0, 0.0, 0.0, 0.0, 1086.4288909946551, 0.0]
['beep', 0.0, 731.5055407888342, 0.0, 0.0, 0.0, 0.0, 1086.0936148278254, 0.0]
['beep', 0.0, 733.4948460453566, 0.0, 0.0, 0.0, 0.0, 1086.9876846060379, 0.0]
['beep', 0.0, 732.6007762671443, 0.0, 0.0, 0.0, 0.0, 1085.400710749711, 0.0]
['beep', 0.0, 736.4452763134572, 0.0, 0.0, 0.0, 0.0, 1083.4114054931886, 0.0]
['beep', 0.0, 731.4384855554683, 0.0, 0.0, 0.0, 0.0, 1086.1159665722807, 0.0]
['beep', 0.0, 728.3315930761806, 0.0, 0.0, 0.0, 0.0, 1084.2831235269457, 0.0]
['beep', 0.0, 731.5278925332896, 0.0, 0.0, 0.0, 0.0, 1084.394882249222, 0.0]
['beep', 0.0, 733.2042733674376, 0.0, 0.0, 0.0, 0.0, 1087.077091583859, 0.0]
['beep', 0.0, 734.545378034756, 0.0, 0.0, 0.0, 0.0, 1085.3783590052556, 0.0]
['beep', 0.0, 732.3772588225912, 0.0, 0.0, 0.0, 0.0, 1085.914800872183, 0.0]
['beep', 0.0, 730.1867878659712, 0.0, 0.0, 0.0, 0.0, 1085.333655516345, 0.0]
['beep', 0.0, 733.0031076673398, 0.0, 0.0, 0.0, 0.0, 1085.6689316831746, 0.0]
['beep', 0.0, 735.9982414243509, 0.0, 0.0, 0.0, 0.0, 1089.9604666185935, 0.0]
['beep', 0.0, 736.9593664359292, 0.0, 0.0, 0.0, 0.0, 1092.240344553035, 0.0]
['beep', 0.0, 729.449180298946, 0.0, 0.0, 0.0, 0.0, 1090.9662951190824, 0.0]
['beep', 0.0, 724.3306308186807, 0.0, 0.0, 0.0, 0.0, 1093.2461730535238, 0.0]
['beep', 0.0, 725.0682383857059, 0.0, 0.0, 0.0, 0.0, 1095.7719201769735, 0.0]
['beep', 0.0, 730.7455814773538, 0.0, 0.0, 0.0, 0.0, 1095.7495684325181, 0.0]
['beep', 0.0, 732.220796611404, 0.0, 0.0, 0.0, 0.0, 1094.8554986543058, 0.0]
['beep', 0.0, 727.9739651648957, 0.0, 0.0, 0.0, 0.0, 1096.97891437756, 0.0]
['beep', 0.0, 726.9681366644069, 0.0, 0.0, 0.0, 0.0, 1096.7106934440963, 0.0]
['beep', 0.0, 727.5045785313342, 0.0, 0.0, 0.0, 0.0, 1098.0294463669595, 0.0]
['beep', 0.0, 729.0692006432058, 0.0, 0.0, 0.0, 0.0, 1098.0070946225042, 0.0]
['beep', 0.0, 730.6338227550773, 0.0, 0.0, 0.0, 0.0, 1097.716521944585, 0.0]
['beep', 0.0, 729.8068082102309, 0.0, 0.0, 0.0, 0.0, 1094.8554986543058, 0.0]
['beep', 0.0, 730.0750291436946, 0.0, 0.0, 0.0, 0.0, 1094.5202224874763, 0.0]
['beep', 0.0, 730.5444157772561, 0.0, 0.0, 0.0, 0.0, 1093.4249870091662, 0.0]
['beep', 0.0, 733.5395495342672, 0.0, 0.0, 0.0, 0.0, 1092.4415102531327, 0.0]
['beep', 0.0, 733.3830873230801, 0.0, 0.0, 0.0, 0.0, 1092.1285858307583, 0.0]
['beep', 0.0, 730.8573401996304, 0.0, 0.0, 0.0, 0.0, 1093.3802835202555, 0.0]
['beep', 0.0, 728.8233314541974, 0.0, 0.0, 0.0, 0.0, 1098.9235161451718, 0.0]
['beep', 0.0, 732.1984448669488, 0.0, 0.0, 0.0, 0.0, 1102.298629557923, 0.0]
['beep', 0.0, 738.0322501697839, 0.0, 0.0, 0.0, 0.0, 1098.3200190448783, 0.0]
['beep', 0.0, 737.7863809807756, 0.0, 0.0, 0.0, 0.0, 1100.175213834669, 0.0]
['beep', 0.0, 729.3374215766695, 0.0, 0.0, 0.0, 0.0, 1099.9069929012053, 0.0]
['beep', 0.0, 727.3928198090578, 0.0, 0.0, 0.0, 0.0, 1097.403597522211, 0.0]
['beep', 0.0, 734.1653983790158, 0.0, 0.0, 0.0, 0.0, 1095.0566643544037, 0.0]
['beep', 0.0, 736.4452763134572, 0.0, 0.0, 0.0, 0.0, 1099.5046615010097, 0.0]
['beep', 0.0, 735.2159303684152, 0.0, 0.0, 0.0, 0.0, 1100.9575248906046, 0.0]
['beep', 0.0, 729.5385872767672, 0.0, 0.0, 0.0, 0.0, 1100.7116557015963, 0.0]
['beep', 0.0, 728.6221657540997, 0.0, 0.0, 0.0, 0.0, 1101.136338846247, 0.0]
['beep', 0.0, 731.2596715998259, 0.0, 0.0, 0.0, 0.0, 1097.0906730998365, 0.0]
['beep', 0.0, 733.3830873230801, 0.0, 0.0, 0.0, 0.0, 1098.7894056784398, 0.0]
['beep', 0.0, 731.706706488932, 0.0, 0.0, 0.0, 0.0, 1102.008056880004, 0.0]
['beep', 0.0, 733.8301222121862, 0.0, 0.0, 0.0, 0.0, 1097.6494667112192, 0.0]
['beep', 0.0, 731.1702646220047, 0.0, 0.0, 0.0, 0.0, 1097.7612254334958, 0.0]
['beep', 0.0, 729.9632704214181, 0.0, 0.0, 0.0, 0.0, 1100.7787109349622, 0.0]
['beep', 0.0, 732.6007762671443, 0.0, 0.0, 0.0, 0.0, 1099.1246818452696, 0.0]
['beep', 0.0, 732.1537413780381, 0.0, 0.0, 0.0, 0.0, 1099.2587923120013, 0.0]
['beep', 0.0, 729.4044768100354, 0.0, 0.0, 0.0, 0.0, 1101.4045597797108, 0.0]
['beep', 0.0, 731.5949477666554, 0.0, 0.0, 0.0, 0.0, 1099.683475456652, 0.0]
['beep', 0.0, 734.2101018679264, 0.0, 0.0, 0.0, 0.0, 1100.7787109349622, 0.0]
['beep', 0.0, 739.5968722816554, 0.0, 0.0, 0.0, 0.0, 1096.7106934440963, 0.0]
['beep', 0.0, 734.9924129238622, 0.0, 0.0, 0.0, 0.0, 1099.5493649899204, 0.0]
['beep', 0.0, 734.0089361678287, 0.0, 0.0, 0.0, 0.0, 1098.7447021895293, 0.0]
['beep', 0.0, 729.8515116991415, 0.0, 0.0, 0.0, 0.0, 1098.431777767155, 0.0]
['beep', 0.0, 734.2101018679264, 0.0, 0.0, 0.0, 0.0, 1098.0070946225042, 0.0]
['beep', 0.0, 735.9535379354403, 0.0, 0.0, 0.0, 0.0, 1098.07414985587, 0.0]
['beep', 0.0, 732.8019419672421, 0.0, 0.0, 0.0, 0.0, 1096.5542312329092, 0.0]
['beep', 0.0, 734.0759914011945, 0.0, 0.0, 0.0, 0.0, 1097.783577177951, 0.0]
['beep', 0.0, 732.6678315005103, 0.0, 0.0, 0.0, 0.0, 1103.7067894586075, 0.0]
['beep', 0.0, 731.7514099778426, 0.0, 0.0, 0.0, 0.0, 1102.8797749137611, 0.0]
['beep', 0.0, 733.9195291900074, 0.0, 0.0, 0.0, 0.0, 1104.0867691143476, 0.0]
['beep', 0.0, 738.4569333144348, 0.0, 0.0, 0.0, 0.0, 1099.6164202232862, 0.0]
['beep', 0.0, 737.093476902661, 0.0, 0.0, 0.0, 0.0, 1096.2189550660796, 0.0]
['beep', 0.0, 733.7630669788202, 0.0, 0.0, 0.0, 0.0, 1100.175213834669, 0.0]
['beep', 0.0, 733.6289565120884, 0.0, 0.0, 0.0, 0.0, 1105.070245870381, 0.0]
['beep', 0.0, 736.4229245690018, 0.0, 0.0, 0.0, 0.0, 1103.460920269599, 0.0]
['beep', 0.0, 736.9593664359292, 0.0, 0.0, 0.0, 0.0, 1098.9011644007164, 0.0]
['beep', 0.0, 733.3160320897141, 0.0, 0.0, 0.0, 0.0, 1097.7612254334958, 0.0]
['beep', 0.0, 731.8408169556639, 0.0, 0.0, 0.0, 0.0, 1101.4716150130766, 0.0]
['beep', 0.0, 729.6279942545884, 0.0, 0.0, 0.0, 0.0, 1101.6951324576298, 0.0]
['beep', 0.0, 734.0983431456499, 0.0, 0.0, 0.0, 0.0, 1101.6951324576298, 0.0]
['beep', 0.0, 732.3772588225912, 0.0, 0.0, 0.0, 0.0, 1101.6951324576298, 0.0]
['beep', 0.0, 733.4724943009013, 0.0, 0.0, 0.0, 0.0, 1102.9244784026716, 0.0]
['beep', 0.0, 734.8806542015856, 0.0, 0.0, 0.0, 0.0, 1102.8127196803953, 0.0]
['beep', 0.0, 728.3539448206359, 0.0, 0.0, 0.0, 0.0, 1100.5551934904092, 0.0]
['beep', 0.0, 731.7961134667532, 0.0, 0.0, 0.0, 0.0, 1100.5551934904092, 0.0]
['beep', 0.0, 736.4676280579124, 0.0, 0.0, 0.0, 0.0, 1096.4871759995433, 0.0]
['beep', 0.0, 733.5395495342672, 0.0, 0.0, 0.0, 0.0, 1102.7680161914845, 0.0]
['beep', 0.0, 730.4103053105242, 0.0, 0.0, 0.0, 0.0, 1100.7787109349622, 0.0]
['beep', 0.0, 727.9069099315298, 0.0, 0.0, 0.0, 0.0, 1103.9973621365264, 0.0]
['beep', 0.0, 733.3160320897141, 0.0, 0.0, 0.0, 0.0, 1102.5221470024762, 0.0]
['beep', 0.0, 736.1994071244487, 0.0, 0.0, 0.0, 0.0, 1100.4434347681326, 0.0]
['beep', 0.0, 732.4219623115018, 0.0, 0.0, 0.0, 0.0, 1104.5338040034537, 0.0]
['beep', 0.0, 726.1858256084712, 0.0, 0.0, 0.0, 0.0, 1106.210184837602, 0.0]
['beep', 0.0, 731.7290582333873, 0.0, 0.0, 0.0, 0.0, 1104.3773417922666, 0.0]
['beep', 0.0, 734.2324536123817, 0.0, 0.0, 0.0, 0.0, 1106.947792404627, 0.0]
['beep', 0.0, 734.8806542015856, 0.0, 0.0, 0.0, 0.0, 1103.3715132917778, 0.0]
['beep', 0.0, 729.6503459990438, 0.0, 0.0, 0.0, 0.0, 1102.7456644470292, 0.0]
['beep', 0.0, 727.1245988755941, 0.0, 0.0, 0.0, 0.0, 1104.1985278366242, 0.0]
['beep', 0.0, 727.2587093423259, 0.0, 0.0, 0.0, 0.0, 1102.8574231693058, 0.0]
['beep', 0.0, 731.0585058997281, 0.0, 0.0, 0.0, 0.0, 1105.7631499484958, 0.0]
['beep', 0.0, 728.3315930761806, 0.0, 0.0, 0.0, 0.0, 1110.009981395004, 0.0]
['beep', 0.0, 727.0351918977728, 0.0, 0.0, 0.0, 0.0, 1104.7126179590962, 0.0]
['beep', 0.0, 731.2373198553705, 0.0, 0.0, 0.0, 0.0, 1103.0138853804929, 0.0]
['beep', 0.0, 736.0652966577169, 0.0, 0.0, 0.0, 0.0, 1106.523109259976, 0.0]
['beep', 0.0, 734.0089361678287, 0.0, 0.0, 0.0, 0.0, 1103.304458058412, 0.0]
['beep', 0.0, 730.2985465882476, 0.0, 0.0, 0.0, 0.0, 1103.88560341425, 0.0]
['beep', 0.0, 733.5619012787225, 0.0, 0.0, 0.0, 0.0, 1104.5785074923645, 0.0]
['beep', 0.0, 731.5055407888342, 0.0, 0.0, 0.0, 0.0, 1102.07511211337, 0.0]
['beep', 0.0, 728.1304273760828, 0.0, 0.0, 0.0, 0.0, 1103.9750103920712, 0.0]
['beep', 0.0, 729.9185669325075, 0.0, 0.0, 0.0, 0.0, 1104.3549900478113, 0.0]
['beep', 0.0, 729.5832907656778, 0.0, 0.0, 0.0, 0.0, 1105.5843359928533, 0.0]
['beep', 0.0, 729.8068082102309, 0.0, 0.0, 0.0, 0.0, 1107.6183447382862, 0.0]
['beep', 0.0, 735.7970757242532, 0.0, 0.0, 0.0, 0.0, 1105.718446459585, 0.0]
['beep', 0.0, 736.28881410227, 0.0, 0.0, 0.0, 0.0, 1107.8865656717498, 0.0]
['beep', 0.0, 732.0866861446722, 0.0, 0.0, 0.0, 0.0, 1105.8972604152275, 0.0]
['beep', 0.0, 728.5327587762785, 0.0, 0.0, 0.0, 0.0, 1105.3608185483001, 0.0]
['beep', 0.0, 729.3597733211247, 0.0, 0.0, 0.0, 0.0, 1107.461882527099, 0.0]
['beep', 0.0, 733.4501425564459, 0.0, 0.0, 0.0, 0.0, 1102.7009609581187, 0.0]
['beep', 0.0, 740.6474042710548, 0.0, 0.0, 0.0, 0.0, 1097.0236178664707, 0.0]
['beep', 0.0, 741.9214537050074, 0.0, 0.0, 0.0, 0.0, 1095.6378097102415, 0.0]
['beep', 0.0, 743.5754827947001, 0.0, 0.0, 0.0, 0.0, 1093.2461730535238, 0.0]
['beep', 0.0, 749.8563229866413, 0.0, 0.0, 0.0, 0.0, 1086.0265595944595, 0.0]
['beep', 0.0, 746.4588578294347, 0.0, 0.0, 0.0, 0.0, 1082.8973153707166, 0.0]
['beep', 0.0, 745.967119451418, 0.0, 0.0, 0.0, 0.0, 1077.1976205346132, 0.0]
['beep', 0.0, 747.1294101630939, 0.0, 0.0, 0.0, 0.0, 1072.7943268769177, 0.0]
['beep', 0.0, 758.6182068131217, 0.0, 0.0, 0.0, 0.0, 1067.5416669299207, 0.0]
['beep', 0.0, 755.8242387562083, 0.0, 0.0, 0.0, 0.0, 1060.9926058045157, 0.0]
['beep', 0.0, 756.3606806231357, 0.0, 0.0, 0.0, 0.0, 1053.4153644341666, 0.0]
['beep', 0.0, 759.802849269253, 0.0, 0.0, 0.0, 0.0, 1049.079126009837, 0.0]
['beep', 0.0, 760.4510498584569, 0.0, 0.0, 0.0, 0.0, 1041.725402084041, 0.0]
['beep', 0.0, 772.8786197756076, 0.0, 0.0, 0.0, 0.0, 1028.2025966885801, 0.0]
['beep', 0.0, 768.6988435624652, 0.0, 0.0, 0.0, 0.0, 1022.9052332526724, 0.0]
['beep', 0.0, 770.3081691632473, 0.0, 0.0, 0.0, 0.0, 1015.3950471156893, 0.0]
['beep', 0.0, 771.5598668527444, 0.0, 0.0, 0.0, 0.0, 1007.0578464338597, 0.0]
['beep', 0.0, 775.9855122548953, 0.0, 0.0, 0.0, 0.0, 1001.6487242756754, 0.0]
['beep', 0.0, 781.7522623243646, 0.0, 0.0, 0.0, 0.0, 993.6244480162202, 0.0]
['beep', 0.0, 775.0690907322277, 0.0, 0.0, 0.0, 0.0, 985.2201921010247, 0.0]
['beep', 0.0, 768.6317883290993, 0.0, 0.0, 0.0, 0.0, 976.7488809524633, 0.0]
['beep', 0.0, 774.1750209540154, 0.0, 0.0, 0.0, 0.0, 968.0093488704383, 0.0]
['beep', 0.0, 780.6570268460545, 0.0, 0.0, 0.0, 0.0, 966.4447267585667, 0.0]
['beep', 0.0, 783.9650850254399, 0.0, 0.0, 0.0, 0.0, 960.2085900555361, 0.0]
['beep', 0.0, 780.0311780013059, 0.0, 0.0, 0.0, 0.0, 953.9948050969607, 0.0]
['beep', 0.0, 771.7610325528423, 0.0, 0.0, 0.0, 0.0, 952.0278515848937, 0.0]
['beep', 0.0, 775.605532599155, 0.0, 0.0, 0.0, 0.0, 944.763534636919, 0.0]
['beep', 0.0, 780.9923030128841, 0.0, 0.0, 0.0, 0.0, 939.5779299232877, 0.0]
['beep', 0.0, 780.8581925461523, 0.0, 0.0, 0.0, 0.0, 936.1134095327151, 0.0]
['beep', 0.0, 780.2099919569483, 0.0, 0.0, 0.0, 0.0, 932.7382961199637, 0.0]
['beep', 0.0, 779.2488669453701, 0.0, 0.0, 0.0, 0.0, 929.2290722404805, 0.0]
['beep', 0.0, 781.5510966242667, 0.0, 0.0, 0.0, 0.0, 926.6809733725755, 0.0]
['beep', 0.0, 780.7464338238757, 0.0, 0.0, 0.0, 0.0, 925.3175169608018, 0.0]
['beep', 0.0, 779.9417710234846, 0.0, 0.0, 0.0, 0.0, 924.9375373050616, 0.0]
['beep', 0.0, 777.8630587891411, 0.0, 0.0, 0.0, 0.0, 924.4681506715001, 0.0]
['beep', 0.0, 775.4043668990573, 0.0, 0.0, 0.0, 0.0, 924.244633226947, 0.0]
['beep', 0.0, 776.186677954993, 0.0, 0.0, 0.0, 0.0, 926.0774762722822, 0.0]
['beep', 0.0, 777.5948378556774, 0.0, 0.0, 0.0, 0.0, 926.6362698836649, 0.0]
['beep', 0.0, 777.1701547110266, 0.0, 0.0, 0.0, 0.0, 926.6586216281202, 0.0]
['beep', 0.0, 775.1137942211383, 0.0, 0.0, 0.0, 0.0, 925.697496616542, 0.0]
['beep', 0.0, 773.3256546647137, 0.0, 0.0, 0.0, 0.0, 927.1056565172263, 0.0]
['beep', 0.0, 774.3091314207472, 0.0, 0.0, 0.0, 0.0, 921.5177204033996, 0.0]
['beep', 0.0, 776.9466372664735, 0.0, 0.0, 0.0, 0.0, 925.2728134718911, 0.0]
['beep', 0.0, 776.6560645885545, 0.0, 0.0, 0.0, 0.0, 930.5701769077989, 0.0]
['beep', 0.0, 774.5550006097557, 0.0, 0.0, 0.0, 0.0, 930.7042873745307, 0.0]
['beep', 0.0, 775.2479046878701, 0.0, 0.0, 0.0, 0.0, 931.7101158750196, 0.0]
['beep', 0.0, 771.2022389414595, 0.0, 0.0, 0.0, 0.0, 932.5818339087766, 0.0]
['beep', 0.0, 776.8572302886523, 0.0, 0.0, 0.0, 0.0, 928.0667815288045, 0.0]
['beep', 0.0, 777.3713204111243, 0.0, 0.0, 0.0, 0.0, 929.3408309627571, 0.0]
['beep', 0.0, 774.6220558431215, 0.0, 0.0, 0.0, 0.0, 929.8996245741397, 0.0]
['beep', 0.0, 772.1186604641272, 0.0, 0.0, 0.0, 0.0, 929.7655141074079, 0.0]
['beep', 0.0, 773.2585994313479, 0.0, 0.0, 0.0, 0.0, 929.7208106184972, 0.0]
['beep', 0.0, 775.0467389877724, 0.0, 0.0, 0.0, 0.0, 928.2902989733576, 0.0]
['beep', 0.0, 775.0020354988618, 0.0, 0.0, 0.0, 0.0, 931.2854327303687, 0.0]
['beep', 0.0, 772.7668610533311, 0.0, 0.0, 0.0, 0.0, 931.2854327303687, 0.0]
['beep', 0.0, 773.4597651314456, 0.0, 0.0, 0.0, 0.0, 930.1901972520587, 0.0]
['beep', 0.0, 774.1526692095601, 0.0, 0.0, 0.0, 0.0, 931.2630809859135, 0.0]
['beep', 0.0, 776.4548988884568, 0.0, 0.0, 0.0, 0.0, 928.9384995625616, 0.0]
['beep', 0.0, 776.0749192327165, 0.0, 0.0, 0.0, 0.0, 928.4020576956342, 0.0]
['beep', 0.0, 775.3596634101467, 0.0, 0.0, 0.0, 0.0, 930.3466594632458, 0.0]
['beep', 0.0, 773.3256546647137, 0.0, 0.0, 0.0, 0.0, 931.3748397081899, 0.0]
['beep', 0.0, 773.9738552539177, 0.0, 0.0, 0.0, 0.0, 933.4312001980783, 0.0]
['beep', 0.0, 778.2430384448813, 0.0, 0.0, 0.0, 0.0, 933.9899938094609, 0.0]
['beep', 0.0, 779.897067534574, 0.0, 0.0, 0.0, 0.0, 932.9394618200615, 0.0]
['beep', 0.0, 781.0370065017947, 0.0, 0.0, 0.0, 0.0, 931.8218745972962, 0.0]
['beep', 0.0, 782.4675181469344, 0.0, 0.0, 0.0, 0.0, 931.1289705191816, 0.0]
['beep', 0.0, 778.6900733339875, 0.0, 0.0, 0.0, 0.0, 931.955985064028, 0.0]
['beep', 0.0, 769.6152650851328, 0.0, 0.0, 0.0, 0.0, 929.1843687515699, 0.0]
['beep', 0.0, 766.3742621391133, 0.0, 0.0, 0.0, 0.0, 927.2174152395029, 0.0]
['beep', 0.0, 765.5248958498116, 0.0, 0.0, 0.0, 0.0, 922.4788454149777, 0.0]
['beep', 0.0, 768.8776575181076, 0.0, 0.0, 0.0, 0.0, 925.473979171989, 0.0]
['beep', 0.0, 769.1905819404819, 0.0, 0.0, 0.0, 0.0, 926.9044908171286, 0.0]
['beep', 0.0, 770.3305209077026, 0.0, 0.0, 0.0, 0.0, 925.6527931276314, 0.0]
['beep', 0.0, 771.4704598749232, 0.0, 0.0, 0.0, 0.0, 922.7247146039862, 0.0]
['beep', 0.0, 766.7318900503982, 0.0, 0.0, 0.0, 0.0, 921.0036302809275, 0.0]
['beep', 0.0, 767.2906836617808, 0.0, 0.0, 0.0, 0.0, 918.4108279241119, 0.0]
['beep', 0.0, 769.3246924072138, 0.0, 0.0, 0.0, 0.0, 921.8082930813185, 0.0]
['beep', 0.0, 770.3752243966132, 0.0, 0.0, 0.0, 0.0, 925.8986623166397, 0.0]
['beep', 0.0, 771.4257563860126, 0.0, 0.0, 0.0, 0.0, 924.6469646271426, 0.0]
['beep', 0.0, 768.4082708845463, 0.0, 0.0, 0.0, 0.0, 921.5400721478549, 0.0]
['beep', 0.0, 767.1342214505937, 0.0, 0.0, 0.0, 0.0, 919.7519325914303, 0.0]
['beep', 0.0, 769.3470441516691, 0.0, 0.0, 0.0, 0.0, 921.405961681123, 0.0]
['beep', 0.0, 772.4092331420462, 0.0, 0.0, 0.0, 0.0, 918.7461040909415, 0.0]
['beep', 0.0, 773.0574337312501, 0.0, 0.0, 0.0, 0.0, 919.4166564246007, 0.0]
['beep', 0.0, 770.3752243966132, 0.0, 0.0, 0.0, 0.0, 923.0599907708157, 0.0]
['beep', 0.0, 768.9670644959289, 0.0, 0.0, 0.0, 0.0, 923.2611564709135, 0.0]
['beep', 0.0, 770.7105005634428, 0.0, 0.0, 0.0, 0.0, 924.9375373050616, 0.0]
['beep', 0.0, 772.0516052307612, 0.0, 0.0, 0.0, 0.0, 922.9929355374499, 0.0]
['beep', 0.0, 774.6444075875769, 0.0, 0.0, 0.0, 0.0, 921.6294791256761, 0.0]
['beep', 0.0, 772.6551023310545, 0.0, 0.0, 0.0, 0.0, 923.8646535712069, 0.0]
['beep', 0.0, 770.1070034631496, 0.0, 0.0, 0.0, 0.0, 922.9258803040839, 0.0]
['beep', 0.0, 770.4422796299791, 0.0, 0.0, 0.0, 0.0, 921.7635895924079, 0.0]
['beep', 0.0, 772.7221575644205, 0.0, 0.0, 0.0, 0.0, 922.4564936705225, 0.0]
['beep', 0.0, 772.5656953532333, 0.0, 0.0, 0.0, 0.0, 921.6294791256761, 0.0]
['beep', 0.0, 771.7163290639317, 0.0, 0.0, 0.0, 0.0, 922.0988657592376, 0.0]
['beep', 0.0, 771.5598668527444, 0.0, 0.0, 0.0, 0.0, 922.7694180928968, 0.0]
['beep', 0.0, 771.6492738305657, 0.0, 0.0, 0.0, 0.0, 922.9258803040839, 0.0]
['beep', 0.0, 774.219724442926, 0.0, 0.0, 0.0, 0.0, 921.5624238923102, 0.0]
['beep', 0.0, 776.5890093551886, 0.0, 0.0, 0.0, 0.0, 922.1659209926034, 0.0]
['beep', 0.0, 774.0409104872836, 0.0, 0.0, 0.0, 0.0, 922.4117901816119, 0.0]
['beep', 0.0, 770.4869831188897, 0.0, 0.0, 0.0, 0.0, 922.5906041372543, 0.0]
['beep', 0.0, 770.6434453300769, 0.0, 0.0, 0.0, 0.0, 923.1046942597263, 0.0]
['beep', 0.0, 773.1691924535266, 0.0, 0.0, 0.0, 0.0, 920.668354114098, 0.0]
['beep', 0.0, 774.0856139761942, 0.0, 0.0, 0.0, 0.0, 918.7908075798521, 0.0]
['beep', 0.0, 772.7892127977864, 0.0, 0.0, 0.0, 0.0, 919.1260837466817, 0.0]
['beep', 0.0, 771.4704598749232, 0.0, 0.0, 0.0, 0.0, 921.6518308701314, 0.0]
['beep', 0.0, 771.0681284747277, 0.0, 0.0, 0.0, 0.0, 922.0094587814164, 0.0]
['beep', 0.0, 772.2751226753144, 0.0, 0.0, 0.0, 0.0, 920.1319122471706, 0.0]
['beep', 0.0, 773.3927098980797, 0.0, 0.0, 0.0, 0.0, 920.4448366695449, 0.0]
['beep', 0.0, 772.029253486306, 0.0, 0.0, 0.0, 0.0, 922.5906041372543, 0.0]
['beep', 0.0, 770.6434453300769, 0.0, 0.0, 0.0, 0.0, 922.9705837929945, 0.0]
['beep', 0.0, 772.0739569752166, 0.0, 0.0, 0.0, 0.0, 921.3612581922124, 0.0]
['beep', 0.0, 774.0409104872836, 0.0, 0.0, 0.0, 0.0, 920.0648570138046, 0.0]
['beep', 0.0, 774.9126285210406, 0.0, 0.0, 0.0, 0.0, 919.7295808469751, 0.0]
['beep', 0.0, 774.6891110764875, 0.0, 0.0, 0.0, 0.0, 919.5284151468773, 0.0]
['beep', 0.0, 771.9174947640294, 0.0, 0.0, 0.0, 0.0, 918.8131593243074, 0.0]
['beep', 0.0, 772.5209918643227, 0.0, 0.0, 0.0, 0.0, 918.6566971131202, 0.0]
['beep', 0.0, 774.7338145653981, 0.0, 0.0, 0.0, 0.0, 919.5060634024219, 0.0]
['beep', 0.0, 774.800869798764, 0.0, 0.0, 0.0, 0.0, 918.1873104795588, 0.0]
['beep', 0.0, 773.1021372201607, 0.0, 0.0, 0.0, 0.0, 918.2320139684695, 0.0]
['beep', 0.0, 771.448108130468, 0.0, 0.0, 0.0, 0.0, 919.6178221246985, 0.0]
['beep', 0.0, 772.3868813975909, 0.0, 0.0, 0.0, 0.0, 919.148435491137, 0.0]
['beep', 0.0, 774.2420761873814, 0.0, 0.0, 0.0, 0.0, 919.148435491137, 0.0]
['beep', 0.0, 774.8455732876746, 0.0, 0.0, 0.0, 0.0, 919.8636913137069, 0.0]
['beep', 0.0, 774.9573320099512, 0.0, 0.0, 0.0, 0.0, 919.0590285133158, 0.0]
['beep', 0.0, 772.5433436087781, 0.0, 0.0, 0.0, 0.0, 917.6732203570867, 0.0]
['beep', 0.0, 769.1011749626607, 0.0, 0.0, 0.0, 0.0, 917.1144267457041, 0.0]
['beep', 0.0, 771.4257563860126, 0.0, 0.0, 0.0, 0.0, 920.2436709694471, 0.0]
['beep', 0.0, 773.124488964616, 0.0, 0.0, 0.0, 0.0, 921.1153890032041, 0.0]
['beep', 0.0, 769.414099385035, 0.0, 0.0, 0.0, 0.0, 921.6518308701314, 0.0]
['beep', 0.0, 768.0506429732612, 0.0, 0.0, 0.0, 0.0, 921.7635895924079, 0.0]
['beep', 0.0, 767.3577388951468, 0.0, 0.0, 0.0, 0.0, 920.9142233031063, 0.0]
['beep', 0.0, 769.704672062954, 0.0, 0.0, 0.0, 0.0, 921.473016914489, 0.0]
['beep', 0.0, 772.0069017418506, 0.0, 0.0, 0.0, 0.0, 923.8199500822963, 0.0]
['beep', 0.0, 769.995244740873, 0.0, 0.0, 0.0, 0.0, 921.9200518035951, 0.0]
['beep', 0.0, 768.318863906725, 0.0, 0.0, 0.0, 0.0, 920.7801128363744, 0.0]
['beep', 0.0, 769.414099385035, 0.0, 0.0, 0.0, 0.0, 921.987107036961, 0.0]
['beep', 0.0, 770.9116662635406, 0.0, 0.0, 0.0, 0.0, 922.3000314593353, 0.0]
['beep', 0.0, 772.0963087196718, 0.0, 0.0, 0.0, 0.0, 921.9424035480504, 0.0]
['beep', 0.0, 768.8553057736524, 0.0, 0.0, 0.0, 0.0, 922.4341419260671, 0.0]
['beep', 0.0, 766.5307243503004, 0.0, 0.0, 0.0, 0.0, 921.987107036961, 0.0]
['beep', 0.0, 768.0059394843506, 0.0, 0.0, 0.0, 0.0, 921.5177204033996, 0.0]
['beep', 0.0, 771.9845499973953, 0.0, 0.0, 0.0, 0.0, 921.3165547033018, 0.0]
['beep', 0.0, 772.9456750089736, 0.0, 0.0, 0.0, 0.0, 921.0706855142935, 0.0]
['beep', 0.0, 769.2129336849373, 0.0, 0.0, 0.0, 0.0, 920.7577610919192, 0.0]
['beep', 0.0, 766.7095383059428, 0.0, 0.0, 0.0, 0.0, 919.9307465470728, 0.0]
['beep', 0.0, 766.6201313281216, 0.0, 0.0, 0.0, 0.0, 920.1989674805365, 0.0]
['beep', 0.0, 769.3917476405798, 0.0, 0.0, 0.0, 0.0, 920.310726202813, 0.0]
['beep', 0.0, 769.6599685740434, 0.0, 0.0, 0.0, 0.0, 920.0425052693494, 0.0]
['beep', 0.0, 768.3412156511803, 0.0, 0.0, 0.0, 0.0, 920.9365750475616, 0.0]
['beep', 0.0, 767.6259598286105, 0.0, 0.0, 0.0, 0.0, 921.1153890032041, 0.0]
['beep', 0.0, 767.2906836617808, 0.0, 0.0, 0.0, 0.0, 920.6236506251873, 0.0]
['beep', 0.0, 767.9835877398954, 0.0, 0.0, 0.0, 0.0, 921.1377407476593, 0.0]
['beep', 0.0, 769.0117679848395, 0.0, 0.0, 0.0, 0.0, 919.7519325914303, 0.0]
['beep', 0.0, 766.3072069057473, 0.0, 0.0, 0.0, 0.0, 919.215490724503, 0.0]
['beep', 0.0, 767.4024423840574, 0.0, 0.0, 0.0, 0.0, 920.2660227139024, 0.0]
['beep', 0.0, 771.0457767302725, 0.0, 0.0, 0.0, 0.0, 919.1260837466817, 0.0]
['beep', 0.0, 765.9719307389178, 0.0, 0.0, 0.0, 0.0, 922.3000314593353, 0.0]
['beep', 0.0, 758.349985879658, 0.0, 0.0, 0.0, 0.0, 933.9899938094609, 0.0]
['beep', 0.0, 760.383994625091, 0.0, 0.0, 0.0, 0.0, 948.6303864276871, 0.0]
['beep', 0.0, 763.4014801265574, 0.0, 0.0, 0.0, 0.0, 961.4826394894886, 0.0]
['beep', 0.0, 763.2673696598256, 0.0, 0.0, 0.0, 0.0, 977.2406193304801, 0.0]
['beep', 0.0, 759.9369597359848, 0.0, 0.0, 0.0, 0.0, 992.1268811377146, 0.0]
