[[-44553.62046404129, -44692.38009361984, -44779.48484176217, -44673.626980021836, -44500.244498282016, -44476.86457358177, -44614.17133977072, -44701.164329190775, -44596.28994420647, -44422.706296766555, -44398.63346798819, -44536.23080685506, -44625.391915487286, -44522.23861482604, -44349.45963018652, -44325.52091187488, -44463.408823419675, -44554.15690590822, -44452.32235816984, -44278.80576596329, -44253.66005345107, -44392.442034774074, -44484.84414635231, -44382.8754881472, -44206.31905869473, -44178.35702638114, -44317.25076642642, -44410.546947782874, -44308.84651051123, -44130.85956941362, -44101.86935685508, -44243.62412019064, -44341.34594694924, -44239.71256491096, -44059.28928366772, -44031.81898973215, -44179.51931709282, -44282.49380379842, -44181.598029327164, -43999.3866085275, -43974.46441345983, -44132.49124675885, -44247.28980628131, -44148.808020211225, -43964.249666243755, -43945.228331712286, -44119.527234974776, -44247.33450977022, -44148.517447533304, -43959.19817199685, -43952.783221338184, -44160.207409883435, -44285.01955092187, -44061.18918194642, -43788.54260308058, -43917.98155522127, -44361.753089636935, -44599.64270587477, -44394.051360374855, -44118.25318554082, -44247.155695814574, -44690.97193371916, -44920.59140450852, -44685.428701094235, -44365.105851305234, -44455.18338146012, -44882.571087190045, -45090.77758679123, -44800.40607457234, -44395.12424410871, -44401.89682267867, -44750.82990537047, -44875.865563853455, -44469.51084965597, -43921.334316889566, -43789.391969369884, -44025.78401872922, -44023.1912163724, -43473.80768940541, -42794.18054749734, -42580.78844318252, -42784.30107644809, -42771.82880304204, -42198.43950253004, -41487.76578757355, -41252.960712070555, -41459.15555467076, -41469.526764098024, -40910.755504459805, -40217.806722856374, -40049.54279059682, -40382.53907949199, -40543.4716395702, -40131.93132065908, -39578.904459345875, -39551.992959021685, -40023.391249584114, -40297.35658137281, -39961.40986220955, -39458.741481154146, -39480.19915583124, -40000.21249058396, -40309.15830244521, -39983.78395840931, -39477.82987091898, -39500.09220839646, -40032.689575277516, -40348.56442791992, -40013.62353725714, -39486.81527219001, -39494.325458326995, -40022.0948484057, -40338.72966035958, -40009.51081627737, -39501.14274038586, -39547.14263047488, -40133.87592242669, -40507.798255419526, -40207.83784482931, -39703.269565495204, -39746.967225905326, -40335.466305669106, -40709.58980436204, -40396.933602921206, -39870.79589018773, -39898.62381203459, -40483.85953710789, -40856.55252415568, -40536.386136577865, -39998.089074860705, -40022.4971798059, -40612.69499214828, -40994.708656633935, -40678.14089991342, -40137.631015495186, -40159.40161459465, -40755.746156662244, -41143.37010900618, -40824.36601214004, -40271.67442699366, -40284.75019750002, -40880.35713200059, -41269.00926458946, -40944.97602522088, -40382.69554170317, -40385.84713767137, -40979.397711682046, -41368.07219601538, -41038.339261810695, -40464.63703687633, -40460.70312985219, -41052.97965442892, -41444.06812716343, -41111.742390601925, -40532.63104350937, -40522.326889315475, -41112.502349913404, -41502.6967528697, -41168.47111802949, -40580.68729408828, -40562.69413980176, -41149.069803842285, -41541.83465741094, -41206.759656281436, -40614.21491077124, -40588.84568081447, -41174.99782741044, -41569.52846879107, -41235.52635139541, -40637.125448837935, -40606.21298625624, -41188.74415025046, -41584.750006765134, -41248.7362323685, -40645.440297775305, -40606.70472463426, -41187.62656302769, -41583.99004745365, -41250.01028180245, -40643.562751241065, -40600.982678053704, -41179.04349315685, -41578.46916657319, -41246.4340026896, -40639.69589945029, -40593.830119828, -41172.494432031446, -41575.876364216376, -41249.54089516889, -40641.41698377335, -40591.527890149104, -41167.19706859554, -41572.52360254808, -41245.3834707002, -40634.33148078102, -40576.55222136405, -41148.086327086254, -41552.6081982384, -41226.943281524575, -40610.638631658396, -40545.63975878236, -41111.27300396836, -41516.5995379209, -41189.7723304954, -40570.20432593874, -40498.09759832592, -41060.53454405481, -41464.92230474023, -41140.15145780462, -40517.1636363463, -40439.983062742125, -40997.368514224116, -41404.304373777435, -41081.65694256508, -40458.26678970656, -40376.12412883331, -40932.995490192836, -41341.58537883584, -41023.02831685881, -40397.55945176595, -40311.616994335294, -40864.6438556485, -41276.742968171, -40961.94099926246, -40338.10381151483, -40249.613255216274, -40804.204738641354, -41219.72366806551, -40910.21906259288, -40285.97954344506, -40194.91853653414, -40746.78310713567, -41166.124184861685, -40858.810050345666, -40233.6988131641, -40135.664061983116, -40684.08646393853, -41101.70645734149, -40796.448683315364, -40167.60470480975, -40063.3561686702, -40606.39180021189, -41027.38690702759, -40723.9619760468, -40095.27445975238, -39987.181423566515, -40530.46292429721, -40954.07318521418, -40656.81733570306, -40028.37568859765, -39918.673326811, -40460.21139147418, -40887.71085592638, -40592.35490469395, -39963.15329827706, -39847.88535212104, -40387.6352772278, -40816.721715536325, -40526.529017273075, -39897.39446608954, -39779.82429025463, -40318.00959324952, -40752.92983686088, -40467.47570842215, -39839.9057793505, -39718.312289513626, -40256.475240764055, -40692.91540299838, -40411.77516123953, -39782.551203078176, -39657.38143412846, -40191.25285044347, -40630.486980734706, -40351.13487853228, -39721.799161648654, -39590.90734611837, -40123.19178857706, -40563.00706422413, -40287.49946206802, -39656.55441958361, -39523.762705774636, -40054.54958135481, -40498.835205892945, -40226.79212412741, -39596.383523509925, -39458.49561196513, -39987.29318228879, -40433.90338825028, -40166.68828328708, -39534.91622625783, -39394.189643167214, -39920.59557683415, -40370.24562004157, -40104.55043370133, -39473.314818539, -39327.581444690404, -39852.26629403428, -40303.07862795337, -40041.87614224865, -39408.22653868515, -39258.55925781241, -39780.69600828839, -40235.57635969834, -39977.458414728455, -39345.485191999105, -39192.39809422471, -39713.73018190029, -40170.80100426686, -39916.99694597685, -39283.41439764672, -39127.33216611531, -39645.49030607824, -40105.28804126836, -39854.52382022427, -39221.2094928276, -39059.80754611582, -39576.64693315589, -40038.52338058035, -39793.07887471663, -39160.18923046461, -38996.216833140476, -39510.70928701273, -39975.849089127674, -39732.95268213185, -39099.884223924186, -38931.17325677553, -39443.989329813645, -39911.61017556312, -39673.31822792509, -39038.88631330566, -38867.31432286672, -39377.40348308128, -39847.59477944312, -39611.71682020627, -38977.687236987025, -38801.19786276792, -39309.25301423705, -39780.56189782166, -39549.22134270923, -38914.58826238969, -38734.56731254665, -39239.917902936686, -39715.31715575662, -39487.50817626812, -38853.50094479334, -38669.18846001488, -39173.04148352641, -39650.072413691574, -39427.1584662388, -38792.212461496885, -38604.54721505013, -39105.67332573811, -39585.341761749005, -39364.86415444186, -38730.81221947816, -38539.704804385285, -39040.22741797297, -39523.49448484117, -39308.917738070224, -38675.55870718464, -38482.52904206861, -38981.19646086651, -39467.65982719181, -39257.2181531451, -38624.30615714862, -38426.35910825242, -38923.305442727265, -39412.04868698701, -39205.56327170888, -38572.18188907884, -38370.77031979207, -38864.69916876545, -39356.21402933765, -39152.23200943852, -38518.53770238611, -38313.16987433075, -38803.880072102555, -39295.707857097135, -39095.19035758857, -38460.1772976133, -38250.070899733415, -38737.2942253702, -39231.111315621296, -39034.035984758855, -38400.386381195356, -38186.07785535787, -38671.781262371696, -39168.057044512876, -38975.11678637467, -38340.751926988596, -38123.8505987943, -38607.43059008486, -39106.34387807177, -38917.56104440225, -38284.112606538845, -38062.986798642494, -38543.884580598424, -39044.787173841854, -38860.13941289657, -38226.24394014406, -38001.0724665013, -38479.511556567144, -38983.58809752323, -38802.24839475732, -38169.00112259402, -37940.63334949414, -38418.200721526235, -38924.87006483914, -38748.85007725359, -38116.63098533523, -37885.916279067555, -38361.06966269847, -38870.35416011264, -38698.245727806774, -38066.71953996653, -37832.495609819365, -38304.65385969327, -38815.59238619714, -38647.3731574265, -38014.885844574674, -37775.49866145833, -38243.52183860801, -38754.86269651207, -38589.146863120426, -37956.860715968694, -37712.667907794465, -38177.718302931586, -38691.51785272573, -38529.13242925792, -37896.2427850059, -37648.51840120774, -38111.40067713269, -38627.21188392781, -38468.827422717506, -37836.38481335459, -37585.4194266104, -38046.424156001114, -38565.76693842017, -38413.08217204597, -37782.517109217304, -37529.04832709412, -37988.22021343949, -38510.11109472646, -38361.18142142075, -37730.32578591416, -37473.303076422584, -37930.955044145, -38455.14815511086, -38309.973574873635, -37680.70491322338, -37420.15062810786, -37873.823985317234, -38397.90533756081, -38256.75407132555, -37628.290072475684, -37364.941819303254, -37816.29059508927, -38344.21644737917, -38207.17790212368, -37579.11623467401, -37311.96818494418, -37760.992379306845, -38289.789949630496, -38156.57355267686, -37528.69069918284, -37257.429928473226, -37703.48134082334, -38234.64819605925, -38104.8963194962, -37476.588782857514, -37200.70120104566, -37643.9362935944, -38176.69012268664, -38051.54270548138, -37424.66568048784, -37146.140592830256, -37586.224089410796, -38120.43078189263, -37999.2172717115, -37373.03315079607, -37090.9541357701, -37528.51188522719, -38065.66900797713, -37948.344701331225, -37321.87000773788, -37036.08060313232, -37471.067901977054, -38008.98498403847, -37894.05231404928, -37267.845841389404, -36978.54721290436, -37411.20993032574, -37951.56335253279, -37841.6821767905, -37216.70505007566, -36924.05365992233, -37354.36944417589, -37897.449779206494, -37792.418932011, -37169.74403497506, -36875.55037445431, -37304.413295318285, -37849.52763909431, -37748.050719267216, -37125.44287746464, -36826.801219797286, -37251.93139933722, -37798.34214429166, -37701.492035566815, -37080.91820250967, -36779.61668725213, -37202.824616768914, -37752.6104751361, -37660.47658449133, -37040.707414234574, -36736.34370998666, -37155.97536039059, -37705.492997824316, -37615.54957813616, -36995.44513171257, -36686.38756112904, -37102.57704288686, -37653.4357849879, -37566.62160952349, -36945.51133459942, -36632.2963395472, -37045.80361197038, -37598.04816222765, -37515.19024553183, -36896.18103458655, -36579.456815654856, -36988.694904887074, -37542.54878074513, -37464.22826817373, -36845.442574673005, -36525.27618709519, -36932.435564093066, -37488.01052427418, -37412.99806988217, -36795.531129304305, -36472.615477158484, -36878.187880300036, -37436.42269807133, -37366.72995885968, -36750.76058516033, -36425.58740682452, -36827.985862253416, -37388.16528179232, -37322.24998739362, -36705.99004101635, -36377.73232194571, -36777.8285476957, -37339.52788585757, -37278.552326983496, -36664.14757539601, -36331.59832138995, -36728.54295117175, -37291.896318423314, -37234.564093895446, -36622.506275475775, -36288.07947493547, -36682.58776457164, -37248.265713246554, -37195.53794807648, -36583.368370934535, -36243.666558702775, -36633.972720381345, -37199.404799867254, -37147.77227017549, -36536.027376178194, -36192.74928483359, -36578.98742902129, -37145.11241258531, -37098.173749229165, -36486.13828255395, -36138.43454580719, -36521.16346611542, -37088.78601655793, -37045.44598405909, -36435.89156101842, -36086.13146378177, -36466.51345092219, -37036.304120576875, -36998.484968958495, -36390.02578139613, -36037.42701261366, -36416.22202589775, -36988.98547756499, -36955.279046926385, -36348.98797857618, -35993.37172429225, -36368.79162416358, -36942.58325607577, -36913.57069177279, -36308.01723098961, -35949.47289818202, -36321.540036385064, -36896.67277296457, -36870.4541767185, -36265.57126826898, -35904.36707787122, -36275.29427710704, -36852.68453987653, -36831.76330706636, -36229.60731144039, -35866.32440880828, -36233.250645786604, -36810.12681843362, -36791.351353091166, -36188.18952896471, -35819.78807685233, -36182.91451727325, -36761.93645738798, -36747.96661710341, -36146.05649066645, -35774.12346293014, -36134.14301087177, -36713.34376494215, -36701.20676770291, -36100.011897088516, -35725.32960478421, -36082.532832924466, -36663.72289225136, -36657.01736891477, -36056.26953318948, -35677.832147816676, -36031.54850382191, -36613.31970850464, -36609.45285671388, -36009.956718678084, -35628.70301350392, -35979.02190435194, -36562.22362067981, -36563.25180092476, -35965.722616401035, -35581.60788793658, -35930.11628748373, -36515.86610267951, -36521.40933530442, -35926.33884267078, -35540.726547327824, -35885.72572299549, -36472.280200991656, -36481.578526685065, -35886.70919975152, -35497.185349128886, -35839.47996371746, -36427.55436033659, -36441.07716573205, -35848.554771966315, -35455.87932537548, -35794.37414340665, -36383.141444103894, -36400.754618734674, -35808.768666835866, -35411.53346437615, -35746.00496840537, -36334.14642025786, -36353.078347811504, -35762.09822441319, -35362.35962657447, -35692.42783694599, -36281.016323687596, -36303.97156524319, -35713.483180222895, -35310.99531781618, -35638.98481595336, -36229.56260795148, -36256.94349490923, -35668.48911863436, -35263.7213782932, -35589.34159151812, -36182.19926145068, -36214.87751184434, -35628.97123443738, -35221.811857439505, -35546.00155901928, -36141.027348164, -36177.39363639279, -35592.6496496975, -35182.56219417598, -35502.415657331425, -36097.19557728715, -36137.78634521799, -35555.836326579614, -35143.60310359039, -35460.39437775545, -36056.85067854532, -36101.889443622764, -35520.878198251514, -35105.22515836062, -35418.73072609076, -36016.57283503686, -36066.08194900536, -35487.372933313, -35068.70240792065, -35378.22936513774, -35974.864479883254, -36025.51353281898, -35445.865743859504, -35023.6636428432, -35329.10023082498, -35926.11532522623, -35981.27943054193, -35403.28567067214, -34977.23906960953, -35279.188785456274, -35876.44974904654, -35934.4301741636, -35357.643408494405, -34929.27222600844, -35227.77977320907, -35825.62188215517, -35887.89384220765, -35312.9846230727, -34881.12656845171, -35177.04131329552, -35776.78332052032, -35843.52562946387, -35270.58336384098, -34836.78070745238, -35129.29798713899, -35730.470506008925, -35801.70551558799, -35231.42310755529, -34794.71472438749, -35083.99100112808, -35686.16934849851, -35762.5899627912, -35194.16274954829, -34755.21919193497, -35041.522686663, -35644.52804857827, -35724.30142453926, -35158.35525493089, -34716.30480483828, -34998.74144777554, -35602.64087946903, -35686.54932815425, -35121.988966702105, -34677.211603785945, -34955.803746676895, -35559.74788185929, -35647.03144395727, -35083.40985577224, -34634.653882343046, -34908.552158898376, -35513.50212258126, -35605.16662659247, -35043.31082621942], [-44481.33492247283, -44356.723947134495, -44296.62010629417, -44354.06408954431, -44422.84040723329, -44378.71806367851, -44256.2975592968, -44195.09848297817, -44252.81068716177, -44321.74346706193, -44279.34220783022, -44156.429965070485, -44096.01319980779, -44154.12773539159, -44223.86517809214, -44181.3298083937, -44058.059937722675, -43994.75979742525, -44050.61680681906, -44119.46017974141, -44077.46125190989, -43953.29731146066, -43890.37715081897, -43945.78712532367, -44014.20581510136, -43972.206887269844, -43849.518161954664, -43785.32395187902, -43840.30924323908, -43909.845520239534, -43869.455918008796, -43745.69430895976, -43679.577848860965, -43732.99851810915, -43802.825367787525, -43762.03343415659, -43637.62362451835, -43570.74720510808, -43623.43026678923, -43691.670142611285, -43650.40882234679, -43524.032059196485, -43453.93698858464, -43504.317820586904, -43573.92115282073, -43532.99510872306, -43404.91961299415, -43331.24826326946, -43380.80208072688, -43451.29948273891, -43411.66983981965, -43280.532155100365, -43175.72482534943, -43106.14384486006, -43056.94765531393, -43033.411268402495, -43011.864186747574, -42968.43474727091, -42908.621479108515, -42861.92868494138, -42842.75088819872, -42825.651803690416, -42784.68105610384, -42726.03007865311, -42683.651171165846, -42669.658979136824, -42657.857258064425, -42620.68630703525, -42569.9478471217, -42539.75064036258, -42544.64567239829, -42553.966349836155, -42537.046079283486, -42509.62048883682, -42510.58161384841, -42549.205428267174, -42591.76314971008, -42610.82918773046, -42619.90399597931, -42655.82324931899, -42723.61609025193, -42785.53042239314, -42818.25337627571, -42840.64982421992, -42891.36593238902, -42973.39683453999, -43047.91755055399, -43085.28966728326, -43111.53061527379, -43161.73263332041, -43232.94529115502, -43281.292114411845, -43285.069559224794, -43273.066672452296, -43286.03068423637, -43320.78764686437, -43334.89159761567, -43307.75657984693, -43271.34558812924, -43264.68476828156, -43282.968495245994, -43280.77802428938, -43241.260140092396, -43196.55665118178, -43184.93374406502, -43197.271907004346, -43190.141700523105, -43146.220522668424, -43100.13122560158, -43089.469443496404, -43104.66862972601, -43098.16427208952, -43054.62307389058, -43007.86322449007, -42995.25684061728, -43001.805901742686, -42982.98573291132, -42925.69821187237, -42870.802327490135, -42853.01033890371, -42858.77708897318, -42837.878207907466, -42780.680093846335, -42727.30412808706, -42714.07189536952, -42722.833779196, -42702.96307837523, -42645.340281169454, -42593.61834449987, -42582.28601006103, -42589.840899686926, -42567.75737616508, -42507.675887069214, -42454.21051433212, -42443.21345606011, -42449.40488927423, -42423.07453430588, -42359.975559708546, -42307.739532916494, -42298.97764909001, -42306.979573605015, -42280.1798320031, -42218.57842428427, -42167.61644692617, -42160.73210963394, -42169.91867660507, -42143.4989146589, -42082.076320895714, -42035.13765753957, -42033.5730354277, -42046.20177104494, -42020.899596321535, -41960.706348503394, -41916.53930145971, -41916.047563081695, -41929.68212719943, -41906.34690598809, -41847.405355859446, -41803.841805916054, -41806.45696001732, -41821.946718924846, -41798.70090469133, -41739.28996792912, -41696.35226683048, -41699.68267675432, -41717.20644440728, -41693.8935749404, -41635.510818423136, -41594.58477432546, -41600.44093137276, -41617.584719369974, -41595.07651270348, -41537.36430851988, -41496.84059582241, -41502.76380810307, -41522.32158450146, -41501.02037203555, -41444.090478907885, -41404.05850458843, -41410.49580699156, -41427.75135371106, -41404.43848424417, -41345.67574807117, -41305.01792490696, -41309.42121856466, -41326.05091643941, -41301.55340451639, -41240.7343078535, -41195.986115453976, -41199.85296724474, -41215.52154010791, -41191.649877029646, -41131.50133270041, -41089.48005312444, -41093.3022014263, -41111.42946617955, -41089.591811846716, -41032.79602918578, -40992.182909510484, -40999.00019156936, -41019.89907263507, -41002.73293289339, -40947.47942059987, -40909.25793758129, -40917.79630396322, -40941.086821685654, -40925.0606209112, -40872.60107667459, -40834.491352378296, -40843.87908504952, -40868.01896906125, -40855.434936932914, -40803.19891014086, -40765.133889333476, -40772.84524117056, -40797.94625019387, -40784.31168607613, -40734.087316285055, -40696.62579257796, -40706.37115316047, -40729.95224356082, -40716.25062420972, -40663.120527639454, -40623.75910565366, -40629.23528304521, -40652.70461472328, -40637.974815127236, -40584.46473890123, -40542.97990119218, -40549.43955533976, -40570.584305594486, -40555.42982285379, -40501.38330476085, -40460.39020542982, -40464.167650242765, -40486.29587725352, -40471.34256021292, -40419.486513076605, -40378.00167536756, -40385.601268482365, -40409.070600160434, -40396.33010582091, -40343.62469239529, -40302.676296553174, -40306.1631686882, -40329.453686410634, -40316.15439845972, -40264.298351323414, -40220.77950486893, -40224.91457759316, -40247.10985983728, -40234.97286259805, -40182.490966616984, -40141.29670158586, -40144.76122197643, -40168.454071099055, -40156.89821921566, -40106.852663380225, -40063.49027913693, -40066.97715127196, -40089.30654398281, -40077.92950605506, -40024.55354029579, -39980.63236244111, -39980.900583374576, -40003.3417348077, -39991.69647594648, -39940.01924276582, -39894.84636722164, -39896.54509980024, -39917.533387843774, -39907.676268538984, -39855.14966906902, -39810.75910458078, -39810.33442143613, -39833.31201473618, -39822.337308208625, -39772.51526981775, -39727.252987295746, -39728.59409196307, -39750.118821873526, -39740.82049618012, -39689.14326299945, -39644.976215955765, -39644.08214617755, -39666.67975982187, -39656.509716094704, -39607.22411957075, -39562.07359577103, -39563.30294171607, -39585.632334426926, -39577.07161630054, -39524.54501683057, -39479.30508605303, -39478.00868487462, -39500.94157468576, -39491.26326933662, -39441.06125129, -39394.23434665613, -39393.63084955583, -39414.77559981056, -39406.46075087318, -39355.31995955944, -39310.61647064883, -39308.6271653923, -39331.157723803255, -39321.32295624292, -39271.81384227441, -39225.165751596185, -39223.89170216223, -39244.879990205765, -39237.258045346505, -39186.76545462197, -39140.96673023304, -39138.37392787623, -39161.060948498365, -39152.41082339416, -39103.57226175931, -39056.477136191985, -39054.666644891106, -39074.82791838979, -39066.80364213033, -39015.52874034986, -38969.014760138365, -38965.1479083476, -38987.00791442489, -38978.4024928096, -38929.452172452475, -38881.73119804039, -38878.89252649457, -38899.389076160085, -38892.75060805686, -38843.800287699734, -38798.225080755365, -38794.13471152004, -38816.21823504189, -38809.132732049555, -38761.63527508203, -38714.04841113668, -38710.919166912936, -38732.801524734685, -38726.76655373175, -38677.25743976324, -38631.32460490759, -38626.541331594155, -38649.0718900051, -38642.45577364633, -38595.18183412336, -38547.63967366692, -38545.33744398802, -38567.21980180977, -38562.05654884059, -38513.687373839304, -38467.57572502801, -38462.70304473675, -38484.80892000305, -38478.30456236655, -38431.343547265955, -38384.20371820971, -38381.45445364171, -38402.86742482989, -38398.285317216556, -38350.20671489319, -38304.184473059715, -38299.40119974628, -38321.64118547931, -38314.95801388717, -38267.37114994182, -38218.37612609579, -38214.57632953839, -38236.25752166004, -38232.14480068026, -38184.13325359026, -38137.105183256295, -38131.60665412029, -38154.003102064504, -38149.331587473345, -38102.9964212175, -38054.1355078382, -38049.68751069159, -38071.592220257786, -38068.865307434244, -38021.90429233364, -37974.965628977494, -37968.975361463476, -37992.19882395254, -37988.555489606326, -37943.4049658066, -37895.572232672246, -37891.146587270094, -37913.520683469855, -37911.3972677466, -37864.90563927956, -37817.22936835639, -37812.24492934286, -37836.92125522152, -37834.12728716461, -37788.44032149796, -37740.13820173004, -37735.77961156126, -37757.30434147172, -37754.59978039262, -37707.19173040292, -37658.93431412391, -37652.67582567642, -37675.85458467658, -37672.83709917511, -37626.83720908609, -37576.568135806105, -37570.421406080895, -37591.85672901353, -37589.39803712345, -37542.39231853394, -37493.441998176815, -37485.820053317555, -37508.32825998405, -37505.75780937169, -37459.60145707148, -37409.7794186806, -37404.0797238445, -37426.25265434416, -37424.509218276646, -37379.17988052129, -37332.04005146505, -37326.34035662894, -37350.83786855196, -37350.05555749602, -37305.82145521897, -37256.98289358412, -37251.88669584831, -37275.870117648854, -37276.093635093406, -37231.211332227154, -37183.043322925965, -37176.80718622293, -37201.17058767922, -37200.656497556745, -37156.84707842435, -37107.65088887822, -37101.325345197365, -37124.77232513098, -37126.15813328721, -37082.035789732436, -37033.577207753326, -37026.69287046109, -37050.0951469058, -37048.91050444967, -37003.89409111668, -36953.89323877016, -36946.7183288, -36968.98066627749, -36969.49475639996, -36924.85832272271, -36875.505670965395, -36867.66020866158, -36891.12954033966, -36891.42011301757, -36847.7448043519, -36797.74395200538, -36790.12200714612, -36812.40669636807, -36813.27841440182, -36769.08901561368, -36719.31168071171, -36709.5663201292, -36731.11340178411, -36731.53808492876, -36687.907479752, -36637.57135123865, -36629.16709532346, -36650.98239791184, -36651.60824675659, -36607.061220057156, -36556.90390549945, -36547.44911759486, -36569.3314754166, -36570.225545194815, -36528.763059230216, -36478.09165455004, -36467.96631431178, -36490.04983783363, -36492.59793670153, -36450.28608444764, -36400.128769889925, -36390.45046454078, -36412.95867120727, -36415.797342753096, -36374.87129865543, -36325.876274809394, -36315.79563806005, -36338.90734182684, -36342.170696517314, -36299.99295473015, -36249.58977098343, -36239.352672022906, -36261.81617520049, -36264.49838453512, -36222.298291003506, -36171.671589812235, -36160.11573792884, -36181.34989516138, -36183.897994029285, -36141.58614177539, -36090.512405695015, -36079.314181722904, -36100.928318611186, -36103.69993492364, -36062.08098674786, -36012.16954137916, -35999.80902669537, -36020.998480439004, -36023.74774500701, -35980.87709914173, -35929.088107238786, -35917.129923955195, -35938.8334678213, -35942.38739518969, -35901.52840632539, -35851.43814700105, -35839.30114976181, -35861.98817038396, -35866.45851927502, -35825.063088543786, -35774.45873909697, -35763.99812269189, -35786.327515402736, -35790.41788463806, -35750.29650334078, -35700.966203327924, -35688.89626132206, -35711.56093019974, -35716.05363083525, -35674.9711245264, -35623.40565006801, -35610.9557284064, -35632.77103099478, -35636.90610371901, -35596.80707416619, -35546.806221819665, -35533.57398910213, -35555.076367268135, -35559.9937510483, -35519.17946567291, -35467.88221214798, -35455.40993874192, -35477.00172388575, -35482.075569877095, -35441.28363624616, -35389.82992051005, -35379.034027938134, -35400.11172295949, -35403.978574750254, -35363.097234141496, -35311.017669560635, -35298.45598917675, -35320.315995254045, -35325.769820901136, -35285.849605303956, -35235.15584887932, -35221.051898128026, -35242.06253791601, -35246.6669972738, -35206.411505509794, -35154.1978304622, -35140.67502506674, -35162.95971428868, -35169.75464460309, -35130.370870872845, -35079.6324109593, -35066.5789921974, -35089.02014363052, -35096.12799836731, -35057.63829441527, -35006.74337229054, -34994.7628372625, -35018.12041021829, -35025.429430655175, -34986.67150576967, -34936.380080745235, -34922.63375790522, -34945.00785410498, -34952.74155768652, -34914.81064734586, -34863.803966498854, -34849.85647795874, -34871.76118752494, -34878.39965562816, -34840.06641388731, -34789.39500920713, -34775.17929973356, -34797.21811976649, -34804.393029736646, -34764.87514553966, -34713.30967108127, -34699.87627266363, -34722.451534563486, -34730.274645122845, -34691.963755126446, -34641.44881265746, -34627.21075143942, -34649.115461005626, -34656.89386807607, -34618.627681568585, -34566.39165477653, -34552.31005576969, -34574.34887580262, -34581.94846891743, -34543.07878530965, -34491.468607362345, -34476.358828110555, -34497.7941510432, -34505.796075558195, -34467.59694428408, -34415.830304125586, -34400.67582138489, -34421.708812917335, -34429.55427522115, -34391.04221952465, -34340.14729739992, -34326.4009745599, -34349.333864371045, -34358.47572785327, -34320.053079134595, -34267.07944477552, -34253.288418446595, -34276.556584424565, -34285.69844790679, -34249.10864223345, -34199.2195486092, -34185.45087402473, -34207.89202545786, -34217.279758129094, -34179.66177221081, -34127.51515239658, -34113.61236734538, -34137.08169902345, -34146.93881832824, -34109.27612892105, -34057.84476492939, -34043.47259324462, -34065.91374467775, -34075.68145700472, -34038.64461644228, -33986.69916232814, -33972.57285983239, -33995.01401126552, -34004.28998521447, -33967.65547605223, -33916.738202183034, -33901.628422931244, -33923.62253947527, -33933.25614133551, -33896.33105949534, -33843.91621874765, -33829.65580578516, -33853.41571014115, -33863.71986433505, -33827.55474180636, -33777.33037201528, -33763.852270108735, -33787.43336050909, -33799.21272983703, -33764.344008486754, -33713.449086362016, -33699.52394956636, -33723.172095200076, -33734.8620575502, -33699.41219084409, -33647.600847196685, -33632.17814352252, -33653.881687388624, -33664.76698693836, -33629.25006499887, -33576.432892850986, -33559.8702502096, -33582.33375338719, -33592.97318374791, -33556.53984028576, -33504.16970302698, -33487.94233655243, -33509.33295599615, -33520.575883457175, -33484.85779581759, -33431.370071336045, -33414.9862426503, -33438.12029816154, -33450.05612970068, -33415.45562928386, -33364.09132052557, -33347.72984358428, -33368.94164907237, -33381.0786463116, -33347.01458776171, -33295.40440981441, -33279.646429973414, -33302.33345059556, -33314.895130979436, -33281.50162476321, -33231.43371718332, -33216.167475720344, -33237.75926086417, -33251.1479557929, -33218.693222843795, -33168.11122514144, -33152.46500402272, -33175.50965255614, -33188.8312922515, -33156.331855813485, -33106.018079044596, -33089.94717478123, -33110.93546282476, -33123.98888158666, -33091.176520726265, -33039.76750847906, -33023.383679793325, -33046.048348671, -33060.129947677844, -33028.09989787339, -32977.62965889331, -32961.1787749742, -32981.921193828726, -32995.756923646564, -32963.324542441915, -32911.714364494605, -32894.77174219749, -32917.01172793051, -32931.026271703995, -32899.10798062181, -32847.78837535243, -32830.26460769947, -32850.11295677578, -32862.69698890412, -32829.728165832545, -32777.290973340394, -32758.135528342194, -32778.989705919, -32792.35604910327, -32759.87896440971, -32708.00056552894, -32689.94035600905, -32710.302795207837, -32724.451449448046, -32693.00254499943, -32640.498297273913, -32622.281625542837, -32643.806355453296, -32658.737320749442, -32627.534285489834, -32576.035866264807, -32558.15447070056]]
[[-39898.62381203459, -40483.85953710789, -40856.55252415568, -40536.386136577865, -39998.089074860705, -40022.4971798059, -40612.69499214828, -40994.708656633935, -40678.14089991342, -40137.631015495186, -40159.40161459465, -40755.746156662244, -41143.37010900618, -40824.36601214004, -40271.67442699366, -40284.75019750002, -40880.35713200059, -41269.00926458946, -40944.97602522088, -40382.69554170317, -40385.84713767137, -40979.397711682046, -41368.07219601538, -41038.339261810695, -40464.63703687633, -40460.70312985219, -41052.97965442892, -41444.06812716343, -41111.742390601925, -40532.63104350937, -40522.326889315475, -41112.502349913404, -41502.6967528697, -41168.47111802949, -40580.68729408828, -40562.69413980176, -41149.069803842285, -41541.83465741094, -41206.759656281436, -40614.21491077124, -40588.84568081447, -41174.99782741044, -41569.52846879107, -41235.52635139541, -40637.125448837935, -40606.21298625624, -41188.74415025046, -41584.750006765134, -41248.7362323685, -40645.440297775305, -40606.70472463426, -41187.62656302769, -41583.99004745365, -41250.01028180245, -40643.562751241065, -40600.982678053704, -41179.04349315685, -41578.46916657319, -41246.4340026896, -40639.69589945029, -40593.830119828, -41172.494432031446, -41575.876364216376, -41249.54089516889, -40641.41698377335, -40591.527890149104, -41167.19706859554, -41572.52360254808, -41245.3834707002, -40634.33148078102, -40576.55222136405, -41148.086327086254, -41552.6081982384, -41226.943281524575, -40610.638631658396, -40545.63975878236, -41111.27300396836, -41516.5995379209, -41189.7723304954, -40570.20432593874, -40498.09759832592, -41060.53454405481, -41464.92230474023, -41140.15145780462, -40517.1636363463, -40439.983062742125, -40997.368514224116, -41404.304373777435, -41081.65694256508, -40458.26678970656, -40376.12412883331, -40932.995490192836, -41341.58537883584, -41023.02831685881, -40397.55945176595, -40311.616994335294, -40864.6438556485, -41276.742968171, -40961.94099926246, -40338.10381151483, -40249.613255216274, -40804.204738641354, -41219.72366806551, -40910.21906259288, -40285.97954344506, -40194.91853653414, -40746.78310713567, -41166.124184861685, -40858.810050345666, -40233.6988131641, -40135.664061983116, -40684.08646393853, -41101.70645734149, -40796.448683315364, -40167.60470480975, -40063.3561686702, -40606.39180021189, -41027.38690702759, -40723.9619760468, -40095.27445975238, -39987.181423566515, -40530.46292429721, -40954.07318521418, -40656.81733570306, -40028.37568859765, -39918.673326811, -40460.21139147418, -40887.71085592638, -40592.35490469395, -39963.15329827706, -39847.88535212104, -40387.6352772278, -40816.721715536325, -40526.529017273075, -39897.39446608954, -39779.82429025463, -40318.00959324952, -40752.92983686088, -40467.47570842215, -39839.9057793505, -39718.312289513626, -40256.475240764055, -40692.91540299838, -40411.77516123953, -39782.551203078176, -39657.38143412846, -40191.25285044347, -40630.486980734706, -40351.13487853228, -39721.799161648654, -39590.90734611837, -40123.19178857706, -40563.00706422413, -40287.49946206802, -39656.55441958361, -39523.762705774636, -40054.54958135481, -40498.835205892945, -40226.79212412741, -39596.383523509925, -39458.49561196513, -39987.29318228879, -40433.90338825028, -40166.68828328708, -39534.91622625783, -39394.189643167214, -39920.59557683415, -40370.24562004157, -40104.55043370133, -39473.314818539, -39327.581444690404, -39852.26629403428, -40303.07862795337, -40041.87614224865, -39408.22653868515, -39258.55925781241, -39780.69600828839, -40235.57635969834, -39977.458414728455, -39345.485191999105, -39192.39809422471, -39713.73018190029, -40170.80100426686, -39916.99694597685, -39283.41439764672, -39127.33216611531, -39645.49030607824, -40105.28804126836, -39854.52382022427, -39221.2094928276, -39059.80754611582, -39576.64693315589, -40038.52338058035, -39793.07887471663, -39160.18923046461, -38996.216833140476, -39510.70928701273, -39975.849089127674, -39732.95268213185, -39099.884223924186, -38931.17325677553, -39443.989329813645, -39911.61017556312, -39673.31822792509, -39038.88631330566, -38867.31432286672, -39377.40348308128, -39847.59477944312, -39611.71682020627, -38977.687236987025, -38801.19786276792, -39309.25301423705, -39780.56189782166, -39549.22134270923, -38914.58826238969, -38734.56731254665, -39239.917902936686, -39715.31715575662, -39487.50817626812, -38853.50094479334, -38669.18846001488, -39173.04148352641, -39650.072413691574, -39427.1584662388, -38792.212461496885, -38604.54721505013, -39105.67332573811, -39585.341761749005, -39364.86415444186, -38730.81221947816, -38539.704804385285, -39040.22741797297, -39523.49448484117, -39308.917738070224, -38675.55870718464, -38482.52904206861, -38981.19646086651, -39467.65982719181, -39257.2181531451, -38624.30615714862, -38426.35910825242, -38923.305442727265, -39412.04868698701, -39205.56327170888, -38572.18188907884, -38370.77031979207, -38864.69916876545, -39356.21402933765, -39152.23200943852, -38518.53770238611, -38313.16987433075, -38803.880072102555, -39295.707857097135, -39095.19035758857, -38460.1772976133, -38250.070899733415, -38737.2942253702, -39231.111315621296, -39034.035984758855, -38400.386381195356, -38186.07785535787, -38671.781262371696, -39168.057044512876, -38975.11678637467, -38340.751926988596, -38123.8505987943, -38607.43059008486, -39106.34387807177, -38917.56104440225, -38284.112606538845, -38062.986798642494, -38543.884580598424, -39044.787173841854, -38860.13941289657, -38226.24394014406, -38001.0724665013, -38479.511556567144, -38983.58809752323, -38802.24839475732, -38169.00112259402, -37940.63334949414, -38418.200721526235, -38924.87006483914, -38748.85007725359, -38116.63098533523, -37885.916279067555, -38361.06966269847, -38870.35416011264, -38698.245727806774, -38066.71953996653, -37832.495609819365, -38304.65385969327, -38815.59238619714, -38647.3731574265, -38014.885844574674, -37775.49866145833, -38243.52183860801, -38754.86269651207, -38589.146863120426, -37956.860715968694, -37712.667907794465, -38177.718302931586, -38691.51785272573, -38529.13242925792, -37896.2427850059, -37648.51840120774, -38111.40067713269, -38627.21188392781, -38468.827422717506, -37836.38481335459, -37585.4194266104, -38046.424156001114, -38565.76693842017, -38413.08217204597, -37782.517109217304, -37529.04832709412, -37988.22021343949, -38510.11109472646, -38361.18142142075, -37730.32578591416, -37473.303076422584, -37930.955044145, -38455.14815511086, -38309.973574873635, -37680.70491322338, -37420.15062810786, -37873.823985317234, -38397.90533756081, -38256.75407132555, -37628.290072475684, -37364.941819303254, -37816.29059508927, -38344.21644737917, -38207.17790212368, -37579.11623467401, -37311.96818494418, -37760.992379306845, -38289.789949630496, -38156.57355267686, -37528.69069918284, -37257.429928473226, -37703.48134082334, -38234.64819605925, -38104.8963194962, -37476.588782857514, -37200.70120104566, -37643.9362935944, -38176.69012268664, -38051.54270548138, -37424.66568048784, -37146.140592830256, -37586.224089410796, -38120.43078189263, -37999.2172717115, -37373.03315079607, -37090.9541357701, -37528.51188522719, -38065.66900797713, -37948.344701331225, -37321.87000773788, -37036.08060313232, -37471.067901977054, -38008.98498403847, -37894.05231404928, -37267.845841389404, -36978.54721290436, -37411.20993032574, -37951.56335253279, -37841.6821767905, -37216.70505007566, -36924.05365992233, -37354.36944417589, -37897.449779206494, -37792.418932011, -37169.74403497506, -36875.55037445431, -37304.413295318285, -37849.52763909431, -37748.050719267216, -37125.44287746464, -36826.801219797286, -37251.93139933722, -37798.34214429166, -37701.492035566815, -37080.91820250967, -36779.61668725213, -37202.824616768914, -37752.6104751361, -37660.47658449133, -37040.707414234574, -36736.34370998666, -37155.97536039059, -37705.492997824316, -37615.54957813616, -36995.44513171257, -36686.38756112904, -37102.57704288686, -37653.4357849879, -37566.62160952349, -36945.51133459942, -36632.2963395472, -37045.80361197038, -37598.04816222765, -37515.19024553183, -36896.18103458655, -36579.456815654856, -36988.694904887074, -37542.54878074513, -37464.22826817373, -36845.442574673005, -36525.27618709519, -36932.435564093066, -37488.01052427418, -37412.99806988217, -36795.531129304305, -36472.615477158484, -36878.187880300036, -37436.42269807133, -37366.72995885968, -36750.76058516033, -36425.58740682452, -36827.985862253416, -37388.16528179232, -37322.24998739362, -36705.99004101635, -36377.73232194571, -36777.8285476957, -37339.52788585757, -37278.552326983496, -36664.14757539601, -36331.59832138995, -36728.54295117175, -37291.896318423314, -37234.564093895446, -36622.506275475775, -36288.07947493547, -36682.58776457164, -37248.265713246554, -37195.53794807648, -36583.368370934535, -36243.666558702775, -36633.972720381345, -37199.404799867254, -37147.77227017549, -36536.027376178194, -36192.74928483359, -36578.98742902129, -37145.11241258531, -37098.173749229165, -36486.13828255395, -36138.43454580719, -36521.16346611542, -37088.78601655793, -37045.44598405909, -36435.89156101842, -36086.13146378177, -36466.51345092219, -37036.304120576875, -36998.484968958495, -36390.02578139613, -36037.42701261366, -36416.22202589775, -36988.98547756499, -36955.279046926385, -36348.98797857618, -35993.37172429225, -36368.79162416358, -36942.58325607577, -36913.57069177279, -36308.01723098961, -35949.47289818202, -36321.540036385064, -36896.67277296457, -36870.4541767185, -36265.57126826898, -35904.36707787122, -36275.29427710704, -36852.68453987653, -36831.76330706636, -36229.60731144039, -35866.32440880828, -36233.250645786604, -36810.12681843362, -36791.351353091166, -36188.18952896471, -35819.78807685233, -36182.91451727325, -36761.93645738798, -36747.96661710341, -36146.05649066645, -35774.12346293014, -36134.14301087177, -36713.34376494215, -36701.20676770291, -36100.011897088516, -35725.32960478421, -36082.532832924466, -36663.72289225136, -36657.01736891477, -36056.26953318948, -35677.832147816676, -36031.54850382191, -36613.31970850464, -36609.45285671388, -36009.956718678084, -35628.70301350392, -35979.02190435194, -36562.22362067981, -36563.25180092476, -35965.722616401035, -35581.60788793658, -35930.11628748373, -36515.86610267951, -36521.40933530442, -35926.33884267078, -35540.726547327824, -35885.72572299549, -36472.280200991656, -36481.578526685065, -35886.70919975152, -35497.185349128886, -35839.47996371746, -36427.55436033659, -36441.07716573205, -35848.554771966315, -35455.87932537548, -35794.37414340665, -36383.141444103894, -36400.754618734674, -35808.768666835866, -35411.53346437615, -35746.00496840537, -36334.14642025786, -36353.078347811504, -35762.09822441319, -35362.35962657447, -35692.42783694599, -36281.016323687596, -36303.97156524319, -35713.483180222895, -35310.99531781618, -35638.98481595336, -36229.56260795148, -36256.94349490923, -35668.48911863436, -35263.7213782932, -35589.34159151812, -36182.19926145068, -36214.87751184434, -35628.97123443738, -35221.811857439505, -35546.00155901928, -36141.027348164, -36177.39363639279, -35592.6496496975, -35182.56219417598, -35502.415657331425, -36097.19557728715, -36137.78634521799, -35555.836326579614, -35143.60310359039, -35460.39437775545, -36056.85067854532, -36101.889443622764, -35520.878198251514, -35105.22515836062, -35418.73072609076, -36016.57283503686, -36066.08194900536, -35487.372933313, -35068.70240792065, -35378.22936513774, -35974.864479883254, -36025.51353281898, -35445.865743859504, -35023.6636428432, -35329.10023082498, -35926.11532522623, -35981.27943054193, -35403.28567067214, -34977.23906960953, -35279.188785456274, -35876.44974904654, -35934.4301741636, -35357.643408494405, -34929.27222600844, -35227.77977320907, -35825.62188215517, -35887.89384220765, -35312.9846230727, -34881.12656845171, -35177.04131329552, -35776.78332052032, -35843.52562946387, -35270.58336384098, -34836.78070745238, -35129.29798713899, -35730.470506008925, -35801.70551558799, -35231.42310755529, -34794.71472438749, -35083.99100112808, -35686.16934849851, -35762.5899627912, -35194.16274954829, -34755.21919193497, -35041.522686663, -35644.52804857827, -35724.30142453926, -35158.35525493089, -34716.30480483828, -34998.74144777554, -35602.64087946903, -35686.54932815425, -35121.988966702105, -34677.211603785945, -34955.803746676895, -35559.74788185929, -35647.03144395727, -35083.40985577224, -34634.653882343046, -34908.552158898376, -35513.50212258126, -35605.16662659247, -35043.31082621942, -34591.17973937747, -34860.83118448629, -35465.15529932443, -35559.70317837038, -34999.59081406484, -34545.0010353328, -34812.43965774056, -35418.41780166839, -35517.83836100559, -34960.11763335677, -34503.426790645935, -34766.52917462935, -35372.37320809045, -35475.39239828496, -34919.61627240375, -34460.06440640264, -34720.43987756251, -35328.630844191415, -35436.701528632824, -34882.75824579695, -34420.926501861395, -34678.262135775345, -35287.01189601563, -35399.39646713692, -34848.31420759132, -34383.397922920936, -34636.24085619937, -35244.811802484015, -35360.75030097369, -34811.32207051779, -34344.304721868604, -34594.59955627913, -35203.975165364165, -35324.004033089164, -34776.766273589885, -34306.194997572304, -34552.06418658068, -35161.28333345453, -35284.799073314556, -34738.85771499368, -34265.246601730185, -34505.88548253602, -35115.059925920956, -35242.710738505215, -34699.228072074424, -34222.174790164805, -34458.879763946505, -35068.434186987186, -35198.70015367272, -34655.396301197565, -34175.28083029757, -34407.80602786613, -35016.756953806515, -35151.85089729439, -34612.50330358783, -34130.242065220125, -34359.92859124286, -34969.77358696146, -35109.42728631822, -34571.26433506779, -34086.477349576635, -34312.900520908894, -34923.86310385026, -35067.60717244234, -34533.26636949377, -34047.31709329094, -34270.96864831074, -34883.026466730415, -35031.19618072465, -34498.107075465574, -34009.54264516147, -34229.930845490795, -34842.547457521854, -34995.098113429325, -34465.182955882905, -33973.39987437724, -34189.161263604314, -34801.6661169131, -34957.52483099995, -34429.1295920765, -33934.12785936926, -34144.83775434944, -34756.493241368924, -34915.30238572388, -34388.40471367892, -33889.334963480826, -34095.48510259212, -34707.31940356724, -34870.62124855772, -34345.19879164681, -33844.47501235903, -34047.5853142244, -34659.19609775497, -34825.783649180376, -34303.42338125985, -33800.24091008197, -33999.35024968985, -34611.989213465364, -34782.53302365935, -34262.11735750644, -33756.74441537195, -33952.94802820063, -34565.83286116515, -34741.00348246139, -34223.80646751004, -33716.28775790784, -33908.95979511259, -34522.17990424394, -34700.5915284862, -34185.02619088008, -33676.00991439938, -33866.11150099176, -34479.4880723343, -34661.65478964505, -34148.771661373576, -33636.71554764695, -33821.85504697025, -34436.170391579915, -34622.673347314994, -34112.31596616697, -33599.075209984214, -33781.35368601724, -34394.79731259314, -34585.23417535236, -34077.93898319471], [-42722.833779196, -42702.96307837523, -42645.340281169454, -42593.61834449987, -42582.28601006103, -42589.840899686926, -42567.75737616508, -42507.675887069214, -42454.21051433212, -42443.21345606011, -42449.40488927423, -42423.07453430588, -42359.975559708546, -42307.739532916494, -42298.97764909001, -42306.979573605015, -42280.1798320031, -42218.57842428427, -42167.61644692617, -42160.73210963394, -42169.91867660507, -42143.4989146589, -42082.076320895714, -42035.13765753957, -42033.5730354277, -42046.20177104494, -42020.899596321535, -41960.706348503394, -41916.53930145971, -41916.047563081695, -41929.68212719943, -41906.34690598809, -41847.405355859446, -41803.841805916054, -41806.45696001732, -41821.946718924846, -41798.70090469133, -41739.28996792912, -41696.35226683048, -41699.68267675432, -41717.20644440728, -41693.8935749404, -41635.510818423136, -41594.58477432546, -41600.44093137276, -41617.584719369974, -41595.07651270348, -41537.36430851988, -41496.84059582241, -41502.76380810307, -41522.32158450146, -41501.02037203555, -41444.090478907885, -41404.05850458843, -41410.49580699156, -41427.75135371106, -41404.43848424417, -41345.67574807117, -41305.01792490696, -41309.42121856466, -41326.05091643941, -41301.55340451639, -41240.7343078535, -41195.986115453976, -41199.85296724474, -41215.52154010791, -41191.649877029646, -41131.50133270041, -41089.48005312444, -41093.3022014263, -41111.42946617955, -41089.591811846716, -41032.79602918578, -40992.182909510484, -40999.00019156936, -41019.89907263507, -41002.73293289339, -40947.47942059987, -40909.25793758129, -40917.79630396322, -40941.086821685654, -40925.0606209112, -40872.60107667459, -40834.491352378296, -40843.87908504952, -40868.01896906125, -40855.434936932914, -40803.19891014086, -40765.133889333476, -40772.84524117056, -40797.94625019387, -40784.31168607613, -40734.087316285055, -40696.62579257796, -40706.37115316047, -40729.95224356082, -40716.25062420972, -40663.120527639454, -40623.75910565366, -40629.23528304521, -40652.70461472328, -40637.974815127236, -40584.46473890123, -40542.97990119218, -40549.43955533976, -40570.584305594486, -40555.42982285379, -40501.38330476085, -40460.39020542982, -40464.167650242765, -40486.29587725352, -40471.34256021292, -40419.486513076605, -40378.00167536756, -40385.601268482365, -40409.070600160434, -40396.33010582091, -40343.62469239529, -40302.676296553174, -40306.1631686882, -40329.453686410634, -40316.15439845972, -40264.298351323414, -40220.77950486893, -40224.91457759316, -40247.10985983728, -40234.97286259805, -40182.490966616984, -40141.29670158586, -40144.76122197643, -40168.454071099055, -40156.89821921566, -40106.852663380225, -40063.49027913693, -40066.97715127196, -40089.30654398281, -40077.92950605506, -40024.55354029579, -39980.63236244111, -39980.900583374576, -40003.3417348077, -39991.69647594648, -39940.01924276582, -39894.84636722164, -39896.54509980024, -39917.533387843774, -39907.676268538984, -39855.14966906902, -39810.75910458078, -39810.33442143613, -39833.31201473618, -39822.337308208625, -39772.51526981775, -39727.252987295746, -39728.59409196307, -39750.118821873526, -39740.82049618012, -39689.14326299945, -39644.976215955765, -39644.08214617755, -39666.67975982187, -39656.509716094704, -39607.22411957075, -39562.07359577103, -39563.30294171607, -39585.632334426926, -39577.07161630054, -39524.54501683057, -39479.30508605303, -39478.00868487462, -39500.94157468576, -39491.26326933662, -39441.06125129, -39394.23434665613, -39393.63084955583, -39414.77559981056, -39406.46075087318, -39355.31995955944, -39310.61647064883, -39308.6271653923, -39331.157723803255, -39321.32295624292, -39271.81384227441, -39225.165751596185, -39223.89170216223, -39244.879990205765, -39237.258045346505, -39186.76545462197, -39140.96673023304, -39138.37392787623, -39161.060948498365, -39152.41082339416, -39103.57226175931, -39056.477136191985, -39054.666644891106, -39074.82791838979, -39066.80364213033, -39015.52874034986, -38969.014760138365, -38965.1479083476, -38987.00791442489, -38978.4024928096, -38929.452172452475, -38881.73119804039, -38878.89252649457, -38899.389076160085, -38892.75060805686, -38843.800287699734, -38798.225080755365, -38794.13471152004, -38816.21823504189, -38809.132732049555, -38761.63527508203, -38714.04841113668, -38710.919166912936, -38732.801524734685, -38726.76655373175, -38677.25743976324, -38631.32460490759, -38626.541331594155, -38649.0718900051, -38642.45577364633, -38595.18183412336, -38547.63967366692, -38545.33744398802, -38567.21980180977, -38562.05654884059, -38513.687373839304, -38467.57572502801, -38462.70304473675, -38484.80892000305, -38478.30456236655, -38431.343547265955, -38384.20371820971, -38381.45445364171, -38402.86742482989, -38398.285317216556, -38350.20671489319, -38304.184473059715, -38299.40119974628, -38321.64118547931, -38314.95801388717, -38267.37114994182, -38218.37612609579, -38214.57632953839, -38236.25752166004, -38232.14480068026, -38184.13325359026, -38137.105183256295, -38131.60665412029, -38154.003102064504, -38149.331587473345, -38102.9964212175, -38054.1355078382, -38049.68751069159, -38071.592220257786, -38068.865307434244, -38021.90429233364, -37974.965628977494, -37968.975361463476, -37992.19882395254, -37988.555489606326, -37943.4049658066, -37895.572232672246, -37891.146587270094, -37913.520683469855, -37911.3972677466, -37864.90563927956, -37817.22936835639, -37812.24492934286, -37836.92125522152, -37834.12728716461, -37788.44032149796, -37740.13820173004, -37735.77961156126, -37757.30434147172, -37754.59978039262, -37707.19173040292, -37658.93431412391, -37652.67582567642, -37675.85458467658, -37672.83709917511, -37626.83720908609, -37576.568135806105, -37570.421406080895, -37591.85672901353, -37589.39803712345, -37542.39231853394, -37493.441998176815, -37485.820053317555, -37508.32825998405, -37505.75780937169, -37459.60145707148, -37409.7794186806, -37404.0797238445, -37426.25265434416, -37424.509218276646, -37379.17988052129, -37332.04005146505, -37326.34035662894, -37350.83786855196, -37350.05555749602, -37305.82145521897, -37256.98289358412, -37251.88669584831, -37275.870117648854, -37276.093635093406, -37231.211332227154, -37183.043322925965, -37176.80718622293, -37201.17058767922, -37200.656497556745, -37156.84707842435, -37107.65088887822, -37101.325345197365, -37124.77232513098, -37126.15813328721, -37082.035789732436, -37033.577207753326, -37026.69287046109, -37050.0951469058, -37048.91050444967, -37003.89409111668, -36953.89323877016, -36946.7183288, -36968.98066627749, -36969.49475639996, -36924.85832272271, -36875.505670965395, -36867.66020866158, -36891.12954033966, -36891.42011301757, -36847.7448043519, -36797.74395200538, -36790.12200714612, -36812.40669636807, -36813.27841440182, -36769.08901561368, -36719.31168071171, -36709.5663201292, -36731.11340178411, -36731.53808492876, -36687.907479752, -36637.57135123865, -36629.16709532346, -36650.98239791184, -36651.60824675659, -36607.061220057156, -36556.90390549945, -36547.44911759486, -36569.3314754166, -36570.225545194815, -36528.763059230216, -36478.09165455004, -36467.96631431178, -36490.04983783363, -36492.59793670153, -36450.28608444764, -36400.128769889925, -36390.45046454078, -36412.95867120727, -36415.797342753096, -36374.87129865543, -36325.876274809394, -36315.79563806005, -36338.90734182684, -36342.170696517314, -36299.99295473015, -36249.58977098343, -36239.352672022906, -36261.81617520049, -36264.49838453512, -36222.298291003506, -36171.671589812235, -36160.11573792884, -36181.34989516138, -36183.897994029285, -36141.58614177539, -36090.512405695015, -36079.314181722904, -36100.928318611186, -36103.69993492364, -36062.08098674786, -36012.16954137916, -35999.80902669537, -36020.998480439004, -36023.74774500701, -35980.87709914173, -35929.088107238786, -35917.129923955195, -35938.8334678213, -35942.38739518969, -35901.52840632539, -35851.43814700105, -35839.30114976181, -35861.98817038396, -35866.45851927502, -35825.063088543786, -35774.45873909697, -35763.99812269189, -35786.327515402736, -35790.41788463806, -35750.29650334078, -35700.966203327924, -35688.89626132206, -35711.56093019974, -35716.05363083525, -35674.9711245264, -35623.40565006801, -35610.9557284064, -35632.77103099478, -35636.90610371901, -35596.80707416619, -35546.806221819665, -35533.57398910213, -35555.076367268135, -35559.9937510483, -35519.17946567291, -35467.88221214798, -35455.40993874192, -35477.00172388575, -35482.075569877095, -35441.28363624616, -35389.82992051005, -35379.034027938134, -35400.11172295949, -35403.978574750254, -35363.097234141496, -35311.017669560635, -35298.45598917675, -35320.315995254045, -35325.769820901136, -35285.849605303956, -35235.15584887932, -35221.051898128026, -35242.06253791601, -35246.6669972738, -35206.411505509794, -35154.1978304622, -35140.67502506674, -35162.95971428868, -35169.75464460309, -35130.370870872845, -35079.6324109593, -35066.5789921974, -35089.02014363052, -35096.12799836731, -35057.63829441527, -35006.74337229054, -34994.7628372625, -35018.12041021829, -35025.429430655175, -34986.67150576967, -34936.380080745235, -34922.63375790522, -34945.00785410498, -34952.74155768652, -34914.81064734586, -34863.803966498854, -34849.85647795874, -34871.76118752494, -34878.39965562816, -34840.06641388731, -34789.39500920713, -34775.17929973356, -34797.21811976649, -34804.393029736646, -34764.87514553966, -34713.30967108127, -34699.87627266363, -34722.451534563486, -34730.274645122845, -34691.963755126446, -34641.44881265746, -34627.21075143942, -34649.115461005626, -34656.89386807607, -34618.627681568585, -34566.39165477653, -34552.31005576969, -34574.34887580262, -34581.94846891743, -34543.07878530965, -34491.468607362345, -34476.358828110555, -34497.7941510432, -34505.796075558195, -34467.59694428408, -34415.830304125586, -34400.67582138489, -34421.708812917335, -34429.55427522115, -34391.04221952465, -34340.14729739992, -34326.4009745599, -34349.333864371045, -34358.47572785327, -34320.053079134595, -34267.07944477552, -34253.288418446595, -34276.556584424565, -34285.69844790679, -34249.10864223345, -34199.2195486092, -34185.45087402473, -34207.89202545786, -34217.279758129094, -34179.66177221081, -34127.51515239658, -34113.61236734538, -34137.08169902345, -34146.93881832824, -34109.27612892105, -34057.84476492939, -34043.47259324462, -34065.91374467775, -34075.68145700472, -34038.64461644228, -33986.69916232814, -33972.57285983239, -33995.01401126552, -34004.28998521447, -33967.65547605223, -33916.738202183034, -33901.628422931244, -33923.62253947527, -33933.25614133551, -33896.33105949534, -33843.91621874765, -33829.65580578516, -33853.41571014115, -33863.71986433505, -33827.55474180636, -33777.33037201528, -33763.852270108735, -33787.43336050909, -33799.21272983703, -33764.344008486754, -33713.449086362016, -33699.52394956636, -33723.172095200076, -33734.8620575502, -33699.41219084409, -33647.600847196685, -33632.17814352252, -33653.881687388624, -33664.76698693836, -33629.25006499887, -33576.432892850986, -33559.8702502096, -33582.33375338719, -33592.97318374791, -33556.53984028576, -33504.16970302698, -33487.94233655243, -33509.33295599615, -33520.575883457175, -33484.85779581759, -33431.370071336045, -33414.9862426503, -33438.12029816154, -33450.05612970068, -33415.45562928386, -33364.09132052557, -33347.72984358428, -33368.94164907237, -33381.0786463116, -33347.01458776171, -33295.40440981441, -33279.646429973414, -33302.33345059556, -33314.895130979436, -33281.50162476321, -33231.43371718332, -33216.167475720344, -33237.75926086417, -33251.1479557929, -33218.693222843795, -33168.11122514144, -33152.46500402272, -33175.50965255614, -33188.8312922515, -33156.331855813485, -33106.018079044596, -33089.94717478123, -33110.93546282476, -33123.98888158666, -33091.176520726265, -33039.76750847906, -33023.383679793325, -33046.048348671, -33060.129947677844, -33028.09989787339, -32977.62965889331, -32961.1787749742, -32981.921193828726, -32995.756923646564, -32963.324542441915, -32911.714364494605, -32894.77174219749, -32917.01172793051, -32931.026271703995, -32899.10798062181, -32847.78837535243, -32830.26460769947, -32850.11295677578, -32862.69698890412, -32829.728165832545, -32777.290973340394, -32758.135528342194, -32778.989705919, -32792.35604910327, -32759.87896440971, -32708.00056552894, -32689.94035600905, -32710.302795207837, -32724.451449448046, -32693.00254499943, -32640.498297273913, -32622.281625542837, -32643.806355453296, -32658.737320749442, -32627.534285489834, -32576.035866264807, -32558.15447070056, -32578.98629653291, -32593.805503106774, -32562.222488191426, -32509.91940616601, -32491.345106523648, -32513.495685278856, -32528.87368546411, -32498.475313004892, -32447.446280413424, -32429.721347060367, -32450.620228126078, -32466.04293180024, -32435.376338407557, -32383.36382906006, -32364.901288139976, -32387.16362561746, -32403.480399069835, -32373.864337666553, -32321.985938785787, -32303.433990887883, -32324.10935450904, -32339.97909307231, -32310.09481073556, -32258.127004876973, -32238.52452498967, -32260.026903155675, -32275.896641718944, -32246.23587682675, -32194.42453317935, -32175.760826559166, -32196.70441111379, -32212.998832821708, -32183.628640607436, -32132.35373882696, -32112.952424639756, -32134.8347824615, -32151.375073358427, -32122.02723288861, -32070.77468285259, -32052.647418099335, -32073.859223587424, -32089.885424361877, -32060.649342614335, -32009.285033856042, -31989.23551907963, -32011.09552515692, -32028.820458509977, -32000.009059907086, -31948.13066102632, -31929.064623005943, -31950.589352916406, -31968.627210691837, -31940.37460570033, -31889.010296942033, -31869.139596121266, -31891.1784161542, -31908.679832062702, -31880.047247415456, -31828.39236597924, -31808.476961669563, -31828.749993890524, -31846.78785166596, -31818.62465365227, -31766.120405926755, -31744.99800741649, -31765.986295460025, -31783.599470090805, -31755.503327310485, -31703.60257668526, -31683.620117142218, -31703.580224940804, -31720.455792004563, -31692.47140794652, -31640.436546854562, -31619.649424511128, -31640.92828523258, -31659.055549985835, -31630.892351972147, -31578.38810424663, -31557.95860981448, -31578.052828079803, -31595.77776143286, -31568.419226219565, -31516.540827338795, -31495.463132317444, -31517.211379672455, -31536.724452581937, -31510.170580169033, -31458.56040222173, -31437.92974208948, -31458.98508536638, -31477.827605942206, -31451.474899229397, -31400.78114280476, -31379.479930338854, -31400.870549782583, -31421.277692470278, -31396.422552635977, -31345.326464811144, -31325.47811573483, -31346.399348544997, -31365.286572609733, -31339.29149380821, -31287.815426327637, -31265.70955106134, -31286.653135615965, -31306.725002136827, -31280.52875763521, -31228.13626863197, -31206.99151837725, -31228.13626863197, -31247.783452008185, -31222.3695185625, -31170.11114002599, -31147.35706417049, -31168.144186513924, -31188.08194256806, -31161.773939344162, -31109.4932090632, -31086.7391332077, -31106.654537517374, -31125.72057553775, -31100.172531625336, -31046.751862377154, -31022.56727487651]]
[[-39918.673326811, -40460.21139147418, -40887.71085592638, -40592.35490469395, -39963.15329827706, -39847.88535212104, -40387.6352772278, -40816.721715536325, -40526.529017273075, -39897.39446608954, -39779.82429025463, -40318.00959324952, -40752.92983686088, -40467.47570842215, -39839.9057793505, -39718.312289513626, -40256.475240764055, -40692.91540299838, -40411.77516123953, -39782.551203078176, -39657.38143412846, -40191.25285044347, -40630.486980734706, -40351.13487853228, -39721.799161648654, -39590.90734611837, -40123.19178857706, -40563.00706422413, -40287.49946206802, -39656.55441958361, -39523.762705774636, -40054.54958135481, -40498.835205892945, -40226.79212412741, -39596.383523509925, -39458.49561196513, -39987.29318228879, -40433.90338825028, -40166.68828328708, -39534.91622625783, -39394.189643167214, -39920.59557683415, -40370.24562004157, -40104.55043370133, -39473.314818539, -39327.581444690404, -39852.26629403428, -40303.07862795337, -40041.87614224865, -39408.22653868515, -39258.55925781241, -39780.69600828839, -40235.57635969834, -39977.458414728455, -39345.485191999105, -39192.39809422471, -39713.73018190029, -40170.80100426686, -39916.99694597685, -39283.41439764672, -39127.33216611531, -39645.49030607824, -40105.28804126836, -39854.52382022427, -39221.2094928276, -39059.80754611582, -39576.64693315589, -40038.52338058035, -39793.07887471663, -39160.18923046461, -38996.216833140476, -39510.70928701273, -39975.849089127674, -39732.95268213185, -39099.884223924186, -38931.17325677553, -39443.989329813645, -39911.61017556312, -39673.31822792509, -39038.88631330566, -38867.31432286672, -39377.40348308128, -39847.59477944312, -39611.71682020627, -38977.687236987025, -38801.19786276792, -39309.25301423705, -39780.56189782166, -39549.22134270923, -38914.58826238969, -38734.56731254665, -39239.917902936686, -39715.31715575662, -39487.50817626812, -38853.50094479334, -38669.18846001488, -39173.04148352641, -39650.072413691574, -39427.1584662388, -38792.212461496885, -38604.54721505013, -39105.67332573811, -39585.341761749005, -39364.86415444186, -38730.81221947816, -38539.704804385285, -39040.22741797297, -39523.49448484117, -39308.917738070224, -38675.55870718464, -38482.52904206861, -38981.19646086651, -39467.65982719181, -39257.2181531451, -38624.30615714862, -38426.35910825242, -38923.305442727265, -39412.04868698701, -39205.56327170888, -38572.18188907884, -38370.77031979207, -38864.69916876545, -39356.21402933765, -39152.23200943852, -38518.53770238611, -38313.16987433075, -38803.880072102555, -39295.707857097135, -39095.19035758857, -38460.1772976133, -38250.070899733415, -38737.2942253702, -39231.111315621296, -39034.035984758855, -38400.386381195356, -38186.07785535787, -38671.781262371696, -39168.057044512876, -38975.11678637467, -38340.751926988596, -38123.8505987943, -38607.43059008486, -39106.34387807177, -38917.56104440225, -38284.112606538845, -38062.986798642494, -38543.884580598424, -39044.787173841854, -38860.13941289657, -38226.24394014406, -38001.0724665013, -38479.511556567144, -38983.58809752323, -38802.24839475732, -38169.00112259402, -37940.63334949414, -38418.200721526235, -38924.87006483914, -38748.85007725359, -38116.63098533523, -37885.916279067555, -38361.06966269847, -38870.35416011264, -38698.245727806774, -38066.71953996653, -37832.495609819365, -38304.65385969327, -38815.59238619714, -38647.3731574265, -38014.885844574674, -37775.49866145833, -38243.52183860801, -38754.86269651207, -38589.146863120426, -37956.860715968694, -37712.667907794465, -38177.718302931586, -38691.51785272573, -38529.13242925792, -37896.2427850059, -37648.51840120774, -38111.40067713269, -38627.21188392781, -38468.827422717506, -37836.38481335459, -37585.4194266104, -38046.424156001114, -38565.76693842017, -38413.08217204597, -37782.517109217304, -37529.04832709412, -37988.22021343949, -38510.11109472646, -38361.18142142075, -37730.32578591416, -37473.303076422584, -37930.955044145, -38455.14815511086, -38309.973574873635, -37680.70491322338, -37420.15062810786, -37873.823985317234, -38397.90533756081, -38256.75407132555, -37628.290072475684, -37364.941819303254, -37816.29059508927, -38344.21644737917, -38207.17790212368, -37579.11623467401, -37311.96818494418, -37760.992379306845, -38289.789949630496, -38156.57355267686, -37528.69069918284, -37257.429928473226, -37703.48134082334, -38234.64819605925, -38104.8963194962, -37476.588782857514, -37200.70120104566, -37643.9362935944, -38176.69012268664, -38051.54270548138, -37424.66568048784, -37146.140592830256, -37586.224089410796, -38120.43078189263, -37999.2172717115, -37373.03315079607, -37090.9541357701, -37528.51188522719, -38065.66900797713, -37948.344701331225, -37321.87000773788, -37036.08060313232, -37471.067901977054, -38008.98498403847, -37894.05231404928, -37267.845841389404, -36978.54721290436, -37411.20993032574, -37951.56335253279, -37841.6821767905, -37216.70505007566, -36924.05365992233, -37354.36944417589, -37897.449779206494, -37792.418932011, -37169.74403497506, -36875.55037445431, -37304.413295318285, -37849.52763909431, -37748.050719267216, -37125.44287746464, -36826.801219797286, -37251.93139933722, -37798.34214429166, -37701.492035566815, -37080.91820250967, -36779.61668725213, -37202.824616768914, -37752.6104751361, -37660.47658449133, -37040.707414234574, -36736.34370998666, -37155.97536039059, -37705.492997824316, -37615.54957813616, -36995.44513171257, -36686.38756112904, -37102.57704288686, -37653.4357849879, -37566.62160952349, -36945.51133459942, -36632.2963395472, -37045.80361197038, -37598.04816222765, -37515.19024553183, -36896.18103458655, -36579.456815654856, -36988.694904887074, -37542.54878074513, -37464.22826817373, -36845.442574673005, -36525.27618709519, -36932.435564093066, -37488.01052427418, -37412.99806988217, -36795.531129304305, -36472.615477158484, -36878.187880300036, -37436.42269807133, -37366.72995885968, -36750.76058516033, -36425.58740682452, -36827.985862253416, -37388.16528179232, -37322.24998739362, -36705.99004101635, -36377.73232194571, -36777.8285476957, -37339.52788585757, -37278.552326983496, -36664.14757539601, -36331.59832138995, -36728.54295117175, -37291.896318423314, -37234.564093895446, -36622.506275475775, -36288.07947493547, -36682.58776457164, -37248.265713246554, -37195.53794807648, -36583.368370934535, -36243.666558702775, -36633.972720381345, -37199.404799867254, -37147.77227017549, -36536.027376178194, -36192.74928483359, -36578.98742902129, -37145.11241258531, -37098.173749229165, -36486.13828255395, -36138.43454580719, -36521.16346611542, -37088.78601655793, -37045.44598405909, -36435.89156101842, -36086.13146378177, -36466.51345092219, -37036.304120576875, -36998.484968958495, -36390.02578139613, -36037.42701261366, -36416.22202589775, -36988.98547756499, -36955.279046926385, -36348.98797857618, -35993.37172429225, -36368.79162416358, -36942.58325607577, -36913.57069177279, -36308.01723098961, -35949.47289818202, -36321.540036385064, -36896.67277296457, -36870.4541767185, -36265.57126826898, -35904.36707787122, -36275.29427710704, -36852.68453987653, -36831.76330706636, -36229.60731144039, -35866.32440880828, -36233.250645786604, -36810.12681843362, -36791.351353091166, -36188.18952896471, -35819.78807685233, -36182.91451727325, -36761.93645738798, -36747.96661710341, -36146.05649066645, -35774.12346293014, -36134.14301087177, -36713.34376494215, -36701.20676770291, -36100.011897088516, -35725.32960478421, -36082.532832924466, -36663.72289225136, -36657.01736891477, -36056.26953318948, -35677.832147816676, -36031.54850382191, -36613.31970850464, -36609.45285671388, -36009.956718678084, -35628.70301350392, -35979.02190435194, -36562.22362067981, -36563.25180092476, -35965.722616401035, -35581.60788793658, -35930.11628748373, -36515.86610267951, -36521.40933530442, -35926.33884267078, -35540.726547327824, -35885.72572299549, -36472.280200991656, -36481.578526685065, -35886.70919975152, -35497.185349128886, -35839.47996371746, -36427.55436033659, -36441.07716573205, -35848.554771966315, -35455.87932537548, -35794.37414340665, -36383.141444103894, -36400.754618734674, -35808.768666835866, -35411.53346437615, -35746.00496840537, -36334.14642025786, -36353.078347811504, -35762.09822441319, -35362.35962657447, -35692.42783694599, -36281.016323687596, -36303.97156524319, -35713.483180222895, -35310.99531781618, -35638.98481595336, -36229.56260795148, -36256.94349490923, -35668.48911863436, -35263.7213782932, -35589.34159151812, -36182.19926145068, -36214.87751184434, -35628.97123443738, -35221.811857439505, -35546.00155901928, -36141.027348164, -36177.39363639279, -35592.6496496975, -35182.56219417598, -35502.415657331425, -36097.19557728715, -36137.78634521799, -35555.836326579614, -35143.60310359039, -35460.39437775545, -36056.85067854532, -36101.889443622764, -35520.878198251514, -35105.22515836062, -35418.73072609076, -36016.57283503686, -36066.08194900536, -35487.372933313, -35068.70240792065, -35378.22936513774, -35974.864479883254, -36025.51353281898, -35445.865743859504, -35023.6636428432, -35329.10023082498, -35926.11532522623, -35981.27943054193, -35403.28567067214, -34977.23906960953, -35279.188785456274, -35876.44974904654, -35934.4301741636, -35357.643408494405, -34929.27222600844, -35227.77977320907, -35825.62188215517, -35887.89384220765, -35312.9846230727, -34881.12656845171, -35177.04131329552, -35776.78332052032, -35843.52562946387, -35270.58336384098, -34836.78070745238, -35129.29798713899, -35730.470506008925, -35801.70551558799, -35231.42310755529, -34794.71472438749, -35083.99100112808, -35686.16934849851, -35762.5899627912, -35194.16274954829, -34755.21919193497, -35041.522686663, -35644.52804857827, -35724.30142453926, -35158.35525493089, -34716.30480483828, -34998.74144777554, -35602.64087946903, -35686.54932815425, -35121.988966702105, -34677.211603785945, -34955.803746676895, -35559.74788185929, -35647.03144395727, -35083.40985577224, -34634.653882343046, -34908.552158898376, -35513.50212258126, -35605.16662659247, -35043.31082621942, -34591.17973937747, -34860.83118448629, -35465.15529932443, -35559.70317837038, -34999.59081406484, -34545.0010353328, -34812.43965774056, -35418.41780166839, -35517.83836100559, -34960.11763335677, -34503.426790645935, -34766.52917462935, -35372.37320809045, -35475.39239828496, -34919.61627240375, -34460.06440640264, -34720.43987756251, -35328.630844191415, -35436.701528632824, -34882.75824579695, -34420.926501861395, -34678.262135775345, -35287.01189601563, -35399.39646713692, -34848.31420759132, -34383.397922920936, -34636.24085619937, -35244.811802484015, -35360.75030097369, -34811.32207051779, -34344.304721868604, -34594.59955627913, -35203.975165364165, -35324.004033089164, -34776.766273589885, -34306.194997572304, -34552.06418658068, -35161.28333345453, -35284.799073314556, -34738.85771499368, -34265.246601730185, -34505.88548253602, -35115.059925920956, -35242.710738505215, -34699.228072074424, -34222.174790164805, -34458.879763946505, -35068.434186987186, -35198.70015367272, -34655.396301197565, -34175.28083029757, -34407.80602786613, -35016.756953806515, -35151.85089729439, -34612.50330358783, -34130.242065220125, -34359.92859124286, -34969.77358696146, -35109.42728631822, -34571.26433506779, -34086.477349576635, -34312.900520908894, -34923.86310385026, -35067.60717244234, -34533.26636949377, -34047.31709329094, -34270.96864831074, -34883.026466730415, -35031.19618072465, -34498.107075465574, -34009.54264516147, -34229.930845490795, -34842.547457521854, -34995.098113429325, -34465.182955882905, -33973.39987437724, -34189.161263604314, -34801.6661169131, -34957.52483099995, -34429.1295920765, -33934.12785936926, -34144.83775434944, -34756.493241368924, -34915.30238572388, -34388.40471367892, -33889.334963480826, -34095.48510259212, -34707.31940356724, -34870.62124855772, -34345.19879164681, -33844.47501235903, -34047.5853142244, -34659.19609775497, -34825.783649180376, -34303.42338125985, -33800.24091008197, -33999.35024968985, -34611.989213465364, -34782.53302365935, -34262.11735750644, -33756.74441537195, -33952.94802820063, -34565.83286116515, -34741.00348246139, -34223.80646751004, -33716.28775790784, -33908.95979511259, -34522.17990424394, -34700.5915284862, -34185.02619088008, -33676.00991439938, -33866.11150099176, -34479.4880723343, -34661.65478964505, -34148.771661373576, -33636.71554764695, -33821.85504697025, -34436.170391579915, -34622.673347314994, -34112.31596616697, -33599.075209984214, -33781.35368601724, -34394.79731259314, -34585.23417535236, -34077.93898319471, -33562.46305256642, -33740.986435530955, -34355.32413188507, -34549.47138422386, -34043.87492464482, -33526.18617131546, -33700.70859202249, -34313.66048022038, -34510.53464538272, -34007.486284671584, -33487.29413596322, -33656.76506242336, -34269.06875003204, -34469.45213907387, -33967.856641752325, -33444.26702788675, -33610.340489189686, -34222.75593552065, -34426.6261966975, -33927.645853477225, -33401.75400993276, -33563.670046767, -34176.39841752034, -34384.291992699145, -33887.90445183569, -33360.4256344349, -33519.726517167874, -34132.901922810306, -34344.55059105761, -33850.822907784335, -33322.07004094959, -33477.52642363625, -34090.79123625651, -34306.32910803903, -33814.47897130001, -33283.31211606409, -33435.43808882691, -34048.50173574707, -34267.749997109175, -33778.738531915966, -33245.336502234524, -33393.34975401757, -34005.96636604862, -34227.96389197873, -33740.561752386304, -33204.499865114674, -33347.953361028834, -33959.27357188149, -34184.62385947989, -33700.48507457794, -33162.94797217226, -33302.40050582892, -33913.027812603454, -34141.39558570333, -33658.977885124434, -33118.736221639665, -33254.81364188357, -33865.86563180276, -34099.12843693834, -33619.616463138635, -33077.765474053085, -33210.71365007325, -33821.49741905897, -34057.487137018106, -33580.7244277864, -33036.45945029968, -33165.60782976244, -33775.96691560351, -34015.82348535341, -33541.63122673407, -32995.77927539102, -33120.14438154035, -33730.235246447955, -33974.24924066654, -33502.91800533748, -32955.076748737905, -33076.3573141524, -33685.95644068199, -33933.591417502335, -33465.14355720801, -32916.207065130126, -33033.799592709496, -33643.93516110601, -33895.36993448376, -33429.403117823975, -32878.16439606719, -32992.76178988955, -33602.60678560815, -33857.17080320964, -33394.40028600697, -32841.86516307177, -32952.79687080346, -33563.73710200037, -33823.30791035985, -33363.84545133656, -32809.388078378215, -32916.58704478586, -33525.91795038199, -33788.93092738759, -33331.83775327656, -32774.89933668367, -32877.09151233334, -33484.43311267294, -33748.36251120121, -33292.07399989057, -32732.028690818395, -32830.01873851046, -33436.19804813839, -33704.41898160207, -33251.81850812656, -32691.124998465184, -32784.711752499556, -33390.958117360846, -33663.02355087084, -33213.14999021888, -32650.46717530098, -32741.215257789525, -33347.28280869518, -33622.29867247328, -33175.39789383386, -32611.17280854855, -32696.668231090098, -33301.260566861696, -33580.2773928973, -33137.0199486041], [-40247.10985983728, -40234.97286259805, -40182.490966616984, -40141.29670158586, -40144.76122197643, -40168.454071099055, -40156.89821921566, -40106.852663380225, -40063.49027913693, -40066.97715127196, -40089.30654398281, -40077.92950605506, -40024.55354029579, -39980.63236244111, -39980.900583374576, -40003.3417348077, -39991.69647594648, -39940.01924276582, -39894.84636722164, -39896.54509980024, -39917.533387843774, -39907.676268538984, -39855.14966906902, -39810.75910458078, -39810.33442143613, -39833.31201473618, -39822.337308208625, -39772.51526981775, -39727.252987295746, -39728.59409196307, -39750.118821873526, -39740.82049618012, -39689.14326299945, -39644.976215955765, -39644.08214617755, -39666.67975982187, -39656.509716094704, -39607.22411957075, -39562.07359577103, -39563.30294171607, -39585.632334426926, -39577.07161630054, -39524.54501683057, -39479.30508605303, -39478.00868487462, -39500.94157468576, -39491.26326933662, -39441.06125129, -39394.23434665613, -39393.63084955583, -39414.77559981056, -39406.46075087318, -39355.31995955944, -39310.61647064883, -39308.6271653923, -39331.157723803255, -39321.32295624292, -39271.81384227441, -39225.165751596185, -39223.89170216223, -39244.879990205765, -39237.258045346505, -39186.76545462197, -39140.96673023304, -39138.37392787623, -39161.060948498365, -39152.41082339416, -39103.57226175931, -39056.477136191985, -39054.666644891106, -39074.82791838979, -39066.80364213033, -39015.52874034986, -38969.014760138365, -38965.1479083476, -38987.00791442489, -38978.4024928096, -38929.452172452475, -38881.73119804039, -38878.89252649457, -38899.389076160085, -38892.75060805686, -38843.800287699734, -38798.225080755365, -38794.13471152004, -38816.21823504189, -38809.132732049555, -38761.63527508203, -38714.04841113668, -38710.919166912936, -38732.801524734685, -38726.76655373175, -38677.25743976324, -38631.32460490759, -38626.541331594155, -38649.0718900051, -38642.45577364633, -38595.18183412336, -38547.63967366692, -38545.33744398802, -38567.21980180977, -38562.05654884059, -38513.687373839304, -38467.57572502801, -38462.70304473675, -38484.80892000305, -38478.30456236655, -38431.343547265955, -38384.20371820971, -38381.45445364171, -38402.86742482989, -38398.285317216556, -38350.20671489319, -38304.184473059715, -38299.40119974628, -38321.64118547931, -38314.95801388717, -38267.37114994182, -38218.37612609579, -38214.57632953839, -38236.25752166004, -38232.14480068026, -38184.13325359026, -38137.105183256295, -38131.60665412029, -38154.003102064504, -38149.331587473345, -38102.9964212175, -38054.1355078382, -38049.68751069159, -38071.592220257786, -38068.865307434244, -38021.90429233364, -37974.965628977494, -37968.975361463476, -37992.19882395254, -37988.555489606326, -37943.4049658066, -37895.572232672246, -37891.146587270094, -37913.520683469855, -37911.3972677466, -37864.90563927956, -37817.22936835639, -37812.24492934286, -37836.92125522152, -37834.12728716461, -37788.44032149796, -37740.13820173004, -37735.77961156126, -37757.30434147172, -37754.59978039262, -37707.19173040292, -37658.93431412391, -37652.67582567642, -37675.85458467658, -37672.83709917511, -37626.83720908609, -37576.568135806105, -37570.421406080895, -37591.85672901353, -37589.39803712345, -37542.39231853394, -37493.441998176815, -37485.820053317555, -37508.32825998405, -37505.75780937169, -37459.60145707148, -37409.7794186806, -37404.0797238445, -37426.25265434416, -37424.509218276646, -37379.17988052129, -37332.04005146505, -37326.34035662894, -37350.83786855196, -37350.05555749602, -37305.82145521897, -37256.98289358412, -37251.88669584831, -37275.870117648854, -37276.093635093406, -37231.211332227154, -37183.043322925965, -37176.80718622293, -37201.17058767922, -37200.656497556745, -37156.84707842435, -37107.65088887822, -37101.325345197365, -37124.77232513098, -37126.15813328721, -37082.035789732436, -37033.577207753326, -37026.69287046109, -37050.0951469058, -37048.91050444967, -37003.89409111668, -36953.89323877016, -36946.7183288, -36968.98066627749, -36969.49475639996, -36924.85832272271, -36875.505670965395, -36867.66020866158, -36891.12954033966, -36891.42011301757, -36847.7448043519, -36797.74395200538, -36790.12200714612, -36812.40669636807, -36813.27841440182, -36769.08901561368, -36719.31168071171, -36709.5663201292, -36731.11340178411, -36731.53808492876, -36687.907479752, -36637.57135123865, -36629.16709532346, -36650.98239791184, -36651.60824675659, -36607.061220057156, -36556.90390549945, -36547.44911759486, -36569.3314754166, -36570.225545194815, -36528.763059230216, -36478.09165455004, -36467.96631431178, -36490.04983783363, -36492.59793670153, -36450.28608444764, -36400.128769889925, -36390.45046454078, -36412.95867120727, -36415.797342753096, -36374.87129865543, -36325.876274809394, -36315.79563806005, -36338.90734182684, -36342.170696517314, -36299.99295473015, -36249.58977098343, -36239.352672022906, -36261.81617520049, -36264.49838453512, -36222.298291003506, -36171.671589812235, -36160.11573792884, -36181.34989516138, -36183.897994029285, -36141.58614177539, -36090.512405695015, -36079.314181722904, -36100.928318611186, -36103.69993492364, -36062.08098674786, -36012.16954137916, -35999.80902669537, -36020.998480439004, -36023.74774500701, -35980.87709914173, -35929.088107238786, -35917.129923955195, -35938.8334678213, -35942.38739518969, -35901.52840632539, -35851.43814700105, -35839.30114976181, -35861.98817038396, -35866.45851927502, -35825.063088543786, -35774.45873909697, -35763.99812269189, -35786.327515402736, -35790.41788463806, -35750.29650334078, -35700.966203327924, -35688.89626132206, -35711.56093019974, -35716.05363083525, -35674.9711245264, -35623.40565006801, -35610.9557284064, -35632.77103099478, -35636.90610371901, -35596.80707416619, -35546.806221819665, -35533.57398910213, -35555.076367268135, -35559.9937510483, -35519.17946567291, -35467.88221214798, -35455.40993874192, -35477.00172388575, -35482.075569877095, -35441.28363624616, -35389.82992051005, -35379.034027938134, -35400.11172295949, -35403.978574750254, -35363.097234141496, -35311.017669560635, -35298.45598917675, -35320.315995254045, -35325.769820901136, -35285.849605303956, -35235.15584887932, -35221.051898128026, -35242.06253791601, -35246.6669972738, -35206.411505509794, -35154.1978304622, -35140.67502506674, -35162.95971428868, -35169.75464460309, -35130.370870872845, -35079.6324109593, -35066.5789921974, -35089.02014363052, -35096.12799836731, -35057.63829441527, -35006.74337229054, -34994.7628372625, -35018.12041021829, -35025.429430655175, -34986.67150576967, -34936.380080745235, -34922.63375790522, -34945.00785410498, -34952.74155768652, -34914.81064734586, -34863.803966498854, -34849.85647795874, -34871.76118752494, -34878.39965562816, -34840.06641388731, -34789.39500920713, -34775.17929973356, -34797.21811976649, -34804.393029736646, -34764.87514553966, -34713.30967108127, -34699.87627266363, -34722.451534563486, -34730.274645122845, -34691.963755126446, -34641.44881265746, -34627.21075143942, -34649.115461005626, -34656.89386807607, -34618.627681568585, -34566.39165477653, -34552.31005576969, -34574.34887580262, -34581.94846891743, -34543.07878530965, -34491.468607362345, -34476.358828110555, -34497.7941510432, -34505.796075558195, -34467.59694428408, -34415.830304125586, -34400.67582138489, -34421.708812917335, -34429.55427522115, -34391.04221952465, -34340.14729739992, -34326.4009745599, -34349.333864371045, -34358.47572785327, -34320.053079134595, -34267.07944477552, -34253.288418446595, -34276.556584424565, -34285.69844790679, -34249.10864223345, -34199.2195486092, -34185.45087402473, -34207.89202545786, -34217.279758129094, -34179.66177221081, -34127.51515239658, -34113.61236734538, -34137.08169902345, -34146.93881832824, -34109.27612892105, -34057.84476492939, -34043.47259324462, -34065.91374467775, -34075.68145700472, -34038.64461644228, -33986.69916232814, -33972.57285983239, -33995.01401126552, -34004.28998521447, -33967.65547605223, -33916.738202183034, -33901.628422931244, -33923.62253947527, -33933.25614133551, -33896.33105949534, -33843.91621874765, -33829.65580578516, -33853.41571014115, -33863.71986433505, -33827.55474180636, -33777.33037201528, -33763.852270108735, -33787.43336050909, -33799.21272983703, -33764.344008486754, -33713.449086362016, -33699.52394956636, -33723.172095200076, -33734.8620575502, -33699.41219084409, -33647.600847196685, -33632.17814352252, -33653.881687388624, -33664.76698693836, -33629.25006499887, -33576.432892850986, -33559.8702502096, -33582.33375338719, -33592.97318374791, -33556.53984028576, -33504.16970302698, -33487.94233655243, -33509.33295599615, -33520.575883457175, -33484.85779581759, -33431.370071336045, -33414.9862426503, -33438.12029816154, -33450.05612970068, -33415.45562928386, -33364.09132052557, -33347.72984358428, -33368.94164907237, -33381.0786463116, -33347.01458776171, -33295.40440981441, -33279.646429973414, -33302.33345059556, -33314.895130979436, -33281.50162476321, -33231.43371718332, -33216.167475720344, -33237.75926086417, -33251.1479557929, -33218.693222843795, -33168.11122514144, -33152.46500402272, -33175.50965255614, -33188.8312922515, -33156.331855813485, -33106.018079044596, -33089.94717478123, -33110.93546282476, -33123.98888158666, -33091.176520726265, -33039.76750847906, -33023.383679793325, -33046.048348671, -33060.129947677844, -33028.09989787339, -32977.62965889331, -32961.1787749742, -32981.921193828726, -32995.756923646564, -32963.324542441915, -32911.714364494605, -32894.77174219749, -32917.01172793051, -32931.026271703995, -32899.10798062181, -32847.78837535243, -32830.26460769947, -32850.11295677578, -32862.69698890412, -32829.728165832545, -32777.290973340394, -32758.135528342194, -32778.989705919, -32792.35604910327, -32759.87896440971, -32708.00056552894, -32689.94035600905, -32710.302795207837, -32724.451449448046, -32693.00254499943, -32640.498297273913, -32622.281625542837, -32643.806355453296, -32658.737320749442, -32627.534285489834, -32576.035866264807, -32558.15447070056, -32578.98629653291, -32593.805503106774, -32562.222488191426, -32509.91940616601, -32491.345106523648, -32513.495685278856, -32528.87368546411, -32498.475313004892, -32447.446280413424, -32429.721347060367, -32450.620228126078, -32466.04293180024, -32435.376338407557, -32383.36382906006, -32364.901288139976, -32387.16362561746, -32403.480399069835, -32373.864337666553, -32321.985938785787, -32303.433990887883, -32324.10935450904, -32339.97909307231, -32310.09481073556, -32258.127004876973, -32238.52452498967, -32260.026903155675, -32275.896641718944, -32246.23587682675, -32194.42453317935, -32175.760826559166, -32196.70441111379, -32212.998832821708, -32183.628640607436, -32132.35373882696, -32112.952424639756, -32134.8347824615, -32151.375073358427, -32122.02723288861, -32070.77468285259, -32052.647418099335, -32073.859223587424, -32089.885424361877, -32060.649342614335, -32009.285033856042, -31989.23551907963, -32011.09552515692, -32028.820458509977, -32000.009059907086, -31948.13066102632, -31929.064623005943, -31950.589352916406, -31968.627210691837, -31940.37460570033, -31889.010296942033, -31869.139596121266, -31891.1784161542, -31908.679832062702, -31880.047247415456, -31828.39236597924, -31808.476961669563, -31828.749993890524, -31846.78785166596, -31818.62465365227, -31766.120405926755, -31744.99800741649, -31765.986295460025, -31783.599470090805, -31755.503327310485, -31703.60257668526, -31683.620117142218, -31703.580224940804, -31720.455792004563, -31692.47140794652, -31640.436546854562, -31619.649424511128, -31640.92828523258, -31659.055549985835, -31630.892351972147, -31578.38810424663, -31557.95860981448, -31578.052828079803, -31595.77776143286, -31568.419226219565, -31516.540827338795, -31495.463132317444, -31517.211379672455, -31536.724452581937, -31510.170580169033, -31458.56040222173, -31437.92974208948, -31458.98508536638, -31477.827605942206, -31451.474899229397, -31400.78114280476, -31379.479930338854, -31400.870549782583, -31421.277692470278, -31396.422552635977, -31345.326464811144, -31325.47811573483, -31346.399348544997, -31365.286572609733, -31339.29149380821, -31287.815426327637, -31265.70955106134, -31286.653135615965, -31306.725002136827, -31280.52875763521, -31228.13626863197, -31206.99151837725, -31228.13626863197, -31247.783452008185, -31222.3695185625, -31170.11114002599, -31147.35706417049, -31168.144186513924, -31188.08194256806, -31161.773939344162, -31109.4932090632, -31086.7391332077, -31106.654537517374, -31125.72057553775, -31100.172531625336, -31046.751862377154, -31022.56727487651, -31041.186278007783, -31060.073502072515, -31033.989016293173, -30981.03773367855, -30957.322532811468, -30975.919184198283, -30994.56053907401, -30968.811329461496, -30915.949453824695, -30892.25660470207, -30912.84256134541, -30933.18264879974, -30907.522846165044, -30855.264467628538, -30832.599798750856, -30853.141051905284, -30874.285802160004, -30851.039987926484, -30800.055658823927, -30776.85454807932, -30797.932243100673, -30819.68049045569, -30796.166455288705, -30744.735091297043, -30721.578684041346, -30742.41050987369, -30764.583440373357, -30741.449384862113, -30689.5933377258, -30665.609915925255, -30685.905299890674, -30707.608843756778, -30684.854767901277, -30633.758680076444, -30609.931720487086, -30629.869476541222, -30650.455433184557, -30627.63430209569, -30576.493510781947, -30551.90659188111, -30572.04551363534, -30594.6207755352, -30571.95610665752, -30520.27887347685, -30496.56367260977, -30517.7531263534, -30540.551905697812, -30518.8036583428, -30468.0428466848, -30443.455927783958, -30463.661904771558, -30487.08653296072, -30465.964134450453, -30415.60565419265, -30392.382191703582, -30412.96814834692, -30435.275189313317, -30413.9292733585, -30362.877889022577, -30338.179211399463, -30357.736987797856, -30380.938098542465, -30359.547479098735, -30308.183170340442, -30283.506844461783, -30303.71282144938, -30325.75164148231, -30304.22691157185, -30252.907306302466, -30226.576951334115, -30245.665341098946, -30269.000562310288, -30247.855812055568, -30196.670317252916, -30171.21168031832, -30190.702401483348, -30213.232959894296, -30192.043506150665, -30140.321569481086, -30113.87945579046, -30132.76667985519, -30156.303066766628, -30135.225371745277, -30083.749304264704, -30058.08950163001, -30077.379057094942, -30099.999022483713, -30078.563699551072, -30026.484134970207, -29999.729096857205, -30017.722251143725, -30040.677492699328, -30019.733908144703, -29967.631991819384, -29940.720491495194, -29959.518308582108, -29982.0265152486, -29961.194689416254, -29909.316290535487, -29882.02481055556, -29900.330889264453, -29924.269607576087, -29904.309499777497, -29853.526336375042, -29827.12892617332, -29846.507888616074, -29869.843109827416, -29849.86065028437, -29798.60810024835, -29771.003695846048, -29789.980326888603, -29815.148391145278, -29796.305870569453, -29745.299189722442, -29717.9630062536, -29736.492602407052, -29759.045512562458, -29738.906590808227, -29687.855206472304, -29659.82611892535, -29677.618107511775, -29702.316785134888, -29683.697782003615, -29632.981673834525, -29605.354917687768]]
