['beep', 0.0, 0.0, 0.0, 0.0, 0.0, 0.0, 0.0, 0.0]
['beep', 0.0, 505.9987909792413, 0.0, 0.0, 0.0, 0.0, -1471.8847241264255, 0.0]
['beep', 0.0, 506.53523284616864, 0.0, 0.0, 0.0, 0.0, -1474.4104712498752, 0.0]
['beep', 0.0, 505.3505903900374, 0.0, 0.0, 0.0, 0.0, -1475.930389872836, 0.0]
['beep', 0.0, 505.97643923478597, 0.0, 0.0, 0.0, 0.0, -1471.929427615336, 0.0]
['beep', 0.0, 507.0269712241854, 0.0, 0.0, 0.0, 0.0, -1471.7729654041489, 0.0]
['beep', 0.0, 505.8199770235988, 0.0, 0.0, 0.0, 0.0, -1472.220000293255, 0.0]
['beep', 0.0, 506.57993633507925, 0.0, 0.0, 0.0, 0.0, -1472.8905526269143, 0.0]
['beep', 0.0, 506.51288110171333, 0.0, 0.0, 0.0, 0.0, -1473.1364218159226, 0.0]
['beep', 0.0, 504.21065142281674, 0.0, 0.0, 0.0, 0.0, -1471.571799704051, 0.0]
['beep', 0.0, 503.96478223380836, 0.0, 0.0, 0.0, 0.0, -1472.4882212267187, 0.0]
['beep', 0.0, 505.104721201029, 0.0, 0.0, 0.0, 0.0, -1471.9964828487018, 0.0]
['beep', 0.0, 505.61881132350106, 0.0, 0.0, 0.0, 0.0, -1469.9848258477243, 0.0]
['beep', 0.0, 506.4011223794368, 0.0, 0.0, 0.0, 0.0, -1471.0130060926683, 0.0]
['beep', 0.0, 506.28936365716027, 0.0, 0.0, 0.0, 0.0, -1470.5659712035622, 0.0]
['beep', 0.0, 505.88703225696474, 0.0, 0.0, 0.0, 0.0, -1469.2248665362438, 0.0]
['beep', 0.0, 506.4681776128027, 0.0, 0.0, 0.0, 0.0, -1470.2306950367326, 0.0]
['beep', 0.0, 507.5857648355681, 0.0, 0.0, 0.0, 0.0, -1471.7729654041489, 0.0]
['beep', 0.0, 509.2397939252608, 0.0, 0.0, 0.0, 0.0, -1472.1976485487996, 0.0]
['beep', 0.0, 509.5750700920904, 0.0, 0.0, 0.0, 0.0, -1469.8283636365372, 0.0]
['beep', 0.0, 511.34085790405965, 0.0, 0.0, 0.0, 0.0, -1468.5319624581293, 0.0]
['beep', 0.0, 513.3972183939479, 0.0, 0.0, 0.0, 0.0, -1466.699119412794, 0.0]
['beep', 0.0, 513.5760323495904, 0.0, 0.0, 0.0, 0.0, -1467.0790990685343, 0.0]
['beep', 0.0, 512.5478521046463, 0.0, 0.0, 0.0, 0.0, -1469.4036804918862, 0.0]
['beep', 0.0, 512.1902241933614, 0.0, 0.0, 0.0, 0.0, -1468.7778316471376, 0.0]
['beep', 0.0, 511.87729977098707, 0.0, 0.0, 0.0, 0.0, -1467.123802557445, 0.0]
['beep', 0.0, 510.200918936839, 0.0, 0.0, 0.0, 0.0, -1464.9333316008249, 0.0]
['beep', 0.0, 509.8656427700094, 0.0, 0.0, 0.0, 0.0, -1465.737994401216, 0.0]
['beep', 0.0, 507.7869305356659, 0.0, 0.0, 0.0, 0.0, -1467.7272996577383, 0.0]
['beep', 0.0, 505.90938400142005, 0.0, 0.0, 0.0, 0.0, -1467.0120438351685, 0.0]
['beep', 0.0, 506.7363985462664, 0.0, 0.0, 0.0, 0.0, -1470.7894886481154, 0.0]
['beep', 0.0, 508.2116136803167, 0.0, 0.0, 0.0, 0.0, -1470.76713690366, 0.0]
['beep', 0.0, 510.08916021456247, 0.0, 0.0, 0.0, 0.0, -1465.961511845769, 0.0]
['beep', 0.0, 510.73736080376636, 0.0, 0.0, 0.0, 0.0, -1465.4250699788417, 0.0]
['beep', 0.0, 509.8879945144647, 0.0, 0.0, 0.0, 0.0, -1464.6651106673612, 0.0]
['beep', 0.0, 509.5527183476351, 0.0, 0.0, 0.0, 0.0, -1463.8380961225148, 0.0]
['beep', 0.0, 508.8821660139759, 0.0, 0.0, 0.0, 0.0, -1463.6592821668723, 0.0]
['beep', 0.0, 509.2397939252608, 0.0, 0.0, 0.0, 0.0, -1465.894456612403, 0.0]
['beep', 0.0, 509.2621456697161, 0.0, 0.0, 0.0, 0.0, -1465.022738578646, 0.0]
['beep', 0.0, 507.7869305356659, 0.0, 0.0, 0.0, 0.0, -1462.7428606442047, 0.0]
['beep', 0.0, 508.30102065813793, 0.0, 0.0, 0.0, 0.0, -1462.2064187772773, 0.0]
['beep', 0.0, 509.4633113698139, 0.0, 0.0, 0.0, 0.0, -1463.5028199556853, 0.0]
['beep', 0.0, 509.5303666031798, 0.0, 0.0, 0.0, 0.0, -1463.7933926336043, 0.0]
['beep', 0.0, 509.9326980033753, 0.0, 0.0, 0.0, 0.0, -1465.8497531234925, 0.0]
['beep', 0.0, 507.7869305356659, 0.0, 0.0, 0.0, 0.0, -1466.1179740569562, 0.0]
['beep', 0.0, 507.65282006893403, 0.0, 0.0, 0.0, 0.0, -1463.0781368110345, 0.0]
['beep', 0.0, 508.34572414704854, 0.0, 0.0, 0.0, 0.0, -1463.2345990222216, 0.0]
['beep', 0.0, 510.08916021456247, 0.0, 0.0, 0.0, 0.0, -1463.5698751890511, 0.0]
['beep', 0.0, 510.64795382594514, 0.0, 0.0, 0.0, 0.0, -1462.966378088758, 0.0]
['beep', 0.0, 509.8209392810988, 0.0, 0.0, 0.0, 0.0, -1461.7146803992607, 0.0]
['beep', 0.0, 508.524538102691, 0.0, 0.0, 0.0, 0.0, -1462.2958257550986, 0.0]
['beep', 0.0, 510.1338637034731, 0.0, 0.0, 0.0, 0.0, -1462.7428606442047, 0.0]
['beep', 0.0, 509.619773581001, 0.0, 0.0, 0.0, 0.0, -1463.1898955333108, 0.0]
['beep', 0.0, 509.105683458529, 0.0, 0.0, 0.0, 0.0, -1460.999424576691, 0.0]
['beep', 0.0, 509.7762357921882, 0.0, 0.0, 0.0, 0.0, -1459.054822809079, 0.0]
['beep', 0.0, 509.4633113698139, 0.0, 0.0, 0.0, 0.0, -1459.1665815313556, 0.0]
['beep', 0.0, 509.5974218365457, 0.0, 0.0, 0.0, 0.0, -1458.831305364526, 0.0]
['beep', 0.0, 510.08916021456247, 0.0, 0.0, 0.0, 0.0, -1459.85948560947, 0.0]
['beep', 0.0, 509.32920090308204, 0.0, 0.0, 0.0, 0.0, -1461.2452937656992, 0.0]
['beep', 0.0, 508.74805554724406, 0.0, 0.0, 0.0, 0.0, -1458.6524914088836, 0.0]
['beep', 0.0, 510.1338637034731, 0.0, 0.0, 0.0, 0.0, -1458.1607530308668, 0.0]
['beep', 0.0, 510.6032503370345, 0.0, 0.0, 0.0, 0.0, -1457.5349041861182, 0.0]
['beep', 0.0, 510.4467881258474, 0.0, 0.0, 0.0, 0.0, -1459.6359681649171, 0.0]
['beep', 0.0, 510.75971254822167, 0.0, 0.0, 0.0, 0.0, -1459.993596076202, 0.0]
['beep', 0.0, 510.2232706812943, 0.0, 0.0, 0.0, 0.0, -1459.6583199093725, 0.0]
['beep', 0.0, 510.35738114802615, 0.0, 0.0, 0.0, 0.0, -1460.0830030540233, 0.0]
['beep', 0.0, 510.8044160371323, 0.0, 0.0, 0.0, 0.0, -1459.5912646760064, 0.0]
['beep', 0.0, 510.8714712704982, 0.0, 0.0, 0.0, 0.0, -1460.7088518987719, 0.0]
['beep', 0.0, 510.75971254822167, 0.0, 0.0, 0.0, 0.0, -1460.9547210877802, 0.0]
['beep', 0.0, 512.167872448906, 0.0, 0.0, 0.0, 0.0, -1458.4736774532412, 0.0]
['beep', 0.0, 512.7266660602887, 0.0, 0.0, 0.0, 0.0, -1458.026642564135, 0.0]
['beep', 0.0, 513.5536806051351, 0.0, 0.0, 0.0, 0.0, -1460.8429623655036, 0.0]
['beep', 0.0, 514.7383230612663, 0.0, 0.0, 0.0, 0.0, -1459.3900989759088, 0.0]
['beep', 0.0, 514.5371573611686, 0.0, 0.0, 0.0, 0.0, -1459.3677472314534, 0.0]
['beep', 0.0, 513.4195701384032, 0.0, 0.0, 0.0, 0.0, -1455.8808750964256, 0.0]
['beep', 0.0, 512.8831282714758, 0.0, 0.0, 0.0, 0.0, -1456.8867035969145, 0.0]
['beep', 0.0, 514.2912881721602, 0.0, 0.0, 0.0, 0.0, -1457.0208140636462, 0.0]
['beep', 0.0, 514.7606748057217, 0.0, 0.0, 0.0, 0.0, -1457.6019594194843, 0.0]
['beep', 0.0, 513.7324945607776, 0.0, 0.0, 0.0, 0.0, -1458.7195466422495, 0.0]
['beep', 0.0, 513.3972183939479, 0.0, 0.0, 0.0, 0.0, -1457.9148838418585, 0.0]
['beep', 0.0, 513.8666050275094, 0.0, 0.0, 0.0, 0.0, -1456.9090553413696, 0.0]
['beep', 0.0, 514.4477503833474, 0.0, 0.0, 0.0, 0.0, -1458.1831047753221, 0.0]
['beep', 0.0, 514.8053782946323, 0.0, 0.0, 0.0, 0.0, -1457.9372355863138, 0.0]
['beep', 0.0, 514.6265643389899, 0.0, 0.0, 0.0, 0.0, -1457.1102210414674, 0.0]
['beep', 0.0, 515.073599228096, 0.0, 0.0, 0.0, 0.0, -1458.3619187309646, 0.0]
['beep', 0.0, 514.492453872258, 0.0, 0.0, 0.0, 0.0, -1458.8089536200707, 0.0]
['beep', 0.0, 514.7830265501769, 0.0, 0.0, 0.0, 0.0, -1458.1160495419563, 0.0]
['beep', 0.0, 515.8335585395764, 0.0, 0.0, 0.0, 0.0, -1460.3959274763974, 0.0]
['beep', 0.0, 515.073599228096, 0.0, 0.0, 0.0, 0.0, -1459.6806716538276, 0.0]
['beep', 0.0, 514.7606748057217, 0.0, 0.0, 0.0, 0.0, -1458.7195466422495, 0.0]
['beep', 0.0, 515.6323928394786, 0.0, 0.0, 0.0, 0.0, -1457.7584216306714, 0.0]
['beep', 0.0, 517.1746632068948, 0.0, 0.0, 0.0, 0.0, -1458.9207123423473, 0.0]
['beep', 0.0, 517.2417184402607, 0.0, 0.0, 0.0, 0.0, -1457.3337384860206, 0.0]
['beep', 0.0, 517.1299597179842, 0.0, 0.0, 0.0, 0.0, -1456.9761105747357, 0.0]
['beep', 0.0, 517.5769946070903, 0.0, 0.0, 0.0, 0.0, -1458.540732686607, 0.0]
['beep', 0.0, 517.621698096001, 0.0, 0.0, 0.0, 0.0, -1460.1277065429338, 0.0]
['beep', 0.0, 517.3534771625373, 0.0, 0.0, 0.0, 0.0, -1457.4007937193865, 0.0]
['beep', 0.0, 516.7052765733333, 0.0, 0.0, 0.0, 0.0, -1458.3619187309646, 0.0]
['beep', 0.0, 516.7052765733333, 0.0, 0.0, 0.0, 0.0, -1459.3900989759088, 0.0]
['beep', 0.0, 516.2358899397719, 0.0, 0.0, 0.0, 0.0, -1456.2385030077105, 0.0]
['beep', 0.0, 516.4370556398696, 0.0, 0.0, 0.0, 0.0, -1456.1490960298893, 0.0]
['beep', 0.0, 515.9453172618529, 0.0, 0.0, 0.0, 0.0, -1458.1160495419563, 0.0]
['beep', 0.0, 515.4982823727468, 0.0, 0.0, 0.0, 0.0, -1458.0042908196797, 0.0]
['beep', 0.0, 514.2242329387943, 0.0, 0.0, 0.0, 0.0, -1458.3619187309646, 0.0]
['beep', 0.0, 513.8219015385988, 0.0, 0.0, 0.0, 0.0, -1457.892532097403, 0.0]
['beep', 0.0, 514.4477503833474, 0.0, 0.0, 0.0, 0.0, -1457.7584216306714, 0.0]
['beep', 0.0, 516.1017794730401, 0.0, 0.0, 0.0, 0.0, -1457.870180352948, 0.0]
['beep', 0.0, 516.7946835511545, 0.0, 0.0, 0.0, 0.0, -1457.6913663973055, 0.0]
['beep', 0.0, 516.0123724952189, 0.0, 0.0, 0.0, 0.0, -1458.540732686607, 0.0]
['beep', 0.0, 514.8277300390876, 0.0, 0.0, 0.0, 0.0, -1458.4960291976965, 0.0]
['beep', 0.0, 515.2747649281937, 0.0, 0.0, 0.0, 0.0, -1459.7253751427384, 0.0]
['beep', 0.0, 515.1406544614618, 0.0, 0.0, 0.0, 0.0, -1459.8147821205596, 0.0]
['beep', 0.0, 515.0959509725512, 0.0, 0.0, 0.0, 0.0, -1458.0042908196797, 0.0]
['beep', 0.0, 514.6712678279005, 0.0, 0.0, 0.0, 0.0, -1459.7700786316489, 0.0]
['beep', 0.0, 513.687791071867, 0.0, 0.0, 0.0, 0.0, -1457.6690146528501, 0.0]
['beep', 0.0, 514.5818608500792, 0.0, 0.0, 0.0, 0.0, -1455.6797093963278, 0.0]
['beep', 0.0, 515.2300614392831, 0.0, 0.0, 0.0, 0.0, -1460.3288722430316, 0.0]
['beep', 0.0, 515.7888550506658, 0.0, 0.0, 0.0, 0.0, -1459.5242094426405, 0.0]
['beep', 0.0, 515.5429858616574, 0.0, 0.0, 0.0, 0.0, -1456.6855378968166, 0.0]
['beep', 0.0, 517.0852562290736, 0.0, 0.0, 0.0, 0.0, -1456.8196483635484, 0.0]
['beep', 0.0, 517.8675672850094, 0.0, 0.0, 0.0, 0.0, -1457.6913663973055, 0.0]
['beep', 0.0, 517.4205323959031, 0.0, 0.0, 0.0, 0.0, -1457.3337384860206, 0.0]
['beep', 0.0, 517.264070184716, 0.0, 0.0, 0.0, 0.0, -1457.8254768640372, 0.0]
['beep', 0.0, 516.6605730844227, 0.0, 0.0, 0.0, 0.0, -1459.2559885091769, 0.0]
['beep', 0.0, 515.4535788838361, 0.0, 0.0, 0.0, 0.0, -1461.3570524879758, 0.0]
['beep', 0.0, 514.0230672386965, 0.0, 0.0, 0.0, 0.0, -1458.4736774532412, 0.0]
['beep', 0.0, 514.3359916610708, 0.0, 0.0, 0.0, 0.0, -1456.640834407906, 0.0]
['beep', 0.0, 514.492453872258, 0.0, 0.0, 0.0, 0.0, -1458.4736774532412, 0.0]
['beep', 0.0, 513.1066457160289, 0.0, 0.0, 0.0, 0.0, -1459.546561187096, 0.0]
['beep', 0.0, 513.1737009493949, 0.0, 0.0, 0.0, 0.0, -1459.993596076202, 0.0]
['beep', 0.0, 514.7383230612663, 0.0, 0.0, 0.0, 0.0, -1460.0159478206574, 0.0]
['beep', 0.0, 515.0288957391854, 0.0, 0.0, 0.0, 0.0, -1460.6194449209506, 0.0]
['beep', 0.0, 514.2912881721602, 0.0, 0.0, 0.0, 0.0, -1458.9654158312578, 0.0]
['beep', 0.0, 513.91130851642, 0.0, 0.0, 0.0, 0.0, -1457.9595873307692, 0.0]
['beep', 0.0, 514.1571777054284, 0.0, 0.0, 0.0, 0.0, -1458.898360597892, 0.0]
['beep', 0.0, 513.1737009493949, 0.0, 0.0, 0.0, 0.0, -1458.0042908196797, 0.0]
['beep', 0.0, 512.4360933823697, 0.0, 0.0, 0.0, 0.0, -1457.1772762748333, 0.0]
['beep', 0.0, 512.3019829156378, 0.0, 0.0, 0.0, 0.0, -1457.892532097403, 0.0]
['beep', 0.0, 511.6090788375234, 0.0, 0.0, 0.0, 0.0, -1460.2618170096657, 0.0]
['beep', 0.0, 510.4691398703027, 0.0, 0.0, 0.0, 0.0, -1457.8031251195819, 0.0]
['beep', 0.0, 511.2514509262384, 0.0, 0.0, 0.0, 0.0, -1456.4620204522635, 0.0]
['beep', 0.0, 511.87729977098707, 0.0, 0.0, 0.0, 0.0, -1457.3560902304757, 0.0]
['beep', 0.0, 512.5478521046463, 0.0, 0.0, 0.0, 0.0, -1457.8031251195819, 0.0]
['beep', 0.0, 511.56437534861277, 0.0, 0.0, 0.0, 0.0, -1456.1937995187998, 0.0]
['beep', 0.0, 511.4973201152468, 0.0, 0.0, 0.0, 0.0, -1456.1937995187998, 0.0]
['beep', 0.0, 512.3690381490038, 0.0, 0.0, 0.0, 0.0, -1456.4620204522635, 0.0]
['beep', 0.0, 512.9278317603864, 0.0, 0.0, 0.0, 0.0, -1456.439668707808, 0.0]
['beep', 0.0, 512.9948869937524, 0.0, 0.0, 0.0, 0.0, -1454.8079913625709, 0.0]
['beep', 0.0, 512.4807968712803, 0.0, 0.0, 0.0, 0.0, -1454.7409361292048, 0.0]
['beep', 0.0, 512.4360933823697, 0.0, 0.0, 0.0, 0.0, -1456.7749448746379, 0.0]
['beep', 0.0, 512.1902241933614, 0.0, 0.0, 0.0, 0.0, -1456.1937995187998, 0.0]
['beep', 0.0, 512.6149073380121, 0.0, 0.0, 0.0, 0.0, -1454.6291774069284, 0.0]
['beep', 0.0, 512.7713695491993, 0.0, 0.0, 0.0, 0.0, -1454.2268460067328, 0.0]
['beep', 0.0, 513.0619422271183, 0.0, 0.0, 0.0, 0.0, -1455.0762122960346, 0.0]
['beep', 0.0, 513.4419218828585, 0.0, 0.0, 0.0, 0.0, -1454.6515291513836, 0.0]
['beep', 0.0, 512.7043143158334, 0.0, 0.0, 0.0, 0.0, -1452.058726794568, 0.0]
['beep', 0.0, 512.2796311711826, 0.0, 0.0, 0.0, 0.0, -1454.8079913625709, 0.0]
['beep', 0.0, 512.6372590824675, 0.0, 0.0, 0.0, 0.0, -1455.187971018311, 0.0]
['beep', 0.0, 512.167872448906, 0.0, 0.0, 0.0, 0.0, -1454.1150872844562, 0.0]
['beep', 0.0, 510.8491195260429, 0.0, 0.0, 0.0, 0.0, -1450.9411395718028, 0.0]
['beep', 0.0, 511.5867270930681, 0.0, 0.0, 0.0, 0.0, -1452.3269477280317, 0.0]
['beep', 0.0, 512.6819625713781, 0.0, 0.0, 0.0, 0.0, -1453.1092587839676, 0.0]
['beep', 0.0, 512.6596108269227, 0.0, 0.0, 0.0, 0.0, -1451.6116919054618, 0.0]
['beep', 0.0, 512.9501835048418, 0.0, 0.0, 0.0, 0.0, -1454.1374390289116, 0.0]
['beep', 0.0, 511.9220032598977, 0.0, 0.0, 0.0, 0.0, -1454.3609564734647, 0.0]
['beep', 0.0, 512.1231689599954, 0.0, 0.0, 0.0, 0.0, -1453.1316105284227, 0.0]
['beep', 0.0, 513.7324945607776, 0.0, 0.0, 0.0, 0.0, -1455.0985640404897, 0.0]
['beep', 0.0, 514.3359916610708, 0.0, 0.0, 0.0, 0.0, -1456.059689052068, 0.0]
['beep', 0.0, 513.4419218828585, 0.0, 0.0, 0.0, 0.0, -1452.1257820279338, 0.0]
['beep', 0.0, 513.6654393274116, 0.0, 0.0, 0.0, 0.0, -1451.3434709719982, 0.0]
['beep', 0.0, 513.8219015385988, 0.0, 0.0, 0.0, 0.0, -1452.3716512169424, 0.0]
['beep', 0.0, 514.3136399166156, 0.0, 0.0, 0.0, 0.0, -1453.3104244840652, 0.0]
['beep', 0.0, 513.3748666494926, 0.0, 0.0, 0.0, 0.0, -1451.7234506277384, 0.0]
['beep', 0.0, 513.9560120053306, 0.0, 0.0, 0.0, 0.0, -1451.5893401610065, 0.0]
['beep', 0.0, 514.4030468944368, 0.0, 0.0, 0.0, 0.0, -1454.450363451286, 0.0]
['beep', 0.0, 514.0230672386965, 0.0, 0.0, 0.0, 0.0, -1452.5504651725848, 0.0]
['beep', 0.0, 514.4477503833474, 0.0, 0.0, 0.0, 0.0, -1453.4892384397076, 0.0]
['beep', 0.0, 513.4866253717692, 0.0, 0.0, 0.0, 0.0, -1452.639872150406, 0.0]
['beep', 0.0, 514.6265643389899, 0.0, 0.0, 0.0, 0.0, -1449.801200604582, 0.0]
['beep', 0.0, 514.0007154942413, 0.0, 0.0, 0.0, 0.0, -1450.605863404973, 0.0]
['beep', 0.0, 513.7771980496882, 0.0, 0.0, 0.0, 0.0, -1451.0528982940791, 0.0]
['beep', 0.0, 514.425398638892, 0.0, 0.0, 0.0, 0.0, -1452.4610581947636, 0.0]
['beep', 0.0, 514.3806951499814, 0.0, 0.0, 0.0, 0.0, -1452.8857413394144, 0.0]
['beep', 0.0, 514.6042125945345, 0.0, 0.0, 0.0, 0.0, -1451.701098883283, 0.0]
['beep', 0.0, 515.3418201615597, 0.0, 0.0, 0.0, 0.0, -1451.0976017829898, 0.0]
['beep', 0.0, 516.6829248288781, 0.0, 0.0, 0.0, 0.0, -1450.6952703827942, 0.0]
['beep', 0.0, 515.9453172618529, 0.0, 0.0, 0.0, 0.0, -1451.4328779498194, 0.0]
['beep', 0.0, 517.1299597179842, 0.0, 0.0, 0.0, 0.0, -1451.030546549624, 0.0]
['beep', 0.0, 517.4205323959031, 0.0, 0.0, 0.0, 0.0, -1451.0528982940791, 0.0]
['beep', 0.0, 516.6829248288781, 0.0, 0.0, 0.0, 0.0, -1452.57281691704, 0.0]
['beep', 0.0, 517.8228637960988, 0.0, 0.0, 0.0, 0.0, -1452.3045959835763, 0.0]
['beep', 0.0, 517.4205323959031, 0.0, 0.0, 0.0, 0.0, -1451.2987674830877, 0.0]
['beep', 0.0, 516.9287940178864, 0.0, 0.0, 0.0, 0.0, -1450.896436082892, 0.0]
['beep', 0.0, 517.3087736736267, 0.0, 0.0, 0.0, 0.0, -1450.8740843384367, 0.0]
['beep', 0.0, 516.1241312174953, 0.0, 0.0, 0.0, 0.0, -1451.5893401610065, 0.0]
['beep', 0.0, 516.5264626176909, 0.0, 0.0, 0.0, 0.0, -1452.4610581947636, 0.0]
['beep', 0.0, 518.6945818298557, 0.0, 0.0, 0.0, 0.0, -1452.2822442391212, 0.0]
['beep', 0.0, 518.2922504296602, 0.0, 0.0, 0.0, 0.0, -1451.9022645833809, 0.0]
['beep', 0.0, 518.6275265964898, 0.0, 0.0, 0.0, 0.0, -1452.2598924946658, 0.0]
['beep', 0.0, 518.493416129758, 0.0, 0.0, 0.0, 0.0, -1450.896436082892, 0.0]
['beep', 0.0, 518.5381196186686, 0.0, 0.0, 0.0, 0.0, -1449.6000349044843, 0.0]
['beep', 0.0, 518.6275265964898, 0.0, 0.0, 0.0, 0.0, -1451.0081948051686, 0.0]
['beep', 0.0, 517.5769946070903, 0.0, 0.0, 0.0, 0.0, -1452.1257820279338, 0.0]
['beep', 0.0, 517.8005120516434, 0.0, 0.0, 0.0, 0.0, -1452.0140233056575, 0.0]
['beep', 0.0, 517.9793260072859, 0.0, 0.0, 0.0, 0.0, -1451.701098883283, 0.0]
['beep', 0.0, 517.8005120516434, 0.0, 0.0, 0.0, 0.0, -1452.8410378505037, 0.0]
['beep', 0.0, 517.040552740163, 0.0, 0.0, 0.0, 0.0, -1453.153962272878, 0.0]
['beep', 0.0, 516.6605730844227, 0.0, 0.0, 0.0, 0.0, -1453.7351076287162, 0.0]
['beep', 0.0, 516.6158695955121, 0.0, 0.0, 0.0, 0.0, -1454.7185843847496, 0.0]
['beep', 0.0, 517.4652358848138, 0.0, 0.0, 0.0, 0.0, -1452.9080930838697, 0.0]
['beep', 0.0, 519.1639684634172, 0.0, 0.0, 0.0, 0.0, -1453.6009971619842, 0.0]
['beep', 0.0, 521.1532737199394, 0.0, 0.0, 0.0, 0.0, -1454.025680306635, 0.0]
['beep', 0.0, 522.3379161760707, 0.0, 0.0, 0.0, 0.0, -1453.8915698399032, 0.0]
['beep', 0.0, 523.0308202541853, 0.0, 0.0, 0.0, 0.0, -1453.4668866952525, 0.0]
['beep', 0.0, 523.8354830545763, 0.0, 0.0, 0.0, 0.0, -1452.8857413394144, 0.0]
['beep', 0.0, 523.4555033988361, 0.0, 0.0, 0.0, 0.0, -1453.511590184163, 0.0]
['beep', 0.0, 522.3826196649813, 0.0, 0.0, 0.0, 0.0, -1453.9362733288137, 0.0]
['beep', 0.0, 520.9297562753864, 0.0, 0.0, 0.0, 0.0, -1452.2375407502104, 0.0]
['beep', 0.0, 520.0803899860847, 0.0, 0.0, 0.0, 0.0, -1451.3658227164535, 0.0]
['beep', 0.0, 518.7392853187663, 0.0, 0.0, 0.0, 0.0, -1453.6233489064396, 0.0]
['beep', 0.0, 518.6275265964898, 0.0, 0.0, 0.0, 0.0, -1452.505761683674, 0.0]
['beep', 0.0, 518.5157678742132, 0.0, 0.0, 0.0, 0.0, -1453.66805239535, 0.0]
['beep', 0.0, 517.8228637960988, 0.0, 0.0, 0.0, 0.0, -1453.0645552950568, 0.0]
['beep', 0.0, 516.9958492512524, 0.0, 0.0, 0.0, 0.0, -1453.0645552950568, 0.0]
['beep', 0.0, 517.0629044846182, 0.0, 0.0, 0.0, 0.0, -1453.221017506244, 0.0]
['beep', 0.0, 516.459407384325, 0.0, 0.0, 0.0, 0.0, -1454.5174186846518, 0.0]
['beep', 0.0, 516.2582416842272, 0.0, 0.0, 0.0, 0.0, -1455.3667849739534, 0.0]
['beep', 0.0, 516.9064422734311, 0.0, 0.0, 0.0, 0.0, -1455.5232471851407, 0.0]
['beep', 0.0, 517.7334568182775, 0.0, 0.0, 0.0, 0.0, -1455.1432675294004, 0.0]
['beep', 0.0, 516.5711661066015, 0.0, 0.0, 0.0, 0.0, -1453.9139215843586, 0.0]
['beep', 0.0, 515.878262028487, 0.0, 0.0, 0.0, 0.0, -1455.5903024185066, 0.0]
['beep', 0.0, 516.8617387845205, 0.0, 0.0, 0.0, 0.0, -1456.417316963353, 0.0]
['beep', 0.0, 516.4147038954144, 0.0, 0.0, 0.0, 0.0, -1454.5621221735623, 0.0]
['beep', 0.0, 517.6440498404563, 0.0, 0.0, 0.0, 0.0, -1454.5621221735623, 0.0]
['beep', 0.0, 517.6887533293669, 0.0, 0.0, 0.0, 0.0, -1453.6233489064396, 0.0]
['beep', 0.0, 518.1804917073837, 0.0, 0.0, 0.0, 0.0, -1452.6845756393166, 0.0]
['beep', 0.0, 519.0522097411406, 0.0, 0.0, 0.0, 0.0, -1453.0869070395122, 0.0]
['beep', 0.0, 518.9851545077747, 0.0, 0.0, 0.0, 0.0, -1453.7127558842608, 0.0]
['beep', 0.0, 519.0298579966853, 0.0, 0.0, 0.0, 0.0, -1454.3609564734647, 0.0]
['beep', 0.0, 517.3311254180819, 0.0, 0.0, 0.0, 0.0, -1452.997500061691, 0.0]
['beep', 0.0, 517.3087736736267, 0.0, 0.0, 0.0, 0.0, -1453.1986657617888, 0.0]
['beep', 0.0, 516.7499800622439, 0.0, 0.0, 0.0, 0.0, -1454.5621221735623, 0.0]
['beep', 0.0, 517.264070184716, 0.0, 0.0, 0.0, 0.0, -1454.2491977511881, 0.0]
['beep', 0.0, 517.1970149513501, 0.0, 0.0, 0.0, 0.0, -1453.958625073269, 0.0]
['beep', 0.0, 516.5041108732356, 0.0, 0.0, 0.0, 0.0, -1454.673880895839, 0.0]
['beep', 0.0, 516.6158695955121, 0.0, 0.0, 0.0, 0.0, -1454.3609564734647, 0.0]
['beep', 0.0, 516.7946835511545, 0.0, 0.0, 0.0, 0.0, -1455.411488462864, 0.0]
['beep', 0.0, 516.973497506797, 0.0, 0.0, 0.0, 0.0, -1455.992633818702, 0.0]
['beep', 0.0, 516.7946835511545, 0.0, 0.0, 0.0, 0.0, -1454.3386047290094, 0.0]
['beep', 0.0, 515.7441515617552, 0.0, 0.0, 0.0, 0.0, -1454.4056599623752, 0.0]
['beep', 0.0, 515.9229655173976, 0.0, 0.0, 0.0, 0.0, -1454.2044942622774, 0.0]
['beep', 0.0, 516.7276283177887, 0.0, 0.0, 0.0, 0.0, -1455.0315088071238, 0.0]
['beep', 0.0, 516.3476486620484, 0.0, 0.0, 0.0, 0.0, -1455.47854369623, 0.0]
['beep', 0.0, 516.1911864508613, 0.0, 0.0, 0.0, 0.0, -1456.3279099855317, 0.0]
['beep', 0.0, 515.3641719060149, 0.0, 0.0, 0.0, 0.0, -1456.3726134744422, 0.0]
['beep', 0.0, 517.1523114624395, 0.0, 0.0, 0.0, 0.0, -1455.2773779961321, 0.0]
['beep', 0.0, 516.4370556398696, 0.0, 0.0, 0.0, 0.0, -1455.9702820742468, 0.0]
['beep', 0.0, 517.0182009957076, 0.0, 0.0, 0.0, 0.0, -1455.4338402073195, 0.0]
['beep', 0.0, 530.5857098800791, 0.0, 0.0, 0.0, 0.0, -1440.0558400220682, 0.0]
['beep', 0.0, 530.0269162686964, 0.0, 0.0, 0.0, 0.0, -1438.737087099205, 0.0]
['beep', 0.0, 530.138674990973, 0.0, 0.0, 0.0, 0.0, -1437.574796387529, 0.0]
['beep', 0.0, 530.6080616245343, 0.0, 0.0, 0.0, 0.0, -1437.0383545206016, 0.0]
['beep', 0.0, 530.2057302243388, 0.0, 0.0, 0.0, 0.0, -1438.670031865839, 0.0]
['beep', 0.0, 528.5517011346461, 0.0, 0.0, 0.0, 0.0, -1438.2006452322776, 0.0]
['beep', 0.0, 528.0823145010846, 0.0, 0.0, 0.0, 0.0, -1439.47469466623, 0.0]
['beep', 0.0, 528.5293493901908, 0.0, 0.0, 0.0, 0.0, -1437.6865551098056, 0.0]
['beep', 0.0, 529.3787156794924, 0.0, 0.0, 0.0, 0.0, -1436.3230986980318, 0.0]
['beep', 0.0, 529.4010674239478, 0.0, 0.0, 0.0, 0.0, -1438.4688661657412, 0.0]
['beep', 0.0, 529.0434395126629, 0.0, 0.0, 0.0, 0.0, -1438.9829562882135, 0.0]
['beep', 0.0, 529.2446052127606, 0.0, 0.0, 0.0, 0.0, -1439.1394184994006, 0.0]
['beep', 0.0, 530.2504337132494, 0.0, 0.0, 0.0, 0.0, -1439.2064737327664, 0.0]
['beep', 0.0, 531.0998000025511, 0.0, 0.0, 0.0, 0.0, -1437.4853894097078, 0.0]
['beep', 0.0, 530.2727854577048, 0.0, 0.0, 0.0, 0.0, -1436.90424405387, 0.0]
['beep', 0.0, 530.8092273246322, 0.0, 0.0, 0.0, 0.0, -1439.027659777124, 0.0]
['beep', 0.0, 530.7645238357215, 0.0, 0.0, 0.0, 0.0, -1439.2958807105877, 0.0]
['beep', 0.0, 529.7586953352327, 0.0, 0.0, 0.0, 0.0, -1437.574796387529, 0.0]
['beep', 0.0, 530.8092273246322, 0.0, 0.0, 0.0, 0.0, -1440.0558400220682, 0.0]
['beep', 0.0, 530.3174889466154, 0.0, 0.0, 0.0, 0.0, -1439.6535086218726, 0.0]
['beep', 0.0, 528.8199220681098, 0.0, 0.0, 0.0, 0.0, -1437.351278942976, 0.0]
['beep', 0.0, 529.2669569572159, 0.0, 0.0, 0.0, 0.0, -1437.1501132428782, 0.0]
['beep', 0.0, 530.1163232465176, 0.0, 0.0, 0.0, 0.0, -1437.1501132428782, 0.0]
['beep', 0.0, 531.3456691915595, 0.0, 0.0, 0.0, 0.0, -1437.351278942976, 0.0]
['beep', 0.0, 533.7373058482774, 0.0, 0.0, 0.0, 0.0, -1434.9819940307134, 0.0]
['beep', 0.0, 530.1163232465176, 0.0, 0.0, 0.0, 0.0, -1433.3279649410208, 0.0]
['beep', 0.0, 521.7791225646881, 0.0, 0.0, 0.0, 0.0, -1432.1656742293446, 0.0]
['beep', 0.0, 518.8286922965875, 0.0, 0.0, 0.0, 0.0, -1432.1209707404341, 0.0]
['beep', 0.0, 517.621698096001, 0.0, 0.0, 0.0, 0.0, -1431.0704387510348, 0.0]
['beep', 0.0, 518.2698986852049, 0.0, 0.0, 0.0, 0.0, -1428.9693747722358, 0.0]
['beep', 0.0, 519.00750625223, 0.0, 0.0, 0.0, 0.0, -1432.3891916738978, 0.0]
['beep', 0.0, 521.3991429089479, 0.0, 0.0, 0.0, 0.0, -1431.517473640141, 0.0]
['beep', 0.0, 521.6450120979563, 0.0, 0.0, 0.0, 0.0, -1430.4892933951967, 0.0]
['beep', 0.0, 520.9968115087523, 0.0, 0.0, 0.0, 0.0, -1431.830398062515, 0.0]
['beep', 0.0, 519.4545411413361, 0.0, 0.0, 0.0, 0.0, -1432.9479852852805, 0.0]
['beep', 0.0, 519.9686312638082, 0.0, 0.0, 0.0, 0.0, -1429.3046509390654, 0.0]
['beep', 0.0, 519.3204306746043, 0.0, 0.0, 0.0, 0.0, -1429.3940579168866, 0.0]
['beep', 0.0, 520.3039074306378, 0.0, 0.0, 0.0, 0.0, -1430.2657759506437, 0.0]
['beep', 0.0, 520.0133347527188, 0.0, 0.0, 0.0, 0.0, -1430.7798660731157, 0.0]
['beep', 0.0, 520.1250934749953, 0.0, 0.0, 0.0, 0.0, -1429.6622788503503, 0.0]
['beep', 0.0, 519.4768928857915, 0.0, 0.0, 0.0, 0.0, -1428.4329329053085, 0.0]
['beep', 0.0, 519.1639684634172, 0.0, 0.0, 0.0, 0.0, -1429.6622788503503, 0.0]
['beep', 0.0, 520.0803899860847, 0.0, 0.0, 0.0, 0.0, -1430.1987207172776, 0.0]
['beep', 0.0, 518.5604713631238, 0.0, 0.0, 0.0, 0.0, -1431.2492527066772, 0.0]
['beep', 0.0, 518.426360896392, 0.0, 0.0, 0.0, 0.0, -1429.706982339261, 0.0]
['beep', 0.0, 518.9180992744087, 0.0, 0.0, 0.0, 0.0, -1430.6010521174733, 0.0]
['beep', 0.0, 518.6945818298557, 0.0, 0.0, 0.0, 0.0, -1432.0762672515234, 0.0]
['beep', 0.0, 518.2475469407495, 0.0, 0.0, 0.0, 0.0, -1431.517473640141, 0.0]
['beep', 0.0, 518.8733957854981, 0.0, 0.0, 0.0, 0.0, -1433.1491509853784, 0.0]
['beep', 0.0, 518.1134364740177, 0.0, 0.0, 0.0, 0.0, -1433.3950201743867, 0.0]
['beep', 0.0, 517.5769946070903, 0.0, 0.0, 0.0, 0.0, -1432.4562469072637, 0.0]
['beep', 0.0, 517.8228637960988, 0.0, 0.0, 0.0, 0.0, -1433.4620754077525, 0.0]
['beep', 0.0, 516.9287940178864, 0.0, 0.0, 0.0, 0.0, -1433.0597440075571, 0.0]
['beep', 0.0, 517.6440498404563, 0.0, 0.0, 0.0, 0.0, -1434.0655725080458, 0.0]
['beep', 0.0, 517.2864219291713, 0.0, 0.0, 0.0, 0.0, -1433.4397236632972, 0.0]
['beep', 0.0, 515.2300614392831, 0.0, 0.0, 0.0, 0.0, -1432.2997846960766, 0.0]
['beep', 0.0, 515.6323928394786, 0.0, 0.0, 0.0, 0.0, -1434.1102759969565, 0.0]
['beep', 0.0, 516.5711661066015, 0.0, 0.0, 0.0, 0.0, -1436.121932997934, 0.0]
['beep', 0.0, 516.4817591287803, 0.0, 0.0, 0.0, 0.0, -1436.1889882313, 0.0]
['beep', 0.0, 516.2805934286826, 0.0, 0.0, 0.0, 0.0, -1436.0101742756576, 0.0]
['beep', 0.0, 515.8335585395764, 0.0, 0.0, 0.0, 0.0, -1434.4008486748755, 0.0]
['beep', 0.0, 516.5711661066015, 0.0, 0.0, 0.0, 0.0, -1434.512607397152, 0.0]
['beep', 0.0, 516.9511457623418, 0.0, 0.0, 0.0, 0.0, -1436.8148370760487, 0.0]
['beep', 0.0, 516.6382213399675, 0.0, 0.0, 0.0, 0.0, -1435.9207672978364, 0.0]
['beep', 0.0, 517.5099393737245, 0.0, 0.0, 0.0, 0.0, -1435.6301946199173, 0.0]
['beep', 0.0, 516.9064422734311, 0.0, 0.0, 0.0, 0.0, -1435.4737324087303, 0.0]
['beep', 0.0, 517.3087736736267, 0.0, 0.0, 0.0, 0.0, -1433.5514823855738, 0.0]
['beep', 0.0, 518.1804917073837, 0.0, 0.0, 0.0, 0.0, -1433.1715027298335, 0.0]
['beep', 0.0, 518.7616370632217, 0.0, 0.0, 0.0, 0.0, -1434.1773312303224, 0.0]
['beep', 0.0, 518.6498783409451, 0.0, 0.0, 0.0, 0.0, -1434.9149387973475, 0.0]
['beep', 0.0, 517.91227077392, 0.0, 0.0, 0.0, 0.0, -1433.9538137857694, 0.0]
['beep', 0.0, 517.0182009957076, 0.0, 0.0, 0.0, 0.0, -1435.317270197543, 0.0]
['beep', 0.0, 517.845215540554, 0.0, 0.0, 0.0, 0.0, -1437.5300928986185, 0.0]
['beep', 0.0, 518.2028434518389, 0.0, 0.0, 0.0, 0.0, -1433.2385579631996, 0.0]
['beep', 0.0, 517.1746632068948, 0.0, 0.0, 0.0, 0.0, -1430.869273050937, 0.0]
['beep', 0.0, 517.3981806514479, 0.0, 0.0, 0.0, 0.0, -1431.897453295881, 0.0]
['beep', 0.0, 518.2922504296602, 0.0, 0.0, 0.0, 0.0, -1434.7137730972497, 0.0]
['beep', 0.0, 519.0969132300512, 0.0, 0.0, 0.0, 0.0, -1435.764305086649, 0.0]
['beep', 0.0, 519.812169052621, 0.0, 0.0, 0.0, 0.0, -1434.0655725080458, 0.0]
['beep', 0.0, 518.2251951962943, 0.0, 0.0, 0.0, 0.0, -1432.7468195851827, 0.0]
['beep', 0.0, 518.6051748520345, 0.0, 0.0, 0.0, 0.0, -1433.3279649410208, 0.0]
['beep', 0.0, 518.0910847295625, 0.0, 0.0, 0.0, 0.0, -1434.0655725080458, 0.0]
['beep', 0.0, 517.5099393737245, 0.0, 0.0, 0.0, 0.0, -1433.797351574582, 0.0]
['beep', 0.0, 518.1357882184731, 0.0, 0.0, 0.0, 0.0, -1432.344488184987, 0.0]
['beep', 0.0, 518.426360896392, 0.0, 0.0, 0.0, 0.0, -1430.2434242061884, 0.0]
['beep', 0.0, 516.8170352956099, 0.0, 0.0, 0.0, 0.0, -1431.316307940043, 0.0]
['beep', 0.0, 515.3418201615597, 0.0, 0.0, 0.0, 0.0, -1431.673935851328, 0.0]
['beep', 0.0, 516.4147038954144, 0.0, 0.0, 0.0, 0.0, -1430.355182928465, 0.0]
['beep', 0.0, 517.5322911181797, 0.0, 0.0, 0.0, 0.0, -1431.7633428291492, 0.0]
['beep', 0.0, 516.5711661066015, 0.0, 0.0, 0.0, 0.0, -1431.6515841068726, 0.0]
['beep', 0.0, 516.0123724952189, 0.0, 0.0, 0.0, 0.0, -1431.7186393402385, 0.0]
['beep', 0.0, 516.2582416842272, 0.0, 0.0, 0.0, 0.0, -1430.7798660731157, 0.0]
['beep', 0.0, 516.3029451731378, 0.0, 0.0, 0.0, 0.0, -1431.2939561955877, 0.0]
['beep', 0.0, 517.845215540554, 0.0, 0.0, 0.0, 0.0, -1431.7409910846939, 0.0]
['beep', 0.0, 518.0910847295625, 0.0, 0.0, 0.0, 0.0, -1432.5009503961744, 0.0]
['beep', 0.0, 517.264070184716, 0.0, 0.0, 0.0, 0.0, -1431.0033835176687, 0.0]
['beep', 0.0, 516.973497506797, 0.0, 0.0, 0.0, 0.0, -1428.768209072138, 0.0]
['beep', 0.0, 517.845215540554, 0.0, 0.0, 0.0, 0.0, -1429.863444550448, 0.0]
['beep', 0.0, 517.621698096001, 0.0, 0.0, 0.0, 0.0, -1431.1151422399453, 0.0]
['beep', 0.0, 518.426360896392, 0.0, 0.0, 0.0, 0.0, -1431.6068806179621, 0.0]
['beep', 0.0, 518.2251951962943, 0.0, 0.0, 0.0, 0.0, -1430.2657759506437, 0.0]
['beep', 0.0, 518.6722300854004, 0.0, 0.0, 0.0, 0.0, -1429.6622788503503, 0.0]
['beep', 0.0, 519.7674655637104, 0.0, 0.0, 0.0, 0.0, -1431.0033835176687, 0.0]
['beep', 0.0, 521.7791225646881, 0.0, 0.0, 0.0, 0.0, -1429.4611131502527, 0.0]
['beep', 0.0, 520.5497766196462, 0.0, 0.0, 0.0, 0.0, -1429.572871872529, 0.0]
['beep', 0.0, 519.3204306746043, 0.0, 0.0, 0.0, 0.0, -1430.4669416507413, 0.0]
['beep', 0.0, 518.6498783409451, 0.0, 0.0, 0.0, 0.0, -1431.2716044511324, 0.0]
['beep', 0.0, 517.5769946070903, 0.0, 0.0, 0.0, 0.0, -1434.222034719233, 0.0]
['beep', 0.0, 516.5041108732356, 0.0, 0.0, 0.0, 0.0, -1430.2657759506437, 0.0]
['beep', 0.0, 515.7217998172998, 0.0, 0.0, 0.0, 0.0, -1432.2327294627107, 0.0]
['beep', 0.0, 514.7159713168111, 0.0, 0.0, 0.0, 0.0, -1431.09279049549, 0.0]
['beep', 0.0, 515.6100410950233, 0.0, 0.0, 0.0, 0.0, -1429.7516858281715, 0.0]
['beep', 0.0, 516.168834706406, 0.0, 0.0, 0.0, 0.0, -1428.5893951164956, 0.0]
['beep', 0.0, 516.392352150959, 0.0, 0.0, 0.0, 0.0, -1430.0199067616352, 0.0]
['beep', 0.0, 515.6100410950233, 0.0, 0.0, 0.0, 0.0, -1431.4504184067748, 0.0]
['beep', 0.0, 515.4982823727468, 0.0, 0.0, 0.0, 0.0, -1430.578700373018, 0.0]
['beep', 0.0, 515.2300614392831, 0.0, 0.0, 0.0, 0.0, -1429.572871872529, 0.0]
['beep', 0.0, 516.5041108732356, 0.0, 0.0, 0.0, 0.0, -1428.410581160853, 0.0]
['beep', 0.0, 516.5711661066015, 0.0, 0.0, 0.0, 0.0, -1428.544691627585, 0.0]
['beep', 0.0, 516.459407384325, 0.0, 0.0, 0.0, 0.0, -1431.5621771290514, 0.0]
['beep', 0.0, 516.3476486620484, 0.0, 0.0, 0.0, 0.0, -1430.8245695620262, 0.0]
['beep', 0.0, 514.8277300390876, 0.0, 0.0, 0.0, 0.0, -1428.90231953887, 0.0]
['beep', 0.0, 515.8335585395764, 0.0, 0.0, 0.0, 0.0, -1431.0033835176687, 0.0]
['beep', 0.0, 516.2582416842272, 0.0, 0.0, 0.0, 0.0, -1431.383363173409, 0.0]
['beep', 0.0, 515.3641719060149, 0.0, 0.0, 0.0, 0.0, -1430.6457556063838, 0.0]
['beep', 0.0, 515.7217998172998, 0.0, 0.0, 0.0, 0.0, -1430.0869619950013, 0.0]
['beep', 0.0, 515.297116672649, 0.0, 0.0, 0.0, 0.0, -1429.550520128074, 0.0]
['beep', 0.0, 515.6770963283892, 0.0, 0.0, 0.0, 0.0, -1430.5339968841074, 0.0]
['beep', 0.0, 516.0123724952189, 0.0, 0.0, 0.0, 0.0, -1431.9198050403363, 0.0]
['beep', 0.0, 516.0347242396741, 0.0, 0.0, 0.0, 0.0, -1433.0150405186464, 0.0]
['beep', 0.0, 515.3641719060149, 0.0, 0.0, 0.0, 0.0, -1434.8478835639817, 0.0]
['beep', 0.0, 515.073599228096, 0.0, 0.0, 0.0, 0.0, -1428.0306015051128, 0.0]
['beep', 0.0, 516.3700004065038, 0.0, 0.0, 0.0, 0.0, -1427.5835666160067, 0.0]
['beep', 0.0, 517.2864219291713, 0.0, 0.0, 0.0, 0.0, -1428.9917265166912, 0.0]
['beep', 0.0, 517.5769946070903, 0.0, 0.0, 0.0, 0.0, -1430.6010521174733, 0.0]
['beep', 0.0, 517.845215540554, 0.0, 0.0, 0.0, 0.0, -1430.4892933951967, 0.0]
['beep', 0.0, 516.3700004065038, 0.0, 0.0, 0.0, 0.0, -1429.863444550448, 0.0]
['beep', 0.0, 516.4817591287803, 0.0, 0.0, 0.0, 0.0, -1429.8410928059927, 0.0]
['beep', 0.0, 516.459407384325, 0.0, 0.0, 0.0, 0.0, -1431.7633428291492, 0.0]
['beep', 0.0, 515.9676690063083, 0.0, 0.0, 0.0, 0.0, -1433.2162062187442, 0.0]
['beep', 0.0, 515.3418201615597, 0.0, 0.0, 0.0, 0.0, -1430.1540172283671, 0.0]
['beep', 0.0, 515.00654399473, 0.0, 0.0, 0.0, 0.0, -1427.8517875494704, 0.0]
['beep', 0.0, 515.6323928394786, 0.0, 0.0, 0.0, 0.0, -1429.349354427976, 0.0]
['beep', 0.0, 515.297116672649, 0.0, 0.0, 0.0, 0.0, -1430.8916247953923, 0.0]
['beep', 0.0, 516.0123724952189, 0.0, 0.0, 0.0, 0.0, -1431.7856945736046, 0.0]
['beep', 0.0, 516.8840905289758, 0.0, 0.0, 0.0, 0.0, -1430.7575143286604, 0.0]
['beep', 0.0, 517.264070184716, 0.0, 0.0, 0.0, 0.0, -1431.964508529247, 0.0]
['beep', 0.0, 517.9793260072859, 0.0, 0.0, 0.0, 0.0, -1429.3270026835207, 0.0]
['beep', 0.0, 517.7781603071882, 0.0, 0.0, 0.0, 0.0, -1427.4271044048196, 0.0]
['beep', 0.0, 517.91227077392, 0.0, 0.0, 0.0, 0.0, -1429.2599474501549, 0.0]
['beep', 0.0, 517.6440498404563, 0.0, 0.0, 0.0, 0.0, -1429.4834648947078, 0.0]
['beep', 0.0, 517.621698096001, 0.0, 0.0, 0.0, 0.0, -1429.7516858281715, 0.0]
['beep', 0.0, 518.2028434518389, 0.0, 0.0, 0.0, 0.0, -1429.9752032727247, 0.0]
['beep', 0.0, 518.8510440410429, 0.0, 0.0, 0.0, 0.0, -1432.4562469072637, 0.0]
['beep', 0.0, 517.9569742628306, 0.0, 0.0, 0.0, 0.0, -1430.7798660731157, 0.0]
['beep', 0.0, 516.392352150959, 0.0, 0.0, 0.0, 0.0, -1429.7740375726269, 0.0]
['beep', 0.0, 516.8840905289758, 0.0, 0.0, 0.0, 0.0, -1428.768209072138, 0.0]
['beep', 0.0, 518.0910847295625, 0.0, 0.0, 0.0, 0.0, -1429.8857962949035, 0.0]
['beep', 0.0, 517.1970149513501, 0.0, 0.0, 0.0, 0.0, -1430.0869619950013, 0.0]
['beep', 0.0, 518.0463812406518, 0.0, 0.0, 0.0, 0.0, -1428.924671283325, 0.0]
['beep', 0.0, 517.4652358848138, 0.0, 0.0, 0.0, 0.0, -1428.7905608165934, 0.0]
['beep', 0.0, 516.7276283177887, 0.0, 0.0, 0.0, 0.0, -1429.7963893170822, 0.0]
['beep', 0.0, 514.7159713168111, 0.0, 0.0, 0.0, 0.0, -1430.8469213064816, 0.0]
['beep', 0.0, 515.9453172618529, 0.0, 0.0, 0.0, 0.0, -1430.0199067616352, 0.0]
['beep', 0.0, 514.9841922502748, 0.0, 0.0, 0.0, 0.0, -1430.3104794395542, 0.0]
['beep', 0.0, 512.8831282714758, 0.0, 0.0, 0.0, 0.0, -1430.1540172283671, 0.0]
['beep', 0.0, 512.4807968712803, 0.0, 0.0, 0.0, 0.0, -1430.0422585060905, 0.0]
['beep', 0.0, 513.3972183939479, 0.0, 0.0, 0.0, 0.0, -1433.1938544742889, 0.0]
['beep', 0.0, 514.9394887613641, 0.0, 0.0, 0.0, 0.0, -1431.7186393402385, 0.0]
['beep', 0.0, 515.1183027170066, 0.0, 0.0, 0.0, 0.0, -1429.3270026835207, 0.0]
['beep', 0.0, 513.0172387382077, 0.0, 0.0, 0.0, 0.0, -1430.37753467292, 0.0]
['beep', 0.0, 512.9948869937524, 0.0, 0.0, 0.0, 0.0, -1429.4834648947078, 0.0]
['beep', 0.0, 513.330163160582, 0.0, 0.0, 0.0, 0.0, -1430.2657759506437, 0.0]
['beep', 0.0, 513.5313288606798, 0.0, 0.0, 0.0, 0.0, -1431.3610114289536, 0.0]
['beep', 0.0, 513.330163160582, 0.0, 0.0, 0.0, 0.0, -1431.830398062515, 0.0]
['beep', 0.0, 513.039590482663, 0.0, 0.0, 0.0, 0.0, -1430.7128108397499, 0.0]
['beep', 0.0, 512.9278317603864, 0.0, 0.0, 0.0, 0.0, -1430.4222381618308, 0.0]
['beep', 0.0, 513.2631079272161, 0.0, 0.0, 0.0, 0.0, -1432.992688774191, 0.0]
['beep', 0.0, 512.7713695491993, 0.0, 0.0, 0.0, 0.0, -1430.3328311840096, 0.0]
['beep', 0.0, 512.234927682272, 0.0, 0.0, 0.0, 0.0, -1430.4445899062862, 0.0]
['beep', 0.0, 511.2067474373278, 0.0, 0.0, 0.0, 0.0, -1430.3328311840096, 0.0]
['beep', 0.0, 512.1008172155401, 0.0, 0.0, 0.0, 0.0, -1430.9810317732135, 0.0]
['beep', 0.0, 511.9890584932636, 0.0, 0.0, 0.0, 0.0, -1430.869273050937, 0.0]
['beep', 0.0, 512.4807968712803, 0.0, 0.0, 0.0, 0.0, -1433.0373922631018, 0.0]
['beep', 0.0, 512.7043143158334, 0.0, 0.0, 0.0, 0.0, -1433.0373922631018, 0.0]
['beep', 0.0, 511.51967185970216, 0.0, 0.0, 0.0, 0.0, -1432.5233021406295, 0.0]
['beep', 0.0, 510.4467881258474, 0.0, 0.0, 0.0, 0.0, -1431.6962875957834, 0.0]
['beep', 0.0, 510.5138433592133, 0.0, 0.0, 0.0, 0.0, -1432.4562469072637, 0.0]
['beep', 0.0, 511.81024453762114, 0.0, 0.0, 0.0, 0.0, -1432.769171329638, 0.0]
['beep', 0.0, 512.9948869937524, 0.0, 0.0, 0.0, 0.0, -1432.702116096272, 0.0]
['beep', 0.0, 511.6314305819787, 0.0, 0.0, 0.0, 0.0, -1433.4620754077525, 0.0]
['beep', 0.0, 510.2456224257496, 0.0, 0.0, 0.0, 0.0, -1432.5009503961744, 0.0]
['beep', 0.0, 510.08916021456247, 0.0, 0.0, 0.0, 0.0, -1433.4397236632972, 0.0]
['beep', 0.0, 510.08916021456247, 0.0, 0.0, 0.0, 0.0, -1434.7584765861604, 0.0]
['beep', 0.0, 510.9161747594088, 0.0, 0.0, 0.0, 0.0, -1431.2269009622219, 0.0]
['beep', 0.0, 510.1338637034731, 0.0, 0.0, 0.0, 0.0, -1431.5621771290514, 0.0]
['beep', 0.0, 509.37390439199265, 0.0, 0.0, 0.0, 0.0, -1433.28326145211, 0.0]
['beep', 0.0, 508.8821660139759, 0.0, 0.0, 0.0, 0.0, -1434.4008486748755, 0.0]
['beep', 0.0, 509.1280352029843, 0.0, 0.0, 0.0, 0.0, -1434.4008486748755, 0.0]
['beep', 0.0, 509.03862822516305, 0.0, 0.0, 0.0, 0.0, -1435.2278632197217, 0.0]
['beep', 0.0, 509.08333171407367, 0.0, 0.0, 0.0, 0.0, -1435.4737324087303, 0.0]
['beep', 0.0, 508.7927590361547, 0.0, 0.0, 0.0, 0.0, -1434.2443864636882, 0.0]
['beep', 0.0, 508.7927590361547, 0.0, 0.0, 0.0, 0.0, -1434.6243661194285, 0.0]
['beep', 0.0, 509.1280352029843, 0.0, 0.0, 0.0, 0.0, -1434.6690696083392, 0.0]
['beep', 0.0, 508.8374625250653, 0.0, 0.0, 0.0, 0.0, -1434.5349591416073, 0.0]
['beep', 0.0, 509.5750700920904, 0.0, 0.0, 0.0, 0.0, -1433.1715027298335, 0.0]
['beep', 0.0, 510.37973289248146, 0.0, 0.0, 0.0, 0.0, -1433.5291306411184, 0.0]
['beep', 0.0, 510.71500905931106, 0.0, 0.0, 0.0, 0.0, -1433.6185376189396, 0.0]
['beep', 0.0, 510.8044160371323, 0.0, 0.0, 0.0, 0.0, -1430.7128108397499, 0.0]
['beep', 0.0, 510.40208463693676, 0.0, 0.0, 0.0, 0.0, -1431.4951218956855, 0.0]
['beep', 0.0, 510.42443638139207, 0.0, 0.0, 0.0, 0.0, -1434.0208690191353, 0.0]
['beep', 0.0, 509.7985875366435, 0.0, 0.0, 0.0, 0.0, -1431.2045492177665, 0.0]
['beep', 0.0, 510.1115119590178, 0.0, 0.0, 0.0, 0.0, -1430.1316654839118, 0.0]
['beep', 0.0, 511.31850615960434, 0.0, 0.0, 0.0, 0.0, -1431.3386596844985, 0.0]
['beep', 0.0, 511.1620439484172, 0.0, 0.0, 0.0, 0.0, -1433.3279649410208, 0.0]
['beep', 0.0, 509.1950904363502, 0.0, 0.0, 0.0, 0.0, -1432.9032817963698, 0.0]
['beep', 0.0, 508.5692415916016, 0.0, 0.0, 0.0, 0.0, -1431.9868602737022, 0.0]
['beep', 0.0, 509.37390439199265, 0.0, 0.0, 0.0, 0.0, -1431.830398062515, 0.0]
['beep', 0.0, 509.64212532545633, 0.0, 0.0, 0.0, 0.0, -1431.6515841068726, 0.0]
['beep', 0.0, 509.1280352029843, 0.0, 0.0, 0.0, 0.0, -1433.5291306411184, 0.0]
['beep', 0.0, 507.9657444913083, 0.0, 0.0, 0.0, 0.0, -1433.0150405186464, 0.0]
['beep', 0.0, 508.1892619358614, 0.0, 0.0, 0.0, 0.0, -1430.6010521174733, 0.0]
['beep', 0.0, 507.16108169091723, 0.0, 0.0, 0.0, 0.0, -1431.0480870065794, 0.0]
['beep', 0.0, 506.87050901299824, 0.0, 0.0, 0.0, 0.0, -1432.344488184987, 0.0]
['beep', 0.0, 507.0046194797301, 0.0, 0.0, 0.0, 0.0, -1433.7526480856716, 0.0]
['beep', 0.0, 507.74222704675526, 0.0, 0.0, 0.0, 0.0, -1432.1880259738, 0.0]
['beep', 0.0, 508.63629682496753, 0.0, 0.0, 0.0, 0.0, -1433.0150405186464, 0.0]
['beep', 0.0, 509.2174421808055, 0.0, 0.0, 0.0, 0.0, -1433.28326145211, 0.0]
['beep', 0.0, 509.66447706991164, 0.0, 0.0, 0.0, 0.0, -1430.869273050937, 0.0]
['beep', 0.0, 510.04445672565186, 0.0, 0.0, 0.0, 0.0, -1431.897453295881, 0.0]
['beep', 0.0, 508.43513112486977, 0.0, 0.0, 0.0, 0.0, -1429.706982339261, 0.0]
['beep', 0.0, 508.09985495804017, 0.0, 0.0, 0.0, 0.0, -1428.1870637163001, 0.0]
['beep', 0.0, 507.74222704675526, 0.0, 0.0, 0.0, 0.0, -1428.5893951164956, 0.0]
['beep', 0.0, 508.03279972467425, 0.0, 0.0, 0.0, 0.0, -1427.5388631270962, 0.0]
['beep', 0.0, 508.1222067024955, 0.0, 0.0, 0.0, 0.0, -1425.415447403842, 0.0]
['beep', 0.0, 508.233965424772, 0.0, 0.0, 0.0, 0.0, -1422.4873688801968, 0.0]
['beep', 0.0, 508.03279972467425, 0.0, 0.0, 0.0, 0.0, -1417.346467655476, 0.0]
['beep', 0.0, 508.5468898471463, 0.0, 0.0, 0.0, 0.0, -1411.7585315416493, 0.0]
['beep', 0.0, 508.4574828693251, 0.0, 0.0, 0.0, 0.0, -1402.9742959707137, 0.0]
['beep', 0.0, 507.5857648355681, 0.0, 0.0, 0.0, 0.0, -1394.9723714557138, 0.0]
['beep', 0.0, 506.28936365716027, 0.0, 0.0, 0.0, 0.0, -1385.8081562290379, 0.0]
['beep', 0.0, 504.94825898984186, 0.0, 0.0, 0.0, 0.0, -1374.3640630679206, 0.0]
['beep', 0.0, 504.4341688673698, 0.0, 0.0, 0.0, 0.0, -1363.9481501517475, 0.0]
['beep', 0.0, 505.84232876805413, 0.0, 0.0, 0.0, 0.0, -1355.7450599366498, 0.0]
['beep', 0.0, 508.9045177584312, 0.0, 0.0, 0.0, 0.0, -1344.6585946868177, 0.0]
['beep', 0.0, 511.944355004353, 0.0, 0.0, 0.0, 0.0, -1334.3320887484658, 0.0]
['beep', 0.0, 508.2563171692273, 0.0, 0.0, 0.0, 0.0, -1323.2679752430888, 0.0]
['beep', 0.0, 504.18829967836143, 0.0, 0.0, 0.0, 0.0, -1314.9754780501698, 0.0]
['beep', 0.0, 504.0541892116296, 0.0, 0.0, 0.0, 0.0, -1309.5663558919855, 0.0]
['beep', 0.0, 504.0988927005402, 0.0, 0.0, 0.0, 0.0, -1302.100873243913, 0.0]
['beep', 0.0, 501.79666302164355, 0.0, 0.0, 0.0, 0.0, -1294.8589080403935, 0.0]
['beep', 0.0, 499.136805431462, 0.0, 0.0, 0.0, 0.0, -1288.3769021483545, 0.0]
['beep', 0.0, 502.3331048885709, 0.0, 0.0, 0.0, 0.0, -1283.7053875571953, 0.0]
['beep', 0.0, 507.0269712241854, 0.0, 0.0, 0.0, 0.0, -1275.8152217644717, 0.0]
['beep', 0.0, 504.4118171229145, 0.0, 0.0, 0.0, 0.0, -1272.2389426516227, 0.0]
['beep', 0.0, 502.5789740775793, 0.0, 0.0, 0.0, 0.0, -1268.3497391163992, 0.0]
['beep', 0.0, 504.0318374671743, 0.0, 0.0, 0.0, 0.0, -1260.9513117016927, 0.0]
['beep', 0.0, 501.8860699994648, 0.0, 0.0, 0.0, 0.0, -1252.0776691529356, 0.0]
['beep', 0.0, 499.02504670918546, 0.0, 0.0, 0.0, 0.0, -1249.0601836514693, 0.0]
['beep', 0.0, 501.975476977286, 0.0, 0.0, 0.0, 0.0, -1245.260387094067, 0.0]
['beep', 0.0, 504.1659479339061, 0.0, 0.0, 0.0, 0.0, -1237.325517812433, 0.0]
['beep', 0.0, 500.9696484767972, 0.0, 0.0, 0.0, 0.0, -1233.5033695105756, 0.0]
['beep', 0.0, 499.29326764264914, 0.0, 0.0, 0.0, 0.0, -1229.167131086246, 0.0]
['beep', 0.0, 500.3661513765039, 0.0, 0.0, 0.0, 0.0, -1226.4849217516091, 0.0]
['beep', 0.0, 501.2602211547162, 0.0, 0.0, 0.0, 0.0, -1222.5733664719305, 0.0]
['beep', 0.0, 499.5838403205682, 0.0, 0.0, 0.0, 0.0, -1214.616145445841, 0.0]
['beep', 0.0, 499.136805431462, 0.0, 0.0, 0.0, 0.0, -1215.912546624249, 0.0]
['beep', 0.0, 498.8685844979983, 0.0, 0.0, 0.0, 0.0, -1212.8280058894165, 0.0]
['beep', 0.0, 501.6178490660011, 0.0, 0.0, 0.0, 0.0, -1209.7211134101287, 0.0]
['beep', 0.0, 503.47304385579156, 0.0, 0.0, 0.0, 0.0, -1209.1846715432014, 0.0]
['beep', 0.0, 503.361285133515, 0.0, 0.0, 0.0, 0.0, -1207.8882703647937, 0.0]
['beep', 0.0, 499.2038606648279, 0.0, 0.0, 0.0, 0.0, -1203.7308458961065, 0.0]
['beep', 0.0, 494.4205873513922, 0.0, 0.0, 0.0, 0.0, -1200.6016016723636, 0.0]
['beep', 0.0, 497.63923855295644, 0.0, 0.0, 0.0, 0.0, -1201.1603952837463, 0.0]
['beep', 0.0, 500.12028218749555, 0.0, 0.0, 0.0, 0.0, -1202.2556307620564, 0.0]
['beep', 0.0, 497.2592588972162, 0.0, 0.0, 0.0, 0.0, -1201.585078428397, 0.0]
['beep', 0.0, 497.5721833195905, 0.0, 0.0, 0.0, 0.0, -1201.2721540060227, 0.0]
['beep', 0.0, 498.98034322027485, 0.0, 0.0, 0.0, 0.0, -1198.9922760715815, 0.0]
['beep', 0.0, 498.7568257757218, 0.0, 0.0, 0.0, 0.0, -1201.6744854062183, 0.0]
['beep', 0.0, 499.31561938710445, 0.0, 0.0, 0.0, 0.0, -1203.9990668295702, 0.0]
['beep', 0.0, 499.1815089203726, 0.0, 0.0, 0.0, 0.0, -1207.5306424535088, 0.0]
['beep', 0.0, 498.8015292646324, 0.0, 0.0, 0.0, 0.0, -1211.330439010911, 0.0]
['beep', 0.0, 501.2602211547162, 0.0, 0.0, 0.0, 0.0, -1217.0077821025588, 0.0]
['beep', 0.0, 501.6402008104564, 0.0, 0.0, 0.0, 0.0, -1223.2439188055896, 0.0]
['beep', 0.0, 500.9696484767972, 0.0, 0.0, 0.0, 0.0, -1227.3789915298214, 0.0]
['beep', 0.0, 500.14263393195085, 0.0, 0.0, 0.0, 0.0, -1235.9173579117487, 0.0]
['beep', 0.0, 498.35449437552626, 0.0, 0.0, 0.0, 0.0, -1244.3439655713994, 0.0]
['beep', 0.0, 500.2767443986827, 0.0, 0.0, 0.0, 0.0, -1252.2117796196676, 0.0]
['beep', 0.0, 503.92007874489775, 0.0, 0.0, 0.0, 0.0, -1257.48679131112, 0.0]
['beep', 0.0, 505.3282386455821, 0.0, 0.0, 0.0, 0.0, -1268.4838495831311, 0.0]
['beep', 0.0, 504.88120375647594, 0.0, 0.0, 0.0, 0.0, -1277.0445677095138, 0.0]
['beep', 0.0, 504.7917967786547, 0.0, 0.0, 0.0, 0.0, -1286.2534864251002, 0.0]
['beep', 0.0, 502.6460293109452, 0.0, 0.0, 0.0, 0.0, -1296.5129371300861, 0.0]
['beep', 0.0, 504.54592758964634, 0.0, 0.0, 0.0, 0.0, -1306.1688907347789, 0.0]
['beep', 0.0, 506.51288110171333, 0.0, 0.0, 0.0, 0.0, -1315.2213472391782, 0.0]
['beep', 0.0, 505.61881132350106, 0.0, 0.0, 0.0, 0.0, -1325.5031496886195, 0.0]
['beep', 0.0, 504.6800380563782, 0.0, 0.0, 0.0, 0.0, -1334.3991439818317, 0.0]
['beep', 0.0, 506.91521250190885, 0.0, 0.0, 0.0, 0.0, -1338.8918446173484, 0.0]
['beep', 0.0, 507.4740061132915, 0.0, 0.0, 0.0, 0.0, -1345.485609231664, 0.0]
['beep', 0.0, 507.362247391015, 0.0, 0.0, 0.0, 0.0, -1355.0521558585353, 0.0]
['beep', 0.0, 507.71987530229995, 0.0, 0.0, 0.0, 0.0, -1361.3106443060212, 0.0]
['beep', 0.0, 508.2116136803167, 0.0, 0.0, 0.0, 0.0, -1367.7702984536052, 0.0]
['beep', 0.0, 508.1222067024955, 0.0, 0.0, 0.0, 0.0, -1372.8888479338705, 0.0]
['beep', 0.0, 508.63629682496753, 0.0, 0.0, 0.0, 0.0, -1375.839278201971, 0.0]
['beep', 0.0, 509.08333171407367, 0.0, 0.0, 0.0, 0.0, -1380.5107927931301, 0.0]
['beep', 0.0, 508.70335205833345, 0.0, 0.0, 0.0, 0.0, -1385.3387695954764, 0.0]
['beep', 0.0, 507.071674713096, 0.0, 0.0, 0.0, 0.0, -1386.5681155405184, 0.0]
['beep', 0.0, 506.93756424636416, 0.0, 0.0, 0.0, 0.0, -1389.7197115087167, 0.0]
['beep', 0.0, 508.39042763595916, 0.0, 0.0, 0.0, 0.0, -1393.5642115550295, 0.0]
['beep', 0.0, 508.1222067024955, 0.0, 0.0, 0.0, 0.0, -1397.319304623521, 0.0]
['beep', 0.0, 507.7869305356659, 0.0, 0.0, 0.0, 0.0, -1396.0676069340238, 0.0]
['beep', 0.0, 508.1445584469508, 0.0, 0.0, 0.0, 0.0, -1399.7779965136049, 0.0]
['beep', 0.0, 507.6304683244787, 0.0, 0.0, 0.0, 0.0, -1403.220165159722, 0.0]
['beep', 0.0, 509.08333171407367, 0.0, 0.0, 0.0, 0.0, -1404.4942145936745, 0.0]
['beep', 0.0, 510.491491614758, 0.0, 0.0, 0.0, 0.0, -1407.4669966062304, 0.0]
['beep', 0.0, 510.64795382594514, 0.0, 0.0, 0.0, 0.0, -1410.2833164075992, 0.0]
['beep', 0.0, 510.73736080376636, 0.0, 0.0, 0.0, 0.0, -1410.1492059408672, 0.0]
['beep', 0.0, 512.234927682272, 0.0, 0.0, 0.0, 0.0, -1409.8139297740377, 0.0]
['beep', 0.0, 514.1124742165177, 0.0, 0.0, 0.0, 0.0, -1412.7196565532277, 0.0]
['beep', 0.0, 514.1571777054284, 0.0, 0.0, 0.0, 0.0, -1414.5077961096522, 0.0]
['beep', 0.0, 515.0959509725512, 0.0, 0.0, 0.0, 0.0, -1415.2901071655879, 0.0]
['beep', 0.0, 514.2242329387943, 0.0, 0.0, 0.0, 0.0, -1416.3406391549872, 0.0]
['beep', 0.0, 513.330163160582, 0.0, 0.0, 0.0, 0.0, -1414.8877757653925, 0.0]
['beep', 0.0, 511.4749683707915, 0.0, 0.0, 0.0, 0.0, -1415.7818455436047, 0.0]
['beep', 0.0, 509.91034625892, 0.0, 0.0, 0.0, 0.0, -1415.871252521426, 0.0]
['beep', 0.0, 508.1892619358614, 0.0, 0.0, 0.0, 0.0, -1416.7206188107275, 0.0]
['beep', 0.0, 508.70335205833345, 0.0, 0.0, 0.0, 0.0, -1417.1005984664678, 0.0]
['beep', 0.0, 510.02210498119655, 0.0, 0.0, 0.0, 0.0, -1416.3629908994426, 0.0]
['beep', 0.0, 510.64795382594514, 0.0, 0.0, 0.0, 0.0, -1419.291069423088, 0.0]
['beep', 0.0, 509.1950904363502, 0.0, 0.0, 0.0, 0.0, -1417.8158542890376, 0.0]
['beep', 0.0, 509.39625613644796, 0.0, 0.0, 0.0, 0.0, -1419.313421167543, 0.0]
['beep', 0.0, 509.01627648070775, 0.0, 0.0, 0.0, 0.0, -1420.7439328126827, 0.0]
['beep', 0.0, 509.70918055882225, 0.0, 0.0, 0.0, 0.0, -1419.8498630344704, 0.0]
['beep', 0.0, 510.8938230149535, 0.0, 0.0, 0.0, 0.0, -1422.062685735546, 0.0]
['beep', 0.0, 509.8879945144647, 0.0, 0.0, 0.0, 0.0, -1424.4096189033532, 0.0]
['beep', 0.0, 507.362247391015, 0.0, 0.0, 0.0, 0.0, -1422.8449967914817, 0.0]
['beep', 0.0, 507.4740061132915, 0.0, 0.0, 0.0, 0.0, -1423.1132177249453, 0.0]
['beep', 0.0, 508.81511078061, 0.0, 0.0, 0.0, 0.0, -1423.381438658409, 0.0]
['beep', 0.0, 509.01627648070775, 0.0, 0.0, 0.0, 0.0, -1425.124874725923, 0.0]
['beep', 0.0, 508.81511078061, 0.0, 0.0, 0.0, 0.0, -1423.8061218030598, 0.0]
['beep', 0.0, 508.9045177584312, 0.0, 0.0, 0.0, 0.0, -1422.71088632475, 0.0]
['beep', 0.0, 508.5915933360569, 0.0, 0.0, 0.0, 0.0, -1424.0072875031576, 0.0]
['beep', 0.0, 509.2174421808055, 0.0, 0.0, 0.0, 0.0, -1426.0189445041353, 0.0]
['beep', 0.0, 509.5974218365457, 0.0, 0.0, 0.0, 0.0, -1427.5612148715516, 0.0]
['beep', 0.0, 509.7985875366435, 0.0, 0.0, 0.0, 0.0, -1427.963546271747, 0.0]
['beep', 0.0, 509.5303666031798, 0.0, 0.0, 0.0, 0.0, -1425.8177788040375, 0.0]
['beep', 0.0, 509.9550497478306, 0.0, 0.0, 0.0, 0.0, -1426.9130142823476, 0.0]
['beep', 0.0, 509.99975323674124, 0.0, 0.0, 0.0, 0.0, -1427.5835666160067, 0.0]
['beep', 0.0, 510.8714712704982, 0.0, 0.0, 0.0, 0.0, -1428.8352643055039, 0.0]
['beep', 0.0, 509.68682881436695, 0.0, 0.0, 0.0, 0.0, -1428.9693747722358, 0.0]
['beep', 0.0, 509.2174421808055, 0.0, 0.0, 0.0, 0.0, -1429.6399271058951, 0.0]
['beep', 0.0, 508.5021863582357, 0.0, 0.0, 0.0, 0.0, -1430.4892933951967, 0.0]
['beep', 0.0, 508.34572414704854, 0.0, 0.0, 0.0, 0.0, -1428.097656738479, 0.0]
['beep', 0.0, 508.81511078061, 0.0, 0.0, 0.0, 0.0, -1429.550520128074, 0.0]
['beep', 0.0, 510.1338637034731, 0.0, 0.0, 0.0, 0.0, -1431.2716044511324, 0.0]
['beep', 0.0, 509.75388404773287, 0.0, 0.0, 0.0, 0.0, -1428.477636394219, 0.0]
['beep', 0.0, 508.5468898471463, 0.0, 0.0, 0.0, 0.0, -1429.8857962949035, 0.0]
['beep', 0.0, 509.08333171407367, 0.0, 0.0, 0.0, 0.0, -1429.863444550448, 0.0]
['beep', 0.0, 509.8209392810988, 0.0, 0.0, 0.0, 0.0, -1430.064610250546, 0.0]
['beep', 0.0, 509.7985875366435, 0.0, 0.0, 0.0, 0.0, -1430.7128108397499, 0.0]
['beep', 0.0, 508.5915933360569, 0.0, 0.0, 0.0, 0.0, -1430.1987207172776, 0.0]
['beep', 0.0, 509.2844974141714, 0.0, 0.0, 0.0, 0.0, -1432.1209707404341, 0.0]
['beep', 0.0, 509.9326980033753, 0.0, 0.0, 0.0, 0.0, -1431.539825384596, 0.0]
['beep', 0.0, 510.491491614758, 0.0, 0.0, 0.0, 0.0, -1430.7798660731157, 0.0]
['beep', 0.0, 509.5974218365457, 0.0, 0.0, 0.0, 0.0, -1431.7186393402385, 0.0]
['beep', 0.0, 510.4467881258474, 0.0, 0.0, 0.0, 0.0, -1431.2939561955877, 0.0]
['beep', 0.0, 510.200918936839, 0.0, 0.0, 0.0, 0.0, -1431.6515841068726, 0.0]
['beep', 0.0, 511.1173404595066, 0.0, 0.0, 0.0, 0.0, -1431.9868602737022, 0.0]
['beep', 0.0, 511.7431893042552, 0.0, 0.0, 0.0, 0.0, -1433.6632411078504, 0.0]
['beep', 0.0, 511.34085790405965, 0.0, 0.0, 0.0, 0.0, -1433.7302963412162, 0.0]
['beep', 0.0, 510.8714712704982, 0.0, 0.0, 0.0, 0.0, -1432.2550812071659, 0.0]
['beep', 0.0, 511.653782326434, 0.0, 0.0, 0.0, 0.0, -1430.8245695620262, 0.0]
['beep', 0.0, 512.458445126825, 0.0, 0.0, 0.0, 0.0, -1433.4620754077525, 0.0]
['beep', 0.0, 512.1008172155401, 0.0, 0.0, 0.0, 0.0, -1433.5514823855738, 0.0]
['beep', 0.0, 510.4691398703027, 0.0, 0.0, 0.0, 0.0, -1432.836226563004, 0.0]
['beep', 0.0, 510.5585468481239, 0.0, 0.0, 0.0, 0.0, -1433.126799240923, 0.0]
['beep', 0.0, 509.37390439199265, 0.0, 0.0, 0.0, 0.0, -1434.1326277414119, 0.0]
['beep', 0.0, 509.9550497478306, 0.0, 0.0, 0.0, 0.0, -1431.9868602737022, 0.0]
['beep', 0.0, 510.8938230149535, 0.0, 0.0, 0.0, 0.0, -1432.702116096272, 0.0]
['beep', 0.0, 511.7208375597999, 0.0, 0.0, 0.0, 0.0, -1433.8420550634928, 0.0]
['beep', 0.0, 511.6090788375234, 0.0, 0.0, 0.0, 0.0, -1433.126799240923, 0.0]
['beep', 0.0, 511.653782326434, 0.0, 0.0, 0.0, 0.0, -1434.3784969304202, 0.0]
['beep', 0.0, 512.1008172155401, 0.0, 0.0, 0.0, 0.0, -1431.539825384596, 0.0]
['beep', 0.0, 512.6596108269227, 0.0, 0.0, 0.0, 0.0, -1430.2657759506437, 0.0]
['beep', 0.0, 511.7208375597999, 0.0, 0.0, 0.0, 0.0, -1432.6350608629061, 0.0]
['beep', 0.0, 511.5867270930681, 0.0, 0.0, 0.0, 0.0, -1432.2103777182554, 0.0]
['beep', 0.0, 509.37390439199265, 0.0, 0.0, 0.0, 0.0, -1432.9032817963698, 0.0]
['beep', 0.0, 510.04445672565186, 0.0, 0.0, 0.0, 0.0, -1431.4951218956855, 0.0]
['beep', 0.0, 511.7208375597999, 0.0, 0.0, 0.0, 0.0, -1431.9868602737022, 0.0]
['beep', 0.0, 511.4973201152468, 0.0, 0.0, 0.0, 0.0, -1434.2443864636882, 0.0]
['beep', 0.0, 510.5361951036686, 0.0, 0.0, 0.0, 0.0, -1433.99851727468, 0.0]
['beep', 0.0, 509.8209392810988, 0.0, 0.0, 0.0, 0.0, -1431.9868602737022, 0.0]
['beep', 0.0, 510.42443638139207, 0.0, 0.0, 0.0, 0.0, -1433.28326145211, 0.0]
['beep', 0.0, 512.0784654710848, 0.0, 0.0, 0.0, 0.0, -1434.1996829747777, 0.0]
['beep', 0.0, 510.69265731485575, 0.0, 0.0, 0.0, 0.0, -1434.7584765861604, 0.0]
['beep', 0.0, 510.37973289248146, 0.0, 0.0, 0.0, 0.0, -1433.3950201743867, 0.0]
['beep', 0.0, 511.02793348168535, 0.0, 0.0, 0.0, 0.0, -1432.8809300519144, 0.0]
['beep', 0.0, 511.07263697059597, 0.0, 0.0, 0.0, 0.0, -1435.451380664275, 0.0]
['beep', 0.0, 511.6090788375234, 0.0, 0.0, 0.0, 0.0, -1435.741953342194, 0.0]
['beep', 0.0, 513.1960526938501, 0.0, 0.0, 0.0, 0.0, -1436.256043464666, 0.0]
['beep', 0.0, 512.5031486157357, 0.0, 0.0, 0.0, 0.0, -1436.3007469535764, 0.0]
['beep', 0.0, 512.167872448906, 0.0, 0.0, 0.0, 0.0, -1433.931462041314, 0.0]
['beep', 0.0, 512.3913898934591, 0.0, 0.0, 0.0, 0.0, -1434.1773312303224, 0.0]
['beep', 0.0, 512.9501835048418, 0.0, 0.0, 0.0, 0.0, -1436.1442847423893, 0.0]
['beep', 0.0, 512.6596108269227, 0.0, 0.0, 0.0, 0.0, -1437.1501132428782, 0.0]
['beep', 0.0, 511.653782326434, 0.0, 0.0, 0.0, 0.0, -1436.9712992872358, 0.0]
['beep', 0.0, 510.4691398703027, 0.0, 0.0, 0.0, 0.0, -1437.1277614984228, 0.0]
['beep', 0.0, 511.36320964851495, 0.0, 0.0, 0.0, 0.0, -1436.0325260201128, 0.0]
['beep', 0.0, 511.2067474373278, 0.0, 0.0, 0.0, 0.0, -1434.445552163786, 0.0]
['beep', 0.0, 512.3913898934591, 0.0, 0.0, 0.0, 0.0, -1433.6855928523057, 0.0]
['beep', 0.0, 513.9336602608753, 0.0, 0.0, 0.0, 0.0, -1432.2103777182554, 0.0]
['beep', 0.0, 510.5361951036686, 0.0, 0.0, 0.0, 0.0, -1432.2774329516212, 0.0]
['beep', 0.0, 506.55758459062395, 0.0, 0.0, 0.0, 0.0, -1430.6681073508391, 0.0]
['beep', 0.0, 505.0600177121184, 0.0, 0.0, 0.0, 0.0, -1429.706982339261, 0.0]
['beep', 0.0, 504.3447618895486, 0.0, 0.0, 0.0, 0.0, -1426.9800695157135, 0.0]
['beep', 0.0, 504.21065142281674, 0.0, 0.0, 0.0, 0.0, -1427.3600491714537, 0.0]
['beep', 0.0, 503.2271746667832, 0.0, 0.0, 0.0, 0.0, -1425.3707439149314, 0.0]
['beep', 0.0, 504.1659479339061, 0.0, 0.0, 0.0, 0.0, -1423.448493891775, 0.0]
['beep', 0.0, 504.56827933410165, 0.0, 0.0, 0.0, 0.0, -1426.577738115518, 0.0]
['beep', 0.0, 503.04836071114073, 0.0, 0.0, 0.0, 0.0, -1427.7623805716491, 0.0]
['beep', 0.0, 503.60715432252346, 0.0, 0.0, 0.0, 0.0, -1426.9800695157135, 0.0]
['beep', 0.0, 503.38363687797033, 0.0, 0.0, 0.0, 0.0, -1427.4718078937303, 0.0]
['beep', 0.0, 503.7189130448, 0.0, 0.0, 0.0, 0.0, -1429.4834648947078, 0.0]
['beep', 0.0, 504.92590724538655, 0.0, 0.0, 0.0, 0.0, -1430.0869619950013, 0.0]
['beep', 0.0, 505.1717764343949, 0.0, 0.0, 0.0, 0.0, -1429.416409661342, 0.0]
['beep', 0.0, 505.4623491123139, 0.0, 0.0, 0.0, 0.0, -1430.1316654839118, 0.0]
['beep', 0.0, 505.7752735346882, 0.0, 0.0, 0.0, 0.0, -1429.7963893170822, 0.0]
['beep', 0.0, 506.17760493488373, 0.0, 0.0, 0.0, 0.0, -1428.2988224385765, 0.0]
['beep', 0.0, 507.5857648355681, 0.0, 0.0, 0.0, 0.0, -1429.3717061724315, 0.0]
['beep', 0.0, 507.7869305356659, 0.0, 0.0, 0.0, 0.0, -1429.1481887278783, 0.0]
['beep', 0.0, 507.8986892579424, 0.0, 0.0, 0.0, 0.0, -1428.097656738479, 0.0]
['beep', 0.0, 508.9268695028865, 0.0, 0.0, 0.0, 0.0, -1428.3658776719426, 0.0]
['beep', 0.0, 508.4574828693251, 0.0, 0.0, 0.0, 0.0, -1430.7798660731157, 0.0]
['beep', 0.0, 508.68100031387814, 0.0, 0.0, 0.0, 0.0, -1429.7293340837164, 0.0]
['beep', 0.0, 509.03862822516305, 0.0, 0.0, 0.0, 0.0, -1430.0422585060905, 0.0]
['beep', 0.0, 508.07750321358486, 0.0, 0.0, 0.0, 0.0, -1430.1540172283671, 0.0]
['beep', 0.0, 508.68100031387814, 0.0, 0.0, 0.0, 0.0, -1427.963546271747, 0.0]
['beep', 0.0, 508.74805554724406, 0.0, 0.0, 0.0, 0.0, -1427.5612148715516, 0.0]
['beep', 0.0, 509.4633113698139, 0.0, 0.0, 0.0, 0.0, -1425.8624822929482, 0.0]
['beep', 0.0, 510.08916021456247, 0.0, 0.0, 0.0, 0.0, -1428.2317672052106, 0.0]
['beep', 0.0, 510.04445672565186, 0.0, 0.0, 0.0, 0.0, -1430.37753467292, 0.0]
['beep', 0.0, 509.5974218365457, 0.0, 0.0, 0.0, 0.0, -1424.677839836817, 0.0]
['beep', 0.0, 510.02210498119655, 0.0, 0.0, 0.0, 0.0, -1425.0131160036465, 0.0]
['beep', 0.0, 510.1562154479284, 0.0, 0.0, 0.0, 0.0, -1426.3765724154202, 0.0]
['beep', 0.0, 508.9492212473418, 0.0, 0.0, 0.0, 0.0, -1426.1977584597778, 0.0]
['beep', 0.0, 507.1163782020066, 0.0, 0.0, 0.0, 0.0, -1428.254118949666, 0.0]
['beep', 0.0, 505.59645957904576, 0.0, 0.0, 0.0, 0.0, -1428.5893951164956, 0.0]
['beep', 0.0, 504.97061073429717, 0.0, 0.0, 0.0, 0.0, -1428.254118949666, 0.0]
['beep', 0.0, 504.7694450341994, 0.0, 0.0, 0.0, 0.0, -1430.37753467292, 0.0]
['beep', 0.0, 504.9929624787525, 0.0, 0.0, 0.0, 0.0, -1429.863444550448, 0.0]
['beep', 0.0, 505.59645957904576, 0.0, 0.0, 0.0, 0.0, -1428.7905608165934, 0.0]
['beep', 0.0, 506.781102035177, 0.0, 0.0, 0.0, 0.0, -1428.2094154607553, 0.0]
['beep', 0.0, 507.29519215764907, 0.0, 0.0, 0.0, 0.0, -1428.7011538387721, 0.0]
['beep', 0.0, 507.6304683244787, 0.0, 0.0, 0.0, 0.0, -1427.4271044048196, 0.0]
['beep', 0.0, 508.30102065813793, 0.0, 0.0, 0.0, 0.0, -1427.1365317269006, 0.0]
['beep', 0.0, 507.25048866873846, 0.0, 0.0, 0.0, 0.0, -1429.058781750057, 0.0]
['beep', 0.0, 505.90938400142005, 0.0, 0.0, 0.0, 0.0, -1428.8352643055039, 0.0]
['beep', 0.0, 506.8034537796323, 0.0, 0.0, 0.0, 0.0, -1427.2482904491771, 0.0]
['beep', 0.0, 506.84815726854293, 0.0, 0.0, 0.0, 0.0, -1426.801255560071, 0.0]
['beep', 0.0, 506.9822677352748, 0.0, 0.0, 0.0, 0.0, -1426.644793348884, 0.0]
['beep', 0.0, 506.1105497015178, 0.0, 0.0, 0.0, 0.0, -1428.4329329053085, 0.0]
['beep', 0.0, 505.3505903900374, 0.0, 0.0, 0.0, 0.0, -1428.7905608165934, 0.0]
['beep', 0.0, 507.1163782020066, 0.0, 0.0, 0.0, 0.0, -1432.2774329516212, 0.0]
['beep', 0.0, 507.29519215764907, 0.0, 0.0, 0.0, 0.0, -1430.064610250546, 0.0]
['beep', 0.0, 506.19995667933904, 0.0, 0.0, 0.0, 0.0, -1427.2706421936325, 0.0]
['beep', 0.0, 505.7976252791435, 0.0, 0.0, 0.0, 0.0, -1428.6340986054063, 0.0]
['beep', 0.0, 505.7305700457776, 0.0, 0.0, 0.0, 0.0, -1428.768209072138, 0.0]
['beep', 0.0, 506.62463982398987, 0.0, 0.0, 0.0, 0.0, -1429.4387614057973, 0.0]
['beep', 0.0, 507.4740061132915, 0.0, 0.0, 0.0, 0.0, -1429.930499783814, 0.0]
['beep', 0.0, 507.8092822801212, 0.0, 0.0, 0.0, 0.0, -1428.3211741830319, 0.0]
['beep', 0.0, 506.781102035177, 0.0, 0.0, 0.0, 0.0, -1428.0529532495682, 0.0]
['beep', 0.0, 505.30588690112677, 0.0, 0.0, 0.0, 0.0, -1427.5835666160067, 0.0]
['beep', 0.0, 504.7470932897441, 0.0, 0.0, 0.0, 0.0, -1429.9528515282693, 0.0]
['beep', 0.0, 504.94825898984186, 0.0, 0.0, 0.0, 0.0, -1429.3046509390654, 0.0]
['beep', 0.0, 505.7752735346882, 0.0, 0.0, 0.0, 0.0, -1428.544691627585, 0.0]
['beep', 0.0, 504.94825898984186, 0.0, 0.0, 0.0, 0.0, -1428.5893951164956, 0.0]
['beep', 0.0, 504.54592758964634, 0.0, 0.0, 0.0, 0.0, -1426.9130142823476, 0.0]
['beep', 0.0, 504.0318374671743, 0.0, 0.0, 0.0, 0.0, -1429.7740375726269, 0.0]
['beep', 0.0, 504.0318374671743, 0.0, 0.0, 0.0, 0.0, -1428.7011538387721, 0.0]
['beep', 0.0, 503.98713397826367, 0.0, 0.0, 0.0, 0.0, -1429.7740375726269, 0.0]
['beep', 0.0, 503.5400990891575, 0.0, 0.0, 0.0, 0.0, -1431.0480870065794, 0.0]
['beep', 0.0, 504.27770665618266, 0.0, 0.0, 0.0, 0.0, -1430.4892933951967, 0.0]
['beep', 0.0, 503.62950606697876, 0.0, 0.0, 0.0, 0.0, -1428.9917265166912, 0.0]
['beep', 0.0, 503.5400990891575, 0.0, 0.0, 0.0, 0.0, -1429.1481887278783, 0.0]
['beep', 0.0, 504.56827933410165, 0.0, 0.0, 0.0, 0.0, -1429.7516858281715, 0.0]
['beep', 0.0, 503.8083200226212, 0.0, 0.0, 0.0, 0.0, -1429.6622788503503, 0.0]
['beep', 0.0, 504.4788723562804, 0.0, 0.0, 0.0, 0.0, -1429.3270026835207, 0.0]
['beep', 0.0, 504.1659479339061, 0.0, 0.0, 0.0, 0.0, -1429.550520128074, 0.0]
['beep', 0.0, 503.65185781143407, 0.0, 0.0, 0.0, 0.0, -1429.863444550448, 0.0]
['beep', 0.0, 503.65185781143407, 0.0, 0.0, 0.0, 0.0, -1430.37753467292, 0.0]
['beep', 0.0, 503.07071245559604, 0.0, 0.0, 0.0, 0.0, -1430.9586800287582, 0.0]
['beep', 0.0, 502.1989944218391, 0.0, 0.0, 0.0, 0.0, -1432.9256335408252, 0.0]
['beep', 0.0, 503.38363687797033, 0.0, 0.0, 0.0, 0.0, -1433.5067788966633, 0.0]
['beep', 0.0, 503.98713397826367, 0.0, 0.0, 0.0, 0.0, -1434.222034719233, 0.0]
['beep', 0.0, 504.0988927005402, 0.0, 0.0, 0.0, 0.0, -1434.3114416970543, 0.0]
['beep', 0.0, 504.4118171229145, 0.0, 0.0, 0.0, 0.0, -1435.1161044974453, 0.0]
['beep', 0.0, 504.54592758964634, 0.0, 0.0, 0.0, 0.0, -1434.0208690191353, 0.0]
['beep', 0.0, 504.3894653784592, 0.0, 0.0, 0.0, 0.0, -1433.5961858744845, 0.0]
['beep', 0.0, 503.58480257806815, 0.0, 0.0, 0.0, 0.0, -1433.4397236632972, 0.0]
['beep', 0.0, 503.94243048935306, 0.0, 0.0, 0.0, 0.0, -1432.769171329638, 0.0]
['beep', 0.0, 504.7694450341994, 0.0, 0.0, 0.0, 0.0, -1430.9586800287582, 0.0]
['beep', 0.0, 505.26118341221616, 0.0, 0.0, 0.0, 0.0, -1431.7856945736046, 0.0]
['beep', 0.0, 506.55758459062395, 0.0, 0.0, 0.0, 0.0, -1434.7137730972497, 0.0]
['beep', 0.0, 506.4681776128027, 0.0, 0.0, 0.0, 0.0, -1433.1491509853784, 0.0]
['beep', 0.0, 506.3564188905262, 0.0, 0.0, 0.0, 0.0, -1430.2881276950989, 0.0]
['beep', 0.0, 507.071674713096, 0.0, 0.0, 0.0, 0.0, -1432.0986189959788, 0.0]
['beep', 0.0, 507.4069508799256, 0.0, 0.0, 0.0, 0.0, -1432.3891916738978, 0.0]
['beep', 0.0, 506.1552531904284, 0.0, 0.0, 0.0, 0.0, -1431.517473640141, 0.0]
['beep', 0.0, 506.17760493488373, 0.0, 0.0, 0.0, 0.0, -1432.6127091184508, 0.0]
['beep', 0.0, 507.4740061132915, 0.0, 0.0, 0.0, 0.0, -1435.2278632197217, 0.0]
['beep', 0.0, 506.4011223794368, 0.0, 0.0, 0.0, 0.0, -1433.9538137857694, 0.0]
['beep', 0.0, 505.28353515667146, 0.0, 0.0, 0.0, 0.0, -1432.9256335408252, 0.0]
['beep', 0.0, 505.685866556867, 0.0, 0.0, 0.0, 0.0, -1433.99851727468, 0.0]
['beep', 0.0, 506.4011223794368, 0.0, 0.0, 0.0, 0.0, -1433.9091102968587, 0.0]
['beep', 0.0, 506.91521250190885, 0.0, 0.0, 0.0, 0.0, -1434.9149387973475, 0.0]
['beep', 0.0, 506.24466016824965, 0.0, 0.0, 0.0, 0.0, -1436.0772295090235, 0.0]
['beep', 0.0, 505.90938400142005, 0.0, 0.0, 0.0, 0.0, -1433.5738341300291, 0.0]
['beep', 0.0, 505.90938400142005, 0.0, 0.0, 0.0, 0.0, -1433.126799240923, 0.0]
['beep', 0.0, 506.4681776128027, 0.0, 0.0, 0.0, 0.0, -1434.0655725080458, 0.0]
['beep', 0.0, 506.7587502907217, 0.0, 0.0, 0.0, 0.0, -1433.2385579631996, 0.0]
['beep', 0.0, 507.0269712241854, 0.0, 0.0, 0.0, 0.0, -1432.6127091184508, 0.0]
['beep', 0.0, 506.781102035177, 0.0, 0.0, 0.0, 0.0, -1431.8527498069705, 0.0]
['beep', 0.0, 506.6693433129005, 0.0, 0.0, 0.0, 0.0, -1433.8644068079482, 0.0]
['beep', 0.0, 508.07750321358486, 0.0, 0.0, 0.0, 0.0, -1433.9761655302245, 0.0]
['beep', 0.0, 507.22813692428315, 0.0, 0.0, 0.0, 0.0, -1434.0655725080458, 0.0]
['beep', 0.0, 506.8258055240876, 0.0, 0.0, 0.0, 0.0, -1434.6914213527944, 0.0]
['beep', 0.0, 507.18343343537254, 0.0, 0.0, 0.0, 0.0, -1431.517473640141, 0.0]
['beep', 0.0, 508.1445584469508, 0.0, 0.0, 0.0, 0.0, -1429.863444550448, 0.0]
['beep', 0.0, 506.84815726854293, 0.0, 0.0, 0.0, 0.0, -1432.1209707404341, 0.0]
['beep', 0.0, 505.55175609013514, 0.0, 0.0, 0.0, 0.0, -1432.2550812071659, 0.0]
['beep', 0.0, 504.3671136340039, 0.0, 0.0, 0.0, 0.0, -1433.1491509853784, 0.0]
['beep', 0.0, 504.4118171229145, 0.0, 0.0, 0.0, 0.0, -1434.5349591416073, 0.0]
['beep', 0.0, 505.28353515667146, 0.0, 0.0, 0.0, 0.0, -1435.6972498532832, 0.0]
['beep', 0.0, 507.25048866873846, 0.0, 0.0, 0.0, 0.0, -1435.1384562419005, 0.0]
['beep', 0.0, 509.1503869474396, 0.0, 0.0, 0.0, 0.0, -1431.7186393402385, 0.0]
['beep', 0.0, 507.98809623576363, 0.0, 0.0, 0.0, 0.0, -1429.0811334945124, 0.0]
['beep', 0.0, 506.26701191270496, 0.0, 0.0, 0.0, 0.0, -1429.7740375726269, 0.0]
['beep', 0.0, 504.97061073429717, 0.0, 0.0, 0.0, 0.0, -1430.511645139652, 0.0]
['beep', 0.0, 504.009485722719, 0.0, 0.0, 0.0, 0.0, -1430.8469213064816, 0.0]
['beep', 0.0, 502.6460293109452, 0.0, 0.0, 0.0, 0.0, -1432.6797643518169, 0.0]
['beep', 0.0, 501.6625525549117, 0.0, 0.0, 0.0, 0.0, -1433.4397236632972, 0.0]
['beep', 0.0, 501.77431127718825, 0.0, 0.0, 0.0, 0.0, -1430.355182928465, 0.0]
['beep', 0.0, 502.44486361084745, 0.0, 0.0, 0.0, 0.0, -1429.5281683836185, 0.0]
['beep', 0.0, 502.37780837748153, 0.0, 0.0, 0.0, 0.0, -1431.4057149178643, 0.0]
['beep', 0.0, 502.556622333124, 0.0, 0.0, 0.0, 0.0, -1433.0373922631018, 0.0]
['beep', 0.0, 502.556622333124, 0.0, 0.0, 0.0, 0.0, -1433.640889363395, 0.0]
['beep', 0.0, 501.5731455770905, 0.0, 0.0, 0.0, 0.0, -1433.8644068079482, 0.0]
['beep', 0.0, 501.7072560438223, 0.0, 0.0, 0.0, 0.0, -1436.256043464666, 0.0]
['beep', 0.0, 501.3049246436268, 0.0, 0.0, 0.0, 0.0, -1436.926595798325, 0.0]
['beep', 0.0, 500.45555835432515, 0.0, 0.0, 0.0, 0.0, -1434.222034719233, 0.0]
['beep', 0.0, 500.07557869858493, 0.0, 0.0, 0.0, 0.0, -1432.545653885085, 0.0]
['beep', 0.0, 500.41085486541454, 0.0, 0.0, 0.0, 0.0, -1433.7302963412162, 0.0]
['beep', 0.0, 501.2602211547162, 0.0, 0.0, 0.0, 0.0, -1434.6243661194285, 0.0]
['beep', 0.0, 501.43903511035865, 0.0, 0.0, 0.0, 0.0, -1435.1831597308112, 0.0]
['beep', 0.0, 500.12028218749555, 0.0, 0.0, 0.0, 0.0, -1435.4066771753642, 0.0]
['beep', 0.0, 500.09793044304024, 0.0, 0.0, 0.0, 0.0, -1436.8148370760487, 0.0]
['beep', 0.0, 500.3214478875933, 0.0, 0.0, 0.0, 0.0, -1436.4572091647638, 0.0]
['beep', 0.0, 499.9191164873978, 0.0, 0.0, 0.0, 0.0, -1433.9538137857694, 0.0]
['beep', 0.0, 500.6343723099676, 0.0, 0.0, 0.0, 0.0, -1434.445552163786, 0.0]
['beep', 0.0, 500.299096143138, 0.0, 0.0, 0.0, 0.0, -1434.4008486748755, 0.0]
['beep', 0.0, 499.9861717207637, 0.0, 0.0, 0.0, 0.0, -1434.3784969304202, 0.0]
['beep', 0.0, 499.9638199763084, 0.0, 0.0, 0.0, 0.0, -1434.0655725080458, 0.0]
['beep', 0.0, 500.74613103224414, 0.0, 0.0, 0.0, 0.0, -1433.3056131965654, 0.0]
['beep', 0.0, 501.08140719907374, 0.0, 0.0, 0.0, 0.0, -1435.0043457751688, 0.0]
['beep', 0.0, 501.3272763880821, 0.0, 0.0, 0.0, 0.0, -1432.992688774191, 0.0]
['beep', 0.0, 501.14846243243966, 0.0, 0.0, 0.0, 0.0, -1431.8751015514258, 0.0]
['beep', 0.0, 501.75195953273294, 0.0, 0.0, 0.0, 0.0, -1431.7856945736046, 0.0]
['beep', 0.0, 502.3554566330262, 0.0, 0.0, 0.0, 0.0, -1432.0762672515234, 0.0]
['beep', 0.0, 502.71308454431113, 0.0, 0.0, 0.0, 0.0, -1433.774999830127, 0.0]
['beep', 0.0, 502.15429093292846, 0.0, 0.0, 0.0, 0.0, -1433.2162062187442, 0.0]
['beep', 0.0, 503.0036572222301, 0.0, 0.0, 0.0, 0.0, -1433.28326145211, 0.0]
['beep', 0.0, 503.56245083361284, 0.0, 0.0, 0.0, 0.0, -1435.6301946199173, 0.0]
['beep', 0.0, 505.0153142232078, 0.0, 0.0, 0.0, 0.0, -1435.8313603200152, 0.0]
['beep', 0.0, 505.3282386455821, 0.0, 0.0, 0.0, 0.0, -1433.6855928523057, 0.0]
['beep', 0.0, 503.89772700044244, 0.0, 0.0, 0.0, 0.0, -1434.7584765861604, 0.0]
['beep', 0.0, 503.42834036688095, 0.0, 0.0, 0.0, 0.0, -1434.803180075071, 0.0]
['beep', 0.0, 502.6683810554005, 0.0, 0.0, 0.0, 0.0, -1435.5631393865515, 0.0]
['beep', 0.0, 503.07071245559604, 0.0, 0.0, 0.0, 0.0, -1436.5913196314955, 0.0]
['beep', 0.0, 502.71308454431113, 0.0, 0.0, 0.0, 0.0, -1436.412505675853, 0.0]
['beep', 0.0, 502.51191884421337, 0.0, 0.0, 0.0, 0.0, -1436.7924853315933, 0.0]
['beep', 0.0, 502.44486361084745, 0.0, 0.0, 0.0, 0.0, -1436.5689678870401, 0.0]
['beep', 0.0, 502.8918984999536, 0.0, 0.0, 0.0, 0.0, -1433.3950201743867, 0.0]
['beep', 0.0, 501.79666302164355, 0.0, 0.0, 0.0, 0.0, -1434.1773312303224, 0.0]
['beep', 0.0, 501.975476977286, 0.0, 0.0, 0.0, 0.0, -1436.1442847423893, 0.0]
['beep', 0.0, 502.266049655205, 0.0, 0.0, 0.0, 0.0, -1434.9819940307134, 0.0]
['beep', 0.0, 501.8637182550095, 0.0, 0.0, 0.0, 0.0, -1433.7302963412162, 0.0]
['beep', 0.0, 501.5507938326352, 0.0, 0.0, 0.0, 0.0, -1435.8760638089257, 0.0]
['beep', 0.0, 503.04836071114073, 0.0, 0.0, 0.0, 0.0, -1433.1715027298335, 0.0]
['beep', 0.0, 504.0988927005402, 0.0, 0.0, 0.0, 0.0, -1433.4620754077525, 0.0]
['beep', 0.0, 502.15429093292846, 0.0, 0.0, 0.0, 0.0, -1432.836226563004, 0.0]
['beep', 0.0, 502.1989944218391, 0.0, 0.0, 0.0, 0.0, -1435.3396219419983, 0.0]
['beep', 0.0, 502.8918984999536, 0.0, 0.0, 0.0, 0.0, -1436.4572091647638, 0.0]
['beep', 0.0, 502.9366019888642, 0.0, 0.0, 0.0, 0.0, -1435.5184358976408, 0.0]
['beep', 0.0, 502.75778803322174, 0.0, 0.0, 0.0, 0.0, -1436.121932997934, 0.0]
['beep', 0.0, 502.46721535530276, 0.0, 0.0, 0.0, 0.0, -1432.992688774191, 0.0]
['beep', 0.0, 502.6460293109452, 0.0, 0.0, 0.0, 0.0, -1435.6301946199173, 0.0]
['beep', 0.0, 502.44486361084745, 0.0, 0.0, 0.0, 0.0, -1434.9149387973475, 0.0]
['beep', 0.0, 501.79666302164355, 0.0, 0.0, 0.0, 0.0, -1433.7526480856716, 0.0]
['beep', 0.0, 504.7470932897441, 0.0, 0.0, 0.0, 0.0, -1435.0266975196241, 0.0]
['beep', 0.0, 504.6800380563782, 0.0, 0.0, 0.0, 0.0, -1435.9878225312023, 0.0]
['beep', 0.0, 503.7189130448, 0.0, 0.0, 0.0, 0.0, -1435.8090085755598, 0.0]
['beep', 0.0, 503.3389333890597, 0.0, 0.0, 0.0, 0.0, -1435.965470786747, 0.0]
['beep', 0.0, 503.8083200226212, 0.0, 0.0, 0.0, 0.0, -1436.412505675853, 0.0]
['beep', 0.0, 505.30588690112677, 0.0, 0.0, 0.0, 0.0, -1437.1724649873336, 0.0]
['beep', 0.0, 504.7917967786547, 0.0, 0.0, 0.0, 0.0, -1436.5913196314955, 0.0]
['beep', 0.0, 504.56827933410165, 0.0, 0.0, 0.0, 0.0, -1435.5854911310066, 0.0]
['beep', 0.0, 504.3894653784592, 0.0, 0.0, 0.0, 0.0, -1436.0101742756576, 0.0]
['beep', 0.0, 502.75778803322174, 0.0, 0.0, 0.0, 0.0, -1435.2278632197217, 0.0]
['beep', 0.0, 502.42251186639214, 0.0, 0.0, 0.0, 0.0, -1434.9819940307134, 0.0]
['beep', 0.0, 502.44486361084745, 0.0, 0.0, 0.0, 0.0, -1434.3114416970543, 0.0]
['beep', 0.0, 502.46721535530276, 0.0, 0.0, 0.0, 0.0, -1433.931462041314, 0.0]
['beep', 0.0, 501.72960778827763, 0.0, 0.0, 0.0, 0.0, -1434.6243661194285, 0.0]
['beep', 0.0, 501.9978287217413, 0.0, 0.0, 0.0, 0.0, -1436.0101742756576, 0.0]
['beep', 0.0, 502.8695467554983, 0.0, 0.0, 0.0, 0.0, -1435.6748981088278, 0.0]
['beep', 0.0, 502.8695467554983, 0.0, 0.0, 0.0, 0.0, -1433.7302963412162, 0.0]
['beep', 0.0, 502.5789740775793, 0.0, 0.0, 0.0, 0.0, -1435.1161044974453, 0.0]
['beep', 0.0, 502.73543628876644, 0.0, 0.0, 0.0, 0.0, -1436.0101742756576, 0.0]
['beep', 0.0, 503.2271746667832, 0.0, 0.0, 0.0, 0.0, -1435.7196015977386, 0.0]
['beep', 0.0, 503.56245083361284, 0.0, 0.0, 0.0, 0.0, -1435.741953342194, 0.0]
['beep', 0.0, 503.8083200226212, 0.0, 0.0, 0.0, 0.0, -1436.6807266093167, 0.0]
['beep', 0.0, 503.2048229223279, 0.0, 0.0, 0.0, 0.0, -1436.4572091647638, 0.0]
['beep', 0.0, 502.46721535530276, 0.0, 0.0, 0.0, 0.0, -1436.6807266093167, 0.0]
['beep', 0.0, 503.11541594450665, 0.0, 0.0, 0.0, 0.0, -1436.1889882313, 0.0]
['beep', 0.0, 503.2271746667832, 0.0, 0.0, 0.0, 0.0, -1436.5689678870401, 0.0]
['beep', 0.0, 503.56245083361284, 0.0, 0.0, 0.0, 0.0, -1437.8206655765375, 0.0]
['beep', 0.0, 502.5342705886687, 0.0, 0.0, 0.0, 0.0, -1438.1335899989117, 0.0]
['beep', 0.0, 500.2543926542274, 0.0, 0.0, 0.0, 0.0, -1436.256043464666, 0.0]
['beep', 0.0, 501.9307734883754, 0.0, 0.0, 0.0, 0.0, -1435.9878225312023, 0.0]
['beep', 0.0, 501.3496281325374, 0.0, 0.0, 0.0, 0.0, -1438.3347556990095, 0.0]
['beep', 0.0, 501.9978287217413, 0.0, 0.0, 0.0, 0.0, -1436.2113399757552, 0.0]
['beep', 0.0, 502.78013977767705, 0.0, 0.0, 0.0, 0.0, -1437.3065754540653, 0.0]
['beep', 0.0, 501.41668336590334, 0.0, 0.0, 0.0, 0.0, -1438.37945918792, 0.0]
['beep', 0.0, 502.3107531441156, 0.0, 0.0, 0.0, 0.0, -1437.351278942976, 0.0]
['beep', 0.0, 501.6625525549117, 0.0, 0.0, 0.0, 0.0, -1437.5971481319843, 0.0]
['beep', 0.0, 501.9307734883754, 0.0, 0.0, 0.0, 0.0, -1436.1889882313, 0.0]
['beep', 0.0, 500.85788975452067, 0.0, 0.0, 0.0, 0.0, -1436.926595798325, 0.0]
['beep', 0.0, 502.46721535530276, 0.0, 0.0, 0.0, 0.0, -1435.4290289198195, 0.0]
['beep', 0.0, 502.5342705886687, 0.0, 0.0, 0.0, 0.0, -1435.0490492640793, 0.0]
['beep', 0.0, 502.44486361084745, 0.0, 0.0, 0.0, 0.0, -1435.898415553381, 0.0]
['beep', 0.0, 500.6343723099676, 0.0, 0.0, 0.0, 0.0, -1436.1442847423893, 0.0]
['beep', 0.0, 500.5673170766017, 0.0, 0.0, 0.0, 0.0, -1437.2395202206994, 0.0]
['beep', 0.0, 500.880241498976, 0.0, 0.0, 0.0, 0.0, -1436.0772295090235, 0.0]
['beep', 0.0, 499.78500602066595, 0.0, 0.0, 0.0, 0.0, -1435.4737324087303, 0.0]
['beep', 0.0, 500.6567240544229, 0.0, 0.0, 0.0, 0.0, -1435.607842875462, 0.0]
['beep', 0.0, 500.9920002212525, 0.0, 0.0, 0.0, 0.0, -1435.1608079863558, 0.0]
['beep', 0.0, 499.9638199763084, 0.0, 0.0, 0.0, 0.0, -1435.6301946199173, 0.0]
['beep', 0.0, 500.09793044304024, 0.0, 0.0, 0.0, 0.0, -1436.4572091647638, 0.0]
['beep', 0.0, 499.5614885761129, 0.0, 0.0, 0.0, 0.0, -1437.4406859207973, 0.0]
['beep', 0.0, 500.52261358769107, 0.0, 0.0, 0.0, 0.0, -1437.1054097539677, 0.0]
['beep', 0.0, 500.16498567640616, 0.0, 0.0, 0.0, 0.0, -1434.9819940307134, 0.0]
['beep', 0.0, 499.9861717207637, 0.0, 0.0, 0.0, 0.0, -1435.0714010085346, 0.0]
['beep', 0.0, 501.5284420881799, 0.0, 0.0, 0.0, 0.0, -1436.412505675853, 0.0]
['beep', 0.0, 500.589668821057, 0.0, 0.0, 0.0, 0.0, -1438.5359213991073, 0.0]
['beep', 0.0, 500.81318626561006, 0.0, 0.0, 0.0, 0.0, -1438.737087099205, 0.0]
['beep', 0.0, 501.10375894352904, 0.0, 0.0, 0.0, 0.0, -1439.3629359439535, 0.0]
['beep', 0.0, 499.5838403205682, 0.0, 0.0, 0.0, 0.0, -1437.9547760432692, 0.0]
['beep', 0.0, 500.07557869858493, 0.0, 0.0, 0.0, 0.0, -1436.5913196314955, 0.0]
['beep', 0.0, 501.0367037101631, 0.0, 0.0, 0.0, 0.0, -1437.3289271985207, 0.0]
['beep', 0.0, 501.08140719907374, 0.0, 0.0, 0.0, 0.0, -1436.5689678870401, 0.0]
['beep', 0.0, 500.2320409097721, 0.0, 0.0, 0.0, 0.0, -1437.574796387529, 0.0]
['beep', 0.0, 499.8744129984872, 0.0, 0.0, 0.0, 0.0, -1437.0160027761465, 0.0]
['beep', 0.0, 499.136805431462, 0.0, 0.0, 0.0, 0.0, -1437.3959824318865, 0.0]
['beep', 0.0, 499.38267462047037, 0.0, 0.0, 0.0, 0.0, -1437.2618719651548, 0.0]
['beep', 0.0, 499.9638199763084, 0.0, 0.0, 0.0, 0.0, -1438.1112382544563, 0.0]
['beep', 0.0, 501.14846243243966, 0.0, 0.0, 0.0, 0.0, -1437.0383545206016, 0.0]
['beep', 0.0, 500.7014275433335, 0.0, 0.0, 0.0, 0.0, -1437.3065754540653, 0.0]
['beep', 0.0, 500.41085486541454, 0.0, 0.0, 0.0, 0.0, -1438.8935493103922, 0.0]
['beep', 0.0, 499.31561938710445, 0.0, 0.0, 0.0, 0.0, -1437.6865551098056, 0.0]
['beep', 0.0, 500.47791009878046, 0.0, 0.0, 0.0, 0.0, -1436.5913196314955, 0.0]
['beep', 0.0, 501.0367037101631, 0.0, 0.0, 0.0, 0.0, -1437.0830580095123, 0.0]
['beep', 0.0, 500.83553801006536, 0.0, 0.0, 0.0, 0.0, -1437.641851620895, 0.0]
['beep', 0.0, 499.5838403205682, 0.0, 0.0, 0.0, 0.0, -1436.5019126536743, 0.0]
['beep', 0.0, 499.74030253175533, 0.0, 0.0, 0.0, 0.0, -1436.5242643981296, 0.0]
['beep', 0.0, 499.9191164873978, 0.0, 0.0, 0.0, 0.0, -1437.1501132428782, 0.0]
['beep', 0.0, 500.14263393195085, 0.0, 0.0, 0.0, 0.0, -1436.6360231204062, 0.0]
['beep', 0.0, 500.81318626561006, 0.0, 0.0, 0.0, 0.0, -1436.8818923094145, 0.0]
['beep', 0.0, 499.6955990428447, 0.0, 0.0, 0.0, 0.0, -1435.2949184530878, 0.0]
['beep', 0.0, 499.8744129984872, 0.0, 0.0, 0.0, 0.0, -1437.5300928986185, 0.0]
['beep', 0.0, 499.33797113155975, 0.0, 0.0, 0.0, 0.0, -1440.8828545669144, 0.0]
['beep', 0.0, 499.5614885761129, 0.0, 0.0, 0.0, 0.0, -1438.3571074434649, 0.0]
['beep', 0.0, 499.36032287601506, 0.0, 0.0, 0.0, 0.0, -1435.1384562419005, 0.0]
['beep', 0.0, 499.2485641537385, 0.0, 0.0, 0.0, 0.0, -1434.8925870528922, 0.0]
['beep', 0.0, 500.7014275433335, 0.0, 0.0, 0.0, 0.0, -1437.1724649873336, 0.0]
['beep', 0.0, 500.9696484767972, 0.0, 0.0, 0.0, 0.0, -1435.3396219419983, 0.0]
['beep', 0.0, 499.6732472983894, 0.0, 0.0, 0.0, 0.0, -1437.4630376652526, 0.0]
['beep', 0.0, 499.9638199763084, 0.0, 0.0, 0.0, 0.0, -1439.0053080326686, 0.0]
['beep', 0.0, 500.14263393195085, 0.0, 0.0, 0.0, 0.0, -1439.988784788702, 0.0]
['beep', 0.0, 500.3214478875933, 0.0, 0.0, 0.0, 0.0, -1438.2677004656437, 0.0]
['beep', 0.0, 499.6508955539341, 0.0, 0.0, 0.0, 0.0, -1436.0995812534788, 0.0]
['beep', 0.0, 500.589668821057, 0.0, 0.0, 0.0, 0.0, -1436.926595798325, 0.0]
['beep', 0.0, 500.9249449878866, 0.0, 0.0, 0.0, 0.0, -1436.412505675853, 0.0]
['beep', 0.0, 500.45555835432515, 0.0, 0.0, 0.0, 0.0, -1436.8371888205038, 0.0]
['beep', 0.0, 501.0367037101631, 0.0, 0.0, 0.0, 0.0, -1436.3901539313977, 0.0]
['beep', 0.0, 501.7072560438223, 0.0, 0.0, 0.0, 0.0, -1439.7205638552384, 0.0]
['beep', 0.0, 502.2213461662944, 0.0, 0.0, 0.0, 0.0, -1440.0334882776128, 0.0]
['beep', 0.0, 502.71308454431113, 0.0, 0.0, 0.0, 0.0, -1436.8595405649592, 0.0]
['beep', 0.0, 501.5284420881799, 0.0, 0.0, 0.0, 0.0, -1438.021831276635, 0.0]
['beep', 0.0, 501.5954973215458, 0.0, 0.0, 0.0, 0.0, -1437.3065754540653, 0.0]
['beep', 0.0, 502.8695467554983, 0.0, 0.0, 0.0, 0.0, -1438.8264940770262, 0.0]
['beep', 0.0, 502.0425322106519, 0.0, 0.0, 0.0, 0.0, -1439.3629359439535, 0.0]
['beep', 0.0, 502.42251186639214, 0.0, 0.0, 0.0, 0.0, -1438.021831276635, 0.0]
['beep', 0.0, 500.41085486541454, 0.0, 0.0, 0.0, 0.0, -1439.8770260664257, 0.0]
['beep', 0.0, 501.43903511035865, 0.0, 0.0, 0.0, 0.0, -1440.8157993335485, 0.0]
['beep', 0.0, 500.43320660986984, 0.0, 0.0, 0.0, 0.0, -1440.122895255434, 0.0]
['beep', 0.0, 500.45555835432515, 0.0, 0.0, 0.0, 0.0, -1440.5922818889956, 0.0]
['beep', 0.0, 502.3107531441156, 0.0, 0.0, 0.0, 0.0, -1438.0441830210905, 0.0]
['beep', 0.0, 501.77431127718825, 0.0, 0.0, 0.0, 0.0, -1437.9100725543587, 0.0]
['beep', 0.0, 500.7014275433335, 0.0, 0.0, 0.0, 0.0, -1437.641851620895, 0.0]
['beep', 0.0, 500.52261358769107, 0.0, 0.0, 0.0, 0.0, -1437.865369065448, 0.0]
['beep', 0.0, 500.76848277669944, 0.0, 0.0, 0.0, 0.0, -1439.8993778108809, 0.0]
['beep', 0.0, 499.9414682318531, 0.0, 0.0, 0.0, 0.0, -1438.804142332571, 0.0]
['beep', 0.0, 500.09793044304024, 0.0, 0.0, 0.0, 0.0, -1437.7536103431714, 0.0]
['beep', 0.0, 501.5284420881799, 0.0, 0.0, 0.0, 0.0, -1437.3065754540653, 0.0]
['beep', 0.0, 503.56245083361284, 0.0, 0.0, 0.0, 0.0, -1438.1112382544563, 0.0]
['beep', 0.0, 503.8306717670765, 0.0, 0.0, 0.0, 0.0, -1436.7477818426826, 0.0]
['beep', 0.0, 504.3447618895486, 0.0, 0.0, 0.0, 0.0, -1436.256043464666, 0.0]
['beep', 0.0, 504.6576863119229, 0.0, 0.0, 0.0, 0.0, -1437.9324242988139, 0.0]
['beep', 0.0, 503.7859682781659, 0.0, 0.0, 0.0, 0.0, -1439.184121988311, 0.0]
['beep', 0.0, 504.7917967786547, 0.0, 0.0, 0.0, 0.0, -1436.5242643981296, 0.0]
['beep', 0.0, 504.1659479339061, 0.0, 0.0, 0.0, 0.0, -1436.6136713759508, 0.0]
['beep', 0.0, 501.9531252328307, 0.0, 0.0, 0.0, 0.0, -1431.159845728856, 0.0]
['beep', 0.0, 503.0036572222301, 0.0, 0.0, 0.0, 0.0, -1429.550520128074, 0.0]
['beep', 0.0, 504.0541892116296, 0.0, 0.0, 0.0, 0.0, -1431.2045492177665, 0.0]
['beep', 0.0, 503.60715432252346, 0.0, 0.0, 0.0, 0.0, -1430.6010521174733, 0.0]
['beep', 0.0, 502.9366019888642, 0.0, 0.0, 0.0, 0.0, -1429.9081480393588, 0.0]
['beep', 0.0, 501.5284420881799, 0.0, 0.0, 0.0, 0.0, -1429.7740375726269, 0.0]
['beep', 0.0, 502.08723569956254, 0.0, 0.0, 0.0, 0.0, -1432.3891916738978, 0.0]
['beep', 0.0, 501.8860699994648, 0.0, 0.0, 0.0, 0.0, -1432.769171329638, 0.0]
['beep', 0.0, 500.6567240544229, 0.0, 0.0, 0.0, 0.0, -1430.6904590952945, 0.0]
['beep', 0.0, 499.5838403205682, 0.0, 0.0, 0.0, 0.0, -1430.4222381618308, 0.0]
['beep', 0.0, 500.0308752096743, 0.0, 0.0, 0.0, 0.0, -1429.9528515282693, 0.0]
['beep', 0.0, 499.5838403205682, 0.0, 0.0, 0.0, 0.0, -1431.4280666623197, 0.0]
['beep', 0.0, 500.7014275433335, 0.0, 0.0, 0.0, 0.0, -1432.322136440532, 0.0]
['beep', 0.0, 501.05905545461843, 0.0, 0.0, 0.0, 0.0, -1432.6574126073615, 0.0]
['beep', 0.0, 500.52261358769107, 0.0, 0.0, 0.0, 0.0, -1433.3279649410208, 0.0]
['beep', 0.0, 500.3437996320486, 0.0, 0.0, 0.0, 0.0, -1433.3950201743867, 0.0]
['beep', 0.0, 500.16498567640616, 0.0, 0.0, 0.0, 0.0, -1432.7244678407274, 0.0]
['beep', 0.0, 500.6790757988782, 0.0, 0.0, 0.0, 0.0, -1430.6904590952945, 0.0]
['beep', 0.0, 501.3049246436268, 0.0, 0.0, 0.0, 0.0, -1432.1656742293446, 0.0]
['beep', 0.0, 500.2096891653168, 0.0, 0.0, 0.0, 0.0, -1431.897453295881, 0.0]
['beep', 0.0, 499.29326764264914, 0.0, 0.0, 0.0, 0.0, -1432.6127091184508, 0.0]
['beep', 0.0, 499.82970950957656, 0.0, 0.0, 0.0, 0.0, -1435.2949184530878, 0.0]
['beep', 0.0, 499.27091589819383, 0.0, 0.0, 0.0, 0.0, -1434.222034719233, 0.0]
['beep', 0.0, 499.6508955539341, 0.0, 0.0, 0.0, 0.0, -1434.5573108860626, 0.0]
['beep', 0.0, 499.0697501980961, 0.0, 0.0, 0.0, 0.0, -1435.0266975196241, 0.0]
['beep', 0.0, 497.8180525085989, 0.0, 0.0, 0.0, 0.0, -1434.6243661194285, 0.0]
['beep', 0.0, 497.30396238612684, 0.0, 0.0, 0.0, 0.0, -1435.451380664275, 0.0]
['beep', 0.0, 498.7568257757218, 0.0, 0.0, 0.0, 0.0, -1435.2949184530878, 0.0]
['beep', 0.0, 497.8404042530542, 0.0, 0.0, 0.0, 0.0, -1434.6690696083392, 0.0]
['beep', 0.0, 497.5274798306799, 0.0, 0.0, 0.0, 0.0, -1439.4299911773196, 0.0]
['beep', 0.0, 497.97451471978604, 0.0, 0.0, 0.0, 0.0, -1439.675860366328, 0.0]
['beep', 0.0, 496.63341005246764, 0.0, 0.0, 0.0, 0.0, -1436.9712992872358, 0.0]
['beep', 0.0, 496.63341005246764, 0.0, 0.0, 0.0, 0.0, -1438.1112382544563, 0.0]
['beep', 0.0, 497.61688680850114, 0.0, 0.0, 0.0, 0.0, -1439.3629359439535, 0.0]
['beep', 0.0, 497.34866587503745, 0.0, 0.0, 0.0, 0.0, -1437.1501132428782, 0.0]
['beep', 0.0, 496.29813388563804, 0.0, 0.0, 0.0, 0.0, -1436.8148370760487, 0.0]
['beep', 0.0, 496.67811354137825, 0.0, 0.0, 0.0, 0.0, -1437.418334176342, 0.0]
['beep', 0.0, 497.1251484304844, 0.0, 0.0, 0.0, 0.0, -1438.9159010548474, 0.0]
['beep', 0.0, 495.73934027425537, 0.0, 0.0, 0.0, 0.0, -1439.1170667549452, 0.0]
['beep', 0.0, 494.4652908403028, 0.0, 0.0, 0.0, 0.0, -1438.155941743367, 0.0]
['beep', 0.0, 494.48764258475813, 0.0, 0.0, 0.0, 0.0, -1439.0053080326686, 0.0]
['beep', 0.0, 494.88997398495366, 0.0, 0.0, 0.0, 0.0, -1437.2395202206994, 0.0]
['beep', 0.0, 495.0687879405961, 0.0, 0.0, 0.0, 0.0, -1435.965470786747, 0.0]
['beep', 0.0, 495.26995364069387, 0.0, 0.0, 0.0, 0.0, -1438.155941743367, 0.0]
['beep', 0.0, 495.8734507409872, 0.0, 0.0, 0.0, 0.0, -1439.318232455043, 0.0]
['beep', 0.0, 495.0464361961408, 0.0, 0.0, 0.0, 0.0, -1439.7429155996938, 0.0]
['beep', 0.0, 494.84527049604304, 0.0, 0.0, 0.0, 0.0, -1438.0441830210905, 0.0]
['beep', 0.0, 495.56052631861286, 0.0, 0.0, 0.0, 0.0, -1437.7312585987163, 0.0]
['beep', 0.0, 496.29813388563804, 0.0, 0.0, 0.0, 0.0, -1437.9324242988139, 0.0]
['beep', 0.0, 496.1640234189062, 0.0, 0.0, 0.0, 0.0, -1437.060706265057, 0.0]
['beep', 0.0, 496.05226469662966, 0.0, 0.0, 0.0, 0.0, -1437.418334176342, 0.0]
['beep', 0.0, 496.1640234189062, 0.0, 0.0, 0.0, 0.0, -1438.155941743367, 0.0]
['beep', 0.0, 497.05809319711847, 0.0, 0.0, 0.0, 0.0, -1441.1510755003783, 0.0]
['beep', 0.0, 497.2592588972162, 0.0, 0.0, 0.0, 0.0, -1437.194816731789, 0.0]
['beep', 0.0, 496.96868621929724, 0.0, 0.0, 0.0, 0.0, -1437.0830580095123, 0.0]
['beep', 0.0, 497.4380728528587, 0.0, 0.0, 0.0, 0.0, -1437.4630376652526, 0.0]
['beep', 0.0, 497.5274798306799, 0.0, 0.0, 0.0, 0.0, -1437.8206655765375, 0.0]
['beep', 0.0, 498.7344740312665, 0.0, 0.0, 0.0, 0.0, -1439.8993778108809, 0.0]
['beep', 0.0, 499.02504670918546, 0.0, 0.0, 0.0, 0.0, -1438.4688661657412, 0.0]
['beep', 0.0, 498.8015292646324, 0.0, 0.0, 0.0, 0.0, -1438.8711975659369, 0.0]
['beep', 0.0, 500.09793044304024, 0.0, 0.0, 0.0, 0.0, -1437.9771277877246, 0.0]
['beep', 0.0, 500.76848277669944, 0.0, 0.0, 0.0, 0.0, -1436.9712992872358, 0.0]
['beep', 0.0, 500.9696484767972, 0.0, 0.0, 0.0, 0.0, -1437.4853894097078, 0.0]
['beep', 0.0, 499.6732472983894, 0.0, 0.0, 0.0, 0.0, -1437.865369065448, 0.0]
['beep', 0.0, 499.00269496473015, 0.0, 0.0, 0.0, 0.0, -1437.9100725543587, 0.0]
['beep', 0.0, 498.8015292646324, 0.0, 0.0, 0.0, 0.0, -1439.161770243856, 0.0]
['beep', 0.0, 498.5333083311687, 0.0, 0.0, 0.0, 0.0, -1438.155941743367, 0.0]
['beep', 0.0, 499.2485641537385, 0.0, 0.0, 0.0, 0.0, -1438.155941743367, 0.0]
['beep', 0.0, 498.33214263107095, 0.0, 0.0, 0.0, 0.0, -1436.121932997934, 0.0]
['beep', 0.0, 498.555660075624, 0.0, 0.0, 0.0, 0.0, -1437.3736306874314, 0.0]
['beep', 0.0, 498.62271530898994, 0.0, 0.0, 0.0, 0.0, -1437.4853894097078, 0.0]
['beep', 0.0, 498.04156995315196, 0.0, 0.0, 0.0, 0.0, -1438.5582731435625, 0.0]
['beep', 0.0, 499.02504670918546, 0.0, 0.0, 0.0, 0.0, -1439.988784788702, 0.0]
['beep', 0.0, 499.04739845364077, 0.0, 0.0, 0.0, 0.0, -1440.0334882776128, 0.0]
['beep', 0.0, 497.97451471978604, 0.0, 0.0, 0.0, 0.0, -1439.027659777124, 0.0]
['beep', 0.0, 497.5051280862246, 0.0, 0.0, 0.0, 0.0, -1436.9936510316911, 0.0]
['beep', 0.0, 496.9239827303866, 0.0, 0.0, 0.0, 0.0, -1439.0053080326686, 0.0]
['beep', 0.0, 495.8287472520766, 0.0, 0.0, 0.0, 0.0, -1437.3736306874314, 0.0]
['beep', 0.0, 495.0240844516855, 0.0, 0.0, 0.0, 0.0, -1437.6194998764397, 0.0]
['beep', 0.0, 493.7723867621883, 0.0, 0.0, 0.0, 0.0, -1438.0665347655458, 0.0]
['beep', 0.0, 493.57122106209056, 0.0, 0.0, 0.0, 0.0, -1437.5971481319843, 0.0]
['beep', 0.0, 494.59940130703467, 0.0, 0.0, 0.0, 0.0, -1439.0053080326686, 0.0]
['beep', 0.0, 494.55469781812405, 0.0, 0.0, 0.0, 0.0, -1440.1452469998894, 0.0]
['beep', 0.0, 494.62175305149, 0.0, 0.0, 0.0, 0.0, -1437.7983138320822, 0.0]
['beep', 0.0, 495.0240844516855, 0.0, 0.0, 0.0, 0.0, -1436.6360231204062, 0.0]
['beep', 0.0, 495.20289840732795, 0.0, 0.0, 0.0, 0.0, -1437.0160027761465, 0.0]
['beep', 0.0, 495.15819491841734, 0.0, 0.0, 0.0, 0.0, -1436.0325260201128, 0.0]
['beep', 0.0, 495.67228504088945, 0.0, 0.0, 0.0, 0.0, -1436.3454504424872, 0.0]
['beep', 0.0, 497.59453506404583, 0.0, 0.0, 0.0, 0.0, -1440.1005435109787, 0.0]
['beep', 0.0, 498.98034322027485, 0.0, 0.0, 0.0, 0.0, -1439.4299911773196, 0.0]
['beep', 0.0, 497.2145554083056, 0.0, 0.0, 0.0, 0.0, -1437.641851620895, 0.0]
['beep', 0.0, 497.5498315751352, 0.0, 0.0, 0.0, 0.0, -1439.2288254772218, 0.0]
['beep', 0.0, 498.01921820869666, 0.0, 0.0, 0.0, 0.0, -1437.708906854261, 0.0]
['beep', 0.0, 498.8685844979983, 0.0, 0.0, 0.0, 0.0, -1437.708906854261, 0.0]
['beep', 0.0, 499.2485641537385, 0.0, 0.0, 0.0, 0.0, -1437.0383545206016, 0.0]
['beep', 0.0, 500.7014275433335, 0.0, 0.0, 0.0, 0.0, -1436.7924853315933, 0.0]
['beep', 0.0, 502.1989944218391, 0.0, 0.0, 0.0, 0.0, -1436.0548777645681, 0.0]
['beep', 0.0, 502.75778803322174, 0.0, 0.0, 0.0, 0.0, -1436.703078353772, 0.0]
['beep', 0.0, 502.08723569956254, 0.0, 0.0, 0.0, 0.0, -1436.8818923094145, 0.0]
['beep', 0.0, 501.14846243243966, 0.0, 0.0, 0.0, 0.0, -1435.1608079863558, 0.0]
['beep', 0.0, 499.31561938710445, 0.0, 0.0, 0.0, 0.0, -1433.797351574582, 0.0]
['beep', 0.0, 499.9861717207637, 0.0, 0.0, 0.0, 0.0, -1434.222034719233, 0.0]
['beep', 0.0, 498.98034322027485, 0.0, 0.0, 0.0, 0.0, -1436.926595798325, 0.0]
['beep', 0.0, 498.5780118200793, 0.0, 0.0, 0.0, 0.0, -1436.3678021869425, 0.0]
['beep', 0.0, 498.71212228681117, 0.0, 0.0, 0.0, 0.0, -1436.5019126536743, 0.0]
['beep', 0.0, 497.2369071527609, 0.0, 0.0, 0.0, 0.0, -1438.37945918792, 0.0]
['beep', 0.0, 497.4157211084034, 0.0, 0.0, 0.0, 0.0, -1437.3065754540653, 0.0]
['beep', 0.0, 498.8909362424536, 0.0, 0.0, 0.0, 0.0, -1437.8206655765375, 0.0]
['beep', 0.0, 500.6567240544229, 0.0, 0.0, 0.0, 0.0, -1436.3678021869425, 0.0]
['beep', 0.0, 500.18733742086147, 0.0, 0.0, 0.0, 0.0, -1437.865369065448, 0.0]
['beep', 0.0, 499.8967647429425, 0.0, 0.0, 0.0, 0.0, -1437.2618719651548, 0.0]
['beep', 0.0, 500.41085486541454, 0.0, 0.0, 0.0, 0.0, -1437.7983138320822, 0.0]
['beep', 0.0, 500.43320660986984, 0.0, 0.0, 0.0, 0.0, -1439.8770260664257, 0.0]
['beep', 0.0, 500.6343723099676, 0.0, 0.0, 0.0, 0.0, -1441.7769243451269, 0.0]
['beep', 0.0, 500.3661513765039, 0.0, 0.0, 0.0, 0.0, -1442.1792557453223, 0.0]
['beep', 0.0, 500.0308752096743, 0.0, 0.0, 0.0, 0.0, -1440.994613289191, 0.0]
['beep', 0.0, 500.81318626561006, 0.0, 0.0, 0.0, 0.0, -1438.6923836102944, 0.0]
['beep', 0.0, 500.76848277669944, 0.0, 0.0, 0.0, 0.0, -1438.9382527993027, 0.0]
['beep', 0.0, 501.975476977286, 0.0, 0.0, 0.0, 0.0, -1439.161770243856, 0.0]
['beep', 0.0, 500.85788975452067, 0.0, 0.0, 0.0, 0.0, -1439.608805132962, 0.0]
['beep', 0.0, 500.50026184323576, 0.0, 0.0, 0.0, 0.0, -1442.1122005119564, 0.0]
['beep', 0.0, 500.9920002212525, 0.0, 0.0, 0.0, 0.0, -1440.7263923557273, 0.0]
['beep', 0.0, 502.5342705886687, 0.0, 0.0, 0.0, 0.0, -1441.2628342226546, 0.0]
['beep', 0.0, 502.15429093292846, 0.0, 0.0, 0.0, 0.0, -1438.3347556990095, 0.0]
['beep', 0.0, 501.17081417689496, 0.0, 0.0, 0.0, 0.0, -1439.8546743219704, 0.0]
['beep', 0.0, 500.6790757988782, 0.0, 0.0, 0.0, 0.0, -1441.061668522557, 0.0]
['beep', 0.0, 499.6508955539341, 0.0, 0.0, 0.0, 0.0, -1440.9499098002805, 0.0]
['beep', 0.0, 501.3272763880821, 0.0, 0.0, 0.0, 0.0, -1441.2628342226546, 0.0]
['beep', 0.0, 503.11541594450665, 0.0, 0.0, 0.0, 0.0, -1441.9780900452245, 0.0]
['beep', 0.0, 502.06488395510723, 0.0, 0.0, 0.0, 0.0, -1440.480523166719, 0.0]
['beep', 0.0, 501.9084217439201, 0.0, 0.0, 0.0, 0.0, -1439.988784788702, 0.0]
['beep', 0.0, 502.71308454431113, 0.0, 0.0, 0.0, 0.0, -1440.8381510780039, 0.0]
['beep', 0.0, 503.62950606697876, 0.0, 0.0, 0.0, 0.0, -1441.575758645029, 0.0]
['beep', 0.0, 503.0260089666854, 0.0, 0.0, 0.0, 0.0, -1441.5310551561183, 0.0]
['beep', 0.0, 503.42834036688095, 0.0, 0.0, 0.0, 0.0, -1439.7205638552384, 0.0]
['beep', 0.0, 503.07071245559604, 0.0, 0.0, 0.0, 0.0, -1441.5534069005737, 0.0]
['beep', 0.0, 502.15429093292846, 0.0, 0.0, 0.0, 0.0, -1439.966433044247, 0.0]
['beep', 0.0, 504.1212444449955, 0.0, 0.0, 0.0, 0.0, -1438.3347556990095, 0.0]
['beep', 0.0, 504.3447618895486, 0.0, 0.0, 0.0, 0.0, -1437.4630376652526, 0.0]
['beep', 0.0, 504.3671136340039, 0.0, 0.0, 0.0, 0.0, -1440.1452469998894, 0.0]
['beep', 0.0, 504.1659479339061, 0.0, 0.0, 0.0, 0.0, -1440.3687644444424, 0.0]
['beep', 0.0, 504.0541892116296, 0.0, 0.0, 0.0, 0.0, -1440.994613289191, 0.0]
['beep', 0.0, 503.94243048935306, 0.0, 0.0, 0.0, 0.0, -1440.3911161888977, 0.0]
['beep', 0.0, 504.54592758964634, 0.0, 0.0, 0.0, 0.0, -1437.7536103431714, 0.0]
['beep', 0.0, 504.5012241007357, 0.0, 0.0, 0.0, 0.0, -1437.4853894097078, 0.0]
['beep', 0.0, 504.1659479339061, 0.0, 0.0, 0.0, 0.0, -1436.1442847423893, 0.0]
['beep', 0.0, 504.30005840063797, 0.0, 0.0, 0.0, 0.0, -1436.256043464666, 0.0]
['beep', 0.0, 504.94825898984186, 0.0, 0.0, 0.0, 0.0, -1439.4299911773196, 0.0]
['beep', 0.0, 504.30005840063797, 0.0, 0.0, 0.0, 0.0, -1439.675860366328, 0.0]
['beep', 0.0, 502.6683810554005, 0.0, 0.0, 0.0, 0.0, -1441.0393167781017, 0.0]
['beep', 0.0, 503.56245083361284, 0.0, 0.0, 0.0, 0.0, -1439.2735289661323, 0.0]
['beep', 0.0, 505.1717764343949, 0.0, 0.0, 0.0, 0.0, -1437.7312585987163, 0.0]
['beep', 0.0, 505.104721201029, 0.0, 0.0, 0.0, 0.0, -1436.703078353772, 0.0]
['beep', 0.0, 505.28353515667146, 0.0, 0.0, 0.0, 0.0, -1436.6807266093167, 0.0]
['beep', 0.0, 505.3282386455821, 0.0, 0.0, 0.0, 0.0, -1437.641851620895, 0.0]
['beep', 0.0, 504.5012241007357, 0.0, 0.0, 0.0, 0.0, -1438.3124039545542, 0.0]
['beep', 0.0, 505.7082183013223, 0.0, 0.0, 0.0, 0.0, -1438.0441830210905, 0.0]
['beep', 0.0, 505.7752735346882, 0.0, 0.0, 0.0, 0.0, -1437.3065754540653, 0.0]
['beep', 0.0, 505.28353515667146, 0.0, 0.0, 0.0, 0.0, -1437.1501132428782, 0.0]
['beep', 0.0, 503.92007874489775, 0.0, 0.0, 0.0, 0.0, -1437.5300928986185, 0.0]
['beep', 0.0, 503.7636165337106, 0.0, 0.0, 0.0, 0.0, -1437.3736306874314, 0.0]
['beep', 0.0, 504.3894653784592, 0.0, 0.0, 0.0, 0.0, -1438.8935493103922, 0.0]
['beep', 0.0, 504.8365002675653, 0.0, 0.0, 0.0, 0.0, -1438.0665347655458, 0.0]
['beep', 0.0, 505.685866556867, 0.0, 0.0, 0.0, 0.0, -1436.703078353772, 0.0]
['beep', 0.0, 504.7694450341994, 0.0, 0.0, 0.0, 0.0, -1436.3678021869425, 0.0]
['beep', 0.0, 504.23300316727205, 0.0, 0.0, 0.0, 0.0, -1438.6253283769286, 0.0]
['beep', 0.0, 504.30005840063797, 0.0, 0.0, 0.0, 0.0, -1437.641851620895, 0.0]
['beep', 0.0, 503.62950606697876, 0.0, 0.0, 0.0, 0.0, -1436.2783952091213, 0.0]
['beep', 0.0, 503.8306717670765, 0.0, 0.0, 0.0, 0.0, -1438.0665347655458, 0.0]
['beep', 0.0, 502.6236775664899, 0.0, 0.0, 0.0, 0.0, -1436.3007469535764, 0.0]
['beep', 0.0, 502.9366019888642, 0.0, 0.0, 0.0, 0.0, -1434.959642286258, 0.0]
['beep', 0.0, 503.16011943341726, 0.0, 0.0, 0.0, 0.0, -1436.5242643981296, 0.0]
['beep', 0.0, 503.2048229223279, 0.0, 0.0, 0.0, 0.0, -1437.8877208099034, 0.0]
['beep', 0.0, 503.49539560024687, 0.0, 0.0, 0.0, 0.0, -1438.155941743367, 0.0]
['beep', 0.0, 504.3447618895486, 0.0, 0.0, 0.0, 0.0, -1436.5689678870401, 0.0]
['beep', 0.0, 502.8918984999536, 0.0, 0.0, 0.0, 0.0, -1436.1442847423893, 0.0]
['beep', 0.0, 503.38363687797033, 0.0, 0.0, 0.0, 0.0, -1435.6972498532832, 0.0]
['beep', 0.0, 504.85885201202063, 0.0, 0.0, 0.0, 0.0, -1433.3279649410208, 0.0]
['beep', 0.0, 504.6800380563782, 0.0, 0.0, 0.0, 0.0, -1434.803180075071, 0.0]
['beep', 0.0, 504.3894653784592, 0.0, 0.0, 0.0, 0.0, -1436.6583748648613, 0.0]
['beep', 0.0, 502.73543628876644, 0.0, 0.0, 0.0, 0.0, -1436.926595798325, 0.0]
['beep', 0.0, 503.42834036688095, 0.0, 0.0, 0.0, 0.0, -1438.021831276635, 0.0]
['beep', 0.0, 504.7247415452888, 0.0, 0.0, 0.0, 0.0, -1436.5913196314955, 0.0]
['beep', 0.0, 503.89772700044244, 0.0, 0.0, 0.0, 0.0, -1435.1384562419005, 0.0]
['beep', 0.0, 503.2271746667832, 0.0, 0.0, 0.0, 0.0, -1435.9207672978364, 0.0]
['beep', 0.0, 501.41668336590334, 0.0, 0.0, 0.0, 0.0, -1435.8090085755598, 0.0]
['beep', 0.0, 501.84136651055417, 0.0, 0.0, 0.0, 0.0, -1437.9100725543587, 0.0]
['beep', 0.0, 502.8695467554983, 0.0, 0.0, 0.0, 0.0, -1438.8935493103922, 0.0]
['beep', 0.0, 503.2718781556938, 0.0, 0.0, 0.0, 0.0, -1437.8206655765375, 0.0]
['beep', 0.0, 501.975476977286, 0.0, 0.0, 0.0, 0.0, -1436.3901539313977, 0.0]
['beep', 0.0, 501.81901476609886, 0.0, 0.0, 0.0, 0.0, -1437.4853894097078, 0.0]
['beep', 0.0, 502.6013258220346, 0.0, 0.0, 0.0, 0.0, -1437.3736306874314, 0.0]
['beep', 0.0, 502.73543628876644, 0.0, 0.0, 0.0, 0.0, -1438.2677004656437, 0.0]
['beep', 0.0, 502.48956709975806, 0.0, 0.0, 0.0, 0.0, -1437.194816731789, 0.0]
['beep', 0.0, 502.8695467554983, 0.0, 0.0, 0.0, 0.0, -1437.5971481319843, 0.0]
['beep', 0.0, 502.46721535530276, 0.0, 0.0, 0.0, 0.0, -1438.1112382544563, 0.0]
['beep', 0.0, 503.62950606697876, 0.0, 0.0, 0.0, 0.0, -1438.4018109323754, 0.0]
['beep', 0.0, 504.009485722719, 0.0, 0.0, 0.0, 0.0, -1436.90424405387, 0.0]
['beep', 0.0, 502.82484326658766, 0.0, 0.0, 0.0, 0.0, -1436.3454504424872, 0.0]
['beep', 0.0, 501.6625525549117, 0.0, 0.0, 0.0, 0.0, -1437.8206655765375, 0.0]
['beep', 0.0, 500.3214478875933, 0.0, 0.0, 0.0, 0.0, -1438.5359213991073, 0.0]
['beep', 0.0, 502.06488395510723, 0.0, 0.0, 0.0, 0.0, -1438.2677004656437, 0.0]
['beep', 0.0, 502.51191884421337, 0.0, 0.0, 0.0, 0.0, -1438.0665347655458, 0.0]
['beep', 0.0, 502.6907327998558, 0.0, 0.0, 0.0, 0.0, -1437.7312585987163, 0.0]
['beep', 0.0, 502.2213461662944, 0.0, 0.0, 0.0, 0.0, -1435.741953342194, 0.0]
['beep', 0.0, 500.9696484767972, 0.0, 0.0, 0.0, 0.0, -1433.8420550634928, 0.0]
['beep', 0.0, 500.74613103224414, 0.0, 0.0, 0.0, 0.0, -1434.9819940307134, 0.0]
['beep', 0.0, 502.42251186639214, 0.0, 0.0, 0.0, 0.0, -1434.6690696083392, 0.0]
['beep', 0.0, 502.78013977767705, 0.0, 0.0, 0.0, 0.0, -1435.8090085755598, 0.0]
['beep', 0.0, 503.18247117787257, 0.0, 0.0, 0.0, 0.0, -1435.7866568311044, 0.0]
['beep', 0.0, 502.2436979107497, 0.0, 0.0, 0.0, 0.0, -1437.217168476244, 0.0]
['beep', 0.0, 503.0036572222301, 0.0, 0.0, 0.0, 0.0, -1434.959642286258, 0.0]
['beep', 0.0, 503.6742095558894, 0.0, 0.0, 0.0, 0.0, -1433.4620754077525, 0.0]
['beep', 0.0, 502.75778803322174, 0.0, 0.0, 0.0, 0.0, -1434.445552163786, 0.0]
['beep', 0.0, 502.37780837748153, 0.0, 0.0, 0.0, 0.0, -1434.445552163786, 0.0]
['beep', 0.0, 502.6013258220346, 0.0, 0.0, 0.0, 0.0, -1436.0772295090235, 0.0]
['beep', 0.0, 501.3049246436268, 0.0, 0.0, 0.0, 0.0, -1434.1102759969565, 0.0]
['beep', 0.0, 503.45069211133625, 0.0, 0.0, 0.0, 0.0, -1436.7254300982274, 0.0]
['beep', 0.0, 502.37780837748153, 0.0, 0.0, 0.0, 0.0, -1433.6855928523057, 0.0]
['beep', 0.0, 501.2602211547162, 0.0, 0.0, 0.0, 0.0, -1434.8255318195263, 0.0]
['beep', 0.0, 501.19316592135027, 0.0, 0.0, 0.0, 0.0, -1434.4008486748755, 0.0]
['beep', 0.0, 500.81318626561006, 0.0, 0.0, 0.0, 0.0, -1434.8478835639817, 0.0]
['beep', 0.0, 500.76848277669944, 0.0, 0.0, 0.0, 0.0, -1437.060706265057, 0.0]
['beep', 0.0, 500.880241498976, 0.0, 0.0, 0.0, 0.0, -1436.703078353772, 0.0]
['beep', 0.0, 499.427378109381, 0.0, 0.0, 0.0, 0.0, -1433.8420550634928, 0.0]
['beep', 0.0, 499.31561938710445, 0.0, 0.0, 0.0, 0.0, -1433.6185376189396, 0.0]
['beep', 0.0, 499.1815089203726, 0.0, 0.0, 0.0, 0.0, -1434.222034719233, 0.0]
['beep', 0.0, 499.2262124092832, 0.0, 0.0, 0.0, 0.0, -1435.09375275299, 0.0]
['beep', 0.0, 499.6285438094788, 0.0, 0.0, 0.0, 0.0, -1436.0101742756576, 0.0]
['beep', 0.0, 499.33797113155975, 0.0, 0.0, 0.0, 0.0, -1436.3678021869425, 0.0]
['beep', 0.0, 499.9191164873978, 0.0, 0.0, 0.0, 0.0, -1437.2395202206994, 0.0]
['beep', 0.0, 501.19316592135027, 0.0, 0.0, 0.0, 0.0, -1436.3901539313977, 0.0]
['beep', 0.0, 501.10375894352904, 0.0, 0.0, 0.0, 0.0, -1435.1608079863558, 0.0]
['beep', 0.0, 501.5954973215458, 0.0, 0.0, 0.0, 0.0, -1434.937290541803, 0.0]
['beep', 0.0, 500.81318626561006, 0.0, 0.0, 0.0, 0.0, -1434.222034719233, 0.0]
['beep', 0.0, 499.80735776512125, 0.0, 0.0, 0.0, 0.0, -1434.5573108860626, 0.0]
['beep', 0.0, 499.9861717207637, 0.0, 0.0, 0.0, 0.0, -1438.0665347655458, 0.0]
['beep', 0.0, 498.846232753543, 0.0, 0.0, 0.0, 0.0, -1435.898415553381, 0.0]
['beep', 0.0, 499.8967647429425, 0.0, 0.0, 0.0, 0.0, -1434.0655725080458, 0.0]
['beep', 0.0, 499.9191164873978, 0.0, 0.0, 0.0, 0.0, -1436.6807266093167, 0.0]
['beep', 0.0, 499.5167850872022, 0.0, 0.0, 0.0, 0.0, -1433.774999830127, 0.0]
['beep', 0.0, 500.2096891653168, 0.0, 0.0, 0.0, 0.0, -1433.99851727468, 0.0]
['beep', 0.0, 501.0143519657078, 0.0, 0.0, 0.0, 0.0, -1435.8090085755598, 0.0]
['beep', 0.0, 501.2155176658056, 0.0, 0.0, 0.0, 0.0, -1436.3678021869425, 0.0]
['beep', 0.0, 499.6285438094788, 0.0, 0.0, 0.0, 0.0, -1436.0772295090235, 0.0]
['beep', 0.0, 499.36032287601506, 0.0, 0.0, 0.0, 0.0, -1436.6360231204062, 0.0]
['beep', 0.0, 498.68977054235586, 0.0, 0.0, 0.0, 0.0, -1436.3454504424872, 0.0]
['beep', 0.0, 499.5391368316575, 0.0, 0.0, 0.0, 0.0, -1436.7477818426826, 0.0]
['beep', 0.0, 500.2543926542274, 0.0, 0.0, 0.0, 0.0, -1437.0160027761465, 0.0]
['beep', 0.0, 499.136805431462, 0.0, 0.0, 0.0, 0.0, -1436.1889882313, 0.0]
['beep', 0.0, 498.28743914216034, 0.0, 0.0, 0.0, 0.0, -1437.4853894097078, 0.0]
['beep', 0.0, 498.5333083311687, 0.0, 0.0, 0.0, 0.0, -1437.641851620895, 0.0]
['beep', 0.0, 499.29326764264914, 0.0, 0.0, 0.0, 0.0, -1437.6642033653502, 0.0]
['beep', 0.0, 498.5780118200793, 0.0, 0.0, 0.0, 0.0, -1438.3124039545542, 0.0]
['beep', 0.0, 498.4439013533475, 0.0, 0.0, 0.0, 0.0, -1438.960604543758, 0.0]
['beep', 0.0, 498.7568257757218, 0.0, 0.0, 0.0, 0.0, -1437.0383545206016, 0.0]
['beep', 0.0, 497.8404042530542, 0.0, 0.0, 0.0, 0.0, -1434.803180075071, 0.0]
['beep', 0.0, 498.64506705344525, 0.0, 0.0, 0.0, 0.0, -1435.6972498532832, 0.0]
['beep', 0.0, 499.9861717207637, 0.0, 0.0, 0.0, 0.0, -1436.479560909219, 0.0]
['beep', 0.0, 498.846232753543, 0.0, 0.0, 0.0, 0.0, -1437.2842237096102, 0.0]
['beep', 0.0, 497.68394204186706, 0.0, 0.0, 0.0, 0.0, -1437.9324242988139, 0.0]
['beep', 0.0, 498.33214263107095, 0.0, 0.0, 0.0, 0.0, -1435.317270197543, 0.0]
['beep', 0.0, 498.62271530898994, 0.0, 0.0, 0.0, 0.0, -1435.0714010085346, 0.0]
['beep', 0.0, 500.52261358769107, 0.0, 0.0, 0.0, 0.0, -1436.0101742756576, 0.0]
['beep', 0.0, 500.3661513765039, 0.0, 0.0, 0.0, 0.0, -1435.8537120644703, 0.0]
['beep', 0.0, 499.7179507873, 0.0, 0.0, 0.0, 0.0, -1434.5349591416073, 0.0]
['beep', 0.0, 500.6343723099676, 0.0, 0.0, 0.0, 0.0, -1436.256043464666, 0.0]
['beep', 0.0, 499.9191164873978, 0.0, 0.0, 0.0, 0.0, -1436.770133587138, 0.0]
['beep', 0.0, 498.9132879869089, 0.0, 0.0, 0.0, 0.0, -1437.8877208099034, 0.0]
['beep', 0.0, 497.5274798306799, 0.0, 0.0, 0.0, 0.0, -1437.2842237096102, 0.0]
['beep', 0.0, 496.70046528583356, 0.0, 0.0, 0.0, 0.0, -1437.1277614984228, 0.0]
['beep', 0.0, 496.8122240081101, 0.0, 0.0, 0.0, 0.0, -1435.1161044974453, 0.0]
['beep', 0.0, 498.2427356532497, 0.0, 0.0, 0.0, 0.0, -1435.607842875462, 0.0]
['beep', 0.0, 498.7568257757218, 0.0, 0.0, 0.0, 0.0, -1436.1889882313, 0.0]
['beep', 0.0, 498.01921820869666, 0.0, 0.0, 0.0, 0.0, -1434.937290541803, 0.0]
['beep', 0.0, 497.39336936394807, 0.0, 0.0, 0.0, 0.0, -1435.965470786747, 0.0]
['beep', 0.0, 498.64506705344525, 0.0, 0.0, 0.0, 0.0, -1435.6972498532832, 0.0]
['beep', 0.0, 499.6955990428447, 0.0, 0.0, 0.0, 0.0, -1435.7866568311044, 0.0]
['beep', 0.0, 499.0921019425514, 0.0, 0.0, 0.0, 0.0, -1435.5184358976408, 0.0]
['beep', 0.0, 496.99103796375255, 0.0, 0.0, 0.0, 0.0, -1436.3901539313977, 0.0]
['beep', 0.0, 496.2087269078168, 0.0, 0.0, 0.0, 0.0, -1436.90424405387, 0.0]
['beep', 0.0, 495.9181542298978, 0.0, 0.0, 0.0, 0.0, -1437.3736306874314, 0.0]
['beep', 0.0, 496.34283737454865, 0.0, 0.0, 0.0, 0.0, -1437.574796387529, 0.0]
['beep', 0.0, 496.1863751633615, 0.0, 0.0, 0.0, 0.0, -1433.7079445967609, 0.0]
['beep', 0.0, 496.8569274970207, 0.0, 0.0, 0.0, 0.0, -1432.8809300519144, 0.0]
['beep', 0.0, 498.1756804198838, 0.0, 0.0, 0.0, 0.0, -1434.6243661194285, 0.0]
['beep', 0.0, 498.71212228681117, 0.0, 0.0, 0.0, 0.0, -1435.1161044974453, 0.0]
['beep', 0.0, 499.4944333427469, 0.0, 0.0, 0.0, 0.0, -1434.6020143749731, 0.0]
['beep', 0.0, 500.81318626561006, 0.0, 0.0, 0.0, 0.0, -1433.797351574582, 0.0]
['beep', 0.0, 500.85788975452067, 0.0, 0.0, 0.0, 0.0, -1433.5514823855738, 0.0]
['beep', 0.0, 500.14263393195085, 0.0, 0.0, 0.0, 0.0, -1432.7468195851827, 0.0]
['beep', 0.0, 498.4662530978028, 0.0, 0.0, 0.0, 0.0, -1433.2162062187442, 0.0]
['beep', 0.0, 497.01338970820785, 0.0, 0.0, 0.0, 0.0, -1434.289089952599, 0.0]
['beep', 0.0, 496.02991295217436, 0.0, 0.0, 0.0, 0.0, -1432.7915230740932, 0.0]
['beep', 0.0, 494.55469781812405, 0.0, 0.0, 0.0, 0.0, -1433.8867585524033, 0.0]
['beep', 0.0, 495.0017327072302, 0.0, 0.0, 0.0, 0.0, -1434.6914213527944, 0.0]
['beep', 0.0, 494.82291875158774, 0.0, 0.0, 0.0, 0.0, -1433.5738341300291, 0.0]
['beep', 0.0, 495.4487675963363, 0.0, 0.0, 0.0, 0.0, -1435.1161044974453, 0.0]
['beep', 0.0, 495.73934027425537, 0.0, 0.0, 0.0, 0.0, -1434.959642286258, 0.0]
['beep', 0.0, 495.8958024854425, 0.0, 0.0, 0.0, 0.0, -1436.9712992872358, 0.0]
['beep', 0.0, 496.63341005246764, 0.0, 0.0, 0.0, 0.0, -1435.2278632197217, 0.0]
['beep', 0.0, 496.96868621929724, 0.0, 0.0, 0.0, 0.0, -1435.1161044974453, 0.0]
['beep', 0.0, 496.4545960968252, 0.0, 0.0, 0.0, 0.0, -1436.770133587138, 0.0]
['beep', 0.0, 496.2310786522721, 0.0, 0.0, 0.0, 0.0, -1436.6360231204062, 0.0]
['beep', 0.0, 494.84527049604304, 0.0, 0.0, 0.0, 0.0, -1436.3007469535764, 0.0]
['beep', 0.0, 494.0629594401073, 0.0, 0.0, 0.0, 0.0, -1435.9207672978364, 0.0]
['beep', 0.0, 495.2923053851492, 0.0, 0.0, 0.0, 0.0, -1437.4406859207973, 0.0]
['beep', 0.0, 495.62758155197884, 0.0, 0.0, 0.0, 0.0, -1437.1277614984228, 0.0]
['beep', 0.0, 495.13584317396203, 0.0, 0.0, 0.0, 0.0, -1436.1889882313, 0.0]
['beep', 0.0, 493.92884897337547, 0.0, 0.0, 0.0, 0.0, -1436.8148370760487, 0.0]
['beep', 0.0, 494.0629594401073, 0.0, 0.0, 0.0, 0.0, -1435.764305086649, 0.0]
['beep', 0.0, 493.23594489526096, 0.0, 0.0, 0.0, 0.0, -1436.2336917202106, 0.0]
['beep', 0.0, 493.81709025109893, 0.0, 0.0, 0.0, 0.0, -1437.8877208099034, 0.0]
['beep', 0.0, 493.81709025109893, 0.0, 0.0, 0.0, 0.0, -1436.412505675853, 0.0]
['beep', 0.0, 493.54886931763525, 0.0, 0.0, 0.0, 0.0, -1434.9149387973475, 0.0]
['beep', 0.0, 493.61592455100117, 0.0, 0.0, 0.0, 0.0, -1435.6748981088278, 0.0]
['beep', 0.0, 493.4371105953587, 0.0, 0.0, 0.0, 0.0, -1434.4679039082414, 0.0]
['beep', 0.0, 495.0464361961408, 0.0, 0.0, 0.0, 0.0, -1434.803180075071, 0.0]
['beep', 0.0, 493.9512007178308, 0.0, 0.0, 0.0, 0.0, -1436.2336917202106, 0.0]
['beep', 0.0, 493.1241861729844, 0.0, 0.0, 0.0, 0.0, -1435.4737324087303, 0.0]
['beep', 0.0, 493.3253518730822, 0.0, 0.0, 0.0, 0.0, -1435.4737324087303, 0.0]
['beep', 0.0, 493.459462339814, 0.0, 0.0, 0.0, 0.0, -1436.5242643981296, 0.0]
['beep', 0.0, 493.9512007178308, 0.0, 0.0, 0.0, 0.0, -1437.3736306874314, 0.0]
['beep', 0.0, 493.750035017733, 0.0, 0.0, 0.0, 0.0, -1435.6748981088278, 0.0]
['beep', 0.0, 494.15236641792853, 0.0, 0.0, 0.0, 0.0, -1434.445552163786, 0.0]
['beep', 0.0, 493.50416582872464, 0.0, 0.0, 0.0, 0.0, -1438.021831276635, 0.0]
['beep', 0.0, 495.13584317396203, 0.0, 0.0, 0.0, 0.0, -1436.8595405649592, 0.0]
['beep', 0.0, 494.9793809627749, 0.0, 0.0, 0.0, 0.0, -1437.1501132428782, 0.0]
['beep', 0.0, 494.17471816238384, 0.0, 0.0, 0.0, 0.0, -1439.3852876884089, 0.0]
['beep', 0.0, 493.92884897337547, 0.0, 0.0, 0.0, 0.0, -1437.9100725543587, 0.0]
['beep', 0.0, 492.4759855837805, 0.0, 0.0, 0.0, 0.0, -1437.7312585987163, 0.0]
['beep', 0.0, 492.87831698397605, 0.0, 0.0, 0.0, 0.0, -1436.0325260201128, 0.0]
['beep', 0.0, 493.92884897337547, 0.0, 0.0, 0.0, 0.0, -1437.0830580095123, 0.0]
['beep', 0.0, 494.21942165129445, 0.0, 0.0, 0.0, 0.0, -1438.804142332571, 0.0]
['beep', 0.0, 493.7053315288224, 0.0, 0.0, 0.0, 0.0, -1438.3571074434649, 0.0]
['beep', 0.0, 494.040607695652, 0.0, 0.0, 0.0, 0.0, -1437.8206655765375, 0.0]
['beep', 0.0, 494.15236641792853, 0.0, 0.0, 0.0, 0.0, -1437.1501132428782, 0.0]
['beep', 0.0, 494.53234607366875, 0.0, 0.0, 0.0, 0.0, -1438.3347556990095, 0.0]
['beep', 0.0, 494.50999432921344, 0.0, 0.0, 0.0, 0.0, -1438.9829562882135, 0.0]
['beep', 0.0, 495.26995364069387, 0.0, 0.0, 0.0, 0.0, -1437.9324242988139, 0.0]
['beep', 0.0, 495.8287472520766, 0.0, 0.0, 0.0, 0.0, -1438.6923836102944, 0.0]
['beep', 0.0, 496.1863751633615, 0.0, 0.0, 0.0, 0.0, -1437.507741154163, 0.0]
['beep', 0.0, 497.169851919395, 0.0, 0.0, 0.0, 0.0, -1436.9489475427804, 0.0]
['beep', 0.0, 498.5333083311687, 0.0, 0.0, 0.0, 0.0, -1436.3007469535764, 0.0]
['beep', 0.0, 497.2369071527609, 0.0, 0.0, 0.0, 0.0, -1437.2395202206994, 0.0]
['beep', 0.0, 496.5663548191017, 0.0, 0.0, 0.0, 0.0, -1439.0500115215793, 0.0]
['beep', 0.0, 497.01338970820785, 0.0, 0.0, 0.0, 0.0, -1439.7876190886045, 0.0]
['beep', 0.0, 496.38754086345926, 0.0, 0.0, 0.0, 0.0, -1439.6311568774172, 0.0]
['beep', 0.0, 495.3370088740598, 0.0, 0.0, 0.0, 0.0, -1439.7652673441492, 0.0]
['beep', 0.0, 495.56052631861286, 0.0, 0.0, 0.0, 0.0, -1438.9829562882135, 0.0]
['beep', 0.0, 495.0017327072302, 0.0, 0.0, 0.0, 0.0, -1437.9100725543587, 0.0]
['beep', 0.0, 495.18054666287264, 0.0, 0.0, 0.0, 0.0, -1438.7817905881157, 0.0]
['beep', 0.0, 494.3758838624816, 0.0, 0.0, 0.0, 0.0, -1438.2677004656437, 0.0]
['beep', 0.0, 495.0464361961408, 0.0, 0.0, 0.0, 0.0, -1440.1899504888, 0.0]
['beep', 0.0, 494.7558635182218, 0.0, 0.0, 0.0, 0.0, -1440.5028749111743, 0.0]
['beep', 0.0, 494.4429390958475, 0.0, 0.0, 0.0, 0.0, -1438.2677004656437, 0.0]
['beep', 0.0, 494.86762224049835, 0.0, 0.0, 0.0, 0.0, -1438.3124039545542, 0.0]
['beep', 0.0, 495.2923053851492, 0.0, 0.0, 0.0, 0.0, -1440.0781917665233, 0.0]
['beep', 0.0, 495.98520946326374, 0.0, 0.0, 0.0, 0.0, -1439.7876190886045, 0.0]
['beep', 0.0, 496.4545960968252, 0.0, 0.0, 0.0, 0.0, -1439.7205638552384, 0.0]
['beep', 0.0, 496.07461644108497, 0.0, 0.0, 0.0, 0.0, -1439.47469466623, 0.0]
['beep', 0.0, 496.07461644108497, 0.0, 0.0, 0.0, 0.0, -1440.0334882776128, 0.0]
['beep', 0.0, 495.0017327072302, 0.0, 0.0, 0.0, 0.0, -1440.8381510780039, 0.0]
['beep', 0.0, 495.1134914295067, 0.0, 0.0, 0.0, 0.0, -1438.155941743367, 0.0]
['beep', 0.0, 495.71698852980006, 0.0, 0.0, 0.0, 0.0, -1437.507741154163, 0.0]
['beep', 0.0, 495.20289840732795, 0.0, 0.0, 0.0, 0.0, -1436.926595798325, 0.0]
['beep', 0.0, 494.48764258475813, 0.0, 0.0, 0.0, 0.0, -1439.6535086218726, 0.0]
['beep', 0.0, 495.7616920187107, 0.0, 0.0, 0.0, 0.0, -1439.9217295553362, 0.0]
['beep', 0.0, 495.3817123629704, 0.0, 0.0, 0.0, 0.0, -1439.9440812997916, 0.0]
['beep', 0.0, 495.0464361961408, 0.0, 0.0, 0.0, 0.0, -1441.3745929449312, 0.0]
['beep', 0.0, 494.26412514020507, 0.0, 0.0, 0.0, 0.0, -1440.1005435109787, 0.0]
['beep', 0.0, 493.59357280654586, 0.0, 0.0, 0.0, 0.0, -1441.3745929449312, 0.0]
['beep', 0.0, 493.83944199555424, 0.0, 0.0, 0.0, 0.0, -1440.9722615447358, 0.0]
['beep', 0.0, 493.90649722892016, 0.0, 0.0, 0.0, 0.0, -1441.7769243451269, 0.0]
['beep', 0.0, 493.7276832732777, 0.0, 0.0, 0.0, 0.0, -1442.9392150568028, 0.0]
['beep', 0.0, 493.92884897337547, 0.0, 0.0, 0.0, 0.0, -1442.1792557453223, 0.0]
['beep', 0.0, 494.7558635182218, 0.0, 0.0, 0.0, 0.0, -1441.3969446893866, 0.0]
['beep', 0.0, 494.6664565404006, 0.0, 0.0, 0.0, 0.0, -1440.6146336334507, 0.0]
['beep', 0.0, 494.2864768846604, 0.0, 0.0, 0.0, 0.0, -1440.5028749111743, 0.0]
['beep', 0.0, 494.24177339574976, 0.0, 0.0, 0.0, 0.0, -1442.1122005119564, 0.0]
['beep', 0.0, 493.59357280654586, 0.0, 0.0, 0.0, 0.0, -1440.771095844638, 0.0]
['beep', 0.0, 492.7665582616995, 0.0, 0.0, 0.0, 0.0, -1441.5534069005737, 0.0]
['beep', 0.0, 492.9900757062526, 0.0, 0.0, 0.0, 0.0, -1440.9499098002805, 0.0]
['beep', 0.0, 492.9677239617973, 0.0, 0.0, 0.0, 0.0, -1442.738049356705, 0.0]
['beep', 0.0, 492.7665582616995, 0.0, 0.0, 0.0, 0.0, -1441.9780900452245, 0.0]
['beep', 0.0, 492.0960059280403, 0.0, 0.0, 0.0, 0.0, -1441.3969446893866, 0.0]
['beep', 0.0, 491.9842472057638, 0.0, 0.0, 0.0, 0.0, -1441.2628342226546, 0.0]
['beep', 0.0, 491.7160262723001, 0.0, 0.0, 0.0, 0.0, -1440.2123022332553, 0.0]
['beep', 0.0, 492.58774430605706, 0.0, 0.0, 0.0, 0.0, -1439.9440812997916, 0.0]
['beep', 0.0, 492.6324477949677, 0.0, 0.0, 0.0, 0.0, -1440.2793574666211, 0.0]
['beep', 0.0, 491.6936745278448, 0.0, 0.0, 0.0, 0.0, -1441.4863516672078, 0.0]
['beep', 0.0, 491.6489710389342, 0.0, 0.0, 0.0, 0.0, -1442.0227935341352, 0.0]
['beep', 0.0, 491.91719197239786, 0.0, 0.0, 0.0, 0.0, -1439.9217295553362, 0.0]
['beep', 0.0, 491.85013673903194, 0.0, 0.0, 0.0, 0.0, -1441.799276089582, 0.0]
['beep', 0.0, 491.04547393864084, 0.0, 0.0, 0.0, 0.0, -1441.4863516672078, 0.0]
['beep', 0.0, 490.39727334943694, 0.0, 0.0, 0.0, 0.0, -1441.7098691117608, 0.0]
['beep', 0.0, 489.9502384603308, 0.0, 0.0, 0.0, 0.0, -1442.3580697009647, 0.0]
['beep', 0.0, 490.5984390495347, 0.0, 0.0, 0.0, 0.0, -1441.7098691117608, 0.0]
['beep', 0.0, 490.44197683834756, 0.0, 0.0, 0.0, 0.0, -1441.5981103894844, 0.0]
['beep', 0.0, 490.79960474963246, 0.0, 0.0, 0.0, 0.0, -1439.608805132962, 0.0]
['beep', 0.0, 491.492508827747, 0.0, 0.0, 0.0, 0.0, -1441.9110348118586, 0.0]
['beep', 0.0, 491.87248848348725, 0.0, 0.0, 0.0, 0.0, -1441.0393167781017, 0.0]
['beep', 0.0, 492.364226861504, 0.0, 0.0, 0.0, 0.0, -1440.5252266556295, 0.0]
['beep', 0.0, 492.654799539423, 0.0, 0.0, 0.0, 0.0, -1441.8216278340374, 0.0]
['beep', 0.0, 491.492508827747, 0.0, 0.0, 0.0, 0.0, -1441.6204621339396, 0.0]
['beep', 0.0, 489.9055349714202, 0.0, 0.0, 0.0, 0.0, -1442.8721598234367, 0.0]
['beep', 0.0, 489.6820175268671, 0.0, 0.0, 0.0, 0.0, -1442.4921801676967, 0.0]
['beep', 0.0, 491.89484022794255, 0.0, 0.0, 0.0, 0.0, -1442.2686627231435, 0.0]
['beep', 0.0, 490.5313838161688, 0.0, 0.0, 0.0, 0.0, -1442.603938889973, 0.0]
['beep', 0.0, 490.75490126072185, 0.0, 0.0, 0.0, 0.0, -1440.8381510780039, 0.0]
['beep', 0.0, 489.41379659340345, 0.0, 0.0, 0.0, 0.0, -1438.804142332571, 0.0]
['beep', 0.0, 488.69854077083363, 0.0, 0.0, 0.0, 0.0, -1438.6476801213837, 0.0]
['beep', 0.0, 489.52555531568, 0.0, 0.0, 0.0, 0.0, -1440.6146336334507, 0.0]
['beep', 0.0, 490.5984390495347, 0.0, 0.0, 0.0, 0.0, -1440.8381510780039, 0.0]
['beep', 0.0, 489.45850008231406, 0.0, 0.0, 0.0, 0.0, -1439.832322577515, 0.0]
['beep', 0.0, 489.3467413600375, 0.0, 0.0, 0.0, 0.0, -1440.1452469998894, 0.0]
['beep', 0.0, 490.75490126072185, 0.0, 0.0, 0.0, 0.0, -1441.7098691117608, 0.0]
['beep', 0.0, 492.654799539423, 0.0, 0.0, 0.0, 0.0, -1440.1899504888, 0.0]
['beep', 0.0, 492.1183576724956, 0.0, 0.0, 0.0, 0.0, -1438.7594388436603, 0.0]
['beep', 0.0, 492.92302047288666, 0.0, 0.0, 0.0, 0.0, -1440.2123022332553, 0.0]
['beep', 0.0, 493.3700553619928, 0.0, 0.0, 0.0, 0.0, -1440.6593371223614, 0.0]
['beep', 0.0, 492.4089303504146, 0.0, 0.0, 0.0, 0.0, -1441.441648178297, 0.0]
['beep', 0.0, 493.25829663971626, 0.0, 0.0, 0.0, 0.0, -1441.4863516672078, 0.0]
['beep', 0.0, 492.6324477949677, 0.0, 0.0, 0.0, 0.0, -1441.9110348118586, 0.0]
['beep', 0.0, 492.9900757062526, 0.0, 0.0, 0.0, 0.0, -1439.8099708330597, 0.0]
['beep', 0.0, 494.040607695652, 0.0, 0.0, 0.0, 0.0, -1439.2064737327664, 0.0]
['beep', 0.0, 493.1241861729844, 0.0, 0.0, 0.0, 0.0, -1441.1510755003783, 0.0]
['beep', 0.0, 493.3924071064481, 0.0, 0.0, 0.0, 0.0, -1442.7827528456155, 0.0]
['beep', 0.0, 492.6995030283336, 0.0, 0.0, 0.0, 0.0, -1444.1909127463, 0.0]
['beep', 0.0, 492.94537221734197, 0.0, 0.0, 0.0, 0.0, -1443.7215261127385, 0.0]
['beep', 0.0, 494.0629594401073, 0.0, 0.0, 0.0, 0.0, -1440.413467933353, 0.0]
['beep', 0.0, 493.9512007178308, 0.0, 0.0, 0.0, 0.0, -1438.7147353547498, 0.0]
['beep', 0.0, 495.26995364069387, 0.0, 0.0, 0.0, 0.0, -1439.675860366328, 0.0]
['beep', 0.0, 494.62175305149, 0.0, 0.0, 0.0, 0.0, -1441.1957789892888, 0.0]
['beep', 0.0, 493.7053315288224, 0.0, 0.0, 0.0, 0.0, -1441.5310551561183, 0.0]
['beep', 0.0, 493.25829663971626, 0.0, 0.0, 0.0, 0.0, -1441.5534069005737, 0.0]
['beep', 0.0, 494.21942165129445, 0.0, 0.0, 0.0, 0.0, -1442.8051045900709, 0.0]
['beep', 0.0, 495.0240844516855, 0.0, 0.0, 0.0, 0.0, -1440.927558055825, 0.0]
['beep', 0.0, 494.86762224049835, 0.0, 0.0, 0.0, 0.0, -1440.2123022332553, 0.0]
['beep', 0.0, 493.92884897337547, 0.0, 0.0, 0.0, 0.0, -1439.3852876884089, 0.0]
['beep', 0.0, 494.93467747386427, 0.0, 0.0, 0.0, 0.0, -1439.027659777124, 0.0]
['beep', 0.0, 494.331180373571, 0.0, 0.0, 0.0, 0.0, -1441.6204621339396, 0.0]
['beep', 0.0, 494.55469781812405, 0.0, 0.0, 0.0, 0.0, -1442.2910144675989, 0.0]
['beep', 0.0, 494.2864768846604, 0.0, 0.0, 0.0, 0.0, -1442.8498080789816, 0.0]
['beep', 0.0, 496.00756120771905, 0.0, 0.0, 0.0, 0.0, -1441.3745929449312, 0.0]
['beep', 0.0, 496.63341005246764, 0.0, 0.0, 0.0, 0.0, -1438.1335899989117, 0.0]
['beep', 0.0, 495.96285771880844, 0.0, 0.0, 0.0, 0.0, -1439.1394184994006, 0.0]
['beep', 0.0, 496.29813388563804, 0.0, 0.0, 0.0, 0.0, -1440.3240609555319, 0.0]
['beep', 0.0, 495.73934027425537, 0.0, 0.0, 0.0, 0.0, -1439.6535086218726, 0.0]
['beep', 0.0, 495.4040641074257, 0.0, 0.0, 0.0, 0.0, -1439.4299911773196, 0.0]
['beep', 0.0, 495.5828780630682, 0.0, 0.0, 0.0, 0.0, -1440.413467933353, 0.0]
['beep', 0.0, 495.784043763166, 0.0, 0.0, 0.0, 0.0, -1440.7487441001826, 0.0]
['beep', 0.0, 496.7451687747442, 0.0, 0.0, 0.0, 0.0, -1438.2677004656437, 0.0]
['beep', 0.0, 497.169851919395, 0.0, 0.0, 0.0, 0.0, -1437.9100725543587, 0.0]
['beep', 0.0, 497.39336936394807, 0.0, 0.0, 0.0, 0.0, -1440.7487441001826, 0.0]
['beep', 0.0, 497.5274798306799, 0.0, 0.0, 0.0, 0.0, -1439.6982121107833, 0.0]
['beep', 0.0, 497.5721833195905, 0.0, 0.0, 0.0, 0.0, -1439.7652673441492, 0.0]
['beep', 0.0, 499.1591571759173, 0.0, 0.0, 0.0, 0.0, -1441.128723755923, 0.0]
['beep', 0.0, 499.31561938710445, 0.0, 0.0, 0.0, 0.0, -1441.3745929449312, 0.0]
['beep', 0.0, 498.30979088661564, 0.0, 0.0, 0.0, 0.0, -1441.5981103894844, 0.0]
['beep', 0.0, 498.1309769309732, 0.0, 0.0, 0.0, 0.0, -1439.7205638552384, 0.0]
['beep', 0.0, 498.1980321643391, 0.0, 0.0, 0.0, 0.0, -1439.4076394328642, 0.0]
['beep', 0.0, 498.4886048422581, 0.0, 0.0, 0.0, 0.0, -1439.6535086218726, 0.0]
['beep', 0.0, 499.2485641537385, 0.0, 0.0, 0.0, 0.0, -1440.8381510780039, 0.0]
['beep', 0.0, 498.7344740312665, 0.0, 0.0, 0.0, 0.0, -1442.6486423788838, 0.0]
['beep', 0.0, 498.1756804198838, 0.0, 0.0, 0.0, 0.0, -1444.7273546132274, 0.0]
['beep', 0.0, 497.72864553077767, 0.0, 0.0, 0.0, 0.0, -1443.0509737790792, 0.0]
['beep', 0.0, 497.5498315751352, 0.0, 0.0, 0.0, 0.0, -1442.7827528456155, 0.0]
['beep', 0.0, 497.97451471978604, 0.0, 0.0, 0.0, 0.0, -1442.8051045900709, 0.0]
['beep', 0.0, 498.8015292646324, 0.0, 0.0, 0.0, 0.0, -1442.0674970230457, 0.0]
['beep', 0.0, 497.4157211084034, 0.0, 0.0, 0.0, 0.0, -1441.7769243451269, 0.0]
['beep', 0.0, 497.2369071527609, 0.0, 0.0, 0.0, 0.0, -1441.8216278340374, 0.0]
['beep', 0.0, 497.460424597314, 0.0, 0.0, 0.0, 0.0, -1440.7263923557273, 0.0]
['beep', 0.0, 496.5663548191017, 0.0, 0.0, 0.0, 0.0, -1441.7098691117608, 0.0]
['beep', 0.0, 495.67228504088945, 0.0, 0.0, 0.0, 0.0, -1443.833284835015, 0.0]
['beep', 0.0, 496.67811354137825, 0.0, 0.0, 0.0, 0.0, -1443.252139479177, 0.0]
['beep', 0.0, 496.8569274970207, 0.0, 0.0, 0.0, 0.0, -1443.4533051792748, 0.0]
['beep', 0.0, 496.1416716744509, 0.0, 0.0, 0.0, 0.0, -1441.7098691117608, 0.0]
['beep', 0.0, 496.4769478412805, 0.0, 0.0, 0.0, 0.0, -1442.0451452785906, 0.0]
['beep', 0.0, 496.27578214118273, 0.0, 0.0, 0.0, 0.0, -1440.3911161888977, 0.0]
['beep', 0.0, 495.71698852980006, 0.0, 0.0, 0.0, 0.0, -1440.1452469998894, 0.0]
['beep', 0.0, 496.5663548191017, 0.0, 0.0, 0.0, 0.0, -1443.1627325013558, 0.0]
['beep', 0.0, 497.4380728528587, 0.0, 0.0, 0.0, 0.0, -1443.4980086681853, 0.0]
['beep', 0.0, 499.4050263649257, 0.0, 0.0, 0.0, 0.0, -1441.642813878395, 0.0]
['beep', 0.0, 498.8238810090877, 0.0, 0.0, 0.0, 0.0, -1440.3240609555319, 0.0]
['beep', 0.0, 499.8744129984872, 0.0, 0.0, 0.0, 0.0, -1438.2677004656437, 0.0]
['beep', 0.0, 500.0308752096743, 0.0, 0.0, 0.0, 0.0, -1437.9324242988139, 0.0]
['beep', 0.0, 499.6955990428447, 0.0, 0.0, 0.0, 0.0, -1438.1335899989117, 0.0]
['beep', 0.0, 498.8909362424536, 0.0, 0.0, 0.0, 0.0, -1437.865369065448, 0.0]
['beep', 0.0, 496.9016309859313, 0.0, 0.0, 0.0, 0.0, -1437.194816731789, 0.0]
['beep', 0.0, 495.47111934079163, 0.0, 0.0, 0.0, 0.0, -1437.9324242988139, 0.0]
['beep', 0.0, 494.3982356069369, 0.0, 0.0, 0.0, 0.0, -1442.156904000867, 0.0]
['beep', 0.0, 493.9959042067414, 0.0, 0.0, 0.0, 0.0, -1438.2006452322776, 0.0]
['beep', 0.0, 494.6441047959453, 0.0, 0.0, 0.0, 0.0, -1437.9100725543587, 0.0]
['beep', 0.0, 493.7053315288224, 0.0, 0.0, 0.0, 0.0, -1437.574796387529, 0.0]
['beep', 0.0, 493.3924071064481, 0.0, 0.0, 0.0, 0.0, -1437.507741154163, 0.0]
['beep', 0.0, 493.4371105953587, 0.0, 0.0, 0.0, 0.0, -1438.3347556990095, 0.0]
['beep', 0.0, 494.88997398495366, 0.0, 0.0, 0.0, 0.0, -1438.7594388436603, 0.0]
['beep', 0.0, 495.784043763166, 0.0, 0.0, 0.0, 0.0, -1441.1063720114676, 0.0]
['beep', 0.0, 496.9239827303866, 0.0, 0.0, 0.0, 0.0, -1439.8099708330597, 0.0]
['beep', 0.0, 497.2592588972162, 0.0, 0.0, 0.0, 0.0, -1439.832322577515, 0.0]
['beep', 0.0, 496.63341005246764, 0.0, 0.0, 0.0, 0.0, -1439.4970464106855, 0.0]
['beep', 0.0, 496.72281703028887, 0.0, 0.0, 0.0, 0.0, -1439.4970464106855, 0.0]
['beep', 0.0, 498.04156995315196, 0.0, 0.0, 0.0, 0.0, -1440.7263923557273, 0.0]
['beep', 0.0, 498.846232753543, 0.0, 0.0, 0.0, 0.0, -1440.7263923557273, 0.0]
['beep', 0.0, 498.33214263107095, 0.0, 0.0, 0.0, 0.0, -1443.2744912236324, 0.0]
['beep', 0.0, 499.5614885761129, 0.0, 0.0, 0.0, 0.0, -1442.38042144542, 0.0]
['beep', 0.0, 499.9638199763084, 0.0, 0.0, 0.0, 0.0, -1440.1005435109787, 0.0]
['beep', 0.0, 499.5167850872022, 0.0, 0.0, 0.0, 0.0, -1440.6816888668168, 0.0]
['beep', 0.0, 499.36032287601506, 0.0, 0.0, 0.0, 0.0, -1440.8828545669144, 0.0]
['beep', 0.0, 499.0921019425514, 0.0, 0.0, 0.0, 0.0, -1439.988784788702, 0.0]
['beep', 0.0, 498.68977054235586, 0.0, 0.0, 0.0, 0.0, -1440.5922818889956, 0.0]
['beep', 0.0, 499.136805431462, 0.0, 0.0, 0.0, 0.0, -1441.5981103894844, 0.0]
['beep', 0.0, 500.3214478875933, 0.0, 0.0, 0.0, 0.0, -1439.966433044247, 0.0]
['beep', 0.0, 500.3437996320486, 0.0, 0.0, 0.0, 0.0, -1439.8770260664257, 0.0]
['beep', 0.0, 499.9638199763084, 0.0, 0.0, 0.0, 0.0, -1440.2123022332553, 0.0]
['beep', 0.0, 500.880241498976, 0.0, 0.0, 0.0, 0.0, -1439.7652673441492, 0.0]
['beep', 0.0, 500.81318626561006, 0.0, 0.0, 0.0, 0.0, -1440.1452469998894, 0.0]
['beep', 0.0, 501.41668336590334, 0.0, 0.0, 0.0, 0.0, -1440.2570057221658, 0.0]
['beep', 0.0, 501.975476977286, 0.0, 0.0, 0.0, 0.0, -1440.3240609555319, 0.0]
['beep', 0.0, 501.17081417689496, 0.0, 0.0, 0.0, 0.0, -1441.6651656228503, 0.0]
['beep', 0.0, 500.09793044304024, 0.0, 0.0, 0.0, 0.0, -1439.0947150104898, 0.0]
['beep', 0.0, 501.08140719907374, 0.0, 0.0, 0.0, 0.0, -1439.6982121107833, 0.0]
['beep', 0.0, 501.79666302164355, 0.0, 0.0, 0.0, 0.0, -1442.089848767501, 0.0]
['beep', 0.0, 501.81901476609886, 0.0, 0.0, 0.0, 0.0, -1440.0558400220682, 0.0]
['beep', 0.0, 501.08140719907374, 0.0, 0.0, 0.0, 0.0, -1439.6982121107833, 0.0]
['beep', 0.0, 501.5284420881799, 0.0, 0.0, 0.0, 0.0, -1438.4241626768307, 0.0]
['beep', 0.0, 500.589668821057, 0.0, 0.0, 0.0, 0.0, -1438.7594388436603, 0.0]
['beep', 0.0, 500.07557869858493, 0.0, 0.0, 0.0, 0.0, -1441.2181307337441, 0.0]
['beep', 0.0, 501.2155176658056, 0.0, 0.0, 0.0, 0.0, -1441.061668522557, 0.0]
['beep', 0.0, 500.43320660986984, 0.0, 0.0, 0.0, 0.0, -1441.1957789892888, 0.0]
['beep', 0.0, 501.0367037101631, 0.0, 0.0, 0.0, 0.0, -1440.4581714222636, 0.0]
['beep', 0.0, 502.9366019888642, 0.0, 0.0, 0.0, 0.0, -1441.6875173673056, 0.0]
['beep', 0.0, 503.16011943341726, 0.0, 0.0, 0.0, 0.0, -1441.7322208562161, 0.0]
['beep', 0.0, 501.9531252328307, 0.0, 0.0, 0.0, 0.0, -1441.8886830674032, 0.0]
['beep', 0.0, 500.5449653321464, 0.0, 0.0, 0.0, 0.0, -1439.608805132962, 0.0]
['beep', 0.0, 501.12611068798435, 0.0, 0.0, 0.0, 0.0, -1440.994613289191, 0.0]
['beep', 0.0, 501.19316592135027, 0.0, 0.0, 0.0, 0.0, -1442.1345522564118, 0.0]
['beep', 0.0, 502.17664267738377, 0.0, 0.0, 0.0, 0.0, -1442.8051045900709, 0.0]
['beep', 0.0, 502.2436979107497, 0.0, 0.0, 0.0, 0.0, -1445.0849825245123, 0.0]
['beep', 0.0, 502.3331048885709, 0.0, 0.0, 0.0, 0.0, -1443.4980086681853, 0.0]
['beep', 0.0, 501.8860699994648, 0.0, 0.0, 0.0, 0.0, -1443.5203604126407, 0.0]
