[[-816.3751144856352, -816.3080592522692, -816.4421697190011, -815.9951348298949, -817.4927017084005, -818.2079575309704, -817.8950331085961, -817.9397365975067, -817.2021290304815, -815.5257481963334, -816.218652274448, -816.9786115859284, -817.090370308205, -816.8445011191966, -817.7162191529536, -816.9115563525626, -817.7385708974089, -817.3585912416687, -817.6491639195876, -817.3585912416687, -817.4256464750346, -817.2021290304815, -818.2750127643362, -817.7832743863195, -817.2691842638475, -817.3585912416687, -817.2468325193921, -817.3138877527581, -815.9504313409843, -816.0845418077162, -817.4032947305793, -817.1574255415709, -817.5821086862218, -817.6491639195876, -817.2021290304815, -817.0456668192944, -817.1574255415709, -816.6433354190989, -817.380942986124, -816.1963005299928, -816.8445011191966, -816.4645214634564, -815.7716173853419, -816.1515970410821, -816.285707507814, -815.8163208742525, -816.6433354190989, -815.8610243631631, -816.3080592522692, -817.4479982194899, -817.1127220526603, -817.4256464750346, -819.7725796428418, -819.9513935984843, -818.0514953197832, -816.0621900632609, -816.0174865743503, -818.2750127643362, -821.1136843101602, -822.0971610661937, -820.0408005763055, -819.3255447537357, -820.219614531948, -821.4266087325345, -821.2924982658027, -820.3984284875904, -820.443131976501, -819.4596552204675, -819.2808412648251, -819.1467307980932, -818.8561581201742, -817.0680185637497, -816.4198179745458, -816.4868732079117, -816.4421697190011, -819.1690825425485, -820.2643180208586, -819.347896498191, -819.2808412648251, -819.8396348762077, -821.5160157103558, -822.6336029331211, -823.9523558559843, -824.8017221452859, -825.4499227344899, -827.9309663690289, -826.992193101906, -825.2934605233027, -823.4606174779675, -825.6957919234982, -827.5956902021993, -828.2662425358585, -829.1603123140708, -827.3274692687356, -827.5062832243781, -827.1486553130932, -825.6510884345876, -827.1933588020038, -827.863911135663, -827.9980216023948, -825.7628471568642, -826.1651785570597, -826.6122134461658, -825.6734401790429, -824.0194110893502, -824.0194110893502, -823.5947279446993, -823.3712105001463, -823.2594517778697, -823.4159139890569, -823.4159139890569, -823.5276727113334, -822.7453616553977, -822.2536232773809, -821.8065883882748, -821.024277332339, -819.7725796428418, -820.3537249986798, -820.2643180208586, -819.5267104538334, -819.5937656871994, -819.9513935984843, -819.5043587093782, -819.5490621982888, -819.9066901095737, -819.6608209205652, -820.8454633766966, -821.4713122214451, -819.4596552204675, -818.8785098646296, -819.5937656871994, -820.1972627874927, -819.4373034760122, -820.286669765314, -820.0631523207609, -820.0855040652161, -820.3313732542246, -819.9960970873949, -821.5383674548111, -821.4489604769899, -821.3372017547133, -821.6501261770876, -822.0301058328279, -821.2254430324368, -820.0855040652161, -820.8454633766966, -820.1078558096715, -819.6161174316546, -820.3760767431352, -820.6890011655095, -821.1807395435262, -820.8454633766966, -822.3877337441128, -822.0748093217385, -821.9406988550066, -821.4266087325345, -821.314850010258, -821.7842366438194, -821.9854023439173, -821.9854023439173, -821.4489604769899, -821.2477947768921, -822.1418645551043, -821.4266087325345, -820.4878354654116, -820.510187209867, -819.9066901095737, -820.3313732542246, -820.9348703545178, -820.5325389543223, -820.1302075541267, -821.6501261770876, -821.7171814104536, -821.9854023439173, -821.5607191992664, -820.9348703545178, -820.5772424432329, -821.4042569880793, -820.7113529099647, -820.6219459321435, -821.1360360546156, -821.2477947768921, -820.5548906987776, -820.7784081433307, -821.8065883882748, -819.8396348762077, -820.443131976501, -820.443131976501, -820.3760767431352, -819.2137860314591, -819.0796755647273, -818.7220476534424, -818.4091232310681, -819.7725796428418, -818.833806375719, -818.9455650979954, -818.7220476534424, -818.990268586906, -818.5655854422553, -817.380942986124, -818.3867714866128, -817.7609226418642, -818.0514953197832, -817.604460430677, -817.9844400864173, -818.3867714866128, -819.347896498191, -818.4314749755234, -819.571413942744, -818.990268586906, -819.4596552204675, -819.2137860314591, -819.3702482426463, -820.3313732542246, -819.4373034760122, -819.9513935984843, -820.3984284875904, -820.4654837209564, -819.6831726650206, -819.3925999871016, -819.0126203313614, -819.9513935984843, -819.9737453429395, -819.6831726650206, -819.5043587093782, -819.5267104538334, -819.1467307980932, -819.6161174316546, -819.5490621982888, -819.3255447537357, -819.5490621982888, -820.1302075541267, -819.2584895203697, -819.4373034760122, -821.1360360546156, -821.3819052436239, -821.0689808212496, -821.9630505994619, -821.1136843101602, -819.9960970873949, -818.8561581201742, -818.3197162532468, -819.8172831317524, -820.7113529099647, -820.219614531948, -820.2643180208586, -819.8843383651183, -820.0184488318503, -820.0855040652161, -820.510187209867, -820.4654837209564, -819.347896498191, -820.3313732542246, -820.6666494210541, -820.1078558096715, -820.5548906987776, -819.3031930092803, -819.7055244094759, -820.5548906987776, -820.6890011655095, -820.2419662764033, -820.1525592985821, -820.7560563988753, -821.2254430324368, -821.82894013273, -821.9630505994619, -822.1195128106491, -822.9018238665848, -822.3430302552022, -821.1360360546156, -820.6666494210541, -820.8454633766966, -821.6948296659982, -820.800759887786, -820.3984284875904, -822.3653819996574, -823.5053209668781, -821.0466290767944, -816.8221493747413, -819.1020273091826, -820.9348703545178, -818.8785098646296, -818.0067918308725, -817.4479982194899, -816.1068935521715, -816.285707507814, -817.5150534528558, -819.6608209205652, -820.4654837209564, -819.8172831317524, -820.6442976765989, -821.4713122214451, -821.0019255878838, -821.1360360546156, -819.0126203313614, -820.800759887786, -819.9290418540289, -820.0855040652161, -821.4042569880793, -821.3595534991687, -821.0689808212496, -820.9572220989731, -820.9572220989731, -821.024277332339, -820.800759887786, -820.2643180208586, -820.2419662764033, -820.7784081433307, -820.7113529099647, -819.8843383651183, -820.1078558096715, -819.4596552204675, -819.7278761539312, -819.9960970873949, -820.6219459321435, -820.219614531948, -819.6161174316546, -820.7784081433307, -821.0019255878838, -820.3090215097692, -819.9737453429395, -820.8901668656072, -819.9290418540289, -820.0631523207609, -821.2924982658027, -818.9008616090848, -818.833806375719, -819.5267104538334, -819.9066901095737, -819.7278761539312, -820.5772424432329, -821.1807395435262, -821.6948296659982, -821.9630505994619, -822.3653819996574, -821.5160157103558, -821.091332565705, -820.8901668656072, -820.5772424432329, -820.0631523207609, -820.6219459321435, -821.4489604769899, -820.9572220989731, -821.024277332339, -820.800759887786, -819.6831726650206, -820.5325389543223, -820.443131976501, -819.9066901095737, -819.7949313872971, -821.7171814104536, -820.9572220989731, -821.091332565705, -820.9125186100625, -821.6948296659982, -822.0301058328279, -820.7784081433307, -822.5441959552999, -822.9465273554954, -822.0971610661937, -823.5947279446993, -823.1700448000485, -822.3877337441128, -822.6559546775765, -822.2983267662916, -821.3372017547133, -822.8571203776742, -822.1195128106491, -821.8065883882748, -822.4324372330234, -821.314850010258, -821.9854023439173, -822.2536232773809, -821.6501261770876, -822.7453616553977, -822.186568044015, -822.410085488568, -822.9241756110401, -823.1476930555932, -822.8571203776742, -822.7900651443083, -822.7006581664871, -822.0748093217385, -822.0971610661937, -821.895995366096, -820.6442976765989, -820.8454633766966, -820.1302075541267, -821.8512918771854, -820.8231116322413, -820.7113529099647, -821.1136843101602, -821.5160157103558, -820.3760767431352, -820.6442976765989, -822.0748093217385, -821.672477921543, -821.3372017547133, -821.9630505994619, -822.5441959552999, -821.1807395435262, -822.477140721934, -821.7842366438194, -821.1360360546156, -822.0748093217385, -822.4324372330234, -821.9183471105513, -822.2536232773809, -823.2371000334144, -822.6336029331211, -821.2254430324368, -821.6948296659982, -821.1807395435262, -822.0301058328279, -819.9960970873949, -821.024277332339, -822.3653819996574, -821.5607191992664, -821.9183471105513, -821.091332565705, -821.3372017547133, -821.7618848993642, -820.7113529099647, -822.3653819996574, -821.4489604769899, -822.1195128106491, -821.2701465213474, -820.6666494210541, -821.5830709437217, -821.5383674548111, -821.895995366096, -821.8065883882748, -819.7949313872971, -822.1418645551043, -824.4217424895457, -822.7677133998529, -821.8065883882748, -822.1418645551043, -822.5441959552999, -821.7842366438194, -822.8571203776742, -821.9854023439173, -822.186568044015, -824.0194110893502, -823.3935622446015, -822.6336029331211, -824.1311698116267, -823.4606174779675, -822.9018238665848, -822.7453616553977, -822.6112511886658, -822.5888994442105, -823.2594517778697, -823.058286077772, -822.5665476997552, -821.5160157103558, -822.5888994442105, -822.6336029331211, -821.1807395435262, -822.2536232773809, -821.7171814104536, -821.8512918771854, -821.9183471105513, -821.5160157103558, -821.7842366438194, -822.0077540883725, -822.0301058328279, -823.3265070112357, -823.5500244557887, -823.0135825888614, -823.3041552667803, -823.281803522325, -821.7171814104536, -822.2536232773809, -821.895995366096, -821.7395331549088, -821.7842366438194, -822.9688790999508, -822.6559546775765, -820.7337046544201, -821.2254430324368, -821.7618848993642, -820.7113529099647, -820.3984284875904, -820.6890011655095, -821.091332565705, -820.6890011655095, -820.6666494210541, -820.286669765314, -820.9572220989731, -822.2536232773809, -821.9406988550066, -822.1195128106491, -821.5383674548111, -820.3313732542246, -821.2254430324368, -821.1583877990709, -821.3819052436239, -820.1749110430374, -820.1302075541267, -819.2361377759145, -817.5374051973112, -817.0456668192944, -817.2244807749369, -815.9951348298949, -817.8950331085961, -819.8843383651183, -820.0184488318503, -821.1807395435262, -822.3430302552022, -822.3653819996574, -821.0019255878838, -821.024277332339, -821.6277744326323, -822.1418645551043, -822.6336029331211, -822.4547889774786, -822.0748093217385, -822.8124168887636, -822.7900651443083, -821.895995366096, -821.4713122214451, -821.4936639659005, -821.2924982658027, -822.9018238665848, -822.991230844406, -822.2983267662916, -821.9630505994619, -821.4936639659005, -821.2924982658027, -821.8736436216407, -821.0689808212496, -820.9572220989731, -821.2254430324368, -821.9630505994619, -822.1642162995597, -822.0971610661937, -821.5607191992664, -822.0748093217385, -821.6277744326323, -821.4713122214451, -820.4654837209564, -821.4042569880793, -821.4489604769899, -820.7113529099647, -820.8454633766966, -820.9572220989731, -821.0466290767944, -821.1583877990709, -820.5995941876882, -819.9513935984843, -821.1583877990709, -820.1078558096715, -820.1078558096715, -820.510187209867, -820.3090215097692, -819.4596552204675, -819.6831726650206, -821.3595534991687, -819.7725796428418, -819.0349720758167, -819.2137860314591, -819.1243790536379, -819.0126203313614, -819.7725796428418, -819.4820069649228, -818.7220476534424, -819.9066901095737, -819.5490621982888, -820.5772424432329, -820.5548906987776, -819.7278761539312, -820.5772424432329, -820.5325389543223, -819.8396348762077, -820.1749110430374, -821.1807395435262, -820.7337046544201, -819.8396348762077, -821.091332565705, -821.5830709437217, -821.3595534991687, -821.7395331549088, -821.4489604769899, -822.1195128106491, -822.2312715329256, -822.8347686332189, -822.5665476997552, -822.3430302552022, -823.3488587556909, -823.4606174779675, -823.1476930555932, -822.9688790999508, -822.8347686332189, -823.1476930555932, -822.0077540883725, -823.3041552667803, -822.7006581664871, -821.672477921543, -821.3595534991687, -822.8124168887636, -822.6783064220317, -821.1583877990709, -820.3313732542246, -820.6890011655095, -820.7113529099647, -820.8454633766966, -822.0301058328279, -823.2594517778697, -822.7006581664871, -822.9241756110401, -823.2147482889591, -823.4382657335121, -823.0359343333166, -822.9465273554954, -823.5947279446993, -823.4829692224228, -822.991230844406, -824.0194110893502, -822.4324372330234, -823.2371000334144, -822.1195128106491, -821.024277332339, -821.1583877990709, -821.7842366438194, -822.5665476997552, -822.3206785107468, -822.1642162995597, -822.5888994442105, -821.9630505994619, -821.7395331549088, -822.2759750218362, -823.5276727113334, -822.7900651443083, -822.6336029331211, -821.4936639659005, -820.800759887786, -821.3372017547133, -821.2477947768921, -821.895995366096, -822.6336029331211, -821.7618848993642, -821.605422688177, -821.0689808212496, -820.7337046544201, -820.6219459321435, -821.9854023439173, -822.6559546775765, -823.3488587556909, -822.186568044015, -821.9183471105513, -821.672477921543, -821.5607191992664, -821.3372017547133, -821.0689808212496, -821.7395331549088, -822.477140721934, -824.0417628338055, -824.2429285339033, -821.605422688177, -819.8396348762077, -819.6831726650206, -820.800759887786, -821.2924982658027, -821.091332565705, -822.5665476997552, -822.0077540883725, -821.6277744326323, -821.5830709437217, -820.286669765314, -821.5160157103558, -821.5383674548111, -821.7842366438194, -821.5160157103558, -819.8396348762077, -818.6996959089871, -819.5043587093782, -820.3984284875904, -820.6219459321435, -819.9960970873949, -820.1972627874927, -820.0408005763055, -820.0631523207609, -819.3031930092803, -820.4654837209564, -819.6161174316546, -819.571413942744, -819.347896498191, -819.9066901095737, -820.7784081433307, -820.800759887786, -821.4489604769899, -820.443131976501, -819.6608209205652, -819.5490621982888, -820.0631523207609, -820.3313732542246, -820.0631523207609, -820.3984284875904, -820.3313732542246, -819.3031930092803, -819.3925999871016, -819.9513935984843, -820.6219459321435, -820.3090215097692, -820.7337046544201, -819.5043587093782, -821.3372017547133, -821.5160157103558, -820.9572220989731, -820.8454633766966, -821.895995366096, -822.2983267662916, -820.3760767431352, -820.510187209867, -819.1467307980932, -816.8892046081072, -816.8445011191966, -816.6433354190989, -817.8726813641407, -819.5490621982888, -819.4373034760122, -820.4207802320458, -820.6890011655095, -821.4042569880793, -822.2536232773809, -821.82894013273, -821.1136843101602, -821.4936639659005, -820.219614531948, -820.6890011655095, -820.443131976501, -820.0631523207609, -820.9125186100625, -820.443131976501, -820.6219459321435, -821.9183471105513, -821.8065883882748, -820.800759887786, -821.1360360546156, -821.0689808212496, -821.672477921543, -821.2924982658027, -820.286669765314, -820.6219459321435, -821.091332565705, -821.314850010258, -820.8901668656072, -821.024277332339, -820.7113529099647], [-1102.432740024655, -1102.2539260690126, -1101.9186499021828, -1102.0527603689147, -1102.4774435135655, -1103.751492947518, -1103.0585888694036, -1101.9186499021828, -1101.9186499021828, -1102.8574231693058, -1103.3491615473226, -1103.595030736331, -1103.7067894586075, -1102.4774435135655, -1102.7680161914845, -1102.656257469208, -1102.0527603689147, -1102.656257469208, -1101.9186499021828, -1102.0527603689147, -1101.3151528018896, -1101.337504546345, -1100.97987663506, -1101.5386702464427, -1103.9079551587051, -1102.5444987469314, -1102.1645190911913, -1103.1479958472248, -1102.5668504913867, -1102.8127196803953, -1104.109120858803, -1103.0362371249482, -1103.818548180884, -1103.460920269599, -1103.595030736331, -1103.6620859696968, -1102.1645190911913, -1102.2092225801018, -1102.2315743245572, -1101.5610219908979, -1101.3822080352554, -1100.7563591905068, -1100.1975655791243, -1100.3093243014007, -1098.6105917227974, -1097.1577283332024, -1095.9283823881606, -1093.6485044537192, -1089.8487078963171, -1087.948809617616, -1084.2160682935796, -1078.7398909020294, -1076.4376612231329, -1071.6767396541525, -1066.2452657515128, -1061.596102904809, -1057.7516028584962, -1054.1306202567364, -1052.0295562779374, -1050.040251021415, -1048.6320911207308, -1048.9003120541945, -1050.5543411438873, -1052.0295562779374, -1050.5096376549766, -1051.8954458112057, -1052.7001086115968, -1051.0684312663593, -1050.2190649770575, -1051.0237277774488, -1048.5426841429096, -1046.4416201641106, -1047.5815591313315, -1046.6651376086638, -1044.1840939741248, -1046.1957509751023, -1045.8828265527281, -1043.692355596108, -1038.9761375160383, -1036.338631670312, -1036.6068526037757, -1028.113189710759, -1017.9207942391389, -1012.0646371918485, -1007.1249016672257, -1000.6652475196419, -993.9820759275051, -987.1647938686364, -988.0588636468487, -987.1647938686364, -985.6448752456755, -988.9976369139716, -992.886840449195, -997.468948062533, -1003.6603812766531, -1008.9800964570161, -1012.8022447588736, -1019.7759890289294, -1025.5203873539433, -1031.9353380126165, -1038.3949921602002, -1043.7370590850187, -1048.5873876318203, -1054.8682278237616, -1057.818658091862, -1061.9313790716385, -1066.111155284781, -1067.6757773966524, -1070.6709111536636, -1074.8059838778954, -1077.555248445898, -1079.8351263803395, -1080.6174374362752, -1083.8584403822947, -1085.2666002829792, -1085.7359869165405, -1086.9429811171271, -1087.814699150884, -1089.2228590515685, -1089.111100329292, -1090.6980741856187, -1092.396806764222, -1092.3521032753115, -1092.4191585086774, -1092.6650276976857, -1094.8778503987612, -1096.0177893659818, -1095.816623665884, -1096.2636585549901, -1096.3754172772667, -1096.1966033216243, -1096.6659899551858, -1096.6883416996411, -1098.4764812560657, -1099.5046615010097, -1099.9740481345711, -1099.527013245465, -1100.0187516234819, -1100.689303957141, -1100.465786512588, -1100.6446004682305, -1100.622248723775, -1100.5328417459539, -1100.5104900014985, -1101.1810423351578, -1100.689303957141, -1100.4434347681326, -1101.4716150130766, -1101.9186499021828, -1101.6057254798086, -1101.851594668817, -1100.4210830236773, -1099.8399376678394, -1100.5775452348644, -1102.0304086244594, -1101.628077224264, -1101.4269115241661, -1102.0304086244594, -1101.9186499021828, -1101.650428968719, -1102.3209813023784, -1101.9186499021828, -1100.4881382570431, -1099.683475456652, -1101.628077224264, -1101.628077224264, -1101.4269115241661, -1100.689303957141, -1100.8904696572388, -1102.2539260690126, -1102.9691818915824, -1103.8632516697946, -1105.1820045926577, -1105.3831702927555, -1103.9303069031605, -1105.0925976148364, -1105.6737429706745, -1105.6737429706745, -1106.1654813486912, -1105.5172807594872, -1105.8302051818616, -1106.5007575155207, -1106.232536582057, -1106.9030889157164, -1105.8749086707721, -1104.5785074923645, -1103.6397342252415, -1104.109120858803, -1103.6397342252415, -1104.3773417922666, -1104.5785074923645, -1105.0925976148364, -1104.8690801702835, -1103.9079551587051, -1105.2267080815684, -1105.3608185483001, -1103.5726789918756, -1103.8632516697946, -1104.4220452811774, -1103.9303069031605, -1104.4667487700879, -1103.9973621365264, -1103.7738446919734, -1103.751492947518, -1103.8632516697946, -1104.4443970256325, -1104.0867691143476, -1103.6173824807863, -1103.6397342252415, -1103.0362371249482, -1102.9021266582165, -1102.9915336360377, -1102.9691818915824, -1103.304458058412, -1104.6679144701857, -1105.1820045926577, -1106.2772400709678, -1105.7631499484958, -1104.2879348144454, -1104.5785074923645, -1104.9584871481047, -1103.8632516697946, -1105.3384668038448, -1105.9419639041382, -1105.4055220372109, -1105.1149493592918, -1105.3161150593896, -1104.8243766813728, -1104.1538243477137, -1105.204356337113, -1103.9973621365264, -1103.595030736331, -1105.1596528482023, -1105.4502255261214, -1103.751492947518, -1104.7349697035515, -1104.8020249369174, -1104.8914319147386, -1104.109120858803, -1102.9244784026716, -1104.8020249369174, -1104.757321448007, -1105.561984248398, -1106.1431296042358, -1105.047894125926, -1105.3384668038448, -1104.9584871481047, -1105.427873781666, -1105.6737429706745, -1105.3161150593896, -1105.0255423814706, -1105.047894125926, -1104.913783659194, -1104.0197138809817, -1104.5338040034537, -1106.0537226264146, -1105.785501692951, -1104.1538243477137, -1105.6066877373084, -1105.070245870381, -1103.7738446919734, -1105.8078534374063, -1104.4220452811774, -1104.042065625437, -1104.913783659194, -1104.8020249369174, -1105.3161150593896, -1105.785501692951, -1105.9866673930487, -1104.3102865589008, -1103.2150510805907, -1102.8797749137611, -1104.0197138809817, -1103.7067894586075, -1103.7067894586075, -1104.4891005145432, -1104.26558306999, -1104.109120858803, -1103.7738446919734, -1102.1868708356465, -1103.304458058412, -1103.6397342252415, -1102.946830147127, -1102.79036793594, -1103.0362371249482, -1103.4162167806885, -1102.9915336360377, -1103.8632516697946, -1103.0362371249482, -1102.8797749137611, -1103.7291412030627, -1103.5503272474202, -1103.5726789918756, -1104.243231325535, -1104.6008592368198, -1104.1761760921688, -1104.2208795810795, -1102.7680161914845, -1103.6620859696968, -1105.6513912262192, -1103.4162167806885, -1103.7067894586075, -1104.6679144701857, -1103.7738446919734, -1104.4443970256325, -1104.6008592368198, -1104.8914319147386, -1105.047894125926, -1103.8408999253393, -1104.9808388925599, -1104.2208795810795, -1103.3491615473226, -1103.527975502965, -1105.4055220372109, -1105.3384668038448, -1104.6679144701857, -1106.6125162377973, -1105.7407982040404, -1103.6397342252415, -1105.785501692951, -1105.0031906370152, -1103.527975502965, -1106.210184837602, -1107.2607168270013, -1105.6513912262192, -1106.5007575155207, -1106.232536582057, -1105.7631499484958, -1105.8749086707721, -1106.4560540266102, -1106.210184837602, -1106.0313708819594, -1106.2772400709678, -1106.0537226264146, -1105.271411570479, -1106.1207778597807, -1105.9196121596829, -1105.047894125926, -1105.427873781666, -1106.7913301934398, -1104.6008592368198, -1104.9361354036494, -1104.5338040034537, -1104.8243766813728, -1105.6737429706745, -1105.6737429706745, -1104.1538243477137, -1103.7067894586075, -1103.88560341425, -1104.0867691143476, -1104.4667487700879, -1103.7291412030627, -1105.6513912262192, -1105.494929015032, -1106.4560540266102, -1105.5172807594872, -1104.4220452811774, -1103.7067894586075, -1105.2267080815684, -1105.9419639041382, -1106.07607437087, -1106.3442953043336, -1105.8078534374063, -1104.1761760921688, -1104.8020249369174, -1104.7796731924623, -1104.109120858803, -1103.4385685251439, -1103.9526586476159, -1102.7680161914845, -1103.2150510805907, -1104.042065625437, -1104.2879348144454, -1104.3326383033561, -1104.399693536722, -1103.88560341425, -1102.7680161914845, -1102.142167346736, -1104.3102865589008, -1105.3161150593896, -1105.204356337113, -1105.1596528482023, -1105.9643156485934, -1105.3161150593896, -1104.9808388925599, -1104.1538243477137, -1104.5114522589986, -1105.0925976148364, -1104.7126179590962, -1104.8914319147386, -1105.2937633149343, -1105.271411570479, -1103.751492947518, -1104.3773417922666, -1104.1314726032583, -1103.6397342252415, -1103.4832720140544, -1103.080940613859, -1103.0362371249482, -1103.6173824807863, -1105.494929015032, -1105.561984248398, -1104.9361354036494, -1105.6960947151297, -1106.0984261153253, -1106.880737171261, -1105.785501692951, -1105.7631499484958, -1105.9419639041382, -1104.8690801702835, -1105.3161150593896, -1104.7349697035515, -1104.3102865589008, -1104.9584871481047, -1104.4891005145432, -1103.9303069031605, -1102.8127196803953, -1103.6620859696968, -1105.271411570479, -1105.427873781666, -1105.0255423814706, -1103.9303069031605, -1105.7631499484958, -1106.0984261153253, -1104.3102865589008, -1104.757321448007, -1105.047894125926, -1104.6679144701857, -1105.1373011037472, -1105.6960947151297, -1105.6513912262192, -1104.4891005145432, -1105.8749086707721, -1105.785501692951, -1104.6008592368198, -1105.852556926317, -1104.7349697035515, -1104.913783659194, -1104.8243766813728, -1105.561984248398, -1105.1820045926577, -1103.9303069031605, -1104.3549900478113, -1105.6513912262192, -1104.6455627257303, -1103.6397342252415, -1104.4891005145432, -1104.6455627257303, -1104.0867691143476, -1103.8408999253393, -1104.8243766813728, -1105.3831702927555, -1105.5843359928533, -1105.4502255261214, -1104.556155747909, -1104.7796731924623, -1105.3831702927555, -1104.4220452811774, -1104.9584871481047, -1105.9866673930487, -1106.2995918154231, -1105.1373011037472, -1104.0867691143476, -1104.3549900478113, -1103.3715132917778, -1102.5444987469314, -1102.723312702574, -1104.3549900478113, -1103.818548180884, -1101.9186499021828, -1103.6397342252415, -1103.3268098028673, -1103.0362371249482, -1102.5444987469314, -1102.142167346736, -1102.4550917691101, -1103.6397342252415, -1103.5726789918756, -1102.7456644470292, -1102.7009609581187, -1103.304458058412, -1103.6844377141522, -1103.5503272474202, -1101.628077224264, -1102.8574231693058, -1103.4832720140544, -1102.8350714248504, -1102.2092225801018, -1102.432740024655, -1102.0974638578252, -1102.9915336360377, -1102.0304086244594, -1102.07511211337, -1102.0527603689147, -1100.8010626794176, -1102.0974638578252, -1103.0138853804929, -1103.080940613859, -1105.204356337113, -1104.6679144701857, -1102.1645190911913, -1102.365684791289, -1102.6115539802975, -1101.8962981577276, -1101.7398359465403, -1101.2257458240683, -1101.0245801239705, -1101.8739464132723, -1101.7398359465403, -1101.851594668817, -1102.7456644470292, -1103.527975502965, -1103.1479958472248, -1102.6339057247528, -1103.7961964364288, -1105.047894125926, -1103.0362371249482, -1102.07511211337, -1102.008056880004, -1102.946830147127, -1103.1479958472248, -1104.6679144701857, -1102.9915336360377, -1102.7009609581187, -1101.7398359465403, -1101.650428968719, -1102.2092225801018, -1102.5221470024762, -1102.2539260690126, -1103.3491615473226, -1104.4220452811774, -1102.9915336360377, -1102.4774435135655, -1103.9750103920712, -1103.0585888694036, -1103.8632516697946, -1104.1985278366242, -1102.589202235842, -1102.07511211337, -1102.4774435135655, -1101.9633533910935, -1100.5775452348644, -1102.8574231693058, -1103.8632516697946, -1103.2150510805907, -1103.103292358314, -1103.1479958472248, -1103.3268098028673, -1103.5503272474202, -1102.8574231693058, -1102.8797749137611, -1103.1256441027695, -1104.2208795810795, -1102.3433330468338, -1101.628077224264, -1101.8068911799064, -1103.3491615473226, -1103.237402825046, -1101.9857051355489, -1102.6339057247528, -1102.1868708356465, -1102.0304086244594, -1101.1139871017917, -1101.0916353573366, -1101.4716150130766, -1101.7621876909957, -1101.7621876909957, -1101.337504546345, -1103.6397342252415, -1102.656257469208, -1102.589202235842, -1103.1926993361353, -1102.7680161914845, -1102.2539260690126, -1102.9915336360377, -1102.2539260690126, -1101.851594668817, -1101.5163185019874, -1101.3151528018896, -1101.3822080352554, -1102.2315743245572, -1100.5104900014985, -1101.4492632686215, -1102.8574231693058, -1101.1139871017917, -1100.823414423873, -1100.6446004682305, -1100.7116557015963, -1101.0692836128812, -1100.7340074460517, -1100.3540277903114, -1101.2480975685237, -1101.0916353573366, -1102.2315743245572, -1102.6339057247528, -1101.2480975685237, -1100.7563591905068, -1101.5833737353532, -1102.5221470024762, -1102.2315743245572, -1102.7456644470292, -1101.628077224264, -1101.5163185019874, -1101.5833737353532, -1101.3151528018896, -1102.1868708356465, -1101.628077224264, -1101.0245801239705, -1100.97987663506, -1101.1810423351578, -1100.5551934904092, -1100.5998969793197, -1100.4881382570431, -1100.97987663506, -1102.07511211337, -1102.2092225801018, -1101.3598562908003, -1101.136338846247, -1100.845766168328, -1101.0916353573366, -1102.6786092136633, -1101.9857051355489, -1101.5833737353532, -1102.7456644470292, -1102.589202235842, -1101.3151528018896, -1099.7505306900182, -1099.8622894122946, -1101.0916353573366, -1101.3598562908003, -1101.3598562908003, -1100.3540277903114, -1101.1586905907025, -1101.0469318684259, -1100.7340074460517, -1101.6951324576298, -1100.0634551123924, -1100.9575248906046, -1101.1810423351578, -1101.3598562908003, -1102.0974638578252, -1101.4716150130766, -1102.2539260690126, -1102.5221470024762, -1102.5221470024762, -1102.589202235842, -1101.3598562908003, -1101.4045597797108, -1101.5833737353532, -1100.6446004682305, -1099.6387719677416, -1100.622248723775, -1101.337504546345, -1100.7563591905068, -1100.9128214016941, -1100.8010626794176, -1100.4881382570431, -1100.0187516234819, -1101.3822080352554, -1101.784539435451, -1100.5775452348644, -1100.7340074460517, -1101.4045597797108, -1100.4210830236773, -1101.9186499021828, -1102.2539260690126, -1102.9915336360377, -1102.3433330468338, -1100.7787109349622, -1100.5328417459539, -1100.7563591905068, -1101.4045597797108, -1101.8739464132723, -1101.4269115241661, -1101.8739464132723, -1102.008056880004, -1100.97987663506, -1101.0916353573366, -1101.4045597797108, -1101.6727807131745, -1100.6669522126856, -1101.0692836128812, -1101.1586905907025, -1100.7787109349622, -1101.1810423351578, -1100.97987663506, -1100.9128214016941, -1100.97987663506, -1100.7563591905068, -1101.0022283795154, -1102.7009609581187, -1102.5221470024762, -1101.8962981577276, -1101.9410016466381, -1102.365684791289, -1101.1586905907025, -1101.337504546345, -1102.298629557923, -1102.6115539802975, -1102.9244784026716, -1102.2539260690126, -1102.365684791289, -1100.8681179127834, -1102.0527603689147, -1103.2150510805907, -1102.8574231693058, -1103.7291412030627, -1102.4103882801996, -1102.0527603689147, -1103.3491615473226, -1101.784539435451, -1102.6339057247528, -1103.2597545695014, -1102.9915336360377, -1102.9691818915824, -1101.4045597797108, -1100.1305103457582, -1100.5775452348644, -1100.97987663506, -1101.1810423351578, -1101.3151528018896, -1102.5668504913867, -1101.650428968719, -1101.4045597797108, -1100.97987663506, -1100.2646208124902, -1100.7563591905068, -1099.9516963901158, -1101.9633533910935, -1103.88560341425, -1103.3268098028673, -1103.5503272474202, -1103.527975502965, -1103.8408999253393, -1103.0585888694036, -1102.07511211337, -1103.304458058412, -1103.6620859696968, -1104.0197138809817, -1103.8632516697946, -1103.3938650362331, -1104.6008592368198, -1105.3161150593896, -1105.3384668038448, -1105.0031906370152, -1102.4774435135655, -1102.4550917691101, -1103.5726789918756, -1103.7738446919734, -1103.3715132917778]]
[[-819.6608209205652, -820.8454633766966, -821.4713122214451, -819.4596552204675, -818.8785098646296, -819.5937656871994, -820.1972627874927, -819.4373034760122, -820.286669765314, -820.0631523207609, -820.0855040652161, -820.3313732542246, -819.9960970873949, -821.5383674548111, -821.4489604769899, -821.3372017547133, -821.6501261770876, -822.0301058328279, -821.2254430324368, -820.0855040652161, -820.8454633766966, -820.1078558096715, -819.6161174316546, -820.3760767431352, -820.6890011655095, -821.1807395435262, -820.8454633766966, -822.3877337441128, -822.0748093217385, -821.9406988550066, -821.4266087325345, -821.314850010258, -821.7842366438194, -821.9854023439173, -821.9854023439173, -821.4489604769899, -821.2477947768921, -822.1418645551043, -821.4266087325345, -820.4878354654116, -820.510187209867, -819.9066901095737, -820.3313732542246, -820.9348703545178, -820.5325389543223, -820.1302075541267, -821.6501261770876, -821.7171814104536, -821.9854023439173, -821.5607191992664, -820.9348703545178, -820.5772424432329, -821.4042569880793, -820.7113529099647, -820.6219459321435, -821.1360360546156, -821.2477947768921, -820.5548906987776, -820.7784081433307, -821.8065883882748, -819.8396348762077, -820.443131976501, -820.443131976501, -820.3760767431352, -819.2137860314591, -819.0796755647273, -818.7220476534424, -818.4091232310681, -819.7725796428418, -818.833806375719, -818.9455650979954, -818.7220476534424, -818.990268586906, -818.5655854422553, -817.380942986124, -818.3867714866128, -817.7609226418642, -818.0514953197832, -817.604460430677, -817.9844400864173, -818.3867714866128, -819.347896498191, -818.4314749755234, -819.571413942744, -818.990268586906, -819.4596552204675, -819.2137860314591, -819.3702482426463, -820.3313732542246, -819.4373034760122, -819.9513935984843, -820.3984284875904, -820.4654837209564, -819.6831726650206, -819.3925999871016, -819.0126203313614, -819.9513935984843, -819.9737453429395, -819.6831726650206, -819.5043587093782, -819.5267104538334, -819.1467307980932, -819.6161174316546, -819.5490621982888, -819.3255447537357, -819.5490621982888, -820.1302075541267, -819.2584895203697, -819.4373034760122, -821.1360360546156, -821.3819052436239, -821.0689808212496, -821.9630505994619, -821.1136843101602, -819.9960970873949, -818.8561581201742, -818.3197162532468, -819.8172831317524, -820.7113529099647, -820.219614531948, -820.2643180208586, -819.8843383651183, -820.0184488318503, -820.0855040652161, -820.510187209867, -820.4654837209564, -819.347896498191, -820.3313732542246, -820.6666494210541, -820.1078558096715, -820.5548906987776, -819.3031930092803, -819.7055244094759, -820.5548906987776, -820.6890011655095, -820.2419662764033, -820.1525592985821, -820.7560563988753, -821.2254430324368, -821.82894013273, -821.9630505994619, -822.1195128106491, -822.9018238665848, -822.3430302552022, -821.1360360546156, -820.6666494210541, -820.8454633766966, -821.6948296659982, -820.800759887786, -820.3984284875904, -822.3653819996574, -823.5053209668781, -821.0466290767944, -816.8221493747413, -819.1020273091826, -820.9348703545178, -818.8785098646296, -818.0067918308725, -817.4479982194899, -816.1068935521715, -816.285707507814, -817.5150534528558, -819.6608209205652, -820.4654837209564, -819.8172831317524, -820.6442976765989, -821.4713122214451, -821.0019255878838, -821.1360360546156, -819.0126203313614, -820.800759887786, -819.9290418540289, -820.0855040652161, -821.4042569880793, -821.3595534991687, -821.0689808212496, -820.9572220989731, -820.9572220989731, -821.024277332339, -820.800759887786, -820.2643180208586, -820.2419662764033, -820.7784081433307, -820.7113529099647, -819.8843383651183, -820.1078558096715, -819.4596552204675, -819.7278761539312, -819.9960970873949, -820.6219459321435, -820.219614531948, -819.6161174316546, -820.7784081433307, -821.0019255878838, -820.3090215097692, -819.9737453429395, -820.8901668656072, -819.9290418540289, -820.0631523207609, -821.2924982658027, -818.9008616090848, -818.833806375719, -819.5267104538334, -819.9066901095737, -819.7278761539312, -820.5772424432329, -821.1807395435262, -821.6948296659982, -821.9630505994619, -822.3653819996574, -821.5160157103558, -821.091332565705, -820.8901668656072, -820.5772424432329, -820.0631523207609, -820.6219459321435, -821.4489604769899, -820.9572220989731, -821.024277332339, -820.800759887786, -819.6831726650206, -820.5325389543223, -820.443131976501, -819.9066901095737, -819.7949313872971, -821.7171814104536, -820.9572220989731, -821.091332565705, -820.9125186100625, -821.6948296659982, -822.0301058328279, -820.7784081433307, -822.5441959552999, -822.9465273554954, -822.0971610661937, -823.5947279446993, -823.1700448000485, -822.3877337441128, -822.6559546775765, -822.2983267662916, -821.3372017547133, -822.8571203776742, -822.1195128106491, -821.8065883882748, -822.4324372330234, -821.314850010258, -821.9854023439173, -822.2536232773809, -821.6501261770876, -822.7453616553977, -822.186568044015, -822.410085488568, -822.9241756110401, -823.1476930555932, -822.8571203776742, -822.7900651443083, -822.7006581664871, -822.0748093217385, -822.0971610661937, -821.895995366096, -820.6442976765989, -820.8454633766966, -820.1302075541267, -821.8512918771854, -820.8231116322413, -820.7113529099647, -821.1136843101602, -821.5160157103558, -820.3760767431352, -820.6442976765989, -822.0748093217385, -821.672477921543, -821.3372017547133, -821.9630505994619, -822.5441959552999, -821.1807395435262, -822.477140721934, -821.7842366438194, -821.1360360546156, -822.0748093217385, -822.4324372330234, -821.9183471105513, -822.2536232773809, -823.2371000334144, -822.6336029331211, -821.2254430324368, -821.6948296659982, -821.1807395435262, -822.0301058328279, -819.9960970873949, -821.024277332339, -822.3653819996574, -821.5607191992664, -821.9183471105513, -821.091332565705, -821.3372017547133, -821.7618848993642, -820.7113529099647, -822.3653819996574, -821.4489604769899, -822.1195128106491, -821.2701465213474, -820.6666494210541, -821.5830709437217, -821.5383674548111, -821.895995366096, -821.8065883882748, -819.7949313872971, -822.1418645551043, -824.4217424895457, -822.7677133998529, -821.8065883882748, -822.1418645551043, -822.5441959552999, -821.7842366438194, -822.8571203776742, -821.9854023439173, -822.186568044015, -824.0194110893502, -823.3935622446015, -822.6336029331211, -824.1311698116267, -823.4606174779675, -822.9018238665848, -822.7453616553977, -822.6112511886658, -822.5888994442105, -823.2594517778697, -823.058286077772, -822.5665476997552, -821.5160157103558, -822.5888994442105, -822.6336029331211, -821.1807395435262, -822.2536232773809, -821.7171814104536, -821.8512918771854, -821.9183471105513, -821.5160157103558, -821.7842366438194, -822.0077540883725, -822.0301058328279, -823.3265070112357, -823.5500244557887, -823.0135825888614, -823.3041552667803, -823.281803522325, -821.7171814104536, -822.2536232773809, -821.895995366096, -821.7395331549088, -821.7842366438194, -822.9688790999508, -822.6559546775765, -820.7337046544201, -821.2254430324368, -821.7618848993642, -820.7113529099647, -820.3984284875904, -820.6890011655095, -821.091332565705, -820.6890011655095, -820.6666494210541, -820.286669765314, -820.9572220989731, -822.2536232773809, -821.9406988550066, -822.1195128106491, -821.5383674548111, -820.3313732542246, -821.2254430324368, -821.1583877990709, -821.3819052436239, -820.1749110430374, -820.1302075541267, -819.2361377759145, -817.5374051973112, -817.0456668192944, -817.2244807749369, -815.9951348298949, -817.8950331085961, -819.8843383651183, -820.0184488318503, -821.1807395435262, -822.3430302552022, -822.3653819996574, -821.0019255878838, -821.024277332339, -821.6277744326323, -822.1418645551043, -822.6336029331211, -822.4547889774786, -822.0748093217385, -822.8124168887636, -822.7900651443083, -821.895995366096, -821.4713122214451, -821.4936639659005, -821.2924982658027, -822.9018238665848, -822.991230844406, -822.2983267662916, -821.9630505994619, -821.4936639659005, -821.2924982658027, -821.8736436216407, -821.0689808212496, -820.9572220989731, -821.2254430324368, -821.9630505994619, -822.1642162995597, -822.0971610661937, -821.5607191992664, -822.0748093217385, -821.6277744326323, -821.4713122214451, -820.4654837209564, -821.4042569880793, -821.4489604769899, -820.7113529099647, -820.8454633766966, -820.9572220989731, -821.0466290767944, -821.1583877990709, -820.5995941876882, -819.9513935984843, -821.1583877990709, -820.1078558096715, -820.1078558096715, -820.510187209867, -820.3090215097692, -819.4596552204675, -819.6831726650206, -821.3595534991687, -819.7725796428418, -819.0349720758167, -819.2137860314591, -819.1243790536379, -819.0126203313614, -819.7725796428418, -819.4820069649228, -818.7220476534424, -819.9066901095737, -819.5490621982888, -820.5772424432329, -820.5548906987776, -819.7278761539312, -820.5772424432329, -820.5325389543223, -819.8396348762077, -820.1749110430374, -821.1807395435262, -820.7337046544201, -819.8396348762077, -821.091332565705, -821.5830709437217, -821.3595534991687, -821.7395331549088, -821.4489604769899, -822.1195128106491, -822.2312715329256, -822.8347686332189, -822.5665476997552, -822.3430302552022, -823.3488587556909, -823.4606174779675, -823.1476930555932, -822.9688790999508, -822.8347686332189, -823.1476930555932, -822.0077540883725, -823.3041552667803, -822.7006581664871, -821.672477921543, -821.3595534991687, -822.8124168887636, -822.6783064220317, -821.1583877990709, -820.3313732542246, -820.6890011655095, -820.7113529099647, -820.8454633766966, -822.0301058328279, -823.2594517778697, -822.7006581664871, -822.9241756110401, -823.2147482889591, -823.4382657335121, -823.0359343333166, -822.9465273554954, -823.5947279446993, -823.4829692224228, -822.991230844406, -824.0194110893502, -822.4324372330234, -823.2371000334144, -822.1195128106491, -821.024277332339, -821.1583877990709, -821.7842366438194, -822.5665476997552, -822.3206785107468, -822.1642162995597, -822.5888994442105, -821.9630505994619, -821.7395331549088, -822.2759750218362, -823.5276727113334, -822.7900651443083, -822.6336029331211, -821.4936639659005, -820.800759887786, -821.3372017547133, -821.2477947768921, -821.895995366096, -822.6336029331211, -821.7618848993642, -821.605422688177, -821.0689808212496, -820.7337046544201, -820.6219459321435, -821.9854023439173, -822.6559546775765, -823.3488587556909, -822.186568044015, -821.9183471105513, -821.672477921543, -821.5607191992664, -821.3372017547133, -821.0689808212496, -821.7395331549088, -822.477140721934, -824.0417628338055, -824.2429285339033, -821.605422688177, -819.8396348762077, -819.6831726650206, -820.800759887786, -821.2924982658027, -821.091332565705, -822.5665476997552, -822.0077540883725, -821.6277744326323, -821.5830709437217, -820.286669765314, -821.5160157103558, -821.5383674548111, -821.7842366438194, -821.5160157103558, -819.8396348762077, -818.6996959089871, -819.5043587093782, -820.3984284875904, -820.6219459321435, -819.9960970873949, -820.1972627874927, -820.0408005763055, -820.0631523207609, -819.3031930092803, -820.4654837209564, -819.6161174316546, -819.571413942744, -819.347896498191, -819.9066901095737, -820.7784081433307, -820.800759887786, -821.4489604769899, -820.443131976501, -819.6608209205652, -819.5490621982888, -820.0631523207609, -820.3313732542246, -820.0631523207609, -820.3984284875904, -820.3313732542246, -819.3031930092803, -819.3925999871016, -819.9513935984843, -820.6219459321435, -820.3090215097692, -820.7337046544201, -819.5043587093782, -821.3372017547133, -821.5160157103558, -820.9572220989731, -820.8454633766966, -821.895995366096, -822.2983267662916, -820.3760767431352, -820.510187209867, -819.1467307980932, -816.8892046081072, -816.8445011191966, -816.6433354190989, -817.8726813641407, -819.5490621982888, -819.4373034760122, -820.4207802320458, -820.6890011655095, -821.4042569880793, -822.2536232773809, -821.82894013273, -821.1136843101602, -821.4936639659005, -820.219614531948, -820.6890011655095, -820.443131976501, -820.0631523207609, -820.9125186100625, -820.443131976501, -820.6219459321435, -821.9183471105513, -821.8065883882748, -820.800759887786, -821.1360360546156, -821.0689808212496, -821.672477921543, -821.2924982658027, -820.286669765314, -820.6219459321435, -821.091332565705, -821.314850010258, -820.8901668656072, -821.024277332339, -820.7113529099647, -820.5772424432329, -820.1078558096715, -819.347896498191, -819.8619866206631, -819.5490621982888, -819.1690825425485, -819.7278761539312, -819.1914342870039, -818.7220476534424, -818.5655854422553, -818.4985302088893, -819.571413942744, -819.5490621982888, -818.9008616090848, -819.1243790536379, -818.0961988086938, -817.8950331085961, -819.1690825425485, -819.9513935984843, -819.1690825425485, -819.1020273091826, -818.3197162532468, -818.6102889311659, -818.6102889311659, -818.5208819533447, -819.2808412648251, -817.8726813641407, -818.1632540420597, -818.0291435753279, -818.185605786515, -818.0067918308725, -817.8056261307748, -818.8785098646296, -818.766751142353, -818.2973645087916, -818.5208819533447, -818.6549924200765, -819.5490621982888, -820.0631523207609, -819.9960970873949, -819.7725796428418, -819.7502278983865, -820.1749110430374, -820.1525592985821, -819.5043587093782, -820.8454633766966, -821.4042569880793, -821.2254430324368, -822.0301058328279, -821.091332565705, -821.314850010258, -822.991230844406, -821.7395331549088, -821.2254430324368, -821.2477947768921, -820.7784081433307, -821.1136843101602, -821.2030912879815, -819.9960970873949, -819.9960970873949, -820.3760767431352, -819.9066901095737, -820.8454633766966, -821.1583877990709, -820.3313732542246, -821.8512918771854, -821.0689808212496, -821.9183471105513, -820.3537249986798, -820.3313732542246, -820.2419662764033, -821.4042569880793, -821.1136843101602, -820.8454633766966, -820.6442976765989, -820.286669765314, -820.5325389543223, -820.9795738434284, -820.4654837209564, -821.9183471105513, -821.024277332339, -820.1749110430374, -820.5548906987776, -820.9348703545178, -819.9513935984843, -819.3925999871016, -819.5490621982888, -819.7055244094759, -819.6608209205652, -820.6666494210541, -821.4713122214451, -820.8678151211519, -819.9066901095737, -820.286669765314, -820.1749110430374, -820.800759887786, -821.024277332339, -820.443131976501, -820.6890011655095, -820.8901668656072, -820.7113529099647, -820.3537249986798, -821.9183471105513, -822.4547889774786, -823.3488587556909, -823.058286077772, -823.1476930555932, -822.410085488568, -822.186568044015, -822.1418645551043, -822.2983267662916, -822.7230099109423, -821.7395331549088, -821.4266087325345, -821.3819052436239, -821.4489604769899, -821.3819052436239, -821.9630505994619, -822.2759750218362, -822.3653819996574, -822.6112511886658, -823.058286077772, -821.672477921543, -821.8512918771854, -821.4266087325345], [-1094.8778503987612, -1096.0177893659818, -1095.816623665884, -1096.2636585549901, -1096.3754172772667, -1096.1966033216243, -1096.6659899551858, -1096.6883416996411, -1098.4764812560657, -1099.5046615010097, -1099.9740481345711, -1099.527013245465, -1100.0187516234819, -1100.689303957141, -1100.465786512588, -1100.6446004682305, -1100.622248723775, -1100.5328417459539, -1100.5104900014985, -1101.1810423351578, -1100.689303957141, -1100.4434347681326, -1101.4716150130766, -1101.9186499021828, -1101.6057254798086, -1101.851594668817, -1100.4210830236773, -1099.8399376678394, -1100.5775452348644, -1102.0304086244594, -1101.628077224264, -1101.4269115241661, -1102.0304086244594, -1101.9186499021828, -1101.650428968719, -1102.3209813023784, -1101.9186499021828, -1100.4881382570431, -1099.683475456652, -1101.628077224264, -1101.628077224264, -1101.4269115241661, -1100.689303957141, -1100.8904696572388, -1102.2539260690126, -1102.9691818915824, -1103.8632516697946, -1105.1820045926577, -1105.3831702927555, -1103.9303069031605, -1105.0925976148364, -1105.6737429706745, -1105.6737429706745, -1106.1654813486912, -1105.5172807594872, -1105.8302051818616, -1106.5007575155207, -1106.232536582057, -1106.9030889157164, -1105.8749086707721, -1104.5785074923645, -1103.6397342252415, -1104.109120858803, -1103.6397342252415, -1104.3773417922666, -1104.5785074923645, -1105.0925976148364, -1104.8690801702835, -1103.9079551587051, -1105.2267080815684, -1105.3608185483001, -1103.5726789918756, -1103.8632516697946, -1104.4220452811774, -1103.9303069031605, -1104.4667487700879, -1103.9973621365264, -1103.7738446919734, -1103.751492947518, -1103.8632516697946, -1104.4443970256325, -1104.0867691143476, -1103.6173824807863, -1103.6397342252415, -1103.0362371249482, -1102.9021266582165, -1102.9915336360377, -1102.9691818915824, -1103.304458058412, -1104.6679144701857, -1105.1820045926577, -1106.2772400709678, -1105.7631499484958, -1104.2879348144454, -1104.5785074923645, -1104.9584871481047, -1103.8632516697946, -1105.3384668038448, -1105.9419639041382, -1105.4055220372109, -1105.1149493592918, -1105.3161150593896, -1104.8243766813728, -1104.1538243477137, -1105.204356337113, -1103.9973621365264, -1103.595030736331, -1105.1596528482023, -1105.4502255261214, -1103.751492947518, -1104.7349697035515, -1104.8020249369174, -1104.8914319147386, -1104.109120858803, -1102.9244784026716, -1104.8020249369174, -1104.757321448007, -1105.561984248398, -1106.1431296042358, -1105.047894125926, -1105.3384668038448, -1104.9584871481047, -1105.427873781666, -1105.6737429706745, -1105.3161150593896, -1105.0255423814706, -1105.047894125926, -1104.913783659194, -1104.0197138809817, -1104.5338040034537, -1106.0537226264146, -1105.785501692951, -1104.1538243477137, -1105.6066877373084, -1105.070245870381, -1103.7738446919734, -1105.8078534374063, -1104.4220452811774, -1104.042065625437, -1104.913783659194, -1104.8020249369174, -1105.3161150593896, -1105.785501692951, -1105.9866673930487, -1104.3102865589008, -1103.2150510805907, -1102.8797749137611, -1104.0197138809817, -1103.7067894586075, -1103.7067894586075, -1104.4891005145432, -1104.26558306999, -1104.109120858803, -1103.7738446919734, -1102.1868708356465, -1103.304458058412, -1103.6397342252415, -1102.946830147127, -1102.79036793594, -1103.0362371249482, -1103.4162167806885, -1102.9915336360377, -1103.8632516697946, -1103.0362371249482, -1102.8797749137611, -1103.7291412030627, -1103.5503272474202, -1103.5726789918756, -1104.243231325535, -1104.6008592368198, -1104.1761760921688, -1104.2208795810795, -1102.7680161914845, -1103.6620859696968, -1105.6513912262192, -1103.4162167806885, -1103.7067894586075, -1104.6679144701857, -1103.7738446919734, -1104.4443970256325, -1104.6008592368198, -1104.8914319147386, -1105.047894125926, -1103.8408999253393, -1104.9808388925599, -1104.2208795810795, -1103.3491615473226, -1103.527975502965, -1105.4055220372109, -1105.3384668038448, -1104.6679144701857, -1106.6125162377973, -1105.7407982040404, -1103.6397342252415, -1105.785501692951, -1105.0031906370152, -1103.527975502965, -1106.210184837602, -1107.2607168270013, -1105.6513912262192, -1106.5007575155207, -1106.232536582057, -1105.7631499484958, -1105.8749086707721, -1106.4560540266102, -1106.210184837602, -1106.0313708819594, -1106.2772400709678, -1106.0537226264146, -1105.271411570479, -1106.1207778597807, -1105.9196121596829, -1105.047894125926, -1105.427873781666, -1106.7913301934398, -1104.6008592368198, -1104.9361354036494, -1104.5338040034537, -1104.8243766813728, -1105.6737429706745, -1105.6737429706745, -1104.1538243477137, -1103.7067894586075, -1103.88560341425, -1104.0867691143476, -1104.4667487700879, -1103.7291412030627, -1105.6513912262192, -1105.494929015032, -1106.4560540266102, -1105.5172807594872, -1104.4220452811774, -1103.7067894586075, -1105.2267080815684, -1105.9419639041382, -1106.07607437087, -1106.3442953043336, -1105.8078534374063, -1104.1761760921688, -1104.8020249369174, -1104.7796731924623, -1104.109120858803, -1103.4385685251439, -1103.9526586476159, -1102.7680161914845, -1103.2150510805907, -1104.042065625437, -1104.2879348144454, -1104.3326383033561, -1104.399693536722, -1103.88560341425, -1102.7680161914845, -1102.142167346736, -1104.3102865589008, -1105.3161150593896, -1105.204356337113, -1105.1596528482023, -1105.9643156485934, -1105.3161150593896, -1104.9808388925599, -1104.1538243477137, -1104.5114522589986, -1105.0925976148364, -1104.7126179590962, -1104.8914319147386, -1105.2937633149343, -1105.271411570479, -1103.751492947518, -1104.3773417922666, -1104.1314726032583, -1103.6397342252415, -1103.4832720140544, -1103.080940613859, -1103.0362371249482, -1103.6173824807863, -1105.494929015032, -1105.561984248398, -1104.9361354036494, -1105.6960947151297, -1106.0984261153253, -1106.880737171261, -1105.785501692951, -1105.7631499484958, -1105.9419639041382, -1104.8690801702835, -1105.3161150593896, -1104.7349697035515, -1104.3102865589008, -1104.9584871481047, -1104.4891005145432, -1103.9303069031605, -1102.8127196803953, -1103.6620859696968, -1105.271411570479, -1105.427873781666, -1105.0255423814706, -1103.9303069031605, -1105.7631499484958, -1106.0984261153253, -1104.3102865589008, -1104.757321448007, -1105.047894125926, -1104.6679144701857, -1105.1373011037472, -1105.6960947151297, -1105.6513912262192, -1104.4891005145432, -1105.8749086707721, -1105.785501692951, -1104.6008592368198, -1105.852556926317, -1104.7349697035515, -1104.913783659194, -1104.8243766813728, -1105.561984248398, -1105.1820045926577, -1103.9303069031605, -1104.3549900478113, -1105.6513912262192, -1104.6455627257303, -1103.6397342252415, -1104.4891005145432, -1104.6455627257303, -1104.0867691143476, -1103.8408999253393, -1104.8243766813728, -1105.3831702927555, -1105.5843359928533, -1105.4502255261214, -1104.556155747909, -1104.7796731924623, -1105.3831702927555, -1104.4220452811774, -1104.9584871481047, -1105.9866673930487, -1106.2995918154231, -1105.1373011037472, -1104.0867691143476, -1104.3549900478113, -1103.3715132917778, -1102.5444987469314, -1102.723312702574, -1104.3549900478113, -1103.818548180884, -1101.9186499021828, -1103.6397342252415, -1103.3268098028673, -1103.0362371249482, -1102.5444987469314, -1102.142167346736, -1102.4550917691101, -1103.6397342252415, -1103.5726789918756, -1102.7456644470292, -1102.7009609581187, -1103.304458058412, -1103.6844377141522, -1103.5503272474202, -1101.628077224264, -1102.8574231693058, -1103.4832720140544, -1102.8350714248504, -1102.2092225801018, -1102.432740024655, -1102.0974638578252, -1102.9915336360377, -1102.0304086244594, -1102.07511211337, -1102.0527603689147, -1100.8010626794176, -1102.0974638578252, -1103.0138853804929, -1103.080940613859, -1105.204356337113, -1104.6679144701857, -1102.1645190911913, -1102.365684791289, -1102.6115539802975, -1101.8962981577276, -1101.7398359465403, -1101.2257458240683, -1101.0245801239705, -1101.8739464132723, -1101.7398359465403, -1101.851594668817, -1102.7456644470292, -1103.527975502965, -1103.1479958472248, -1102.6339057247528, -1103.7961964364288, -1105.047894125926, -1103.0362371249482, -1102.07511211337, -1102.008056880004, -1102.946830147127, -1103.1479958472248, -1104.6679144701857, -1102.9915336360377, -1102.7009609581187, -1101.7398359465403, -1101.650428968719, -1102.2092225801018, -1102.5221470024762, -1102.2539260690126, -1103.3491615473226, -1104.4220452811774, -1102.9915336360377, -1102.4774435135655, -1103.9750103920712, -1103.0585888694036, -1103.8632516697946, -1104.1985278366242, -1102.589202235842, -1102.07511211337, -1102.4774435135655, -1101.9633533910935, -1100.5775452348644, -1102.8574231693058, -1103.8632516697946, -1103.2150510805907, -1103.103292358314, -1103.1479958472248, -1103.3268098028673, -1103.5503272474202, -1102.8574231693058, -1102.8797749137611, -1103.1256441027695, -1104.2208795810795, -1102.3433330468338, -1101.628077224264, -1101.8068911799064, -1103.3491615473226, -1103.237402825046, -1101.9857051355489, -1102.6339057247528, -1102.1868708356465, -1102.0304086244594, -1101.1139871017917, -1101.0916353573366, -1101.4716150130766, -1101.7621876909957, -1101.7621876909957, -1101.337504546345, -1103.6397342252415, -1102.656257469208, -1102.589202235842, -1103.1926993361353, -1102.7680161914845, -1102.2539260690126, -1102.9915336360377, -1102.2539260690126, -1101.851594668817, -1101.5163185019874, -1101.3151528018896, -1101.3822080352554, -1102.2315743245572, -1100.5104900014985, -1101.4492632686215, -1102.8574231693058, -1101.1139871017917, -1100.823414423873, -1100.6446004682305, -1100.7116557015963, -1101.0692836128812, -1100.7340074460517, -1100.3540277903114, -1101.2480975685237, -1101.0916353573366, -1102.2315743245572, -1102.6339057247528, -1101.2480975685237, -1100.7563591905068, -1101.5833737353532, -1102.5221470024762, -1102.2315743245572, -1102.7456644470292, -1101.628077224264, -1101.5163185019874, -1101.5833737353532, -1101.3151528018896, -1102.1868708356465, -1101.628077224264, -1101.0245801239705, -1100.97987663506, -1101.1810423351578, -1100.5551934904092, -1100.5998969793197, -1100.4881382570431, -1100.97987663506, -1102.07511211337, -1102.2092225801018, -1101.3598562908003, -1101.136338846247, -1100.845766168328, -1101.0916353573366, -1102.6786092136633, -1101.9857051355489, -1101.5833737353532, -1102.7456644470292, -1102.589202235842, -1101.3151528018896, -1099.7505306900182, -1099.8622894122946, -1101.0916353573366, -1101.3598562908003, -1101.3598562908003, -1100.3540277903114, -1101.1586905907025, -1101.0469318684259, -1100.7340074460517, -1101.6951324576298, -1100.0634551123924, -1100.9575248906046, -1101.1810423351578, -1101.3598562908003, -1102.0974638578252, -1101.4716150130766, -1102.2539260690126, -1102.5221470024762, -1102.5221470024762, -1102.589202235842, -1101.3598562908003, -1101.4045597797108, -1101.5833737353532, -1100.6446004682305, -1099.6387719677416, -1100.622248723775, -1101.337504546345, -1100.7563591905068, -1100.9128214016941, -1100.8010626794176, -1100.4881382570431, -1100.0187516234819, -1101.3822080352554, -1101.784539435451, -1100.5775452348644, -1100.7340074460517, -1101.4045597797108, -1100.4210830236773, -1101.9186499021828, -1102.2539260690126, -1102.9915336360377, -1102.3433330468338, -1100.7787109349622, -1100.5328417459539, -1100.7563591905068, -1101.4045597797108, -1101.8739464132723, -1101.4269115241661, -1101.8739464132723, -1102.008056880004, -1100.97987663506, -1101.0916353573366, -1101.4045597797108, -1101.6727807131745, -1100.6669522126856, -1101.0692836128812, -1101.1586905907025, -1100.7787109349622, -1101.1810423351578, -1100.97987663506, -1100.9128214016941, -1100.97987663506, -1100.7563591905068, -1101.0022283795154, -1102.7009609581187, -1102.5221470024762, -1101.8962981577276, -1101.9410016466381, -1102.365684791289, -1101.1586905907025, -1101.337504546345, -1102.298629557923, -1102.6115539802975, -1102.9244784026716, -1102.2539260690126, -1102.365684791289, -1100.8681179127834, -1102.0527603689147, -1103.2150510805907, -1102.8574231693058, -1103.7291412030627, -1102.4103882801996, -1102.0527603689147, -1103.3491615473226, -1101.784539435451, -1102.6339057247528, -1103.2597545695014, -1102.9915336360377, -1102.9691818915824, -1101.4045597797108, -1100.1305103457582, -1100.5775452348644, -1100.97987663506, -1101.1810423351578, -1101.3151528018896, -1102.5668504913867, -1101.650428968719, -1101.4045597797108, -1100.97987663506, -1100.2646208124902, -1100.7563591905068, -1099.9516963901158, -1101.9633533910935, -1103.88560341425, -1103.3268098028673, -1103.5503272474202, -1103.527975502965, -1103.8408999253393, -1103.0585888694036, -1102.07511211337, -1103.304458058412, -1103.6620859696968, -1104.0197138809817, -1103.8632516697946, -1103.3938650362331, -1104.6008592368198, -1105.3161150593896, -1105.3384668038448, -1105.0031906370152, -1102.4774435135655, -1102.4550917691101, -1103.5726789918756, -1103.7738446919734, -1103.3715132917778, -1101.628077224264, -1101.1586905907025, -1100.7563591905068, -1101.136338846247, -1101.8292429243616, -1102.9915336360377, -1103.6397342252415, -1102.9915336360377, -1101.9857051355489, -1102.6339057247528, -1103.7067894586075, -1103.3268098028673, -1103.3268098028673, -1103.5056237585097, -1102.9691818915824, -1102.2539260690126, -1103.7067894586075, -1104.6008592368198, -1103.2821063139565, -1102.3433330468338, -1102.1868708356465, -1102.1645190911913, -1101.270449312979, -1101.628077224264, -1102.2762778134677, -1101.7621876909957, -1101.4269115241661, -1101.1139871017917, -1102.2539260690126, -1101.784539435451, -1101.7621876909957, -1101.7621876909957, -1101.0916353573366, -1101.8739464132723, -1102.8574231693058, -1103.1926993361353, -1102.07511211337, -1102.2762778134677, -1103.2597545695014, -1103.1926993361353, -1103.0362371249482, -1102.432740024655, -1101.3151528018896, -1100.398731279222, -1099.5717167343757, -1101.0692836128812, -1101.2257458240683, -1102.3433330468338, -1102.432740024655, -1102.3209813023784, -1102.3433330468338, -1101.9633533910935, -1101.5833737353532, -1103.1926993361353, -1101.6951324576298, -1100.3093243014007, -1101.0916353573366, -1100.1528620902136, -1100.622248723775, -1100.7340074460517, -1100.1528620902136, -1100.3763795347668, -1100.5328417459539, -1101.628077224264, -1100.7116557015963, -1100.4210830236773, -1100.5775452348644, -1100.9351731461493, -1101.851594668817, -1101.2480975685237, -1100.5104900014985, -1100.8010626794176, -1101.2928010574342, -1100.465786512588, -1101.0022283795154, -1101.5163185019874, -1100.4434347681326, -1101.650428968719, -1101.9186499021828, -1102.0527603689147, -1101.6057254798086, -1101.493966757532, -1101.337504546345, -1102.589202235842, -1101.8739464132723, -1102.2539260690126, -1103.7067894586075, -1102.365684791289, -1102.656257469208, -1103.2821063139565, -1103.1479958472248, -1104.109120858803, -1104.2879348144454, -1102.7009609581187, -1101.5610219908979, -1101.8068911799064, -1101.6951324576298, -1101.8739464132723, -1102.7009609581187, -1102.4103882801996, -1103.2150510805907, -1102.5221470024762, -1102.9244784026716, -1103.0585888694036, -1102.5444987469314, -1103.103292358314, -1102.8797749137611, -1102.79036793594, -1102.142167346736, -1102.298629557923, -1102.1868708356465, -1102.142167346736, -1101.7174842020852, -1102.4997952580209, -1101.5386702464427, -1102.7456644470292, -1102.3880365357443, -1102.8574231693058, -1102.3209813023784, -1101.0692836128812, -1101.784539435451, -1102.0527603689147, -1102.8797749137611, -1102.7680161914845, -1102.0974638578252]]
[[-820.4654837209564, -819.347896498191, -820.3313732542246, -820.6666494210541, -820.1078558096715, -820.5548906987776, -819.3031930092803, -819.7055244094759, -820.5548906987776, -820.6890011655095, -820.2419662764033, -820.1525592985821, -820.7560563988753, -821.2254430324368, -821.82894013273, -821.9630505994619, -822.1195128106491, -822.9018238665848, -822.3430302552022, -821.1360360546156, -820.6666494210541, -820.8454633766966, -821.6948296659982, -820.800759887786, -820.3984284875904, -822.3653819996574, -823.5053209668781, -821.0466290767944, -816.8221493747413, -819.1020273091826, -820.9348703545178, -818.8785098646296, -818.0067918308725, -817.4479982194899, -816.1068935521715, -816.285707507814, -817.5150534528558, -819.6608209205652, -820.4654837209564, -819.8172831317524, -820.6442976765989, -821.4713122214451, -821.0019255878838, -821.1360360546156, -819.0126203313614, -820.800759887786, -819.9290418540289, -820.0855040652161, -821.4042569880793, -821.3595534991687, -821.0689808212496, -820.9572220989731, -820.9572220989731, -821.024277332339, -820.800759887786, -820.2643180208586, -820.2419662764033, -820.7784081433307, -820.7113529099647, -819.8843383651183, -820.1078558096715, -819.4596552204675, -819.7278761539312, -819.9960970873949, -820.6219459321435, -820.219614531948, -819.6161174316546, -820.7784081433307, -821.0019255878838, -820.3090215097692, -819.9737453429395, -820.8901668656072, -819.9290418540289, -820.0631523207609, -821.2924982658027, -818.9008616090848, -818.833806375719, -819.5267104538334, -819.9066901095737, -819.7278761539312, -820.5772424432329, -821.1807395435262, -821.6948296659982, -821.9630505994619, -822.3653819996574, -821.5160157103558, -821.091332565705, -820.8901668656072, -820.5772424432329, -820.0631523207609, -820.6219459321435, -821.4489604769899, -820.9572220989731, -821.024277332339, -820.800759887786, -819.6831726650206, -820.5325389543223, -820.443131976501, -819.9066901095737, -819.7949313872971, -821.7171814104536, -820.9572220989731, -821.091332565705, -820.9125186100625, -821.6948296659982, -822.0301058328279, -820.7784081433307, -822.5441959552999, -822.9465273554954, -822.0971610661937, -823.5947279446993, -823.1700448000485, -822.3877337441128, -822.6559546775765, -822.2983267662916, -821.3372017547133, -822.8571203776742, -822.1195128106491, -821.8065883882748, -822.4324372330234, -821.314850010258, -821.9854023439173, -822.2536232773809, -821.6501261770876, -822.7453616553977, -822.186568044015, -822.410085488568, -822.9241756110401, -823.1476930555932, -822.8571203776742, -822.7900651443083, -822.7006581664871, -822.0748093217385, -822.0971610661937, -821.895995366096, -820.6442976765989, -820.8454633766966, -820.1302075541267, -821.8512918771854, -820.8231116322413, -820.7113529099647, -821.1136843101602, -821.5160157103558, -820.3760767431352, -820.6442976765989, -822.0748093217385, -821.672477921543, -821.3372017547133, -821.9630505994619, -822.5441959552999, -821.1807395435262, -822.477140721934, -821.7842366438194, -821.1360360546156, -822.0748093217385, -822.4324372330234, -821.9183471105513, -822.2536232773809, -823.2371000334144, -822.6336029331211, -821.2254430324368, -821.6948296659982, -821.1807395435262, -822.0301058328279, -819.9960970873949, -821.024277332339, -822.3653819996574, -821.5607191992664, -821.9183471105513, -821.091332565705, -821.3372017547133, -821.7618848993642, -820.7113529099647, -822.3653819996574, -821.4489604769899, -822.1195128106491, -821.2701465213474, -820.6666494210541, -821.5830709437217, -821.5383674548111, -821.895995366096, -821.8065883882748, -819.7949313872971, -822.1418645551043, -824.4217424895457, -822.7677133998529, -821.8065883882748, -822.1418645551043, -822.5441959552999, -821.7842366438194, -822.8571203776742, -821.9854023439173, -822.186568044015, -824.0194110893502, -823.3935622446015, -822.6336029331211, -824.1311698116267, -823.4606174779675, -822.9018238665848, -822.7453616553977, -822.6112511886658, -822.5888994442105, -823.2594517778697, -823.058286077772, -822.5665476997552, -821.5160157103558, -822.5888994442105, -822.6336029331211, -821.1807395435262, -822.2536232773809, -821.7171814104536, -821.8512918771854, -821.9183471105513, -821.5160157103558, -821.7842366438194, -822.0077540883725, -822.0301058328279, -823.3265070112357, -823.5500244557887, -823.0135825888614, -823.3041552667803, -823.281803522325, -821.7171814104536, -822.2536232773809, -821.895995366096, -821.7395331549088, -821.7842366438194, -822.9688790999508, -822.6559546775765, -820.7337046544201, -821.2254430324368, -821.7618848993642, -820.7113529099647, -820.3984284875904, -820.6890011655095, -821.091332565705, -820.6890011655095, -820.6666494210541, -820.286669765314, -820.9572220989731, -822.2536232773809, -821.9406988550066, -822.1195128106491, -821.5383674548111, -820.3313732542246, -821.2254430324368, -821.1583877990709, -821.3819052436239, -820.1749110430374, -820.1302075541267, -819.2361377759145, -817.5374051973112, -817.0456668192944, -817.2244807749369, -815.9951348298949, -817.8950331085961, -819.8843383651183, -820.0184488318503, -821.1807395435262, -822.3430302552022, -822.3653819996574, -821.0019255878838, -821.024277332339, -821.6277744326323, -822.1418645551043, -822.6336029331211, -822.4547889774786, -822.0748093217385, -822.8124168887636, -822.7900651443083, -821.895995366096, -821.4713122214451, -821.4936639659005, -821.2924982658027, -822.9018238665848, -822.991230844406, -822.2983267662916, -821.9630505994619, -821.4936639659005, -821.2924982658027, -821.8736436216407, -821.0689808212496, -820.9572220989731, -821.2254430324368, -821.9630505994619, -822.1642162995597, -822.0971610661937, -821.5607191992664, -822.0748093217385, -821.6277744326323, -821.4713122214451, -820.4654837209564, -821.4042569880793, -821.4489604769899, -820.7113529099647, -820.8454633766966, -820.9572220989731, -821.0466290767944, -821.1583877990709, -820.5995941876882, -819.9513935984843, -821.1583877990709, -820.1078558096715, -820.1078558096715, -820.510187209867, -820.3090215097692, -819.4596552204675, -819.6831726650206, -821.3595534991687, -819.7725796428418, -819.0349720758167, -819.2137860314591, -819.1243790536379, -819.0126203313614, -819.7725796428418, -819.4820069649228, -818.7220476534424, -819.9066901095737, -819.5490621982888, -820.5772424432329, -820.5548906987776, -819.7278761539312, -820.5772424432329, -820.5325389543223, -819.8396348762077, -820.1749110430374, -821.1807395435262, -820.7337046544201, -819.8396348762077, -821.091332565705, -821.5830709437217, -821.3595534991687, -821.7395331549088, -821.4489604769899, -822.1195128106491, -822.2312715329256, -822.8347686332189, -822.5665476997552, -822.3430302552022, -823.3488587556909, -823.4606174779675, -823.1476930555932, -822.9688790999508, -822.8347686332189, -823.1476930555932, -822.0077540883725, -823.3041552667803, -822.7006581664871, -821.672477921543, -821.3595534991687, -822.8124168887636, -822.6783064220317, -821.1583877990709, -820.3313732542246, -820.6890011655095, -820.7113529099647, -820.8454633766966, -822.0301058328279, -823.2594517778697, -822.7006581664871, -822.9241756110401, -823.2147482889591, -823.4382657335121, -823.0359343333166, -822.9465273554954, -823.5947279446993, -823.4829692224228, -822.991230844406, -824.0194110893502, -822.4324372330234, -823.2371000334144, -822.1195128106491, -821.024277332339, -821.1583877990709, -821.7842366438194, -822.5665476997552, -822.3206785107468, -822.1642162995597, -822.5888994442105, -821.9630505994619, -821.7395331549088, -822.2759750218362, -823.5276727113334, -822.7900651443083, -822.6336029331211, -821.4936639659005, -820.800759887786, -821.3372017547133, -821.2477947768921, -821.895995366096, -822.6336029331211, -821.7618848993642, -821.605422688177, -821.0689808212496, -820.7337046544201, -820.6219459321435, -821.9854023439173, -822.6559546775765, -823.3488587556909, -822.186568044015, -821.9183471105513, -821.672477921543, -821.5607191992664, -821.3372017547133, -821.0689808212496, -821.7395331549088, -822.477140721934, -824.0417628338055, -824.2429285339033, -821.605422688177, -819.8396348762077, -819.6831726650206, -820.800759887786, -821.2924982658027, -821.091332565705, -822.5665476997552, -822.0077540883725, -821.6277744326323, -821.5830709437217, -820.286669765314, -821.5160157103558, -821.5383674548111, -821.7842366438194, -821.5160157103558, -819.8396348762077, -818.6996959089871, -819.5043587093782, -820.3984284875904, -820.6219459321435, -819.9960970873949, -820.1972627874927, -820.0408005763055, -820.0631523207609, -819.3031930092803, -820.4654837209564, -819.6161174316546, -819.571413942744, -819.347896498191, -819.9066901095737, -820.7784081433307, -820.800759887786, -821.4489604769899, -820.443131976501, -819.6608209205652, -819.5490621982888, -820.0631523207609, -820.3313732542246, -820.0631523207609, -820.3984284875904, -820.3313732542246, -819.3031930092803, -819.3925999871016, -819.9513935984843, -820.6219459321435, -820.3090215097692, -820.7337046544201, -819.5043587093782, -821.3372017547133, -821.5160157103558, -820.9572220989731, -820.8454633766966, -821.895995366096, -822.2983267662916, -820.3760767431352, -820.510187209867, -819.1467307980932, -816.8892046081072, -816.8445011191966, -816.6433354190989, -817.8726813641407, -819.5490621982888, -819.4373034760122, -820.4207802320458, -820.6890011655095, -821.4042569880793, -822.2536232773809, -821.82894013273, -821.1136843101602, -821.4936639659005, -820.219614531948, -820.6890011655095, -820.443131976501, -820.0631523207609, -820.9125186100625, -820.443131976501, -820.6219459321435, -821.9183471105513, -821.8065883882748, -820.800759887786, -821.1360360546156, -821.0689808212496, -821.672477921543, -821.2924982658027, -820.286669765314, -820.6219459321435, -821.091332565705, -821.314850010258, -820.8901668656072, -821.024277332339, -820.7113529099647, -820.5772424432329, -820.1078558096715, -819.347896498191, -819.8619866206631, -819.5490621982888, -819.1690825425485, -819.7278761539312, -819.1914342870039, -818.7220476534424, -818.5655854422553, -818.4985302088893, -819.571413942744, -819.5490621982888, -818.9008616090848, -819.1243790536379, -818.0961988086938, -817.8950331085961, -819.1690825425485, -819.9513935984843, -819.1690825425485, -819.1020273091826, -818.3197162532468, -818.6102889311659, -818.6102889311659, -818.5208819533447, -819.2808412648251, -817.8726813641407, -818.1632540420597, -818.0291435753279, -818.185605786515, -818.0067918308725, -817.8056261307748, -818.8785098646296, -818.766751142353, -818.2973645087916, -818.5208819533447, -818.6549924200765, -819.5490621982888, -820.0631523207609, -819.9960970873949, -819.7725796428418, -819.7502278983865, -820.1749110430374, -820.1525592985821, -819.5043587093782, -820.8454633766966, -821.4042569880793, -821.2254430324368, -822.0301058328279, -821.091332565705, -821.314850010258, -822.991230844406, -821.7395331549088, -821.2254430324368, -821.2477947768921, -820.7784081433307, -821.1136843101602, -821.2030912879815, -819.9960970873949, -819.9960970873949, -820.3760767431352, -819.9066901095737, -820.8454633766966, -821.1583877990709, -820.3313732542246, -821.8512918771854, -821.0689808212496, -821.9183471105513, -820.3537249986798, -820.3313732542246, -820.2419662764033, -821.4042569880793, -821.1136843101602, -820.8454633766966, -820.6442976765989, -820.286669765314, -820.5325389543223, -820.9795738434284, -820.4654837209564, -821.9183471105513, -821.024277332339, -820.1749110430374, -820.5548906987776, -820.9348703545178, -819.9513935984843, -819.3925999871016, -819.5490621982888, -819.7055244094759, -819.6608209205652, -820.6666494210541, -821.4713122214451, -820.8678151211519, -819.9066901095737, -820.286669765314, -820.1749110430374, -820.800759887786, -821.024277332339, -820.443131976501, -820.6890011655095, -820.8901668656072, -820.7113529099647, -820.3537249986798, -821.9183471105513, -822.4547889774786, -823.3488587556909, -823.058286077772, -823.1476930555932, -822.410085488568, -822.186568044015, -822.1418645551043, -822.2983267662916, -822.7230099109423, -821.7395331549088, -821.4266087325345, -821.3819052436239, -821.4489604769899, -821.3819052436239, -821.9630505994619, -822.2759750218362, -822.3653819996574, -822.6112511886658, -823.058286077772, -821.672477921543, -821.8512918771854, -821.4266087325345, -821.672477921543, -821.8065883882748, -822.410085488568, -821.3595534991687, -820.5995941876882, -821.1136843101602, -820.6890011655095, -820.6666494210541, -819.8843383651183, -820.3537249986798, -820.2419662764033, -821.5830709437217, -820.9795738434284, -820.286669765314, -820.8454633766966, -819.9960970873949, -819.2137860314591, -819.347896498191, -819.7278761539312, -821.1807395435262, -821.1136843101602, -821.605422688177, -822.3877337441128, -822.1418645551043, -822.0301058328279, -821.8065883882748, -821.4713122214451, -823.0135825888614, -823.0135825888614, -821.4713122214451, -821.9854023439173, -821.9406988550066, -822.477140721934, -823.0806378222272, -822.2312715329256, -822.0301058328279, -822.8124168887636, -822.410085488568, -820.9125186100625, -822.2312715329256, -822.7230099109423, -822.9688790999508, -822.4994924663893, -823.1029895666826, -823.5053209668781, -822.4994924663893, -822.186568044015, -821.8065883882748, -819.6161174316546, -819.0796755647273, -817.7832743863195, -818.1632540420597, -818.5879371867105, -819.7502278983865, -820.9125186100625, -822.7006581664871, -822.7230099109423, -823.0135825888614, -822.7230099109423, -823.4159139890569, -822.1418645551043, -822.1418645551043, -821.6277744326323, -821.9630505994619, -821.2254430324368, -822.2536232773809, -822.5665476997552, -822.1642162995597, -822.5888994442105, -822.1642162995597, -822.3206785107468, -823.058286077772, -822.0077540883725, -822.0301058328279, -823.3935622446015, -822.477140721934, -822.2536232773809, -823.1253413111378, -822.6783064220317, -822.9688790999508, -823.281803522325, -824.4217424895457, -824.0641145782608, -823.058286077772, -823.3488587556909, -823.3488587556909, -823.3041552667803, -823.63943143361, -823.4829692224228, -823.862948878163, -822.6336029331211, -822.2312715329256, -821.9630505994619, -822.3430302552022, -822.5665476997552, -823.2371000334144, -823.3041552667803, -822.186568044015, -822.5888994442105, -822.7677133998529, -823.4382657335121, -823.9076523670736, -822.7677133998529, -823.3712105001463, -823.1476930555932, -821.895995366096, -822.7900651443083, -822.9018238665848, -822.5888994442105, -822.3430302552022, -822.2536232773809, -822.0077540883725, -822.3430302552022, -821.9406988550066, -822.8347686332189, -823.7511901558864, -824.2652802783585, -823.5276727113334, -823.4159139890569, -823.8405971337077, -823.4159139890569, -824.6229081896435, -824.73466691192, -823.2371000334144, -824.0417628338055], [-1105.0255423814706, -1105.047894125926, -1104.913783659194, -1104.0197138809817, -1104.5338040034537, -1106.0537226264146, -1105.785501692951, -1104.1538243477137, -1105.6066877373084, -1105.070245870381, -1103.7738446919734, -1105.8078534374063, -1104.4220452811774, -1104.042065625437, -1104.913783659194, -1104.8020249369174, -1105.3161150593896, -1105.785501692951, -1105.9866673930487, -1104.3102865589008, -1103.2150510805907, -1102.8797749137611, -1104.0197138809817, -1103.7067894586075, -1103.7067894586075, -1104.4891005145432, -1104.26558306999, -1104.109120858803, -1103.7738446919734, -1102.1868708356465, -1103.304458058412, -1103.6397342252415, -1102.946830147127, -1102.79036793594, -1103.0362371249482, -1103.4162167806885, -1102.9915336360377, -1103.8632516697946, -1103.0362371249482, -1102.8797749137611, -1103.7291412030627, -1103.5503272474202, -1103.5726789918756, -1104.243231325535, -1104.6008592368198, -1104.1761760921688, -1104.2208795810795, -1102.7680161914845, -1103.6620859696968, -1105.6513912262192, -1103.4162167806885, -1103.7067894586075, -1104.6679144701857, -1103.7738446919734, -1104.4443970256325, -1104.6008592368198, -1104.8914319147386, -1105.047894125926, -1103.8408999253393, -1104.9808388925599, -1104.2208795810795, -1103.3491615473226, -1103.527975502965, -1105.4055220372109, -1105.3384668038448, -1104.6679144701857, -1106.6125162377973, -1105.7407982040404, -1103.6397342252415, -1105.785501692951, -1105.0031906370152, -1103.527975502965, -1106.210184837602, -1107.2607168270013, -1105.6513912262192, -1106.5007575155207, -1106.232536582057, -1105.7631499484958, -1105.8749086707721, -1106.4560540266102, -1106.210184837602, -1106.0313708819594, -1106.2772400709678, -1106.0537226264146, -1105.271411570479, -1106.1207778597807, -1105.9196121596829, -1105.047894125926, -1105.427873781666, -1106.7913301934398, -1104.6008592368198, -1104.9361354036494, -1104.5338040034537, -1104.8243766813728, -1105.6737429706745, -1105.6737429706745, -1104.1538243477137, -1103.7067894586075, -1103.88560341425, -1104.0867691143476, -1104.4667487700879, -1103.7291412030627, -1105.6513912262192, -1105.494929015032, -1106.4560540266102, -1105.5172807594872, -1104.4220452811774, -1103.7067894586075, -1105.2267080815684, -1105.9419639041382, -1106.07607437087, -1106.3442953043336, -1105.8078534374063, -1104.1761760921688, -1104.8020249369174, -1104.7796731924623, -1104.109120858803, -1103.4385685251439, -1103.9526586476159, -1102.7680161914845, -1103.2150510805907, -1104.042065625437, -1104.2879348144454, -1104.3326383033561, -1104.399693536722, -1103.88560341425, -1102.7680161914845, -1102.142167346736, -1104.3102865589008, -1105.3161150593896, -1105.204356337113, -1105.1596528482023, -1105.9643156485934, -1105.3161150593896, -1104.9808388925599, -1104.1538243477137, -1104.5114522589986, -1105.0925976148364, -1104.7126179590962, -1104.8914319147386, -1105.2937633149343, -1105.271411570479, -1103.751492947518, -1104.3773417922666, -1104.1314726032583, -1103.6397342252415, -1103.4832720140544, -1103.080940613859, -1103.0362371249482, -1103.6173824807863, -1105.494929015032, -1105.561984248398, -1104.9361354036494, -1105.6960947151297, -1106.0984261153253, -1106.880737171261, -1105.785501692951, -1105.7631499484958, -1105.9419639041382, -1104.8690801702835, -1105.3161150593896, -1104.7349697035515, -1104.3102865589008, -1104.9584871481047, -1104.4891005145432, -1103.9303069031605, -1102.8127196803953, -1103.6620859696968, -1105.271411570479, -1105.427873781666, -1105.0255423814706, -1103.9303069031605, -1105.7631499484958, -1106.0984261153253, -1104.3102865589008, -1104.757321448007, -1105.047894125926, -1104.6679144701857, -1105.1373011037472, -1105.6960947151297, -1105.6513912262192, -1104.4891005145432, -1105.8749086707721, -1105.785501692951, -1104.6008592368198, -1105.852556926317, -1104.7349697035515, -1104.913783659194, -1104.8243766813728, -1105.561984248398, -1105.1820045926577, -1103.9303069031605, -1104.3549900478113, -1105.6513912262192, -1104.6455627257303, -1103.6397342252415, -1104.4891005145432, -1104.6455627257303, -1104.0867691143476, -1103.8408999253393, -1104.8243766813728, -1105.3831702927555, -1105.5843359928533, -1105.4502255261214, -1104.556155747909, -1104.7796731924623, -1105.3831702927555, -1104.4220452811774, -1104.9584871481047, -1105.9866673930487, -1106.2995918154231, -1105.1373011037472, -1104.0867691143476, -1104.3549900478113, -1103.3715132917778, -1102.5444987469314, -1102.723312702574, -1104.3549900478113, -1103.818548180884, -1101.9186499021828, -1103.6397342252415, -1103.3268098028673, -1103.0362371249482, -1102.5444987469314, -1102.142167346736, -1102.4550917691101, -1103.6397342252415, -1103.5726789918756, -1102.7456644470292, -1102.7009609581187, -1103.304458058412, -1103.6844377141522, -1103.5503272474202, -1101.628077224264, -1102.8574231693058, -1103.4832720140544, -1102.8350714248504, -1102.2092225801018, -1102.432740024655, -1102.0974638578252, -1102.9915336360377, -1102.0304086244594, -1102.07511211337, -1102.0527603689147, -1100.8010626794176, -1102.0974638578252, -1103.0138853804929, -1103.080940613859, -1105.204356337113, -1104.6679144701857, -1102.1645190911913, -1102.365684791289, -1102.6115539802975, -1101.8962981577276, -1101.7398359465403, -1101.2257458240683, -1101.0245801239705, -1101.8739464132723, -1101.7398359465403, -1101.851594668817, -1102.7456644470292, -1103.527975502965, -1103.1479958472248, -1102.6339057247528, -1103.7961964364288, -1105.047894125926, -1103.0362371249482, -1102.07511211337, -1102.008056880004, -1102.946830147127, -1103.1479958472248, -1104.6679144701857, -1102.9915336360377, -1102.7009609581187, -1101.7398359465403, -1101.650428968719, -1102.2092225801018, -1102.5221470024762, -1102.2539260690126, -1103.3491615473226, -1104.4220452811774, -1102.9915336360377, -1102.4774435135655, -1103.9750103920712, -1103.0585888694036, -1103.8632516697946, -1104.1985278366242, -1102.589202235842, -1102.07511211337, -1102.4774435135655, -1101.9633533910935, -1100.5775452348644, -1102.8574231693058, -1103.8632516697946, -1103.2150510805907, -1103.103292358314, -1103.1479958472248, -1103.3268098028673, -1103.5503272474202, -1102.8574231693058, -1102.8797749137611, -1103.1256441027695, -1104.2208795810795, -1102.3433330468338, -1101.628077224264, -1101.8068911799064, -1103.3491615473226, -1103.237402825046, -1101.9857051355489, -1102.6339057247528, -1102.1868708356465, -1102.0304086244594, -1101.1139871017917, -1101.0916353573366, -1101.4716150130766, -1101.7621876909957, -1101.7621876909957, -1101.337504546345, -1103.6397342252415, -1102.656257469208, -1102.589202235842, -1103.1926993361353, -1102.7680161914845, -1102.2539260690126, -1102.9915336360377, -1102.2539260690126, -1101.851594668817, -1101.5163185019874, -1101.3151528018896, -1101.3822080352554, -1102.2315743245572, -1100.5104900014985, -1101.4492632686215, -1102.8574231693058, -1101.1139871017917, -1100.823414423873, -1100.6446004682305, -1100.7116557015963, -1101.0692836128812, -1100.7340074460517, -1100.3540277903114, -1101.2480975685237, -1101.0916353573366, -1102.2315743245572, -1102.6339057247528, -1101.2480975685237, -1100.7563591905068, -1101.5833737353532, -1102.5221470024762, -1102.2315743245572, -1102.7456644470292, -1101.628077224264, -1101.5163185019874, -1101.5833737353532, -1101.3151528018896, -1102.1868708356465, -1101.628077224264, -1101.0245801239705, -1100.97987663506, -1101.1810423351578, -1100.5551934904092, -1100.5998969793197, -1100.4881382570431, -1100.97987663506, -1102.07511211337, -1102.2092225801018, -1101.3598562908003, -1101.136338846247, -1100.845766168328, -1101.0916353573366, -1102.6786092136633, -1101.9857051355489, -1101.5833737353532, -1102.7456644470292, -1102.589202235842, -1101.3151528018896, -1099.7505306900182, -1099.8622894122946, -1101.0916353573366, -1101.3598562908003, -1101.3598562908003, -1100.3540277903114, -1101.1586905907025, -1101.0469318684259, -1100.7340074460517, -1101.6951324576298, -1100.0634551123924, -1100.9575248906046, -1101.1810423351578, -1101.3598562908003, -1102.0974638578252, -1101.4716150130766, -1102.2539260690126, -1102.5221470024762, -1102.5221470024762, -1102.589202235842, -1101.3598562908003, -1101.4045597797108, -1101.5833737353532, -1100.6446004682305, -1099.6387719677416, -1100.622248723775, -1101.337504546345, -1100.7563591905068, -1100.9128214016941, -1100.8010626794176, -1100.4881382570431, -1100.0187516234819, -1101.3822080352554, -1101.784539435451, -1100.5775452348644, -1100.7340074460517, -1101.4045597797108, -1100.4210830236773, -1101.9186499021828, -1102.2539260690126, -1102.9915336360377, -1102.3433330468338, -1100.7787109349622, -1100.5328417459539, -1100.7563591905068, -1101.4045597797108, -1101.8739464132723, -1101.4269115241661, -1101.8739464132723, -1102.008056880004, -1100.97987663506, -1101.0916353573366, -1101.4045597797108, -1101.6727807131745, -1100.6669522126856, -1101.0692836128812, -1101.1586905907025, -1100.7787109349622, -1101.1810423351578, -1100.97987663506, -1100.9128214016941, -1100.97987663506, -1100.7563591905068, -1101.0022283795154, -1102.7009609581187, -1102.5221470024762, -1101.8962981577276, -1101.9410016466381, -1102.365684791289, -1101.1586905907025, -1101.337504546345, -1102.298629557923, -1102.6115539802975, -1102.9244784026716, -1102.2539260690126, -1102.365684791289, -1100.8681179127834, -1102.0527603689147, -1103.2150510805907, -1102.8574231693058, -1103.7291412030627, -1102.4103882801996, -1102.0527603689147, -1103.3491615473226, -1101.784539435451, -1102.6339057247528, -1103.2597545695014, -1102.9915336360377, -1102.9691818915824, -1101.4045597797108, -1100.1305103457582, -1100.5775452348644, -1100.97987663506, -1101.1810423351578, -1101.3151528018896, -1102.5668504913867, -1101.650428968719, -1101.4045597797108, -1100.97987663506, -1100.2646208124902, -1100.7563591905068, -1099.9516963901158, -1101.9633533910935, -1103.88560341425, -1103.3268098028673, -1103.5503272474202, -1103.527975502965, -1103.8408999253393, -1103.0585888694036, -1102.07511211337, -1103.304458058412, -1103.6620859696968, -1104.0197138809817, -1103.8632516697946, -1103.3938650362331, -1104.6008592368198, -1105.3161150593896, -1105.3384668038448, -1105.0031906370152, -1102.4774435135655, -1102.4550917691101, -1103.5726789918756, -1103.7738446919734, -1103.3715132917778, -1101.628077224264, -1101.1586905907025, -1100.7563591905068, -1101.136338846247, -1101.8292429243616, -1102.9915336360377, -1103.6397342252415, -1102.9915336360377, -1101.9857051355489, -1102.6339057247528, -1103.7067894586075, -1103.3268098028673, -1103.3268098028673, -1103.5056237585097, -1102.9691818915824, -1102.2539260690126, -1103.7067894586075, -1104.6008592368198, -1103.2821063139565, -1102.3433330468338, -1102.1868708356465, -1102.1645190911913, -1101.270449312979, -1101.628077224264, -1102.2762778134677, -1101.7621876909957, -1101.4269115241661, -1101.1139871017917, -1102.2539260690126, -1101.784539435451, -1101.7621876909957, -1101.7621876909957, -1101.0916353573366, -1101.8739464132723, -1102.8574231693058, -1103.1926993361353, -1102.07511211337, -1102.2762778134677, -1103.2597545695014, -1103.1926993361353, -1103.0362371249482, -1102.432740024655, -1101.3151528018896, -1100.398731279222, -1099.5717167343757, -1101.0692836128812, -1101.2257458240683, -1102.3433330468338, -1102.432740024655, -1102.3209813023784, -1102.3433330468338, -1101.9633533910935, -1101.5833737353532, -1103.1926993361353, -1101.6951324576298, -1100.3093243014007, -1101.0916353573366, -1100.1528620902136, -1100.622248723775, -1100.7340074460517, -1100.1528620902136, -1100.3763795347668, -1100.5328417459539, -1101.628077224264, -1100.7116557015963, -1100.4210830236773, -1100.5775452348644, -1100.9351731461493, -1101.851594668817, -1101.2480975685237, -1100.5104900014985, -1100.8010626794176, -1101.2928010574342, -1100.465786512588, -1101.0022283795154, -1101.5163185019874, -1100.4434347681326, -1101.650428968719, -1101.9186499021828, -1102.0527603689147, -1101.6057254798086, -1101.493966757532, -1101.337504546345, -1102.589202235842, -1101.8739464132723, -1102.2539260690126, -1103.7067894586075, -1102.365684791289, -1102.656257469208, -1103.2821063139565, -1103.1479958472248, -1104.109120858803, -1104.2879348144454, -1102.7009609581187, -1101.5610219908979, -1101.8068911799064, -1101.6951324576298, -1101.8739464132723, -1102.7009609581187, -1102.4103882801996, -1103.2150510805907, -1102.5221470024762, -1102.9244784026716, -1103.0585888694036, -1102.5444987469314, -1103.103292358314, -1102.8797749137611, -1102.79036793594, -1102.142167346736, -1102.298629557923, -1102.1868708356465, -1102.142167346736, -1101.7174842020852, -1102.4997952580209, -1101.5386702464427, -1102.7456644470292, -1102.3880365357443, -1102.8574231693058, -1102.3209813023784, -1101.0692836128812, -1101.784539435451, -1102.0527603689147, -1102.8797749137611, -1102.7680161914845, -1102.0974638578252, -1101.628077224264, -1102.2539260690126, -1103.1926993361353, -1102.8127196803953, -1103.1926993361353, -1103.8408999253393, -1102.9915336360377, -1102.07511211337, -1102.5668504913867, -1101.650428968719, -1101.5833737353532, -1101.1810423351578, -1101.203394079613, -1101.5833737353532, -1101.8962981577276, -1102.4103882801996, -1101.4045597797108, -1100.6446004682305, -1100.7116557015963, -1099.7281789455628, -1101.1586905907025, -1100.3093243014007, -1100.398731279222, -1101.1810423351578, -1100.7116557015963, -1099.9740481345711, -1099.1917370786355, -1100.7787109349622, -1101.0916353573366, -1100.2646208124902, -1099.527013245465, -1099.1917370786355, -1098.5658882338869, -1099.4823097565545, -1099.9516963901158, -1098.9905713785377, -1098.9011644007164, -1099.6387719677416, -1100.2869725569456, -1100.1305103457582, -1100.465786512588, -1100.398731279222, -1100.2646208124902, -1099.6164202232862, -1099.817585923384, -1101.2480975685237, -1100.689303957141, -1099.9740481345711, -1100.1305103457582, -1098.8341091673506, -1097.6271149667639, -1098.3870742782444, -1098.230612067057, -1099.0799783563589, -1098.655295211708, -1099.5046615010097, -1100.465786512588, -1099.0799783563589, -1099.1246818452696, -1098.6329434672527, -1098.7894056784398, -1099.370551034278, -1098.9905713785377, -1099.4376062676438, -1099.9069929012053, -1099.1246818452696, -1098.230612067057, -1098.878812656261, -1100.175213834669, -1100.9351731461493, -1101.7174842020852, -1101.2257458240683, -1100.7787109349622, -1100.823414423873, -1100.175213834669, -1100.1305103457582, -1101.6057254798086, -1102.1868708356465, -1101.2257458240683, -1101.6727807131745, -1101.650428968719, -1100.2422690680348, -1101.203394079613, -1101.4492632686215, -1100.9575248906046, -1099.4152545231884, -1100.5775452348644, -1099.661123712197, -1100.7563591905068, -1100.6669522126856, -1099.5046615010097, -1099.661123712197, -1099.683475456652, -1099.8622894122946, -1099.6387719677416, -1099.9069929012053, -1100.5775452348644, -1100.3093243014007, -1101.0692836128812, -1100.97987663506, -1101.203394079613, -1099.012923122993, -1099.8399376678394, -1099.9293446456606, -1098.2753155559678, -1098.0070946225042, -1098.0517981114147, -1099.1917370786355, -1098.8341091673506, -1098.7447021895293, -1098.4094260226996, -1097.045969610926, -1098.1635568336912, -1098.9011644007164, -1099.7505306900182, -1098.9682196340823, -1098.8341091673506, -1098.9458678896272, -1099.4599580120992, -1098.9458678896272, -1098.0965016003254, -1098.1188533447807, -1099.370551034278, -1099.3929027787333, -1099.8622894122946]]
