['beep', 0.0, 0.0, 0.0, 0.0, 0.0, 0.0, 0.0, 0.0]
['beep', 0.0, 1150.2431214145568, 0.0, 0.0, 0.0, 0.0, -1247.3390993284106, 0.0]
['beep', 0.0, 1149.3490516363445, 0.0, 0.0, 0.0, 0.0, -1246.19916036119, 0.0]
['beep', 0.0, 1148.9914237250596, 0.0, 0.0, 0.0, 0.0, -1247.1602853727682, 0.0]
['beep', 0.0, 1149.75138303654, 0.0, 0.0, 0.0, 0.0, -1245.4839045386202, 0.0]
['beep', 0.0, 1149.5055138475316, 0.0, 0.0, 0.0, 0.0, -1245.5733115164414, 0.0]
['beep', 0.0, 1149.4831621030762, 0.0, 0.0, 0.0, 0.0, -1248.7249074846397, 0.0]
['beep', 0.0, 1148.8349615138725, 0.0, 0.0, 0.0, 0.0, -1248.4343348067207, 0.0]
['beep', 0.0, 1147.7620777800178, 0.0, 0.0, 0.0, 0.0, -1246.8920644393045, 0.0]
['beep', 0.0, 1146.8680080018055, 0.0, 0.0, 0.0, 0.0, -1245.6403667498073, 0.0]
['beep', 0.0, 1148.1420574357578, 0.0, 0.0, 0.0, 0.0, -1248.166113873257, 0.0]
['beep', 0.0, 1148.4326301136769, 0.0, 0.0, 0.0, 0.0, -1249.037831907014, 0.0]
['beep', 0.0, 1148.4102783692215, 0.0, 0.0, 0.0, 0.0, -1248.6131487623632, 0.0]
['beep', 0.0, 1148.4773336025876, 0.0, 0.0, 0.0, 0.0, -1248.3672795733548, 0.0]
['beep', 0.0, 1148.522037091498, 0.0, 0.0, 0.0, 0.0, -1247.584968517419, 0.0]
['beep', 0.0, 1146.8233045128948, 0.0, 0.0, 0.0, 0.0, -1247.0932301394023, 0.0]
['beep', 0.0, 1147.8291330133836, 0.0, 0.0, 0.0, 0.0, -1247.5402650285084, 0.0]
['beep', 0.0, 1147.851484757839, 0.0, 0.0, 0.0, 0.0, -1248.7025557401844, 0.0]
['beep', 0.0, 1147.4491533576434, 0.0, 0.0, 0.0, 0.0, -1248.0767068954358, 0.0]
['beep', 0.0, 1149.1925894251574, 0.0, 0.0, 0.0, 0.0, -1248.8590179513715, 0.0]
['beep', 0.0, 1149.393755125255, 0.0, 0.0, 0.0, 0.0, -1248.2778725955336, 0.0]
['beep', 0.0, 1150.0196039700036, 0.0, 0.0, 0.0, 0.0, -1246.6685469947515, 0.0]
['beep', 0.0, 1149.9525487366377, 0.0, 0.0, 0.0, 0.0, -1247.8308377064275, 0.0]
['beep', 0.0, 1150.3101766479226, 0.0, 0.0, 0.0, 0.0, -1247.1826371172235, 0.0]
['beep', 0.0, 1149.5055138475316, 0.0, 0.0, 0.0, 0.0, -1247.3167475839552, 0.0]
['beep', 0.0, 1148.1644091802132, 0.0, 0.0, 0.0, 0.0, -1246.6014917613854, 0.0]
['beep', 0.0, 1148.9020167472383, 0.0, 0.0, 0.0, 0.0, -1246.8250092059386, 0.0]
['beep', 0.0, 1149.974900481093, 0.0, 0.0, 0.0, 0.0, -1251.3177098414553, 0.0]
['beep', 0.0, 1145.8845312457718, 0.0, 0.0, 0.0, 0.0, -1252.5023522975866, 0.0]
['beep', 0.0, 1141.5482928214424, 0.0, 0.0, 0.0, 0.0, -1254.0446226650029, 0.0]
['beep', 0.0, 1149.818438269906, 0.0, 0.0, 0.0, 0.0, -1253.5305325425306, 0.0]
['beep', 0.0, 1159.3626331523221, 0.0, 0.0, 0.0, 0.0, -1266.5168960710641, 0.0]
['beep', 0.0, 1167.073984989403, 0.0, 0.0, 0.0, 0.0, -1282.5878003344299, 0.0]
['beep', 0.0, 1173.0419007589699, 0.0, 0.0, 0.0, 0.0, -1296.3117714299883, 0.0]
['beep', 0.0, 1180.5297351514978, 0.0, 0.0, 0.0, 0.0, -1310.3039634590107, 0.0]
['beep', 0.0, 1189.0233980445146, 0.0, 0.0, 0.0, 0.0, -1324.3185072324882, 0.0]
['beep', 0.0, 1197.9640958266373, 0.0, 0.0, 0.0, 0.0, -1337.4613329722088, 0.0]
['beep', 0.0, 1204.9378400966932, 0.0, 0.0, 0.0, 0.0, -1351.0288418565801, 0.0]
['beep', 0.0, 1209.6317064323075, 0.0, 0.0, 0.0, 0.0, -1363.3893565403648, 0.0]
['beep', 0.0, 1211.6657151777406, 0.0, 0.0, 0.0, 0.0, -1374.0511386455464, 0.0]
['beep', 0.0, 1217.0301338470142, 0.0, 0.0, 0.0, 0.0, -1381.8295457159932, 0.0]
['beep', 0.0, 1221.5898897158968, 0.0, 0.0, 0.0, 0.0, -1387.9539236967473, 0.0]
['beep', 0.0, 1227.4236950187321, 0.0, 0.0, 0.0, 0.0, -1393.675970277306, 0.0]
['beep', 0.0, 1232.743410199095, 0.0, 0.0, 0.0, 0.0, -1396.358179611943, 0.0]
['beep', 0.0, 1236.520855012042, 0.0, 0.0, 0.0, 0.0, -1401.5884878144848, 0.0]
['beep', 0.0, 1234.620956733341, 0.0, 0.0, 0.0, 0.0, -1404.5612698270404, 0.0]
['beep', 0.0, 1232.1175613543464, 0.0, 0.0, 0.0, 0.0, -1407.3552378839538, 0.0]
['beep', 0.0, 1232.7881136880058, 0.0, 0.0, 0.0, 0.0, -1407.4669966062304, 0.0]
['beep', 0.0, 1233.324555554933, 0.0, 0.0, 0.0, 0.0, -1406.5729268280181, 0.0]
['beep', 0.0, 1233.6151282328522, 0.0, 0.0, 0.0, 0.0, -1402.549612826063, 0.0]
['beep', 0.0, 1233.9280526552263, 0.0, 0.0, 0.0, 0.0, -1399.80034825806, 0.0]
['beep', 0.0, 1233.3022038104777, 0.0, 0.0, 0.0, 0.0, -1400.8061767585489, 0.0]
['beep', 0.0, 1233.4363142772097, 0.0, 0.0, 0.0, 0.0, -1402.6613715483395, 0.0]
['beep', 0.0, 1234.8668259223493, 0.0, 0.0, 0.0, 0.0, -1403.3095721375432, 0.0]
['beep', 0.0, 1234.9562329001706, 0.0, 0.0, 0.0, 0.0, -1404.6506768048616, 0.0]
['beep', 0.0, 1234.9115294112598, 0.0, 0.0, 0.0, 0.0, -1404.8965459938702, 0.0]
['beep', 0.0, 1234.7103637111622, 0.0, 0.0, 0.0, 0.0, -1404.002476215658, 0.0]
['beep', 0.0, 1235.6938404671957, 0.0, 0.0, 0.0, 0.0, -1404.1142349379343, 0.0]
['beep', 0.0, 1235.291509067, 0.0, 0.0, 0.0, 0.0, -1404.5612698270404, 0.0]
['beep', 0.0, 1235.8950061672933, 0.0, 0.0, 0.0, 0.0, -1407.4669966062304, 0.0]
['beep', 0.0, 1235.2691573225447, 0.0, 0.0, 0.0, 0.0, -1408.5398803400851, 0.0]
['beep', 0.0, 1235.4032677892767, 0.0, 0.0, 0.0, 0.0, -1409.545708840574, 0.0]
['beep', 0.0, 1236.5655585009526, 0.0, 0.0, 0.0, 0.0, -1409.4786536072081, 0.0]
['beep', 0.0, 1235.649136978285, 0.0, 0.0, 0.0, 0.0, -1411.646772819373, 0.0]
['beep', 0.0, 1235.1573986002684, 0.0, 0.0, 0.0, 0.0, -1413.8819472649036, 0.0]
['beep', 0.0, 1234.6656602222515, 0.0, 0.0, 0.0, 0.0, -1412.4067321308532, 0.0]
['beep', 0.0, 1235.6714887227404, 0.0, 0.0, 0.0, 0.0, -1413.2784501646104, 0.0]
['beep', 0.0, 1235.6714887227404, 0.0, 0.0, 0.0, 0.0, -1415.6924385657835, 0.0]
['beep', 0.0, 1234.9562329001706, 0.0, 0.0, 0.0, 0.0, -1416.4076943883533, 0.0]
['beep', 0.0, 1236.3196893119443, 0.0, 0.0, 0.0, 0.0, -1416.4076943883533, 0.0]
['beep', 0.0, 1235.649136978285, 0.0, 0.0, 0.0, 0.0, -1416.8100257885487, 0.0]
['beep', 0.0, 1234.8221224334386, 0.0, 0.0, 0.0, 0.0, -1418.128778711412, 0.0]
['beep', 0.0, 1234.0845148664137, 0.0, 0.0, 0.0, 0.0, -1419.2016624452667, 0.0]
['beep', 0.0, 1234.4644945221537, 0.0, 0.0, 0.0, 0.0, -1418.2628891781437, 0.0]
['beep', 0.0, 1235.000936389081, 0.0, 0.0, 0.0, 0.0, -1418.1064269669566, 0.0]
['beep', 0.0, 1234.553901499975, 0.0, 0.0, 0.0, 0.0, -1417.7487990556717, 0.0]
['beep', 0.0, 1235.3809160448213, 0.0, 0.0, 0.0, 0.0, -1418.1734822003225, 0.0]
['beep', 0.0, 1235.4032677892767, 0.0, 0.0, 0.0, 0.0, -1418.1958339447779, 0.0]
['beep', 0.0, 1234.6656602222515, 0.0, 0.0, 0.0, 0.0, -1415.6700868213281, 0.0]
['beep', 0.0, 1234.330384055422, 0.0, 0.0, 0.0, 0.0, -1415.2677554211325, 0.0]
['beep', 0.0, 1233.7715904440392, 0.0, 0.0, 0.0, 0.0, -1412.9431739977806, 0.0]
['beep', 0.0, 1235.2021020891789, 0.0, 0.0, 0.0, 0.0, -1414.127816453912, 0.0]
['beep', 0.0, 1235.805599189472, 0.0, 0.0, 0.0, 0.0, -1414.6195548319288, 0.0]
['beep', 0.0, 1236.2079305896677, 0.0, 0.0, 0.0, 0.0, -1414.3960373873756, 0.0]
['beep', 0.0, 1236.453799778676, 0.0, 0.0, 0.0, 0.0, -1415.1336449544008, 0.0]
['beep', 0.0, 1234.5762532444303, 0.0, 0.0, 0.0, 0.0, -1414.4407408762863, 0.0]
['beep', 0.0, 1233.2127968326565, 0.0, 0.0, 0.0, 0.0, -1416.027714732613, 0.0]
['beep', 0.0, 1233.168093343746, 0.0, 0.0, 0.0, 0.0, -1416.4747496217192, 0.0]
['beep', 0.0, 1233.391610788299, 0.0, 0.0, 0.0, 0.0, -1415.223051932222, 0.0]
['beep', 0.0, 1234.1739218442349, 0.0, 0.0, 0.0, 0.0, -1415.6924385657835, 0.0]
['beep', 0.0, 1234.3974392887878, 0.0, 0.0, 0.0, 0.0, -1417.3017641665656, 0.0]
['beep', 0.0, 1235.7161922116509, 0.0, 0.0, 0.0, 0.0, -1418.352296155965, 0.0]
['beep', 0.0, 1236.2526340785782, 0.0, 0.0, 0.0, 0.0, -1417.5699851000293, 0.0]
['beep', 0.0, 1235.6267852338297, 0.0, 0.0, 0.0, 0.0, -1416.9664879997358, 0.0]
['beep', 0.0, 1235.8726544228382, 0.0, 0.0, 0.0, 0.0, -1416.5194531106297, 0.0]
['beep', 0.0, 1236.5432067564973, 0.0, 0.0, 0.0, 0.0, -1417.033543233102, 0.0]
['beep', 0.0, 1237.6384422348074, 0.0, 0.0, 0.0, 0.0, -1415.7147903102386, 0.0]
['beep', 0.0, 1237.9513666571816, 0.0, 0.0, 0.0, 0.0, -1415.2007001877666, 0.0]
['beep', 0.0, 1237.772552701539, 0.0, 0.0, 0.0, 0.0, -1416.9664879997358, 0.0]
['beep', 0.0, 1236.9231864122376, 0.0, 0.0, 0.0, 0.0, -1418.1958339447779, 0.0]
['beep', 0.0, 1234.6433084777962, 0.0, 0.0, 0.0, 0.0, -1418.2628891781437, 0.0]
['beep', 0.0, 1233.7268869551285, 0.0, 0.0, 0.0, 0.0, -1417.9052612668588, 0.0]
['beep', 0.0, 1237.3702213013437, 0.0, 0.0, 0.0, 0.0, -1416.4076943883533, 0.0]
['beep', 0.0, 1241.2147213476565, 0.0, 0.0, 0.0, 0.0, -1415.1559966988561, 0.0]
['beep', 0.0, 1245.3497940718883, 0.0, 0.0, 0.0, 0.0, -1416.0724182215235, 0.0]
['beep', 0.0, 1244.5227795270418, 0.0, 0.0, 0.0, 0.0, -1419.3804764009092, 0.0]
['beep', 0.0, 1242.9581574151705, 0.0, 0.0, 0.0, 0.0, -1418.1734822003225, 0.0]
['beep', 0.0, 1242.7569917150727, 0.0, 0.0, 0.0, 0.0, -1417.771150800127, 0.0]
['beep', 0.0, 1242.0640876369582, 0.0, 0.0, 0.0, 0.0, -1417.5699851000293, 0.0]
['beep', 0.0, 1242.6899364817068, 0.0, 0.0, 0.0, 0.0, -1418.7769793006157, 0.0]
['beep', 0.0, 1241.393535303299, 0.0, 0.0, 0.0, 0.0, -1419.5816421010068, 0.0]
['beep', 0.0, 1240.7900382030057, 0.0, 0.0, 0.0, 0.0, -1418.933441511803, 0.0]
['beep', 0.0, 1241.3041283254777, 0.0, 0.0, 0.0, 0.0, -1419.3357729119984, 0.0]
['beep', 0.0, 1241.684107981218, 0.0, 0.0, 0.0, 0.0, -1420.1404357123895, 0.0]
['beep', 0.0, 1242.3099568259665, 0.0, 0.0, 0.0, 0.0, -1419.7157525677387, 0.0]
['beep', 0.0, 1242.4440672926985, 0.0, 0.0, 0.0, 0.0, -1420.6321740904064, 0.0]
['beep', 0.0, 1242.6005295038856, 0.0, 0.0, 0.0, 0.0, -1423.1132177249453, 0.0]
['beep', 0.0, 1242.332308570422, 0.0, 0.0, 0.0, 0.0, -1422.1520927133672, 0.0]
['beep', 0.0, 1241.2817765810223, 0.0, 0.0, 0.0, 0.0, -1423.9178805253364, 0.0]
['beep', 0.0, 1242.7122882261622, 0.0, 0.0, 0.0, 0.0, -1425.2813369371102, 0.0]
['beep', 0.0, 1242.645232992796, 0.0, 0.0, 0.0, 0.0, -1423.448493891775, 0.0]
['beep', 0.0, 1241.549997514486, 0.0, 0.0, 0.0, 0.0, -1423.5602526140515, 0.0]
['beep', 0.0, 1241.7064597256733, 0.0, 0.0, 0.0, 0.0, -1424.4990258811745, 0.0]
['beep', 0.0, 1242.2876050815112, 0.0, 0.0, 0.0, 0.0, -1424.2308049477108, 0.0]
['beep', 0.0, 1242.9581574151705, 0.0, 0.0, 0.0, 0.0, -1426.0412962485907, 0.0]
['beep', 0.0, 1242.131142870324, 0.0, 0.0, 0.0, 0.0, -1425.6836683373058, 0.0]
['beep', 0.0, 1241.4829422811201, 0.0, 0.0, 0.0, 0.0, -1424.5660811145403, 0.0]
['beep', 0.0, 1242.4440672926985, 0.0, 0.0, 0.0, 0.0, -1425.415447403842, 0.0]
['beep', 0.0, 1240.231244591623, 0.0, 0.0, 0.0, 0.0, -1425.5719096150292, 0.0]
['beep', 0.0, 1240.9241486697374, 0.0, 0.0, 0.0, 0.0, -1424.5213776256296, 0.0]
['beep', 0.0, 1240.4994655250866, 0.0, 0.0, 0.0, 0.0, -1423.6496595918727, 0.0]
['beep', 0.0, 1239.359526557866, 0.0, 0.0, 0.0, 0.0, -1423.0014590026688, 0.0]
['beep', 0.0, 1239.583044002419, 0.0, 0.0, 0.0, 0.0, -1424.4096189033532, 0.0]
['beep', 0.0, 1239.359526557866, 0.0, 0.0, 0.0, 0.0, -1424.9013572813699, 0.0]
['beep', 0.0, 1240.8347416919162, 0.0, 0.0, 0.0, 0.0, -1424.6331363479062, 0.0]
['beep', 0.0, 1240.3206515694442, 0.0, 0.0, 0.0, 0.0, -1423.448493891775, 0.0]
['beep', 0.0, 1239.940671913704, 0.0, 0.0, 0.0, 0.0, -1422.9791072582136, 0.0]
['beep', 0.0, 1242.332308570422, 0.0, 0.0, 0.0, 0.0, -1423.6273078474173, 0.0]
['beep', 0.0, 1241.7064597256733, 0.0, 0.0, 0.0, 0.0, -1423.7614183141493, 0.0]
['beep', 0.0, 1241.9970324035924, 0.0, 0.0, 0.0, 0.0, -1423.515549125141, 0.0]
['beep', 0.0, 1241.9523289146816, 0.0, 0.0, 0.0, 0.0, -1423.157921213856, 0.0]
['beep', 0.0, 1241.8182184479497, 0.0, 0.0, 0.0, 0.0, -1424.1190462254342, 0.0]
['beep', 0.0, 1241.5052940255755, 0.0, 0.0, 0.0, 0.0, -1423.224976447222, 0.0]
['beep', 0.0, 1241.170017858746, 0.0, 0.0, 0.0, 0.0, -1422.934403769303, 0.0]
['beep', 0.0, 1242.265253337056, 0.0, 0.0, 0.0, 0.0, -1424.3872671588979, 0.0]
['beep', 0.0, 1242.2429015926007, 0.0, 0.0, 0.0, 0.0, -1424.834302048004, 0.0]
['beep', 0.0, 1241.7064597256733, 0.0, 0.0, 0.0, 0.0, -1425.5719096150292, 0.0]
['beep', 0.0, 1242.1534946147794, 0.0, 0.0, 0.0, 0.0, -1423.9849357587022, 0.0]
['beep', 0.0, 1242.5558260149749, 0.0, 0.0, 0.0, 0.0, -1424.4990258811745, 0.0]
['beep', 0.0, 1243.3381370709108, 0.0, 0.0, 0.0, 0.0, -1424.7895985590933, 0.0]
['beep', 0.0, 1243.785171960017, 0.0, 0.0, 0.0, 0.0, -1423.4261421473198, 0.0]
['beep', 0.0, 1245.2827388385224, 0.0, 0.0, 0.0, 0.0, -1423.8508252919705, 0.0]
['beep', 0.0, 1247.6296720063297, 0.0, 0.0, 0.0, 0.0, -1423.9402322697917, 0.0]
['beep', 0.0, 1249.3731080738435, 0.0, 0.0, 0.0, 0.0, -1423.4931973806856, 0.0]
['beep', 0.0, 1249.551922029486, 0.0, 0.0, 0.0, 0.0, -1422.3309066690097, 0.0]
['beep', 0.0, 1247.1379336283128, 0.0, 0.0, 0.0, 0.0, -1421.8615200354482, 0.0]
['beep', 0.0, 1245.7297737276285, 0.0, 0.0, 0.0, 0.0, -1421.123912468423, 0.0]
['beep', 0.0, 1245.1933318607012, 0.0, 0.0, 0.0, 0.0, -1422.5544241135626, 0.0]
['beep', 0.0, 1244.3439655713994, 0.0, 0.0, 0.0, 0.0, -1423.0461624915795, 0.0]
['beep', 0.0, 1244.3663173158548, 0.0, 0.0, 0.0, 0.0, -1420.5874706014956, 0.0]
['beep', 0.0, 1244.3886690603101, 0.0, 0.0, 0.0, 0.0, -1421.705057824261, 0.0]
['beep', 0.0, 1244.7239452271397, 0.0, 0.0, 0.0, 0.0, -1422.3085549245543, 0.0]
['beep', 0.0, 1244.9474626716928, 0.0, 0.0, 0.0, 0.0, -1420.9227467683252, 0.0]
['beep', 0.0, 1244.9474626716928, 0.0, 0.0, 0.0, 0.0, -1422.6661828358392, 0.0]
['beep', 0.0, 1244.1204481268464, 0.0, 0.0, 0.0, 0.0, -1421.7944648020823, 0.0]
['beep', 0.0, 1244.0086894045699, 0.0, 0.0, 0.0, 0.0, -1421.8391682909928, 0.0]
['beep', 0.0, 1244.9921661606033, 0.0, 0.0, 0.0, 0.0, -1423.2696799361324, 0.0]
['beep', 0.0, 1243.7628202155615, 0.0, 0.0, 0.0, 0.0, -1423.6273078474173, 0.0]
['beep', 0.0, 1243.785171960017, 0.0, 0.0, 0.0, 0.0, -1423.224976447222, 0.0]
['beep', 0.0, 1242.5558260149749, 0.0, 0.0, 0.0, 0.0, -1423.381438658409, 0.0]
['beep', 0.0, 1242.6899364817068, 0.0, 0.0, 0.0, 0.0, -1421.0345054906018, 0.0]
['beep', 0.0, 1243.2263783486342, 0.0, 0.0, 0.0, 0.0, -1421.3027264240654, 0.0]
['beep', 0.0, 1243.2710818375447, 0.0, 0.0, 0.0, 0.0, -1423.5602526140515, 0.0]
['beep', 0.0, 1243.2263783486342, 0.0, 0.0, 0.0, 0.0, -1424.677839836817, 0.0]
['beep', 0.0, 1242.332308570422, 0.0, 0.0, 0.0, 0.0, -1426.4883311376968, 0.0]
['beep', 0.0, 1241.7511632145838, 0.0, 0.0, 0.0, 0.0, -1424.7448950701828, 0.0]
['beep', 0.0, 1242.2205498481453, 0.0, 0.0, 0.0, 0.0, -1424.4990258811745, 0.0]
['beep', 0.0, 1242.9581574151705, 0.0, 0.0, 0.0, 0.0, -1426.957717771258, 0.0]
['beep', 0.0, 1243.293433582, 0.0, 0.0, 0.0, 0.0, -1425.3260404260209, 0.0]
['beep', 0.0, 1243.7404684711062, 0.0, 0.0, 0.0, 0.0, -1424.677839836817, 0.0]
['beep', 0.0, 1243.7181167266508, 0.0, 0.0, 0.0, 0.0, -1423.6049561029622, 0.0]
['beep', 0.0, 1244.3216138269443, 0.0, 0.0, 0.0, 0.0, -1424.1861014588, 0.0]
['beep', 0.0, 1244.3886690603101, 0.0, 0.0, 0.0, 0.0, -1426.4659793932415, 0.0]
['beep', 0.0, 1244.0533928934806, 0.0, 0.0, 0.0, 0.0, -1426.130703226412, 0.0]
['beep', 0.0, 1244.4780760381313, 0.0, 0.0, 0.0, 0.0, -1428.6564503498614, 0.0]
['beep', 0.0, 1245.2827388385224, 0.0, 0.0, 0.0, 0.0, -1426.6671450933393, 0.0]
['beep', 0.0, 1245.618015005352, 0.0, 0.0, 0.0, 0.0, -1426.8683107934369, 0.0]
['beep', 0.0, 1246.6238435058408, 0.0, 0.0, 0.0, 0.0, -1427.2035869602666, 0.0]
['beep', 0.0, 1247.1379336283128, 0.0, 0.0, 0.0, 0.0, -1426.6224416044286, 0.0]
['beep', 0.0, 1247.5402650285084, 0.0, 0.0, 0.0, 0.0, -1427.5835666160067, 0.0]
['beep', 0.0, 1246.847360950394, 0.0, 0.0, 0.0, 0.0, -1426.644793348884, 0.0]
['beep', 0.0, 1246.713250483662, 0.0, 0.0, 0.0, 0.0, -1427.4047526603642, 0.0]
['beep', 0.0, 1245.9532911721817, 0.0, 0.0, 0.0, 0.0, -1425.9518892707695, 0.0]
['beep', 0.0, 1245.9756429166368, 0.0, 0.0, 0.0, 0.0, -1426.801255560071, 0.0]
['beep', 0.0, 1245.9756429166368, 0.0, 0.0, 0.0, 0.0, -1426.0859997375012, 0.0]
['beep', 0.0, 1246.6461952502962, 0.0, 0.0, 0.0, 0.0, -1425.3930956593867, 0.0]
['beep', 0.0, 1247.6296720063297, 0.0, 0.0, 0.0, 0.0, -1426.6894968377944, 0.0]
['beep', 0.0, 1247.1379336283128, 0.0, 0.0, 0.0, 0.0, -1425.2142817037443, 0.0]
['beep', 0.0, 1247.6296720063297, 0.0, 0.0, 0.0, 0.0, -1426.1754067153224, 0.0]
['beep', 0.0, 1247.1826371172235, 0.0, 0.0, 0.0, 0.0, -1425.9071857818587, 0.0]
['beep', 0.0, 1247.0932301394023, 0.0, 0.0, 0.0, 0.0, -1424.1413979698896, 0.0]
['beep', 0.0, 1248.5013900400866, 0.0, 0.0, 0.0, 0.0, -1424.6107846034508, 0.0]
['beep', 0.0, 1247.6073202618743, 0.0, 0.0, 0.0, 0.0, -1426.3318689265095, 0.0]
['beep', 0.0, 1247.8308377064275, 0.0, 0.0, 0.0, 0.0, -1424.6331363479062, 0.0]
['beep', 0.0, 1247.8308377064275, 0.0, 0.0, 0.0, 0.0, -1423.7837700586047, 0.0]
['beep', 0.0, 1246.5120847835642, 0.0, 0.0, 0.0, 0.0, -1424.0743427365235, 0.0]
['beep', 0.0, 1246.6238435058408, 0.0, 0.0, 0.0, 0.0, -1424.0519909920683, 0.0]
['beep', 0.0, 1247.0932301394023, 0.0, 0.0, 0.0, 0.0, -1424.9460607702806, 0.0]
['beep', 0.0, 1246.8920644393045, 0.0, 0.0, 0.0, 0.0, -1424.3425636699872, 0.0]
['beep', 0.0, 1246.5791400169303, 0.0, 0.0, 0.0, 0.0, -1423.5602526140515, 0.0]
['beep', 0.0, 1246.1321051278242, 0.0, 0.0, 0.0, 0.0, -1424.1637497143447, 0.0]
['beep', 0.0, 1245.4392010497095, 0.0, 0.0, 0.0, 0.0, -1423.0014590026688, 0.0]
['beep', 0.0, 1246.0874016389134, 0.0, 0.0, 0.0, 0.0, -1423.3590869139537, 0.0]
['beep', 0.0, 1245.7074219831732, 0.0, 0.0, 0.0, 0.0, -1422.5097206246521, 0.0]
['beep', 0.0, 1247.652023750785, 0.0, 0.0, 0.0, 0.0, -1420.9898020016913, 0.0]
['beep', 0.0, 1247.2049888616789, 0.0, 0.0, 0.0, 0.0, -1420.9898020016913, 0.0]
['beep', 0.0, 1246.2438638501005, 0.0, 0.0, 0.0, 0.0, -1420.0733804790236, 0.0]
['beep', 0.0, 1249.9319016852262, 0.0, 0.0, 0.0, 0.0, -1417.4135228888422, 0.0]
['beep', 0.0, 1254.1563813872792, 0.0, 0.0, 0.0, 0.0, -1416.4747496217192, 0.0]
['beep', 0.0, 1246.0874016389134, 0.0, 0.0, 0.0, 0.0, -1413.6807815648058, 0.0]
['beep', 0.0, 1235.7385439561062, 0.0, 0.0, 0.0, 0.0, -1397.7663395126272, 0.0]
['beep', 0.0, 1232.4528375211762, 0.0, 0.0, 0.0, 0.0, -1380.935475937781, 0.0]
['beep', 0.0, 1227.714267696651, 0.0, 0.0, 0.0, 0.0, -1363.9928536406583, 0.0]
['beep', 0.0, 1222.90864263876, 0.0, 0.0, 0.0, 0.0, -1344.4574289867198, 0.0]
['beep', 0.0, 1219.041790847992, 0.0, 0.0, 0.0, 0.0, -1325.324335732977, 0.0]
['beep', 0.0, 1213.006819845059, 0.0, 0.0, 0.0, 0.0, -1305.5430418900303, 0.0]
['beep', 0.0, 1203.7308458961065, 0.0, 0.0, 0.0, 0.0, -1286.1417277028238, 0.0]
['beep', 0.0, 1198.4558342046541, 0.0, 0.0, 0.0, 0.0, -1273.8706199968601, 0.0]
['beep', 0.0, 1188.8445840888721, 0.0, 0.0, 0.0, 0.0, -1261.4654018241647, 0.0]
['beep', 0.0, 1183.9495520531598, 0.0, 0.0, 0.0, 0.0, -1249.3060528404776, 0.0]
['beep', 0.0, 1179.166278739724, 0.0, 0.0, 0.0, 0.0, -1233.8162939329497, 0.0]
['beep', 0.0, 1174.1147844928246, 0.0, 0.0, 0.0, 0.0, -1224.9650031286483, 0.0]
['beep', 0.0, 1171.7454995805622, 0.0, 0.0, 0.0, 0.0, -1221.7910554159946, 0.0]
['beep', 0.0, 1165.844639044361, 0.0, 0.0, 0.0, 0.0, -1214.9961251015814, 0.0]
['beep', 0.0, 1163.073022731903, 0.0, 0.0, 0.0, 0.0, -1212.649191933774, 0.0]
['beep', 0.0, 1158.9826534965819, 0.0, 0.0, 0.0, 0.0, -1210.7716453995283, 0.0]
['beep', 0.0, 1158.5132668630204, 0.0, 0.0, 0.0, 0.0, -1210.3469622548776, 0.0]
['beep', 0.0, 1154.3558423943332, 0.0, 0.0, 0.0, 0.0, -1208.6929331651847, 0.0]
['beep', 0.0, 1150.623101070297, 0.0, 0.0, 0.0, 0.0, -1215.5772704574192, 0.0]
['beep', 0.0, 1148.0526504579366, 0.0, 0.0, 0.0, 0.0, -1215.912546624249, 0.0]
['beep', 0.0, 1147.1809324241797, 0.0, 0.0, 0.0, 0.0, -1217.1865960582013, 0.0]
['beep', 0.0, 1146.9350632351714, 0.0, 0.0, 0.0, 0.0, -1226.328459540422, 0.0]
['beep', 0.0, 1148.4549818581322, 0.0, 0.0, 0.0, 0.0, -1231.938747398704, 0.0]
['beep', 0.0, 1148.1644091802132, 0.0, 0.0, 0.0, 0.0, -1234.19627358869, 0.0]
['beep', 0.0, 1148.3208713914003, 0.0, 0.0, 0.0, 0.0, -1239.068953879947, 0.0]
['beep', 0.0, 1148.3879266247664, 0.0, 0.0, 0.0, 0.0, -1243.785171960017, 0.0]
['beep', 0.0, 1148.2761679024898, 0.0, 0.0, 0.0, 0.0, -1248.5460935289973, 0.0]
['beep', 0.0, 1149.7066795476294, 0.0, 0.0, 0.0, 0.0, -1252.256483108578, 0.0]
['beep', 0.0, 1150.2431214145568, 0.0, 0.0, 0.0, 0.0, -1254.3798988318324, 0.0]
['beep', 0.0, 1150.46663885911, 0.0, 0.0, 0.0, 0.0, -1256.7491837440948, 0.0]
['beep', 0.0, 1151.6959848041517, 0.0, 0.0, 0.0, 0.0, -1260.236055879123, 0.0]
['beep', 0.0, 1151.427763870688, 0.0, 0.0, 0.0, 0.0, -1262.5382855580194, 0.0]
['beep', 0.0, 1152.0536127154367, 0.0, 0.0, 0.0, 0.0, -1264.4158320922652, 0.0]
['beep', 0.0, 1151.6289295707859, 0.0, 0.0, 0.0, 0.0, -1263.745279758606, 0.0]
['beep', 0.0, 1152.0312609709813, 0.0, 0.0, 0.0, 0.0, -1265.5110675705753, 0.0]
['beep', 0.0, 1151.137191192769, 0.0, 0.0, 0.0, 0.0, -1268.8191257499607, 0.0]
['beep', 0.0, 1150.7348597925736, 0.0, 0.0, 0.0, 0.0, -1269.2438088946114, 0.0]
['beep', 0.0, 1153.7076418051292, 0.0, 0.0, 0.0, 0.0, -1234.1068666108688, 0.0]
['beep', 0.0, 1154.4899528610651, 0.0, 0.0, 0.0, 0.0, -1232.8551689213716, 0.0]
['beep', 0.0, 1154.8922842612606, 0.0, 0.0, 0.0, 0.0, -1231.8940439097935, 0.0]
['beep', 0.0, 1154.1546766942354, 0.0, 0.0, 0.0, 0.0, -1235.291509067, 0.0]
['beep', 0.0, 1153.5958830828529, 0.0, 0.0, 0.0, 0.0, -1236.7220207121397, 0.0]
['beep', 0.0, 1154.400545883244, 0.0, 0.0, 0.0, 0.0, -1236.967889901148, 0.0]
['beep', 0.0, 1154.4452493721544, 0.0, 0.0, 0.0, 0.0, -1236.811427689961, 0.0]
['beep', 0.0, 1154.0876214608695, 0.0, 0.0, 0.0, 0.0, -1238.1525323572794, 0.0]
['beep', 0.0, 1154.266435416512, 0.0, 0.0, 0.0, 0.0, -1237.6831457237179, 0.0]
['beep', 0.0, 1152.4782958600874, 0.0, 0.0, 0.0, 0.0, -1238.264291079556, 0.0]
['beep', 0.0, 1152.0983162043472, 0.0, 0.0, 0.0, 0.0, -1239.426581791232, 0.0]
['beep', 0.0, 1152.8582755158277, 0.0, 0.0, 0.0, 0.0, -1239.203064346679, 0.0]
['beep', 0.0, 1153.5958830828529, 0.0, 0.0, 0.0, 0.0, -1240.4994655250866, 0.0]
['beep', 0.0, 1153.5511795939422, 0.0, 0.0, 0.0, 0.0, -1242.779343459528, 0.0]
['beep', 0.0, 1152.1877231821684, 0.0, 0.0, 0.0, 0.0, -1241.8852736813158, 0.0]
['beep', 0.0, 1151.4054121262327, 0.0, 0.0, 0.0, 0.0, -1240.5441690139974, 0.0]
['beep', 0.0, 1150.7572115370288, 0.0, 0.0, 0.0, 0.0, -1243.5616545154637, 0.0]
['beep', 0.0, 1151.5395225929647, 0.0, 0.0, 0.0, 0.0, -1245.1933318607012, 0.0]
['beep', 0.0, 1150.6454528147524, 0.0, 0.0, 0.0, 0.0, -1241.8852736813158, 0.0]
['beep', 0.0, 1150.041955714459, 0.0, 0.0, 0.0, 0.0, -1242.2876050815112, 0.0]
['beep', 0.0, 1150.913673748216, 0.0, 0.0, 0.0, 0.0, -1241.907625425771, 0.0]
['beep', 0.0, 1151.651281315241, 0.0, 0.0, 0.0, 0.0, -1243.6287097488296, 0.0]
['beep', 0.0, 1151.8747987597942, 0.0, 0.0, 0.0, 0.0, -1245.1486283717904, 0.0]
['beep', 0.0, 1151.6289295707859, 0.0, 0.0, 0.0, 0.0, -1244.813352204961, 0.0]
['beep', 0.0, 1150.8242667703948, 0.0, 0.0, 0.0, 0.0, -1245.9309394277263, 0.0]
['beep', 0.0, 1149.0584789584254, 0.0, 0.0, 0.0, 0.0, -1246.5120847835642, 0.0]
['beep', 0.0, 1148.6114440693193, 0.0, 0.0, 0.0, 0.0, -1245.4392010497095, 0.0]
['beep', 0.0, 1149.013775469515, 0.0, 0.0, 0.0, 0.0, -1248.322576084444, 0.0]
['beep', 0.0, 1148.5443888359534, 0.0, 0.0, 0.0, 0.0, -1247.517913284053, 0.0]
['beep', 0.0, 1147.7397260355624, 0.0, 0.0, 0.0, 0.0, -1246.4003260612878, 0.0]
['beep', 0.0, 1147.8961882467495, 0.0, 0.0, 0.0, 0.0, -1248.836666206916, 0.0]
['beep', 0.0, 1148.9020167472383, 0.0, 0.0, 0.0, 0.0, -1249.6636807517625, 0.0]
['beep', 0.0, 1148.2985196469451, 0.0, 0.0, 0.0, 0.0, -1249.7530877295837, 0.0]
['beep', 0.0, 1147.7620777800178, 0.0, 0.0, 0.0, 0.0, -1248.3002243399887, 0.0]
['beep', 0.0, 1148.007946969026, 0.0, 0.0, 0.0, 0.0, -1248.836666206916, 0.0]
['beep', 0.0, 1148.1867609246685, 0.0, 0.0, 0.0, 0.0, -1248.814314462461, 0.0]
['beep', 0.0, 1147.6056155688304, 0.0, 0.0, 0.0, 0.0, -1247.4955615395977, 0.0]
['beep', 0.0, 1147.8067812689283, 0.0, 0.0, 0.0, 0.0, -1249.8871981963157, 0.0]
['beep', 0.0, 1147.3820981242775, 0.0, 0.0, 0.0, 0.0, -1251.429468563732, 0.0]
['beep', 0.0, 1146.8233045128948, 0.0, 0.0, 0.0, 0.0, -1250.2448261076006, 0.0]
['beep', 0.0, 1147.717374291107, 0.0, 0.0, 0.0, 0.0, -1251.3624133303658, 0.0]
['beep', 0.0, 1147.6950225466517, 0.0, 0.0, 0.0, 0.0, -1250.937730185715, 0.0]
['beep', 0.0, 1147.270339402001, 0.0, 0.0, 0.0, 0.0, -1248.2108173621675, 0.0]
['beep', 0.0, 1148.1420574357578, 0.0, 0.0, 0.0, 0.0, -1248.814314462461, 0.0]
['beep', 0.0, 1147.3597463798221, 0.0, 0.0, 0.0, 0.0, -1251.3400615859107, 0.0]
['beep', 0.0, 1145.973938223593, 0.0, 0.0, 0.0, 0.0, -1251.8988551972932, 0.0]
['beep', 0.0, 1145.7057172901293, 0.0, 0.0, 0.0, 0.0, -1253.262311609067, 0.0]
['beep', 0.0, 1146.4433248571545, 0.0, 0.0, 0.0, 0.0, -1252.681166253229, 0.0]
['beep', 0.0, 1146.5327318349757, 0.0, 0.0, 0.0, 0.0, -1251.7870964750168, 0.0]
['beep', 0.0, 1146.108048690325, 0.0, 0.0, 0.0, 0.0, -1250.4683435521536, 0.0]
['beep', 0.0, 1146.3762696237886, 0.0, 0.0, 0.0, 0.0, -1251.228302863634, 0.0]
['beep', 0.0, 1145.5492550789422, 0.0, 0.0, 0.0, 0.0, -1251.3847650748212, 0.0]
['beep', 0.0, 1146.331566134878, 0.0, 0.0, 0.0, 0.0, -1249.1719423737459, 0.0]
['beep', 0.0, 1146.555083579431, 0.0, 0.0, 0.0, 0.0, -1251.429468563732, 0.0]
['beep', 0.0, 1145.5492550789422, 0.0, 0.0, 0.0, 0.0, -1251.071840652447, 0.0]
['beep', 0.0, 1145.9962899680484, 0.0, 0.0, 0.0, 0.0, -1250.4459918076984, 0.0]
['beep', 0.0, 1145.616310312308, 0.0, 0.0, 0.0, 0.0, -1249.261349351567, 0.0]
['beep', 0.0, 1146.8456562573501, 0.0, 0.0, 0.0, 0.0, -1250.267177852056, 0.0]
['beep', 0.0, 1146.5997870683418, 0.0, 0.0, 0.0, 0.0, -1250.2224743631452, 0.0]
['beep', 0.0, 1144.6998887896407, 0.0, 0.0, 0.0, 0.0, -1249.2837010960222, 0.0]
['beep', 0.0, 1143.4705428445986, 0.0, 0.0, 0.0, 0.0, -1248.8590179513715, 0.0]
['beep', 0.0, 1144.2081504116238, 0.0, 0.0, 0.0, 0.0, -1249.618977262852, 0.0]
['beep', 0.0, 1144.0963916893472, 0.0, 0.0, 0.0, 0.0, -1249.194294118201, 0.0]
['beep', 0.0, 1143.2246736555903, 0.0, 0.0, 0.0, 0.0, -1248.6131487623632, 0.0]
['beep', 0.0, 1142.1517899217356, 0.0, 0.0, 0.0, 0.0, -1247.070878394947, 0.0]
['beep', 0.0, 1142.1294381772802, 0.0, 0.0, 0.0, 0.0, -1247.5626167729638, 0.0]
['beep', 0.0, 1141.5929963103529, 0.0, 0.0, 0.0, 0.0, -1247.2943958395, 0.0]
['beep', 0.0, 1140.6318712987747, 0.0, 0.0, 0.0, 0.0, -1248.0543551509804, 0.0]
['beep', 0.0, 1140.9000922322384, 0.0, 0.0, 0.0, 0.0, -1247.584968517419, 0.0]
['beep', 0.0, 1138.9554904646268, 0.0, 0.0, 0.0, 0.0, -1246.422677805743, 0.0]
['beep', 0.0, 1140.7436300210513, 0.0, 0.0, 0.0, 0.0, -1248.0767068954358, 0.0]
['beep', 0.0, 1142.0176794550036, 0.0, 0.0, 0.0, 0.0, -1249.551922029486, 0.0]
['beep', 0.0, 1140.5201125764981, 0.0, 0.0, 0.0, 0.0, -1247.3167475839552, 0.0]
['beep', 0.0, 1140.0507259429367, 0.0, 0.0, 0.0, 0.0, -1248.1437621288017, 0.0]
['beep', 0.0, 1140.073077687392, 0.0, 0.0, 0.0, 0.0, -1246.8250092059386, 0.0]
['beep', 0.0, 1139.5366358204647, 0.0, 0.0, 0.0, 0.0, -1246.489733039109, 0.0]
['beep', 0.0, 1139.2460631425456, 0.0, 0.0, 0.0, 0.0, -1246.6461952502962, 0.0]
['beep', 0.0, 1138.8213799978948, 0.0, 0.0, 0.0, 0.0, -1248.38963131781, 0.0]
['beep', 0.0, 1138.3519933643333, 0.0, 0.0, 0.0, 0.0, -1249.775439474039, 0.0]
['beep', 0.0, 1137.7708480084955, 0.0, 0.0, 0.0, 0.0, -1248.5460935289973, 0.0]
['beep', 0.0, 1137.2344061415681, 0.0, 0.0, 0.0, 0.0, -1245.5733115164414, 0.0]
['beep', 0.0, 1137.3461648638445, 0.0, 0.0, 0.0, 0.0, -1245.5062562830753, 0.0]
['beep', 0.0, 1137.2791096304786, 0.0, 0.0, 0.0, 0.0, -1245.5286080275307, 0.0]
['beep', 0.0, 1137.5696823083977, 0.0, 0.0, 0.0, 0.0, -1248.4119830622653, 0.0]
['beep', 0.0, 1136.7650195080066, 0.0, 0.0, 0.0, 0.0, -1248.322576084444, 0.0]
['beep', 0.0, 1134.8427694848501, 0.0, 0.0, 0.0, 0.0, -1248.7919627180056, 0.0]
['beep', 0.0, 1134.9545282071267, 0.0, 0.0, 0.0, 0.0, -1249.5742737739413, 0.0]
['beep', 0.0, 1136.1168189188027, 0.0, 0.0, 0.0, 0.0, -1247.8978929397933, 0.0]
['beep', 0.0, 1134.976879951582, 0.0, 0.0, 0.0, 0.0, -1247.227340606134, 0.0]
['beep', 0.0, 1133.3452026063446, 0.0, 0.0, 0.0, 0.0, -1246.6685469947515, 0.0]
['beep', 0.0, 1132.2946706169453, 0.0, 0.0, 0.0, 0.0, -1248.0990586398912, 0.0]
['beep', 0.0, 1133.5463683064424, 0.0, 0.0, 0.0, 0.0, -1248.2331691066229, 0.0]
['beep', 0.0, 1135.043935184948, 0.0, 0.0, 0.0, 0.0, -1248.8590179513715, 0.0]
['beep', 0.0, 1134.2616241290123, 0.0, 0.0, 0.0, 0.0, -1249.7083842406732, 0.0]
['beep', 0.0, 1133.1887403951575, 0.0, 0.0, 0.0, 0.0, -1247.8308377064275, 0.0]
['beep', 0.0, 1132.205263639124, 0.0, 0.0, 0.0, 0.0, -1244.813352204961, 0.0]
['beep', 0.0, 1132.428781083677, 0.0, 0.0, 0.0, 0.0, -1244.1204481268464, 0.0]
['beep', 0.0, 1131.5347113054647, 0.0, 0.0, 0.0, 0.0, -1243.6063580043744, 0.0]
['beep', 0.0, 1130.618289782797, 0.0, 0.0, 0.0, 0.0, -1245.3721458163436, 0.0]
['beep', 0.0, 1129.2324816265682, 0.0, 0.0, 0.0, 0.0, -1245.1709801162458, 0.0]
['beep', 0.0, 1129.4336473266658, 0.0, 0.0, 0.0, 0.0, -1242.5558260149749, 0.0]
['beep', 0.0, 1130.2606618715122, 0.0, 0.0, 0.0, 0.0, -1244.0757446379357, 0.0]
['beep', 0.0, 1130.6853450161632, 0.0, 0.0, 0.0, 0.0, -1245.908587683271, 0.0]
['beep', 0.0, 1131.0653246719032, 0.0, 0.0, 0.0, 0.0, -1242.779343459528, 0.0]
['beep', 0.0, 1130.305365360423, 0.0, 0.0, 0.0, 0.0, -1242.0193841480475, 0.0]
['beep', 0.0, 1131.0653246719032, 0.0, 0.0, 0.0, 0.0, -1243.8522271933828, 0.0]
['beep', 0.0, 1130.8865107162608, 0.0, 0.0, 0.0, 0.0, -1244.6792417382292, 0.0]
['beep', 0.0, 1130.46182757161, 0.0, 0.0, 0.0, 0.0, -1245.2380353496117, 0.0]
['beep', 0.0, 1129.7018682601295, 0.0, 0.0, 0.0, 0.0, -1245.0815731384246, 0.0]
['beep', 0.0, 1128.8301502263726, 0.0, 0.0, 0.0, 0.0, -1245.036869649514, 0.0]
['beep', 0.0, 1127.6678595146966, 0.0, 0.0, 0.0, 0.0, -1244.9027591827821, 0.0]
['beep', 0.0, 1127.2878798589563, 0.0, 0.0, 0.0, 0.0, -1243.5616545154637, 0.0]
['beep', 0.0, 1127.399638581233, 0.0, 0.0, 0.0, 0.0, -1242.9134539262598, 0.0]
['beep', 0.0, 1127.3772868367776, 0.0, 0.0, 0.0, 0.0, -1241.8852736813158, 0.0]
['beep', 0.0, 1126.7737897364843, 0.0, 0.0, 0.0, 0.0, -1241.9523289146816, 0.0]
['beep', 0.0, 1125.8350164693613, 0.0, 0.0, 0.0, 0.0, -1242.6005295038856, 0.0]
['beep', 0.0, 1125.6785542581742, 0.0, 0.0, 0.0, 0.0, -1241.3488318143884, 0.0]
['beep', 0.0, 1126.1479408917357, 0.0, 0.0, 0.0, 0.0, -1241.393535303299, 0.0]
['beep', 0.0, 1124.8291879688727, 0.0, 0.0, 0.0, 0.0, -1241.549997514486, 0.0]
['beep', 0.0, 1124.3150978464005, 0.0, 0.0, 0.0, 0.0, -1241.7288114701284, 0.0]
['beep', 0.0, 1124.203339124124, 0.0, 0.0, 0.0, 0.0, -1238.3536980573772, 0.0]
['beep', 0.0, 1124.136283890758, 0.0, 0.0, 0.0, 0.0, -1237.750200957084, 0.0]
['beep', 0.0, 1124.3150978464005, 0.0, 0.0, 0.0, 0.0, -1238.3313463129218, 0.0]
['beep', 0.0, 1124.136283890758, 0.0, 0.0, 0.0, 0.0, -1238.91249166876, 0.0]
['beep', 0.0, 1123.9351181906604, 0.0, 0.0, 0.0, 0.0, -1238.8677881798492, 0.0]
['beep', 0.0, 1123.5551385349202, 0.0, 0.0, 0.0, 0.0, -1238.7560294575728, 0.0]
['beep', 0.0, 1123.3539728348223, 0.0, 0.0, 0.0, 0.0, -1238.5325120130196, 0.0]
['beep', 0.0, 1124.27039435749, 0.0, 0.0, 0.0, 0.0, -1238.8677881798492, 0.0]
['beep', 0.0, 1125.1644641357022, 0.0, 0.0, 0.0, 0.0, -1235.8279509339275, 0.0]
['beep', 0.0, 1122.1022751453252, 0.0, 0.0, 0.0, 0.0, -1234.7103637111622, 0.0]
['beep', 0.0, 1114.4803302860655, 0.0, 0.0, 0.0, 0.0, -1234.4644945221537, 0.0]
['beep', 0.0, 1109.3617808058002, 0.0, 0.0, 0.0, 0.0, -1230.8882154093046, 0.0]
['beep', 0.0, 1105.047894125926, 0.0, 0.0, 0.0, 0.0, -1227.6248607188297, 0.0]
['beep', 0.0, 1104.6455627257303, 0.0, 0.0, 0.0, 0.0, -1227.6025089743746, 0.0]
['beep', 0.0, 1106.1878330931465, 0.0, 0.0, 0.0, 0.0, -1226.2837560515113, 0.0]
['beep', 0.0, 1107.9312691606606, 0.0, 0.0, 0.0, 0.0, -1224.6297269618187, 0.0]
['beep', 0.0, 1106.9254406601717, 0.0, 0.0, 0.0, 0.0, -1223.8027124169723, 0.0]
['beep', 0.0, 1106.2548883265124, 0.0, 0.0, 0.0, 0.0, -1224.585023472908, 0.0]
['beep', 0.0, 1106.232536582057, 0.0, 0.0, 0.0, 0.0, -1224.8979478952824, 0.0]
['beep', 0.0, 1106.3219435598783, 0.0, 0.0, 0.0, 0.0, -1226.4849217516091, 0.0]
['beep', 0.0, 1104.26558306999, 0.0, 0.0, 0.0, 0.0, -1224.8532444063717, 0.0]
['beep', 0.0, 1104.1761760921688, 0.0, 0.0, 0.0, 0.0, -1223.5344914835086, 0.0]
['beep', 0.0, 1104.4667487700879, 0.0, 0.0, 0.0, 0.0, -1222.1933868161902, 0.0]
['beep', 0.0, 1103.1926993361353, 0.0, 0.0, 0.0, 0.0, -1223.780360672517, 0.0]
['beep', 0.0, 1103.460920269599, 0.0, 0.0, 0.0, 0.0, -1223.8921193947936, 0.0]
['beep', 0.0, 1102.7456644470292, 0.0, 0.0, 0.0, 0.0, -1221.7016484381734, 0.0]
['beep', 0.0, 1103.5503272474202, 0.0, 0.0, 0.0, 0.0, -1221.0981513378802, 0.0]
['beep', 0.0, 1104.6008592368198, 0.0, 0.0, 0.0, 0.0, -1221.7240001826287, 0.0]
['beep', 0.0, 1105.4725772705767, 0.0, 0.0, 0.0, 0.0, -1220.3381920263996, 0.0]
['beep', 0.0, 1105.6960947151297, 0.0, 0.0, 0.0, 0.0, -1219.041790847992, 0.0]
['beep', 0.0, 1106.1207778597807, 0.0, 0.0, 0.0, 0.0, -1216.8736716358271, 0.0]
['beep', 0.0, 1106.1654813486912, 0.0, 0.0, 0.0, 0.0, -1217.5442239694862, 0.0]
['beep', 0.0, 1104.2879348144454, 0.0, 0.0, 0.0, 0.0, -1217.81244490295, 0.0]
['beep', 0.0, 1101.8068911799064, 0.0, 0.0, 0.0, 0.0, -1215.8007879019724, 0.0]
['beep', 0.0, 1100.331676045856, 0.0, 0.0, 0.0, 0.0, -1215.4208082462321, 0.0]
['beep', 0.0, 1099.6387719677416, 0.0, 0.0, 0.0, 0.0, -1213.006819845059, 0.0]
['beep', 0.0, 1098.5658882338869, 0.0, 0.0, 0.0, 0.0, -1215.7560844130617, 0.0]
['beep', 0.0, 1098.6999987006186, 0.0, 0.0, 0.0, 0.0, -1215.5102152240534, 0.0]
['beep', 0.0, 1099.303495800912, 0.0, 0.0, 0.0, 0.0, -1213.9679448566371, 0.0]
['beep', 0.0, 1098.7447021895293, 0.0, 0.0, 0.0, 0.0, -1216.7395611690952, 0.0]
['beep', 0.0, 1097.6494667112192, 0.0, 0.0, 0.0, 0.0, -1215.331401268411, 0.0]
['beep', 0.0, 1098.9905713785377, 0.0, 0.0, 0.0, 0.0, -1213.4538547341651, 0.0]
['beep', 0.0, 1099.9516963901158, 0.0, 0.0, 0.0, 0.0, -1215.1749390572238, 0.0]
['beep', 0.0, 1099.4599580120992, 0.0, 0.0, 0.0, 0.0, -1215.0855320794026, 0.0]
['beep', 0.0, 1097.5377079889427, 0.0, 0.0, 0.0, 0.0, -1212.2915640224892, 0.0]
['beep', 0.0, 1097.4483010111214, 0.0, 0.0, 0.0, 0.0, -1212.492729722587, 0.0]
['beep', 0.0, 1097.8953359002276, 0.0, 0.0, 0.0, 0.0, -1213.7444274120842, 0.0]
['beep', 0.0, 1097.560059733398, 0.0, 0.0, 0.0, 0.0, -1213.520909967531, 0.0]
['beep', 0.0, 1096.0848445993477, 0.0, 0.0, 0.0, 0.0, -1213.3867995007993, 0.0]
['beep', 0.0, 1095.2578300545015, 0.0, 0.0, 0.0, 0.0, -1211.3751424998215, 0.0]
['beep', 0.0, 1095.0343126099483, 0.0, 0.0, 0.0, 0.0, -1209.7211134101287, 0.0]
['beep', 0.0, 1093.9614288760936, 0.0, 0.0, 0.0, 0.0, -1210.1905000436902, 0.0]
['beep', 0.0, 1093.6038009648087, 0.0, 0.0, 0.0, 0.0, -1208.9164506097377, 0.0]
['beep', 0.0, 1092.5085654864986, 0.0, 0.0, 0.0, 0.0, -1207.843566875883, 0.0]
['beep', 0.0, 1092.3521032753115, 0.0, 0.0, 0.0, 0.0, -1208.8717471208272, 0.0]
['beep', 0.0, 1091.3239230303673, 0.0, 0.0, 0.0, 0.0, -1208.7376366540952, 0.0]
['beep', 0.0, 1091.9497718751159, 0.0, 0.0, 0.0, 0.0, -1209.8328721324053, 0.0]
['beep', 0.0, 1091.5027369860097, 0.0, 0.0, 0.0, 0.0, -1207.6424011757854, 0.0]
['beep', 0.0, 1091.9274201306607, 0.0, 0.0, 0.0, 0.0, -1206.7706831420282, 0.0]
['beep', 0.0, 1090.8321846523506, 0.0, 0.0, 0.0, 0.0, -1206.033075575003, 0.0]
['beep', 0.0, 1091.659199197197, 0.0, 0.0, 0.0, 0.0, -1207.776511642517, 0.0]
['beep', 0.0, 1090.9662951190824, 0.0, 0.0, 0.0, 0.0, -1205.004895330059, 0.0]
['beep', 0.0, 1091.1451090747248, 0.0, 0.0, 0.0, 0.0, -1203.8202528739278, 0.0]
['beep', 0.0, 1090.6310189522528, 0.0, 0.0, 0.0, 0.0, -1205.1837092857015, 0.0]
['beep', 0.0, 1090.07222534087, 0.0, 0.0, 0.0, 0.0, -1202.3226859954223, 0.0]
['beep', 0.0, 1090.4969084855209, 0.0, 0.0, 0.0, 0.0, -1202.300334250967, 0.0]
['beep', 0.0, 1090.586315463342, 0.0, 0.0, 0.0, 0.0, -1200.8921743502826, 0.0]
['beep', 0.0, 1089.781652662951, 0.0, 0.0, 0.0, 0.0, -1201.4062644727546, 0.0]
['beep', 0.0, 1089.4240247516661, 0.0, 0.0, 0.0, 0.0, -1200.3333807389, 0.0]
['beep', 0.0, 1088.462899740088, 0.0, 0.0, 0.0, 0.0, -1199.171090027224, 0.0]
['beep', 0.0, 1087.591181706331, 0.0, 0.0, 0.0, 0.0, -1199.3722557273218, 0.0]
['beep', 0.0, 1087.814699150884, 0.0, 0.0, 0.0, 0.0, -1197.9640958266373, 0.0]
['beep', 0.0, 1089.7369491740405, 0.0, 0.0, 0.0, 0.0, -1197.5170609375311, 0.0]
['beep', 0.0, 1088.9546381181049, 0.0, 0.0, 0.0, 0.0, -1196.8688603483272, 0.0]
['beep', 0.0, 1088.7311206735517, 0.0, 0.0, 0.0, 0.0, -1194.9689620696263, 0.0]
['beep', 0.0, 1087.0547398394037, 0.0, 0.0, 0.0, 0.0, -1193.8513748468608, 0.0]
['beep', 0.0, 1086.4512427391103, 0.0, 0.0, 0.0, 0.0, -1192.174994012713, 0.0]
['beep', 0.0, 1086.0042078500041, 0.0, 0.0, 0.0, 0.0, -1191.9514765681597, 0.0]
['beep', 0.0, 1086.0042078500041, 0.0, 0.0, 0.0, 0.0, -1191.3032759789558, 0.0]
['beep', 0.0, 1084.1266613157584, 0.0, 0.0, 0.0, 0.0, -1190.5433166674754, 0.0]
['beep', 0.0, 1082.4726322260658, 0.0, 0.0, 0.0, 0.0, -1189.9845230560927, 0.0]
['beep', 0.0, 1083.3890537487334, 0.0, 0.0, 0.0, 0.0, -1190.4762614341096, 0.0]
['beep', 0.0, 1084.0372543379372, 0.0, 0.0, 0.0, 0.0, -1192.7337876240954, 0.0]
['beep', 0.0, 1083.7466816600183, 0.0, 0.0, 0.0, 0.0, -1191.2809242345006, 0.0]
['beep', 0.0, 1084.3501787603116, 0.0, 0.0, 0.0, 0.0, -1189.6268951448078, 0.0]
['beep', 0.0, 1084.7972136494177, 0.0, 0.0, 0.0, 0.0, -1189.8057091004503, 0.0]
['beep', 0.0, 1085.1324898162472, 0.0, 0.0, 0.0, 0.0, -1188.8222323444168, 0.0]
['beep', 0.0, 1085.4230624941663, 0.0, 0.0, 0.0, 0.0, -1190.073930033914, 0.0]
['beep', 0.0, 1085.5348212164429, 0.0, 0.0, 0.0, 0.0, -1190.1409852672798, 0.0]
['beep', 0.0, 1084.6631031826857, 0.0, 0.0, 0.0, 0.0, -1188.6434183887743, 0.0]
['beep', 0.0, 1084.394882249222, 0.0, 0.0, 0.0, 0.0, -1189.9174678227268, 0.0]
['beep', 0.0, 1085.043082838426, 0.0, 0.0, 0.0, 0.0, -1189.0233980445146, 0.0]
['beep', 0.0, 1085.0877863273367, 0.0, 0.0, 0.0, 0.0, -1189.8280608449056, 0.0]
['beep', 0.0, 1085.4677659830768, 0.0, 0.0, 0.0, 0.0, -1190.9903515565816, 0.0]
['beep', 0.0, 1084.372530504767, 0.0, 0.0, 0.0, 0.0, -1188.9563428111485, 0.0]
['beep', 0.0, 1084.528992715954, 0.0, 0.0, 0.0, 0.0, -1188.4646044331319, 0.0]
['beep', 0.0, 1082.8973153707166, 0.0, 0.0, 0.0, 0.0, -1192.0632352904363, 0.0]
['beep', 0.0, 1082.115004314781, 0.0, 0.0, 0.0, 0.0, -1190.722130623118, 0.0]
['beep', 0.0, 1082.0926525703255, 0.0, 0.0, 0.0, 0.0, -1190.1409852672798, 0.0]
['beep', 0.0, 1081.0197688364708, 0.0, 0.0, 0.0, 0.0, -1190.7891858564838, 0.0]
['beep', 0.0, 1080.7068444140964, 0.0, 0.0, 0.0, 0.0, -1190.208040500646, 0.0]
['beep', 0.0, 1080.97506534756, 0.0, 0.0, 0.0, 0.0, -1190.1633370117352, 0.0]
['beep', 0.0, 1081.399748492211, 0.0, 0.0, 0.0, 0.0, -1189.135156766791, 0.0]
['beep', 0.0, 1080.2151060360798, 0.0, 0.0, 0.0, 0.0, -1188.5763631554084, 0.0]
['beep', 0.0, 1080.59508569182, 0.0, 0.0, 0.0, 0.0, -1189.0457497889697, 0.0]
['beep', 0.0, 1081.176231047658, 0.0, 0.0, 0.0, 0.0, -1190.0292265450032, 0.0]
['beep', 0.0, 1081.7350246590406, 0.0, 0.0, 0.0, 0.0, -1187.458775932643, 0.0]
['beep', 0.0, 1082.137356059236, 0.0, 0.0, 0.0, 0.0, -1189.202212000157, 0.0]
['beep', 0.0, 1082.4502804816104, 0.0, 0.0, 0.0, 0.0, -1188.5316596664977, 0.0]
['beep', 0.0, 1081.8691351257723, 0.0, 0.0, 0.0, 0.0, -1188.4869561775872, 0.0]
['beep', 0.0, 1081.7797281479511, 0.0, 0.0, 0.0, 0.0, -1189.0457497889697, 0.0]
['beep', 0.0, 1082.0255973369597, 0.0, 0.0, 0.0, 0.0, -1186.2294299876012, 0.0]
['beep', 0.0, 1082.0032455925043, 0.0, 0.0, 0.0, 0.0, -1186.5423544099754, 0.0]
['beep', 0.0, 1082.137356059236, 0.0, 0.0, 0.0, 0.0, -1188.7104736221402, 0.0]
['beep', 0.0, 1081.5115072144874, 0.0, 0.0, 0.0, 0.0, -1188.7104736221402, 0.0]
['beep', 0.0, 1080.7291961585518, 0.0, 0.0, 0.0, 0.0, -1188.039921288481, 0.0]
['beep', 0.0, 1079.3433880023229, 0.0, 0.0, 0.0, 0.0, -1186.9223340657156, 0.0]
['beep', 0.0, 1080.8633066252837, 0.0, 0.0, 0.0, 0.0, -1187.61523814383, 0.0]
['beep', 0.0, 1081.7350246590406, 0.0, 0.0, 0.0, 0.0, -1188.7998805999614, 0.0]
['beep', 0.0, 1080.97506534756, 0.0, 0.0, 0.0, 0.0, -1185.5141741650314, 0.0]
['beep', 0.0, 1080.952713603105, 0.0, 0.0, 0.0, 0.0, -1185.6929881206738, 0.0]
['beep', 0.0, 1082.5396874594317, 0.0, 0.0, 0.0, 0.0, -1186.944685810171, 0.0]
['beep', 0.0, 1079.8574781247949, 0.0, 0.0, 0.0, 0.0, -1186.2517817320565, 0.0]
['beep', 0.0, 1078.8740013687614, 0.0, 0.0, 0.0, 0.0, -1187.3246654659113, 0.0]
['beep', 0.0, 1077.7787658904513, 0.0, 0.0, 0.0, 0.0, -1186.005912543048, 0.0]
['beep', 0.0, 1077.9352281016384, 0.0, 0.0, 0.0, 0.0, -1188.1963834996682, 0.0]
['beep', 0.0, 1077.1305653012473, 0.0, 0.0, 0.0, 0.0, -1185.782395098495, 0.0]
['beep', 0.0, 1077.5999519348088, 0.0, 0.0, 0.0, 0.0, -1185.1565462537465, 0.0]
['beep', 0.0, 1077.1529170457027, 0.0, 0.0, 0.0, 0.0, -1186.0953195208692, 0.0]
['beep', 0.0, 1076.6388269232307, 0.0, 0.0, 0.0, 0.0, -1187.0117410435369, 0.0]
['beep', 0.0, 1076.3929577342221, 0.0, 0.0, 0.0, 0.0, -1185.9388573096821, 0.0]
['beep', 0.0, 1076.080033311848, 0.0, 0.0, 0.0, 0.0, -1185.6929881206738, 0.0]
['beep', 0.0, 1074.8283356223508, 0.0, 0.0, 0.0, 0.0, -1184.5977526423637, 0.0]
['beep', 0.0, 1074.2918937554234, 0.0, 0.0, 0.0, 0.0, -1186.2294299876012, 0.0]
['beep', 0.0, 1073.1966582771133, 0.0, 0.0, 0.0, 0.0, -1184.4636421756318, 0.0]
['beep', 0.0, 1071.788498376429, 0.0, 0.0, 0.0, 0.0, -1180.9320665516934, 0.0]
['beep', 0.0, 1073.0625478103814, 0.0, 0.0, 0.0, 0.0, -1182.9660752971263, 0.0]
['beep', 0.0, 1073.4201757216663, 0.0, 0.0, 0.0, 0.0, -1183.9942555420705, 0.0]
['beep', 0.0, 1073.978969333049, 0.0, 0.0, 0.0, 0.0, -1183.5472206529644, 0.0]
['beep', 0.0, 1073.3531204883004, 0.0, 0.0, 0.0, 0.0, -1185.4471189316653, 0.0]
['beep', 0.0, 1071.4308704651442, 0.0, 0.0, 0.0, 0.0, -1186.5200026655202, 0.0]
['beep', 0.0, 1071.4085187206888, 0.0, 0.0, 0.0, 0.0, -1186.788223598984, 0.0]
['beep', 0.0, 1073.68839665513, 0.0, 0.0, 0.0, 0.0, -1185.3130084649335, 0.0]
['beep', 0.0, 1073.978969333049, 0.0, 0.0, 0.0, 0.0, -1184.9553805536486, 0.0]
['beep', 0.0, 1071.788498376429, 0.0, 0.0, 0.0, 0.0, -1185.6259328873077, 0.0]
['beep', 0.0, 1072.168478032169, 0.0, 0.0, 0.0, 0.0, -1186.1176712653246, 0.0]
['beep', 0.0, 1072.4366989656328, 0.0, 0.0, 0.0, 0.0, -1185.8047468429502, 0.0]
['beep', 0.0, 1072.2802367544457, 0.0, 0.0, 0.0, 0.0, -1188.5316596664977, 0.0]
['beep', 0.0, 1071.5426291874205, 0.0, 0.0, 0.0, 0.0, -1187.5705346549196, 0.0]
['beep', 0.0, 1070.3579867312892, 0.0, 0.0, 0.0, 0.0, -1184.9553805536486, 0.0]
['beep', 0.0, 1070.4920971980212, 0.0, 0.0, 0.0, 0.0, -1184.9330288091933, 0.0]
['beep', 0.0, 1070.2909314979233, 0.0, 0.0, 0.0, 0.0, -1187.458775932643, 0.0]
['beep', 0.0, 1070.983835576038, 0.0, 0.0, 0.0, 0.0, -1185.648284631763, 0.0]
['beep', 0.0, 1070.2462280090128, 0.0, 0.0, 0.0, 0.0, -1184.687159620185, 0.0]
['beep', 0.0, 1068.9945303195157, 0.0, 0.0, 0.0, 0.0, -1187.0340927879922, 0.0]
['beep', 0.0, 1067.8769430967502, 0.0, 0.0, 0.0, 0.0, -1186.7435201100732, 0.0]
['beep', 0.0, 1068.726309386052, 0.0, 0.0, 0.0, 0.0, -1185.2683049760228, 0.0]
['beep', 0.0, 1070.4920971980212, 0.0, 0.0, 0.0, 0.0, -1185.6706363762185, 0.0]
['beep', 0.0, 1068.2122192635798, 0.0, 0.0, 0.0, 0.0, -1185.8941538207714, 0.0]
['beep', 0.0, 1067.7651843744736, 0.0, 0.0, 0.0, 0.0, -1185.4694706761206, 0.0]
['beep', 0.0, 1067.2287425075463, 0.0, 0.0, 0.0, 0.0, -1185.715339865129, 0.0]
['beep', 0.0, 1067.6757773966524, 0.0, 0.0, 0.0, 0.0, -1186.9670375546264, 0.0]
['beep', 0.0, 1069.9333035866384, 0.0, 0.0, 0.0, 0.0, -1188.2187352441235, 0.0]
['beep', 0.0, 1070.268579753468, 0.0, 0.0, 0.0, 0.0, -1186.0953195208692, 0.0]
['beep', 0.0, 1068.7933646194178, 0.0, 0.0, 0.0, 0.0, -1185.4471189316653, 0.0]
['beep', 0.0, 1066.0888035403257, 0.0, 0.0, 0.0, 0.0, -1182.5413921524755, 0.0]
['beep', 0.0, 1065.3958994622112, 0.0, 0.0, 0.0, 0.0, -1183.390758441777, 0.0]
['beep', 0.0, 1066.7146523850743, 0.0, 0.0, 0.0, 0.0, -1184.620104386819, 0.0]
['beep', 0.0, 1066.4464314516106, 0.0, 0.0, 0.0, 0.0, -1185.357711953844, 0.0]
['beep', 0.0, 1065.9323413291386, 0.0, 0.0, 0.0, 0.0, -1184.2177729866235, 0.0]
['beep', 0.0, 1065.0382715509263, 0.0, 0.0, 0.0, 0.0, -1184.3295317089, 0.0]
['beep', 0.0, 1064.9041610841944, 0.0, 0.0, 0.0, 0.0, -1185.2236014871123, 0.0]
['beep', 0.0, 1065.1276785287475, 0.0, 0.0, 0.0, 0.0, -1185.2459532315677, 0.0]
['beep', 0.0, 1063.6748151391525, 0.0, 0.0, 0.0, 0.0, -1184.9330288091933, 0.0]
['beep', 0.0, 1064.0324430504375, 0.0, 0.0, 0.0, 0.0, -1184.620104386819, 0.0]
['beep', 0.0, 1063.0936697833145, 0.0, 0.0, 0.0, 0.0, -1184.4412904311766, 0.0]
['beep', 0.0, 1062.6689866386637, 0.0, 0.0, 0.0, 0.0, -1184.2848282199893, 0.0]
['beep', 0.0, 1063.1830767611357, 0.0, 0.0, 0.0, 0.0, -1183.3237032084112, 0.0]
['beep', 0.0, 1062.110193027281, 0.0, 0.0, 0.0, 0.0, -1183.8601450753386, 0.0]
['beep', 0.0, 1061.4396406936219, 0.0, 0.0, 0.0, 0.0, -1183.681331119696, 0.0]
['beep', 0.0, 1063.4289459501442, 0.0, 0.0, 0.0, 0.0, -1184.6648078757296, 0.0]
['beep', 0.0, 1065.2617889954793, 0.0, 0.0, 0.0, 0.0, -1186.296485220967, 0.0]
['beep', 0.0, 1057.1928092471135, 0.0, 0.0, 0.0, 0.0, -1185.6929881206738, 0.0]
['beep', 0.0, 1049.4814574100326, 0.0, 0.0, 0.0, 0.0, -1187.8387555883833, 0.0]
['beep', 0.0, 1042.2171404620576, 0.0, 0.0, 0.0, 0.0, -1193.2255260021122, 0.0]
['beep', 0.0, 1034.4610851360662, 0.0, 0.0, 0.0, 0.0, -1195.1924795141792, 0.0]
['beep', 0.0, 1027.1297129547254, 0.0, 0.0, 0.0, 0.0, -1199.1934417716793, 0.0]
['beep', 0.0, 1018.5466430838875, 0.0, 0.0, 0.0, 0.0, -1203.8426046183831, 0.0]
['beep', 0.0, 1011.2823261359127, 0.0, 0.0, 0.0, 0.0, -1207.6647529202405, 0.0]
['beep', 0.0, 1001.693427764586, 0.0, 0.0, 0.0, 0.0, -1209.229375032112, 0.0]
['beep', 0.0, 993.1103578937481, 0.0, 0.0, 0.0, 0.0, -1215.3090495239555, 0.0]
['beep', 0.0, 984.5943432562761, 0.0, 0.0, 0.0, 0.0, -1218.3488867698775, 0.0]
['beep', 0.0, 978.8052414423515, 0.0, 0.0, 0.0, 0.0, -1223.2215670611342, 0.0]
['beep', 0.0, 970.982130882994, 0.0, 0.0, 0.0, 0.0, -1227.133122340813, 0.0]
['beep', 0.0, 962.9802063679941, 0.0, 0.0, 0.0, 0.0, -1230.91056715376, 0.0]
['beep', 0.0, 953.6818806745864, 0.0, 0.0, 0.0, 0.0, -1235.6267852338297, 0.0]
['beep', 0.0, 947.9151306051173, 0.0, 0.0, 0.0, 0.0, -1238.8007329464833, 0.0]
['beep', 0.0, 940.8072758683296, 0.0, 0.0, 0.0, 0.0, -1240.38770680281, 0.0]
['beep', 0.0, 934.8840635876732, 0.0, 0.0, 0.0, 0.0, -1246.042698150003, 0.0]
['beep', 0.0, 927.4185809396006, 0.0, 0.0, 0.0, 0.0, -1249.2166458626564, 0.0]
['beep', 0.0, 921.5400721478549, 0.0, 0.0, 0.0, 0.0, -1249.9319016852262, 0.0]
['beep', 0.0, 915.1698249780924, 0.0, 0.0, 0.0, 0.0, -1253.552884286986, 0.0]
['beep', 0.0, 909.2019092085254, 0.0, 0.0, 0.0, 0.0, -1256.0786314104357, 0.0]
['beep', 0.0, 902.0717027272824, 0.0, 0.0, 0.0, 0.0, -1258.2467506226005, 0.0]
['beep', 0.0, 897.4001881361232, 0.0, 0.0, 0.0, 0.0, -1260.8842564683266, 0.0]
['beep', 0.0, 892.7510252894194, 0.0, 0.0, 0.0, 0.0, -1263.7676315030612, 0.0]
['beep', 0.0, 887.6101240646988, 0.0, 0.0, 0.0, 0.0, -1266.5615995599746, 0.0]
['beep', 0.0, 881.9774844619614, 0.0, 0.0, 0.0, 0.0, -1271.1213554288574, 0.0]
['beep', 0.0, 876.1660309035816, 0.0, 0.0, 0.0, 0.0, -1272.7977362630054, 0.0]
['beep', 0.0, 872.120365157171, 0.0, 0.0, 0.0, 0.0, -1270.9648932176701, 0.0]
['beep', 0.0, 868.6111412776878, 0.0, 0.0, 0.0, 0.0, -1278.162154932279, 0.0]
['beep', 0.0, 862.6208737636655, 0.0, 0.0, 0.0, 0.0, -1278.944465988215, 0.0]
['beep', 0.0, 859.536333028833, 0.0, 0.0, 0.0, 0.0, -1277.782175276539, 0.0]
['beep', 0.0, 857.2117516054811, 0.0, 0.0, 0.0, 0.0, -1277.513954343075, 0.0]
['beep', 0.0, 852.4061265475901, 0.0, 0.0, 0.0, 0.0, -1280.4420328667204, 0.0]
['beep', 0.0, 846.2593968223807, 0.0, 0.0, 0.0, 0.0, -1282.006654978592, 0.0]
['beep', 0.0, 844.4042020325902, 0.0, 0.0, 0.0, 0.0, -1278.58683807693, 0.0]
['beep', 0.0, 841.7443444424086, 0.0, 0.0, 0.0, 0.0, -1280.486736355631, 0.0]
['beep', 0.0, 838.1457135851042, 0.0, 0.0, 0.0, 0.0, -1280.1738119332567, 0.0]
['beep', 0.0, 835.3517455281908, 0.0, 0.0, 0.0, 0.0, -1279.1232799438574, 0.0]
['beep', 0.0, 832.9154053825624, 0.0, 0.0, 0.0, 0.0, -1279.7044252996952, 0.0]
['beep', 0.0, 830.9484518704953, 0.0, 0.0, 0.0, 0.0, -1279.0338729660361, 0.0]
['beep', 0.0, 829.6296989476323, 0.0, 0.0, 0.0, 0.0, -1277.8939339988153, 0.0]
['beep', 0.0, 830.7249344259423, 0.0, 0.0, 0.0, 0.0, -1277.8268787654495, 0.0]
['beep', 0.0, 830.3449547702021, 0.0, 0.0, 0.0, 0.0, -1277.8715822543602, 0.0]
['beep', 0.0, 830.635527448121, 0.0, 0.0, 0.0, 0.0, -1278.6091898213851, 0.0]
['beep', 0.0, 833.1836263160261, 0.0, 0.0, 0.0, 0.0, -1277.8939339988153, 0.0]
['beep', 0.0, 835.1729315725484, 0.0, 0.0, 0.0, 0.0, -1277.7374717876282, 0.0]
['beep', 0.0, 835.3070420392802, 0.0, 0.0, 0.0, 0.0, -1279.1232799438574, 0.0]
['beep', 0.0, 835.9775943729395, 0.0, 0.0, 0.0, 0.0, -1279.2126869216786, 0.0]
['beep', 0.0, 838.5033414963891, 0.0, 0.0, 0.0, 0.0, -1277.938637487726, 0.0]
['beep', 0.0, 839.3303560412355, 0.0, 0.0, 0.0, 0.0, -1278.1398031878239, 0.0]
['beep', 0.0, 841.2302543199366, 0.0, 0.0, 0.0, 0.0, -1278.9221142437596, 0.0]
['beep', 0.0, 841.2973095533025, 0.0, 0.0, 0.0, 0.0, -1280.486736355631, 0.0]
['beep', 0.0, 839.7997426747969, 0.0, 0.0, 0.0, 0.0, -1280.2855706555333, 0.0]
['beep', 0.0, 837.8327891627299, 0.0, 0.0, 0.0, 0.0, -1280.6208468223629, 0.0]
['beep', 0.0, 837.3857542736238, 0.0, 0.0, 0.0, 0.0, -1281.1125852003795, 0.0]
['beep', 0.0, 838.5480449852997, 0.0, 0.0, 0.0, 0.0, -1282.0960619564132, 0.0]
['beep', 0.0, 837.765733929364, 0.0, 0.0, 0.0, 0.0, -1282.1854689342344, 0.0]
['beep', 0.0, 837.2963472958025, 0.0, 0.0, 0.0, 0.0, -1283.0795387124467, 0.0]
['beep', 0.0, 836.8716641511518, 0.0, 0.0, 0.0, 0.0, -1283.191297434723, 0.0]
['beep', 0.0, 836.379925773135, 0.0, 0.0, 0.0, 0.0, -1282.5654485899745, 0.0]
['beep', 0.0, 837.0951815957048, 0.0, 0.0, 0.0, 0.0, -1284.8900300133264, 0.0]
['beep', 0.0, 835.8881873951182, 0.0, 0.0, 0.0, 0.0, -1288.0416259815247, 0.0]
['beep', 0.0, 835.1505798280931, 0.0, 0.0, 0.0, 0.0, -1285.806451535994, 0.0]
['beep', 0.0, 835.3070420392802, 0.0, 0.0, 0.0, 0.0, -1285.4041201357986, 0.0]
['beep', 0.0, 836.6481467065987, 0.0, 0.0, 0.0, 0.0, -1285.6052858358962, 0.0]
['beep', 0.0, 838.1680653295596, 0.0, 0.0, 0.0, 0.0, -1286.4770038696533, 0.0]
['beep', 0.0, 837.0728298512495, 0.0, 0.0, 0.0, 0.0, -1286.7228730586617, 0.0]
['beep', 0.0, 836.4916844954115, 0.0, 0.0, 0.0, 0.0, -1286.097024213913, 0.0]
['beep', 0.0, 836.4022775175903, 0.0, 0.0, 0.0, 0.0, -1285.649989324807, 0.0]
['beep', 0.0, 836.3575740286797, 0.0, 0.0, 0.0, 0.0, -1286.58876259193, 0.0]
['beep', 0.0, 836.4246292620456, 0.0, 0.0, 0.0, 0.0, -1287.4828323701422, 0.0]
['beep', 0.0, 836.3575740286797, 0.0, 0.0, 0.0, 0.0, -1287.9298672592483, 0.0]
['beep', 0.0, 834.92706238354, 0.0, 0.0, 0.0, 0.0, -1289.0474544820136, 0.0]
['beep', 0.0, 834.9047106390847, 0.0, 0.0, 0.0, 0.0, -1288.935695759737, 0.0]
['beep', 0.0, 836.4022775175903, 0.0, 0.0, 0.0, 0.0, -1287.7063498146952, 0.0]
['beep', 0.0, 837.0951815957048, 0.0, 0.0, 0.0, 0.0, -1289.1815649487455, 0.0]
['beep', 0.0, 837.9445478850065, 0.0, 0.0, 0.0, 0.0, -1288.6004195929074, 0.0]
['beep', 0.0, 836.8716641511518, 0.0, 0.0, 0.0, 0.0, -1289.4050823932985, 0.0]
['beep', 0.0, 835.4635042504674, 0.0, 0.0, 0.0, 0.0, -1289.1592132042902, 0.0]
['beep', 0.0, 836.7599054288752, 0.0, 0.0, 0.0, 0.0, -1289.069806226469, 0.0]
['beep', 0.0, 836.5810914732327, 0.0, 0.0, 0.0, 0.0, -1290.321503915966, 0.0]
['beep', 0.0, 836.379925773135, 0.0, 0.0, 0.0, 0.0, -1290.3438556604215, 0.0]
['beep', 0.0, 836.2681670508584, 0.0, 0.0, 0.0, 0.0, -1291.483794627642, 0.0]
['beep', 0.0, 835.8211321617523, 0.0, 0.0, 0.0, 0.0, -1292.646085339318, 0.0]
['beep', 0.0, 835.7987804172969, 0.0, 0.0, 0.0, 0.0, -1292.288457428033, 0.0]
['beep', 0.0, 837.0057746178836, 0.0, 0.0, 0.0, 0.0, -1291.8637742833823, 0.0]
['beep', 0.0, 836.379925773135, 0.0, 0.0, 0.0, 0.0, -1293.4060446507985, 0.0]
['beep', 0.0, 835.1058763391825, 0.0, 0.0, 0.0, 0.0, -1293.4954516286198, 0.0]
['beep', 0.0, 835.0388211058165, 0.0, 0.0, 0.0, 0.0, -1291.9084777722928, 0.0]
['beep', 0.0, 834.7706001723528, 0.0, 0.0, 0.0, 0.0, -1293.6295620953515, 0.0]
['beep', 0.0, 835.1282280836377, 0.0, 0.0, 0.0, 0.0, -1292.2437539391226, 0.0]
['beep', 0.0, 835.9105391395735, 0.0, 0.0, 0.0, 0.0, -1292.936658017237, 0.0]
['beep', 0.0, 835.5305594838333, 0.0, 0.0, 0.0, 0.0, -1294.098948728913, 0.0]
['beep', 0.0, 835.6870216950205, 0.0, 0.0, 0.0, 0.0, -1293.2719341840666, 0.0]
['beep', 0.0, 834.9494141279953, 0.0, 0.0, 0.0, 0.0, -1294.389521406832, 0.0]
['beep', 0.0, 835.1282280836377, 0.0, 0.0, 0.0, 0.0, -1294.1436522178237, 0.0]
['beep', 0.0, 835.1505798280931, 0.0, 0.0, 0.0, 0.0, -1293.87543128436, 0.0]
['beep', 0.0, 834.4800274944339, 0.0, 0.0, 0.0, 0.0, -1294.1883557067342, 0.0]
['beep', 0.0, 834.6811931945316, 0.0, 0.0, 0.0, 0.0, -1293.87543128436, 0.0]
['beep', 0.0, 835.7987804172969, 0.0, 0.0, 0.0, 0.0, -1294.8142045514828, 0.0]
['beep', 0.0, 836.4022775175903, 0.0, 0.0, 0.0, 0.0, -1294.97066676267, 0.0]
['beep', 0.0, 836.4916844954115, 0.0, 0.0, 0.0, 0.0, -1294.9930185071253, 0.0]
['beep', 0.0, 835.5976147171992, 0.0, 0.0, 0.0, 0.0, -1294.1213004733684, 0.0]
['beep', 0.0, 835.3293937837356, 0.0, 0.0, 0.0, 0.0, -1294.8812597848487, 0.0]
['beep', 0.0, 836.3575740286797, 0.0, 0.0, 0.0, 0.0, -1295.037721996036, 0.0]
['beep', 0.0, 837.1622368290707, 0.0, 0.0, 0.0, 0.0, -1293.9648382621813, 0.0]
['beep', 0.0, 836.4916844954115, 0.0, 0.0, 0.0, 0.0, -1295.261239440589, 0.0]
['beep', 0.0, 835.1282280836377, 0.0, 0.0, 0.0, 0.0, -1295.3282946739548, 0.0]
['beep', 0.0, 835.6646699505651, 0.0, 0.0, 0.0, 0.0, -1294.389521406832, 0.0]
['beep', 0.0, 835.6870216950205, 0.0, 0.0, 0.0, 0.0, -1295.1047772294019, 0.0]
['beep', 0.0, 835.0164693613613, 0.0, 0.0, 0.0, 0.0, -1294.1436522178237, 0.0]
['beep', 0.0, 834.703544938987, 0.0, 0.0, 0.0, 0.0, -1295.0824254849465, 0.0]
['beep', 0.0, 833.7871234163193, 0.0, 0.0, 0.0, 0.0, -1293.9201347732705, 0.0]
['beep', 0.0, 833.317736782758, 0.0, 0.0, 0.0, 0.0, -1294.8812597848487, 0.0]
['beep', 0.0, 832.960108871473, 0.0, 0.0, 0.0, 0.0, -1296.4011784078095, 0.0]
['beep', 0.0, 832.5130739823669, 0.0, 0.0, 0.0, 0.0, -1296.1329574743459, 0.0]
['beep', 0.0, 828.6015187026882, 0.0, 0.0, 0.0, 0.0, -1300.2233267096672, 0.0]
['beep', 0.0, 823.9523558559843, 0.0, 0.0, 0.0, 0.0, -1303.5760883779633, 0.0]
['beep', 0.0, 828.668573936054, 0.0, 0.0, 0.0, 0.0, -1300.7374168321392, 0.0]
['beep', 0.0, 851.3555945581907, 0.0, 0.0, 0.0, 0.0, -1299.262201698089, 0.0]
['beep', 0.0, 860.5645132737773, 0.0, 0.0, 0.0, 0.0, -1303.0843499999464, 0.0]
['beep', 0.0, 863.5149435418778, 0.0, 0.0, 0.0, 0.0, -1307.0853122574465, 0.0]
['beep', 0.0, 863.4925917974224, 0.0, 0.0, 0.0, 0.0, -1310.0580942700024, 0.0]
['beep', 0.0, 863.6267022641542, 0.0, 0.0, 0.0, 0.0, -1310.5051291591085, 0.0]
['beep', 0.0, 864.7666412313749, 0.0, 0.0, 0.0, 0.0, -1310.5721843924744, 0.0]
['beep', 0.0, 864.476068553456, 0.0, 0.0, 0.0, 0.0, -1310.549832648019, 0.0]
['beep', 0.0, 862.7549842303973, 0.0, 0.0, 0.0, 0.0, -1310.1475012478236, 0.0]
['beep', 0.0, 861.4585830519895, 0.0, 0.0, 0.0, 0.0, -1309.4322454252535, 0.0]
['beep', 0.0, 860.3856993181348, 0.0, 0.0, 0.0, 0.0, -1310.192204736734, 0.0]
['beep', 0.0, 861.2574173518917, 0.0, 0.0, 0.0, 0.0, -1309.6334111253514, 0.0]
['beep', 0.0, 863.3137778417799, 0.0, 0.0, 0.0, 0.0, -1308.940507047237, 0.0]
['beep', 0.0, 864.6325307646431, 0.0, 0.0, 0.0, 0.0, -1310.192204736734, 0.0]
['beep', 0.0, 863.2020191195035, 0.0, 0.0, 0.0, 0.0, -1309.4769489141643, 0.0]
['beep', 0.0, 863.3137778417799, 0.0, 0.0, 0.0, 0.0, -1309.4322454252535, 0.0]
['beep', 0.0, 864.8783999536515, 0.0, 0.0, 0.0, 0.0, -1310.2816117145553, 0.0]
['beep', 0.0, 864.9231034425621, 0.0, 0.0, 0.0, 0.0, -1310.3486669479212, 0.0]
['beep', 0.0, 864.6548825090985, 0.0, 0.0, 0.0, 0.0, -1311.645068126329, 0.0]
['beep', 0.0, 864.6548825090985, 0.0, 0.0, 0.0, 0.0, -1311.488605915142, 0.0]
['beep', 0.0, 863.5596470307884, 0.0, 0.0, 0.0, 0.0, -1311.868585570882, 0.0]
['beep', 0.0, 862.9785016749504, 0.0, 0.0, 0.0, 0.0, -1312.7403036046392, 0.0]
['beep', 0.0, 862.9114464415844, 0.0, 0.0, 0.0, 0.0, -1313.6343733828514, 0.0]
['beep', 0.0, 863.6490540086096, 0.0, 0.0, 0.0, 0.0, -1314.908422816804, 0.0]
['beep', 0.0, 863.2914260973247, 0.0, 0.0, 0.0, 0.0, -1315.2213472391782, 0.0]
['beep', 0.0, 863.5149435418778, 0.0, 0.0, 0.0, 0.0, -1315.3331059614547, 0.0]
['beep', 0.0, 863.2914260973247, 0.0, 0.0, 0.0, 0.0, -1314.7296088611615, 0.0]
['beep', 0.0, 862.2408941079252, 0.0, 0.0, 0.0, 0.0, -1314.6402018833403, 0.0]
['beep', 0.0, 862.0173766633721, 0.0, 0.0, 0.0, 0.0, -1315.6683821282843, 0.0]
['beep', 0.0, 861.9950249189169, 0.0, 0.0, 0.0, 0.0, -1315.8248443394714, 0.0]
['beep', 0.0, 861.7491557299085, 0.0, 0.0, 0.0, 0.0, -1315.578975150463, 0.0]
['beep', 0.0, 861.4585830519895, 0.0, 0.0, 0.0, 0.0, -1315.6236786393738, 0.0]
['beep', 0.0, 861.7491557299085, 0.0, 0.0, 0.0, 0.0, -1315.9589548062033, 0.0]
['beep', 0.0, 860.989196418428, 0.0, 0.0, 0.0, 0.0, -1314.7966640945274, 0.0]
['beep', 0.0, 861.9503214300063, 0.0, 0.0, 0.0, 0.0, -1315.4672164281865, 0.0]
['beep', 0.0, 862.1961906190146, 0.0, 0.0, 0.0, 0.0, -1315.4001611948206, 0.0]
['beep', 0.0, 861.570341774266, 0.0, 0.0, 0.0, 0.0, -1314.5284431610637, 0.0]
['beep', 0.0, 861.5032865409001, 0.0, 0.0, 0.0, 0.0, -1316.0036582951138, 0.0]
['beep', 0.0, 861.7268039854532, 0.0, 0.0, 0.0, 0.0, -1319.0434955410358, 0.0]
['beep', 0.0, 860.4080510625901, 0.0, 0.0, 0.0, 0.0, -1317.1212455178793, 0.0]
['beep', 0.0, 859.2681120953694, 0.0, 0.0, 0.0, 0.0, -1316.8306728399602, 0.0]
['beep', 0.0, 860.251588851403, 0.0, 0.0, 0.0, 0.0, -1316.4953966731307, 0.0]
['beep', 0.0, 861.2797690963471, 0.0, 0.0, 0.0, 0.0, -1317.5012251736196, 0.0]
['beep', 0.0, 861.7938592188191, 0.0, 0.0, 0.0, 0.0, -1318.0823705294574, 0.0]
['beep', 0.0, 861.8162109632744, 0.0, 0.0, 0.0, 0.0, -1316.5624519064966, 0.0]
['beep', 0.0, 860.7209754849644, 0.0, 0.0, 0.0, 0.0, -1317.8812048293598, 0.0]
['beep', 0.0, 861.0115481628834, 0.0, 0.0, 0.0, 0.0, -1317.1212455178793, 0.0]
['beep', 0.0, 861.0115481628834, 0.0, 0.0, 0.0, 0.0, -1316.4730449286753, 0.0]
['beep', 0.0, 860.5198097848667, 0.0, 0.0, 0.0, 0.0, -1317.2106524957005, 0.0]
['beep', 0.0, 859.9386644290287, 0.0, 0.0, 0.0, 0.0, -1316.7636176065944, 0.0]
['beep', 0.0, 859.2681120953694, 0.0, 0.0, 0.0, 0.0, -1317.2777077290664, 0.0]
['beep', 0.0, 859.8269057067521, 0.0, 0.0, 0.0, 0.0, -1318.5070536741084, 0.0]
['beep', 0.0, 860.6762719960537, 0.0, 0.0, 0.0, 0.0, -1317.903556573815, 0.0]
['beep', 0.0, 861.0115481628834, 0.0, 0.0, 0.0, 0.0, -1317.4788734291642, 0.0]
['beep', 0.0, 859.9610161734839, 0.0, 0.0, 0.0, 0.0, -1316.227175739667, 0.0]
['beep', 0.0, 859.9386644290287, 0.0, 0.0, 0.0, 0.0, -1316.6295071398624, 0.0]
['beep', 0.0, 860.832734207241, 0.0, 0.0, 0.0, 0.0, -1316.3389344619436, 0.0]
['beep', 0.0, 861.3691760741683, 0.0, 0.0, 0.0, 0.0, -1317.7470943626279, 0.0]
['beep', 0.0, 860.8997894406068, 0.0, 0.0, 0.0, 0.0, -1318.484701929653, 0.0]
['beep', 0.0, 860.0951266402158, 0.0, 0.0, 0.0, 0.0, -1317.6576873848066, 0.0]
['beep', 0.0, 859.8269057067521, 0.0, 0.0, 0.0, 0.0, -1316.8530245844156, 0.0]
['beep', 0.0, 858.4187458060677, 0.0, 0.0, 0.0, 0.0, -1317.54592866253, 0.0]
['beep', 0.0, 858.5081527838889, 0.0, 0.0, 0.0, 0.0, -1318.328239718466, 0.0]
['beep', 0.0, 860.475106295956, 0.0, 0.0, 0.0, 0.0, -1318.842329840938, 0.0]
['beep', 0.0, 859.5586847732884, 0.0, 0.0, 0.0, 0.0, -1317.0094867956027, 0.0]
['beep', 0.0, 858.1728766170594, 0.0, 0.0, 0.0, 0.0, -1319.2223094966782, 0.0]
['beep', 0.0, 855.5577225157884, 0.0, 0.0, 0.0, 0.0, -1317.5012251736196, 0.0]
['beep', 0.0, 854.9765771599505, 0.0, 0.0, 0.0, 0.0, -1313.7684838495832, 0.0]
['beep', 0.0, 855.0436323933163, 0.0, 0.0, 0.0, 0.0, -1313.6343733828514, 0.0]
['beep', 0.0, 855.5130190268778, 0.0, 0.0, 0.0, 0.0, -1312.2485652266223, 0.0]
['beep', 0.0, 855.6918329825203, 0.0, 0.0, 0.0, 0.0, -1310.683943114751, 0.0]
['beep', 0.0, 855.2000946045035, 0.0, 0.0, 0.0, 0.0, -1310.9745157926698, 0.0]
['beep', 0.0, 856.3623853161795, 0.0, 0.0, 0.0, 0.0, -1311.9579925487033, 0.0]
['beep', 0.0, 856.0271091493499, 0.0, 0.0, 0.0, 0.0, -1313.5449664050302, 0.0]
['beep', 0.0, 855.5130190268778, 0.0, 0.0, 0.0, 0.0, -1313.9025943163151, 0.0]
['beep', 0.0, 855.7141847269755, 0.0, 0.0, 0.0, 0.0, -1314.126111760868, 0.0]
['beep', 0.0, 855.9377021715287, 0.0, 0.0, 0.0, 0.0, -1313.8355390829493, 0.0]
['beep', 0.0, 857.4799725389448, 0.0, 0.0, 0.0, 0.0, -1314.2155187386893, 0.0]
['beep', 0.0, 857.0105859053834, 0.0, 0.0, 0.0, 0.0, -1314.4166844387871, 0.0]
['beep', 0.0, 855.7588882158861, 0.0, 0.0, 0.0, 0.0, -1312.874414071371, 0.0]
['beep', 0.0, 854.8648184376739, 0.0, 0.0, 0.0, 0.0, -1312.9638210491921, 0.0]
['beep', 0.0, 854.2613213373807, 0.0, 0.0, 0.0, 0.0, -1313.321448960477, 0.0]
['beep', 0.0, 854.5518940152996, 0.0, 0.0, 0.0, 0.0, -1313.2543937271112, 0.0]
['beep', 0.0, 854.4624870374784, 0.0, 0.0, 0.0, 0.0, -1313.5896698939407, 0.0]
['beep', 0.0, 854.1048591261934, 0.0, 0.0, 0.0, 0.0, -1313.2990972160217, 0.0]
['beep', 0.0, 852.8531614366963, 0.0, 0.0, 0.0, 0.0, -1313.0755797714687, 0.0]
['beep', 0.0, 853.7025277259979, 0.0, 0.0, 0.0, 0.0, -1313.2990972160217, 0.0]
['beep', 0.0, 854.0154521483722, 0.0, 0.0, 0.0, 0.0, -1314.908422816804, 0.0]
['beep', 0.0, 853.7695829593639, 0.0, 0.0, 0.0, 0.0, -1315.4895681726418, 0.0]
['beep', 0.0, 852.6966992255092, 0.0, 0.0, 0.0, 0.0, -1314.7296088611615, 0.0]
['beep', 0.0, 852.4731817809561, 0.0, 0.0, 0.0, 0.0, -1315.2436989836335, 0.0]
['beep', 0.0, 852.9202166700622, 0.0, 0.0, 0.0, 0.0, -1314.9754780501698, 0.0]
['beep', 0.0, 853.3672515591684, 0.0, 0.0, 0.0, 0.0, -1314.2378704831447, 0.0]
['beep', 0.0, 853.2554928368918, 0.0, 0.0, 0.0, 0.0, -1313.969649549681, 0.0]
['beep', 0.0, 852.0037951473946, 0.0, 0.0, 0.0, 0.0, -1315.3107542169994, 0.0]
['beep', 0.0, 851.1991323470036, 0.0, 0.0, 0.0, 0.0, -1314.8190158389828, 0.0]
['beep', 0.0, 851.5120567693779, 0.0, 0.0, 0.0, 0.0, -1313.9025943163151, 0.0]
['beep', 0.0, 852.249664336403, 0.0, 0.0, 0.0, 0.0, -1314.8637193278933, 0.0]
['beep', 0.0, 853.0096236478835, 0.0, 0.0, 0.0, 0.0, -1315.1095885169016, 0.0]
['beep', 0.0, 852.6743474810538, 0.0, 0.0, 0.0, 0.0, -1315.713085617195, 0.0]
['beep', 0.0, 853.2778445813472, 0.0, 0.0, 0.0, 0.0, -1316.6965623732285, 0.0]
['beep', 0.0, 853.5684172592661, 0.0, 0.0, 0.0, 0.0, -1316.875376328871, 0.0]
['beep', 0.0, 853.6354724926321, 0.0, 0.0, 0.0, 0.0, -1318.2164809961894, 0.0]
['beep', 0.0, 853.8142864482745, 0.0, 0.0, 0.0, 0.0, -1318.6635158852955, 0.0]
['beep', 0.0, 853.3672515591684, 0.0, 0.0, 0.0, 0.0, -1318.551757163019, 0.0]
['beep', 0.0, 853.0766788812493, 0.0, 0.0, 0.0, 0.0, -1317.4565216847088, 0.0]
['beep', 0.0, 852.4508300365007, 0.0, 0.0, 0.0, 0.0, -1318.9093850743038, 0.0]
['beep', 0.0, 852.3614230586795, 0.0, 0.0, 0.0, 0.0, -1319.1999577522229, 0.0]
['beep', 0.0, 851.3555945581907, 0.0, 0.0, 0.0, 0.0, -1317.7247426181725, 0.0]
['beep', 0.0, 850.4838765244338, 0.0, 0.0, 0.0, 0.0, -1318.2164809961894, 0.0]
['beep', 0.0, 849.6792137240427, 0.0, 0.0, 0.0, 0.0, -1319.5352339190524, 0.0]
['beep', 0.0, 850.0815451242382, 0.0, 0.0, 0.0, 0.0, -1318.2611844850999, 0.0]
['beep', 0.0, 850.9532631579951, 0.0, 0.0, 0.0, 0.0, -1318.2611844850999, 0.0]
['beep', 0.0, 850.1038968686935, 0.0, 0.0, 0.0, 0.0, -1318.8199780964826, 0.0]
['beep', 0.0, 849.2545305793918, 0.0, 0.0, 0.0, 0.0, -1318.1270740183681, 0.0]
['beep', 0.0, 848.3381090567243, 0.0, 0.0, 0.0, 0.0, -1319.1776060077675, 0.0]
['beep', 0.0, 845.5217892553555, 0.0, 0.0, 0.0, 0.0, -1316.2495274841224, 0.0]
['beep', 0.0, 841.0290886198388, 0.0, 0.0, 0.0, 0.0, -1316.383637950854, 0.0]
['beep', 0.0, 843.3760217876461, 0.0, 0.0, 0.0, 0.0, -1316.3389344619436, 0.0]
['beep', 0.0, 862.4197080635677, 0.0, 0.0, 0.0, 0.0, -1305.7665593345832, 0.0]
['beep', 0.0, 871.5839232902435, 0.0, 0.0, 0.0, 0.0, -1293.6519138398069, 0.0]
['beep', 0.0, 875.1154989141821, 0.0, 0.0, 0.0, 0.0, -1281.0231782225583, 0.0]
['beep', 0.0, 881.6422082951318, 0.0, 0.0, 0.0, 0.0, -1270.7190240286618, 0.0]
['beep', 0.0, 885.9113914860955, 0.0, 0.0, 0.0, 0.0, -1255.6986517546954, 0.0]
['beep', 0.0, 890.6499613106205, 0.0, 0.0, 0.0, 0.0, -1238.3313463129218, 0.0]
['beep', 0.0, 897.9366300030506, 0.0, 0.0, 0.0, 0.0, -1223.8250641614277, 0.0]
['beep', 0.0, 904.1057114727154, 0.0, 0.0, 0.0, 0.0, -1203.9767150851148, 0.0]
['beep', 0.0, 914.923955789084, 0.0, 0.0, 0.0, 0.0, -1183.524868908509, 0.0]
['beep', 0.0, 923.4846739154666, 0.0, 0.0, 0.0, 0.0, -1166.0011012555483, 0.0]
['beep', 0.0, 926.3009937168353, 0.0, 0.0, 0.0, 0.0, -1148.075002202392, 0.0]
['beep', 0.0, 933.0288687978828, 0.0, 0.0, 0.0, 0.0, -1126.6173275252972, 0.0]
['beep', 0.0, 939.4661712010112, 0.0, 0.0, 0.0, 0.0, -1111.3063825734118, 0.0]
['beep', 0.0, 946.6857846600753, 0.0, 0.0, 0.0, 0.0, -1094.9002021432166, 0.0]
['beep', 0.0, 954.1289155636925, 0.0, 0.0, 0.0, 0.0, -1081.757376403496, 0.0]
['beep', 0.0, 958.4204504991116, 0.0, 0.0, 0.0, 0.0, -1066.3123209848786, 0.0]
['beep', 0.0, 964.276607546402, 0.0, 0.0, 0.0, 0.0, -1057.5951406473089, 0.0]
['beep', 0.0, 970.3562820382455, 0.0, 0.0, 0.0, 0.0, -1047.4250969201444, 0.0]
['beep', 0.0, 975.7654041964298, 0.0, 0.0, 0.0, 0.0, -1038.2832334379236, 0.0]
['beep', 0.0, 979.9004769206616, 0.0, 0.0, 0.0, 0.0, -1031.5330066124209, 0.0]
['beep', 0.0, 986.0695583903264, 0.0, 0.0, 0.0, 0.0, -1024.8498350202842, 0.0]
['beep', 0.0, 991.4786805485107, 0.0, 0.0, 0.0, 0.0, -1025.430980376122, 0.0]
['beep', 0.0, 998.2065556295581, 0.0, 0.0, 0.0, 0.0, -1024.4922071089993, 0.0]
['beep', 0.0, 1002.4533870760664, 0.0, 0.0, 0.0, 0.0, -1026.9956024879937, 0.0]
['beep', 0.0, 1010.4553115910663, 0.0, 0.0, 0.0, 0.0, -1028.8284455333287, 0.0]
['beep', 0.0, 1014.0986459372814, 0.0, 0.0, 0.0, 0.0, -1033.0082217464712, 0.0]
['beep', 0.0, 1020.1112651957591, 0.0, 0.0, 0.0, 0.0, -1041.7477538284963, 0.0]
['beep', 0.0, 1023.6204890752423, 0.0, 0.0, 0.0, 0.0, -1050.1520097436917, 0.0]
['beep', 0.0, 1029.655460078175, 0.0, 0.0, 0.0, 0.0, -1058.7797831034402, 0.0]
['beep', 0.0, 1033.3211461688454, 0.0, 0.0, 0.0, 0.0, -1063.49600118351, 0.0]
['beep', 0.0, 1036.986832259516, 0.0, 0.0, 0.0, 0.0, -1072.883733854739, 0.0]
['beep', 0.0, 1038.5067508824768, 0.0, 0.0, 0.0, 0.0, -1081.0644723253813, 0.0]
['beep', 0.0, 1040.2054834610801, 0.0, 0.0, 0.0, 0.0, -1090.2957427854233, 0.0]
['beep', 0.0, 1040.116076483259, 0.0, 0.0, 0.0, 0.0, -1096.7330451885516, 0.0]
['beep', 0.0, 1040.0937247388035, 0.0, 0.0, 0.0, 0.0, -1102.8127196803953, 0.0]
['beep', 0.0, 1040.1607799721694, 0.0, 0.0, 0.0, 0.0, -1112.1557488627136, 0.0]
['beep', 0.0, 1040.049021249893, 0.0, 0.0, 0.0, 0.0, -1117.8554436988168, 0.0]
['beep', 0.0, 1040.92073928365, 0.0, 0.0, 0.0, 0.0, -1120.8729292002834, 0.0]
['beep', 0.0, 1041.3454224283007, 0.0, 0.0, 0.0, 0.0, -1126.2596996140123, 0.0]
['beep', 0.0, 1041.9936230175047, 0.0, 0.0, 0.0, 0.0, -1132.8087607394173, 0.0]
['beep', 0.0, 1040.4960561389992, 0.0, 0.0, 0.0, 0.0, -1135.7591910075178, 0.0]
['beep', 0.0, 1041.3454224283007, 0.0, 0.0, 0.0, 0.0, -1137.74849626404, 0.0]
['beep', 0.0, 1042.9100445401723, 0.0, 0.0, 0.0, 0.0, -1140.7659817655065, 0.0]
['beep', 0.0, 1041.881864295228, 0.0, 0.0, 0.0, 0.0, -1145.0128132120149, 0.0]
['beep', 0.0, 1041.2336637060241, 0.0, 0.0, 0.0, 0.0, -1147.2479876575455, 0.0]
['beep', 0.0, 1040.6972218390968, 0.0, 0.0, 0.0, 0.0, -1151.0924877038585, 0.0]
['beep', 0.0, 1040.2054834610801, 0.0, 0.0, 0.0, 0.0, -1152.9253307491936, 0.0]
['beep', 0.0, 1040.6525183501863, 0.0, 0.0, 0.0, 0.0, -1153.908807505227, 0.0]
['beep', 0.0, 1042.2618439509683, 0.0, 0.0, 0.0, 0.0, -1157.105106962336, 0.0]
['beep', 0.0, 1044.631128863231, 0.0, 0.0, 0.0, 0.0, -1157.7756592959952, 0.0]
['beep', 0.0, 1044.4746666520437, 0.0, 0.0, 0.0, 0.0, -1158.7144325631182, 0.0]
['beep', 0.0, 1044.2511492074907, 0.0, 0.0, 0.0, 0.0, -1159.7426128080622, 0.0]
['beep', 0.0, 1043.8041143183846, 0.0, 0.0, 0.0, 0.0, -1163.654168087741, 0.0]
['beep', 0.0, 1044.8993497966947, 0.0, 0.0, 0.0, 0.0, -1165.777583810995, 0.0]
['beep', 0.0, 1044.854646307784, 0.0, 0.0, 0.0, 0.0, -1165.777583810995, 0.0]
['beep', 0.0, 1044.0052800184824, 0.0, 0.0, 0.0, 0.0, -1166.1128599778247, 0.0]
['beep', 0.0, 1043.8041143183846, 0.0, 0.0, 0.0, 0.0, -1168.1468687232577, 0.0]
['beep', 0.0, 1044.2287974630353, 0.0, 0.0, 0.0, 0.0, -1169.4209181572103, 0.0]
['beep', 0.0, 1045.1228672412476, 0.0, 0.0, 0.0, 0.0, -1168.6162553568192, 0.0]
['beep', 0.0, 1045.815771319362, 0.0, 0.0, 0.0, 0.0, -1170.5385053799755, 0.0]
['beep', 0.0, 1044.3629079297673, 0.0, 0.0, 0.0, 0.0, -1170.3820431687884, 0.0]
['beep', 0.0, 1044.4523149075885, 0.0, 0.0, 0.0, 0.0, -1171.9243135362046, 0.0]
['beep', 0.0, 1046.598082375298, 0.0, 0.0, 0.0, 0.0, -1173.2207147146123, 0.0]
['beep', 0.0, 1048.0285940204376, 0.0, 0.0, 0.0, 0.0, -1172.9971972700594, 0.0]
['beep', 0.0, 1048.0956492538035, 0.0, 0.0, 0.0, 0.0, -1175.4111856712325, 0.0]
['beep', 0.0, 1048.050945764893, 0.0, 0.0, 0.0, 0.0, -1174.3606536818331, 0.0]
['beep', 0.0, 1047.268634708957, 0.0, 0.0, 0.0, 0.0, -1176.3052554494448, 0.0]
['beep', 0.0, 1047.2015794755912, 0.0, 0.0, 0.0, 0.0, -1176.394662427266, 0.0]
['beep', 0.0, 1047.7827248314293, 0.0, 0.0, 0.0, 0.0, -1178.0486915169588, 0.0]
['beep', 0.0, 1047.6039108757868, 0.0, 0.0, 0.0, 0.0, -1178.6074851283415, 0.0]
['beep', 0.0, 1047.1568759866807, 0.0, 0.0, 0.0, 0.0, -1177.04286301647, 0.0]
['beep', 0.0, 1047.045117264404, 0.0, 0.0, 0.0, 0.0, -1176.394662427266, 0.0]
['beep', 0.0, 1046.3745649307448, 0.0, 0.0, 0.0, 0.0, -1176.685235105185, 0.0]
['beep', 0.0, 1047.1792277311358, 0.0, 0.0, 0.0, 0.0, -1178.5851333838862, 0.0]
['beep', 0.0, 1047.402745175689, 0.0, 0.0, 0.0, 0.0, -1178.7415955950732, 0.0]
['beep', 0.0, 1047.8721318092505, 0.0, 0.0, 0.0, 0.0, -1179.2556857175452, 0.0]
['beep', 0.0, 1046.4416201641106, 0.0, 0.0, 0.0, 0.0, -1181.1555839962464, 0.0]
['beep', 0.0, 1046.240454464013, 0.0, 0.0, 0.0, 0.0, -1181.0438252739698, 0.0]
['beep', 0.0, 1046.8439515643063, 0.0, 0.0, 0.0, 0.0, -1180.8203078294168, 0.0]
['beep', 0.0, 1045.793419574907, 0.0, 0.0, 0.0, 0.0, -1182.1167090078245, 0.0]
['beep', 0.0, 1045.9051782971833, 0.0, 0.0, 0.0, 0.0, -1182.7425578525733, 0.0]
['beep', 0.0, 1044.5193701409544, 0.0, 0.0, 0.0, 0.0, -1184.2624764755342, 0.0]
['beep', 0.0, 1043.0218032624489, 0.0, 0.0, 0.0, 0.0, -1184.4189386867213, 0.0]
['beep', 0.0, 1042.7088788400745, 0.0, 0.0, 0.0, 0.0, -1187.4364241881876, 0.0]
['beep', 0.0, 1042.5077131399767, 0.0, 0.0, 0.0, 0.0, -1185.8047468429502, 0.0]
['beep', 0.0, 1043.3570794292784, 0.0, 0.0, 0.0, 0.0, -1185.357711953844, 0.0]
['beep', 0.0, 1044.7205358410522, 0.0, 0.0, 0.0, 0.0, -1185.134194509291, 0.0]
['beep', 0.0, 1043.82646606284, 0.0, 0.0, 0.0, 0.0, -1185.5812293983972, 0.0]
['beep', 0.0, 1044.4746666520437, 0.0, 0.0, 0.0, 0.0, -1187.7940520994725, 0.0]
['beep', 0.0, 1044.7428875855073, 0.0, 0.0, 0.0, 0.0, -1189.42572944471, 0.0]
['beep', 0.0, 1044.6758323521415, 0.0, 0.0, 0.0, 0.0, -1189.8057091004503, 0.0]
['beep', 0.0, 1044.1840939741248, 0.0, 0.0, 0.0, 0.0, -1190.52096492302, 0.0]
['beep', 0.0, 1044.4746666520437, 0.0, 0.0, 0.0, 0.0, -1190.1633370117352, 0.0]
['beep', 0.0, 1043.9605765295717, 0.0, 0.0, 0.0, 0.0, -1189.9845230560927, 0.0]
['beep', 0.0, 1043.1335619847252, 0.0, 0.0, 0.0, 0.0, -1189.6939503781737, 0.0]
['beep', 0.0, 1044.1170387407587, 0.0, 0.0, 0.0, 0.0, -1190.7668341120284, 0.0]
['beep', 0.0, 1042.3288991843342, 0.0, 0.0, 0.0, 0.0, -1190.7444823675733, 0.0]
['beep', 0.0, 1043.2676724514572, 0.0, 0.0, 0.0, 0.0, -1190.9009445787603, 0.0]
['beep', 0.0, 1045.1228672412476, 0.0, 0.0, 0.0, 0.0, -1193.1584707687464, 0.0]
['beep', 0.0, 1044.854646307784, 0.0, 0.0, 0.0, 0.0, -1191.7726626125173, 0.0]
['beep', 0.0, 1043.1335619847252, 0.0, 0.0, 0.0, 0.0, -1189.6492468892632, 0.0]
['beep', 0.0, 1042.5971201177979, 0.0, 0.0, 0.0, 0.0, -1190.6774271342072, 0.0]
['beep', 0.0, 1042.1053817397813, 0.0, 0.0, 0.0, 0.0, -1192.1079387793468, 0.0]
['beep', 0.0, 1042.5747683733425, 0.0, 0.0, 0.0, 0.0, -1194.007837058048, 0.0]
['beep', 0.0, 1042.5077131399767, 0.0, 0.0, 0.0, 0.0, -1195.7959766144725, 0.0]
['beep', 0.0, 1044.0723352518482, 0.0, 0.0, 0.0, 0.0, -1197.1370812817909, 0.0]
['beep', 0.0, 1043.982928274027, 0.0, 0.0, 0.0, 0.0, -1195.0807207919026, 0.0]
['beep', 0.0, 1044.273500951946, 0.0, 0.0, 0.0, 0.0, -1195.259534747545, 0.0]
['beep', 0.0, 1044.8993497966947, 0.0, 0.0, 0.0, 0.0, -1195.7065696366512, 0.0]
['beep', 0.0, 1044.340556185312, 0.0, 0.0, 0.0, 0.0, -1194.0748922914138, 0.0]
['beep', 0.0, 1043.7370590850187, 0.0, 0.0, 0.0, 0.0, -1194.1866510136904, 0.0]
['beep', 0.0, 1043.401782918189, 0.0, 0.0, 0.0, 0.0, -1196.2877149924893, 0.0]
['beep', 0.0, 1042.3065474398788, 0.0, 0.0, 0.0, 0.0, -1195.5054039365536, 0.0]
['beep', 0.0, 1042.239492206513, 0.0, 0.0, 0.0, 0.0, -1195.1924795141792, 0.0]
['beep', 0.0, 1042.239492206513, 0.0, 0.0, 0.0, 0.0, -1194.2537062470565, 0.0]
['beep', 0.0, 1043.5135416404655, 0.0, 0.0, 0.0, 0.0, -1195.5724591699195, 0.0]
['beep', 0.0, 1042.753582328985, 0.0, 0.0, 0.0, 0.0, -1195.3712934698217, 0.0]
['beep', 0.0, 1043.0218032624489, 0.0, 0.0, 0.0, 0.0, -1196.3547702258552, 0.0]
['beep', 0.0, 1044.273500951946, 0.0, 0.0, 0.0, 0.0, -1197.7629301265395, 0.0]
['beep', 0.0, 1045.3463846858008, 0.0, 0.0, 0.0, 0.0, -1198.4334824601988, 0.0]
['beep', 0.0, 1044.3852596742224, 0.0, 0.0, 0.0, 0.0, -1194.2760579915116, 0.0]
['beep', 0.0, 1042.7982858178957, 0.0, 0.0, 0.0, 0.0, -1194.5666306694307, 0.0]
['beep', 0.0, 1042.6641753511637, 0.0, 0.0, 0.0, 0.0, -1197.584116170897, 0.0]
['beep', 0.0, 1044.1617422296695, 0.0, 0.0, 0.0, 0.0, -1196.9806190706038, 0.0]
['beep', 0.0, 1044.0946869963036, 0.0, 0.0, 0.0, 0.0, -1196.9806190706038, 0.0]
['beep', 0.0, 1042.7759340734403, 0.0, 0.0, 0.0, 0.0, -1199.61812491633, 0.0]
['beep', 0.0, 1041.0995532392924, 0.0, 0.0, 0.0, 0.0, -1197.6958748931736, 0.0]
['beep', 0.0, 1042.7312305845298, 0.0, 0.0, 0.0, 0.0, -1195.5724591699195, 0.0]
['beep', 0.0, 1044.8993497966947, 0.0, 0.0, 0.0, 0.0, -1197.8970405932714, 0.0]
['beep', 0.0, 1044.4746666520437, 0.0, 0.0, 0.0, 0.0, -1198.9252208382156, 0.0]
['beep', 0.0, 1042.9547480290828, 0.0, 0.0, 0.0, 0.0, -1197.6064679153524, 0.0]
['beep', 0.0, 1041.211311961569, 0.0, 0.0, 0.0, 0.0, -1198.1205580378244, 0.0]
['beep', 0.0, 1042.5077131399767, 0.0, 0.0, 0.0, 0.0, -1198.8358138603944, 0.0]
['beep', 0.0, 1043.178265473636, 0.0, 0.0, 0.0, 0.0, -1202.3450377398776, 0.0]
['beep', 0.0, 1042.2171404620576, 0.0, 0.0, 0.0, 0.0, -1200.3557324833553, 0.0]
['beep', 0.0, 1041.0324980059265, 0.0, 0.0, 0.0, 0.0, -1199.104034793858, 0.0]
['beep', 0.0, 1038.2385299490131, 0.0, 0.0, 0.0, 0.0, -1199.327552238411, 0.0]
['beep', 0.0, 1040.3395939278118, 0.0, 0.0, 0.0, 0.0, -1199.5734214274194, 0.0]
['beep', 0.0, 1048.788553331918, 0.0, 0.0, 0.0, 0.0, -1196.779453370506, 0.0]
['beep', 0.0, 1052.8118673338734, 0.0, 0.0, 0.0, 0.0, -1197.7629301265395, 0.0]
['beep', 0.0, 1054.6894138681191, 0.0, 0.0, 0.0, 0.0, -1198.2546685045563, 0.0]
['beep', 0.0, 1053.4824196675324, 0.0, 0.0, 0.0, 0.0, -1197.5170609375311, 0.0]
['beep', 0.0, 1052.4542394225884, 0.0, 0.0, 0.0, 0.0, -1196.779453370506, 0.0]
['beep', 0.0, 1052.7224603560521, 0.0, 0.0, 0.0, 0.0, -1195.3042382364558, 0.0]
['beep', 0.0, 1052.20837023358, 0.0, 0.0, 0.0, 0.0, -1197.204136515157, 0.0]
['beep', 0.0, 1052.3424807003119, 0.0, 0.0, 0.0, 0.0, -1198.6346481602966, 0.0]
['beep', 0.0, 1051.8060388333845, 0.0, 0.0, 0.0, 0.0, -1198.3217237379222, 0.0]
['beep', 0.0, 1053.5047714119878, 0.0, 0.0, 0.0, 0.0, -1198.4781859491095, 0.0]
['beep', 0.0, 1053.1247917562475, 0.0, 0.0, 0.0, 0.0, -1198.299371993467, 0.0]
['beep', 0.0, 1052.1860184891248, 0.0, 0.0, 0.0, 0.0, -1196.913563837238, 0.0]
['beep', 0.0, 1052.1189632557587, 0.0, 0.0, 0.0, 0.0, -1198.5675929269307, 0.0]
['beep', 0.0, 1052.5659981448648, 0.0, 0.0, 0.0, 0.0, -1198.2099650156458, 0.0]
['beep', 0.0, 1052.0072045334823, 0.0, 0.0, 0.0, 0.0, -1198.7240551381178, 0.0]
['beep', 0.0, 1052.5212946559543, 0.0, 0.0, 0.0, 0.0, -1200.266325505534, 0.0]
['beep', 0.0, 1053.6165301342644, 0.0, 0.0, 0.0, 0.0, -1198.3217237379222, 0.0]
['beep', 0.0, 1052.8565708227839, 0.0, 0.0, 0.0, 0.0, -1197.9864475710926, 0.0]
['beep', 0.0, 1052.0742597668482, 0.0, 0.0, 0.0, 0.0, -1198.7464068825732, 0.0]
['beep', 0.0, 1053.1247917562475, 0.0, 0.0, 0.0, 0.0, -1199.104034793858, 0.0]
['beep', 0.0, 1052.8789225672392, 0.0, 0.0, 0.0, 0.0, -1201.0262848170144, 0.0]
['beep', 0.0, 1051.5601696443762, 0.0, 0.0, 0.0, 0.0, -1200.6016016723636, 0.0]
['beep', 0.0, 1051.4484109220996, 0.0, 0.0, 0.0, 0.0, -1199.1934417716793, 0.0]
['beep', 0.0, 1051.8283905778399, 0.0, 0.0, 0.0, 0.0, -1198.9475725826708, 0.0]
['beep', 0.0, 1053.080088267337, 0.0, 0.0, 0.0, 0.0, -1198.880517349305, 0.0]
['beep', 0.0, 1053.951806301094, 0.0, 0.0, 0.0, 0.0, -1200.5568981834529, 0.0]
['beep', 0.0, 1053.1024400117922, 0.0, 0.0, 0.0, 0.0, -1199.3722557273218, 0.0]
['beep', 0.0, 1052.5212946559543, 0.0, 0.0, 0.0, 0.0, -1200.5121946945424, 0.0]
['beep', 0.0, 1052.8789225672392, 0.0, 0.0, 0.0, 0.0, -1199.4393109606876, 0.0]
['beep', 0.0, 1052.6777568671414, 0.0, 0.0, 0.0, 0.0, -1199.2604970050452, 0.0]
['beep', 0.0, 1052.9683295450604, 0.0, 0.0, 0.0, 0.0, -1200.489842950087, 0.0]
['beep', 0.0, 1052.7448121005073, 0.0, 0.0, 0.0, 0.0, -1198.7240551381178, 0.0]
['beep', 0.0, 1052.945977800605, 0.0, 0.0, 0.0, 0.0, -1200.3333807389, 0.0]
['beep', 0.0, 1052.633053378231, 0.0, 0.0, 0.0, 0.0, -1199.819290616428, 0.0]
['beep', 0.0, 1052.9236260561497, 0.0, 0.0, 0.0, 0.0, -1201.1603952837463, 0.0]
['beep', 0.0, 1054.0859167678257, 0.0, 0.0, 0.0, 0.0, -1200.1098632943467, 0.0]
['beep', 0.0, 1053.2812539674346, 0.0, 0.0, 0.0, 0.0, -1199.1263865383132, 0.0]
['beep', 0.0, 1052.9906812895158, 0.0, 0.0, 0.0, 0.0, -1200.9368778391931, 0.0]
['beep', 0.0, 1052.655405122686, 0.0, 0.0, 0.0, 0.0, -1201.8532993618608, 0.0]
['beep', 0.0, 1052.1860184891248, 0.0, 0.0, 0.0, 0.0, -1202.7250173956177, 0.0]
['beep', 0.0, 1054.5329516569318, 0.0, 0.0, 0.0, 0.0, -1202.1662237842352, 0.0]
['beep', 0.0, 1054.8235243348508, 0.0, 0.0, 0.0, 0.0, -1202.4120929732435, 0.0]
['beep', 0.0, 1054.2200272345576, 0.0, 0.0, 0.0, 0.0, -1203.4626249626428, 0.0]
['beep', 0.0, 1053.2589022229795, 0.0, 0.0, 0.0, 0.0, -1203.1720522847238, 0.0]
['beep', 0.0, 1060.657329637686, 0.0, 0.0, 0.0, 0.0, -1220.2264333041232, 0.0]
['beep', 0.0, 1060.299701726401, 0.0, 0.0, 0.0, 0.0, -1220.2040815596679, 0.0]
['beep', 0.0, 1061.3502337158006, 0.0, 0.0, 0.0, 0.0, -1220.3381920263996, 0.0]
['beep', 0.0, 1061.3502337158006, 0.0, 0.0, 0.0, 0.0, -1219.779398415017, 0.0]
['beep', 0.0, 1059.9867773040269, 0.0, 0.0, 0.0, 0.0, -1219.0864943369024, 0.0]
['beep', 0.0, 1060.1655912596693, 0.0, 0.0, 0.0, 0.0, -1219.332363525911, 0.0]
['beep', 0.0, 1059.6067976482866, 0.0, 0.0, 0.0, 0.0, -1221.5675379714417, 0.0]
['beep', 0.0, 1059.4503354370995, 0.0, 0.0, 0.0, 0.0, -1222.1710350717349, 0.0]
['beep', 0.0, 1059.3832802037336, 0.0, 0.0, 0.0, 0.0, -1221.2546135490672, 0.0]
['beep', 0.0, 1059.7185563705632, 0.0, 0.0, 0.0, 0.0, -1218.9523838701707, 0.0]
['beep', 0.0, 1059.1821145036358, 0.0, 0.0, 0.0, 0.0, -1219.4217705037322, 0.0]
['beep', 0.0, 1060.277349981946, 0.0, 0.0, 0.0, 0.0, -1220.8522821488718, 0.0]
['beep', 0.0, 1060.657329637686, 0.0, 0.0, 0.0, 0.0, -1221.9028141382712, 0.0]
['beep', 0.0, 1060.3220534708564, 0.0, 0.0, 0.0, 0.0, -1221.5451862269863, 0.0]
['beep', 0.0, 1059.4279836926441, 0.0, 0.0, 0.0, 0.0, -1222.618069960841, 0.0]
['beep', 0.0, 1059.7185563705632, 0.0, 0.0, 0.0, 0.0, -1219.6676396927405, 0.0]
['beep', 0.0, 1061.6184546492643, 0.0, 0.0, 0.0, 0.0, -1219.1311978258132, 0.0]
['beep', 0.0, 1062.3560622162893, 0.0, 0.0, 0.0, 0.0, -1219.8911571372935, 0.0]
['beep', 0.0, 1061.1937715046133, 0.0, 0.0, 0.0, 0.0, -1219.8911571372935, 0.0]
['beep', 0.0, 1061.1714197601582, 0.0, 0.0, 0.0, 0.0, -1220.0252676040254, 0.0]
['beep', 0.0, 1061.3278819713453, 0.0, 0.0, 0.0, 0.0, -1220.0252676040254, 0.0]
['beep', 0.0, 1061.7972686049068, 0.0, 0.0, 0.0, 0.0, -1219.0641425924473, 0.0]
['beep', 0.0, 1062.6689866386637, 0.0, 0.0, 0.0, 0.0, -1217.7006861806735, 0.0]
['beep', 0.0, 1060.8808470822391, 0.0, 0.0, 0.0, 0.0, -1219.2429565480898, 0.0]
['beep', 0.0, 1059.0703557813592, 0.0, 0.0, 0.0, 0.0, -1221.3887240157992, 0.0]
['beep', 0.0, 1059.5397424149207, 0.0, 0.0, 0.0, 0.0, -1220.4499507486762, 0.0]
['beep', 0.0, 1059.9644255595715, 0.0, 0.0, 0.0, 0.0, -1218.550052469975, 0.0]
['beep', 0.0, 1062.0207860494597, 0.0, 0.0, 0.0, 0.0, -1218.90768038126, 0.0]
['beep', 0.0, 1061.6855098826302, 0.0, 0.0, 0.0, 0.0, -1218.9523838701707, 0.0]
['beep', 0.0, 1060.4561639375884, 0.0, 0.0, 0.0, 0.0, -1217.6336309473074, 0.0]
['beep', 0.0, 1060.0538325373927, 0.0, 0.0, 0.0, 0.0, -1218.0136106030477, 0.0]
['beep', 0.0, 1059.8750185817503, 0.0, 0.0, 0.0, 0.0, -1219.6676396927405, 0.0]
['beep', 0.0, 1059.2491697370017, 0.0, 0.0, 0.0, 0.0, -1219.8688053928383, 0.0]
['beep', 0.0, 1058.7127278700743, 0.0, 0.0, 0.0, 0.0, -1219.2206048036344, 0.0]
['beep', 0.0, 1059.3832802037336, 0.0, 0.0, 0.0, 0.0, -1219.9582123706596, 0.0]
['beep', 0.0, 1059.0703557813592, 0.0, 0.0, 0.0, 0.0, -1219.9582123706596, 0.0]
['beep', 0.0, 1059.49503892601, 0.0, 0.0, 0.0, 0.0, -1221.2769652935226, 0.0]
['beep', 0.0, 1059.8973703262056, 0.0, 0.0, 0.0, 0.0, -1220.00291585957, 0.0]
['beep', 0.0, 1059.11505927027, 0.0, 0.0, 0.0, 0.0, -1220.2040815596679, 0.0]
['beep', 0.0, 1059.7632598594737, 0.0, 0.0, 0.0, 0.0, -1221.008744360059, 0.0]
['beep', 0.0, 1060.9926058045157, 0.0, 0.0, 0.0, 0.0, -1221.165206571246, 0.0]
['beep', 0.0, 1061.0596610378816, 0.0, 0.0, 0.0, 0.0, -1221.5675379714417, 0.0]
['beep', 0.0, 1061.1714197601582, 0.0, 0.0, 0.0, 0.0, -1221.679296693718, 0.0]
['beep', 0.0, 1061.238474993524, 0.0, 0.0, 0.0, 0.0, -1221.0757995934248, 0.0]
['beep', 0.0, 1060.5008674264989, 0.0, 0.0, 0.0, 0.0, -1219.2206048036344, 0.0]
['beep', 0.0, 1060.0538325373927, 0.0, 0.0, 0.0, 0.0, -1219.7570466705617, 0.0]
['beep', 0.0, 1061.1490680157028, 0.0, 0.0, 0.0, 0.0, -1219.9805641151147, 0.0]
['beep', 0.0, 1061.461992438077, 0.0, 0.0, 0.0, 0.0, -1218.9970873590812, 0.0]
['beep', 0.0, 1060.947902315605, 0.0, 0.0, 0.0, 0.0, -1221.5675379714417, 0.0]
['beep', 0.0, 1060.7467366155072, 0.0, 0.0, 0.0, 0.0, -1222.5733664719305, 0.0]
['beep', 0.0, 1061.238474993524, 0.0, 0.0, 0.0, 0.0, -1220.0923228373913, 0.0]
['beep', 0.0, 1062.0878412828256, 0.0, 0.0, 0.0, 0.0, -1219.6452879482852, 0.0]
['beep', 0.0, 1062.1996000051022, 0.0, 0.0, 0.0, 0.0, -1220.5393577264974, 0.0]
['beep', 0.0, 1061.5513994158982, 0.0, 0.0, 0.0, 0.0, -1220.1817298152125, 0.0]
['beep', 0.0, 1061.6855098826302, 0.0, 0.0, 0.0, 0.0, -1221.0981513378802, 0.0]
['beep', 0.0, 1062.1325447717363, 0.0, 0.0, 0.0, 0.0, -1220.8299304044165, 0.0]
['beep', 0.0, 1062.3113587273788, 0.0, 0.0, 0.0, 0.0, -1222.618069960841, 0.0]
['beep', 0.0, 1061.6855098826302, 0.0, 0.0, 0.0, 0.0, -1222.103979838369, 0.0]
['beep', 0.0, 1062.5348761719317, 0.0, 0.0, 0.0, 0.0, -1219.9358606262042, 0.0]
['beep', 0.0, 1062.244303494013, 0.0, 0.0, 0.0, 0.0, -1221.9028141382712, 0.0]
['beep', 0.0, 1062.244303494013, 0.0, 0.0, 0.0, 0.0, -1220.8522821488718, 0.0]
['beep', 0.0, 1061.9090273271831, 0.0, 0.0, 0.0, 0.0, -1220.941689126693, 0.0]
['beep', 0.0, 1061.529047671443, 0.0, 0.0, 0.0, 0.0, -1221.5451862269863, 0.0]
['beep', 0.0, 1061.9760825605492, 0.0, 0.0, 0.0, 0.0, -1221.7240001826287, 0.0]
['beep', 0.0, 1060.947902315605, 0.0, 0.0, 0.0, 0.0, -1222.2157385606456, 0.0]
['beep', 0.0, 1061.238474993524, 0.0, 0.0, 0.0, 0.0, -1221.5898897158968, 0.0]
['beep', 0.0, 1063.1160215277698, 0.0, 0.0, 0.0, 0.0, -1222.5063112385644, 0.0]
['beep', 0.0, 1061.9537308160939, 0.0, 0.0, 0.0, 0.0, -1223.7580089280616, 0.0]
['beep', 0.0, 1061.752565115996, 0.0, 0.0, 0.0, 0.0, -1222.9533461276706, 0.0]
['beep', 0.0, 1061.9984343050044, 0.0, 0.0, 0.0, 0.0, -1222.8639391498493, 0.0]
['beep', 0.0, 1062.0878412828256, 0.0, 0.0, 0.0, 0.0, -1223.0204013610366, 0.0]
['beep', 0.0, 1061.9984343050044, 0.0, 0.0, 0.0, 0.0, -1222.774532172028, 0.0]
['beep', 0.0, 1063.0266145499486, 0.0, 0.0, 0.0, 0.0, -1221.8581106493605, 0.0]
['beep', 0.0, 1063.272483738957, 0.0, 0.0, 0.0, 0.0, -1222.5957182163856, 0.0]
['beep', 0.0, 1063.7865738614291, 0.0, 0.0, 0.0, 0.0, -1222.103979838369, 0.0]
['beep', 0.0, 1063.6748151391525, 0.0, 0.0, 0.0, 0.0, -1220.4499507486762, 0.0]
['beep', 0.0, 1063.6524633946972, 0.0, 0.0, 0.0, 0.0, -1222.4392560051986, 0.0]
['beep', 0.0, 1064.2336087505353, 0.0, 0.0, 0.0, 0.0, -1222.774532172028, 0.0]
['beep', 0.0, 1065.30649248439, 0.0, 0.0, 0.0, 0.0, -1222.5733664719305, 0.0]
['beep', 0.0, 1064.9041610841944, 0.0, 0.0, 0.0, 0.0, -1221.8804623938158, 0.0]
['beep', 0.0, 1066.0664517958703, 0.0, 0.0, 0.0, 0.0, -1221.3887240157992, 0.0]
['beep', 0.0, 1067.6757773966524, 0.0, 0.0, 0.0, 0.0, -1220.4499507486762, 0.0]
['beep', 0.0, 1068.1675157746693, 0.0, 0.0, 0.0, 0.0, -1222.327497282922, 0.0]
['beep', 0.0, 1068.145164030214, 0.0, 0.0, 0.0, 0.0, -1221.0757995934248, 0.0]
['beep', 0.0, 1067.4075564631887, 0.0, 0.0, 0.0, 0.0, -1223.8474159058828, 0.0]
['beep', 0.0, 1067.5416669299207, 0.0, 0.0, 0.0, 0.0, -1223.6462502057852, 0.0]
['beep', 0.0, 1067.429908207644, 0.0, 0.0, 0.0, 0.0, -1223.1545118277684, 0.0]
['beep', 0.0, 1067.8769430967502, 0.0, 0.0, 0.0, 0.0, -1221.679296693718, 0.0]
['beep', 0.0, 1068.2122192635798, 0.0, 0.0, 0.0, 0.0, -1221.2322618046119, 0.0]
['beep', 0.0, 1067.139335529725, 0.0, 0.0, 0.0, 0.0, -1221.5675379714417, 0.0]
['beep', 0.0, 1067.273445996457, 0.0, 0.0, 0.0, 0.0, -1222.0816280939137, 0.0]
['beep', 0.0, 1068.2569227524905, 0.0, 0.0, 0.0, 0.0, -1222.8862908943047, 0.0]
['beep', 0.0, 1068.5474954304095, 0.0, 0.0, 0.0, 0.0, -1223.266270550045, 0.0]
['beep', 0.0, 1067.2957977409123, 0.0, 0.0, 0.0, 0.0, -1223.1768635722237, 0.0]
['beep', 0.0, 1066.468783196066, 0.0, 0.0, 0.0, 0.0, -1223.3556775278662, 0.0]
['beep', 0.0, 1066.6475971517084, 0.0, 0.0, 0.0, 0.0, -1222.4839594941093, 0.0]
['beep', 0.0, 1067.5416669299207, 0.0, 0.0, 0.0, 0.0, -1224.5626717284526, 0.0]
['beep', 0.0, 1069.5533239308982, 0.0, 0.0, 0.0, 0.0, -1224.070933350436, 0.0]
['beep', 0.0, 1067.2063907630911, 0.0, 0.0, 0.0, 0.0, -1223.0651048499471, 0.0]
['beep', 0.0, 1061.7078616270855, 0.0, 0.0, 0.0, 0.0, -1223.2215670611342, 0.0]
['beep', 0.0, 1057.528085413943, 0.0, 0.0, 0.0, 0.0, -1221.3887240157992, 0.0]
['beep', 0.0, 1057.2598644804793, 0.0, 0.0, 0.0, 0.0, -1221.679296693718, 0.0]
['beep', 0.0, 1058.7574313589848, 0.0, 0.0, 0.0, 0.0, -1220.4499507486762, 0.0]
['beep', 0.0, 1059.338576714823, 0.0, 0.0, 0.0, 0.0, -1220.874633893327, 0.0]
['beep', 0.0, 1059.11505927027, 0.0, 0.0, 0.0, 0.0, -1219.4441222481873, 0.0]
['beep', 0.0, 1060.2549982374906, 0.0, 0.0, 0.0, 0.0, -1222.0592763494583, 0.0]
['beep', 0.0, 1061.9090273271831, 0.0, 0.0, 0.0, 0.0, -1220.874633893327, 0.0]
['beep', 0.0, 1064.9712163175602, 0.0, 0.0, 0.0, 0.0, -1221.5451862269863, 0.0]
['beep', 0.0, 1064.3900709617224, 0.0, 0.0, 0.0, 0.0, -1222.6851251942069, 0.0]
['beep', 0.0, 1065.530009928943, 0.0, 0.0, 0.0, 0.0, -1220.137026326302, 0.0]
['beep', 0.0, 1065.4182512066664, 0.0, 0.0, 0.0, 0.0, -1218.9970873590812, 0.0]
['beep', 0.0, 1064.8594575952839, 0.0, 0.0, 0.0, 0.0, -1219.4217705037322, 0.0]
['beep', 0.0, 1063.4065942056889, 0.0, 0.0, 0.0, 0.0, -1221.5451862269863, 0.0]
['beep', 0.0, 1060.9031988266945, 0.0, 0.0, 0.0, 0.0, -1221.746351927084, 0.0]
['beep', 0.0, 1059.4503354370995, 0.0, 0.0, 0.0, 0.0, -1220.5617094709528, 0.0]
['beep', 0.0, 1059.3609284592783, 0.0, 0.0, 0.0, 0.0, -1220.4052472597657, 0.0]
['beep', 0.0, 1060.6126261487755, 0.0, 0.0, 0.0, 0.0, -1221.3663722713438, 0.0]
['beep', 0.0, 1060.5008674264989, 0.0, 0.0, 0.0, 0.0, -1221.1205030823355, 0.0]
['beep', 0.0, 1058.980948803538, 0.0, 0.0, 0.0, 0.0, -1221.2322618046119, 0.0]
['beep', 0.0, 1059.0033005479934, 0.0, 0.0, 0.0, 0.0, -1224.5179682395421, 0.0]
['beep', 0.0, 1058.5562656588872, 0.0, 0.0, 0.0, 0.0, -1225.3449827843885, 0.0]
['beep', 0.0, 1060.0538325373927, 0.0, 0.0, 0.0, 0.0, -1222.1263315828244, 0.0]
['beep', 0.0, 1061.1490680157028, 0.0, 0.0, 0.0, 0.0, -1221.9922211160924, 0.0]
['beep', 0.0, 1061.082012782337, 0.0, 0.0, 0.0, 0.0, -1222.1933868161902, 0.0]
['beep', 0.0, 1061.752565115996, 0.0, 0.0, 0.0, 0.0, -1222.394552516288, 0.0]
['beep', 0.0, 1062.5795796608425, 0.0, 0.0, 0.0, 0.0, -1223.9591746281594, 0.0]
['beep', 0.0, 1062.0207860494597, 0.0, 0.0, 0.0, 0.0, -1225.5685002289415, 0.0]
['beep', 0.0, 1061.819620349362, 0.0, 0.0, 0.0, 0.0, -1222.8639391498493, 0.0]
['beep', 0.0, 1061.461992438077, 0.0, 0.0, 0.0, 0.0, -1221.7910554159946, 0.0]
['beep', 0.0, 1062.0878412828256, 0.0, 0.0, 0.0, 0.0, -1220.941689126693, 0.0]
['beep', 0.0, 1062.6689866386637, 0.0, 0.0, 0.0, 0.0, -1220.5393577264974, 0.0]
['beep', 0.0, 1062.557227916387, 0.0, 0.0, 0.0, 0.0, -1222.0592763494583, 0.0]
['beep', 0.0, 1061.5066959269877, 0.0, 0.0, 0.0, 0.0, -1223.5791949724191, 0.0]
['beep', 0.0, 1061.4843441825324, 0.0, 0.0, 0.0, 0.0, -1221.7910554159946, 0.0]
['beep', 0.0, 1060.0985360263035, 0.0, 0.0, 0.0, 0.0, -1221.1428548267907, 0.0]
['beep', 0.0, 1060.0985360263035, 0.0, 0.0, 0.0, 0.0, -1220.6958199376845, 0.0]
['beep', 0.0, 1061.2161232490687, 0.0, 0.0, 0.0, 0.0, -1221.0534478489694, 0.0]
['beep', 0.0, 1062.0654895383705, 0.0, 0.0, 0.0, 0.0, -1220.4275990042208, 0.0]
['beep', 0.0, 1061.886675582728, 0.0, 0.0, 0.0, 0.0, -1220.7628751710506, 0.0]
['beep', 0.0, 1060.9926058045157, 0.0, 0.0, 0.0, 0.0, -1220.5617094709528, 0.0]
['beep', 0.0, 1061.4843441825324, 0.0, 0.0, 0.0, 0.0, -1221.6122414603522, 0.0]
['beep', 0.0, 1063.6301116502418, 0.0, 0.0, 0.0, 0.0, -1222.2157385606456, 0.0]
['beep', 0.0, 1063.2948354834123, 0.0, 0.0, 0.0, 0.0, -1220.3381920263996, 0.0]
['beep', 0.0, 1062.8030971053954, 0.0, 0.0, 0.0, 0.0, -1222.5286629830198, 0.0]
['beep', 0.0, 1063.048966294404, 0.0, 0.0, 0.0, 0.0, -1221.1875583157014, 0.0]
['beep', 0.0, 1063.1160215277698, 0.0, 0.0, 0.0, 0.0, -1221.5675379714417, 0.0]
['beep', 0.0, 1063.1383732722252, 0.0, 0.0, 0.0, 0.0, -1222.1710350717349, 0.0]
['beep', 0.0, 1063.2948354834123, 0.0, 0.0, 0.0, 0.0, -1223.2215670611342, 0.0]
['beep', 0.0, 1063.9877395615267, 0.0, 0.0, 0.0, 0.0, -1223.5344914835086, 0.0]
['beep', 0.0, 1063.4512976945994, 0.0, 0.0, 0.0, 0.0, -1224.227395561623, 0.0]
['beep', 0.0, 1064.010091305982, 0.0, 0.0, 0.0, 0.0, -1222.7968839164835, 0.0]
['beep', 0.0, 1063.8983325837055, 0.0, 0.0, 0.0, 0.0, -1224.0038781170701, 0.0]
['beep', 0.0, 1064.948864573105, 0.0, 0.0, 0.0, 0.0, -1224.3838577728102, 0.0]
['beep', 0.0, 1064.4571261950882, 0.0, 0.0, 0.0, 0.0, -1223.422732761232, 0.0]
['beep', 0.0, 1064.1218500282587, 0.0, 0.0, 0.0, 0.0, -1223.713305439151, 0.0]
['beep', 0.0, 1064.524181428454, 0.0, 0.0, 0.0, 0.0, -1222.752180427573, 0.0]
['beep', 0.0, 1064.9265128286497, 0.0, 0.0, 0.0, 0.0, -1224.5179682395421, 0.0]
['beep', 0.0, 1064.9935680620156, 0.0, 0.0, 0.0, 0.0, -1223.6909536946957, 0.0]
['beep', 0.0, 1064.2336087505353, 0.0, 0.0, 0.0, 0.0, -1221.6569449492629, 0.0]
['beep', 0.0, 1063.4512976945994, 0.0, 0.0, 0.0, 0.0, -1222.774532172028, 0.0]
['beep', 0.0, 1063.3171872278676, 0.0, 0.0, 0.0, 0.0, -1223.8474159058828, 0.0]
['beep', 0.0, 1062.8030971053954, 0.0, 0.0, 0.0, 0.0, -1225.0097066175588, 0.0]
['beep', 0.0, 1063.2277802500464, 0.0, 0.0, 0.0, 0.0, -1224.0485816059806, 0.0]
['beep', 0.0, 1063.0042628054932, 0.0, 0.0, 0.0, 0.0, -1224.1826920727126, 0.0]
['beep', 0.0, 1063.719518628063, 0.0, 0.0, 0.0, 0.0, -1223.2886222945003, 0.0]
['beep', 0.0, 1065.2170855065688, 0.0, 0.0, 0.0, 0.0, -1223.0204013610366, 0.0]
['beep', 0.0, 1064.8147541063731, 0.0, 0.0, 0.0, 0.0, -1222.8862908943047, 0.0]
['beep', 0.0, 1064.077146539348, 0.0, 0.0, 0.0, 0.0, -1223.5791949724191, 0.0]
['beep', 0.0, 1063.49600118351, 0.0, 0.0, 0.0, 0.0, -1225.0097066175588, 0.0]
['beep', 0.0, 1064.2336087505353, 0.0, 0.0, 0.0, 0.0, -1223.780360672517, 0.0]
['beep', 0.0, 1064.524181428454, 0.0, 0.0, 0.0, 0.0, -1223.1768635722237, 0.0]
['beep', 0.0, 1064.881809339739, 0.0, 0.0, 0.0, 0.0, -1223.4450845056874, 0.0]
['beep', 0.0, 1067.2957977409123, 0.0, 0.0, 0.0, 0.0, -1223.0204013610366, 0.0]
['beep', 0.0, 1067.1616872741804, 0.0, 0.0, 0.0, 0.0, -1222.7968839164835, 0.0]
['beep', 0.0, 1066.8487628518062, 0.0, 0.0, 0.0, 0.0, -1222.6851251942069, 0.0]
['beep', 0.0, 1065.30649248439, 0.0, 0.0, 0.0, 0.0, -1223.8697676503382, 0.0]
['beep', 0.0, 1065.3958994622112, 0.0, 0.0, 0.0, 0.0, -1222.0369246050032, 0.0]
['beep', 0.0, 1065.462954695577, 0.0, 0.0, 0.0, 0.0, -1224.5626717284526, 0.0]
['beep', 0.0, 1064.524181428454, 0.0, 0.0, 0.0, 0.0, -1223.9591746281594, 0.0]
['beep', 0.0, 1062.9372075721274, 0.0, 0.0, 0.0, 0.0, -1223.0874565944025, 0.0]
['beep', 0.0, 1063.5183529279655, 0.0, 0.0, 0.0, 0.0, -1222.394552516288, 0.0]
['beep', 0.0, 1064.3900709617224, 0.0, 0.0, 0.0, 0.0, -1222.5733664719305, 0.0]
['beep', 0.0, 1065.820582606862, 0.0, 0.0, 0.0, 0.0, -1224.8979478952824, 0.0]
['beep', 0.0, 1064.9935680620156, 0.0, 0.0, 0.0, 0.0, -1223.4674362501428, 0.0]
['beep', 0.0, 1064.3900709617224, 0.0, 0.0, 0.0, 0.0, -1221.6122414603522, 0.0]
['beep', 0.0, 1064.4571261950882, 0.0, 0.0, 0.0, 0.0, -1221.3440205268885, 0.0]
['beep', 0.0, 1065.9546930735937, 0.0, 0.0, 0.0, 0.0, -1222.90864263876, 0.0]
['beep', 0.0, 1066.625245407253, 0.0, 0.0, 0.0, 0.0, -1222.103979838369, 0.0]
['beep', 0.0, 1065.68647214013, 0.0, 0.0, 0.0, 0.0, -1222.6851251942069, 0.0]
['beep', 0.0, 1065.664120395675, 0.0, 0.0, 0.0, 0.0, -1224.8308926619163, 0.0]
['beep', 0.0, 1064.9712163175602, 0.0, 0.0, 0.0, 0.0, -1224.3168025394443, 0.0]
['beep', 0.0, 1065.7311756290408, 0.0, 0.0, 0.0, 0.0, -1225.1214653398354, 0.0]
['beep', 0.0, 1065.0606232953814, 0.0, 0.0, 0.0, 0.0, -1224.8979478952824, 0.0]
['beep', 0.0, 1063.49600118351, 0.0, 0.0, 0.0, 0.0, -1224.294450794989, 0.0]
['beep', 0.0, 1063.0713180388593, 0.0, 0.0, 0.0, 0.0, -1223.3333257834108, 0.0]
['beep', 0.0, 1062.8254488498508, 0.0, 0.0, 0.0, 0.0, -1224.741485684095, 0.0]
['beep', 0.0, 1064.9041610841944, 0.0, 0.0, 0.0, 0.0, -1225.9261281402264, 0.0]
['beep', 0.0, 1065.8652860957725, 0.0, 0.0, 0.0, 0.0, -1226.1496455847796, 0.0]
['beep', 0.0, 1065.68647214013, 0.0, 0.0, 0.0, 0.0, -1225.1214653398354, 0.0]
['beep', 0.0, 1065.0606232953814, 0.0, 0.0, 0.0, 0.0, -1225.0097066175588, 0.0]
['beep', 0.0, 1064.881809339739, 0.0, 0.0, 0.0, 0.0, -1224.8979478952824, 0.0]
['beep', 0.0, 1064.9935680620156, 0.0, 0.0, 0.0, 0.0, -1224.9873548731036, 0.0]
['beep', 0.0, 1065.6417686512195, 0.0, 0.0, 0.0, 0.0, -1227.133122340813, 0.0]
['beep', 0.0, 1065.1947337621134, 0.0, 0.0, 0.0, 0.0, -1226.7531426850728, 0.0]
['beep', 0.0, 1065.3958994622112, 0.0, 0.0, 0.0, 0.0, -1224.9873548731036, 0.0]
['beep', 0.0, 1064.8371058508285, 0.0, 0.0, 0.0, 0.0, -1224.428561261721, 0.0]
['beep', 0.0, 1066.491134940521, 0.0, 0.0, 0.0, 0.0, -1226.3508112848774, 0.0]
['beep', 0.0, 1067.1840390186358, 0.0, 0.0, 0.0, 0.0, -1225.6355554623074, 0.0]
['beep', 0.0, 1066.7146523850743, 0.0, 0.0, 0.0, 0.0, -1225.747314184584, 0.0]
['beep', 0.0, 1066.5358384294318, 0.0, 0.0, 0.0, 0.0, -1228.0942473523912, 0.0]
['beep', 0.0, 1066.2229140070574, 0.0, 0.0, 0.0, 0.0, -1226.8649014073494, 0.0]
['beep', 0.0, 1068.2569227524905, 0.0, 0.0, 0.0, 0.0, -1225.523796740031, 0.0]
['beep', 0.0, 1068.6145506637754, 0.0, 0.0, 0.0, 0.0, -1225.6355554623074, 0.0]
['beep', 0.0, 1067.5416669299207, 0.0, 0.0, 0.0, 0.0, -1227.7366194411063, 0.0]
['beep', 0.0, 1067.0946320408145, 0.0, 0.0, 0.0, 0.0, -1224.0932850948914, 0.0]
['beep', 0.0, 1068.7710128749625, 0.0, 0.0, 0.0, 0.0, -1224.741485684095, 0.0]
['beep', 0.0, 1069.888600097728, 0.0, 0.0, 0.0, 0.0, -1224.2720990505338, 0.0]
['beep', 0.0, 1071.0061873204932, 0.0, 0.0, 0.0, 0.0, -1225.1438170842907, 0.0]
['beep', 0.0, 1071.1850012761356, 0.0, 0.0, 0.0, 0.0, -1227.3119362964555, 0.0]
['beep', 0.0, 1070.6485594092082, 0.0, 0.0, 0.0, 0.0, -1226.3731630293325, 0.0]
['beep', 0.0, 1070.6709111536636, 0.0, 0.0, 0.0, 0.0, -1225.6355554623074, 0.0]
['beep', 0.0, 1071.4085187206888, 0.0, 0.0, 0.0, 0.0, -1228.1165990968466, 0.0]
['beep', 0.0, 1071.788498376429, 0.0, 0.0, 0.0, 0.0, -1225.6355554623074, 0.0]
['beep', 0.0, 1070.5144489424765, 0.0, 0.0, 0.0, 0.0, -1224.3391542838997, 0.0]
['beep', 0.0, 1069.7321378865406, 0.0, 0.0, 0.0, 0.0, -1224.5179682395421, 0.0]
['beep', 0.0, 1069.7097861420855, 0.0, 0.0, 0.0, 0.0, -1224.4509130061763, 0.0]
['beep', 0.0, 1069.463916953077, 0.0, 0.0, 0.0, 0.0, -1225.9708316291371, 0.0]
['beep', 0.0, 1070.3579867312892, 0.0, 0.0, 0.0, 0.0, -1225.0767618509249, 0.0]
['beep', 0.0, 1070.4026902202, 0.0, 0.0, 0.0, 0.0, -1225.0097066175588, 0.0]
['beep', 0.0, 1070.3579867312892, 0.0, 0.0, 0.0, 0.0, -1223.914471139249, 0.0]
['beep', 0.0, 1069.2180477640686, 0.0, 0.0, 0.0, 0.0, -1223.2439188055896, 0.0]
['beep', 0.0, 1071.2744082539568, 0.0, 0.0, 0.0, 0.0, -1226.5296252405199, 0.0]
['beep', 0.0, 1072.3472919878116, 0.0, 0.0, 0.0, 0.0, -1225.6132037178522, 0.0]
['beep', 0.0, 1071.9002570987054, 0.0, 0.0, 0.0, 0.0, -1225.7026106956735, 0.0]
['beep', 0.0, 1071.2744082539568, 0.0, 0.0, 0.0, 0.0, -1227.334288040911, 0.0]
['beep', 0.0, 1071.721443143063, 0.0, 0.0, 0.0, 0.0, -1226.4625700071538, 0.0]
['beep', 0.0, 1070.8273733648507, 0.0, 0.0, 0.0, 0.0, -1225.8590729068605, 0.0]
['beep', 0.0, 1070.3803384757446, 0.0, 0.0, 0.0, 0.0, -1224.3391542838997, 0.0]
['beep', 0.0, 1070.8050216203956, 0.0, 0.0, 0.0, 0.0, -1225.9261281402264, 0.0]
['beep', 0.0, 1071.1850012761356, 0.0, 0.0, 0.0, 0.0, -1224.5626717284526, 0.0]
['beep', 0.0, 1071.0955942983144, 0.0, 0.0, 0.0, 0.0, -1226.0155351180476, 0.0]
['beep', 0.0, 1071.0061873204932, 0.0, 0.0, 0.0, 0.0, -1226.976660129626, 0.0]
['beep', 0.0, 1071.721443143063, 0.0, 0.0, 0.0, 0.0, -1226.6413839627962, 0.0]
['beep', 0.0, 1070.1121175422809, 0.0, 0.0, 0.0, 0.0, -1225.903776395771, 0.0]
['beep', 0.0, 1066.8264111073509, 0.0, 0.0, 0.0, 0.0, -1227.3119362964555, 0.0]
['beep', 0.0, 1065.8429343513174, 0.0, 0.0, 0.0, 0.0, -1227.9824886301146, 0.0]
['beep', 0.0, 1074.6495216667083, 0.0, 0.0, 0.0, 0.0, -1224.71913393964, 0.0]
['beep', 0.0, 1080.0586438248927, 0.0, 0.0, 0.0, 0.0, -1224.942651384193, 0.0]
['beep', 0.0, 1079.432794980144, 0.0, 0.0, 0.0, 0.0, -1225.7696659290393, 0.0]
['beep', 0.0, 1077.3093792568898, 0.0, 0.0, 0.0, 0.0, -1226.2614043070562, 0.0]
['beep', 0.0, 1077.912876357183, 0.0, 0.0, 0.0, 0.0, -1226.5743287294304, 0.0]
['beep', 0.0, 1076.6388269232307, 0.0, 0.0, 0.0, 0.0, -1227.0884188519024, 0.0]
['beep', 0.0, 1076.9741030900602, 0.0, 0.0, 0.0, 0.0, -1228.7647996860505, 0.0]
['beep', 0.0, 1076.8176408788731, 0.0, 0.0, 0.0, 0.0, -1228.161302585757, 0.0]
['beep', 0.0, 1076.7729373899624, 0.0, 0.0, 0.0, 0.0, -1226.1272938403242, 0.0]
['beep', 0.0, 1077.2199722790685, 0.0, 0.0, 0.0, 0.0, -1226.19434907369, 0.0]
['beep', 0.0, 1078.561076946387, 0.0, 0.0, 0.0, 0.0, -1226.5072734960645, 0.0]
['beep', 0.0, 1078.7845943909401, 0.0, 0.0, 0.0, 0.0, -1227.2895845520002, 0.0]
['beep', 0.0, 1078.985760091038, 0.0, 0.0, 0.0, 0.0, -1228.2060060746678, 0.0]
['beep', 0.0, 1079.209277535591, 0.0, 0.0, 0.0, 0.0, -1228.4295235192208, 0.0]
['beep', 0.0, 1079.0528153244038, 0.0, 0.0, 0.0, 0.0, -1228.3401165413995, 0.0]
['beep', 0.0, 1079.008111835493, 0.0, 0.0, 0.0, 0.0, -1229.5471107419862, 0.0]
['beep', 0.0, 1079.2539810245016, 0.0, 0.0, 0.0, 0.0, -1227.490750252098, 0.0]
['beep', 0.0, 1079.6116089357865, 0.0, 0.0, 0.0, 0.0, -1227.781322930017, 0.0]
['beep', 0.0, 1078.8963531132167, 0.0, 0.0, 0.0, 0.0, -1228.876558408327, 0.0]
['beep', 0.0, 1079.7680711469736, 0.0, 0.0, 0.0, 0.0, -1228.585985730408, 0.0]
['beep', 0.0, 1079.5892571913312, 0.0, 0.0, 0.0, 0.0, -1229.1447793417906, 0.0]
['beep', 0.0, 1079.432794980144, 0.0, 0.0, 0.0, 0.0, -1228.362468285855, 0.0]
['beep', 0.0, 1080.5727339473647, 0.0, 0.0, 0.0, 0.0, -1229.3906485307991, 0.0]
['beep', 0.0, 1080.4386234806327, 0.0, 0.0, 0.0, 0.0, -1227.6248607188297, 0.0]
['beep', 0.0, 1079.7010159136078, 0.0, 0.0, 0.0, 0.0, -1226.976660129626, 0.0]
['beep', 0.0, 1079.49985021351, 0.0, 0.0, 0.0, 0.0, -1228.9212618972376, 0.0]
['beep', 0.0, 1079.432794980144, 0.0, 0.0, 0.0, 0.0, -1228.0495438634807, 0.0]
['beep', 0.0, 1078.8740013687614, 0.0, 0.0, 0.0, 0.0, -1226.8649014073494, 0.0]
['beep', 0.0, 1077.3764344902556, 0.0, 0.0, 0.0, 0.0, -1229.4800555086204, 0.0]
['beep', 0.0, 1077.2870275124344, 0.0, 0.0, 0.0, 0.0, -1228.518930497042, 0.0]
['beep', 0.0, 1078.985760091038, 0.0, 0.0, 0.0, 0.0, -1229.1224275973354, 0.0]
['beep', 0.0, 1079.9692368470714, 0.0, 0.0, 0.0, 0.0, -1230.5976427313856, 0.0]
['beep', 0.0, 1079.2539810245016, 0.0, 0.0, 0.0, 0.0, -1231.4470090206873, 0.0]
['beep', 0.0, 1077.8905246127279, 0.0, 0.0, 0.0, 0.0, -1231.1564363427683, 0.0]
['beep', 0.0, 1078.5163734574764, 0.0, 0.0, 0.0, 0.0, -1231.268195065045, 0.0]
['beep', 0.0, 1079.2316292800463, 0.0, 0.0, 0.0, 0.0, -1229.6588694642628, 0.0]
['beep', 0.0, 1079.432794980144, 0.0, 0.0, 0.0, 0.0, -1229.323593297433, 0.0]
['beep', 0.0, 1079.2539810245016, 0.0, 0.0, 0.0, 0.0, -1228.6083374748632, 0.0]
['beep', 0.0, 1080.0809955693478, 0.0, 0.0, 0.0, 0.0, -1229.2565380640672, 0.0]
['beep', 0.0, 1079.5445537024204, 0.0, 0.0, 0.0, 0.0, -1229.323593297433, 0.0]
['beep', 0.0, 1080.1256990582585, 0.0, 0.0, 0.0, 0.0, -1229.4800555086204, 0.0]
['beep', 0.0, 1079.8798298692502, 0.0, 0.0, 0.0, 0.0, -1229.0106688750589, 0.0]
['beep', 0.0, 1080.8409548808283, 0.0, 0.0, 0.0, 0.0, -1228.4965787525869, 0.0]
['beep', 0.0, 1079.2763327689568, 0.0, 0.0, 0.0, 0.0, -1228.4742270081315, 0.0]
['beep', 0.0, 1078.4269664796552, 0.0, 0.0, 0.0, 0.0, -1227.848378163383, 0.0]
['beep', 0.0, 1079.7680711469736, 0.0, 0.0, 0.0, 0.0, -1229.9941456310924, 0.0]
['beep', 0.0, 1079.432794980144, 0.0, 0.0, 0.0, 0.0, -1231.067029364947, 0.0]
['beep', 0.0, 1079.142222302225, 0.0, 0.0, 0.0, 0.0, -1230.0164973755477, 0.0]
['beep', 0.0, 1078.6281321797528, 0.0, 0.0, 0.0, 0.0, -1227.1554740852685, 0.0]
['beep', 0.0, 1079.6116089357865, 0.0, 0.0, 0.0, 0.0, -1227.3119362964555, 0.0]
['beep', 0.0, 1080.7962513919176, 0.0, 0.0, 0.0, 0.0, -1229.0553723639694, 0.0]
['beep', 0.0, 1081.2209345365686, 0.0, 0.0, 0.0, 0.0, -1227.9154333967488, 0.0]
['beep', 0.0, 1081.69032117013, 0.0, 0.0, 0.0, 0.0, -1229.1894828307013, 0.0]
['beep', 0.0, 1081.1538793032025, 0.0, 0.0, 0.0, 0.0, -1228.7200961971398, 0.0]
['beep', 0.0, 1080.7291961585518, 0.0, 0.0, 0.0, 0.0, -1228.9212618972376, 0.0]
['beep', 0.0, 1081.176231047658, 0.0, 0.0, 0.0, 0.0, -1228.5636339859527, 0.0]
['beep', 0.0, 1081.7797281479511, 0.0, 0.0, 0.0, 0.0, -1226.19434907369, 0.0]
['beep', 0.0, 1081.913838614683, 0.0, 0.0, 0.0, 0.0, -1228.4742270081315, 0.0]
['beep', 0.0, 1082.0926525703255, 0.0, 0.0, 0.0, 0.0, -1229.5247589975309, 0.0]
['beep', 0.0, 1081.980893848049, 0.0, 0.0, 0.0, 0.0, -1227.8260264189275, 0.0]
['beep', 0.0, 1081.8020798924065, 0.0, 0.0, 0.0, 0.0, -1227.4683985076426, 0.0]
['beep', 0.0, 1080.8409548808283, 0.0, 0.0, 0.0, 0.0, -1226.9543083851706, 0.0]
['beep', 0.0, 1079.6116089357865, 0.0, 0.0, 0.0, 0.0, -1226.8649014073494, 0.0]
['beep', 0.0, 1079.5445537024204, 0.0, 0.0, 0.0, 0.0, -1229.0553723639694, 0.0]
['beep', 0.0, 1079.8351263803395, 0.0, 0.0, 0.0, 0.0, -1229.9941456310924, 0.0]
['beep', 0.0, 1080.7291961585518, 0.0, 0.0, 0.0, 0.0, -1227.8930816522934, 0.0]
['beep', 0.0, 1080.8856583697388, 0.0, 0.0, 0.0, 0.0, -1225.5685002289415, 0.0]
['beep', 0.0, 1081.466803725577, 0.0, 0.0, 0.0, 0.0, -1226.686087451707, 0.0]
['beep', 0.0, 1081.0421205809262, 0.0, 0.0, 0.0, 0.0, -1226.1272938403242, 0.0]
['beep', 0.0, 1080.59508569182, 0.0, 0.0, 0.0, 0.0, -1226.3508112848774, 0.0]
['beep', 0.0, 1081.466803725577, 0.0, 0.0, 0.0, 0.0, -1225.9261281402264, 0.0]
['beep', 0.0, 1082.4726322260658, 0.0, 0.0, 0.0, 0.0, -1228.1836543302124, 0.0]
['beep', 0.0, 1081.8691351257723, 0.0, 0.0, 0.0, 0.0, -1228.6306892193186, 0.0]
['beep', 0.0, 1080.8409548808283, 0.0, 0.0, 0.0, 0.0, -1225.747314184584, 0.0]
['beep', 0.0, 1081.8914868702277, 0.0, 0.0, 0.0, 0.0, -1228.00484037457, 0.0]
['beep', 0.0, 1081.757376403496, 0.0, 0.0, 0.0, 0.0, -1227.490750252098, 0.0]
['beep', 0.0, 1082.5396874594317, 0.0, 0.0, 0.0, 0.0, -1230.2176630756455, 0.0]
['beep', 0.0, 1082.4502804816104, 0.0, 0.0, 0.0, 0.0, -1231.3352502984108, 0.0]
['beep', 0.0, 1080.8409548808283, 0.0, 0.0, 0.0, 0.0, -1227.9824886301146, 0.0]
['beep', 0.0, 1079.7010159136078, 0.0, 0.0, 0.0, 0.0, -1225.9261281402264, 0.0]
['beep', 0.0, 1081.0197688364708, 0.0, 0.0, 0.0, 0.0, -1226.6413839627962, 0.0]
['beep', 0.0, 1081.1985827921133, 0.0, 0.0, 0.0, 0.0, -1227.0884188519024, 0.0]
['beep', 0.0, 1080.9080101141942, 0.0, 0.0, 0.0, 0.0, -1227.3789915298214, 0.0]
['beep', 0.0, 1080.97506534756, 0.0, 0.0, 0.0, 0.0, -1227.6025089743746, 0.0]
['beep', 0.0, 1082.3608735037892, 0.0, 0.0, 0.0, 0.0, -1228.2730613080337, 0.0]
['beep', 0.0, 1083.076129326359, 0.0, 0.0, 0.0, 0.0, -1228.7200961971398, 0.0]
['beep', 0.0, 1082.8973153707166, 0.0, 0.0, 0.0, 0.0, -1227.9154333967488, 0.0]
['beep', 0.0, 1082.562039203887, 0.0, 0.0, 0.0, 0.0, -1228.161302585757, 0.0]
['beep', 0.0, 1082.6961496706188, 0.0, 0.0, 0.0, 0.0, -1228.161302585757, 0.0]
['beep', 0.0, 1082.4502804816104, 0.0, 0.0, 0.0, 0.0, -1229.6588694642628, 0.0]
['beep', 0.0, 1082.1820595481468, 0.0, 0.0, 0.0, 0.0, -1229.3682967863438, 0.0]
['beep', 0.0, 1083.7019781711076, 0.0, 0.0, 0.0, 0.0, -1228.2730613080337, 0.0]
['beep', 0.0, 1082.919667115172, 0.0, 0.0, 0.0, 0.0, -1228.362468285855, 0.0]
['beep', 0.0, 1082.6514461817083, 0.0, 0.0, 0.0, 0.0, -1228.8542066638718, 0.0]
['beep', 0.0, 1082.0255973369597, 0.0, 0.0, 0.0, 0.0, -1229.323593297433, 0.0]
['beep', 0.0, 1081.6009141923087, 0.0, 0.0, 0.0, 0.0, -1228.8989101527823, 0.0]
['beep', 0.0, 1081.6679694256748, 0.0, 0.0, 0.0, 0.0, -1229.6588694642628, 0.0]
['beep', 0.0, 1082.4055769926997, 0.0, 0.0, 0.0, 0.0, -1230.5305874980197, 0.0]
['beep', 0.0, 1083.5008124710098, 0.0, 0.0, 0.0, 0.0, -1229.4130002752543, 0.0]
['beep', 0.0, 1083.8584403822947, 0.0, 0.0, 0.0, 0.0, -1230.038849120003, 0.0]
['beep', 0.0, 1085.5348212164429, 0.0, 0.0, 0.0, 0.0, -1230.8211601759388, 0.0]
['beep', 0.0, 1087.6135334507865, 0.0, 0.0, 0.0, 0.0, -1229.4353520197096, 0.0]
['beep', 0.0, 1088.9993416070154, 0.0, 0.0, 0.0, 0.0, -1229.2565380640672, 0.0]
['beep', 0.0, 1088.97698986256, 0.0, 0.0, 0.0, 0.0, -1227.9824886301146, 0.0]
['beep', 0.0, 1086.9876846060379, 0.0, 0.0, 0.0, 0.0, -1226.90960489626, 0.0]
['beep', 0.0, 1085.7583386609958, 0.0, 0.0, 0.0, 0.0, -1227.3789915298214, 0.0]
['beep', 0.0, 1085.1101380717919, 0.0, 0.0, 0.0, 0.0, -1227.9377851412041, 0.0]
['beep', 0.0, 1083.2996467709122, 0.0, 0.0, 0.0, 0.0, -1228.943613641693, 0.0]
['beep', 0.0, 1081.9585421035936, 0.0, 0.0, 0.0, 0.0, -1230.038849120003, 0.0]
['beep', 0.0, 1081.5785624478535, 0.0, 0.0, 0.0, 0.0, -1227.3789915298214, 0.0]
['beep', 0.0, 1083.6349229377417, 0.0, 0.0, 0.0, 0.0, -1226.1496455847796, 0.0]
['beep', 0.0, 1084.6407514382306, 0.0, 0.0, 0.0, 0.0, -1226.5966804738857, 0.0]
['beep', 0.0, 1083.590219448831, 0.0, 0.0, 0.0, 0.0, -1226.2614043070562, 0.0]
['beep', 0.0, 1083.88079212675, 0.0, 0.0, 0.0, 0.0, -1227.0437153629919, 0.0]
['beep', 0.0, 1083.5231642154652, 0.0, 0.0, 0.0, 0.0, -1228.138950841302, 0.0]
['beep', 0.0, 1084.0819578268479, 0.0, 0.0, 0.0, 0.0, -1230.038849120003, 0.0]
['beep', 0.0, 1083.4784607265547, 0.0, 0.0, 0.0, 0.0, -1230.038849120003, 0.0]
['beep', 0.0, 1083.232591537546, 0.0, 0.0, 0.0, 0.0, -1229.3682967863438, 0.0]
['beep', 0.0, 1082.6737979261634, 0.0, 0.0, 0.0, 0.0, -1227.7366194411063, 0.0]
['beep', 0.0, 1081.9585421035936, 0.0, 0.0, 0.0, 0.0, -1226.1496455847796, 0.0]
['beep', 0.0, 1083.232591537546, 0.0, 0.0, 0.0, 0.0, -1227.9824886301146, 0.0]
['beep', 0.0, 1083.1878880486356, 0.0, 0.0, 0.0, 0.0, -1229.323593297433, 0.0]
['beep', 0.0, 1083.5678677043759, 0.0, 0.0, 0.0, 0.0, -1230.5082357535643, 0.0]
['beep', 0.0, 1084.1937165491245, 0.0, 0.0, 0.0, 0.0, -1228.3177647969444, 0.0]
['beep', 0.0, 1084.0372543379372, 0.0, 0.0, 0.0, 0.0, -1230.329421797922, 0.0]
['beep', 0.0, 1085.0877863273367, 0.0, 0.0, 0.0, 0.0, -1228.6977444526844, 0.0]
['beep', 0.0, 1085.5795247053534, 0.0, 0.0, 0.0, 0.0, -1228.00484037457, 0.0]
['beep', 0.0, 1085.3560072608004, 0.0, 0.0, 0.0, 0.0, -1228.3177647969444, 0.0]
['beep', 0.0, 1084.685454927141, 0.0, 0.0, 0.0, 0.0, -1228.876558408327, 0.0]
['beep', 0.0, 1084.886620627239, 0.0, 0.0, 0.0, 0.0, -1227.9377851412041, 0.0]
['beep', 0.0, 1084.4619374825882, 0.0, 0.0, 0.0, 0.0, -1228.6753927082293, 0.0]
['beep', 0.0, 1085.1548415607026, 0.0, 0.0, 0.0, 0.0, -1231.201139831679, 0.0]
['beep', 0.0, 1086.1159665722807, 0.0, 0.0, 0.0, 0.0, -1230.4188287757431, 0.0]
['beep', 0.0, 1085.3783590052556, 0.0, 0.0, 0.0, 0.0, -1230.4188287757431, 0.0]
['beep', 0.0, 1085.8253938943617, 0.0, 0.0, 0.0, 0.0, -1228.5412822414974, 0.0]
['beep', 0.0, 1085.6018764498087, 0.0, 0.0, 0.0, 0.0, -1227.5131019965534, 0.0]
['beep', 0.0, 1084.2831235269457, 0.0, 0.0, 0.0, 0.0, -1230.5976427313856, 0.0]
['beep', 0.0, 1084.2831235269457, 0.0, 0.0, 0.0, 0.0, -1231.6034712318744, 0.0]
['beep', 0.0, 1084.1490130602137, 0.0, 0.0, 0.0, 0.0, -1228.138950841302, 0.0]
['beep', 0.0, 1085.5348212164429, 0.0, 0.0, 0.0, 0.0, -1228.6306892193186, 0.0]
['beep', 0.0, 1088.5523067179092, 0.0, 0.0, 0.0, 0.0, -1231.268195065045, 0.0]
['beep', 0.0, 1086.2500770390127, 0.0, 0.0, 0.0, 0.0, -1230.9329188982153, 0.0]
['beep', 0.0, 1080.8856583697388, 0.0, 0.0, 0.0, 0.0, -1230.552939242475, 0.0]
['beep', 0.0, 1077.108213556792, 0.0, 0.0, 0.0, 0.0, -1231.8046369319723, 0.0]
['beep', 0.0, 1076.750585645507, 0.0, 0.0, 0.0, 0.0, -1232.4528375211762, 0.0]
['beep', 0.0, 1078.1363938017362, 0.0, 0.0, 0.0, 0.0, -1231.9610991431593, 0.0]
['beep', 0.0, 1082.0255973369597, 0.0, 0.0, 0.0, 0.0, -1235.4703230226426, 0.0]
['beep', 0.0, 1082.3161700148785, 0.0, 0.0, 0.0, 0.0, -1234.330384055422, 0.0]
['beep', 0.0, 1081.2432862810238, 0.0, 0.0, 0.0, 0.0, -1234.5986049888857, 0.0]
['beep', 0.0, 1081.8244316368618, 0.0, 0.0, 0.0, 0.0, -1235.492674767098, 0.0]
['beep', 0.0, 1081.2656380254791, 0.0, 0.0, 0.0, 0.0, -1234.5986049888857, 0.0]
['beep', 0.0, 1083.1878880486356, 0.0, 0.0, 0.0, 0.0, -1234.5762532444303, 0.0]
['beep', 0.0, 1083.076129326359, 0.0, 0.0, 0.0, 0.0, -1235.805599189472, 0.0]
['beep', 0.0, 1081.3773967477557, 0.0, 0.0, 0.0, 0.0, -1235.0903433669023, 0.0]
['beep', 0.0, 1082.4055769926997, 0.0, 0.0, 0.0, 0.0, -1232.4975410100867, 0.0]
['beep', 0.0, 1082.919667115172, 0.0, 0.0, 0.0, 0.0, -1234.263328822056, 0.0]
['beep', 0.0, 1083.143184559725, 0.0, 0.0, 0.0, 0.0, -1235.0679916224472, 0.0]
['beep', 0.0, 1083.9701991045713, 0.0, 0.0, 0.0, 0.0, -1236.8784829233268, 0.0]
['beep', 0.0, 1083.4784607265547, 0.0, 0.0, 0.0, 0.0, -1237.772552701539, 0.0]
['beep', 0.0, 1083.4114054931886, 0.0, 0.0, 0.0, 0.0, -1235.1126951113577, 0.0]
['beep', 0.0, 1083.8137368933842, 0.0, 0.0, 0.0, 0.0, -1232.7881136880058, 0.0]
['beep', 0.0, 1083.8360886378396, 0.0, 0.0, 0.0, 0.0, -1233.7939421884946, 0.0]
['beep', 0.0, 1084.1490130602137, 0.0, 0.0, 0.0, 0.0, -1235.3138608114555, 0.0]
['beep', 0.0, 1083.590219448831, 0.0, 0.0, 0.0, 0.0, -1234.5762532444303, 0.0]
['beep', 0.0, 1083.6349229377417, 0.0, 0.0, 0.0, 0.0, -1236.6326137343185, 0.0]
['beep', 0.0, 1085.4901177275322, 0.0, 0.0, 0.0, 0.0, -1236.1408753563019, 0.0]
['beep', 0.0, 1084.5736962048645, 0.0, 0.0, 0.0, 0.0, -1237.8172561904498, 0.0]
['beep', 0.0, 1082.3608735037892, 0.0, 0.0, 0.0, 0.0, -1236.163227100757, 0.0]
['beep', 0.0, 1082.4055769926997, 0.0, 0.0, 0.0, 0.0, -1234.0621631219583, 0.0]
['beep', 0.0, 1083.5678677043759, 0.0, 0.0, 0.0, 0.0, -1235.1797503447235, 0.0]
['beep', 0.0, 1084.1490130602137, 0.0, 0.0, 0.0, 0.0, -1234.5315497555198, 0.0]
['beep', 0.0, 1084.7972136494177, 0.0, 0.0, 0.0, 0.0, -1235.1126951113577, 0.0]
['beep', 0.0, 1083.7690334044735, 0.0, 0.0, 0.0, 0.0, -1237.8619596793603, 0.0]
['beep', 0.0, 1082.427928737155, 0.0, 0.0, 0.0, 0.0, -1236.6773172232292, 0.0]
['beep', 0.0, 1082.4055769926997, 0.0, 0.0, 0.0, 0.0, -1235.939709656204, 0.0]
['beep', 0.0, 1082.2491147815126, 0.0, 0.0, 0.0, 0.0, -1236.2079305896677, 0.0]
['beep', 0.0, 1082.4726322260658, 0.0, 0.0, 0.0, 0.0, -1236.811427689961, 0.0]
['beep', 0.0, 1082.5396874594317, 0.0, 0.0, 0.0, 0.0, -1237.10200036788, 0.0]
['beep', 0.0, 1082.4726322260658, 0.0, 0.0, 0.0, 0.0, -1239.225416091134, 0.0]
['beep', 0.0, 1081.5115072144874, 0.0, 0.0, 0.0, 0.0, -1237.750200957084, 0.0]
['beep', 0.0, 1081.4444519811216, 0.0, 0.0, 0.0, 0.0, -1236.520855012042, 0.0]
['beep', 0.0, 1081.5785624478535, 0.0, 0.0, 0.0, 0.0, -1237.9960701460923, 0.0]
['beep', 0.0, 1081.3773967477557, 0.0, 0.0, 0.0, 0.0, -1236.3196893119443, 0.0]
['beep', 0.0, 1080.9080101141942, 0.0, 0.0, 0.0, 0.0, -1236.9902416456034, 0.0]
['beep', 0.0, 1079.6786641691524, 0.0, 0.0, 0.0, 0.0, -1233.972756144137, 0.0]
['beep', 0.0, 1079.8798298692502, 0.0, 0.0, 0.0, 0.0, -1234.263328822056, 0.0]
['beep', 0.0, 1080.8409548808283, 0.0, 0.0, 0.0, 0.0, -1236.1408753563019, 0.0]
['beep', 0.0, 1080.9974170920154, 0.0, 0.0, 0.0, 0.0, -1235.5820817449192, 0.0]
['beep', 0.0, 1080.8409548808283, 0.0, 0.0, 0.0, 0.0, -1235.6938404671957, 0.0]
['beep', 0.0, 1080.7291961585518, 0.0, 0.0, 0.0, 0.0, -1236.1855788452124, 0.0]
['beep', 0.0, 1081.7350246590406, 0.0, 0.0, 0.0, 0.0, -1237.1243521123354, 0.0]
['beep', 0.0, 1083.1878880486356, 0.0, 0.0, 0.0, 0.0, -1237.5937387458966, 0.0]
['beep', 0.0, 1081.8020798924065, 0.0, 0.0, 0.0, 0.0, -1236.00676488957, 0.0]
['beep', 0.0, 1079.1645740466804, 0.0, 0.0, 0.0, 0.0, -1236.1855788452124, 0.0]
['beep', 0.0, 1079.209277535591, 0.0, 0.0, 0.0, 0.0, -1238.0631253794581, 0.0]
['beep', 0.0, 1079.7010159136078, 0.0, 0.0, 0.0, 0.0, -1235.8503026783828, 0.0]
['beep', 0.0, 1080.170402547169, 0.0, 0.0, 0.0, 0.0, -1235.9173579117487, 0.0]
['beep', 0.0, 1080.6174374362752, 0.0, 0.0, 0.0, 0.0, -1238.1078288683689, 0.0]
['beep', 0.0, 1079.2986845134121, 0.0, 0.0, 0.0, 0.0, -1239.7618579580615, 0.0]
['beep', 0.0, 1077.8234693793618, 0.0, 0.0, 0.0, 0.0, -1236.453799778676, 0.0]
['beep', 0.0, 1078.2258007795574, 0.0, 0.0, 0.0, 0.0, -1235.805599189472, 0.0]
['beep', 0.0, 1080.3939199917222, 0.0, 0.0, 0.0, 0.0, -1238.4878085241091, 0.0]
['beep', 0.0, 1078.9187048576719, 0.0, 0.0, 0.0, 0.0, -1235.8503026783828, 0.0]
['beep', 0.0, 1078.270504268468, 0.0, 0.0, 0.0, 0.0, -1236.0961718673911, 0.0]
['beep', 0.0, 1078.8069461353955, 0.0, 0.0, 0.0, 0.0, -1236.6996689676844, 0.0]
['beep', 0.0, 1079.0528153244038, 0.0, 0.0, 0.0, 0.0, -1237.750200957084, 0.0]
['beep', 0.0, 1078.5387252019316, 0.0, 0.0, 0.0, 0.0, -1237.6384422348074, 0.0]
['beep', 0.0, 1079.2763327689568, 0.0, 0.0, 0.0, 0.0, -1239.0913056244024, 0.0]
['beep', 0.0, 1078.6057804352977, 0.0, 0.0, 0.0, 0.0, -1238.1748841017347, 0.0]
['beep', 0.0, 1078.7845943909401, 0.0, 0.0, 0.0, 0.0, -1238.8007329464833, 0.0]
['beep', 0.0, 1079.4551467245992, 0.0, 0.0, 0.0, 0.0, -1238.5325120130196, 0.0]
['beep', 0.0, 1079.9021816137054, 0.0, 0.0, 0.0, 0.0, -1236.8561311788717, 0.0]
['beep', 0.0, 1079.6786641691524, 0.0, 0.0, 0.0, 0.0, -1237.973718401637, 0.0]
['beep', 0.0, 1080.7291961585518, 0.0, 0.0, 0.0, 0.0, -1238.5325120130196, 0.0]
['beep', 0.0, 1079.8127746358841, 0.0, 0.0, 0.0, 0.0, -1239.5606922579639, 0.0]
['beep', 0.0, 1080.3268647583564, 0.0, 0.0, 0.0, 0.0, -1240.5665207584525, 0.0]
['beep', 0.0, 1081.0197688364708, 0.0, 0.0, 0.0, 0.0, -1238.1301806128242, 0.0]
['beep', 0.0, 1080.3492165028115, 0.0, 0.0, 0.0, 0.0, -1236.8784829233268, 0.0]
['beep', 0.0, 1079.9021816137054, 0.0, 0.0, 0.0, 0.0, -1236.230282334123, 0.0]
['beep', 0.0, 1079.790422891429, 0.0, 0.0, 0.0, 0.0, -1237.9960701460923, 0.0]
['beep', 0.0, 1080.8409548808283, 0.0, 0.0, 0.0, 0.0, -1237.0349451345141, 0.0]
['beep', 0.0, 1081.913838614683, 0.0, 0.0, 0.0, 0.0, -1237.3702213013437, 0.0]
['beep', 0.0, 1081.2656380254791, 0.0, 0.0, 0.0, 0.0, -1238.1748841017347, 0.0]
['beep', 0.0, 1079.4551467245992, 0.0, 0.0, 0.0, 0.0, -1237.1467038567905, 0.0]
['beep', 0.0, 1079.209277535591, 0.0, 0.0, 0.0, 0.0, -1235.7161922116509, 0.0]
['beep', 0.0, 1079.5445537024204, 0.0, 0.0, 0.0, 0.0, -1234.7327154556174, 0.0]
['beep', 0.0, 1079.9692368470714, 0.0, 0.0, 0.0, 0.0, -1236.2526340785782, 0.0]
['beep', 0.0, 1080.3715682472669, 0.0, 0.0, 0.0, 0.0, -1235.5373782560084, 0.0]
['beep', 0.0, 1079.49985021351, 0.0, 0.0, 0.0, 0.0, -1237.3031660679778, 0.0]
['beep', 0.0, 1078.337559501834, 0.0, 0.0, 0.0, 0.0, -1238.8901399243045, 0.0]
['beep', 0.0, 1078.4493182241104, 0.0, 0.0, 0.0, 0.0, -1236.520855012042, 0.0]
['beep', 0.0, 1075.588294933831, 0.0, 0.0, 0.0, 0.0, -1236.1855788452124, 0.0]
['beep', 0.0, 1076.2811990119458, 0.0, 0.0, 0.0, 0.0, -1236.4090962897656, 0.0]
['beep', 0.0, 1084.7972136494177, 0.0, 0.0, 0.0, 0.0, -1232.6092997323633, 0.0]
['beep', 0.0, 1087.6135334507865, 0.0, 0.0, 0.0, 0.0, -1232.4304857767208, 0.0]
['beep', 0.0, 1085.5795247053534, 0.0, 0.0, 0.0, 0.0, -1232.4528375211762, 0.0]
['beep', 0.0, 1084.9313241161494, 0.0, 0.0, 0.0, 0.0, -1229.3682967863438, 0.0]
['beep', 0.0, 1086.8759258837613, 0.0, 0.0, 0.0, 0.0, -1230.4411805201985, 0.0]
['beep', 0.0, 1085.3783590052556, 0.0, 0.0, 0.0, 0.0, -1230.8435119203941, 0.0]
['beep', 0.0, 1084.372530504767, 0.0, 0.0, 0.0, 0.0, -1231.1787880872237, 0.0]
['beep', 0.0, 1084.8419171383282, 0.0, 0.0, 0.0, 0.0, -1230.5305874980197, 0.0]
['beep', 0.0, 1085.6689316831746, 0.0, 0.0, 0.0, 0.0, -1228.295413052489, 0.0]
['beep', 0.0, 1084.6631031826857, 0.0, 0.0, 0.0, 0.0, -1229.2565380640672, 0.0]
['beep', 0.0, 1084.1937165491245, 0.0, 0.0, 0.0, 0.0, -1231.067029364947, 0.0]
['beep', 0.0, 1083.9031438712054, 0.0, 0.0, 0.0, 0.0, -1230.8882154093046, 0.0]
['beep', 0.0, 1085.1548415607026, 0.0, 0.0, 0.0, 0.0, -1231.4023055317766, 0.0]
['beep', 0.0, 1086.6971119281188, 0.0, 0.0, 0.0, 0.0, -1233.2351485771119, 0.0]
['beep', 0.0, 1086.9206293726718, 0.0, 0.0, 0.0, 0.0, -1229.4800555086204, 0.0]
['beep', 0.0, 1086.3171322723786, 0.0, 0.0, 0.0, 0.0, -1229.7259246976287, 0.0]
['beep', 0.0, 1085.8700973832724, 0.0, 0.0, 0.0, 0.0, -1232.072857865436, 0.0]
['beep', 0.0, 1086.0712630833702, 0.0, 0.0, 0.0, 0.0, -1233.0116311325587, 0.0]
['beep', 0.0, 1086.1606700611915, 0.0, 0.0, 0.0, 0.0, -1230.552939242475, 0.0]
['beep', 0.0, 1086.361835761289, 0.0, 0.0, 0.0, 0.0, -1230.9329188982153, 0.0]
['beep', 0.0, 1086.1830218056466, 0.0, 0.0, 0.0, 0.0, -1232.8328171769163, 0.0]
['beep', 0.0, 1085.5795247053534, 0.0, 0.0, 0.0, 0.0, -1229.3682967863438, 0.0]
['beep', 0.0, 1086.7641671614847, 0.0, 0.0, 0.0, 0.0, -1230.329421797922, 0.0]
['beep', 0.0, 1087.2112020505908, 0.0, 0.0, 0.0, 0.0, -1228.3177647969444, 0.0]
['beep', 0.0, 1087.2559055395016, 0.0, 0.0, 0.0, 0.0, -1229.2788898085225, 0.0]
['beep', 0.0, 1087.658236939697, 0.0, 0.0, 0.0, 0.0, -1230.105904353369, 0.0]
['beep', 0.0, 1087.7252921730628, 0.0, 0.0, 0.0, 0.0, -1230.329421797922, 0.0]
['beep', 0.0, 1087.792347406429, 0.0, 0.0, 0.0, 0.0, -1231.6258229763298, 0.0]
['beep', 0.0, 1087.792347406429, 0.0, 0.0, 0.0, 0.0, -1231.6034712318744, 0.0]
['beep', 0.0, 1087.300609028412, 0.0, 0.0, 0.0, 0.0, -1231.2234915761342, 0.0]
['beep', 0.0, 1085.7359869165405, 0.0, 0.0, 0.0, 0.0, -1229.7706281865392, 0.0]
['beep', 0.0, 1086.138318316736, 0.0, 0.0, 0.0, 0.0, -1229.3906485307991, 0.0]
['beep', 0.0, 1087.4570712395991, 0.0, 0.0, 0.0, 0.0, -1230.3517735423773, 0.0]
['beep', 0.0, 1088.4852514845434, 0.0, 0.0, 0.0, 0.0, -1231.9610991431593, 0.0]
['beep', 0.0, 1087.5017747285099, 0.0, 0.0, 0.0, 0.0, -1232.72105845464, 0.0]
['beep', 0.0, 1087.1664985616803, 0.0, 0.0, 0.0, 0.0, -1233.2127968326565, 0.0]
['beep', 0.0, 1088.4181962511775, 0.0, 0.0, 0.0, 0.0, -1232.72105845464, 0.0]
['beep', 0.0, 1088.0829200843477, 0.0, 0.0, 0.0, 0.0, -1231.558767742964, 0.0]
['beep', 0.0, 1088.3287892733563, 0.0, 0.0, 0.0, 0.0, -1232.00580263207, 0.0]
['beep', 0.0, 1087.9264578731606, 0.0, 0.0, 0.0, 0.0, -1232.3857822878101, 0.0]
['beep', 0.0, 1088.105271828803, 0.0, 0.0, 0.0, 0.0, -1232.5422444989974, 0.0]
['beep', 0.0, 1087.658236939697, 0.0, 0.0, 0.0, 0.0, -1233.905700910771, 0.0]
['beep', 0.0, 1087.1664985616803, 0.0, 0.0, 0.0, 0.0, -1235.3362125559108, 0.0]
['beep', 0.0, 1087.658236939697, 0.0, 0.0, 0.0, 0.0, -1234.4197910332432, 0.0]
['beep', 0.0, 1087.434719495144, 0.0, 0.0, 0.0, 0.0, -1233.0563346214694, 0.0]
['beep', 0.0, 1089.3793212627556, 0.0, 0.0, 0.0, 0.0, -1231.6928782096957, 0.0]
['beep', 0.0, 1089.2005073071132, 0.0, 0.0, 0.0, 0.0, -1232.5422444989974, 0.0]
['beep', 0.0, 1088.2170305510797, 0.0, 0.0, 0.0, 0.0, -1234.0174596330476, 0.0]
['beep', 0.0, 1088.0382165954372, 0.0, 0.0, 0.0, 0.0, -1232.9445758991928, 0.0]
['beep', 0.0, 1088.0382165954372, 0.0, 0.0, 0.0, 0.0, -1232.3410787988996, 0.0]
['beep', 0.0, 1087.8370508953394, 0.0, 0.0, 0.0, 0.0, -1233.6151282328522, 0.0]
['beep', 0.0, 1087.2559055395016, 0.0, 0.0, 0.0, 0.0, -1234.1292183553242, 0.0]
['beep', 0.0, 1087.4123677506886, 0.0, 0.0, 0.0, 0.0, -1234.19627358869, 0.0]
['beep', 0.0, 1088.5076032289987, 0.0, 0.0, 0.0, 0.0, -1234.263328822056, 0.0]
['beep', 0.0, 1089.8263561518618, 0.0, 0.0, 0.0, 0.0, -1235.6267852338297, 0.0]
