['beep', 0.0, 1363.3670047959097, 0.0, 0.0, 0.0, 0.0, 763.155610937549, 0.0]
['beep', 0.0, 1359.7907256830604, 0.0, 0.0, 0.0, 0.0, 763.4685353599233, 0.0]
['beep', 0.0, 1355.1862663252673, 0.0, 0.0, 0.0, 0.0, 762.8426865151747, 0.0]
['beep', 0.0, 1356.6614814593174, 0.0, 0.0, 0.0, 0.0, 763.155610937549, 0.0]
['beep', 0.0, 1361.5341617505744, 0.0, 0.0, 0.0, 0.0, 765.8378202721859, 0.0]
['beep', 0.0, 1363.2775978180885, 0.0, 0.0, 0.0, 0.0, 765.5472475942669, 0.0]
['beep', 0.0, 1359.2095803272225, 0.0, 0.0, 0.0, 0.0, 763.3567766376468, 0.0]
['beep', 0.0, 1354.9180453918036, 0.0, 0.0, 0.0, 0.0, 762.7979830262641, 0.0]
['beep', 0.0, 1357.3990890263426, 0.0, 0.0, 0.0, 0.0, 763.3567766376468, 0.0]
['beep', 0.0, 1361.1988855837449, 0.0, 0.0, 0.0, 0.0, 765.0555092162501, 0.0]
['beep', 0.0, 1362.4282315287867, 0.0, 0.0, 0.0, 0.0, 764.0943842046719, 0.0]
['beep', 0.0, 1358.0249378710912, 0.0, 0.0, 0.0, 0.0, 763.6249975711105, 0.0]
['beep', 0.0, 1353.5322372355745, 0.0, 0.0, 0.0, 0.0, 761.993320225873, 0.0]
['beep', 0.0, 1355.610949469918, 0.0, 0.0, 0.0, 0.0, 762.5074103483452, 0.0]
['beep', 0.0, 1360.7965541835492, 0.0, 0.0, 0.0, 0.0, 764.4743638604122, 0.0]
['beep', 0.0, 1361.288292561566, 0.0, 0.0, 0.0, 0.0, 765.3684336386244, 0.0]
['beep', 0.0, 1356.0356326145688, 0.0, 0.0, 0.0, 0.0, 763.7814597822976, 0.0]
['beep', 0.0, 1353.3757750243874, 0.0, 0.0, 0.0, 0.0, 763.6026458266551, 0.0]
['beep', 0.0, 1355.02980411408, 0.0, 0.0, 0.0, 0.0, 763.2673696598256, 0.0]
['beep', 0.0, 1359.3436907939542, 0.0, 0.0, 0.0, 0.0, 764.0496807157613, 0.0]
['beep', 0.0, 1361.489458261664, 0.0, 0.0, 0.0, 0.0, 765.189619682982, 0.0]
['beep', 0.0, 1357.3990890263426, 0.0, 0.0, 0.0, 0.0, 763.6026458266551, 0.0]
['beep', 0.0, 1353.7781064245828, 0.0, 0.0, 0.0, 0.0, 762.0380237147837, 0.0]
['beep', 0.0, 1355.096859347446, 0.0, 0.0, 0.0, 0.0, 763.0885557041831, 0.0]
['beep', 0.0, 1357.7343651931722, 0.0, 0.0, 0.0, 0.0, 765.5025441053563, 0.0]
['beep', 0.0, 1358.4049175268315, 0.0, 0.0, 0.0, 0.0, 766.6871865614876, 0.0]
['beep', 0.0, 1354.515713991608, 0.0, 0.0, 0.0, 0.0, 765.189619682982, 0.0]
['beep', 0.0, 1349.93360637827, 0.0, 0.0, 0.0, 0.0, 763.5355905932893, 0.0]
['beep', 0.0, 1353.1299058353788, 0.0, 0.0, 0.0, 0.0, 765.4578406164457, 0.0]
['beep', 0.0, 1358.382565782376, 0.0, 0.0, 0.0, 0.0, 766.7542417948534, 0.0]
['beep', 0.0, 1358.7178419492056, 0.0, 0.0, 0.0, 0.0, 766.6648348170322, 0.0]
['beep', 0.0, 1354.2474930581443, 0.0, 0.0, 0.0, 0.0, 767.5812563396998, 0.0]
['beep', 0.0, 1351.3641180234097, 0.0, 0.0, 0.0, 0.0, 768.0059394843506, 0.0]
['beep', 0.0, 1354.9180453918036, 0.0, 0.0, 0.0, 0.0, 768.6764918180099, 0.0]
['beep', 0.0, 1360.416574527809, 0.0, 0.0, 0.0, 0.0, 768.028291228806, 0.0]
['beep', 0.0, 1361.511810006119, 0.0, 0.0, 0.0, 0.0, 768.6541400735546, 0.0]
['beep', 0.0, 1356.4603157592196, 0.0, 0.0, 0.0, 0.0, 767.3130354062362, 0.0]
['beep', 0.0, 1353.4428302577533, 0.0, 0.0, 0.0, 0.0, 764.9213987495183, 0.0]
['beep', 0.0, 1355.454487258731, 0.0, 0.0, 0.0, 0.0, 765.5695993387222, 0.0]
['beep', 0.0, 1359.2989873050437, 0.0, 0.0, 0.0, 0.0, 766.3072069057473, 0.0]
['beep', 0.0, 1359.03076637158, 0.0, 0.0, 0.0, 0.0, 767.0224627283171, 0.0]
['beep', 0.0, 1353.9792721246806, 0.0, 0.0, 0.0, 0.0, 766.0836894611942, 0.0]
['beep', 0.0, 1351.8335046569712, 0.0, 0.0, 0.0, 0.0, 764.608474327144, 0.0]
['beep', 0.0, 1354.1357343358677, 0.0, 0.0, 0.0, 0.0, 765.6366545720881, 0.0]
['beep', 0.0, 1359.1872285827671, 0.0, 0.0, 0.0, 0.0, 768.7658987958312, 0.0]
['beep', 0.0, 1360.036594872069, 0.0, 0.0, 0.0, 0.0, 768.7658987958312, 0.0]
['beep', 0.0, 1356.0579843590242, 0.0, 0.0, 0.0, 0.0, 768.1847534399931, 0.0]
['beep', 0.0, 1354.2698448025997, 0.0, 0.0, 0.0, 0.0, 766.642483072577, 0.0]
['beep', 0.0, 1355.7003564477393, 0.0, 0.0, 0.0, 0.0, 765.3013784052586, 0.0]
['beep', 0.0, 1361.2435890726554, 0.0, 0.0, 0.0, 0.0, 766.7318900503982, 0.0]
['beep', 0.0, 1362.4058797843313, 0.0, 0.0, 0.0, 0.0, 766.6871865614876, 0.0]
['beep', 0.0, 1358.4049175268315, 0.0, 0.0, 0.0, 0.0, 766.86600051713, 0.0]
['beep', 0.0, 1354.8956936473483, 0.0, 0.0, 0.0, 0.0, 765.77076503882, 0.0]
['beep', 0.0, 1355.901522147837, 0.0, 0.0, 0.0, 0.0, 764.9661022384289, 0.0]
['beep', 0.0, 1362.0259001285913, 0.0, 0.0, 0.0, 0.0, 766.3072069057473, 0.0]
['beep', 0.0, 1363.8810949183817, 0.0, 0.0, 0.0, 0.0, 768.3859191400909, 0.0]
['beep', 0.0, 1359.388394282865, 0.0, 0.0, 0.0, 0.0, 767.0448144727725, 0.0]
['beep', 0.0, 1353.9122168913148, 0.0, 0.0, 0.0, 0.0, 763.9379219934848, 0.0]
['beep', 0.0, 1356.1026878479347, 0.0, 0.0, 0.0, 0.0, 765.7484132943647, 0.0]
['beep', 0.0, 1361.5565134950298, 0.0, 0.0, 0.0, 0.0, 765.0108057273395, 0.0]
['beep', 0.0, 1364.8198681855044, 0.0, 0.0, 0.0, 0.0, 764.9437504939737, 0.0]
['beep', 0.0, 1362.0259001285913, 0.0, 0.0, 0.0, 0.0, 765.5472475942669, 0.0]
['beep', 0.0, 1359.544856494052, 0.0, 0.0, 0.0, 0.0, 766.6648348170322, 0.0]
['beep', 0.0, 1362.6517489733399, 0.0, 0.0, 0.0, 0.0, 768.318863906725, 0.0]
['beep', 0.0, 1369.357272309932, 0.0, 0.0, 0.0, 0.0, 768.8776575181076, 0.0]
['beep', 0.0, 1370.6536734883398, 0.0, 0.0, 0.0, 0.0, 769.3246924072138, 0.0]
['beep', 0.0, 1365.3786617968872, 0.0, 0.0, 0.0, 0.0, 771.2469424303702, 0.0]
['beep', 0.0, 1358.516676249108, 0.0, 0.0, 0.0, 0.0, 770.8222592857194, 0.0]
['beep', 0.0, 1360.3942227833538, 0.0, 0.0, 0.0, 0.0, 768.1400499510825, 0.0]
['beep', 0.0, 1365.1104408634235, 0.0, 0.0, 0.0, 0.0, 769.2576371738479, 0.0]
['beep', 0.0, 1365.3786617968872, 0.0, 0.0, 0.0, 0.0, 770.1517069520602, 0.0]
['beep', 0.0, 1361.0424233725576, 0.0, 0.0, 0.0, 0.0, 769.1011749626607, 0.0]
['beep', 0.0, 1356.5497227370408, 0.0, 0.0, 0.0, 0.0, 767.5142011063339, 0.0]
['beep', 0.0, 1359.097821604946, 0.0, 0.0, 0.0, 0.0, 768.9223610070183, 0.0]
['beep', 0.0, 1364.12696410739, 0.0, 0.0, 0.0, 0.0, 767.8941807620741, 0.0]
['beep', 0.0, 1364.9763303966918, 0.0, 0.0, 0.0, 0.0, 768.0506429732612, 0.0]
['beep', 0.0, 1360.5283332500856, 0.0, 0.0, 0.0, 0.0, 765.9272272500071, 0.0]
['beep', 0.0, 1357.3543855374319, 0.0, 0.0, 0.0, 0.0, 765.2790266608032, 0.0]
['beep', 0.0, 1356.8626471594152, 0.0, 0.0, 0.0, 0.0, 765.6143028276329, 0.0]
['beep', 0.0, 1363.0764321179906, 0.0, 0.0, 0.0, 0.0, 767.8941807620741, 0.0]
['beep', 0.0, 1365.713937963717, 0.0, 0.0, 0.0, 0.0, 768.7435470513758, 0.0]
['beep', 0.0, 1361.645920472851, 0.0, 0.0, 0.0, 0.0, 768.8106022847418, 0.0]
['beep', 0.0, 1357.2649785596107, 0.0, 0.0, 0.0, 0.0, 768.3859191400909, 0.0]
['beep', 0.0, 1358.0025861266358, 0.0, 0.0, 0.0, 0.0, 766.8212970282194, 0.0]
['beep', 0.0, 1362.8305629289823, 0.0, 0.0, 0.0, 0.0, 767.380090639602, 0.0]
['beep', 0.0, 1361.645920472851, 0.0, 0.0, 0.0, 0.0, 767.5812563396998, 0.0]
['beep', 0.0, 1357.4884960041638, 0.0, 0.0, 0.0, 0.0, 767.6930150619763, 0.0]
['beep', 0.0, 1354.4263070137868, 0.0, 0.0, 0.0, 0.0, 766.3072069057473, 0.0]
['beep', 0.0, 1355.9238738922922, 0.0, 0.0, 0.0, 0.0, 766.7318900503982, 0.0]
['beep', 0.0, 1360.0812983609794, 0.0, 0.0, 0.0, 0.0, 765.5695993387222, 0.0]
['beep', 0.0, 1361.9588448952252, 0.0, 0.0, 0.0, 0.0, 765.480192360901, 0.0]
['beep', 0.0, 1357.287330304066, 0.0, 0.0, 0.0, 0.0, 764.9884539828843, 0.0]
['beep', 0.0, 1352.9734436241918, 0.0, 0.0, 0.0, 0.0, 764.9437504939737, 0.0]
['beep', 0.0, 1355.320376791999, 0.0, 0.0, 0.0, 0.0, 765.6366545720881, 0.0]
['beep', 0.0, 1360.84125767246, 0.0, 0.0, 0.0, 0.0, 766.5977795836664, 0.0]
['beep', 0.0, 1361.6235687283956, 0.0, 0.0, 0.0, 0.0, 769.5482098517668, 0.0]
['beep', 0.0, 1357.4437925152533, 0.0, 0.0, 0.0, 0.0, 767.4918493618786, 0.0]
['beep', 0.0, 1352.3252430349878, 0.0, 0.0, 0.0, 0.0, 764.9661022384289, 0.0]
['beep', 0.0, 1355.454487258731, 0.0, 0.0, 0.0, 0.0, 767.0895179616831, 0.0]
['beep', 0.0, 1360.2377605721665, 0.0, 0.0, 0.0, 0.0, 768.900009262563, 0.0]
['beep', 0.0, 1362.2494175731442, 0.0, 0.0, 0.0, 0.0, 769.2576371738479, 0.0]
['beep', 0.0, 1358.1590483378232, 0.0, 0.0, 0.0, 0.0, 768.8776575181076, 0.0]
['beep', 0.0, 1353.2416645576554, 0.0, 0.0, 0.0, 0.0, 768.1400499510825, 0.0]
['beep', 0.0, 1355.9909291256583, 0.0, 0.0, 0.0, 0.0, 768.7435470513758, 0.0]
['beep', 0.0, 1360.6400919723621, 0.0, 0.0, 0.0, 0.0, 770.0846517186942, 0.0]
['beep', 0.0, 1362.2494175731442, 0.0, 0.0, 0.0, 0.0, 768.900009262563, 0.0]
['beep', 0.0, 1358.8296006714822, 0.0, 0.0, 0.0, 0.0, 767.4694976174233, 0.0]
['beep', 0.0, 1352.4593535017198, 0.0, 0.0, 0.0, 0.0, 769.1458784515713, 0.0]
['beep', 0.0, 1355.320376791999, 0.0, 0.0, 0.0, 0.0, 769.5929133406775, 0.0]
['beep', 0.0, 1360.0142431276136, 0.0, 0.0, 0.0, 0.0, 772.4315848865015, 0.0]
['beep', 0.0, 1360.997719883647, 0.0, 0.0, 0.0, 0.0, 772.1633639530378, 0.0]
['beep', 0.0, 1357.130868092879, 0.0, 0.0, 0.0, 0.0, 769.9505412519624, 0.0]
['beep', 0.0, 1353.7557546801277, 0.0, 0.0, 0.0, 0.0, 768.4753261179121, 0.0]
['beep', 0.0, 1355.1415628363566, 0.0, 0.0, 0.0, 0.0, 769.6599685740434, 0.0]
['beep', 0.0, 1359.8577809164265, 0.0, 0.0, 0.0, 0.0, 769.5482098517668, 0.0]
['beep', 0.0, 1361.3776995393873, 0.0, 0.0, 0.0, 0.0, 770.2411139298814, 0.0]
['beep', 0.0, 1356.773240181594, 0.0, 0.0, 0.0, 0.0, 770.0846517186942, 0.0]
['beep', 0.0, 1353.3981267688428, 0.0, 0.0, 0.0, 0.0, 768.5647330957333, 0.0]
['beep', 0.0, 1355.2533215586332, 0.0, 0.0, 0.0, 0.0, 767.4247941285126, 0.0]
['beep', 0.0, 1361.1318303503788, 0.0, 0.0, 0.0, 0.0, 768.6541400735546, 0.0]
['beep', 0.0, 1362.3388245509655, 0.0, 0.0, 0.0, 0.0, 771.7163290639317, 0.0]
['beep', 0.0, 1357.8908274043595, 0.0, 0.0, 0.0, 0.0, 769.704672062954, 0.0]
['beep', 0.0, 1353.4651820022086, 0.0, 0.0, 0.0, 0.0, 768.2071051844484, 0.0]
['beep', 0.0, 1356.482667503675, 0.0, 0.0, 0.0, 0.0, 768.6988435624652, 0.0]
['beep', 0.0, 1362.3611762954208, 0.0, 0.0, 0.0, 0.0, 771.0681284747277, 0.0]
['beep', 0.0, 1363.6575774738285, 0.0, 0.0, 0.0, 0.0, 772.2304191864038, 0.0]
['beep', 0.0, 1357.9578826377253, 0.0, 0.0, 0.0, 0.0, 770.7775557968088, 0.0]
['beep', 0.0, 1353.5992924689403, 0.0, 0.0, 0.0, 0.0, 770.5987418411663, 0.0]
['beep', 0.0, 1355.5885977254627, 0.0, 0.0, 0.0, 0.0, 769.9728929964177, 0.0]
['beep', 0.0, 1361.511810006119, 0.0, 0.0, 0.0, 0.0, 770.8446110301746, 0.0]
['beep', 0.0, 1362.6964524622504, 0.0, 0.0, 0.0, 0.0, 772.7221575644205, 0.0]
['beep', 0.0, 1357.063812859513, 0.0, 0.0, 0.0, 0.0, 771.7610325528423, 0.0]
['beep', 0.0, 1352.258187801622, 0.0, 0.0, 0.0, 0.0, 771.0234249858171, 0.0]
['beep', 0.0, 1352.4817052461751, 0.0, 0.0, 0.0, 0.0, 770.3528726521579, 0.0]
['beep', 0.0, 1357.9578826377253, 0.0, 0.0, 0.0, 0.0, 772.7221575644205, 0.0]
['beep', 0.0, 1360.7965541835492, 0.0, 0.0, 0.0, 0.0, 771.671625575021, 0.0]
['beep', 0.0, 1356.3709087813984, 0.0, 0.0, 0.0, 0.0, 767.8718290176188, 0.0]
['beep', 0.0, 1352.7946296685493, 0.0, 0.0, 0.0, 0.0, 767.8494772731635, 0.0]
['beep', 0.0, 1352.9734436241918, 0.0, 0.0, 0.0, 0.0, 769.3246924072138, 0.0]
['beep', 0.0, 1358.2931588045549, 0.0, 0.0, 0.0, 0.0, 770.8893145190852, 0.0]
['beep', 0.0, 1359.7460221941499, 0.0, 0.0, 0.0, 0.0, 769.4364511294904, 0.0]
['beep', 0.0, 1355.2533215586332, 0.0, 0.0, 0.0, 0.0, 768.6317883290993, 0.0]
['beep', 0.0, 1350.9617866232143, 0.0, 0.0, 0.0, 0.0, 767.8718290176188, 0.0]
['beep', 0.0, 1353.2863680465662, 0.0, 0.0, 0.0, 0.0, 768.4753261179121, 0.0]
['beep', 0.0, 1358.9413593937588, 0.0, 0.0, 0.0, 0.0, 770.3752243966132, 0.0]
['beep', 0.0, 1359.7236704496945, 0.0, 0.0, 0.0, 0.0, 771.5151633638338, 0.0]
['beep', 0.0, 1356.1473913368454, 0.0, 0.0, 0.0, 0.0, 771.9845499973953, 0.0]
['beep', 0.0, 1353.3310715354767, 0.0, 0.0, 0.0, 0.0, 770.9563697524512, 0.0]
['beep', 0.0, 1353.845161657949, 0.0, 0.0, 0.0, 0.0, 771.9398465084847, 0.0]
['beep', 0.0, 1357.8237721709934, 0.0, 0.0, 0.0, 0.0, 772.7668610533311, 0.0]
['beep', 0.0, 1361.9141414063147, 0.0, 0.0, 0.0, 0.0, 773.7503378093646, 0.0]
['beep', 0.0, 1357.577902981985, 0.0, 0.0, 0.0, 0.0, 773.415061642535, 0.0]
['beep', 0.0, 1353.3310715354767, 0.0, 0.0, 0.0, 0.0, 772.4315848865015, 0.0]
['beep', 0.0, 1355.387432025365, 0.0, 0.0, 0.0, 0.0, 772.4315848865015, 0.0]
['beep', 0.0, 1360.349519294443, 0.0, 0.0, 0.0, 0.0, 772.7221575644205, 0.0]
['beep', 0.0, 1361.9811966396805, 0.0, 0.0, 0.0, 0.0, 773.638579087088, 0.0]
['beep', 0.0, 1359.254283816133, 0.0, 0.0, 0.0, 0.0, 772.6551023310545, 0.0]
['beep', 0.0, 1354.3816035248763, 0.0, 0.0, 0.0, 0.0, 770.6657970745322, 0.0]
['beep', 0.0, 1355.7674116811052, 0.0, 0.0, 0.0, 0.0, 770.6434453300769, 0.0]
['beep', 0.0, 1360.0812983609794, 0.0, 0.0, 0.0, 0.0, 772.0069017418506, 0.0]
['beep', 0.0, 1362.160010595323, 0.0, 0.0, 0.0, 0.0, 772.5656953532333, 0.0]
['beep', 0.0, 1357.4884960041638, 0.0, 0.0, 0.0, 0.0, 771.3139976637361, 0.0]
['beep', 0.0, 1352.4817052461751, 0.0, 0.0, 0.0, 0.0, 768.6317883290993, 0.0]
['beep', 0.0, 1353.3087197910213, 0.0, 0.0, 0.0, 0.0, 768.1624016955378, 0.0]
['beep', 0.0, 1357.8461239154487, 0.0, 0.0, 0.0, 0.0, 769.3917476405798, 0.0]
['beep', 0.0, 1360.1260018498901, 0.0, 0.0, 0.0, 0.0, 771.8504395306635, 0.0]
['beep', 0.0, 1357.130868092879, 0.0, 0.0, 0.0, 0.0, 773.0127302423394, 0.0]
['beep', 0.0, 1352.1240773348902, 0.0, 0.0, 0.0, 0.0, 771.3587011526467, 0.0]
['beep', 0.0, 1353.6886994467616, 0.0, 0.0, 0.0, 0.0, 769.3023406627585, 0.0]
['beep', 0.0, 1359.321339049499, 0.0, 0.0, 0.0, 0.0, 770.9787214969065, 0.0]
['beep', 0.0, 1361.0871268614683, 0.0, 0.0, 0.0, 0.0, 773.0574337312501, 0.0]
['beep', 0.0, 1356.9520541372365, 0.0, 0.0, 0.0, 0.0, 772.6103988421439, 0.0]
['beep', 0.0, 1350.581806967474, 0.0, 0.0, 0.0, 0.0, 772.1633639530378, 0.0]
['beep', 0.0, 1351.74409767915, 0.0, 0.0, 0.0, 0.0, 772.7221575644205, 0.0]
['beep', 0.0, 1356.929702392781, 0.0, 0.0, 0.0, 0.0, 774.3314831652026, 0.0]
['beep', 0.0, 1359.388394282865, 0.0, 0.0, 0.0, 0.0, 772.3645296531356, 0.0]
['beep', 0.0, 1354.7168796917058, 0.0, 0.0, 0.0, 0.0, 770.7775557968088, 0.0]
['beep', 0.0, 1349.8441994004488, 0.0, 0.0, 0.0, 0.0, 770.5093348633451, 0.0]
['beep', 0.0, 1351.900559890337, 0.0, 0.0, 0.0, 0.0, 769.7493755518647, 0.0]
['beep', 0.0, 1356.4379640147645, 0.0, 0.0, 0.0, 0.0, 770.5987418411663, 0.0]
['beep', 0.0, 1358.6507867158398, 0.0, 0.0, 0.0, 0.0, 771.6045703416551, 0.0]
['beep', 0.0, 1353.643995957851, 0.0, 0.0, 0.0, 0.0, 771.671625575021, 0.0]
['beep', 0.0, 1348.324280777488, 0.0, 0.0, 0.0, 0.0, 768.1847534399931, 0.0]
['beep', 0.0, 1349.1959988112449, 0.0, 0.0, 0.0, 0.0, 769.704672062954, 0.0]
['beep', 0.0, 1354.672176202795, 0.0, 0.0, 0.0, 0.0, 770.0399482297836, 0.0]
['beep', 0.0, 1357.1755715817894, 0.0, 0.0, 0.0, 0.0, 770.1517069520602, 0.0]
['beep', 0.0, 1352.8169814130047, 0.0, 0.0, 0.0, 0.0, 769.1011749626607, 0.0]
['beep', 0.0, 1347.6090249549181, 0.0, 0.0, 0.0, 0.0, 768.5870848401887, 0.0]
['beep', 0.0, 1351.0064901121248, 0.0, 0.0, 0.0, 0.0, 768.5423813512781, 0.0]
['beep', 0.0, 1357.3320337929767, 0.0, 0.0, 0.0, 0.0, 769.8164307852305, 0.0]
['beep', 0.0, 1358.8519524159376, 0.0, 0.0, 0.0, 0.0, 770.218762185426, 0.0]
['beep', 0.0, 1355.7227081921947, 0.0, 0.0, 0.0, 0.0, 767.9165325065294, 0.0]
['beep', 0.0, 1351.1182488344014, 0.0, 0.0, 0.0, 0.0, 766.5083726058451, 0.0]
['beep', 0.0, 1352.1240773348902, 0.0, 0.0, 0.0, 0.0, 766.575427839211, 0.0]
['beep', 0.0, 1356.1026878479347, 0.0, 0.0, 0.0, 0.0, 769.3693958961244, 0.0]
['beep', 0.0, 1357.7790686820829, 0.0, 0.0, 0.0, 0.0, 770.5093348633451, 0.0]
['beep', 0.0, 1354.292196547055, 0.0, 0.0, 0.0, 0.0, 770.1070034631496, 0.0]
['beep', 0.0, 1350.805324412027, 0.0, 0.0, 0.0, 0.0, 768.8553057736524, 0.0]
['beep', 0.0, 1353.7334029356723, 0.0, 0.0, 0.0, 0.0, 770.285817418792, 0.0]
['beep', 0.0, 1358.4049175268315, 0.0, 0.0, 0.0, 0.0, 769.3246924072138, 0.0]
['beep', 0.0, 1360.1260018498901, 0.0, 0.0, 0.0, 0.0, 767.6930150619763, 0.0]
['beep', 0.0, 1355.7227081921947, 0.0, 0.0, 0.0, 0.0, 768.4753261179121, 0.0]
['beep', 0.0, 1349.9112546338147, 0.0, 0.0, 0.0, 0.0, 767.7600702953423, 0.0]
['beep', 0.0, 1351.3194145344992, 0.0, 0.0, 0.0, 0.0, 768.6317883290993, 0.0]
['beep', 0.0, 1356.0356326145688, 0.0, 0.0, 0.0, 0.0, 769.6823203184987, 0.0]
['beep', 0.0, 1357.644958215351, 0.0, 0.0, 0.0, 0.0, 769.704672062954, 0.0]
['beep', 0.0, 1353.8228099134935, 0.0, 0.0, 0.0, 0.0, 770.3081691632473, 0.0]
['beep', 0.0, 1350.3359377784657, 0.0, 0.0, 0.0, 0.0, 770.0399482297836, 0.0]
['beep', 0.0, 1352.191132568256, 0.0, 0.0, 0.0, 0.0, 767.8047737842529, 0.0]
['beep', 0.0, 1356.7285366926833, 0.0, 0.0, 0.0, 0.0, 769.3917476405798, 0.0]
['beep', 0.0, 1359.1872285827671, 0.0, 0.0, 0.0, 0.0, 770.7775557968088, 0.0]
['beep', 0.0, 1356.5273709925857, 0.0, 0.0, 0.0, 0.0, 769.995244740873, 0.0]
['beep', 0.0, 1351.4982284901416, 0.0, 0.0, 0.0, 0.0, 768.5200296068227, 0.0]
['beep', 0.0, 1352.3699465238985, 0.0, 0.0, 0.0, 0.0, 767.6930150619763, 0.0]
['beep', 0.0, 1358.4272692712868, 0.0, 0.0, 0.0, 0.0, 767.0448144727725, 0.0]
['beep', 0.0, 1361.511810006119, 0.0, 0.0, 0.0, 0.0, 768.6988435624652, 0.0]
['beep', 0.0, 1357.1979233262448, 0.0, 0.0, 0.0, 0.0, 768.7435470513758, 0.0]
['beep', 0.0, 1352.1240773348902, 0.0, 0.0, 0.0, 0.0, 765.9719307389178, 0.0]
['beep', 0.0, 1353.7334029356723, 0.0, 0.0, 0.0, 0.0, 767.3353871506914, 0.0]
['beep', 0.0, 1358.3378622934656, 0.0, 0.0, 0.0, 0.0, 769.8834860185965, 0.0]
['beep', 0.0, 1360.5059815056302, 0.0, 0.0, 0.0, 0.0, 769.1235267071161, 0.0]
['beep', 0.0, 1357.130868092879, 0.0, 0.0, 0.0, 0.0, 769.2576371738479, 0.0]
['beep', 0.0, 1351.0288418565801, 0.0, 0.0, 0.0, 0.0, 767.8271255287082, 0.0]
['beep', 0.0, 1351.6993941902392, 0.0, 0.0, 0.0, 0.0, 767.0895179616831, 0.0]
['beep', 0.0, 1357.644958215351, 0.0, 0.0, 0.0, 0.0, 769.3693958961244, 0.0]
['beep', 0.0, 1359.5001530051416, 0.0, 0.0, 0.0, 0.0, 768.5870848401887, 0.0]
['beep', 0.0, 1354.9180453918036, 0.0, 0.0, 0.0, 0.0, 767.0224627283171, 0.0]
['beep', 0.0, 1349.0395366000578, 0.0, 0.0, 0.0, 0.0, 766.4636691169345, 0.0]
['beep', 0.0, 1350.6041587119294, 0.0, 0.0, 0.0, 0.0, 766.3519103946579, 0.0]
['beep', 0.0, 1355.2086180697224, 0.0, 0.0, 0.0, 0.0, 767.4024423840574, 0.0]
['beep', 0.0, 1358.226103571189, 0.0, 0.0, 0.0, 0.0, 768.4976778623675, 0.0]
['beep', 0.0, 1354.2027895692338, 0.0, 0.0, 0.0, 0.0, 767.9835877398954, 0.0]
['beep', 0.0, 1349.5312749780746, 0.0, 0.0, 0.0, 0.0, 765.7260615499093, 0.0]
['beep', 0.0, 1351.1182488344014, 0.0, 0.0, 0.0, 0.0, 765.3684336386244, 0.0]
['beep', 0.0, 1357.93553089327, 0.0, 0.0, 0.0, 0.0, 766.4189656280239, 0.0]
['beep', 0.0, 1359.4778012606862, 0.0, 0.0, 0.0, 0.0, 766.642483072577, 0.0]
['beep', 0.0, 1353.867513402404, 0.0, 0.0, 0.0, 0.0, 765.5695993387222, 0.0]
['beep', 0.0, 1349.3971645113427, 0.0, 0.0, 0.0, 0.0, 766.798945283764, 0.0]
['beep', 0.0, 1351.2747110455884, 0.0, 0.0, 0.0, 0.0, 766.6871865614876, 0.0]
['beep', 0.0, 1356.8626471594152, 0.0, 0.0, 0.0, 0.0, 766.1060412056496, 0.0]
['beep', 0.0, 1359.902484405337, 0.0, 0.0, 0.0, 0.0, 765.3460818941692, 0.0]
['beep', 0.0, 1354.5827692249738, 0.0, 0.0, 0.0, 0.0, 764.5190673493228, 0.0]
['beep', 0.0, 1349.2407023001556, 0.0, 0.0, 0.0, 0.0, 765.5025441053563, 0.0]
['beep', 0.0, 1349.4418680002534, 0.0, 0.0, 0.0, 0.0, 766.3742621391133, 0.0]
['beep', 0.0, 1355.901522147837, 0.0, 0.0, 0.0, 0.0, 765.5248958498116, 0.0]
['beep', 0.0, 1358.226103571189, 0.0, 0.0, 0.0, 0.0, 765.480192360901, 0.0]
['beep', 0.0, 1355.610949469918, 0.0, 0.0, 0.0, 0.0, 765.1449161940714, 0.0]
['beep', 0.0, 1349.9559581227254, 0.0, 0.0, 0.0, 0.0, 763.1109074486384, 0.0]
['beep', 0.0, 1351.9452633792478, 0.0, 0.0, 0.0, 0.0, 763.5132388488339, 0.0]
['beep', 0.0, 1357.0414611150577, 0.0, 0.0, 0.0, 0.0, 765.9719307389178, 0.0]
['beep', 0.0, 1358.5613797380186, 0.0, 0.0, 0.0, 0.0, 766.6871865614876, 0.0]
['beep', 0.0, 1354.0239756135913, 0.0, 0.0, 0.0, 0.0, 765.7260615499093, 0.0]
['beep', 0.0, 1347.6090249549181, 0.0, 0.0, 0.0, 0.0, 765.6813580609987, 0.0]
['beep', 0.0, 1349.3971645113427, 0.0, 0.0, 0.0, 0.0, 764.5414190937781, 0.0]
['beep', 0.0, 1356.0579843590242, 0.0, 0.0, 0.0, 0.0, 766.5083726058451, 0.0]
['beep', 0.0, 1358.2484553156444, 0.0, 0.0, 0.0, 0.0, 768.6764918180099, 0.0]
['beep', 0.0, 1354.8956936473483, 0.0, 0.0, 0.0, 0.0, 768.2965121622697, 0.0]
['beep', 0.0, 1349.5089232336193, 0.0, 0.0, 0.0, 0.0, 764.7649365383312, 0.0]
['beep', 0.0, 1349.3971645113427, 0.0, 0.0, 0.0, 0.0, 762.3956516260686, 0.0]
['beep', 0.0, 1355.4321355142756, 0.0, 0.0, 0.0, 0.0, 764.7425847938758, 0.0]
['beep', 0.0, 1358.449621015742, 0.0, 0.0, 0.0, 0.0, 765.5025441053563, 0.0]
['beep', 0.0, 1355.2980250475437, 0.0, 0.0, 0.0, 0.0, 764.8319917716971, 0.0]
['beep', 0.0, 1349.285405789066, 0.0, 0.0, 0.0, 0.0, 764.1390876935825, 0.0]
['beep', 0.0, 1348.8830743888707, 0.0, 0.0, 0.0, 0.0, 765.9048755055518, 0.0]
['beep', 0.0, 1353.3310715354767, 0.0, 0.0, 0.0, 0.0, 766.5530760947557, 0.0]
['beep', 0.0, 1356.5050192481303, 0.0, 0.0, 0.0, 0.0, 767.3130354062362, 0.0]
['beep', 0.0, 1352.5711122239964, 0.0, 0.0, 0.0, 0.0, 765.9719307389178, 0.0]
['beep', 0.0, 1348.0113563551135, 0.0, 0.0, 0.0, 0.0, 766.3519103946579, 0.0]
['beep', 0.0, 1349.9112546338147, 0.0, 0.0, 0.0, 0.0, 767.96123599544, 0.0]
['beep', 0.0, 1355.2980250475437, 0.0, 0.0, 0.0, 0.0, 767.3130354062362, 0.0]
['beep', 0.0, 1357.2649785596107, 0.0, 0.0, 0.0, 0.0, 768.9223610070183, 0.0]
['beep', 0.0, 1353.867513402404, 0.0, 0.0, 0.0, 0.0, 768.4306226290015, 0.0]
['beep', 0.0, 1347.452562743731, 0.0, 0.0, 0.0, 0.0, 765.7931167832753, 0.0]
['beep', 0.0, 1347.4749144881862, 0.0, 0.0, 0.0, 0.0, 766.5307243503004, 0.0]
['beep', 0.0, 1354.515713991608, 0.0, 0.0, 0.0, 0.0, 767.4024423840574, 0.0]
['beep', 0.0, 1356.7061849482282, 0.0, 0.0, 0.0, 0.0, 768.7211953069205, 0.0]
['beep', 0.0, 1351.8782081458817, 0.0, 0.0, 0.0, 0.0, 768.1400499510825, 0.0]
['beep', 0.0, 1348.5701499664963, 0.0, 0.0, 0.0, 0.0, 764.7872882827864, 0.0]
['beep', 0.0, 1349.7994959115383, 0.0, 0.0, 0.0, 0.0, 765.2790266608032, 0.0]
['beep', 0.0, 1352.6158157129069, 0.0, 0.0, 0.0, 0.0, 767.4918493618786, 0.0]
['beep', 0.0, 1355.1415628363566, 0.0, 0.0, 0.0, 0.0, 767.96123599544, 0.0]
['beep', 0.0, 1351.9229116347924, 0.0, 0.0, 0.0, 0.0, 768.2965121622697, 0.0]
['beep', 0.0, 1347.318452276999, 0.0, 0.0, 0.0, 0.0, 767.3577388951468, 0.0]
['beep', 0.0, 1349.128943577879, 0.0, 0.0, 0.0, 0.0, 765.5472475942669, 0.0]
['beep', 0.0, 1354.9180453918036, 0.0, 0.0, 0.0, 0.0, 768.2071051844484, 0.0]
['beep', 0.0, 1358.516676249108, 0.0, 0.0, 0.0, 0.0, 769.5482098517668, 0.0]
['beep', 0.0, 1352.414650012809, 0.0, 0.0, 0.0, 0.0, 766.3072069057473, 0.0]
['beep', 0.0, 1346.9384726212588, 0.0, 0.0, 0.0, 0.0, 766.4413173724791, 0.0]
['beep', 0.0, 1348.0113563551135, 0.0, 0.0, 0.0, 0.0, 767.0895179616831, 0.0]
['beep', 0.0, 1355.163914580812, 0.0, 0.0, 0.0, 0.0, 765.5248958498116, 0.0]
['beep', 0.0, 1359.7013187052391, 0.0, 0.0, 0.0, 0.0, 767.4918493618786, 0.0]
['beep', 0.0, 1354.9403971362588, 0.0, 0.0, 0.0, 0.0, 768.3859191400909, 0.0]
['beep', 0.0, 1349.8441994004488, 0.0, 0.0, 0.0, 0.0, 767.8494772731635, 0.0]
['beep', 0.0, 1352.0123186126136, 0.0, 0.0, 0.0, 0.0, 766.6871865614876, 0.0]
['beep', 0.0, 1356.8626471594152, 0.0, 0.0, 0.0, 0.0, 767.0224627283171, 0.0]
['beep', 0.0, 1360.3942227833538, 0.0, 0.0, 0.0, 0.0, 766.4636691169345, 0.0]
['beep', 0.0, 1357.3320337929767, 0.0, 0.0, 0.0, 0.0, 766.5083726058451, 0.0]
['beep', 0.0, 1352.9734436241918, 0.0, 0.0, 0.0, 0.0, 766.0836894611942, 0.0]
['beep', 0.0, 1352.191132568256, 0.0, 0.0, 0.0, 0.0, 764.7872882827864, 0.0]
['beep', 0.0, 1357.7343651931722, 0.0, 0.0, 0.0, 0.0, 767.0224627283171, 0.0]
['beep', 0.0, 1361.93649315077, 0.0, 0.0, 0.0, 0.0, 767.1342214505937, 0.0]
['beep', 0.0, 1357.7343651931722, 0.0, 0.0, 0.0, 0.0, 766.0836894611942, 0.0]
['beep', 0.0, 1352.3028912905327, 0.0, 0.0, 0.0, 0.0, 766.1507446945602, 0.0]
['beep', 0.0, 1353.9569203802253, 0.0, 0.0, 0.0, 0.0, 767.8718290176188, 0.0]
['beep', 0.0, 1359.7907256830604, 0.0, 0.0, 0.0, 0.0, 767.0224627283171, 0.0]
['beep', 0.0, 1362.0706036175018, 0.0, 0.0, 0.0, 0.0, 768.0729947177166, 0.0]
['beep', 0.0, 1358.7178419492056, 0.0, 0.0, 0.0, 0.0, 765.8825237610965, 0.0]
['beep', 0.0, 1352.3028912905327, 0.0, 0.0, 0.0, 0.0, 764.2955499047697, 0.0]
['beep', 0.0, 1351.7888011680604, 0.0, 0.0, 0.0, 0.0, 762.9991487263619, 0.0]
['beep', 0.0, 1358.9860628826693, 0.0, 0.0, 0.0, 0.0, 765.6366545720881, 0.0]
['beep', 0.0, 1362.4058797843313, 0.0, 0.0, 0.0, 0.0, 766.6871865614876, 0.0]
['beep', 0.0, 1359.1425250938566, 0.0, 0.0, 0.0, 0.0, 766.2848551612921, 0.0]
['beep', 0.0, 1353.8898651468594, 0.0, 0.0, 0.0, 0.0, 767.4247941285126, 0.0]
['beep', 0.0, 1355.0745076029907, 0.0, 0.0, 0.0, 0.0, 770.285817418792, 0.0]
['beep', 0.0, 1362.4729350176974, 0.0, 0.0, 0.0, 0.0, 771.4928116193786, 0.0]
['beep', 0.0, 1363.8587431739263, 0.0, 0.0, 0.0, 0.0, 769.1905819404819, 0.0]
['beep', 0.0, 1358.9637111382142, 0.0, 0.0, 0.0, 0.0, 768.2741604178144, 0.0]
['beep', 0.0, 1351.252359301133, 0.0, 0.0, 0.0, 0.0, 768.8106022847418, 0.0]
['beep', 0.0, 1351.4982284901416, 0.0, 0.0, 0.0, 0.0, 767.9835877398954, 0.0]
['beep', 0.0, 1355.834466914471, 0.0, 0.0, 0.0, 0.0, 767.3130354062362, 0.0]
['beep', 0.0, 1357.9578826377253, 0.0, 0.0, 0.0, 0.0, 766.2848551612921, 0.0]
['beep', 0.0, 1354.9403971362588, 0.0, 0.0, 0.0, 0.0, 766.5307243503004, 0.0]
['beep', 0.0, 1348.7936674110495, 0.0, 0.0, 0.0, 0.0, 765.7931167832753, 0.0]
['beep', 0.0, 1348.3913360108538, 0.0, 0.0, 0.0, 0.0, 766.0166342278284, 0.0]
['beep', 0.0, 1355.834466914471, 0.0, 0.0, 0.0, 0.0, 768.2071051844484, 0.0]
['beep', 0.0, 1358.7178419492056, 0.0, 0.0, 0.0, 0.0, 766.5307243503004, 0.0]
['beep', 0.0, 1355.4321355142756, 0.0, 0.0, 0.0, 0.0, 766.6871865614876, 0.0]
['beep', 0.0, 1348.3689842663985, 0.0, 0.0, 0.0, 0.0, 765.5025441053563, 0.0]
['beep', 0.0, 1348.2795772885772, 0.0, 0.0, 0.0, 0.0, 765.9048755055518, 0.0]
['beep', 0.0, 1354.9851006251695, 0.0, 0.0, 0.0, 0.0, 766.9107040060406, 0.0]
['beep', 0.0, 1358.4719727601973, 0.0, 0.0, 0.0, 0.0, 765.9272272500071, 0.0]
['beep', 0.0, 1356.2815018035772, 0.0, 0.0, 0.0, 0.0, 765.77076503882, 0.0]
['beep', 0.0, 1351.1406005788567, 0.0, 0.0, 0.0, 0.0, 763.8708667601188, 0.0]
['beep', 0.0, 1352.5040569906303, 0.0, 0.0, 0.0, 0.0, 764.1167359491272, 0.0]
['beep', 0.0, 1358.5613797380186, 0.0, 0.0, 0.0, 0.0, 765.7260615499093, 0.0]
['beep', 0.0, 1362.003548384136, 0.0, 0.0, 0.0, 0.0, 766.7765935393088, 0.0]
['beep', 0.0, 1358.516676249108, 0.0, 0.0, 0.0, 0.0, 766.0836894611942, 0.0]
['beep', 0.0, 1352.8616849019152, 0.0, 0.0, 0.0, 0.0, 766.4413173724791, 0.0]
['beep', 0.0, 1352.8169814130047, 0.0, 0.0, 0.0, 0.0, 768.1176982066272, 0.0]
['beep', 0.0, 1357.93553089327, 0.0, 0.0, 0.0, 0.0, 768.8106022847418, 0.0]
['beep', 0.0, 1362.1153071064125, 0.0, 0.0, 0.0, 0.0, 768.028291228806, 0.0]
['beep', 0.0, 1359.254283816133, 0.0, 0.0, 0.0, 0.0, 767.4247941285126, 0.0]
['beep', 0.0, 1353.6663477023064, 0.0, 0.0, 0.0, 0.0, 765.1225644496161, 0.0]
['beep', 0.0, 1353.1746093242896, 0.0, 0.0, 0.0, 0.0, 766.5083726058451, 0.0]
['beep', 0.0, 1360.1707053388006, 0.0, 0.0, 0.0, 0.0, 766.8436487726747, 0.0]
['beep', 0.0, 1363.5234670070968, 0.0, 0.0, 0.0, 0.0, 768.0729947177166, 0.0]
['beep', 0.0, 1359.9471878942477, 0.0, 0.0, 0.0, 0.0, 769.0788232182055, 0.0]
['beep', 0.0, 1354.3369000359655, 0.0, 0.0, 0.0, 0.0, 768.6764918180099, 0.0]
['beep', 0.0, 1354.1357343358677, 0.0, 0.0, 0.0, 0.0, 767.2012766839596, 0.0]
['beep', 0.0, 1359.5672082385074, 0.0, 0.0, 0.0, 0.0, 767.7600702953423, 0.0]
['beep', 0.0, 1363.2999495625436, 0.0, 0.0, 0.0, 0.0, 768.318863906725, 0.0]
['beep', 0.0, 1359.0754698604906, 0.0, 0.0, 0.0, 0.0, 767.5142011063339, 0.0]
['beep', 0.0, 1354.2698448025997, 0.0, 0.0, 0.0, 0.0, 767.4024423840574, 0.0]
['beep', 0.0, 1354.9851006251695, 0.0, 0.0, 0.0, 0.0, 768.5870848401887, 0.0]
['beep', 0.0, 1360.8189059280046, 0.0, 0.0, 0.0, 0.0, 769.7717272963199, 0.0]
['beep', 0.0, 1364.6634059743174, 0.0, 0.0, 0.0, 0.0, 769.3246924072138, 0.0]
['beep', 0.0, 1360.6847954612726, 0.0, 0.0, 0.0, 0.0, 768.5200296068227, 0.0]
['beep', 0.0, 1355.3427285364544, 0.0, 0.0, 0.0, 0.0, 766.0166342278284, 0.0]
['beep', 0.0, 1355.1192110919012, 0.0, 0.0, 0.0, 0.0, 765.8378202721859, 0.0]
['beep', 0.0, 1360.5283332500856, 0.0, 0.0, 0.0, 0.0, 768.6541400735546, 0.0]
['beep', 0.0, 1365.8927519193594, 0.0, 0.0, 0.0, 0.0, 769.6599685740434, 0.0]
['beep', 0.0, 1362.3835280398762, 0.0, 0.0, 0.0, 0.0, 768.7435470513758, 0.0]
['beep', 0.0, 1358.1590483378232, 0.0, 0.0, 0.0, 0.0, 766.5083726058451, 0.0]
['beep', 0.0, 1356.8849989038706, 0.0, 0.0, 0.0, 0.0, 765.5695993387222, 0.0]
['beep', 0.0, 1360.6400919723621, 0.0, 0.0, 0.0, 0.0, 766.798945283764, 0.0]
['beep', 0.0, 1363.6799292182839, 0.0, 0.0, 0.0, 0.0, 767.3130354062362, 0.0]
['beep', 0.0, 1359.5001530051416, 0.0, 0.0, 0.0, 0.0, 764.67552956051, 0.0]
['beep', 0.0, 1355.0521558585353, 0.0, 0.0, 0.0, 0.0, 765.0555092162501, 0.0]
['beep', 0.0, 1357.577902981985, 0.0, 0.0, 0.0, 0.0, 766.5530760947557, 0.0]
['beep', 0.0, 1362.808211184527, 0.0, 0.0, 0.0, 0.0, 767.8047737842529, 0.0]
['beep', 0.0, 1366.4738972751973, 0.0, 0.0, 0.0, 0.0, 766.8436487726747, 0.0]
['beep', 0.0, 1361.645920472851, 0.0, 0.0, 0.0, 0.0, 766.5977795836664, 0.0]
['beep', 0.0, 1355.678004703284, 0.0, 0.0, 0.0, 0.0, 766.3295586502027, 0.0]
['beep', 0.0, 1355.1862663252673, 0.0, 0.0, 0.0, 0.0, 767.4694976174233, 0.0]
['beep', 0.0, 1361.0871268614683, 0.0, 0.0, 0.0, 0.0, 766.798945283764, 0.0]
['beep', 0.0, 1364.775164696594, 0.0, 0.0, 0.0, 0.0, 768.0729947177166, 0.0]
['beep', 0.0, 1361.2212373282, 0.0, 0.0, 0.0, 0.0, 767.5142011063339, 0.0]
['beep', 0.0, 1355.7003564477393, 0.0, 0.0, 0.0, 0.0, 767.0224627283171, 0.0]
['beep', 0.0, 1355.7450599366498, 0.0, 0.0, 0.0, 0.0, 765.8378202721859, 0.0]
['beep', 0.0, 1361.0424233725576, 0.0, 0.0, 0.0, 0.0, 765.7931167832753, 0.0]
['beep', 0.0, 1365.1104408634235, 0.0, 0.0, 0.0, 0.0, 766.798945283764, 0.0]
['beep', 0.0, 1360.5953884834514, 0.0, 0.0, 0.0, 0.0, 766.0836894611942, 0.0]
['beep', 0.0, 1355.4768390031861, 0.0, 0.0, 0.0, 0.0, 765.0555092162501, 0.0]
['beep', 0.0, 1354.001623869136, 0.0, 0.0, 0.0, 0.0, 763.9826254823954, 0.0]
['beep', 0.0, 1360.1036501054348, 0.0, 0.0, 0.0, 0.0, 765.5919510831775, 0.0]
['beep', 0.0, 1364.4398885297644, 0.0, 0.0, 0.0, 0.0, 767.9165325065294, 0.0]
['beep', 0.0, 1359.7907256830604, 0.0, 0.0, 0.0, 0.0, 768.1400499510825, 0.0]
['beep', 0.0, 1355.2086180697224, 0.0, 0.0, 0.0, 0.0, 766.642483072577, 0.0]
['beep', 0.0, 1354.806286669527, 0.0, 0.0, 0.0, 0.0, 768.318863906725, 0.0]
['beep', 0.0, 1359.2095803272225, 0.0, 0.0, 0.0, 0.0, 768.1400499510825, 0.0]
['beep', 0.0, 1362.2047140842337, 0.0, 0.0, 0.0, 0.0, 766.6201313281216, 0.0]
['beep', 0.0, 1359.8801326608816, 0.0, 0.0, 0.0, 0.0, 766.1954481834708, 0.0]
['beep', 0.0, 1354.359251780421, 0.0, 0.0, 0.0, 0.0, 764.5190673493228, 0.0]
['beep', 0.0, 1354.806286669527, 0.0, 0.0, 0.0, 0.0, 766.1283929501049, 0.0]
['beep', 0.0, 1360.7965541835492, 0.0, 0.0, 0.0, 0.0, 766.642483072577, 0.0]
['beep', 0.0, 1363.7022809627392, 0.0, 0.0, 0.0, 0.0, 767.0001109838619, 0.0]
['beep', 0.0, 1361.1988855837449, 0.0, 0.0, 0.0, 0.0, 765.5695993387222, 0.0]
['beep', 0.0, 1355.5438942365522, 0.0, 0.0, 0.0, 0.0, 765.3013784052586, 0.0]
['beep', 0.0, 1354.7168796917058, 0.0, 0.0, 0.0, 0.0, 765.0555092162501, 0.0]
['beep', 0.0, 1361.064775117013, 0.0, 0.0, 0.0, 0.0, 765.5248958498116, 0.0]
['beep', 0.0, 1363.9928536406583, 0.0, 0.0, 0.0, 0.0, 767.2012766839596, 0.0]
['beep', 0.0, 1360.707147205728, 0.0, 0.0, 0.0, 0.0, 765.7037098054541, 0.0]
['beep', 0.0, 1353.6216442133957, 0.0, 0.0, 0.0, 0.0, 766.0389859722836, 0.0]
['beep', 0.0, 1353.1522575798342, 0.0, 0.0, 0.0, 0.0, 766.0166342278284, 0.0]
['beep', 0.0, 1359.4107460273203, 0.0, 0.0, 0.0, 0.0, 764.4520121159569, 0.0]
['beep', 0.0, 1363.7246327071946, 0.0, 0.0, 0.0, 0.0, 766.9554074949513, 0.0]
['beep', 0.0, 1361.8470861729488, 0.0, 0.0, 0.0, 0.0, 767.7153668064317, 0.0]
['beep', 0.0, 1354.4933622471526, 0.0, 0.0, 0.0, 0.0, 765.7931167832753, 0.0]
['beep', 0.0, 1352.705222690728, 0.0, 0.0, 0.0, 0.0, 765.5695993387222, 0.0]
['beep', 0.0, 1359.321339049499, 0.0, 0.0, 0.0, 0.0, 767.0671662172277, 0.0]
['beep', 0.0, 1364.0152053851134, 0.0, 0.0, 0.0, 0.0, 769.481154618401, 0.0]
['beep', 0.0, 1359.8801326608816, 0.0, 0.0, 0.0, 0.0, 767.5812563396998, 0.0]
['beep', 0.0, 1355.834466914471, 0.0, 0.0, 0.0, 0.0, 767.1342214505937, 0.0]
['beep', 0.0, 1355.1415628363566, 0.0, 0.0, 0.0, 0.0, 768.4753261179121, 0.0]
['beep', 0.0, 1360.4612780167197, 0.0, 0.0, 0.0, 0.0, 768.832954029197, 0.0]
['beep', 0.0, 1365.0880891189681, 0.0, 0.0, 0.0, 0.0, 768.6317883290993, 0.0]
['beep', 0.0, 1360.9530163947363, 0.0, 0.0, 0.0, 0.0, 769.3917476405798, 0.0]
['beep', 0.0, 1353.0181471131025, 0.0, 0.0, 0.0, 0.0, 769.6152650851328, 0.0]
['beep', 0.0, 1353.5992924689403, 0.0, 0.0, 0.0, 0.0, 770.1517069520602, 0.0]
['beep', 0.0, 1358.9637111382142, 0.0, 0.0, 0.0, 0.0, 771.1128319636383, 0.0]
['beep', 0.0, 1362.7858594400716, 0.0, 0.0, 0.0, 0.0, 769.3917476405798, 0.0]
['beep', 0.0, 1359.0754698604906, 0.0, 0.0, 0.0, 0.0, 768.5200296068227, 0.0]
['beep', 0.0, 1352.705222690728, 0.0, 0.0, 0.0, 0.0, 768.5870848401887, 0.0]
['beep', 0.0, 1353.3087197910213, 0.0, 0.0, 0.0, 0.0, 768.7658987958312, 0.0]
['beep', 0.0, 1358.740193693661, 0.0, 0.0, 0.0, 0.0, 769.8164307852305, 0.0]
['beep', 0.0, 1363.6575774738285, 0.0, 0.0, 0.0, 0.0, 770.1293552076048, 0.0]
['beep', 0.0, 1360.9306646502812, 0.0, 0.0, 0.0, 0.0, 769.4588028739456, 0.0]
['beep', 0.0, 1355.1415628363566, 0.0, 0.0, 0.0, 0.0, 769.2352854293925, 0.0]
['beep', 0.0, 1354.4933622471526, 0.0, 0.0, 0.0, 0.0, 768.251808673359, 0.0]
['beep', 0.0, 1359.2766355605884, 0.0, 0.0, 0.0, 0.0, 769.481154618401, 0.0]
['beep', 0.0, 1364.0152053851134, 0.0, 0.0, 0.0, 0.0, 772.319826164225, 0.0]
['beep', 0.0, 1360.2824640610772, 0.0, 0.0, 0.0, 0.0, 769.2352854293925, 0.0]
['beep', 0.0, 1353.6886994467616, 0.0, 0.0, 0.0, 0.0, 768.7882505402864, 0.0]
['beep', 0.0, 1353.3981267688428, 0.0, 0.0, 0.0, 0.0, 770.576390096711, 0.0]
['beep', 0.0, 1358.226103571189, 0.0, 0.0, 0.0, 0.0, 771.448108130468, 0.0]
['beep', 0.0, 1362.517638506608, 0.0, 0.0, 0.0, 0.0, 773.0127302423394, 0.0]
['beep', 0.0, 1360.1483535943453, 0.0, 0.0, 0.0, 0.0, 771.7163290639317, 0.0]
['beep', 0.0, 1353.3757750243874, 0.0, 0.0, 0.0, 0.0, 769.0341197292948, 0.0]
['beep', 0.0, 1352.705222690728, 0.0, 0.0, 0.0, 0.0, 769.2799889183032, 0.0]
['beep', 0.0, 1358.4272692712868, 0.0, 0.0, 0.0, 0.0, 768.9223610070183, 0.0]
['beep', 0.0, 1362.9870251401694, 0.0, 0.0, 0.0, 0.0, 769.2129336849373, 0.0]
['beep', 0.0, 1359.8801326608816, 0.0, 0.0, 0.0, 0.0, 771.6939773194763, 0.0]
['beep', 0.0, 1353.5992924689403, 0.0, 0.0, 0.0, 0.0, 769.7717272963199, 0.0]
['beep', 0.0, 1351.8558564014265, 0.0, 0.0, 0.0, 0.0, 768.9447127514736, 0.0]
['beep', 0.0, 1357.9131791488146, 0.0, 0.0, 0.0, 0.0, 770.6657970745322, 0.0]
['beep', 0.0, 1362.7188042067057, 0.0, 0.0, 0.0, 0.0, 771.5375151082892, 0.0]
['beep', 0.0, 1360.9753681391917, 0.0, 0.0, 0.0, 0.0, 770.8222592857194, 0.0]
['beep', 0.0, 1354.2698448025997, 0.0, 0.0, 0.0, 0.0, 769.6599685740434, 0.0]
['beep', 0.0, 1354.292196547055, 0.0, 0.0, 0.0, 0.0, 770.285817418792, 0.0]
['beep', 0.0, 1360.9306646502812, 0.0, 0.0, 0.0, 0.0, 769.7493755518647, 0.0]
['beep', 0.0, 1364.3728332963983, 0.0, 0.0, 0.0, 0.0, 769.5035063628562, 0.0]
['beep', 0.0, 1361.4671065172085, 0.0, 0.0, 0.0, 0.0, 769.3693958961244, 0.0]
['beep', 0.0, 1355.4768390031861, 0.0, 0.0, 0.0, 0.0, 771.381052897102, 0.0]
['beep', 0.0, 1354.64982445834, 0.0, 0.0, 0.0, 0.0, 770.3752243966132, 0.0]
['beep', 0.0, 1360.7965541835492, 0.0, 0.0, 0.0, 0.0, 771.0234249858171, 0.0]
['beep', 0.0, 1365.423365285798, 0.0, 0.0, 0.0, 0.0, 773.4597651314456, 0.0]
['beep', 0.0, 1362.2494175731442, 0.0, 0.0, 0.0, 0.0, 773.1691924535266, 0.0]
['beep', 0.0, 1354.8286384139824, 0.0, 0.0, 0.0, 0.0, 772.2304191864038, 0.0]
['beep', 0.0, 1352.5711122239964, 0.0, 0.0, 0.0, 0.0, 771.6492738305657, 0.0]
['beep', 0.0, 1359.2095803272225, 0.0, 0.0, 0.0, 0.0, 771.9398465084847, 0.0]
['beep', 0.0, 1364.3951850408537, 0.0, 0.0, 0.0, 0.0, 773.3927098980797, 0.0]
['beep', 0.0, 1361.9588448952252, 0.0, 0.0, 0.0, 0.0, 772.8562680311524, 0.0]
['beep', 0.0, 1356.0579843590242, 0.0, 0.0, 0.0, 0.0, 771.6492738305657, 0.0]
['beep', 0.0, 1354.4263070137868, 0.0, 0.0, 0.0, 0.0, 770.4869831188897, 0.0]
['beep', 0.0, 1360.6400919723621, 0.0, 0.0, 0.0, 0.0, 771.3363494081914, 0.0]
['beep', 0.0, 1364.708109463228, 0.0, 0.0, 0.0, 0.0, 771.9845499973953, 0.0]
['beep', 0.0, 1361.4224030282978, 0.0, 0.0, 0.0, 0.0, 769.8611342741411, 0.0]
['beep', 0.0, 1356.2815018035772, 0.0, 0.0, 0.0, 0.0, 769.4588028739456, 0.0]
['beep', 0.0, 1355.02980411408, 0.0, 0.0, 0.0, 0.0, 770.0399482297836, 0.0]
['beep', 0.0, 1361.5341617505744, 0.0, 0.0, 0.0, 0.0, 770.6657970745322, 0.0]
['beep', 0.0, 1366.1162693639124, 0.0, 0.0, 0.0, 0.0, 770.8222592857194, 0.0]
['beep', 0.0, 1362.8529146734375, 0.0, 0.0, 0.0, 0.0, 769.9505412519624, 0.0]
['beep', 0.0, 1359.097821604946, 0.0, 0.0, 0.0, 0.0, 768.6764918180099, 0.0]
['beep', 0.0, 1357.5555512375297, 0.0, 0.0, 0.0, 0.0, 769.7717272963199, 0.0]
['beep', 0.0, 1361.9588448952252, 0.0, 0.0, 0.0, 0.0, 769.1905819404819, 0.0]
['beep', 0.0, 1367.4350222867754, 0.0, 0.0, 0.0, 0.0, 770.86696277463, 0.0]
['beep', 0.0, 1364.5292955075856, 0.0, 0.0, 0.0, 0.0, 772.2304191864038, 0.0]
['beep', 0.0, 1359.3660425384096, 0.0, 0.0, 0.0, 0.0, 770.2634656743367, 0.0]
['beep', 0.0, 1357.8237721709934, 0.0, 0.0, 0.0, 0.0, 769.6376168295881, 0.0]
['beep', 0.0, 1363.1434873513565, 0.0, 0.0, 0.0, 0.0, 772.3421779086802, 0.0]
['beep', 0.0, 1368.2396850871664, 0.0, 0.0, 0.0, 0.0, 773.415061642535, 0.0]
['beep', 0.0, 1365.8256966859933, 0.0, 0.0, 0.0, 0.0, 772.2751226753144, 0.0]
['beep', 0.0, 1359.4554495162308, 0.0, 0.0, 0.0, 0.0, 771.8727912751187, 0.0]
['beep', 0.0, 1355.4768390031861, 0.0, 0.0, 0.0, 0.0, 773.4597651314456, 0.0]
['beep', 0.0, 1360.416574527809, 0.0, 0.0, 0.0, 0.0, 773.7950412982752, 0.0]
['beep', 0.0, 1364.3281298074878, 0.0, 0.0, 0.0, 0.0, 773.8844482760965, 0.0]
['beep', 0.0, 1361.4224030282978, 0.0, 0.0, 0.0, 0.0, 773.5044686203562, 0.0]
['beep', 0.0, 1354.8509901584375, 0.0, 0.0, 0.0, 0.0, 773.6609308315434, 0.0]
['beep', 0.0, 1353.5769407244852, 0.0, 0.0, 0.0, 0.0, 771.5375151082892, 0.0]
['beep', 0.0, 1360.193057083256, 0.0, 0.0, 0.0, 0.0, 773.3480064091691, 0.0]
['beep', 0.0, 1365.870400174904, 0.0, 0.0, 0.0, 0.0, 773.9515035094623, 0.0]
['beep', 0.0, 1362.6517489733399, 0.0, 0.0, 0.0, 0.0, 772.8115645422417, 0.0]
['beep', 0.0, 1354.7168796917058, 0.0, 0.0, 0.0, 0.0, 770.5540383522557, 0.0]
['beep', 0.0, 1353.643995957851, 0.0, 0.0, 0.0, 0.0, 772.0963087196718, 0.0]
['beep', 0.0, 1360.3942227833538, 0.0, 0.0, 0.0, 0.0, 773.3480064091691, 0.0]
['beep', 0.0, 1365.1774960967894, 0.0, 0.0, 0.0, 0.0, 773.0350819867948, 0.0]
['beep', 0.0, 1362.4282315287867, 0.0, 0.0, 0.0, 0.0, 773.0350819867948, 0.0]
['beep', 0.0, 1357.2649785596107, 0.0, 0.0, 0.0, 0.0, 772.4539366309568, 0.0]
['beep', 0.0, 1356.5497227370408, 0.0, 0.0, 0.0, 0.0, 771.4257563860126, 0.0]
['beep', 0.0, 1361.1988855837449, 0.0, 0.0, 0.0, 0.0, 772.4986401198674, 0.0]
['beep', 0.0, 1367.256208331133, 0.0, 0.0, 0.0, 0.0, 771.2469424303702, 0.0]
['beep', 0.0, 1364.6634059743174, 0.0, 0.0, 0.0, 0.0, 771.5151633638338, 0.0]
['beep', 0.0, 1360.2377605721665, 0.0, 0.0, 0.0, 0.0, 772.0516052307612, 0.0]
['beep', 0.0, 1355.2756733030885, 0.0, 0.0, 0.0, 0.0, 770.4646313744345, 0.0]
['beep', 0.0, 1354.9627488807141, 0.0, 0.0, 0.0, 0.0, 773.2809511758031, 0.0]
['beep', 0.0, 1356.929702392781, 0.0, 0.0, 0.0, 0.0, 775.1584977100489, 0.0]
['beep', 0.0, 1354.4933622471526, 0.0, 0.0, 0.0, 0.0, 775.1361459655936, 0.0]
['beep', 0.0, 1349.7324406781722, 0.0, 0.0, 0.0, 0.0, 772.7445093088758, 0.0]
['beep', 0.0, 1349.5983302114405, 0.0, 0.0, 0.0, 0.0, 774.1526692095601, 0.0]
['beep', 0.0, 1356.415612270309, 0.0, 0.0, 0.0, 0.0, 773.9068000205517, 0.0]
['beep', 0.0, 1362.6293972288845, 0.0, 0.0, 0.0, 0.0, 774.5326488653003, 0.0]
['beep', 0.0, 1359.1872285827671, 0.0, 0.0, 0.0, 0.0, 774.4432418874791, 0.0]
['beep', 0.0, 1352.2805395460773, 0.0, 0.0, 0.0, 0.0, 772.9680267534288, 0.0]
['beep', 0.0, 1349.9559581227254, 0.0, 0.0, 0.0, 0.0, 772.8115645422417, 0.0]
['beep', 0.0, 1356.2815018035772, 0.0, 0.0, 0.0, 0.0, 775.2255529434149, 0.0]
['beep', 0.0, 1363.098783862446, 0.0, 0.0, 0.0, 0.0, 775.8514017881635, 0.0]
['beep', 0.0, 1360.5059815056302, 0.0, 0.0, 0.0, 0.0, 774.7338145653981, 0.0]
['beep', 0.0, 1353.5098854911191, 0.0, 0.0, 0.0, 0.0, 773.6162273426328, 0.0]
['beep', 0.0, 1351.4758767456863, 0.0, 0.0, 0.0, 0.0, 772.2304191864038, 0.0]
['beep', 0.0, 1358.069641360002, 0.0, 0.0, 0.0, 0.0, 773.4821168759009, 0.0]
['beep', 0.0, 1364.261074574122, 0.0, 0.0, 0.0, 0.0, 774.286779676292, 0.0]
['beep', 0.0, 1360.3942227833538, 0.0, 0.0, 0.0, 0.0, 773.2138959424373, 0.0]
['beep', 0.0, 1353.2863680465662, 0.0, 0.0, 0.0, 0.0, 770.799907541264, 0.0]
['beep', 0.0, 1351.4982284901416, 0.0, 0.0, 0.0, 0.0, 771.8280877862081, 0.0]
['beep', 0.0, 1356.2144465702113, 0.0, 0.0, 0.0, 0.0, 773.9515035094623, 0.0]
['beep', 0.0, 1361.9141414063147, 0.0, 0.0, 0.0, 0.0, 775.3596634101467, 0.0]
['beep', 0.0, 1358.8296006714822, 0.0, 0.0, 0.0, 0.0, 774.286779676292, 0.0]
['beep', 0.0, 1352.4593535017198, 0.0, 0.0, 0.0, 0.0, 771.8727912751187, 0.0]
['beep', 0.0, 1352.0123186126136, 0.0, 0.0, 0.0, 0.0, 773.3033029202585, 0.0]
['beep', 0.0, 1356.616777970407, 0.0, 0.0, 0.0, 0.0, 773.4374133869903, 0.0]
['beep', 0.0, 1360.7294989501834, 0.0, 0.0, 0.0, 0.0, 774.1079657206495, 0.0]
['beep', 0.0, 1357.9578826377253, 0.0, 0.0, 0.0, 0.0, 774.3091314207472, 0.0]
['beep', 0.0, 1351.1853040677672, 0.0, 0.0, 0.0, 0.0, 772.9456750089736, 0.0]
['beep', 0.0, 1349.9112546338147, 0.0, 0.0, 0.0, 0.0, 772.0069017418506, 0.0]
['beep', 0.0, 1356.5497227370408, 0.0, 0.0, 0.0, 0.0, 772.7221575644205, 0.0]
['beep', 0.0, 1362.964673395714, 0.0, 0.0, 0.0, 0.0, 773.5938755981774, 0.0]
['beep', 0.0, 1358.2037518267337, 0.0, 0.0, 0.0, 0.0, 772.2751226753144, 0.0]
['beep', 0.0, 1351.4982284901416, 0.0, 0.0, 0.0, 0.0, 771.671625575021, 0.0]
['beep', 0.0, 1351.6323389568734, 0.0, 0.0, 0.0, 0.0, 771.7163290639317, 0.0]
['beep', 0.0, 1355.096859347446, 0.0, 0.0, 0.0, 0.0, 773.2362476868925, 0.0]
['beep', 0.0, 1360.193057083256, 0.0, 0.0, 0.0, 0.0, 773.1468407090713, 0.0]
['beep', 0.0, 1357.5331994930746, 0.0, 0.0, 0.0, 0.0, 772.6103988421439, 0.0]
['beep', 0.0, 1351.5205802345968, 0.0, 0.0, 0.0, 0.0, 774.5550006097557, 0.0]
['beep', 0.0, 1350.1347720783679, 0.0, 0.0, 0.0, 0.0, 774.219724442926, 0.0]
['beep', 0.0, 1355.6556529588286, 0.0, 0.0, 0.0, 0.0, 772.4762883754121, 0.0]
['beep', 0.0, 1360.5059815056302, 0.0, 0.0, 0.0, 0.0, 773.705634320454, 0.0]
['beep', 0.0, 1357.5108477486192, 0.0, 0.0, 0.0, 0.0, 774.8232215432193, 0.0]
['beep', 0.0, 1350.872379645393, 0.0, 0.0, 0.0, 0.0, 773.0797854757054, 0.0]
['beep', 0.0, 1348.614853455407, 0.0, 0.0, 0.0, 0.0, 773.415061642535, 0.0]
['beep', 0.0, 1354.2027895692338, 0.0, 0.0, 0.0, 0.0, 775.2479046878701, 0.0]
['beep', 0.0, 1359.1425250938566, 0.0, 0.0, 0.0, 0.0, 776.5219541218227, 0.0]
['beep', 0.0, 1356.3262052924879, 0.0, 0.0, 0.0, 0.0, 773.9962069983729, 0.0]
['beep', 0.0, 1349.4642197447085, 0.0, 0.0, 0.0, 0.0, 771.381052897102, 0.0]
['beep', 0.0, 1349.6877371892617, 0.0, 0.0, 0.0, 0.0, 771.2469424303702, 0.0]
['beep', 0.0, 1356.1697430813008, 0.0, 0.0, 0.0, 0.0, 770.86696277463, 0.0]
['beep', 0.0, 1360.5953884834514, 0.0, 0.0, 0.0, 0.0, 772.6774540755099, 0.0]
['beep', 0.0, 1359.1648768383118, 0.0, 0.0, 0.0, 0.0, 773.2138959424373, 0.0]
['beep', 0.0, 1355.3427285364544, 0.0, 0.0, 0.0, 0.0, 772.2304191864038, 0.0]
['beep', 0.0, 1354.7168796917058, 0.0, 0.0, 0.0, 0.0, 773.3927098980797, 0.0]
['beep', 0.0, 1362.2494175731442, 0.0, 0.0, 0.0, 0.0, 775.0690907322277, 0.0]
['beep', 0.0, 1365.7586414526274, 0.0, 0.0, 0.0, 0.0, 777.2372099443925, 0.0]
['beep', 0.0, 1362.0482518730464, 0.0, 0.0, 0.0, 0.0, 777.0807477332054, 0.0]
['beep', 0.0, 1353.9122168913148, 0.0, 0.0, 0.0, 0.0, 773.7279860649093, 0.0]
['beep', 0.0, 1350.738269178661, 0.0, 0.0, 0.0, 0.0, 772.6103988421439, 0.0]
['beep', 0.0, 1355.9909291256583, 0.0, 0.0, 0.0, 0.0, 773.7503378093646, 0.0]
['beep', 0.0, 1361.8247344284935, 0.0, 0.0, 0.0, 0.0, 774.8902767765852, 0.0]
['beep', 0.0, 1357.868475659904, 0.0, 0.0, 0.0, 0.0, 775.9631605104399, 0.0]
['beep', 0.0, 1350.6712139452952, 0.0, 0.0, 0.0, 0.0, 774.510297120845, 0.0]
['beep', 0.0, 1349.93360637827, 0.0, 0.0, 0.0, 0.0, 774.1303174651048, 0.0]
['beep', 0.0, 1355.163914580812, 0.0, 0.0, 0.0, 0.0, 774.2420761873814, 0.0]
['beep', 0.0, 1359.2095803272225, 0.0, 0.0, 0.0, 0.0, 772.4986401198674, 0.0]
['beep', 0.0, 1355.1415628363566, 0.0, 0.0, 0.0, 0.0, 772.9680267534288, 0.0]
['beep', 0.0, 1349.5089232336193, 0.0, 0.0, 0.0, 0.0, 772.9903784978842, 0.0]
['beep', 0.0, 1350.9841383676694, 0.0, 0.0, 0.0, 0.0, 772.9903784978842, 0.0]
['beep', 0.0, 1355.4768390031861, 0.0, 0.0, 0.0, 0.0, 773.1468407090713, 0.0]
['beep', 0.0, 1359.254283816133, 0.0, 0.0, 0.0, 0.0, 774.3314831652026, 0.0]
['beep', 0.0, 1358.0472896155466, 0.0, 0.0, 0.0, 0.0, 773.5044686203562, 0.0]
['beep', 0.0, 1351.9229116347924, 0.0, 0.0, 0.0, 0.0, 770.9340180079959, 0.0]
['beep', 0.0, 1347.4078592548203, 0.0, 0.0, 0.0, 0.0, 769.8164307852305, 0.0]
['beep', 0.0, 1350.6935656897506, 0.0, 0.0, 0.0, 0.0, 771.3363494081914, 0.0]
['beep', 0.0, 1360.6624437168175, 0.0, 0.0, 0.0, 0.0, 773.7726895538199, 0.0]
['beep', 0.0, 1363.5458187515521, 0.0, 0.0, 0.0, 0.0, 774.7785180543087, 0.0]
['beep', 0.0, 1358.8296006714822, 0.0, 0.0, 0.0, 0.0, 774.0632622317389, 0.0]
['beep', 0.0, 1356.5720744814962, 0.0, 0.0, 0.0, 0.0, 773.9291517650071, 0.0]
['beep', 0.0, 1359.7683739386052, 0.0, 0.0, 0.0, 0.0, 773.3256546647137, 0.0]
['beep', 0.0, 1364.417536785309, 0.0, 0.0, 0.0, 0.0, 773.5491721092668, 0.0]
['beep', 0.0, 1361.1765338392895, 0.0, 0.0, 0.0, 0.0, 772.2751226753144, 0.0]
['beep', 0.0, 1354.4933622471526, 0.0, 0.0, 0.0, 0.0, 771.8727912751187, 0.0]
['beep', 0.0, 1351.3417662789543, 0.0, 0.0, 0.0, 0.0, 772.6327505865993, 0.0]
['beep', 0.0, 1357.0414611150577, 0.0, 0.0, 0.0, 0.0, 774.800869798764, 0.0]
['beep', 0.0, 1362.294121062055, 0.0, 0.0, 0.0, 0.0, 777.930114022507, 0.0]
['beep', 0.0, 1359.9471878942477, 0.0, 0.0, 0.0, 0.0, 776.9242855220182, 0.0]
['beep', 0.0, 1352.548760479541, 0.0, 0.0, 0.0, 0.0, 775.2702564323255, 0.0]
['beep', 0.0, 1351.5205802345968, 0.0, 0.0, 0.0, 0.0, 773.1021372201607, 0.0]
['beep', 0.0, 1356.773240181594, 0.0, 0.0, 0.0, 0.0, 775.4043668990573, 0.0]
['beep', 0.0, 1362.5399902510633, 0.0, 0.0, 0.0, 0.0, 776.1419744660824, 0.0]
['beep', 0.0, 1360.863609416915, 0.0, 0.0, 0.0, 0.0, 775.2479046878701, 0.0]
['beep', 0.0, 1353.9122168913148, 0.0, 0.0, 0.0, 0.0, 775.382015154602, 0.0]
['beep', 0.0, 1351.453525001231, 0.0, 0.0, 0.0, 0.0, 774.5550006097557, 0.0]
['beep', 0.0, 1355.5885977254627, 0.0, 0.0, 0.0, 0.0, 775.8737535326187, 0.0]
['beep', 0.0, 1362.9870251401694, 0.0, 0.0, 0.0, 0.0, 775.7843465547975, 0.0]
['beep', 0.0, 1361.6682722173064, 0.0, 0.0, 0.0, 0.0, 774.7785180543087, 0.0]
['beep', 0.0, 1353.9792721246806, 0.0, 0.0, 0.0, 0.0, 773.3256546647137, 0.0]
['beep', 0.0, 1354.0463273580465, 0.0, 0.0, 0.0, 0.0, 775.2926081767807, 0.0]
['beep', 0.0, 1359.254283816133, 0.0, 0.0, 0.0, 0.0, 775.3373116656913, 0.0]
['beep', 0.0, 1364.8198681855044, 0.0, 0.0, 0.0, 0.0, 777.2372099443925, 0.0]
['beep', 0.0, 1362.8305629289823, 0.0, 0.0, 0.0, 0.0, 776.544305866278, 0.0]
['beep', 0.0, 1356.3709087813984, 0.0, 0.0, 0.0, 0.0, 774.7785180543087, 0.0]
['beep', 0.0, 1355.387432025365, 0.0, 0.0, 0.0, 0.0, 773.8173930427305, 0.0]
['beep', 0.0, 1359.678966960784, 0.0, 0.0, 0.0, 0.0, 774.0632622317389, 0.0]
['beep', 0.0, 1364.283426318577, 0.0, 0.0, 0.0, 0.0, 774.3538349096578, 0.0]
['beep', 0.0, 1362.4058797843313, 0.0, 0.0, 0.0, 0.0, 773.2362476868925, 0.0]
['beep', 0.0, 1357.287330304066, 0.0, 0.0, 0.0, 0.0, 772.4986401198674, 0.0]
['beep', 0.0, 1354.0686791025018, 0.0, 0.0, 0.0, 0.0, 773.5491721092668, 0.0]
['beep', 0.0, 1358.2484553156444, 0.0, 0.0, 0.0, 0.0, 774.6444075875769, 0.0]
['beep', 0.0, 1364.708109463228, 0.0, 0.0, 0.0, 0.0, 776.1419744660824, 0.0]
['beep', 0.0, 1362.9870251401694, 0.0, 0.0, 0.0, 0.0, 774.7114628209428, 0.0]
['beep', 0.0, 1357.2426268151555, 0.0, 0.0, 0.0, 0.0, 773.2809511758031, 0.0]
['beep', 0.0, 1355.610949469918, 0.0, 0.0, 0.0, 0.0, 772.8786197756076, 0.0]
['beep', 0.0, 1360.550684994541, 0.0, 0.0, 0.0, 0.0, 772.7892127977864, 0.0]
['beep', 0.0, 1367.03269088658, 0.0, 0.0, 0.0, 0.0, 775.0690907322277, 0.0]
['beep', 0.0, 1364.8645716744152, 0.0, 0.0, 0.0, 0.0, 773.6832825759986, 0.0]
['beep', 0.0, 1358.3602140379207, 0.0, 0.0, 0.0, 0.0, 772.5656953532333, 0.0]
['beep', 0.0, 1355.1192110919012, 0.0, 0.0, 0.0, 0.0, 771.7610325528423, 0.0]
['beep', 0.0, 1360.2377605721665, 0.0, 0.0, 0.0, 0.0, 771.8280877862081, 0.0]
['beep', 0.0, 1364.6634059743174, 0.0, 0.0, 0.0, 0.0, 772.5880470976887, 0.0]
['beep', 0.0, 1360.997719883647, 0.0, 0.0, 0.0, 0.0, 774.1526692095601, 0.0]
['beep', 0.0, 1354.4933622471526, 0.0, 0.0, 0.0, 0.0, 772.6774540755099, 0.0]
['beep', 0.0, 1350.2688825450996, 0.0, 0.0, 0.0, 0.0, 770.9340180079959, 0.0]
['beep', 0.0, 1354.515713991608, 0.0, 0.0, 0.0, 0.0, 771.9845499973953, 0.0]
['beep', 0.0, 1361.1318303503788, 0.0, 0.0, 0.0, 0.0, 774.4655936319344, 0.0]
['beep', 0.0, 1359.611911727418, 0.0, 0.0, 0.0, 0.0, 772.7668610533311, 0.0]
['beep', 0.0, 1354.515713991608, 0.0, 0.0, 0.0, 0.0, 773.8844482760965, 0.0]
['beep', 0.0, 1351.0064901121248, 0.0, 0.0, 0.0, 0.0, 773.4597651314456, 0.0]
['beep', 0.0, 1354.359251780421, 0.0, 0.0, 0.0, 0.0, 773.4597651314456, 0.0]
['beep', 0.0, 1359.1648768383118, 0.0, 0.0, 0.0, 0.0, 773.124488964616, 0.0]
['beep', 0.0, 1356.482667503675, 0.0, 0.0, 0.0, 0.0, 773.8397447871859, 0.0]
['beep', 0.0, 1350.8276761564823, 0.0, 0.0, 0.0, 0.0, 771.7610325528423, 0.0]
['beep', 0.0, 1349.8665511449042, 0.0, 0.0, 0.0, 0.0, 771.5598668527444, 0.0]
['beep', 0.0, 1353.420478513298, 0.0, 0.0, 0.0, 0.0, 771.671625575021, 0.0]
['beep', 0.0, 1359.2989873050437, 0.0, 0.0, 0.0, 0.0, 774.5773523542109, 0.0]
['beep', 0.0, 1358.6060832269293, 0.0, 0.0, 0.0, 0.0, 773.3703581536244, 0.0]
['beep', 0.0, 1349.9112546338147, 0.0, 0.0, 0.0, 0.0, 773.6162273426328, 0.0]
['beep', 0.0, 1347.5643214660074, 0.0, 0.0, 0.0, 0.0, 772.5880470976887, 0.0]
['beep', 0.0, 1353.1075540909237, 0.0, 0.0, 0.0, 0.0, 773.415061642535, 0.0]
['beep', 0.0, 1359.1648768383118, 0.0, 0.0, 0.0, 0.0, 775.5608291102444, 0.0]
['beep', 0.0, 1356.0579843590242, 0.0, 0.0, 0.0, 0.0, 775.2702564323255, 0.0]
['beep', 0.0, 1349.4642197447085, 0.0, 0.0, 0.0, 0.0, 772.6998058199651, 0.0]
['beep', 0.0, 1348.3019290330326, 0.0, 0.0, 0.0, 0.0, 771.5598668527444, 0.0]
['beep', 0.0, 1353.8898651468594, 0.0, 0.0, 0.0, 0.0, 773.0574337312501, 0.0]
['beep', 0.0, 1359.611911727418, 0.0, 0.0, 0.0, 0.0, 774.5326488653003, 0.0]
['beep', 0.0, 1358.382565782376, 0.0, 0.0, 0.0, 0.0, 774.0185587428283, 0.0]
['beep', 0.0, 1352.414650012809, 0.0, 0.0, 0.0, 0.0, 773.5044686203562, 0.0]
['beep', 0.0, 1350.2465308006445, 0.0, 0.0, 0.0, 0.0, 773.5715238537222, 0.0]
['beep', 0.0, 1355.096859347446, 0.0, 0.0, 0.0, 0.0, 772.3421779086802, 0.0]
['beep', 0.0, 1360.193057083256, 0.0, 0.0, 0.0, 0.0, 773.2809511758031, 0.0]
['beep', 0.0, 1358.0025861266358, 0.0, 0.0, 0.0, 0.0, 775.1361459655936, 0.0]
['beep', 0.0, 1351.967615123703, 0.0, 0.0, 0.0, 0.0, 775.0467389877724, 0.0]
['beep', 0.0, 1349.2183505557002, 0.0, 0.0, 0.0, 0.0, 774.5326488653003, 0.0]
['beep', 0.0, 1354.2474930581443, 0.0, 0.0, 0.0, 0.0, 775.5608291102444, 0.0]
['beep', 0.0, 1359.7236704496945, 0.0, 0.0, 0.0, 0.0, 775.4714221324232, 0.0]
['beep', 0.0, 1360.6177402279068, 0.0, 0.0, 0.0, 0.0, 773.7726895538199, 0.0]
['beep', 0.0, 1353.6886994467616, 0.0, 0.0, 0.0, 0.0, 771.8727912751187, 0.0]
['beep', 0.0, 1351.4758767456863, 0.0, 0.0, 0.0, 0.0, 771.9398465084847, 0.0]
['beep', 0.0, 1355.8121151700159, 0.0, 0.0, 0.0, 0.0, 772.3421779086802, 0.0]
['beep', 0.0, 1361.5788652394851, 0.0, 0.0, 0.0, 0.0, 772.3421779086802, 0.0]
['beep', 0.0, 1361.6906239617615, 0.0, 0.0, 0.0, 0.0, 774.2420761873814, 0.0]
['beep', 0.0, 1354.515713991608, 0.0, 0.0, 0.0, 0.0, 772.8786197756076, 0.0]
['beep', 0.0, 1351.5652837235075, 0.0, 0.0, 0.0, 0.0, 768.5423813512781, 0.0]
['beep', 0.0, 1354.4933622471526, 0.0, 0.0, 0.0, 0.0, 771.7833842972975, 0.0]
['beep', 0.0, 1362.0929553619571, 0.0, 0.0, 0.0, 0.0, 773.3256546647137, 0.0]
['beep', 0.0, 1360.3942227833538, 0.0, 0.0, 0.0, 0.0, 771.7163290639317, 0.0]
['beep', 0.0, 1352.2358360571666, 0.0, 0.0, 0.0, 0.0, 770.4422796299791, 0.0]
['beep', 0.0, 1349.8441994004488, 0.0, 0.0, 0.0, 0.0, 770.3081691632473, 0.0]
['beep', 0.0, 1355.6556529588286, 0.0, 0.0, 0.0, 0.0, 771.3139976637361, 0.0]
['beep', 0.0, 1360.7742024390939, 0.0, 0.0, 0.0, 0.0, 772.5656953532333, 0.0]
['beep', 0.0, 1360.3048158055326, 0.0, 0.0, 0.0, 0.0, 771.8727912751187, 0.0]
['beep', 0.0, 1353.7781064245828, 0.0, 0.0, 0.0, 0.0, 770.8893145190852, 0.0]
['beep', 0.0, 1351.5205802345968, 0.0, 0.0, 0.0, 0.0, 771.2469424303702, 0.0]
['beep', 0.0, 1356.5944262259516, 0.0, 0.0, 0.0, 0.0, 771.7163290639317, 0.0]
['beep', 0.0, 1360.349519294443, 0.0, 0.0, 0.0, 0.0, 771.8280877862081, 0.0]
['beep', 0.0, 1359.7683739386052, 0.0, 0.0, 0.0, 0.0, 772.0516052307612, 0.0]
['beep', 0.0, 1354.0686791025018, 0.0, 0.0, 0.0, 0.0, 771.0904802191831, 0.0]
['beep', 0.0, 1351.230007556678, 0.0, 0.0, 0.0, 0.0, 770.7105005634428, 0.0]
['beep', 0.0, 1355.387432025365, 0.0, 0.0, 0.0, 0.0, 770.9787214969065, 0.0]
['beep', 0.0, 1360.4389262722643, 0.0, 0.0, 0.0, 0.0, 771.381052897102, 0.0]
['beep', 0.0, 1360.2377605721665, 0.0, 0.0, 0.0, 0.0, 771.0010732413618, 0.0]
['beep', 0.0, 1353.1522575798342, 0.0, 0.0, 0.0, 0.0, 769.1011749626607, 0.0]
['beep', 0.0, 1351.8111529125158, 0.0, 0.0, 0.0, 0.0, 769.0341197292948, 0.0]
['beep', 0.0, 1355.4768390031861, 0.0, 0.0, 0.0, 0.0, 770.3305209077026, 0.0]
['beep', 0.0, 1361.7800309395827, 0.0, 0.0, 0.0, 0.0, 773.0797854757054, 0.0]
['beep', 0.0, 1361.1318303503788, 0.0, 0.0, 0.0, 0.0, 772.9903784978842, 0.0]
['beep', 0.0, 1354.4710105026975, 0.0, 0.0, 0.0, 0.0, 771.9174947640294, 0.0]
['beep', 0.0, 1351.0735453454906, 0.0, 0.0, 0.0, 0.0, 771.4928116193786, 0.0]
['beep', 0.0, 1354.8286384139824, 0.0, 0.0, 0.0, 0.0, 770.5540383522557, 0.0]
['beep', 0.0, 1360.483629761175, 0.0, 0.0, 0.0, 0.0, 770.1517069520602, 0.0]
['beep', 0.0, 1360.2154088277114, 0.0, 0.0, 0.0, 0.0, 770.6210935856216, 0.0]
['beep', 0.0, 1352.7499261796388, 0.0, 0.0, 0.0, 0.0, 770.7552040523534, 0.0]
['beep', 0.0, 1350.1571238228232, 0.0, 0.0, 0.0, 0.0, 771.4257563860126, 0.0]
['beep', 0.0, 1354.64982445834, 0.0, 0.0, 0.0, 0.0, 770.062299974239, 0.0]
['beep', 0.0, 1361.0871268614683, 0.0, 0.0, 0.0, 0.0, 769.704672062954, 0.0]
['beep', 0.0, 1359.388394282865, 0.0, 0.0, 0.0, 0.0, 770.0175964853283, 0.0]
['beep', 0.0, 1352.6158157129069, 0.0, 0.0, 0.0, 0.0, 768.0729947177166, 0.0]
['beep', 0.0, 1348.8830743888707, 0.0, 0.0, 0.0, 0.0, 769.5482098517668, 0.0]
['beep', 0.0, 1354.5827692249738, 0.0, 0.0, 0.0, 0.0, 771.2469424303702, 0.0]
['beep', 0.0, 1361.3776995393873, 0.0, 0.0, 0.0, 0.0, 771.7610325528423, 0.0]
['beep', 0.0, 1358.516676249108, 0.0, 0.0, 0.0, 0.0, 769.6376168295881, 0.0]
['beep', 0.0, 1352.2134843127114, 0.0, 0.0, 0.0, 0.0, 770.0399482297836, 0.0]
['beep', 0.0, 1350.224179056189, 0.0, 0.0, 0.0, 0.0, 768.7658987958312, 0.0]
['beep', 0.0, 1355.2309698141778, 0.0, 0.0, 0.0, 0.0, 769.8611342741411, 0.0]
['beep', 0.0, 1361.0871268614683, 0.0, 0.0, 0.0, 0.0, 773.0350819867948, 0.0]
['beep', 0.0, 1360.6400919723621, 0.0, 0.0, 0.0, 0.0, 770.3975761410685, 0.0]
['beep', 0.0, 1354.292196547055, 0.0, 0.0, 0.0, 0.0, 769.1011749626607, 0.0]
['beep', 0.0, 1351.0064901121248, 0.0, 0.0, 0.0, 0.0, 768.9223610070183, 0.0]
['beep', 0.0, 1355.8791704033817, 0.0, 0.0, 0.0, 0.0, 769.2576371738479, 0.0]
['beep', 0.0, 1360.3048158055326, 0.0, 0.0, 0.0, 0.0, 769.9281895075071, 0.0]
['beep', 0.0, 1360.4389262722643, 0.0, 0.0, 0.0, 0.0, 769.5482098517668, 0.0]
['beep', 0.0, 1355.7674116811052, 0.0, 0.0, 0.0, 0.0, 768.7658987958312, 0.0]
['beep', 0.0, 1352.6381674573622, 0.0, 0.0, 0.0, 0.0, 768.3859191400909, 0.0]
['beep', 0.0, 1356.996757626147, 0.0, 0.0, 0.0, 0.0, 770.3305209077026, 0.0]
['beep', 0.0, 1363.1211356069011, 0.0, 0.0, 0.0, 0.0, 770.9340180079959, 0.0]
['beep', 0.0, 1362.8976181623482, 0.0, 0.0, 0.0, 0.0, 769.6599685740434, 0.0]
['beep', 0.0, 1355.1415628363566, 0.0, 0.0, 0.0, 0.0, 768.2965121622697, 0.0]
['beep', 0.0, 1351.6323389568734, 0.0, 0.0, 0.0, 0.0, 768.2071051844484, 0.0]
['beep', 0.0, 1356.415612270309, 0.0, 0.0, 0.0, 0.0, 770.9787214969065, 0.0]
['beep', 0.0, 1362.2047140842337, 0.0, 0.0, 0.0, 0.0, 772.6551023310545, 0.0]
['beep', 0.0, 1361.6682722173064, 0.0, 0.0, 0.0, 0.0, 771.2692941748255, 0.0]
['beep', 0.0, 1356.5497227370408, 0.0, 0.0, 0.0, 0.0, 768.6988435624652, 0.0]
['beep', 0.0, 1354.292196547055, 0.0, 0.0, 0.0, 0.0, 767.5142011063339, 0.0]
['beep', 0.0, 1359.1648768383118, 0.0, 0.0, 0.0, 0.0, 767.7153668064317, 0.0]
['beep', 0.0, 1365.3116065635213, 0.0, 0.0, 0.0, 0.0, 769.3470441516691, 0.0]
['beep', 0.0, 1363.3670047959097, 0.0, 0.0, 0.0, 0.0, 769.8834860185965, 0.0]
['beep', 0.0, 1357.6673099598063, 0.0, 0.0, 0.0, 0.0, 768.1176982066272, 0.0]
['beep', 0.0, 1355.6333012143734, 0.0, 0.0, 0.0, 0.0, 768.2965121622697, 0.0]
['beep', 0.0, 1359.1201733494013, 0.0, 0.0, 0.0, 0.0, 769.2576371738479, 0.0]
['beep', 0.0, 1364.8645716744152, 0.0, 0.0, 0.0, 0.0, 770.1740586965154, 0.0]
['beep', 0.0, 1364.9763303966918, 0.0, 0.0, 0.0, 0.0, 768.7211953069205, 0.0]
['beep', 0.0, 1357.9578826377253, 0.0, 0.0, 0.0, 0.0, 769.3023406627585, 0.0]
['beep', 0.0, 1354.9403971362588, 0.0, 0.0, 0.0, 0.0, 770.0399482297836, 0.0]
['beep', 0.0, 1360.0812983609794, 0.0, 0.0, 0.0, 0.0, 771.7386808083869, 0.0]
['beep', 0.0, 1365.2669030746106, 0.0, 0.0, 0.0, 0.0, 773.705634320454, 0.0]
['beep', 0.0, 1361.3106443060212, 0.0, 0.0, 0.0, 0.0, 774.219724442926, 0.0]
['beep', 0.0, 1356.5050192481303, 0.0, 0.0, 0.0, 0.0, 771.3139976637361, 0.0]
['beep', 0.0, 1353.3757750243874, 0.0, 0.0, 0.0, 0.0, 769.2576371738479, 0.0]
['beep', 0.0, 1358.4943245046527, 0.0, 0.0, 0.0, 0.0, 770.9563697524512, 0.0]
['beep', 0.0, 1364.5516472520408, 0.0, 0.0, 0.0, 0.0, 773.0350819867948, 0.0]
['beep', 0.0, 1362.6964524622504, 0.0, 0.0, 0.0, 0.0, 771.448108130468, 0.0]
['beep', 0.0, 1355.9909291256583, 0.0, 0.0, 0.0, 0.0, 770.0399482297836, 0.0]
['beep', 0.0, 1352.414650012809, 0.0, 0.0, 0.0, 0.0, 769.4588028739456, 0.0]
['beep', 0.0, 1358.226103571189, 0.0, 0.0, 0.0, 0.0, 770.1070034631496, 0.0]
['beep', 0.0, 1362.741155951161, 0.0, 0.0, 0.0, 0.0, 771.6939773194763, 0.0]
['beep', 0.0, 1362.0706036175018, 0.0, 0.0, 0.0, 0.0, 772.8115645422417, 0.0]
['beep', 0.0, 1355.8121151700159, 0.0, 0.0, 0.0, 0.0, 771.7610325528423, 0.0]
['beep', 0.0, 1352.4817052461751, 0.0, 0.0, 0.0, 0.0, 770.6657970745322, 0.0]
['beep', 0.0, 1357.2426268151555, 0.0, 0.0, 0.0, 0.0, 770.8893145190852, 0.0]
['beep', 0.0, 1364.0375571295688, 0.0, 0.0, 0.0, 0.0, 771.7610325528423, 0.0]
['beep', 0.0, 1363.098783862446, 0.0, 0.0, 0.0, 0.0, 770.4199278855239, 0.0]
['beep', 0.0, 1356.7955919260494, 0.0, 0.0, 0.0, 0.0, 769.3023406627585, 0.0]
['beep', 0.0, 1354.9851006251695, 0.0, 0.0, 0.0, 0.0, 769.8834860185965, 0.0]
['beep', 0.0, 1357.93553089327, 0.0, 0.0, 0.0, 0.0, 770.9340180079959, 0.0]
['beep', 0.0, 1363.8810949183817, 0.0, 0.0, 0.0, 0.0, 771.0010732413618, 0.0]
['beep', 0.0, 1363.3670047959097, 0.0, 0.0, 0.0, 0.0, 771.5375151082892, 0.0]
['beep', 0.0, 1356.482667503675, 0.0, 0.0, 0.0, 0.0, 769.7717272963199, 0.0]
['beep', 0.0, 1352.6158157129069, 0.0, 0.0, 0.0, 0.0, 770.5540383522557, 0.0]
['beep', 0.0, 1356.3038535480325, 0.0, 0.0, 0.0, 0.0, 772.1633639530378, 0.0]
['beep', 0.0, 1362.9423216512587, 0.0, 0.0, 0.0, 0.0, 772.4539366309568, 0.0]
['beep', 0.0, 1362.3611762954208, 0.0, 0.0, 0.0, 0.0, 773.6609308315434, 0.0]
['beep', 0.0, 1354.9403971362588, 0.0, 0.0, 0.0, 0.0, 772.3868813975909, 0.0]
['beep', 0.0, 1353.3757750243874, 0.0, 0.0, 0.0, 0.0, 770.1964104409708, 0.0]
['beep', 0.0, 1357.712013448717, 0.0, 0.0, 0.0, 0.0, 770.1293552076048, 0.0]
['beep', 0.0, 1363.1881908402672, 0.0, 0.0, 0.0, 0.0, 771.7610325528423, 0.0]
['beep', 0.0, 1361.288292561566, 0.0, 0.0, 0.0, 0.0, 772.8786197756076, 0.0]
['beep', 0.0, 1355.0745076029907, 0.0, 0.0, 0.0, 0.0, 770.3305209077026, 0.0]
['beep', 0.0, 1352.3699465238985, 0.0, 0.0, 0.0, 0.0, 768.9670644959289, 0.0]
['beep', 0.0, 1356.616777970407, 0.0, 0.0, 0.0, 0.0, 770.218762185426, 0.0]
['beep', 0.0, 1363.03172862908, 0.0, 0.0, 0.0, 0.0, 772.9456750089736, 0.0]
['beep', 0.0, 1362.1153071064125, 0.0, 0.0, 0.0, 0.0, 771.9845499973953, 0.0]
['beep', 0.0, 1355.7450599366498, 0.0, 0.0, 0.0, 0.0, 770.285817418792, 0.0]
['beep', 0.0, 1351.5876354679629, 0.0, 0.0, 0.0, 0.0, 768.2965121622697, 0.0]
['beep', 0.0, 1355.1415628363566, 0.0, 0.0, 0.0, 0.0, 770.7552040523534, 0.0]
['beep', 0.0, 1360.3718710388985, 0.0, 0.0, 0.0, 0.0, 772.4092331420462, 0.0]
['beep', 0.0, 1360.349519294443, 0.0, 0.0, 0.0, 0.0, 772.4092331420462, 0.0]
['beep', 0.0, 1354.8956936473483, 0.0, 0.0, 0.0, 0.0, 773.7950412982752, 0.0]
['beep', 0.0, 1351.5652837235075, 0.0, 0.0, 0.0, 0.0, 773.1691924535266, 0.0]
['beep', 0.0, 1356.1697430813008, 0.0, 0.0, 0.0, 0.0, 771.5375151082892, 0.0]
['beep', 0.0, 1361.802382684038, 0.0, 0.0, 0.0, 0.0, 773.0350819867948, 0.0]
['beep', 0.0, 1362.7635076956162, 0.0, 0.0, 0.0, 0.0, 771.2022389414595, 0.0]
['beep', 0.0, 1356.996757626147, 0.0, 0.0, 0.0, 0.0, 770.5987418411663, 0.0]
['beep', 0.0, 1353.062850602013, 0.0, 0.0, 0.0, 0.0, 770.3305209077026, 0.0]
['beep', 0.0, 1358.0025861266358, 0.0, 0.0, 0.0, 0.0, 771.2469424303702, 0.0]
['beep', 0.0, 1364.484592018675, 0.0, 0.0, 0.0, 0.0, 773.5491721092668, 0.0]
['beep', 0.0, 1363.255246073633, 0.0, 0.0, 0.0, 0.0, 773.5268203648116, 0.0]
['beep', 0.0, 1356.6614814593174, 0.0, 0.0, 0.0, 0.0, 771.5822185971998, 0.0]
['beep', 0.0, 1353.3087197910213, 0.0, 0.0, 0.0, 0.0, 771.1128319636383, 0.0]
['beep', 0.0, 1354.6051209694292, 0.0, 0.0, 0.0, 0.0, 772.7668610533311, 0.0]
['beep', 0.0, 1360.5059815056302, 0.0, 0.0, 0.0, 0.0, 772.4315848865015, 0.0]
['beep', 0.0, 1360.6177402279068, 0.0, 0.0, 0.0, 0.0, 771.4928116193786, 0.0]
['beep', 0.0, 1354.225141313689, 0.0, 0.0, 0.0, 0.0, 770.7105005634428, 0.0]
['beep', 0.0, 1353.0852023464683, 0.0, 0.0, 0.0, 0.0, 770.6657970745322, 0.0]
['beep', 0.0, 1358.4719727601973, 0.0, 0.0, 0.0, 0.0, 771.8727912751187, 0.0]
['beep', 0.0, 1366.2503798306443, 0.0, 0.0, 0.0, 0.0, 773.5938755981774, 0.0]
['beep', 0.0, 1366.4962490196526, 0.0, 0.0, 0.0, 0.0, 774.1750209540154, 0.0]
['beep', 0.0, 1362.2717693175996, 0.0, 0.0, 0.0, 0.0, 773.705634320454, 0.0]
['beep', 0.0, 1358.8296006714822, 0.0, 0.0, 0.0, 0.0, 774.6667593320321, 0.0]
['beep', 0.0, 1361.3106443060212, 0.0, 0.0, 0.0, 0.0, 775.1808494545043, 0.0]
['beep', 0.0, 1365.579827496985, 0.0, 0.0, 0.0, 0.0, 775.2255529434149, 0.0]
['beep', 0.0, 1362.8305629289823, 0.0, 0.0, 0.0, 0.0, 775.4267186435126, 0.0]
['beep', 0.0, 1355.5885977254627, 0.0, 0.0, 0.0, 0.0, 773.6162273426328, 0.0]
['beep', 0.0, 1351.8558564014265, 0.0, 0.0, 0.0, 0.0, 773.6162273426328, 0.0]
['beep', 0.0, 1356.8849989038706, 0.0, 0.0, 0.0, 0.0, 775.5161256213338, 0.0]
['beep', 0.0, 1364.4398885297644, 0.0, 0.0, 0.0, 0.0, 775.1361459655936, 0.0]
['beep', 0.0, 1364.4622402742195, 0.0, 0.0, 0.0, 0.0, 775.1137942211383, 0.0]
['beep', 0.0, 1358.8519524159376, 0.0, 0.0, 0.0, 0.0, 774.3091314207472, 0.0]
['beep', 0.0, 1354.3369000359655, 0.0, 0.0, 0.0, 0.0, 773.5715238537222, 0.0]
['beep', 0.0, 1357.5555512375297, 0.0, 0.0, 0.0, 0.0, 773.9962069983729, 0.0]
['beep', 0.0, 1363.5458187515521, 0.0, 0.0, 0.0, 0.0, 774.6891110764875, 0.0]
['beep', 0.0, 1363.1434873513565, 0.0, 0.0, 0.0, 0.0, 772.7668610533311, 0.0]
['beep', 0.0, 1356.2815018035772, 0.0, 0.0, 0.0, 0.0, 773.7726895538199, 0.0]
['beep', 0.0, 1353.8004581690382, 0.0, 0.0, 0.0, 0.0, 775.2255529434149, 0.0]
['beep', 0.0, 1358.3602140379207, 0.0, 0.0, 0.0, 0.0, 775.7396430658869, 0.0]
['beep', 0.0, 1365.2221995857, 0.0, 0.0, 0.0, 0.0, 776.5666576107333, 0.0]
['beep', 0.0, 1365.2221995857, 0.0, 0.0, 0.0, 0.0, 774.5550006097557, 0.0]
['beep', 0.0, 1357.8237721709934, 0.0, 0.0, 0.0, 0.0, 773.1468407090713, 0.0]
['beep', 0.0, 1355.2533215586332, 0.0, 0.0, 0.0, 0.0, 772.3645296531356, 0.0]
['beep', 0.0, 1357.1532198373343, 0.0, 0.0, 0.0, 0.0, 772.4986401198674, 0.0]
['beep', 0.0, 1364.9539786522364, 0.0, 0.0, 0.0, 0.0, 775.672587832521, 0.0]
['beep', 0.0, 1363.3893565403648, 0.0, 0.0, 0.0, 0.0, 776.8572302886523, 0.0]
['beep', 0.0, 1356.773240181594, 0.0, 0.0, 0.0, 0.0, 775.3149599212361, 0.0]
['beep', 0.0, 1353.2416645576554, 0.0, 0.0, 0.0, 0.0, 775.0467389877724, 0.0]
['beep', 0.0, 1356.9744058816918, 0.0, 0.0, 0.0, 0.0, 775.0020354988618, 0.0]
['beep', 0.0, 1363.255246073633, 0.0, 0.0, 0.0, 0.0, 775.8066982992528, 0.0]
['beep', 0.0, 1363.6352257293734, 0.0, 0.0, 0.0, 0.0, 775.2926081767807, 0.0]
['beep', 0.0, 1358.8519524159376, 0.0, 0.0, 0.0, 0.0, 774.0632622317389, 0.0]
['beep', 0.0, 1355.678004703284, 0.0, 0.0, 0.0, 0.0, 773.415061642535, 0.0]
['beep', 0.0, 1358.9413593937588, 0.0, 0.0, 0.0, 0.0, 774.1750209540154, 0.0]
['beep', 0.0, 1366.0492141305465, 0.0, 0.0, 0.0, 0.0, 775.6949395769763, 0.0]
['beep', 0.0, 1365.8256966859933, 0.0, 0.0, 0.0, 0.0, 774.1079657206495, 0.0]
['beep', 0.0, 1359.835429171971, 0.0, 0.0, 0.0, 0.0, 771.2022389414595, 0.0]
['beep', 0.0, 1356.0356326145688, 0.0, 0.0, 0.0, 0.0, 771.1351837080937, 0.0]
['beep', 0.0, 1360.7742024390939, 0.0, 0.0, 0.0, 0.0, 772.2080674419484, 0.0]
['beep', 0.0, 1366.7197664642056, 0.0, 0.0, 0.0, 0.0, 773.1691924535266, 0.0]
['beep', 0.0, 1365.713937963717, 0.0, 0.0, 0.0, 0.0, 772.6774540755099, 0.0]
['beep', 0.0, 1359.2095803272225, 0.0, 0.0, 0.0, 0.0, 769.9281895075071, 0.0]
['beep', 0.0, 1355.4321355142756, 0.0, 0.0, 0.0, 0.0, 771.2022389414595, 0.0]
['beep', 0.0, 1360.3048158055326, 0.0, 0.0, 0.0, 0.0, 773.0797854757054, 0.0]
['beep', 0.0, 1365.2445513301554, 0.0, 0.0, 0.0, 0.0, 773.0797854757054, 0.0]
['beep', 0.0, 1363.6575774738285, 0.0, 0.0, 0.0, 0.0, 773.3703581536244, 0.0]
['beep', 0.0, 1357.5108477486192, 0.0, 0.0, 0.0, 0.0, 772.319826164225, 0.0]
['beep', 0.0, 1353.845161657949, 0.0, 0.0, 0.0, 0.0, 770.8222592857194, 0.0]
['beep', 0.0, 1358.6731384602951, 0.0, 0.0, 0.0, 0.0, 773.3033029202585, 0.0]
['beep', 0.0, 1364.6634059743174, 0.0, 0.0, 0.0, 0.0, 774.0632622317389, 0.0]
['beep', 0.0, 1365.6692344748062, 0.0, 0.0, 0.0, 0.0, 773.7950412982752, 0.0]
['beep', 0.0, 1360.6847954612726, 0.0, 0.0, 0.0, 0.0, 771.3139976637361, 0.0]
['beep', 0.0, 1356.9744058816918, 0.0, 0.0, 0.0, 0.0, 769.995244740873, 0.0]
['beep', 0.0, 1359.8577809164265, 0.0, 0.0, 0.0, 0.0, 770.6657970745322, 0.0]
['beep', 0.0, 1366.451545530742, 0.0, 0.0, 0.0, 0.0, 771.1575354525489, 0.0]
['beep', 0.0, 1366.5409525085631, 0.0, 0.0, 0.0, 0.0, 771.7386808083869, 0.0]
['beep', 0.0, 1359.678966960784, 0.0, 0.0, 0.0, 0.0, 771.7386808083869, 0.0]
['beep', 0.0, 1356.2144465702113, 0.0, 0.0, 0.0, 0.0, 771.448108130468, 0.0]
['beep', 0.0, 1360.349519294443, 0.0, 0.0, 0.0, 0.0, 770.3081691632473, 0.0]
['beep', 0.0, 1367.8820571758815, 0.0, 0.0, 0.0, 0.0, 769.3023406627585, 0.0]
['beep', 0.0, 1367.2338565866778, 0.0, 0.0, 0.0, 0.0, 771.1575354525489, 0.0]
['beep', 0.0, 1361.7800309395827, 0.0, 0.0, 0.0, 0.0, 771.7386808083869, 0.0]
['beep', 0.0, 1356.4603157592196, 0.0, 0.0, 0.0, 0.0, 771.6045703416551, 0.0]
['beep', 0.0, 1358.9190076493035, 0.0, 0.0, 0.0, 0.0, 772.4315848865015, 0.0]
['beep', 0.0, 1365.8927519193594, 0.0, 0.0, 0.0, 0.0, 774.1526692095601, 0.0]
['beep', 0.0, 1366.5409525085631, 0.0, 0.0, 0.0, 0.0, 771.4704598749232, 0.0]
['beep', 0.0, 1362.2717693175996, 0.0, 0.0, 0.0, 0.0, 769.704672062954, 0.0]
['beep', 0.0, 1358.3378622934656, 0.0, 0.0, 0.0, 0.0, 769.481154618401, 0.0]
['beep', 0.0, 1361.7353274506722, 0.0, 0.0, 0.0, 0.0, 771.2022389414595, 0.0]
['beep', 0.0, 1366.0492141305465, 0.0, 0.0, 0.0, 0.0, 772.1633639530378, 0.0]
['beep', 0.0, 1366.228028086189, 0.0, 0.0, 0.0, 0.0, 772.9680267534288, 0.0]
['beep', 0.0, 1361.4000512838427, 0.0, 0.0, 0.0, 0.0, 771.8504395306635, 0.0]
['beep', 0.0, 1356.7285366926833, 0.0, 0.0, 0.0, 0.0, 771.96219825294, 0.0]
['beep', 0.0, 1360.0812983609794, 0.0, 0.0, 0.0, 0.0, 773.0574337312501, 0.0]
['beep', 0.0, 1365.6468827303509, 0.0, 0.0, 0.0, 0.0, 773.6162273426328, 0.0]
['beep', 0.0, 1366.9432839087588, 0.0, 0.0, 0.0, 0.0, 774.510297120845, 0.0]
['beep', 0.0, 1361.511810006119, 0.0, 0.0, 0.0, 0.0, 774.1079657206495, 0.0]
['beep', 0.0, 1358.1814000822783, 0.0, 0.0, 0.0, 0.0, 770.3528726521579, 0.0]
['beep', 0.0, 1361.4224030282978, 0.0, 0.0, 0.0, 0.0, 770.5987418411663, 0.0]
['beep', 0.0, 1366.9209321643034, 0.0, 0.0, 0.0, 0.0, 773.9738552539177, 0.0]
['beep', 0.0, 1366.384490297376, 0.0, 0.0, 0.0, 0.0, 775.5161256213338, 0.0]
['beep', 0.0, 1360.036594872069, 0.0, 0.0, 0.0, 0.0, 772.9456750089736, 0.0]
['beep', 0.0, 1356.3709087813984, 0.0, 0.0, 0.0, 0.0, 771.1128319636383, 0.0]
['beep', 0.0, 1360.2377605721665, 0.0, 0.0, 0.0, 0.0, 771.671625575021, 0.0]
['beep', 0.0, 1366.1833245972782, 0.0, 0.0, 0.0, 0.0, 772.5656953532333, 0.0]
['beep', 0.0, 1365.1104408634235, 0.0, 0.0, 0.0, 0.0, 772.3421779086802, 0.0]
['beep', 0.0, 1359.1872285827671, 0.0, 0.0, 0.0, 0.0, 770.0846517186942, 0.0]
['beep', 0.0, 1355.7674116811052, 0.0, 0.0, 0.0, 0.0, 772.2751226753144, 0.0]
['beep', 0.0, 1359.388394282865, 0.0, 0.0, 0.0, 0.0, 773.2138959424373, 0.0]
['beep', 0.0, 1365.1998478412447, 0.0, 0.0, 0.0, 0.0, 773.9068000205517, 0.0]
['beep', 0.0, 1364.9763303966918, 0.0, 0.0, 0.0, 0.0, 773.3256546647137, 0.0]
['beep', 0.0, 1361.4224030282978, 0.0, 0.0, 0.0, 0.0, 771.7163290639317, 0.0]
['beep', 0.0, 1356.929702392781, 0.0, 0.0, 0.0, 0.0, 771.5375151082892, 0.0]
['beep', 0.0, 1359.5895599829628, 0.0, 0.0, 0.0, 0.0, 772.5433436087781, 0.0]
['beep', 0.0, 1365.3116065635213, 0.0, 0.0, 0.0, 0.0, 773.638579087088, 0.0]
['beep', 0.0, 1365.93745540827, 0.0, 0.0, 0.0, 0.0, 773.5938755981774, 0.0]
['beep', 0.0, 1362.31647280651, 0.0, 0.0, 0.0, 0.0, 773.7726895538199, 0.0]
['beep', 0.0, 1357.7343651931722, 0.0, 0.0, 0.0, 0.0, 772.1186604641272, 0.0]
['beep', 0.0, 1362.1823623397784, 0.0, 0.0, 0.0, 0.0, 772.5433436087781, 0.0]
['beep', 0.0, 1367.6361879868732, 0.0, 0.0, 0.0, 0.0, 774.219724442926, 0.0]
['beep', 0.0, 1368.5302577650855, 0.0, 0.0, 0.0, 0.0, 775.9631605104399, 0.0]
['beep', 0.0, 1363.322301306999, 0.0, 0.0, 0.0, 0.0, 774.3538349096578, 0.0]
['beep', 0.0, 1359.6342634718733, 0.0, 0.0, 0.0, 0.0, 771.9398465084847, 0.0]
['beep', 0.0, 1364.931626907781, 0.0, 0.0, 0.0, 0.0, 771.7386808083869, 0.0]
['beep', 0.0, 1370.2289903436888, 0.0, 0.0, 0.0, 0.0, 773.3480064091691, 0.0]
['beep', 0.0, 1368.9102374208258, 0.0, 0.0, 0.0, 0.0, 774.4432418874791, 0.0]
['beep', 0.0, 1362.8305629289823, 0.0, 0.0, 0.0, 0.0, 773.9738552539177, 0.0]
['beep', 0.0, 1358.4049175268315, 0.0, 0.0, 0.0, 0.0, 771.0681284747277, 0.0]
['beep', 0.0, 1362.2270658286889, 0.0, 0.0, 0.0, 0.0, 771.7610325528423, 0.0]
['beep', 0.0, 1368.1055746204347, 0.0, 0.0, 0.0, 0.0, 773.5268203648116, 0.0]
['beep', 0.0, 1367.390318797865, 0.0, 0.0, 0.0, 0.0, 773.705634320454, 0.0]
['beep', 0.0, 1361.489458261664, 0.0, 0.0, 0.0, 0.0, 772.9456750089736, 0.0]
['beep', 0.0, 1357.2202750707002, 0.0, 0.0, 0.0, 0.0, 772.3868813975909, 0.0]
['beep', 0.0, 1360.9083129058258, 0.0, 0.0, 0.0, 0.0, 771.448108130468, 0.0]
['beep', 0.0, 1366.228028086189, 0.0, 0.0, 0.0, 0.0, 772.5656953532333, 0.0]
['beep', 0.0, 1367.3456153089542, 0.0, 0.0, 0.0, 0.0, 773.6832825759986, 0.0]
['beep', 0.0, 1361.8247344284935, 0.0, 0.0, 0.0, 0.0, 771.4704598749232, 0.0]
['beep', 0.0, 1357.3096820485214, 0.0, 0.0, 0.0, 0.0, 771.1128319636383, 0.0]
['beep', 0.0, 1360.9083129058258, 0.0, 0.0, 0.0, 0.0, 772.5433436087781, 0.0]
['beep', 0.0, 1367.390318797865, 0.0, 0.0, 0.0, 0.0, 774.1303174651048, 0.0]
['beep', 0.0, 1368.9325891652811, 0.0, 0.0, 0.0, 0.0, 775.0020354988618, 0.0]
['beep', 0.0, 1363.0093768846248, 0.0, 0.0, 0.0, 0.0, 771.7833842972975, 0.0]
['beep', 0.0, 1358.3378622934656, 0.0, 0.0, 0.0, 0.0, 770.3305209077026, 0.0]
['beep', 0.0, 1362.0706036175018, 0.0, 0.0, 0.0, 0.0, 770.6657970745322, 0.0]
['beep', 0.0, 1368.7314234651833, 0.0, 0.0, 0.0, 0.0, 772.0516052307612, 0.0]
['beep', 0.0, 1368.2396850871664, 0.0, 0.0, 0.0, 0.0, 773.1691924535266, 0.0]
['beep', 0.0, 1361.8917896618593, 0.0, 0.0, 0.0, 0.0, 772.0963087196718, 0.0]
['beep', 0.0, 1358.5613797380186, 0.0, 0.0, 0.0, 0.0, 771.381052897102, 0.0]
['beep', 0.0, 1361.8470861729488, 0.0, 0.0, 0.0, 0.0, 772.833916286697, 0.0]
['beep', 0.0, 1365.713937963717, 0.0, 0.0, 0.0, 0.0, 773.1021372201607, 0.0]
['beep', 0.0, 1365.4904205191638, 0.0, 0.0, 0.0, 0.0, 772.5209918643227, 0.0]
['beep', 0.0, 1359.5672082385074, 0.0, 0.0, 0.0, 0.0, 771.8727912751187, 0.0]
['beep', 0.0, 1357.1532198373343, 0.0, 0.0, 0.0, 0.0, 770.2634656743367, 0.0]
['beep', 0.0, 1360.3942227833538, 0.0, 0.0, 0.0, 0.0, 771.3139976637361, 0.0]
['beep', 0.0, 1367.5691327535073, 0.0, 0.0, 0.0, 0.0, 770.86696277463, 0.0]
['beep', 0.0, 1367.5020775201415, 0.0, 0.0, 0.0, 0.0, 770.6434453300769, 0.0]
['beep', 0.0, 1361.1318303503788, 0.0, 0.0, 0.0, 0.0, 772.7221575644205, 0.0]
['beep', 0.0, 1357.8908274043595, 0.0, 0.0, 0.0, 0.0, 771.8280877862081, 0.0]
['beep', 0.0, 1361.7800309395827, 0.0, 0.0, 0.0, 0.0, 770.3528726521579, 0.0]
['beep', 0.0, 1367.7702984536052, 0.0, 0.0, 0.0, 0.0, 772.3421779086802, 0.0]
['beep', 0.0, 1368.0161676426135, 0.0, 0.0, 0.0, 0.0, 773.4597651314456, 0.0]
['beep', 0.0, 1362.294121062055, 0.0, 0.0, 0.0, 0.0, 771.0234249858171, 0.0]
['beep', 0.0, 1357.6002547264404, 0.0, 0.0, 0.0, 0.0, 770.5316866078003, 0.0]
['beep', 0.0, 1360.1260018498901, 0.0, 0.0, 0.0, 0.0, 771.6492738305657, 0.0]
['beep', 0.0, 1365.7809931970828, 0.0, 0.0, 0.0, 0.0, 772.5656953532333, 0.0]
['beep', 0.0, 1368.8878856763704, 0.0, 0.0, 0.0, 0.0, 771.9845499973953, 0.0]
['beep', 0.0, 1363.2328943291777, 0.0, 0.0, 0.0, 0.0, 771.8951430195741, 0.0]
['beep', 0.0, 1359.4554495162308, 0.0, 0.0, 0.0, 0.0, 771.3139976637361, 0.0]
['beep', 0.0, 1361.355347794932, 0.0, 0.0, 0.0, 0.0, 772.0516052307612, 0.0]
['beep', 0.0, 1365.0210338856023, 0.0, 0.0, 0.0, 0.0, 773.5491721092668, 0.0]
['beep', 0.0, 1365.356310052432, 0.0, 0.0, 0.0, 0.0, 774.4655936319344, 0.0]
['beep', 0.0, 1360.7965541835492, 0.0, 0.0, 0.0, 0.0, 773.3256546647137, 0.0]
['beep', 0.0, 1356.192094825756, 0.0, 0.0, 0.0, 0.0, 772.5433436087781, 0.0]
['beep', 0.0, 1359.544856494052, 0.0, 0.0, 0.0, 0.0, 773.0574337312501, 0.0]
['beep', 0.0, 1365.3339583079767, 0.0, 0.0, 0.0, 0.0, 772.5656953532333, 0.0]
['beep', 0.0, 1366.3621385529207, 0.0, 0.0, 0.0, 0.0, 771.4034046415574, 0.0]
['beep', 0.0, 1361.0871268614683, 0.0, 0.0, 0.0, 0.0, 769.4364511294904, 0.0]
['beep', 0.0, 1356.996757626147, 0.0, 0.0, 0.0, 0.0, 771.0904802191831, 0.0]
['beep', 0.0, 1359.8577809164265, 0.0, 0.0, 0.0, 0.0, 772.5880470976887, 0.0]
['beep', 0.0, 1365.1998478412447, 0.0, 0.0, 0.0, 0.0, 773.9068000205517, 0.0]
['beep', 0.0, 1365.579827496985, 0.0, 0.0, 0.0, 0.0, 774.3985383985685, 0.0]
['beep', 0.0, 1358.6060832269293, 0.0, 0.0, 0.0, 0.0, 770.7105005634428, 0.0]
['beep', 0.0, 1355.096859347446, 0.0, 0.0, 0.0, 0.0, 769.4588028739456, 0.0]
['beep', 0.0, 1359.4107460273203, 0.0, 0.0, 0.0, 0.0, 772.0069017418506, 0.0]
['beep', 0.0, 1364.3281298074878, 0.0, 0.0, 0.0, 0.0, 772.0069017418506, 0.0]
['beep', 0.0, 1365.0433856300576, 0.0, 0.0, 0.0, 0.0, 770.7775557968088, 0.0]
['beep', 0.0, 1358.9637111382142, 0.0, 0.0, 0.0, 0.0, 772.9903784978842, 0.0]
['beep', 0.0, 1354.4039552693314, 0.0, 0.0, 0.0, 0.0, 771.6045703416551, 0.0]
['beep', 0.0, 1358.1814000822783, 0.0, 0.0, 0.0, 0.0, 772.0069017418506, 0.0]
['beep', 0.0, 1365.3116065635213, 0.0, 0.0, 0.0, 0.0, 775.0467389877724, 0.0]
['beep', 0.0, 1366.6303594863844, 0.0, 0.0, 0.0, 0.0, 773.7279860649093, 0.0]
['beep', 0.0, 1360.5283332500856, 0.0, 0.0, 0.0, 0.0, 772.8562680311524, 0.0]
['beep', 0.0, 1354.0910308469572, 0.0, 0.0, 0.0, 0.0, 772.2974744197696, 0.0]
['beep', 0.0, 1358.9637111382142, 0.0, 0.0, 0.0, 0.0, 770.5316866078003, 0.0]
['beep', 0.0, 1364.3057780630324, 0.0, 0.0, 0.0, 0.0, 772.0516052307612, 0.0]
['beep', 0.0, 1365.6021792414404, 0.0, 0.0, 0.0, 0.0, 773.6832825759986, 0.0]
['beep', 0.0, 1360.0142431276136, 0.0, 0.0, 0.0, 0.0, 775.2032011989595, 0.0]
['beep', 0.0, 1356.415612270309, 0.0, 0.0, 0.0, 0.0, 774.4879453763897, 0.0]
['beep', 0.0, 1359.5895599829628, 0.0, 0.0, 0.0, 0.0, 774.1526692095601, 0.0]
['beep', 0.0, 1365.5574757525296, 0.0, 0.0, 0.0, 0.0, 774.8455732876746, 0.0]
['beep', 0.0, 1365.870400174904, 0.0, 0.0, 0.0, 0.0, 774.9573320099512, 0.0]
['beep', 0.0, 1360.0142431276136, 0.0, 0.0, 0.0, 0.0, 773.5044686203562, 0.0]
['beep', 0.0, 1355.5438942365522, 0.0, 0.0, 0.0, 0.0, 772.9903784978842, 0.0]
['beep', 0.0, 1358.740193693661, 0.0, 0.0, 0.0, 0.0, 773.1691924535266, 0.0]
['beep', 0.0, 1365.423365285798, 0.0, 0.0, 0.0, 0.0, 775.672587832521, 0.0]
['beep', 0.0, 1366.093917619457, 0.0, 0.0, 0.0, 0.0, 776.7454715663757, 0.0]
['beep', 0.0, 1360.7518506946387, 0.0, 0.0, 0.0, 0.0, 774.4432418874791, 0.0]
['beep', 0.0, 1356.8626471594152, 0.0, 0.0, 0.0, 0.0, 773.1021372201607, 0.0]
['beep', 0.0, 1359.1872285827671, 0.0, 0.0, 0.0, 0.0, 773.6162273426328, 0.0]
['beep', 0.0, 1365.0210338856023, 0.0, 0.0, 0.0, 0.0, 773.9738552539177, 0.0]
['beep', 0.0, 1365.6692344748062, 0.0, 0.0, 0.0, 0.0, 774.86792503213, 0.0]
['beep', 0.0, 1360.3942227833538, 0.0, 0.0, 0.0, 0.0, 773.8620965316411, 0.0]
['beep', 0.0, 1355.2980250475437, 0.0, 0.0, 0.0, 0.0, 773.0574337312501, 0.0]
['beep', 0.0, 1357.6226064708958, 0.0, 0.0, 0.0, 0.0, 772.029253486306, 0.0]
['beep', 0.0, 1362.5846937399738, 0.0, 0.0, 0.0, 0.0, 773.2809511758031, 0.0]
['beep', 0.0, 1363.1881908402672, 0.0, 0.0, 0.0, 0.0, 773.8620965316411, 0.0]
['beep', 0.0, 1360.6624437168175, 0.0, 0.0, 0.0, 0.0, 773.1691924535266, 0.0]
['beep', 0.0, 1356.5273709925857, 0.0, 0.0, 0.0, 0.0, 772.7892127977864, 0.0]
['beep', 0.0, 1359.0084146271247, 0.0, 0.0, 0.0, 0.0, 774.3538349096578, 0.0]
['beep', 0.0, 1364.283426318577, 0.0, 0.0, 0.0, 0.0, 776.1643262105378, 0.0]
['beep', 0.0, 1365.5574757525296, 0.0, 0.0, 0.0, 0.0, 775.8514017881635, 0.0]
['beep', 0.0, 1362.0706036175018, 0.0, 0.0, 0.0, 0.0, 775.1361459655936, 0.0]
['beep', 0.0, 1357.063812859513, 0.0, 0.0, 0.0, 0.0, 774.0632622317389, 0.0]
['beep', 0.0, 1359.7907256830604, 0.0, 0.0, 0.0, 0.0, 773.638579087088, 0.0]
['beep', 0.0, 1363.8587431739263, 0.0, 0.0, 0.0, 0.0, 774.0856139761942, 0.0]
['beep', 0.0, 1363.836391429471, 0.0, 0.0, 0.0, 0.0, 773.1915441979819, 0.0]
['beep', 0.0, 1359.5672082385074, 0.0, 0.0, 0.0, 0.0, 775.0467389877724, 0.0]
['beep', 0.0, 1355.02980411408, 0.0, 0.0, 0.0, 0.0, 772.0963087196718, 0.0]
['beep', 0.0, 1358.2931588045549, 0.0, 0.0, 0.0, 0.0, 771.9174947640294, 0.0]
['beep', 0.0, 1364.641054229862, 0.0, 0.0, 0.0, 0.0, 774.86792503213, 0.0]
['beep', 0.0, 1364.708109463228, 0.0, 0.0, 0.0, 0.0, 775.4043668990573, 0.0]
['beep', 0.0, 1359.678966960784, 0.0, 0.0, 0.0, 0.0, 773.1021372201607, 0.0]
['beep', 0.0, 1355.8121151700159, 0.0, 0.0, 0.0, 0.0, 773.8397447871859, 0.0]
['beep', 0.0, 1358.7848971825717, 0.0, 0.0, 0.0, 0.0, 774.86792503213, 0.0]
['beep', 0.0, 1364.8422199299598, 0.0, 0.0, 0.0, 0.0, 775.2032011989595, 0.0]
['beep', 0.0, 1366.0492141305465, 0.0, 0.0, 0.0, 0.0, 777.1701547110266, 0.0]
['beep', 0.0, 1360.9083129058258, 0.0, 0.0, 0.0, 0.0, 777.4607273889455, 0.0]
['beep', 0.0, 1356.0356326145688, 0.0, 0.0, 0.0, 0.0, 777.6842448334986, 0.0]
['beep', 0.0, 1358.7848971825717, 0.0, 0.0, 0.0, 0.0, 777.1478029665712, 0.0]
['beep', 0.0, 1364.8198681855044, 0.0, 0.0, 0.0, 0.0, 780.0982332346717, 0.0]
['beep', 0.0, 1367.4573740312308, 0.0, 0.0, 0.0, 0.0, 781.931076280007, 0.0]
['beep', 0.0, 1365.0880891189681, 0.0, 0.0, 0.0, 0.0, 783.0039600138617, 0.0]
['beep', 0.0, 1357.1979233262448, 0.0, 0.0, 0.0, 0.0, 783.6298088586103, 0.0]
['beep', 0.0, 1354.8509901584375, 0.0, 0.0, 0.0, 0.0, 786.8931635490851, 0.0]
['beep', 0.0, 1358.7625454381164, 0.0, 0.0, 0.0, 0.0, 790.4023874285683, 0.0]
['beep', 0.0, 1362.6517489733399, 0.0, 0.0, 0.0, 0.0, 794.8503845751744, 0.0]
['beep', 0.0, 1361.4224030282978, 0.0, 0.0, 0.0, 0.0, 798.9407538104956, 0.0]
['beep', 0.0, 1357.1085163484236, 0.0, 0.0, 0.0, 0.0, 802.0699980342387, 0.0]
['beep', 0.0, 1358.1366965933678, 0.0, 0.0, 0.0, 0.0, 804.5957451576884, 0.0]
['beep', 0.0, 1365.0880891189681, 0.0, 0.0, 0.0, 0.0, 810.5636609272553, 0.0]
['beep', 0.0, 1366.5409525085631, 0.0, 0.0, 0.0, 0.0, 812.7541318838754, 0.0]
['beep', 0.0, 1358.1590483378232, 0.0, 0.0, 0.0, 0.0, 815.9057278520737, 0.0]
['beep', 0.0, 1353.1299058353788, 0.0, 0.0, 0.0, 0.0, 816.7774458858307, 0.0]
['beep', 0.0, 1353.9792721246806, 0.0, 0.0, 0.0, 0.0, 820.8901668656072, 0.0]
['beep', 0.0, 1357.6896617042617, 0.0, 0.0, 0.0, 0.0, 823.4159139890569, 0.0]
['beep', 0.0, 1358.6284349713844, 0.0, 0.0, 0.0, 0.0, 827.6403936911099, 0.0]
['beep', 0.0, 1352.3028912905327, 0.0, 0.0, 0.0, 0.0, 827.863911135663, 0.0]
['beep', 0.0, 1346.4243824987868, 0.0, 0.0, 0.0, 0.0, 830.2108443034703, 0.0]
['beep', 0.0, 1346.9384726212588, 0.0, 0.0, 0.0, 0.0, 834.5247309833445, 0.0]
['beep', 0.0, 1352.7499261796388, 0.0, 0.0, 0.0, 0.0, 834.9047106390847, 0.0]
['beep', 0.0, 1355.4768390031861, 0.0, 0.0, 0.0, 0.0, 836.5587397287775, 0.0]
['beep', 0.0, 1350.067716845002, 0.0, 0.0, 0.0, 0.0, 836.4916844954115, 0.0]
['beep', 0.0, 1345.0385743425577, 0.0, 0.0, 0.0, 0.0, 838.2574723073808, 0.0]
['beep', 0.0, 1347.6537284438286, 0.0, 0.0, 0.0, 0.0, 843.8230566767522, 0.0]
['beep', 0.0, 1350.8947313898482, 0.0, 0.0, 0.0, 0.0, 845.4323822775343, 0.0]
['beep', 0.0, 1349.6877371892617, 0.0, 0.0, 0.0, 0.0, 845.9464724000064, 0.0]
['beep', 0.0, 1343.5410074640522, 0.0, 0.0, 0.0, 0.0, 847.8240189342522, 0.0]
['beep', 0.0, 1339.1377138063567, 0.0, 0.0, 0.0, 0.0, 851.1320771136376, 0.0]
['beep', 0.0, 1340.2105975402114, 0.0, 0.0, 0.0, 0.0, 852.8978649256069, 0.0]
['beep', 0.0, 1346.8490656434376, 0.0, 0.0, 0.0, 0.0, 856.1388678716264, 0.0]
['beep', 0.0, 1347.2737487880886, 0.0, 0.0, 0.0, 0.0, 858.0611178947828, 0.0]
['beep', 0.0, 1342.065792330002, 0.0, 0.0, 0.0, 0.0, 859.2457603509141, 0.0]
['beep', 0.0, 1336.7013736607282, 0.0, 0.0, 0.0, 0.0, 860.3186440847688, 0.0]
['beep', 0.0, 1336.7907806385494, 0.0, 0.0, 0.0, 0.0, 863.4031848196012, 0.0]
['beep', 0.0, 1341.6858126742618, 0.0, 0.0, 0.0, 0.0, 866.957112187995, 0.0]
['beep', 0.0, 1341.0823155739683, 0.0, 0.0, 0.0, 0.0, 869.4381558225341, 0.0]
['beep', 0.0, 1335.6955451602394, 0.0, 0.0, 0.0, 0.0, 870.4663360674782, 0.0]
['beep', 0.0, 1334.6003096819295, 0.0, 0.0, 0.0, 0.0, 869.8851907116402, 0.0]
['beep', 0.0, 1336.2766905160775, 0.0, 0.0, 0.0, 0.0, 871.0698331677715, 0.0]
['beep', 0.0, 1340.970556851692, 0.0, 0.0, 0.0, 0.0, 875.2049058920034, 0.0]
['beep', 0.0, 1341.350536507432, 0.0, 0.0, 0.0, 0.0, 877.5071355709, 0.0]
['beep', 0.0, 1335.8743591158818, 0.0, 0.0, 0.0, 0.0, 879.2058681495033, 0.0]
['beep', 0.0, 1331.2475480136334, 0.0, 0.0, 0.0, 0.0, 879.0494059383161, 0.0]
['beep', 0.0, 1335.9190626047925, 0.0, 0.0, 0.0, 0.0, 881.1951734060257, 0.0]
['beep', 0.0, 1342.2222545411892, 0.0, 0.0, 0.0, 0.0, 881.0834146837491, 0.0]
['beep', 0.0, 1342.065792330002, 0.0, 0.0, 0.0, 0.0, 882.6480367956206, 0.0]
['beep', 0.0, 1337.5060364611193, 0.0, 0.0, 0.0, 0.0, 884.8161560077854, 0.0]
['beep', 0.0, 1333.2145015257004, 0.0, 0.0, 0.0, 0.0, 885.5090600858999, 0.0]
['beep', 0.0, 1334.5109027041083, 0.0, 0.0, 0.0, 0.0, 887.2524961534139, 0.0]
['beep', 0.0, 1340.7023359182283, 0.0, 0.0, 0.0, 0.0, 889.3312083877574, 0.0]
['beep', 0.0, 1345.6420714428511, 0.0, 0.0, 0.0, 0.0, 889.666484554587, 0.0]
['beep', 0.0, 1340.612928940407, 0.0, 0.0, 0.0, 0.0, 890.2252781659697, 0.0]
['beep', 0.0, 1333.192149781245, 0.0, 0.0, 0.0, 0.0, 893.3545223897127, 0.0]
['beep', 0.0, 1334.4438474707422, 0.0, 0.0, 0.0, 0.0, 896.0814352132602, 0.0]
['beep', 0.0, 1344.4350772422645, 0.0, 0.0, 0.0, 0.0, 899.3000864148244, 0.0]
['beep', 0.0, 1349.5089232336193, 0.0, 0.0, 0.0, 0.0, 899.3894933926456, 0.0]
['beep', 0.0, 1342.7363446636612, 0.0, 0.0, 0.0, 0.0, 900.9094120156064, 0.0]
['beep', 0.0, 1333.7062399037172, 0.0, 0.0, 0.0, 0.0, 903.5916213502434, 0.0]
['beep', 0.0, 1337.260167272111, 0.0, 0.0, 0.0, 0.0, 905.4915196289444, 0.0]
['beep', 0.0, 1349.0395366000578, 0.0, 0.0, 0.0, 0.0, 906.4973481294332, 0.0]
['beep', 0.0, 1349.9559581227254, 0.0, 0.0, 0.0, 0.0, 908.956040019517, 0.0]
['beep', 0.0, 1340.2553010291222, 0.0, 0.0, 0.0, 0.0, 907.9055080301176, 0.0]
['beep', 0.0, 1334.64501317084, 0.0, 0.0, 0.0, 0.0, 909.5595371198103, 0.0]
['beep', 0.0, 1341.2611295296108, 0.0, 0.0, 0.0, 0.0, 914.633383111165, 0.0]
['beep', 0.0, 1351.9229116347924, 0.0, 0.0, 0.0, 0.0, 917.6732203570867, 0.0]
['beep', 0.0, 1353.3087197910213, 0.0, 0.0, 0.0, 0.0, 917.1591302346147, 0.0]
['beep', 0.0, 1346.5584929655188, 0.0, 0.0, 0.0, 0.0, 918.4108279241119, 0.0]
['beep', 0.0, 1340.7917428960495, 0.0, 0.0, 0.0, 0.0, 918.6790488575756, 0.0]
['beep', 0.0, 1344.546835964541, 0.0, 0.0, 0.0, 0.0, 919.6401738691538, 0.0]
['beep', 0.0, 1347.7878389105606, 0.0, 0.0, 0.0, 0.0, 923.6411361266538, 0.0]
['beep', 0.0, 1347.452562743731, 0.0, 0.0, 0.0, 0.0, 924.6693163715979, 0.0]
['beep', 0.0, 1345.3067952760214, 0.0, 0.0, 0.0, 0.0, 924.4681506715001, 0.0]
['beep', 0.0, 1343.7645249086054, 0.0, 0.0, 0.0, 0.0, 924.244633226947, 0.0]
['beep', 0.0, 1342.2669580300997, 0.0, 0.0, 0.0, 0.0, 925.8986623166397, 0.0]
['beep', 0.0, 1347.0949348324461, 0.0, 0.0, 0.0, 0.0, 929.4525896850336, 0.0]
['beep', 0.0, 1352.3699465238985, 0.0, 0.0, 0.0, 0.0, 932.4700751865, 0.0]
['beep', 0.0, 1347.6090249549181, 0.0, 0.0, 0.0, 0.0, 932.2242059974917, 0.0]
['beep', 0.0, 1340.5682254514963, 0.0, 0.0, 0.0, 0.0, 930.5925286522543, 0.0]
['beep', 0.0, 1343.7198214196947, 0.0, 0.0, 0.0, 0.0, 933.8111798538184, 0.0]
['beep', 0.0, 1355.6333012143734, 0.0, 0.0, 0.0, 0.0, 938.0580113003268, 0.0]
['beep', 0.0, 1357.3767372818872, 0.0, 0.0, 0.0, 0.0, 939.309708989824, 0.0]
['beep', 0.0, 1347.7654871661052, 0.0, 0.0, 0.0, 0.0, 938.1250665336927, 0.0]
['beep', 0.0, 1340.7246876626834, 0.0, 0.0, 0.0, 0.0, 940.5390549348659, 0.0]
['beep', 0.0, 1344.3680220088986, 0.0, 0.0, 0.0, 0.0, 940.8743311016955, 0.0]
['beep', 0.0, 1349.6877371892617, 0.0, 0.0, 0.0, 0.0, 941.6789939020865, 0.0]
['beep', 0.0, 1351.9452633792478, 0.0, 0.0, 0.0, 0.0, 945.1435142926591, 0.0]
['beep', 0.0, 1350.581806967474, 0.0, 0.0, 0.0, 0.0, 946.9987090824496, 0.0]
['beep', 0.0, 1347.8772458883818, 0.0, 0.0, 0.0, 0.0, 947.5127992049217, 0.0]
['beep', 0.0, 1347.385507510365, 0.0, 0.0, 0.0, 0.0, 948.4739242164999, 0.0]
['beep', 0.0, 1349.643033700351, 0.0, 0.0, 0.0, 0.0, 951.9384446070725, 0.0]
['beep', 0.0, 1351.5876354679629, 0.0, 0.0, 0.0, 0.0, 953.9277498635948, 0.0]
['beep', 0.0, 1349.7994959115383, 0.0, 0.0, 0.0, 0.0, 951.4914097179663, 0.0]
['beep', 0.0, 1346.2008650542339, 0.0, 0.0, 0.0, 0.0, 951.6478719291536, 0.0]
['beep', 0.0, 1347.5866732104628, 0.0, 0.0, 0.0, 0.0, 954.9782818529942, 0.0]
['beep', 0.0, 1355.3650802809098, 0.0, 0.0, 0.0, 0.0, 956.632310942687, 0.0]
['beep', 0.0, 1360.058946616524, 0.0, 0.0, 0.0, 0.0, 959.403927255145, 0.0]
['beep', 0.0, 1358.069641360002, 0.0, 0.0, 0.0, 0.0, 961.1920668115696, 0.0]
['beep', 0.0, 1353.1522575798342, 0.0, 0.0, 0.0, 0.0, 959.403927255145, 0.0]
['beep', 0.0, 1353.487533746664, 0.0, 0.0, 0.0, 0.0, 958.4204504991116, 0.0]
['beep', 0.0, 1359.0531181160354, 0.0, 0.0, 0.0, 0.0, 961.3932325116674, 0.0]
['beep', 0.0, 1360.3942227833538, 0.0, 0.0, 0.0, 0.0, 962.3096540343349, 0.0]
['beep', 0.0, 1357.5108477486192, 0.0, 0.0, 0.0, 0.0, 962.600226712254, 0.0]
['beep', 0.0, 1352.8616849019152, 0.0, 0.0, 0.0, 0.0, 962.600226712254, 0.0]
['beep', 0.0, 1354.7839349250717, 0.0, 0.0, 0.0, 0.0, 964.0754418463042, 0.0]
['beep', 0.0, 1359.254283816133, 0.0, 0.0, 0.0, 0.0, 966.0870988472818, 0.0]
['beep', 0.0, 1359.3436907939542, 0.0, 0.0, 0.0, 0.0, 966.8023546698516, 0.0]
['beep', 0.0, 1360.058946616524, 0.0, 0.0, 0.0, 0.0, 964.4330697575891, 0.0]
['beep', 0.0, 1356.0579843590242, 0.0, 0.0, 0.0, 0.0, 964.2989592908573, 0.0]
['beep', 0.0, 1356.1697430813008, 0.0, 0.0, 0.0, 0.0, 966.9588168810388, 0.0]
['beep', 0.0, 1361.645920472851, 0.0, 0.0, 0.0, 0.0, 967.5176104924216, 0.0]
['beep', 0.0, 1366.2950833195548, 0.0, 0.0, 0.0, 0.0, 966.3553197807455, 0.0]
['beep', 0.0, 1361.869437917404, 0.0, 0.0, 0.0, 0.0, 963.7178139350193, 0.0]
['beep', 0.0, 1355.4991907476415, 0.0, 0.0, 0.0, 0.0, 962.5778749677986, 0.0]
['beep', 0.0, 1357.8908274043595, 0.0, 0.0, 0.0, 0.0, 965.2377325579802, 0.0]
['beep', 0.0, 1364.5516472520408, 0.0, 0.0, 0.0, 0.0, 967.1376308366813, 0.0]
['beep', 0.0, 1363.9257984072922, 0.0, 0.0, 0.0, 0.0, 966.0647471028266, 0.0]
['beep', 0.0, 1356.6838332037728, 0.0, 0.0, 0.0, 0.0, 965.7518226804523, 0.0]
['beep', 0.0, 1354.64982445834, 0.0, 0.0, 0.0, 0.0, 963.7625174239299, 0.0]
['beep', 0.0, 1360.3048158055326, 0.0, 0.0, 0.0, 0.0, 963.5837034682875, 0.0]
['beep', 0.0, 1364.7528129521386, 0.0, 0.0, 0.0, 0.0, 967.0705756033153, 0.0]
['beep', 0.0, 1364.1046123629346, 0.0, 0.0, 0.0, 0.0, 965.95298838055, 0.0]
['beep', 0.0, 1357.3320337929767, 0.0, 0.0, 0.0, 0.0, 964.8354011577846, 0.0]
['beep', 0.0, 1354.1357343358677, 0.0, 0.0, 0.0, 0.0, 964.1201453352148, 0.0]
['beep', 0.0, 1356.5050192481303, 0.0, 0.0, 0.0, 0.0, 965.7741744249075, 0.0]
['beep', 0.0, 1362.741155951161, 0.0, 0.0, 0.0, 0.0, 964.5001249909551, 0.0]
['beep', 0.0, 1366.2056763417336, 0.0, 0.0, 0.0, 0.0, 965.6847674470863, 0.0]
['beep', 0.0, 1362.4058797843313, 0.0, 0.0, 0.0, 0.0, 963.6507587016534, 0.0]
['beep', 0.0, 1353.9792721246806, 0.0, 0.0, 0.0, 0.0, 963.4272412571004, 0.0]
['beep', 0.0, 1355.1415628363566, 0.0, 0.0, 0.0, 0.0, 964.3883662686785, 0.0]
['beep', 0.0, 1363.1434873513565, 0.0, 0.0, 0.0, 0.0, 965.7518226804523, 0.0]
['beep', 0.0, 1364.931626907781, 0.0, 0.0, 0.0, 0.0, 966.4894302474773, 0.0]
['beep', 0.0, 1359.3436907939542, 0.0, 0.0, 0.0, 0.0, 964.3213110353126, 0.0]
['beep', 0.0, 1354.0686791025018, 0.0, 0.0, 0.0, 0.0, 964.209552313036, 0.0]
['beep', 0.0, 1355.0745076029907, 0.0, 0.0, 0.0, 0.0, 964.6118837132316, 0.0]
['beep', 0.0, 1361.288292561566, 0.0, 0.0, 0.0, 0.0, 964.0083866129384, 0.0]
['beep', 0.0, 1364.6187024854069, 0.0, 0.0, 0.0, 0.0, 963.986034868483, 0.0]
['beep', 0.0, 1360.84125767246, 0.0, 0.0, 0.0, 0.0, 963.2931307903684, 0.0]
['beep', 0.0, 1357.7790686820829, 0.0, 0.0, 0.0, 0.0, 960.9461976225613, 0.0]
['beep', 0.0, 1362.4729350176974, 0.0, 0.0, 0.0, 0.0, 961.6167499562205, 0.0]
['beep', 0.0, 1368.6643682318174, 0.0, 0.0, 0.0, 0.0, 963.9413313795724, 0.0]
['beep', 0.0, 1366.2056763417336, 0.0, 0.0, 0.0, 0.0, 964.4554215020445, 0.0]
['beep', 0.0, 1359.5225047495967, 0.0, 0.0, 0.0, 0.0, 960.5885697112764, 0.0]
['beep', 0.0, 1356.929702392781, 0.0, 0.0, 0.0, 0.0, 961.2367703004802, 0.0]
['beep', 0.0, 1359.5225047495967, 0.0, 0.0, 0.0, 0.0, 962.5108197344327, 0.0]
['beep', 0.0, 1365.8480484304487, 0.0, 0.0, 0.0, 0.0, 963.8295726572959, 0.0]
['beep', 0.0, 1367.8820571758815, 0.0, 0.0, 0.0, 0.0, 964.5001249909551, 0.0]
['beep', 0.0, 1363.1881908402672, 0.0, 0.0, 0.0, 0.0, 961.5496947228545, 0.0]
['beep', 0.0, 1359.3660425384096, 0.0, 0.0, 0.0, 0.0, 958.7333749214858, 0.0]
['beep', 0.0, 1362.517638506608, 0.0, 0.0, 0.0, 0.0, 960.2979970333573, 0.0]
['beep', 0.0, 1365.423365285798, 0.0, 0.0, 0.0, 0.0, 961.147363322659, 0.0]
['beep', 0.0, 1366.675062975295, 0.0, 0.0, 0.0, 0.0, 961.2814737893908, 0.0]
['beep', 0.0, 1366.4962490196526, 0.0, 0.0, 0.0, 0.0, 960.7450319224635, 0.0]
['beep', 0.0, 1360.6400919723621, 0.0, 0.0, 0.0, 0.0, 961.0356046003825, 0.0]
['beep', 0.0, 1358.7625454381164, 0.0, 0.0, 0.0, 0.0, 959.985072610983, 0.0]
['beep', 0.0, 1366.7644699531163, 0.0, 0.0, 0.0, 0.0, 961.5496947228545, 0.0]
['beep', 0.0, 1370.5642665105186, 0.0, 0.0, 0.0, 0.0, 961.5943982117651, 0.0]
['beep', 0.0, 1363.03172862908, 0.0, 0.0, 0.0, 0.0, 960.1415348221702, 0.0]
['beep', 0.0, 1356.773240181594, 0.0, 0.0, 0.0, 0.0, 959.0686510883154, 0.0]
['beep', 0.0, 1359.9918913831582, 0.0, 0.0, 0.0, 0.0, 958.9345406215836, 0.0]
['beep', 0.0, 1364.12696410739, 0.0, 0.0, 0.0, 0.0, 959.2027615550472, 0.0]
['beep', 0.0, 1364.283426318577, 0.0, 0.0, 0.0, 0.0, 960.5438662223658, 0.0]
['beep', 0.0, 1362.8752664178928, 0.0, 0.0, 0.0, 0.0, 957.727546420997, 0.0]
['beep', 0.0, 1358.1814000822783, 0.0, 0.0, 0.0, 0.0, 955.5594272088323, 0.0]
['beep', 0.0, 1359.9918913831582, 0.0, 0.0, 0.0, 0.0, 956.7664214094189, 0.0]
['beep', 0.0, 1366.1162693639124, 0.0, 0.0, 0.0, 0.0, 958.308691776835, 0.0]
['beep', 0.0, 1369.647844987851, 0.0, 0.0, 0.0, 0.0, 956.8111248983295, 0.0]
['beep', 0.0, 1365.065737374513, 0.0, 0.0, 0.0, 0.0, 956.408793498134, 0.0]
['beep', 0.0, 1361.645920472851, 0.0, 0.0, 0.0, 0.0, 954.0618603303267, 0.0]
['beep', 0.0, 1362.0259001285913, 0.0, 0.0, 0.0, 0.0, 953.7042324190418, 0.0]
['beep', 0.0, 1364.931626907781, 0.0, 0.0, 0.0, 0.0, 953.7712876524076, 0.0]
['beep', 0.0, 1366.876228675393, 0.0, 0.0, 0.0, 0.0, 953.8830463746842, 0.0]
['beep', 0.0, 1364.5292955075856, 0.0, 0.0, 0.0, 0.0, 953.212494041025, 0.0]
['beep', 0.0, 1358.7848971825717, 0.0, 0.0, 0.0, 0.0, 951.2678922734133, 0.0]
['beep', 0.0, 1358.7178419492056, 0.0, 0.0, 0.0, 0.0, 950.2620637729244, 0.0]
['beep', 0.0, 1366.0492141305465, 0.0, 0.0, 0.0, 0.0, 952.6089969407317, 0.0]
['beep', 0.0, 1369.1337548653787, 0.0, 0.0, 0.0, 0.0, 954.5759504527987, 0.0]
['beep', 0.0, 1363.098783862446, 0.0, 0.0, 0.0, 0.0, 953.9948050969607, 0.0]
['beep', 0.0, 1359.1648768383118, 0.0, 0.0, 0.0, 0.0, 952.5642934518211, 0.0]
['beep', 0.0, 1362.1376588508676, 0.0, 0.0, 0.0, 0.0, 951.1561335511367, 0.0]
['beep', 0.0, 1366.093917619457, 0.0, 0.0, 0.0, 0.0, 952.1619620516256, 0.0]
['beep', 0.0, 1366.4291937862868, 0.0, 0.0, 0.0, 0.0, 953.1007353187484, 0.0]
['beep', 0.0, 1362.4058797843313, 0.0, 0.0, 0.0, 0.0, 953.0336800853826, 0.0]
['beep', 0.0, 1356.7061849482282, 0.0, 0.0, 0.0, 0.0, 953.0560318298378, 0.0]
['beep', 0.0, 1358.2708070600995, 0.0, 0.0, 0.0, 0.0, 951.1337818066814, 0.0]
['beep', 0.0, 1363.1658390958119, 0.0, 0.0, 0.0, 0.0, 952.0949068182597, 0.0]
['beep', 0.0, 1366.6974147197504, 0.0, 0.0, 0.0, 0.0, 953.6371771856758, 0.0]
['beep', 0.0, 1362.6293972288845, 0.0, 0.0, 0.0, 0.0, 951.75963065143, 0.0]
['beep', 0.0, 1355.9909291256583, 0.0, 0.0, 0.0, 0.0, 949.7256219059971, 0.0]
['beep', 0.0, 1354.2698448025997, 0.0, 0.0, 0.0, 0.0, 950.306767261835, 0.0]
['beep', 0.0, 1358.2708070600995, 0.0, 0.0, 0.0, 0.0, 950.9326161065836, 0.0]
['beep', 0.0, 1364.484592018675, 0.0, 0.0, 0.0, 0.0, 951.4243544846005, 0.0]
['beep', 0.0, 1363.1434873513565, 0.0, 0.0, 0.0, 0.0, 950.2397120284692, 0.0]
['beep', 0.0, 1357.130868092879, 0.0, 0.0, 0.0, 0.0, 948.4515724720446, 0.0]
['beep', 0.0, 1357.2202750707002, 0.0, 0.0, 0.0, 0.0, 947.825723627296, 0.0]
['beep', 0.0, 1362.5846937399738, 0.0, 0.0, 0.0, 0.0, 950.0385463283714, 0.0]
['beep', 0.0, 1364.1716675963007, 0.0, 0.0, 0.0, 0.0, 950.6420434286647, 0.0]
['beep', 0.0, 1359.0531181160354, 0.0, 0.0, 0.0, 0.0, 950.9773195954942, 0.0]
['beep', 0.0, 1354.5380657360633, 0.0, 0.0, 0.0, 0.0, 949.3009387613463, 0.0]
['beep', 0.0, 1357.7567169376275, 0.0, 0.0, 0.0, 0.0, 951.3796509956899, 0.0]
['beep', 0.0, 1365.1327926078789, 0.0, 0.0, 0.0, 0.0, 953.9277498635948, 0.0]
['beep', 0.0, 1367.7926501980603, 0.0, 0.0, 0.0, 0.0, 953.9053981191395, 0.0]
['beep', 0.0, 1362.1376588508676, 0.0, 0.0, 0.0, 0.0, 952.9442731075613, 0.0]
['beep', 0.0, 1356.6838332037728, 0.0, 0.0, 0.0, 0.0, 952.8325143852848, 0.0]
['beep', 0.0, 1357.2649785596107, 0.0, 0.0, 0.0, 0.0, 953.8159911413182, 0.0]
['beep', 0.0, 1361.645920472851, 0.0, 0.0, 0.0, 0.0, 955.1570958086367, 0.0]
['beep', 0.0, 1361.288292561566, 0.0, 0.0, 0.0, 0.0, 955.6935376755641, 0.0]
['beep', 0.0, 1355.7674116811052, 0.0, 0.0, 0.0, 0.0, 955.9841103534831, 0.0]
['beep', 0.0, 1351.0288418565801, 0.0, 0.0, 0.0, 0.0, 953.3242527633015, 0.0]
['beep', 0.0, 1354.1133825914126, 0.0, 0.0, 0.0, 0.0, 952.8995696186507, 0.0]
['beep', 0.0, 1363.7916879405605, 0.0, 0.0, 0.0, 0.0, 955.8499998867512, 0.0]
['beep', 0.0, 1363.3893565403648, 0.0, 0.0, 0.0, 0.0, 956.6546626871423, 0.0]
['beep', 0.0, 1355.2756733030885, 0.0, 0.0, 0.0, 0.0, 955.3582615087345, 0.0]
['beep', 0.0, 1349.3077575335215, 0.0, 0.0, 0.0, 0.0, 955.6488341866535, 0.0]
['beep', 0.0, 1351.6323389568734, 0.0, 0.0, 0.0, 0.0, 955.7382411644747, 0.0]
['beep', 0.0, 1359.6566152163286, 0.0, 0.0, 0.0, 0.0, 956.6993661760529, 0.0]
['beep', 0.0, 1361.7800309395827, 0.0, 0.0, 0.0, 0.0, 955.6711859311088, 0.0]
['beep', 0.0, 1355.9462256367476, 0.0, 0.0, 0.0, 0.0, 956.1405725646703, 0.0]
['beep', 0.0, 1351.2970627900438, 0.0, 0.0, 0.0, 0.0, 957.5487324653545, 0.0]
['beep', 0.0, 1351.7888011680604, 0.0, 0.0, 0.0, 0.0, 956.341738264768, 0.0]
['beep', 0.0, 1357.6002547264404, 0.0, 0.0, 0.0, 0.0, 958.9792441104942, 0.0]
['beep', 0.0, 1361.869437917404, 0.0, 0.0, 0.0, 0.0, 959.8733138887065, 0.0]
['beep', 0.0, 1356.6614814593174, 0.0, 0.0, 0.0, 0.0, 959.5827412107875, 0.0]
['beep', 0.0, 1350.2688825450996, 0.0, 0.0, 0.0, 0.0, 958.0628225878266, 0.0]
['beep', 0.0, 1348.2348737996667, 0.0, 0.0, 0.0, 0.0, 959.2921685328685, 0.0]
['beep', 0.0, 1354.292196547055, 0.0, 0.0, 0.0, 0.0, 962.5555232233434, 0.0]
['beep', 0.0, 1361.6235687283956, 0.0, 0.0, 0.0, 0.0, 964.8130494133294, 0.0]
['beep', 0.0, 1357.4884960041638, 0.0, 0.0, 0.0, 0.0, 963.6284069571981, 0.0]
['beep', 0.0, 1348.1007633329348, 0.0, 0.0, 0.0, 0.0, 959.5827412107875, 0.0]
['beep', 0.0, 1348.9277778777812, 0.0, 0.0, 0.0, 0.0, 962.3096540343349, 0.0]
['beep', 0.0, 1356.2815018035772, 0.0, 0.0, 0.0, 0.0, 964.2989592908573, 0.0]
['beep', 0.0, 1358.0025861266358, 0.0, 0.0, 0.0, 0.0, 964.1424970796702, 0.0]
['beep', 0.0, 1353.6216442133957, 0.0, 0.0, 0.0, 0.0, 960.4321075000892, 0.0]
['beep', 0.0, 1349.4418680002534, 0.0, 0.0, 0.0, 0.0, 960.5215144779104, 0.0]
['beep', 0.0, 1353.845161657949, 0.0, 0.0, 0.0, 0.0, 963.0249098569047, 0.0]
['beep', 0.0, 1357.7343651931722, 0.0, 0.0, 0.0, 0.0, 964.8130494133294, 0.0]
['beep', 0.0, 1360.1707053388006, 0.0, 0.0, 0.0, 0.0, 963.4272412571004, 0.0]
['beep', 0.0, 1357.7567169376275, 0.0, 0.0, 0.0, 0.0, 964.5895319687763, 0.0]
['beep', 0.0, 1354.7615831806163, 0.0, 0.0, 0.0, 0.0, 964.5448284798657, 0.0]
['beep', 0.0, 1355.678004703284, 0.0, 0.0, 0.0, 0.0, 964.6118837132316, 0.0]
['beep', 0.0, 1359.678966960784, 0.0, 0.0, 0.0, 0.0, 964.5448284798657, 0.0]
['beep', 0.0, 1358.6284349713844, 0.0, 0.0, 0.0, 0.0, 965.7518226804523, 0.0]
['beep', 0.0, 1351.9899668681583, 0.0, 0.0, 0.0, 0.0, 964.5001249909551, 0.0]
['beep', 0.0, 1345.999699354136, 0.0, 0.0, 0.0, 0.0, 962.9131511346283, 0.0]
['beep', 0.0, 1348.2795772885772, 0.0, 0.0, 0.0, 0.0, 963.2484273014578, 0.0]
['beep', 0.0, 1354.9180453918036, 0.0, 0.0, 0.0, 0.0, 964.9471598800612, 0.0]
['beep', 0.0, 1354.64982445834, 0.0, 0.0, 0.0, 0.0, 965.5953604692651, 0.0]
['beep', 0.0, 1348.2795772885772, 0.0, 0.0, 0.0, 0.0, 965.9753401250053, 0.0]
['beep', 0.0, 1344.9938708536472, 0.0, 0.0, 0.0, 0.0, 963.7178139350193, 0.0]
['beep', 0.0, 1348.8830743888707, 0.0, 0.0, 0.0, 0.0, 964.4554215020445, 0.0]
['beep', 0.0, 1354.4933622471526, 0.0, 0.0, 0.0, 0.0, 965.8859331471841, 0.0]
['beep', 0.0, 1353.1075540909237, 0.0, 0.0, 0.0, 0.0, 965.8412296582735, 0.0]
['beep', 0.0, 1345.3291470204767, 0.0, 0.0, 0.0, 0.0, 966.7352994364858, 0.0]
['beep', 0.0, 1339.9200248622924, 0.0, 0.0, 0.0, 0.0, 964.7236424355082, 0.0]
['beep', 0.0, 1344.546835964541, 0.0, 0.0, 0.0, 0.0, 965.0812703467931, 0.0]
['beep', 0.0, 1353.6663477023064, 0.0, 0.0, 0.0, 0.0, 965.7294709359969, 0.0]
['beep', 0.0, 1356.3262052924879, 0.0, 0.0, 0.0, 0.0, 967.3164447923238, 0.0]
['beep', 0.0, 1351.8111529125158, 0.0, 0.0, 0.0, 0.0, 967.3387965367791, 0.0]
['beep', 0.0, 1344.9715191091918, 0.0, 0.0, 0.0, 0.0, 966.2659128029243, 0.0]
['beep', 0.0, 1345.7761819095829, 0.0, 0.0, 0.0, 0.0, 965.7071191915417, 0.0]
['beep', 0.0, 1352.9734436241918, 0.0, 0.0, 0.0, 0.0, 966.2882645473796, 0.0]
['beep', 0.0, 1352.705222690728, 0.0, 0.0, 0.0, 0.0, 967.0929273477707, 0.0]
['beep', 0.0, 1344.2339115421667, 0.0, 0.0, 0.0, 0.0, 966.6235407142092, 0.0]
['beep', 0.0, 1339.0483068285355, 0.0, 0.0, 0.0, 0.0, 965.6177122137204, 0.0]
['beep', 0.0, 1339.8976731178373, 0.0, 0.0, 0.0, 0.0, 968.2552180594466, 0.0]
['beep', 0.0, 1348.4360394997645, 0.0, 0.0, 0.0, 0.0, 970.1551163381478, 0.0]
['beep', 0.0, 1354.5827692249738, 0.0, 0.0, 0.0, 0.0, 968.0093488704383, 0.0]
['beep', 0.0, 1351.2076558122226, 0.0, 0.0, 0.0, 0.0, 966.9141133921282, 0.0]
['beep', 0.0, 1343.3621935084097, 0.0, 0.0, 0.0, 0.0, 967.0035203699495, 0.0]
['beep', 0.0, 1343.0716208304907, 0.0, 0.0, 0.0, 0.0, 966.824706414307, 0.0]
['beep', 0.0, 1348.4583912442197, 0.0, 0.0, 0.0, 0.0, 968.0764041038042, 0.0]
['beep', 0.0, 1354.6274727138846, 0.0, 0.0, 0.0, 0.0, 970.1327645936924, 0.0]
['beep', 0.0, 1351.1182488344014, 0.0, 0.0, 0.0, 0.0, 969.4622122600332, 0.0]
['beep', 0.0, 1346.5361412210634, 0.0, 0.0, 0.0, 0.0, 968.85871515974, 0.0]
['beep', 0.0, 1346.8267138989825, 0.0, 0.0, 0.0, 0.0, 969.6410262156757, 0.0]
['beep', 0.0, 1353.9345686357701, 0.0, 0.0, 0.0, 0.0, 971.4515175165556, 0.0]
['beep', 0.0, 1357.7567169376275, 0.0, 0.0, 0.0, 0.0, 971.1609448386365, 0.0]
['beep', 0.0, 1351.1853040677672, 0.0, 0.0, 0.0, 0.0, 970.177468082603, 0.0]
['beep', 0.0, 1345.1056295759238, 0.0, 0.0, 0.0, 0.0, 970.8927239051728, 0.0]
['beep', 0.0, 1345.485609231664, 0.0, 0.0, 0.0, 0.0, 970.2668750604242, 0.0]
['beep', 0.0, 1351.3417662789543, 0.0, 0.0, 0.0, 0.0, 971.4068140276449, 0.0]
['beep', 0.0, 1354.5380657360633, 0.0, 0.0, 0.0, 0.0, 971.7644419389298, 0.0]
['beep', 0.0, 1352.9734436241918, 0.0, 0.0, 0.0, 0.0, 972.7255669505081, 0.0]
['beep', 0.0, 1349.4418680002534, 0.0, 0.0, 0.0, 0.0, 970.758613438441, 0.0]
['beep', 0.0, 1350.3359377784657, 0.0, 0.0, 0.0, 0.0, 971.4738692610109, 0.0]
['beep', 0.0, 1355.320376791999, 0.0, 0.0, 0.0, 0.0, 972.9490843950612, 0.0]
['beep', 0.0, 1356.929702392781, 0.0, 0.0, 0.0, 0.0, 972.4796977614997, 0.0]
['beep', 0.0, 1353.196961068745, 0.0, 0.0, 0.0, 0.0, 969.1939913265695, 0.0]
['beep', 0.0, 1349.3301092779768, 0.0, 0.0, 0.0, 0.0, 969.5292674933992, 0.0]
['beep', 0.0, 1348.614853455407, 0.0, 0.0, 0.0, 0.0, 969.596322726765, 0.0]
['beep', 0.0, 1352.5264087350856, 0.0, 0.0, 0.0, 0.0, 971.4291657721003, 0.0]
['beep', 0.0, 1358.2037518267337, 0.0, 0.0, 0.0, 0.0, 972.1444215946701, 0.0]
['beep', 0.0, 1359.5001530051416, 0.0, 0.0, 0.0, 0.0, 972.7255669505081, 0.0]
['beep', 0.0, 1354.4710105026975, 0.0, 0.0, 0.0, 0.0, 972.1891250835807, 0.0]
['beep', 0.0, 1347.7878389105606, 0.0, 0.0, 0.0, 0.0, 969.7304331934969, 0.0]
['beep', 0.0, 1347.5643214660074, 0.0, 0.0, 0.0, 0.0, 971.3844622831897, 0.0]
['beep', 0.0, 1353.1522575798342, 0.0, 0.0, 0.0, 0.0, 971.5632762388321, 0.0]
['beep', 0.0, 1353.6663477023064, 0.0, 0.0, 0.0, 0.0, 970.0210058714159, 0.0]
['beep', 0.0, 1351.1853040677672, 0.0, 0.0, 0.0, 0.0, 969.372805282212, 0.0]
['beep', 0.0, 1351.5205802345968, 0.0, 0.0, 0.0, 0.0, 968.0540523593489, 0.0]
['beep', 0.0, 1350.3582895229208, 0.0, 0.0, 0.0, 0.0, 969.0598808598377, 0.0]
['beep', 0.0, 1352.6828709462727, 0.0, 0.0, 0.0, 0.0, 970.3115785493349, 0.0]
['beep', 0.0, 1354.2027895692338, 0.0, 0.0, 0.0, 0.0, 971.4291657721003, 0.0]
['beep', 0.0, 1353.5322372355745, 0.0, 0.0, 0.0, 0.0, 969.4845640044886, 0.0]
['beep', 0.0, 1353.8228099134935, 0.0, 0.0, 0.0, 0.0, 968.5904942262763, 0.0]
['beep', 0.0, 1355.1862663252673, 0.0, 0.0, 0.0, 0.0, 970.5797994827985, 0.0]
['beep', 0.0, 1357.3543855374319, 0.0, 0.0, 0.0, 0.0, 969.372805282212, 0.0]
['beep', 0.0, 1355.8791704033817, 0.0, 0.0, 0.0, 0.0, 969.596322726765, 0.0]
['beep', 0.0, 1348.2348737996667, 0.0, 0.0, 0.0, 0.0, 968.0093488704383, 0.0]
['beep', 0.0, 1346.580844709974, 0.0, 0.0, 0.0, 0.0, 967.0929273477707, 0.0]
['beep', 0.0, 1353.6663477023064, 0.0, 0.0, 0.0, 0.0, 969.9092471491393, 0.0]
['beep', 0.0, 1362.964673395714, 0.0, 0.0, 0.0, 0.0, 970.6021512272539, 0.0]
['beep', 0.0, 1361.0424233725576, 0.0, 0.0, 0.0, 0.0, 970.5574477383433, 0.0]
['beep', 0.0, 1356.8179436705045, 0.0, 0.0, 0.0, 0.0, 969.9092471491393, 0.0]
['beep', 0.0, 1354.9851006251695, 0.0, 0.0, 0.0, 0.0, 969.1045843487483, 0.0]
['beep', 0.0, 1356.0579843590242, 0.0, 0.0, 0.0, 0.0, 970.9150756496282, 0.0]
['beep', 0.0, 1358.1590483378232, 0.0, 0.0, 0.0, 0.0, 967.8975901481617, 0.0]
['beep', 0.0, 1356.5050192481303, 0.0, 0.0, 0.0, 0.0, 968.0764041038042, 0.0]
['beep', 0.0, 1354.4263070137868, 0.0, 0.0, 0.0, 0.0, 966.6235407142092, 0.0]
['beep', 0.0, 1351.8111529125158, 0.0, 0.0, 0.0, 0.0, 966.6235407142092, 0.0]
['beep', 0.0, 1355.387432025365, 0.0, 0.0, 0.0, 0.0, 967.472907003511, 0.0]
['beep', 0.0, 1358.740193693661, 0.0, 0.0, 0.0, 0.0, 967.9199418926171, 0.0]
['beep', 0.0, 1357.2649785596107, 0.0, 0.0, 0.0, 0.0, 968.1211075927148, 0.0]
['beep', 0.0, 1354.1804378247784, 0.0, 0.0, 0.0, 0.0, 967.0035203699495, 0.0]
['beep', 0.0, 1352.4593535017198, 0.0, 0.0, 0.0, 0.0, 965.7294709359969, 0.0]
['beep', 0.0, 1356.9073506483257, 0.0, 0.0, 0.0, 0.0, 967.1152790922259, 0.0]
['beep', 0.0, 1360.5283332500856, 0.0, 0.0, 0.0, 0.0, 967.3387965367791, 0.0]
['beep', 0.0, 1359.3436907939542, 0.0, 0.0, 0.0, 0.0, 966.5788372252986, 0.0]
['beep', 0.0, 1355.6556529588286, 0.0, 0.0, 0.0, 0.0, 965.7741744249075, 0.0]
['beep', 0.0, 1352.3699465238985, 0.0, 0.0, 0.0, 0.0, 965.2824360468908, 0.0]
['beep', 0.0, 1353.8898651468594, 0.0, 0.0, 0.0, 0.0, 965.1706773246143, 0.0]
['beep', 0.0, 1359.835429171971, 0.0, 0.0, 0.0, 0.0, 966.243561058469, 0.0]
['beep', 0.0, 1361.4671065172085, 0.0, 0.0, 0.0, 0.0, 965.4612500025332, 0.0]
['beep', 0.0, 1357.0861646039682, 0.0, 0.0, 0.0, 0.0, 965.7071191915417, 0.0]
['beep', 0.0, 1357.5108477486192, 0.0, 0.0, 0.0, 0.0, 965.3941947691674, 0.0]
['beep', 0.0, 1358.9637111382142, 0.0, 0.0, 0.0, 0.0, 966.4223750141115, 0.0]
['beep', 0.0, 1359.0531181160354, 0.0, 0.0, 0.0, 0.0, 966.2212093140137, 0.0]
['beep', 0.0, 1356.616777970407, 0.0, 0.0, 0.0, 0.0, 965.8412296582735, 0.0]
['beep', 0.0, 1355.2756733030885, 0.0, 0.0, 0.0, 0.0, 964.1648488241254, 0.0]
['beep', 0.0, 1354.359251780421, 0.0, 0.0, 0.0, 0.0, 964.2319040574914, 0.0]
['beep', 0.0, 1358.874304160393, 0.0, 0.0, 0.0, 0.0, 962.9355028790835, 0.0]
['beep', 0.0, 1361.0871268614683, 0.0, 0.0, 0.0, 0.0, 964.1648488241254, 0.0]
['beep', 0.0, 1359.0754698604906, 0.0, 0.0, 0.0, 0.0, 963.5613517238322, 0.0]
['beep', 0.0, 1355.3650802809098, 0.0, 0.0, 0.0, 0.0, 963.0025581124495, 0.0]
['beep', 0.0, 1354.8509901584375, 0.0, 0.0, 0.0, 0.0, 963.3378342792791, 0.0]
['beep', 0.0, 1358.4943245046527, 0.0, 0.0, 0.0, 0.0, 962.2873022898797, 0.0]
['beep', 0.0, 1362.0929553619571, 0.0, 0.0, 0.0, 0.0, 962.6672819456198, 0.0]
['beep', 0.0, 1359.2319320716779, 0.0, 0.0, 0.0, 0.0, 962.0861365897819, 0.0]
['beep', 0.0, 1356.3932605258537, 0.0, 0.0, 0.0, 0.0, 959.8956656331618, 0.0]
['beep', 0.0, 1354.225141313689, 0.0, 0.0, 0.0, 0.0, 959.5827412107875, 0.0]
['beep', 0.0, 1356.9520541372365, 0.0, 0.0, 0.0, 0.0, 960.1415348221702, 0.0]
['beep', 0.0, 1361.7800309395827, 0.0, 0.0, 0.0, 0.0, 960.5438662223658, 0.0]
['beep', 0.0, 1362.6293972288845, 0.0, 0.0, 0.0, 0.0, 960.7003284335528, 0.0]
['beep', 0.0, 1358.1366965933678, 0.0, 0.0, 0.0, 0.0, 959.0462993438601, 0.0]
['beep', 0.0, 1354.64982445834, 0.0, 0.0, 0.0, 0.0, 958.0851743322819, 0.0]
['beep', 0.0, 1358.9637111382142, 0.0, 0.0, 0.0, 0.0, 958.6886714325752, 0.0]
['beep', 0.0, 1364.4398885297644, 0.0, 0.0, 0.0, 0.0, 958.2416365434691, 0.0]
['beep', 0.0, 1363.8587431739263, 0.0, 0.0, 0.0, 0.0, 958.0404708433713, 0.0]
['beep', 0.0, 1361.7129757062169, 0.0, 0.0, 0.0, 0.0, 956.0958690757597, 0.0]
['beep', 0.0, 1359.2989873050437, 0.0, 0.0, 0.0, 0.0, 954.0395085858713, 0.0]
['beep', 0.0, 1360.0812983609794, 0.0, 0.0, 0.0, 0.0, 956.408793498134, 0.0]
['beep', 0.0, 1362.4729350176974, 0.0, 0.0, 0.0, 0.0, 957.1687528096144, 0.0]
['beep', 0.0, 1361.6682722173064, 0.0, 0.0, 0.0, 0.0, 956.1629243091255, 0.0]
['beep', 0.0, 1360.3718710388985, 0.0, 0.0, 0.0, 0.0, 955.7829446533854, 0.0]
['beep', 0.0, 1358.6060832269293, 0.0, 0.0, 0.0, 0.0, 955.0453370863602, 0.0]
['beep', 0.0, 1358.1143448489124, 0.0, 0.0, 0.0, 0.0, 956.9899388539719, 0.0]
['beep', 0.0, 1361.2435890726554, 0.0, 0.0, 0.0, 0.0, 958.4651539880222, 0.0]
['beep', 0.0, 1363.255246073633, 0.0, 0.0, 0.0, 0.0, 959.0239475994048, 0.0]
['beep', 0.0, 1362.160010595323, 0.0, 0.0, 0.0, 0.0, 956.632310942687, 0.0]
['beep', 0.0, 1359.9918913831582, 0.0, 0.0, 0.0, 0.0, 957.2805115318909, 0.0]
['beep', 0.0, 1361.1318303503788, 0.0, 0.0, 0.0, 0.0, 959.3368720217792, 0.0]
['beep', 0.0, 1362.9199699068035, 0.0, 0.0, 0.0, 0.0, 959.0686510883154, 0.0]
['beep', 0.0, 1359.5672082385074, 0.0, 0.0, 0.0, 0.0, 958.532209221388, 0.0]
['beep', 0.0, 1354.4486587582421, 0.0, 0.0, 0.0, 0.0, 959.2027615550472, 0.0]
['beep', 0.0, 1356.3262052924879, 0.0, 0.0, 0.0, 0.0, 957.9734156100054, 0.0]
['beep', 0.0, 1363.1434873513565, 0.0, 0.0, 0.0, 0.0, 958.1522295656479, 0.0]
['beep', 0.0, 1368.2173333427113, 0.0, 0.0, 0.0, 0.0, 958.9345406215836, 0.0]
['beep', 0.0, 1365.6468827303509, 0.0, 0.0, 0.0, 0.0, 957.213456298525, 0.0]
['beep', 0.0, 1357.4437925152533, 0.0, 0.0, 0.0, 0.0, 954.6206539417093, 0.0]
['beep', 0.0, 1355.4097837698203, 0.0, 0.0, 0.0, 0.0, 954.8218196418071, 0.0]
['beep', 0.0, 1360.3048158055326, 0.0, 0.0, 0.0, 0.0, 957.1911045540696, 0.0]
['beep', 0.0, 1366.7644699531163, 0.0, 0.0, 0.0, 0.0, 959.8062586553406, 0.0]
['beep', 0.0, 1367.9267606647923, 0.0, 0.0, 0.0, 0.0, 957.3475667652568, 0.0]
['beep', 0.0, 1361.0871268614683, 0.0, 0.0, 0.0, 0.0, 956.1629243091255, 0.0]
['beep', 0.0, 1358.4719727601973, 0.0, 0.0, 0.0, 0.0, 957.5710842098099, 0.0]
['beep', 0.0, 1363.5905222404626, 0.0, 0.0, 0.0, 0.0, 960.6779766890976, 0.0]
['beep', 0.0, 1364.3057780630324, 0.0, 0.0, 0.0, 0.0, 960.6556249446422, 0.0]
['beep', 0.0, 1357.5555512375297, 0.0, 0.0, 0.0, 0.0, 957.2358080429802, 0.0]
['beep', 0.0, 1353.6886994467616, 0.0, 0.0, 0.0, 0.0, 956.9899388539719, 0.0]
['beep', 0.0, 1356.7285366926833, 0.0, 0.0, 0.0, 0.0, 957.4146219986227, 0.0]
['beep', 0.0, 1363.6352257293734, 0.0, 0.0, 0.0, 0.0, 958.9345406215836, 0.0]
['beep', 0.0, 1365.6468827303509, 0.0, 0.0, 0.0, 0.0, 960.4097557556339, 0.0]
['beep', 0.0, 1363.6352257293734, 0.0, 0.0, 0.0, 0.0, 959.180409810592, 0.0]
['beep', 0.0, 1357.644958215351, 0.0, 0.0, 0.0, 0.0, 956.7217179205082, 0.0]
['beep', 0.0, 1354.5604174805187, 0.0, 0.0, 0.0, 0.0, 956.5429039648658, 0.0]
['beep', 0.0, 1360.6400919723621, 0.0, 0.0, 0.0, 0.0, 957.4146219986227, 0.0]
['beep', 0.0, 1364.9092751633257, 0.0, 0.0, 0.0, 0.0, 959.0910028327708, 0.0]
['beep', 0.0, 1363.5905222404626, 0.0, 0.0, 0.0, 0.0, 957.6828429320864, 0.0]
['beep', 0.0, 1360.1707053388006, 0.0, 0.0, 0.0, 0.0, 955.1347440641814, 0.0]
['beep', 0.0, 1362.6293972288845, 0.0, 0.0, 0.0, 0.0, 955.7382411644747, 0.0]
['beep', 0.0, 1366.898580419848, 0.0, 0.0, 0.0, 0.0, 955.4923719754663, 0.0]
['beep', 0.0, 1368.3961472983538, 0.0, 0.0, 0.0, 0.0, 956.7887731538741, 0.0]
['beep', 0.0, 1366.093917619457, 0.0, 0.0, 0.0, 0.0, 955.3582615087345, 0.0]
['beep', 0.0, 1359.1872285827671, 0.0, 0.0, 0.0, 0.0, 954.4194882416116, 0.0]
['beep', 0.0, 1356.3485570369432, 0.0, 0.0, 0.0, 0.0, 955.5594272088323, 0.0]
['beep', 0.0, 1359.2989873050437, 0.0, 0.0, 0.0, 0.0, 956.0064620979384, 0.0]
['beep', 0.0, 1368.1726298538006, 0.0, 0.0, 0.0, 0.0, 957.9063603766394, 0.0]
['beep', 0.0, 1367.9491124092476, 0.0, 0.0, 0.0, 0.0, 957.0122905984272, 0.0]
['beep', 0.0, 1361.802382684038, 0.0, 0.0, 0.0, 0.0, 957.7722499099076, 0.0]
['beep', 0.0, 1358.7178419492056, 0.0, 0.0, 0.0, 0.0, 956.7887731538741, 0.0]
['beep', 0.0, 1362.9199699068035, 0.0, 0.0, 0.0, 0.0, 958.5769127102986, 0.0]
['beep', 0.0, 1372.061833389024, 0.0, 0.0, 0.0, 0.0, 959.8286103997959, 0.0]
['beep', 0.0, 1371.0336531440798, 0.0, 0.0, 0.0, 0.0, 960.052127844349, 0.0]
['beep', 0.0, 1365.1551443523342, 0.0, 0.0, 0.0, 0.0, 959.1357063216814, 0.0]
['beep', 0.0, 1363.255246073633, 0.0, 0.0, 0.0, 0.0, 958.3533952657456, 0.0]
['beep', 0.0, 1369.357272309932, 0.0, 0.0, 0.0, 0.0, 960.2532935444467, 0.0]
['beep', 0.0, 1372.6206270004068, 0.0, 0.0, 0.0, 0.0, 959.4262789996004, 0.0]
['beep', 0.0, 1367.7479467091498, 0.0, 0.0, 0.0, 0.0, 958.4428022435668, 0.0]
['beep', 0.0, 1360.349519294443, 0.0, 0.0, 0.0, 0.0, 956.2970347758574, 0.0]
['beep', 0.0, 1362.3388245509655, 0.0, 0.0, 0.0, 0.0, 955.6264824421982, 0.0]
['beep', 0.0, 1369.4019757988426, 0.0, 0.0, 0.0, 0.0, 955.1570958086367, 0.0]
['beep', 0.0, 1370.161935110323, 0.0, 0.0, 0.0, 0.0, 956.7440696649635, 0.0]
['beep', 0.0, 1366.228028086189, 0.0, 0.0, 0.0, 0.0, 953.3689562522121, 0.0]
['beep', 0.0, 1364.775164696594, 0.0, 0.0, 0.0, 0.0, 950.150305050648, 0.0]
['beep', 0.0, 1367.189153097767, 0.0, 0.0, 0.0, 0.0, 952.1619620516256, 0.0]
['beep', 0.0, 1370.0054728991358, 0.0, 0.0, 0.0, 0.0, 952.8548661297401, 0.0]
['beep', 0.0, 1370.0278246435912, 0.0, 0.0, 0.0, 0.0, 953.7042324190418, 0.0]
['beep', 0.0, 1366.2727315750994, 0.0, 0.0, 0.0, 0.0, 952.7878108963741, 0.0]
['beep', 0.0, 1361.9811966396805, 0.0, 0.0, 0.0, 0.0, 950.5526364508435, 0.0]
['beep', 0.0, 1364.484592018675, 0.0, 0.0, 0.0, 0.0, 951.1561335511367, 0.0]
['beep', 0.0, 1371.8159642000157, 0.0, 0.0, 0.0, 0.0, 951.6031684402429, 0.0]
['beep', 0.0, 1375.03461540158, 0.0, 0.0, 0.0, 0.0, 952.1172585627149, 0.0]
['beep', 0.0, 1372.6876822337726, 0.0, 0.0, 0.0, 0.0, 950.2397120284692, 0.0]
['beep', 0.0, 1366.898580419848, 0.0, 0.0, 0.0, 0.0, 948.5856829387765, 0.0]
['beep', 0.0, 1363.8587431739263, 0.0, 0.0, 0.0, 0.0, 947.1328195491815, 0.0]
['beep', 0.0, 1364.8645716744152, 0.0, 0.0, 0.0, 0.0, 947.9598340940279, 0.0]
['beep', 0.0, 1370.094879876957, 0.0, 0.0, 0.0, 0.0, 948.0045375829385, 0.0]
['beep', 0.0, 1371.7042054777392, 0.0, 0.0, 0.0, 0.0, 945.7470113929525, 0.0]
['beep', 0.0, 1366.6527112308397, 0.0, 0.0, 0.0, 0.0, 944.1376857921704, 0.0]
['beep', 0.0, 1366.093917619457, 0.0, 0.0, 0.0, 0.0, 942.9977468249497, 0.0]
['beep', 0.0, 1370.5642665105186, 0.0, 0.0, 0.0, 0.0, 943.310671247324, 0.0]
['beep', 0.0, 1372.6206270004068, 0.0, 0.0, 0.0, 0.0, 943.1095055472261, 0.0]
['beep', 0.0, 1366.8315251864822, 0.0, 0.0, 0.0, 0.0, 942.5507119358435, 0.0]
['beep', 0.0, 1363.4117082848202, 0.0, 0.0, 0.0, 0.0, 939.8014473678408, 0.0]
['beep', 0.0, 1366.1833245972782, 0.0, 0.0, 0.0, 0.0, 938.6838601450754, 0.0]
['beep', 0.0, 1372.6653304893173, 0.0, 0.0, 0.0, 0.0, 939.8685026012067, 0.0]
['beep', 0.0, 1375.7498712241497, 0.0, 0.0, 0.0, 0.0, 941.8354561132737, 0.0]
['beep', 0.0, 1371.6818537332838, 0.0, 0.0, 0.0, 0.0, 940.3825927236787, 0.0]
['beep', 0.0, 1364.3504815519432, 0.0, 0.0, 0.0, 0.0, 938.0133078114162, 0.0]
['beep', 0.0, 1362.4952867621525, 0.0, 0.0, 0.0, 0.0, 938.3038804893351, 0.0]
['beep', 0.0, 1367.9714641537028, 0.0, 0.0, 0.0, 0.0, 939.8461508567514, 0.0]
['beep', 0.0, 1371.6818537332838, 0.0, 0.0, 0.0, 0.0, 939.957909579028, 0.0]
['beep', 0.0, 1368.6867199762726, 0.0, 0.0, 0.0, 0.0, 939.957909579028, 0.0]
['beep', 0.0, 1363.6575774738285, 0.0, 0.0, 0.0, 0.0, 938.6168049117094, 0.0]
['beep', 0.0, 1364.417536785309, 0.0, 0.0, 0.0, 0.0, 937.1192380332039, 0.0]
['beep', 0.0, 1369.6031414989402, 0.0, 0.0, 0.0, 0.0, 937.6109764112207, 0.0]
['beep', 0.0, 1371.1677636108118, 0.0, 0.0, 0.0, 0.0, 937.7227351334972, 0.0]
['beep', 0.0, 1368.418499042809, 0.0, 0.0, 0.0, 0.0, 938.0580113003268, 0.0]
['beep', 0.0, 1364.708109463228, 0.0, 0.0, 0.0, 0.0, 934.9958223099497, 0.0]
['beep', 0.0, 1364.9763303966918, 0.0, 0.0, 0.0, 0.0, 934.2582147429246, 0.0]
['beep', 0.0, 1371.1901153552672, 0.0, 0.0, 0.0, 0.0, 935.3534502212347, 0.0]
['beep', 0.0, 1376.7109962357279, 0.0, 0.0, 0.0, 0.0, 936.8957205886509, 0.0]
['beep', 0.0, 1374.6322840013843, 0.0, 0.0, 0.0, 0.0, 936.0687060438045, 0.0]
['beep', 0.0, 1366.3174350640102, 0.0, 0.0, 0.0, 0.0, 934.3923252096564, 0.0]
['beep', 0.0, 1365.4010135413425, 0.0, 0.0, 0.0, 0.0, 933.4312001980783, 0.0]
['beep', 0.0, 1371.5924467554626, 0.0, 0.0, 0.0, 0.0, 933.9899938094609, 0.0]
['beep', 0.0, 1373.4699932897083, 0.0, 0.0, 0.0, 0.0, 933.0959240312486, 0.0]
['beep', 0.0, 1370.31839732151, 0.0, 0.0, 0.0, 0.0, 931.9783368084833, 0.0]
['beep', 0.0, 1363.6352257293734, 0.0, 0.0, 0.0, 0.0, 930.1231420186928, 0.0]
['beep', 0.0, 1360.6624437168175, 0.0, 0.0, 0.0, 0.0, 928.4244094400894, 0.0]
['beep', 0.0, 1365.1998478412447, 0.0, 0.0, 0.0, 0.0, 927.7762088508856, 0.0]
['beep', 0.0, 1369.7372519656722, 0.0, 0.0, 0.0, 0.0, 927.9103193176174, 0.0]
['beep', 0.0, 1368.7761269540938, 0.0, 0.0, 0.0, 0.0, 926.9491943060392, 0.0]
['beep', 0.0, 1365.2445513301554, 0.0, 0.0, 0.0, 0.0, 925.1610547496147, 0.0]
['beep', 0.0, 1365.2669030746106, 0.0, 0.0, 0.0, 0.0, 924.6022611382319, 0.0]
['beep', 0.0, 1369.357272309932, 0.0, 0.0, 0.0, 0.0, 925.7645518499079, 0.0]
['beep', 0.0, 1372.4641647892195, 0.0, 0.0, 0.0, 0.0, 925.5410344053548, 0.0]
['beep', 0.0, 1369.6254932433956, 0.0, 0.0, 0.0, 0.0, 925.0045925384275, 0.0]
['beep', 0.0, 1364.8198681855044, 0.0, 0.0, 0.0, 0.0, 923.1717494930923, 0.0]
['beep', 0.0, 1364.8645716744152, 0.0, 0.0, 0.0, 0.0, 922.4564936705225, 0.0]
['beep', 0.0, 1368.5526095095408, 0.0, 0.0, 0.0, 0.0, 923.2835082153688, 0.0]
['beep', 0.0, 1370.966597910714, 0.0, 0.0, 0.0, 0.0, 924.6022611382319, 0.0]
['beep', 0.0, 1367.390318797865, 0.0, 0.0, 0.0, 0.0, 924.3340402047683, 0.0]
['beep', 0.0, 1361.5341617505744, 0.0, 0.0, 0.0, 0.0, 923.4846739154666, 0.0]
['beep', 0.0, 1361.7576791951276, 0.0, 0.0, 0.0, 0.0, 923.8870053156621, 0.0]
['beep', 0.0, 1366.4291937862868, 0.0, 0.0, 0.0, 0.0, 924.9822407939722, 0.0]
['beep', 0.0, 1369.1114031209236, 0.0, 0.0, 0.0, 0.0, 924.3340402047683, 0.0]
['beep', 0.0, 1367.6138362424178, 0.0, 0.0, 0.0, 0.0, 922.635307626165, 0.0]
['beep', 0.0, 1363.1434873513565, 0.0, 0.0, 0.0, 0.0, 920.8024645808298, 0.0]
['beep', 0.0, 1361.355347794932, 0.0, 0.0, 0.0, 0.0, 921.8753483146845, 0.0]
['beep', 0.0, 1367.1668013533117, 0.0, 0.0, 0.0, 0.0, 923.2611564709135, 0.0]
['beep', 0.0, 1372.1065368779346, 0.0, 0.0, 0.0, 0.0, 923.2611564709135, 0.0]
['beep', 0.0, 1371.1901153552672, 0.0, 0.0, 0.0, 0.0, 922.6576593706202, 0.0]
['beep', 0.0, 1365.9821588971806, 0.0, 0.0, 0.0, 0.0, 921.6965343590421, 0.0]
['beep', 0.0, 1362.2494175731442, 0.0, 0.0, 0.0, 0.0, 921.7188861034973, 0.0]
['beep', 0.0, 1369.93841766577, 0.0, 0.0, 0.0, 0.0, 925.3398687052571, 0.0]
['beep', 0.0, 1377.806231714038, 0.0, 0.0, 0.0, 0.0, 927.1727117505923, 0.0]
['beep', 0.0, 1373.4923450341637, 0.0, 0.0, 0.0, 0.0, 926.792732094852, 0.0]
['beep', 0.0, 1365.8480484304487, 0.0, 0.0, 0.0, 0.0, 927.0162495394051, 0.0]
['beep', 0.0, 1362.4058797843313, 0.0, 0.0, 0.0, 0.0, 927.7538571064302, 0.0]
['beep', 0.0, 1366.1833245972782, 0.0, 0.0, 0.0, 0.0, 929.5867001517654, 0.0]
['beep', 0.0, 1371.9724264112028, 0.0, 0.0, 0.0, 0.0, 931.8218745972962, 0.0]
['beep', 0.0, 1370.8548391884374, 0.0, 0.0, 0.0, 0.0, 930.8383978412626, 0.0]
['beep', 0.0, 1364.775164696594, 0.0, 0.0, 0.0, 0.0, 931.3971914526453, 0.0]
['beep', 0.0, 1364.998682141147, 0.0, 0.0, 0.0, 0.0, 930.9948600524498, 0.0]
['beep', 0.0, 1369.1337548653787, 0.0, 0.0, 0.0, 0.0, 932.0006885529386, 0.0]
['beep', 0.0, 1373.4923450341637, 0.0, 0.0, 0.0, 0.0, 934.7276013764861, 0.0]
['beep', 0.0, 1373.4252898007978, 0.0, 0.0, 0.0, 0.0, 934.4146769541118, 0.0]
['beep', 0.0, 1366.6527112308397, 0.0, 0.0, 0.0, 0.0, 932.6041856532319, 0.0]
['beep', 0.0, 1363.6352257293734, 0.0, 0.0, 0.0, 0.0, 931.7995228528408, 0.0]
['beep', 0.0, 1366.7644699531163, 0.0, 0.0, 0.0, 0.0, 931.4865984304665, 0.0]
['beep', 0.0, 1369.6925484767614, 0.0, 0.0, 0.0, 0.0, 932.2689094864023, 0.0]
['beep', 0.0, 1367.8820571758815, 0.0, 0.0, 0.0, 0.0, 932.4253716975894, 0.0]
['beep', 0.0, 1362.6964524622504, 0.0, 0.0, 0.0, 0.0, 933.1629792646146, 0.0]
['beep', 0.0, 1365.9821588971806, 0.0, 0.0, 0.0, 0.0, 933.855883342729, 0.0]
['beep', 0.0, 1369.6925484767614, 0.0, 0.0, 0.0, 0.0, 934.2582147429246, 0.0]
['beep', 0.0, 1369.446679287753, 0.0, 0.0, 0.0, 0.0, 936.2251682549917, 0.0]
['beep', 0.0, 1368.7537752096387, 0.0, 0.0, 0.0, 0.0, 935.0405257988604, 0.0]
['beep', 0.0, 1367.2785600755883, 0.0, 0.0, 0.0, 0.0, 934.6158426542095, 0.0]
['beep', 0.0, 1366.0045106416358, 0.0, 0.0, 0.0, 0.0, 936.1134095327151, 0.0]
['beep', 0.0, 1367.6585397313286, 0.0, 0.0, 0.0, 0.0, 934.1464560206481, 0.0]
['beep', 0.0, 1371.8383159444709, 0.0, 0.0, 0.0, 0.0, 934.0570490428269, 0.0]
['beep', 0.0, 1374.2523043456442, 0.0, 0.0, 0.0, 0.0, 935.4652089435112, 0.0]
['beep', 0.0, 1369.804307199038, 0.0, 0.0, 0.0, 0.0, 934.5264356763882, 0.0]
['beep', 0.0, 1365.7809931970828, 0.0, 0.0, 0.0, 0.0, 932.8277030977849, 0.0]
