['beep', 0.0, -1003.213346387547, 0.0, 0.0, 0.0, 0.0, -1311.6897716152396, 0.0]
['beep', 0.0, -1000.2852678639017, 0.0, 0.0, 0.0, 0.0, -1310.683943114751, 0.0]
['beep', 0.0, -1003.1686428986363, 0.0, 0.0, 0.0, 0.0, -1313.0755797714687, 0.0]
['beep', 0.0, -1008.018971445438, 0.0, 0.0, 0.0, 0.0, -1314.908422816804, 0.0]
['beep', 0.0, -1008.3318958678122, 0.0, 0.0, 0.0, 0.0, -1315.1542920058123, 0.0]
['beep', 0.0, -1003.2804016209128, 0.0, 0.0, 0.0, 0.0, -1312.9638210491921, 0.0]
['beep', 0.0, -1001.3134481088458, 0.0, 0.0, 0.0, 0.0, -1312.6061931379072, 0.0]
['beep', 0.0, -1003.727436510019, 0.0, 0.0, 0.0, 0.0, -1313.1873384937453, 0.0]
['beep', 0.0, -1007.5495848118765, 0.0, 0.0, 0.0, 0.0, -1314.7966640945274, 0.0]
['beep', 0.0, -1007.9295644676167, 0.0, 0.0, 0.0, 0.0, -1314.7072571167062, 0.0]
['beep', 0.0, -1005.2473551329798, 0.0, 0.0, 0.0, 0.0, -1311.2203849816783, 0.0]
['beep', 0.0, -1003.2356981320022, 0.0, 0.0, 0.0, 0.0, -1310.4380739257424, 0.0]
['beep', 0.0, -1005.7390935109966, 0.0, 0.0, 0.0, 0.0, -1312.4273791822648, 0.0]
['beep', 0.0, -1011.595250558287, 0.0, 0.0, 0.0, 0.0, -1314.3943326943318, 0.0]
['beep', 0.0, -1011.4611400915552, 0.0, 0.0, 0.0, 0.0, -1314.3049257165105, 0.0]
['beep', 0.0, -1005.0685411773374, 0.0, 0.0, 0.0, 0.0, -1311.0415710260359, 0.0]
['beep', 0.0, -1003.6156777877425, 0.0, 0.0, 0.0, 0.0, -1308.9628587916923, 0.0]
['beep', 0.0, -1007.2143086450469, 0.0, 0.0, 0.0, 0.0, -1310.035742525547, 0.0]
['beep', 0.0, -1010.3882563577005, 0.0, 0.0, 0.0, 0.0, -1314.5954983944296, 0.0]
['beep', 0.0, -1011.662305791653, 0.0, 0.0, 0.0, 0.0, -1314.550794905519, 0.0]
['beep', 0.0, -1006.6108115447536, 0.0, 0.0, 0.0, 0.0, -1311.7344751041503, 0.0]
['beep', 0.0, -1003.9733056990274, 0.0, 0.0, 0.0, 0.0, -1312.6956001157284, 0.0]
['beep', 0.0, -1006.4543493335664, 0.0, 0.0, 0.0, 0.0, -1314.7072571167062, 0.0]
['beep', 0.0, -1010.1870906576027, 0.0, 0.0, 0.0, 0.0, -1317.322411217977, 0.0]
['beep', 0.0, -1011.4387883471, 0.0, 0.0, 0.0, 0.0, -1315.8024925950162, 0.0]
['beep', 0.0, -1006.7672737559407, 0.0, 0.0, 0.0, 0.0, -1315.131940261357, 0.0]
['beep', 0.0, -1003.0568841763597, 0.0, 0.0, 0.0, 0.0, -1314.1484635053234, 0.0]
['beep', 0.0, -1006.208480144558, 0.0, 0.0, 0.0, 0.0, -1318.2835362295552, 0.0]
['beep', 0.0, -1011.8187680028401, 0.0, 0.0, 0.0, 0.0, -1321.032800797558, 0.0]
['beep', 0.0, -1012.1987476585804, 0.0, 0.0, 0.0, 0.0, -1320.2504897416222, 0.0]
['beep', 0.0, -1006.2978871223793, 0.0, 0.0, 0.0, 0.0, -1318.328239718466, 0.0]
['beep', 0.0, -1002.2298696315133, 0.0, 0.0, 0.0, 0.0, -1317.8141495959937, 0.0]
['beep', 0.0, -1006.566108055843, 0.0, 0.0, 0.0, 0.0, -1319.6693443857844, 0.0]
['beep', 0.0, -1011.371733113734, 0.0, 0.0, 0.0, 0.0, -1319.5352339190524, 0.0]
['beep', 0.0, -1011.1258639247256, 0.0, 0.0, 0.0, 0.0, -1319.6916961302395, 0.0]
['beep', 0.0, -1004.8673754772396, 0.0, 0.0, 0.0, 0.0, -1319.3787717078653, 0.0]
['beep', 0.0, -1001.5593172978541, 0.0, 0.0, 0.0, 0.0, -1319.937565319248, 0.0]
['beep', 0.0, -1007.2590121339575, 0.0, 0.0, 0.0, 0.0, -1317.7247426181725, 0.0]
['beep', 0.0, -1009.4271313461222, 0.0, 0.0, 0.0, 0.0, -1321.6362978978514, 0.0]
['beep', 0.0, -1010.142387168692, 0.0, 0.0, 0.0, 0.0, -1322.0162775535916, 0.0]
['beep', 0.0, -1005.3144103663458, 0.0, 0.0, 0.0, 0.0, -1320.0269722970693, 0.0]
['beep', 0.0, -1002.5427940538876, 0.0, 0.0, 0.0, 0.0, -1319.7811031080607, 0.0]
['beep', 0.0, -1004.8673754772396, 0.0, 0.0, 0.0, 0.0, -1322.1056845314129, 0.0]
['beep', 0.0, -1009.7177040240413, 0.0, 0.0, 0.0, 0.0, -1324.2738037435774, 0.0]
['beep', 0.0, -1009.4271313461222, 0.0, 0.0, 0.0, 0.0, -1322.9774025651698, 0.0]
['beep', 0.0, -1005.1579481551586, 0.0, 0.0, 0.0, 0.0, -1321.4127804532982, 0.0]
['beep', 0.0, -1002.0287039314156, 0.0, 0.0, 0.0, 0.0, -1322.2397949981446, 0.0]
['beep', 0.0, -1005.6496865331753, 0.0, 0.0, 0.0, 0.0, -1319.289364730044, 0.0]
['beep', 0.0, -1008.1530819121698, 0.0, 0.0, 0.0, 0.0, -1320.675172886273, 0.0]
['beep', 0.0, -1007.9966197009826, 0.0, 0.0, 0.0, 0.0, -1323.223271754178, 0.0]
['beep', 0.0, -1002.3192766093346, 0.0, 0.0, 0.0, 0.0, -1320.2057862527117, 0.0]
['beep', 0.0, -998.7653492409407, 0.0, 0.0, 0.0, 0.0, -1319.4234751967758, 0.0]
['beep', 0.0, -1001.4252068311223, 0.0, 0.0, 0.0, 0.0, -1319.3787717078653, 0.0]
['beep', 0.0, -1007.2143086450469, 0.0, 0.0, 0.0, 0.0, -1320.4740071861754, 0.0]
['beep', 0.0, -1007.8625092342508, 0.0, 0.0, 0.0, 0.0, -1321.8151118534938, 0.0]
['beep', 0.0, -1004.1968231435804, 0.0, 0.0, 0.0, 0.0, -1318.1717775072786, 0.0]
['beep', 0.0, -1002.0957591647815, 0.0, 0.0, 0.0, 0.0, -1316.2718792285775, 0.0]
['beep', 0.0, -1005.403817344167, 0.0, 0.0, 0.0, 0.0, -1315.7801408505609, 0.0]
['beep', 0.0, -1009.0024482014715, 0.0, 0.0, 0.0, 0.0, -1318.2388327406447, 0.0]
['beep', 0.0, -1009.6059453017647, 0.0, 0.0, 0.0, 0.0, -1318.2388327406447, 0.0]
['beep', 0.0, -1005.3591138552564, 0.0, 0.0, 0.0, 0.0, -1316.5401001620412, 0.0]
['beep', 0.0, -1002.1404626536921, 0.0, 0.0, 0.0, 0.0, -1316.0483617840246, 0.0]
['beep', 0.0, -1004.6885615215972, 0.0, 0.0, 0.0, 0.0, -1316.9424315622368, 0.0]
['beep', 0.0, -1009.8741662352284, 0.0, 0.0, 0.0, 0.0, -1319.7140478746949, 0.0]
['beep', 0.0, -1009.8294627463177, 0.0, 0.0, 0.0, 0.0, -1319.8258065969715, 0.0]
['beep', 0.0, -1006.1414249111921, 0.0, 0.0, 0.0, 0.0, -1317.903556573815, 0.0]
['beep', 0.0, -1005.0014859439715, 0.0, 0.0, 0.0, 0.0, -1317.1212455178793, 0.0]
['beep', 0.0, -1006.9684394560385, 0.0, 0.0, 0.0, 0.0, -1317.1212455178793, 0.0]
['beep', 0.0, -1010.3212011243345, 0.0, 0.0, 0.0, 0.0, -1317.6129838958961, 0.0]
['beep', 0.0, -1008.4883580789993, 0.0, 0.0, 0.0, 0.0, -1319.132902518857, 0.0]
['beep', 0.0, -1005.4261690886223, 0.0, 0.0, 0.0, 0.0, -1318.2164809961894, 0.0]
['beep', 0.0, -1003.4145120876447, 0.0, 0.0, 0.0, 0.0, -1315.4448646837313, 0.0]
['beep', 0.0, -1006.208480144558, 0.0, 0.0, 0.0, 0.0, -1314.103760016413, 0.0]
['beep', 0.0, -1009.0695034348373, 0.0, 0.0, 0.0, 0.0, -1316.383637950854, 0.0]
['beep', 0.0, -1011.5505470693764, 0.0, 0.0, 0.0, 0.0, -1317.3447629624322, 0.0]
['beep', 0.0, -1007.8848609787061, 0.0, 0.0, 0.0, 0.0, -1314.0367047830468, 0.0]
['beep', 0.0, -1005.6049830442647, 0.0, 0.0, 0.0, 0.0, -1313.2543937271112, 0.0]
['beep', 0.0, -1008.7342272680078, 0.0, 0.0, 0.0, 0.0, -1312.5614896489967, 0.0]
['beep', 0.0, -1012.243451147491, 0.0, 0.0, 0.0, 0.0, -1315.35545770591, 0.0]
['beep', 0.0, -1013.562204070354, 0.0, 0.0, 0.0, 0.0, -1317.5682804069854, 0.0]
['beep', 0.0, -1010.6117738022535, 0.0, 0.0, 0.0, 0.0, -1314.0143530385917, 0.0]
['beep', 0.0, -1008.2648406344463, 0.0, 0.0, 0.0, 0.0, -1312.5614896489967, 0.0]
['beep', 0.0, -1009.2259656460245, 0.0, 0.0, 0.0, 0.0, -1313.2543937271112, 0.0]
['beep', 0.0, -1013.1822244146139, 0.0, 0.0, 0.0, 0.0, -1315.578975150463, 0.0]
['beep', 0.0, -1013.1151691812479, 0.0, 0.0, 0.0, 0.0, -1316.093065272935, 0.0]
['beep', 0.0, -1007.5272330674212, 0.0, 0.0, 0.0, 0.0, -1314.0367047830468, 0.0]
['beep', 0.0, -1005.403817344167, 0.0, 0.0, 0.0, 0.0, -1311.130978003857, 0.0]
['beep', 0.0, -1008.1083784232592, 0.0, 0.0, 0.0, 0.0, -1314.2378704831447, 0.0]
['beep', 0.0, -1014.2551081484686, 0.0, 0.0, 0.0, 0.0, -1317.2106524957005, 0.0]
['beep', 0.0, -1013.6516110481753, 0.0, 0.0, 0.0, 0.0, -1316.8083210955049, 0.0]
['beep', 0.0, -1009.2259656460245, 0.0, 0.0, 0.0, 0.0, -1315.3107542169994, 0.0]
['beep', 0.0, -1007.1472534116809, 0.0, 0.0, 0.0, 0.0, -1313.6343733828514, 0.0]
['beep', 0.0, -1009.5165383239435, 0.0, 0.0, 0.0, 0.0, -1314.4166844387871, 0.0]
['beep', 0.0, -1015.5068058379658, 0.0, 0.0, 0.0, 0.0, -1316.6071553954073, 0.0]
['beep', 0.0, -1015.9761924715273, 0.0, 0.0, 0.0, 0.0, -1317.2777077290664, 0.0]
['beep', 0.0, -1010.9023464801725, 0.0, 0.0, 0.0, 0.0, -1316.741265862139, 0.0]
['beep', 0.0, -1006.6555150336642, 0.0, 0.0, 0.0, 0.0, -1313.9025943163151, 0.0]
['beep', 0.0, -1008.9800964570161, 0.0, 0.0, 0.0, 0.0, -1314.103760016413, 0.0]
['beep', 0.0, -1013.7186662815412, 0.0, 0.0, 0.0, 0.0, -1316.227175739667, 0.0]
['beep', 0.0, -1014.4786255930217, 0.0, 0.0, 0.0, 0.0, -1317.1212455178793, 0.0]
['beep', 0.0, -1009.6953522795859, 0.0, 0.0, 0.0, 0.0, -1316.8530245844156, 0.0]
['beep', 0.0, -1006.3872941002005, 0.0, 0.0, 0.0, 0.0, -1314.126111760868, 0.0]
['beep', 0.0, -1010.6564772911642, 0.0, 0.0, 0.0, 0.0, -1314.8637193278933, 0.0]
['beep', 0.0, -1013.9421837260943, 0.0, 0.0, 0.0, 0.0, -1317.5906321514408, 0.0]
['beep', 0.0, -1013.8527767482731, 0.0, 0.0, 0.0, 0.0, -1319.132902518857, 0.0]
['beep', 0.0, -1009.1142069237479, 0.0, 0.0, 0.0, 0.0, -1316.2048239952117, 0.0]
['beep', 0.0, -1007.2143086450469, 0.0, 0.0, 0.0, 0.0, -1314.2602222276, 0.0]
['beep', 0.0, -1009.0247999459267, 0.0, 0.0, 0.0, 0.0, -1317.5682804069854, 0.0]
['beep', 0.0, -1012.824596503329, 0.0, 0.0, 0.0, 0.0, -1318.9540885632146, 0.0]
['beep', 0.0, -1013.338686625801, 0.0, 0.0, 0.0, 0.0, -1319.3787717078653, 0.0]
['beep', 0.0, -1009.7847592574071, 0.0, 0.0, 0.0, 0.0, -1318.775274607572, 0.0]
['beep', 0.0, -1007.4378260896, 0.0, 0.0, 0.0, 0.0, -1315.6236786393738, 0.0]
['beep', 0.0, -1009.8518144907731, 0.0, 0.0, 0.0, 0.0, -1316.1377687618458, 0.0]
['beep', 0.0, -1013.62925930372, 0.0, 0.0, 0.0, 0.0, -1318.350591462921, 0.0]
['beep', 0.0, -1012.9587069700608, 0.0, 0.0, 0.0, 0.0, -1319.6916961302395, 0.0]
['beep', 0.0, -1009.0918551792927, 0.0, 0.0, 0.0, 0.0, -1318.7305711186614, 0.0]
['beep', 0.0, -1005.6273347887201, 0.0, 0.0, 0.0, 0.0, -1315.6683821282843, 0.0]
['beep', 0.0, -1007.6166400452424, 0.0, 0.0, 0.0, 0.0, -1316.0036582951138, 0.0]
['beep', 0.0, -1012.5563755698653, 0.0, 0.0, 0.0, 0.0, -1318.7976263520272, 0.0]
['beep', 0.0, -1014.1209976817368, 0.0, 0.0, 0.0, 0.0, -1320.45165544172, 0.0]
['beep', 0.0, -1010.0082767019602, 0.0, 0.0, 0.0, 0.0, -1317.8141495959937, 0.0]
['beep', 0.0, -1007.951916212072, 0.0, 0.0, 0.0, 0.0, -1316.6742106287732, 0.0]
['beep', 0.0, -1010.1647389131474, 0.0, 0.0, 0.0, 0.0, -1317.903556573815, 0.0]
['beep', 0.0, -1013.4727970925328, 0.0, 0.0, 0.0, 0.0, -1319.2223094966782, 0.0]
['beep', 0.0, -1014.8586052487618, 0.0, 0.0, 0.0, 0.0, -1320.1163792748905, 0.0]
['beep', 0.0, -1008.8906894791949, 0.0, 0.0, 0.0, 0.0, -1317.8141495959937, 0.0]
['beep', 0.0, -1006.566108055843, 0.0, 0.0, 0.0, 0.0, -1316.07071352848, 0.0]
['beep', 0.0, -1010.6788290356194, 0.0, 0.0, 0.0, 0.0, -1320.1834345082564, 0.0]
['beep', 0.0, -1014.6574395486641, 0.0, 0.0, 0.0, 0.0, -1320.0269722970693, 0.0]
['beep', 0.0, -1016.2667651494462, 0.0, 0.0, 0.0, 0.0, -1321.613946153396, 0.0]
['beep', 0.0, -1010.6341255467088, 0.0, 0.0, 0.0, 0.0, -1321.0104490531028, 0.0]
['beep', 0.0, -1009.5388900683988, 0.0, 0.0, 0.0, 0.0, -1318.7529228631167, 0.0]
['beep', 0.0, -1011.9305267251167, 0.0, 0.0, 0.0, 0.0, -1318.8646815853933, 0.0]
['beep', 0.0, -1016.8926139941948, 0.0, 0.0, 0.0, 0.0, -1322.3068502315105, 0.0]
['beep', 0.0, -1015.2385849045021, 0.0, 0.0, 0.0, 0.0, -1323.9608793212033, 0.0]
['beep', 0.0, -1011.6399540471976, 0.0, 0.0, 0.0, 0.0, -1321.8598153424043, 0.0]
['beep', 0.0, -1009.6506487906753, 0.0, 0.0, 0.0, 0.0, -1320.742228119639, 0.0]
['beep', 0.0, -1012.5563755698653, 0.0, 0.0, 0.0, 0.0, -1321.0104490531028, 0.0]
['beep', 0.0, -1019.2842506509127, 0.0, 0.0, 0.0, 0.0, -1323.35738222091, 0.0]
['beep', 0.0, -1018.7254570395299, 0.0, 0.0, 0.0, 0.0, -1325.4807979441641, 0.0]
['beep', 0.0, -1012.5563755698653, 0.0, 0.0, 0.0, 0.0, -1323.8044171100162, 0.0]
['beep', 0.0, -1011.1929191580915, 0.0, 0.0, 0.0, 0.0, -1322.0833327869575, 0.0]
['beep', 0.0, -1014.0092389594602, 0.0, 0.0, 0.0, 0.0, -1321.5692426644855, 0.0]
['beep', 0.0, -1019.6195268177423, 0.0, 0.0, 0.0, 0.0, -1324.3408589769435, 0.0]
['beep', 0.0, -1019.7312855400188, 0.0, 0.0, 0.0, 0.0, -1326.196053766734, 0.0]
['beep', 0.0, -1014.6350878042088, 0.0, 0.0, 0.0, 0.0, -1324.2514519991223, 0.0]
['beep', 0.0, -1011.7070092805636, 0.0, 0.0, 0.0, 0.0, -1323.715010132195, 0.0]
['beep', 0.0, -1016.1326546827144, 0.0, 0.0, 0.0, 0.0, -1323.5361961765525, 0.0]
['beep', 0.0, -1020.9606314850607, 0.0, 0.0, 0.0, 0.0, -1324.899652588326, 0.0]
['beep', 0.0, -1020.4241896181334, 0.0, 0.0, 0.0, 0.0, -1325.7937223665385, 0.0]
['beep', 0.0, -1016.0208959604379, 0.0, 0.0, 0.0, 0.0, -1323.1338647763569, 0.0]
['beep', 0.0, -1013.8304250038177, 0.0, 0.0, 0.0, 0.0, -1321.5692426644855, 0.0]
['beep', 0.0, -1017.4290558611222, 0.0, 0.0, 0.0, 0.0, -1320.0269722970693, 0.0]
['beep', 0.0, -1021.4076663741669, 0.0, 0.0, 0.0, 0.0, -1323.9608793212033, 0.0]
['beep', 0.0, -1021.3182593963456, 0.0, 0.0, 0.0, 0.0, -1323.8044171100162, 0.0]
['beep', 0.0, -1017.2725936499351, 0.0, 0.0, 0.0, 0.0, -1320.675172886273, 0.0]
['beep', 0.0, -1014.6350878042088, 0.0, 0.0, 0.0, 0.0, -1318.4399984407423, 0.0]
['beep', 0.0, -1017.5408145833987, 0.0, 0.0, 0.0, 0.0, -1317.1659490067898, 0.0]
['beep', 0.0, -1023.2852129084126, 0.0, 0.0, 0.0, 0.0, -1321.9268705757704, 0.0]
['beep', 0.0, -1023.0840472083149, 0.0, 0.0, 0.0, 0.0, -1323.066809542991, 0.0]
['beep', 0.0, -1018.1666634281473, 0.0, 0.0, 0.0, 0.0, -1320.45165544172, 0.0]
['beep', 0.0, -1015.663268049153, 0.0, 0.0, 0.0, 0.0, -1317.0541902845134, 0.0]
['beep', 0.0, -1017.4290558611222, 0.0, 0.0, 0.0, 0.0, -1316.6742106287732, 0.0]
['beep', 0.0, -1022.0335152189155, 0.0, 0.0, 0.0, 0.0, -1320.965745564192, 0.0]
['beep', 0.0, -1019.9324512401166, 0.0, 0.0, 0.0, 0.0, -1321.748056620128, 0.0]
['beep', 0.0, -1014.7691982709406, 0.0, 0.0, 0.0, 0.0, -1319.4681786856866, 0.0]
['beep', 0.0, -1011.2823261359127, 0.0, 0.0, 0.0, 0.0, -1316.1154170173904, 0.0]
['beep', 0.0, -1012.7798930144183, 0.0, 0.0, 0.0, 0.0, -1316.3612862063987, 0.0]
['beep', 0.0, -1017.4737593500328, 0.0, 0.0, 0.0, 0.0, -1318.9540885632146, 0.0]
['beep', 0.0, -1019.7089337955636, 0.0, 0.0, 0.0, 0.0, -1318.9540885632146, 0.0]
['beep', 0.0, -1016.177358171625, 0.0, 0.0, 0.0, 0.0, -1317.255355984611, 0.0]
['beep', 0.0, -1014.143349426192, 0.0, 0.0, 0.0, 0.0, -1316.6071553954073, 0.0]
['beep', 0.0, -1017.2055384165691, 0.0, 0.0, 0.0, 0.0, -1318.5070536741084, 0.0]
['beep', 0.0, -1022.8381780193065, 0.0, 0.0, 0.0, 0.0, -1320.3398967194435, 0.0]
['beep', 0.0, -1022.9275849971277, 0.0, 0.0, 0.0, 0.0, -1321.3010217310216, 0.0]
['beep', 0.0, -1018.9936779729936, 0.0, 0.0, 0.0, 0.0, -1320.317544974988, 0.0]
['beep', 0.0, -1016.758503527463, 0.0, 0.0, 0.0, 0.0, -1317.54592866253, 0.0]
['beep', 0.0, -1019.6418785621976, 0.0, 0.0, 0.0, 0.0, -1318.1494257628235, 0.0]
['beep', 0.0, -1024.2463379199908, 0.0, 0.0, 0.0, 0.0, -1321.8598153424043, 0.0]
['beep', 0.0, -1022.9722884860383, 0.0, 0.0, 0.0, 0.0, -1323.6479548988289, 0.0]
['beep', 0.0, -1018.2560704059686, 0.0, 0.0, 0.0, 0.0, -1320.7645798640942, 0.0]
['beep', 0.0, -1016.1326546827144, 0.0, 0.0, 0.0, 0.0, -1319.6246408968736, 0.0]
['beep', 0.0, -1019.2618989064574, 0.0, 0.0, 0.0, 0.0, -1321.7033531312172, 0.0]
['beep', 0.0, -1023.5981373307869, 0.0, 0.0, 0.0, 0.0, -1324.6984868882284, 0.0]
['beep', 0.0, -1022.2123291745579, 0.0, 0.0, 0.0, 0.0, -1327.5371584340523, 0.0]
['beep', 0.0, -1019.1054366952702, 0.0, 0.0, 0.0, 0.0, -1324.2738037435774, 0.0]
['beep', 0.0, -1017.2055384165691, 0.0, 0.0, 0.0, 0.0, -1322.0833327869575, 0.0]
['beep', 0.0, -1019.1054366952702, 0.0, 0.0, 0.0, 0.0, -1322.195091509234, 0.0]
['beep', 0.0, -1026.2132914320578, 0.0, 0.0, 0.0, 0.0, -1326.0619433000022, 0.0]
['beep', 0.0, -1025.274518164935, 0.0, 0.0, 0.0, 0.0, -1328.1183037898904, 0.0]
['beep', 0.0, -1018.7031052950747, 0.0, 0.0, 0.0, 0.0, -1325.0561147995134, 0.0]
['beep', 0.0, -1016.0432477048931, 0.0, 0.0, 0.0, 0.0, -1324.0502862990245, 0.0]
['beep', 0.0, -1019.3289541398233, 0.0, 0.0, 0.0, 0.0, -1324.1396932768457, 0.0]
['beep', 0.0, -1023.4416751195998, 0.0, 0.0, 0.0, 0.0, -1328.967670079192, 0.0]
['beep', 0.0, -1025.7662565429516, 0.0, 0.0, 0.0, 0.0, -1330.197016024234, 0.0]
['beep', 0.0, -1021.8994047521836, 0.0, 0.0, 0.0, 0.0, -1326.5313299335635, 0.0]
['beep', 0.0, -1019.2842506509127, 0.0, 0.0, 0.0, 0.0, -1324.5420246770411, 0.0]
['beep', 0.0, -1021.6758873076305, 0.0, 0.0, 0.0, 0.0, -1325.3019839885217, 0.0]
['beep', 0.0, -1026.0344774764153, 0.0, 0.0, 0.0, 0.0, -1328.163007278801, 0.0]
['beep', 0.0, -1027.0403059769042, 0.0, 0.0, 0.0, 0.0, -1329.0123735681027, 0.0]
['beep', 0.0, -1021.4523698630775, 0.0, 0.0, 0.0, 0.0, -1329.124132290379, 0.0]
['beep', 0.0, -1019.3960093731893, 0.0, 0.0, 0.0, 0.0, -1327.7159723896948, 0.0]
['beep', 0.0, -1024.0228204754378, 0.0, 0.0, 0.0, 0.0, -1327.8947863453373, 0.0]
['beep', 0.0, -1026.9285472546276, 0.0, 0.0, 0.0, 0.0, -1330.867568357893, 0.0]
['beep', 0.0, -1025.8556635207729, 0.0, 0.0, 0.0, 0.0, -1332.0745625584798, 0.0]
['beep', 0.0, -1021.6088320742646, 0.0, 0.0, 0.0, 0.0, -1329.9734985796808, 0.0]
['beep', 0.0, -1019.6642303066529, 0.0, 0.0, 0.0, 0.0, -1327.6042136674182, 0.0]
['beep', 0.0, -1022.0335152189155, 0.0, 0.0, 0.0, 0.0, -1327.7383241341502, 0.0]
['beep', 0.0, -1025.5427390983987, 0.0, 0.0, 0.0, 0.0, -1330.8899201023485, 0.0]
['beep', 0.0, -1026.1015327097814, 0.0, 0.0, 0.0, 0.0, -1332.521597447586, 0.0]
['beep', 0.0, -1021.6311838187199, 0.0, 0.0, 0.0, 0.0, -1330.7334578911614, 0.0]
['beep', 0.0, -1018.5466430838875, 0.0, 0.0, 0.0, 0.0, -1329.0347253125578, 0.0]
['beep', 0.0, -1021.4970733519881, 0.0, 0.0, 0.0, 0.0, -1329.7276293906725, 0.0]
['beep', 0.0, -1026.5262158544322, 0.0, 0.0, 0.0, 0.0, -1331.8510451139266, 0.0]
['beep', 0.0, -1026.883843765717, 0.0, 0.0, 0.0, 0.0, -1332.6333561698623, 0.0]
['beep', 0.0, -1022.3017361523791, 0.0, 0.0, 0.0, 0.0, -1331.9628038362032, 0.0]
['beep', 0.0, -1019.5524715843763, 0.0, 0.0, 0.0, 0.0, -1327.4924549451418, 0.0]
['beep', 0.0, -1022.2123291745579, 0.0, 0.0, 0.0, 0.0, -1330.8005131245272, 0.0]
['beep', 0.0, -1025.922718754139, 0.0, 0.0, 0.0, 0.0, -1333.9074056038148, 0.0]
['beep', 0.0, -1026.6826780656193, 0.0, 0.0, 0.0, 0.0, -1333.3933154813428, 0.0]
['beep', 0.0, -1021.6311838187199, 0.0, 0.0, 0.0, 0.0, -1330.8005131245272, 0.0]
['beep', 0.0, -1019.2842506509127, 0.0, 0.0, 0.0, 0.0, -1329.9511468352255, 0.0]
['beep', 0.0, -1024.1345791977144, 0.0, 0.0, 0.0, 0.0, -1331.7169346471949, 0.0]
['beep', 0.0, -1029.2754804224348, 0.0, 0.0, 0.0, 0.0, -1334.4438474707422, 0.0]
['beep', 0.0, -1028.6719833221416, 0.0, 0.0, 0.0, 0.0, -1336.9472428497365, 0.0]
['beep', 0.0, -1025.6544978206753, 0.0, 0.0, 0.0, 0.0, -1334.1085713039126, 0.0]
['beep', 0.0, -1021.854701263273, 0.0, 0.0, 0.0, 0.0, -1330.8005131245272, 0.0]
['beep', 0.0, -1025.8333117763177, 0.0, 0.0, 0.0, 0.0, -1332.0745625584798, 0.0]
['beep', 0.0, -1027.755561799474, 0.0, 0.0, 0.0, 0.0, -1336.6790219162729, 0.0]
['beep', 0.0, -1027.2638234214573, 0.0, 0.0, 0.0, 0.0, -1339.2494725286333, 0.0]
['beep', 0.0, -1024.626317575731, 0.0, 0.0, 0.0, 0.0, -1334.7344201486612, 0.0]
['beep', 0.0, -1021.4970733519881, 0.0, 0.0, 0.0, 0.0, -1330.7781613800719, 0.0]
['beep', 0.0, -1025.8109600318624, 0.0, 0.0, 0.0, 0.0, -1332.4321904697647, 0.0]
['beep', 0.0, -1031.465951379055, 0.0, 0.0, 0.0, 0.0, -1334.64501317084, 0.0]
['beep', 0.0, -1032.2929659239014, 0.0, 0.0, 0.0, 0.0, -1335.516731204597, 0.0]
['beep', 0.0, -1028.560224599865, 0.0, 0.0, 0.0, 0.0, -1332.2980800030327, 0.0]
['beep', 0.0, -1025.9897739875048, 0.0, 0.0, 0.0, 0.0, -1331.225196269178, 0.0]
['beep', 0.0, -1029.0966664667924, 0.0, 0.0, 0.0, 0.0, -1332.096914302935, 0.0]
['beep', 0.0, -1034.7963613028958, 0.0, 0.0, 0.0, 0.0, -1336.6343184273624, 0.0]
['beep', 0.0, -1036.7409630705074, 0.0, 0.0, 0.0, 0.0, -1337.2825190165663, 0.0]
['beep', 0.0, -1031.6671170791528, 0.0, 0.0, 0.0, 0.0, -1331.8510451139266, 0.0]
['beep', 0.0, -1027.2638234214573, 0.0, 0.0, 0.0, 0.0, -1330.4875887021528, 0.0]
['beep', 0.0, -1031.465951379055, 0.0, 0.0, 0.0, 0.0, -1333.2145015257004, 0.0]
['beep', 0.0, -1035.757486314474, 0.0, 0.0, 0.0, 0.0, -1335.4720277156864, 0.0]
['beep', 0.0, -1036.495093881499, 0.0, 0.0, 0.0, 0.0, -1336.5002079606304, 0.0]
['beep', 0.0, -1033.4105531466666, 0.0, 0.0, 0.0, 0.0, -1335.8743591158818, 0.0]
['beep', 0.0, -1029.5437013558985, 0.0, 0.0, 0.0, 0.0, -1332.5663009364964, 0.0]
['beep', 0.0, -1031.9353380126165, 0.0, 0.0, 0.0, 0.0, -1333.54977769253, 0.0]
['beep', 0.0, -1036.1598177146695, 0.0, 0.0, 0.0, 0.0, -1336.45550447172, 0.0]
['beep', 0.0, -1037.5903293598092, 0.0, 0.0, 0.0, 0.0, -1337.9530713502254, 0.0]
['beep', 0.0, -1032.2259106905356, 0.0, 0.0, 0.0, 0.0, -1334.1085713039126, 0.0]
['beep', 0.0, -1027.5767478438315, 0.0, 0.0, 0.0, 0.0, -1331.1581410358122, 0.0]
['beep', 0.0, -1031.465951379055, 0.0, 0.0, 0.0, 0.0, -1334.0638678150021, 0.0]
['beep', 0.0, -1036.7186113260523, 0.0, 0.0, 0.0, 0.0, -1337.7295539056724, 0.0]
['beep', 0.0, -1036.1151142257588, 0.0, 0.0, 0.0, 0.0, -1337.9307196057703, 0.0]
['beep', 0.0, -1030.4601228785662, 0.0, 0.0, 0.0, 0.0, -1335.4273242267757, 0.0]
['beep', 0.0, -1030.1024949672812, 0.0, 0.0, 0.0, 0.0, -1332.7004114032284, 0.0]
['beep', 0.0, -1031.3318409123233, 0.0, 0.0, 0.0, 0.0, -1333.192149781245, 0.0]
['beep', 0.0, -1033.7458293134964, 0.0, 0.0, 0.0, 0.0, -1336.7237254051836, 0.0]
['beep', 0.0, -1037.6126811042645, 0.0, 0.0, 0.0, 0.0, -1336.1425800493455, 0.0]
['beep', 0.0, -1032.7400008130076, 0.0, 0.0, 0.0, 0.0, -1334.3320887484658, 0.0]
['beep', 0.0, -1027.4873408660103, 0.0, 0.0, 0.0, 0.0, -1333.2592050146109, 0.0]
['beep', 0.0, -1031.5330066124209, 0.0, 0.0, 0.0, 0.0, -1333.7956468815385, 0.0]
['beep', 0.0, -1038.4843991380214, 0.0, 0.0, 0.0, 0.0, -1337.2378155276556, 0.0]
['beep', 0.0, -1035.176340958636, 0.0, 0.0, 0.0, 0.0, -1337.126056805379, 0.0]
['beep', 0.0, -1030.1919019451025, 0.0, 0.0, 0.0, 0.0, -1332.6110044254071, 0.0]
['beep', 0.0, -1029.0072594889712, 0.0, 0.0, 0.0, 0.0, -1332.6110044254071, 0.0]
['beep', 0.0, -1030.2813089229237, 0.0, 0.0, 0.0, 0.0, -1332.968632336692, 0.0]
['beep', 0.0, -1033.8128845468623, 0.0, 0.0, 0.0, 0.0, -1334.7567718931166, 0.0]
['beep', 0.0, -1034.9304717696275, 0.0, 0.0, 0.0, 0.0, -1335.6955451602394, 0.0]
['beep', 0.0, -1032.6729455796417, 0.0, 0.0, 0.0, 0.0, -1334.7344201486612, 0.0]
['beep', 0.0, -1029.4542943780773, 0.0, 0.0, 0.0, 0.0, -1332.83452186996, 0.0]
['beep', 0.0, -1030.7506955564852, 0.0, 0.0, 0.0, 0.0, -1334.7567718931166, 0.0]
['beep', 0.0, -1035.1539892141807, 0.0, 0.0, 0.0, 0.0, -1336.902539360826, 0.0]
['beep', 0.0, -1034.8634165362616, 0.0, 0.0, 0.0, 0.0, -1336.5672631939965, 0.0]
['beep', 0.0, -1029.3872391447114, 0.0, 0.0, 0.0, 0.0, -1333.8179986259936, 0.0]
['beep', 0.0, -1026.8167885323512, 0.0, 0.0, 0.0, 0.0, -1332.543949192041, 0.0]
['beep', 0.0, -1029.342535655801, 0.0, 0.0, 0.0, 0.0, -1335.0920480599461, 0.0]
['beep', 0.0, -1032.784704301918, 0.0, 0.0, 0.0, 0.0, -1336.611966682907, 0.0]
['beep', 0.0, -1033.7681810579516, 0.0, 0.0, 0.0, 0.0, -1337.6401469278512, 0.0]
['beep', 0.0, -1031.2647856789572, 0.0, 0.0, 0.0, 0.0, -1335.4273242267757, 0.0]
['beep', 0.0, -1027.8673205217506, 0.0, 0.0, 0.0, 0.0, -1333.035687570058, 0.0]
['beep', 0.0, -1029.8342740338176, 0.0, 0.0, 0.0, 0.0, -1332.901577103326, 0.0]
['beep', 0.0, -1033.1870357021137, 0.0, 0.0, 0.0, 0.0, -1335.2708620155886, 0.0]
['beep', 0.0, -1035.3104514253678, 0.0, 0.0, 0.0, 0.0, -1336.6790219162729, 0.0]
['beep', 0.0, -1030.8401025343064, 0.0, 0.0, 0.0, 0.0, -1334.1756265372785, 0.0]
['beep', 0.0, -1027.9120240106613, 0.0, 0.0, 0.0, 0.0, -1331.4040102248205, 0.0]
['beep', 0.0, -1030.7506955564852, 0.0, 0.0, 0.0, 0.0, -1334.801475382027, 0.0]
['beep', 0.0, -1033.8128845468623, 0.0, 0.0, 0.0, 0.0, -1336.5449114495411, 0.0]
['beep', 0.0, -1033.3434979133008, 0.0, 0.0, 0.0, 0.0, -1336.7907806385494, 0.0]
['beep', 0.0, -1028.8955007666948, 0.0, 0.0, 0.0, 0.0, -1335.516731204597, 0.0]
['beep', 0.0, -1028.2025966885801, 0.0, 0.0, 0.0, 0.0, -1333.4603707147087, 0.0]
['beep', 0.0, -1029.0072594889712, 0.0, 0.0, 0.0, 0.0, -1333.4603707147087, 0.0]
['beep', 0.0, -1032.2482624349907, 0.0, 0.0, 0.0, 0.0, -1338.422457983787, 0.0]
['beep', 0.0, -1032.91881476865, 0.0, 0.0, 0.0, 0.0, -1342.0210888410913, 0.0]
['beep', 0.0, -1029.3872391447114, 0.0, 0.0, 0.0, 0.0, -1336.0755248159796, 0.0]
['beep', 0.0, -1026.302698409879, 0.0, 0.0, 0.0, 0.0, -1331.8286933694712, 0.0]
['beep', 0.0, -1028.0014309884825, 0.0, 0.0, 0.0, 0.0, -1333.7285916481724, 0.0]
['beep', 0.0, -1033.1870357021137, 0.0, 0.0, 0.0, 0.0, -1335.6284899268735, 0.0]
['beep', 0.0, -1033.589367102309, 0.0, 0.0, 0.0, 0.0, -1336.45550447172, 0.0]
['beep', 0.0, -1029.5437013558985, 0.0, 0.0, 0.0, 0.0, -1334.1532747928234, 0.0]
['beep', 0.0, -1027.1520646991808, 0.0, 0.0, 0.0, 0.0, -1332.543949192041, 0.0]
['beep', 0.0, -1028.0014309884825, 0.0, 0.0, 0.0, 0.0, -1333.3709637368875, 0.0]
['beep', 0.0, -1032.0918002238036, 0.0, 0.0, 0.0, 0.0, -1336.7013736607282, 0.0]
['beep', 0.0, -1033.7681810579516, 0.0, 0.0, 0.0, 0.0, -1336.768428894094, 0.0]
['beep', 0.0, -1029.5437013558985, 0.0, 0.0, 0.0, 0.0, -1332.2086730252115, 0.0]
['beep', 0.0, -1026.0568292208707, 0.0, 0.0, 0.0, 0.0, -1329.1464840348344, 0.0]
['beep', 0.0, -1026.7944367878958, 0.0, 0.0, 0.0, 0.0, -1329.3029462460215, 0.0]
['beep', 0.0, -1032.1588554571695, 0.0, 0.0, 0.0, 0.0, -1332.320431747488, 0.0]
['beep', 0.0, -1033.4999601244879, 0.0, 0.0, 0.0, 0.0, -1333.6391846703511, 0.0]
['beep', 0.0, -1027.755561799474, 0.0, 0.0, 0.0, 0.0, -1329.7946846240384, 0.0]
['beep', 0.0, -1026.3921053877002, 0.0, 0.0, 0.0, 0.0, -1329.1464840348344, 0.0]
['beep', 0.0, -1030.527178111932, 0.0, 0.0, 0.0, 0.0, -1330.0182020685916, 0.0]
['beep', 0.0, -1036.629204348231, 0.0, 0.0, 0.0, 0.0, -1334.9579375932144, 0.0]
['beep', 0.0, -1032.114151968259, 0.0, 0.0, 0.0, 0.0, -1332.901577103326, 0.0]
['beep', 0.0, -1019.083084950815, 0.0, 0.0, 0.0, 0.0, -1328.8559113569154, 0.0]
['beep', 0.0, -1013.7857215149071, 0.0, 0.0, 0.0, 0.0, -1328.7218008901837, 0.0]
['beep', 0.0, -1017.0937796942926, 0.0, 0.0, 0.0, 0.0, -1330.0852573019574, 0.0]
['beep', 0.0, -1022.0558669633707, 0.0, 0.0, 0.0, 0.0, -1334.9802893376695, 0.0]
['beep', 0.0, -1024.179282686625, 0.0, 0.0, 0.0, 0.0, -1334.1532747928234, 0.0]
['beep', 0.0, -1018.5913465727981, 0.0, 0.0, 0.0, 0.0, -1331.6498794138288, 0.0]
['beep', 0.0, -1014.2998116373792, 0.0, 0.0, 0.0, 0.0, -1329.7946846240384, 0.0]
['beep', 0.0, -1015.6856197936082, 0.0, 0.0, 0.0, 0.0, -1333.840350370449, 0.0]
['beep', 0.0, -1021.3629628852563, 0.0, 0.0, 0.0, 0.0, -1335.3155655044993, 0.0]
['beep', 0.0, -1024.179282686625, 0.0, 0.0, 0.0, 0.0, -1335.8743591158818, 0.0]
['beep', 0.0, -1020.4465413625886, 0.0, 0.0, 0.0, 0.0, -1333.4603707147087, 0.0]
['beep', 0.0, -1015.1938814155915, 0.0, 0.0, 0.0, 0.0, -1332.4768939586752, 0.0]
['beep', 0.0, -1017.7419802834964, 0.0, 0.0, 0.0, 0.0, -1331.2698997580887, 0.0]
['beep', 0.0, -1020.8935762516948, 0.0, 0.0, 0.0, 0.0, -1335.3155655044993, 0.0]
['beep', 0.0, -1021.1170936962478, 0.0, 0.0, 0.0, 0.0, -1336.7907806385494, 0.0]
['beep', 0.0, -1019.6642303066529, 0.0, 0.0, 0.0, 0.0, -1332.83452186996, 0.0]
['beep', 0.0, -1014.948012226583, 0.0, 0.0, 0.0, 0.0, -1331.6498794138288, 0.0]
['beep', 0.0, -1016.6020413162759, 0.0, 0.0, 0.0, 0.0, -1331.381658480365, 0.0]
['beep', 0.0, -1021.273555907435, 0.0, 0.0, 0.0, 0.0, -1333.5721294369853, 0.0]
['beep', 0.0, -1021.7205907965412, 0.0, 0.0, 0.0, 0.0, -1336.3660974938987, 0.0]
['beep', 0.0, -1018.6807535506193, 0.0, 0.0, 0.0, 0.0, -1333.2145015257004, 0.0]
['beep', 0.0, -1016.4232273606334, 0.0, 0.0, 0.0, 0.0, -1329.54881543503, 0.0]
['beep', 0.0, -1018.2784221504238, 0.0, 0.0, 0.0, 0.0, -1332.2533765141222, 0.0]
['beep', 0.0, -1024.179282686625, 0.0, 0.0, 0.0, 0.0, -1334.0191643260914, 0.0]
['beep', 0.0, -1023.9557652420718, 0.0, 0.0, 0.0, 0.0, -1335.0696963154908, 0.0]
['beep', 0.0, -1017.4961110944881, 0.0, 0.0, 0.0, 0.0, -1334.5332544485634, 0.0]
['beep', 0.0, -1014.7021430375747, 0.0, 0.0, 0.0, 0.0, -1331.2922515025439, 0.0]
['beep', 0.0, -1013.3833901147116, 0.0, 0.0, 0.0, 0.0, -1330.2417195131445, 0.0]
['beep', 0.0, -1017.9878494725049, 0.0, 0.0, 0.0, 0.0, -1332.8792253588708, 0.0]
['beep', 0.0, -1017.9878494725049, 0.0, 0.0, 0.0, 0.0, -1332.8568736144155, 0.0]
['beep', 0.0, -1013.7410180259965, 0.0, 0.0, 0.0, 0.0, -1329.4370567127535, 0.0]
['beep', 0.0, -1011.2599743914575, 0.0, 0.0, 0.0, 0.0, -1327.6936206452394, 0.0]
['beep', 0.0, -1014.8139017598512, 0.0, 0.0, 0.0, 0.0, -1330.2417195131445, 0.0]
['beep', 0.0, -1021.4076663741669, 0.0, 0.0, 0.0, 0.0, -1333.974460837181, 0.0]
['beep', 0.0, -1022.2123291745579, 0.0, 0.0, 0.0, 0.0, -1333.8179986259936, 0.0]
['beep', 0.0, -1018.9266227396278, 0.0, 0.0, 0.0, 0.0, -1330.8005131245272, 0.0]
['beep', 0.0, -1016.4232273606334, 0.0, 0.0, 0.0, 0.0, -1328.744152634639, 0.0]
['beep', 0.0, -1016.8255587608289, 0.0, 0.0, 0.0, 0.0, -1329.9734985796808, 0.0]
['beep', 0.0, -1020.4912448514992, 0.0, 0.0, 0.0, 0.0, -1330.3981817243316, 0.0]
['beep', 0.0, -1021.5417768408987, 0.0, 0.0, 0.0, 0.0, -1332.968632336692, 0.0]
['beep', 0.0, -1018.5019395949769, 0.0, 0.0, 0.0, 0.0, -1331.2028445247227, 0.0]
['beep', 0.0, -1014.9256604821278, 0.0, 0.0, 0.0, 0.0, -1328.9453183347366, 0.0]
['beep', 0.0, -1017.1831866721138, 0.0, 0.0, 0.0, 0.0, -1329.3923532238427, 0.0]
['beep', 0.0, -1022.1229221967367, 0.0, 0.0, 0.0, 0.0, -1333.2145015257004, 0.0]
['beep', 0.0, -1023.6428408196975, 0.0, 0.0, 0.0, 0.0, -1332.2980800030327, 0.0]
['beep', 0.0, -1018.0772564503261, 0.0, 0.0, 0.0, 0.0, -1330.8228648689826, 0.0]
['beep', 0.0, -1014.0986459372814, 0.0, 0.0, 0.0, 0.0, -1328.6323939123624, 0.0]
['beep', 0.0, -1015.9538407270719, 0.0, 0.0, 0.0, 0.0, -1329.615870668396, 0.0]
['beep', 0.0, -1021.6088320742646, 0.0, 0.0, 0.0, 0.0, -1333.6391846703511, 0.0]
['beep', 0.0, -1022.8605297637617, 0.0, 0.0, 0.0, 0.0, -1334.8238271264825, 0.0]
['beep', 0.0, -1018.948974484083, 0.0, 0.0, 0.0, 0.0, -1333.1474462923345, 0.0]
['beep', 0.0, -1015.4844540935105, 0.0, 0.0, 0.0, 0.0, -1329.5935189239406, 0.0]
['beep', 0.0, -1016.1326546827144, 0.0, 0.0, 0.0, 0.0, -1331.2475480136334, 0.0]
['beep', 0.0, -1021.0053349739713, 0.0, 0.0, 0.0, 0.0, -1335.5390829490523, 0.0]
['beep', 0.0, -1021.6758873076305, 0.0, 0.0, 0.0, 0.0, -1334.779123637572, 0.0]
['beep', 0.0, -1019.7312855400188, 0.0, 0.0, 0.0, 0.0, -1331.582824180463, 0.0]
['beep', 0.0, -1019.239547162002, 0.0, 0.0, 0.0, 0.0, -1325.614908410896, 0.0]
['beep', 0.0, -1019.7312855400188, 0.0, 0.0, 0.0, 0.0, -1327.4477514562311, 0.0]
['beep', 0.0, -1021.8099977743624, 0.0, 0.0, 0.0, 0.0, -1334.3320887484658, 0.0]
['beep', 0.0, -1023.016991974949, 0.0, 0.0, 0.0, 0.0, -1336.5225597050858, 0.0]
['beep', 0.0, -1018.3901808727004, 0.0, 0.0, 0.0, 0.0, -1330.4428852132423, 0.0]
['beep', 0.0, -1016.4232273606334, 0.0, 0.0, 0.0, 0.0, -1324.2514519991223, 0.0]
['beep', 0.0, -1018.7701605284406, 0.0, 0.0, 0.0, 0.0, -1325.9948880666361, 0.0]
['beep', 0.0, -1022.0782187078261, 0.0, 0.0, 0.0, 0.0, -1333.348611992432, 0.0]
['beep', 0.0, -1020.8265210183289, 0.0, 0.0, 0.0, 0.0, -1336.0531730715243, 0.0]
['beep', 0.0, -1017.4290558611222, 0.0, 0.0, 0.0, 0.0, -1331.4040102248205, 0.0]
['beep', 0.0, -1015.1044744377703, 0.0, 0.0, 0.0, 0.0, -1323.8491205989267, 0.0]
['beep', 0.0, -1017.7196285390412, 0.0, 0.0, 0.0, 0.0, -1328.4088764678093, 0.0]
['beep', 0.0, -1019.5748233288317, 0.0, 0.0, 0.0, 0.0, -1334.5556061930188, 0.0]
['beep', 0.0, -1020.5583000848652, 0.0, 0.0, 0.0, 0.0, -1335.5390829490523, 0.0]
['beep', 0.0, -1016.3114686383568, 0.0, 0.0, 0.0, 0.0, -1329.2135392682003, 0.0]
['beep', 0.0, -1014.9703639710384, 0.0, 0.0, 0.0, 0.0, -1323.4691409431864, 0.0]
['beep', 0.0, -1016.5796895718205, 0.0, 0.0, 0.0, 0.0, -1324.6537833993177, 0.0]
['beep', 0.0, -1020.1112651957591, 0.0, 0.0, 0.0, 0.0, -1333.035687570058, 0.0]
['beep', 0.0, -1021.273555907435, 0.0, 0.0, 0.0, 0.0, -1337.0142980831026, 0.0]
['beep', 0.0, -1018.3901808727004, 0.0, 0.0, 0.0, 0.0, -1330.1076090464128, 0.0]
['beep', 0.0, -1014.143349426192, 0.0, 0.0, 0.0, 0.0, -1324.4749694436753, 0.0]
['beep', 0.0, -1017.6525733056752, 0.0, 0.0, 0.0, 0.0, -1325.1455217773346, 0.0]
['beep', 0.0, -1020.8488727627841, 0.0, 0.0, 0.0, 0.0, -1330.8005131245272, 0.0]
['beep', 0.0, -1020.8488727627841, 0.0, 0.0, 0.0, 0.0, -1334.801475382027, 0.0]
['beep', 0.0, -1018.144311683692, 0.0, 0.0, 0.0, 0.0, -1329.6829259017618, 0.0]
['beep', 0.0, -1016.8255587608289, 0.0, 0.0, 0.0, 0.0, -1324.4302659547648, 0.0]
['beep', 0.0, -1018.367829128245, 0.0, 0.0, 0.0, 0.0, -1326.330164233466, 0.0]
['beep', 0.0, -1020.0665617068485, 0.0, 0.0, 0.0, 0.0, -1332.4768939586752, 0.0]
['beep', 0.0, -1019.2618989064574, 0.0, 0.0, 0.0, 0.0, -1336.4778562161753, 0.0]
['beep', 0.0, -1016.9596692275608, 0.0, 0.0, 0.0, 0.0, -1329.7499811351279, 0.0]
['beep', 0.0, -1016.2667651494462, 0.0, 0.0, 0.0, 0.0, -1322.0386292980468, 0.0]
['beep', 0.0, -1018.367829128245, 0.0, 0.0, 0.0, 0.0, -1322.8656438428932, 0.0]
['beep', 0.0, -1020.7818175294183, 0.0, 0.0, 0.0, 0.0, -1330.2417195131445, 0.0]
['beep', 0.0, -1018.8148640173512, 0.0, 0.0, 0.0, 0.0, -1335.3602689934098, 0.0]
['beep', 0.0, -1016.244413404991, 0.0, 0.0, 0.0, 0.0, -1330.3311264909657, 0.0]
['beep', 0.0, -1014.9033087376724, 0.0, 0.0, 0.0, 0.0, -1323.5361961765525, 0.0]
['beep', 0.0, -1018.0549047058707, 0.0, 0.0, 0.0, 0.0, -1323.5361961765525, 0.0]
['beep', 0.0, -1020.5135965959546, 0.0, 0.0, 0.0, 0.0, -1330.129960790868, 0.0]
['beep', 0.0, -1019.239547162002, 0.0, 0.0, 0.0, 0.0, -1331.9851555806586, 0.0]
['beep', 0.0, -1016.4902825939993, 0.0, 0.0, 0.0, 0.0, -1327.514806689597, 0.0]
['beep', 0.0, -1015.4173988601445, 0.0, 0.0, 0.0, 0.0, -1320.2728414860776, 0.0]
['beep', 0.0, -1017.4737593500328, 0.0, 0.0, 0.0, 0.0, -1322.0833327869575, 0.0]
['beep', 0.0, -1019.7089337955636, 0.0, 0.0, 0.0, 0.0, -1332.2086730252115, 0.0]
['beep', 0.0, -1020.5583000848652, 0.0, 0.0, 0.0, 0.0, -1333.6615364148065, 0.0]
['beep', 0.0, -1016.1997099160803, 0.0, 0.0, 0.0, 0.0, -1328.9453183347366, 0.0]
['beep', 0.0, -1016.3561721272674, 0.0, 0.0, 0.0, 0.0, -1320.4069519528093, 0.0]
['beep', 0.0, -1019.1501401841808, 0.0, 0.0, 0.0, 0.0, -1321.7257048756726, 0.0]
['beep', 0.0, -1022.5699570858428, 0.0, 0.0, 0.0, 0.0, -1329.0123735681027, 0.0]
['beep', 0.0, -1021.7429425409964, 0.0, 0.0, 0.0, 0.0, -1331.2475480136334, 0.0]
['beep', 0.0, -1018.5019395949769, 0.0, 0.0, 0.0, 0.0, -1328.297117745533, 0.0]
['beep', 0.0, -1016.7808552719183, 0.0, 0.0, 0.0, 0.0, -1320.8539868419155, 0.0]
['beep', 0.0, -1018.4572361060663, 0.0, 0.0, 0.0, 0.0, -1321.2339664976557, 0.0]
['beep', 0.0, -1021.564128585354, 0.0, 0.0, 0.0, 0.0, -1330.0405538130467, 0.0]
['beep', 0.0, -1020.9382797406054, 0.0, 0.0, 0.0, 0.0, -1331.5381206915524, 0.0]
['beep', 0.0, -1017.9207942391389, 0.0, 0.0, 0.0, 0.0, -1325.54785317753, 0.0]
['beep', 0.0, -1016.3785238717228, 0.0, 0.0, 0.0, 0.0, -1319.2223094966782, 0.0]
['beep', 0.0, -1017.3620006277563, 0.0, 0.0, 0.0, 0.0, -1320.675172886273, 0.0]
['beep', 0.0, -1020.9159279961501, 0.0, 0.0, 0.0, 0.0, -1327.1795305227674, 0.0]
['beep', 0.0, -1020.5359483404098, 0.0, 0.0, 0.0, 0.0, -1329.615870668396, 0.0]
['beep', 0.0, -1018.2337186615132, 0.0, 0.0, 0.0, 0.0, -1325.2796322440663, 0.0]
['beep', 0.0, -1016.0432477048931, 0.0, 0.0, 0.0, 0.0, -1318.6635158852955, 0.0]
['beep', 0.0, -1016.9373174831054, 0.0, 0.0, 0.0, 0.0, -1319.6693443857844, 0.0]
['beep', 0.0, -1020.9606314850607, 0.0, 0.0, 0.0, 0.0, -1325.7490188776278, 0.0]
['beep', 0.0, -1020.9159279961501, 0.0, 0.0, 0.0, 0.0, -1329.4594084572088, 0.0]
['beep', 0.0, -1016.7138000385523, 0.0, 0.0, 0.0, 0.0, -1323.2679752430888, 0.0]
['beep', 0.0, -1015.5291575824211, 0.0, 0.0, 0.0, 0.0, -1315.7801408505609, 0.0]
['beep', 0.0, -1016.9149657386502, 0.0, 0.0, 0.0, 0.0, -1318.6188123963848, 0.0]
['beep', 0.0, -1020.2006721735803, 0.0, 0.0, 0.0, 0.0, -1326.9336613337591, 0.0]
['beep', 0.0, -1021.2512041629797, 0.0, 0.0, 0.0, 0.0, -1329.8840916018596, 0.0]
['beep', 0.0, -1018.2337186615132, 0.0, 0.0, 0.0, 0.0, -1323.580899665463, 0.0]
['beep', 0.0, -1015.3056401378681, 0.0, 0.0, 0.0, 0.0, -1317.6129838958961, 0.0]
['beep', 0.0, -1017.8984424946836, 0.0, 0.0, 0.0, 0.0, -1319.9599170637032, 0.0]
['beep', 0.0, -1019.887747751206, 0.0, 0.0, 0.0, 0.0, -1325.2125770107004, 0.0]
['beep', 0.0, -1020.0442099623931, 0.0, 0.0, 0.0, 0.0, -1329.481760201664, 0.0]
['beep', 0.0, -1017.049076205382, 0.0, 0.0, 0.0, 0.0, -1325.7043153887173, 0.0]
['beep', 0.0, -1014.9703639710384, 0.0, 0.0, 0.0, 0.0, -1317.5906321514408, 0.0]
['beep', 0.0, -1016.400875616178, 0.0, 0.0, 0.0, 0.0, -1319.870510085882, 0.0]
['beep', 0.0, -1020.3347826403121, 0.0, 0.0, 0.0, 0.0, -1327.9171380897926, 0.0]
['beep', 0.0, -1020.1559686846697, 0.0, 0.0, 0.0, 0.0, -1330.420533468787, 0.0]
['beep', 0.0, -1016.3785238717228, 0.0, 0.0, 0.0, 0.0, -1325.257280499611, 0.0]
['beep', 0.0, -1013.5175005814434, 0.0, 0.0, 0.0, 0.0, -1318.328239718466, 0.0]
['beep', 0.0, -1016.3561721272674, 0.0, 0.0, 0.0, 0.0, -1318.8870333298485, 0.0]
['beep', 0.0, -1019.7312855400188, 0.0, 0.0, 0.0, 0.0, -1326.7324956336613, 0.0]
['beep', 0.0, -1020.8712245072395, 0.0, 0.0, 0.0, 0.0, -1331.6722311582841, 0.0]
['beep', 0.0, -1017.049076205382, 0.0, 0.0, 0.0, 0.0, -1324.9443560772368, 0.0]
['beep', 0.0, -1015.9538407270719, 0.0, 0.0, 0.0, 0.0, -1317.1659490067898, 0.0]
['beep', 0.0, -1018.5913465727981, 0.0, 0.0, 0.0, 0.0, -1318.0153152960916, 0.0]
['beep', 0.0, -1021.4300181186221, 0.0, 0.0, 0.0, 0.0, -1324.9890595661473, 0.0]
['beep', 0.0, -1020.1559686846697, 0.0, 0.0, 0.0, 0.0, -1329.258242757111, 0.0]
['beep', 0.0, -1017.5184628389434, 0.0, 0.0, 0.0, 0.0, -1324.5867281659519, 0.0]
['beep', 0.0, -1015.663268049153, 0.0, 0.0, 0.0, 0.0, -1318.2164809961894, 0.0]
['beep', 0.0, -1017.7196285390412, 0.0, 0.0, 0.0, 0.0, -1318.9317368187592, 0.0]
['beep', 0.0, -1020.1783204291249, 0.0, 0.0, 0.0, 0.0, -1323.938527576748, 0.0]
['beep', 0.0, -1020.2677274069462, 0.0, 0.0, 0.0, 0.0, -1329.0570770570132, 0.0]
['beep', 0.0, -1017.2725936499351, 0.0, 0.0, 0.0, 0.0, -1324.2514519991223, 0.0]
['beep', 0.0, -1015.663268049153, 0.0, 0.0, 0.0, 0.0, -1317.680039129262, 0.0]
['beep', 0.0, -1018.2337186615132, 0.0, 0.0, 0.0, 0.0, -1317.903556573815, 0.0]
['beep', 0.0, -1020.6477070626864, 0.0, 0.0, 0.0, 0.0, -1324.2514519991223, 0.0]
['beep', 0.0, -1021.3853146297115, 0.0, 0.0, 0.0, 0.0, -1329.124132290379, 0.0]
['beep', 0.0, -1018.3231256393344, 0.0, 0.0, 0.0, 0.0, -1322.709181631706, 0.0]
['beep', 0.0, -1016.4455791050887, 0.0, 0.0, 0.0, 0.0, -1315.869547828382, 0.0]
['beep', 0.0, -1016.8032070163736, 0.0, 0.0, 0.0, 0.0, -1315.6683821282843, 0.0]
['beep', 0.0, -1021.3629628852563, 0.0, 0.0, 0.0, 0.0, -1324.6314316548624, 0.0]
['beep', 0.0, -1020.8265210183289, 0.0, 0.0, 0.0, 0.0, -1330.0852573019574, 0.0]
['beep', 0.0, -1015.9985442159825, 0.0, 0.0, 0.0, 0.0, -1323.223271754178, 0.0]
['beep', 0.0, -1014.210404659558, 0.0, 0.0, 0.0, 0.0, -1317.6353356403513, 0.0]
['beep', 0.0, -1016.8255587608289, 0.0, 0.0, 0.0, 0.0, -1316.5624519064966, 0.0]
['beep', 0.0, -1019.9324512401166, 0.0, 0.0, 0.0, 0.0, -1323.0444577985356, 0.0]
['beep', 0.0, -1019.3513058842786, 0.0, 0.0, 0.0, 0.0, -1328.9900218236473, 0.0]
['beep', 0.0, -1015.7303232825188, 0.0, 0.0, 0.0, 0.0, -1323.5585479210076, 0.0]
['beep', 0.0, -1013.4057418591669, 0.0, 0.0, 0.0, 0.0, -1315.713085617195, 0.0]
['beep', 0.0, -1016.0208959604379, 0.0, 0.0, 0.0, 0.0, -1317.8141495959937, 0.0]
['beep', 0.0, -1019.9995064734825, 0.0, 0.0, 0.0, 0.0, -1327.2242340116782, 0.0]
['beep', 0.0, -1019.4407128620999, 0.0, 0.0, 0.0, 0.0, -1330.7558096356165, 0.0]
['beep', 0.0, -1015.4621023490552, 0.0, 0.0, 0.0, 0.0, -1322.8209403539827, 0.0]
['beep', 0.0, -1014.0092389594602, 0.0, 0.0, 0.0, 0.0, -1317.031838540058, 0.0]
['beep', 0.0, -1016.7138000385523, 0.0, 0.0, 0.0, 0.0, -1317.7694461070832, 0.0]
['beep', 0.0, -1020.3571343847674, 0.0, 0.0, 0.0, 0.0, -1324.6984868882284, 0.0]
['beep', 0.0, -1019.9324512401166, 0.0, 0.0, 0.0, 0.0, -1327.7159723896948, 0.0]
['beep', 0.0, -1017.2055384165691, 0.0, 0.0, 0.0, 0.0, -1324.6984868882284, 0.0]
['beep', 0.0, -1015.9091372381613, 0.0, 0.0, 0.0, 0.0, -1317.903556573815, 0.0]
['beep', 0.0, -1017.1384831832032, 0.0, 0.0, 0.0, 0.0, -1317.7247426181725, 0.0]
['beep', 0.0, -1021.0053349739713, 0.0, 0.0, 0.0, 0.0, -1325.905481088815, 0.0]
['beep', 0.0, -1021.0947419517926, 0.0, 0.0, 0.0, 0.0, -1328.8335596124602, 0.0]
['beep', 0.0, -1015.1491779266809, 0.0, 0.0, 0.0, 0.0, -1322.0833327869575, 0.0]
['beep', 0.0, -1014.2998116373792, 0.0, 0.0, 0.0, 0.0, -1317.5906321514408, 0.0]
['beep', 0.0, -1017.1608349276585, 0.0, 0.0, 0.0, 0.0, -1318.4623501851977, 0.0]
['beep', 0.0, -1021.050038462882, 0.0, 0.0, 0.0, 0.0, -1327.157178778312, 0.0]
['beep', 0.0, -1020.6253553182311, 0.0, 0.0, 0.0, 0.0, -1329.9287950907703, 0.0]
['beep', 0.0, -1017.5408145833987, 0.0, 0.0, 0.0, 0.0, -1323.3126787319993, 0.0]
['beep', 0.0, -1017.0267244609266, 0.0, 0.0, 0.0, 0.0, -1319.0881990299463, 0.0]
['beep', 0.0, -1018.5913465727981, 0.0, 0.0, 0.0, 0.0, -1318.8199780964826, 0.0]
['beep', 0.0, -1020.9606314850607, 0.0, 0.0, 0.0, 0.0, -1325.9501845777256, 0.0]
['beep', 0.0, -1018.9266227396278, 0.0, 0.0, 0.0, 0.0, -1329.8170363684937, 0.0]
['beep', 0.0, -1015.3279918823233, 0.0, 0.0, 0.0, 0.0, -1322.8432920984378, 0.0]
['beep', 0.0, -1020.8488727627841, 0.0, 0.0, 0.0, 0.0, -1317.3447629624322, 0.0]
['beep', 0.0, -1028.2696519219462, 0.0, 0.0, 0.0, 0.0, -1317.3000594735217, 0.0]
['beep', 0.0, -1031.5330066124209, 0.0, 0.0, 0.0, 0.0, -1324.6984868882284, 0.0]
['beep', 0.0, -1030.8401025343064, 0.0, 0.0, 0.0, 0.0, -1328.0736003009797, 0.0]
['beep', 0.0, -1027.6661548216528, 0.0, 0.0, 0.0, 0.0, -1322.9997543096251, 0.0]
['beep', 0.0, -1021.8099977743624, 0.0, 0.0, 0.0, 0.0, -1316.3612862063987, 0.0]
['beep', 0.0, -1024.2910414089015, 0.0, 0.0, 0.0, 0.0, -1317.0541902845134, 0.0]
['beep', 0.0, -1029.6778118226305, 0.0, 0.0, 0.0, 0.0, -1324.6090799104072, 0.0]
['beep', 0.0, -1030.1024949672812, 0.0, 0.0, 0.0, 0.0, -1326.5313299335635, 0.0]
['beep', 0.0, -1027.085009465815, 0.0, 0.0, 0.0, 0.0, -1323.6703066432842, 0.0]
['beep', 0.0, -1025.0957042092925, 0.0, 0.0, 0.0, 0.0, -1318.5741089074743, 0.0]
['beep', 0.0, -1026.72738155453, 0.0, 0.0, 0.0, 0.0, -1318.9317368187592, 0.0]
['beep', 0.0, -1030.147198456192, 0.0, 0.0, 0.0, 0.0, -1323.8938240878374, 0.0]
['beep', 0.0, -1030.2589571784683, 0.0, 0.0, 0.0, 0.0, -1327.648917156329, 0.0]
['beep', 0.0, -1026.7720850434405, 0.0, 0.0, 0.0, 0.0, -1323.6479548988289, 0.0]
['beep', 0.0, -1025.5427390983987, 0.0, 0.0, 0.0, 0.0, -1317.0094867956027, 0.0]
['beep', 0.0, -1027.6661548216528, 0.0, 0.0, 0.0, 0.0, -1319.1105507744016, 0.0]
['beep', 0.0, -1031.309489167868, 0.0, 0.0, 0.0, 0.0, -1324.385562465854, 0.0]
['beep', 0.0, -1029.6778118226305, 0.0, 0.0, 0.0, 0.0, -1327.7830276230607, 0.0]
['beep', 0.0, -1025.498035609488, 0.0, 0.0, 0.0, 0.0, -1322.5750711649741, 0.0]
['beep', 0.0, -1024.179282686625, 0.0, 0.0, 0.0, 0.0, -1313.9472978052256, 0.0]
['beep', 0.0, -1026.9956024879937, 0.0, 0.0, 0.0, 0.0, -1317.903556573815, 0.0]
['beep', 0.0, -1029.8342740338176, 0.0, 0.0, 0.0, 0.0, -1325.6372601553512, 0.0]
['beep', 0.0, -1030.951861256583, 0.0, 0.0, 0.0, 0.0, -1326.9336613337591, 0.0]
['beep', 0.0, -1026.8167885323512, 0.0, 0.0, 0.0, 0.0, -1323.4467891987313, 0.0]
['beep', 0.0, -1024.2463379199908, 0.0, 0.0, 0.0, 0.0, -1315.6013268949184, 0.0]
['beep', 0.0, -1025.0286489759267, 0.0, 0.0, 0.0, 0.0, -1314.908422816804, 0.0]
['beep', 0.0, -1028.1578931996696, 0.0, 0.0, 0.0, 0.0, -1321.3457252199323, 0.0]
['beep', 0.0, -1024.7380762980076, 0.0, 0.0, 0.0, 0.0, -1323.871472343382, 0.0]
['beep', 0.0, -1021.5194250964433, 0.0, 0.0, 0.0, 0.0, -1319.646992641329, 0.0]
['beep', 0.0, -1018.5242913394322, 0.0, 0.0, 0.0, 0.0, -1313.2543937271112, 0.0]
['beep', 0.0, -1020.2677274069462, 0.0, 0.0, 0.0, 0.0, -1314.4166844387871, 0.0]
['beep', 0.0, -1025.5427390983987, 0.0, 0.0, 0.0, 0.0, -1323.066809542991, 0.0]
['beep', 0.0, -1027.1297129547254, 0.0, 0.0, 0.0, 0.0, -1323.0444577985356, 0.0]
['beep', 0.0, -1024.0228204754378, 0.0, 0.0, 0.0, 0.0, -1319.0211437965804, 0.0]
['beep', 0.0, -1024.3133931533569, 0.0, 0.0, 0.0, 0.0, -1313.746132105128, 0.0]
['beep', 0.0, -1027.397933888189, 0.0, 0.0, 0.0, 0.0, -1314.7519606056167, 0.0]
['beep', 0.0, -1030.169550200647, 0.0, 0.0, 0.0, 0.0, -1322.7985886095273, 0.0]
['beep', 0.0, -1030.303660667379, 0.0, 0.0, 0.0, 0.0, -1325.4807979441641, 0.0]
['beep', 0.0, -1026.3250501543343, 0.0, 0.0, 0.0, 0.0, -1321.1669112642899, 0.0]
['beep', 0.0, -1023.7993030308847, 0.0, 0.0, 0.0, 0.0, -1314.8190158389828, 0.0]
['beep', 0.0, -1025.6992013095858, 0.0, 0.0, 0.0, 0.0, -1314.841367583438, 0.0]
['beep', 0.0, -1029.4766461225327, 0.0, 0.0, 0.0, 0.0, -1322.3515537204212, 0.0]
['beep', 0.0, -1030.6389368342086, 0.0, 0.0, 0.0, 0.0, -1327.4253997117758, 0.0]
['beep', 0.0, -1027.3308786548232, 0.0, 0.0, 0.0, 0.0, -1323.4691409431864, 0.0]
['beep', 0.0, -1024.8498350202842, 0.0, 0.0, 0.0, 0.0, -1315.3107542169994, 0.0]
['beep', 0.0, -1026.883843765717, 0.0, 0.0, 0.0, 0.0, -1316.6965623732285, 0.0]
['beep', 0.0, -1029.4319426336222, 0.0, 0.0, 0.0, 0.0, -1322.3739054648765, 0.0]
['beep', 0.0, -1029.5437013558985, 0.0, 0.0, 0.0, 0.0, -1327.6265654118736, 0.0]
['beep', 0.0, -1025.2298146760243, 0.0, 0.0, 0.0, 0.0, -1321.3010217310216, 0.0]
['beep', 0.0, -1023.307564652868, 0.0, 0.0, 0.0, 0.0, -1315.1989954947228, 0.0]
['beep', 0.0, -1026.5709193433427, 0.0, 0.0, 0.0, 0.0, -1317.2777077290664, 0.0]
['beep', 0.0, -1030.6836403231193, 0.0, 0.0, 0.0, 0.0, -1324.4973211881306, 0.0]
['beep', 0.0, -1030.5495298563874, 0.0, 0.0, 0.0, 0.0, -1327.5595101785077, 0.0]
['beep', 0.0, -1027.4873408660103, 0.0, 0.0, 0.0, 0.0, -1322.5080159316083, 0.0]
['beep', 0.0, -1024.91689025365, 0.0, 0.0, 0.0, 0.0, -1315.6907338727397, 0.0]
['beep', 0.0, -1027.2638234214573, 0.0, 0.0, 0.0, 0.0, -1316.1601205063012, 0.0]
['beep', 0.0, -1030.4824746230215, 0.0, 0.0, 0.0, 0.0, -1323.8267688544713, 0.0]
['beep', 0.0, -1029.2531286779797, 0.0, 0.0, 0.0, 0.0, -1328.8112078680049, 0.0]
['beep', 0.0, -1028.336707155312, 0.0, 0.0, 0.0, 0.0, -1324.877300843871, 0.0]
['beep', 0.0, -1026.4144571321556, 0.0, 0.0, 0.0, 0.0, -1316.9871350511473, 0.0]
['beep', 0.0, -1026.369753643245, 0.0, 0.0, 0.0, 0.0, -1315.7577891061055, 0.0]
['beep', 0.0, -1029.1190182112477, 0.0, 0.0, 0.0, 0.0, -1323.938527576748, 0.0]
['beep', 0.0, -1028.9402042556053, 0.0, 0.0, 0.0, 0.0, -1328.0065450676138, 0.0]
['beep', 0.0, -1025.6768495651304, 0.0, 0.0, 0.0, 0.0, -1322.5750711649741, 0.0]
['beep', 0.0, -1024.7157245535523, 0.0, 0.0, 0.0, 0.0, -1316.7636176065944, 0.0]
['beep', 0.0, -1025.4533321205774, 0.0, 0.0, 0.0, 0.0, -1317.836501340449, 0.0]
['beep', 0.0, -1028.336707155312, 0.0, 0.0, 0.0, 0.0, -1326.6207369113847, 0.0]
['beep', 0.0, -1028.2696519219462, 0.0, 0.0, 0.0, 0.0, -1330.711106146706, 0.0]
['beep', 0.0, -1025.8780152652282, 0.0, 0.0, 0.0, 0.0, -1322.3739054648765, 0.0]
['beep', 0.0, -1022.1229221967367, 0.0, 0.0, 0.0, 0.0, -1316.0036582951138, 0.0]
['beep', 0.0, -1024.179282686625, 0.0, 0.0, 0.0, 0.0, -1319.6246408968736, 0.0]
['beep', 0.0, -1028.2696519219462, 0.0, 0.0, 0.0, 0.0, -1324.5420246770411, 0.0]
['beep', 0.0, -1028.046134477393, 0.0, 0.0, 0.0, 0.0, -1326.7324956336613, 0.0]
['beep', 0.0, -1024.0451722198932, 0.0, 0.0, 0.0, 0.0, -1323.066809542991, 0.0]
['beep', 0.0, -1021.1617971851584, 0.0, 0.0, 0.0, 0.0, -1317.7470943626279, 0.0]
['beep', 0.0, -1023.2852129084126, 0.0, 0.0, 0.0, 0.0, -1318.6635158852955, 0.0]
['beep', 0.0, -1025.7215530540411, 0.0, 0.0, 0.0, 0.0, -1326.0842950444573, 0.0]
['beep', 0.0, -1025.0733524648372, 0.0, 0.0, 0.0, 0.0, -1329.6382224128513, 0.0]
['beep', 0.0, -1022.9722884860383, 0.0, 0.0, 0.0, 0.0, -1323.938527576748, 0.0]
['beep', 0.0, -1020.692410551597, 0.0, 0.0, 0.0, 0.0, -1316.8083210955049, 0.0]
['beep', 0.0, -1022.1229221967367, 0.0, 0.0, 0.0, 0.0, -1318.1494257628235, 0.0]
['beep', 0.0, -1025.5203873539433, 0.0, 0.0, 0.0, 0.0, -1325.5925566664407, 0.0]
['beep', 0.0, -1025.3862768872116, 0.0, 0.0, 0.0, 0.0, -1326.5983851669296, 0.0]
['beep', 0.0, -1021.854701263273, 0.0, 0.0, 0.0, 0.0, -1322.195091509234, 0.0]
['beep', 0.0, -1019.8430442622954, 0.0, 0.0, 0.0, 0.0, -1316.2942309730329, 0.0]
['beep', 0.0, -1023.307564652868, 0.0, 0.0, 0.0, 0.0, -1316.4059896953095, 0.0]
['beep', 0.0, -1025.2074629315691, 0.0, 0.0, 0.0, 0.0, -1325.4807979441641, 0.0]
['beep', 0.0, -1024.2463379199908, 0.0, 0.0, 0.0, 0.0, -1328.3418212344434, 0.0]
['beep', 0.0, -1022.435846619111, 0.0, 0.0, 0.0, 0.0, -1324.5643764214965, 0.0]
['beep', 0.0, -1020.3124308958568, 0.0, 0.0, 0.0, 0.0, -1316.2942309730329, 0.0]
['beep', 0.0, -1022.5029018524768, 0.0, 0.0, 0.0, 0.0, -1317.7470943626279, 0.0]
['beep', 0.0, -1026.4591606210663, 0.0, 0.0, 0.0, 0.0, -1325.7937223665385, 0.0]
['beep', 0.0, -1026.3921053877002, 0.0, 0.0, 0.0, 0.0, -1328.7218008901837, 0.0]
['beep', 0.0, -1023.4416751195998, 0.0, 0.0, 0.0, 0.0, -1321.7927601090385, 0.0]
['beep', 0.0, -1020.401837873678, 0.0, 0.0, 0.0, 0.0, -1316.9200798177815, 0.0]
['beep', 0.0, -1022.1899774301025, 0.0, 0.0, 0.0, 0.0, -1318.1270740183681, 0.0]
['beep', 0.0, -1026.079180965326, 0.0, 0.0, 0.0, 0.0, -1325.54785317753, 0.0]
['beep', 0.0, -1026.8614920212617, 0.0, 0.0, 0.0, 0.0, -1327.4477514562311, 0.0]
['beep', 0.0, -1023.0393437194043, 0.0, 0.0, 0.0, 0.0, -1324.385562465854, 0.0]
['beep', 0.0, -1021.3182593963456, 0.0, 0.0, 0.0, 0.0, -1317.903556573815, 0.0]
['beep', 0.0, -1023.8663582642506, 0.0, 0.0, 0.0, 0.0, -1316.383637950854, 0.0]
['beep', 0.0, -1026.2579949209685, 0.0, 0.0, 0.0, 0.0, -1324.2514519991223, 0.0]
['beep', 0.0, -1026.6379745767088, 0.0, 0.0, 0.0, 0.0, -1328.0512485565243, 0.0]
['beep', 0.0, -1023.7322477975188, 0.0, 0.0, 0.0, 0.0, -1322.485664187153, 0.0]
['beep', 0.0, -1020.8265210183289, 0.0, 0.0, 0.0, 0.0, -1316.1601205063012, 0.0]
['beep', 0.0, -1023.3299163973232, 0.0, 0.0, 0.0, 0.0, -1316.875376328871, 0.0]
['beep', 0.0, -1026.5485675988875, 0.0, 0.0, 0.0, 0.0, -1323.5361961765525, 0.0]
['beep', 0.0, -1026.302698409879, 0.0, 0.0, 0.0, 0.0, -1327.514806689597, 0.0]
['beep', 0.0, -1022.9946402304936, 0.0, 0.0, 0.0, 0.0, -1323.938527576748, 0.0]
['beep', 0.0, -1019.9995064734825, 0.0, 0.0, 0.0, 0.0, -1316.741265862139, 0.0]
['beep', 0.0, -1022.659364063664, 0.0, 0.0, 0.0, 0.0, -1317.5682804069854, 0.0]
['beep', 0.0, -1025.9674222430494, 0.0, 0.0, 0.0, 0.0, -1323.2456234986334, 0.0]
['beep', 0.0, -1024.6486693201864, 0.0, 0.0, 0.0, 0.0, -1326.4642747001976, 0.0]
['beep', 0.0, -1023.1287506972255, 0.0, 0.0, 0.0, 0.0, -1323.1562165208122, 0.0]
['beep', 0.0, -1020.5135965959546, 0.0, 0.0, 0.0, 0.0, -1316.4283414397648, 0.0]
['beep', 0.0, -1023.0840472083149, 0.0, 0.0, 0.0, 0.0, -1316.6295071398624, 0.0]
['beep', 0.0, -1024.8498350202842, 0.0, 0.0, 0.0, 0.0, -1323.7597136211054, 0.0]
['beep', 0.0, -1024.5145588534544, 0.0, 0.0, 0.0, 0.0, -1328.2747660010775, 0.0]
['beep', 0.0, -1023.0840472083149, 0.0, 0.0, 0.0, 0.0, -1324.5867281659519, 0.0]
['beep', 0.0, -1022.6146605747534, 0.0, 0.0, 0.0, 0.0, -1316.093065272935, 0.0]
['beep', 0.0, -1024.626317575731, 0.0, 0.0, 0.0, 0.0, -1317.6129838958961, 0.0]
['beep', 0.0, -1028.1578931996696, 0.0, 0.0, 0.0, 0.0, -1324.9667078216921, 0.0]
['beep', 0.0, -1028.4261141331333, 0.0, 0.0, 0.0, 0.0, -1326.3748677223764, 0.0]
['beep', 0.0, -1024.8945385091947, 0.0, 0.0, 0.0, 0.0, -1323.2679752430888, 0.0]
['beep', 0.0, -1021.2288524185244, 0.0, 0.0, 0.0, 0.0, -1315.869547828382, 0.0]
['beep', 0.0, -1022.7487710414853, 0.0, 0.0, 0.0, 0.0, -1317.0094867956027, 0.0]
['beep', 0.0, -1026.4815123655214, 0.0, 0.0, 0.0, 0.0, -1324.9890595661473, 0.0]
['beep', 0.0, -1026.6826780656193, 0.0, 0.0, 0.0, 0.0, -1330.576995679974, 0.0]
['beep', 0.0, -1024.0675239643483, 0.0, 0.0, 0.0, 0.0, -1326.0395915555468, 0.0]
['beep', 0.0, -1021.273555907435, 0.0, 0.0, 0.0, 0.0, -1318.9540885632146, 0.0]
['beep', 0.0, -1022.7040675525747, 0.0, 0.0, 0.0, 0.0, -1318.4623501851977, 0.0]
['beep', 0.0, -1026.3250501543343, 0.0, 0.0, 0.0, 0.0, -1325.1008182884239, 0.0]
['beep', 0.0, -1025.6097943317645, 0.0, 0.0, 0.0, 0.0, -1328.8559113569154, 0.0]
['beep', 0.0, -1023.3969716306892, 0.0, 0.0, 0.0, 0.0, -1324.1396932768457, 0.0]
['beep', 0.0, -1021.9441082410942, 0.0, 0.0, 0.0, 0.0, -1318.998792052125, 0.0]
['beep', 0.0, -1024.8274832758289, 0.0, 0.0, 0.0, 0.0, -1321.323373475477, 0.0]
['beep', 0.0, -1026.5262158544322, 0.0, 0.0, 0.0, 0.0, -1325.9501845777256, 0.0]
['beep', 0.0, -1027.1967681880915, 0.0, 0.0, 0.0, 0.0, -1328.4982834456305, 0.0]
['beep', 0.0, -1025.3862768872116, 0.0, 0.0, 0.0, 0.0, -1326.128998533368, 0.0]
['beep', 0.0, -1022.7934745303959, 0.0, 0.0, 0.0, 0.0, -1319.7811031080607, 0.0]
['beep', 0.0, -1024.0675239643483, 0.0, 0.0, 0.0, 0.0, -1319.512882174597, 0.0]
['beep', 0.0, -1027.1297129547254, 0.0, 0.0, 0.0, 0.0, -1325.7266671331724, 0.0]
['beep', 0.0, -1027.2191199325466, 0.0, 0.0, 0.0, 0.0, -1329.2805945015664, 0.0]
['beep', 0.0, -1025.274518164935, 0.0, 0.0, 0.0, 0.0, -1324.3632107213987, 0.0]
['beep', 0.0, -1022.8158262748511, 0.0, 0.0, 0.0, 0.0, -1315.1542920058123, 0.0]
['beep', 0.0, -1024.0898757088037, 0.0, 0.0, 0.0, 0.0, -1315.6683821282843, 0.0]
['beep', 0.0, -1027.1967681880915, 0.0, 0.0, 0.0, 0.0, -1323.8044171100162, 0.0]
['beep', 0.0, -1026.369753643245, 0.0, 0.0, 0.0, 0.0, -1328.6323939123624, 0.0]
['beep', 0.0, -1021.4300181186221, 0.0, 0.0, 0.0, 0.0, -1325.0561147995134, 0.0]
['beep', 0.0, -1020.7594657849629, 0.0, 0.0, 0.0, 0.0, -1317.8141495959937, 0.0]
['beep', 0.0, -1023.6875443086082, 0.0, 0.0, 0.0, 0.0, -1318.0600187850023, 0.0]
['beep', 0.0, -1026.2132914320578, 0.0, 0.0, 0.0, 0.0, -1324.9890595661473, 0.0]
['beep', 0.0, -1026.4144571321556, 0.0, 0.0, 0.0, 0.0, -1326.3972194668318, 0.0]
['beep', 0.0, -1026.9285472546276, 0.0, 0.0, 0.0, 0.0, -1322.195091509234, 0.0]
['beep', 0.0, -1022.659364063664, 0.0, 0.0, 0.0, 0.0, -1314.5954983944296, 0.0]
['beep', 0.0, -1023.2181576750468, 0.0, 0.0, 0.0, 0.0, -1315.0872367724464, 0.0]
['beep', 0.0, -1026.5262158544322, 0.0, 0.0, 0.0, 0.0, -1323.1338647763569, 0.0]
['beep', 0.0, -1027.532044354921, 0.0, 0.0, 0.0, 0.0, -1327.2242340116782, 0.0]
['beep', 0.0, -1024.8721867647394, 0.0, 0.0, 0.0, 0.0, -1323.5138444320971, 0.0]
['beep', 0.0, -1022.8381780193065, 0.0, 0.0, 0.0, 0.0, -1316.0036582951138, 0.0]
['beep', 0.0, -1024.2016344310803, 0.0, 0.0, 0.0, 0.0, -1317.3671147068876, 0.0]
['beep', 0.0, -1027.085009465815, 0.0, 0.0, 0.0, 0.0, -1324.1843967657562, 0.0]
['beep', 0.0, -1027.7779135439293, 0.0, 0.0, 0.0, 0.0, -1326.4642747001976, 0.0]
['beep', 0.0, -1024.402800131178, 0.0, 0.0, 0.0, 0.0, -1322.1056845314129, 0.0]
['beep', 0.0, -1021.564128585354, 0.0, 0.0, 0.0, 0.0, -1316.2048239952117, 0.0]
['beep', 0.0, -1023.4193233751445, 0.0, 0.0, 0.0, 0.0, -1315.8471960839267, 0.0]
['beep', 0.0, -1027.4649891215552, 0.0, 0.0, 0.0, 0.0, -1324.094989787935, 0.0]
['beep', 0.0, -1027.2861751659127, 0.0, 0.0, 0.0, 0.0, -1327.2465857561333, 0.0]
['beep', 0.0, -1023.1958059305914, 0.0, 0.0, 0.0, 0.0, -1321.032800797558, 0.0]
['beep', 0.0, -1022.1899774301025, 0.0, 0.0, 0.0, 0.0, -1314.774312350072, 0.0]
['beep', 0.0, -1022.5029018524768, 0.0, 0.0, 0.0, 0.0, -1313.7684838495832, 0.0]
['beep', 0.0, -1027.0403059769042, 0.0, 0.0, 0.0, 0.0, -1321.6810013867619, 0.0]
['beep', 0.0, -1028.6719833221416, 0.0, 0.0, 0.0, 0.0, -1326.64308865584, 0.0]
['beep', 0.0, -1024.7380762980076, 0.0, 0.0, 0.0, 0.0, -1321.1445595198345, 0.0]
['beep', 0.0, -1021.273555907435, 0.0, 0.0, 0.0, 0.0, -1313.8355390829493, 0.0]
['beep', 0.0, -1023.9110617531612, 0.0, 0.0, 0.0, 0.0, -1314.5954983944296, 0.0]
['beep', 0.0, -1026.6379745767088, 0.0, 0.0, 0.0, 0.0, -1321.457483942209, 0.0]
['beep', 0.0, -1025.5874425873092, 0.0, 0.0, 0.0, 0.0, -1325.033763055058, 0.0]
['beep', 0.0, -1023.0840472083149, 0.0, 0.0, 0.0, 0.0, -1320.8986903308262, 0.0]
['beep', 0.0, -1019.3960093731893, 0.0, 0.0, 0.0, 0.0, -1312.293268715533, 0.0]
['beep', 0.0, -1021.4300181186221, 0.0, 0.0, 0.0, 0.0, -1312.8520623269155, 0.0]
['beep', 0.0, -1025.3192216538455, 0.0, 0.0, 0.0, 0.0, -1319.1776060077675, 0.0]
['beep', 0.0, -1023.8440065197954, 0.0, 0.0, 0.0, 0.0, -1324.4302659547648, 0.0]
['beep', 0.0, -1021.2959076518903, 0.0, 0.0, 0.0, 0.0, -1320.965745564192, 0.0]
['beep', 0.0, -1018.9713262285384, 0.0, 0.0, 0.0, 0.0, -1314.2602222276, 0.0]
['beep', 0.0, -1021.4300181186221, 0.0, 0.0, 0.0, 0.0, -1314.7966640945274, 0.0]
['beep', 0.0, -1023.7545995419741, 0.0, 0.0, 0.0, 0.0, -1321.2339664976557, 0.0]
['beep', 0.0, -1023.7993030308847, 0.0, 0.0, 0.0, 0.0, -1324.9890595661473, 0.0]
['beep', 0.0, -1021.4076663741669, 0.0, 0.0, 0.0, 0.0, -1320.5634141639966, 0.0]
['beep', 0.0, -1019.9548029845719, 0.0, 0.0, 0.0, 0.0, -1313.5673181494853, 0.0]
['beep', 0.0, -1021.9217564966389, 0.0, 0.0, 0.0, 0.0, -1315.4448646837313, 0.0]
['beep', 0.0, -1024.2239861755356, 0.0, 0.0, 0.0, 0.0, -1320.6975246307284, 0.0]
['beep', 0.0, -1024.4251518756332, 0.0, 0.0, 0.0, 0.0, -1325.033763055058, 0.0]
['beep', 0.0, -1020.7818175294183, 0.0, 0.0, 0.0, 0.0, -1321.7033531312172, 0.0]
['beep', 0.0, -1019.4407128620999, 0.0, 0.0, 0.0, 0.0, -1315.2436989836335, 0.0]
['beep', 0.0, -1022.2793844079238, 0.0, 0.0, 0.0, 0.0, -1314.2602222276, 0.0]
['beep', 0.0, -1024.0898757088037, 0.0, 0.0, 0.0, 0.0, -1320.675172886273, 0.0]
['beep', 0.0, -1024.5145588534544, 0.0, 0.0, 0.0, 0.0, -1325.033763055058, 0.0]
['beep', 0.0, -1021.4970733519881, 0.0, 0.0, 0.0, 0.0, -1320.8986903308262, 0.0]
['beep', 0.0, -1019.1948436730914, 0.0, 0.0, 0.0, 0.0, -1313.8578908274044, 0.0]
['beep', 0.0, -1020.5583000848652, 0.0, 0.0, 0.0, 0.0, -1313.969649549681, 0.0]
['beep', 0.0, -1022.7487710414853, 0.0, 0.0, 0.0, 0.0, -1320.5857659084518, 0.0]
['beep', 0.0, -1023.3969716306892, 0.0, 0.0, 0.0, 0.0, -1325.9948880666361, 0.0]
['beep', 0.0, -1022.6370123192087, 0.0, 0.0, 0.0, 0.0, -1321.3010217310216, 0.0]
['beep', 0.0, -1019.5524715843763, 0.0, 0.0, 0.0, 0.0, -1313.5673181494853, 0.0]
['beep', 0.0, -1020.1783204291249, 0.0, 0.0, 0.0, 0.0, -1314.5731466499742, 0.0]
['beep', 0.0, -1024.7827797869181, 0.0, 0.0, 0.0, 0.0, -1321.5692426644855, 0.0]
['beep', 0.0, -1025.3639251427562, 0.0, 0.0, 0.0, 0.0, -1324.8325973549602, 0.0]
['beep', 0.0, -1022.0558669633707, 0.0, 0.0, 0.0, 0.0, -1322.910347331804, 0.0]
['beep', 0.0, -1019.3289541398233, 0.0, 0.0, 0.0, 0.0, -1315.936603061748, 0.0]
['beep', 0.0, -1021.2959076518903, 0.0, 0.0, 0.0, 0.0, -1314.0143530385917, 0.0]
['beep', 0.0, -1024.8498350202842, 0.0, 0.0, 0.0, 0.0, -1322.2397949981446, 0.0]
['beep', 0.0, -1024.626317575731, 0.0, 0.0, 0.0, 0.0, -1325.6372601553512, 0.0]
['beep', 0.0, -1021.854701263273, 0.0, 0.0, 0.0, 0.0, -1323.3126787319993, 0.0]
['beep', 0.0, -1019.9548029845719, 0.0, 0.0, 0.0, 0.0, -1316.0483617840246, 0.0]
['beep', 0.0, -1020.3794861292228, 0.0, 0.0, 0.0, 0.0, -1315.131940261357, 0.0]
['beep', 0.0, -1022.5699570858428, 0.0, 0.0, 0.0, 0.0, -1322.7315333761615, 0.0]
['beep', 0.0, -1023.1287506972255, 0.0, 0.0, 0.0, 0.0, -1325.7713706220832, 0.0]
['beep', 0.0, -1021.2288524185244, 0.0, 0.0, 0.0, 0.0, -1321.6586496423067, 0.0]
['beep', 0.0, -1019.1948436730914, 0.0, 0.0, 0.0, 0.0, -1314.7296088611615, 0.0]
['beep', 0.0, -1020.5806518293205, 0.0, 0.0, 0.0, 0.0, -1314.7966640945274, 0.0]
['beep', 0.0, -1022.8381780193065, 0.0, 0.0, 0.0, 0.0, -1320.3398967194435, 0.0]
['beep', 0.0, -1023.7993030308847, 0.0, 0.0, 0.0, 0.0, -1323.8044171100162, 0.0]
['beep', 0.0, -1020.5583000848652, 0.0, 0.0, 0.0, 0.0, -1320.742228119639, 0.0]
['beep', 0.0, -1018.1666634281473, 0.0, 0.0, 0.0, 0.0, -1315.713085617195, 0.0]
['beep', 0.0, -1019.5748233288317, 0.0, 0.0, 0.0, 0.0, -1315.5342716615526, 0.0]
['beep', 0.0, -1022.3911431302004, 0.0, 0.0, 0.0, 0.0, -1322.7538851206166, 0.0]
['beep', 0.0, -1024.7827797869181, 0.0, 0.0, 0.0, 0.0, -1326.0619433000022, 0.0]
['beep', 0.0, -1023.1287506972255, 0.0, 0.0, 0.0, 0.0, -1321.1669112642899, 0.0]
['beep', 0.0, -1022.7934745303959, 0.0, 0.0, 0.0, 0.0, -1314.7519606056167, 0.0]
['beep', 0.0, -1019.083084950815, 0.0, 0.0, 0.0, 0.0, -1312.1144547598906, 0.0]
['beep', 0.0, -1016.0432477048931, 0.0, 0.0, 0.0, 0.0, -1317.4341699402535, 0.0]
['beep', 0.0, -1014.5233290819323, 0.0, 0.0, 0.0, 0.0, -1322.6644781427954, 0.0]
['beep', 0.0, -1015.3950471156893, 0.0, 0.0, 0.0, 0.0, -1317.3671147068876, 0.0]
['beep', 0.0, -1012.6904860365971, 0.0, 0.0, 0.0, 0.0, -1310.8851088148485, 0.0]
['beep', 0.0, -1014.9256604821278, 0.0, 0.0, 0.0, 0.0, -1312.5838413934518, 0.0]
['beep', 0.0, -1016.7361517830077, 0.0, 0.0, 0.0, 0.0, -1316.0260100395692, 0.0]
['beep', 0.0, -1018.0549047058707, 0.0, 0.0, 0.0, 0.0, -1321.4127804532982, 0.0]
['beep', 0.0, -1015.3056401378681, 0.0, 0.0, 0.0, 0.0, -1316.2718792285775, 0.0]
['beep', 0.0, -1012.3328581253122, 0.0, 0.0, 0.0, 0.0, -1311.7568268486057, 0.0]
['beep', 0.0, -1015.3279918823233, 0.0, 0.0, 0.0, 0.0, -1310.9745157926698, 0.0]
['beep', 0.0, -1018.8148640173512, 0.0, 0.0, 0.0, 0.0, -1316.6295071398624, 0.0]
['beep', 0.0, -1018.434884361611, 0.0, 0.0, 0.0, 0.0, -1323.4467891987313, 0.0]
['beep', 0.0, -1015.4621023490552, 0.0, 0.0, 0.0, 0.0, -1320.9210420752815, 0.0]
['beep', 0.0, -1013.4727970925328, 0.0, 0.0, 0.0, 0.0, -1310.7509983481168, 0.0]
['beep', 0.0, -1015.5738610713317, 0.0, 0.0, 0.0, 0.0, -1308.8511000694157, 0.0]
['beep', 0.0, -1017.4961110944881, 0.0, 0.0, 0.0, 0.0, -1315.8918995728375, 0.0]
['beep', 0.0, -1017.9431459835943, 0.0, 0.0, 0.0, 0.0, -1320.7869316085496, 0.0]
['beep', 0.0, -1015.3503436267787, 0.0, 0.0, 0.0, 0.0, -1317.2330042401559, 0.0]
['beep', 0.0, -1013.2939831368903, 0.0, 0.0, 0.0, 0.0, -1311.1086262594017, 0.0]
['beep', 0.0, -1014.5009773374769, 0.0, 0.0, 0.0, 0.0, -1310.5721843924744, 0.0]
['beep', 0.0, -1016.982020972016, 0.0, 0.0, 0.0, 0.0, -1318.6858676297509, 0.0]
['beep', 0.0, -1016.6914482940971, 0.0, 0.0, 0.0, 0.0, -1322.7538851206166, 0.0]
['beep', 0.0, -1012.3328581253122, 0.0, 0.0, 0.0, 0.0, -1316.7859693510497, 0.0]
['beep', 0.0, -1008.6224685457312, 0.0, 0.0, 0.0, 0.0, -1309.1193210028794, 0.0]
['beep', 0.0, -1009.5612418128541, 0.0, 0.0, 0.0, 0.0, -1310.5274809035636, 0.0]
['beep', 0.0, -1011.3940848581893, 0.0, 0.0, 0.0, 0.0, -1317.9482600627257, 0.0]
['beep', 0.0, -1011.9975819584826, 0.0, 0.0, 0.0, 0.0, -1318.7976263520272, 0.0]
['beep', 0.0, -1009.6730005351307, 0.0, 0.0, 0.0, 0.0, -1315.3331059614547, 0.0]
['beep', 0.0, -1009.6953522795859, 0.0, 0.0, 0.0, 0.0, -1309.253431469611, 0.0]
['beep', 0.0, -1012.3552098697675, 0.0, 0.0, 0.0, 0.0, -1308.0240855245693, 0.0]
['beep', 0.0, -1016.3561721272674, 0.0, 0.0, 0.0, 0.0, -1315.422512939276, 0.0]
['beep', 0.0, -1016.982020972016, 0.0, 0.0, 0.0, 0.0, -1316.9871350511473, 0.0]
['beep', 0.0, -1014.3668668707451, 0.0, 0.0, 0.0, 0.0, -1314.327277460966, 0.0]
['beep', 0.0, -1012.0646371918485, 0.0, 0.0, 0.0, 0.0, -1308.739341347139, 0.0]
['beep', 0.0, -1014.6797912931194, 0.0, 0.0, 0.0, 0.0, -1310.3039634590107, 0.0]
['beep', 0.0, -1018.5466430838875, 0.0, 0.0, 0.0, 0.0, -1317.0094867956027, 0.0]
['beep', 0.0, -1017.5408145833987, 0.0, 0.0, 0.0, 0.0, -1322.3739054648765, 0.0]
['beep', 0.0, -1013.7857215149071, 0.0, 0.0, 0.0, 0.0, -1318.8646815853933, 0.0]
['beep', 0.0, -1010.2317941465133, 0.0, 0.0, 0.0, 0.0, -1309.5663558919855, 0.0]
['beep', 0.0, -1012.466968592044, 0.0, 0.0, 0.0, 0.0, -1309.8345768254492, 0.0]
['beep', 0.0, -1015.9538407270719, 0.0, 0.0, 0.0, 0.0, -1317.9482600627257, 0.0]
['beep', 0.0, -1017.8760907502283, 0.0, 0.0, 0.0, 0.0, -1322.195091509234, 0.0]
['beep', 0.0, -1014.1880529151026, 0.0, 0.0, 0.0, 0.0, -1316.741265862139, 0.0]
['beep', 0.0, -1012.8022447588736, 0.0, 0.0, 0.0, 0.0, -1311.5109576595971, 0.0]
['beep', 0.0, -1013.4280936036222, 0.0, 0.0, 0.0, 0.0, -1310.9968675371251, 0.0]
['beep', 0.0, -1015.5738610713317, 0.0, 0.0, 0.0, 0.0, -1317.1659490067898, 0.0]
['beep', 0.0, -1015.5738610713317, 0.0, 0.0, 0.0, 0.0, -1320.7198763751837, 0.0]
['beep', 0.0, -1012.176395914125, 0.0, 0.0, 0.0, 0.0, -1317.255355984611, 0.0]
['beep', 0.0, -1011.0588086913597, 0.0, 0.0, 0.0, 0.0, -1311.2427367261334, 0.0]
['beep', 0.0, -1012.0646371918485, 0.0, 0.0, 0.0, 0.0, -1311.5333094040525, 0.0]
['beep', 0.0, -1015.8197302603401, 0.0, 0.0, 0.0, 0.0, -1318.194129251734, 0.0]
['beep', 0.0, -1015.7750267714295, 0.0, 0.0, 0.0, 0.0, -1322.910347331804, 0.0]
['beep', 0.0, -1013.4057418591669, 0.0, 0.0, 0.0, 0.0, -1317.8588530849045, 0.0]
['beep', 0.0, -1010.500015079977, 0.0, 0.0, 0.0, 0.0, -1311.3097919594995, 0.0]
['beep', 0.0, -1012.5116720809547, 0.0, 0.0, 0.0, 0.0, -1310.4827774146531, 0.0]
['beep', 0.0, -1015.7750267714295, 0.0, 0.0, 0.0, 0.0, -1316.7859693510497, 0.0]
['beep', 0.0, -1017.4067041166669, 0.0, 0.0, 0.0, 0.0, -1321.0775042864686, 0.0]
['beep', 0.0, -1013.3610383702563, 0.0, 0.0, 0.0, 0.0, -1317.1659490067898, 0.0]
['beep', 0.0, -1010.6788290356194, 0.0, 0.0, 0.0, 0.0, -1312.516786160086, 0.0]
['beep', 0.0, -1012.6234308032311, 0.0, 0.0, 0.0, 0.0, -1311.421550681776, 0.0]
['beep', 0.0, -1015.9538407270719, 0.0, 0.0, 0.0, 0.0, -1316.7859693510497, 0.0]
['beep', 0.0, -1016.3561721272674, 0.0, 0.0, 0.0, 0.0, -1322.485664187153, 0.0]
['beep', 0.0, -1014.1880529151026, 0.0, 0.0, 0.0, 0.0, -1319.512882174597, 0.0]
['beep', 0.0, -1011.8858232362061, 0.0, 0.0, 0.0, 0.0, -1311.7568268486057, 0.0]
['beep', 0.0, -1012.243451147491, 0.0, 0.0, 0.0, 0.0, -1312.6285448823626, 0.0]
['beep', 0.0, -1014.8586052487618, 0.0, 0.0, 0.0, 0.0, -1319.4011234523207, 0.0]
['beep', 0.0, -1016.0879511938037, 0.0, 0.0, 0.0, 0.0, -1323.6256031543737, 0.0]
['beep', 0.0, -1012.6457825476865, 0.0, 0.0, 0.0, 0.0, -1319.3117164744995, 0.0]
['beep', 0.0, -1009.5612418128541, 0.0, 0.0, 0.0, 0.0, -1312.7850070935497, 0.0]
['beep', 0.0, -1012.4222651031334, 0.0, 0.0, 0.0, 0.0, -1311.6003646374184, 0.0]
['beep', 0.0, -1015.4844540935105, 0.0, 0.0, 0.0, 0.0, -1317.4788734291642, 0.0]
['beep', 0.0, -1014.0539424483708, 0.0, 0.0, 0.0, 0.0, -1323.2679752430888, 0.0]
['beep', 0.0, -1011.0588086913597, 0.0, 0.0, 0.0, 0.0, -1318.842329840938, 0.0]
['beep', 0.0, -1008.53306156791, 0.0, 0.0, 0.0, 0.0, -1311.0415710260359, 0.0]
['beep', 0.0, -1010.5447185688876, 0.0, 0.0, 0.0, 0.0, -1311.130978003857, 0.0]
['beep', 0.0, -1013.8974802371837, 0.0, 0.0, 0.0, 0.0, -1319.490530430142, 0.0]
['beep', 0.0, -1015.1491779266809, 0.0, 0.0, 0.0, 0.0, -1322.0609810425021, 0.0]
['beep', 0.0, -1011.0588086913597, 0.0, 0.0, 0.0, 0.0, -1319.3117164744995, 0.0]
['beep', 0.0, -1008.8906894791949, 0.0, 0.0, 0.0, 0.0, -1312.516786160086, 0.0]
['beep', 0.0, -1010.9917534579937, 0.0, 0.0, 0.0, 0.0, -1309.6557628698067, 0.0]
['beep', 0.0, -1013.8974802371837, 0.0, 0.0, 0.0, 0.0, -1317.1659490067898, 0.0]
['beep', 0.0, -1014.9033087376724, 0.0, 0.0, 0.0, 0.0, -1325.4360944552534, 0.0]
['beep', 0.0, -1010.5670703133429, 0.0, 0.0, 0.0, 0.0, -1320.0716757859798, 0.0]
['beep', 0.0, -1007.6166400452424, 0.0, 0.0, 0.0, 0.0, -1310.8180535814827, 0.0]
['beep', 0.0, -1008.756579012463, 0.0, 0.0, 0.0, 0.0, -1311.9132890597928, 0.0]
['beep', 0.0, -1012.7351895255077, 0.0, 0.0, 0.0, 0.0, -1318.194129251734, 0.0]
['beep', 0.0, -1013.8974802371837, 0.0, 0.0, 0.0, 0.0, -1322.418608953787, 0.0]
['beep', 0.0, -1010.3212011243345, 0.0, 0.0, 0.0, 0.0, -1317.7694461070832, 0.0]
['beep', 0.0, -1007.2813638784128, 0.0, 0.0, 0.0, 0.0, -1310.5051291591085, 0.0]
['beep', 0.0, -1009.5165383239435, 0.0, 0.0, 0.0, 0.0, -1310.4604256701978, 0.0]
['beep', 0.0, -1012.6681342921418, 0.0, 0.0, 0.0, 0.0, -1319.870510085882, 0.0]
['beep', 0.0, -1014.2998116373792, 0.0, 0.0, 0.0, 0.0, -1322.485664187153, 0.0]
['beep', 0.0, -1010.72353252453, 0.0, 0.0, 0.0, 0.0, -1317.0094867956027, 0.0]
['beep', 0.0, -1006.72257026703, 0.0, 0.0, 0.0, 0.0, -1309.4322454252535, 0.0]
['beep', 0.0, -1009.1589104126585, 0.0, 0.0, 0.0, 0.0, -1310.2145564811894, 0.0]
['beep', 0.0, -1013.7857215149071, 0.0, 0.0, 0.0, 0.0, -1317.3671147068876, 0.0]
['beep', 0.0, -1014.8586052487618, 0.0, 0.0, 0.0, 0.0, -1322.4409606982424, 0.0]
['beep', 0.0, -1011.4387883471, 0.0, 0.0, 0.0, 0.0, -1320.2281379971669, 0.0]
['beep', 0.0, -1009.5612418128541, 0.0, 0.0, 0.0, 0.0, -1313.7237803606727, 0.0]
['beep', 0.0, -1011.8411197472955, 0.0, 0.0, 0.0, 0.0, -1311.1086262594017, 0.0]
['beep', 0.0, -1014.948012226583, 0.0, 0.0, 0.0, 0.0, -1316.07071352848, 0.0]
['beep', 0.0, -1014.3445151262898, 0.0, 0.0, 0.0, 0.0, -1323.8938240878374, 0.0]
['beep', 0.0, -1012.4446168475887, 0.0, 0.0, 0.0, 0.0, -1318.2388327406447, 0.0]
['beep', 0.0, -1010.5670703133429, 0.0, 0.0, 0.0, 0.0, -1309.7228181031726, 0.0]
['beep', 0.0, -1012.9363552256054, 0.0, 0.0, 0.0, 0.0, -1311.421550681776, 0.0]
['beep', 0.0, -1014.3221633818345, 0.0, 0.0, 0.0, 0.0, -1317.9929635516362, 0.0]
['beep', 0.0, -1013.8527767482731, 0.0, 0.0, 0.0, 0.0, -1322.0609810425021, 0.0]
['beep', 0.0, -1013.7186662815412, 0.0, 0.0, 0.0, 0.0, -1318.8870333298485, 0.0]
['beep', 0.0, -1010.9917534579937, 0.0, 0.0, 0.0, 0.0, -1312.7403036046392, 0.0]
['beep', 0.0, -1011.1035121802703, 0.0, 0.0, 0.0, 0.0, -1311.7791785930608, 0.0]
['beep', 0.0, -1014.0315907039155, 0.0, 0.0, 0.0, 0.0, -1318.8870333298485, 0.0]
['beep', 0.0, -1015.2385849045021, 0.0, 0.0, 0.0, 0.0, -1322.932699076259, 0.0]
['beep', 0.0, -1012.3552098697675, 0.0, 0.0, 0.0, 0.0, -1317.8812048293598, 0.0]
['beep', 0.0, -1010.9023464801725, 0.0, 0.0, 0.0, 0.0, -1312.5391379045413, 0.0]
['beep', 0.0, -1010.5447185688876, 0.0, 0.0, 0.0, 0.0, -1314.0814082719576, 0.0]
['beep', 0.0, -1014.7021430375747, 0.0, 0.0, 0.0, 0.0, -1320.295193230533, 0.0]
['beep', 0.0, -1014.0986459372814, 0.0, 0.0, 0.0, 0.0, -1324.2067485102116, 0.0]
['beep', 0.0, -1009.8965179796837, 0.0, 0.0, 0.0, 0.0, -1319.8481583414268, 0.0]
['beep', 0.0, -1008.9577447125608, 0.0, 0.0, 0.0, 0.0, -1311.6674198707844, 0.0]
['beep', 0.0, -1010.1200354242368, 0.0, 0.0, 0.0, 0.0, -1310.0133907810916, 0.0]
['beep', 0.0, -1012.9587069700608, 0.0, 0.0, 0.0, 0.0, -1318.1047222739128, 0.0]
['beep', 0.0, -1014.5009773374769, 0.0, 0.0, 0.0, 0.0, -1323.7597136211054, 0.0]
['beep', 0.0, -1013.338686625801, 0.0, 0.0, 0.0, 0.0, -1320.1834345082564, 0.0]
['beep', 0.0, -1011.4164366026446, 0.0, 0.0, 0.0, 0.0, -1313.0532280270133, 0.0]
['beep', 0.0, -1012.1316924252144, 0.0, 0.0, 0.0, 0.0, -1311.9803442931586, 0.0]
['beep', 0.0, -1015.1938814155915, 0.0, 0.0, 0.0, 0.0, -1318.5070536741084, 0.0]
['beep', 0.0, -1015.015067459949, 0.0, 0.0, 0.0, 0.0, -1321.2339664976557, 0.0]
['beep', 0.0, -1012.824596503329, 0.0, 0.0, 0.0, 0.0, -1318.3729432073765, 0.0]
['beep', 0.0, -1010.2317941465133, 0.0, 0.0, 0.0, 0.0, -1314.0590565275022, 0.0]
['beep', 0.0, -1010.9694017135384, 0.0, 0.0, 0.0, 0.0, -1313.679076871762, 0.0]
['beep', 0.0, -1013.562204070354, 0.0, 0.0, 0.0, 0.0, -1319.132902518857, 0.0]
['beep', 0.0, -1014.5903843152981, 0.0, 0.0, 0.0, 0.0, -1325.1455217773346, 0.0]
['beep', 0.0, -1012.3328581253122, 0.0, 0.0, 0.0, 0.0, -1320.2728414860776, 0.0]
['beep', 0.0, -1009.7177040240413, 0.0, 0.0, 0.0, 0.0, -1313.2096902382004, 0.0]
['beep', 0.0, -1012.3328581253122, 0.0, 0.0, 0.0, 0.0, -1312.0250477820694, 0.0]
['beep', 0.0, -1015.7079715380636, 0.0, 0.0, 0.0, 0.0, -1319.512882174597, 0.0]
['beep', 0.0, -1014.5009773374769, 0.0, 0.0, 0.0, 0.0, -1324.7655421215943, 0.0]
['beep', 0.0, -1012.3105063808569, 0.0, 0.0, 0.0, 0.0, -1320.6975246307284, 0.0]
['beep', 0.0, -1010.8576429912619, 0.0, 0.0, 0.0, 0.0, -1313.612021638396, 0.0]
['beep', 0.0, -1011.5728988138318, 0.0, 0.0, 0.0, 0.0, -1311.9132890597928, 0.0]
['beep', 0.0, -1014.72449478203, 0.0, 0.0, 0.0, 0.0, -1317.6576873848066, 0.0]
['beep', 0.0, -1014.6797912931194, 0.0, 0.0, 0.0, 0.0, -1324.5420246770411, 0.0]
['beep', 0.0, -1012.466968592044, 0.0, 0.0, 0.0, 0.0, -1320.2281379971669, 0.0]
['beep', 0.0, -1009.985924957505, 0.0, 0.0, 0.0, 0.0, -1311.6227163818737, 0.0]
['beep', 0.0, -1009.8294627463177, 0.0, 0.0, 0.0, 0.0, -1311.8015303375162, 0.0]
['beep', 0.0, -1011.2599743914575, 0.0, 0.0, 0.0, 0.0, -1319.2446612411334, 0.0]
['beep', 0.0, -1017.6525733056752, 0.0, 0.0, 0.0, 0.0, -1321.7927601090385, 0.0]
['beep', 0.0, -1019.4854163510105, 0.0, 0.0, 0.0, 0.0, -1318.0153152960916, 0.0]
['beep', 0.0, -1019.9995064734825, 0.0, 0.0, 0.0, 0.0, -1312.002696037614, 0.0]
['beep', 0.0, -1019.7089337955636, 0.0, 0.0, 0.0, 0.0, -1312.1815099932564, 0.0]
['beep', 0.0, -1021.6982390520858, 0.0, 0.0, 0.0, 0.0, -1317.8812048293598, 0.0]
['beep', 0.0, -1021.7429425409964, 0.0, 0.0, 0.0, 0.0, -1322.7315333761615, 0.0]
['beep', 0.0, -1017.6525733056752, 0.0, 0.0, 0.0, 0.0, -1318.2835362295552, 0.0]
['beep', 0.0, -1016.8479105052842, 0.0, 0.0, 0.0, 0.0, -1313.2543937271112, 0.0]
['beep', 0.0, -1019.5077680954657, 0.0, 0.0, 0.0, 0.0, -1311.2203849816783, 0.0]
['beep', 0.0, -1021.5194250964433, 0.0, 0.0, 0.0, 0.0, -1319.7587513636056, 0.0]
['beep', 0.0, -1021.5417768408987, 0.0, 0.0, 0.0, 0.0, -1324.519672932586, 0.0]
['beep', 0.0, -1019.4407128620999, 0.0, 0.0, 0.0, 0.0, -1320.3398967194435, 0.0]
['beep', 0.0, -1015.9761924715273, 0.0, 0.0, 0.0, 0.0, -1314.8860710723486, 0.0]
['beep', 0.0, -1017.2502419054797, 0.0, 0.0, 0.0, 0.0, -1313.2543937271112, 0.0]
['beep', 0.0, -1020.6030035737758, 0.0, 0.0, 0.0, 0.0, -1320.1387310193456, 0.0]
['beep', 0.0, -1020.692410551597, 0.0, 0.0, 0.0, 0.0, -1323.2679752430888, 0.0]
['beep', 0.0, -1018.7254570395299, 0.0, 0.0, 0.0, 0.0, -1320.4963589306305, 0.0]
['beep', 0.0, -1016.4455791050887, 0.0, 0.0, 0.0, 0.0, -1313.6567251273068, 0.0]
['beep', 0.0, -1017.63022156122, 0.0, 0.0, 0.0, 0.0, -1312.9861727936475, 0.0]
['beep', 0.0, -1020.3347826403121, 0.0, 0.0, 0.0, 0.0, -1319.2446612411334, 0.0]
['beep', 0.0, -1021.3406111408009, 0.0, 0.0, 0.0, 0.0, -1325.2125770107004, 0.0]
['beep', 0.0, -1018.144311683692, 0.0, 0.0, 0.0, 0.0, -1320.9880973086474, 0.0]
['beep', 0.0, -1015.596212815787, 0.0, 0.0, 0.0, 0.0, -1313.4779111716641, 0.0]
['beep', 0.0, -1018.0772564503261, 0.0, 0.0, 0.0, 0.0, -1311.2427367261334, 0.0]
['beep', 0.0, -1020.8265210183289, 0.0, 0.0, 0.0, 0.0, -1318.5070536741084, 0.0]
['beep', 0.0, -1020.982983229516, 0.0, 0.0, 0.0, 0.0, -1323.9161758322925, 0.0]
['beep', 0.0, -1018.948974484083, 0.0, 0.0, 0.0, 0.0, -1319.35641996341, 0.0]
['beep', 0.0, -1015.8644337492507, 0.0, 0.0, 0.0, 0.0, -1312.3826756933543, 0.0]
['beep', 0.0, -1016.4902825939993, 0.0, 0.0, 0.0, 0.0, -1312.3379722044435, 0.0]
['beep', 0.0, -1021.0723902073372, 0.0, 0.0, 0.0, 0.0, -1317.54592866253, 0.0]
['beep', 0.0, -1020.7147622960523, 0.0, 0.0, 0.0, 0.0, -1321.4351321977535, 0.0]
['beep', 0.0, -1019.1054366952702, 0.0, 0.0, 0.0, 0.0, -1321.1222077753791, 0.0]
['beep', 0.0, -1015.9091372381613, 0.0, 0.0, 0.0, 0.0, -1313.3661524493878, 0.0]
['beep', 0.0, -1018.211366917058, 0.0, 0.0, 0.0, 0.0, -1311.8909373153374, 0.0]
['beep', 0.0, -1021.2288524185244, 0.0, 0.0, 0.0, 0.0, -1317.322411217977, 0.0]
['beep', 0.0, -1019.6195268177423, 0.0, 0.0, 0.0, 0.0, -1323.1338647763569, 0.0]
['beep', 0.0, -1017.853739005773, 0.0, 0.0, 0.0, 0.0, -1319.3340682189546, 0.0]
['beep', 0.0, -1016.2667651494462, 0.0, 0.0, 0.0, 0.0, -1312.4720826711755, 0.0]
['beep', 0.0, -1015.9761924715273, 0.0, 0.0, 0.0, 0.0, -1311.9803442931586, 0.0]
['beep', 0.0, -1018.9266227396278, 0.0, 0.0, 0.0, 0.0, -1317.7023908737174, 0.0]
['beep', 0.0, -1020.3794861292228, 0.0, 0.0, 0.0, 0.0, -1322.5303676760636, 0.0]
['beep', 0.0, -1017.1161314387479, 0.0, 0.0, 0.0, 0.0, -1317.5012251736196, 0.0]
['beep', 0.0, -1014.210404659558, 0.0, 0.0, 0.0, 0.0, -1313.8802425718598, 0.0]
['beep', 0.0, -1017.1831866721138, 0.0, 0.0, 0.0, 0.0, -1312.9191175602816, 0.0]
['beep', 0.0, -1020.2006721735803, 0.0, 0.0, 0.0, 0.0, -1317.2330042401559, 0.0]
['beep', 0.0, -1020.5583000848652, 0.0, 0.0, 0.0, 0.0, -1321.7033531312172, 0.0]
['beep', 0.0, -1018.3454773837898, 0.0, 0.0, 0.0, 0.0, -1319.132902518857, 0.0]
['beep', 0.0, -1014.6574395486641, 0.0, 0.0, 0.0, 0.0, -1312.2038617377118, 0.0]
['beep', 0.0, -1016.4902825939993, 0.0, 0.0, 0.0, 0.0, -1310.2816117145553, 0.0]
['beep', 0.0, -1020.1112651957591, 0.0, 0.0, 0.0, 0.0, -1315.6683821282843, 0.0]
['beep', 0.0, -1021.1394454407032, 0.0, 0.0, 0.0, 0.0, -1321.1892630087452, 0.0]
['beep', 0.0, -1018.2560704059686, 0.0, 0.0, 0.0, 0.0, -1318.1047222739128, 0.0]
['beep', 0.0, -1014.6797912931194, 0.0, 0.0, 0.0, 0.0, -1310.5945361369297, 0.0]
['beep', 0.0, -1016.8702622497395, 0.0, 0.0, 0.0, 0.0, -1309.8345768254492, 0.0]
['beep', 0.0, -1019.4854163510105, 0.0, 0.0, 0.0, 0.0, -1316.5401001620412, 0.0]
['beep', 0.0, -1018.8819192507171, 0.0, 0.0, 0.0, 0.0, -1321.2786699865665, 0.0]
['beep', 0.0, -1017.3396488833009, 0.0, 0.0, 0.0, 0.0, -1319.0211437965804, 0.0]
['beep', 0.0, -1014.8139017598512, 0.0, 0.0, 0.0, 0.0, -1311.3991989373208, 0.0]
['beep', 0.0, -1016.6467448051865, 0.0, 0.0, 0.0, 0.0, -1311.645068126329, 0.0]
['beep', 0.0, -1018.9936779729936, 0.0, 0.0, 0.0, 0.0, -1318.9540885632146, 0.0]
['beep', 0.0, -1020.0218582179378, 0.0, 0.0, 0.0, 0.0, -1322.8656438428932, 0.0]
['beep', 0.0, -1017.3843523722115, 0.0, 0.0, 0.0, 0.0, -1318.9093850743038, 0.0]
['beep', 0.0, -1015.0597709488596, 0.0, 0.0, 0.0, 0.0, -1311.3097919594995, 0.0]
['beep', 0.0, -1016.7138000385523, 0.0, 0.0, 0.0, 0.0, -1309.87928031436, 0.0]
['beep', 0.0, -1020.6477070626864, 0.0, 0.0, 0.0, 0.0, -1317.3447629624322, 0.0]
['beep', 0.0, -1019.5077680954657, 0.0, 0.0, 0.0, 0.0, -1320.9880973086474, 0.0]
['beep', 0.0, -1018.3231256393344, 0.0, 0.0, 0.0, 0.0, -1318.998792052125, 0.0]
['beep', 0.0, -1015.9985442159825, 0.0, 0.0, 0.0, 0.0, -1313.7014286162173, 0.0]
['beep', 0.0, -1016.9373174831054, 0.0, 0.0, 0.0, 0.0, -1309.901632058815, 0.0]
['beep', 0.0, -1019.1948436730914, 0.0, 0.0, 0.0, 0.0, -1314.8190158389828, 0.0]
['beep', 0.0, -1020.4912448514992, 0.0, 0.0, 0.0, 0.0, -1321.2339664976557, 0.0]
['beep', 0.0, -1016.5796895718205, 0.0, 0.0, 0.0, 0.0, -1318.3058879740106, 0.0]
['beep', 0.0, -1013.7633697704518, 0.0, 0.0, 0.0, 0.0, -1311.5556611485079, 0.0]
['beep', 0.0, -1015.7303232825188, 0.0, 0.0, 0.0, 0.0, -1309.0075622806028, 0.0]
['beep', 0.0, -1019.1501401841808, 0.0, 0.0, 0.0, 0.0, -1315.7354373616502, 0.0]
['beep', 0.0, -1019.9771547290272, 0.0, 0.0, 0.0, 0.0, -1323.1115130319015, 0.0]
['beep', 0.0, -1017.4737593500328, 0.0, 0.0, 0.0, 0.0, -1319.2446612411334, 0.0]
['beep', 0.0, -1015.0374192044043, 0.0, 0.0, 0.0, 0.0, -1309.745169847628, 0.0]
['beep', 0.0, -1016.177358171625, 0.0, 0.0, 0.0, 0.0, -1310.2145564811894, 0.0]
['beep', 0.0, -1018.8595675062618, 0.0, 0.0, 0.0, 0.0, -1317.4565216847088, 0.0]
['beep', 0.0, -1019.6865820511082, 0.0, 0.0, 0.0, 0.0, -1321.3904287088428, 0.0]
['beep', 0.0, -1017.2502419054797, 0.0, 0.0, 0.0, 0.0, -1317.903556573815, 0.0]
['beep', 0.0, -1015.6185645602424, 0.0, 0.0, 0.0, 0.0, -1311.8238820819715, 0.0]
['beep', 0.0, -1014.9927157154937, 0.0, 0.0, 0.0, 0.0, -1309.0075622806028, 0.0]
['beep', 0.0, -1020.2900791514015, 0.0, 0.0, 0.0, 0.0, -1315.936603061748, 0.0]
['beep', 0.0, -1020.7371140405077, 0.0, 0.0, 0.0, 0.0, -1322.4409606982424, 0.0]
['beep', 0.0, -1015.6409163046976, 0.0, 0.0, 0.0, 0.0, -1318.0153152960916, 0.0]
['beep', 0.0, -1013.4504453480776, 0.0, 0.0, 0.0, 0.0, -1311.2427367261334, 0.0]
['beep', 0.0, -1016.1326546827144, 0.0, 0.0, 0.0, 0.0, -1308.739341347139, 0.0]
['beep', 0.0, -1018.8148640173512, 0.0, 0.0, 0.0, 0.0, -1314.6402018833403, 0.0]
['beep', 0.0, -1019.2618989064574, 0.0, 0.0, 0.0, 0.0, -1320.4740071861754, 0.0]
['beep', 0.0, -1016.6243930607311, 0.0, 0.0, 0.0, 0.0, -1317.7247426181725, 0.0]
['beep', 0.0, -1013.6069075592646, 0.0, 0.0, 0.0, 0.0, -1310.6168878813849, 0.0]
['beep', 0.0, -1015.4621023490552, 0.0, 0.0, 0.0, 0.0, -1311.7344751041503, 0.0]
['beep', 0.0, -1019.1501401841808, 0.0, 0.0, 0.0, 0.0, -1316.4953966731307, 0.0]
['beep', 0.0, -1019.1277884397256, 0.0, 0.0, 0.0, 0.0, -1318.842329840938, 0.0]
['beep', 0.0, -1017.4290558611222, 0.0, 0.0, 0.0, 0.0, -1316.1601205063012, 0.0]
['beep', 0.0, -1015.0597709488596, 0.0, 0.0, 0.0, 0.0, -1308.4040651803095, 0.0]
['beep', 0.0, -1015.886785493706, 0.0, 0.0, 0.0, 0.0, -1308.2699547135776, 0.0]
['beep', 0.0, -1019.4854163510105, 0.0, 0.0, 0.0, 0.0, -1315.1542920058123, 0.0]
['beep', 0.0, -1020.6253553182311, 0.0, 0.0, 0.0, 0.0, -1320.3398967194435, 0.0]
['beep', 0.0, -1018.0996081947814, 0.0, 0.0, 0.0, 0.0, -1317.4341699402535, 0.0]
['beep', 0.0, -1014.7468465264853, 0.0, 0.0, 0.0, 0.0, -1311.0862745149464, 0.0]
['beep', 0.0, -1015.1268261822256, 0.0, 0.0, 0.0, 0.0, -1310.192204736734, 0.0]
['beep', 0.0, -1019.4407128620999, 0.0, 0.0, 0.0, 0.0, -1315.4895681726418, 0.0]
['beep', 0.0, -1020.2677274069462, 0.0, 0.0, 0.0, 0.0, -1320.518710675086, 0.0]
['beep', 0.0, -1016.6020413162759, 0.0, 0.0, 0.0, 0.0, -1317.7023908737174, 0.0]
['beep', 0.0, -1014.1209976817368, 0.0, 0.0, 0.0, 0.0, -1310.6392396258402, 0.0]
['beep', 0.0, -1014.2327564040132, 0.0, 0.0, 0.0, 0.0, -1310.5945361369297, 0.0]
['beep', 0.0, -1018.3231256393344, 0.0, 0.0, 0.0, 0.0, -1318.1047222739128, 0.0]
['beep', 0.0, -1018.7701605284406, 0.0, 0.0, 0.0, 0.0, -1321.770408364583, 0.0]
['beep', 0.0, -1016.6467448051865, 0.0, 0.0, 0.0, 0.0, -1318.1047222739128, 0.0]
['beep', 0.0, -1013.9421837260943, 0.0, 0.0, 0.0, 0.0, -1310.9745157926698, 0.0]
['beep', 0.0, -1014.6574395486641, 0.0, 0.0, 0.0, 0.0, -1309.1640244917899, 0.0]
['beep', 0.0, -1016.4455791050887, 0.0, 0.0, 0.0, 0.0, -1314.908422816804, 0.0]
['beep', 0.0, -1015.6185645602424, 0.0, 0.0, 0.0, 0.0, -1319.9152135747927, 0.0]
['beep', 0.0, -1012.8022447588736, 0.0, 0.0, 0.0, 0.0, -1317.389466451343, 0.0]
['beep', 0.0, -1006.2531836334687, 0.0, 0.0, 0.0, 0.0, -1309.5663558919855, 0.0]
['beep', 0.0, -1007.0578464338597, 0.0, 0.0, 0.0, 0.0, -1308.1581959913012, 0.0]
['beep', 0.0, -1011.9081749806613, 0.0, 0.0, 0.0, 0.0, -1313.9025943163151, 0.0]
['beep', 0.0, -1014.8362535043066, 0.0, 0.0, 0.0, 0.0, -1316.5624519064966, 0.0]
['beep', 0.0, -1013.6739627926306, 0.0, 0.0, 0.0, 0.0, -1314.9978297946252, 0.0]
['beep', 0.0, -1013.0034104589714, 0.0, 0.0, 0.0, 0.0, -1310.5945361369297, 0.0]
['beep', 0.0, -1012.9363552256054, 0.0, 0.0, 0.0, 0.0, -1308.1358442468459, 0.0]
['beep', 0.0, -1016.9149657386502, 0.0, 0.0, 0.0, 0.0, -1316.0036582951138, 0.0]
['beep', 0.0, -1018.9713262285384, 0.0, 0.0, 0.0, 0.0, -1320.295193230533, 0.0]
['beep', 0.0, -1015.5738610713317, 0.0, 0.0, 0.0, 0.0, -1316.6071553954073, 0.0]
['beep', 0.0, -1013.338686625801, 0.0, 0.0, 0.0, 0.0, -1309.678114614262, 0.0]
['beep', 0.0, -1013.5845558148094, 0.0, 0.0, 0.0, 0.0, -1307.6888093577397, 0.0]
['beep', 0.0, -1016.3114686383568, 0.0, 0.0, 0.0, 0.0, -1315.7577891061055, 0.0]
['beep', 0.0, -1016.8032070163736, 0.0, 0.0, 0.0, 0.0, -1320.965745564192, 0.0]
['beep', 0.0, -1014.8586052487618, 0.0, 0.0, 0.0, 0.0, -1316.6518588843178, 0.0]
['beep', 0.0, -1012.4446168475887, 0.0, 0.0, 0.0, 0.0, -1310.9968675371251, 0.0]
['beep', 0.0, -1010.8799947357172, 0.0, 0.0, 0.0, 0.0, -1308.7169896026837, 0.0]
['beep', 0.0, -1014.4115703596557, 0.0, 0.0, 0.0, 0.0, -1314.9754780501698, 0.0]
['beep', 0.0, -1016.1550064271697, 0.0, 0.0, 0.0, 0.0, -1320.6081176529071, 0.0]
['beep', 0.0, -1014.5903843152981, 0.0, 0.0, 0.0, 0.0, -1317.2777077290664, 0.0]
['beep', 0.0, -1011.2376226470021, 0.0, 0.0, 0.0, 0.0, -1310.9521640482146, 0.0]
['beep', 0.0, -1012.1987476585804, 0.0, 0.0, 0.0, 0.0, -1308.6722861137732, 0.0]
['beep', 0.0, -1014.8139017598512, 0.0, 0.0, 0.0, 0.0, -1314.908422816804, 0.0]
['beep', 0.0, -1015.4621023490552, 0.0, 0.0, 0.0, 0.0, -1321.9268705757704, 0.0]
['beep', 0.0, -1013.0257622034267, 0.0, 0.0, 0.0, 0.0, -1316.5624519064966, 0.0]
['beep', 0.0, -1010.790587757896, 0.0, 0.0, 0.0, 0.0, -1311.5780128929632, 0.0]
['beep', 0.0, -1011.2376226470021, 0.0, 0.0, 0.0, 0.0, -1311.063922770491, 0.0]
['beep', 0.0, -1015.6409163046976, 0.0, 0.0, 0.0, 0.0, -1315.8248443394714, 0.0]
['beep', 0.0, -1017.2502419054797, 0.0, 0.0, 0.0, 0.0, -1320.7645798640942, 0.0]
['beep', 0.0, -1015.5068058379658, 0.0, 0.0, 0.0, 0.0, -1316.8306728399602, 0.0]
['beep', 0.0, -1012.8469482477842, 0.0, 0.0, 0.0, 0.0, -1310.840405325938, 0.0]
['beep', 0.0, -1013.2045761590691, 0.0, 0.0, 0.0, 0.0, -1310.7286466036614, 0.0]
['beep', 0.0, -1015.6856197936082, 0.0, 0.0, 0.0, 0.0, -1317.6353356403513, 0.0]
['beep', 0.0, -1016.6914482940971, 0.0, 0.0, 0.0, 0.0, -1322.128036275868, 0.0]
['beep', 0.0, -1013.2492796479797, 0.0, 0.0, 0.0, 0.0, -1318.9093850743038, 0.0]
['beep', 0.0, -1011.3046778803681, 0.0, 0.0, 0.0, 0.0, -1311.7568268486057, 0.0]
['beep', 0.0, -1012.1093406807591, 0.0, 0.0, 0.0, 0.0, -1308.6052308804074, 0.0]
['beep', 0.0, -1015.596212815787, 0.0, 0.0, 0.0, 0.0, -1314.7519606056167, 0.0]
['beep', 0.0, -1016.3114686383568, 0.0, 0.0, 0.0, 0.0, -1321.770408364583, 0.0]
['beep', 0.0, -1013.62925930372, 0.0, 0.0, 0.0, 0.0, -1318.7976263520272, 0.0]
['beep', 0.0, -1011.3270296248234, 0.0, 0.0, 0.0, 0.0, -1310.6392396258402, 0.0]
['beep', 0.0, -1011.4611400915552, 0.0, 0.0, 0.0, 0.0, -1308.225251224667, 0.0]
['beep', 0.0, -1014.143349426192, 0.0, 0.0, 0.0, 0.0, -1316.875376328871, 0.0]
['beep', 0.0, -1014.433922104111, 0.0, 0.0, 0.0, 0.0, -1323.2679752430888, 0.0]
['beep', 0.0, -1012.5340238254099, 0.0, 0.0, 0.0, 0.0, -1320.0716757859798, 0.0]
['beep', 0.0, -1009.4494830905776, 0.0, 0.0, 0.0, 0.0, -1311.198033237223, 0.0]
['beep', 0.0, -1010.2764976354239, 0.0, 0.0, 0.0, 0.0, -1308.7169896026837, 0.0]
['beep', 0.0, -1012.8692999922396, 0.0, 0.0, 0.0, 0.0, -1315.288402472544, 0.0]
['beep', 0.0, -1013.8304250038177, 0.0, 0.0, 0.0, 0.0, -1320.9210420752815, 0.0]
['beep', 0.0, -1011.6176023027424, 0.0, 0.0, 0.0, 0.0, -1318.1047222739128, 0.0]
['beep', 0.0, -1009.8965179796837, 0.0, 0.0, 0.0, 0.0, -1311.3991989373208, 0.0]
['beep', 0.0, -1010.6117738022535, 0.0, 0.0, 0.0, 0.0, -1310.0133907810916, 0.0]
['beep', 0.0, -1014.433922104111, 0.0, 0.0, 0.0, 0.0, -1316.4059896953095, 0.0]
['beep', 0.0, -1015.0597709488596, 0.0, 0.0, 0.0, 0.0, -1321.7033531312172, 0.0]
['beep', 0.0, -1012.5563755698653, 0.0, 0.0, 0.0, 0.0, -1317.1659490067898, 0.0]
['beep', 0.0, -1009.7847592574071, 0.0, 0.0, 0.0, 0.0, -1311.8015303375162, 0.0]
['beep', 0.0, -1009.3600761127564, 0.0, 0.0, 0.0, 0.0, -1309.4098936807984, 0.0]
['beep', 0.0, -1011.9975819584826, 0.0, 0.0, 0.0, 0.0, -1315.9142513172926, 0.0]
['beep', 0.0, -1014.2998116373792, 0.0, 0.0, 0.0, 0.0, -1320.317544974988, 0.0]
['beep', 0.0, -1010.5894220577982, 0.0, 0.0, 0.0, 0.0, -1315.578975150463, 0.0]
['beep', 0.0, -1008.6448202901865, 0.0, 0.0, 0.0, 0.0, -1309.1193210028794, 0.0]
['beep', 0.0, -1009.0471516903821, 0.0, 0.0, 0.0, 0.0, -1307.264126213089, 0.0]
['beep', 0.0, -1012.7798930144183, 0.0, 0.0, 0.0, 0.0, -1315.936603061748, 0.0]
['beep', 0.0, -1014.0986459372814, 0.0, 0.0, 0.0, 0.0, -1321.1669112642899, 0.0]
['beep', 0.0, -1011.7293610250189, 0.0, 0.0, 0.0, 0.0, -1317.7247426181725, 0.0]
['beep', 0.0, -1008.5554133123653, 0.0, 0.0, 0.0, 0.0, -1309.3651901918877, 0.0]
['beep', 0.0, -1008.2201371455357, 0.0, 0.0, 0.0, 0.0, -1307.264126213089, 0.0]
['beep', 0.0, -1011.5281953249212, 0.0, 0.0, 0.0, 0.0, -1313.9920012941363, 0.0]
['beep', 0.0, -1012.8469482477842, 0.0, 0.0, 0.0, 0.0, -1319.6022891524183, 0.0]
['beep', 0.0, -1009.1589104126585, 0.0, 0.0, 0.0, 0.0, -1316.3389344619436, 0.0]
['beep', 0.0, -1007.6389917896977, 0.0, 0.0, 0.0, 0.0, -1310.0804460144575, 0.0]
['beep', 0.0, -1010.0529801908708, 0.0, 0.0, 0.0, 0.0, -1307.4429401687314, 0.0]
['beep', 0.0, -1011.3940848581893, 0.0, 0.0, 0.0, 0.0, -1312.2485652266223, 0.0]
['beep', 0.0, -1013.4727970925328, 0.0, 0.0, 0.0, 0.0, -1318.1270740183681, 0.0]
['beep', 0.0, -1012.0646371918485, 0.0, 0.0, 0.0, 0.0, -1314.0143530385917, 0.0]
['beep', 0.0, -1007.9966197009826, 0.0, 0.0, 0.0, 0.0, -1308.6275826248625, 0.0]
['beep', 0.0, -1009.8741662352284, 0.0, 0.0, 0.0, 0.0, -1310.4380739257424, 0.0]
['beep', 0.0, -1014.3445151262898, 0.0, 0.0, 0.0, 0.0, -1315.4001611948206, 0.0]
['beep', 0.0, -1015.2162331600468, 0.0, 0.0, 0.0, 0.0, -1320.4963589306305, 0.0]
['beep', 0.0, -1012.3105063808569, 0.0, 0.0, 0.0, 0.0, -1318.7976263520272, 0.0]
['beep', 0.0, -1009.337724368301, 0.0, 0.0, 0.0, 0.0, -1310.7509983481168, 0.0]
['beep', 0.0, -1009.9635732130496, 0.0, 0.0, 0.0, 0.0, -1309.253431469611, 0.0]
['beep', 0.0, -1014.0315907039155, 0.0, 0.0, 0.0, 0.0, -1314.4390361832425, 0.0]
['beep', 0.0, -1013.8751284927283, 0.0, 0.0, 0.0, 0.0, -1320.7869316085496, 0.0]
['beep', 0.0, -1010.8352912468066, 0.0, 0.0, 0.0, 0.0, -1318.3729432073765, 0.0]
['beep', 0.0, -1008.0413231898932, 0.0, 0.0, 0.0, 0.0, -1312.0921030154352, 0.0]
['beep', 0.0, -1008.3318958678122, 0.0, 0.0, 0.0, 0.0, -1307.9793820356588, 0.0]
['beep', 0.0, -1012.8469482477842, 0.0, 0.0, 0.0, 0.0, -1314.4390361832425, 0.0]
['beep', 0.0, -1015.3726953712339, 0.0, 0.0, 0.0, 0.0, -1321.4127804532982, 0.0]
['beep', 0.0, -1013.7410180259965, 0.0, 0.0, 0.0, 0.0, -1318.2164809961894, 0.0]
['beep', 0.0, -1006.9460877115831, 0.0, 0.0, 0.0, 0.0, -1309.5663558919855, 0.0]
['beep', 0.0, -999.7711777414296, 0.0, 0.0, 0.0, 0.0, -1305.9006698013152, 0.0]
['beep', 0.0, -1002.9227737096279, 0.0, 0.0, 0.0, 0.0, -1314.3719809498766, 0.0]
['beep', 0.0, -1007.6836952786083, 0.0, 0.0, 0.0, 0.0, -1319.132902518857, 0.0]
['beep', 0.0, -1005.4485208330776, 0.0, 0.0, 0.0, 0.0, -1317.8141495959937, 0.0]
['beep', 0.0, -1003.3251051098234, 0.0, 0.0, 0.0, 0.0, -1311.8015303375162, 0.0]
['beep', 0.0, -1003.8615469767508, 0.0, 0.0, 0.0, 0.0, -1308.2476029691225, 0.0]
['beep', 0.0, -1006.1414249111921, 0.0, 0.0, 0.0, 0.0, -1315.1095885169016, 0.0]
['beep', 0.0, -1006.9460877115831, 0.0, 0.0, 0.0, 0.0, -1321.5692426644855, 0.0]
['beep', 0.0, -1005.1355964107033, 0.0, 0.0, 0.0, 0.0, -1318.6188123963848, 0.0]
['beep', 0.0, -999.4135498301447, 0.0, 0.0, 0.0, 0.0, -1310.7733500925722, 0.0]
['beep', 0.0, -1000.7323027530078, 0.0, 0.0, 0.0, 0.0, -1308.292306458033, 0.0]
['beep', 0.0, -1005.2697068774352, 0.0, 0.0, 0.0, 0.0, -1314.7519606056167, 0.0]
['beep', 0.0, -1005.9626109555496, 0.0, 0.0, 0.0, 0.0, -1321.2339664976557, 0.0]
['beep', 0.0, -1003.5039190654659, 0.0, 0.0, 0.0, 0.0, -1317.8588530849045, 0.0]
['beep', 0.0, -1000.4193783306335, 0.0, 0.0, 0.0, 0.0, -1311.35449544841, 0.0]
['beep', 0.0, -1001.1569858976586, 0.0, 0.0, 0.0, 0.0, -1310.1251495033682, 0.0]
['beep', 0.0, -1003.6827330211083, 0.0, 0.0, 0.0, 0.0, -1315.7801408505609, 0.0]
['beep', 0.0, -1004.53209931041, 0.0, 0.0, 0.0, 0.0, -1320.6528211418179, 0.0]
['beep', 0.0, -1002.7216080095301, 0.0, 0.0, 0.0, 0.0, -1317.7917978515386, 0.0]
['beep', 0.0, -1001.0228754309268, 0.0, 0.0, 0.0, 0.0, -1310.6615913702956, 0.0]
['beep', 0.0, -1001.0452271753821, 0.0, 0.0, 0.0, 0.0, -1309.0746175139686, 0.0]
['beep', 0.0, -1004.0850644213039, 0.0, 0.0, 0.0, 0.0, -1315.6236786393738, 0.0]
['beep', 0.0, -1004.6885615215972, 0.0, 0.0, 0.0, 0.0, -1321.479835686664, 0.0]
['beep', 0.0, -1002.8557184762619, 0.0, 0.0, 0.0, 0.0, -1319.8258065969715, 0.0]
['beep', 0.0, -999.5476602968765, 0.0, 0.0, 0.0, 0.0, -1312.2485652266223, 0.0]
['beep', 0.0, -999.5029568079659, 0.0, 0.0, 0.0, 0.0, -1311.2427367261334, 0.0]
['beep', 0.0, -1004.7332650105078, 0.0, 0.0, 0.0, 0.0, -1317.0541902845134, 0.0]
['beep', 0.0, -1005.2473551329798, 0.0, 0.0, 0.0, 0.0, -1320.6081176529071, 0.0]
['beep', 0.0, -1002.9451254540832, 0.0, 0.0, 0.0, 0.0, -1318.350591462921, 0.0]
['beep', 0.0, -999.9276399526168, 0.0, 0.0, 0.0, 0.0, -1313.321448960477, 0.0]
['beep', 0.0, -1000.4864335639994, 0.0, 0.0, 0.0, 0.0, -1309.6110593808962, 0.0]
['beep', 0.0, -1003.079235920815, 0.0, 0.0, 0.0, 0.0, -1315.9589548062033, 0.0]
['beep', 0.0, -1004.8673754772396, 0.0, 0.0, 0.0, 0.0, -1321.3457252199323, 0.0]
['beep', 0.0, -1002.3416283537899, 0.0, 0.0, 0.0, 0.0, -1319.8258065969715, 0.0]
['beep', 0.0, -1000.7770062419185, 0.0, 0.0, 0.0, 0.0, -1312.4273791822648, 0.0]
['beep', 0.0, -1001.2687446199352, 0.0, 0.0, 0.0, 0.0, -1309.9463355477258, 0.0]
['beep', 0.0, -1005.0685411773374, 0.0, 0.0, 0.0, 0.0, -1317.7247426181725, 0.0]
['beep', 0.0, -1006.0743696778262, 0.0, 0.0, 0.0, 0.0, -1323.0444577985356, 0.0]
['beep', 0.0, -1002.6322010317089, 0.0, 0.0, 0.0, 0.0, -1320.5634141639966, 0.0]
['beep', 0.0, -1001.0675789198374, 0.0, 0.0, 0.0, 0.0, -1313.0085245381028, 0.0]
['beep', 0.0, -1000.3299713528123, 0.0, 0.0, 0.0, 0.0, -1310.5721843924744, 0.0]
['beep', 0.0, -1004.5768027993206, 0.0, 0.0, 0.0, 0.0, -1315.1095885169016, 0.0]
['beep', 0.0, -1007.951916212072, 0.0, 0.0, 0.0, 0.0, -1322.7985886095273, 0.0]
['beep', 0.0, -1003.3921603431894, 0.0, 0.0, 0.0, 0.0, -1320.4963589306305, 0.0]
['beep', 0.0, -1002.0957591647815, 0.0, 0.0, 0.0, 0.0, -1311.9132890597928, 0.0]
['beep', 0.0, -1003.079235920815, 0.0, 0.0, 0.0, 0.0, -1310.7957018370273, 0.0]
['beep', 0.0, -1005.7837969999072, 0.0, 0.0, 0.0, 0.0, -1315.646030383829, 0.0]
['beep', 0.0, -1006.7672737559407, 0.0, 0.0, 0.0, 0.0, -1320.161082763801, 0.0]
['beep', 0.0, -1004.9120789661503, 0.0, 0.0, 0.0, 0.0, -1317.9929635516362, 0.0]
['beep', 0.0, -1002.2298696315133, 0.0, 0.0, 0.0, 0.0, -1311.063922770491, 0.0]
['beep', 0.0, -1000.7099510085525, 0.0, 0.0, 0.0, 0.0, -1308.9852105361474, 0.0]
['beep', 0.0, -1003.213346387547, 0.0, 0.0, 0.0, 0.0, -1314.4613879276978, 0.0]
['beep', 0.0, -1005.2473551329798, 0.0, 0.0, 0.0, 0.0, -1320.6975246307284, 0.0]
['beep', 0.0, -1002.3192766093346, 0.0, 0.0, 0.0, 0.0, -1318.9093850743038, 0.0]
['beep', 0.0, -1000.7099510085525, 0.0, 0.0, 0.0, 0.0, -1309.745169847628, 0.0]
['beep', 0.0, -1000.7770062419185, 0.0, 0.0, 0.0, 0.0, -1308.6722861137732, 0.0]
['beep', 0.0, -1003.6827330211083, 0.0, 0.0, 0.0, 0.0, -1314.1484635053234, 0.0]
['beep', 0.0, -1005.2473551329798, 0.0, 0.0, 0.0, 0.0, -1318.8646815853933, 0.0]
['beep', 0.0, -1003.2356981320022, 0.0, 0.0, 0.0, 0.0, -1317.2330042401559, 0.0]
['beep', 0.0, -1000.2852678639017, 0.0, 0.0, 0.0, 0.0, -1309.1416727473347, 0.0]
['beep', 0.0, -999.5923637857871, 0.0, 0.0, 0.0, 0.0, -1308.44876866922, 0.0]
['beep', 0.0, -1002.6769045206195, 0.0, 0.0, 0.0, 0.0, -1314.841367583438, 0.0]
['beep', 0.0, -1004.9344307106055, 0.0, 0.0, 0.0, 0.0, -1319.0434955410358, 0.0]
['beep', 0.0, -1002.0063521869603, 0.0, 0.0, 0.0, 0.0, -1319.9152135747927, 0.0]
['beep', 0.0, -998.9441631965832, 0.0, 0.0, 0.0, 0.0, -1311.5333094040525, 0.0]
['beep', 0.0, -998.0500934183709, 0.0, 0.0, 0.0, 0.0, -1308.5158239025861, 0.0]
['beep', 0.0, -1002.5204423094324, 0.0, 0.0, 0.0, 0.0, -1314.617850138885, 0.0]
['beep', 0.0, -1003.5262708099212, 0.0, 0.0, 0.0, 0.0, -1321.1445595198345, 0.0]
['beep', 0.0, -1001.0228754309268, 0.0, 0.0, 0.0, 0.0, -1318.1047222739128, 0.0]
['beep', 0.0, -998.273610862924, 0.0, 0.0, 0.0, 0.0, -1311.6227163818737, 0.0]
['beep', 0.0, -999.212384130047, 0.0, 0.0, 0.0, 0.0, -1309.0075622806028, 0.0]
['beep', 0.0, -1001.9616486980497, 0.0, 0.0, 0.0, 0.0, -1315.422512939276, 0.0]
['beep', 0.0, -1002.2075178870581, 0.0, 0.0, 0.0, 0.0, -1320.809283353005, 0.0]
['beep', 0.0, -1000.8217097308291, 0.0, 0.0, 0.0, 0.0, -1320.2057862527117, 0.0]
['beep', 0.0, -998.5418317963877, 0.0, 0.0, 0.0, 0.0, -1312.650896626818, 0.0]
['beep', 0.0, -998.9218114521279, 0.0, 0.0, 0.0, 0.0, -1308.582879135952, 0.0]
['beep', 0.0, -1001.984000442505, 0.0, 0.0, 0.0, 0.0, -1317.322411217977, 0.0]
['beep', 0.0, -1004.3532853547675, 0.0, 0.0, 0.0, 0.0, -1322.195091509234, 0.0]
['beep', 0.0, -1002.498090564977, 0.0, 0.0, 0.0, 0.0, -1319.1999577522229, 0.0]
['beep', 0.0, -999.9946951859827, 0.0, 0.0, 0.0, 0.0, -1311.6003646374184, 0.0]
['beep', 0.0, -1001.5146138089435, 0.0, 0.0, 0.0, 0.0, -1309.1416727473347, 0.0]
['beep', 0.0, -1004.7332650105078, 0.0, 0.0, 0.0, 0.0, -1315.5566234060077, 0.0]
['beep', 0.0, -1005.6720382776307, 0.0, 0.0, 0.0, 0.0, -1320.965745564192, 0.0]
['beep', 0.0, -1002.1851661426027, 0.0, 0.0, 0.0, 0.0, -1320.809283353005, 0.0]
['beep', 0.0, -1000.1064539082593, 0.0, 0.0, 0.0, 0.0, -1313.969649549681, 0.0]
['beep', 0.0, -999.7711777414296, 0.0, 0.0, 0.0, 0.0, -1311.645068126329, 0.0]
['beep', 0.0, -1003.5486225543765, 0.0, 0.0, 0.0, 0.0, -1317.6129838958961, 0.0]
['beep', 0.0, -1004.2862301214017, 0.0, 0.0, 0.0, 0.0, -1322.7985886095273, 0.0]
['beep', 0.0, -1002.0287039314156, 0.0, 0.0, 0.0, 0.0, -1320.4740071861754, 0.0]
['beep', 0.0, -998.3630178407452, 0.0, 0.0, 0.0, 0.0, -1313.746132105128, 0.0]
['beep', 0.0, -999.4135498301447, 0.0, 0.0, 0.0, 0.0, -1311.9803442931586, 0.0]
['beep', 0.0, -1004.6885615215972, 0.0, 0.0, 0.0, 0.0, -1317.54592866253, 0.0]
['beep', 0.0, -1005.1355964107033, 0.0, 0.0, 0.0, 0.0, -1323.1115130319015, 0.0]
['beep', 0.0, -1003.0345324319044, 0.0, 0.0, 0.0, 0.0, -1320.518710675086, 0.0]
['beep', 0.0, -1000.3299713528123, 0.0, 0.0, 0.0, 0.0, -1314.8637193278933, 0.0]
['beep', 0.0, -1000.8217097308291, 0.0, 0.0, 0.0, 0.0, -1311.7568268486057, 0.0]
['beep', 0.0, -1002.2075178870581, 0.0, 0.0, 0.0, 0.0, -1316.383637950854, 0.0]
['beep', 0.0, -1004.3309336103123, 0.0, 0.0, 0.0, 0.0, -1323.8044171100162, 0.0]
['beep', 0.0, -1002.7663114984407, 0.0, 0.0, 0.0, 0.0, -1321.9939258091363, 0.0]
['beep', 0.0, -999.9052882081614, 0.0, 0.0, 0.0, 0.0, -1313.7237803606727, 0.0]
['beep', 0.0, -999.5029568079659, 0.0, 0.0, 0.0, 0.0, -1311.5109576595971, 0.0]
['beep', 0.0, -1003.5933260432871, 0.0, 0.0, 0.0, 0.0, -1317.970611807181, 0.0]
['beep', 0.0, -1004.9567824550609, 0.0, 0.0, 0.0, 0.0, -1324.0055828101138, 0.0]
['beep', 0.0, -1002.2298696315133, 0.0, 0.0, 0.0, 0.0, -1322.5750711649741, 0.0]
['beep', 0.0, -999.4806050635107, 0.0, 0.0, 0.0, 0.0, -1313.969649549681, 0.0]
['beep', 0.0, -999.8158812303402, 0.0, 0.0, 0.0, 0.0, -1312.6285448823626, 0.0]
['beep', 0.0, -1001.0899306642928, 0.0, 0.0, 0.0, 0.0, -1318.1270740183681, 0.0]
['beep', 0.0, -1003.1239394097257, 0.0, 0.0, 0.0, 0.0, -1324.2067485102116, 0.0]
['beep', 0.0, -1001.0452271753821, 0.0, 0.0, 0.0, 0.0, -1325.0561147995134, 0.0]
['beep', 0.0, -997.9159829516391, 0.0, 0.0, 0.0, 0.0, -1314.7072571167062, 0.0]
['beep', 0.0, -999.0112184299492, 0.0, 0.0, 0.0, 0.0, -1313.5226146605748, 0.0]
['beep', 0.0, -1002.1851661426027, 0.0, 0.0, 0.0, 0.0, -1319.6916961302395, 0.0]
['beep', 0.0, -1001.7381312534966, 0.0, 0.0, 0.0, 0.0, -1323.2679752430888, 0.0]
['beep', 0.0, -1000.2405643749911, 0.0, 0.0, 0.0, 0.0, -1322.418608953787, 0.0]
['beep', 0.0, -998.6982940075749, 0.0, 0.0, 0.0, 0.0, -1315.064885027991, 0.0]
['beep', 0.0, -997.6030585292648, 0.0, 0.0, 0.0, 0.0, -1309.9239838032704, 0.0]
['beep', 0.0, -1000.7099510085525, 0.0, 0.0, 0.0, 0.0, -1317.389466451343, 0.0]
['beep', 0.0, -1001.2910963643905, 0.0, 0.0, 0.0, 0.0, -1322.8656438428932, 0.0]
['beep', 0.0, -997.5807067848095, 0.0, 0.0, 0.0, 0.0, -1319.8481583414268, 0.0]
['beep', 0.0, -997.0219131734268, 0.0, 0.0, 0.0, 0.0, -1312.9191175602816, 0.0]
['beep', 0.0, -998.273610862924, 0.0, 0.0, 0.0, 0.0, -1309.0075622806028, 0.0]
['beep', 0.0, -999.6817707636084, 0.0, 0.0, 0.0, 0.0, -1315.3331059614547, 0.0]
['beep', 0.0, -1002.5874975427982, 0.0, 0.0, 0.0, 0.0, -1320.9880973086474, 0.0]
['beep', 0.0, -1001.179337642114, 0.0, 0.0, 0.0, 0.0, -1319.9599170637032, 0.0]
['beep', 0.0, -998.6535905186643, 0.0, 0.0, 0.0, 0.0, -1313.9920012941363, 0.0]
['beep', 0.0, -998.6088870297536, 0.0, 0.0, 0.0, 0.0, -1310.5051291591085, 0.0]
['beep', 0.0, -1002.7216080095301, 0.0, 0.0, 0.0, 0.0, -1316.6071553954073, 0.0]
['beep', 0.0, -1002.9674771985385, 0.0, 0.0, 0.0, 0.0, -1321.032800797558, 0.0]
['beep', 0.0, -999.6147155302425, 0.0, 0.0, 0.0, 0.0, -1319.6246408968736, 0.0]
['beep', 0.0, -997.6477620181754, 0.0, 0.0, 0.0, 0.0, -1312.293268715533, 0.0]
['beep', 0.0, -997.5807067848095, 0.0, 0.0, 0.0, 0.0, -1308.940507047237, 0.0]
['beep', 0.0, -1001.0005236864715, 0.0, 0.0, 0.0, 0.0, -1316.0036582951138, 0.0]
['beep', 0.0, -1001.5146138089435, 0.0, 0.0, 0.0, 0.0, -1322.932699076259, 0.0]
['beep', 0.0, -1000.3299713528123, 0.0, 0.0, 0.0, 0.0, -1321.2116147532004, 0.0]
['beep', 0.0, -996.597230028776, 0.0, 0.0, 0.0, 0.0, -1312.673248371273, 0.0]
['beep', 0.0, -997.9830381850051, 0.0, 0.0, 0.0, 0.0, -1311.130978003857, 0.0]
['beep', 0.0, -1000.8887649641949, 0.0, 0.0, 0.0, 0.0, -1318.4176466962872, 0.0]
['beep', 0.0, -1003.1686428986363, 0.0, 0.0, 0.0, 0.0, -1322.1056845314129, 0.0]
['beep', 0.0, -1000.8440614752843, 0.0, 0.0, 0.0, 0.0, -1319.2446612411334, 0.0]
['beep', 0.0, -997.6030585292648, 0.0, 0.0, 0.0, 0.0, -1313.7908355940385, 0.0]
['beep', 0.0, -998.9441631965832, 0.0, 0.0, 0.0, 0.0, -1310.907460559304, 0.0]
['beep', 0.0, -999.5923637857871, 0.0, 0.0, 0.0, 0.0, -1317.3447629624322, 0.0]
['beep', 0.0, -1000.8440614752843, 0.0, 0.0, 0.0, 0.0, -1322.195091509234, 0.0]
['beep', 0.0, -996.9101544511503, 0.0, 0.0, 0.0, 0.0, -1319.2670129855887, 0.0]
['beep', 0.0, -992.4174538156336, 0.0, 0.0, 0.0, 0.0, -1313.9249460607705, 0.0]
['beep', 0.0, -992.2833433489018, 0.0, 0.0, 0.0, 0.0, -1311.198033237223, 0.0]
['beep', 0.0, -995.4796428060107, 0.0, 0.0, 0.0, 0.0, -1316.0036582951138, 0.0]
['beep', 0.0, -996.373712584223, 0.0, 0.0, 0.0, 0.0, -1320.4740071861754, 0.0]
['beep', 0.0, -996.5301747954101, 0.0, 0.0, 0.0, 0.0, -1318.7976263520272, 0.0]
['beep', 0.0, -994.6749800056195, 0.0, 0.0, 0.0, 0.0, -1312.3379722044435, 0.0]
['beep', 0.0, -995.9937329284827, 0.0, 0.0, 0.0, 0.0, -1309.4993006586196, 0.0]
['beep', 0.0, -999.6370672746978, 0.0, 0.0, 0.0, 0.0, -1315.4001611948206, 0.0]
['beep', 0.0, -1002.3863318427005, 0.0, 0.0, 0.0, 0.0, -1322.418608953787, 0.0]
['beep', 0.0, -1000.9558201975609, 0.0, 0.0, 0.0, 0.0, -1319.8481583414268, 0.0]
['beep', 0.0, -996.4631195620442, 0.0, 0.0, 0.0, 0.0, -1312.6285448823626, 0.0]
['beep', 0.0, -996.1948986285805, 0.0, 0.0, 0.0, 0.0, -1311.645068126329, 0.0]
['beep', 0.0, -999.9946951859827, 0.0, 0.0, 0.0, 0.0, -1316.9871350511473, 0.0]
['beep', 0.0, -1001.3581515977564, 0.0, 0.0, 0.0, 0.0, -1324.45261769922, 0.0]
['beep', 0.0, -999.949991697072, 0.0, 0.0, 0.0, 0.0, -1323.9608793212033, 0.0]
['beep', 0.0, -997.5136515514436, 0.0, 0.0, 0.0, 0.0, -1315.5566234060077, 0.0]
['beep', 0.0, -999.8158812303402, 0.0, 0.0, 0.0, 0.0, -1312.5391379045413, 0.0]
['beep', 0.0, -1002.3192766093346, 0.0, 0.0, 0.0, 0.0, -1319.4681786856866, 0.0]
['beep', 0.0, -1002.9227737096279, 0.0, 0.0, 0.0, 0.0, -1323.3797339653652, 0.0]
['beep', 0.0, -1002.0957591647815, 0.0, 0.0, 0.0, 0.0, -1322.8209403539827, 0.0]
['beep', 0.0, -1000.0617504193486, 0.0, 0.0, 0.0, 0.0, -1316.1377687618458, 0.0]
['beep', 0.0, -1000.3746748417229, 0.0, 0.0, 0.0, 0.0, -1313.7684838495832, 0.0]
['beep', 0.0, -1004.1297679102145, 0.0, 0.0, 0.0, 0.0, -1317.6129838958961, 0.0]
['beep', 0.0, -1004.8003202438737, 0.0, 0.0, 0.0, 0.0, -1323.7597136211054, 0.0]
['beep', 0.0, -1001.3805033422117, 0.0, 0.0, 0.0, 0.0, -1321.7927601090385, 0.0]
['beep', 0.0, -998.7877009853961, 0.0, 0.0, 0.0, 0.0, -1314.483739672153, 0.0]
['beep', 0.0, -998.7429974964855, 0.0, 0.0, 0.0, 0.0, -1310.393370436832, 0.0]
['beep', 0.0, -1001.6263725312201, 0.0, 0.0, 0.0, 0.0, -1314.8637193278933, 0.0]
['beep', 0.0, -1002.3639800982452, 0.0, 0.0, 0.0, 0.0, -1322.2621467426, 0.0]
['beep', 0.0, -1000.2852678639017, 0.0, 0.0, 0.0, 0.0, -1320.742228119639, 0.0]
['beep', 0.0, -996.8207474733291, 0.0, 0.0, 0.0, 0.0, -1314.126111760868, 0.0]
['beep', 0.0, -997.8265759738179, 0.0, 0.0, 0.0, 0.0, -1311.8015303375162, 0.0]
['beep', 0.0, -1001.1569858976586, 0.0, 0.0, 0.0, 0.0, -1318.2388327406447, 0.0]
['beep', 0.0, -1002.3863318427005, 0.0, 0.0, 0.0, 0.0, -1323.6032514099184, 0.0]
['beep', 0.0, -999.212384130047, 0.0, 0.0, 0.0, 0.0, -1321.3680769643877, 0.0]
['beep', 0.0, -996.6419335176867, 0.0, 0.0, 0.0, 0.0, -1312.8520623269155, 0.0]
['beep', 0.0, -997.0442649178822, 0.0, 0.0, 0.0, 0.0, -1309.0746175139686, 0.0]
['beep', 0.0, -999.9946951859827, 0.0, 0.0, 0.0, 0.0, -1314.8190158389828, 0.0]
['beep', 0.0, -1002.2522213759687, 0.0, 0.0, 0.0, 0.0, -1321.2786699865665, 0.0]
['beep', 0.0, -999.0335701744044, 0.0, 0.0, 0.0, 0.0, -1319.7363996191502, 0.0]
['beep', 0.0, -996.7536922399631, 0.0, 0.0, 0.0, 0.0, -1312.3156204599882, 0.0]
['beep', 0.0, -996.8654509622397, 0.0, 0.0, 0.0, 0.0, -1310.5051291591085, 0.0]
['beep', 0.0, -1000.9558201975609, 0.0, 0.0, 0.0, 0.0, -1316.741265862139, 0.0]
['beep', 0.0, -1002.2298696315133, 0.0, 0.0, 0.0, 0.0, -1321.7257048756726, 0.0]
['beep', 0.0, -999.7711777414296, 0.0, 0.0, 0.0, 0.0, -1320.6975246307284, 0.0]
['beep', 0.0, -996.373712584223, 0.0, 0.0, 0.0, 0.0, -1314.908422816804, 0.0]
['beep', 0.0, -997.3124858513459, 0.0, 0.0, 0.0, 0.0, -1310.7286466036614, 0.0]
['beep', 0.0, -1000.1064539082593, 0.0, 0.0, 0.0, 0.0, -1316.5624519064966, 0.0]
['beep', 0.0, -1000.3299713528123, 0.0, 0.0, 0.0, 0.0, -1323.3126787319993, 0.0]
['beep', 0.0, -998.1842038851028, 0.0, 0.0, 0.0, 0.0, -1321.256318242111, 0.0]
['beep', 0.0, -995.6361050171978, 0.0, 0.0, 0.0, 0.0, -1313.4332076827536, 0.0]
['beep', 0.0, -995.0773114058151, 0.0, 0.0, 0.0, 0.0, -1311.35449544841, 0.0]
['beep', 0.0, -998.6312387742089, 0.0, 0.0, 0.0, 0.0, -1316.1824722507563, 0.0]
['beep', 0.0, -999.3241428523235, 0.0, 0.0, 0.0, 0.0, -1322.2397949981446, 0.0]
['beep', 0.0, -997.4912998069883, 0.0, 0.0, 0.0, 0.0, -1322.3068502315105, 0.0]
['beep', 0.0, -994.5855730277983, 0.0, 0.0, 0.0, 0.0, -1315.0425332835357, 0.0]
['beep', 0.0, -994.7867387278961, 0.0, 0.0, 0.0, 0.0, -1311.130978003857, 0.0]
['beep', 0.0, -998.2289073740134, 0.0, 0.0, 0.0, 0.0, -1315.3778094503652, 0.0]
['beep', 0.0, -998.7429974964855, 0.0, 0.0, 0.0, 0.0, -1322.1056845314129, 0.0]
['beep', 0.0, -996.5525265398654, 0.0, 0.0, 0.0, 0.0, -1321.971574064681, 0.0]
['beep', 0.0, -995.4572910615553, 0.0, 0.0, 0.0, 0.0, -1315.131940261357, 0.0]
['beep', 0.0, -994.5632212833431, 0.0, 0.0, 0.0, 0.0, -1310.706294859206, 0.0]
['beep', 0.0, -997.3124858513459, 0.0, 0.0, 0.0, 0.0, -1316.875376328871, 0.0]
['beep', 0.0, -998.9665149410386, 0.0, 0.0, 0.0, 0.0, -1324.094989787935, 0.0]
['beep', 0.0, -996.6419335176867, 0.0, 0.0, 0.0, 0.0, -1320.9210420752815, 0.0]
['beep', 0.0, -994.6973317500749, 0.0, 0.0, 0.0, 0.0, -1313.16498674929, 0.0]
['beep', 0.0, -994.5185177944325, 0.0, 0.0, 0.0, 0.0, -1312.8520623269155, 0.0]
['beep', 0.0, -996.6866370065973, 0.0, 0.0, 0.0, 0.0, -1317.8141495959937, 0.0]
['beep', 0.0, -1000.4640818195442, 0.0, 0.0, 0.0, 0.0, -1323.35738222091, 0.0]
['beep', 0.0, -998.4747765630218, 0.0, 0.0, 0.0, 0.0, -1322.0609810425021, 0.0]
['beep', 0.0, -994.6526282611643, 0.0, 0.0, 0.0, 0.0, -1314.5954983944296, 0.0]
['beep', 0.0, -995.792567228385, 0.0, 0.0, 0.0, 0.0, -1311.4439024262313, 0.0]
['beep', 0.0, -1000.6205440307313, 0.0, 0.0, 0.0, 0.0, -1317.2106524957005, 0.0]
['beep', 0.0, -1002.0957591647815, 0.0, 0.0, 0.0, 0.0, -1322.6421263983402, 0.0]
['beep', 0.0, -999.4582533190553, 0.0, 0.0, 0.0, 0.0, -1322.6421263983402, 0.0]
['beep', 0.0, -996.9325061956056, 0.0, 0.0, 0.0, 0.0, -1314.8190158389828, 0.0]
['beep', 0.0, -996.4631195620442, 0.0, 0.0, 0.0, 0.0, -1310.3486669479212, 0.0]
['beep', 0.0, -1000.7770062419185, 0.0, 0.0, 0.0, 0.0, -1316.8083210955049, 0.0]
['beep', 0.0, -1002.3192766093346, 0.0, 0.0, 0.0, 0.0, -1322.8656438428932, 0.0]
['beep', 0.0, -1000.9334684531055, 0.0, 0.0, 0.0, 0.0, -1321.457483942209, 0.0]
['beep', 0.0, -996.954857940061, 0.0, 0.0, 0.0, 0.0, -1314.3719809498766, 0.0]
['beep', 0.0, -995.144366639181, 0.0, 0.0, 0.0, 0.0, -1311.6227163818737, 0.0]
['beep', 0.0, -998.9888666854938, 0.0, 0.0, 0.0, 0.0, -1318.1047222739128, 0.0]
['beep', 0.0, -999.6594190191531, 0.0, 0.0, 0.0, 0.0, -1323.4020857098205, 0.0]
['beep', 0.0, -999.078273663315, 0.0, 0.0, 0.0, 0.0, -1320.317544974988, 0.0]
['beep', 0.0, -995.3902358281895, 0.0, 0.0, 0.0, 0.0, -1311.7568268486057, 0.0]
['beep', 0.0, -995.792567228385, 0.0, 0.0, 0.0, 0.0, -1309.9239838032704, 0.0]
['beep', 0.0, -998.273610862924, 0.0, 0.0, 0.0, 0.0, -1317.4788734291642, 0.0]
['beep', 0.0, -1000.3299713528123, 0.0, 0.0, 0.0, 0.0, -1321.256318242111, 0.0]
['beep', 0.0, -998.4077213296558, 0.0, 0.0, 0.0, 0.0, -1320.1834345082564, 0.0]
['beep', 0.0, -997.0442649178822, 0.0, 0.0, 0.0, 0.0, -1312.5614896489967, 0.0]
['beep', 0.0, -995.6361050171978, 0.0, 0.0, 0.0, 0.0, -1310.4380739257424, 0.0]
['beep', 0.0, -999.7041225080637, 0.0, 0.0, 0.0, 0.0, -1317.0541902845134, 0.0]
['beep', 0.0, -1000.53113705291, 0.0, 0.0, 0.0, 0.0, -1322.4633124426978, 0.0]
['beep', 0.0, -997.7148172515414, 0.0, 0.0, 0.0, 0.0, -1319.8481583414268, 0.0]
['beep', 0.0, -995.8372707172956, 0.0, 0.0, 0.0, 0.0, -1313.5896698939407, 0.0]
['beep', 0.0, -994.9432009390832, 0.0, 0.0, 0.0, 0.0, -1310.0580942700024, 0.0]
['beep', 0.0, -999.1006254077704, 0.0, 0.0, 0.0, 0.0, -1314.4390361832425, 0.0]
['beep', 0.0, -1002.4533870760664, 0.0, 0.0, 0.0, 0.0, -1320.8539868419155, 0.0]
['beep', 0.0, -1000.0393986748933, 0.0, 0.0, 0.0, 0.0, -1319.0211437965804, 0.0]
['beep', 0.0, -996.9325061956056, 0.0, 0.0, 0.0, 0.0, -1312.807358838005, 0.0]
['beep', 0.0, -995.6137532727425, 0.0, 0.0, 0.0, 0.0, -1310.4380739257424, 0.0]
['beep', 0.0, -998.8100527298513, 0.0, 0.0, 0.0, 0.0, -1315.9589548062033, 0.0]
['beep', 0.0, -1000.5087853084548, 0.0, 0.0, 0.0, 0.0, -1320.675172886273, 0.0]
['beep', 0.0, -998.273610862924, 0.0, 0.0, 0.0, 0.0, -1319.512882174597, 0.0]
['beep', 0.0, -995.4349393171001, 0.0, 0.0, 0.0, 0.0, -1314.2825739720554, 0.0]
['beep', 0.0, -995.8372707172956, 0.0, 0.0, 0.0, 0.0, -1310.192204736734, 0.0]
['beep', 0.0, -998.5418317963877, 0.0, 0.0, 0.0, 0.0, -1315.4895681726418, 0.0]
['beep', 0.0, -999.9946951859827, 0.0, 0.0, 0.0, 0.0, -1323.2456234986334, 0.0]
['beep', 0.0, -998.0500934183709, 0.0, 0.0, 0.0, 0.0, -1321.4127804532982, 0.0]
['beep', 0.0, -993.8926689496839, 0.0, 0.0, 0.0, 0.0, -1314.8637193278933, 0.0]
['beep', 0.0, -994.9655526835386, 0.0, 0.0, 0.0, 0.0, -1312.4050274378094, 0.0]
['beep', 0.0, -998.6982940075749, 0.0, 0.0, 0.0, 0.0, -1317.322411217977, 0.0]
['beep', 0.0, -1001.0452271753821, 0.0, 0.0, 0.0, 0.0, -1323.6032514099184, 0.0]
['beep', 0.0, -998.4300730741112, 0.0, 0.0, 0.0, 0.0, -1323.0444577985356, 0.0]
['beep', 0.0, -995.3678840837341, 0.0, 0.0, 0.0, 0.0, -1316.5624519064966, 0.0]
['beep', 0.0, -996.2396021174911, 0.0, 0.0, 0.0, 0.0, -1311.421550681776, 0.0]
['beep', 0.0, -998.5865352852983, 0.0, 0.0, 0.0, 0.0, -1316.7859693510497, 0.0]
['beep', 0.0, -1000.2629161194463, 0.0, 0.0, 0.0, 0.0, -1322.418608953787, 0.0]
['beep', 0.0, -997.6030585292648, 0.0, 0.0, 0.0, 0.0, -1321.748056620128, 0.0]
['beep', 0.0, -995.5690497838319, 0.0, 0.0, 0.0, 0.0, -1315.1542920058123, 0.0]
['beep', 0.0, -995.792567228385, 0.0, 0.0, 0.0, 0.0, -1312.0473995265245, 0.0]
['beep', 0.0, -998.7653492409407, 0.0, 0.0, 0.0, 0.0, -1318.3729432073765, 0.0]
['beep', 0.0, -1000.4640818195442, 0.0, 0.0, 0.0, 0.0, -1324.2738037435774, 0.0]
['beep', 0.0, -997.6701137626308, 0.0, 0.0, 0.0, 0.0, -1323.0444577985356, 0.0]
['beep', 0.0, -994.33970383879, 0.0, 0.0, 0.0, 0.0, -1316.093065272935, 0.0]
['beep', 0.0, -994.9432009390832, 0.0, 0.0, 0.0, 0.0, -1311.9803442931586, 0.0]
['beep', 0.0, -998.8994597076726, 0.0, 0.0, 0.0, 0.0, -1314.9754780501698, 0.0]
['beep', 0.0, -1000.3746748417229, 0.0, 0.0, 0.0, 0.0, -1322.3515537204212, 0.0]
['beep', 0.0, -998.4747765630218, 0.0, 0.0, 0.0, 0.0, -1322.128036275868, 0.0]
['beep', 0.0, -994.6973317500749, 0.0, 0.0, 0.0, 0.0, -1314.6625536277954, 0.0]
['beep', 0.0, -994.8761457057174, 0.0, 0.0, 0.0, 0.0, -1311.421550681776, 0.0]
['beep', 0.0, -998.273610862924, 0.0, 0.0, 0.0, 0.0, -1315.9589548062033, 0.0]
['beep', 0.0, -1000.1064539082593, 0.0, 0.0, 0.0, 0.0, -1322.6644781427954, 0.0]
['beep', 0.0, -998.8324044743067, 0.0, 0.0, 0.0, 0.0, -1321.7033531312172, 0.0]
['beep', 0.0, -996.1948986285805, 0.0, 0.0, 0.0, 0.0, -1313.8578908274044, 0.0]
['beep', 0.0, -995.0996631502704, 0.0, 0.0, 0.0, 0.0, -1310.8627570703934, 0.0]
['beep', 0.0, -998.4747765630218, 0.0, 0.0, 0.0, 0.0, -1314.930774561259, 0.0]
['beep', 0.0, -1000.1511573971699, 0.0, 0.0, 0.0, 0.0, -1321.457483942209, 0.0]
['beep', 0.0, -997.0666166623374, 0.0, 0.0, 0.0, 0.0, -1321.5692426644855, 0.0]
['beep', 0.0, -993.758558482952, 0.0, 0.0, 0.0, 0.0, -1313.7684838495832, 0.0]
['beep', 0.0, -995.8596224617509, 0.0, 0.0, 0.0, 0.0, -1310.840405325938, 0.0]
['beep', 0.0, -998.854756218762, 0.0, 0.0, 0.0, 0.0, -1316.3389344619436, 0.0]
['beep', 0.0, -1000.53113705291, 0.0, 0.0, 0.0, 0.0, -1323.0221060540803, 0.0]
['beep', 0.0, -999.3017911078682, 0.0, 0.0, 0.0, 0.0, -1320.518710675086, 0.0]
['beep', 0.0, -996.2619538619464, 0.0, 0.0, 0.0, 0.0, -1313.6567251273068, 0.0]
['beep', 0.0, -996.2172503730358, 0.0, 0.0, 0.0, 0.0, -1310.3486669479212, 0.0]
['beep', 0.0, -1000.017046930438, 0.0, 0.0, 0.0, 0.0, -1314.9531263057145, 0.0]
['beep', 0.0, -1001.8945934646838, 0.0, 0.0, 0.0, 0.0, -1322.0162775535916, 0.0]
['beep', 0.0, -1000.8887649641949, 0.0, 0.0, 0.0, 0.0, -1320.5634141639966, 0.0]
['beep', 0.0, -996.6866370065973, 0.0, 0.0, 0.0, 0.0, -1313.455559427209, 0.0]
['beep', 0.0, -996.1278433952145, 0.0, 0.0, 0.0, 0.0, -1311.868585570882, 0.0]
['beep', 0.0, -999.5029568079659, 0.0, 0.0, 0.0, 0.0, -1316.45069318422, 0.0]
['beep', 0.0, -1001.5593172978541, 0.0, 0.0, 0.0, 0.0, -1320.7645798640942, 0.0]
['beep', 0.0, -999.4582533190553, 0.0, 0.0, 0.0, 0.0, -1321.3457252199323, 0.0]
['beep', 0.0, -995.9937329284827, 0.0, 0.0, 0.0, 0.0, -1313.746132105128, 0.0]
['beep', 0.0, -997.3795410847117, 0.0, 0.0, 0.0, 0.0, -1310.4157221812873, 0.0]
['beep', 0.0, -1000.3746748417229, 0.0, 0.0, 0.0, 0.0, -1314.126111760868, 0.0]
['beep', 0.0, -1002.1628143981475, 0.0, 0.0, 0.0, 0.0, -1321.0551525420133, 0.0]
['beep', 0.0, -1000.7546544974631, 0.0, 0.0, 0.0, 0.0, -1321.0104490531028, 0.0]
['beep', 0.0, -996.4184160731336, 0.0, 0.0, 0.0, 0.0, -1314.103760016413, 0.0]
['beep', 0.0, -996.2172503730358, 0.0, 0.0, 0.0, 0.0, -1310.6168878813849, 0.0]
['beep', 0.0, -1001.4252068311223, 0.0, 0.0, 0.0, 0.0, -1314.3719809498766, 0.0]
['beep', 0.0, -1003.213346387547, 0.0, 0.0, 0.0, 0.0, -1321.457483942209, 0.0]
['beep', 0.0, -1001.7828347424072, 0.0, 0.0, 0.0, 0.0, -1321.099856030924, 0.0]
['beep', 0.0, -998.2959626073794, 0.0, 0.0, 0.0, 0.0, -1314.4390361832425, 0.0]
['beep', 0.0, -998.9888666854938, 0.0, 0.0, 0.0, 0.0, -1310.2592599701, 0.0]
['beep', 0.0, -1001.7828347424072, 0.0, 0.0, 0.0, 0.0, -1314.6625536277954, 0.0]
['beep', 0.0, -1003.8391952322955, 0.0, 0.0, 0.0, 0.0, -1322.910347331804, 0.0]
['beep', 0.0, -1002.4757388205218, 0.0, 0.0, 0.0, 0.0, -1318.775274607572, 0.0]
['beep', 0.0, -999.145328896681, 0.0, 0.0, 0.0, 0.0, -1313.7014286162173, 0.0]
['beep', 0.0, -999.3688463412341, 0.0, 0.0, 0.0, 0.0, -1310.1475012478236, 0.0]
['beep', 0.0, -1002.1851661426027, 0.0, 0.0, 0.0, 0.0, -1314.774312350072, 0.0]
['beep', 0.0, -1004.1521196546698, 0.0, 0.0, 0.0, 0.0, -1321.0104490531028, 0.0]
['beep', 0.0, -1001.7157795090413, 0.0, 0.0, 0.0, 0.0, -1318.4623501851977, 0.0]
['beep', 0.0, -998.3630178407452, 0.0, 0.0, 0.0, 0.0, -1311.9132890597928, 0.0]
['beep', 0.0, -997.8042242293626, 0.0, 0.0, 0.0, 0.0, -1310.2592599701, 0.0]
['beep', 0.0, -1002.4757388205218, 0.0, 0.0, 0.0, 0.0, -1315.064885027991, 0.0]
['beep', 0.0, -1004.2191748880357, 0.0, 0.0, 0.0, 0.0, -1323.4467891987313, 0.0]
['beep', 0.0, -1002.5874975427982, 0.0, 0.0, 0.0, 0.0, -1319.9152135747927, 0.0]
['beep', 0.0, -999.3688463412341, 0.0, 0.0, 0.0, 0.0, -1312.1815099932564, 0.0]
['beep', 0.0, -1000.2852678639017, 0.0, 0.0, 0.0, 0.0, -1309.2981349585218, 0.0]
['beep', 0.0, -1003.727436510019, 0.0, 0.0, 0.0, 0.0, -1314.930774561259, 0.0]
['beep', 0.0, -1005.1355964107033, 0.0, 0.0, 0.0, 0.0, -1320.8763385863708, 0.0]
['beep', 0.0, -1003.0121806874491, 0.0, 0.0, 0.0, 0.0, -1319.937565319248, 0.0]
['beep', 0.0, -1000.7993579863737, 0.0, 0.0, 0.0, 0.0, -1313.2990972160217, 0.0]
['beep', 0.0, -1002.8110149873513, 0.0, 0.0, 0.0, 0.0, -1310.9745157926698, 0.0]
['beep', 0.0, -1003.5709742988319, 0.0, 0.0, 0.0, 0.0, -1316.6742106287732, 0.0]
['beep', 0.0, -1004.6438580326866, 0.0, 0.0, 0.0, 0.0, -1321.9268705757704, 0.0]
['beep', 0.0, -1002.0510556758709, 0.0, 0.0, 0.0, 0.0, -1319.937565319248, 0.0]
['beep', 0.0, -998.0500934183709, 0.0, 0.0, 0.0, 0.0, -1314.3496292054213, 0.0]
['beep', 0.0, -997.8712794627285, 0.0, 0.0, 0.0, 0.0, -1312.0250477820694, 0.0]
['beep', 0.0, -1001.6040207867647, 0.0, 0.0, 0.0, 0.0, -1314.483739672153, 0.0]
['beep', 0.0, -1002.7216080095301, 0.0, 0.0, 0.0, 0.0, -1320.8763385863708, 0.0]
['beep', 0.0, -1000.2629161194463, 0.0, 0.0, 0.0, 0.0, -1319.937565319248, 0.0]
['beep', 0.0, -996.1278433952145, 0.0, 0.0, 0.0, 0.0, -1312.6956001157284, 0.0]
['beep', 0.0, -997.2454306179799, 0.0, 0.0, 0.0, 0.0, -1309.0075622806028, 0.0]
['beep', 0.0, -999.8829364637062, 0.0, 0.0, 0.0, 0.0, -1312.7179518601838, 0.0]
['beep', 0.0, -1001.1569858976586, 0.0, 0.0, 0.0, 0.0, -1321.3457252199323, 0.0]
['beep', 0.0, -999.5476602968765, 0.0, 0.0, 0.0, 0.0, -1321.5915944089406, 0.0]
['beep', 0.0, -997.2901341068905, 0.0, 0.0, 0.0, 0.0, -1313.16498674929, 0.0]
['beep', 0.0, -997.2007271290693, 0.0, 0.0, 0.0, 0.0, -1308.873451813871, 0.0]
['beep', 0.0, -1000.5534887973654, 0.0, 0.0, 0.0, 0.0, -1312.7626553490943, 0.0]
['beep', 0.0, -1002.8110149873513, 0.0, 0.0, 0.0, 0.0, -1320.45165544172, 0.0]
['beep', 0.0, -998.8100527298513, 0.0, 0.0, 0.0, 0.0, -1320.4069519528093, 0.0]
['beep', 0.0, -994.1161863942369, 0.0, 0.0, 0.0, 0.0, -1312.8520623269155, 0.0]
['beep', 0.0, -999.9946951859827, 0.0, 0.0, 0.0, 0.0, -1308.1805477357564, 0.0]
['beep', 0.0, -1006.9684394560385, 0.0, 0.0, 0.0, 0.0, -1313.030876282558, 0.0]
['beep', 0.0, -1009.4941865794882, 0.0, 0.0, 0.0, 0.0, -1318.7305711186614, 0.0]
['beep', 0.0, -1008.5777650568206, 0.0, 0.0, 0.0, 0.0, -1315.6683821282843, 0.0]
['beep', 0.0, -1004.3979888436781, 0.0, 0.0, 0.0, 0.0, -1310.907460559304, 0.0]
['beep', 0.0, -1001.7828347424072, 0.0, 0.0, 0.0, 0.0, -1305.811262823494, 0.0]
['beep', 0.0, -1004.1744713991251, 0.0, 0.0, 0.0, 0.0, -1310.2369082256448, 0.0]
['beep', 0.0, -1009.2483173904798, 0.0, 0.0, 0.0, 0.0, -1318.6858676297509, 0.0]
['beep', 0.0, -1007.3931226006894, 0.0, 0.0, 0.0, 0.0, -1317.4341699402535, 0.0]
['beep', 0.0, -1003.5039190654659, 0.0, 0.0, 0.0, 0.0, -1310.2592599701, 0.0]
['beep', 0.0, -1004.3532853547675, 0.0, 0.0, 0.0, 0.0, -1306.3924081793318, 0.0]
['beep', 0.0, -1007.9742679565273, 0.0, 0.0, 0.0, 0.0, -1309.7898733365387, 0.0]
['beep', 0.0, -1008.8906894791949, 0.0, 0.0, 0.0, 0.0, -1316.0483617840246, 0.0]
['beep', 0.0, -1007.7060470230637, 0.0, 0.0, 0.0, 0.0, -1315.1989954947228, 0.0]
['beep', 0.0, -1004.3979888436781, 0.0, 0.0, 0.0, 0.0, -1309.9463355477258, 0.0]
['beep', 0.0, -1002.8557184762619, 0.0, 0.0, 0.0, 0.0, -1306.5265186460638, 0.0]
['beep', 0.0, -1004.9120789661503, 0.0, 0.0, 0.0, 0.0, -1310.907460559304, 0.0]
['beep', 0.0, -1009.0024482014715, 0.0, 0.0, 0.0, 0.0, -1316.7859693510497, 0.0]
['beep', 0.0, -1006.6108115447536, 0.0, 0.0, 0.0, 0.0, -1316.8083210955049, 0.0]
['beep', 0.0, -1003.8168434878402, 0.0, 0.0, 0.0, 0.0, -1311.3097919594995, 0.0]
['beep', 0.0, -1002.9451254540832, 0.0, 0.0, 0.0, 0.0, -1306.2359459681447, 0.0]
['beep', 0.0, -1006.0967214222815, 0.0, 0.0, 0.0, 0.0, -1309.6334111253514, 0.0]
['beep', 0.0, -1008.0860266788038, 0.0, 0.0, 0.0, 0.0, -1317.1212455178793, 0.0]
['beep', 0.0, -1006.2308318890133, 0.0, 0.0, 0.0, 0.0, -1317.7023908737174, 0.0]
['beep', 0.0, -1002.3416283537899, 0.0, 0.0, 0.0, 0.0, -1310.1251495033682, 0.0]
['beep', 0.0, -1001.8945934646838, 0.0, 0.0, 0.0, 0.0, -1306.4147599237872, 0.0]
['beep', 0.0, -1001.8498899757732, 0.0, 0.0, 0.0, 0.0, -1312.0921030154352, 0.0]
['beep', 0.0, -1003.0121806874491, 0.0, 0.0, 0.0, 0.0, -1317.9929635516362, 0.0]
['beep', 0.0, -1000.1511573971699, 0.0, 0.0, 0.0, 0.0, -1316.7859693510497, 0.0]
['beep', 0.0, -995.5914015282872, 0.0, 0.0, 0.0, 0.0, -1307.5546988910078, 0.0]
['beep', 0.0, -996.8207474733291, 0.0, 0.0, 0.0, 0.0, -1302.5255563885637, 0.0]
['beep', 0.0, -1003.3027533653682, 0.0, 0.0, 0.0, 0.0, -1307.6217541243739, 0.0]
['beep', 0.0, -1006.566108055843, 0.0, 0.0, 0.0, 0.0, -1316.4953966731307, 0.0]
['beep', 0.0, -1005.5379278108989, 0.0, 0.0, 0.0, 0.0, -1315.1095885169016, 0.0]
['beep', 0.0, -1002.5427940538876, 0.0, 0.0, 0.0, 0.0, -1307.644105868829, 0.0]
['beep', 0.0, -1003.5709742988319, 0.0, 0.0, 0.0, 0.0, -1304.7160273451839, 0.0]
['beep', 0.0, -1004.6438580326866, 0.0, 0.0, 0.0, 0.0, -1310.907460559304, 0.0]
['beep', 0.0, -1006.7449220114854, 0.0, 0.0, 0.0, 0.0, -1315.4895681726418, 0.0]
['beep', 0.0, -1005.6943900220859, 0.0, 0.0, 0.0, 0.0, -1313.6567251273068, 0.0]
['beep', 0.0, -1002.4757388205218, 0.0, 0.0, 0.0, 0.0, -1308.1805477357564, 0.0]
['beep', 0.0, -1003.079235920815, 0.0, 0.0, 0.0, 0.0, -1305.5430418900303, 0.0]
['beep', 0.0, -1005.2026516440692, 0.0, 0.0, 0.0, 0.0, -1312.360323948899, 0.0]
['beep', 0.0, -1007.4825295785106, 0.0, 0.0, 0.0, 0.0, -1317.1435972623347, 0.0]
['beep', 0.0, -1005.6943900220859, 0.0, 0.0, 0.0, 0.0, -1314.7519606056167, 0.0]
['beep', 0.0, -1001.0452271753821, 0.0, 0.0, 0.0, 0.0, -1308.6946378582286, 0.0]
['beep', 0.0, -1001.7381312534966, 0.0, 0.0, 0.0, 0.0, -1304.805434323005, 0.0]
['beep', 0.0, -1005.336762110801, 0.0, 0.0, 0.0, 0.0, -1309.4322454252535, 0.0]
['beep', 0.0, -1006.566108055843, 0.0, 0.0, 0.0, 0.0, -1316.4283414397648, 0.0]
['beep', 0.0, -1005.1355964107033, 0.0, 0.0, 0.0, 0.0, -1315.8471960839267, 0.0]
