['beep', 0.0, 1387.3280748519987, 0.0, 0.0, 0.0, 0.0, 663.5338859002454, 0.0]
['beep', 0.0, 1384.6011620284512, 0.0, 0.0, 0.0, 0.0, 661.6563393659997, 0.0]
['beep', 0.0, 1384.4670515617195, 0.0, 0.0, 0.0, 0.0, 661.1869527324383, 0.0]
['beep', 0.0, 1388.3339033524876, 0.0, 0.0, 0.0, 0.0, 662.0139672772846, 0.0]
['beep', 0.0, 1390.4126155868312, 0.0, 0.0, 0.0, 0.0, 660.806973076698, 0.0]
['beep', 0.0, 1390.0773394200016, 0.0, 0.0, 0.0, 0.0, 660.5387521432343, 0.0]
['beep', 0.0, 1385.4952318066637, 0.0, 0.0, 0.0, 0.0, 660.22582772086, 0.0]
['beep', 0.0, 1384.3329410949875, 0.0, 0.0, 0.0, 0.0, 660.9410835434298, 0.0]
['beep', 0.0, 1388.0209789301132, 0.0, 0.0, 0.0, 0.0, 661.2763597102595, 0.0]
['beep', 0.0, 1389.9432289532697, 0.0, 0.0, 0.0, 0.0, 660.4716969098683, 0.0]
['beep', 0.0, 1390.479670820197, 0.0, 0.0, 0.0, 0.0, 660.1140689985834, 0.0]
['beep', 0.0, 1388.222144630211, 0.0, 0.0, 0.0, 0.0, 659.8905515540304, 0.0]
['beep', 0.0, 1385.8752114624037, 0.0, 0.0, 0.0, 0.0, 661.097545754617, 0.0]
['beep', 0.0, 1386.9480951962585, 0.0, 0.0, 0.0, 0.0, 662.0139672772846, 0.0]
['beep', 0.0, 1390.479670820197, 0.0, 0.0, 0.0, 0.0, 663.7574033447985, 0.0]
['beep', 0.0, 1387.7974614855602, 0.0, 0.0, 0.0, 0.0, 661.3657666880807, 0.0]
['beep', 0.0, 1385.092900406468, 0.0, 0.0, 0.0, 0.0, 660.22582772086, 0.0]
['beep', 0.0, 1384.9140864508256, 0.0, 0.0, 0.0, 0.0, 659.7340893428433, 0.0]
['beep', 0.0, 1386.5904672849736, 0.0, 0.0, 0.0, 0.0, 660.6058073766002, 0.0]
['beep', 0.0, 1389.2503248751552, 0.0, 0.0, 0.0, 0.0, 661.5892841326338, 0.0]
['beep', 0.0, 1388.736234752683, 0.0, 0.0, 0.0, 0.0, 661.1198974990723, 0.0]
['beep', 0.0, 1385.9199149513145, 0.0, 0.0, 0.0, 0.0, 659.8458480651198, 0.0]
['beep', 0.0, 1385.8752114624037, 0.0, 0.0, 0.0, 0.0, 659.6893858539327, 0.0]
['beep', 0.0, 1388.0209789301132, 0.0, 0.0, 0.0, 0.0, 660.1364207430388, 0.0]
['beep', 0.0, 1389.518545808619, 0.0, 0.0, 0.0, 0.0, 659.9129032984857, 0.0]
['beep', 0.0, 1388.736234752683, 0.0, 0.0, 0.0, 0.0, 660.3822899320471, 0.0]
['beep', 0.0, 1386.0093219291357, 0.0, 0.0, 0.0, 0.0, 658.549446886712, 0.0]
['beep', 0.0, 1384.936438195281, 0.0, 0.0, 0.0, 0.0, 656.6048451191002, 0.0]
['beep', 0.0, 1385.2046591287447, 0.0, 0.0, 0.0, 0.0, 658.5047433978013, 0.0]
['beep', 0.0, 1387.2163161297221, 0.0, 0.0, 0.0, 0.0, 659.2423509648265, 0.0]
['beep', 0.0, 1386.0763771625016, 0.0, 0.0, 0.0, 0.0, 660.1364207430388, 0.0]
['beep', 0.0, 1386.2328393736886, 0.0, 0.0, 0.0, 0.0, 660.4493451654131, 0.0]
['beep', 0.0, 1387.4398335742753, 0.0, 0.0, 0.0, 0.0, 660.4269934209577, 0.0]
['beep', 0.0, 1390.2338016311887, 0.0, 0.0, 0.0, 0.0, 663.645644622522, 0.0]
['beep', 0.0, 1393.6312667883954, 0.0, 0.0, 0.0, 0.0, 663.8468103226197, 0.0]
['beep', 0.0, 1393.3183423660212, 0.0, 0.0, 0.0, 0.0, 662.0363190217399, 0.0]
['beep', 0.0, 1391.0161126871244, 0.0, 0.0, 0.0, 0.0, 661.3434149436254, 0.0]
['beep', 0.0, 1389.5632492975294, 0.0, 0.0, 0.0, 0.0, 660.0917172541282, 0.0]
['beep', 0.0, 1390.6808365202949, 0.0, 0.0, 0.0, 0.0, 660.5834556321449, 0.0]
['beep', 0.0, 1390.7255400092054, 0.0, 0.0, 0.0, 0.0, 661.455173665902, 0.0]
['beep', 0.0, 1390.2785051200992, 0.0, 0.0, 0.0, 0.0, 660.516400398779, 0.0]
['beep', 0.0, 1388.4680138192193, 0.0, 0.0, 0.0, 0.0, 659.7117375983879, 0.0]
['beep', 0.0, 1385.6516940178508, 0.0, 0.0, 0.0, 0.0, 660.0246620207622, 0.0]
['beep', 0.0, 1387.4398335742753, 0.0, 0.0, 0.0, 0.0, 661.1198974990723, 0.0]
['beep', 0.0, 1390.0102841866355, 0.0, 0.0, 0.0, 0.0, 662.8186300776756, 0.0]
['beep', 0.0, 1389.451490575253, 0.0, 0.0, 0.0, 0.0, 661.2763597102595, 0.0]
['beep', 0.0, 1386.612819029429, 0.0, 0.0, 0.0, 0.0, 659.7117375983879, 0.0]
['beep', 0.0, 1385.6740457623062, 0.0, 0.0, 0.0, 0.0, 659.644682365022, 0.0]
['beep', 0.0, 1386.4340050737865, 0.0, 0.0, 0.0, 0.0, 660.8963800545192, 0.0]
['beep', 0.0, 1387.998627185658, 0.0, 0.0, 0.0, 0.0, 662.5280573997567, 0.0]
['beep', 0.0, 1387.2163161297221, 0.0, 0.0, 0.0, 0.0, 662.8633335665862, 0.0]
['beep', 0.0, 1384.4894033061748, 0.0, 0.0, 0.0, 0.0, 661.7457463438209, 0.0]
['beep', 0.0, 1383.1035951499457, 0.0, 0.0, 0.0, 0.0, 660.806973076698, 0.0]
['beep', 0.0, 1385.4281765732976, 0.0, 0.0, 0.0, 0.0, 661.4998771548126, 0.0]
['beep', 0.0, 1388.1327376523898, 0.0, 0.0, 0.0, 0.0, 662.5951126331225, 0.0]
['beep', 0.0, 1387.0151504296246, 0.0, 0.0, 0.0, 0.0, 661.7457463438209, 0.0]
['beep', 0.0, 1385.964618440225, 0.0, 0.0, 0.0, 0.0, 658.840019564631, 0.0]
['beep', 0.0, 1384.0870719059792, 0.0, 0.0, 0.0, 0.0, 659.8011445762091, 0.0]
['beep', 0.0, 1386.2328393736886, 0.0, 0.0, 0.0, 0.0, 662.2821882107482, 0.0]
['beep', 0.0, 1387.708054507739, 0.0, 0.0, 0.0, 0.0, 664.7185283563767, 0.0]
['beep', 0.0, 1386.769281240616, 0.0, 0.0, 0.0, 0.0, 664.6961766119214, 0.0]
['beep', 0.0, 1383.774147483605, 0.0, 0.0, 0.0, 0.0, 661.9916155328293, 0.0]
['beep', 0.0, 1382.030711416091, 0.0, 0.0, 0.0, 0.0, 661.1646009879829, 0.0]
['beep', 0.0, 1383.2600573611328, 0.0, 0.0, 0.0, 0.0, 663.3774236890583, 0.0]
['beep', 0.0, 1384.2211823727112, 0.0, 0.0, 0.0, 0.0, 665.7020051124102, 0.0]
['beep', 0.0, 1383.7964992280602, 0.0, 0.0, 0.0, 0.0, 664.6514731230108, 0.0]
['beep', 0.0, 1380.3096270930323, 0.0, 0.0, 0.0, 0.0, 662.0363190217399, 0.0]
['beep', 0.0, 1379.4602608037308, 0.0, 0.0, 0.0, 0.0, 662.9974440333181, 0.0]
['beep', 0.0, 1382.6565602608396, 0.0, 0.0, 0.0, 0.0, 662.9080370554968, 0.0]
['beep', 0.0, 1384.2658858616217, 0.0, 0.0, 0.0, 0.0, 663.578589389156, 0.0]
['beep', 0.0, 1383.9082579503367, 0.0, 0.0, 0.0, 0.0, 663.2656649667817, 0.0]
['beep', 0.0, 1381.2260486157, 0.0, 0.0, 0.0, 0.0, 662.2821882107482, 0.0]
['beep', 0.0, 1380.287275348577, 0.0, 0.0, 0.0, 0.0, 665.1879149899382, 0.0]
['beep', 0.0, 1383.2153538722223, 0.0, 0.0, 0.0, 0.0, 665.2326184788488, 0.0]
['beep', 0.0, 1385.3164178510212, 0.0, 0.0, 0.0, 0.0, 665.1432115010276, 0.0]
['beep', 0.0, 1384.645865517362, 0.0, 0.0, 0.0, 0.0, 664.8302870786533, 0.0]
['beep', 0.0, 1380.6225515154067, 0.0, 0.0, 0.0, 0.0, 662.6174643775779, 0.0]
['beep', 0.0, 1380.063757904024, 0.0, 0.0, 0.0, 0.0, 661.388118432536, 0.0]
['beep', 0.0, 1381.6507317603507, 0.0, 0.0, 0.0, 0.0, 663.4668306668796, 0.0]
['beep', 0.0, 1382.0530631605463, 0.0, 0.0, 0.0, 0.0, 665.098508012117, 0.0]
['beep', 0.0, 1381.0248829156021, 0.0, 0.0, 0.0, 0.0, 663.7574033447985, 0.0]
['beep', 0.0, 1378.8791154478927, 0.0, 0.0, 0.0, 0.0, 662.3045399552036, 0.0]
['beep', 0.0, 1377.6050660139401, 0.0, 0.0, 0.0, 0.0, 661.1422492435277, 0.0]
['beep', 0.0, 1379.6390747593732, 0.0, 0.0, 0.0, 0.0, 664.1150312560834, 0.0]
['beep', 0.0, 1381.6060282714402, 0.0, 0.0, 0.0, 0.0, 668.22775223586, 0.0]
['beep', 0.0, 1380.6896067487726, 0.0, 0.0, 0.0, 0.0, 666.5513714017119, 0.0]
['beep', 0.0, 1378.9908741701693, 0.0, 0.0, 0.0, 0.0, 662.3939469330248, 0.0]
['beep', 0.0, 1376.8227549580045, 0.0, 0.0, 0.0, 0.0, 661.2316562213489, 0.0]
['beep', 0.0, 1378.1862113697782, 0.0, 0.0, 0.0, 0.0, 664.6514731230108, 0.0]
['beep', 0.0, 1380.6896067487726, 0.0, 0.0, 0.0, 0.0, 667.4454411799242, 0.0]
['beep', 0.0, 1379.9519991817474, 0.0, 0.0, 0.0, 0.0, 666.6184266350779, 0.0]
['beep', 0.0, 1378.1862113697782, 0.0, 0.0, 0.0, 0.0, 664.9643975453852, 0.0]
['beep', 0.0, 1376.5992375134513, 0.0, 0.0, 0.0, 0.0, 665.8137638346868, 0.0]
['beep', 0.0, 1379.124984636901, 0.0, 0.0, 0.0, 0.0, 666.6631301239885, 0.0]
['beep', 0.0, 1381.5613247825295, 0.0, 0.0, 0.0, 0.0, 668.3171592136812, 0.0]
['beep', 0.0, 1380.220220115211, 0.0, 0.0, 0.0, 0.0, 669.0547667807064, 0.0]
['beep', 0.0, 1376.286313091077, 0.0, 0.0, 0.0, 0.0, 667.870124324575, 0.0]
['beep', 0.0, 1374.2746560900994, 0.0, 0.0, 0.0, 0.0, 667.7136621133878, 0.0]
['beep', 0.0, 1376.0180921576134, 0.0, 0.0, 0.0, 0.0, 667.3336824576477, 0.0]
['beep', 0.0, 1378.901467192348, 0.0, 0.0, 0.0, 0.0, 668.2054004914046, 0.0]
['beep', 0.0, 1376.9568654247362, 0.0, 0.0, 0.0, 0.0, 667.8477725801197, 0.0]
['beep', 0.0, 1374.095842134457, 0.0, 0.0, 0.0, 0.0, 667.4454411799242, 0.0]
['beep', 0.0, 1373.380586311887, 0.0, 0.0, 0.0, 0.0, 667.1548685020052, 0.0]
['beep', 0.0, 1374.4311183012867, 0.0, 0.0, 0.0, 0.0, 669.1218220140722, 0.0]
['beep', 0.0, 1377.1356793803786, 0.0, 0.0, 0.0, 0.0, 669.7923743477314, 0.0]
['beep', 0.0, 1377.001568913647, 0.0, 0.0, 0.0, 0.0, 668.3395109581364, 0.0]
['beep', 0.0, 1373.4923450341637, 0.0, 0.0, 0.0, 0.0, 667.2219237353711, 0.0]
['beep', 0.0, 1372.8217927005044, 0.0, 0.0, 0.0, 0.0, 667.1548685020052, 0.0]
['beep', 0.0, 1374.095842134457, 0.0, 0.0, 0.0, 0.0, 668.9430080584298, 0.0]
['beep', 0.0, 1375.6604642463285, 0.0, 0.0, 0.0, 0.0, 669.9711883033739, 0.0]
['beep', 0.0, 1375.1463741238565, 0.0, 0.0, 0.0, 0.0, 667.6242551355666, 0.0]
['beep', 0.0, 1372.3747578113982, 0.0, 0.0, 0.0, 0.0, 666.8195923351756, 0.0]
['beep', 0.0, 1371.614798499918, 0.0, 0.0, 0.0, 0.0, 666.5960748906225, 0.0]
['beep', 0.0, 1372.6876822337726, 0.0, 0.0, 0.0, 0.0, 667.4677929243795, 0.0]
['beep', 0.0, 1374.7887462125716, 0.0, 0.0, 0.0, 0.0, 668.3395109581364, 0.0]
['beep', 0.0, 1375.6604642463285, 0.0, 0.0, 0.0, 0.0, 668.6077318916001, 0.0]
['beep', 0.0, 1371.927722922292, 0.0, 0.0, 0.0, 0.0, 668.7418423583321, 0.0]
['beep', 0.0, 1370.2066385992337, 0.0, 0.0, 0.0, 0.0, 668.7865458472427, 0.0]
['beep', 0.0, 1373.1570688673341, 0.0, 0.0, 0.0, 0.0, 667.8924760690303, 0.0]
['beep', 0.0, 1374.542877023563, 0.0, 0.0, 0.0, 0.0, 668.6300836360555, 0.0]
['beep', 0.0, 1373.4699932897083, 0.0, 0.0, 0.0, 0.0, 667.4901446688348, 0.0]
['beep', 0.0, 1369.4913827766638, 0.0, 0.0, 0.0, 0.0, 666.7078336128991, 0.0]
['beep', 0.0, 1368.1055746204347, 0.0, 0.0, 0.0, 0.0, 667.4007376910135, 0.0]
['beep', 0.0, 1369.9831211546805, 0.0, 0.0, 0.0, 0.0, 668.4065661915024, 0.0]
['beep', 0.0, 1372.419461300309, 0.0, 0.0, 0.0, 0.0, 670.5076301703012, 0.0]
['beep', 0.0, 1371.5924467554626, 0.0, 0.0, 0.0, 0.0, 670.3064644702035, 0.0]
['beep', 0.0, 1368.7537752096387, 0.0, 0.0, 0.0, 0.0, 668.8759528250639, 0.0]
['beep', 0.0, 1367.7255949646944, 0.0, 0.0, 0.0, 0.0, 667.8924760690303, 0.0]
['beep', 0.0, 1368.2396850871664, 0.0, 0.0, 0.0, 0.0, 668.1383452580387, 0.0]
['beep', 0.0, 1369.1114031209236, 0.0, 0.0, 0.0, 0.0, 670.2170574923823, 0.0]
['beep', 0.0, 1366.4962490196526, 0.0, 0.0, 0.0, 0.0, 669.0771185251616, 0.0]
['beep', 0.0, 1369.0443478875575, 0.0, 0.0, 0.0, 0.0, 668.2948074692258, 0.0]
['beep', 0.0, 1369.1114031209236, 0.0, 0.0, 0.0, 0.0, 668.2724557247706, 0.0]
['beep', 0.0, 1370.4972112771525, 0.0, 0.0, 0.0, 0.0, 670.0829470256505, 0.0]
['beep', 0.0, 1371.8830194333816, 0.0, 0.0, 0.0, 0.0, 670.3735197035694, 0.0]
['beep', 0.0, 1373.7158624787169, 0.0, 0.0, 0.0, 0.0, 669.7923743477314, 0.0]
['beep', 0.0, 1371.8383159444709, 0.0, 0.0, 0.0, 0.0, 668.6971388694213, 0.0]
['beep', 0.0, 1370.608969999429, 0.0, 0.0, 0.0, 0.0, 668.5183249137789, 0.0]
['beep', 0.0, 1371.0560048885352, 0.0, 0.0, 0.0, 0.0, 668.8983045695192, 0.0]
['beep', 0.0, 1373.6041037564403, 0.0, 0.0, 0.0, 0.0, 668.5853801471449, 0.0]
['beep', 0.0, 1374.6099322569291, 0.0, 0.0, 0.0, 0.0, 667.870124324575, 0.0]
['beep', 0.0, 1371.5253915220967, 0.0, 0.0, 0.0, 0.0, 667.2219237353711, 0.0]
['beep', 0.0, 1369.1784583542894, 0.0, 0.0, 0.0, 0.0, 667.4454411799242, 0.0]
['beep', 0.0, 1369.8937141768592, 0.0, 0.0, 0.0, 0.0, 668.22775223586, 0.0]
['beep', 0.0, 1371.0113013996247, 0.0, 0.0, 0.0, 0.0, 668.9206563139745, 0.0]
['beep', 0.0, 1370.2513420881442, 0.0, 0.0, 0.0, 0.0, 669.1888772474382, 0.0]
['beep', 0.0, 1366.675062975295, 0.0, 0.0, 0.0, 0.0, 666.3949091905248, 0.0]
['beep', 0.0, 1368.1502781093452, 0.0, 0.0, 0.0, 0.0, 664.6961766119214, 0.0]
['beep', 0.0, 1369.1337548653787, 0.0, 0.0, 0.0, 0.0, 666.9313510574522, 0.0]
['beep', 0.0, 1370.9442461662586, 0.0, 0.0, 0.0, 0.0, 669.0547667807064, 0.0]
['beep', 0.0, 1371.2124670997223, 0.0, 0.0, 0.0, 0.0, 667.7807173467538, 0.0]
['beep', 0.0, 1368.6196647429067, 0.0, 0.0, 0.0, 0.0, 665.8137638346868, 0.0]
['beep', 0.0, 1367.904408920337, 0.0, 0.0, 0.0, 0.0, 664.7632318452874, 0.0]
['beep', 0.0, 1367.6138362424178, 0.0, 0.0, 0.0, 0.0, 665.3220254566701, 0.0]
['beep', 0.0, 1370.1842868547783, 0.0, 0.0, 0.0, 0.0, 667.8477725801197, 0.0]
['beep', 0.0, 1370.743080466161, 0.0, 0.0, 0.0, 0.0, 669.7253191143656, 0.0]
['beep', 0.0, 1369.2455135876553, 0.0, 0.0, 0.0, 0.0, 668.2948074692258, 0.0]
['beep', 0.0, 1367.7255949646944, 0.0, 0.0, 0.0, 0.0, 666.8195923351756, 0.0]
['beep', 0.0, 1368.4408507872643, 0.0, 0.0, 0.0, 0.0, 668.2724557247706, 0.0]
['beep', 0.0, 1371.0113013996247, 0.0, 0.0, 0.0, 0.0, 670.7534993593097, 0.0]
['beep', 0.0, 1370.0278246435912, 0.0, 0.0, 0.0, 0.0, 669.7253191143656, 0.0]
['beep', 0.0, 1367.03269088658, 0.0, 0.0, 0.0, 0.0, 666.7301853573543, 0.0]
['beep', 0.0, 1365.5574757525296, 0.0, 0.0, 0.0, 0.0, 667.8924760690303, 0.0]
['beep', 0.0, 1366.3397868084655, 0.0, 0.0, 0.0, 0.0, 668.2948074692258, 0.0]
['beep', 0.0, 1368.999644398647, 0.0, 0.0, 0.0, 0.0, 670.6417406370331, 0.0]
['beep', 0.0, 1370.2736938325995, 0.0, 0.0, 0.0, 0.0, 669.5688569031784, 0.0]
['beep', 0.0, 1367.7926501980603, 0.0, 0.0, 0.0, 0.0, 668.7194906138767, 0.0]
['beep', 0.0, 1365.3786617968872, 0.0, 0.0, 0.0, 0.0, 669.3900429475359, 0.0]
['beep', 0.0, 1368.194981598256, 0.0, 0.0, 0.0, 0.0, 670.9770168038627, 0.0]
['beep', 0.0, 1368.060871131524, 0.0, 0.0, 0.0, 0.0, 670.9770168038627, 0.0]
['beep', 0.0, 1365.6021792414404, 0.0, 0.0, 0.0, 0.0, 669.3453394586253, 0.0]
['beep', 0.0, 1364.998682141147, 0.0, 0.0, 0.0, 0.0, 668.451269680413, 0.0]
['beep', 0.0, 1366.093917619457, 0.0, 0.0, 0.0, 0.0, 667.6689586244772, 0.0]
['beep', 0.0, 1368.0832228759793, 0.0, 0.0, 0.0, 0.0, 669.5465051587231, 0.0]
['beep', 0.0, 1370.4748595326973, 0.0, 0.0, 0.0, 0.0, 669.2559324808041, 0.0]
['beep', 0.0, 1370.5419147660632, 0.0, 0.0, 0.0, 0.0, 668.0265865357621, 0.0]
['beep', 0.0, 1365.93745540827, 0.0, 0.0, 0.0, 0.0, 668.22775223586, 0.0]
['beep', 0.0, 1366.9209321643034, 0.0, 0.0, 0.0, 0.0, 669.4794499253571, 0.0]
['beep', 0.0, 1367.904408920337, 0.0, 0.0, 0.0, 0.0, 669.8594295810974, 0.0]
['beep', 0.0, 1371.5924467554626, 0.0, 0.0, 0.0, 0.0, 669.1441737585276, 0.0]
['beep', 0.0, 1371.1677636108118, 0.0, 0.0, 0.0, 0.0, 667.7360138578432, 0.0]
['beep', 0.0, 1366.876228675393, 0.0, 0.0, 0.0, 0.0, 668.7865458472427, 0.0]
['beep', 0.0, 1365.2669030746106, 0.0, 0.0, 0.0, 0.0, 667.870124324575, 0.0]
['beep', 0.0, 1366.6303594863844, 0.0, 0.0, 0.0, 0.0, 668.4065661915024, 0.0]
['beep', 0.0, 1367.546781009052, 0.0, 0.0, 0.0, 0.0, 670.9770168038627, 0.0]
['beep', 0.0, 1368.4632025317196, 0.0, 0.0, 0.0, 0.0, 670.194705747927, 0.0]
['beep', 0.0, 1367.1444496088566, 0.0, 0.0, 0.0, 0.0, 668.160697002494, 0.0]
['beep', 0.0, 1366.0045106416358, 0.0, 0.0, 0.0, 0.0, 667.5571999022008, 0.0]
['beep', 0.0, 1366.5409525085631, 0.0, 0.0, 0.0, 0.0, 669.1888772474382, 0.0]
['beep', 0.0, 1368.2843885760772, 0.0, 0.0, 0.0, 0.0, 669.680615625455, 0.0]
['beep', 0.0, 1370.161935110323, 0.0, 0.0, 0.0, 0.0, 667.8030690912091, 0.0]
['beep', 0.0, 1368.3737955538984, 0.0, 0.0, 0.0, 0.0, 666.1713917459717, 0.0]
['beep', 0.0, 1364.9539786522364, 0.0, 0.0, 0.0, 0.0, 667.065461524184, 0.0]
['beep', 0.0, 1366.9432839087588, 0.0, 0.0, 0.0, 0.0, 668.0042347913069, 0.0]
['beep', 0.0, 1370.1172316214124, 0.0, 0.0, 0.0, 0.0, 668.6524353805107, 0.0]
['beep', 0.0, 1370.899542677348, 0.0, 0.0, 0.0, 0.0, 669.5018016698125, 0.0]
['beep', 0.0, 1368.7314234651833, 0.0, 0.0, 0.0, 0.0, 668.6077318916001, 0.0]
['beep', 0.0, 1367.4797257756861, 0.0, 0.0, 0.0, 0.0, 667.1772202464605, 0.0]
['beep', 0.0, 1365.4680687747084, 0.0, 0.0, 0.0, 0.0, 667.8924760690303, 0.0]
['beep', 0.0, 1368.418499042809, 0.0, 0.0, 0.0, 0.0, 669.0771185251616, 0.0]
['beep', 0.0, 1371.4583362887308, 0.0, 0.0, 0.0, 0.0, 670.194705747927, 0.0]
['beep', 0.0, 1368.9102374208258, 0.0, 0.0, 0.0, 0.0, 667.8477725801197, 0.0]
['beep', 0.0, 1367.0103391421246, 0.0, 0.0, 0.0, 0.0, 665.3890806900359, 0.0]
['beep', 0.0, 1369.0219961431023, 0.0, 0.0, 0.0, 0.0, 668.2948074692258, 0.0]
['beep', 0.0, 1373.067661889513, 0.0, 0.0, 0.0, 0.0, 670.2841127257482, 0.0]
['beep', 0.0, 1374.0511386455464, 0.0, 0.0, 0.0, 0.0, 667.5124964132901, 0.0]
['beep', 0.0, 1370.2513420881442, 0.0, 0.0, 0.0, 0.0, 667.5571999022008, 0.0]
['beep', 0.0, 1367.546781009052, 0.0, 0.0, 0.0, 0.0, 666.9537028019074, 0.0]
['beep', 0.0, 1368.485554276175, 0.0, 0.0, 0.0, 0.0, 668.8088975916979, 0.0]
['beep', 0.0, 1371.123060121901, 0.0, 0.0, 0.0, 0.0, 671.3569964596029, 0.0]
['beep', 0.0, 1369.804307199038, 0.0, 0.0, 0.0, 0.0, 671.2452377373264, 0.0]
['beep', 0.0, 1367.8597054314264, 0.0, 0.0, 0.0, 0.0, 668.0042347913069, 0.0]
['beep', 0.0, 1365.423365285798, 0.0, 0.0, 0.0, 0.0, 667.5571999022008, 0.0]
['beep', 0.0, 1367.4573740312308, 0.0, 0.0, 0.0, 0.0, 667.6689586244772, 0.0]
['beep', 0.0, 1369.7819554545827, 0.0, 0.0, 0.0, 0.0, 669.904133070008, 0.0]
['beep', 0.0, 1370.899542677348, 0.0, 0.0, 0.0, 0.0, 668.8983045695192, 0.0]
['beep', 0.0, 1369.1337548653787, 0.0, 0.0, 0.0, 0.0, 667.3336824576477, 0.0]
['beep', 0.0, 1367.1668013533117, 0.0, 0.0, 0.0, 0.0, 667.1101650130946, 0.0]
['beep', 0.0, 1366.7644699531163, 0.0, 0.0, 0.0, 0.0, 667.5571999022008, 0.0]
['beep', 0.0, 1368.6643682318174, 0.0, 0.0, 0.0, 0.0, 668.7194906138767, 0.0]
['beep', 0.0, 1370.4078042993312, 0.0, 0.0, 0.0, 0.0, 668.0712900246727, 0.0]
['beep', 0.0, 1367.323263564499, 0.0, 0.0, 0.0, 0.0, 666.6631301239885, 0.0]
['beep', 0.0, 1363.7469844516497, 0.0, 0.0, 0.0, 0.0, 665.3220254566701, 0.0]
['beep', 0.0, 1365.9821588971806, 0.0, 0.0, 0.0, 0.0, 664.740880100832, 0.0]
['beep', 0.0, 1369.4019757988426, 0.0, 0.0, 0.0, 0.0, 667.0207580352734, 0.0]
['beep', 0.0, 1369.513734521119, 0.0, 0.0, 0.0, 0.0, 667.1772202464605, 0.0]
['beep', 0.0, 1366.898580419848, 0.0, 0.0, 0.0, 0.0, 665.903170812508, 0.0]
['beep', 0.0, 1363.769336196105, 0.0, 0.0, 0.0, 0.0, 665.9702260458739, 0.0]
['beep', 0.0, 1366.228028086189, 0.0, 0.0, 0.0, 0.0, 668.4065661915024, 0.0]
['beep', 0.0, 1368.7761269540938, 0.0, 0.0, 0.0, 0.0, 669.837077836642, 0.0]
['beep', 0.0, 1368.7537752096387, 0.0, 0.0, 0.0, 0.0, 668.5183249137789, 0.0]
['beep', 0.0, 1367.390318797865, 0.0, 0.0, 0.0, 0.0, 667.0878132686393, 0.0]
['beep', 0.0, 1366.4738972751973, 0.0, 0.0, 0.0, 0.0, 665.2549702233041, 0.0]
['beep', 0.0, 1366.675062975295, 0.0, 0.0, 0.0, 0.0, 668.9206563139745, 0.0]
['beep', 0.0, 1369.960769410225, 0.0, 0.0, 0.0, 0.0, 670.4405749369354, 0.0]
['beep', 0.0, 1371.257170588633, 0.0, 0.0, 0.0, 0.0, 668.4065661915024, 0.0]
['beep', 0.0, 1367.5691327535073, 0.0, 0.0, 0.0, 0.0, 667.3560342021029, 0.0]
['beep', 0.0, 1364.7304612076832, 0.0, 0.0, 0.0, 0.0, 667.0431097797286, 0.0]
['beep', 0.0, 1366.384490297376, 0.0, 0.0, 0.0, 0.0, 668.7865458472427, 0.0]
['beep', 0.0, 1369.3125688210214, 0.0, 0.0, 0.0, 0.0, 669.7476708588208, 0.0]
['beep', 0.0, 1368.84318218746, 0.0, 0.0, 0.0, 0.0, 669.680615625455, 0.0]
['beep', 0.0, 1366.8315251864822, 0.0, 0.0, 0.0, 0.0, 670.2841127257482, 0.0]
['beep', 0.0, 1366.3397868084655, 0.0, 0.0, 0.0, 0.0, 668.5183249137789, 0.0]
['beep', 0.0, 1367.8820571758815, 0.0, 0.0, 0.0, 0.0, 667.6689586244772, 0.0]
['beep', 0.0, 1368.5302577650855, 0.0, 0.0, 0.0, 0.0, 669.7923743477314, 0.0]
['beep', 0.0, 1368.351443809443, 0.0, 0.0, 0.0, 0.0, 668.6747871249661, 0.0]
['beep', 0.0, 1366.384490297376, 0.0, 0.0, 0.0, 0.0, 668.0489382802175, 0.0]
['beep', 0.0, 1363.7022809627392, 0.0, 0.0, 0.0, 0.0, 667.4454411799242, 0.0]
['beep', 0.0, 1363.098783862446, 0.0, 0.0, 0.0, 0.0, 668.6971388694213, 0.0]
['beep', 0.0, 1366.4068420418314, 0.0, 0.0, 0.0, 0.0, 669.2335807363488, 0.0]
['beep', 0.0, 1368.9772926541916, 0.0, 0.0, 0.0, 0.0, 669.9488365589186, 0.0]
['beep', 0.0, 1368.2843885760772, 0.0, 0.0, 0.0, 0.0, 667.7136621133878, 0.0]
['beep', 0.0, 1366.4962490196526, 0.0, 0.0, 0.0, 0.0, 667.6689586244772, 0.0]
['beep', 0.0, 1364.3281298074878, 0.0, 0.0, 0.0, 0.0, 669.6359121365443, 0.0]
['beep', 0.0, 1366.4962490196526, 0.0, 0.0, 0.0, 0.0, 669.3453394586253, 0.0]
['beep', 0.0, 1368.060871131524, 0.0, 0.0, 0.0, 0.0, 667.7807173467538, 0.0]
['beep', 0.0, 1365.2669030746106, 0.0, 0.0, 0.0, 0.0, 667.7583656022985, 0.0]
['beep', 0.0, 1364.8422199299598, 0.0, 0.0, 0.0, 0.0, 669.3900429475359, 0.0]
['beep', 0.0, 1367.323263564499, 0.0, 0.0, 0.0, 0.0, 672.1393075155387, 0.0]
['beep', 0.0, 1367.390318797865, 0.0, 0.0, 0.0, 0.0, 672.0722522821727, 0.0]
['beep', 0.0, 1366.898580419848, 0.0, 0.0, 0.0, 0.0, 671.1334790150498, 0.0]
['beep', 0.0, 1364.5516472520408, 0.0, 0.0, 0.0, 0.0, 668.4959731693236, 0.0]
['beep', 0.0, 1363.836391429471, 0.0, 0.0, 0.0, 0.0, 666.6631301239885, 0.0]
['beep', 0.0, 1364.417536785309, 0.0, 0.0, 0.0, 0.0, 668.22775223586, 0.0]
['beep', 0.0, 1365.5351240080745, 0.0, 0.0, 0.0, 0.0, 669.0547667807064, 0.0]
['beep', 0.0, 1368.7984786985492, 0.0, 0.0, 0.0, 0.0, 668.9653598028851, 0.0]
['beep', 0.0, 1369.5584380100297, 0.0, 0.0, 0.0, 0.0, 667.8254208356644, 0.0]
['beep', 0.0, 1368.84318218746, 0.0, 0.0, 0.0, 0.0, 668.8536010806085, 0.0]
['beep', 0.0, 1370.8324874439822, 0.0, 0.0, 0.0, 0.0, 672.6533976380107, 0.0]
['beep', 0.0, 1373.9170281788145, 0.0, 0.0, 0.0, 0.0, 673.0557290382063, 0.0]
['beep', 0.0, 1374.1181938789123, 0.0, 0.0, 0.0, 0.0, 672.2734179822705, 0.0]
['beep', 0.0, 1370.966597910714, 0.0, 0.0, 0.0, 0.0, 670.7982028482203, 0.0]
['beep', 0.0, 1366.9656356532141, 0.0, 0.0, 0.0, 0.0, 670.6417406370331, 0.0]
['beep', 0.0, 1367.323263564499, 0.0, 0.0, 0.0, 0.0, 672.1840110044493, 0.0]
['beep', 0.0, 1367.837353686971, 0.0, 0.0, 0.0, 0.0, 670.9770168038627, 0.0]
['beep', 0.0, 1365.1551443523342, 0.0, 0.0, 0.0, 0.0, 671.804031348709, 0.0]
['beep', 0.0, 1365.3116065635213, 0.0, 0.0, 0.0, 0.0, 672.0722522821727, 0.0]
['beep', 0.0, 1364.8198681855044, 0.0, 0.0, 0.0, 0.0, 670.5076301703012, 0.0]
['beep', 0.0, 1364.0152053851134, 0.0, 0.0, 0.0, 0.0, 670.7534993593097, 0.0]
['beep', 0.0, 1367.2338565866778, 0.0, 0.0, 0.0, 0.0, 670.8429063371309, 0.0]
['beep', 0.0, 1368.5079060206301, 0.0, 0.0, 0.0, 0.0, 669.680615625455, 0.0]
['beep', 0.0, 1366.2727315750994, 0.0, 0.0, 0.0, 0.0, 669.4794499253571, 0.0]
['beep', 0.0, 1364.708109463228, 0.0, 0.0, 0.0, 0.0, 668.8536010806085, 0.0]
['beep', 0.0, 1365.2669030746106, 0.0, 0.0, 0.0, 0.0, 669.6359121365443, 0.0]
['beep', 0.0, 1367.4350222867754, 0.0, 0.0, 0.0, 0.0, 671.6475691375219, 0.0]
['beep', 0.0, 1368.7984786985492, 0.0, 0.0, 0.0, 0.0, 672.6310458935554, 0.0]
['beep', 0.0, 1367.1668013533117, 0.0, 0.0, 0.0, 0.0, 670.5746854036672, 0.0]
['beep', 0.0, 1364.6634059743174, 0.0, 0.0, 0.0, 0.0, 670.3958714480248, 0.0]
['beep', 0.0, 1365.2445513301554, 0.0, 0.0, 0.0, 0.0, 671.3122929706923, 0.0]
['beep', 0.0, 1366.451545530742, 0.0, 0.0, 0.0, 0.0, 671.7369761153432, 0.0]
['beep', 0.0, 1368.6196647429067, 0.0, 0.0, 0.0, 0.0, 670.7982028482203, 0.0]
['beep', 0.0, 1367.5020775201415, 0.0, 0.0, 0.0, 0.0, 669.680615625455, 0.0]
['beep', 0.0, 1366.160972852823, 0.0, 0.0, 0.0, 0.0, 670.5076301703012, 0.0]
['beep', 0.0, 1368.0161676426135, 0.0, 0.0, 0.0, 0.0, 670.6417406370331, 0.0]
['beep', 0.0, 1369.804307199038, 0.0, 0.0, 0.0, 0.0, 672.2063627489046, 0.0]
['beep', 0.0, 1370.161935110323, 0.0, 0.0, 0.0, 0.0, 672.2734179822705, 0.0]
['beep', 0.0, 1369.2231618432, 0.0, 0.0, 0.0, 0.0, 670.2841127257482, 0.0]
['beep', 0.0, 1368.0161676426135, 0.0, 0.0, 0.0, 0.0, 670.0158917922845, 0.0]
['beep', 0.0, 1368.999644398647, 0.0, 0.0, 0.0, 0.0, 671.222885992871, 0.0]
['beep', 0.0, 1370.5866182549737, 0.0, 0.0, 0.0, 0.0, 672.0051970488068, 0.0]
['beep', 0.0, 1372.419461300309, 0.0, 0.0, 0.0, 0.0, 672.742804615832, 0.0]
['beep', 0.0, 1369.580789754485, 0.0, 0.0, 0.0, 0.0, 672.2957697267258, 0.0]
['beep', 0.0, 1367.7702984536052, 0.0, 0.0, 0.0, 0.0, 669.8147260921868, 0.0]
['beep', 0.0, 1369.4913827766638, 0.0, 0.0, 0.0, 0.0, 669.5241534142677, 0.0]
['beep', 0.0, 1371.1454118663564, 0.0, 0.0, 0.0, 0.0, 672.6981011269213, 0.0]
['beep', 0.0, 1370.9218944218035, 0.0, 0.0, 0.0, 0.0, 670.8652580815861, 0.0]
['beep', 0.0, 1369.960769410225, 0.0, 0.0, 0.0, 0.0, 669.2559324808041, 0.0]
['beep', 0.0, 1367.9938158981581, 0.0, 0.0, 0.0, 0.0, 668.2501039803152, 0.0]
['beep', 0.0, 1368.865533931915, 0.0, 0.0, 0.0, 0.0, 668.4959731693236, 0.0]
['beep', 0.0, 1370.608969999429, 0.0, 0.0, 0.0, 0.0, 670.8429063371309, 0.0]
['beep', 0.0, 1371.7265572221945, 0.0, 0.0, 0.0, 0.0, 670.1500022590163, 0.0]
['beep', 0.0, 1370.1172316214124, 0.0, 0.0, 0.0, 0.0, 668.5183249137789, 0.0]
['beep', 0.0, 1366.5633042530185, 0.0, 0.0, 0.0, 0.0, 666.9760545463628, 0.0]
['beep', 0.0, 1367.5244292645966, 0.0, 0.0, 0.0, 0.0, 668.6747871249661, 0.0]
['beep', 0.0, 1370.6983769772503, 0.0, 0.0, 0.0, 0.0, 670.6417406370331, 0.0]
['beep', 0.0, 1369.9831211546805, 0.0, 0.0, 0.0, 0.0, 671.6475691375219, 0.0]
['beep', 0.0, 1367.9938158981581, 0.0, 0.0, 0.0, 0.0, 668.9206563139745, 0.0]
['beep', 0.0, 1367.5244292645966, 0.0, 0.0, 0.0, 0.0, 668.6747871249661, 0.0]
['beep', 0.0, 1369.6254932433956, 0.0, 0.0, 0.0, 0.0, 668.1830487469493, 0.0]
['beep', 0.0, 1371.0783566329906, 0.0, 0.0, 0.0, 0.0, 670.1723540034717, 0.0]
['beep', 0.0, 1370.7877839550715, 0.0, 0.0, 0.0, 0.0, 670.5076301703012, 0.0]
['beep', 0.0, 1366.898580419848, 0.0, 0.0, 0.0, 0.0, 668.7865458472427, 0.0]
['beep', 0.0, 1366.3397868084655, 0.0, 0.0, 0.0, 0.0, 666.260798723793, 0.0]
['beep', 0.0, 1365.8033449415382, 0.0, 0.0, 0.0, 0.0, 667.3336824576477, 0.0]
['beep', 0.0, 1367.7255949646944, 0.0, 0.0, 0.0, 0.0, 668.8536010806085, 0.0]
['beep', 0.0, 1368.9325891652811, 0.0, 0.0, 0.0, 0.0, 667.7136621133878, 0.0]
['beep', 0.0, 1366.5856559974739, 0.0, 0.0, 0.0, 0.0, 666.1713917459717, 0.0]
['beep', 0.0, 1365.0433856300576, 0.0, 0.0, 0.0, 0.0, 666.3725574460694, 0.0]
['beep', 0.0, 1365.6245309858957, 0.0, 0.0, 0.0, 0.0, 667.8254208356644, 0.0]
['beep', 0.0, 1367.904408920337, 0.0, 0.0, 0.0, 0.0, 671.4464034374241, 0.0]
['beep', 0.0, 1369.7819554545827, 0.0, 0.0, 0.0, 0.0, 670.2394092368376, 0.0]
['beep', 0.0, 1369.357272309932, 0.0, 0.0, 0.0, 0.0, 669.3676912030807, 0.0]
['beep', 0.0, 1367.7255949646944, 0.0, 0.0, 0.0, 0.0, 668.9653598028851, 0.0]
['beep', 0.0, 1368.3290920649877, 0.0, 0.0, 0.0, 0.0, 668.0042347913069, 0.0]
['beep', 0.0, 1368.9549409097363, 0.0, 0.0, 0.0, 0.0, 670.3511679591142, 0.0]
['beep', 0.0, 1367.7255949646944, 0.0, 0.0, 0.0, 0.0, 671.3122929706923, 0.0]
['beep', 0.0, 1364.998682141147, 0.0, 0.0, 0.0, 0.0, 670.4629266813906, 0.0]
['beep', 0.0, 1361.7129757062169, 0.0, 0.0, 0.0, 0.0, 669.5018016698125, 0.0]
['beep', 0.0, 1362.8752664178928, 0.0, 0.0, 0.0, 0.0, 672.2510662378152, 0.0]
['beep', 0.0, 1364.5292955075856, 0.0, 0.0, 0.0, 0.0, 673.0780807826616, 0.0]
['beep', 0.0, 1363.970501896203, 0.0, 0.0, 0.0, 0.0, 671.9157900709856, 0.0]
['beep', 0.0, 1365.6468827303509, 0.0, 0.0, 0.0, 0.0, 670.5746854036672, 0.0]
['beep', 0.0, 1364.3504815519432, 0.0, 0.0, 0.0, 0.0, 668.3395109581364, 0.0]
['beep', 0.0, 1364.9539786522364, 0.0, 0.0, 0.0, 0.0, 669.0547667807064, 0.0]
['beep', 0.0, 1366.3174350640102, 0.0, 0.0, 0.0, 0.0, 669.837077836642, 0.0]
['beep', 0.0, 1365.2221995857, 0.0, 0.0, 0.0, 0.0, 669.904133070008, 0.0]
['beep', 0.0, 1362.31647280651, 0.0, 0.0, 0.0, 0.0, 669.7923743477314, 0.0]
['beep', 0.0, 1360.3048158055326, 0.0, 0.0, 0.0, 0.0, 670.2394092368376, 0.0]
['beep', 0.0, 1361.2212373282, 0.0, 0.0, 0.0, 0.0, 671.0440720372286, 0.0]
['beep', 0.0, 1363.2775978180885, 0.0, 0.0, 0.0, 0.0, 671.289941226237, 0.0]
['beep', 0.0, 1363.8140396850158, 0.0, 0.0, 0.0, 0.0, 670.3064644702035, 0.0]
['beep', 0.0, 1361.1988855837449, 0.0, 0.0, 0.0, 0.0, 668.4736214248683, 0.0]
['beep', 0.0, 1362.160010595323, 0.0, 0.0, 0.0, 0.0, 666.260798723793, 0.0]
['beep', 0.0, 1365.5127722636191, 0.0, 0.0, 0.0, 0.0, 666.4619644238907, 0.0]
['beep', 0.0, 1368.5079060206301, 0.0, 0.0, 0.0, 0.0, 668.8312493361533, 0.0]
['beep', 0.0, 1367.2338565866778, 0.0, 0.0, 0.0, 0.0, 668.8312493361533, 0.0]
['beep', 0.0, 1364.641054229862, 0.0, 0.0, 0.0, 0.0, 667.6689586244772, 0.0]
['beep', 0.0, 1363.2105425847224, 0.0, 0.0, 0.0, 0.0, 668.9877115473404, 0.0]
['beep', 0.0, 1362.6293972288845, 0.0, 0.0, 0.0, 0.0, 667.7136621133878, 0.0]
['beep', 0.0, 1364.283426318577, 0.0, 0.0, 0.0, 0.0, 667.8924760690303, 0.0]
['beep', 0.0, 1364.5739989964961, 0.0, 0.0, 0.0, 0.0, 667.7136621133878, 0.0]
['beep', 0.0, 1362.0706036175018, 0.0, 0.0, 0.0, 0.0, 667.2442754798265, 0.0]
['beep', 0.0, 1363.7469844516497, 0.0, 0.0, 0.0, 0.0, 664.2044382339046, 0.0]
['beep', 0.0, 1365.2669030746106, 0.0, 0.0, 0.0, 0.0, 665.2996737122147, 0.0]
['beep', 0.0, 1363.8587431739263, 0.0, 0.0, 0.0, 0.0, 667.065461524184, 0.0]
['beep', 0.0, 1364.9763303966918, 0.0, 0.0, 0.0, 0.0, 667.7807173467538, 0.0]
['beep', 0.0, 1362.6517489733399, 0.0, 0.0, 0.0, 0.0, 666.0596330236951, 0.0]
['beep', 0.0, 1363.2999495625436, 0.0, 0.0, 0.0, 0.0, 664.450307422913, 0.0]
['beep', 0.0, 1364.641054229862, 0.0, 0.0, 0.0, 0.0, 664.4950109118237, 0.0]
['beep', 0.0, 1367.2115048422224, 0.0, 0.0, 0.0, 0.0, 665.9925777903293, 0.0]
['beep', 0.0, 1366.0715658750019, 0.0, 0.0, 0.0, 0.0, 667.065461524184, 0.0]
['beep', 0.0, 1364.4622402742195, 0.0, 0.0, 0.0, 0.0, 662.840981822131, 0.0]
['beep', 0.0, 1362.9199699068035, 0.0, 0.0, 0.0, 0.0, 661.7904498327315, 0.0]
['beep', 0.0, 1363.5905222404626, 0.0, 0.0, 0.0, 0.0, 665.2549702233041, 0.0]
['beep', 0.0, 1367.0550426310353, 0.0, 0.0, 0.0, 0.0, 666.6184266350779, 0.0]
['beep', 0.0, 1367.7702984536052, 0.0, 0.0, 0.0, 0.0, 666.9313510574522, 0.0]
['beep', 0.0, 1365.870400174904, 0.0, 0.0, 0.0, 0.0, 665.612598134589, 0.0]
['beep', 0.0, 1364.3057780630324, 0.0, 0.0, 0.0, 0.0, 662.4833539108461, 0.0]
['beep', 0.0, 1365.356310052432, 0.0, 0.0, 0.0, 0.0, 664.159734744994, 0.0]
['beep', 0.0, 1366.384490297376, 0.0, 0.0, 0.0, 0.0, 665.7020051124102, 0.0]
['beep', 0.0, 1366.9432839087588, 0.0, 0.0, 0.0, 0.0, 665.3220254566701, 0.0]
['beep', 0.0, 1364.1046123629346, 0.0, 0.0, 0.0, 0.0, 664.9867492898404, 0.0]
['beep', 0.0, 1363.2999495625436, 0.0, 0.0, 0.0, 0.0, 663.7797550892539, 0.0]
['beep', 0.0, 1364.1940193407559, 0.0, 0.0, 0.0, 0.0, 666.0596330236951, 0.0]
['beep', 0.0, 1367.4126705423203, 0.0, 0.0, 0.0, 0.0, 667.5571999022008, 0.0]
['beep', 0.0, 1367.2338565866778, 0.0, 0.0, 0.0, 0.0, 667.1101650130946, 0.0]
['beep', 0.0, 1365.579827496985, 0.0, 0.0, 0.0, 0.0, 664.5397144007343, 0.0]
['beep', 0.0, 1363.8140396850158, 0.0, 0.0, 0.0, 0.0, 663.0421475222287, 0.0]
['beep', 0.0, 1365.4457170302533, 0.0, 0.0, 0.0, 0.0, 663.0868510111393, 0.0]
['beep', 0.0, 1369.2678653321107, 0.0, 0.0, 0.0, 0.0, 663.8244585781645, 0.0]
['beep', 0.0, 1368.6196647429067, 0.0, 0.0, 0.0, 0.0, 664.8973423120192, 0.0]
['beep', 0.0, 1366.4068420418314, 0.0, 0.0, 0.0, 0.0, 663.1986097334159, 0.0]
['beep', 0.0, 1364.0375571295688, 0.0, 0.0, 0.0, 0.0, 662.4833539108461, 0.0]
['beep', 0.0, 1365.3116065635213, 0.0, 0.0, 0.0, 0.0, 663.422127177969, 0.0]
['beep', 0.0, 1367.8820571758815, 0.0, 0.0, 0.0, 0.0, 665.0761562676616, 0.0]
['beep', 0.0, 1367.7702984536052, 0.0, 0.0, 0.0, 0.0, 664.3832521895471, 0.0]
['beep', 0.0, 1367.680891475784, 0.0, 0.0, 0.0, 0.0, 663.3997754335136, 0.0]
['beep', 0.0, 1365.870400174904, 0.0, 0.0, 0.0, 0.0, 663.3997754335136, 0.0]
['beep', 0.0, 1365.1998478412447, 0.0, 0.0, 0.0, 0.0, 663.2209614778711, 0.0]
['beep', 0.0, 1366.675062975295, 0.0, 0.0, 0.0, 0.0, 665.5678946456784, 0.0]
['beep', 0.0, 1367.9267606647923, 0.0, 0.0, 0.0, 0.0, 666.4396126794354, 0.0]
['beep', 0.0, 1365.870400174904, 0.0, 0.0, 0.0, 0.0, 662.9750922888628, 0.0]
['beep', 0.0, 1363.9257984072922, 0.0, 0.0, 0.0, 0.0, 660.7622695877874, 0.0]
['beep', 0.0, 1366.1162693639124, 0.0, 0.0, 0.0, 0.0, 661.4775254103572, 0.0]
['beep', 0.0, 1366.9432839087588, 0.0, 0.0, 0.0, 0.0, 663.2656649667817, 0.0]
['beep', 0.0, 1367.1668013533117, 0.0, 0.0, 0.0, 0.0, 662.3045399552036, 0.0]
['beep', 0.0, 1366.6080077419292, 0.0, 0.0, 0.0, 0.0, 661.0304905212511, 0.0]
['beep', 0.0, 1366.2950833195548, 0.0, 0.0, 0.0, 0.0, 660.9410835434298, 0.0]
['beep', 0.0, 1367.0997461199458, 0.0, 0.0, 0.0, 0.0, 661.3434149436254, 0.0]
['beep', 0.0, 1368.9549409097363, 0.0, 0.0, 0.0, 0.0, 663.1092027555947, 0.0]
['beep', 0.0, 1368.5973129984513, 0.0, 0.0, 0.0, 0.0, 663.3774236890583, 0.0]
['beep', 0.0, 1367.5914844979627, 0.0, 0.0, 0.0, 0.0, 662.4162986774801, 0.0]
['beep', 0.0, 1365.9821588971806, 0.0, 0.0, 0.0, 0.0, 661.7233945993656, 0.0]
['beep', 0.0, 1365.8480484304487, 0.0, 0.0, 0.0, 0.0, 662.3939469330248, 0.0]
['beep', 0.0, 1367.1444496088566, 0.0, 0.0, 0.0, 0.0, 663.1315545000499, 0.0]
['beep', 0.0, 1368.4408507872643, 0.0, 0.0, 0.0, 0.0, 664.2491417228152, 0.0]
['beep', 0.0, 1367.7926501980603, 0.0, 0.0, 0.0, 0.0, 664.3832521895471, 0.0]
['beep', 0.0, 1366.2503798306443, 0.0, 0.0, 0.0, 0.0, 664.6067696341001, 0.0]
['beep', 0.0, 1366.3174350640102, 0.0, 0.0, 0.0, 0.0, 666.1043365126058, 0.0]
['beep', 0.0, 1369.3349205654765, 0.0, 0.0, 0.0, 0.0, 666.998406290818, 0.0]
['beep', 0.0, 1369.8490106879487, 0.0, 0.0, 0.0, 0.0, 665.5008394123125, 0.0]
['beep', 0.0, 1367.680891475784, 0.0, 0.0, 0.0, 0.0, 664.9420458009298, 0.0]
['beep', 0.0, 1366.4738972751973, 0.0, 0.0, 0.0, 0.0, 664.6067696341001, 0.0]
['beep', 0.0, 1367.2338565866778, 0.0, 0.0, 0.0, 0.0, 665.5455429012231, 0.0]
['beep', 0.0, 1367.546781009052, 0.0, 0.0, 0.0, 0.0, 665.2549702233041, 0.0]
['beep', 0.0, 1368.6643682318174, 0.0, 0.0, 0.0, 0.0, 665.7243568568656, 0.0]
['beep', 0.0, 1367.5244292645966, 0.0, 0.0, 0.0, 0.0, 663.9809207893516, 0.0]
['beep', 0.0, 1364.5516472520408, 0.0, 0.0, 0.0, 0.0, 665.098508012117, 0.0]
['beep', 0.0, 1365.8927519193594, 0.0, 0.0, 0.0, 0.0, 666.1490400015164, 0.0]
['beep', 0.0, 1367.837353686971, 0.0, 0.0, 0.0, 0.0, 666.41726093498, 0.0]
['beep', 0.0, 1367.0997461199458, 0.0, 0.0, 0.0, 0.0, 667.065461524184, 0.0]
['beep', 0.0, 1364.6634059743174, 0.0, 0.0, 0.0, 0.0, 666.0372812792399, 0.0]
['beep', 0.0, 1364.2163710852112, 0.0, 0.0, 0.0, 0.0, 665.2549702233041, 0.0]
['beep', 0.0, 1365.3786617968872, 0.0, 0.0, 0.0, 0.0, 664.8526388231086, 0.0]
['beep', 0.0, 1366.4962490196526, 0.0, 0.0, 0.0, 0.0, 665.8361155791421, 0.0]
['beep', 0.0, 1367.3456153089542, 0.0, 0.0, 0.0, 0.0, 668.160697002494, 0.0]
['beep', 0.0, 1365.4904205191638, 0.0, 0.0, 0.0, 0.0, 665.098508012117, 0.0]
['beep', 0.0, 1364.8869234188705, 0.0, 0.0, 0.0, 0.0, 662.773926588765, 0.0]
['beep', 0.0, 1365.6468827303509, 0.0, 0.0, 0.0, 0.0, 665.7690603457762, 0.0]
['beep', 0.0, 1369.0219961431023, 0.0, 0.0, 0.0, 0.0, 665.8361155791421, 0.0]
['beep', 0.0, 1368.7761269540938, 0.0, 0.0, 0.0, 0.0, 665.031452778751, 0.0]
['beep', 0.0, 1367.4797257756861, 0.0, 0.0, 0.0, 0.0, 664.0479760227175, 0.0]
['beep', 0.0, 1366.0268623860911, 0.0, 0.0, 0.0, 0.0, 663.1092027555947, 0.0]
['beep', 0.0, 1366.876228675393, 0.0, 0.0, 0.0, 0.0, 663.0421475222287, 0.0]
['beep', 0.0, 1368.8878856763704, 0.0, 0.0, 0.0, 0.0, 664.5620661451895, 0.0]
['beep', 0.0, 1370.4301560437866, 0.0, 0.0, 0.0, 0.0, 664.2938452117259, 0.0]
['beep', 0.0, 1368.3290920649877, 0.0, 0.0, 0.0, 0.0, 663.578589389156, 0.0]
['beep', 0.0, 1367.8150019425157, 0.0, 0.0, 0.0, 0.0, 662.7962783332204, 0.0]
['beep', 0.0, 1369.4243275432977, 0.0, 0.0, 0.0, 0.0, 664.1820864894494, 0.0]
['beep', 0.0, 1370.2289903436888, 0.0, 0.0, 0.0, 0.0, 666.3725574460694, 0.0]
['beep', 0.0, 1370.5195630216078, 0.0, 0.0, 0.0, 0.0, 666.260798723793, 0.0]
['beep', 0.0, 1369.1114031209236, 0.0, 0.0, 0.0, 0.0, 663.1986097334159, 0.0]
['beep', 0.0, 1368.7314234651833, 0.0, 0.0, 0.0, 0.0, 662.6845196109438, 0.0]
['beep', 0.0, 1368.9102374208258, 0.0, 0.0, 0.0, 0.0, 662.7292230998544, 0.0]
['beep', 0.0, 1370.8101356995269, 0.0, 0.0, 0.0, 0.0, 664.1150312560834, 0.0]
['beep', 0.0, 1372.4865165336748, 0.0, 0.0, 0.0, 0.0, 666.5066679128013, 0.0]
['beep', 0.0, 1371.6818537332838, 0.0, 0.0, 0.0, 0.0, 663.578589389156, 0.0]
['beep', 0.0, 1368.2620368316218, 0.0, 0.0, 0.0, 0.0, 661.5445806437232, 0.0]
['beep', 0.0, 1368.6196647429067, 0.0, 0.0, 0.0, 0.0, 663.2433132223265, 0.0]
['beep', 0.0, 1369.6701967323063, 0.0, 0.0, 0.0, 0.0, 664.7185283563767, 0.0]
['beep', 0.0, 1369.513734521119, 0.0, 0.0, 0.0, 0.0, 664.3161969561812, 0.0]
['beep', 0.0, 1368.12792636489, 0.0, 0.0, 0.0, 0.0, 662.5951126331225, 0.0]
['beep', 0.0, 1368.12792636489, 0.0, 0.0, 0.0, 0.0, 662.259836466293, 0.0]
['beep', 0.0, 1368.6196647429067, 0.0, 0.0, 0.0, 0.0, 664.159734744994, 0.0]
['beep', 0.0, 1369.8266589434934, 0.0, 0.0, 0.0, 0.0, 663.8691620670751, 0.0]
['beep', 0.0, 1369.290217076566, 0.0, 0.0, 0.0, 0.0, 664.8973423120192, 0.0]
['beep', 0.0, 1368.2843885760772, 0.0, 0.0, 0.0, 0.0, 664.5397144007343, 0.0]
['beep', 0.0, 1367.6585397313286, 0.0, 0.0, 0.0, 0.0, 662.4833539108461, 0.0]
['beep', 0.0, 1368.0161676426135, 0.0, 0.0, 0.0, 0.0, 661.8575050660975, 0.0]
['beep', 0.0, 1369.1784583542894, 0.0, 0.0, 0.0, 0.0, 664.0032725338069, 0.0]
['beep', 0.0, 1367.6138362424178, 0.0, 0.0, 0.0, 0.0, 664.7855835897427, 0.0]
['beep', 0.0, 1366.675062975295, 0.0, 0.0, 0.0, 0.0, 663.064499266684, 0.0]
['beep', 0.0, 1366.4291937862868, 0.0, 0.0, 0.0, 0.0, 664.4950109118237, 0.0]
['beep', 0.0, 1367.5020775201415, 0.0, 0.0, 0.0, 0.0, 665.1432115010276, 0.0]
['beep', 0.0, 1369.2678653321107, 0.0, 0.0, 0.0, 0.0, 665.7690603457762, 0.0]
['beep', 0.0, 1369.93841766577, 0.0, 0.0, 0.0, 0.0, 665.7690603457762, 0.0]
['beep', 0.0, 1367.1220978644012, 0.0, 0.0, 0.0, 0.0, 664.8302870786533, 0.0]
['beep', 0.0, 1366.6080077419292, 0.0, 0.0, 0.0, 0.0, 665.0538045232064, 0.0]
['beep', 0.0, 1368.0385193870688, 0.0, 0.0, 0.0, 0.0, 664.4279556784577, 0.0]
['beep', 0.0, 1371.0336531440798, 0.0, 0.0, 0.0, 0.0, 666.484316168346, 0.0]
['beep', 0.0, 1370.6983769772503, 0.0, 0.0, 0.0, 0.0, 666.6184266350779, 0.0]
['beep', 0.0, 1367.7702984536052, 0.0, 0.0, 0.0, 0.0, 666.0149295347845, 0.0]
['beep', 0.0, 1365.736289708172, 0.0, 0.0, 0.0, 0.0, 665.5902463901338, 0.0]
['beep', 0.0, 1366.0492141305465, 0.0, 0.0, 0.0, 0.0, 665.7914120902315, 0.0]
['beep', 0.0, 1368.6196647429067, 0.0, 0.0, 0.0, 0.0, 666.3502057016142, 0.0]
['beep', 0.0, 1370.385452554876, 0.0, 0.0, 0.0, 0.0, 666.0596330236951, 0.0]
['beep', 0.0, 1369.7819554545827, 0.0, 0.0, 0.0, 0.0, 664.807935334198, 0.0]
['beep', 0.0, 1368.3067403205325, 0.0, 0.0, 0.0, 0.0, 664.6961766119214, 0.0]
['beep', 0.0, 1368.999644398647, 0.0, 0.0, 0.0, 0.0, 666.5513714017119, 0.0]
['beep', 0.0, 1369.290217076566, 0.0, 0.0, 0.0, 0.0, 669.6582638809996, 0.0]
['beep', 0.0, 1370.0725281325017, 0.0, 0.0, 0.0, 0.0, 668.5183249137789, 0.0]
['beep', 0.0, 1368.1502781093452, 0.0, 0.0, 0.0, 0.0, 664.2714934672706, 0.0]
['beep', 0.0, 1366.9209321643034, 0.0, 0.0, 0.0, 0.0, 662.9303887999522, 0.0]
['beep', 0.0, 1369.1114031209236, 0.0, 0.0, 0.0, 0.0, 664.0256242782622, 0.0]
['beep', 0.0, 1370.094879876957, 0.0, 0.0, 0.0, 0.0, 666.3278539571588, 0.0]
['beep', 0.0, 1368.418499042809, 0.0, 0.0, 0.0, 0.0, 668.1830487469493, 0.0]
['beep', 0.0, 1365.3786617968872, 0.0, 0.0, 0.0, 0.0, 667.2666272242817, 0.0]
['beep', 0.0, 1365.3116065635213, 0.0, 0.0, 0.0, 0.0, 666.3502057016142, 0.0]
['beep', 0.0, 1366.9209321643034, 0.0, 0.0, 0.0, 0.0, 665.7914120902315, 0.0]
['beep', 0.0, 1368.12792636489, 0.0, 0.0, 0.0, 0.0, 667.5124964132901, 0.0]
['beep', 0.0, 1369.4913827766638, 0.0, 0.0, 0.0, 0.0, 667.1325167575499, 0.0]
['beep', 0.0, 1369.2455135876553, 0.0, 0.0, 0.0, 0.0, 667.6689586244772, 0.0]
['beep', 0.0, 1369.7149002212168, 0.0, 0.0, 0.0, 0.0, 668.1159935135834, 0.0]
['beep', 0.0, 1368.999644398647, 0.0, 0.0, 0.0, 0.0, 670.1723540034717, 0.0]
['beep', 0.0, 1370.385452554876, 0.0, 0.0, 0.0, 0.0, 673.1004325271169, 0.0]
['beep', 0.0, 1370.0278246435912, 0.0, 0.0, 0.0, 0.0, 671.2675894817817, 0.0]
['beep', 0.0, 1366.5856559974739, 0.0, 0.0, 0.0, 0.0, 670.2841127257482, 0.0]
['beep', 0.0, 1364.2163710852112, 0.0, 0.0, 0.0, 0.0, 670.4629266813906, 0.0]
['beep', 0.0, 1363.1881908402672, 0.0, 0.0, 0.0, 0.0, 670.6640923814884, 0.0]
['beep', 0.0, 1366.451545530742, 0.0, 0.0, 0.0, 0.0, 670.8652580815861, 0.0]
['beep', 0.0, 1367.2785600755883, 0.0, 0.0, 0.0, 0.0, 668.5406766582342, 0.0]
['beep', 0.0, 1364.9092751633257, 0.0, 0.0, 0.0, 0.0, 668.5183249137789, 0.0]
['beep', 0.0, 1363.5458187515521, 0.0, 0.0, 0.0, 0.0, 669.7700226032762, 0.0]
['beep', 0.0, 1363.478763518186, 0.0, 0.0, 0.0, 0.0, 668.7194906138767, 0.0]
['beep', 0.0, 1364.998682141147, 0.0, 0.0, 0.0, 0.0, 669.8594295810974, 0.0]
['beep', 0.0, 1367.2115048422224, 0.0, 0.0, 0.0, 0.0, 669.6359121365443, 0.0]
['beep', 0.0, 1365.713937963717, 0.0, 0.0, 0.0, 0.0, 668.1383452580387, 0.0]
['beep', 0.0, 1365.9821588971806, 0.0, 0.0, 0.0, 0.0, 667.4007376910135, 0.0]
['beep', 0.0, 1366.3174350640102, 0.0, 0.0, 0.0, 0.0, 669.0100632917957, 0.0]
['beep', 0.0, 1366.4068420418314, 0.0, 0.0, 0.0, 0.0, 669.3676912030807, 0.0]
['beep', 0.0, 1368.0832228759793, 0.0, 0.0, 0.0, 0.0, 667.6019033911114, 0.0]
['beep', 0.0, 1366.6974147197504, 0.0, 0.0, 0.0, 0.0, 667.9371795579409, 0.0]
['beep', 0.0, 1365.3339583079767, 0.0, 0.0, 0.0, 0.0, 667.4007376910135, 0.0]
['beep', 0.0, 1364.6857577187727, 0.0, 0.0, 0.0, 0.0, 669.032415036251, 0.0]
['beep', 0.0, 1365.0880891189681, 0.0, 0.0, 0.0, 0.0, 670.194705747927, 0.0]
['beep', 0.0, 1365.3339583079767, 0.0, 0.0, 0.0, 0.0, 670.6417406370331, 0.0]
['beep', 0.0, 1363.0540803735353, 0.0, 0.0, 0.0, 0.0, 669.7923743477314, 0.0]
['beep', 0.0, 1362.0259001285913, 0.0, 0.0, 0.0, 0.0, 668.0042347913069, 0.0]
['beep', 0.0, 1363.098783862446, 0.0, 0.0, 0.0, 0.0, 668.22775223586, 0.0]
['beep', 0.0, 1364.708109463228, 0.0, 0.0, 0.0, 0.0, 668.5406766582342, 0.0]
['beep', 0.0, 1364.9763303966918, 0.0, 0.0, 0.0, 0.0, 670.3288162146588, 0.0]
['beep', 0.0, 1363.5681704960073, 0.0, 0.0, 0.0, 0.0, 670.6417406370331, 0.0]
['beep', 0.0, 1363.4117082848202, 0.0, 0.0, 0.0, 0.0, 670.1723540034717, 0.0]
['beep', 0.0, 1362.741155951161, 0.0, 0.0, 0.0, 0.0, 670.1723540034717, 0.0]
['beep', 0.0, 1364.1046123629346, 0.0, 0.0, 0.0, 0.0, 671.804031348709, 0.0]
['beep', 0.0, 1364.8869234188705, 0.0, 0.0, 0.0, 0.0, 671.5134586707901, 0.0]
['beep', 0.0, 1363.836391429471, 0.0, 0.0, 0.0, 0.0, 668.8759528250639, 0.0]
['beep', 0.0, 1362.450583273242, 0.0, 0.0, 0.0, 0.0, 670.0605952811951, 0.0]
['beep', 0.0, 1362.9423216512587, 0.0, 0.0, 0.0, 0.0, 672.6310458935554, 0.0]
['beep', 0.0, 1365.3116065635213, 0.0, 0.0, 0.0, 0.0, 673.32394997167, 0.0]
['beep', 0.0, 1364.998682141147, 0.0, 0.0, 0.0, 0.0, 672.6310458935554, 0.0]
['beep', 0.0, 1364.484592018675, 0.0, 0.0, 0.0, 0.0, 672.5192871712788, 0.0]
['beep', 0.0, 1365.0433856300576, 0.0, 0.0, 0.0, 0.0, 671.580513904156, 0.0]
['beep', 0.0, 1364.998682141147, 0.0, 0.0, 0.0, 0.0, 671.9604935598962, 0.0]
['beep', 0.0, 1366.3174350640102, 0.0, 0.0, 0.0, 0.0, 672.3628249600918, 0.0]
['beep', 0.0, 1366.7868216975717, 0.0, 0.0, 0.0, 0.0, 671.8487348376196, 0.0]
['beep', 0.0, 1364.9539786522364, 0.0, 0.0, 0.0, 0.0, 668.2948074692258, 0.0]
['beep', 0.0, 1363.836391429471, 0.0, 0.0, 0.0, 0.0, 668.6300836360555, 0.0]
['beep', 0.0, 1364.4398885297644, 0.0, 0.0, 0.0, 0.0, 670.8429063371309, 0.0]
['beep', 0.0, 1366.2056763417336, 0.0, 0.0, 0.0, 0.0, 672.3628249600918, 0.0]
['beep', 0.0, 1366.6974147197504, 0.0, 0.0, 0.0, 0.0, 671.0217202927734, 0.0]
['beep', 0.0, 1366.1162693639124, 0.0, 0.0, 0.0, 0.0, 669.2112289918934, 0.0]
['beep', 0.0, 1365.0433856300576, 0.0, 0.0, 0.0, 0.0, 668.22775223586, 0.0]
['beep', 0.0, 1365.7586414526274, 0.0, 0.0, 0.0, 0.0, 669.3006359697147, 0.0]
['beep', 0.0, 1367.3679670534095, 0.0, 0.0, 0.0, 0.0, 669.8594295810974, 0.0]
['beep', 0.0, 1367.4350222867754, 0.0, 0.0, 0.0, 0.0, 671.5134586707901, 0.0]
['beep', 0.0, 1368.4632025317196, 0.0, 0.0, 0.0, 0.0, 670.6864441259437, 0.0]
['beep', 0.0, 1366.876228675393, 0.0, 0.0, 0.0, 0.0, 668.9653598028851, 0.0]
['beep', 0.0, 1366.9432839087588, 0.0, 0.0, 0.0, 0.0, 669.9488365589186, 0.0]
['beep', 0.0, 1367.7926501980603, 0.0, 0.0, 0.0, 0.0, 669.680615625455, 0.0]
['beep', 0.0, 1369.4913827766638, 0.0, 0.0, 0.0, 0.0, 670.9546650594074, 0.0]
['beep', 0.0, 1368.2620368316218, 0.0, 0.0, 0.0, 0.0, 670.5299819147566, 0.0]
['beep', 0.0, 1366.1162693639124, 0.0, 0.0, 0.0, 0.0, 668.7418423583321, 0.0]
['beep', 0.0, 1367.7702984536052, 0.0, 0.0, 0.0, 0.0, 671.2005342484158, 0.0]
['beep', 0.0, 1370.5642665105186, 0.0, 0.0, 0.0, 0.0, 671.8934383265303, 0.0]
['beep', 0.0, 1368.5526095095408, 0.0, 0.0, 0.0, 0.0, 671.9828453043515, 0.0]
['beep', 0.0, 1367.6138362424178, 0.0, 0.0, 0.0, 0.0, 670.0158917922845, 0.0]
['beep', 0.0, 1365.356310052432, 0.0, 0.0, 0.0, 0.0, 669.4570981809019, 0.0]
['beep', 0.0, 1367.323263564499, 0.0, 0.0, 0.0, 0.0, 670.7311476148543, 0.0]
['beep', 0.0, 1369.6701967323063, 0.0, 0.0, 0.0, 0.0, 669.9935400478292, 0.0]
['beep', 0.0, 1370.5866182549737, 0.0, 0.0, 0.0, 0.0, 671.5134586707901, 0.0]
['beep', 0.0, 1369.6701967323063, 0.0, 0.0, 0.0, 0.0, 670.0605952811951, 0.0]
['beep', 0.0, 1368.12792636489, 0.0, 0.0, 0.0, 0.0, 669.5241534142677, 0.0]
['beep', 0.0, 1368.2396850871664, 0.0, 0.0, 0.0, 0.0, 670.4629266813906, 0.0]
['beep', 0.0, 1368.6643682318174, 0.0, 0.0, 0.0, 0.0, 672.3628249600918, 0.0]
['beep', 0.0, 1369.357272309932, 0.0, 0.0, 0.0, 0.0, 672.6086941491001, 0.0]
['beep', 0.0, 1368.9102374208258, 0.0, 0.0, 0.0, 0.0, 671.4240516929689, 0.0]
['beep', 0.0, 1368.9772926541916, 0.0, 0.0, 0.0, 0.0, 670.0158917922845, 0.0]
['beep', 0.0, 1369.6925484767614, 0.0, 0.0, 0.0, 0.0, 670.3735197035694, 0.0]
['beep', 0.0, 1370.676025232795, 0.0, 0.0, 0.0, 0.0, 671.066423781684, 0.0]
['beep', 0.0, 1369.7372519656722, 0.0, 0.0, 0.0, 0.0, 674.5309441722566, 0.0]
['beep', 0.0, 1367.904408920337, 0.0, 0.0, 0.0, 0.0, 674.5309441722566, 0.0]
['beep', 0.0, 1366.518600764108, 0.0, 0.0, 0.0, 0.0, 673.0110255492957, 0.0]
['beep', 0.0, 1365.6915862192616, 0.0, 0.0, 0.0, 0.0, 673.0557290382063, 0.0]
['beep', 0.0, 1367.0997461199458, 0.0, 0.0, 0.0, 0.0, 674.1509645165163, 0.0]
['beep', 0.0, 1369.0666996320128, 0.0, 0.0, 0.0, 0.0, 673.32394997167, 0.0]
['beep', 0.0, 1367.7255949646944, 0.0, 0.0, 0.0, 0.0, 671.4240516929689, 0.0]
['beep', 0.0, 1365.9598071527253, 0.0, 0.0, 0.0, 0.0, 670.1052987701057, 0.0]
['beep', 0.0, 1366.742118208661, 0.0, 0.0, 0.0, 0.0, 669.680615625455, 0.0]
['beep', 0.0, 1367.837353686971, 0.0, 0.0, 0.0, 0.0, 670.1723540034717, 0.0]
['beep', 0.0, 1367.2338565866778, 0.0, 0.0, 0.0, 0.0, 672.2287144933599, 0.0]
['beep', 0.0, 1365.6692344748062, 0.0, 0.0, 0.0, 0.0, 673.7039296274102, 0.0]
['beep', 0.0, 1365.7809931970828, 0.0, 0.0, 0.0, 0.0, 672.0499005377175, 0.0]
['beep', 0.0, 1366.7197664642056, 0.0, 0.0, 0.0, 0.0, 672.3628249600918, 0.0]
['beep', 0.0, 1366.9879873976693, 0.0, 0.0, 0.0, 0.0, 672.5863424046448, 0.0]
['beep', 0.0, 1366.8538769309375, 0.0, 0.0, 0.0, 0.0, 671.6252173930666, 0.0]
['beep', 0.0, 1365.713937963717, 0.0, 0.0, 0.0, 0.0, 669.2559324808041, 0.0]
['beep', 0.0, 1365.4457170302533, 0.0, 0.0, 0.0, 0.0, 669.680615625455, 0.0]
['beep', 0.0, 1366.5633042530185, 0.0, 0.0, 0.0, 0.0, 671.9828453043515, 0.0]
['beep', 0.0, 1366.9209321643034, 0.0, 0.0, 0.0, 0.0, 674.2627232387929, 0.0]
['beep', 0.0, 1366.9879873976693, 0.0, 0.0, 0.0, 0.0, 673.1674877604828, 0.0]
['beep', 0.0, 1366.5409525085631, 0.0, 0.0, 0.0, 0.0, 671.6699208819772, 0.0]
['beep', 0.0, 1365.0880891189681, 0.0, 0.0, 0.0, 0.0, 670.5746854036672, 0.0]
['beep', 0.0, 1367.0550426310353, 0.0, 0.0, 0.0, 0.0, 670.6864441259437, 0.0]
['beep', 0.0, 1367.8820571758815, 0.0, 0.0, 0.0, 0.0, 671.9828453043515, 0.0]
['beep', 0.0, 1367.837353686971, 0.0, 0.0, 0.0, 0.0, 671.2452377373264, 0.0]
['beep', 0.0, 1366.0492141305465, 0.0, 0.0, 0.0, 0.0, 671.0440720372286, 0.0]
['beep', 0.0, 1365.2669030746106, 0.0, 0.0, 0.0, 0.0, 671.2005342484158, 0.0]
['beep', 0.0, 1366.6080077419292, 0.0, 0.0, 0.0, 0.0, 672.0946040266281, 0.0]
['beep', 0.0, 1367.837353686971, 0.0, 0.0, 0.0, 0.0, 671.6475691375219, 0.0]
['beep', 0.0, 1369.4019757988426, 0.0, 0.0, 0.0, 0.0, 671.6475691375219, 0.0]
['beep', 0.0, 1367.0550426310353, 0.0, 0.0, 0.0, 0.0, 670.5299819147566, 0.0]
['beep', 0.0, 1366.1833245972782, 0.0, 0.0, 0.0, 0.0, 668.9653598028851, 0.0]
['beep', 0.0, 1366.3397868084655, 0.0, 0.0, 0.0, 0.0, 670.485278425846, 0.0]
['beep', 0.0, 1367.2785600755883, 0.0, 0.0, 0.0, 0.0, 671.4016999485135, 0.0]
['beep', 0.0, 1368.3290920649877, 0.0, 0.0, 0.0, 0.0, 670.8652580815861, 0.0]
['beep', 0.0, 1368.5973129984513, 0.0, 0.0, 0.0, 0.0, 670.2394092368376, 0.0]
['beep', 0.0, 1368.194981598256, 0.0, 0.0, 0.0, 0.0, 669.5241534142677, 0.0]
['beep', 0.0, 1368.3290920649877, 0.0, 0.0, 0.0, 0.0, 670.0829470256505, 0.0]
['beep', 0.0, 1368.5973129984513, 0.0, 0.0, 0.0, 0.0, 671.5581621597007, 0.0]
['beep', 0.0, 1368.3290920649877, 0.0, 0.0, 0.0, 0.0, 672.1169557710833, 0.0]
['beep', 0.0, 1368.485554276175, 0.0, 0.0, 0.0, 0.0, 670.6193888925778, 0.0]
['beep', 0.0, 1367.390318797865, 0.0, 0.0, 0.0, 0.0, 668.8983045695192, 0.0]
['beep', 0.0, 1368.6196647429067, 0.0, 0.0, 0.0, 0.0, 670.485278425846, 0.0]
['beep', 0.0, 1370.5866182549737, 0.0, 0.0, 0.0, 0.0, 671.804031348709, 0.0]
['beep', 0.0, 1371.2795223330884, 0.0, 0.0, 0.0, 0.0, 671.6922726264326, 0.0]
['beep', 0.0, 1371.6371502443733, 0.0, 0.0, 0.0, 0.0, 670.6417406370331, 0.0]
['beep', 0.0, 1368.12792636489, 0.0, 0.0, 0.0, 0.0, 670.2841127257482, 0.0]
['beep', 0.0, 1368.7984786985492, 0.0, 0.0, 0.0, 0.0, 670.9770168038627, 0.0]
['beep', 0.0, 1368.999644398647, 0.0, 0.0, 0.0, 0.0, 673.3686534605806, 0.0]
['beep', 0.0, 1368.5302577650855, 0.0, 0.0, 0.0, 0.0, 672.0051970488068, 0.0]
['beep', 0.0, 1366.228028086189, 0.0, 0.0, 0.0, 0.0, 669.5465051587231, 0.0]
['beep', 0.0, 1365.5351240080745, 0.0, 0.0, 0.0, 0.0, 670.2394092368376, 0.0]
['beep', 0.0, 1367.0550426310353, 0.0, 0.0, 0.0, 0.0, 670.9546650594074, 0.0]
['beep', 0.0, 1368.3067403205325, 0.0, 0.0, 0.0, 0.0, 672.0946040266281, 0.0]
['beep', 0.0, 1367.8597054314264, 0.0, 0.0, 0.0, 0.0, 671.871086582075, 0.0]
['beep', 0.0, 1366.9879873976693, 0.0, 0.0, 0.0, 0.0, 670.1276505145611, 0.0]
['beep', 0.0, 1366.384490297376, 0.0, 0.0, 0.0, 0.0, 668.1830487469493, 0.0]
['beep', 0.0, 1367.2115048422224, 0.0, 0.0, 0.0, 0.0, 668.22775223586, 0.0]
['beep', 0.0, 1367.256208331133, 0.0, 0.0, 0.0, 0.0, 670.1723540034717, 0.0]
['beep', 0.0, 1368.0161676426135, 0.0, 0.0, 0.0, 0.0, 671.5134586707901, 0.0]
['beep', 0.0, 1367.3456153089542, 0.0, 0.0, 0.0, 0.0, 669.8594295810974, 0.0]
['beep', 0.0, 1367.1668013533117, 0.0, 0.0, 0.0, 0.0, 667.9148278134857, 0.0]
['beep', 0.0, 1366.6974147197504, 0.0, 0.0, 0.0, 0.0, 668.1830487469493, 0.0]
['beep', 0.0, 1368.2396850871664, 0.0, 0.0, 0.0, 0.0, 668.8759528250639, 0.0]
['beep', 0.0, 1367.7702984536052, 0.0, 0.0, 0.0, 0.0, 668.7418423583321, 0.0]
['beep', 0.0, 1367.3679670534095, 0.0, 0.0, 0.0, 0.0, 667.1325167575499, 0.0]
['beep', 0.0, 1365.065737374513, 0.0, 0.0, 0.0, 0.0, 664.9420458009298, 0.0]
['beep', 0.0, 1362.8529146734375, 0.0, 0.0, 0.0, 0.0, 665.8137638346868, 0.0]
['beep', 0.0, 1366.2727315750994, 0.0, 0.0, 0.0, 0.0, 667.8477725801197, 0.0]
['beep', 0.0, 1367.8150019425157, 0.0, 0.0, 0.0, 0.0, 666.9313510574522, 0.0]
['beep', 0.0, 1366.7197664642056, 0.0, 0.0, 0.0, 0.0, 666.3725574460694, 0.0]
['beep', 0.0, 1366.228028086189, 0.0, 0.0, 0.0, 0.0, 666.2831504682482, 0.0]
['beep', 0.0, 1366.7197664642056, 0.0, 0.0, 0.0, 0.0, 668.8312493361533, 0.0]
['beep', 0.0, 1367.3009118200437, 0.0, 0.0, 0.0, 0.0, 669.680615625455, 0.0]
['beep', 0.0, 1368.5973129984513, 0.0, 0.0, 0.0, 0.0, 667.2666272242817, 0.0]
['beep', 0.0, 1366.8315251864822, 0.0, 0.0, 0.0, 0.0, 666.260798723793, 0.0]
['beep', 0.0, 1366.2056763417336, 0.0, 0.0, 0.0, 0.0, 665.7020051124102, 0.0]
['beep', 0.0, 1366.6527112308397, 0.0, 0.0, 0.0, 0.0, 665.7020051124102, 0.0]
['beep', 0.0, 1367.1444496088566, 0.0, 0.0, 0.0, 0.0, 667.0431097797286, 0.0]
['beep', 0.0, 1368.351443809443, 0.0, 0.0, 0.0, 0.0, 667.0431097797286, 0.0]
['beep', 0.0, 1366.7644699531163, 0.0, 0.0, 0.0, 0.0, 666.3278539571588, 0.0]
['beep', 0.0, 1366.0492141305465, 0.0, 0.0, 0.0, 0.0, 665.5008394123125, 0.0]
['beep', 0.0, 1367.6585397313286, 0.0, 0.0, 0.0, 0.0, 664.8302870786533, 0.0]
['beep', 0.0, 1369.1114031209236, 0.0, 0.0, 0.0, 0.0, 665.2549702233041, 0.0]
['beep', 0.0, 1369.9160659213146, 0.0, 0.0, 0.0, 0.0, 663.4668306668796, 0.0]
['beep', 0.0, 1368.1055746204347, 0.0, 0.0, 0.0, 0.0, 663.4668306668796, 0.0]
['beep', 0.0, 1367.680891475784, 0.0, 0.0, 0.0, 0.0, 661.097545754617, 0.0]
['beep', 0.0, 1366.160972852823, 0.0, 0.0, 0.0, 0.0, 661.8128015771869, 0.0]
['beep', 0.0, 1367.1220978644012, 0.0, 0.0, 0.0, 0.0, 662.0810225106505, 0.0]
['beep', 0.0, 1369.8490106879487, 0.0, 0.0, 0.0, 0.0, 662.6398161220332, 0.0]
['beep', 0.0, 1367.3679670534095, 0.0, 0.0, 0.0, 0.0, 662.2151329773824, 0.0]
['beep', 0.0, 1367.0103391421246, 0.0, 0.0, 0.0, 0.0, 661.1869527324383, 0.0]
['beep', 0.0, 1369.6925484767614, 0.0, 0.0, 0.0, 0.0, 662.0139672772846, 0.0]
['beep', 0.0, 1367.8820571758815, 0.0, 0.0, 0.0, 0.0, 663.8021068337091, 0.0]
['beep', 0.0, 1369.6701967323063, 0.0, 0.0, 0.0, 0.0, 662.6398161220332, 0.0]
['beep', 0.0, 1370.2513420881442, 0.0, 0.0, 0.0, 0.0, 660.6728626099662, 0.0]
['beep', 0.0, 1371.5700950110072, 0.0, 0.0, 0.0, 0.0, 658.772964331265, 0.0]
['beep', 0.0, 1370.0725281325017, 0.0, 0.0, 0.0, 0.0, 659.644682365022, 0.0]
['beep', 0.0, 1370.1842868547783, 0.0, 0.0, 0.0, 0.0, 660.5387521432343, 0.0]
['beep', 0.0, 1371.6595019888284, 0.0, 0.0, 0.0, 0.0, 661.1646009879829, 0.0]
['beep', 0.0, 1370.8548391884374, 0.0, 0.0, 0.0, 0.0, 660.806973076698, 0.0]
['beep', 0.0, 1369.4019757988426, 0.0, 0.0, 0.0, 0.0, 661.4775254103572, 0.0]
['beep', 0.0, 1370.4748595326973, 0.0, 0.0, 0.0, 0.0, 662.8633335665862, 0.0]
['beep', 0.0, 1369.5360862655743, 0.0, 0.0, 0.0, 0.0, 664.8302870786533, 0.0]
['beep', 0.0, 1371.5700950110072, 0.0, 0.0, 0.0, 0.0, 664.2491417228152, 0.0]
['beep', 0.0, 1369.1784583542894, 0.0, 0.0, 0.0, 0.0, 662.6621678664885, 0.0]
['beep', 0.0, 1365.93745540827, 0.0, 0.0, 0.0, 0.0, 662.3939469330248, 0.0]
['beep', 0.0, 1364.708109463228, 0.0, 0.0, 0.0, 0.0, 663.3103684556924, 0.0]
['beep', 0.0, 1370.6313217438844, 0.0, 0.0, 0.0, 0.0, 665.5455429012231, 0.0]
['beep', 0.0, 1373.0229584006022, 0.0, 0.0, 0.0, 0.0, 662.5727608886673, 0.0]
['beep', 0.0, 1372.3077025780324, 0.0, 0.0, 0.0, 0.0, 661.5222288992678, 0.0]
['beep', 0.0, 1370.1395833658676, 0.0, 0.0, 0.0, 0.0, 661.1869527324383, 0.0]
['beep', 0.0, 1369.5360862655743, 0.0, 0.0, 0.0, 0.0, 662.0363190217399, 0.0]
['beep', 0.0, 1369.0666996320128, 0.0, 0.0, 0.0, 0.0, 662.4833539108461, 0.0]
['beep', 0.0, 1368.194981598256, 0.0, 0.0, 0.0, 0.0, 663.2433132223265, 0.0]
['beep', 0.0, 1369.3349205654765, 0.0, 0.0, 0.0, 0.0, 660.516400398779, 0.0]
['beep', 0.0, 1369.8937141768592, 0.0, 0.0, 0.0, 0.0, 660.4493451654131, 0.0]
['beep', 0.0, 1371.3689293109096, 0.0, 0.0, 0.0, 0.0, 662.3268916996589, 0.0]
['beep', 0.0, 1372.0841851334794, 0.0, 0.0, 0.0, 0.0, 664.8526388231086, 0.0]
['beep', 0.0, 1372.9559031672363, 0.0, 0.0, 0.0, 0.0, 664.3385487006365, 0.0]
['beep', 0.0, 1372.1512403668453, 0.0, 0.0, 0.0, 0.0, 663.9138655559857, 0.0]
['beep', 0.0, 1371.4359845442755, 0.0, 0.0, 0.0, 0.0, 663.1986097334159, 0.0]
['beep', 0.0, 1372.285350833577, 0.0, 0.0, 0.0, 0.0, 665.0761562676616, 0.0]
['beep', 0.0, 1372.575923511496, 0.0, 0.0, 0.0, 0.0, 668.1383452580387, 0.0]
['beep', 0.0, 1373.3135310785212, 0.0, 0.0, 0.0, 0.0, 667.4454411799242, 0.0]
['beep', 0.0, 1371.547743266552, 0.0, 0.0, 0.0, 0.0, 664.7632318452874, 0.0]
['beep', 0.0, 1370.0501763880463, 0.0, 0.0, 0.0, 0.0, 663.4668306668796, 0.0]
['beep', 0.0, 1372.419461300309, 0.0, 0.0, 0.0, 0.0, 663.9138655559857, 0.0]
['beep', 0.0, 1375.1463741238565, 0.0, 0.0, 0.0, 0.0, 663.6232928780666, 0.0]
['beep', 0.0, 1375.0122636571245, 0.0, 0.0, 0.0, 0.0, 664.5844178896449, 0.0]
['beep', 0.0, 1371.0113013996247, 0.0, 0.0, 0.0, 0.0, 664.1373830005388, 0.0]
['beep', 0.0, 1371.9724264112028, 0.0, 0.0, 0.0, 0.0, 664.2044382339046, 0.0]
['beep', 0.0, 1370.4748595326973, 0.0, 0.0, 0.0, 0.0, 666.7078336128991, 0.0]
['beep', 0.0, 1372.7547374671385, 0.0, 0.0, 0.0, 0.0, 668.6077318916001, 0.0]
['beep', 0.0, 1373.5594002675296, 0.0, 0.0, 0.0, 0.0, 668.9430080584298, 0.0]
['beep', 0.0, 1373.6041037564403, 0.0, 0.0, 0.0, 0.0, 667.065461524184, 0.0]
['beep', 0.0, 1371.771260711105, 0.0, 0.0, 0.0, 0.0, 668.4736214248683, 0.0]
['beep', 0.0, 1372.3747578113982, 0.0, 0.0, 0.0, 0.0, 669.0100632917957, 0.0]
['beep', 0.0, 1374.2523043456442, 0.0, 0.0, 0.0, 0.0, 668.6300836360555, 0.0]
['beep', 0.0, 1374.7663944681162, 0.0, 0.0, 0.0, 0.0, 668.0489382802175, 0.0]
['beep', 0.0, 1371.257170588633, 0.0, 0.0, 0.0, 0.0, 670.2841127257482, 0.0]
['beep', 0.0, 1371.0783566329906, 0.0, 0.0, 0.0, 0.0, 669.7476708588208, 0.0]
['beep', 0.0, 1373.6488072453508, 0.0, 0.0, 0.0, 0.0, 666.1043365126058, 0.0]
['beep', 0.0, 1375.0793188904904, 0.0, 0.0, 0.0, 0.0, 667.646606880022, 0.0]
['beep', 0.0, 1372.7770892115939, 0.0, 0.0, 0.0, 0.0, 670.7758511037649, 0.0]
['beep', 0.0, 1369.6925484767614, 0.0, 0.0, 0.0, 0.0, 669.4570981809019, 0.0]
['beep', 0.0, 1371.123060121901, 0.0, 0.0, 0.0, 0.0, 668.2054004914046, 0.0]
['beep', 0.0, 1373.2911793340659, 0.0, 0.0, 0.0, 0.0, 666.6184266350779, 0.0]
['beep', 0.0, 1378.387377069876, 0.0, 0.0, 0.0, 0.0, 666.5513714017119, 0.0]
['beep', 0.0, 1376.643941002362, 0.0, 0.0, 0.0, 0.0, 669.9488365589186, 0.0]
['beep', 0.0, 1378.610894514429, 0.0, 0.0, 0.0, 0.0, 668.2948074692258, 0.0]
['beep', 0.0, 1380.220220115211, 0.0, 0.0, 0.0, 0.0, 670.5523336592119, 0.0]
['beep', 0.0, 1378.1862113697782, 0.0, 0.0, 0.0, 0.0, 673.6815778829549, 0.0]
['beep', 0.0, 1374.967560168214, 0.0, 0.0, 0.0, 0.0, 673.8603918385974, 0.0]
['beep', 0.0, 1371.4359845442755, 0.0, 0.0, 0.0, 0.0, 670.9546650594074, 0.0]
['beep', 0.0, 1371.3912810553647, 0.0, 0.0, 0.0, 0.0, 668.9206563139745, 0.0]
['beep', 0.0, 1372.352406066943, 0.0, 0.0, 0.0, 0.0, 665.031452778751, 0.0]
['beep', 0.0, 1370.9442461662586, 0.0, 0.0, 0.0, 0.0, 666.2831504682482, 0.0]
['beep', 0.0, 1370.4748595326973, 0.0, 0.0, 0.0, 0.0, 670.999368548318, 0.0]
['beep', 0.0, 1373.6264555008956, 0.0, 0.0, 0.0, 0.0, 673.6368743940443, 0.0]
['beep', 0.0, 1373.1794206117893, 0.0, 0.0, 0.0, 0.0, 671.6028656486113, 0.0]
['beep', 0.0, 1371.7042054777392, 0.0, 0.0, 0.0, 0.0, 668.7418423583321, 0.0]
['beep', 0.0, 1372.0394816445687, 0.0, 0.0, 0.0, 0.0, 669.5688569031784, 0.0]
['beep', 0.0, 1367.7926501980603, 0.0, 0.0, 0.0, 0.0, 672.8992668270191, 0.0]
['beep', 0.0, 1373.4476415452532, 0.0, 0.0, 0.0, 0.0, 672.1169557710833, 0.0]
['beep', 0.0, 1374.4981735346526, 0.0, 0.0, 0.0, 0.0, 668.6747871249661, 0.0]
['beep', 0.0, 1371.8606676889262, 0.0, 0.0, 0.0, 0.0, 670.1052987701057, 0.0]
['beep', 0.0, 1370.2289903436888, 0.0, 0.0, 0.0, 0.0, 672.3181214711811, 0.0]
['beep', 0.0, 1367.8597054314264, 0.0, 0.0, 0.0, 0.0, 668.2724557247706, 0.0]
['beep', 0.0, 1372.3971095558536, 0.0, 0.0, 0.0, 0.0, 670.3511679591142, 0.0]
['beep', 0.0, 1374.6099322569291, 0.0, 0.0, 0.0, 0.0, 671.222885992871, 0.0]
['beep', 0.0, 1374.2746560900994, 0.0, 0.0, 0.0, 0.0, 670.0829470256505, 0.0]
['beep', 0.0, 1377.582714269485, 0.0, 0.0, 0.0, 0.0, 670.5076301703012, 0.0]
['beep', 0.0, 1374.7887462125716, 0.0, 0.0, 0.0, 0.0, 666.5290196572566, 0.0]
['beep', 0.0, 1375.8839816908815, 0.0, 0.0, 0.0, 0.0, 668.1830487469493, 0.0]
['beep', 0.0, 1376.6215892579066, 0.0, 0.0, 0.0, 0.0, 668.7641941027873, 0.0]
['beep', 0.0, 1373.2017723562446, 0.0, 0.0, 0.0, 0.0, 667.7136621133878, 0.0]
['beep', 0.0, 1373.738214223172, 0.0, 0.0, 0.0, 0.0, 667.065461524184, 0.0]
['beep', 0.0, 1372.8888479338705, 0.0, 0.0, 0.0, 0.0, 670.0829470256505, 0.0]
['beep', 0.0, 1375.548705524052, 0.0, 0.0, 0.0, 0.0, 670.0158917922845, 0.0]
['beep', 0.0, 1378.1862113697782, 0.0, 0.0, 0.0, 0.0, 669.5912086476337, 0.0]
['beep', 0.0, 1379.5049642926413, 0.0, 0.0, 0.0, 0.0, 668.0712900246727, 0.0]
['beep', 0.0, 1376.800403213549, 0.0, 0.0, 0.0, 0.0, 670.5076301703012, 0.0]
['beep', 0.0, 1381.6507317603507, 0.0, 0.0, 0.0, 0.0, 667.5124964132901, 0.0]
['beep', 0.0, 1380.8907724488704, 0.0, 0.0, 0.0, 0.0, 665.9255225569633, 0.0]
['beep', 0.0, 1376.062795646524, 0.0, 0.0, 0.0, 0.0, 667.6019033911114, 0.0]
['beep', 0.0, 1377.7838799695826, 0.0, 0.0, 0.0, 0.0, 668.6077318916001, 0.0]
['beep', 0.0, 1377.582714269485, 0.0, 0.0, 0.0, 0.0, 672.8769150825639, 0.0]
['beep', 0.0, 1378.0297491585911, 0.0, 0.0, 0.0, 0.0, 671.3122929706923, 0.0]
['beep', 0.0, 1377.0462724025574, 0.0, 0.0, 0.0, 0.0, 672.0946040266281, 0.0]
['beep', 0.0, 1378.8567637034373, 0.0, 0.0, 0.0, 0.0, 670.3064644702035, 0.0]
['beep', 0.0, 1376.3980718133537, 0.0, 0.0, 0.0, 0.0, 668.6747871249661, 0.0]
['beep', 0.0, 1375.1463741238565, 0.0, 0.0, 0.0, 0.0, 668.8536010806085, 0.0]
['beep', 0.0, 1375.1463741238565, 0.0, 0.0, 0.0, 0.0, 673.1451360160275, 0.0]
['beep', 0.0, 1375.6157607574178, 0.0, 0.0, 0.0, 0.0, 677.3919674625358, 0.0]
['beep', 0.0, 1379.3261503369988, 0.0, 0.0, 0.0, 0.0, 676.9002290845191, 0.0]
['beep', 0.0, 1378.7226532367056, 0.0, 0.0, 0.0, 0.0, 666.9537028019074, 0.0]
['beep', 0.0, 1373.4252898007978, 0.0, 0.0, 0.0, 0.0, 670.2170574923823, 0.0]
['beep', 0.0, 1370.0725281325017, 0.0, 0.0, 0.0, 0.0, 673.5251156717677, 0.0]
['beep', 0.0, 1377.94034218077, 0.0, 0.0, 0.0, 0.0, 676.1179180285833, 0.0]
['beep', 0.0, 1377.7168247362167, 0.0, 0.0, 0.0, 0.0, 673.7039296274102, 0.0]
['beep', 0.0, 1373.9393799232698, 0.0, 0.0, 0.0, 0.0, 674.1509645165163, 0.0]
['beep', 0.0, 1373.9170281788145, 0.0, 0.0, 0.0, 0.0, 674.0839092831504, 0.0]
['beep', 0.0, 1372.7994409560492, 0.0, 0.0, 0.0, 0.0, 676.3190837286811, 0.0]
['beep', 0.0, 1375.6157607574178, 0.0, 0.0, 0.0, 0.0, 677.2355052513487, 0.0]
['beep', 0.0, 1374.162897367823, 0.0, 0.0, 0.0, 0.0, 676.9002290845191, 0.0]
['beep', 0.0, 1374.8558014459375, 0.0, 0.0, 0.0, 0.0, 675.0897377836392, 0.0]
['beep', 0.0, 1376.5545340245408, 0.0, 0.0, 0.0, 0.0, 673.4804121828571, 0.0]
['beep', 0.0, 1375.03461540158, 0.0, 0.0, 0.0, 0.0, 672.8098598491979, 0.0]
['beep', 0.0, 1373.1347171228788, 0.0, 0.0, 0.0, 0.0, 674.5532959167118, 0.0]
['beep', 0.0, 1372.5982752559514, 0.0, 0.0, 0.0, 0.0, 674.2850749832481, 0.0]
['beep', 0.0, 1371.5253915220967, 0.0, 0.0, 0.0, 0.0, 675.5367726727453, 0.0]
['beep', 0.0, 1371.1901153552672, 0.0, 0.0, 0.0, 0.0, 676.7884703622426, 0.0]
['beep', 0.0, 1374.2746560900994, 0.0, 0.0, 0.0, 0.0, 676.0508627952174, 0.0]
['beep', 0.0, 1373.6264555008956, 0.0, 0.0, 0.0, 0.0, 676.2520284953151, 0.0]
['beep', 0.0, 1371.9500746667475, 0.0, 0.0, 0.0, 0.0, 675.4697174393795, 0.0]
['beep', 0.0, 1370.094879876957, 0.0, 0.0, 0.0, 0.0, 675.2014965059158, 0.0]
['beep', 0.0, 1371.3465775664542, 0.0, 0.0, 0.0, 0.0, 672.8322115936533, 0.0]
['beep', 0.0, 1372.6876822337726, 0.0, 0.0, 0.0, 0.0, 673.0780807826616, 0.0]
['beep', 0.0, 1371.6818537332838, 0.0, 0.0, 0.0, 0.0, 674.6650546389884, 0.0]
['beep', 0.0, 1370.31839732151, 0.0, 0.0, 0.0, 0.0, 673.0780807826616, 0.0]
['beep', 0.0, 1368.2396850871664, 0.0, 0.0, 0.0, 0.0, 673.9945023053292, 0.0]
['beep', 0.0, 1370.0725281325017, 0.0, 0.0, 0.0, 0.0, 675.5367726727453, 0.0]
['beep', 0.0, 1371.1901153552672, 0.0, 0.0, 0.0, 0.0, 676.1849732619493, 0.0]
['beep', 0.0, 1372.7770892115939, 0.0, 0.0, 0.0, 0.0, 675.2461999948264, 0.0]
['beep', 0.0, 1371.8383159444709, 0.0, 0.0, 0.0, 0.0, 673.4357086939465, 0.0]
['beep', 0.0, 1369.8490106879487, 0.0, 0.0, 0.0, 0.0, 673.6815778829549, 0.0]
['beep', 0.0, 1369.6031414989402, 0.0, 0.0, 0.0, 0.0, 674.7991651057202, 0.0]
['beep', 0.0, 1370.676025232795, 0.0, 0.0, 0.0, 0.0, 672.2287144933599, 0.0]
['beep', 0.0, 1371.41363279982, 0.0, 0.0, 0.0, 0.0, 670.41822319248, 0.0]
['beep', 0.0, 1369.7149002212168, 0.0, 0.0, 0.0, 0.0, 672.9886738048403, 0.0]
['beep', 0.0, 1370.9442461662586, 0.0, 0.0, 0.0, 0.0, 672.8992668270191, 0.0]
['beep', 0.0, 1368.8878856763704, 0.0, 0.0, 0.0, 0.0, 672.2063627489046, 0.0]
['beep', 0.0, 1368.2843885760772, 0.0, 0.0, 0.0, 0.0, 673.6592261384995, 0.0]
['beep', 0.0, 1369.5584380100297, 0.0, 0.0, 0.0, 0.0, 674.486240683346, 0.0]
['beep', 0.0, 1372.1065368779346, 0.0, 0.0, 0.0, 0.0, 673.5921709051337, 0.0]
['beep', 0.0, 1368.4408507872643, 0.0, 0.0, 0.0, 0.0, 672.9439703159297, 0.0]
['beep', 0.0, 1366.6527112308397, 0.0, 0.0, 0.0, 0.0, 670.9770168038627, 0.0]
['beep', 0.0, 1366.3397868084655, 0.0, 0.0, 0.0, 0.0, 671.0887755261392, 0.0]
['beep', 0.0, 1366.3397868084655, 0.0, 0.0, 0.0, 0.0, 673.6145226495889, 0.0]
['beep', 0.0, 1367.0103391421246, 0.0, 0.0, 0.0, 0.0, 672.4298801934576, 0.0]
['beep', 0.0, 1366.7868216975717, 0.0, 0.0, 0.0, 0.0, 670.4629266813906, 0.0]
['beep', 0.0, 1367.0997461199458, 0.0, 0.0, 0.0, 0.0, 671.3346447151476, 0.0]
['beep', 0.0, 1370.1395833658676, 0.0, 0.0, 0.0, 0.0, 672.9663220603851, 0.0]
['beep', 0.0, 1370.4078042993312, 0.0, 0.0, 0.0, 0.0, 673.4804121828571, 0.0]
['beep', 0.0, 1368.6643682318174, 0.0, 0.0, 0.0, 0.0, 670.5299819147566, 0.0]
['beep', 0.0, 1369.7372519656722, 0.0, 0.0, 0.0, 0.0, 666.3725574460694, 0.0]
['beep', 0.0, 1369.290217076566, 0.0, 0.0, 0.0, 0.0, 667.2666272242817, 0.0]
['beep', 0.0, 1368.12792636489, 0.0, 0.0, 0.0, 0.0, 671.5581621597007, 0.0]
['beep', 0.0, 1368.7314234651833, 0.0, 0.0, 0.0, 0.0, 672.5192871712788, 0.0]
['beep', 0.0, 1367.2338565866778, 0.0, 0.0, 0.0, 0.0, 671.4240516929689, 0.0]
['beep', 0.0, 1365.0210338856023, 0.0, 0.0, 0.0, 0.0, 670.3511679591142, 0.0]
['beep', 0.0, 1367.0997461199458, 0.0, 0.0, 0.0, 0.0, 670.3958714480248, 0.0]
['beep', 0.0, 1369.2231618432, 0.0, 0.0, 0.0, 0.0, 670.41822319248, 0.0]
['beep', 0.0, 1370.608969999429, 0.0, 0.0, 0.0, 0.0, 669.7253191143656, 0.0]
['beep', 0.0, 1369.804307199038, 0.0, 0.0, 0.0, 0.0, 669.6359121365443, 0.0]
['beep', 0.0, 1369.3349205654765, 0.0, 0.0, 0.0, 0.0, 669.5241534142677, 0.0]
['beep', 0.0, 1371.6818537332838, 0.0, 0.0, 0.0, 0.0, 669.3676912030807, 0.0]
['beep', 0.0, 1373.4923450341637, 0.0, 0.0, 0.0, 0.0, 671.580513904156, 0.0]
['beep', 0.0, 1372.7770892115939, 0.0, 0.0, 0.0, 0.0, 671.5134586707901, 0.0]
['beep', 0.0, 1372.2629990891219, 0.0, 0.0, 0.0, 0.0, 668.6971388694213, 0.0]
['beep', 0.0, 1369.960769410225, 0.0, 0.0, 0.0, 0.0, 668.1830487469493, 0.0]
['beep', 0.0, 1370.452507788242, 0.0, 0.0, 0.0, 0.0, 667.6913103689326, 0.0]
['beep', 0.0, 1370.7654322106162, 0.0, 0.0, 0.0, 0.0, 667.646606880022, 0.0]
['beep', 0.0, 1370.4748595326973, 0.0, 0.0, 0.0, 0.0, 667.4230894354689, 0.0]
['beep', 0.0, 1370.7654322106162, 0.0, 0.0, 0.0, 0.0, 666.5513714017119, 0.0]
['beep', 0.0, 1372.5535717670407, 0.0, 0.0, 0.0, 0.0, 667.7807173467538, 0.0]
['beep', 0.0, 1373.1570688673341, 0.0, 0.0, 0.0, 0.0, 668.4065661915024, 0.0]
['beep', 0.0, 1370.5866182549737, 0.0, 0.0, 0.0, 0.0, 668.6747871249661, 0.0]
['beep', 0.0, 1372.3300543224877, 0.0, 0.0, 0.0, 0.0, 669.6359121365443, 0.0]
['beep', 0.0, 1372.419461300309, 0.0, 0.0, 0.0, 0.0, 667.9148278134857, 0.0]
['beep', 0.0, 1370.2960455770549, 0.0, 0.0, 0.0, 0.0, 667.7136621133878, 0.0]
['beep', 0.0, 1372.0394816445687, 0.0, 0.0, 0.0, 0.0, 667.3336824576477, 0.0]
['beep', 0.0, 1374.1852491122781, 0.0, 0.0, 0.0, 0.0, 667.6242551355666, 0.0]
['beep', 0.0, 1375.1240223794011, 0.0, 0.0, 0.0, 0.0, 667.6689586244772, 0.0]
['beep', 0.0, 1373.4923450341637, 0.0, 0.0, 0.0, 0.0, 668.160697002494, 0.0]
['beep', 0.0, 1371.5700950110072, 0.0, 0.0, 0.0, 0.0, 667.1101650130946, 0.0]
['beep', 0.0, 1372.3077025780324, 0.0, 0.0, 0.0, 0.0, 664.3161969561812, 0.0]
['beep', 0.0, 1371.6818537332838, 0.0, 0.0, 0.0, 0.0, 667.4901446688348, 0.0]
['beep', 0.0, 1371.1901153552672, 0.0, 0.0, 0.0, 0.0, 669.5688569031784, 0.0]
['beep', 0.0, 1373.2688275896105, 0.0, 0.0, 0.0, 0.0, 668.1830487469493, 0.0]
['beep', 0.0, 1372.5535717670407, 0.0, 0.0, 0.0, 0.0, 665.8137638346868, 0.0]
['beep', 0.0, 1372.0841851334794, 0.0, 0.0, 0.0, 0.0, 664.9420458009298, 0.0]
['beep', 0.0, 1370.31839732151, 0.0, 0.0, 0.0, 0.0, 667.1772202464605, 0.0]
['beep', 0.0, 1370.9889496551693, 0.0, 0.0, 0.0, 0.0, 667.5571999022008, 0.0]
['beep', 0.0, 1371.3465775664542, 0.0, 0.0, 0.0, 0.0, 666.6631301239885, 0.0]
['beep', 0.0, 1371.3912810553647, 0.0, 0.0, 0.0, 0.0, 664.8973423120192, 0.0]
['beep', 0.0, 1370.4748595326973, 0.0, 0.0, 0.0, 0.0, 665.679653367955, 0.0]
['beep', 0.0, 1369.0666996320128, 0.0, 0.0, 0.0, 0.0, 669.2335807363488, 0.0]
['beep', 0.0, 1370.899542677348, 0.0, 0.0, 0.0, 0.0, 668.160697002494, 0.0]
['beep', 0.0, 1371.2348188441777, 0.0, 0.0, 0.0, 0.0, 666.0596330236951, 0.0]
['beep', 0.0, 1369.4690310322085, 0.0, 0.0, 0.0, 0.0, 663.7574033447985, 0.0]
['beep', 0.0, 1368.999644398647, 0.0, 0.0, 0.0, 0.0, 664.6291213785555, 0.0]
['beep', 0.0, 1370.2736938325995, 0.0, 0.0, 0.0, 0.0, 666.8866475685415, 0.0]
['beep', 0.0, 1371.7936124555604, 0.0, 0.0, 0.0, 0.0, 664.9420458009298, 0.0]
['beep', 0.0, 1369.357272309932, 0.0, 0.0, 0.0, 0.0, 665.2549702233041, 0.0]
['beep', 0.0, 1368.9325891652811, 0.0, 0.0, 0.0, 0.0, 666.3278539571588, 0.0]
['beep', 0.0, 1367.5691327535073, 0.0, 0.0, 0.0, 0.0, 665.7467086013208, 0.0]
['beep', 0.0, 1369.2231618432, 0.0, 0.0, 0.0, 0.0, 666.0596330236951, 0.0]
['beep', 0.0, 1369.513734521119, 0.0, 0.0, 0.0, 0.0, 664.9196940564746, 0.0]
['beep', 0.0, 1367.4573740312308, 0.0, 0.0, 0.0, 0.0, 664.3609004450918, 0.0]
['beep', 0.0, 1367.1668013533117, 0.0, 0.0, 0.0, 0.0, 663.5338859002454, 0.0]
['beep', 0.0, 1367.5914844979627, 0.0, 0.0, 0.0, 0.0, 663.0421475222287, 0.0]
['beep', 0.0, 1367.9938158981581, 0.0, 0.0, 0.0, 0.0, 664.0926795116281, 0.0]
['beep', 0.0, 1368.7984786985492, 0.0, 0.0, 0.0, 0.0, 663.422127177969, 0.0]
['beep', 0.0, 1369.513734521119, 0.0, 0.0, 0.0, 0.0, 661.678691110455, 0.0]
['beep', 0.0, 1368.2843885760772, 0.0, 0.0, 0.0, 0.0, 661.097545754617, 0.0]
['beep', 0.0, 1368.351443809443, 0.0, 0.0, 0.0, 0.0, 662.1480777440164, 0.0]
['beep', 0.0, 1369.3349205654765, 0.0, 0.0, 0.0, 0.0, 662.3268916996589, 0.0]
['beep', 0.0, 1370.1842868547783, 0.0, 0.0, 0.0, 0.0, 662.3715951885695, 0.0]
['beep', 0.0, 1369.7819554545827, 0.0, 0.0, 0.0, 0.0, 661.4104701769913, 0.0]
['beep', 0.0, 1368.2396850871664, 0.0, 0.0, 0.0, 0.0, 659.9576067873963, 0.0]
['beep', 0.0, 1368.1502781093452, 0.0, 0.0, 0.0, 0.0, 660.2481794653153, 0.0]
['beep', 0.0, 1368.2620368316218, 0.0, 0.0, 0.0, 0.0, 660.5834556321449, 0.0]
['beep', 0.0, 1370.2960455770549, 0.0, 0.0, 0.0, 0.0, 659.6223306205667, 0.0]
['beep', 0.0, 1370.966597910714, 0.0, 0.0, 0.0, 0.0, 659.2870544537371, 0.0]
['beep', 0.0, 1369.6031414989402, 0.0, 0.0, 0.0, 0.0, 659.1752957314606, 0.0]
['beep', 0.0, 1368.5079060206301, 0.0, 0.0, 0.0, 0.0, 659.3988131760136, 0.0]
['beep', 0.0, 1368.642016487362, 0.0, 0.0, 0.0, 0.0, 659.8458480651198, 0.0]
['beep', 0.0, 1370.0054728991358, 0.0, 0.0, 0.0, 0.0, 659.1305922425499, 0.0]
['beep', 0.0, 1370.2513420881442, 0.0, 0.0, 0.0, 0.0, 657.6106736195891, 0.0]
['beep', 0.0, 1369.7372519656722, 0.0, 0.0, 0.0, 0.0, 656.5601416301896, 0.0]
['beep', 0.0, 1368.3961472983538, 0.0, 0.0, 0.0, 0.0, 657.0071765192959, 0.0]
['beep', 0.0, 1368.6196647429067, 0.0, 0.0, 0.0, 0.0, 657.4765631528572, 0.0]
['beep', 0.0, 1369.5584380100297, 0.0, 0.0, 0.0, 0.0, 657.1189352415723, 0.0]
['beep', 0.0, 1369.0890513764682, 0.0, 0.0, 0.0, 0.0, 656.9401212859299, 0.0]
['beep', 0.0, 1368.2843885760772, 0.0, 0.0, 0.0, 0.0, 655.8225340631645, 0.0]
['beep', 0.0, 1368.8208304430045, 0.0, 0.0, 0.0, 0.0, 655.8001823187092, 0.0]
['beep', 0.0, 1368.2843885760772, 0.0, 0.0, 0.0, 0.0, 657.8788945530528, 0.0]
['beep', 0.0, 1368.418499042809, 0.0, 0.0, 0.0, 0.0, 657.7224323418657, 0.0]
['beep', 0.0, 1367.9267606647923, 0.0, 0.0, 0.0, 0.0, 658.549446886712, 0.0]
['beep', 0.0, 1365.9598071527253, 0.0, 0.0, 0.0, 0.0, 657.454211408402, 0.0]
['beep', 0.0, 1365.8256966859933, 0.0, 0.0, 0.0, 0.0, 655.710775340888, 0.0]
['beep', 0.0, 1366.4738972751973, 0.0, 0.0, 0.0, 0.0, 657.5212666417679, 0.0]
['beep', 0.0, 1368.1726298538006, 0.0, 0.0, 0.0, 0.0, 658.5717986311673, 0.0]
['beep', 0.0, 1368.2843885760772, 0.0, 0.0, 0.0, 0.0, 656.7166038413768, 0.0]
['beep', 0.0, 1365.1998478412447, 0.0, 0.0, 0.0, 0.0, 656.6719003524662, 0.0]
['beep', 0.0, 1365.1551443523342, 0.0, 0.0, 0.0, 0.0, 656.3366241856365, 0.0]
['beep', 0.0, 1367.0103391421246, 0.0, 0.0, 0.0, 0.0, 656.6048451191002, 0.0]
['beep', 0.0, 1366.742118208661, 0.0, 0.0, 0.0, 0.0, 657.7224323418657, 0.0]
['beep', 0.0, 1364.775164696594, 0.0, 0.0, 0.0, 0.0, 657.3648044305808, 0.0]
['beep', 0.0, 1365.4680687747084, 0.0, 0.0, 0.0, 0.0, 656.1801619744494, 0.0]
['beep', 0.0, 1366.4962490196526, 0.0, 0.0, 0.0, 0.0, 656.1354584855388, 0.0]
['beep', 0.0, 1368.6196647429067, 0.0, 0.0, 0.0, 0.0, 657.7224323418657, 0.0]
['beep', 0.0, 1370.2960455770549, 0.0, 0.0, 0.0, 0.0, 659.0411852647287, 0.0]
['beep', 0.0, 1366.898580419848, 0.0, 0.0, 0.0, 0.0, 658.772964331265, 0.0]
['beep', 0.0, 1366.876228675393, 0.0, 0.0, 0.0, 0.0, 656.8283625636534, 0.0]
['beep', 0.0, 1367.546781009052, 0.0, 0.0, 0.0, 0.0, 656.2919206967259, 0.0]
['beep', 0.0, 1369.0443478875575, 0.0, 0.0, 0.0, 0.0, 656.0460515077176, 0.0]
['beep', 0.0, 1369.804307199038, 0.0, 0.0, 0.0, 0.0, 655.7554788297986, 0.0]
['beep', 0.0, 1370.0278246435912, 0.0, 0.0, 0.0, 0.0, 657.0742317526617, 0.0]
['beep', 0.0, 1372.1959438557558, 0.0, 0.0, 0.0, 0.0, 656.7166038413768, 0.0]
['beep', 0.0, 1375.1687258683116, 0.0, 0.0, 0.0, 0.0, 657.2753974527595, 0.0]
['beep', 0.0, 1374.6099322569291, 0.0, 0.0, 0.0, 0.0, 659.4435166649242, 0.0]
['beep', 0.0, 1374.4534700457418, 0.0, 0.0, 0.0, 0.0, 660.8963800545192, 0.0]
['beep', 0.0, 1374.4311183012867, 0.0, 0.0, 0.0, 0.0, 660.002310276307, 0.0]
['beep', 0.0, 1371.5700950110072, 0.0, 0.0, 0.0, 0.0, 659.1082404980947, 0.0]
['beep', 0.0, 1369.9831211546805, 0.0, 0.0, 0.0, 0.0, 659.9576067873963, 0.0]
['beep', 0.0, 1369.357272309932, 0.0, 0.0, 0.0, 0.0, 659.7564410872985, 0.0]
['beep', 0.0, 1368.0161676426135, 0.0, 0.0, 0.0, 0.0, 659.3764614315584, 0.0]
['beep', 0.0, 1367.2338565866778, 0.0, 0.0, 0.0, 0.0, 658.1471154865164, 0.0]
['beep', 0.0, 1366.7644699531163, 0.0, 0.0, 0.0, 0.0, 656.9848247748405, 0.0]
['beep', 0.0, 1366.8315251864822, 0.0, 0.0, 0.0, 0.0, 655.8448858076198, 0.0]
['beep', 0.0, 1367.2338565866778, 0.0, 0.0, 0.0, 0.0, 658.2141707198824, 0.0]
['beep', 0.0, 1367.3456153089542, 0.0, 0.0, 0.0, 0.0, 658.1694672309718, 0.0]
['beep', 0.0, 1365.6021792414404, 0.0, 0.0, 0.0, 0.0, 657.8788945530528, 0.0]
['beep', 0.0, 1366.7197664642056, 0.0, 0.0, 0.0, 0.0, 656.0907549966282, 0.0]
['beep', 0.0, 1366.451545530742, 0.0, 0.0, 0.0, 0.0, 655.7554788297986, 0.0]
['beep', 0.0, 1367.2338565866778, 0.0, 0.0, 0.0, 0.0, 658.7282608423544, 0.0]
['beep', 0.0, 1367.5020775201415, 0.0, 0.0, 0.0, 0.0, 659.935255042941, 0.0]
['beep', 0.0, 1368.418499042809, 0.0, 0.0, 0.0, 0.0, 658.8623713090863, 0.0]
['beep', 0.0, 1367.6138362424178, 0.0, 0.0, 0.0, 0.0, 656.2695689522707, 0.0]
['beep', 0.0, 1367.2785600755883, 0.0, 0.0, 0.0, 0.0, 656.1578102299941, 0.0]
['beep', 0.0, 1369.1114031209236, 0.0, 0.0, 0.0, 0.0, 659.5552753872008, 0.0]
['beep', 0.0, 1369.5584380100297, 0.0, 0.0, 0.0, 0.0, 659.2423509648265, 0.0]
['beep', 0.0, 1367.2785600755883, 0.0, 0.0, 0.0, 0.0, 656.6719003524662, 0.0]
['beep', 0.0, 1366.3174350640102, 0.0, 0.0, 0.0, 0.0, 656.3366241856365, 0.0]
['beep', 0.0, 1366.4068420418314, 0.0, 0.0, 0.0, 0.0, 657.6330253640444, 0.0]
['beep', 0.0, 1366.2056763417336, 0.0, 0.0, 0.0, 0.0, 657.2306939638489, 0.0]
['beep', 0.0, 1367.0997461199458, 0.0, 0.0, 0.0, 0.0, 658.9294265424522, 0.0]
['beep', 0.0, 1366.8538769309375, 0.0, 0.0, 0.0, 0.0, 658.5717986311673, 0.0]
['beep', 0.0, 1366.3174350640102, 0.0, 0.0, 0.0, 0.0, 658.7506125868098, 0.0]
['beep', 0.0, 1365.870400174904, 0.0, 0.0, 0.0, 0.0, 656.9624730303852, 0.0]
['beep', 0.0, 1366.3174350640102, 0.0, 0.0, 0.0, 0.0, 658.03535676424, 0.0]
['beep', 0.0, 1368.12792636489, 0.0, 0.0, 0.0, 0.0, 658.2141707198824, 0.0]
['beep', 0.0, 1366.2056763417336, 0.0, 0.0, 0.0, 0.0, 658.2365224643377, 0.0]
['beep', 0.0, 1364.4398885297644, 0.0, 0.0, 0.0, 0.0, 657.8788945530528, 0.0]
['beep', 0.0, 1365.6692344748062, 0.0, 0.0, 0.0, 0.0, 657.7894875752315, 0.0]
['beep', 0.0, 1366.675062975295, 0.0, 0.0, 0.0, 0.0, 659.1752957314606, 0.0]
['beep', 0.0, 1366.2056763417336, 0.0, 0.0, 0.0, 0.0, 659.1082404980947, 0.0]
['beep', 0.0, 1365.6245309858957, 0.0, 0.0, 0.0, 0.0, 656.873066052564, 0.0]
['beep', 0.0, 1364.8869234188705, 0.0, 0.0, 0.0, 0.0, 656.582493374645, 0.0]
['beep', 0.0, 1364.3057780630324, 0.0, 0.0, 0.0, 0.0, 657.387156175036, 0.0]
['beep', 0.0, 1363.8140396850158, 0.0, 0.0, 0.0, 0.0, 657.677728852955, 0.0]
['beep', 0.0, 1365.8927519193594, 0.0, 0.0, 0.0, 0.0, 657.9012462975081, 0.0]
['beep', 0.0, 1366.3397868084655, 0.0, 0.0, 0.0, 0.0, 658.5717986311673, 0.0]
['beep', 0.0, 1364.3504815519432, 0.0, 0.0, 0.0, 0.0, 658.0577085086952, 0.0]
['beep', 0.0, 1364.6634059743174, 0.0, 0.0, 0.0, 0.0, 657.6553771084997, 0.0]
['beep', 0.0, 1366.6303594863844, 0.0, 0.0, 0.0, 0.0, 657.4318596639466, 0.0]
['beep', 0.0, 1367.2785600755883, 0.0, 0.0, 0.0, 0.0, 657.5212666417679, 0.0]
['beep', 0.0, 1366.675062975295, 0.0, 0.0, 0.0, 0.0, 658.4600399088907, 0.0]
['beep', 0.0, 1365.6021792414404, 0.0, 0.0, 0.0, 0.0, 656.2695689522707, 0.0]
['beep', 0.0, 1365.9151036638145, 0.0, 0.0, 0.0, 0.0, 656.515438141279, 0.0]
['beep', 0.0, 1365.2221995857, 0.0, 0.0, 0.0, 0.0, 657.3201009416701, 0.0]
['beep', 0.0, 1365.4904205191638, 0.0, 0.0, 0.0, 0.0, 656.582493374645, 0.0]
['beep', 0.0, 1365.1998478412447, 0.0, 0.0, 0.0, 0.0, 656.873066052564, 0.0]
['beep', 0.0, 1364.708109463228, 0.0, 0.0, 0.0, 0.0, 656.0684032521729, 0.0]
['beep', 0.0, 1364.3057780630324, 0.0, 0.0, 0.0, 0.0, 656.0236997632622, 0.0]
['beep', 0.0, 1364.8645716744152, 0.0, 0.0, 0.0, 0.0, 658.3259294421589, 0.0]
['beep', 0.0, 1364.641054229862, 0.0, 0.0, 0.0, 0.0, 659.1305922425499, 0.0]
['beep', 0.0, 1365.289254819066, 0.0, 0.0, 0.0, 0.0, 658.0800602531506, 0.0]
['beep', 0.0, 1365.0433856300576, 0.0, 0.0, 0.0, 0.0, 656.7613073302874, 0.0]
['beep', 0.0, 1364.5292955075856, 0.0, 0.0, 0.0, 0.0, 655.4872578963349, 0.0]
['beep', 0.0, 1364.641054229862, 0.0, 0.0, 0.0, 0.0, 658.1247637420612, 0.0]
['beep', 0.0, 1365.8256966859933, 0.0, 0.0, 0.0, 0.0, 659.354109687103, 0.0]
['beep', 0.0, 1366.451545530742, 0.0, 0.0, 0.0, 0.0, 657.454211408402, 0.0]
['beep', 0.0, 1364.3728332963983, 0.0, 0.0, 0.0, 0.0, 657.0071765192959, 0.0]
['beep', 0.0, 1363.970501896203, 0.0, 0.0, 0.0, 0.0, 655.4649061518796, 0.0]
['beep', 0.0, 1364.3057780630324, 0.0, 0.0, 0.0, 0.0, 655.5990166186115, 0.0]
['beep', 0.0, 1364.484592018675, 0.0, 0.0, 0.0, 0.0, 656.4260311634578, 0.0]
['beep', 0.0, 1364.8869234188705, 0.0, 0.0, 0.0, 0.0, 654.3473189291143, 0.0]
['beep', 0.0, 1364.0375571295688, 0.0, 0.0, 0.0, 0.0, 653.6991183399103, 0.0]
['beep', 0.0, 1364.775164696594, 0.0, 0.0, 0.0, 0.0, 655.0402230072287, 0.0]
['beep', 0.0, 1365.3786617968872, 0.0, 0.0, 0.0, 0.0, 657.0071765192959, 0.0]
['beep', 0.0, 1366.451545530742, 0.0, 0.0, 0.0, 0.0, 656.4930863968237, 0.0]
['beep', 0.0, 1366.228028086189, 0.0, 0.0, 0.0, 0.0, 654.9284642849523, 0.0]
['beep', 0.0, 1366.7197664642056, 0.0, 0.0, 0.0, 0.0, 653.8779322955528, 0.0]
['beep', 0.0, 1365.870400174904, 0.0, 0.0, 0.0, 0.0, 656.3142724411813, 0.0]
['beep', 0.0, 1365.6692344748062, 0.0, 0.0, 0.0, 0.0, 658.5270951422567, 0.0]
['beep', 0.0, 1366.4962490196526, 0.0, 0.0, 0.0, 0.0, 658.5270951422567, 0.0]
['beep', 0.0, 1366.0715658750019, 0.0, 0.0, 0.0, 0.0, 657.5659701306785, 0.0]
['beep', 0.0, 1364.1940193407559, 0.0, 0.0, 0.0, 0.0, 655.7554788297986, 0.0]
['beep', 0.0, 1364.4622402742195, 0.0, 0.0, 0.0, 0.0, 653.743821828821, 0.0]
['beep', 0.0, 1366.2056763417336, 0.0, 0.0, 0.0, 0.0, 656.4483829079131, 0.0]
['beep', 0.0, 1367.2115048422224, 0.0, 0.0, 0.0, 0.0, 658.6165021200779, 0.0]
['beep', 0.0, 1368.7537752096387, 0.0, 0.0, 0.0, 0.0, 657.5436183862232, 0.0]
['beep', 0.0, 1368.6867199762726, 0.0, 0.0, 0.0, 0.0, 654.8167055626757, 0.0]
['beep', 0.0, 1366.8315251864822, 0.0, 0.0, 0.0, 0.0, 655.0625747516841, 0.0]
['beep', 0.0, 1366.898580419848, 0.0, 0.0, 0.0, 0.0, 657.5659701306785, 0.0]
['beep', 0.0, 1368.5079060206301, 0.0, 0.0, 0.0, 0.0, 658.6835573534438, 0.0]
['beep', 0.0, 1368.6867199762726, 0.0, 0.0, 0.0, 0.0, 655.934292785441, 0.0]
['beep', 0.0, 1367.837353686971, 0.0, 0.0, 0.0, 0.0, 654.4367259069355, 0.0]
['beep', 0.0, 1367.0103391421246, 0.0, 0.0, 0.0, 0.0, 657.3201009416701, 0.0]
['beep', 0.0, 1368.12792636489, 0.0, 0.0, 0.0, 0.0, 656.6495486080108, 0.0]
['beep', 0.0, 1369.513734521119, 0.0, 0.0, 0.0, 0.0, 658.03535676424, 0.0]
['beep', 0.0, 1369.513734521119, 0.0, 0.0, 0.0, 0.0, 657.5659701306785, 0.0]
['beep', 0.0, 1369.960769410225, 0.0, 0.0, 0.0, 0.0, 655.4425544074243, 0.0]
['beep', 0.0, 1368.4632025317196, 0.0, 0.0, 0.0, 0.0, 655.2190369628712, 0.0]
['beep', 0.0, 1369.7372519656722, 0.0, 0.0, 0.0, 0.0, 655.934292785441, 0.0]
['beep', 0.0, 1369.9160659213146, 0.0, 0.0, 0.0, 0.0, 655.934292785441, 0.0]
['beep', 0.0, 1370.161935110323, 0.0, 0.0, 0.0, 0.0, 655.4425544074243, 0.0]
['beep', 0.0, 1369.5584380100297, 0.0, 0.0, 0.0, 0.0, 657.0071765192959, 0.0]
['beep', 0.0, 1368.9549409097363, 0.0, 0.0, 0.0, 0.0, 657.5883218751338, 0.0]
['beep', 0.0, 1368.9772926541916, 0.0, 0.0, 0.0, 0.0, 657.9459497864187, 0.0]
['beep', 0.0, 1368.8208304430045, 0.0, 0.0, 0.0, 0.0, 656.6942520969214, 0.0]
['beep', 0.0, 1368.5526095095408, 0.0, 0.0, 0.0, 0.0, 655.4872578963349, 0.0]
['beep', 0.0, 1367.390318797865, 0.0, 0.0, 0.0, 0.0, 655.5096096407902, 0.0]
['beep', 0.0, 1367.3456153089542, 0.0, 0.0, 0.0, 0.0, 654.9955195183181, 0.0]
['beep', 0.0, 1369.1114031209236, 0.0, 0.0, 0.0, 0.0, 657.6106736195891, 0.0]
['beep', 0.0, 1370.2513420881442, 0.0, 0.0, 0.0, 0.0, 658.0130050197846, 0.0]
['beep', 0.0, 1369.6701967323063, 0.0, 0.0, 0.0, 0.0, 657.1412869860277, 0.0]
['beep', 0.0, 1368.3290920649877, 0.0, 0.0, 0.0, 0.0, 657.6553771084997, 0.0]
['beep', 0.0, 1368.418499042809, 0.0, 0.0, 0.0, 0.0, 657.0071765192959, 0.0]
['beep', 0.0, 1369.7596037101275, 0.0, 0.0, 0.0, 0.0, 658.4376881644355, 0.0]
['beep', 0.0, 1369.4690310322085, 0.0, 0.0, 0.0, 0.0, 660.1811242319494, 0.0]
['beep', 0.0, 1369.290217076566, 0.0, 0.0, 0.0, 0.0, 657.3424526861254, 0.0]
['beep', 0.0, 1368.6643682318174, 0.0, 0.0, 0.0, 0.0, 655.9789962743516, 0.0]
['beep', 0.0, 1368.12792636489, 0.0, 0.0, 0.0, 0.0, 656.6719003524662, 0.0]
['beep', 0.0, 1369.6031414989402, 0.0, 0.0, 0.0, 0.0, 657.387156175036, 0.0]
['beep', 0.0, 1370.161935110323, 0.0, 0.0, 0.0, 0.0, 657.7894875752315, 0.0]
['beep', 0.0, 1369.6701967323063, 0.0, 0.0, 0.0, 0.0, 657.5436183862232, 0.0]
['beep', 0.0, 1368.6643682318174, 0.0, 0.0, 0.0, 0.0, 656.8954177970193, 0.0]
['beep', 0.0, 1369.804307199038, 0.0, 0.0, 0.0, 0.0, 654.9955195183181, 0.0]
['beep', 0.0, 1370.743080466161, 0.0, 0.0, 0.0, 0.0, 655.4872578963349, 0.0]
['beep', 0.0, 1372.0394816445687, 0.0, 0.0, 0.0, 0.0, 656.1801619744494, 0.0]
['beep', 0.0, 1371.0783566329906, 0.0, 0.0, 0.0, 0.0, 654.0567462511952, 0.0]
['beep', 0.0, 1370.4078042993312, 0.0, 0.0, 0.0, 0.0, 653.5203043842679, 0.0]
['beep', 0.0, 1369.8713624324039, 0.0, 0.0, 0.0, 0.0, 656.2025137189047, 0.0]
['beep', 0.0, 1370.7654322106162, 0.0, 0.0, 0.0, 0.0, 657.3201009416701, 0.0]
['beep', 0.0, 1372.12888862239, 0.0, 0.0, 0.0, 0.0, 656.4260311634578, 0.0]
['beep', 0.0, 1372.8217927005044, 0.0, 0.0, 0.0, 0.0, 655.8895892965304, 0.0]
['beep', 0.0, 1372.1959438557558, 0.0, 0.0, 0.0, 0.0, 654.9955195183181, 0.0]
['beep', 0.0, 1371.0783566329906, 0.0, 0.0, 0.0, 0.0, 655.9789962743516, 0.0]
['beep', 0.0, 1370.9218944218035, 0.0, 0.0, 0.0, 0.0, 657.7894875752315, 0.0]
['beep', 0.0, 1371.5700950110072, 0.0, 0.0, 0.0, 0.0, 657.163638730483, 0.0]
['beep', 0.0, 1372.3077025780324, 0.0, 0.0, 0.0, 0.0, 656.4707346523684, 0.0]
['beep', 0.0, 1371.8606676889262, 0.0, 0.0, 0.0, 0.0, 654.9955195183181, 0.0]
['beep', 0.0, 1370.9889496551693, 0.0, 0.0, 0.0, 0.0, 654.7049468403992, 0.0]
['beep', 0.0, 1371.123060121901, 0.0, 0.0, 0.0, 0.0, 656.1578102299941, 0.0]
['beep', 0.0, 1370.3407490659654, 0.0, 0.0, 0.0, 0.0, 656.1131067410835, 0.0]
['beep', 0.0, 1369.513734521119, 0.0, 0.0, 0.0, 0.0, 655.4425544074243, 0.0]
['beep', 0.0, 1369.8937141768592, 0.0, 0.0, 0.0, 0.0, 654.5708363736674, 0.0]
['beep', 0.0, 1370.452507788242, 0.0, 0.0, 0.0, 0.0, 654.5931881181226, 0.0]
['beep', 0.0, 1372.866496189415, 0.0, 0.0, 0.0, 0.0, 654.4143741624802, 0.0]
['beep', 0.0, 1372.5312200225856, 0.0, 0.0, 0.0, 0.0, 654.6602433514886, 0.0]
['beep', 0.0, 1372.1065368779346, 0.0, 0.0, 0.0, 0.0, 654.1014497401059, 0.0]
['beep', 0.0, 1371.1677636108118, 0.0, 0.0, 0.0, 0.0, 654.615539862578, 0.0]
['beep', 0.0, 1370.5642665105186, 0.0, 0.0, 0.0, 0.0, 655.4425544074243, 0.0]
['beep', 0.0, 1371.2124670997223, 0.0, 0.0, 0.0, 0.0, 654.9061125404969, 0.0]
['beep', 0.0, 1372.4418130447643, 0.0, 0.0, 0.0, 0.0, 656.5377898857344, 0.0]
['beep', 0.0, 1373.0229584006022, 0.0, 0.0, 0.0, 0.0, 655.2190369628712, 0.0]
['beep', 0.0, 1373.5370485230744, 0.0, 0.0, 0.0, 0.0, 653.2073799618936, 0.0]
['beep', 0.0, 1374.3640630679206, 0.0, 0.0, 0.0, 0.0, 655.934292785441, 0.0]
['beep', 0.0, 1374.8110979570267, 0.0, 0.0, 0.0, 0.0, 658.3259294421589, 0.0]
['beep', 0.0, 1374.7216909792055, 0.0, 0.0, 0.0, 0.0, 657.7894875752315, 0.0]
['beep', 0.0, 1374.2299526011889, 0.0, 0.0, 0.0, 0.0, 656.8283625636534, 0.0]
['beep', 0.0, 1373.3135310785212, 0.0, 0.0, 0.0, 0.0, 656.4260311634578, 0.0]
['beep', 0.0, 1373.8946764343593, 0.0, 0.0, 0.0, 0.0, 655.2637404517818, 0.0]
['beep', 0.0, 1374.6993392347504, 0.0, 0.0, 0.0, 0.0, 655.2860921962372, 0.0]
['beep', 0.0, 1374.386414812376, 0.0, 0.0, 0.0, 0.0, 655.3978509185137, 0.0]
['beep', 0.0, 1375.2134293572224, 0.0, 0.0, 0.0, 0.0, 655.2190369628712, 0.0]
['beep', 0.0, 1373.805269456538, 0.0, 0.0, 0.0, 0.0, 652.1791997169495, 0.0]
['beep', 0.0, 1373.4699932897083, 0.0, 0.0, 0.0, 0.0, 652.000385761307, 0.0]
['beep', 0.0, 1374.3640630679206, 0.0, 0.0, 0.0, 0.0, 655.5319613852455, 0.0]
['beep', 0.0, 1373.358234567432, 0.0, 0.0, 0.0, 0.0, 656.7166038413768, 0.0]
['beep', 0.0, 1372.4641647892195, 0.0, 0.0, 0.0, 0.0, 654.8167055626757, 0.0]
['beep', 0.0, 1371.9500746667475, 0.0, 0.0, 0.0, 0.0, 654.3026154402037, 0.0]
['beep', 0.0, 1373.1794206117893, 0.0, 0.0, 0.0, 0.0, 653.9226357844634, 0.0]
['beep', 0.0, 1372.4865165336748, 0.0, 0.0, 0.0, 0.0, 655.0402230072287, 0.0]
['beep', 0.0, 1372.642978744862, 0.0, 0.0, 0.0, 0.0, 654.4590776513908, 0.0]
['beep', 0.0, 1372.419461300309, 0.0, 0.0, 0.0, 0.0, 655.3307956851478, 0.0]
['beep', 0.0, 1372.3971095558536, 0.0, 0.0, 0.0, 0.0, 655.1072782405947, 0.0]
['beep', 0.0, 1373.1347171228788, 0.0, 0.0, 0.0, 0.0, 654.1685049734718, 0.0]
['beep', 0.0, 1373.7605659676274, 0.0, 0.0, 0.0, 0.0, 654.3696706735695, 0.0]
['beep', 0.0, 1374.9228566793033, 0.0, 0.0, 0.0, 0.0, 654.4814293958461, 0.0]
['beep', 0.0, 1374.6993392347504, 0.0, 0.0, 0.0, 0.0, 653.6097113620891, 0.0]
['beep', 0.0, 1374.2523043456442, 0.0, 0.0, 0.0, 0.0, 653.6544148509997, 0.0]
['beep', 0.0, 1374.4981735346526, 0.0, 0.0, 0.0, 0.0, 653.6320631065445, 0.0]
['beep', 0.0, 1373.6488072453508, 0.0, 0.0, 0.0, 0.0, 653.6991183399103, 0.0]
['beep', 0.0, 1373.9840834121806, 0.0, 0.0, 0.0, 0.0, 653.5873596176339, 0.0]
['beep', 0.0, 1372.642978744862, 0.0, 0.0, 0.0, 0.0, 651.8662752945752, 0.0]
['beep', 0.0, 1371.771260711105, 0.0, 0.0, 0.0, 0.0, 651.419240405469, 0.0]
['beep', 0.0, 1370.0725281325017, 0.0, 0.0, 0.0, 0.0, 653.5203043842679, 0.0]
['beep', 0.0, 1370.8548391884374, 0.0, 0.0, 0.0, 0.0, 653.0062142617959, 0.0]
['beep', 0.0, 1370.5866182549737, 0.0, 0.0, 0.0, 0.0, 653.3638421730808, 0.0]
['beep', 0.0, 1371.927722922292, 0.0, 0.0, 0.0, 0.0, 655.6437201075221, 0.0]
['beep', 0.0, 1373.6264555008956, 0.0, 0.0, 0.0, 0.0, 653.1403247285277, 0.0]
['beep', 0.0, 1374.6993392347504, 0.0, 0.0, 0.0, 0.0, 654.1461532290165, 0.0]
['beep', 0.0, 1377.4262520582977, 0.0, 0.0, 0.0, 0.0, 654.5931881181226, 0.0]
['beep', 0.0, 1379.7508334816496, 0.0, 0.0, 0.0, 0.0, 654.7049468403992, 0.0]
['beep', 0.0, 1381.0695864045128, 0.0, 0.0, 0.0, 0.0, 657.163638730483, 0.0]
['beep', 0.0, 1379.482612548186, 0.0, 0.0, 0.0, 0.0, 656.1578102299941, 0.0]
['beep', 0.0, 1377.7168247362167, 0.0, 0.0, 0.0, 0.0, 655.2860921962372, 0.0]
['beep', 0.0, 1376.5321822800854, 0.0, 0.0, 0.0, 0.0, 657.4765631528572, 0.0]
['beep', 0.0, 1375.5710572685073, 0.0, 0.0, 0.0, 0.0, 656.9177695414746, 0.0]
['beep', 0.0, 1375.839278201971, 0.0, 0.0, 0.0, 0.0, 655.196685218416, 0.0]
['beep', 0.0, 1374.4311183012867, 0.0, 0.0, 0.0, 0.0, 655.3307956851478, 0.0]
['beep', 0.0, 1373.1570688673341, 0.0, 0.0, 0.0, 0.0, 655.0849264961394, 0.0]
['beep', 0.0, 1372.5982752559514, 0.0, 0.0, 0.0, 0.0, 655.2860921962372, 0.0]
['beep', 0.0, 1372.0171299001133, 0.0, 0.0, 0.0, 0.0, 656.7836590747427, 0.0]
['beep', 0.0, 1372.5982752559514, 0.0, 0.0, 0.0, 0.0, 655.5319613852455, 0.0]
['beep', 0.0, 1371.1454118663564, 0.0, 0.0, 0.0, 0.0, 654.9955195183181, 0.0]
['beep', 0.0, 1371.0783566329906, 0.0, 0.0, 0.0, 0.0, 655.710775340888, 0.0]
['beep', 0.0, 1371.905371177837, 0.0, 0.0, 0.0, 0.0, 655.9789962743516, 0.0]
['beep', 0.0, 1371.5700950110072, 0.0, 0.0, 0.0, 0.0, 657.3201009416701, 0.0]
['beep', 0.0, 1370.4301560437866, 0.0, 0.0, 0.0, 0.0, 655.7331270853433, 0.0]
['beep', 0.0, 1371.0560048885352, 0.0, 0.0, 0.0, 0.0, 654.2579119512931, 0.0]
['beep', 0.0, 1372.1959438557558, 0.0, 0.0, 0.0, 0.0, 652.7603450727875, 0.0]
['beep', 0.0, 1372.0841851334794, 0.0, 0.0, 0.0, 0.0, 655.5990166186115, 0.0]
['beep', 0.0, 1373.581752011985, 0.0, 0.0, 0.0, 0.0, 656.1354584855388, 0.0]
['beep', 0.0, 1373.9617316677252, 0.0, 0.0, 0.0, 0.0, 656.4260311634578, 0.0]
['beep', 0.0, 1373.2017723562446, 0.0, 0.0, 0.0, 0.0, 655.0402230072287, 0.0]
['beep', 0.0, 1373.2241241007, 0.0, 0.0, 0.0, 0.0, 654.4814293958461, 0.0]
['beep', 0.0, 1374.5875805124738, 0.0, 0.0, 0.0, 0.0, 655.9119410409858, 0.0]
['beep', 0.0, 1374.5875805124738, 0.0, 0.0, 0.0, 0.0, 653.8108770621869, 0.0]
['beep', 0.0, 1373.4029380563425, 0.0, 0.0, 0.0, 0.0, 652.000385761307, 0.0]
['beep', 0.0, 1373.9840834121806, 0.0, 0.0, 0.0, 0.0, 652.8497520506087, 0.0]
['beep', 0.0, 1373.9840834121806, 0.0, 0.0, 0.0, 0.0, 654.548484629212, 0.0]
['beep', 0.0, 1372.7547374671385, 0.0, 0.0, 0.0, 0.0, 655.6660718519773, 0.0]
['beep', 0.0, 1374.4981735346526, 0.0, 0.0, 0.0, 0.0, 655.8672375520752, 0.0]
['beep', 0.0, 1374.8781531903928, 0.0, 0.0, 0.0, 0.0, 653.967339273374, 0.0]
['beep', 0.0, 1375.2581328461329, 0.0, 0.0, 0.0, 0.0, 653.5426561287233, 0.0]
['beep', 0.0, 1373.805269456538, 0.0, 0.0, 0.0, 0.0, 655.7331270853433, 0.0]
['beep', 0.0, 1374.8781531903928, 0.0, 0.0, 0.0, 0.0, 655.7778305742539, 0.0]
['beep', 0.0, 1375.3922433128648, 0.0, 0.0, 0.0, 0.0, 654.3249671846589, 0.0]
['beep', 0.0, 1374.5875805124738, 0.0, 0.0, 0.0, 0.0, 654.2355602068377, 0.0]
['beep', 0.0, 1373.1794206117893, 0.0, 0.0, 0.0, 0.0, 653.4085456619914, 0.0]
['beep', 0.0, 1373.805269456538, 0.0, 0.0, 0.0, 0.0, 653.9449875289188, 0.0]
['beep', 0.0, 1373.8946764343593, 0.0, 0.0, 0.0, 0.0, 656.0907549966282, 0.0]
['beep', 0.0, 1373.5370485230744, 0.0, 0.0, 0.0, 0.0, 657.2977491972148, 0.0]
['beep', 0.0, 1373.0229584006022, 0.0, 0.0, 0.0, 0.0, 656.5601416301896, 0.0]
['beep', 0.0, 1372.3971095558536, 0.0, 0.0, 0.0, 0.0, 653.6320631065445, 0.0]
['beep', 0.0, 1371.927722922292, 0.0, 0.0, 0.0, 0.0, 653.9896910178294, 0.0]
['beep', 0.0, 1372.0841851334794, 0.0, 0.0, 0.0, 0.0, 654.9955195183181, 0.0]
['beep', 0.0, 1373.5370485230744, 0.0, 0.0, 0.0, 0.0, 655.196685218416, 0.0]
['beep', 0.0, 1373.2688275896105, 0.0, 0.0, 0.0, 0.0, 654.3920224180249, 0.0]
['beep', 0.0, 1372.7770892115939, 0.0, 0.0, 0.0, 0.0, 653.6097113620891, 0.0]
['beep', 0.0, 1373.1794206117893, 0.0, 0.0, 0.0, 0.0, 653.743821828821, 0.0]
['beep', 0.0, 1373.6711589898061, 0.0, 0.0, 0.0, 0.0, 654.2132084623825, 0.0]
['beep', 0.0, 1372.642978744862, 0.0, 0.0, 0.0, 0.0, 656.2695689522707, 0.0]
['beep', 0.0, 1374.0064351566357, 0.0, 0.0, 0.0, 0.0, 655.9119410409858, 0.0]
['beep', 0.0, 1374.1181938789123, 0.0, 0.0, 0.0, 0.0, 654.7049468403992, 0.0]
['beep', 0.0, 1372.061833389024, 0.0, 0.0, 0.0, 0.0, 653.2744351952596, 0.0]
['beep', 0.0, 1373.090013633968, 0.0, 0.0, 0.0, 0.0, 654.1908567179271, 0.0]
['beep', 0.0, 1373.805269456538, 0.0, 0.0, 0.0, 0.0, 655.1072782405947, 0.0]
['beep', 0.0, 1374.0511386455464, 0.0, 0.0, 0.0, 0.0, 655.2190369628712, 0.0]
['beep', 0.0, 1373.7158624787169, 0.0, 0.0, 0.0, 0.0, 654.8167055626757, 0.0]
['beep', 0.0, 1373.4029380563425, 0.0, 0.0, 0.0, 0.0, 655.9566445298964, 0.0]
['beep', 0.0, 1375.325188079499, 0.0, 0.0, 0.0, 0.0, 658.5270951422567, 0.0]
['beep', 0.0, 1376.1969061132559, 0.0, 0.0, 0.0, 0.0, 657.454211408402, 0.0]
['beep', 0.0, 1375.325188079499, 0.0, 0.0, 0.0, 0.0, 657.387156175036, 0.0]
['beep', 0.0, 1374.1405456233676, 0.0, 0.0, 0.0, 0.0, 655.2860921962372, 0.0]
['beep', 0.0, 1373.6935107342615, 0.0, 0.0, 0.0, 0.0, 654.9284642849523, 0.0]
['beep', 0.0, 1373.4923450341637, 0.0, 0.0, 0.0, 0.0, 656.3813276745472, 0.0]
['beep', 0.0, 1374.8781531903928, 0.0, 0.0, 0.0, 0.0, 658.1024119976058, 0.0]
['beep', 0.0, 1374.162897367823, 0.0, 0.0, 0.0, 0.0, 657.7671358307763, 0.0]
['beep', 0.0, 1372.7547374671385, 0.0, 0.0, 0.0, 0.0, 655.1519817295053, 0.0]
['beep', 0.0, 1372.933551422781, 0.0, 0.0, 0.0, 0.0, 655.1743334739606, 0.0]
['beep', 0.0, 1372.4865165336748, 0.0, 0.0, 0.0, 0.0, 655.710775340888, 0.0]
['beep', 0.0, 1373.581752011985, 0.0, 0.0, 0.0, 0.0, 653.967339273374, 0.0]
['beep', 0.0, 1373.9170281788145, 0.0, 0.0, 0.0, 0.0, 654.7049468403992, 0.0]
['beep', 0.0, 1373.872324689904, 0.0, 0.0, 0.0, 0.0, 654.9955195183181, 0.0]
['beep', 0.0, 1373.358234567432, 0.0, 0.0, 0.0, 0.0, 653.4756008953573, 0.0]
['beep', 0.0, 1373.5370485230744, 0.0, 0.0, 0.0, 0.0, 653.8108770621869, 0.0]
['beep', 0.0, 1373.7158624787169, 0.0, 0.0, 0.0, 0.0, 653.743821828821, 0.0]
['beep', 0.0, 1372.2629990891219, 0.0, 0.0, 0.0, 0.0, 654.3920224180249, 0.0]
['beep', 0.0, 1371.1454118663564, 0.0, 0.0, 0.0, 0.0, 653.6991183399103, 0.0]
['beep', 0.0, 1370.2960455770549, 0.0, 0.0, 0.0, 0.0, 652.6038828616003, 0.0]
['beep', 0.0, 1371.257170588633, 0.0, 0.0, 0.0, 0.0, 653.7885253177316, 0.0]
['beep', 0.0, 1372.4865165336748, 0.0, 0.0, 0.0, 0.0, 656.0684032521729, 0.0]
['beep', 0.0, 1372.8888479338705, 0.0, 0.0, 0.0, 0.0, 656.8954177970193, 0.0]
['beep', 0.0, 1373.6488072453508, 0.0, 0.0, 0.0, 0.0, 654.9284642849523, 0.0]
['beep', 0.0, 1372.6653304893173, 0.0, 0.0, 0.0, 0.0, 654.1014497401059, 0.0]
['beep', 0.0, 1372.7547374671385, 0.0, 0.0, 0.0, 0.0, 655.5543131297009, 0.0]
['beep', 0.0, 1374.3417113234655, 0.0, 0.0, 0.0, 0.0, 655.710775340888, 0.0]
['beep', 0.0, 1375.8169264575156, 0.0, 0.0, 0.0, 0.0, 654.5261328847567, 0.0]
['beep', 0.0, 1373.358234567432, 0.0, 0.0, 0.0, 0.0, 653.743821828821, 0.0]
['beep', 0.0, 1371.7042054777392, 0.0, 0.0, 0.0, 0.0, 652.581531117145, 0.0]
['beep', 0.0, 1371.7489089666497, 0.0, 0.0, 0.0, 0.0, 653.6991183399103, 0.0]
['beep', 0.0, 1373.6041037564403, 0.0, 0.0, 0.0, 0.0, 656.9624730303852, 0.0]
['beep', 0.0, 1374.2076008567335, 0.0, 0.0, 0.0, 0.0, 655.9789962743516, 0.0]
['beep', 0.0, 1373.9393799232698, 0.0, 0.0, 0.0, 0.0, 655.3978509185137, 0.0]
['beep', 0.0, 1373.0006066561468, 0.0, 0.0, 0.0, 0.0, 655.3307956851478, 0.0]
['beep', 0.0, 1372.7547374671385, 0.0, 0.0, 0.0, 0.0, 655.3084439406924, 0.0]
['beep', 0.0, 1373.6935107342615, 0.0, 0.0, 0.0, 0.0, 656.0907549966282, 0.0]
['beep', 0.0, 1373.8499729454486, 0.0, 0.0, 0.0, 0.0, 656.5601416301896, 0.0]
['beep', 0.0, 1375.1016706349458, 0.0, 0.0, 0.0, 0.0, 655.353147429603, 0.0]
['beep', 0.0, 1374.7216909792055, 0.0, 0.0, 0.0, 0.0, 655.12962998505, 0.0]
['beep', 0.0, 1375.772222968605, 0.0, 0.0, 0.0, 0.0, 656.2919206967259, 0.0]
['beep', 0.0, 1376.062795646524, 0.0, 0.0, 0.0, 0.0, 657.7000805974103, 0.0]
['beep', 0.0, 1373.872324689904, 0.0, 0.0, 0.0, 0.0, 656.5601416301896, 0.0]
['beep', 0.0, 1373.2464758451554, 0.0, 0.0, 0.0, 0.0, 656.5377898857344, 0.0]
['beep', 0.0, 1374.1852491122781, 0.0, 0.0, 0.0, 0.0, 657.9012462975081, 0.0]
['beep', 0.0, 1374.9228566793033, 0.0, 0.0, 0.0, 0.0, 659.6670341094773, 0.0]
['beep', 0.0, 1374.676987490295, 0.0, 0.0, 0.0, 0.0, 660.7846213322428, 0.0]
['beep', 0.0, 1373.581752011985, 0.0, 0.0, 0.0, 0.0, 659.4882201538348, 0.0]
['beep', 0.0, 1373.2241241007, 0.0, 0.0, 0.0, 0.0, 657.2083422193936, 0.0]
['beep', 0.0, 1373.1794206117893, 0.0, 0.0, 0.0, 0.0, 656.5377898857344, 0.0]
['beep', 0.0, 1373.2688275896105, 0.0, 0.0, 0.0, 0.0, 658.1471154865164, 0.0]
['beep', 0.0, 1372.7770892115939, 0.0, 0.0, 0.0, 0.0, 659.7787928317539, 0.0]
['beep', 0.0, 1373.067661889513, 0.0, 0.0, 0.0, 0.0, 658.3929846755249, 0.0]
['beep', 0.0, 1371.3689293109096, 0.0, 0.0, 0.0, 0.0, 656.2472172078153, 0.0]
['beep', 0.0, 1371.905371177837, 0.0, 0.0, 0.0, 0.0, 656.9848247748405, 0.0]
['beep', 0.0, 1373.090013633968, 0.0, 0.0, 0.0, 0.0, 659.0188335202735, 0.0]
['beep', 0.0, 1372.575923511496, 0.0, 0.0, 0.0, 0.0, 657.8341910641421, 0.0]
['beep', 0.0, 1371.927722922292, 0.0, 0.0, 0.0, 0.0, 656.5377898857344, 0.0]
['beep', 0.0, 1371.8383159444709, 0.0, 0.0, 0.0, 0.0, 656.1131067410835, 0.0]
['beep', 0.0, 1372.2182956002111, 0.0, 0.0, 0.0, 0.0, 657.0071765192959, 0.0]
['beep', 0.0, 1372.710033978228, 0.0, 0.0, 0.0, 0.0, 658.549446886712, 0.0]
['beep', 0.0, 1373.1347171228788, 0.0, 0.0, 0.0, 0.0, 657.5212666417679, 0.0]
['beep', 0.0, 1373.738214223172, 0.0, 0.0, 0.0, 0.0, 656.7836590747427, 0.0]
['beep', 0.0, 1375.1016706349458, 0.0, 0.0, 0.0, 0.0, 656.4260311634578, 0.0]
['beep', 0.0, 1374.0064351566357, 0.0, 0.0, 0.0, 0.0, 654.3473189291143, 0.0]
['beep', 0.0, 1374.6993392347504, 0.0, 0.0, 0.0, 0.0, 656.3366241856365, 0.0]
['beep', 0.0, 1374.7216909792055, 0.0, 0.0, 0.0, 0.0, 654.6602433514886, 0.0]
['beep', 0.0, 1374.5875805124738, 0.0, 0.0, 0.0, 0.0, 654.4367259069355, 0.0]
['beep', 0.0, 1374.833449701482, 0.0, 0.0, 0.0, 0.0, 655.353147429603, 0.0]
['beep', 0.0, 1374.31935957901, 0.0, 0.0, 0.0, 0.0, 655.2637404517818, 0.0]
['beep', 0.0, 1375.3698915684095, 0.0, 0.0, 0.0, 0.0, 654.7049468403992, 0.0]
['beep', 0.0, 1375.9063334353368, 0.0, 0.0, 0.0, 0.0, 656.806010819198, 0.0]
['beep', 0.0, 1376.4427753022642, 0.0, 0.0, 0.0, 0.0, 656.4483829079131, 0.0]
['beep', 0.0, 1375.5710572685073, 0.0, 0.0, 0.0, 0.0, 654.5931881181226, 0.0]
['beep', 0.0, 1374.4311183012867, 0.0, 0.0, 0.0, 0.0, 655.4872578963349, 0.0]
['beep', 0.0, 1375.2804845905882, 0.0, 0.0, 0.0, 0.0, 657.0518800082065, 0.0]
['beep', 0.0, 1377.3368450804765, 0.0, 0.0, 0.0, 0.0, 657.0965834971171, 0.0]
['beep', 0.0, 1377.806231714038, 0.0, 0.0, 0.0, 0.0, 657.0518800082065, 0.0]
['beep', 0.0, 1377.001568913647, 0.0, 0.0, 0.0, 0.0, 655.0849264961394, 0.0]
['beep', 0.0, 1375.9510369242475, 0.0, 0.0, 0.0, 0.0, 653.5650078731785, 0.0]
['beep', 0.0, 1376.934513680281, 0.0, 0.0, 0.0, 0.0, 654.839057307131, 0.0]
['beep', 0.0, 1377.5603625250296, 0.0, 0.0, 0.0, 0.0, 654.6602433514886, 0.0]
['beep', 0.0, 1377.2027346137447, 0.0, 0.0, 0.0, 0.0, 654.1461532290165, 0.0]
['beep', 0.0, 1376.7556997246386, 0.0, 0.0, 0.0, 0.0, 655.6660718519773, 0.0]
['beep', 0.0, 1374.7663944681162, 0.0, 0.0, 0.0, 0.0, 655.7554788297986, 0.0]
['beep', 0.0, 1375.0569671460353, 0.0, 0.0, 0.0, 0.0, 656.1131067410835, 0.0]
['beep', 0.0, 1374.8110979570267, 0.0, 0.0, 0.0, 0.0, 657.7447840863209, 0.0]
['beep', 0.0, 1371.8830194333816, 0.0, 0.0, 0.0, 0.0, 657.5659701306785, 0.0]
['beep', 0.0, 1378.2085631142336, 0.0, 0.0, 0.0, 0.0, 656.1354584855388, 0.0]
['beep', 0.0, 1381.4495660602531, 0.0, 0.0, 0.0, 0.0, 656.3142724411813, 0.0]
['beep', 0.0, 1383.707092250239, 0.0, 0.0, 0.0, 0.0, 658.258874208793, 0.0]
['beep', 0.0, 1384.645865517362, 0.0, 0.0, 0.0, 0.0, 660.1811242319494, 0.0]
['beep', 0.0, 1382.030711416091, 0.0, 0.0, 0.0, 0.0, 658.5717986311673, 0.0]
['beep', 0.0, 1381.6507317603507, 0.0, 0.0, 0.0, 0.0, 656.8283625636534, 0.0]
['beep', 0.0, 1382.6342085163842, 0.0, 0.0, 0.0, 0.0, 657.4765631528572, 0.0]
['beep', 0.0, 1383.2153538722223, 0.0, 0.0, 0.0, 0.0, 658.4600399088907, 0.0]
['beep', 0.0, 1383.0141881721245, 0.0, 0.0, 0.0, 0.0, 658.2365224643377, 0.0]
['beep', 0.0, 1384.6682172618173, 0.0, 0.0, 0.0, 0.0, 656.3813276745472, 0.0]
['beep', 0.0, 1383.930609694792, 0.0, 0.0, 0.0, 0.0, 654.0120427622846, 0.0]
['beep', 0.0, 1383.3941678278647, 0.0, 0.0, 0.0, 0.0, 655.8895892965304, 0.0]
['beep', 0.0, 1385.3611213399317, 0.0, 0.0, 0.0, 0.0, 658.2365224643377, 0.0]
['beep', 0.0, 1385.4728800622083, 0.0, 0.0, 0.0, 0.0, 661.0304905212511, 0.0]
['beep', 0.0, 1384.7799759840937, 0.0, 0.0, 0.0, 0.0, 660.9410835434298, 0.0]
['beep', 0.0, 1382.8577259609374, 0.0, 0.0, 0.0, 0.0, 659.2870544537371, 0.0]
['beep', 0.0, 1381.673083504806, 0.0, 0.0, 0.0, 0.0, 659.2423509648265, 0.0]
['beep', 0.0, 1382.7683189831162, 0.0, 0.0, 0.0, 0.0, 659.1976474759159, 0.0]
['beep', 0.0, 1385.2717143621105, 0.0, 0.0, 0.0, 0.0, 660.22582772086, 0.0]
['beep', 0.0, 1386.903391707348, 0.0, 0.0, 0.0, 0.0, 659.8011445762091, 0.0]
['beep', 0.0, 1386.769281240616, 0.0, 0.0, 0.0, 0.0, 657.2306939638489, 0.0]
['beep', 0.0, 1385.092900406468, 0.0, 0.0, 0.0, 0.0, 658.191818975427, 0.0]
['beep', 0.0, 1385.383473084387, 0.0, 0.0, 0.0, 0.0, 661.0081387767958, 0.0]
['beep', 0.0, 1386.903391707348, 0.0, 0.0, 0.0, 0.0, 661.9245602994633, 0.0]
['beep', 0.0, 1387.3951300853646, 0.0, 0.0, 0.0, 0.0, 659.1082404980947, 0.0]
['beep', 0.0, 1386.5904672849736, 0.0, 0.0, 0.0, 0.0, 658.4600399088907, 0.0]
['beep', 0.0, 1386.4340050737865, 0.0, 0.0, 0.0, 0.0, 659.8234963206645, 0.0]
['beep', 0.0, 1386.3445980959652, 0.0, 0.0, 0.0, 0.0, 660.5387521432343, 0.0]
['beep', 0.0, 1386.7245777517055, 0.0, 0.0, 0.0, 0.0, 660.516400398779, 0.0]
['beep', 0.0, 1386.2328393736886, 0.0, 0.0, 0.0, 0.0, 659.8905515540304, 0.0]
['beep', 0.0, 1385.4281765732976, 0.0, 0.0, 0.0, 0.0, 660.22582772086, 0.0]
['beep', 0.0, 1385.741100995672, 0.0, 0.0, 0.0, 0.0, 660.2928829542259, 0.0]
['beep', 0.0, 1384.4223480728087, 0.0, 0.0, 0.0, 0.0, 660.7622695877874, 0.0]
['beep', 0.0, 1383.5059265501413, 0.0, 0.0, 0.0, 0.0, 661.5669323881784, 0.0]
['beep', 0.0, 1383.0588916610352, 0.0, 0.0, 0.0, 0.0, 660.1811242319494, 0.0]
['beep', 0.0, 1382.388339327376, 0.0, 0.0, 0.0, 0.0, 658.4153364199801, 0.0]
['beep', 0.0, 1382.030711416091, 0.0, 0.0, 0.0, 0.0, 658.6835573534438, 0.0]
['beep', 0.0, 1383.3271125944989, 0.0, 0.0, 0.0, 0.0, 659.5105718982902, 0.0]
['beep', 0.0, 1382.8800777053928, 0.0, 0.0, 0.0, 0.0, 659.1752957314606, 0.0]
['beep', 0.0, 1384.6905690062724, 0.0, 0.0, 0.0, 0.0, 659.8905515540304, 0.0]
['beep', 0.0, 1385.450528317753, 0.0, 0.0, 0.0, 0.0, 660.0246620207622, 0.0]
['beep', 0.0, 1386.2775428625994, 0.0, 0.0, 0.0, 0.0, 659.421164920469, 0.0]
['beep', 0.0, 1388.1550893968451, 0.0, 0.0, 0.0, 0.0, 662.6621678664885, 0.0]
['beep', 0.0, 1389.9432289532697, 0.0, 0.0, 0.0, 0.0, 664.0032725338069, 0.0]
['beep', 0.0, 1390.0549876755463, 0.0, 0.0, 0.0, 0.0, 661.6339876215444, 0.0]
['beep', 0.0, 1387.2163161297221, 0.0, 0.0, 0.0, 0.0, 659.4658684093796, 0.0]
['beep', 0.0, 1383.9082579503367, 0.0, 0.0, 0.0, 0.0, 661.2987114547147, 0.0]
['beep', 0.0, 1383.3271125944989, 0.0, 0.0, 0.0, 0.0, 662.840981822131, 0.0]
['beep', 0.0, 1384.6235137729066, 0.0, 0.0, 0.0, 0.0, 661.7457463438209, 0.0]
['beep', 0.0, 1383.5953335279626, 0.0, 0.0, 0.0, 0.0, 660.9187317989746, 0.0]
['beep', 0.0, 1383.1482986388564, 0.0, 0.0, 0.0, 0.0, 661.5222288992678, 0.0]
['beep', 0.0, 1382.1424701383676, 0.0, 0.0, 0.0, 0.0, 662.3492434441142, 0.0]
['beep', 0.0, 1383.774147483605, 0.0, 0.0, 0.0, 0.0, 662.192781232927, 0.0]
['beep', 0.0, 1385.5399352955742, 0.0, 0.0, 0.0, 0.0, 662.3492434441142, 0.0]
['beep', 0.0, 1385.60699052894, 0.0, 0.0, 0.0, 0.0, 661.5222288992678, 0.0]
['beep', 0.0, 1385.7187492512167, 0.0, 0.0, 0.0, 0.0, 660.2705312097706, 0.0]
['beep', 0.0, 1386.1434323958674, 0.0, 0.0, 0.0, 0.0, 658.8623713090863, 0.0]
['beep', 0.0, 1386.5234120516077, 0.0, 0.0, 0.0, 0.0, 659.1305922425499, 0.0]
['beep', 0.0, 1387.059853918535, 0.0, 0.0, 0.0, 0.0, 660.9187317989746, 0.0]
['beep', 0.0, 1386.4340050737865, 0.0, 0.0, 0.0, 0.0, 660.3599381875919, 0.0]
['beep', 0.0, 1386.2328393736886, 0.0, 0.0, 0.0, 0.0, 660.6058073766002, 0.0]
['beep', 0.0, 1386.0763771625016, 0.0, 0.0, 0.0, 0.0, 660.6281591210555, 0.0]
['beep', 0.0, 1385.5622870400296, 0.0, 0.0, 0.0, 0.0, 662.0586707661952, 0.0]
['beep', 0.0, 1385.4952318066637, 0.0, 0.0, 0.0, 0.0, 663.2433132223265, 0.0]
['beep', 0.0, 1385.6740457623062, 0.0, 0.0, 0.0, 0.0, 661.0081387767958, 0.0]
['beep', 0.0, 1384.3105893505324, 0.0, 0.0, 0.0, 0.0, 660.1364207430388, 0.0]
['beep', 0.0, 1384.6905690062724, 0.0, 0.0, 0.0, 0.0, 660.9634352878852, 0.0]
['beep', 0.0, 1385.2717143621105, 0.0, 0.0, 0.0, 0.0, 661.0304905212511, 0.0]
['beep', 0.0, 1384.7129207507278, 0.0, 0.0, 0.0, 0.0, 661.1869527324383, 0.0]
['beep', 0.0, 1384.7576242396385, 0.0, 0.0, 0.0, 0.0, 659.7787928317539, 0.0]
['beep', 0.0, 1383.4388713167752, 0.0, 0.0, 0.0, 0.0, 659.1082404980947, 0.0]
['beep', 0.0, 1383.9753131837026, 0.0, 0.0, 0.0, 0.0, 660.516400398779, 0.0]
['beep', 0.0, 1385.8528597179486, 0.0, 0.0, 0.0, 0.0, 660.9187317989746, 0.0]
['beep', 0.0, 1386.1657841403228, 0.0, 0.0, 0.0, 0.0, 661.2540079658041, 0.0]
['beep', 0.0, 1387.41748182982, 0.0, 0.0, 0.0, 0.0, 660.7622695877874, 0.0]
['beep', 0.0, 1386.9704469407138, 0.0, 0.0, 0.0, 0.0, 659.2870544537371, 0.0]
['beep', 0.0, 1385.4952318066637, 0.0, 0.0, 0.0, 0.0, 659.3988131760136, 0.0]
['beep', 0.0, 1387.8868684633815, 0.0, 0.0, 0.0, 0.0, 660.22582772086, 0.0]
['beep', 0.0, 1388.6021242859513, 0.0, 0.0, 0.0, 0.0, 659.2423509648265, 0.0]
['beep', 0.0, 1388.3115516080322, 0.0, 0.0, 0.0, 0.0, 658.4376881644355, 0.0]
['beep', 0.0, 1388.6021242859513, 0.0, 0.0, 0.0, 0.0, 658.9517782869075, 0.0]
['beep', 0.0, 1387.7304062521944, 0.0, 0.0, 0.0, 0.0, 657.7671358307763, 0.0]
['beep', 0.0, 1388.065682419024, 0.0, 0.0, 0.0, 0.0, 659.5999788761114, 0.0]
['beep', 0.0, 1388.8479934749596, 0.0, 0.0, 0.0, 0.0, 661.0081387767958, 0.0]
['beep', 0.0, 1387.9762754412027, 0.0, 0.0, 0.0, 0.0, 660.4046416765025, 0.0]
['beep', 0.0, 1386.7245777517055, 0.0, 0.0, 0.0, 0.0, 658.1694672309718, 0.0]
['beep', 0.0, 1386.8810399628926, 0.0, 0.0, 0.0, 0.0, 658.3259294421589, 0.0]
['beep', 0.0, 1386.9704469407138, 0.0, 0.0, 0.0, 0.0, 658.4153364199801, 0.0]
['beep', 0.0, 1386.9480951962585, 0.0, 0.0, 0.0, 0.0, 659.7787928317539, 0.0]
['beep', 0.0, 1386.8139847295267, 0.0, 0.0, 0.0, 0.0, 659.8905515540304, 0.0]
['beep', 0.0, 1386.9480951962585, 0.0, 0.0, 0.0, 0.0, 659.3317579426478, 0.0]
['beep', 0.0, 1386.4340050737865, 0.0, 0.0, 0.0, 0.0, 659.9576067873963, 0.0]
['beep', 0.0, 1386.7916329850714, 0.0, 0.0, 0.0, 0.0, 660.1140689985834, 0.0]
['beep', 0.0, 1387.6857027632836, 0.0, 0.0, 0.0, 0.0, 660.516400398779, 0.0]
['beep', 0.0, 1387.3951300853646, 0.0, 0.0, 0.0, 0.0, 661.2540079658041, 0.0]
['beep', 0.0, 1385.8752114624037, 0.0, 0.0, 0.0, 0.0, 660.2928829542259, 0.0]
['beep', 0.0, 1386.7916329850714, 0.0, 0.0, 0.0, 0.0, 659.2199992203712, 0.0]
['beep', 0.0, 1387.5292405520966, 0.0, 0.0, 0.0, 0.0, 659.3317579426478, 0.0]
['beep', 0.0, 1387.2386678741775, 0.0, 0.0, 0.0, 0.0, 659.6670341094773, 0.0]
['beep', 0.0, 1386.8810399628926, 0.0, 0.0, 0.0, 0.0, 660.8516765656086, 0.0]
['beep', 0.0, 1386.9927986851692, 0.0, 0.0, 0.0, 0.0, 660.4493451654131, 0.0]
['beep', 0.0, 1386.3669498404206, 0.0, 0.0, 0.0, 0.0, 660.4716969098683, 0.0]
['beep', 0.0, 1387.1492608963563, 0.0, 0.0, 0.0, 0.0, 661.0751940101617, 0.0]
['beep', 0.0, 1387.998627185658, 0.0, 0.0, 0.0, 0.0, 661.9245602994633, 0.0]
['beep', 0.0, 1388.1103859079344, 0.0, 0.0, 0.0, 0.0, 661.3434149436254, 0.0]
['beep', 0.0, 1387.7974614855602, 0.0, 0.0, 0.0, 0.0, 659.7340893428433, 0.0]
['beep', 0.0, 1388.2444963746664, 0.0, 0.0, 0.0, 0.0, 660.4716969098683, 0.0]
['beep', 0.0, 1387.573944041007, 0.0, 0.0, 0.0, 0.0, 660.9634352878852, 0.0]
['beep', 0.0, 1388.065682419024, 0.0, 0.0, 0.0, 0.0, 662.4162986774801, 0.0]
['beep', 0.0, 1387.708054507739, 0.0, 0.0, 0.0, 0.0, 662.1704294884718, 0.0]
['beep', 0.0, 1386.8139847295267, 0.0, 0.0, 0.0, 0.0, 661.5892841326338, 0.0]
['beep', 0.0, 1386.3669498404206, 0.0, 0.0, 0.0, 0.0, 661.8575050660975, 0.0]
['beep', 0.0, 1386.1881358847781, 0.0, 0.0, 0.0, 0.0, 663.422127177969, 0.0]
['beep', 0.0, 1386.1881358847781, 0.0, 0.0, 0.0, 0.0, 664.6961766119214, 0.0]
['beep', 0.0, 1386.5010603071523, 0.0, 0.0, 0.0, 0.0, 664.7632318452874, 0.0]
['beep', 0.0, 1385.5399352955742, 0.0, 0.0, 0.0, 0.0, 662.6398161220332, 0.0]
['beep', 0.0, 1385.6740457623062, 0.0, 0.0, 0.0, 0.0, 661.7010428549103, 0.0]
['beep', 0.0, 1386.2998946070547, 0.0, 0.0, 0.0, 0.0, 663.8915138115303, 0.0]
['beep', 0.0, 1386.836336473982, 0.0, 0.0, 0.0, 0.0, 664.5620661451895, 0.0]
['beep', 0.0, 1387.126909151901, 0.0, 0.0, 0.0, 0.0, 662.8186300776756, 0.0]
['beep', 0.0, 1385.3164178510212, 0.0, 0.0, 0.0, 0.0, 660.6728626099662, 0.0]
['beep', 0.0, 1384.0647201615238, 0.0, 0.0, 0.0, 0.0, 662.1033742551058, 0.0]
['beep', 0.0, 1385.159955639834, 0.0, 0.0, 0.0, 0.0, 664.807935334198, 0.0]
['beep', 0.0, 1385.2270108731998, 0.0, 0.0, 0.0, 0.0, 666.3502057016142, 0.0]
['beep', 0.0, 1384.936438195281, 0.0, 0.0, 0.0, 0.0, 665.1432115010276, 0.0]
['beep', 0.0, 1383.6847405057838, 0.0, 0.0, 0.0, 0.0, 664.5844178896449, 0.0]
['beep', 0.0, 1382.2095253717334, 0.0, 0.0, 0.0, 0.0, 664.807935334198, 0.0]
['beep', 0.0, 1384.6905690062724, 0.0, 0.0, 0.0, 0.0, 666.1713917459717, 0.0]
['beep', 0.0, 1385.6963975067613, 0.0, 0.0, 0.0, 0.0, 667.9595313023963, 0.0]
['beep', 0.0, 1384.802327728549, 0.0, 0.0, 0.0, 0.0, 666.998406290818, 0.0]
['beep', 0.0, 1384.0423684170687, 0.0, 0.0, 0.0, 0.0, 667.7583656022985, 0.0]
['beep', 0.0, 1384.3105893505324, 0.0, 0.0, 0.0, 0.0, 669.8817813255527, 0.0]
['beep', 0.0, 1384.8470312174597, 0.0, 0.0, 0.0, 0.0, 673.0557290382063, 0.0]
['beep', 0.0, 1386.5681155405184, 0.0, 0.0, 0.0, 0.0, 676.7884703622426, 0.0]
['beep', 0.0, 1386.9480951962585, 0.0, 0.0, 0.0, 0.0, 680.029473308262, 0.0]
['beep', 0.0, 1385.450528317753, 0.0, 0.0, 0.0, 0.0, 682.3764064760693, 0.0]
['beep', 0.0, 1382.7012637497503, 0.0, 0.0, 0.0, 0.0, 685.2597815108039, 0.0]
['beep', 0.0, 1382.7683189831162, 0.0, 0.0, 0.0, 0.0, 689.8418891241419, 0.0]
['beep', 0.0, 1385.2046591287447, 0.0, 0.0, 0.0, 0.0, 695.2063077934156, 0.0]
['beep', 0.0, 1388.6244760304066, 0.0, 0.0, 0.0, 0.0, 700.0342845957618, 0.0]
['beep', 0.0, 1387.573944041007, 0.0, 0.0, 0.0, 0.0, 703.7670259197981, 0.0]
['beep', 0.0, 1388.222144630211, 0.0, 0.0, 0.0, 0.0, 706.5386422322563, 0.0]
['beep', 0.0, 1388.51271730813, 0.0, 0.0, 0.0, 0.0, 711.1431015900495, 0.0]
['beep', 0.0, 1386.7469294961609, 0.0, 0.0, 0.0, 0.0, 717.8262731821864, 0.0]
['beep', 0.0, 1386.5681155405184, 0.0, 0.0, 0.0, 0.0, 720.5531860057338, 0.0]
['beep', 0.0, 1385.3387695954764, 0.0, 0.0, 0.0, 0.0, 724.3976860520465, 0.0]
['beep', 0.0, 1381.7848422270827, 0.0, 0.0, 0.0, 0.0, 728.1304273760828, 0.0]
['beep', 0.0, 1383.6176852724177, 0.0, 0.0, 0.0, 0.0, 731.8631687001191, 0.0]
['beep', 0.0, 1387.0822056629904, 0.0, 0.0, 0.0, 0.0, 737.3393460916694, 0.0]
['beep', 0.0, 1387.8198132300156, 0.0, 0.0, 0.0, 0.0, 742.5696542942112, 0.0]
['beep', 0.0, 1384.3552928394429, 0.0, 0.0, 0.0, 0.0, 745.1401049065715, 0.0]
['beep', 0.0, 1380.6896067487726, 0.0, 0.0, 0.0, 0.0, 747.7999624967531, 0.0]
['beep', 0.0, 1382.6565602608396, 0.0, 0.0, 0.0, 0.0, 752.8514567436525, 0.0]
['beep', 0.0, 1384.5564585395407, 0.0, 0.0, 0.0, 0.0, 754.6619480445323, 0.0]
['beep', 0.0, 1383.8188509725155, 0.0, 0.0, 0.0, 0.0, 757.4559161014457, 0.0]
['beep', 0.0, 1385.3611213399317, 0.0, 0.0, 0.0, 0.0, 760.383994625091, 0.0]
['beep', 0.0, 1385.092900406468, 0.0, 0.0, 0.0, 0.0, 764.8766952606077, 0.0]
['beep', 0.0, 1381.7624904826273, 0.0, 0.0, 0.0, 0.0, 767.7824220397976, 0.0]
['beep', 0.0, 1382.4330428162866, 0.0, 0.0, 0.0, 0.0, 768.7435470513758, 0.0]
['beep', 0.0, 1385.1152521509234, 0.0, 0.0, 0.0, 0.0, 771.2245906859149, 0.0]
['beep', 0.0, 1384.9811416841915, 0.0, 0.0, 0.0, 0.0, 773.5044686203562, 0.0]
['beep', 0.0, 1385.5175835511188, 0.0, 0.0, 0.0, 0.0, 774.8232215432193, 0.0]
['beep', 0.0, 1386.5010603071523, 0.0, 0.0, 0.0, 0.0, 779.8300123012081, 0.0]
['beep', 0.0, 1385.2270108731998, 0.0, 0.0, 0.0, 0.0, 783.4286431585125, 0.0]
['beep', 0.0, 1383.3271125944989, 0.0, 0.0, 0.0, 0.0, 782.9369047804958, 0.0]
['beep', 0.0, 1383.5729817835072, 0.0, 0.0, 0.0, 0.0, 782.6016286136662, 0.0]
['beep', 0.0, 1383.2824091055882, 0.0, 0.0, 0.0, 0.0, 785.9543902819622, 0.0]
['beep', 0.0, 1385.60699052894, 0.0, 0.0, 0.0, 0.0, 790.089463006194, 0.0]
['beep', 0.0, 1387.864516718926, 0.0, 0.0, 0.0, 0.0, 790.9388292954957, 0.0]
['beep', 0.0, 1385.1152521509234, 0.0, 0.0, 0.0, 0.0, 791.7881955847973, 0.0]
['beep', 0.0, 1384.154127139345, 0.0, 0.0, 0.0, 0.0, 792.0787682627164, 0.0]
['beep', 0.0, 1383.5729817835072, 0.0, 0.0, 0.0, 0.0, 795.9903235423951, 0.0]
['beep', 0.0, 1384.578810283996, 0.0, 0.0, 0.0, 0.0, 801.9582393119621, 0.0]
['beep', 0.0, 1386.031673673591, 0.0, 0.0, 0.0, 0.0, 802.6958468789873, 0.0]
['beep', 0.0, 1387.8421649744707, 0.0, 0.0, 0.0, 0.0, 801.734721867409, 0.0]
['beep', 0.0, 1386.3445980959652, 0.0, 0.0, 0.0, 0.0, 802.2935154787917, 0.0]
['beep', 0.0, 1382.7683189831162, 0.0, 0.0, 0.0, 0.0, 802.1817567565151, 0.0]
['beep', 0.0, 1380.9131241933255, 0.0, 0.0, 0.0, 0.0, 805.3557044691688, 0.0]
['beep', 0.0, 1379.3037985925434, 0.0, 0.0, 0.0, 0.0, 808.864928348652, 0.0]
['beep', 0.0, 1382.6565602608396, 0.0, 0.0, 0.0, 0.0, 809.7813498713195, 0.0]
['beep', 0.0, 1383.2377056166777, 0.0, 0.0, 0.0, 0.0, 806.6968091364872, 0.0]
['beep', 0.0, 1380.577848026496, 0.0, 0.0, 0.0, 0.0, 806.8756230921297, 0.0]
['beep', 0.0, 1379.9519991817474, 0.0, 0.0, 0.0, 0.0, 808.7084661374648, 0.0]
['beep', 0.0, 1380.6449032598618, 0.0, 0.0, 0.0, 0.0, 810.1166260381492, 0.0]
['beep', 0.0, 1380.421385815309, 0.0, 0.0, 0.0, 0.0, 811.2789167498252, 0.0]
['beep', 0.0, 1377.6050660139401, 0.0, 0.0, 0.0, 0.0, 809.0884457932051, 0.0]
['beep', 0.0, 1378.1862113697782, 0.0, 0.0, 0.0, 0.0, 808.9319835820179, 0.0]
['beep', 0.0, 1382.5224497941078, 0.0, 0.0, 0.0, 0.0, 809.2225562599369, 0.0]
['beep', 0.0, 1385.450528317753, 0.0, 0.0, 0.0, 0.0, 809.2002045154816, 0.0]
['beep', 0.0, 1384.4894033061748, 0.0, 0.0, 0.0, 0.0, 809.155501026571, 0.0]
['beep', 0.0, 1379.6167230149179, 0.0, 0.0, 0.0, 0.0, 808.3061347372693, 0.0]
['beep', 0.0, 1379.482612548186, 0.0, 0.0, 0.0, 0.0, 806.2274225029257, 0.0]
['beep', 0.0, 1382.7683189831162, 0.0, 0.0, 0.0, 0.0, 807.7249893814313, 0.0]
['beep', 0.0, 1382.4330428162866, 0.0, 0.0, 0.0, 0.0, 808.3955417150905, 0.0]
['beep', 0.0, 1378.3650253254207, 0.0, 0.0, 0.0, 0.0, 805.6015736581771, 0.0]
['beep', 0.0, 1376.5992375134513, 0.0, 0.0, 0.0, 0.0, 805.4674631914453, 0.0]
['beep', 0.0, 1379.2367433591776, 0.0, 0.0, 0.0, 0.0, 805.0651317912498, 0.0]
['beep', 0.0, 1381.6283800158956, 0.0, 0.0, 0.0, 0.0, 802.6734951345319, 0.0]
['beep', 0.0, 1378.901467192348, 0.0, 0.0, 0.0, 0.0, 803.4334544460123, 0.0]
['beep', 0.0, 1378.968522425714, 0.0, 0.0, 0.0, 0.0, 804.6180969021436, 0.0]
['beep', 0.0, 1378.8344119589822, 0.0, 0.0, 0.0, 0.0, 802.1370532676045, 0.0]
['beep', 0.0, 1377.962693925225, 0.0, 0.0, 0.0, 0.0, 802.025294545328, 0.0]
['beep', 0.0, 1376.8898101913703, 0.0, 0.0, 0.0, 0.0, 801.7123701229538, 0.0]
['beep', 0.0, 1377.4709555472084, 0.0, 0.0, 0.0, 0.0, 801.3323904672135, 0.0]
['beep', 0.0, 1377.7168247362167, 0.0, 0.0, 0.0, 0.0, 800.7512451113755, 0.0]
['beep', 0.0, 1381.2931038490658, 0.0, 0.0, 0.0, 0.0, 799.7230648664314, 0.0]
['beep', 0.0, 1380.1308131373899, 0.0, 0.0, 0.0, 0.0, 802.0699980342387, 0.0]
['beep', 0.0, 1378.610894514429, 0.0, 0.0, 0.0, 0.0, 802.1817567565151, 0.0]
['beep', 0.0, 1378.7897084700714, 0.0, 0.0, 0.0, 0.0, 803.3887509571017, 0.0]
['beep', 0.0, 1377.739176480672, 0.0, 0.0, 0.0, 0.0, 804.1934137574929, 0.0]
['beep', 0.0, 1375.3922433128648, 0.0, 0.0, 0.0, 0.0, 802.4946811788894, 0.0]
['beep', 0.0, 1376.4204235578088, 0.0, 0.0, 0.0, 0.0, 802.5170329233448, 0.0]
['beep', 0.0, 1379.1696881258117, 0.0, 0.0, 0.0, 0.0, 805.2662974913476, 0.0]
['beep', 0.0, 1377.292141591566, 0.0, 0.0, 0.0, 0.0, 806.9650300699509, 0.0]
['beep', 0.0, 1374.8558014459375, 0.0, 0.0, 0.0, 0.0, 808.3061347372693, 0.0]
['beep', 0.0, 1373.4699932897083, 0.0, 0.0, 0.0, 0.0, 808.0826172927162, 0.0]
['beep', 0.0, 1372.3971095558536, 0.0, 0.0, 0.0, 0.0, 806.6744573920319, 0.0]
['beep', 0.0, 1368.1502781093452, 0.0, 0.0, 0.0, 0.0, 810.7871783718084, 0.0]
['beep', 0.0, 1370.2289903436888, 0.0, 0.0, 0.0, 0.0, 813.4917394509006, 0.0]
['beep', 0.0, 1374.4981735346526, 0.0, 0.0, 0.0, 0.0, 812.7541318838754, 0.0]
['beep', 0.0, 1375.995740413158, 0.0, 0.0, 0.0, 0.0, 812.1059312946716, 0.0]
['beep', 0.0, 1378.2756183475994, 0.0, 0.0, 0.0, 0.0, 813.2905737508028, 0.0]
['beep', 0.0, 1377.3368450804765, 0.0, 0.0, 0.0, 0.0, 815.8610243631631, 0.0]
['beep', 0.0, 1374.967560168214, 0.0, 0.0, 0.0, 0.0, 817.090370308205, 0.0]
['beep', 0.0, 1377.1356793803786, 0.0, 0.0, 0.0, 0.0, 817.2691842638475, 0.0]
['beep', 0.0, 1375.9510369242475, 0.0, 0.0, 0.0, 0.0, 816.3974662300905, 0.0]
['beep', 0.0, 1375.5040020351414, 0.0, 0.0, 0.0, 0.0, 814.251698762381, 0.0]
['beep', 0.0, 1374.4981735346526, 0.0, 0.0, 0.0, 0.0, 814.8104923737636, 0.0]
['beep', 0.0, 1372.642978744862, 0.0, 0.0, 0.0, 0.0, 817.2691842638475, 0.0]
['beep', 0.0, 1371.0783566329906, 0.0, 0.0, 0.0, 0.0, 817.023315074839, 0.0]
['beep', 0.0, 1369.4690310322085, 0.0, 0.0, 0.0, 0.0, 814.9893063294061, 0.0]
['beep', 0.0, 1370.4301560437866, 0.0, 0.0, 0.0, 0.0, 816.4645214634564, 0.0]
['beep', 0.0, 1376.062795646524, 0.0, 0.0, 0.0, 0.0, 817.5597569417664, 0.0]
['beep', 0.0, 1375.1687258683116, 0.0, 0.0, 0.0, 0.0, 816.9786115859284, 0.0]
['beep', 0.0, 1372.7323857226831, 0.0, 0.0, 0.0, 0.0, 816.6880389080095, 0.0]
['beep', 0.0, 1371.2124670997223, 0.0, 0.0, 0.0, 0.0, 816.3080592522692, 0.0]
['beep', 0.0, 1374.2746560900994, 0.0, 0.0, 0.0, 0.0, 815.1457685405933, 0.0]
['beep', 0.0, 1375.705167735239, 0.0, 0.0, 0.0, 0.0, 816.3527627411798, 0.0]
['beep', 0.0, 1373.9840834121806, 0.0, 0.0, 0.0, 0.0, 819.63846917611, 0.0]
['beep', 0.0, 1375.8839816908815, 0.0, 0.0, 0.0, 0.0, 819.7502278983865, 0.0]
['beep', 0.0, 1377.3368450804765, 0.0, 0.0, 0.0, 0.0, 818.6549924200765, 0.0]
['beep', 0.0, 1376.800403213549, 0.0, 0.0, 0.0, 0.0, 819.9290418540289, 0.0]
['beep', 0.0, 1376.9121619358257, 0.0, 0.0, 0.0, 0.0, 820.443131976501, 0.0]
['beep', 0.0, 1378.4767840476973, 0.0, 0.0, 0.0, 0.0, 821.9406988550066, 0.0]
['beep', 0.0, 1380.8013654710492, 0.0, 0.0, 0.0, 0.0, 821.091332565705, 0.0]
['beep', 0.0, 1377.6721212473062, 0.0, 0.0, 0.0, 0.0, 820.6890011655095, 0.0]
['beep', 0.0, 1372.12888862239, 0.0, 0.0, 0.0, 0.0, 820.3313732542246, 0.0]
['beep', 0.0, 1371.123060121901, 0.0, 0.0, 0.0, 0.0, 820.7560563988753, 0.0]
['beep', 0.0, 1375.2134293572224, 0.0, 0.0, 0.0, 0.0, 822.7453616553977, 0.0]
['beep', 0.0, 1377.8509352029487, 0.0, 0.0, 0.0, 0.0, 822.7230099109423, 0.0]
['beep', 0.0, 1372.3077025780324, 0.0, 0.0, 0.0, 0.0, 821.0689808212496, 0.0]
['beep', 0.0, 1369.1337548653787, 0.0, 0.0, 0.0, 0.0, 820.3984284875904, 0.0]
['beep', 0.0, 1371.2348188441777, 0.0, 0.0, 0.0, 0.0, 820.0631523207609, 0.0]
['beep', 0.0, 1375.8169264575156, 0.0, 0.0, 0.0, 0.0, 822.2312715329256, 0.0]
['beep', 0.0, 1378.0521009030463, 0.0, 0.0, 0.0, 0.0, 820.9348703545178, 0.0]
['beep', 0.0, 1376.934513680281, 0.0, 0.0, 0.0, 0.0, 818.6996959089871, 0.0]
['beep', 0.0, 1372.5982752559514, 0.0, 0.0, 0.0, 0.0, 817.8950331085961, 0.0]
['beep', 0.0, 1370.4078042993312, 0.0, 0.0, 0.0, 0.0, 818.9232133535402, 0.0]
['beep', 0.0, 1374.028786901091, 0.0, 0.0, 0.0, 0.0, 819.9290418540289, 0.0]
['beep', 0.0, 1374.6322840013843, 0.0, 0.0, 0.0, 0.0, 819.6161174316546, 0.0]
['beep', 0.0, 1372.0394816445687, 0.0, 0.0, 0.0, 0.0, 817.8726813641407, 0.0]
['beep', 0.0, 1371.0336531440798, 0.0, 0.0, 0.0, 0.0, 817.5374051973112, 0.0]
['beep', 0.0, 1376.487478791175, 0.0, 0.0, 0.0, 0.0, 819.0349720758167, 0.0]
['beep', 0.0, 1377.2250863581999, 0.0, 0.0, 0.0, 0.0, 820.1972627874927, 0.0]
['beep', 0.0, 1373.9170281788145, 0.0, 0.0, 0.0, 0.0, 819.7949313872971, 0.0]
['beep', 0.0, 1373.5370485230744, 0.0, 0.0, 0.0, 0.0, 818.0291435753279, 0.0]
['beep', 0.0, 1374.8558014459375, 0.0, 0.0, 0.0, 0.0, 817.2691842638475, 0.0]
['beep', 0.0, 1372.6206270004068, 0.0, 0.0, 0.0, 0.0, 819.6161174316546, 0.0]
['beep', 0.0, 1373.2688275896105, 0.0, 0.0, 0.0, 0.0, 820.0631523207609, 0.0]
['beep', 0.0, 1373.8276212009932, 0.0, 0.0, 0.0, 0.0, 818.833806375719, 0.0]
['beep', 0.0, 1371.1901153552672, 0.0, 0.0, 0.0, 0.0, 819.1467307980932, 0.0]
['beep', 0.0, 1369.2455135876553, 0.0, 0.0, 0.0, 0.0, 820.9572220989731, 0.0]
['beep', 0.0, 1371.927722922292, 0.0, 0.0, 0.0, 0.0, 821.895995366096, 0.0]
['beep', 0.0, 1375.5934090129626, 0.0, 0.0, 0.0, 0.0, 822.0524575772831, 0.0]
['beep', 0.0, 1377.1356793803786, 0.0, 0.0, 0.0, 0.0, 821.3819052436239, 0.0]
['beep', 0.0, 1375.3922433128648, 0.0, 0.0, 0.0, 0.0, 819.5937656871994, 0.0]
['beep', 0.0, 1373.9170281788145, 0.0, 0.0, 0.0, 0.0, 819.6831726650206, 0.0]
['beep', 0.0, 1373.4699932897083, 0.0, 0.0, 0.0, 0.0, 822.0524575772831, 0.0]
['beep', 0.0, 1374.9899119126692, 0.0, 0.0, 0.0, 0.0, 821.9630505994619, 0.0]
