['beep', 0.0, -797.8902218210962, 0.0, 0.0, 0.0, 0.0, -1709.953154319901, 0.0]
['beep', 0.0, -797.577297398722, 0.0, 0.0, 0.0, 0.0, -1708.5449944192167, 0.0]
['beep', 0.0, -792.4810996629119, 0.0, 0.0, 0.0, 0.0, -1706.8686135850685, 0.0]
['beep', 0.0, -789.7765385838197, 0.0, 0.0, 0.0, 0.0, -1706.7792066072473, 0.0]
['beep', 0.0, -792.6152101296437, 0.0, 0.0, 0.0, 0.0, -1708.276773485753, 0.0]
['beep', 0.0, -797.9349253100069, 0.0, 0.0, 0.0, 0.0, -1707.9414973189232, 0.0]
['beep', 0.0, -797.6443526320878, 0.0, 0.0, 0.0, 0.0, -1706.8909653295239, 0.0]
['beep', 0.0, -790.5588496397555, 0.0, 0.0, 0.0, 0.0, -1705.5722124066608, 0.0]
['beep', 0.0, -786.5355356378002, 0.0, 0.0, 0.0, 0.0, -1708.6120496525825, 0.0]
['beep', 0.0, -791.0058845288617, 0.0, 0.0, 0.0, 0.0, -1710.6013549091049, 0.0]
['beep', 0.0, -796.3926549425906, 0.0, 0.0, 0.0, 0.0, -1712.5459566767165, 0.0]
['beep', 0.0, -795.3421229531912, 0.0, 0.0, 0.0, 0.0, -1710.6684101424707, 0.0]
['beep', 0.0, -789.2624484613477, 0.0, 0.0, 0.0, 0.0, -1709.304953730697, 0.0]
['beep', 0.0, -786.5355356378002, 0.0, 0.0, 0.0, 0.0, -1708.3885322080293, 0.0]
['beep', 0.0, -789.6200763726326, 0.0, 0.0, 0.0, 0.0, -1709.7296368753478, 0.0]
['beep', 0.0, -793.9786665414175, 0.0, 0.0, 0.0, 0.0, -1711.1825002649427, 0.0]
['beep', 0.0, -797.3314282097135, 0.0, 0.0, 0.0, 0.0, -1705.013418795278, 0.0]
['beep', 0.0, -797.4208351875347, 0.0, 0.0, 0.0, 0.0, -1697.1903082359206, 0.0]
['beep', 0.0, -796.2808962203142, 0.0, 0.0, 0.0, 0.0, -1694.4186919234626, 0.0]
['beep', 0.0, -799.9465823109845, 0.0, 0.0, 0.0, 0.0, -1699.0902065146217, 0.0]
['beep', 0.0, -804.4169312020459, 0.0, 0.0, 0.0, 0.0, -1698.6431716255156, 0.0]
['beep', 0.0, -804.6180969021436, 0.0, 0.0, 0.0, 0.0, -1694.6869128569263, 0.0]
['beep', 0.0, -800.3042102222694, 0.0, 0.0, 0.0, 0.0, -1693.6140291230715, 0.0]
['beep', 0.0, -796.0350270313057, 0.0, 0.0, 0.0, 0.0, -1696.3856454355296, 0.0]
['beep', 0.0, -798.963105554951, 0.0, 0.0, 0.0, 0.0, -1698.9784477923452, 0.0]
['beep', 0.0, -804.8639660911521, 0.0, 0.0, 0.0, 0.0, -1701.370084449063, 0.0]
['beep', 0.0, -803.2993439792805, 0.0, 0.0, 0.0, 0.0, -1698.5537646476944, 0.0]
['beep', 0.0, -799.2313264884147, 0.0, 0.0, 0.0, 0.0, -1696.9444390469123, 0.0]
['beep', 0.0, -796.34795145368, 0.0, 0.0, 0.0, 0.0, -1699.850165826102, 0.0]
['beep', 0.0, -799.767768355342, 0.0, 0.0, 0.0, 0.0, -1698.9337443034344, 0.0]
['beep', 0.0, -805.5792219137219, 0.0, 0.0, 0.0, 0.0, -1701.5712501491607, 0.0]
['beep', 0.0, -804.7522073688755, 0.0, 0.0, 0.0, 0.0, -1701.794767593714, 0.0]
['beep', 0.0, -799.477195677423, 0.0, 0.0, 0.0, 0.0, -1699.9172210594681, 0.0]
['beep', 0.0, -797.5549456542666, 0.0, 0.0, 0.0, 0.0, -1700.2301454818423, 0.0]
['beep', 0.0, -800.6841898780096, 0.0, 0.0, 0.0, 0.0, -1701.2806774712417, 0.0]
['beep', 0.0, -805.4227597025347, 0.0, 0.0, 0.0, 0.0, -1701.8841745715351, 0.0]
['beep', 0.0, -805.154538769071, 0.0, 0.0, 0.0, 0.0, -1701.1912704934205, 0.0]
['beep', 0.0, -800.1030445221717, 0.0, 0.0, 0.0, 0.0, -1700.1183867595657, 0.0]
['beep', 0.0, -798.0019805433727, 0.0, 0.0, 0.0, 0.0, -1699.4478344259066, 0.0]
['beep', 0.0, -800.7288933669203, 0.0, 0.0, 0.0, 0.0, -1703.761721105781, 0.0]
['beep', 0.0, -804.1934137574929, 0.0, 0.0, 0.0, 0.0, -1705.236936239831, 0.0]
['beep', 0.0, -804.7075038799649, 0.0, 0.0, 0.0, 0.0, -1704.1864042504317, 0.0]
['beep', 0.0, -798.9184020660404, 0.0, 0.0, 0.0, 0.0, -1700.9901047933229, 0.0]
['beep', 0.0, -797.4431869319901, 0.0, 0.0, 0.0, 0.0, -1703.046465283211, 0.0]
['beep', 0.0, -800.5053759223672, 0.0, 0.0, 0.0, 0.0, -1703.4487966834065, 0.0]
['beep', 0.0, -806.3838847141129, 0.0, 0.0, 0.0, 0.0, -1706.175709506954, 0.0]
['beep', 0.0, -805.6909806359984, 0.0, 0.0, 0.0, 0.0, -1706.7792066072473, 0.0]
['beep', 0.0, -800.1477480110823, 0.0, 0.0, 0.0, 0.0, -1704.4546251838954, 0.0]
['beep', 0.0, -796.5267654093225, 0.0, 0.0, 0.0, 0.0, -1704.074645528155, 0.0]
['beep', 0.0, -802.0476462897833, 0.0, 0.0, 0.0, 0.0, -1704.856956584091, 0.0]
['beep', 0.0, -807.4791201924229, 0.0, 0.0, 0.0, 0.0, -1707.5838694076383, 0.0]
['beep', 0.0, -806.7415126253978, 0.0, 0.0, 0.0, 0.0, -1704.5887356506273, 0.0]
['beep', 0.0, -801.4441491894901, 0.0, 0.0, 0.0, 0.0, -1702.979410049845, 0.0]
['beep', 0.0, -798.314904965747, 0.0, 0.0, 0.0, 0.0, -1703.8511280836021, 0.0]
['beep', 0.0, -802.1370532676045, 0.0, 0.0, 0.0, 0.0, -1705.4828054288396, 0.0]
['beep', 0.0, -806.9426783254955, 0.0, 0.0, 0.0, 0.0, -1706.9133170739792, 0.0]
['beep', 0.0, -807.8143963592526, 0.0, 0.0, 0.0, 0.0, -1705.3039914731971, 0.0]
['beep', 0.0, -800.7735968558309, 0.0, 0.0, 0.0, 0.0, -1703.0017617943004, 0.0]
['beep', 0.0, -798.2254979879258, 0.0, 0.0, 0.0, 0.0, -1702.5547269051942, 0.0]
['beep', 0.0, -801.4665009339453, 0.0, 0.0, 0.0, 0.0, -1704.722846117359, 0.0]
['beep', 0.0, -806.5850504142106, 0.0, 0.0, 0.0, 0.0, -1708.6120496525825, 0.0]
['beep', 0.0, -806.0486085472833, 0.0, 0.0, 0.0, 0.0, -1705.1698810064652, 0.0]
['beep', 0.0, -798.5384224103001, 0.0, 0.0, 0.0, 0.0, -1703.7170176168702, 0.0]
['beep', 0.0, -795.8115095867527, 0.0, 0.0, 0.0, 0.0, -1705.728674617848, 0.0]
['beep', 0.0, -800.1700997555375, 0.0, 0.0, 0.0, 0.0, -1705.2592879842864, 0.0]
['beep', 0.0, -805.5792219137219, 0.0, 0.0, 0.0, 0.0, -1707.4721106853617, 0.0]
['beep', 0.0, -805.4227597025347, 0.0, 0.0, 0.0, 0.0, -1703.8511280836021, 0.0]
['beep', 0.0, -799.0972160216828, 0.0, 0.0, 0.0, 0.0, -1701.9959332938115, 0.0]
['beep', 0.0, -796.7502828538755, 0.0, 0.0, 0.0, 0.0, -1705.1698810064652, 0.0]
['beep', 0.0, -799.9912857998951, 0.0, 0.0, 0.0, 0.0, -1709.886099086535, 0.0]
['beep', 0.0, -805.8250911027302, 0.0, 0.0, 0.0, 0.0, -1707.5168141742724, 0.0]
['beep', 0.0, -804.1040067796716, 0.0, 0.0, 0.0, 0.0, -1705.6169158955713, 0.0]
['beep', 0.0, -798.091387521194, 0.0, 0.0, 0.0, 0.0, -1706.6003926516048, 0.0]
['beep', 0.0, -794.5374601528001, 0.0, 0.0, 0.0, 0.0, -1705.9745438068562, 0.0]
['beep', 0.0, -798.091387521194, 0.0, 0.0, 0.0, 0.0, -1707.203889751898, 0.0]
['beep', 0.0, -804.6180969021436, 0.0, 0.0, 0.0, 0.0, -1707.0921310296217, 0.0]
['beep', 0.0, -804.2157655019481, 0.0, 0.0, 0.0, 0.0, -1703.761721105781, 0.0]
['beep', 0.0, -798.091387521194, 0.0, 0.0, 0.0, 0.0, -1700.9006978155016, 0.0]
['beep', 0.0, -795.1856607420041, 0.0, 0.0, 0.0, 0.0, -1704.566383906172, 0.0]
['beep', 0.0, -797.9796287989175, 0.0, 0.0, 0.0, 0.0, -1706.823910096158, 0.0]
['beep', 0.0, -804.2604689908587, 0.0, 0.0, 0.0, 0.0, -1706.9356688184344, 0.0]
['beep', 0.0, -805.4227597025347, 0.0, 0.0, 0.0, 0.0, -1706.019247295767, 0.0]
['beep', 0.0, -798.6501811325767, 0.0, 0.0, 0.0, 0.0, -1701.9288780604456, 0.0]
['beep', 0.0, -793.9563147969621, 0.0, 0.0, 0.0, 0.0, -1703.8064245946914, 0.0]
['beep', 0.0, -798.091387521194, 0.0, 0.0, 0.0, 0.0, -1704.0299420392446, 0.0]
['beep', 0.0, -802.4946811788894, 0.0, 0.0, 0.0, 0.0, -1703.9628868058787, 0.0]
['beep', 0.0, -802.6287916456213, 0.0, 0.0, 0.0, 0.0, -1705.4157501954735, 0.0]
['beep', 0.0, -797.1973177429817, 0.0, 0.0, 0.0, 0.0, -1704.0299420392446, 0.0]
['beep', 0.0, -793.285762463303, 0.0, 0.0, 0.0, 0.0, -1705.1922327509205, 0.0]
['beep', 0.0, -797.4208351875347, 0.0, 0.0, 0.0, 0.0, -1706.0863025291328, 0.0]
['beep', 0.0, -803.6346201461101, 0.0, 0.0, 0.0, 0.0, -1706.6674478849707, 0.0]
['beep', 0.0, -803.4781579349229, 0.0, 0.0, 0.0, 0.0, -1705.0357705397334, 0.0]
['beep', 0.0, -798.0243322878281, 0.0, 0.0, 0.0, 0.0, -1703.4711484278619, 0.0]
['beep', 0.0, -794.5821636417107, 0.0, 0.0, 0.0, 0.0, -1703.1358722610323, 0.0]
['beep', 0.0, -798.2254979879258, 0.0, 0.0, 0.0, 0.0, -1704.9016600730015, 0.0]
['beep', 0.0, -804.4392829465012, 0.0, 0.0, 0.0, 0.0, -1704.4099216949849, 0.0]
['beep', 0.0, -803.1652335125486, 0.0, 0.0, 0.0, 0.0, -1705.080474028644, 0.0]
['beep', 0.0, -797.1973177429817, 0.0, 0.0, 0.0, 0.0, -1705.6392676400267, 0.0]
['beep', 0.0, -793.3528176966689, 0.0, 0.0, 0.0, 0.0, -1706.533337418239, 0.0]
['beep', 0.0, -796.1914892424929, 0.0, 0.0, 0.0, 0.0, -1705.885136829035, 0.0]
['beep', 0.0, -800.9971143003839, 0.0, 0.0, 0.0, 0.0, -1706.1980612514094, 0.0]
['beep', 0.0, -802.4723294344342, 0.0, 0.0, 0.0, 0.0, -1705.52750891775, 0.0]
['beep', 0.0, -797.1749659985264, 0.0, 0.0, 0.0, 0.0, -1704.1417007615212, 0.0]
['beep', 0.0, -793.1740037410265, 0.0, 0.0, 0.0, 0.0, -1704.5216804172612, 0.0]
['beep', 0.0, -797.5996491431772, 0.0, 0.0, 0.0, 0.0, -1704.499328672806, 0.0]
['beep', 0.0, -802.1370532676045, 0.0, 0.0, 0.0, 0.0, -1704.5216804172612, 0.0]
['beep', 0.0, -802.2935154787917, 0.0, 0.0, 0.0, 0.0, -1705.8180815956691, 0.0]
['beep', 0.0, -797.0855590207052, 0.0, 0.0, 0.0, 0.0, -1705.8180815956691, 0.0]
['beep', 0.0, -794.0010182858728, 0.0, 0.0, 0.0, 0.0, -1706.3768752070519, 0.0]
['beep', 0.0, -796.3255997092248, 0.0, 0.0, 0.0, 0.0, -1707.919145574468, 0.0]
['beep', 0.0, -803.0758265347274, 0.0, 0.0, 0.0, 0.0, -1709.14849151951, 0.0]
['beep', 0.0, -803.8357858462078, 0.0, 0.0, 0.0, 0.0, -1707.5391659187278, 0.0]
['beep', 0.0, -797.1973177429817, 0.0, 0.0, 0.0, 0.0, -1705.9074885734904, 0.0]
['beep', 0.0, -793.285762463303, 0.0, 0.0, 0.0, 0.0, -1709.4837676863394, 0.0]
['beep', 0.0, -796.3926549425906, 0.0, 0.0, 0.0, 0.0, -1709.9308025754456, 0.0]
['beep', 0.0, -804.0145998018503, 0.0, 0.0, 0.0, 0.0, -1715.1164072890767, 0.0]
['beep', 0.0, -806.316829480747, 0.0, 0.0, 0.0, 0.0, -1719.1844247799427, 0.0]
['beep', 0.0, -793.6880938634985, 0.0, 0.0, 0.0, 0.0, -1723.72182890437, 0.0]
['beep', 0.0, -786.2002594709706, 0.0, 0.0, 0.0, 0.0, -1736.663488943993, 0.0]
['beep', 0.0, -789.3965589280796, 0.0, 0.0, 0.0, 0.0, -1753.561407752205, 0.0]
['beep', 0.0, -801.3547422116688, 0.0, 0.0, 0.0, 0.0, -1766.883047447568, 0.0]
['beep', 0.0, -806.3838847141129, 0.0, 0.0, 0.0, 0.0, -1777.3213121081965, 0.0]
['beep', 0.0, -795.543288653289, 0.0, 0.0, 0.0, 0.0, -1787.111376179621, 0.0]
['beep', 0.0, -792.9728380409287, 0.0, 0.0, 0.0, 0.0, -1800.2318501748862, 0.0]
['beep', 0.0, -791.6317333736102, 0.0, 0.0, 0.0, 0.0, -1810.401893902051, 0.0]
['beep', 0.0, -800.2148032444481, 0.0, 0.0, 0.0, 0.0, -1818.8955567950675, 0.0]
['beep', 0.0, -802.0476462897833, 0.0, 0.0, 0.0, 0.0, -1827.4786266659055, 0.0]
['beep', 0.0, -798.381960199113, 0.0, 0.0, 0.0, 0.0, -1834.4747226804166, 0.0]
['beep', 0.0, -796.9738002984286, 0.0, 0.0, 0.0, 0.0, -1843.7730483738244, 0.0]
['beep', 0.0, -798.6054776436661, 0.0, 0.0, 0.0, 0.0, -1850.1432955435869, 0.0]
['beep', 0.0, -805.8921463360962, 0.0, 0.0, 0.0, 0.0, -1856.9829293469109, 0.0]
['beep', 0.0, -808.2614312483587, 0.0, 0.0, 0.0, 0.0, -1863.5543422167711, 0.0]
['beep', 0.0, -806.9203265810403, 0.0, 0.0, 0.0, 0.0, -1870.5280864868269, 0.0]
['beep', 0.0, -806.316829480747, 0.0, 0.0, 0.0, 0.0, -1878.6864732130139, 0.0]
['beep', 0.0, -807.9485068259844, 0.0, 0.0, 0.0, 0.0, -1886.3084180722735, 0.0]
['beep', 0.0, -813.6929051509983, 0.0, 0.0, 0.0, 0.0, -1891.0693396412541, 0.0]
['beep', 0.0, -814.8775476071296, 0.0, 0.0, 0.0, 0.0, -1894.4444530540054, 0.0]
['beep', 0.0, -809.6025359156771, 0.0, 0.0, 0.0, 0.0, -1896.165537377064, 0.0]
['beep', 0.0, -806.9426783254955, 0.0, 0.0, 0.0, 0.0, -1895.360874576673, 0.0]
['beep', 0.0, -811.5024341943782, 0.0, 0.0, 0.0, 0.0, -1895.6290955101367, 0.0]
['beep', 0.0, -815.4363412185122, 0.0, 0.0, 0.0, 0.0, -1897.3501798331954, 0.0]
['beep', 0.0, -814.6093266736659, 0.0, 0.0, 0.0, 0.0, -1898.0430839113099, 0.0]
['beep', 0.0, -811.0106958163615, 0.0, 0.0, 0.0, 0.0, -1897.8642699556674, 0.0]
['beep', 0.0, -808.2167277594481, 0.0, 0.0, 0.0, 0.0, -1897.32782808874, 0.0]
['beep', 0.0, -812.3965039725905, 0.0, 0.0, 0.0, 0.0, -1895.8526129546897, 0.0]
['beep', 0.0, -816.0398383188056, 0.0, 0.0, 0.0, 0.0, -1901.1723281350528, 0.0]
['beep', 0.0, -814.6316784181212, 0.0, 0.0, 0.0, 0.0, -1901.1499763905974, 0.0]
['beep', 0.0, -809.1778527710263, 0.0, 0.0, 0.0, 0.0, -1894.556211776282, 0.0]
['beep', 0.0, -808.283782992814, 0.0, 0.0, 0.0, 0.0, -1893.5727350202485, 0.0]
['beep', 0.0, -812.1729865280374, 0.0, 0.0, 0.0, 0.0, -1898.2442496114077, 0.0]
['beep', 0.0, -814.5422714402999, 0.0, 0.0, 0.0, 0.0, -1904.010999680877, 0.0]
['beep', 0.0, -812.5082626948671, 0.0, 0.0, 0.0, 0.0, -1903.8545374696896, 0.0]
['beep', 0.0, -809.0437423042945, 0.0, 0.0, 0.0, 0.0, -1897.9313251890333, 0.0]
['beep', 0.0, -809.379018471124, 0.0, 0.0, 0.0, 0.0, -1895.5620402767709, 0.0]
['beep', 0.0, -812.798835372786, 0.0, 0.0, 0.0, 0.0, -1899.7641682343685, 0.0]
['beep', 0.0, -816.218652274448, 0.0, 0.0, 0.0, 0.0, -1906.1791188930415, 0.0]
['beep', 0.0, -814.5422714402999, 0.0, 0.0, 0.0, 0.0, -1906.9614299489774, 0.0]
['beep', 0.0, -810.3177917382469, 0.0, 0.0, 0.0, 0.0, -1898.9371536895221, 0.0]
['beep', 0.0, -809.4013702155794, 0.0, 0.0, 0.0, 0.0, -1893.393921064606, 0.0]
['beep', 0.0, -813.8493673621855, 0.0, 0.0, 0.0, 0.0, -1899.004208922888, 0.0]
['beep', 0.0, -816.1515970410821, 0.0, 0.0, 0.0, 0.0, -1906.2238223819522, 0.0]
['beep', 0.0, -814.5422714402999, 0.0, 0.0, 0.0, 0.0, -1906.0673601707651, 0.0]
['beep', 0.0, -810.6530679050766, 0.0, 0.0, 0.0, 0.0, -1900.5464792903042, 0.0]
['beep', 0.0, -810.7871783718084, 0.0, 0.0, 0.0, 0.0, -1892.8351274532233, 0.0]
['beep', 0.0, -815.0787133072273, 0.0, 0.0, 0.0, 0.0, -1896.4561100549831, 0.0]
['beep', 0.0, -816.8445011191966, 0.0, 0.0, 0.0, 0.0, -1906.5367468043264, 0.0]
['beep', 0.0, -815.413989474057, 0.0, 0.0, 0.0, 0.0, -1905.7544357483907, 0.0]
['beep', 0.0, -811.9494690834844, 0.0, 0.0, 0.0, 0.0, -1897.5736972777484, 0.0]
['beep', 0.0, -810.1613295270598, 0.0, 0.0, 0.0, 0.0, -1893.3492175756953, 0.0]
['beep', 0.0, -812.5306144393223, 0.0, 0.0, 0.0, 0.0, -1897.0149036663656, 0.0]
['beep', 0.0, -815.7939691297971, 0.0, 0.0, 0.0, 0.0, -1902.6475432691032, 0.0]
['beep', 0.0, -814.4081609735681, 0.0, 0.0, 0.0, 0.0, -1901.8875839576226, 0.0]
['beep', 0.0, -808.3731899706353, 0.0, 0.0, 0.0, 0.0, -1896.813737966268, 0.0]
['beep', 0.0, -809.6695911490431, 0.0, 0.0, 0.0, 0.0, -1895.7855577213238, 0.0]
['beep', 0.0, -818.9455650979954, 0.0, 0.0, 0.0, 0.0, -1901.7981769798014, 0.0]
['beep', 0.0, -819.8843383651183, 0.0, 0.0, 0.0, 0.0, -1909.0848456722315, 0.0]
['beep', 0.0, -815.1681202850485, 0.0, 0.0, 0.0, 0.0, -1912.035275940332, 0.0]
['beep', 0.0, -815.4363412185122, 0.0, 0.0, 0.0, 0.0, -1903.9886479364216, 0.0]
['beep', 0.0, -816.3751144856352, 0.0, 0.0, 0.0, 0.0, -1896.9478484329998, 0.0]
['beep', 0.0, -819.0126203313614, 0.0, 0.0, 0.0, 0.0, -1901.7981769798014, 0.0]
['beep', 0.0, -822.410085488568, 0.0, 0.0, 0.0, 0.0, -1910.5377090618265, 0.0]
['beep', 0.0, -819.1690825425485, 0.0, 0.0, 0.0, 0.0, -1910.068322428265, 0.0]
['beep', 0.0, -815.3692859851463, 0.0, 0.0, 0.0, 0.0, -1903.4745578139496, 0.0]
['beep', 0.0, -814.8775476071296, 0.0, 0.0, 0.0, 0.0, -1898.8924502006116, 0.0]
['beep', 0.0, -817.9397365975067, 0.0, 0.0, 0.0, 0.0, -1902.6698950135583, 0.0]
['beep', 0.0, -823.2147482889591, 0.0, 0.0, 0.0, 0.0, -1910.1577294060862, 0.0]
['beep', 0.0, -820.5325389543223, 0.0, 0.0, 0.0, 0.0, -1912.5493660628042, 0.0]
['beep', 0.0, -816.2633557633586, 0.0, 0.0, 0.0, 0.0, -1906.8049677377903, 0.0]
['beep', 0.0, -815.6151551741547, 0.0, 0.0, 0.0, 0.0, -1901.9322874465333, 0.0]
['beep', 0.0, -818.1185505531491, 0.0, 0.0, 0.0, 0.0, -1905.977953192944, 0.0]
['beep', 0.0, -821.3372017547133, 0.0, 0.0, 0.0, 0.0, -1914.1810434080414, 0.0]
['beep', 0.0, -820.219614531948, 0.0, 0.0, 0.0, 0.0, -1913.778712007846, 0.0]
['beep', 0.0, -815.6822104075206, 0.0, 0.0, 0.0, 0.0, -1908.8166247387678, 0.0]
['beep', 0.0, -816.0398383188056, 0.0, 0.0, 0.0, 0.0, -1903.6310200251366, 0.0]
['beep', 0.0, -818.5879371867105, 0.0, 0.0, 0.0, 0.0, -1905.3074008592846, 0.0]
['beep', 0.0, -821.3819052436239, 0.0, 0.0, 0.0, 0.0, -1911.9905724514215, 0.0]
['beep', 0.0, -820.2419662764033, 0.0, 0.0, 0.0, 0.0, -1913.5551945632928, 0.0]
['beep', 0.0, -815.9504313409843, 0.0, 0.0, 0.0, 0.0, -1906.4026363375947, 0.0]
['beep', 0.0, -814.6316784181212, 0.0, 0.0, 0.0, 0.0, -1902.6028397801924, 0.0]
['beep', 0.0, -819.5490621982888, 0.0, 0.0, 0.0, 0.0, -1908.4142933385724, 0.0]
['beep', 0.0, -822.0077540883725, 0.0, 0.0, 0.0, 0.0, -1913.5551945632928, 0.0]
['beep', 0.0, -819.2137860314591, 0.0, 0.0, 0.0, 0.0, -1913.5775463077482, 0.0]
['beep', 0.0, -816.6433354190989, 0.0, 0.0, 0.0, 0.0, -1907.1849473935304, 0.0]
['beep', 0.0, -813.4693877064452, 0.0, 0.0, 0.0, 0.0, -1901.3064386017847, 0.0]
['beep', 0.0, -815.8610243631631, 0.0, 0.0, 0.0, 0.0, -1904.390979336617, 0.0]
['beep', 0.0, -816.0174865743503, 0.0, 0.0, 0.0, 0.0, -1911.230613139941, 0.0]
['beep', 0.0, -814.1399400401044, 0.0, 0.0, 0.0, 0.0, -1912.7281800184467, 0.0]
['beep', 0.0, -809.6248876601325, 0.0, 0.0, 0.0, 0.0, -1905.195642137008, 0.0]
['beep', 0.0, -809.2449080043922, 0.0, 0.0, 0.0, 0.0, -1900.1217961456534, 0.0]
['beep', 0.0, -815.928079596529, 0.0, 0.0, 0.0, 0.0, -1901.8205287242567, 0.0]
['beep', 0.0, -820.219614531948, 0.0, 0.0, 0.0, 0.0, -1908.5484038053041, 0.0]
['beep', 0.0, -819.5043587093782, 0.0, 0.0, 0.0, 0.0, -1909.263659627874, 0.0]
['beep', 0.0, -817.4256464750346, 0.0, 0.0, 0.0, 0.0, -1900.0770926567427, 0.0]
['beep', 0.0, -815.2798790073251, 0.0, 0.0, 0.0, 0.0, -1896.23259261043, 0.0]
['beep', 0.0, -816.3304109967246, 0.0, 0.0, 0.0, 0.0, -1901.6640665130697, 0.0]
['beep', 0.0, -821.6501261770876, 0.0, 0.0, 0.0, 0.0, -1906.8496712267008, 0.0]
['beep', 0.0, -823.5947279446993, 0.0, 0.0, 0.0, 0.0, -1889.1917931070082, 0.0]
['beep', 0.0, -819.4373034760122, 0.0, 0.0, 0.0, 0.0, -1860.6933189264917, 0.0]
['beep', 0.0, -818.6773441645317, 0.0, 0.0, 0.0, 0.0, -1836.2181587479306, 0.0]
['beep', 0.0, -821.4042569880793, 0.0, 0.0, 0.0, 0.0, -1819.0967224951653, 0.0]
['beep', 0.0, -821.895995366096, 0.0, 0.0, 0.0, 0.0, -1798.8683937631124, 0.0]
['beep', 0.0, -820.8678151211519, 0.0, 0.0, 0.0, 0.0, -1771.6663207610038, 0.0]
['beep', 0.0, -818.1185505531491, 0.0, 0.0, 0.0, 0.0, -1740.753858179314, 0.0]
['beep', 0.0, -817.380942986124, 0.0, 0.0, 0.0, 0.0, -1711.048389798211, 0.0]
['beep', 0.0, -821.1136843101602, 0.0, 0.0, 0.0, 0.0, -1689.5013081432949, 0.0]
['beep', 0.0, -823.9523558559843, 0.0, 0.0, 0.0, 0.0, -1671.7987265346917, 0.0]
['beep', 0.0, -820.3984284875904, 0.0, 0.0, 0.0, 0.0, -1648.5752640456278, 0.0]
['beep', 0.0, -815.1681202850485, 0.0, 0.0, 0.0, 0.0, -1619.629754976005, 0.0]
['beep', 0.0, -815.9727830854396, 0.0, 0.0, 0.0, 0.0, -1595.0875395640778, 0.0]
['beep', 0.0, -820.800759887786, 0.0, 0.0, 0.0, 0.0, -1582.0341208021787, 0.0]
['beep', 0.0, -821.7171814104536, 0.0, 0.0, 0.0, 0.0, -1579.4413184453629, 0.0]
['beep', 0.0, -818.9232133535402, 0.0, 0.0, 0.0, 0.0, -1569.2936264626535, 0.0]
['beep', 0.0, -817.6938674084982, 0.0, 0.0, 0.0, 0.0, -1550.9428442648464, 0.0]
['beep', 0.0, -817.6938674084982, 0.0, 0.0, 0.0, 0.0, -1547.6124343410056, 0.0]
['beep', 0.0, -820.219614531948, 0.0, 0.0, 0.0, 0.0, -1551.1663617093996, 0.0]
['beep', 0.0, -825.0028878453837, 0.0, 0.0, 0.0, 0.0, -1559.7494315802373, 0.0]
['beep', 0.0, -824.3770390006351, 0.0, 0.0, 0.0, 0.0, -1568.6901293623603, 0.0]
['beep', 0.0, -820.219614531948, 0.0, 0.0, 0.0, 0.0, -1566.4326031723742, 0.0]
['beep', 0.0, -819.8396348762077, 0.0, 0.0, 0.0, 0.0, -1572.534629408673, 0.0]
['beep', 0.0, -823.4159139890569, 0.0, 0.0, 0.0, 0.0, -1584.090481292067, 0.0]
['beep', 0.0, -826.478102979434, 0.0, 0.0, 0.0, 0.0, -1597.635638431983, 0.0]
['beep', 0.0, -824.6899634230094, 0.0, 0.0, 0.0, 0.0, -1611.4266647609074, 0.0]
['beep', 0.0, -817.3138877527581, 0.0, 0.0, 0.0, 0.0, -1619.3615340425413, 0.0]
['beep', 0.0, -811.7930068722972, 0.0, 0.0, 0.0, 0.0, -1626.5811475016055, 0.0]
['beep', 0.0, -814.184643529015, 0.0, 0.0, 0.0, 0.0, -1637.0641156511447, 0.0]
['beep', 0.0, -819.3702482426463, 0.0, 0.0, 0.0, 0.0, -1644.0378599212004, 0.0]
['beep', 0.0, -819.4596552204675, 0.0, 0.0, 0.0, 0.0, -1650.1622379019545, 0.0]
['beep', 0.0, -814.5646231847553, 0.0, 0.0, 0.0, 0.0, -1652.8667989810467, 0.0]
['beep', 0.0, -809.7142946379537, 0.0, 0.0, 0.0, 0.0, -1658.5217903282394, 0.0]
['beep', 0.0, -812.061227805761, 0.0, 0.0, 0.0, 0.0, -1663.1486014304878, 0.0]
['beep', 0.0, -817.7162191529536, 0.0, 0.0, 0.0, 0.0, -1668.2895026552085, 0.0]
['beep', 0.0, -816.6209836746435, 0.0, 0.0, 0.0, 0.0, -1673.2292381798313, 0.0]
['beep', 0.0, -811.9718208279396, 0.0, 0.0, 0.0, 0.0, -1676.537296359217, 0.0]
['beep', 0.0, -809.9378120825068, 0.0, 0.0, 0.0, 0.0, -1679.0853952271218, 0.0]
['beep', 0.0, -812.7541318838754, 0.0, 0.0, 0.0, 0.0, -1682.2369911953201, 0.0]
['beep', 0.0, -818.2750127643362, 0.0, 0.0, 0.0, 0.0, -1684.8074418076806, 0.0]
['beep', 0.0, -818.6773441645317, 0.0, 0.0, 0.0, 0.0, -1686.372063919552, 0.0]
['beep', 0.0, -813.3576289841687, 0.0, 0.0, 0.0, 0.0, -1688.271962198253, 0.0]
['beep', 0.0, -808.8202248597414, 0.0, 0.0, 0.0, 0.0, -1691.2670959552643, 0.0]
['beep', 0.0, -809.960163826962, 0.0, 0.0, 0.0, 0.0, -1695.5362791462278, 0.0]
['beep', 0.0, -817.380942986124, 0.0, 0.0, 0.0, 0.0, -1698.8666890700686, 0.0]
['beep', 0.0, -817.090370308205, 0.0, 0.0, 0.0, 0.0, -1697.1456047470099, 0.0]
['beep', 0.0, -811.7259516389313, 0.0, 0.0, 0.0, 0.0, -1695.8045000796915, 0.0]
['beep', 0.0, -807.4567684479676, 0.0, 0.0, 0.0, 0.0, -1697.883212314035, 0.0]
['beep', 0.0, -809.9154603380514, 0.0, 0.0, 0.0, 0.0, -1700.4536629263955, 0.0]
['beep', 0.0, -815.2351755184145, 0.0, 0.0, 0.0, 0.0, -1701.593601893616, 0.0]
['beep', 0.0, -815.1904720295039, 0.0, 0.0, 0.0, 0.0, -1700.3195524596636, 0.0]
['beep', 0.0, -809.379018471124, 0.0, 0.0, 0.0, 0.0, -1700.6101251375826, 0.0]
['beep', 0.0, -806.0933120361939, 0.0, 0.0, 0.0, 0.0, -1701.8841745715351, 0.0]
['beep', 0.0, -808.0155620593503, 0.0, 0.0, 0.0, 0.0, -1703.8064245946914, 0.0]
['beep', 0.0, -813.8493673621855, 0.0, 0.0, 0.0, 0.0, -1703.560555405683, 0.0]
['beep', 0.0, -814.1622917845598, 0.0, 0.0, 0.0, 0.0, -1703.0688170276662, 0.0]
['beep', 0.0, -809.9378120825068, 0.0, 0.0, 0.0, 0.0, -1705.7733781067584, 0.0]
['beep', 0.0, -805.6909806359984, 0.0, 0.0, 0.0, 0.0, -1704.8346048396356, 0.0]
['beep', 0.0, -808.9990388153839, 0.0, 0.0, 0.0, 0.0, -1704.7675496062698, 0.0]
['beep', 0.0, -815.4586929629676, 0.0, 0.0, 0.0, 0.0, -1706.4215786959624, 0.0]
['beep', 0.0, -816.8221493747413, 0.0, 0.0, 0.0, 0.0, -1706.9356688184344, 0.0]
['beep', 0.0, -811.3012684942804, 0.0, 0.0, 0.0, 0.0, -1706.8909653295239, 0.0]
['beep', 0.0, -807.2779544923252, 0.0, 0.0, 0.0, 0.0, -1707.695628129915, 0.0]
['beep', 0.0, -810.7201231384424, 0.0, 0.0, 0.0, 0.0, -1708.3214769746635, 0.0]
['beep', 0.0, -816.6209836746435, 0.0, 0.0, 0.0, 0.0, -1710.8695758425686, 0.0]
['beep', 0.0, -817.9844400864173, 0.0, 0.0, 0.0, 0.0, -1710.8472240981132, 0.0]
['beep', 0.0, -812.2400417614034, 0.0, 0.0, 0.0, 0.0, -1709.3943607085182, 0.0]
['beep', 0.0, -809.0884457932051, 0.0, 0.0, 0.0, 0.0, -1708.7685118637696, 0.0]
['beep', 0.0, -811.3906754721016, 0.0, 0.0, 0.0, 0.0, -1712.367142721074, 0.0]
['beep', 0.0, -817.090370308205, 0.0, 0.0, 0.0, 0.0, -1713.2612124992863, 0.0]
['beep', 0.0, -817.4032947305793, 0.0, 0.0, 0.0, 0.0, -1712.076570043155, 0.0]
['beep', 0.0, -810.7424748828978, 0.0, 0.0, 0.0, 0.0, -1712.2330322543423, 0.0]
['beep', 0.0, -807.3226579812358, 0.0, 0.0, 0.0, 0.0, -1714.7587793777918, 0.0]
['beep', 0.0, -810.8095301162637, 0.0, 0.0, 0.0, 0.0, -1715.9881253228339, 0.0]
['beep', 0.0, -817.380942986124, 0.0, 0.0, 0.0, 0.0, -1714.177634021954, 0.0]
['beep', 0.0, -817.8726813641407, 0.0, 0.0, 0.0, 0.0, -1715.6528491560043, 0.0]
['beep', 0.0, -812.9552975839732, 0.0, 0.0, 0.0, 0.0, -1716.3681049785741, 0.0]
['beep', 0.0, -807.2108992589592, 0.0, 0.0, 0.0, 0.0, -1715.138759033532, 0.0]
['beep', 0.0, -810.1389777826045, 0.0, 0.0, 0.0, 0.0, -1715.6081456670936, 0.0]
['beep', 0.0, -817.6268121751324, 0.0, 0.0, 0.0, 0.0, -1717.306878245697, 0.0]
['beep', 0.0, -817.0456668192944, 0.0, 0.0, 0.0, 0.0, -1716.658677656493, 0.0]
['beep', 0.0, -811.1895097720039, 0.0, 0.0, 0.0, 0.0, -1716.144587534021, 0.0]
['beep', 0.0, -808.3955417150905, 0.0, 0.0, 0.0, 0.0, -1718.4468172129175, 0.0]
['beep', 0.0, -811.8377103612078, 0.0, 0.0, 0.0, 0.0, -1717.597450923616, 0.0]
['beep', 0.0, -817.7162191529536, 0.0, 0.0, 0.0, 0.0, -1717.1280642900545, 0.0]
['beep', 0.0, -816.866852863652, 0.0, 0.0, 0.0, 0.0, -1717.083360801144, 0.0]
['beep', 0.0, -812.3070969947693, 0.0, 0.0, 0.0, 0.0, -1718.8938521020236, 0.0]
['beep', 0.0, -808.9543353264733, 0.0, 0.0, 0.0, 0.0, -1720.1231980470657, 0.0]
['beep', 0.0, -810.6754196495318, 0.0, 0.0, 0.0, 0.0, -1721.7548753923031, 0.0]
['beep', 0.0, -815.413989474057, 0.0, 0.0, 0.0, 0.0, -1720.1902532804315, 0.0]
['beep', 0.0, -816.218652274448, 0.0, 0.0, 0.0, 0.0, -1718.9609073353897, 0.0]
['beep', 0.0, -810.4519022049788, 0.0, 0.0, 0.0, 0.0, -1720.4808259583506, 0.0]
['beep', 0.0, -806.6968091364872, 0.0, 0.0, 0.0, 0.0, -1719.6538114135042, 0.0]
['beep', 0.0, -810.9659923274509, 0.0, 0.0, 0.0, 0.0, -1721.2631370142863, 0.0]
['beep', 0.0, -815.63750691861, 0.0, 0.0, 0.0, 0.0, -1722.5148347037834, 0.0]
['beep', 0.0, -815.0340098183167, 0.0, 0.0, 0.0, 0.0, -1722.693648659426, 0.0]
['beep', 0.0, -812.9105940950626, 0.0, 0.0, 0.0, 0.0, -1718.8491486131131, 0.0]
['beep', 0.0, -811.122454538638, 0.0, 0.0, 0.0, 0.0, -1719.7432183913254, 0.0]
['beep', 0.0, -806.9426783254955, 0.0, 0.0, 0.0, 0.0, -1717.0386573122332, 0.0]
['beep', 0.0, -807.4344167035123, 0.0, 0.0, 0.0, 0.0, -1710.3331339756412, 0.0]
['beep', 0.0, -805.44511144699, 0.0, 0.0, 0.0, 0.0, -1706.5556891626943, 0.0]
['beep', 0.0, -800.8183003447415, 0.0, 0.0, 0.0, 0.0, -1707.4050554519958, 0.0]
['beep', 0.0, -796.5491171537778, 0.0, 0.0, 0.0, 0.0, -1708.5449944192167, 0.0]
['beep', 0.0, -799.5666026552442, 0.0, 0.0, 0.0, 0.0, -1707.8073868521915, 0.0]
['beep', 0.0, -805.7580358693643, 0.0, 0.0, 0.0, 0.0, -1708.8132153526803, 0.0]
['beep', 0.0, -805.3333527247134, 0.0, 0.0, 0.0, 0.0, -1708.656753141493, 0.0]
['beep', 0.0, -801.3770939561241, 0.0, 0.0, 0.0, 0.0, -1711.9424595764233, 0.0]
['beep', 0.0, -797.7114078654538, 0.0, 0.0, 0.0, 0.0, -1712.4789014433507, 0.0]
['beep', 0.0, -800.2371549889035, 0.0, 0.0, 0.0, 0.0, -1708.8132153526803, 0.0]
['beep', 0.0, -808.0826172927162, 0.0, 0.0, 0.0, 0.0, -1707.8073868521915, 0.0]
['beep', 0.0, -806.9873818144061, 0.0, 0.0, 0.0, 0.0, -1708.0085525522893, 0.0]
['beep', 0.0, -801.734721867409, 0.0, 0.0, 0.0, 0.0, -1708.2320699968423, 0.0]
['beep', 0.0, -798.7842915993085, 0.0, 0.0, 0.0, 0.0, -1709.886099086535, 0.0]
['beep', 0.0, -800.6618381335543, 0.0, 0.0, 0.0, 0.0, -1709.2826019862416, 0.0]
['beep', 0.0, -806.2050707584705, 0.0, 0.0, 0.0, 0.0, -1708.8355670971355, 0.0]
['beep', 0.0, -808.5967074151883, 0.0, 0.0, 0.0, 0.0, -1711.1377967760322, 0.0]
['beep', 0.0, -801.3547422116688, 0.0, 0.0, 0.0, 0.0, -1712.143625276521, 0.0]
['beep', 0.0, -797.8231665877303, 0.0, 0.0, 0.0, 0.0, -1709.9978578088114, 0.0]
['beep', 0.0, -801.1759282560264, 0.0, 0.0, 0.0, 0.0, -1709.2602502417865, 0.0]
['beep', 0.0, -804.9757248134285, 0.0, 0.0, 0.0, 0.0, -1709.3273054751523, 0.0]
['beep', 0.0, -805.8921463360962, 0.0, 0.0, 0.0, 0.0, -1710.9366310759344, 0.0]
['beep', 0.0, -800.5053759223672, 0.0, 0.0, 0.0, 0.0, -1710.6013549091049, 0.0]
['beep', 0.0, -796.057378775761, 0.0, 0.0, 0.0, 0.0, -1710.109616531088, 0.0]
['beep', 0.0, -798.9854572994062, 0.0, 0.0, 0.0, 0.0, -1712.076570043155, 0.0]
['beep', 0.0, -804.9757248134285, 0.0, 0.0, 0.0, 0.0, -1711.0707415426662, 0.0]
['beep', 0.0, -806.8309196032191, 0.0, 0.0, 0.0, 0.0, -1709.2378984973311, 0.0]
['beep', 0.0, -801.6229631451325, 0.0, 0.0, 0.0, 0.0, -1707.7403316188256, 0.0]
['beep', 0.0, -796.9738002984286, 0.0, 0.0, 0.0, 0.0, -1709.461415941884, 0.0]
['beep', 0.0, -799.1195677661381, 0.0, 0.0, 0.0, 0.0, -1709.5731746641607, 0.0]
['beep', 0.0, -806.5626986697554, 0.0, 0.0, 0.0, 0.0, -1710.6684101424707, 0.0]
['beep', 0.0, -807.8143963592526, 0.0, 0.0, 0.0, 0.0, -1710.3778374645517, 0.0]
['beep', 0.0, -801.3323904672135, 0.0, 0.0, 0.0, 0.0, -1709.439064197429, 0.0]
['beep', 0.0, -795.9679717979398, 0.0, 0.0, 0.0, 0.0, -1708.142663019021, 0.0]
['beep', 0.0, -800.3712654556354, 0.0, 0.0, 0.0, 0.0, -1709.081436286144, 0.0]
['beep', 0.0, -806.4956434363894, 0.0, 0.0, 0.0, 0.0, -1709.9978578088114, 0.0]
['beep', 0.0, -805.2662974913476, 0.0, 0.0, 0.0, 0.0, -1709.662581641982, 0.0]
['beep', 0.0, -799.7901200997973, 0.0, 0.0, 0.0, 0.0, -1707.6732763854595, 0.0]
['beep', 0.0, -797.1302625096158, 0.0, 0.0, 0.0, 0.0, -1711.271907242764, 0.0]
['beep', 0.0, -800.0136375443503, 0.0, 0.0, 0.0, 0.0, -1714.401151466507, 0.0]
['beep', 0.0, -804.9310213245179, 0.0, 0.0, 0.0, 0.0, -1713.7976543662137, 0.0]
['beep', 0.0, -806.1380155251045, 0.0, 0.0, 0.0, 0.0, -1712.724770632359, 0.0]
['beep', 0.0, -801.3323904672135, 0.0, 0.0, 0.0, 0.0, -1709.7072851308926, 0.0]
['beep', 0.0, -795.8115095867527, 0.0, 0.0, 0.0, 0.0, -1710.467244442373, 0.0]
['beep', 0.0, -800.6841898780096, 0.0, 0.0, 0.0, 0.0, -1713.1271020325546, 0.0]
['beep', 0.0, -805.9368498250068, 0.0, 0.0, 0.0, 0.0, -1711.3166107316747, 0.0]
['beep', 0.0, -807.5461754257889, 0.0, 0.0, 0.0, 0.0, -1713.7976543662137, 0.0]
['beep', 0.0, -801.0641695337498, 0.0, 0.0, 0.0, 0.0, -1714.0882270441327, 0.0]
['beep', 0.0, -797.5325939098113, 0.0, 0.0, 0.0, 0.0, -1714.110578788588, 0.0]
['beep', 0.0, -800.9077073225627, 0.0, 0.0, 0.0, 0.0, -1715.8763666005573, 0.0]
['beep', 0.0, -806.4956434363894, 0.0, 0.0, 0.0, 0.0, -1714.1999857664093, 0.0]
['beep', 0.0, -806.4956434363894, 0.0, 0.0, 0.0, 0.0, -1713.6411921550266, 0.0]
['beep', 0.0, -802.6734951345319, 0.0, 0.0, 0.0, 0.0, -1713.52943343275, 0.0]
['beep', 0.0, -797.4655386764454, 0.0, 0.0, 0.0, 0.0, -1712.9482880769121, 0.0]
['beep', 0.0, -800.7959486002861, 0.0, 0.0, 0.0, 0.0, -1714.2893927442306, 0.0]
['beep', 0.0, -806.5179951808448, 0.0, 0.0, 0.0, 0.0, -1715.4516834559065, 0.0]
['beep', 0.0, -806.2497742473811, 0.0, 0.0, 0.0, 0.0, -1716.6139741675825, 0.0]
['beep', 0.0, -801.4665009339453, 0.0, 0.0, 0.0, 0.0, -1714.9152415889791, 0.0]
['beep', 0.0, -797.1749659985264, 0.0, 0.0, 0.0, 0.0, -1714.9152415889791, 0.0]
['beep', 0.0, -799.2313264884147, 0.0, 0.0, 0.0, 0.0, -1716.278698000753, 0.0]
['beep', 0.0, -805.221594002437, 0.0, 0.0, 0.0, 0.0, -1716.301049745208, 0.0]
['beep', 0.0, -806.3615329696576, 0.0, 0.0, 0.0, 0.0, -1714.4235032109623, 0.0]
['beep', 0.0, -800.3712654556354, 0.0, 0.0, 0.0, 0.0, -1713.0823985436439, 0.0]
['beep', 0.0, -796.9738002984286, 0.0, 0.0, 0.0, 0.0, -1714.9152415889791, 0.0]
['beep', 0.0, -799.9242305665291, 0.0, 0.0, 0.0, 0.0, -1714.7587793777918, 0.0]
['beep', 0.0, -805.8250911027302, 0.0, 0.0, 0.0, 0.0, -1716.8821951010461, 0.0]
['beep', 0.0, -806.5850504142106, 0.0, 0.0, 0.0, 0.0, -1716.3681049785741, 0.0]
['beep', 0.0, -801.3994457005795, 0.0, 0.0, 0.0, 0.0, -1715.1834625224428, 0.0]
['beep', 0.0, -795.9679717979398, 0.0, 0.0, 0.0, 0.0, -1716.3904567230293, 0.0]
['beep', 0.0, -798.7842915993085, 0.0, 0.0, 0.0, 0.0, -1716.725732889859, 0.0]
['beep', 0.0, -804.5510416687778, 0.0, 0.0, 0.0, 0.0, -1717.7762648792584, 0.0]
['beep', 0.0, -805.2439457468922, 0.0, 0.0, 0.0, 0.0, -1715.921070089468, 0.0]
['beep', 0.0, -800.2371549889035, 0.0, 0.0, 0.0, 0.0, -1713.4176747104734, 0.0]
['beep', 0.0, -796.2585444758588, 0.0, 0.0, 0.0, 0.0, -1717.0386573122332, 0.0]
['beep', 0.0, -798.381960199113, 0.0, 0.0, 0.0, 0.0, -1717.4856922013394, 0.0]
['beep', 0.0, -803.768730612842, 0.0, 0.0, 0.0, 0.0, -1717.306878245697, 0.0]
['beep', 0.0, -805.4004079580794, 0.0, 0.0, 0.0, 0.0, -1717.3515817346076, 0.0]
['beep', 0.0, -799.9018788220739, 0.0, 0.0, 0.0, 0.0, -1715.3622764780853, 0.0]
['beep', 0.0, -797.3761316986241, 0.0, 0.0, 0.0, 0.0, -1717.597450923616, 0.0]
['beep', 0.0, -799.700713121976, 0.0, 0.0, 0.0, 0.0, -1716.7033811454037, 0.0]
['beep', 0.0, -805.9368498250068, 0.0, 0.0, 0.0, 0.0, -1716.6363259120378, 0.0]
['beep', 0.0, -806.1603672695599, 0.0, 0.0, 0.0, 0.0, -1716.6139741675825, 0.0]
['beep', 0.0, -800.3042102222694, 0.0, 0.0, 0.0, 0.0, -1714.5799654221494, 0.0]
['beep', 0.0, -797.1079107651605, 0.0, 0.0, 0.0, 0.0, -1716.2563462562975, 0.0]
['beep', 0.0, -799.2760299773253, 0.0, 0.0, 0.0, 0.0, -1718.759741635292, 0.0]
['beep', 0.0, -805.3110009802582, 0.0, 0.0, 0.0, 0.0, -1718.3350584906411, 0.0]
['beep', 0.0, -806.1380155251045, 0.0, 0.0, 0.0, 0.0, -1717.9550788349009, 0.0]
['beep', 0.0, -800.2818584778141, 0.0, 0.0, 0.0, 0.0, -1717.0386573122332, 0.0]
['beep', 0.0, -795.8338613312079, 0.0, 0.0, 0.0, 0.0, -1715.5187386892724, 0.0]
['beep', 0.0, -798.1137392656493, 0.0, 0.0, 0.0, 0.0, -1716.7480846343142, 0.0]
['beep', 0.0, -803.7463788683866, 0.0, 0.0, 0.0, 0.0, -1718.8267968686578, 0.0]
['beep', 0.0, -804.7969108577861, 0.0, 0.0, 0.0, 0.0, -1717.2174712678757, 0.0]
['beep', 0.0, -799.3877886996017, 0.0, 0.0, 0.0, 0.0, -1715.2952212447192, 0.0]
['beep', 0.0, -796.0797305202163, 0.0, 0.0, 0.0, 0.0, -1716.43516021194, 0.0]
['beep', 0.0, -799.2760299773253, 0.0, 0.0, 0.0, 0.0, -1718.0891893016326, 0.0]
['beep', 0.0, -804.0816550352163, 0.0, 0.0, 0.0, 0.0, -1718.2232997683645, 0.0]
['beep', 0.0, -804.9086695800627, 0.0, 0.0, 0.0, 0.0, -1719.7879218802361, 0.0]
['beep', 0.0, -800.058341033261, 0.0, 0.0, 0.0, 0.0, -1721.2854887587416, 0.0]
['beep', 0.0, -796.5044136648672, 0.0, 0.0, 0.0, 0.0, -1720.4361224694399, 0.0]
['beep', 0.0, -797.8902218210962, 0.0, 0.0, 0.0, 0.0, -1720.212605024887, 0.0]
['beep', 0.0, -803.1428817680934, 0.0, 0.0, 0.0, 0.0, -1720.212605024887, 0.0]
['beep', 0.0, -803.5899166571995, 0.0, 0.0, 0.0, 0.0, -1719.6091079245937, 0.0]
['beep', 0.0, -799.6113061441548, 0.0, 0.0, 0.0, 0.0, -1719.2961835022193, 0.0]
['beep', 0.0, -794.7162741084426, 0.0, 0.0, 0.0, 0.0, -1719.3185352466746, 0.0]
['beep', 0.0, -797.4878904209007, 0.0, 0.0, 0.0, 0.0, -1721.978392836856, 0.0]
['beep', 0.0, -803.0311230458168, 0.0, 0.0, 0.0, 0.0, -1720.4361224694399, 0.0]
['beep', 0.0, -804.1263585241269, 0.0, 0.0, 0.0, 0.0, -1719.5867561801383, 0.0]
['beep', 0.0, -799.2089747439593, 0.0, 0.0, 0.0, 0.0, -1719.3185352466746, 0.0]
['beep', 0.0, -795.543288653289, 0.0, 0.0, 0.0, 0.0, -1718.5362241907387, 0.0]
['beep', 0.0, -799.4324921885124, 0.0, 0.0, 0.0, 0.0, -1720.5702329361718, 0.0]
['beep', 0.0, -804.1263585241269, 0.0, 0.0, 0.0, 0.0, -1720.950212591912, 0.0]
['beep', 0.0, -805.5121666803559, 0.0, 0.0, 0.0, 0.0, -1719.9443840914232, 0.0]
['beep', 0.0, -800.930059067018, 0.0, 0.0, 0.0, 0.0, -1720.3467154916186, 0.0]
['beep', 0.0, -796.4820619204119, 0.0, 0.0, 0.0, 0.0, -1722.0007445813114, 0.0]
['beep', 0.0, -798.7619398548532, 0.0, 0.0, 0.0, 0.0, -1722.62659342606, 0.0]
['beep', 0.0, -804.8192626022415, 0.0, 0.0, 0.0, 0.0, -1721.4195992254733, 0.0]
['beep', 0.0, -805.2439457468922, 0.0, 0.0, 0.0, 0.0, -1720.9055091030014, 0.0]
['beep', 0.0, -800.0359892888057, 0.0, 0.0, 0.0, 0.0, -1720.3243637471635, 0.0]
['beep', 0.0, -795.4538816754678, 0.0, 0.0, 0.0, 0.0, -1718.9609073353897, 0.0]
['beep', 0.0, -797.8231665877303, 0.0, 0.0, 0.0, 0.0, -1722.2913172592305, 0.0]
['beep', 0.0, -802.9640678124509, 0.0, 0.0, 0.0, 0.0, -1723.1853870374428, 0.0]
['beep', 0.0, -803.5899166571995, 0.0, 0.0, 0.0, 0.0, -1719.4749974578617, 0.0]
['beep', 0.0, -799.3430852106911, 0.0, 0.0, 0.0, 0.0, -1718.9832590798449, 0.0]
['beep', 0.0, -795.1856607420041, 0.0, 0.0, 0.0, 0.0, -1721.5090062032946, 0.0]
['beep', 0.0, -797.5325939098113, 0.0, 0.0, 0.0, 0.0, -1722.4030759815068, 0.0]
['beep', 0.0, -805.1098352801604, 0.0, 0.0, 0.0, 0.0, -1722.2019102814093, 0.0]
['beep', 0.0, -805.8474428471856, 0.0, 0.0, 0.0, 0.0, -1721.7325236478478, 0.0]
['beep', 0.0, -799.7230648664314, 0.0, 0.0, 0.0, 0.0, -1720.525529447261, 0.0]
['beep', 0.0, -795.2974194642806, 0.0, 0.0, 0.0, 0.0, -1721.2184335253758, 0.0]
['beep', 0.0, -797.4208351875347, 0.0, 0.0, 0.0, 0.0, -1723.2971457597191, 0.0]
['beep', 0.0, -800.7288933669203, 0.0, 0.0, 0.0, 0.0, -1725.4876167163393, 0.0]
['beep', 0.0, -799.9242305665291, 0.0, 0.0, 0.0, 0.0, -1722.8948143595237, 0.0]
['beep', 0.0, -794.6268671306213, 0.0, 0.0, 0.0, 0.0, -1720.2796602582528, 0.0]
['beep', 0.0, -789.284800205803, 0.0, 0.0, 0.0, 0.0, -1719.3408869911298, 0.0]
['beep', 0.0, -789.7318350949091, 0.0, 0.0, 0.0, 0.0, -1721.978392836856, 0.0]
['beep', 0.0, -795.476233419923, 0.0, 0.0, 0.0, 0.0, -1721.8889858590348, 0.0]
['beep', 0.0, -797.9125735655515, 0.0, 0.0, 0.0, 0.0, -1719.8326253691466, 0.0]
['beep', 0.0, -794.4033496860683, 0.0, 0.0, 0.0, 0.0, -1716.6139741675825, 0.0]
['beep', 0.0, -790.1118147506494, 0.0, 0.0, 0.0, 0.0, -1718.0891893016326, 0.0]
['beep', 0.0, -795.0068467863616, 0.0, 0.0, 0.0, 0.0, -1721.3525439921075, 0.0]
['beep', 0.0, -801.6006114006772, 0.0, 0.0, 0.0, 0.0, -1722.2019102814093, 0.0]
['beep', 0.0, -801.3770939561241, 0.0, 0.0, 0.0, 0.0, -1721.5090062032946, 0.0]
['beep', 0.0, -796.1914892424929, 0.0, 0.0, 0.0, 0.0, -1719.206776524398, 0.0]
['beep', 0.0, -791.8552508181633, 0.0, 0.0, 0.0, 0.0, -1720.8608056140909, 0.0]
['beep', 0.0, -794.7609775973532, 0.0, 0.0, 0.0, 0.0, -1722.492482959328, 0.0]
['beep', 0.0, -799.9465823109845, 0.0, 0.0, 0.0, 0.0, -1721.307840503197, 0.0]
['beep', 0.0, -800.8853555781074, 0.0, 0.0, 0.0, 0.0, -1718.044485812722, 0.0]
['beep', 0.0, -796.0126752868504, 0.0, 0.0, 0.0, 0.0, -1720.6372881695377, 0.0]
['beep', 0.0, -792.2128787294482, 0.0, 0.0, 0.0, 0.0, -1721.6431166700265, 0.0]
['beep', 0.0, -793.9786665414175, 0.0, 0.0, 0.0, 0.0, -1720.883157358546, 0.0]
['beep', 0.0, -799.5666026552442, 0.0, 0.0, 0.0, 0.0, -1721.1066748030992, 0.0]
['beep', 0.0, -800.4830241779118, 0.0, 0.0, 0.0, 0.0, -1721.6207649255712, 0.0]
['beep', 0.0, -795.9456200534845, 0.0, 0.0, 0.0, 0.0, -1719.072666057666, 0.0]
['beep', 0.0, -791.3858641846018, 0.0, 0.0, 0.0, 0.0, -1720.369067236074, 0.0]
['beep', 0.0, -794.1351287526046, 0.0, 0.0, 0.0, 0.0, -1722.917166103979, 0.0]
['beep', 0.0, -798.7172363659425, 0.0, 0.0, 0.0, 0.0, -1721.3301922476521, 0.0]
['beep', 0.0, -799.2983817217805, 0.0, 0.0, 0.0, 0.0, -1720.9725643363672, 0.0]
['beep', 0.0, -794.7833293418086, 0.0, 0.0, 0.0, 0.0, -1720.212605024887, 0.0]
['beep', 0.0, -791.3411606956912, 0.0, 0.0, 0.0, 0.0, -1720.883157358546, 0.0]
['beep', 0.0, -792.6822653630097, 0.0, 0.0, 0.0, 0.0, -1722.470131214873, 0.0]
['beep', 0.0, -800.2148032444481, 0.0, 0.0, 0.0, 0.0, -1723.3418492486298, 0.0]
['beep', 0.0, -800.3936172000906, 0.0, 0.0, 0.0, 0.0, -1720.8608056140909, 0.0]
['beep', 0.0, -794.8727363196298, 0.0, 0.0, 0.0, 0.0, -1719.5420526912276, 0.0]
['beep', 0.0, -790.0671112617388, 0.0, 0.0, 0.0, 0.0, -1720.9725643363672, 0.0]
['beep', 0.0, -793.3751694411242, 0.0, 0.0, 0.0, 0.0, -1724.1241603045655, 0.0]
['beep', 0.0, -798.8736985771297, 0.0, 0.0, 0.0, 0.0, -1723.1853870374428, 0.0]
['beep', 0.0, -799.0972160216828, 0.0, 0.0, 0.0, 0.0, -1721.8666341145795, 0.0]
['beep', 0.0, -793.6880938634985, 0.0, 0.0, 0.0, 0.0, -1720.883157358546, 0.0]
['beep', 0.0, -790.6929601064874, 0.0, 0.0, 0.0, 0.0, -1719.9443840914232, 0.0]
['beep', 0.0, -791.5646781402443, 0.0, 0.0, 0.0, 0.0, -1722.5148347037834, 0.0]
['beep', 0.0, -798.8289950882191, 0.0, 0.0, 0.0, 0.0, -1724.1241603045655, 0.0]
['beep', 0.0, -800.9971143003839, 0.0, 0.0, 0.0, 0.0, -1723.1630352929874, 0.0]
['beep', 0.0, -794.3586461971577, 0.0, 0.0, 0.0, 0.0, -1721.6431166700265, 0.0]
['beep', 0.0, -791.25175371787, 0.0, 0.0, 0.0, 0.0, -1721.7548753923031, 0.0]
['beep', 0.0, -792.5034514073673, 0.0, 0.0, 0.0, 0.0, -1722.4030759815068, 0.0]
['beep', 0.0, -798.1360910101046, 0.0, 0.0, 0.0, 0.0, -1723.0736283151662, 0.0]
['beep', 0.0, -799.5218991663336, 0.0, 0.0, 0.0, 0.0, -1723.6994771599147, 0.0]
['beep', 0.0, -794.2692392193364, 0.0, 0.0, 0.0, 0.0, -1722.7383521483366, 0.0]
['beep', 0.0, -789.8882973060963, 0.0, 0.0, 0.0, 0.0, -1720.503177702806, 0.0]
['beep', 0.0, -792.8834310631074, 0.0, 0.0, 0.0, 0.0, -1722.8948143595237, 0.0]
['beep', 0.0, -798.7619398548532, 0.0, 0.0, 0.0, 0.0, -1725.9346516054454, 0.0]
['beep', 0.0, -799.3877886996017, 0.0, 0.0, 0.0, 0.0, -1723.1183318040767, 0.0]
['beep', 0.0, -794.9844950419063, 0.0, 0.0, 0.0, 0.0, -1722.5818899371493, 0.0]
['beep', 0.0, -790.5141461508449, 0.0, 0.0, 0.0, 0.0, -1723.3865527375403, 0.0]
['beep', 0.0, -792.9728380409287, 0.0, 0.0, 0.0, 0.0, -1724.3476777491187, 0.0]
['beep', 0.0, -799.0972160216828, 0.0, 0.0, 0.0, 0.0, -1725.8675963720796, 0.0]
['beep', 0.0, -800.3042102222694, 0.0, 0.0, 0.0, 0.0, -1724.8617678715907, 0.0]
['beep', 0.0, -794.5374601528001, 0.0, 0.0, 0.0, 0.0, -1719.854977113602, 0.0]
['beep', 0.0, -791.1399949955935, 0.0, 0.0, 0.0, 0.0, -1722.1348550480432, 0.0]
['beep', 0.0, -793.0622450187499, 0.0, 0.0, 0.0, 0.0, -1726.716962661381, 0.0]
['beep', 0.0, -798.0243322878281, 0.0, 0.0, 0.0, 0.0, -1727.0298870837555, 0.0]
['beep', 0.0, -798.0019805433727, 0.0, 0.0, 0.0, 0.0, -1724.6158986825824, 0.0]
['beep', 0.0, -794.1351287526046, 0.0, 0.0, 0.0, 0.0, -1722.6712969149705, 0.0]
['beep', 0.0, -790.1788699840153, 0.0, 0.0, 0.0, 0.0, -1722.0007445813114, 0.0]
['beep', 0.0, -792.5705066407331, 0.0, 0.0, 0.0, 0.0, -1723.0289248262554, 0.0]
['beep', 0.0, -798.9854572994062, 0.0, 0.0, 0.0, 0.0, -1721.017267825278, 0.0]
['beep', 0.0, -798.9854572994062, 0.0, 0.0, 0.0, 0.0, -1721.6431166700265, 0.0]
['beep', 0.0, -794.090425263694, 0.0, 0.0, 0.0, 0.0, -1720.6819916584484, 0.0]
['beep', 0.0, -790.2682769618365, 0.0, 0.0, 0.0, 0.0, -1721.53135794775, 0.0]
['beep', 0.0, -792.8610793186522, 0.0, 0.0, 0.0, 0.0, -1723.7441806488255, 0.0]
['beep', 0.0, -797.5549456542666, 0.0, 0.0, 0.0, 0.0, -1723.0959800596215, 0.0]
['beep', 0.0, -799.2983817217805, 0.0, 0.0, 0.0, 0.0, -1720.4808259583506, 0.0]
['beep', 0.0, -795.476233419923, 0.0, 0.0, 0.0, 0.0, -1719.2961835022193, 0.0]
['beep', 0.0, -790.5141461508449, 0.0, 0.0, 0.0, 0.0, -1720.726695147359, 0.0]
['beep', 0.0, -791.9223060515292, 0.0, 0.0, 0.0, 0.0, -1721.3972474810182, 0.0]
['beep', 0.0, -799.3207334662359, 0.0, 0.0, 0.0, 0.0, -1720.145549791521, 0.0]
['beep', 0.0, -800.8630038336521, 0.0, 0.0, 0.0, 0.0, -1722.7160004038813, 0.0]
['beep', 0.0, -796.3032479647694, 0.0, 0.0, 0.0, 0.0, -1723.0512765707108, 0.0]
['beep', 0.0, -790.8494223176745, 0.0, 0.0, 0.0, 0.0, -1719.9667358358786, 0.0]
['beep', 0.0, -793.6880938634985, 0.0, 0.0, 0.0, 0.0, -1723.0289248262554, 0.0]
['beep', 0.0, -798.6501811325767, 0.0, 0.0, 0.0, 0.0, -1723.1853870374428, 0.0]
['beep', 0.0, -801.0194660448392, 0.0, 0.0, 0.0, 0.0, -1721.4195992254733, 0.0]
['beep', 0.0, -796.1467857535823, 0.0, 0.0, 0.0, 0.0, -1719.430293968951, 0.0]
['beep', 0.0, -791.3411606956912, 0.0, 0.0, 0.0, 0.0, -1718.558575935194, 0.0]
['beep', 0.0, -792.8610793186522, 0.0, 0.0, 0.0, 0.0, -1724.079456815655, 0.0]
['beep', 0.0, -799.9465823109845, 0.0, 0.0, 0.0, 0.0, -1724.593546938127, 0.0]
['beep', 0.0, -801.6900183784984, 0.0, 0.0, 0.0, 0.0, -1723.9676980933784, 0.0]
['beep', 0.0, -797.9125735655515, 0.0, 0.0, 0.0, 0.0, -1722.5371864482388, 0.0]
['beep', 0.0, -793.5986868856772, 0.0, 0.0, 0.0, 0.0, -1721.978392836856, 0.0]
['beep', 0.0, -796.2138409869482, 0.0, 0.0, 0.0, 0.0, -1722.2913172592305, 0.0]
['beep', 0.0, -802.0699980342387, 0.0, 0.0, 0.0, 0.0, -1722.7607038927918, 0.0]
['beep', 0.0, -803.3440474681911, 0.0, 0.0, 0.0, 0.0, -1722.336020748141, 0.0]
['beep', 0.0, -797.9125735655515, 0.0, 0.0, 0.0, 0.0, -1719.7655701357808, 0.0]
['beep', 0.0, -794.7609775973532, 0.0, 0.0, 0.0, 0.0, -1720.950212591912, 0.0]
['beep', 0.0, -796.1467857535823, 0.0, 0.0, 0.0, 0.0, -1724.235919026842, 0.0]
['beep', 0.0, -801.4665009339453, 0.0, 0.0, 0.0, 0.0, -1725.0405818272332, 0.0]
['beep', 0.0, -803.9028410795738, 0.0, 0.0, 0.0, 0.0, -1725.1523405495097, 0.0]
['beep', 0.0, -799.4995474218783, 0.0, 0.0, 0.0, 0.0, -1722.8948143595237, 0.0]
['beep', 0.0, -794.2021839859706, 0.0, 0.0, 0.0, 0.0, -1721.3972474810182, 0.0]
['beep', 0.0, -797.3090764652583, 0.0, 0.0, 0.0, 0.0, -1723.2524422708086, 0.0]
['beep', 0.0, -804.8639660911521, 0.0, 0.0, 0.0, 0.0, -1722.8948143595237, 0.0]
['beep', 0.0, -805.0204283023392, 0.0, 0.0, 0.0, 0.0, -1722.7383521483366, 0.0]
['beep', 0.0, -798.381960199113, 0.0, 0.0, 0.0, 0.0, -1721.3301922476521, 0.0]
['beep', 0.0, -795.3644746976465, 0.0, 0.0, 0.0, 0.0, -1722.7607038927918, 0.0]
['beep', 0.0, -799.4548439329677, 0.0, 0.0, 0.0, 0.0, -1724.8617678715907, 0.0]
['beep', 0.0, -805.0427800467945, 0.0, 0.0, 0.0, 0.0, -1725.8005411387137, 0.0]
['beep', 0.0, -805.4898149359007, 0.0, 0.0, 0.0, 0.0, -1726.694610916926, 0.0]
['beep', 0.0, -800.639486389099, 0.0, 0.0, 0.0, 0.0, -1723.1853870374428, 0.0]
['beep', 0.0, -796.5938206426885, 0.0, 0.0, 0.0, 0.0, -1724.0347533267443, 0.0]
['beep', 0.0, -798.6054776436661, 0.0, 0.0, 0.0, 0.0, -1724.7053056604036, 0.0]
['beep', 0.0, -804.2381172464035, 0.0, 0.0, 0.0, 0.0, -1723.788884137736, 0.0]
['beep', 0.0, -805.9815533139174, 0.0, 0.0, 0.0, 0.0, -1725.7111341608925, 0.0]
['beep', 0.0, -800.2148032444481, 0.0, 0.0, 0.0, 0.0, -1725.5546719497052, 0.0]
['beep', 0.0, -796.5267654093225, 0.0, 0.0, 0.0, 0.0, -1724.9958783383227, 0.0]
['beep', 0.0, -798.381960199113, 0.0, 0.0, 0.0, 0.0, -1723.788884137736, 0.0]
['beep', 0.0, -803.2993439792805, 0.0, 0.0, 0.0, 0.0, -1723.0959800596215, 0.0]
['beep', 0.0, -805.2662974913476, 0.0, 0.0, 0.0, 0.0, -1723.6547736710042, 0.0]
['beep', 0.0, -800.3265619667247, 0.0, 0.0, 0.0, 0.0, -1722.9395178484342, 0.0]
['beep', 0.0, -794.7386258528979, 0.0, 0.0, 0.0, 0.0, -1723.140683548532, 0.0]
['beep', 0.0, -797.7561113543644, 0.0, 0.0, 0.0, 0.0, -1723.4759597153616, 0.0]
['beep', 0.0, -804.0593032907609, 0.0, 0.0, 0.0, 0.0, -1724.4147329824846, 0.0]
['beep', 0.0, -804.9310213245179, 0.0, 0.0, 0.0, 0.0, -1725.1970440384202, 0.0]
['beep', 0.0, -799.2536782328699, 0.0, 0.0, 0.0, 0.0, -1723.4536079709064, 0.0]
['beep', 0.0, -795.2303642309147, 0.0, 0.0, 0.0, 0.0, -1724.1465120490209, 0.0]
['beep', 0.0, -797.4655386764454, 0.0, 0.0, 0.0, 0.0, -1724.4817882158504, 0.0]
['beep', 0.0, -802.8076056012637, 0.0, 0.0, 0.0, 0.0, -1724.951174849412, 0.0]
['beep', 0.0, -803.5675649127442, 0.0, 0.0, 0.0, 0.0, -1724.235919026842, 0.0]
['beep', 0.0, -799.1419195105934, 0.0, 0.0, 0.0, 0.0, -1724.9064713605014, 0.0]
['beep', 0.0, -794.7386258528979, 0.0, 0.0, 0.0, 0.0, -1722.8724626150683, 0.0]
['beep', 0.0, -796.6608758760543, 0.0, 0.0, 0.0, 0.0, -1723.6994771599147, 0.0]
['beep', 0.0, -802.4946811788894, 0.0, 0.0, 0.0, 0.0, -1726.7616661502918, 0.0]
['beep', 0.0, -803.7910823572972, 0.0, 0.0, 0.0, 0.0, -1723.788884137736, 0.0]
['beep', 0.0, -798.9854572994062, 0.0, 0.0, 0.0, 0.0, -1722.1348550480432, 0.0]
['beep', 0.0, -794.8727363196298, 0.0, 0.0, 0.0, 0.0, -1723.0065730818003, 0.0]
['beep', 0.0, -796.7949863427862, 0.0, 0.0, 0.0, 0.0, -1724.951174849412, 0.0]
['beep', 0.0, -802.4499776899788, 0.0, 0.0, 0.0, 0.0, -1725.755837649803, 0.0]
['beep', 0.0, -804.2604689908587, 0.0, 0.0, 0.0, 0.0, -1722.850110870613, 0.0]
['beep', 0.0, -799.2536782328699, 0.0, 0.0, 0.0, 0.0, -1720.5478811917164, 0.0]
['beep', 0.0, -795.0739020197275, 0.0, 0.0, 0.0, 0.0, -1722.693648659426, 0.0]
['beep', 0.0, -797.6890561209984, 0.0, 0.0, 0.0, 0.0, -1723.3865527375403, 0.0]
['beep', 0.0, -802.9417160679956, 0.0, 0.0, 0.0, 0.0, -1724.6606021714929, 0.0]
['beep', 0.0, -805.4674631914453, 0.0, 0.0, 0.0, 0.0, -1723.5206632042723, 0.0]
['beep', 0.0, -800.058341033261, 0.0, 0.0, 0.0, 0.0, -1720.6819916584484, 0.0]
['beep', 0.0, -795.543288653289, 0.0, 0.0, 0.0, 0.0, -1722.0677998146773, 0.0]
['beep', 0.0, -798.4266636880236, 0.0, 0.0, 0.0, 0.0, -1723.8782911155572, 0.0]
['beep', 0.0, -803.4781579349229, 0.0, 0.0, 0.0, 0.0, -1725.8228928831688, 0.0]
['beep', 0.0, -804.5957451576884, 0.0, 0.0, 0.0, 0.0, -1723.7441806488255, 0.0]
['beep', 0.0, -798.8066433437638, 0.0, 0.0, 0.0, 0.0, -1724.1018085601104, 0.0]
['beep', 0.0, -794.4704049194343, 0.0, 0.0, 0.0, 0.0, -1724.235919026842, 0.0]
['beep', 0.0, -797.0855590207052, 0.0, 0.0, 0.0, 0.0, -1724.9288231049566, 0.0]
['beep', 0.0, -802.1817567565151, 0.0, 0.0, 0.0, 0.0, -1725.2640992717863, 0.0]
['beep', 0.0, -802.7405503678979, 0.0, 0.0, 0.0, 0.0, -1723.8559393711018, 0.0]
['beep', 0.0, -797.5325939098113, 0.0, 0.0, 0.0, 0.0, -1722.850110870613, 0.0]
['beep', 0.0, -793.7551490968644, 0.0, 0.0, 0.0, 0.0, -1721.0843230586438, 0.0]
['beep', 0.0, -797.3761316986241, 0.0, 0.0, 0.0, 0.0, -1723.922994604468, 0.0]
['beep', 0.0, -803.7463788683866, 0.0, 0.0, 0.0, 0.0, -1726.6052039391047, 0.0]
['beep', 0.0, -803.9475445684844, 0.0, 0.0, 0.0, 0.0, -1723.4759597153616, 0.0]
['beep', 0.0, -798.314904965747, 0.0, 0.0, 0.0, 0.0, -1720.4361224694399, 0.0]
['beep', 0.0, -794.5374601528001, 0.0, 0.0, 0.0, 0.0, -1721.3972474810182, 0.0]
['beep', 0.0, -795.6326956311102, 0.0, 0.0, 0.0, 0.0, -1724.7053056604036, 0.0]
['beep', 0.0, -803.0758265347274, 0.0, 0.0, 0.0, 0.0, -1725.4429132274288, 0.0]
['beep', 0.0, -804.4169312020459, 0.0, 0.0, 0.0, 0.0, -1724.727657404859, 0.0]
['beep', 0.0, -799.1642712550487, 0.0, 0.0, 0.0, 0.0, -1723.0289248262554, 0.0]
['beep', 0.0, -795.3644746976465, 0.0, 0.0, 0.0, 0.0, -1719.5197009467722, 0.0]
['beep', 0.0, -797.1302625096158, 0.0, 0.0, 0.0, 0.0, -1722.2242620258644, 0.0]
['beep', 0.0, -802.4723294344342, 0.0, 0.0, 0.0, 0.0, -1723.922994604468, 0.0]
['beep', 0.0, -803.2099370014593, 0.0, 0.0, 0.0, 0.0, -1724.3476777491187, 0.0]
['beep', 0.0, -799.6783613775208, 0.0, 0.0, 0.0, 0.0, -1723.7665323932806, 0.0]
['beep', 0.0, -795.2080124864593, 0.0, 0.0, 0.0, 0.0, -1723.632421926549, 0.0]
['beep', 0.0, -796.3703031981354, 0.0, 0.0, 0.0, 0.0, -1725.5546719497052, 0.0]
['beep', 0.0, -802.3382189677023, 0.0, 0.0, 0.0, 0.0, -1726.1134655610879, 0.0]
['beep', 0.0, -803.5228614238335, 0.0, 0.0, 0.0, 0.0, -1724.43708472694, 0.0]
['beep', 0.0, -798.7172363659425, 0.0, 0.0, 0.0, 0.0, -1724.5264917047612, 0.0]
['beep', 0.0, -794.5821636417107, 0.0, 0.0, 0.0, 0.0, -1725.8228928831688, 0.0]
['beep', 0.0, -796.9738002984286, 0.0, 0.0, 0.0, 0.0, -1727.7451429063253, 0.0]
['beep', 0.0, -802.0699980342387, 0.0, 0.0, 0.0, 0.0, -1727.1639975504872, 0.0]
['beep', 0.0, -804.7969108577861, 0.0, 0.0, 0.0, 0.0, -1727.0969423171214, 0.0]
['beep', 0.0, -798.8736985771297, 0.0, 0.0, 0.0, 0.0, -1723.2524422708086, 0.0]
['beep', 0.0, -793.7104456079538, 0.0, 0.0, 0.0, 0.0, -1723.3642009930852, 0.0]
['beep', 0.0, -796.8173380872415, 0.0, 0.0, 0.0, 0.0, -1727.655735928504, 0.0]
['beep', 0.0, -801.0641695337498, 0.0, 0.0, 0.0, 0.0, -1728.527453962261, 0.0]
['beep', 0.0, -803.5228614238335, 0.0, 0.0, 0.0, 0.0, -1724.9288231049566, 0.0]
['beep', 0.0, -799.2313264884147, 0.0, 0.0, 0.0, 0.0, -1725.107637060599, 0.0]
['beep', 0.0, -794.5821636417107, 0.0, 0.0, 0.0, 0.0, -1725.4205614829734, 0.0]
['beep', 0.0, -797.8678700766409, 0.0, 0.0, 0.0, 0.0, -1726.3593347500962, 0.0]
['beep', 0.0, -802.8076056012637, 0.0, 0.0, 0.0, 0.0, -1726.851073128113, 0.0]
['beep', 0.0, -804.8639660911521, 0.0, 0.0, 0.0, 0.0, -1726.3593347500962, 0.0]
['beep', 0.0, -800.34891371118, 0.0, 0.0, 0.0, 0.0, -1725.889948116535, 0.0]
['beep', 0.0, -794.6939223639873, 0.0, 0.0, 0.0, 0.0, -1725.5993754386159, 0.0]
['beep', 0.0, -797.3314282097135, 0.0, 0.0, 0.0, 0.0, -1725.5993754386159, 0.0]
['beep', 0.0, -802.0476462897833, 0.0, 0.0, 0.0, 0.0, -1726.4710934723728, 0.0]
['beep', 0.0, -802.6287916456213, 0.0, 0.0, 0.0, 0.0, -1728.3933434955293, 0.0]
['beep', 0.0, -797.7561113543644, 0.0, 0.0, 0.0, 0.0, -1726.4934452168281, 0.0]
['beep', 0.0, -795.1186055086381, 0.0, 0.0, 0.0, 0.0, -1726.3146312611857, 0.0]
['beep', 0.0, -795.6550473755655, 0.0, 0.0, 0.0, 0.0, -1726.269927772275, 0.0]
['beep', 0.0, -800.9077073225627, 0.0, 0.0, 0.0, 0.0, -1727.365163250585, 0.0]
['beep', 0.0, -802.9640678124509, 0.0, 0.0, 0.0, 0.0, -1727.0298870837555, 0.0]
['beep', 0.0, -798.6501811325767, 0.0, 0.0, 0.0, 0.0, -1726.046410327722, 0.0]
['beep', 0.0, -794.5374601528001, 0.0, 0.0, 0.0, 0.0, -1728.0357155842444, 0.0]
['beep', 0.0, -795.1409572530935, 0.0, 0.0, 0.0, 0.0, -1728.3262882621634, 0.0]
['beep', 0.0, -801.7123701229538, 0.0, 0.0, 0.0, 0.0, -1727.8345498841466, 0.0]
['beep', 0.0, -803.2546404903699, 0.0, 0.0, 0.0, 0.0, -1726.3816864945516, 0.0]
['beep', 0.0, -797.1749659985264, 0.0, 0.0, 0.0, 0.0, -1726.4934452168281, 0.0]
['beep', 0.0, -792.9728380409287, 0.0, 0.0, 0.0, 0.0, -1725.4205614829734, 0.0]
['beep', 0.0, -795.4091781865571, 0.0, 0.0, 0.0, 0.0, -1725.7111341608925, 0.0]
['beep', 0.0, -801.1312247671158, 0.0, 0.0, 0.0, 0.0, -1726.3593347500962, 0.0]
['beep', 0.0, -803.187585257004, 0.0, 0.0, 0.0, 0.0, -1724.5264917047612, 0.0]
['beep', 0.0, -797.733759609909, 0.0, 0.0, 0.0, 0.0, -1724.7053056604036, 0.0]
['beep', 0.0, -792.8610793186522, 0.0, 0.0, 0.0, 0.0, -1727.3428115061297, 0.0]
['beep', 0.0, -796.1691374980376, 0.0, 0.0, 0.0, 0.0, -1726.4487417279174, 0.0]
['beep', 0.0, -801.9582393119621, 0.0, 0.0, 0.0, 0.0, -1725.1523405495097, 0.0]
['beep', 0.0, -803.8134341017526, 0.0, 0.0, 0.0, 0.0, -1726.1134655610879, 0.0]
['beep', 0.0, -798.4266636880236, 0.0, 0.0, 0.0, 0.0, -1724.5264917047612, 0.0]
['beep', 0.0, -795.2080124864593, 0.0, 0.0, 0.0, 0.0, -1725.4429132274288, 0.0]
['beep', 0.0, -796.8843933206074, 0.0, 0.0, 0.0, 0.0, -1727.5886806951382, 0.0]
['beep', 0.0, -802.4723294344342, 0.0, 0.0, 0.0, 0.0, -1727.208701039398, 0.0]
['beep', 0.0, -802.5840881567107, 0.0, 0.0, 0.0, 0.0, -1725.3088027606968, 0.0]
['beep', 0.0, -798.2254979879258, 0.0, 0.0, 0.0, 0.0, -1725.4205614829734, 0.0]
['beep', 0.0, -794.5151084083449, 0.0, 0.0, 0.0, 0.0, -1727.6780876729595, 0.0]
['beep', 0.0, -796.5044136648672, 0.0, 0.0, 0.0, 0.0, -1726.6499074280152, 0.0]
['beep', 0.0, -802.6734951345319, 0.0, 0.0, 0.0, 0.0, -1726.851073128113, 0.0]
['beep', 0.0, -803.0534747902722, 0.0, 0.0, 0.0, 0.0, -1726.5828521946494, 0.0]
['beep', 0.0, -797.7114078654538, 0.0, 0.0, 0.0, 0.0, -1726.9404801059343, 0.0]
['beep', 0.0, -794.380997941613, 0.0, 0.0, 0.0, 0.0, -1726.1134655610879, 0.0]
['beep', 0.0, -796.5267654093225, 0.0, 0.0, 0.0, 0.0, -1726.6722591724706, 0.0]
['beep', 0.0, -803.0981782791828, 0.0, 0.0, 0.0, 0.0, -1728.3933434955293, 0.0]
['beep', 0.0, -804.0145998018503, 0.0, 0.0, 0.0, 0.0, -1727.365163250585, 0.0]
['beep', 0.0, -799.2536782328699, 0.0, 0.0, 0.0, 0.0, -1726.3593347500962, 0.0]
['beep', 0.0, -794.8503845751744, 0.0, 0.0, 0.0, 0.0, -1725.398209738518, 0.0]
['beep', 0.0, -796.7502828538755, 0.0, 0.0, 0.0, 0.0, -1729.6003376961157, 0.0]
['beep', 0.0, -801.0194660448392, 0.0, 0.0, 0.0, 0.0, -1730.270890029775, 0.0]
['beep', 0.0, -801.4888526784007, 0.0, 0.0, 0.0, 0.0, -1727.3204597616746, 0.0]
['beep', 0.0, -795.6550473755655, 0.0, 0.0, 0.0, 0.0, -1726.5381487057386, 0.0]
['beep', 0.0, -790.1118147506494, 0.0, 0.0, 0.0, 0.0, -1725.4876167163393, 0.0]
['beep', 0.0, -791.3858641846018, 0.0, 0.0, 0.0, 0.0, -1725.3535062496076, 0.0]
['beep', 0.0, -796.1467857535823, 0.0, 0.0, 0.0, 0.0, -1726.202872538909, 0.0]
['beep', 0.0, -798.9854572994062, 0.0, 0.0, 0.0, 0.0, -1722.7383521483366, 0.0]
['beep', 0.0, -796.124434009127, 0.0, 0.0, 0.0, 0.0, -1723.922994604468, 0.0]
['beep', 0.0, -792.9728380409287, 0.0, 0.0, 0.0, 0.0, -1724.7053056604036, 0.0]
['beep', 0.0, -796.3255997092248, 0.0, 0.0, 0.0, 0.0, -1725.8005411387137, 0.0]
['beep', 0.0, -803.0087713013615, 0.0, 0.0, 0.0, 0.0, -1727.3204597616746, 0.0]
['beep', 0.0, -804.7075038799649, 0.0, 0.0, 0.0, 0.0, -1726.7616661502918, 0.0]
['beep', 0.0, -800.7959486002861, 0.0, 0.0, 0.0, 0.0, -1725.7781893942583, 0.0]
['beep', 0.0, -795.2303642309147, 0.0, 0.0, 0.0, 0.0, -1725.107637060599, 0.0]
['beep', 0.0, -797.0855590207052, 0.0, 0.0, 0.0, 0.0, -1727.4769219728616, 0.0]
['beep', 0.0, -802.6287916456213, 0.0, 0.0, 0.0, 0.0, -1732.595471453127, 0.0]
['beep', 0.0, -805.4674631914453, 0.0, 0.0, 0.0, 0.0, -1730.6061661966046, 0.0]
['beep', 0.0, -800.1253962666269, 0.0, 0.0, 0.0, 0.0, -1726.0911138166325, 0.0]
['beep', 0.0, -795.7891578422973, 0.0, 0.0, 0.0, 0.0, -1727.0298870837555, 0.0]
['beep', 0.0, -797.219669487437, 0.0, 0.0, 0.0, 0.0, -1728.7286196623588, 0.0]
['beep', 0.0, -802.8523090901743, 0.0, 0.0, 0.0, 0.0, -1730.9414423634341, 0.0]
['beep', 0.0, -803.9028410795738, 0.0, 0.0, 0.0, 0.0, -1728.7062679179035, 0.0]
['beep', 0.0, -798.6725328770319, 0.0, 0.0, 0.0, 0.0, -1727.5216254617721, 0.0]
['beep', 0.0, -794.2915909637918, 0.0, 0.0, 0.0, 0.0, -1727.0522388282109, 0.0]
['beep', 0.0, -796.2361927314035, 0.0, 0.0, 0.0, 0.0, -1728.2145295398868, 0.0]
['beep', 0.0, -801.8688323341408, 0.0, 0.0, 0.0, 0.0, -1729.4438754849286, 0.0]
['beep', 0.0, -802.1594050120599, 0.0, 0.0, 0.0, 0.0, -1728.1921777954315, 0.0]
['beep', 0.0, -798.4490154324789, 0.0, 0.0, 0.0, 0.0, -1728.9297853624566, 0.0]
['beep', 0.0, -794.8280328307192, 0.0, 0.0, 0.0, 0.0, -1727.4098667394958, 0.0]
['beep', 0.0, -796.1020822646716, 0.0, 0.0, 0.0, 0.0, -1731.8802156305571, 0.0]
['beep', 0.0, -802.1817567565151, 0.0, 0.0, 0.0, 0.0, -1731.2320150413532, 0.0]
['beep', 0.0, -803.7240271239314, 0.0, 0.0, 0.0, 0.0, -1726.8734248725684, 0.0]
['beep', 0.0, -797.5325939098113, 0.0, 0.0, 0.0, 0.0, -1726.0911138166325, 0.0]
['beep', 0.0, -793.576335141222, 0.0, 0.0, 0.0, 0.0, -1728.9074336180013, 0.0]
['beep', 0.0, -796.1914892424929, 0.0, 0.0, 0.0, 0.0, -1731.3437737636298, 0.0]
['beep', 0.0, -801.2876869783029, 0.0, 0.0, 0.0, 0.0, -1733.0648580866884, 0.0]
['beep', 0.0, -802.6958468789873, 0.0, 0.0, 0.0, 0.0, -1733.3107272756968, 0.0]
['beep', 0.0, -797.8902218210962, 0.0, 0.0, 0.0, 0.0, -1731.9696226083784, 0.0]
['beep', 0.0, -792.6375618740991, 0.0, 0.0, 0.0, 0.0, -1728.9968405958225, 0.0]
['beep', 0.0, -794.2692392193364, 0.0, 0.0, 0.0, 0.0, -1729.7120964183923, 0.0]
['beep', 0.0, -799.4101404440571, 0.0, 0.0, 0.0, 0.0, -1730.4050004965068, 0.0]
['beep', 0.0, -801.1759282560264, 0.0, 0.0, 0.0, 0.0, -1732.4613609863952, 0.0]
['beep', 0.0, -796.8173380872415, 0.0, 0.0, 0.0, 0.0, -1731.7684569082805, 0.0]
['beep', 0.0, -792.0117130293504, 0.0, 0.0, 0.0, 0.0, -1730.8967388745236, 0.0]
['beep', 0.0, -793.4198729300348, 0.0, 0.0, 0.0, 0.0, -1730.6732214299705, 0.0]
['beep', 0.0, -799.9912857998951, 0.0, 0.0, 0.0, 0.0, -1730.6061661966046, 0.0]
['beep', 0.0, -801.8911840785962, 0.0, 0.0, 0.0, 0.0, -1728.952137106912, 0.0]
['beep', 0.0, -797.2643729763477, 0.0, 0.0, 0.0, 0.0, -1730.5838144521492, 0.0]
['beep', 0.0, -791.1846984845041, 0.0, 0.0, 0.0, 0.0, -1730.494407474328, 0.0]
['beep', 0.0, -793.8669078191409, 0.0, 0.0, 0.0, 0.0, -1729.9356138629455, 0.0]
['beep', 0.0, -799.1195677661381, 0.0, 0.0, 0.0, 0.0, -1732.3496022641186, 0.0]
['beep', 0.0, -800.3936172000906, 0.0, 0.0, 0.0, 0.0, -1732.1484365640208, 0.0]
['beep', 0.0, -795.9232683090291, 0.0, 0.0, 0.0, 0.0, -1730.9414423634341, 0.0]
['beep', 0.0, -793.0622450187499, 0.0, 0.0, 0.0, 0.0, -1730.2038347964092, 0.0]
['beep', 0.0, -794.4033496860683, 0.0, 0.0, 0.0, 0.0, -1731.9025673750125, 0.0]
['beep', 0.0, -799.4995474218783, 0.0, 0.0, 0.0, 0.0, -1731.947270863923, 0.0]
['beep', 0.0, -801.2429834893923, 0.0, 0.0, 0.0, 0.0, -1731.3884772525403, 0.0]
['beep', 0.0, -796.8843933206074, 0.0, 0.0, 0.0, 0.0, -1730.8296836411578, 0.0]
['beep', 0.0, -791.5199746513337, 0.0, 0.0, 0.0, 0.0, -1730.3155935186855, 0.0]
['beep', 0.0, -793.0845967632052, 0.0, 0.0, 0.0, 0.0, -1731.5225877192722, 0.0]
['beep', 0.0, -799.4995474218783, 0.0, 0.0, 0.0, 0.0, -1735.0318115987554, 0.0]
['beep', 0.0, -801.9582393119621, 0.0, 0.0, 0.0, 0.0, -1733.3554307646075, 0.0]
['beep', 0.0, -795.1633089975487, 0.0, 0.0, 0.0, 0.0, -1729.6003376961157, 0.0]
['beep', 0.0, -790.4470909174789, 0.0, 0.0, 0.0, 0.0, -1730.0250208407667, 0.0]
['beep', 0.0, -792.5258031518225, 0.0, 0.0, 0.0, 0.0, -1732.9978028533226, 0.0]
['beep', 0.0, -797.510242165356, 0.0, 0.0, 0.0, 0.0, -1732.3496022641186, 0.0]
['beep', 0.0, -800.1030445221717, 0.0, 0.0, 0.0, 0.0, -1730.9637941078895, 0.0]
['beep', 0.0, -796.5938206426885, 0.0, 0.0, 0.0, 0.0, -1728.6168609400822, 0.0]
['beep', 0.0, -791.9670095404398, 0.0, 0.0, 0.0, 0.0, -1731.276718530264, 0.0]
['beep', 0.0, -793.1293002521159, 0.0, 0.0, 0.0, 0.0, -1731.7461051638254, 0.0]
['beep', 0.0, -798.5607741547554, 0.0, 0.0, 0.0, 0.0, -1732.4613609863952, 0.0]
['beep', 0.0, -800.3265619667247, 0.0, 0.0, 0.0, 0.0, -1731.5002359748169, 0.0]
['beep', 0.0, -795.9456200534845, 0.0, 0.0, 0.0, 0.0, -1728.5051022178059, 0.0]
['beep', 0.0, -791.2294019734147, 0.0, 0.0, 0.0, 0.0, -1728.4603987288951, 0.0]
['beep', 0.0, -795.0515502752722, 0.0, 0.0, 0.0, 0.0, -1730.136779563043, 0.0]
['beep', 0.0, -801.2876869783029, 0.0, 0.0, 0.0, 0.0, -1731.589642952638, 0.0]
['beep', 0.0, -802.4052742010682, 0.0, 0.0, 0.0, 0.0, -1731.9696226083784, 0.0]
['beep', 0.0, -797.7784630988197, 0.0, 0.0, 0.0, 0.0, -1730.270890029775, 0.0]
['beep', 0.0, -792.9728380409287, 0.0, 0.0, 0.0, 0.0, -1729.4885789738394, 0.0]
['beep', 0.0, -794.0457217747834, 0.0, 0.0, 0.0, 0.0, -1730.9637941078895, 0.0]
['beep', 0.0, -800.058341033261, 0.0, 0.0, 0.0, 0.0, -1732.1707883084762, 0.0]
['beep', 0.0, -803.1652335125486, 0.0, 0.0, 0.0, 0.0, -1731.947270863923, 0.0]
['beep', 0.0, -796.7949863427862, 0.0, 0.0, 0.0, 0.0, -1728.9074336180013, 0.0]
['beep', 0.0, -792.4810996629119, 0.0, 0.0, 0.0, 0.0, -1731.589642952638, 0.0]
['beep', 0.0, -793.6433903745879, 0.0, 0.0, 0.0, 0.0, -1734.6518319430152, 0.0]
['beep', 0.0, -800.1030445221717, 0.0, 0.0, 0.0, 0.0, -1734.6518319430152, 0.0]
['beep', 0.0, -802.4723294344342, 0.0, 0.0, 0.0, 0.0, -1731.790808652736, 0.0]
['beep', 0.0, -797.1302625096158, 0.0, 0.0, 0.0, 0.0, -1730.9637941078895, 0.0]
['beep', 0.0, -792.6152101296437, 0.0, 0.0, 0.0, 0.0, -1731.72375341937, 0.0]
['beep', 0.0, -794.9397915529956, 0.0, 0.0, 0.0, 0.0, -1732.751933664314, 0.0]
['beep', 0.0, -800.6841898780096, 0.0, 0.0, 0.0, 0.0, -1732.9307476199565, 0.0]
['beep', 0.0, -802.5617364122554, 0.0, 0.0, 0.0, 0.0, -1733.3777825090626, 0.0]
['beep', 0.0, -798.5160706658448, 0.0, 0.0, 0.0, 0.0, -1732.5060644753057, 0.0]
['beep', 0.0, -792.8387275741968, 0.0, 0.0, 0.0, 0.0, -1732.1037330751103, 0.0]
['beep', 0.0, -795.1856607420041, 0.0, 0.0, 0.0, 0.0, -1733.53424472025, 0.0]
['beep', 0.0, -801.5782596562219, 0.0, 0.0, 0.0, 0.0, -1734.9871081098447, 0.0]
['beep', 0.0, -802.3605707121576, 0.0, 0.0, 0.0, 0.0, -1732.3943057530291, 0.0]
['beep', 0.0, -800.3936172000906, 0.0, 0.0, 0.0, 0.0, -1732.6401749420377, 0.0]
['beep', 0.0, -796.1914892424929, 0.0, 0.0, 0.0, 0.0, -1732.7742854087694, 0.0]
['beep', 0.0, -796.5938206426885, 0.0, 0.0, 0.0, 0.0, -1733.556596464705, 0.0]
['beep', 0.0, -803.8134341017526, 0.0, 0.0, 0.0, 0.0, -1735.1659220654872, 0.0]
['beep', 0.0, -806.3615329696576, 0.0, 0.0, 0.0, 0.0, -1735.4117912544957, 0.0]
['beep', 0.0, -801.4441491894901, 0.0, 0.0, 0.0, 0.0, -1734.6294801985598, 0.0]
['beep', 0.0, -795.9009165645739, 0.0, 0.0, 0.0, 0.0, -1734.696535431926, 0.0]
['beep', 0.0, -797.800814843275, 0.0, 0.0, 0.0, 0.0, -1736.529378477261, 0.0]
['beep', 0.0, -803.4558061904677, 0.0, 0.0, 0.0, 0.0, -1737.6693174444817, 0.0]
['beep', 0.0, -805.6239254026325, 0.0, 0.0, 0.0, 0.0, -1734.3612592650961, 0.0]
['beep', 0.0, -801.0194660448392, 0.0, 0.0, 0.0, 0.0, -1733.1542650645097, 0.0]
['beep', 0.0, -795.8785648201185, 0.0, 0.0, 0.0, 0.0, -1734.9647563653896, 0.0]
['beep', 0.0, -796.9738002984286, 0.0, 0.0, 0.0, 0.0, -1737.8704831445793, 0.0]
['beep', 0.0, -803.1428817680934, 0.0, 0.0, 0.0, 0.0, -1737.8481314001242, 0.0]
['beep', 0.0, -804.9533730689733, 0.0, 0.0, 0.0, 0.0, -1735.7023639324148, 0.0]
['beep', 0.0, -801.0194660448392, 0.0, 0.0, 0.0, 0.0, -1734.338907520641, 0.0]
['beep', 0.0, -795.0739020197275, 0.0, 0.0, 0.0, 0.0, -1735.5459017212274, 0.0]
['beep', 0.0, -795.3197712087359, 0.0, 0.0, 0.0, 0.0, -1735.9258813769677, 0.0]
['beep', 0.0, -802.1370532676045, 0.0, 0.0, 0.0, 0.0, -1734.0930383316324, 0.0]
['beep', 0.0, -804.5286899243224, 0.0, 0.0, 0.0, 0.0, -1734.9200528764788, 0.0]
['beep', 0.0, -800.9524108114733, 0.0, 0.0, 0.0, 0.0, -1736.1270470770655, 0.0]
['beep', 0.0, -795.5656403977442, 0.0, 0.0, 0.0, 0.0, -1734.562424965194, 0.0]
['beep', 0.0, -797.0408555317946, 0.0, 0.0, 0.0, 0.0, -1735.6129569545935, 0.0]
['beep', 0.0, -803.3440474681911, 0.0, 0.0, 0.0, 0.0, -1733.8695208870795, 0.0]
['beep', 0.0, -804.9757248134285, 0.0, 0.0, 0.0, 0.0, -1732.5731197086716, 0.0]
['beep', 0.0, -801.153576511571, 0.0, 0.0, 0.0, 0.0, -1732.9754511088672, 0.0]
['beep', 0.0, -795.3421229531912, 0.0, 0.0, 0.0, 0.0, -1733.0648580866884, 0.0]
['beep', 0.0, -795.3868264421018, 0.0, 0.0, 0.0, 0.0, -1735.076515087666, 0.0]
['beep', 0.0, -802.1817567565151, 0.0, 0.0, 0.0, 0.0, -1735.7694191657806, 0.0]
['beep', 0.0, -804.4839864354118, 0.0, 0.0, 0.0, 0.0, -1733.176616808965, 0.0]
['beep', 0.0, -799.9465823109845, 0.0, 0.0, 0.0, 0.0, -1730.852035385613, 0.0]
['beep', 0.0, -795.4315299310124, 0.0, 0.0, 0.0, 0.0, -1732.0590295861996, 0.0]
['beep', 0.0, -796.8843933206074, 0.0, 0.0, 0.0, 0.0, -1733.8024656537136, 0.0]
['beep', 0.0, -803.4781579349229, 0.0, 0.0, 0.0, 0.0, -1735.076515087666, 0.0]
['beep', 0.0, -805.0651317912498, 0.0, 0.0, 0.0, 0.0, -1734.9871081098447, 0.0]
['beep', 0.0, -799.8795270776185, 0.0, 0.0, 0.0, 0.0, -1733.042506342233, 0.0]
['beep', 0.0, -795.7891578422973, 0.0, 0.0, 0.0, 0.0, -1734.5177214762834, 0.0]
['beep', 0.0, -796.7279311094203, 0.0, 0.0, 0.0, 0.0, -1732.751933664314, 0.0]
['beep', 0.0, -801.6229631451325, 0.0, 0.0, 0.0, 0.0, -1734.9647563653896, 0.0]
['beep', 0.0, -804.9086695800627, 0.0, 0.0, 0.0, 0.0, -1735.076515087666, 0.0]
['beep', 0.0, -800.0136375443503, 0.0, 0.0, 0.0, 0.0, -1732.5731197086716, 0.0]
['beep', 0.0, -793.7551490968644, 0.0, 0.0, 0.0, 0.0, -1735.0318115987554, 0.0]
['beep', 0.0, -795.1856607420041, 0.0, 0.0, 0.0, 0.0, -1736.976413366367, 0.0]
['beep', 0.0, -801.3547422116688, 0.0, 0.0, 0.0, 0.0, -1736.4176197549846, 0.0]
['beep', 0.0, -803.0311230458168, 0.0, 0.0, 0.0, 0.0, -1735.8811778880572, 0.0]
['beep', 0.0, -800.8853555781074, 0.0, 0.0, 0.0, 0.0, -1733.1989685534202, 0.0]
['beep', 0.0, -796.6161723871437, 0.0, 0.0, 0.0, 0.0, -1733.2660237867863, 0.0]
['beep', 0.0, -797.8902218210962, 0.0, 0.0, 0.0, 0.0, -1733.8918726315349, 0.0]
['beep', 0.0, -804.1487102685822, 0.0, 0.0, 0.0, 0.0, -1737.4457999999286, 0.0]
['beep', 0.0, -806.3838847141129, 0.0, 0.0, 0.0, 0.0, -1735.7694191657806, 0.0]
['beep', 0.0, -802.9640678124509, 0.0, 0.0, 0.0, 0.0, -1734.4730179873727, 0.0]
['beep', 0.0, -797.7784630988197, 0.0, 0.0, 0.0, 0.0, -1735.3223842766745, 0.0]
['beep', 0.0, -798.1137392656493, 0.0, 0.0, 0.0, 0.0, -1737.1328755775544, 0.0]
['beep', 0.0, -803.7910823572972, 0.0, 0.0, 0.0, 0.0, -1737.7140209333922, 0.0]
['beep', 0.0, -805.6909806359984, 0.0, 0.0, 0.0, 0.0, -1736.305861032708, 0.0]
['beep', 0.0, -800.7065416224649, 0.0, 0.0, 0.0, 0.0, -1732.4837127308504, 0.0]
['beep', 0.0, -795.3644746976465, 0.0, 0.0, 0.0, 0.0, -1731.6566981860042, 0.0]
['beep', 0.0, -797.4431869319901, 0.0, 0.0, 0.0, 0.0, -1736.8870063885458, 0.0]
['beep', 0.0, -804.4169312020459, 0.0, 0.0, 0.0, 0.0, -1737.7363726778476, 0.0]
['beep', 0.0, -804.9086695800627, 0.0, 0.0, 0.0, 0.0, -1737.2893377887415, 0.0]
['beep', 0.0, -800.5277276668224, 0.0, 0.0, 0.0, 0.0, -1735.501198232317, 0.0]
['beep', 0.0, -795.9679717979398, 0.0, 0.0, 0.0, 0.0, -1734.9647563653896, 0.0]
['beep', 0.0, -798.2925532212918, 0.0, 0.0, 0.0, 0.0, -1739.300994789719, 0.0]
['beep', 0.0, -803.2546404903699, 0.0, 0.0, 0.0, 0.0, -1738.1834075669537, 0.0]
['beep', 0.0, -805.4674631914453, 0.0, 0.0, 0.0, 0.0, -1736.5070267328058, 0.0]
['beep', 0.0, -800.930059067018, 0.0, 0.0, 0.0, 0.0, -1737.3787447665627, 0.0]
['beep', 0.0, -797.0855590207052, 0.0, 0.0, 0.0, 0.0, -1736.81995115518, 0.0]
['beep', 0.0, -798.6054776436661, 0.0, 0.0, 0.0, 0.0, -1738.3845732670516, 0.0]
['beep', 0.0, -803.187585257004, 0.0, 0.0, 0.0, 0.0, -1739.949195378923, 0.0]
['beep', 0.0, -806.0933120361939, 0.0, 0.0, 0.0, 0.0, -1737.266986044286, 0.0]
['beep', 0.0, -801.0641695337498, 0.0, 0.0, 0.0, 0.0, -1736.529378477261, 0.0]
['beep', 0.0, -795.1856607420041, 0.0, 0.0, 0.0, 0.0, -1737.334041277652, 0.0]
['beep', 0.0, -795.8562130756633, 0.0, 0.0, 0.0, 0.0, -1738.3175180336855, 0.0]
['beep', 0.0, -802.2711637343364, 0.0, 0.0, 0.0, 0.0, -1737.781076166758, 0.0]
['beep', 0.0, -804.2381172464035, 0.0, 0.0, 0.0, 0.0, -1735.4564947434062, 0.0]
['beep', 0.0, -800.1477480110823, 0.0, 0.0, 0.0, 0.0, -1736.6187854550822, 0.0]
['beep', 0.0, -794.4257014305236, 0.0, 0.0, 0.0, 0.0, -1738.2281110558642, 0.0]
['beep', 0.0, -795.766806097842, 0.0, 0.0, 0.0, 0.0, -1738.8316081561577, 0.0]
['beep', 0.0, -800.3936172000906, 0.0, 0.0, 0.0, 0.0, -1739.8597884011017, 0.0]
['beep', 0.0, -802.2041085009705, 0.0, 0.0, 0.0, 0.0, -1737.91518663349, 0.0]
['beep', 0.0, -798.091387521194, 0.0, 0.0, 0.0, 0.0, -1735.9929366103336, 0.0]
['beep', 0.0, -792.190526984993, 0.0, 0.0, 0.0, 0.0, -1737.266986044286, 0.0]
['beep', 0.0, -794.4927566638895, 0.0, 0.0, 0.0, 0.0, -1737.3787447665627, 0.0]
['beep', 0.0, -798.9407538104956, 0.0, 0.0, 0.0, 0.0, -1739.5692157231829, 0.0]
['beep', 0.0, -801.3547422116688, 0.0, 0.0, 0.0, 0.0, -1741.558520979705, 0.0]
['beep', 0.0, -796.9738002984286, 0.0, 0.0, 0.0, 0.0, -1738.563387222694, 0.0]
['beep', 0.0, -791.9670095404398, 0.0, 0.0, 0.0, 0.0, -1738.0269453557667, 0.0]
['beep', 0.0, -792.3469891961801, 0.0, 0.0, 0.0, 0.0, -1737.758724422303, 0.0]
['beep', 0.0, -798.6054776436661, 0.0, 0.0, 0.0, 0.0, -1739.3233465341743, 0.0]
['beep', 0.0, -802.0923497786939, 0.0, 0.0, 0.0, 0.0, -1738.2951662892303, 0.0]
['beep', 0.0, -796.7055793649649, 0.0, 0.0, 0.0, 0.0, -1736.663488943993, 0.0]
['beep', 0.0, -792.8163758297416, 0.0, 0.0, 0.0, 0.0, -1737.8481314001242, 0.0]
['beep', 0.0, -793.6433903745879, 0.0, 0.0, 0.0, 0.0, -1739.8374366566466, 0.0]
['beep', 0.0, -797.800814843275, 0.0, 0.0, 0.0, 0.0, -1740.1503610790207, 0.0]
['beep', 0.0, -800.7065416224649, 0.0, 0.0, 0.0, 0.0, -1741.6702797019816, 0.0]
['beep', 0.0, -797.219669487437, 0.0, 0.0, 0.0, 0.0, -1738.5857389671492, 0.0]
['beep', 0.0, -792.0117130293504, 0.0, 0.0, 0.0, 0.0, -1738.1834075669537, 0.0]
['beep', 0.0, -794.4033496860683, 0.0, 0.0, 0.0, 0.0, -1741.178541323965, 0.0]
['beep', 0.0, -800.6171346446437, 0.0, 0.0, 0.0, 0.0, -1741.0891343461437, 0.0]
['beep', 0.0, -801.8464805896856, 0.0, 0.0, 0.0, 0.0, -1740.172712823476, 0.0]
['beep', 0.0, -798.2031462434705, 0.0, 0.0, 0.0, 0.0, -1736.7305441773588, 0.0]
['beep', 0.0, -792.414044429546, 0.0, 0.0, 0.0, 0.0, -1740.2844715457527, 0.0]
['beep', 0.0, -795.5209369088336, 0.0, 0.0, 0.0, 0.0, -1742.4749425023726, 0.0]
['beep', 0.0, -802.025294545328, 0.0, 0.0, 0.0, 0.0, -1740.016250612289, 0.0]
['beep', 0.0, -802.4052742010682, 0.0, 0.0, 0.0, 0.0, -1740.0609541011995, 0.0]
['beep', 0.0, -798.6501811325767, 0.0, 0.0, 0.0, 0.0, -1739.882140145557, 0.0]
['beep', 0.0, -793.3975211855795, 0.0, 0.0, 0.0, 0.0, -1738.8986633895236, 0.0]
['beep', 0.0, -794.4480531749789, 0.0, 0.0, 0.0, 0.0, -1740.8432651571352, 0.0]
['beep', 0.0, -800.2818584778141, 0.0, 0.0, 0.0, 0.0, -1739.2115878118977, 0.0]
['beep', 0.0, -802.8076056012637, 0.0, 0.0, 0.0, 0.0, -1737.8481314001242, 0.0]
['beep', 0.0, -798.381960199113, 0.0, 0.0, 0.0, 0.0, -1738.1834075669537, 0.0]
['beep', 0.0, -792.1681752405376, 0.0, 0.0, 0.0, 0.0, -1739.2115878118977, 0.0]
['beep', 0.0, -794.4033496860683, 0.0, 0.0, 0.0, 0.0, -1740.7762099237693, 0.0]
['beep', 0.0, -799.6783613775208, 0.0, 0.0, 0.0, 0.0, -1740.6197477125822, 0.0]
['beep', 0.0, -801.801777100775, 0.0, 0.0, 0.0, 0.0, -1739.7703814232805, 0.0]
['beep', 0.0, -797.0408555317946, 0.0, 0.0, 0.0, 0.0, -1738.0269453557667, 0.0]
['beep', 0.0, -792.190526984993, 0.0, 0.0, 0.0, 0.0, -1739.7927331677358, 0.0]
['beep', 0.0, -792.4587479184567, 0.0, 0.0, 0.0, 0.0, -1741.2679483017862, 0.0]
['beep', 0.0, -799.767768355342, 0.0, 0.0, 0.0, 0.0, -1741.1114860905989, 0.0]
['beep', 0.0, -801.153576511571, 0.0, 0.0, 0.0, 0.0, -1739.3456982786297, 0.0]
['beep', 0.0, -796.7502828538755, 0.0, 0.0, 0.0, 0.0, -1739.3233465341743, 0.0]
['beep', 0.0, -792.8610793186522, 0.0, 0.0, 0.0, 0.0, -1739.233939556353, 0.0]
['beep', 0.0, -793.0845967632052, 0.0, 0.0, 0.0, 0.0, -1740.1950645679315, 0.0]
['beep', 0.0, -799.1195677661381, 0.0, 0.0, 0.0, 0.0, -1739.1668843229872, 0.0]
['beep', 0.0, -802.1370532676045, 0.0, 0.0, 0.0, 0.0, -1739.6809744454592, 0.0]
['beep', 0.0, -798.2702014768364, 0.0, 0.0, 0.0, 0.0, -1740.172712823476, 0.0]
['beep', 0.0, -792.5705066407331, 0.0, 0.0, 0.0, 0.0, -1739.233939556353, 0.0]
['beep', 0.0, -792.9057828075628, 0.0, 0.0, 0.0, 0.0, -1740.0609541011995, 0.0]
['beep', 0.0, -797.6890561209984, 0.0, 0.0, 0.0, 0.0, -1740.016250612289, 0.0]
['beep', 0.0, -801.220631744937, 0.0, 0.0, 0.0, 0.0, -1738.8763116450682, 0.0]
['beep', 0.0, -796.7055793649649, 0.0, 0.0, 0.0, 0.0, -1740.396230268029, 0.0]
['beep', 0.0, -791.9446577959845, 0.0, 0.0, 0.0, 0.0, -1740.3515267791186, 0.0]
['beep', 0.0, -793.6433903745879, 0.0, 0.0, 0.0, 0.0, -1740.530340734761, 0.0]
['beep', 0.0, -799.4995474218783, 0.0, 0.0, 0.0, 0.0, -1741.8937971465348, 0.0]
['beep', 0.0, -802.4499776899788, 0.0, 0.0, 0.0, 0.0, -1740.016250612289, 0.0]
['beep', 0.0, -799.1419195105934, 0.0, 0.0, 0.0, 0.0, -1735.9705848658784, 0.0]
['beep', 0.0, -794.4704049194343, 0.0, 0.0, 0.0, 0.0, -1736.9987651108224, 0.0]
['beep', 0.0, -795.2750677198253, 0.0, 0.0, 0.0, 0.0, -1740.6644512014927, 0.0]
['beep', 0.0, -799.9912857998951, 0.0, 0.0, 0.0, 0.0, -1740.0386023567441, 0.0]
['beep', 0.0, -800.3936172000906, 0.0, 0.0, 0.0, 0.0, -1741.2232448128755, 0.0]
['beep', 0.0, -794.2692392193364, 0.0, 0.0, 0.0, 0.0, -1737.0881720886437, 0.0]
['beep', 0.0, -788.6142478721438, 0.0, 0.0, 0.0, 0.0, -1735.657660443504, 0.0]
['beep', 0.0, -788.4354339165013, 0.0, 0.0, 0.0, 0.0, -1736.3952680105292, 0.0]
['beep', 0.0, -793.5986868856772, 0.0, 0.0, 0.0, 0.0, -1737.6693174444817, 0.0]
['beep', 0.0, -797.0855590207052, 0.0, 0.0, 0.0, 0.0, -1737.91518663349, 0.0]
['beep', 0.0, -793.0622450187499, 0.0, 0.0, 0.0, 0.0, -1734.6294801985598, 0.0]
['beep', 0.0, -791.1623467400487, 0.0, 0.0, 0.0, 0.0, -1734.852997643113, 0.0]
['beep', 0.0, -793.6880938634985, 0.0, 0.0, 0.0, 0.0, -1738.0940005891325, 0.0]
['beep', 0.0, -799.4324921885124, 0.0, 0.0, 0.0, 0.0, -1738.1610558224984, 0.0]
['beep', 0.0, -800.7065416224649, 0.0, 0.0, 0.0, 0.0, -1738.9657186228894, 0.0]
['beep', 0.0, -795.5209369088336, 0.0, 0.0, 0.0, 0.0, -1736.4846749883504, 0.0]
['beep', 0.0, -790.8270705732192, 0.0, 0.0, 0.0, 0.0, -1736.4846749883504, 0.0]
['beep', 0.0, -796.7726345983309, 0.0, 0.0, 0.0, 0.0, -1736.4176197549846, 0.0]
['beep', 0.0, -802.8746608346297, 0.0, 0.0, 0.0, 0.0, -1737.6916691889369, 0.0]
['beep', 0.0, -804.0816550352163, 0.0, 0.0, 0.0, 0.0, -1738.3175180336855, 0.0]
['beep', 0.0, -799.1195677661381, 0.0, 0.0, 0.0, 0.0, -1735.4341429989508, 0.0]
['beep', 0.0, -794.7609775973532, 0.0, 0.0, 0.0, 0.0, -1735.1882738099425, 0.0]
['beep', 0.0, -794.2021839859706, 0.0, 0.0, 0.0, 0.0, -1735.4341429989508, 0.0]
['beep', 0.0, -799.1195677661381, 0.0, 0.0, 0.0, 0.0, -1736.7528959218141, 0.0]
['beep', 0.0, -803.7463788683866, 0.0, 0.0, 0.0, 0.0, -1736.954061621912, 0.0]
['beep', 0.0, -798.0243322878281, 0.0, 0.0, 0.0, 0.0, -1734.8082941542023, 0.0]
['beep', 0.0, -793.9563147969621, 0.0, 0.0, 0.0, 0.0, -1734.6294801985598, 0.0]
['beep', 0.0, -795.0739020197275, 0.0, 0.0, 0.0, 0.0, -1734.4283144984622, 0.0]
['beep', 0.0, -799.2983817217805, 0.0, 0.0, 0.0, 0.0, -1734.0036313538112, 0.0]
['beep', 0.0, -803.2322887459146, 0.0, 0.0, 0.0, 0.0, -1737.0211168552778, 0.0]
['beep', 0.0, -799.1419195105934, 0.0, 0.0, 0.0, 0.0, -1736.305861032708, 0.0]
['beep', 0.0, -793.0175415298393, 0.0, 0.0, 0.0, 0.0, -1735.0988668321213, 0.0]
['beep', 0.0, -794.9397915529956, 0.0, 0.0, 0.0, 0.0, -1736.596433710627, 0.0]
['beep', 0.0, -800.8853555781074, 0.0, 0.0, 0.0, 0.0, -1736.3729162660738, 0.0]
['beep', 0.0, -802.7181986234425, 0.0, 0.0, 0.0, 0.0, -1736.1270470770655, 0.0]
['beep', 0.0, -798.5160706658448, 0.0, 0.0, 0.0, 0.0, -1735.367087765585, 0.0]
['beep', 0.0, -793.285762463303, 0.0, 0.0, 0.0, 0.0, -1735.948233121423, 0.0]
['beep', 0.0, -793.7551490968644, 0.0, 0.0, 0.0, 0.0, -1735.367087765585, 0.0]
['beep', 0.0, -800.0136375443503, 0.0, 0.0, 0.0, 0.0, -1737.334041277652, 0.0]
['beep', 0.0, -802.4723294344342, 0.0, 0.0, 0.0, 0.0, -1737.1999308109203, 0.0]
['beep', 0.0, -797.6443526320878, 0.0, 0.0, 0.0, 0.0, -1734.4283144984622, 0.0]
['beep', 0.0, -793.3081142077583, 0.0, 0.0, 0.0, 0.0, -1734.5847767096493, 0.0]
['beep', 0.0, -792.9504862964734, 0.0, 0.0, 0.0, 0.0, -1736.8870063885458, 0.0]
['beep', 0.0, -798.2254979879258, 0.0, 0.0, 0.0, 0.0, -1736.7305441773588, 0.0]
['beep', 0.0, -801.801777100775, 0.0, 0.0, 0.0, 0.0, -1739.2786430452638, 0.0]
['beep', 0.0, -799.186622999504, 0.0, 0.0, 0.0, 0.0, -1736.1941023104314, 0.0]
['beep', 0.0, -794.6268671306213, 0.0, 0.0, 0.0, 0.0, -1734.9200528764788, 0.0]
['beep', 0.0, -794.5374601528001, 0.0, 0.0, 0.0, 0.0, -1735.0541633432108, 0.0]
['beep', 0.0, -800.1700997555375, 0.0, 0.0, 0.0, 0.0, -1739.4574570009063, 0.0]
['beep', 0.0, -802.9193643235403, 0.0, 0.0, 0.0, 0.0, -1738.3845732670516, 0.0]
['beep', 0.0, -798.1360910101046, 0.0, 0.0, 0.0, 0.0, -1734.495369731828, 0.0]
['beep', 0.0, -792.414044429546, 0.0, 0.0, 0.0, 0.0, -1735.143570321032, 0.0]
['beep', 0.0, -793.509279907856, 0.0, 0.0, 0.0, 0.0, -1736.663488943993, 0.0]
['beep', 0.0, -800.1700997555375, 0.0, 0.0, 0.0, 0.0, -1739.2786430452638, 0.0]
['beep', 0.0, -802.1147015231493, 0.0, 0.0, 0.0, 0.0, -1736.0823435881548, 0.0]
['beep', 0.0, -797.4655386764454, 0.0, 0.0, 0.0, 0.0, -1733.8695208870795, 0.0]
['beep', 0.0, -791.0058845288617, 0.0, 0.0, 0.0, 0.0, -1737.4457999999286, 0.0]
['beep', 0.0, -792.5481548962779, 0.0, 0.0, 0.0, 0.0, -1737.3116895331968, 0.0]
['beep', 0.0, -798.6725328770319, 0.0, 0.0, 0.0, 0.0, -1738.5857389671492, 0.0]
['beep', 0.0, -801.801777100775, 0.0, 0.0, 0.0, 0.0, -1737.4457999999286, 0.0]
['beep', 0.0, -797.1526142540711, 0.0, 0.0, 0.0, 0.0, -1733.7354104203475, 0.0]
['beep', 0.0, -790.2235734729259, 0.0, 0.0, 0.0, 0.0, -1733.9365761204454, 0.0]
['beep', 0.0, -791.4305676735124, 0.0, 0.0, 0.0, 0.0, -1735.5682534656828, 0.0]
['beep', 0.0, -797.7561113543644, 0.0, 0.0, 0.0, 0.0, -1736.4399714994397, 0.0]
['beep', 0.0, -798.5607741547554, 0.0, 0.0, 0.0, 0.0, -1736.0823435881548, 0.0]
['beep', 0.0, -795.0739020197275, 0.0, 0.0, 0.0, 0.0, -1736.9317098774566, 0.0]
['beep', 0.0, -791.2964572067806, 0.0, 0.0, 0.0, 0.0, -1736.7752476662695, 0.0]
['beep', 0.0, -792.4810996629119, 0.0, 0.0, 0.0, 0.0, -1735.1882738099425, 0.0]
['beep', 0.0, -797.8455183321856, 0.0, 0.0, 0.0, 0.0, -1735.6353086990487, 0.0]
['beep', 0.0, -799.6113061441548, 0.0, 0.0, 0.0, 0.0, -1735.4788464878616, 0.0]
['beep', 0.0, -796.0797305202163, 0.0, 0.0, 0.0, 0.0, -1735.5906052101382, 0.0]
['beep', 0.0, -791.7211403514315, 0.0, 0.0, 0.0, 0.0, -1734.8082941542023, 0.0]
['beep', 0.0, -791.9446577959845, 0.0, 0.0, 0.0, 0.0, -1734.7635906652918, 0.0]
['beep', 0.0, -797.800814843275, 0.0, 0.0, 0.0, 0.0, -1738.943366878434, 0.0]
['beep', 0.0, -799.8795270776185, 0.0, 0.0, 0.0, 0.0, -1736.9317098774566, 0.0]
['beep', 0.0, -796.0126752868504, 0.0, 0.0, 0.0, 0.0, -1732.6401749420377, 0.0]
['beep', 0.0, -791.5199746513337, 0.0, 0.0, 0.0, 0.0, -1731.8355121416466, 0.0]
['beep', 0.0, -791.5199746513337, 0.0, 0.0, 0.0, 0.0, -1734.4059627540069, 0.0]
['beep', 0.0, -796.7055793649649, 0.0, 0.0, 0.0, 0.0, -1734.696535431926, 0.0]
['beep', 0.0, -799.2089747439593, 0.0, 0.0, 0.0, 0.0, -1735.6129569545935, 0.0]
['beep', 0.0, -796.1020822646716, 0.0, 0.0, 0.0, 0.0, -1736.6858406884483, 0.0]
['beep', 0.0, -790.15651823956, 0.0, 0.0, 0.0, 0.0, -1732.4166574974845, 0.0]
['beep', 0.0, -791.2741054623253, 0.0, 0.0, 0.0, 0.0, -1733.5118929757946, 0.0]
['beep', 0.0, -798.5384224103001, 0.0, 0.0, 0.0, 0.0, -1736.3282127771633, 0.0]
['beep', 0.0, -799.1419195105934, 0.0, 0.0, 0.0, 0.0, -1735.143570321032, 0.0]
['beep', 0.0, -795.4315299310124, 0.0, 0.0, 0.0, 0.0, -1733.6460034425263, 0.0]
['beep', 0.0, -791.0952915066829, 0.0, 0.0, 0.0, 0.0, -1732.8413406421353, 0.0]
['beep', 0.0, -791.1176432511381, 0.0, 0.0, 0.0, 0.0, -1734.8753493875683, 0.0]
['beep', 0.0, -797.0408555317946, 0.0, 0.0, 0.0, 0.0, -1735.791770910236, 0.0]
['beep', 0.0, -800.6841898780096, 0.0, 0.0, 0.0, 0.0, -1735.6800121879594, 0.0]
['beep', 0.0, -796.9738002984286, 0.0, 0.0, 0.0, 0.0, -1730.8967388745236, 0.0]
['beep', 0.0, -792.9728380409287, 0.0, 0.0, 0.0, 0.0, -1733.1319133200543, 0.0]
['beep', 0.0, -796.5267654093225, 0.0, 0.0, 0.0, 0.0, -1738.943366878434, 0.0]
['beep', 0.0, -796.9738002984286, 0.0, 0.0, 0.0, 0.0, -1737.0658203441883, 0.0]
['beep', 0.0, -791.9223060515292, 0.0, 0.0, 0.0, 0.0, -1731.3214220191744, 0.0]
['beep', 0.0, -784.8368030591969, 0.0, 0.0, 0.0, 0.0, -1732.751933664314, 0.0]
['beep', 0.0, -778.8465355451746, 0.0, 0.0, 0.0, 0.0, -1732.729581919859, 0.0]
['beep', 0.0, -782.3781111691131, 0.0, 0.0, 0.0, 0.0, -1734.338907520641, 0.0]
['beep', 0.0, -790.4023874285683, 0.0, 0.0, 0.0, 0.0, -1734.696535431926, 0.0]
['beep', 0.0, -791.4082159290572, 0.0, 0.0, 0.0, 0.0, -1731.7014016749147, 0.0]
['beep', 0.0, -787.4296054160125, 0.0, 0.0, 0.0, 0.0, -1735.4564947434062, 0.0]
['beep', 0.0, -782.8922012915851, 0.0, 0.0, 0.0, 0.0, -1737.4234482554732, 0.0]
['beep', 0.0, -784.702692592465, 0.0, 0.0, 0.0, 0.0, -1736.1046953326102, 0.0]
['beep', 0.0, -789.8212420727303, 0.0, 0.0, 0.0, 0.0, -1737.3116895331968, 0.0]
['beep', 0.0, -791.3411606956912, 0.0, 0.0, 0.0, 0.0, -1738.6751459449704, 0.0]
['beep', 0.0, -787.9660472829398, 0.0, 0.0, 0.0, 0.0, -1736.81995115518, 0.0]
['beep', 0.0, -782.2216489579259, 0.0, 0.0, 0.0, 0.0, -1733.8024656537136, 0.0]
['beep', 0.0, -783.8533263031634, 0.0, 0.0, 0.0, 0.0, -1732.729581919859, 0.0]
['beep', 0.0, -789.865945561641, 0.0, 0.0, 0.0, 0.0, -1735.8364743991465, 0.0]
['beep', 0.0, -792.704617107465, 0.0, 0.0, 0.0, 0.0, -1737.266986044286, 0.0]
['beep', 0.0, -788.5471926387779, 0.0, 0.0, 0.0, 0.0, -1734.338907520641, 0.0]
['beep', 0.0, -783.3615879251466, 0.0, 0.0, 0.0, 0.0, -1733.981279609356, 0.0]
['beep', 0.0, -783.7415675808868, 0.0, 0.0, 0.0, 0.0, -1736.8646546440907, 0.0]
['beep', 0.0, -788.9048205500628, 0.0, 0.0, 0.0, 0.0, -1738.1834075669537, 0.0]
['beep', 0.0, -791.6317333736102, 0.0, 0.0, 0.0, 0.0, -1736.81995115518, 0.0]
['beep', 0.0, -787.0496257602723, 0.0, 0.0, 0.0, 0.0, -1733.0201545977777, 0.0]
['beep', 0.0, -783.3615879251466, 0.0, 0.0, 0.0, 0.0, -1735.3000325322191, 0.0]
['beep', 0.0, -783.5180501363337, 0.0, 0.0, 0.0, 0.0, -1737.4905034888393, 0.0]
['beep', 0.0, -788.7260065944204, 0.0, 0.0, 0.0, 0.0, -1737.401096511018, 0.0]
['beep', 0.0, -792.4810996629119, 0.0, 0.0, 0.0, 0.0, -1736.0376400992443, 0.0]
['beep', 0.0, -788.122509494127, 0.0, 0.0, 0.0, 0.0, -1734.6741836874705, 0.0]
['beep', 0.0, -781.9087245355516, 0.0, 0.0, 0.0, 0.0, -1734.5177214762834, 0.0]
['beep', 0.0, -783.607457114155, 0.0, 0.0, 0.0, 0.0, -1735.4117912544957, 0.0]
['beep', 0.0, -789.2177449724371, 0.0, 0.0, 0.0, 0.0, -1732.8189888976801, 0.0]
['beep', 0.0, -792.414044429546, 0.0, 0.0, 0.0, 0.0, -1735.5906052101382, 0.0]
['beep', 0.0, -788.9718757834287, 0.0, 0.0, 0.0, 0.0, -1734.6741836874705, 0.0]
['beep', 0.0, -783.2945326917807, 0.0, 0.0, 0.0, 0.0, -1733.0201545977777, 0.0]
['beep', 0.0, -783.3615879251466, 0.0, 0.0, 0.0, 0.0, -1732.8189888976801, 0.0]
['beep', 0.0, -790.2012217284706, 0.0, 0.0, 0.0, 0.0, -1732.886044131046, 0.0]
['beep', 0.0, -793.8669078191409, 0.0, 0.0, 0.0, 0.0, -1728.169826050976, 0.0]
['beep', 0.0, -788.8601170611522, 0.0, 0.0, 0.0, 0.0, -1726.7616661502918, 0.0]
['beep', 0.0, -783.4733466474231, 0.0, 0.0, 0.0, 0.0, -1726.918128361479, 0.0]
['beep', 0.0, -784.4121199145461, 0.0, 0.0, 0.0, 0.0, -1724.5264917047612, 0.0]
['beep', 0.0, -790.0671112617388, 0.0, 0.0, 0.0, 0.0, -1720.8608056140909, 0.0]
['beep', 0.0, -793.6433903745879, 0.0, 0.0, 0.0, 0.0, -1715.9881253228339, 0.0]
['beep', 0.0, -789.5306693948114, 0.0, 0.0, 0.0, 0.0, -1709.3273054751523, 0.0]
['beep', 0.0, -784.3450646811801, 0.0, 0.0, 0.0, 0.0, -1700.9006978155016, 0.0]
['beep', 0.0, -785.7979280707751, 0.0, 0.0, 0.0, 0.0, -1693.0552355116888, 0.0]
['beep', 0.0, -790.4917944063895, 0.0, 0.0, 0.0, 0.0, -1683.891020285013, 0.0]
['beep', 0.0, -792.4587479184567, 0.0, 0.0, 0.0, 0.0, -1675.531467858728, 0.0]
['beep', 0.0, -789.7318350949091, 0.0, 0.0, 0.0, 0.0, -1663.528581086228, 0.0]
['beep', 0.0, -789.2177449724371, 0.0, 0.0, 0.0, 0.0, -1655.3925461044964, 0.0]
['beep', 0.0, -791.6764368625209, 0.0, 0.0, 0.0, 0.0, -1646.6753657669267, 0.0]
['beep', 0.0, -793.0622450187499, 0.0, 0.0, 0.0, 0.0, -1639.0981243965775, 0.0]
['beep', 0.0, -794.8280328307192, 0.0, 0.0, 0.0, 0.0, -1630.0456678921782, 0.0]
['beep', 0.0, -788.2566199608589, 0.0, 0.0, 0.0, 0.0, -1617.7522084417592, 0.0]
['beep', 0.0, -778.6006663561662, 0.0, 0.0, 0.0, 0.0, -1610.8008159161589, 0.0]
['beep', 0.0, -782.445166402479, 0.0, 0.0, 0.0, 0.0, -1604.0729408351112, 0.0]
['beep', 0.0, -792.6375618740991, 0.0, 0.0, 0.0, 0.0, -1597.635638431983, 0.0]
['beep', 0.0, -795.3421229531912, 0.0, 0.0, 0.0, 0.0, -1590.594838928561, 0.0]
['beep', 0.0, -787.8095850717527, 0.0, 0.0, 0.0, 0.0, -1579.4413184453629, 0.0]
['beep', 0.0, -781.0370065017947, 0.0, 0.0, 0.0, 0.0, -1571.372338696997, 0.0]
['beep', 0.0, -783.3839396696019, 0.0, 0.0, 0.0, 0.0, -1568.3995566844412, 0.0]
['beep', 0.0, -789.7318350949091, 0.0, 0.0, 0.0, 0.0, -1561.2022949698323, 0.0]
['beep', 0.0, -793.9116113080515, 0.0, 0.0, 0.0, 0.0, -1552.1721902098884, 0.0]
['beep', 0.0, -788.8824688056075, 0.0, 0.0, 0.0, 0.0, -1543.6561755724163, 0.0]
['beep', 0.0, -780.0088262568505, 0.0, 0.0, 0.0, 0.0, -1533.8884632454472, 0.0]
['beep', 0.0, -781.5958001131773, 0.0, 0.0, 0.0, 0.0, -1529.216948654288, 0.0]
['beep', 0.0, -791.6317333736102, 0.0, 0.0, 0.0, 0.0, -1525.931242219358, 0.0]
['beep', 0.0, -795.9232683090291, 0.0, 0.0, 0.0, 0.0, -1521.0362101836456, 0.0]
['beep', 0.0, -790.670608362032, 0.0, 0.0, 0.0, 0.0, -1514.7106665027936, 0.0]
['beep', 0.0, -783.8533263031634, 0.0, 0.0, 0.0, 0.0, -1509.6591722558944, 0.0]
['beep', 0.0, -785.7085210929539, 0.0, 0.0, 0.0, 0.0, -1509.34624783352, 0.0]
['beep', 0.0, -791.8105473292527, 0.0, 0.0, 0.0, 0.0, -1506.7534454767044, 0.0]
['beep', 0.0, -797.2420212318923, 0.0, 0.0, 0.0, 0.0, -1504.25005009771, 0.0]
['beep', 0.0, -795.476233419923, 0.0, 0.0, 0.0, 0.0, -1504.6970849868162, 0.0]
['beep', 0.0, -786.2449629598813, 0.0, 0.0, 0.0, 0.0, -1504.540622775629, 0.0]
['beep', 0.0, -783.898029792074, 0.0, 0.0, 0.0, 0.0, -1508.3404193330312, 0.0]
['beep', 0.0, -789.4412624169902, 0.0, 0.0, 0.0, 0.0, -1509.1674338778776, 0.0]
['beep', 0.0, -795.4985851643784, 0.0, 0.0, 0.0, 0.0, -1510.7544077342043, 0.0]
['beep', 0.0, -793.6433903745879, 0.0, 0.0, 0.0, 0.0, -1515.1353496474446, 0.0]
['beep', 0.0, -790.4917944063895, 0.0, 0.0, 0.0, 0.0, -1520.5221200611736, 0.0]
['beep', 0.0, -793.3304659522136, 0.0, 0.0, 0.0, 0.0, -1530.5804050660618, 0.0]
['beep', 0.0, -798.6501811325767, 0.0, 0.0, 0.0, 0.0, -1538.1129429475002, 0.0]
['beep', 0.0, -797.7784630988197, 0.0, 0.0, 0.0, 0.0, -1547.768896552193, 0.0]
['beep', 0.0, -793.8892595635963, 0.0, 0.0, 0.0, 0.0, -1551.345175665042, 0.0]
['beep', 0.0, -790.6259048731214, 0.0, 0.0, 0.0, 0.0, -1560.1294112359776, 0.0]
['beep', 0.0, -791.6317333736102, 0.0, 0.0, 0.0, 0.0, -1571.1264695079888, 0.0]
['beep', 0.0, -797.4431869319901, 0.0, 0.0, 0.0, 0.0, -1580.2906847346646, 0.0]
['beep', 0.0, -800.6841898780096, 0.0, 0.0, 0.0, 0.0, -1590.3266179950974, 0.0]
['beep', 0.0, -796.4373584315013, 0.0, 0.0, 0.0, 0.0, -1596.6521616759494, 0.0]
['beep', 0.0, -791.3411606956912, 0.0, 0.0, 0.0, 0.0, -1605.570507713617, 0.0]
['beep', 0.0, -791.25175371787, 0.0, 0.0, 0.0, 0.0, -1617.729856697304, 0.0]
['beep', 0.0, -796.6608758760543, 0.0, 0.0, 0.0, 0.0, -1627.0058306462563, 0.0]
['beep', 0.0, -800.1253962666269, 0.0, 0.0, 0.0, 0.0, -1632.3255458266194, 0.0]
['beep', 0.0, -794.9844950419063, 0.0, 0.0, 0.0, 0.0, -1638.18170287391, 0.0]
['beep', 0.0, -789.4412624169902, 0.0, 0.0, 0.0, 0.0, -1645.8483512220803, 0.0]
['beep', 0.0, -790.3353321952025, 0.0, 0.0, 0.0, 0.0, -1649.178761145921, 0.0]
['beep', 0.0, -796.1020822646716, 0.0, 0.0, 0.0, 0.0, -1658.275921139231, 0.0]
['beep', 0.0, -797.1749659985264, 0.0, 0.0, 0.0, 0.0, -1664.5120578422616, 0.0]
['beep', 0.0, -792.928134552018, 0.0, 0.0, 0.0, 0.0, -1666.635473565516, 0.0]
['beep', 0.0, -791.9893612848952, 0.0, 0.0, 0.0, 0.0, -1712.9035845880014, 0.0]
['beep', 0.0, -787.317846693736, 0.0, 0.0, 0.0, 0.0, -1714.691724144426, 0.0]
['beep', 0.0, -786.5355356378002, 0.0, 0.0, 0.0, 0.0, -1715.4740352003616, 0.0]
['beep', 0.0, -791.1846984845041, 0.0, 0.0, 0.0, 0.0, -1716.591622423127, 0.0]
['beep', 0.0, -793.6657421190432, 0.0, 0.0, 0.0, 0.0, -1715.2952212447192, 0.0]
['beep', 0.0, -789.7094833504539, 0.0, 0.0, 0.0, 0.0, -1715.205814266898, 0.0]
['beep', 0.0, -784.4121199145461, 0.0, 0.0, 0.0, 0.0, -1715.9881253228339, 0.0]
['beep', 0.0, -785.4850036484008, 0.0, 0.0, 0.0, 0.0, -1716.658677656493, 0.0]
['beep', 0.0, -791.2294019734147, 0.0, 0.0, 0.0, 0.0, -1719.9443840914232, 0.0]
['beep', 0.0, -792.6375618740991, 0.0, 0.0, 0.0, 0.0, -1719.1620730354873, 0.0]
['beep', 0.0, -788.7483583388756, 0.0, 0.0, 0.0, 0.0, -1716.9268985899566, 0.0]
['beep', 0.0, -784.4121199145461, 0.0, 0.0, 0.0, 0.0, -1717.3739334790628, 0.0]
['beep', 0.0, -785.1497274815712, 0.0, 0.0, 0.0, 0.0, -1717.6421544125265, 0.0]
['beep', 0.0, -791.8105473292527, 0.0, 0.0, 0.0, 0.0, -1720.7490468918143, 0.0]
['beep', 0.0, -795.0515502752722, 0.0, 0.0, 0.0, 0.0, -1718.3127067461858, 0.0]
['beep', 0.0, -790.1788699840153, 0.0, 0.0, 0.0, 0.0, -1718.24565151282, 0.0]
['beep', 0.0, -785.1050239926606, 0.0, 0.0, 0.0, 0.0, -1720.7937503807248, 0.0]
['beep', 0.0, -785.350893181669, 0.0, 0.0, 0.0, 0.0, -1721.53135794775, 0.0]
['beep', 0.0, -791.0729397622275, 0.0, 0.0, 0.0, 0.0, -1721.2631370142863, 0.0]
['beep', 0.0, -794.15748049706, 0.0, 0.0, 0.0, 0.0, -1721.2854887587416, 0.0]
['beep', 0.0, -790.2235734729259, 0.0, 0.0, 0.0, 0.0, -1719.7655701357808, 0.0]
['beep', 0.0, -785.4179484150349, 0.0, 0.0, 0.0, 0.0, -1721.3972474810182, 0.0]
['beep', 0.0, -785.6414658595879, 0.0, 0.0, 0.0, 0.0, -1722.112503303588, 0.0]
['beep', 0.0, -791.2964572067806, 0.0, 0.0, 0.0, 0.0, -1721.7995788812136, 0.0]
['beep', 0.0, -795.1409572530935, 0.0, 0.0, 0.0, 0.0, -1724.0124015822892, 0.0]
['beep', 0.0, -790.4694426619343, 0.0, 0.0, 0.0, 0.0, -1723.2300905263533, 0.0]
['beep', 0.0, -782.8922012915851, 0.0, 0.0, 0.0, 0.0, -1722.7383521483366, 0.0]
['beep', 0.0, -782.6016286136662, 0.0, 0.0, 0.0, 0.0, -1723.0736283151662, 0.0]
['beep', 0.0, -785.2614862038478, 0.0, 0.0, 0.0, 0.0, -1724.0571050711997, 0.0]
['beep', 0.0, -786.3120181932471, 0.0, 0.0, 0.0, 0.0, -1722.9618695928896, 0.0]
['beep', 0.0, -782.4675181469344, 0.0, 0.0, 0.0, 0.0, -1721.173730036465, 0.0]
['beep', 0.0, -779.2712186898254, 0.0, 0.0, 0.0, 0.0, -1723.4089044819957, 0.0]
['beep', 0.0, -780.8358408016969, 0.0, 0.0, 0.0, 0.0, -1725.4876167163393, 0.0]
['beep', 0.0, -787.0049222713617, 0.0, 0.0, 0.0, 0.0, -1725.7111341608925, 0.0]
['beep', 0.0, -791.4976229068784, 0.0, 0.0, 0.0, 0.0, -1724.079456815655, 0.0]
['beep', 0.0, -788.9271722945181, 0.0, 0.0, 0.0, 0.0, -1723.8782911155572, 0.0]
['beep', 0.0, -783.9427332809846, 0.0, 0.0, 0.0, 0.0, -1724.302974260208, 0.0]
['beep', 0.0, -782.1992972134707, 0.0, 0.0, 0.0, 0.0, -1724.302974260208, 0.0]
['beep', 0.0, -789.8212420727303, 0.0, 0.0, 0.0, 0.0, -1727.655735928504, 0.0]
['beep', 0.0, -792.123471751627, 0.0, 0.0, 0.0, 0.0, -1728.303936517708, 0.0]
['beep', 0.0, -787.6531228605655, 0.0, 0.0, 0.0, 0.0, -1724.6606021714929, 0.0]
['beep', 0.0, -782.735739080398, 0.0, 0.0, 0.0, 0.0, -1723.5653666931828, 0.0]
['beep', 0.0, -784.5238786368226, 0.0, 0.0, 0.0, 0.0, -1726.8287213836577, 0.0]
['beep', 0.0, -789.7094833504539, 0.0, 0.0, 0.0, 0.0, -1729.3544685071074, 0.0]
['beep', 0.0, -793.1516519965711, 0.0, 0.0, 0.0, 0.0, -1726.4934452168281, 0.0]
['beep', 0.0, -789.7541868393645, 0.0, 0.0, 0.0, 0.0, -1724.5264917047612, 0.0]
['beep', 0.0, -785.2614862038478, 0.0, 0.0, 0.0, 0.0, -1724.6382504270377, 0.0]
['beep', 0.0, -785.5967623706773, 0.0, 0.0, 0.0, 0.0, -1727.7004394174148, 0.0]
['beep', 0.0, -791.2070502289594, 0.0, 0.0, 0.0, 0.0, -1729.9579656074006, 0.0]
['beep', 0.0, -794.1798322415152, 0.0, 0.0, 0.0, 0.0, -1729.7791516517582, 0.0]
['beep', 0.0, -790.6259048731214, 0.0, 0.0, 0.0, 0.0, -1727.7451429063253, 0.0]
['beep', 0.0, -785.5967623706773, 0.0, 0.0, 0.0, 0.0, -1728.3933434955293, 0.0]
['beep', 0.0, -786.0437972597834, 0.0, 0.0, 0.0, 0.0, -1729.689744673937, 0.0]
['beep', 0.0, -790.4023874285683, 0.0, 0.0, 0.0, 0.0, -1727.8345498841466, 0.0]
['beep', 0.0, -793.6433903745879, 0.0, 0.0, 0.0, 0.0, -1730.5167592187834, 0.0]
['beep', 0.0, -790.8270705732192, 0.0, 0.0, 0.0, 0.0, -1728.147474306521, 0.0]
['beep', 0.0, -786.2002594709706, 0.0, 0.0, 0.0, 0.0, -1727.5886806951382, 0.0]
['beep', 0.0, -786.0437972597834, 0.0, 0.0, 0.0, 0.0, -1730.114427818588, 0.0]
['beep', 0.0, -791.2741054623253, 0.0, 0.0, 0.0, 0.0, -1731.0532010857107, 0.0]
['beep', 0.0, -793.9116113080515, 0.0, 0.0, 0.0, 0.0, -1728.2145295398868, 0.0]
['beep', 0.0, -791.5199746513337, 0.0, 0.0, 0.0, 0.0, -1727.0075353393001, 0.0]
['beep', 0.0, -786.3790734266131, 0.0, 0.0, 0.0, 0.0, -1728.147474306521, 0.0]
['beep', 0.0, -785.3061896927584, 0.0, 0.0, 0.0, 0.0, -1731.2320150413532, 0.0]
['beep', 0.0, -791.2070502289594, 0.0, 0.0, 0.0, 0.0, -1734.6294801985598, 0.0]
['beep', 0.0, -794.4704049194343, 0.0, 0.0, 0.0, 0.0, -1732.2825470307528, 0.0]
['beep', 0.0, -791.475271162423, 0.0, 0.0, 0.0, 0.0, -1730.4497039854175, 0.0]
['beep', 0.0, -784.6803408480098, 0.0, 0.0, 0.0, 0.0, -1728.7509714068142, 0.0]
['beep', 0.0, -785.0826722482053, 0.0, 0.0, 0.0, 0.0, -1729.8462068851243, 0.0]
['beep', 0.0, -789.8435938171857, 0.0, 0.0, 0.0, 0.0, -1733.1319133200543, 0.0]
['beep', 0.0, -793.7775008413197, 0.0, 0.0, 0.0, 0.0, -1730.6508696855153, 0.0]
['beep', 0.0, -789.3295036947136, 0.0, 0.0, 0.0, 0.0, -1731.0532010857107, 0.0]
['beep', 0.0, -783.898029792074, 0.0, 0.0, 0.0, 0.0, -1733.1319133200543, 0.0]
['beep', 0.0, -784.1438989810823, 0.0, 0.0, 0.0, 0.0, -1732.9978028533226, 0.0]
['beep', 0.0, -790.3129804507471, 0.0, 0.0, 0.0, 0.0, -1733.6460034425263, 0.0]
['beep', 0.0, -793.0175415298393, 0.0, 0.0, 0.0, 0.0, -1732.304898775208, 0.0]
['beep', 0.0, -789.2177449724371, 0.0, 0.0, 0.0, 0.0, -1730.5167592187834, 0.0]
['beep', 0.0, -784.3674164256355, 0.0, 0.0, 0.0, 0.0, -1729.7791516517582, 0.0]
['beep', 0.0, -783.7639193253422, 0.0, 0.0, 0.0, 0.0, -1732.237843541842, 0.0]
['beep', 0.0, -789.6647798615433, 0.0, 0.0, 0.0, 0.0, -1735.4341429989508, 0.0]
['beep', 0.0, -792.4587479184567, 0.0, 0.0, 0.0, 0.0, -1736.1046953326102, 0.0]
['beep', 0.0, -789.6647798615433, 0.0, 0.0, 0.0, 0.0, -1733.0201545977777, 0.0]
['beep', 0.0, -783.4956983918785, 0.0, 0.0, 0.0, 0.0, -1730.8967388745236, 0.0]
['beep', 0.0, -783.830974558708, 0.0, 0.0, 0.0, 0.0, -1733.6236516980712, 0.0]
['beep', 0.0, -788.9718757834287, 0.0, 0.0, 0.0, 0.0, -1732.6401749420377, 0.0]
['beep', 0.0, -792.0340647738058, 0.0, 0.0, 0.0, 0.0, -1732.4166574974845, 0.0]
['beep', 0.0, -788.5695443832332, 0.0, 0.0, 0.0, 0.0, -1734.6518319430152, 0.0]
['beep', 0.0, -783.5180501363337, 0.0, 0.0, 0.0, 0.0, -1733.981279609356, 0.0]
['beep', 0.0, -783.4286431585125, 0.0, 0.0, 0.0, 0.0, -1735.5235499767723, 0.0]
['beep', 0.0, -788.770710083331, 0.0, 0.0, 0.0, 0.0, -1736.0376400992443, 0.0]
['beep', 0.0, -791.0729397622275, 0.0, 0.0, 0.0, 0.0, -1736.7305441773588, 0.0]
['beep', 0.0, -787.831936816208, 0.0, 0.0, 0.0, 0.0, -1733.7130586758924, 0.0]
['beep', 0.0, -781.7299105799092, 0.0, 0.0, 0.0, 0.0, -1731.6790499304593, 0.0]
['beep', 0.0, -781.9534280244623, 0.0, 0.0, 0.0, 0.0, -1733.7354104203475, 0.0]
['beep', 0.0, -786.9378670379957, 0.0, 0.0, 0.0, 0.0, -1735.076515087666, 0.0]
['beep', 0.0, -791.6540851180655, 0.0, 0.0, 0.0, 0.0, -1736.305861032708, 0.0]
['beep', 0.0, -787.1837362270041, 0.0, 0.0, 0.0, 0.0, -1735.0541633432108, 0.0]
['beep', 0.0, -780.4558611459568, 0.0, 0.0, 0.0, 0.0, -1734.8082941542023, 0.0]
['beep', 0.0, -779.9864745123953, 0.0, 0.0, 0.0, 0.0, -1733.8695208870795, 0.0]
['beep', 0.0, -785.2167827149372, 0.0, 0.0, 0.0, 0.0, -1733.5789482091604, 0.0]
['beep', 0.0, -787.7425298383868, 0.0, 0.0, 0.0, 0.0, -1732.4390092419399, 0.0]
['beep', 0.0, -788.5471926387779, 0.0, 0.0, 0.0, 0.0, -1729.4438754849286, 0.0]
['beep', 0.0, -785.5297071373114, 0.0, 0.0, 0.0, 0.0, -1728.9968405958225, 0.0]
['beep', 0.0, -785.7532245818645, 0.0, 0.0, 0.0, 0.0, -1728.4380469844398, 0.0]
['beep', 0.0, -790.670608362032, 0.0, 0.0, 0.0, 0.0, -1730.7179249188812, 0.0]
['beep', 0.0, -791.9670095404398, 0.0, 0.0, 0.0, 0.0, -1731.7461051638254, 0.0]
['beep', 0.0, -790.1341664951046, 0.0, 0.0, 0.0, 0.0, -1728.7062679179035, 0.0]
['beep', 0.0, -784.7250443369204, 0.0, 0.0, 0.0, 0.0, -1727.7674946507807, 0.0]
['beep', 0.0, -784.5685821257332, 0.0, 0.0, 0.0, 0.0, -1731.0084975968002, 0.0]
['beep', 0.0, -790.5141461508449, 0.0, 0.0, 0.0, 0.0, -1731.1202563190766, 0.0]
['beep', 0.0, -795.0515502752722, 0.0, 0.0, 0.0, 0.0, -1730.0697243296772, 0.0]
['beep', 0.0, -791.5870298846996, 0.0, 0.0, 0.0, 0.0, -1730.1591313074985, 0.0]
['beep', 0.0, -784.3450646811801, 0.0, 0.0, 0.0, 0.0, -1728.9968405958225, 0.0]
['beep', 0.0, -785.4850036484008, 0.0, 0.0, 0.0, 0.0, -1732.751933664314, 0.0]
['beep', 0.0, -791.5199746513337, 0.0, 0.0, 0.0, 0.0, -1733.243672042331, 0.0]
['beep', 0.0, -795.2974194642806, 0.0, 0.0, 0.0, 0.0, -1733.6012999536158, 0.0]
['beep', 0.0, -792.8387275741968, 0.0, 0.0, 0.0, 0.0, -1732.528416219761, 0.0]
['beep', 0.0, -785.5297071373114, 0.0, 0.0, 0.0, 0.0, -1730.7179249188812, 0.0]
['beep', 0.0, -783.7192158364315, 0.0, 0.0, 0.0, 0.0, -1731.4108289969956, 0.0]
['beep', 0.0, -790.7153118509426, 0.0, 0.0, 0.0, 0.0, -1733.981279609356, 0.0]
['beep', 0.0, -793.3304659522136, 0.0, 0.0, 0.0, 0.0, -1732.4613609863952, 0.0]
['beep', 0.0, -789.6200763726326, 0.0, 0.0, 0.0, 0.0, -1733.6683551869817, 0.0]
['beep', 0.0, -785.4850036484008, 0.0, 0.0, 0.0, 0.0, -1732.5507679642164, 0.0]
['beep', 0.0, -783.8533263031634, 0.0, 0.0, 0.0, 0.0, -1732.3943057530291, 0.0]
['beep', 0.0, -789.508317650356, 0.0, 0.0, 0.0, 0.0, -1733.1319133200543, 0.0]
['beep', 0.0, -794.3586461971577, 0.0, 0.0, 0.0, 0.0, -1734.338907520641, 0.0]
['beep', 0.0, -791.7881955847973, 0.0, 0.0, 0.0, 0.0, -1732.0590295861996, 0.0]
['beep', 0.0, -785.5297071373114, 0.0, 0.0, 0.0, 0.0, -1731.6119946970935, 0.0]
['beep', 0.0, -786.2002594709706, 0.0, 0.0, 0.0, 0.0, -1733.4671894868839, 0.0]
['beep', 0.0, -791.9670095404398, 0.0, 0.0, 0.0, 0.0, -1735.1659220654872, 0.0]
['beep', 0.0, -794.8503845751744, 0.0, 0.0, 0.0, 0.0, -1732.729581919859, 0.0]
['beep', 0.0, -792.9057828075628, 0.0, 0.0, 0.0, 0.0, -1729.8909103740348, 0.0]
['beep', 0.0, -786.5355356378002, 0.0, 0.0, 0.0, 0.0, -1732.7742854087694, 0.0]
['beep', 0.0, -786.4908321488896, 0.0, 0.0, 0.0, 0.0, -1734.0706865871773, 0.0]
['beep', 0.0, -791.7881955847973, 0.0, 0.0, 0.0, 0.0, -1732.886044131046, 0.0]
['beep', 0.0, -795.6550473755655, 0.0, 0.0, 0.0, 0.0, -1733.6460034425263, 0.0]
['beep', 0.0, -792.2575822183588, 0.0, 0.0, 0.0, 0.0, -1731.4108289969956, 0.0]
['beep', 0.0, -787.0272740158169, 0.0, 0.0, 0.0, 0.0, -1731.5449394637276, 0.0]
['beep', 0.0, -787.6531228605655, 0.0, 0.0, 0.0, 0.0, -1728.9297853624566, 0.0]
['beep', 0.0, -792.2799339628142, 0.0, 0.0, 0.0, 0.0, -1732.751933664314, 0.0]
['beep', 0.0, -795.0291985308169, 0.0, 0.0, 0.0, 0.0, -1735.72471567687, 0.0]
['beep', 0.0, -792.3916926850907, 0.0, 0.0, 0.0, 0.0, -1731.7684569082805, 0.0]
['beep', 0.0, -787.1613844825488, 0.0, 0.0, 0.0, 0.0, -1730.7402766633365, 0.0]
['beep', 0.0, -785.7085210929539, 0.0, 0.0, 0.0, 0.0, -1732.1931400529315, 0.0]
['beep', 0.0, -792.2128787294482, 0.0, 0.0, 0.0, 0.0, -1733.3777825090626, 0.0]
['beep', 0.0, -795.4091781865571, 0.0, 0.0, 0.0, 0.0, -1732.1260848195654, 0.0]
['beep', 0.0, -792.414044429546, 0.0, 0.0, 0.0, 0.0, -1730.852035385613, 0.0]
['beep', 0.0, -786.1332042376047, 0.0, 0.0, 0.0, 0.0, -1731.8578638861018, 0.0]
['beep', 0.0, -786.3567216821577, 0.0, 0.0, 0.0, 0.0, -1733.91422437599, 0.0]
['beep', 0.0, -792.056416518261, 0.0, 0.0, 0.0, 0.0, -1734.4283144984622, 0.0]
['beep', 0.0, -795.5879921421996, 0.0, 0.0, 0.0, 0.0, -1733.5789482091604, 0.0]
['beep', 0.0, -792.056416518261, 0.0, 0.0, 0.0, 0.0, -1733.6236516980712, 0.0]
['beep', 0.0, -786.2896664487919, 0.0, 0.0, 0.0, 0.0, -1733.2883755312414, 0.0]
['beep', 0.0, -786.15555598206, 0.0, 0.0, 0.0, 0.0, -1732.6848784309482, 0.0]
['beep', 0.0, -791.6764368625209, 0.0, 0.0, 0.0, 0.0, -1734.6071284541047, 0.0]
['beep', 0.0, -794.090425263694, 0.0, 0.0, 0.0, 0.0, -1734.0259830982666, 0.0]
['beep', 0.0, -791.7881955847973, 0.0, 0.0, 0.0, 0.0, -1732.0366778417442, 0.0]
['beep', 0.0, -785.2167827149372, 0.0, 0.0, 0.0, 0.0, -1732.9754511088672, 0.0]
['beep', 0.0, -786.2449629598813, 0.0, 0.0, 0.0, 0.0, -1733.757762164803, 0.0]
['beep', 0.0, -792.1458234960824, 0.0, 0.0, 0.0, 0.0, -1733.8695208870795, 0.0]
['beep', 0.0, -794.3586461971577, 0.0, 0.0, 0.0, 0.0, -1734.048334842722, 0.0]
['beep', 0.0, -791.4529194179678, 0.0, 0.0, 0.0, 0.0, -1732.9530993644119, 0.0]
['beep', 0.0, -785.3732449261242, 0.0, 0.0, 0.0, 0.0, -1730.62851794106, 0.0]
['beep', 0.0, -785.4626519039455, 0.0, 0.0, 0.0, 0.0, -1733.4224859979734, 0.0]
['beep', 0.0, -791.4082159290572, 0.0, 0.0, 0.0, 0.0, -1732.9083958755014, 0.0]
['beep', 0.0, -793.9116113080515, 0.0, 0.0, 0.0, 0.0, -1733.5118929757946, 0.0]
['beep', 0.0, -790.6259048731214, 0.0, 0.0, 0.0, 0.0, -1733.0648580866884, 0.0]
['beep', 0.0, -785.7085210929539, 0.0, 0.0, 0.0, 0.0, -1732.751933664314, 0.0]
['beep', 0.0, -785.0156170148393, 0.0, 0.0, 0.0, 0.0, -1734.0706865871773, 0.0]
['beep', 0.0, -789.7765385838197, 0.0, 0.0, 0.0, 0.0, -1733.53424472025, 0.0]
['beep', 0.0, -793.6433903745879, 0.0, 0.0, 0.0, 0.0, -1732.237843541842, 0.0]
['beep', 0.0, -789.5530211392667, 0.0, 0.0, 0.0, 0.0, -1733.2883755312414, 0.0]
['beep', 0.0, -785.1273757371159, 0.0, 0.0, 0.0, 0.0, -1733.400134253518, 0.0]
['beep', 0.0, -785.4850036484008, 0.0, 0.0, 0.0, 0.0, -1733.7130586758924, 0.0]
['beep', 0.0, -791.8999543070739, 0.0, 0.0, 0.0, 0.0, -1732.7742854087694, 0.0]
['beep', 0.0, -793.8222043302303, 0.0, 0.0, 0.0, 0.0, -1733.7354104203475, 0.0]
['beep', 0.0, -790.2906287062918, 0.0, 0.0, 0.0, 0.0, -1733.6460034425263, 0.0]
['beep', 0.0, -785.4179484150349, 0.0, 0.0, 0.0, 0.0, -1732.7966371532248, 0.0]
['beep', 0.0, -785.0156170148393, 0.0, 0.0, 0.0, 0.0, -1733.6683551869817, 0.0]
['beep', 0.0, -790.8941258065851, 0.0, 0.0, 0.0, 0.0, -1732.8413406421353, 0.0]
['beep', 0.0, -793.6880938634985, 0.0, 0.0, 0.0, 0.0, -1732.1037330751103, 0.0]
['beep', 0.0, -789.7765385838197, 0.0, 0.0, 0.0, 0.0, -1733.4224859979734, 0.0]
['beep', 0.0, -785.4626519039455, 0.0, 0.0, 0.0, 0.0, -1733.981279609356, 0.0]
['beep', 0.0, -785.4179484150349, 0.0, 0.0, 0.0, 0.0, -1735.5235499767723, 0.0]
['beep', 0.0, -790.0224077728282, 0.0, 0.0, 0.0, 0.0, -1735.3894395100403, 0.0]
['beep', 0.0, -793.9786665414175, 0.0, 0.0, 0.0, 0.0, -1734.6518319430152, 0.0]
['beep', 0.0, -790.4470909174789, 0.0, 0.0, 0.0, 0.0, -1733.981279609356, 0.0]
['beep', 0.0, -785.350893181669, 0.0, 0.0, 0.0, 0.0, -1731.9025673750125, 0.0]
['beep', 0.0, -785.6861693484985, 0.0, 0.0, 0.0, 0.0, -1731.6343464415488, 0.0]
['beep', 0.0, -790.9164775510404, 0.0, 0.0, 0.0, 0.0, -1735.6800121879594, 0.0]
['beep', 0.0, -794.4257014305236, 0.0, 0.0, 0.0, 0.0, -1736.0599918436997, 0.0]
['beep', 0.0, -790.2682769618365, 0.0, 0.0, 0.0, 0.0, -1734.8977011320235, 0.0]
['beep', 0.0, -787.0943292491829, 0.0, 0.0, 0.0, 0.0, -1733.1989685534202, 0.0]
['beep', 0.0, -786.7814048268086, 0.0, 0.0, 0.0, 0.0, -1733.53424472025, 0.0]
['beep', 0.0, -790.2459252173812, 0.0, 0.0, 0.0, 0.0, -1733.0648580866884, 0.0]
['beep', 0.0, -794.5151084083449, 0.0, 0.0, 0.0, 0.0, -1732.1931400529315, 0.0]
['beep', 0.0, -792.2799339628142, 0.0, 0.0, 0.0, 0.0, -1730.7179249188812, 0.0]
['beep', 0.0, -787.6978263494761, 0.0, 0.0, 0.0, 0.0, -1729.3768202515628, 0.0]
['beep', 0.0, -787.1837362270041, 0.0, 0.0, 0.0, 0.0, -1732.528416219761, 0.0]
['beep', 0.0, -792.4587479184567, 0.0, 0.0, 0.0, 0.0, -1735.4117912544957, 0.0]
['beep', 0.0, -794.962143297451, 0.0, 0.0, 0.0, 0.0, -1734.204797053909, 0.0]
['beep', 0.0, -791.8552508181633, 0.0, 0.0, 0.0, 0.0, -1731.8578638861018, 0.0]
['beep', 0.0, -786.8708118046299, 0.0, 0.0, 0.0, 0.0, -1729.6450411850265, 0.0]
['beep', 0.0, -786.5802391267108, 0.0, 0.0, 0.0, 0.0, -1730.62851794106, 0.0]
['beep', 0.0, -792.3246374517248, 0.0, 0.0, 0.0, 0.0, -1731.3437737636298, 0.0]
['beep', 0.0, -795.6103438866548, 0.0, 0.0, 0.0, 0.0, -1732.2154917973867, 0.0]
['beep', 0.0, -791.9446577959845, 0.0, 0.0, 0.0, 0.0, -1730.7179249188812, 0.0]
['beep', 0.0, -786.8484600601745, 0.0, 0.0, 0.0, 0.0, -1729.2874132737415, 0.0]
['beep', 0.0, -786.8931635490851, 0.0, 0.0, 0.0, 0.0, -1732.528416219761, 0.0]
['beep', 0.0, -792.7940240852862, 0.0, 0.0, 0.0, 0.0, -1736.3282127771633, 0.0]
['beep', 0.0, -795.543288653289, 0.0, 0.0, 0.0, 0.0, -1734.4283144984622, 0.0]
['beep', 0.0, -792.3022857072694, 0.0, 0.0, 0.0, 0.0, -1732.595471453127, 0.0]
['beep', 0.0, -787.8766403051186, 0.0, 0.0, 0.0, 0.0, -1731.6119946970935, 0.0]
['beep', 0.0, -788.3683786831355, 0.0, 0.0, 0.0, 0.0, -1730.337945263141, 0.0]
['beep', 0.0, -791.6093816291549, 0.0, 0.0, 0.0, 0.0, -1733.3107272756968, 0.0]
['beep', 0.0, -796.5044136648672, 0.0, 0.0, 0.0, 0.0, -1735.9705848658784, 0.0]
['beep', 0.0, -794.090425263694, 0.0, 0.0, 0.0, 0.0, -1732.7966371532248, 0.0]
['beep', 0.0, -787.9883990273952, 0.0, 0.0, 0.0, 0.0, -1733.5118929757946, 0.0]
['beep', 0.0, -787.8095850717527, 0.0, 0.0, 0.0, 0.0, -1733.1319133200543, 0.0]
['beep', 0.0, -794.0680735192387, 0.0, 0.0, 0.0, 0.0, -1734.4283144984622, 0.0]
['beep', 0.0, -797.4208351875347, 0.0, 0.0, 0.0, 0.0, -1733.3107272756968, 0.0]
['beep', 0.0, -793.7551490968644, 0.0, 0.0, 0.0, 0.0, -1731.9919743528337, 0.0]
['beep', 0.0, -788.9495240389734, 0.0, 0.0, 0.0, 0.0, -1731.433180741451, 0.0]
['beep', 0.0, -787.5860676271997, 0.0, 0.0, 0.0, 0.0, -1733.981279609356, 0.0]
['beep', 0.0, -793.799852585775, 0.0, 0.0, 0.0, 0.0, -1736.3282127771633, 0.0]
['beep', 0.0, -802.0029428008727, 0.0, 0.0, 0.0, 0.0, -1733.0872098311438, 0.0]
['beep', 0.0, -801.1088730226604, 0.0, 0.0, 0.0, 0.0, -1732.5731197086716, 0.0]
['beep', 0.0, -791.8776025626186, 0.0, 0.0, 0.0, 0.0, -1735.5906052101382, 0.0]
['beep', 0.0, -789.6647798615433, 0.0, 0.0, 0.0, 0.0, -1738.3845732670516, 0.0]
['beep', 0.0, -795.0515502752722, 0.0, 0.0, 0.0, 0.0, -1739.4127535119956, 0.0]
['beep', 0.0, -797.6220008876326, 0.0, 0.0, 0.0, 0.0, -1738.563387222694, 0.0]
['beep', 0.0, -794.5598118972555, 0.0, 0.0, 0.0, 0.0, -1737.5799104666605, 0.0]
['beep', 0.0, -788.9495240389734, 0.0, 0.0, 0.0, 0.0, -1737.1999308109203, 0.0]
['beep', 0.0, -788.8824688056075, 0.0, 0.0, 0.0, 0.0, -1738.0492971002218, 0.0]
['beep', 0.0, -793.6433903745879, 0.0, 0.0, 0.0, 0.0, -1740.3068232902078, 0.0]
['beep', 0.0, -797.1973177429817, 0.0, 0.0, 0.0, 0.0, -1739.5692157231829, 0.0]
['beep', 0.0, -794.8727363196298, 0.0, 0.0, 0.0, 0.0, -1737.5352069777498, 0.0]
['beep', 0.0, -789.7318350949091, 0.0, 0.0, 0.0, 0.0, -1736.9317098774566, 0.0]
['beep', 0.0, -788.3236751942248, 0.0, 0.0, 0.0, 0.0, -1737.0658203441883, 0.0]
['beep', 0.0, -793.8445560746857, 0.0, 0.0, 0.0, 0.0, -1739.368050023085, 0.0]
['beep', 0.0, -798.3372567102024, 0.0, 0.0, 0.0, 0.0, -1739.1668843229872, 0.0]
['beep', 0.0, -796.5044136648672, 0.0, 0.0, 0.0, 0.0, -1735.7470674213253, 0.0]
['beep', 0.0, -789.8212420727303, 0.0, 0.0, 0.0, 0.0, -1736.529378477261, 0.0]
['beep', 0.0, -788.5024891498673, 0.0, 0.0, 0.0, 0.0, -1737.6693174444817, 0.0]
['beep', 0.0, -792.8610793186522, 0.0, 0.0, 0.0, 0.0, -1739.2115878118977, 0.0]
['beep', 0.0, -797.1749659985264, 0.0, 0.0, 0.0, 0.0, -1739.949195378923, 0.0]
['beep', 0.0, -793.9339630525069, 0.0, 0.0, 0.0, 0.0, -1736.3952680105292, 0.0]
['beep', 0.0, -789.2400967168924, 0.0, 0.0, 0.0, 0.0, -1737.1552273220095, 0.0]
['beep', 0.0, -788.1001577496717, 0.0, 0.0, 0.0, 0.0, -1738.3175180336855, 0.0]
['beep', 0.0, -793.0845967632052, 0.0, 0.0, 0.0, 0.0, -1737.7140209333922, 0.0]
['beep', 0.0, -796.6832276205097, 0.0, 0.0, 0.0, 0.0, -1740.396230268029, 0.0]
['beep', 0.0, -793.2187072299371, 0.0, 0.0, 0.0, 0.0, -1738.3398697781408, 0.0]
['beep', 0.0, -788.0778060052164, 0.0, 0.0, 0.0, 0.0, -1738.9657186228894, 0.0]
['beep', 0.0, -787.317846693736, 0.0, 0.0, 0.0, 0.0, -1738.3622215225962, 0.0]
['beep', 0.0, -792.2128787294482, 0.0, 0.0, 0.0, 0.0, -1738.3398697781408, 0.0]
['beep', 0.0, -796.3926549425906, 0.0, 0.0, 0.0, 0.0, -1738.5410354782387, 0.0]
['beep', 0.0, -792.7269688519203, 0.0, 0.0, 0.0, 0.0, -1735.3000325322191, 0.0]
['beep', 0.0, -786.5802391267108, 0.0, 0.0, 0.0, 0.0, -1737.8257796556688, 0.0]
['beep', 0.0, -786.7590530823533, 0.0, 0.0, 0.0, 0.0, -1739.0551256007107, 0.0]
['beep', 0.0, -792.9504862964734, 0.0, 0.0, 0.0, 0.0, -1737.3563930221073, 0.0]
['beep', 0.0, -796.996152042884, 0.0, 0.0, 0.0, 0.0, -1739.1668843229872, 0.0]
['beep', 0.0, -792.9728380409287, 0.0, 0.0, 0.0, 0.0, -1735.3000325322191, 0.0]
['beep', 0.0, -786.6472943600768, 0.0, 0.0, 0.0, 0.0, -1732.729581919859, 0.0]
['beep', 0.0, -787.831936816208, 0.0, 0.0, 0.0, 0.0, -1736.7752476662695, 0.0]
['beep', 0.0, -792.0340647738058, 0.0, 0.0, 0.0, 0.0, -1737.4905034888393, 0.0]
['beep', 0.0, -796.3032479647694, 0.0, 0.0, 0.0, 0.0, -1738.2504628003196, 0.0]
['beep', 0.0, -792.6822653630097, 0.0, 0.0, 0.0, 0.0, -1734.8753493875683, 0.0]
['beep', 0.0, -784.6803408480098, 0.0, 0.0, 0.0, 0.0, -1731.075552830166, 0.0]
['beep', 0.0, -783.1827739695042, 0.0, 0.0, 0.0, 0.0, -1730.4720557298729, 0.0]
['beep', 0.0, -787.6531228605655, 0.0, 0.0, 0.0, 0.0, -1731.1873115524427, 0.0]
['beep', 0.0, -791.5646781402443, 0.0, 0.0, 0.0, 0.0, -1730.7402766633365, 0.0]
['beep', 0.0, -788.5024891498673, 0.0, 0.0, 0.0, 0.0, -1724.8617678715907, 0.0]
['beep', 0.0, -785.864983304141, 0.0, 0.0, 0.0, 0.0, -1726.560500450194, 0.0]
['beep', 0.0, -786.5355356378002, 0.0, 0.0, 0.0, 0.0, -1727.72279116187, 0.0]
['beep', 0.0, -791.7211403514315, 0.0, 0.0, 0.0, 0.0, -1728.303936517708, 0.0]
['beep', 0.0, -796.3032479647694, 0.0, 0.0, 0.0, 0.0, -1728.8627301290908, 0.0]
['beep', 0.0, -794.8727363196298, 0.0, 0.0, 0.0, 0.0, -1726.1581690499986, 0.0]
['beep', 0.0, -788.5471926387779, 0.0, 0.0, 0.0, 0.0, -1724.9064713605014, 0.0]
['beep', 0.0, -788.6813031055098, 0.0, 0.0, 0.0, 0.0, -1726.8287213836577, 0.0]
['beep', 0.0, -794.4927566638895, 0.0, 0.0, 0.0, 0.0, -1724.884119616046, 0.0]
['beep', 0.0, -796.7726345983309, 0.0, 0.0, 0.0, 0.0, -1721.5537096922053, 0.0]
['beep', 0.0, -794.5374601528001, 0.0, 0.0, 0.0, 0.0, -1722.7160004038813, 0.0]
['beep', 0.0, -789.1730414835265, 0.0, 0.0, 0.0, 0.0, -1724.079456815655, 0.0]
['beep', 0.0, -787.4072536715572, 0.0, 0.0, 0.0, 0.0, -1724.884119616046, 0.0]
['beep', 0.0, -794.2021839859706, 0.0, 0.0, 0.0, 0.0, -1728.2592330287973, 0.0]
['beep', 0.0, -798.3372567102024, 0.0, 0.0, 0.0, 0.0, -1725.889948116535, 0.0]
['beep', 0.0, -794.5598118972555, 0.0, 0.0, 0.0, 0.0, -1725.5770236941605, 0.0]
['beep', 0.0, -789.1730414835265, 0.0, 0.0, 0.0, 0.0, -1721.6431166700265, 0.0]
['beep', 0.0, -788.4354339165013, 0.0, 0.0, 0.0, 0.0, -1721.9113376034902, 0.0]
['beep', 0.0, -793.509279907856, 0.0, 0.0, 0.0, 0.0, -1727.5216254617721, 0.0]
['beep', 0.0, -796.6161723871437, 0.0, 0.0, 0.0, 0.0, -1726.5381487057386, 0.0]
['beep', 0.0, -793.799852585775, 0.0, 0.0, 0.0, 0.0, -1724.1465120490209, 0.0]
['beep', 0.0, -788.3683786831355, 0.0, 0.0, 0.0, 0.0, -1724.6158986825824, 0.0]
['beep', 0.0, -787.0719775047276, 0.0, 0.0, 0.0, 0.0, -1726.202872538909, 0.0]
['beep', 0.0, -791.6317333736102, 0.0, 0.0, 0.0, 0.0, -1726.202872538909, 0.0]
['beep', 0.0, -796.5044136648672, 0.0, 0.0, 0.0, 0.0, -1725.1970440384202, 0.0]
['beep', 0.0, -794.4257014305236, 0.0, 0.0, 0.0, 0.0, -1724.235919026842, 0.0]
['beep', 0.0, -788.8154135722416, 0.0, 0.0, 0.0, 0.0, -1723.274794015264, 0.0]
['beep', 0.0, -786.9155152935405, 0.0, 0.0, 0.0, 0.0, -1723.8335876266467, 0.0]
['beep', 0.0, -792.7940240852862, 0.0, 0.0, 0.0, 0.0, -1728.0357155842444, 0.0]
['beep', 0.0, -797.2643729763477, 0.0, 0.0, 0.0, 0.0, -1724.2582707712975, 0.0]
['beep', 0.0, -793.9339630525069, 0.0, 0.0, 0.0, 0.0, -1722.0677998146773, 0.0]
['beep', 0.0, -788.122509494127, 0.0, 0.0, 0.0, 0.0, -1722.9618695928896, 0.0]
['beep', 0.0, -786.6025908711662, 0.0, 0.0, 0.0, 0.0, -1725.1299888050544, 0.0]
['beep', 0.0, -792.123471751627, 0.0, 0.0, 0.0, 0.0, -1725.241747527331, 0.0]
['beep', 0.0, -797.1079107651605, 0.0, 0.0, 0.0, 0.0, -1723.6547736710042, 0.0]
['beep', 0.0, -793.3751694411242, 0.0, 0.0, 0.0, 0.0, -1721.173730036465, 0.0]
['beep', 0.0, -789.351855439169, 0.0, 0.0, 0.0, 0.0, -1721.8666341145795, 0.0]
['beep', 0.0, -789.2624484613477, 0.0, 0.0, 0.0, 0.0, -1725.1523405495097, 0.0]
['beep', 0.0, -794.0010182858728, 0.0, 0.0, 0.0, 0.0, -1725.0405818272332, 0.0]
['beep', 0.0, -797.0855590207052, 0.0, 0.0, 0.0, 0.0, -1724.1465120490209, 0.0]
['beep', 0.0, -795.2527159753699, 0.0, 0.0, 0.0, 0.0, -1723.945346348923, 0.0]
['beep', 0.0, -788.5471926387779, 0.0, 0.0, 0.0, 0.0, -1722.984221337345, 0.0]
['beep', 0.0, -788.3236751942248, 0.0, 0.0, 0.0, 0.0, -1722.4254277259622, 0.0]
['beep', 0.0, -793.9339630525069, 0.0, 0.0, 0.0, 0.0, -1722.4030759815068, 0.0]
['beep', 0.0, -797.1526142540711, 0.0, 0.0, 0.0, 0.0, -1724.2135672823867, 0.0]
['beep', 0.0, -793.9786665414175, 0.0, 0.0, 0.0, 0.0, -1722.2913172592305, 0.0]
['beep', 0.0, -788.5024891498673, 0.0, 0.0, 0.0, 0.0, -1720.726695147359, 0.0]
['beep', 0.0, -787.7648815828421, 0.0, 0.0, 0.0, 0.0, -1721.5984131811158, 0.0]
['beep', 0.0, -791.8105473292527, 0.0, 0.0, 0.0, 0.0, -1723.8559393711018, 0.0]
['beep', 0.0, -796.3255997092248, 0.0, 0.0, 0.0, 0.0, -1724.0571050711997, 0.0]
['beep', 0.0, -794.15748049706, 0.0, 0.0, 0.0, 0.0, -1721.3748957365628, 0.0]
['beep', 0.0, -788.2119164719483, 0.0, 0.0, 0.0, 0.0, -1719.7432183913254, 0.0]
['beep', 0.0, -787.0943292491829, 0.0, 0.0, 0.0, 0.0, -1722.3583724925963, 0.0]
['beep', 0.0, -792.3916926850907, 0.0, 0.0, 0.0, 0.0, -1723.8782911155572, 0.0]
['beep', 0.0, -796.3255997092248, 0.0, 0.0, 0.0, 0.0, -1724.4147329824846, 0.0]
['beep', 0.0, -794.1798322415152, 0.0, 0.0, 0.0, 0.0, -1721.240785269831, 0.0]
['beep', 0.0, -790.3576839396577, 0.0, 0.0, 0.0, 0.0, -1719.564404435683, 0.0]
['beep', 0.0, -789.1059862501605, 0.0, 0.0, 0.0, 0.0, -1722.5818899371493, 0.0]
['beep', 0.0, -793.1516519965711, 0.0, 0.0, 0.0, 0.0, -1723.140683548532, 0.0]
['beep', 0.0, -796.6385241315991, 0.0, 0.0, 0.0, 0.0, -1722.2913172592305, 0.0]
['beep', 0.0, -795.0515502752722, 0.0, 0.0, 0.0, 0.0, -1722.3583724925963, 0.0]
['beep', 0.0, -789.0612827612499, 0.0, 0.0, 0.0, 0.0, -1722.3583724925963, 0.0]
['beep', 0.0, -787.7872333272974, 0.0, 0.0, 0.0, 0.0, -1720.1679015359762, 0.0]
['beep', 0.0, -792.2352304739036, 0.0, 0.0, 0.0, 0.0, -1721.7772271367583, 0.0]
['beep', 0.0, -797.8231665877303, 0.0, 0.0, 0.0, 0.0, -1720.503177702806, 0.0]
['beep', 0.0, -794.5374601528001, 0.0, 0.0, 0.0, 0.0, -1717.6421544125265, 0.0]
['beep', 0.0, -789.7765385838197, 0.0, 0.0, 0.0, 0.0, -1720.4137707249847, 0.0]
['beep', 0.0, -787.831936816208, 0.0, 0.0, 0.0, 0.0, -1721.173730036465, 0.0]
['beep', 0.0, -793.9116113080515, 0.0, 0.0, 0.0, 0.0, -1722.2689655147751, 0.0]
['beep', 0.0, -798.4266636880236, 0.0, 0.0, 0.0, 0.0, -1720.4584742138952, 0.0]
['beep', 0.0, -794.8727363196298, 0.0, 0.0, 0.0, 0.0, -1720.6819916584484, 0.0]
['beep', 0.0, -790.0000560283728, 0.0, 0.0, 0.0, 0.0, -1720.2796602582528, 0.0]
['beep', 0.0, -788.8824688056075, 0.0, 0.0, 0.0, 0.0, -1719.0056108243002, 0.0]
['beep', 0.0, -795.3421229531912, 0.0, 0.0, 0.0, 0.0, -1723.1183318040767, 0.0]
['beep', 0.0, -802.1594050120599, 0.0, 0.0, 0.0, 0.0, -1724.593546938127, 0.0]
['beep', 0.0, -797.1526142540711, 0.0, 0.0, 0.0, 0.0, -1718.3797619795516, 0.0]
['beep', 0.0, -784.4344716590014, 0.0, 0.0, 0.0, 0.0, -1717.888023601535, 0.0]
['beep', 0.0, -784.4568234034567, 0.0, 0.0, 0.0, 0.0, -1719.3185352466746, 0.0]
['beep', 0.0, -792.056416518261, 0.0, 0.0, 0.0, 0.0, -1718.9609073353897, 0.0]
['beep', 0.0, -795.8115095867527, 0.0, 0.0, 0.0, 0.0, -1716.077532300655, 0.0]
['beep', 0.0, -794.1351287526046, 0.0, 0.0, 0.0, 0.0, -1713.6411921550266, 0.0]
['beep', 0.0, -787.4072536715572, 0.0, 0.0, 0.0, 0.0, -1715.7646078782807, 0.0]
['beep', 0.0, -784.9262100370181, 0.0, 0.0, 0.0, 0.0, -1717.2174712678757, 0.0]
['beep', 0.0, -791.5646781402443, 0.0, 0.0, 0.0, 0.0, -1718.9832590798449, 0.0]
['beep', 0.0, -794.9844950419063, 0.0, 0.0, 0.0, 0.0, -1720.525529447261, 0.0]
['beep', 0.0, -792.1458234960824, 0.0, 0.0, 0.0, 0.0, -1717.888023601535, 0.0]
['beep', 0.0, -787.2731432048254, 0.0, 0.0, 0.0, 0.0, -1715.3846282225404, 0.0]
['beep', 0.0, -786.1108524931494, 0.0, 0.0, 0.0, 0.0, -1714.5799654221494, 0.0]
['beep', 0.0, -792.056416518261, 0.0, 0.0, 0.0, 0.0, -1717.2174712678757, 0.0]
['beep', 0.0, -790.737663595398, 0.0, 0.0, 0.0, 0.0, -1717.7762648792584, 0.0]
['beep', 0.0, -795.4985851643784, 0.0, 0.0, 0.0, 0.0, -1716.278698000753, 0.0]
['beep', 0.0, -792.6599136185544, 0.0, 0.0, 0.0, 0.0, -1714.5799654221494, 0.0]
['beep', 0.0, -786.5578873822556, 0.0, 0.0, 0.0, 0.0, -1713.6188404105712, 0.0]
['beep', 0.0, -786.2673147043365, 0.0, 0.0, 0.0, 0.0, -1717.083360801144, 0.0]
['beep', 0.0, -792.5258031518225, 0.0, 0.0, 0.0, 0.0, -1717.306878245697, 0.0]
['beep', 0.0, -795.8562130756633, 0.0, 0.0, 0.0, 0.0, -1716.5022154453059, 0.0]
['beep', 0.0, -792.9057828075628, 0.0, 0.0, 0.0, 0.0, -1713.7529508773032, 0.0]
['beep', 0.0, -787.317846693736, 0.0, 0.0, 0.0, 0.0, -1714.4905584443281, 0.0]
['beep', 0.0, -786.3790734266131, 0.0, 0.0, 0.0, 0.0, -1717.2621747567864, 0.0]
['beep', 0.0, -792.2352304739036, 0.0, 0.0, 0.0, 0.0, -1718.3574102350963, 0.0]
['beep', 0.0, -796.415006687046, 0.0, 0.0, 0.0, 0.0, -1714.8705381000684, 0.0]
['beep', 0.0, -794.8056810862638, 0.0, 0.0, 0.0, 0.0, -1714.0658752996774, 0.0]
['beep', 0.0, -787.5860676271997, 0.0, 0.0, 0.0, 0.0, -1713.5070816882946, 0.0]
['beep', 0.0, -786.0214455153282, 0.0, 0.0, 0.0, 0.0, -1715.6752009004595, 0.0]
['beep', 0.0, -791.3858641846018, 0.0, 0.0, 0.0, 0.0, -1715.7422561338255, 0.0]
['beep', 0.0, -794.3586461971577, 0.0, 0.0, 0.0, 0.0, -1711.6071834095935, 0.0]
['beep', 0.0, -792.190526984993, 0.0, 0.0, 0.0, 0.0, -1713.5517851772054, 0.0]
['beep', 0.0, -785.932038537507, 0.0, 0.0, 0.0, 0.0, -1714.0211718107669, 0.0]
['beep', 0.0, -783.830974558708, 0.0, 0.0, 0.0, 0.0, -1713.8423578551244, 0.0]
['beep', 0.0, -788.8601170611522, 0.0, 0.0, 0.0, 0.0, -1717.105712545599, 0.0]
['beep', 0.0, -792.2128787294482, 0.0, 0.0, 0.0, 0.0, -1715.5410904337277, 0.0]
['beep', 0.0, -790.0000560283728, 0.0, 0.0, 0.0, 0.0, -1716.3457532341188, 0.0]
['beep', 0.0, -786.6249426156214, 0.0, 0.0, 0.0, 0.0, -1714.0658752996774, 0.0]
['beep', 0.0, -784.8591548036522, 0.0, 0.0, 0.0, 0.0, -1713.015343310278, 0.0]
['beep', 0.0, -790.7600153398532, 0.0, 0.0, 0.0, 0.0, -1713.1494537770097, 0.0]
['beep', 0.0, -794.313942708247, 0.0, 0.0, 0.0, 0.0, -1713.9094130884903, 0.0]
['beep', 0.0, -791.832899073708, 0.0, 0.0, 0.0, 0.0, -1715.0940555446216, 0.0]
['beep', 0.0, -784.8591548036522, 0.0, 0.0, 0.0, 0.0, -1714.5352619332389, 0.0]
['beep', 0.0, -784.188602469993, 0.0, 0.0, 0.0, 0.0, -1714.7364276333367, 0.0]
['beep', 0.0, -789.3071519502583, 0.0, 0.0, 0.0, 0.0, -1714.401151466507, 0.0]
['beep', 0.0, -794.4480531749789, 0.0, 0.0, 0.0, 0.0, -1714.7364276333367, 0.0]
['beep', 0.0, -792.5705066407331, 0.0, 0.0, 0.0, 0.0, -1711.8977560875126, 0.0]
['beep', 0.0, -787.7872333272974, 0.0, 0.0, 0.0, 0.0, -1710.9589828203898, 0.0]
['beep', 0.0, -785.1720792260265, 0.0, 0.0, 0.0, 0.0, -1715.2952212447192, 0.0]
['beep', 0.0, -790.3800356841131, 0.0, 0.0, 0.0, 0.0, -1717.0610090566886, 0.0]
['beep', 0.0, -795.1409572530935, 0.0, 0.0, 0.0, 0.0, -1716.077532300655, 0.0]
['beep', 0.0, -791.7434920958867, 0.0, 0.0, 0.0, 0.0, -1714.4235032109623, 0.0]
['beep', 0.0, -786.1332042376047, 0.0, 0.0, 0.0, 0.0, -1714.110578788588, 0.0]
['beep', 0.0, -785.7532245818645, 0.0, 0.0, 0.0, 0.0, -1713.4176747104734, 0.0]
['beep', 0.0, -791.4305676735124, 0.0, 0.0, 0.0, 0.0, -1713.4847299438395, 0.0]
['beep', 0.0, -794.8503845751744, 0.0, 0.0, 0.0, 0.0, -1717.4409887124289, 0.0]
['beep', 0.0, -792.3916926850907, 0.0, 0.0, 0.0, 0.0, -1715.7422561338255, 0.0]
['beep', 0.0, -786.5802391267108, 0.0, 0.0, 0.0, 0.0, -1712.8365293546356, 0.0]
['beep', 0.0, -786.1332042376047, 0.0, 0.0, 0.0, 0.0, -1713.8647095995796, 0.0]
['beep', 0.0, -791.2741054623253, 0.0, 0.0, 0.0, 0.0, -1716.144587534021, 0.0]
['beep', 0.0, -794.6268671306213, 0.0, 0.0, 0.0, 0.0, -1712.7471223768143, 0.0]
['beep', 0.0, -791.5199746513337, 0.0, 0.0, 0.0, 0.0, -1713.4847299438395, 0.0]
['beep', 0.0, -786.15555598206, 0.0, 0.0, 0.0, 0.0, -1714.1329305330432, 0.0]
['beep', 0.0, -784.769747825831, 0.0, 0.0, 0.0, 0.0, -1712.4118462099848, 0.0]
