['beep', 0.0, -656.9177695414746, 0.0, 0.0, 0.0, 0.0, -1875.043138866799, 0.0]
['beep', 0.0, -653.7214700843657, 0.0, 0.0, 0.0, 0.0, -1872.4056330210726, 0.0]
['beep', 0.0, -650.391060160525, 0.0, 0.0, 0.0, 0.0, -1872.0033016208772, 0.0]
['beep', 0.0, -652.8497520506087, 0.0, 0.0, 0.0, 0.0, -1871.265694053852, 0.0]
['beep', 0.0, -657.6106736195891, 0.0, 0.0, 0.0, 0.0, -1872.6738539545363, 0.0]
['beep', 0.0, -655.5990166186115, 0.0, 0.0, 0.0, 0.0, -1877.300665056785, 0.0]
['beep', 0.0, -650.7933915607205, 0.0, 0.0, 0.0, 0.0, -1873.590275477204, 0.0]
['beep', 0.0, -647.9547200148965, 0.0, 0.0, 0.0, 0.0, -1872.6738539545363, 0.0]
['beep', 0.0, -649.742859571321, 0.0, 0.0, 0.0, 0.0, -1873.076185354732, 0.0]
['beep', 0.0, -655.8001823187092, 0.0, 0.0, 0.0, 0.0, -1877.680644712525, 0.0]
['beep', 0.0, -655.6660718519773, 0.0, 0.0, 0.0, 0.0, -1879.2452668243966, 0.0]
['beep', 0.0, -650.6369293495333, 0.0, 0.0, 0.0, 0.0, -1874.7749179333352, 0.0]
['beep', 0.0, -649.809914804687, 0.0, 0.0, 0.0, 0.0, -1873.3667580326508, 0.0]
['beep', 0.0, -650.4581153938908, 0.0, 0.0, 0.0, 0.0, -1876.2724848118407, 0.0]
['beep', 0.0, -654.6602433514886, 0.0, 0.0, 0.0, 0.0, -1877.8818104126228, 0.0]
['beep', 0.0, -655.2860921962372, 0.0, 0.0, 0.0, 0.0, -1875.4007667780838, 0.0]
['beep', 0.0, -650.6592810939886, 0.0, 0.0, 0.0, 0.0, -1876.3842435341173, 0.0]
['beep', 0.0, -646.1442287140165, 0.0, 0.0, 0.0, 0.0, -1875.4007667780838, 0.0]
['beep', 0.0, -649.6981560824104, 0.0, 0.0, 0.0, 0.0, -1874.4619935109608, 0.0]
['beep', 0.0, -655.9566445298964, 0.0, 0.0, 0.0, 0.0, -1876.0266156228324, 0.0]
['beep', 0.0, -654.8837607960417, 0.0, 0.0, 0.0, 0.0, -1877.7924034348016, 0.0]
['beep', 0.0, -650.1675427159719, 0.0, 0.0, 0.0, 0.0, -1875.6689877115475, 0.0]
['beep', 0.0, -648.1111822260835, 0.0, 0.0, 0.0, 0.0, -1872.2491708098855, 0.0]
['beep', 0.0, -651.419240405469, 0.0, 0.0, 0.0, 0.0, -1878.9323424020224, 0.0]
['beep', 0.0, -655.1072782405947, 0.0, 0.0, 0.0, 0.0, -1881.8380691812122, 0.0]
['beep', 0.0, -655.3978509185137, 0.0, 0.0, 0.0, 0.0, -1878.6864732130139, 0.0]
['beep', 0.0, -648.7370310708321, 0.0, 0.0, 0.0, 0.0, -1876.8536301676788, 0.0]
['beep', 0.0, -645.227807191349, 0.0, 0.0, 0.0, 0.0, -1877.1889063345084, 0.0]
['beep', 0.0, -650.1898944604271, 0.0, 0.0, 0.0, 0.0, -1878.8652871686563, 0.0]
['beep', 0.0, -653.0956212396171, 0.0, 0.0, 0.0, 0.0, -1880.9887028919106, 0.0]
['beep', 0.0, -653.967339273374, 0.0, 0.0, 0.0, 0.0, -1877.300665056785, 0.0]
['beep', 0.0, -649.4969903823127, 0.0, 0.0, 0.0, 0.0, -1877.2112580789637, 0.0]
['beep', 0.0, -646.613615347578, 0.0, 0.0, 0.0, 0.0, -1878.619417979648, 0.0]
['beep', 0.0, -648.5582171151897, 0.0, 0.0, 0.0, 0.0, -1879.6923017135027, 0.0]
['beep', 0.0, -653.6544148509997, 0.0, 0.0, 0.0, 0.0, -1878.2170865794524, 0.0]
['beep', 0.0, -652.9168072839747, 0.0, 0.0, 0.0, 0.0, -1878.9993976353883, 0.0]
['beep', 0.0, -646.4124496474802, 0.0, 0.0, 0.0, 0.0, -1876.004263878377, 0.0]
['beep', 0.0, -644.3784409020473, 0.0, 0.0, 0.0, 0.0, -1875.1548975890755, 0.0]
['beep', 0.0, -647.5076851257903, 0.0, 0.0, 0.0, 0.0, -1876.7865749343127, 0.0]
['beep', 0.0, -654.3026154402037, 0.0, 0.0, 0.0, 0.0, -1879.5134877578603, 0.0]
['beep', 0.0, -655.0178712627735, 0.0, 0.0, 0.0, 0.0, -1878.4406040240056, 0.0]
['beep', 0.0, -648.8934932820193, 0.0, 0.0, 0.0, 0.0, -1874.9984353778882, 0.0]
['beep', 0.0, -645.4513246359021, 0.0, 0.0, 0.0, 0.0, -1875.2443045668967, 0.0]
['beep', 0.0, -648.357051415092, 0.0, 0.0, 0.0, 0.0, -1876.0936708561983, 0.0]
['beep', 0.0, -654.839057307131, 0.0, 0.0, 0.0, 0.0, -1879.8264121802347, 0.0]
['beep', 0.0, -654.6378916070332, 0.0, 0.0, 0.0, 0.0, -1878.1276796016311, 0.0]
['beep', 0.0, -650.0110805047847, 0.0, 0.0, 0.0, 0.0, -1874.841973166701, 0.0]
['beep', 0.0, -646.2112839473825, 0.0, 0.0, 0.0, 0.0, -1872.1150603431536, 0.0]
['beep', 0.0, -648.1558857149942, 0.0, 0.0, 0.0, 0.0, -1875.1325458446202, 0.0]
['beep', 0.0, -654.03439450674, 0.0, 0.0, 0.0, 0.0, -1878.03827262381, 0.0]
['beep', 0.0, -654.1908567179271, 0.0, 0.0, 0.0, 0.0, -1875.5348772448156, 0.0]
['beep', 0.0, -649.6758043379551, 0.0, 0.0, 0.0, 0.0, -1874.3502347886842, 0.0]
['beep', 0.0, -646.7253740698545, 0.0, 0.0, 0.0, 0.0, -1874.7749179333352, 0.0]
['beep', 0.0, -648.9158450264747, 0.0, 0.0, 0.0, 0.0, -1875.6689877115475, 0.0]
['beep', 0.0, -653.229731706349, 0.0, 0.0, 0.0, 0.0, -1875.6466359670922, 0.0]
['beep', 0.0, -652.9168072839747, 0.0, 0.0, 0.0, 0.0, -1879.5358395023156, 0.0]
['beep', 0.0, -649.2064177043936, 0.0, 0.0, 0.0, 0.0, -1877.457127267972, 0.0]
['beep', 0.0, -644.1549234574942, 0.0, 0.0, 0.0, 0.0, -1873.7020341994805, 0.0]
['beep', 0.0, -646.613615347578, 0.0, 0.0, 0.0, 0.0, -1873.098537099187, 0.0]
['beep', 0.0, -651.5309991277455, 0.0, 0.0, 0.0, 0.0, -1876.4065952785727, 0.0]
['beep', 0.0, -653.0285660062511, 0.0, 0.0, 0.0, 0.0, -1880.4075575360725, 0.0]
['beep', 0.0, -647.194760703416, 0.0, 0.0, 0.0, 0.0, -1876.8983336565893, 0.0]
['beep', 0.0, -641.7632868007764, 0.0, 0.0, 0.0, 0.0, -1871.9362463875111, 0.0]
['beep', 0.0, -644.93723451343, 0.0, 0.0, 0.0, 0.0, -1875.1101941001648, 0.0]
['beep', 0.0, -650.9722055163629, 0.0, 0.0, 0.0, 0.0, -1877.7029964569804, 0.0]
['beep', 0.0, -650.1451909715165, 0.0, 0.0, 0.0, 0.0, -1875.490173755905, 0.0]
['beep', 0.0, -646.0324699917401, 0.0, 0.0, 0.0, 0.0, -1870.684548698014, 0.0]
['beep', 0.0, -641.9868042453295, 0.0, 0.0, 0.0, 0.0, -1869.008167863866, 0.0]
['beep', 0.0, -643.3726124015585, 0.0, 0.0, 0.0, 0.0, -1875.1772493335307, 0.0]
['beep', 0.0, -649.6981560824104, 0.0, 0.0, 0.0, 0.0, -1878.7088249574692, 0.0]
['beep', 0.0, -650.7486880718099, 0.0, 0.0, 0.0, 0.0, -1878.485307512916, 0.0]
['beep', 0.0, -645.227807191349, 0.0, 0.0, 0.0, 0.0, -1873.1879440770083, 0.0]
['beep', 0.0, -640.93627225593, 0.0, 0.0, 0.0, 0.0, -1871.7574324318687, 0.0]
['beep', 0.0, -643.7525920572987, 0.0, 0.0, 0.0, 0.0, -1874.03731036631, 0.0]
['beep', 0.0, -649.6311008490445, 0.0, 0.0, 0.0, 0.0, -1877.747699945891, 0.0]
['beep', 0.0, -651.3745369165584, 0.0, 0.0, 0.0, 0.0, -1877.300665056785, 0.0]
['beep', 0.0, -645.6748420804552, 0.0, 0.0, 0.0, 0.0, -1871.2209905649413, 0.0]
['beep', 0.0, -641.7185833118658, 0.0, 0.0, 0.0, 0.0, -1871.8691911541453, 0.0]
['beep', 0.0, -643.5961298461116, 0.0, 0.0, 0.0, 0.0, -1875.5125255003604, 0.0]
['beep', 0.0, -648.5358653707344, 0.0, 0.0, 0.0, 0.0, -1873.7243859439357, 0.0]
['beep', 0.0, -649.0276037487512, 0.0, 0.0, 0.0, 0.0, -1876.9877406344106, 0.0]
['beep', 0.0, -645.2054554468937, 0.0, 0.0, 0.0, 0.0, -1874.3725865331396, 0.0]
['beep', 0.0, -639.5951675886116, 0.0, 0.0, 0.0, 0.0, -1869.4775544974275, 0.0]
['beep', 0.0, -643.2608536792819, 0.0, 0.0, 0.0, 0.0, -1874.1937725774972, 0.0]
['beep', 0.0, -648.6923275819215, 0.0, 0.0, 0.0, 0.0, -1877.9041621570782, 0.0]
['beep', 0.0, -648.1782374594495, 0.0, 0.0, 0.0, 0.0, -1877.300665056785, 0.0]
['beep', 0.0, -642.7020600678993, 0.0, 0.0, 0.0, 0.0, -1872.9867783769107, 0.0]
['beep', 0.0, -640.3998303890027, 0.0, 0.0, 0.0, 0.0, -1871.1539353315754, 0.0]
['beep', 0.0, -643.0373362347289, 0.0, 0.0, 0.0, 0.0, -1874.0149586218547, 0.0]
['beep', 0.0, -648.0217752482623, 0.0, 0.0, 0.0, 0.0, -1873.3220545437403, 0.0]
['beep', 0.0, -648.580568859645, 0.0, 0.0, 0.0, 0.0, -1874.909028400067, 0.0]
['beep', 0.0, -643.1267432125501, 0.0, 0.0, 0.0, 0.0, -1875.780746433824, 0.0]
['beep', 0.0, -639.8857402665305, 0.0, 0.0, 0.0, 0.0, -1871.3774527761286, 0.0]
['beep', 0.0, -641.8526937785977, 0.0, 0.0, 0.0, 0.0, -1872.5397434878046, 0.0]
['beep', 0.0, -645.2725106802596, 0.0, 0.0, 0.0, 0.0, -1874.7078626999692, 0.0]
['beep', 0.0, -647.6194438480668, 0.0, 0.0, 0.0, 0.0, -1876.2054295784749, 0.0]
['beep', 0.0, -640.9809757448406, 0.0, 0.0, 0.0, 0.0, -1872.8303161657234, 0.0]
['beep', 0.0, -636.6894408094216, 0.0, 0.0, 0.0, 0.0, -1868.494077741394, 0.0]
['beep', 0.0, -639.9080920109859, 0.0, 0.0, 0.0, 0.0, -1872.5173917433492, 0.0]
['beep', 0.0, -644.8701792800641, 0.0, 0.0, 0.0, 0.0, -1876.808926678768, 0.0]
['beep', 0.0, -643.6408333350222, 0.0, 0.0, 0.0, 0.0, -1876.3842435341173, 0.0]
['beep', 0.0, -637.1141239540725, 0.0, 0.0, 0.0, 0.0, -1874.2161243219525, 0.0]
['beep', 0.0, -639.1257809550501, 0.0, 0.0, 0.0, 0.0, -1872.2268190654302, 0.0]
['beep', 0.0, -647.9100165259858, 0.0, 0.0, 0.0, 0.0, -1871.332749287218, 0.0]
['beep', 0.0, -653.9226357844634, 0.0, 0.0, 0.0, 0.0, -1873.7914411773017, 0.0]
['beep', 0.0, -651.933330527941, 0.0, 0.0, 0.0, 0.0, -1876.518354000849, 0.0]
['beep', 0.0, -646.2336356918378, 0.0, 0.0, 0.0, 0.0, -1874.327883044229, 0.0]
['beep', 0.0, -640.4668856223685, 0.0, 0.0, 0.0, 0.0, -1871.7350806874135, 0.0]
['beep', 0.0, -642.4785426233462, 0.0, 0.0, 0.0, 0.0, -1870.7516039313798, 0.0]
['beep', 0.0, -650.2345979493377, 0.0, 0.0, 0.0, 0.0, -1875.557228989271, 0.0]
['beep', 0.0, -651.8886270390304, 0.0, 0.0, 0.0, 0.0, -1877.0994993566871, 0.0]
['beep', 0.0, -644.6019583466003, 0.0, 0.0, 0.0, 0.0, -1874.3055312997737, 0.0]
['beep', 0.0, -640.8245135336534, 0.0, 0.0, 0.0, 0.0, -1873.098537099187, 0.0]
['beep', 0.0, -643.5290746127456, 0.0, 0.0, 0.0, 0.0, -1872.8079644212683, 0.0]
['beep', 0.0, -649.3628799155808, 0.0, 0.0, 0.0, 0.0, -1878.2394383239077, 0.0]
['beep', 0.0, -650.1898944604271, 0.0, 0.0, 0.0, 0.0, -1880.9887028919106, 0.0]
['beep', 0.0, -646.4571531363908, 0.0, 0.0, 0.0, 0.0, -1874.5737522332374, 0.0]
['beep', 0.0, -641.4503623784021, 0.0, 0.0, 0.0, 0.0, -1874.5737522332374, 0.0]
['beep', 0.0, -644.4678478798685, 0.0, 0.0, 0.0, 0.0, -1875.6913394560029, 0.0]
['beep', 0.0, -649.2958246822149, 0.0, 0.0, 0.0, 0.0, -1876.4065952785727, 0.0]
['beep', 0.0, -649.6981560824104, 0.0, 0.0, 0.0, 0.0, -1879.4464325244944, 0.0]
['beep', 0.0, -645.9877665028295, 0.0, 0.0, 0.0, 0.0, -1874.8866766556118, 0.0]
['beep', 0.0, -641.2491966783043, 0.0, 0.0, 0.0, 0.0, -1873.4114615215615, 0.0]
['beep', 0.0, -641.3162519116703, 0.0, 0.0, 0.0, 0.0, -1874.4619935109608, 0.0]
['beep', 0.0, -649.1840659599384, 0.0, 0.0, 0.0, 0.0, -1875.780746433824, 0.0]
['beep', 0.0, -650.6592810939886, 0.0, 0.0, 0.0, 0.0, -1879.0888046132095, 0.0]
['beep', 0.0, -643.6631850794774, 0.0, 0.0, 0.0, 0.0, -1875.9372086450112, 0.0]
['beep', 0.0, -640.0869059666284, 0.0, 0.0, 0.0, 0.0, -1870.170458575542, 0.0]
['beep', 0.0, -643.9984612463071, 0.0, 0.0, 0.0, 0.0, -1874.6408074666033, 0.0]
['beep', 0.0, -649.5640456156785, 0.0, 0.0, 0.0, 0.0, -1878.2394383239077, 0.0]
['beep', 0.0, -651.12866772755, 0.0, 0.0, 0.0, 0.0, -1878.2394383239077, 0.0]
['beep', 0.0, -645.8760077805529, 0.0, 0.0, 0.0, 0.0, -1874.394938277595, 0.0]
['beep', 0.0, -641.6291763340446, 0.0, 0.0, 0.0, 0.0, -1870.975121375933, 0.0]
['beep', 0.0, -643.6631850794774, 0.0, 0.0, 0.0, 0.0, -1874.2384760664079, 0.0]
['beep', 0.0, -650.5251706272568, 0.0, 0.0, 0.0, 0.0, -1876.496002256394, 0.0]
['beep', 0.0, -651.3521851721031, 0.0, 0.0, 0.0, 0.0, -1876.4736505119386, 0.0]
['beep', 0.0, -647.9323682704411, 0.0, 0.0, 0.0, 0.0, -1875.1325458446202, 0.0]
['beep', 0.0, -641.4727141228574, 0.0, 0.0, 0.0, 0.0, -1872.785612676813, 0.0]
['beep', 0.0, -643.2161501903713, 0.0, 0.0, 0.0, 0.0, -1872.9197231435446, 0.0]
['beep', 0.0, -648.4017549040026, 0.0, 0.0, 0.0, 0.0, -1879.6028947356815, 0.0]
['beep', 0.0, -649.3628799155808, 0.0, 0.0, 0.0, 0.0, -1877.8371069237123, 0.0]
['beep', 0.0, -641.3162519116703, 0.0, 0.0, 0.0, 0.0, -1872.3162260432514, 0.0]
['beep', 0.0, -635.4153913754692, 0.0, 0.0, 0.0, 0.0, -1869.2093335639638, 0.0]
['beep', 0.0, -638.2987664102038, 0.0, 0.0, 0.0, 0.0, -1870.7516039313798, 0.0]
['beep', 0.0, -643.5737781016562, 0.0, 0.0, 0.0, 0.0, -1873.6349789661144, 0.0]
['beep', 0.0, -646.9488915144076, 0.0, 0.0, 0.0, 0.0, -1873.5679237327486, 0.0]
['beep', 0.0, -642.1879699454272, 0.0, 0.0, 0.0, 0.0, -1872.1150603431536, 0.0]
['beep', 0.0, -639.7069263108881, 0.0, 0.0, 0.0, 0.0, -1872.4726882544385, 0.0]
['beep', 0.0, -642.7467635568099, 0.0, 0.0, 0.0, 0.0, -1873.098537099187, 0.0]
['beep', 0.0, -648.6923275819215, 0.0, 0.0, 0.0, 0.0, -1874.3502347886842, 0.0]
['beep', 0.0, -651.1733712164606, 0.0, 0.0, 0.0, 0.0, -1874.6408074666033, 0.0]
['beep', 0.0, -645.8313042916423, 0.0, 0.0, 0.0, 0.0, -1872.271522554341, 0.0]
['beep', 0.0, -642.4561908788909, 0.0, 0.0, 0.0, 0.0, -1869.8575341531675, 0.0]
['beep', 0.0, -644.1772752019496, 0.0, 0.0, 0.0, 0.0, -1871.3103975427625, 0.0]
['beep', 0.0, -649.0946589821172, 0.0, 0.0, 0.0, 0.0, -1876.2277813229302, 0.0]
['beep', 0.0, -650.1898944604271, 0.0, 0.0, 0.0, 0.0, -1878.0159208793548, 0.0]
['beep', 0.0, -645.3395659136255, 0.0, 0.0, 0.0, 0.0, -1875.8701534116453, 0.0]
['beep', 0.0, -639.8410367776199, 0.0, 0.0, 0.0, 0.0, -1874.2161243219525, 0.0]
['beep', 0.0, -641.9421007564189, 0.0, 0.0, 0.0, 0.0, -1874.5961039776928, 0.0]
['beep', 0.0, -647.3959264035137, 0.0, 0.0, 0.0, 0.0, -1876.8312784232235, 0.0]
['beep', 0.0, -649.6758043379551, 0.0, 0.0, 0.0, 0.0, -1877.0547958677764, 0.0]
['beep', 0.0, -645.9430630139188, 0.0, 0.0, 0.0, 0.0, -1872.1150603431536, 0.0]
['beep', 0.0, -641.4727141228574, 0.0, 0.0, 0.0, 0.0, -1870.9080661425671, 0.0]
['beep', 0.0, -644.4231443909579, 0.0, 0.0, 0.0, 0.0, -1872.0033016208772, 0.0]
['beep', 0.0, -650.6816328384439, 0.0, 0.0, 0.0, 0.0, -1876.2501330673854, 0.0]
['beep', 0.0, -651.3298334276478, 0.0, 0.0, 0.0, 0.0, -1874.3502347886842, 0.0]
['beep', 0.0, -646.7924293032205, 0.0, 0.0, 0.0, 0.0, -1873.4785167549273, 0.0]
['beep', 0.0, -641.7856385452317, 0.0, 0.0, 0.0, 0.0, -1873.8584964106676, 0.0]
['beep', 0.0, -643.0373362347289, 0.0, 0.0, 0.0, 0.0, -1873.232647565919, 0.0]
['beep', 0.0, -649.8993217825082, 0.0, 0.0, 0.0, 0.0, -1878.5747144907373, 0.0]
['beep', 0.0, -652.4697723948684, 0.0, 0.0, 0.0, 0.0, -1876.4289470230278, 0.0]
['beep', 0.0, -648.4464583929132, 0.0, 0.0, 0.0, 0.0, -1871.5786184762262, 0.0]
['beep', 0.0, -642.6126530900781, 0.0, 0.0, 0.0, 0.0, -1870.6621969535586, 0.0]
['beep', 0.0, -643.8643507795753, 0.0, 0.0, 0.0, 0.0, -1872.0256533653323, 0.0]
['beep', 0.0, -650.3687084160696, 0.0, 0.0, 0.0, 0.0, -1876.294836556296, 0.0]
['beep', 0.0, -651.3074816831925, 0.0, 0.0, 0.0, 0.0, -1876.361891789662, 0.0]
['beep', 0.0, -646.390097903025, 0.0, 0.0, 0.0, 0.0, -1874.551400488782, 0.0]
['beep', 0.0, -643.6408333350222, 0.0, 0.0, 0.0, 0.0, -1872.1821155765197, 0.0]
['beep', 0.0, -644.065516479673, 0.0, 0.0, 0.0, 0.0, -1871.6009702206816, 0.0]
['beep', 0.0, -649.5193421267679, 0.0, 0.0, 0.0, 0.0, -1878.462955768461, 0.0]
['beep', 0.0, -651.2180747053712, 0.0, 0.0, 0.0, 0.0, -1875.2219528224414, 0.0]
['beep', 0.0, -645.7642490582764, 0.0, 0.0, 0.0, 0.0, -1871.8691911541453, 0.0]
['beep', 0.0, -641.7856385452317, 0.0, 0.0, 0.0, 0.0, -1873.7243859439357, 0.0]
['beep', 0.0, -644.7807723022428, 0.0, 0.0, 0.0, 0.0, -1874.4619935109608, 0.0]
['beep', 0.0, -650.03343224924, 0.0, 0.0, 0.0, 0.0, -1874.8866766556118, 0.0]
['beep', 0.0, -652.0227375057623, 0.0, 0.0, 0.0, 0.0, -1877.2783133123296, 0.0]
['beep', 0.0, -647.8429612926199, 0.0, 0.0, 0.0, 0.0, -1871.8244876652348, 0.0]
['beep', 0.0, -645.8313042916423, 0.0, 0.0, 0.0, 0.0, -1872.9644266324553, 0.0]
['beep', 0.0, -648.1335339705389, 0.0, 0.0, 0.0, 0.0, -1875.0654906112543, 0.0]
['beep', 0.0, -647.775906059254, 0.0, 0.0, 0.0, 0.0, -1875.4678220114497, 0.0]
['beep', 0.0, -644.3337374131366, 0.0, 0.0, 0.0, 0.0, -1873.7914411773017, 0.0]
['beep', 0.0, -638.7234495548546, 0.0, 0.0, 0.0, 0.0, -1871.6680254540474, 0.0]
['beep', 0.0, -634.3872111305251, 0.0, 0.0, 0.0, 0.0, -1867.9576358744666, 0.0]
['beep', 0.0, -636.5329785982345, 0.0, 0.0, 0.0, 0.0, -1868.9187608860448, 0.0]
['beep', 0.0, -642.1209147120613, 0.0, 0.0, 0.0, 0.0, -1870.8633626536564, 0.0]
['beep', 0.0, -644.2219786908602, 0.0, 0.0, 0.0, 0.0, -1873.098537099187, 0.0]
['beep', 0.0, -638.1199524545614, 0.0, 0.0, 0.0, 0.0, -1871.5339149873157, 0.0]
['beep', 0.0, -632.2190919183603, 0.0, 0.0, 0.0, 0.0, -1867.1082695851649, 0.0]
['beep', 0.0, -634.2083971748826, 0.0, 0.0, 0.0, 0.0, -1870.3716242756398, 0.0]
['beep', 0.0, -640.9139205114748, 0.0, 0.0, 0.0, 0.0, -1877.6359412236145, 0.0]
['beep', 0.0, -643.5067228682904, 0.0, 0.0, 0.0, 0.0, -1875.5795807337263, 0.0]
['beep', 0.0, -638.388173388025, 0.0, 0.0, 0.0, 0.0, -1876.4065952785727, 0.0]
['beep', 0.0, -633.2696239077598, 0.0, 0.0, 0.0, 0.0, -1870.4386795090056, 0.0]
['beep', 0.0, -635.549501842201, 0.0, 0.0, 0.0, 0.0, -1870.9304178870225, 0.0]
['beep', 0.0, -641.1374379560278, 0.0, 0.0, 0.0, 0.0, -1873.880848155123, 0.0]
['beep', 0.0, -644.3337374131366, 0.0, 0.0, 0.0, 0.0, -1874.5066969998716, 0.0]
['beep', 0.0, -638.3434698991144, 0.0, 0.0, 0.0, 0.0, -1872.0927085986984, 0.0]
['beep', 0.0, -632.9790512298407, 0.0, 0.0, 0.0, 0.0, -1868.203505063475, 0.0]
['beep', 0.0, -635.2812809087374, 0.0, 0.0, 0.0, 0.0, -1871.8915428986006, 0.0]
['beep', 0.0, -641.2491966783043, 0.0, 0.0, 0.0, 0.0, -1874.7525661888799, 0.0]
['beep', 0.0, -644.6466618355109, 0.0, 0.0, 0.0, 0.0, -1872.9867783769107, 0.0]
['beep', 0.0, -640.064554222173, 0.0, 0.0, 0.0, 0.0, -1872.8303161657234, 0.0]
['beep', 0.0, -634.5883768306228, 0.0, 0.0, 0.0, 0.0, -1870.3045690422737, 0.0]
['beep', 0.0, -636.4659233648686, 0.0, 0.0, 0.0, 0.0, -1869.879885897623, 0.0]
['beep', 0.0, -641.6962315674105, 0.0, 0.0, 0.0, 0.0, -1871.3103975427625, 0.0]
['beep', 0.0, -643.2161501903713, 0.0, 0.0, 0.0, 0.0, -1870.4163277645503, 0.0]
['beep', 0.0, -640.064554222173, 0.0, 0.0, 0.0, 0.0, -1870.3045690422737, 0.0]
['beep', 0.0, -636.1753506869496, 0.0, 0.0, 0.0, 0.0, -1870.8857143981118, 0.0]
['beep', 0.0, -637.4717518653574, 0.0, 0.0, 0.0, 0.0, -1873.0538336102766, 0.0]
['beep', 0.0, -643.6631850794774, 0.0, 0.0, 0.0, 0.0, -1875.713691200458, 0.0]
['beep', 0.0, -645.5630833581786, 0.0, 0.0, 0.0, 0.0, -1875.490173755905, 0.0]
['beep', 0.0, -641.2044931893937, 0.0, 0.0, 0.0, 0.0, -1871.9362463875111, 0.0]
['beep', 0.0, -636.3318128981367, 0.0, 0.0, 0.0, 0.0, -1867.3094352852627, 0.0]
['beep', 0.0, -635.8177227756647, 0.0, 0.0, 0.0, 0.0, -1868.0246911078325, 0.0]
['beep', 0.0, -642.098562967606, 0.0, 0.0, 0.0, 0.0, -1872.1150603431536, 0.0]
['beep', 0.0, -644.6690135799663, 0.0, 0.0, 0.0, 0.0, -1871.8244876652348, 0.0]
['beep', 0.0, -640.1763129444496, 0.0, 0.0, 0.0, 0.0, -1872.2044673209748, 0.0]
['beep', 0.0, -634.5436733417122, 0.0, 0.0, 0.0, 0.0, -1870.5504382312822, 0.0]
['beep', 0.0, -636.3988681315027, 0.0, 0.0, 0.0, 0.0, -1869.8575341531675, 0.0]
['beep', 0.0, -642.0762112231507, 0.0, 0.0, 0.0, 0.0, -1869.8575341531675, 0.0]
['beep', 0.0, -645.4289728914467, 0.0, 0.0, 0.0, 0.0, -1870.7069004424693, 0.0]
['beep', 0.0, -642.679708323444, 0.0, 0.0, 0.0, 0.0, -1870.5504382312822, 0.0]
['beep', 0.0, -638.1870076879272, 0.0, 0.0, 0.0, 0.0, -1868.9187608860448, 0.0]
['beep', 0.0, -637.6729175654552, 0.0, 0.0, 0.0, 0.0, -1868.427022508028, 0.0]
['beep', 0.0, -643.6408333350222, 0.0, 0.0, 0.0, 0.0, -1872.584446976715, 0.0]
['beep', 0.0, -645.7866008027316, 0.0, 0.0, 0.0, 0.0, -1874.2384760664079, 0.0]
['beep', 0.0, -641.8526937785977, 0.0, 0.0, 0.0, 0.0, -1869.65636845307, 0.0]
['beep', 0.0, -637.8293797766423, 0.0, 0.0, 0.0, 0.0, -1868.4717259969386, 0.0]
['beep', 0.0, -637.6505658209999, 0.0, 0.0, 0.0, 0.0, -1869.812830664257, 0.0]
['beep', 0.0, -641.8526937785977, 0.0, 0.0, 0.0, 0.0, -1869.4999062418826, 0.0]
['beep', 0.0, -644.1102199685836, 0.0, 0.0, 0.0, 0.0, -1872.0256533653323, 0.0]
['beep', 0.0, -641.0256792337512, 0.0, 0.0, 0.0, 0.0, -1870.0810515977207, 0.0]
['beep', 0.0, -635.84007452012, 0.0, 0.0, 0.0, 0.0, -1866.3706620181397, 0.0]
['beep', 0.0, -637.8517315210977, 0.0, 0.0, 0.0, 0.0, -1870.1481068310866, 0.0]
['beep', 0.0, -643.1490949570054, 0.0, 0.0, 0.0, 0.0, -1872.070356854243, 0.0]
['beep', 0.0, -645.3395659136255, 0.0, 0.0, 0.0, 0.0, -1872.271522554341, 0.0]
['beep', 0.0, -641.4950658673127, 0.0, 0.0, 0.0, 0.0, -1874.1714208330418, 0.0]
['beep', 0.0, -638.0752489656508, 0.0, 0.0, 0.0, 0.0, -1870.5504382312822, 0.0]
['beep', 0.0, -639.1928361884161, 0.0, 0.0, 0.0, 0.0, -1871.489211498405, 0.0]
['beep', 0.0, -644.1996269464048, 0.0, 0.0, 0.0, 0.0, -1870.9080661425671, 0.0]
['beep', 0.0, -646.6359670920333, 0.0, 0.0, 0.0, 0.0, -1872.3609295321621, 0.0]
['beep', 0.0, -641.7856385452317, 0.0, 0.0, 0.0, 0.0, -1872.0480051097877, 0.0]
['beep', 0.0, -636.8011995316982, 0.0, 0.0, 0.0, 0.0, -1869.6116649641592, 0.0]
['beep', 0.0, -637.0470687207066, 0.0, 0.0, 0.0, 0.0, -1867.4658974964498, 0.0]
['beep', 0.0, -641.9197490119635, 0.0, 0.0, 0.0, 0.0, -1872.5620952322597, 0.0]
['beep', 0.0, -645.9877665028295, 0.0, 0.0, 0.0, 0.0, -1876.1607260895642, 0.0]
['beep', 0.0, -640.5115891112791, 0.0, 0.0, 0.0, 0.0, -1871.1539353315754, 0.0]
['beep', 0.0, -635.5942053311117, 0.0, 0.0, 0.0, 0.0, -1869.9916446198995, 0.0]
['beep', 0.0, -638.4105251324803, 0.0, 0.0, 0.0, 0.0, -1872.6067987211704, 0.0]
['beep', 0.0, -643.5290746127456, 0.0, 0.0, 0.0, 0.0, -1874.260827810863, 0.0]
['beep', 0.0, -644.4454961354132, 0.0, 0.0, 0.0, 0.0, -1873.1879440770083, 0.0]
['beep', 0.0, -641.6291763340446, 0.0, 0.0, 0.0, 0.0, -1870.0810515977207, 0.0]
['beep', 0.0, -635.1695221864608, 0.0, 0.0, 0.0, 0.0, -1871.6009702206816, 0.0]
['beep', 0.0, -637.2705861652597, 0.0, 0.0, 0.0, 0.0, -1873.456165010472, 0.0]
['beep', 0.0, -643.1714467014607, 0.0, 0.0, 0.0, 0.0, -1875.1101941001648, 0.0]
['beep', 0.0, -645.4289728914467, 0.0, 0.0, 0.0, 0.0, -1876.7642231898576, 0.0]
['beep', 0.0, -643.3502606571031, 0.0, 0.0, 0.0, 0.0, -1874.685510955514, 0.0]
['beep', 0.0, -636.3541646425921, 0.0, 0.0, 0.0, 0.0, -1872.293874298796, 0.0]
['beep', 0.0, -638.0752489656508, 0.0, 0.0, 0.0, 0.0, -1873.1655923325532, 0.0]
['beep', 0.0, -643.8196472906646, 0.0, 0.0, 0.0, 0.0, -1872.6738539545363, 0.0]
['beep', 0.0, -645.7195455693658, 0.0, 0.0, 0.0, 0.0, -1872.651502210081, 0.0]
['beep', 0.0, -640.5786443446451, 0.0, 0.0, 0.0, 0.0, -1874.2384760664079, 0.0]
['beep', 0.0, -636.9353099984301, 0.0, 0.0, 0.0, 0.0, -1872.8750196546341, 0.0]
['beep', 0.0, -637.2258826763491, 0.0, 0.0, 0.0, 0.0, -1872.785612676813, 0.0]
['beep', 0.0, -644.3113856686814, 0.0, 0.0, 0.0, 0.0, -1877.1218511011425, 0.0]
['beep', 0.0, -646.6583188364887, 0.0, 0.0, 0.0, 0.0, -1877.6359412236145, 0.0]
['beep', 0.0, -641.8303420341423, 0.0, 0.0, 0.0, 0.0, -1874.909028400067, 0.0]
['beep', 0.0, -637.7623245432765, 0.0, 0.0, 0.0, 0.0, -1869.5893132197039, 0.0]
['beep', 0.0, -639.6175193330669, 0.0, 0.0, 0.0, 0.0, -1869.2093335639638, 0.0]
['beep', 0.0, -645.4513246359021, 0.0, 0.0, 0.0, 0.0, -1873.8137929217569, 0.0]
['beep', 0.0, -647.3288711701479, 0.0, 0.0, 0.0, 0.0, -1877.5018307568826, 0.0]
['beep', 0.0, -643.8867025240305, 0.0, 0.0, 0.0, 0.0, -1873.7243859439357, 0.0]
['beep', 0.0, -639.1257809550501, 0.0, 0.0, 0.0, 0.0, -1873.299702799285, 0.0]
['beep', 0.0, -640.4445338779133, 0.0, 0.0, 0.0, 0.0, -1873.6573307105698, 0.0]
['beep', 0.0, -646.5689118586674, 0.0, 0.0, 0.0, 0.0, -1874.3725865331396, 0.0]
['beep', 0.0, -647.775906059254, 0.0, 0.0, 0.0, 0.0, -1875.6913394560029, 0.0]
['beep', 0.0, -643.1267432125501, 0.0, 0.0, 0.0, 0.0, -1872.7632609323575, 0.0]
['beep', 0.0, -639.0140222327736, 0.0, 0.0, 0.0, 0.0, -1869.3210922862402, 0.0]
['beep', 0.0, -641.5397693562234, 0.0, 0.0, 0.0, 0.0, -1869.365795775151, 0.0]
['beep', 0.0, -645.7866008027316, 0.0, 0.0, 0.0, 0.0, -1873.903199899578, 0.0]
['beep', 0.0, -648.2676444372707, 0.0, 0.0, 0.0, 0.0, -1874.9537318889777, 0.0]
['beep', 0.0, -644.1325717130389, 0.0, 0.0, 0.0, 0.0, -1873.6573307105698, 0.0]
['beep', 0.0, -639.7963332887093, 0.0, 0.0, 0.0, 0.0, -1872.070356854243, 0.0]
['beep', 0.0, -640.355126900092, 0.0, 0.0, 0.0, 0.0, -1871.3774527761286, 0.0]
['beep', 0.0, -645.0489932357066, 0.0, 0.0, 0.0, 0.0, -1869.7234236864358, 0.0]
['beep', 0.0, -647.9547200148965, 0.0, 0.0, 0.0, 0.0, -1873.2773510548295, 0.0]
['beep', 0.0, -644.3113856686814, 0.0, 0.0, 0.0, 0.0, -1876.1830778340195, 0.0]
['beep', 0.0, -639.483408866335, 0.0, 0.0, 0.0, 0.0, -1872.2268190654302, 0.0]
['beep', 0.0, -639.6622228219775, 0.0, 0.0, 0.0, 0.0, -1870.2598655533632, 0.0]
['beep', 0.0, -644.0208129907624, 0.0, 0.0, 0.0, 0.0, -1871.3551010316733, 0.0]
['beep', 0.0, -646.0995252251059, 0.0, 0.0, 0.0, 0.0, -1874.8866766556118, 0.0]
['beep', 0.0, -643.7078885683881, 0.0, 0.0, 0.0, 0.0, -1872.8973713990895, 0.0]
['beep', 0.0, -640.2210164333602, 0.0, 0.0, 0.0, 0.0, -1870.1928103199973, 0.0]
['beep', 0.0, -639.9974989888071, 0.0, 0.0, 0.0, 0.0, -1866.5047724848716, 0.0]
['beep', 0.0, -643.6408333350222, 0.0, 0.0, 0.0, 0.0, -1871.913894643056, 0.0]
['beep', 0.0, -646.9265397699523, 0.0, 0.0, 0.0, 0.0, -1877.0994993566871, 0.0]
['beep', 0.0, -644.0431647352177, 0.0, 0.0, 0.0, 0.0, -1873.2549993103744, 0.0]
['beep', 0.0, -637.9411384989189, 0.0, 0.0, 0.0, 0.0, -1870.5280864868269, 0.0]
['beep', 0.0, -638.6340425770334, 0.0, 0.0, 0.0, 0.0, -1871.7574324318687, 0.0]
['beep', 0.0, -644.7137170688769, 0.0, 0.0, 0.0, 0.0, -1872.3385777877068, 0.0]
['beep', 0.0, -648.1782374594495, 0.0, 0.0, 0.0, 0.0, -1873.3220545437403, 0.0]
['beep', 0.0, -643.8196472906646, 0.0, 0.0, 0.0, 0.0, -1871.84683940969, 0.0]
['beep', 0.0, -638.4775803658463, 0.0, 0.0, 0.0, 0.0, -1870.6621969535586, 0.0]
['beep', 0.0, -638.4105251324803, 0.0, 0.0, 0.0, 0.0, -1874.1714208330418, 0.0]
['beep', 0.0, -642.7691153012652, 0.0, 0.0, 0.0, 0.0, -1874.1937725774972, 0.0]
['beep', 0.0, -645.6077868470892, 0.0, 0.0, 0.0, 0.0, -1873.6796824550252, 0.0]
['beep', 0.0, -643.8867025240305, 0.0, 0.0, 0.0, 0.0, -1875.1325458446202, 0.0]
['beep', 0.0, -638.6340425770334, 0.0, 0.0, 0.0, 0.0, -1869.365795775151, 0.0]
['beep', 0.0, -637.6729175654552, 0.0, 0.0, 0.0, 0.0, -1866.7953451627905, 0.0]
['beep', 0.0, -643.1490949570054, 0.0, 0.0, 0.0, 0.0, -1871.556266731771, 0.0]
['beep', 0.0, -646.5689118586674, 0.0, 0.0, 0.0, 0.0, -1873.3220545437403, 0.0]
['beep', 0.0, -643.9314060129411, 0.0, 0.0, 0.0, 0.0, -1875.2890080558072, 0.0]
['beep', 0.0, -639.3940018885138, 0.0, 0.0, 0.0, 0.0, -1872.785612676813, 0.0]
['beep', 0.0, -639.5057606107904, 0.0, 0.0, 0.0, 0.0, -1870.0139963643549, 0.0]
['beep', 0.0, -643.484371123835, 0.0, 0.0, 0.0, 0.0, -1871.6903771985028, 0.0]
['beep', 0.0, -646.7924293032205, 0.0, 0.0, 0.0, 0.0, -1871.623321965137, 0.0]
['beep', 0.0, -643.774943801754, 0.0, 0.0, 0.0, 0.0, -1866.3036067847738, 0.0]
['beep', 0.0, -637.7176210543658, 0.0, 0.0, 0.0, 0.0, -1866.258903295863, 0.0]
['beep', 0.0, -636.5329785982345, 0.0, 0.0, 0.0, 0.0, -1873.6573307105698, 0.0]
['beep', 0.0, -642.7244118123546, 0.0, 0.0, 0.0, 0.0, -1873.299702799285, 0.0]
['beep', 0.0, -646.5689118586674, 0.0, 0.0, 0.0, 0.0, -1874.4619935109608, 0.0]
['beep', 0.0, -644.1102199685836, 0.0, 0.0, 0.0, 0.0, -1870.975121375933, 0.0]
['beep', 0.0, -638.3434698991144, 0.0, 0.0, 0.0, 0.0, -1868.7399469304023, 0.0]
['beep', 0.0, -637.7846762877317, 0.0, 0.0, 0.0, 0.0, -1870.8633626536564, 0.0]
['beep', 0.0, -642.8361705346312, 0.0, 0.0, 0.0, 0.0, -1874.9313801445223, 0.0]
['beep', 0.0, -647.12770547005, 0.0, 0.0, 0.0, 0.0, -1872.8973713990895, 0.0]
['beep', 0.0, -643.9761095018517, 0.0, 0.0, 0.0, 0.0, -1868.3152637857515, 0.0]
['beep', 0.0, -636.9353099984301, 0.0, 0.0, 0.0, 0.0, -1869.522257986338, 0.0]
['beep', 0.0, -638.0752489656508, 0.0, 0.0, 0.0, 0.0, -1872.5620952322597, 0.0]
['beep', 0.0, -643.6631850794774, 0.0, 0.0, 0.0, 0.0, -1873.7243859439357, 0.0]
['beep', 0.0, -645.8313042916423, 0.0, 0.0, 0.0, 0.0, -1876.2054295784749, 0.0]
['beep', 0.0, -642.970281001363, 0.0, 0.0, 0.0, 0.0, -1872.4726882544385, 0.0]
['beep', 0.0, -638.2764146657485, 0.0, 0.0, 0.0, 0.0, -1867.555304474271, 0.0]
['beep', 0.0, -638.1870076879272, 0.0, 0.0, 0.0, 0.0, -1869.0752230972319, 0.0]
['beep', 0.0, -643.8419990351199, 0.0, 0.0, 0.0, 0.0, -1871.779784176324, 0.0]
['beep', 0.0, -645.4960281248127, 0.0, 0.0, 0.0, 0.0, -1871.6903771985028, 0.0]
['beep', 0.0, -641.0703827226619, 0.0, 0.0, 0.0, 0.0, -1869.7681271753463, 0.0]
['beep', 0.0, -637.4494001209022, 0.0, 0.0, 0.0, 0.0, -1871.0645283537542, 0.0]
['beep', 0.0, -638.6116908325781, 0.0, 0.0, 0.0, 0.0, -1872.271522554341, 0.0]
['beep', 0.0, -644.6019583466003, 0.0, 0.0, 0.0, 0.0, -1869.9916446198995, 0.0]
['beep', 0.0, -645.4066211469915, 0.0, 0.0, 0.0, 0.0, -1871.5339149873157, 0.0]
['beep', 0.0, -642.903225767997, 0.0, 0.0, 0.0, 0.0, -1871.332749287218, 0.0]
['beep', 0.0, -638.2540629212932, 0.0, 0.0, 0.0, 0.0, -1869.0305196083214, 0.0]
['beep', 0.0, -639.4163536329692, 0.0, 0.0, 0.0, 0.0, -1870.170458575542, 0.0]
['beep', 0.0, -646.0771734806507, 0.0, 0.0, 0.0, 0.0, -1870.326920786729, 0.0]
['beep', 0.0, -648.0888304816283, 0.0, 0.0, 0.0, 0.0, -1871.7127289429582, 0.0]
['beep', 0.0, -644.9148827689747, 0.0, 0.0, 0.0, 0.0, -1872.9644266324553, 0.0]
['beep', 0.0, -640.6009960891004, 0.0, 0.0, 0.0, 0.0, -1871.1539353315754, 0.0]
['beep', 0.0, -640.5115891112791, 0.0, 0.0, 0.0, 0.0, -1868.6281882081257, 0.0]
['beep', 0.0, -645.4513246359021, 0.0, 0.0, 0.0, 0.0, -1870.4833829979161, 0.0]
['beep', 0.0, -648.7146793263769, 0.0, 0.0, 0.0, 0.0, -1871.5339149873157, 0.0]
['beep', 0.0, -645.6748420804552, 0.0, 0.0, 0.0, 0.0, -1870.1481068310866, 0.0]
['beep', 0.0, -638.8352082771312, 0.0, 0.0, 0.0, 0.0, -1868.874057397134, 0.0]
['beep', 0.0, -638.8352082771312, 0.0, 0.0, 0.0, 0.0, -1868.0917463411984, 0.0]
['beep', 0.0, -644.8701792800641, 0.0, 0.0, 0.0, 0.0, -1870.103403342176, 0.0]
['beep', 0.0, -649.5416938712233, 0.0, 0.0, 0.0, 0.0, -1875.0878423557094, 0.0]
['beep', 0.0, -645.6077868470892, 0.0, 0.0, 0.0, 0.0, -1872.271522554341, 0.0]
['beep', 0.0, -638.8575600215864, 0.0, 0.0, 0.0, 0.0, -1868.4493742524833, 0.0]
['beep', 0.0, -639.1704844439607, 0.0, 0.0, 0.0, 0.0, -1867.9576358744666, 0.0]
['beep', 0.0, -645.3842694025361, 0.0, 0.0, 0.0, 0.0, -1869.9245893865336, 0.0]
['beep', 0.0, -647.6864990814328, 0.0, 0.0, 0.0, 0.0, -1871.5339149873157, 0.0]
['beep', 0.0, -643.1714467014607, 0.0, 0.0, 0.0, 0.0, -1870.6621969535586, 0.0]
['beep', 0.0, -636.7788477872429, 0.0, 0.0, 0.0, 0.0, -1866.1694963180419, 0.0]
['beep', 0.0, -637.7399727988211, 0.0, 0.0, 0.0, 0.0, -1871.4221562650391, 0.0]
['beep', 0.0, -644.5796066021451, 0.0, 0.0, 0.0, 0.0, -1874.0149586218547, 0.0]
['beep', 0.0, -647.3288711701479, 0.0, 0.0, 0.0, 0.0, -1873.9479033884888, 0.0]
['beep', 0.0, -643.0820397236395, 0.0, 0.0, 0.0, 0.0, -1871.5339149873157, 0.0]
['beep', 0.0, -636.3988681315027, 0.0, 0.0, 0.0, 0.0, -1867.3541387741732, 0.0]
['beep', 0.0, -636.5553303426898, 0.0, 0.0, 0.0, 0.0, -1868.136449830109, 0.0]
['beep', 0.0, -642.970281001363, 0.0, 0.0, 0.0, 0.0, -1870.7069004424693, 0.0]
['beep', 0.0, -646.4348013919356, 0.0, 0.0, 0.0, 0.0, -1872.6067987211704, 0.0]
['beep', 0.0, -643.4173158904691, 0.0, 0.0, 0.0, 0.0, -1871.1762870760308, 0.0]
['beep', 0.0, -637.7846762877317, 0.0, 0.0, 0.0, 0.0, -1868.3823190191174, 0.0]
['beep', 0.0, -638.3658216435697, 0.0, 0.0, 0.0, 0.0, -1866.9741591184331, 0.0]
['beep', 0.0, -643.3055571681925, 0.0, 0.0, 0.0, 0.0, -1869.0528713527765, 0.0]
['beep', 0.0, -646.7030223253993, 0.0, 0.0, 0.0, 0.0, -1873.3891097771061, 0.0]
['beep', 0.0, -642.389135645525, 0.0, 0.0, 0.0, 0.0, -1872.7632609323575, 0.0]
['beep', 0.0, -637.002365231796, 0.0, 0.0, 0.0, 0.0, -1868.359967274662, 0.0]
['beep', 0.0, -637.8517315210977, 0.0, 0.0, 0.0, 0.0, -1867.9352841300113, 0.0]
['beep', 0.0, -643.1043914680948, 0.0, 0.0, 0.0, 0.0, -1868.3152637857515, 0.0]
['beep', 0.0, -647.0159467477736, 0.0, 0.0, 0.0, 0.0, -1871.6680254540474, 0.0]
['beep', 0.0, -643.6408333350222, 0.0, 0.0, 0.0, 0.0, -1870.1257550866312, 0.0]
['beep', 0.0, -636.8459030206088, 0.0, 0.0, 0.0, 0.0, -1866.75064167388, 0.0]
['beep', 0.0, -638.1870076879272, 0.0, 0.0, 0.0, 0.0, -1864.716632928447, 0.0]
['beep', 0.0, -642.9255775124524, 0.0, 0.0, 0.0, 0.0, -1869.7010719419804, 0.0]
['beep', 0.0, -645.5407316137233, 0.0, 0.0, 0.0, 0.0, -1873.1208888436424, 0.0]
['beep', 0.0, -643.4396676349244, 0.0, 0.0, 0.0, 0.0, -1872.2268190654302, 0.0]
['beep', 0.0, -638.0528972211954, 0.0, 0.0, 0.0, 0.0, -1868.9634643749553, 0.0]
['beep', 0.0, -637.4270483764468, 0.0, 0.0, 0.0, 0.0, -1868.203505063475, 0.0]
['beep', 0.0, -643.5961298461116, 0.0, 0.0, 0.0, 0.0, -1867.7341184299135, 0.0]
['beep', 0.0, -646.613615347578, 0.0, 0.0, 0.0, 0.0, -1866.9965108628883, 0.0]
['beep', 0.0, -642.322080412159, 0.0, 0.0, 0.0, 0.0, -1869.6116649641592, 0.0]
['beep', 0.0, -638.0081937322848, 0.0, 0.0, 0.0, 0.0, -1869.0305196083214, 0.0]
['beep', 0.0, -638.6340425770334, 0.0, 0.0, 0.0, 0.0, -1868.650539952581, 0.0]
['beep', 0.0, -643.4396676349244, 0.0, 0.0, 0.0, 0.0, -1871.6680254540474, 0.0]
['beep', 0.0, -646.7253740698545, 0.0, 0.0, 0.0, 0.0, -1872.8526679101788, 0.0]
['beep', 0.0, -641.2939001672149, 0.0, 0.0, 0.0, 0.0, -1869.3434440306955, 0.0]
['beep', 0.0, -634.9460047419077, 0.0, 0.0, 0.0, 0.0, -1867.041214351799, 0.0]
['beep', 0.0, -634.9683564863631, 0.0, 0.0, 0.0, 0.0, -1864.8954468840896, 0.0]
['beep', 0.0, -638.902263510497, 0.0, 0.0, 0.0, 0.0, -1869.1869818195084, 0.0]
['beep', 0.0, -640.8915687670194, 0.0, 0.0, 0.0, 0.0, -1870.818659164746, 0.0]
['beep', 0.0, -636.9353099984301, 0.0, 0.0, 0.0, 0.0, -1867.4211940075393, 0.0]
['beep', 0.0, -631.6826500514329, 0.0, 0.0, 0.0, 0.0, -1864.7613364173576, 0.0]
['beep', 0.0, -633.7613622857765, 0.0, 0.0, 0.0, 0.0, -1862.7273276719247, 0.0]
['beep', 0.0, -640.2880716667261, 0.0, 0.0, 0.0, 0.0, -1864.8060399062683, 0.0]
['beep', 0.0, -645.5854351026339, 0.0, 0.0, 0.0, 0.0, -1870.9974731203883, 0.0]
['beep', 0.0, -643.8643507795753, 0.0, 0.0, 0.0, 0.0, -1868.0246911078325, 0.0]
['beep', 0.0, -638.1199524545614, 0.0, 0.0, 0.0, 0.0, -1863.1743625610309, 0.0]
['beep', 0.0, -638.3658216435697, 0.0, 0.0, 0.0, 0.0, -1865.1413160730979, 0.0]
['beep', 0.0, -643.2385019348267, 0.0, 0.0, 0.0, 0.0, -1867.6223597076369, 0.0]
['beep', 0.0, -646.613615347578, 0.0, 0.0, 0.0, 0.0, -1867.9576358744666, 0.0]
['beep', 0.0, -644.7137170688769, 0.0, 0.0, 0.0, 0.0, -1863.6437491945924, 0.0]
['beep', 0.0, -639.3940018885138, 0.0, 0.0, 0.0, 0.0, -1863.7331561724136, 0.0]
['beep', 0.0, -641.003327489296, 0.0, 0.0, 0.0, 0.0, -1864.3143015282515, 0.0]
['beep', 0.0, -645.0936967246172, 0.0, 0.0, 0.0, 0.0, -1867.2423800518968, 0.0]
['beep', 0.0, -648.1558857149942, 0.0, 0.0, 0.0, 0.0, -1868.8070021637682, 0.0]
['beep', 0.0, -645.0489932357066, 0.0, 0.0, 0.0, 0.0, -1864.0237288503324, 0.0]
['beep', 0.0, -639.8186850331647, 0.0, 0.0, 0.0, 0.0, -1864.8954468840896, 0.0]
['beep', 0.0, -639.5728158441563, 0.0, 0.0, 0.0, 0.0, -1867.6670631965476, 0.0]
['beep', 0.0, -645.3172141691703, 0.0, 0.0, 0.0, 0.0, -1869.522257986338, 0.0]
['beep', 0.0, -649.9440252714188, 0.0, 0.0, 0.0, 0.0, -1870.5280864868269, 0.0]
['beep', 0.0, -646.904188025497, 0.0, 0.0, 0.0, 0.0, -1868.874057397134, 0.0]
['beep', 0.0, -640.7798100447428, 0.0, 0.0, 0.0, 0.0, -1865.0519090952766, 0.0]
['beep', 0.0, -641.2939001672149, 0.0, 0.0, 0.0, 0.0, -1866.7953451627905, 0.0]
['beep', 0.0, -646.4124496474802, 0.0, 0.0, 0.0, 0.0, -1868.203505063475, 0.0]
['beep', 0.0, -648.9158450264747, 0.0, 0.0, 0.0, 0.0, -1871.5115632428603, 0.0]
['beep', 0.0, -645.0489932357066, 0.0, 0.0, 0.0, 0.0, -1872.0927085986984, 0.0]
['beep', 0.0, -638.74580129931, 0.0, 0.0, 0.0, 0.0, -1870.975121375933, 0.0]
['beep', 0.0, -640.064554222173, 0.0, 0.0, 0.0, 0.0, -1871.0421766092988, 0.0]
['beep', 0.0, -643.8196472906646, 0.0, 0.0, 0.0, 0.0, -1869.5446097307934, 0.0]
['beep', 0.0, -647.8653130370752, 0.0, 0.0, 0.0, 0.0, -1869.5893132197039, 0.0]
['beep', 0.0, -646.5018566253015, 0.0, 0.0, 0.0, 0.0, -1867.912932385556, 0.0]
['beep', 0.0, -640.064554222173, 0.0, 0.0, 0.0, 0.0, -1867.4882492409051, 0.0]
['beep', 0.0, -638.6116908325781, 0.0, 0.0, 0.0, 0.0, -1868.494077741394, 0.0]
['beep', 0.0, -644.4454961354132, 0.0, 0.0, 0.0, 0.0, -1872.7409091879022, 0.0]
['beep', 0.0, -647.1724089589607, 0.0, 0.0, 0.0, 0.0, -1872.651502210081, 0.0]
['beep', 0.0, -644.3337374131366, 0.0, 0.0, 0.0, 0.0, -1870.4386795090056, 0.0]
['beep', 0.0, -638.902263510497, 0.0, 0.0, 0.0, 0.0, -1868.4717259969386, 0.0]
['beep', 0.0, -638.6340425770334, 0.0, 0.0, 0.0, 0.0, -1866.907103885067, 0.0]
['beep', 0.0, -643.7525920572987, 0.0, 0.0, 0.0, 0.0, -1868.8070021637682, 0.0]
['beep', 0.0, -647.5076851257903, 0.0, 0.0, 0.0, 0.0, -1872.8079644212683, 0.0]
['beep', 0.0, -645.3172141691703, 0.0, 0.0, 0.0, 0.0, -1875.5795807337263, 0.0]
['beep', 0.0, -641.1150862115725, 0.0, 0.0, 0.0, 0.0, -1872.8750196546341, 0.0]
['beep', 0.0, -638.902263510497, 0.0, 0.0, 0.0, 0.0, -1871.8021359207794, 0.0]
['beep', 0.0, -644.6913653244216, 0.0, 0.0, 0.0, 0.0, -1873.1879440770083, 0.0]
['beep', 0.0, -649.2064177043936, 0.0, 0.0, 0.0, 0.0, -1873.4338132660168, 0.0]
['beep', 0.0, -646.0995252251059, 0.0, 0.0, 0.0, 0.0, -1873.880848155123, 0.0]
['beep', 0.0, -640.3998303890027, 0.0, 0.0, 0.0, 0.0, -1870.4833829979161, 0.0]
['beep', 0.0, -639.9080920109859, 0.0, 0.0, 0.0, 0.0, -1871.109231842665, 0.0]
['beep', 0.0, -645.4513246359021, 0.0, 0.0, 0.0, 0.0, -1873.098537099187, 0.0]
['beep', 0.0, -648.6029206041003, 0.0, 0.0, 0.0, 0.0, -1873.0538336102766, 0.0]
['beep', 0.0, -646.971243258863, 0.0, 0.0, 0.0, 0.0, -1871.0421766092988, 0.0]
['beep', 0.0, -639.8410367776199, 0.0, 0.0, 0.0, 0.0, -1870.2375138089078, 0.0]
['beep', 0.0, -638.74580129931, 0.0, 0.0, 0.0, 0.0, -1867.7341184299135, 0.0]
['beep', 0.0, -644.8701792800641, 0.0, 0.0, 0.0, 0.0, -1868.7846504193128, 0.0]
['beep', 0.0, -646.5242083697568, 0.0, 0.0, 0.0, 0.0, -1868.3152637857515, 0.0]
['beep', 0.0, -645.9877665028295, 0.0, 0.0, 0.0, 0.0, -1870.975121375933, 0.0]
['beep', 0.0, -639.7292780553435, 0.0, 0.0, 0.0, 0.0, -1873.0538336102766, 0.0]
['beep', 0.0, -639.4163536329692, 0.0, 0.0, 0.0, 0.0, -1872.718557443447, 0.0]
['beep', 0.0, -643.3055571681925, 0.0, 0.0, 0.0, 0.0, -1870.7292521869247, 0.0]
['beep', 0.0, -646.6806705809439, 0.0, 0.0, 0.0, 0.0, -1873.6796824550252, 0.0]
['beep', 0.0, -644.2666821797708, 0.0, 0.0, 0.0, 0.0, -1871.8691911541453, 0.0]
['beep', 0.0, -638.0305454767401, 0.0, 0.0, 0.0, 0.0, -1869.9692928754441, 0.0]
['beep', 0.0, -638.902263510497, 0.0, 0.0, 0.0, 0.0, -1869.9692928754441, 0.0]
['beep', 0.0, -645.004289746796, 0.0, 0.0, 0.0, 0.0, -1870.5727899757374, 0.0]
['beep', 0.0, -647.3288711701479, 0.0, 0.0, 0.0, 0.0, -1875.2890080558072, 0.0]
['beep', 0.0, -643.5961298461116, 0.0, 0.0, 0.0, 0.0, -1873.8361446662122, 0.0]
['beep', 0.0, -637.4046966319916, 0.0, 0.0, 0.0, 0.0, -1870.9304178870225, 0.0]
['beep', 0.0, -637.8293797766423, 0.0, 0.0, 0.0, 0.0, -1872.7632609323575, 0.0]
['beep', 0.0, -643.3502606571031, 0.0, 0.0, 0.0, 0.0, -1872.293874298796, 0.0]
['beep', 0.0, -647.5523886147009, 0.0, 0.0, 0.0, 0.0, -1874.0596621107654, 0.0]
['beep', 0.0, -645.1160484690724, 0.0, 0.0, 0.0, 0.0, -1874.3725865331396, 0.0]
['beep', 0.0, -640.8468652781088, 0.0, 0.0, 0.0, 0.0, -1871.1539353315754, 0.0]
['beep', 0.0, -641.8750455230529, 0.0, 0.0, 0.0, 0.0, -1870.8633626536564, 0.0]
['beep', 0.0, -645.518379869268, 0.0, 0.0, 0.0, 0.0, -1870.7069004424693, 0.0]
['beep', 0.0, -647.5300368702456, 0.0, 0.0, 0.0, 0.0, -1873.2102958214637, 0.0]
['beep', 0.0, -646.9265397699523, 0.0, 0.0, 0.0, 0.0, -1875.4454702669943, 0.0]
['beep', 0.0, -642.970281001363, 0.0, 0.0, 0.0, 0.0, -1871.1986388204862, 0.0]
['beep', 0.0, -641.3609554005809, 0.0, 0.0, 0.0, 0.0, -1872.6067987211704, 0.0]
['beep', 0.0, -645.5854351026339, 0.0, 0.0, 0.0, 0.0, -1875.0878423557094, 0.0]
['beep', 0.0, -648.3123479261814, 0.0, 0.0, 0.0, 0.0, -1873.6573307105698, 0.0]
['beep', 0.0, -645.9654147583741, 0.0, 0.0, 0.0, 0.0, -1873.746737688391, 0.0]
['beep', 0.0, -640.6904030669216, 0.0, 0.0, 0.0, 0.0, -1870.6398452091034, 0.0]
['beep', 0.0, -640.2433681778155, 0.0, 0.0, 0.0, 0.0, -1866.0800893402206, 0.0]
['beep', 0.0, -643.7078885683881, 0.0, 0.0, 0.0, 0.0, -1871.7127289429582, 0.0]
['beep', 0.0, -647.4629816368797, 0.0, 0.0, 0.0, 0.0, -1875.1548975890755, 0.0]
['beep', 0.0, -646.8594845365864, 0.0, 0.0, 0.0, 0.0, -1874.9313801445223, 0.0]
['beep', 0.0, -639.4387053774244, 0.0, 0.0, 0.0, 0.0, -1871.1539353315754, 0.0]
['beep', 0.0, -638.9246152549524, 0.0, 0.0, 0.0, 0.0, -1870.3045690422737, 0.0]
['beep', 0.0, -644.5572548576897, 0.0, 0.0, 0.0, 0.0, -1871.913894643056, 0.0]
['beep', 0.0, -647.12770547005, 0.0, 0.0, 0.0, 0.0, -1873.1432405880978, 0.0]
['beep', 0.0, -643.6184815905668, 0.0, 0.0, 0.0, 0.0, -1871.556266731771, 0.0]
['beep', 0.0, -638.4552286213909, 0.0, 0.0, 0.0, 0.0, -1870.818659164746, 0.0]
['beep', 0.0, -637.9411384989189, 0.0, 0.0, 0.0, 0.0, -1870.8633626536564, 0.0]
['beep', 0.0, -642.3667839010697, 0.0, 0.0, 0.0, 0.0, -1873.232647565919, 0.0]
['beep', 0.0, -646.8371327921311, 0.0, 0.0, 0.0, 0.0, -1872.0033016208772, 0.0]
['beep', 0.0, -645.0936967246172, 0.0, 0.0, 0.0, 0.0, -1866.616531207148, 0.0]
['beep', 0.0, -640.3998303890027, 0.0, 0.0, 0.0, 0.0, -1869.1199265861426, 0.0]
['beep', 0.0, -638.6340425770334, 0.0, 0.0, 0.0, 0.0, -1869.4775544974275, 0.0]
['beep', 0.0, -643.4173158904691, 0.0, 0.0, 0.0, 0.0, -1870.975121375933, 0.0]
['beep', 0.0, -647.5747403591562, 0.0, 0.0, 0.0, 0.0, -1872.5620952322597, 0.0]
['beep', 0.0, -645.1160484690724, 0.0, 0.0, 0.0, 0.0, -1873.6796824550252, 0.0]
['beep', 0.0, -639.4610571218798, 0.0, 0.0, 0.0, 0.0, -1869.4328510085168, 0.0]
['beep', 0.0, -637.4270483764468, 0.0, 0.0, 0.0, 0.0, -1866.3036067847738, 0.0]
['beep', 0.0, -643.4173158904691, 0.0, 0.0, 0.0, 0.0, -1869.3881475196063, 0.0]
['beep', 0.0, -647.6417955925222, 0.0, 0.0, 0.0, 0.0, -1873.456165010472, 0.0]
['beep', 0.0, -645.5854351026339, 0.0, 0.0, 0.0, 0.0, -1871.7127289429582, 0.0]
['beep', 0.0, -640.064554222173, 0.0, 0.0, 0.0, 0.0, -1870.7292521869247, 0.0]
['beep', 0.0, -639.7292780553435, 0.0, 0.0, 0.0, 0.0, -1868.6281882081257, 0.0]
['beep', 0.0, -644.4678478798685, 0.0, 0.0, 0.0, 0.0, -1868.9634643749553, 0.0]
['beep', 0.0, -648.357051415092, 0.0, 0.0, 0.0, 0.0, -1872.1821155765197, 0.0]
['beep', 0.0, -647.5300368702456, 0.0, 0.0, 0.0, 0.0, -1872.0927085986984, 0.0]
['beep', 0.0, -642.4785426233462, 0.0, 0.0, 0.0, 0.0, -1868.874057397134, 0.0]
['beep', 0.0, -638.8352082771312, 0.0, 0.0, 0.0, 0.0, -1867.8682288966454, 0.0]
['beep', 0.0, -644.4454961354132, 0.0, 0.0, 0.0, 0.0, -1871.3103975427625, 0.0]
['beep', 0.0, -648.4464583929132, 0.0, 0.0, 0.0, 0.0, -1871.489211498405, 0.0]
['beep', 0.0, -647.2394641923266, 0.0, 0.0, 0.0, 0.0, -1870.103403342176, 0.0]
['beep', 0.0, -641.003327489296, 0.0, 0.0, 0.0, 0.0, -1868.1811533190196, 0.0]
['beep', 0.0, -640.7351065558322, 0.0, 0.0, 0.0, 0.0, -1870.9974731203883, 0.0]
['beep', 0.0, -645.8536560360976, 0.0, 0.0, 0.0, 0.0, -1871.8021359207794, 0.0]
['beep', 0.0, -649.6087491045892, 0.0, 0.0, 0.0, 0.0, -1872.9867783769107, 0.0]
['beep', 0.0, -647.7312025703434, 0.0, 0.0, 0.0, 0.0, -1872.2044673209748, 0.0]
['beep', 0.0, -642.1432664565166, 0.0, 0.0, 0.0, 0.0, -1869.812830664257, 0.0]
['beep', 0.0, -639.6622228219775, 0.0, 0.0, 0.0, 0.0, -1869.2093335639638, 0.0]
['beep', 0.0, -646.613615347578, 0.0, 0.0, 0.0, 0.0, -1872.5397434878046, 0.0]
['beep', 0.0, -650.8604467940863, 0.0, 0.0, 0.0, 0.0, -1872.5397434878046, 0.0]
['beep', 0.0, -647.12770547005, 0.0, 0.0, 0.0, 0.0, -1873.746737688391, 0.0]
['beep', 0.0, -641.9197490119635, 0.0, 0.0, 0.0, 0.0, -1871.8915428986006, 0.0]
['beep', 0.0, -641.7632868007764, 0.0, 0.0, 0.0, 0.0, -1872.4503365099833, 0.0]
['beep', 0.0, -644.6466618355109, 0.0, 0.0, 0.0, 0.0, -1872.6738539545363, 0.0]
['beep', 0.0, -650.5698741161674, 0.0, 0.0, 0.0, 0.0, -1873.6349789661144, 0.0]
['beep', 0.0, -648.580568859645, 0.0, 0.0, 0.0, 0.0, -1873.0091301213658, 0.0]
['beep', 0.0, -641.4280106339468, 0.0, 0.0, 0.0, 0.0, -1870.9974731203883, 0.0]
['beep', 0.0, -640.0198507332624, 0.0, 0.0, 0.0, 0.0, -1873.0538336102766, 0.0]
['beep', 0.0, -645.5407316137233, 0.0, 0.0, 0.0, 0.0, -1874.7302144444245, 0.0]
['beep', 0.0, -649.5863973601339, 0.0, 0.0, 0.0, 0.0, -1875.2890080558072, 0.0]
['beep', 0.0, -647.2394641923266, 0.0, 0.0, 0.0, 0.0, -1872.651502210081, 0.0]
['beep', 0.0, -641.0256792337512, 0.0, 0.0, 0.0, 0.0, -1870.818659164746, 0.0]
['beep', 0.0, -640.1986646889048, 0.0, 0.0, 0.0, 0.0, -1874.1267173441313, 0.0]
['beep', 0.0, -645.0936967246172, 0.0, 0.0, 0.0, 0.0, -1875.1772493335307, 0.0]
['beep', 0.0, -649.4075834044914, 0.0, 0.0, 0.0, 0.0, -1875.1548975890755, 0.0]
['beep', 0.0, -648.2229409483601, 0.0, 0.0, 0.0, 0.0, -1873.456165010472, 0.0]
['beep', 0.0, -642.2773769232484, 0.0, 0.0, 0.0, 0.0, -1870.818659164746, 0.0]
['beep', 0.0, -639.6175193330669, 0.0, 0.0, 0.0, 0.0, -1873.1208888436424, 0.0]
['beep', 0.0, -646.3006909252038, 0.0, 0.0, 0.0, 0.0, -1874.4396417665055, 0.0]
['beep', 0.0, -649.9216735269634, 0.0, 0.0, 0.0, 0.0, -1875.8925051561005, 0.0]
['beep', 0.0, -647.3288711701479, 0.0, 0.0, 0.0, 0.0, -1875.6689877115475, 0.0]
['beep', 0.0, -643.0149844902736, 0.0, 0.0, 0.0, 0.0, -1872.9197231435446, 0.0]
['beep', 0.0, -641.4056588894915, 0.0, 0.0, 0.0, 0.0, -1873.8361446662122, 0.0]
['beep', 0.0, -645.1384002135278, 0.0, 0.0, 0.0, 0.0, -1873.8361446662122, 0.0]
['beep', 0.0, -649.161714215483, 0.0, 0.0, 0.0, 0.0, -1873.2102958214637, 0.0]
['beep', 0.0, -646.7700775587651, 0.0, 0.0, 0.0, 0.0, -1874.6631592110587, 0.0]
['beep', 0.0, -643.3279089126479, 0.0, 0.0, 0.0, 0.0, -1872.271522554341, 0.0]
['beep', 0.0, -640.9139205114748, 0.0, 0.0, 0.0, 0.0, -1870.170458575542, 0.0]
['beep', 0.0, -645.3842694025361, 0.0, 0.0, 0.0, 0.0, -1874.4172900220503, 0.0]
['beep', 0.0, -649.9216735269634, 0.0, 0.0, 0.0, 0.0, -1875.8030981782792, 0.0]
['beep', 0.0, -647.3512229146031, 0.0, 0.0, 0.0, 0.0, -1874.909028400067, 0.0]
['beep', 0.0, -641.2491966783043, 0.0, 0.0, 0.0, 0.0, -1870.0810515977207, 0.0]
['beep', 0.0, -640.355126900092, 0.0, 0.0, 0.0, 0.0, -1870.6621969535586, 0.0]
['beep', 0.0, -645.9207112694635, 0.0, 0.0, 0.0, 0.0, -1874.5737522332374, 0.0]
['beep', 0.0, -649.4522868934021, 0.0, 0.0, 0.0, 0.0, -1875.333711544718, 0.0]
['beep', 0.0, -647.775906059254, 0.0, 0.0, 0.0, 0.0, -1871.4221562650391, 0.0]
['beep', 0.0, -642.7467635568099, 0.0, 0.0, 0.0, 0.0, -1869.6116649641592, 0.0]
['beep', 0.0, -640.7351065558322, 0.0, 0.0, 0.0, 0.0, -1870.841010909201, 0.0]
['beep', 0.0, -644.3113856686814, 0.0, 0.0, 0.0, 0.0, -1873.7020341994805, 0.0]
['beep', 0.0, -649.6311008490445, 0.0, 0.0, 0.0, 0.0, -1873.9702551329442, 0.0]
['beep', 0.0, -646.7477258143099, 0.0, 0.0, 0.0, 0.0, -1873.4114615215615, 0.0]
['beep', 0.0, -641.7632868007764, 0.0, 0.0, 0.0, 0.0, -1873.5679237327486, 0.0]
['beep', 0.0, -639.8857402665305, 0.0, 0.0, 0.0, 0.0, -1872.8303161657234, 0.0]
['beep', 0.0, -643.8196472906646, 0.0, 0.0, 0.0, 0.0, -1873.1655923325532, 0.0]
['beep', 0.0, -649.2064177043936, 0.0, 0.0, 0.0, 0.0, -1875.199601077986, 0.0]
['beep', 0.0, -647.9100165259858, 0.0, 0.0, 0.0, 0.0, -1874.841973166701, 0.0]
['beep', 0.0, -644.1325717130389, 0.0, 0.0, 0.0, 0.0, -1871.9362463875111, 0.0]
['beep', 0.0, -642.4561908788909, 0.0, 0.0, 0.0, 0.0, -1871.2209905649413, 0.0]
['beep', 0.0, -646.2336356918378, 0.0, 0.0, 0.0, 0.0, -1875.9595603894666, 0.0]
['beep', 0.0, -650.03343224924, 0.0, 0.0, 0.0, 0.0, -1877.7029964569804, 0.0]
['beep', 0.0, -648.7817345597427, 0.0, 0.0, 0.0, 0.0, -1875.8030981782792, 0.0]
['beep', 0.0, -642.7914670457205, 0.0, 0.0, 0.0, 0.0, -1872.9197231435446, 0.0]
['beep', 0.0, -642.8808740235418, 0.0, 0.0, 0.0, 0.0, -1870.393976020095, 0.0]
['beep', 0.0, -645.7642490582764, 0.0, 0.0, 0.0, 0.0, -1871.4445080094945, 0.0]
['beep', 0.0, -650.6369293495333, 0.0, 0.0, 0.0, 0.0, -1872.2268190654302, 0.0]
['beep', 0.0, -650.03343224924, 0.0, 0.0, 0.0, 0.0, -1873.9255516440335, 0.0]
['beep', 0.0, -644.8925310245194, 0.0, 0.0, 0.0, 0.0, -1870.3045690422737, 0.0]
['beep', 0.0, -643.1043914680948, 0.0, 0.0, 0.0, 0.0, -1867.197676562986, 0.0]
['beep', 0.0, -647.4406298924243, 0.0, 0.0, 0.0, 0.0, -1870.1257550866312, 0.0]
['beep', 0.0, -650.9275020274523, 0.0, 0.0, 0.0, 0.0, -1875.8030981782792, 0.0]
['beep', 0.0, -648.8487897931087, 0.0, 0.0, 0.0, 0.0, -1872.3385777877068, 0.0]
['beep', 0.0, -643.2832054237373, 0.0, 0.0, 0.0, 0.0, -1870.684548698014, 0.0]
['beep', 0.0, -641.1597897004831, 0.0, 0.0, 0.0, 0.0, -1868.4046707635728, 0.0]
['beep', 0.0, -646.9488915144076, 0.0, 0.0, 0.0, 0.0, -1868.9634643749553, 0.0]
['beep', 0.0, -648.6923275819215, 0.0, 0.0, 0.0, 0.0, -1871.332749287218, 0.0]
['beep', 0.0, -648.0217752482623, 0.0, 0.0, 0.0, 0.0, -1872.3385777877068, 0.0]
['beep', 0.0, -643.0149844902736, 0.0, 0.0, 0.0, 0.0, -1869.7010719419804, 0.0]
['beep', 0.0, -640.3774786445473, 0.0, 0.0, 0.0, 0.0, -1868.5834847192152, 0.0]
['beep', 0.0, -645.227807191349, 0.0, 0.0, 0.0, 0.0, -1871.4221562650391, 0.0]
['beep', 0.0, -648.580568859645, 0.0, 0.0, 0.0, 0.0, -1874.2161243219525, 0.0]
['beep', 0.0, -646.904188025497, 0.0, 0.0, 0.0, 0.0, -1871.489211498405, 0.0]
['beep', 0.0, -642.1879699454272, 0.0, 0.0, 0.0, 0.0, -1870.4386795090056, 0.0]
['beep', 0.0, -639.9751472443518, 0.0, 0.0, 0.0, 0.0, -1869.65636845307, 0.0]
['beep', 0.0, -643.9314060129411, 0.0, 0.0, 0.0, 0.0, -1872.1597638320643, 0.0]
['beep', 0.0, -650.0781357381506, 0.0, 0.0, 0.0, 0.0, -1871.4445080094945, 0.0]
['beep', 0.0, -648.3346996706366, 0.0, 0.0, 0.0, 0.0, -1870.9974731203883, 0.0]
['beep', 0.0, -644.0431647352177, 0.0, 0.0, 0.0, 0.0, -1871.779784176324, 0.0]
['beep', 0.0, -643.1714467014607, 0.0, 0.0, 0.0, 0.0, -1869.8575341531675, 0.0]
['beep', 0.0, -647.3288711701479, 0.0, 0.0, 0.0, 0.0, -1873.098537099187, 0.0]
['beep', 0.0, -651.1733712164606, 0.0, 0.0, 0.0, 0.0, -1874.7525661888799, 0.0]
['beep', 0.0, -649.8546182935976, 0.0, 0.0, 0.0, 0.0, -1869.65636845307, 0.0]
['beep', 0.0, -645.6077868470892, 0.0, 0.0, 0.0, 0.0, -1870.2598655533632, 0.0]
['beep', 0.0, -644.3337374131366, 0.0, 0.0, 0.0, 0.0, -1871.9585981319665, 0.0]
['beep', 0.0, -647.8876647815305, 0.0, 0.0, 0.0, 0.0, -1872.2044673209748, 0.0]
['beep', 0.0, -652.8944555395193, 0.0, 0.0, 0.0, 0.0, -1874.0596621107654, 0.0]
['beep', 0.0, -652.6932898394215, 0.0, 0.0, 0.0, 0.0, -1872.9867783769107, 0.0]
['beep', 0.0, -645.9430630139188, 0.0, 0.0, 0.0, 0.0, -1870.8633626536564, 0.0]
['beep', 0.0, -643.5067228682904, 0.0, 0.0, 0.0, 0.0, -1872.0256533653323, 0.0]
['beep', 0.0, -648.1111822260835, 0.0, 0.0, 0.0, 0.0, -1870.684548698014, 0.0]
['beep', 0.0, -651.8662752945752, 0.0, 0.0, 0.0, 0.0, -1871.0868800982096, 0.0]
['beep', 0.0, -649.2958246822149, 0.0, 0.0, 0.0, 0.0, -1872.6067987211704, 0.0]
['beep', 0.0, -644.1549234574942, 0.0, 0.0, 0.0, 0.0, -1870.2151620644524, 0.0]
['beep', 0.0, -641.9421007564189, 0.0, 0.0, 0.0, 0.0, -1872.0256533653323, 0.0]
['beep', 0.0, -646.613615347578, 0.0, 0.0, 0.0, 0.0, -1871.4221562650391, 0.0]
['beep', 0.0, -651.0839642386394, 0.0, 0.0, 0.0, 0.0, -1872.7632609323575, 0.0]
['beep', 0.0, -648.0888304816283, 0.0, 0.0, 0.0, 0.0, -1876.518354000849, 0.0]
['beep', 0.0, -642.8585222790864, 0.0, 0.0, 0.0, 0.0, -1872.942074888, 0.0]
['beep', 0.0, -640.8245135336534, 0.0, 0.0, 0.0, 0.0, -1868.203505063475, 0.0]
['beep', 0.0, -645.741897313821, 0.0, 0.0, 0.0, 0.0, -1871.9362463875111, 0.0]
['beep', 0.0, -650.0110805047847, 0.0, 0.0, 0.0, 0.0, -1874.7972696777904, 0.0]
['beep', 0.0, -649.5193421267679, 0.0, 0.0, 0.0, 0.0, -1872.0480051097877, 0.0]
['beep', 0.0, -643.4620193793797, 0.0, 0.0, 0.0, 0.0, -1871.3774527761286, 0.0]
['beep', 0.0, -640.8915687670194, 0.0, 0.0, 0.0, 0.0, -1870.2598655533632, 0.0]
['beep', 0.0, -644.6913653244216, 0.0, 0.0, 0.0, 0.0, -1871.3103975427625, 0.0]
['beep', 0.0, -650.1675427159719, 0.0, 0.0, 0.0, 0.0, -1875.3113598002626, 0.0]
['beep', 0.0, -648.6923275819215, 0.0, 0.0, 0.0, 0.0, -1873.8361446662122, 0.0]
['beep', 0.0, -642.7914670457205, 0.0, 0.0, 0.0, 0.0, -1869.7681271753463, 0.0]
['beep', 0.0, -640.3104234111814, 0.0, 0.0, 0.0, 0.0, -1869.0752230972319, 0.0]
['beep', 0.0, -643.7972955462093, 0.0, 0.0, 0.0, 0.0, -1875.6913394560029, 0.0]
['beep', 0.0, -648.357051415092, 0.0, 0.0, 0.0, 0.0, -1874.8196214222457, 0.0]
['beep', 0.0, -648.2229409483601, 0.0, 0.0, 0.0, 0.0, -1875.4231185225392, 0.0]
['beep', 0.0, -641.9644525008741, 0.0, 0.0, 0.0, 0.0, -1873.0091301213658, 0.0]
['beep', 0.0, -640.2433681778155, 0.0, 0.0, 0.0, 0.0, -1872.785612676813, 0.0]
['beep', 0.0, -645.3395659136255, 0.0, 0.0, 0.0, 0.0, -1872.8303161657234, 0.0]
['beep', 0.0, -647.5523886147009, 0.0, 0.0, 0.0, 0.0, -1874.1714208330418, 0.0]
['beep', 0.0, -646.7924293032205, 0.0, 0.0, 0.0, 0.0, -1875.333711544718, 0.0]
['beep', 0.0, -641.517417611768, 0.0, 0.0, 0.0, 0.0, -1871.9809498764218, 0.0]
['beep', 0.0, -639.3045949106926, 0.0, 0.0, 0.0, 0.0, -1869.0305196083214, 0.0]
['beep', 0.0, -643.7525920572987, 0.0, 0.0, 0.0, 0.0, -1871.7350806874135, 0.0]
['beep', 0.0, -648.6699758374663, 0.0, 0.0, 0.0, 0.0, -1873.6126272216593, 0.0]
['beep', 0.0, -648.2452926928154, 0.0, 0.0, 0.0, 0.0, -1871.556266731771, 0.0]
['beep', 0.0, -642.5455978567121, 0.0, 0.0, 0.0, 0.0, -1869.9245893865336, 0.0]
['beep', 0.0, -640.0869059666284, 0.0, 0.0, 0.0, 0.0, -1869.6340167086146, 0.0]
['beep', 0.0, -643.9314060129411, 0.0, 0.0, 0.0, 0.0, -1873.6126272216593, 0.0]
['beep', 0.0, -651.12866772755, 0.0, 0.0, 0.0, 0.0, -1874.618455722148, 0.0]
['beep', 0.0, -650.2793014382484, 0.0, 0.0, 0.0, 0.0, -1875.043138866799, 0.0]
['beep', 0.0, -644.0431647352177, 0.0, 0.0, 0.0, 0.0, -1871.4445080094945, 0.0]
['beep', 0.0, -642.8808740235418, 0.0, 0.0, 0.0, 0.0, -1872.271522554341, 0.0]
['beep', 0.0, -647.3512229146031, 0.0, 0.0, 0.0, 0.0, -1872.3162260432514, 0.0]
['beep', 0.0, -651.5980543611115, 0.0, 0.0, 0.0, 0.0, -1873.8361446662122, 0.0]
['beep', 0.0, -649.6981560824104, 0.0, 0.0, 0.0, 0.0, -1874.909028400067, 0.0]
['beep', 0.0, -645.1160484690724, 0.0, 0.0, 0.0, 0.0, -1873.746737688391, 0.0]
['beep', 0.0, -640.7574583002876, 0.0, 0.0, 0.0, 0.0, -1870.6621969535586, 0.0]
['beep', 0.0, -644.6690135799663, 0.0, 0.0, 0.0, 0.0, -1873.7243859439357, 0.0]
['beep', 0.0, -647.9323682704411, 0.0, 0.0, 0.0, 0.0, -1876.3395400452066, 0.0]
['beep', 0.0, -644.1996269464048, 0.0, 0.0, 0.0, 0.0, -1873.523220243838, 0.0]
['beep', 0.0, -638.4552286213909, 0.0, 0.0, 0.0, 0.0, -1871.556266731771, 0.0]
['beep', 0.0, -634.7895425307206, 0.0, 0.0, 0.0, 0.0, -1871.6456737095923, 0.0]
['beep', 0.0, -639.0587257216843, 0.0, 0.0, 0.0, 0.0, -1871.6456737095923, 0.0]
['beep', 0.0, -645.1384002135278, 0.0, 0.0, 0.0, 0.0, -1874.4172900220503, 0.0]
['beep', 0.0, -646.613615347578, 0.0, 0.0, 0.0, 0.0, -1870.5280864868269, 0.0]
['beep', 0.0, -642.4785426233462, 0.0, 0.0, 0.0, 0.0, -1867.7788219188242, 0.0]
['beep', 0.0, -641.517417611768, 0.0, 0.0, 0.0, 0.0, -1871.3774527761286, 0.0]
['beep', 0.0, -647.0159467477736, 0.0, 0.0, 0.0, 0.0, -1873.5008684993827, 0.0]
['beep', 0.0, -651.3521851721031, 0.0, 0.0, 0.0, 0.0, -1875.6913394560029, 0.0]
['beep', 0.0, -647.9994235038071, 0.0, 0.0, 0.0, 0.0, -1874.2161243219525, 0.0]
['beep', 0.0, -642.679708323444, 0.0, 0.0, 0.0, 0.0, -1871.0868800982096, 0.0]
['beep', 0.0, -640.7351065558322, 0.0, 0.0, 0.0, 0.0, -1870.8857143981118, 0.0]
['beep', 0.0, -643.9761095018517, 0.0, 0.0, 0.0, 0.0, -1872.0033016208772, 0.0]
['beep', 0.0, -648.2676444372707, 0.0, 0.0, 0.0, 0.0, -1874.4619935109608, 0.0]
['beep', 0.0, -646.9488915144076, 0.0, 0.0, 0.0, 0.0, -1872.785612676813, 0.0]
['beep', 0.0, -641.4727141228574, 0.0, 0.0, 0.0, 0.0, -1871.6456737095923, 0.0]
['beep', 0.0, -639.3045949106926, 0.0, 0.0, 0.0, 0.0, -1874.909028400067, 0.0]
['beep', 0.0, -644.4007926465026, 0.0, 0.0, 0.0, 0.0, -1873.2773510548295, 0.0]
['beep', 0.0, -649.8546182935976, 0.0, 0.0, 0.0, 0.0, -1873.880848155123, 0.0]
['beep', 0.0, -648.4017549040026, 0.0, 0.0, 0.0, 0.0, -1875.4454702669943, 0.0]
['beep', 0.0, -641.4503623784021, 0.0, 0.0, 0.0, 0.0, -1872.8750196546341, 0.0]
['beep', 0.0, -639.6398710775222, 0.0, 0.0, 0.0, 0.0, -1869.9692928754441, 0.0]
['beep', 0.0, -643.2385019348267, 0.0, 0.0, 0.0, 0.0, -1869.7010719419804, 0.0]
['beep', 0.0, -647.8206095481646, 0.0, 0.0, 0.0, 0.0, -1874.4172900220503, 0.0]
['beep', 0.0, -646.8371327921311, 0.0, 0.0, 0.0, 0.0, -1876.361891789662, 0.0]
['beep', 0.0, -643.3726124015585, 0.0, 0.0, 0.0, 0.0, -1874.976083633433, 0.0]
['beep', 0.0, -641.1821414449385, 0.0, 0.0, 0.0, 0.0, -1872.2044673209748, 0.0]
['beep', 0.0, -644.6690135799663, 0.0, 0.0, 0.0, 0.0, -1874.4619935109608, 0.0]
['beep', 0.0, -650.547522371712, 0.0, 0.0, 0.0, 0.0, -1876.7418714454022, 0.0]
['beep', 0.0, -648.9605485153853, 0.0, 0.0, 0.0, 0.0, -1874.685510955514, 0.0]
['beep', 0.0, -643.8643507795753, 0.0, 0.0, 0.0, 0.0, -1869.5669614752487, 0.0]
['beep', 0.0, -641.5397693562234, 0.0, 0.0, 0.0, 0.0, -1871.109231842665, 0.0]
['beep', 0.0, -645.0936967246172, 0.0, 0.0, 0.0, 0.0, -1876.4289470230278, 0.0]
['beep', 0.0, -649.6758043379551, 0.0, 0.0, 0.0, 0.0, -1877.5688859902486, 0.0]
['beep', 0.0, -648.6252723485557, 0.0, 0.0, 0.0, 0.0, -1875.8254499227346, 0.0]
['beep', 0.0, -642.7467635568099, 0.0, 0.0, 0.0, 0.0, -1874.0149586218547, 0.0]
['beep', 0.0, -639.8410367776199, 0.0, 0.0, 0.0, 0.0, -1874.6631592110587, 0.0]
['beep', 0.0, -642.5679496011675, 0.0, 0.0, 0.0, 0.0, -1875.6466359670922, 0.0]
['beep', 0.0, -646.8147810476758, 0.0, 0.0, 0.0, 0.0, -1876.6301127231256, 0.0]
['beep', 0.0, -646.8371327921311, 0.0, 0.0, 0.0, 0.0, -1875.5795807337263, 0.0]
['beep', 0.0, -641.9197490119635, 0.0, 0.0, 0.0, 0.0, -1872.7632609323575, 0.0]
['beep', 0.0, -638.4552286213909, 0.0, 0.0, 0.0, 0.0, -1869.9916446198995, 0.0]
['beep', 0.0, -641.8526937785977, 0.0, 0.0, 0.0, 0.0, -1871.6680254540474, 0.0]
['beep', 0.0, -646.390097903025, 0.0, 0.0, 0.0, 0.0, -1875.356063289173, 0.0]
['beep', 0.0, -645.6077868470892, 0.0, 0.0, 0.0, 0.0, -1875.9819121339217, 0.0]
['beep', 0.0, -640.5786443446451, 0.0, 0.0, 0.0, 0.0, -1873.4785167549273, 0.0]
['beep', 0.0, -637.2705861652597, 0.0, 0.0, 0.0, 0.0, -1869.65636845307, 0.0]
['beep', 0.0, -641.5397693562234, 0.0, 0.0, 0.0, 0.0, -1871.556266731771, 0.0]
['beep', 0.0, -646.323042669659, 0.0, 0.0, 0.0, 0.0, -1877.0547958677764, 0.0]
['beep', 0.0, -645.1384002135278, 0.0, 0.0, 0.0, 0.0, -1872.9867783769107, 0.0]
['beep', 0.0, -639.7069263108881, 0.0, 0.0, 0.0, 0.0, -1873.1655923325532, 0.0]
['beep', 0.0, -637.6058623320893, 0.0, 0.0, 0.0, 0.0, -1872.3832812766173, 0.0]
['beep', 0.0, -640.8468652781088, 0.0, 0.0, 0.0, 0.0, -1873.903199899578, 0.0]
['beep', 0.0, -646.2336356918378, 0.0, 0.0, 0.0, 0.0, -1876.7418714454022, 0.0]
['beep', 0.0, -646.2559874362931, 0.0, 0.0, 0.0, 0.0, -1875.6689877115475, 0.0]
['beep', 0.0, -640.5115891112791, 0.0, 0.0, 0.0, 0.0, -1874.1490690885867, 0.0]
['beep', 0.0, -635.9518332423966, 0.0, 0.0, 0.0, 0.0, -1871.332749287218, 0.0]
['beep', 0.0, -640.0422024777178, 0.0, 0.0, 0.0, 0.0, -1871.332749287218, 0.0]
['beep', 0.0, -646.5689118586674, 0.0, 0.0, 0.0, 0.0, -1874.9984353778882, 0.0]
['beep', 0.0, -644.8254757911534, 0.0, 0.0, 0.0, 0.0, -1876.2277813229302, 0.0]
['beep', 0.0, -639.6175193330669, 0.0, 0.0, 0.0, 0.0, -1870.0586998532654, 0.0]
['beep', 0.0, -637.3376413986256, 0.0, 0.0, 0.0, 0.0, -1869.298740541785, 0.0]
['beep', 0.0, -638.5222838547569, 0.0, 0.0, 0.0, 0.0, -1869.8575341531675, 0.0]
['beep', 0.0, -643.0149844902736, 0.0, 0.0, 0.0, 0.0, -1869.812830664257, 0.0]
['beep', 0.0, -643.551426357201, 0.0, 0.0, 0.0, 0.0, -1870.818659164746, 0.0]
['beep', 0.0, -639.2822431662373, 0.0, 0.0, 0.0, 0.0, -1869.879885897623, 0.0]
['beep', 0.0, -636.3765163870473, 0.0, 0.0, 0.0, 0.0, -1867.8682288966454, 0.0]
['beep', 0.0, -639.2151879328713, 0.0, 0.0, 0.0, 0.0, -1872.2491708098855, 0.0]
['beep', 0.0, -643.5067228682904, 0.0, 0.0, 0.0, 0.0, -1874.4396417665055, 0.0]
['beep', 0.0, -642.7691153012652, 0.0, 0.0, 0.0, 0.0, -1873.2102958214637, 0.0]
['beep', 0.0, -638.9469669994077, 0.0, 0.0, 0.0, 0.0, -1870.818659164746, 0.0]
['beep', 0.0, -635.6612605644775, 0.0, 0.0, 0.0, 0.0, -1870.103403342176, 0.0]
['beep', 0.0, -640.5115891112791, 0.0, 0.0, 0.0, 0.0, -1869.9692928754441, 0.0]
['beep', 0.0, -646.5689118586674, 0.0, 0.0, 0.0, 0.0, -1873.5008684993827, 0.0]
['beep', 0.0, -644.0878682241283, 0.0, 0.0, 0.0, 0.0, -1872.4503365099833, 0.0]
['beep', 0.0, -639.9974989888071, 0.0, 0.0, 0.0, 0.0, -1871.0421766092988, 0.0]
['beep', 0.0, -638.4105251324803, 0.0, 0.0, 0.0, 0.0, -1870.5057347423715, 0.0]
['beep', 0.0, -641.2491966783043, 0.0, 0.0, 0.0, 0.0, -1873.1208888436424, 0.0]
['beep', 0.0, -646.7924293032205, 0.0, 0.0, 0.0, 0.0, -1875.6019324781817, 0.0]
['beep', 0.0, -646.5465601142121, 0.0, 0.0, 0.0, 0.0, -1873.1879440770083, 0.0]
['beep', 0.0, -641.5397693562234, 0.0, 0.0, 0.0, 0.0, -1871.3103975427625, 0.0]
['beep', 0.0, -639.3716501440585, 0.0, 0.0, 0.0, 0.0, -1868.3152637857515, 0.0]
['beep', 0.0, -642.2550251787932, 0.0, 0.0, 0.0, 0.0, -1869.522257986338, 0.0]
['beep', 0.0, -647.0606502366842, 0.0, 0.0, 0.0, 0.0, -1873.5008684993827, 0.0]
['beep', 0.0, -648.4017549040026, 0.0, 0.0, 0.0, 0.0, -1874.685510955514, 0.0]
['beep', 0.0, -642.7020600678993, 0.0, 0.0, 0.0, 0.0, -1873.098537099187, 0.0]
['beep', 0.0, -639.4163536329692, 0.0, 0.0, 0.0, 0.0, -1870.103403342176, 0.0]
['beep', 0.0, -643.1937984459161, 0.0, 0.0, 0.0, 0.0, -1870.9304178870225, 0.0]
['beep', 0.0, -649.742859571321, 0.0, 0.0, 0.0, 0.0, -1874.7525661888799, 0.0]
['beep', 0.0, -649.8322665491422, 0.0, 0.0, 0.0, 0.0, -1870.818659164746, 0.0]
['beep', 0.0, -643.1267432125501, 0.0, 0.0, 0.0, 0.0, -1869.812830664257, 0.0]
['beep', 0.0, -639.8633885220753, 0.0, 0.0, 0.0, 0.0, -1870.3716242756398, 0.0]
['beep', 0.0, -644.6019583466003, 0.0, 0.0, 0.0, 0.0, -1874.1714208330418, 0.0]
['beep', 0.0, -649.2734729377596, 0.0, 0.0, 0.0, 0.0, -1877.32301680124, 0.0]
['beep', 0.0, -648.4911618818238, 0.0, 0.0, 0.0, 0.0, -1875.713691200458, 0.0]
['beep', 0.0, -644.1996269464048, 0.0, 0.0, 0.0, 0.0, -1872.8750196546341, 0.0]
['beep', 0.0, -641.0256792337512, 0.0, 0.0, 0.0, 0.0, -1870.2598655533632, 0.0]
['beep', 0.0, -643.8867025240305, 0.0, 0.0, 0.0, 0.0, -1870.5727899757374, 0.0]
['beep', 0.0, -648.2452926928154, 0.0, 0.0, 0.0, 0.0, -1874.394938277595, 0.0]
['beep', 0.0, -647.1053537255948, 0.0, 0.0, 0.0, 0.0, -1871.9809498764218, 0.0]
['beep', 0.0, -643.6855368239328, 0.0, 0.0, 0.0, 0.0, -1873.9479033884888, 0.0]
['beep', 0.0, -639.4163536329692, 0.0, 0.0, 0.0, 0.0, -1876.294836556296, 0.0]
['beep', 0.0, -642.7020600678993, 0.0, 0.0, 0.0, 0.0, -1877.5465342457933, 0.0]
['beep', 0.0, -647.9100165259858, 0.0, 0.0, 0.0, 0.0, -1877.9041621570782, 0.0]
['beep', 0.0, -646.4795048808462, 0.0, 0.0, 0.0, 0.0, -1875.8925051561005, 0.0]
['beep', 0.0, -639.8410367776199, 0.0, 0.0, 0.0, 0.0, -1872.5620952322597, 0.0]
['beep', 0.0, -637.6058623320893, 0.0, 0.0, 0.0, 0.0, -1874.0596621107654, 0.0]
['beep', 0.0, -646.613615347578, 0.0, 0.0, 0.0, 0.0, -1876.361891789662, 0.0]
['beep', 0.0, -655.2637404517818, 0.0, 0.0, 0.0, 0.0, -1877.1889063345084, 0.0]
['beep', 0.0, -653.5873596176339, 0.0, 0.0, 0.0, 0.0, -1875.6689877115475, 0.0]
['beep', 0.0, -648.3346996706366, 0.0, 0.0, 0.0, 0.0, -1875.3113598002626, 0.0]
['beep', 0.0, -643.5290746127456, 0.0, 0.0, 0.0, 0.0, -1874.0820138552206, 0.0]
['beep', 0.0, -646.3006909252038, 0.0, 0.0, 0.0, 0.0, -1875.2443045668967, 0.0]
['beep', 0.0, -652.4250689059578, 0.0, 0.0, 0.0, 0.0, -1878.909990657567, 0.0]
['beep', 0.0, -652.4474206504132, 0.0, 0.0, 0.0, 0.0, -1877.9265139015336, 0.0]
['beep', 0.0, -647.9547200148965, 0.0, 0.0, 0.0, 0.0, -1872.9644266324553, 0.0]
['beep', 0.0, -643.5961298461116, 0.0, 0.0, 0.0, 0.0, -1869.7457754308912, 0.0]
['beep', 0.0, -647.2171124478713, 0.0, 0.0, 0.0, 0.0, -1871.0868800982096, 0.0]
['beep', 0.0, -651.4639438943797, 0.0, 0.0, 0.0, 0.0, -1875.4231185225392, 0.0]
['beep', 0.0, -651.933330527941, 0.0, 0.0, 0.0, 0.0, -1874.4619935109608, 0.0]
['beep', 0.0, -647.2618159367819, 0.0, 0.0, 0.0, 0.0, -1874.7078626999692, 0.0]
['beep', 0.0, -643.774943801754, 0.0, 0.0, 0.0, 0.0, -1872.3609295321621, 0.0]
['beep', 0.0, -647.1500572145054, 0.0, 0.0, 0.0, 0.0, -1870.9974731203883, 0.0]
['beep', 0.0, -651.709813083388, 0.0, 0.0, 0.0, 0.0, -1873.3220545437403, 0.0]
['beep', 0.0, -651.7321648278433, 0.0, 0.0, 0.0, 0.0, -1878.8429354242012, 0.0]
['beep', 0.0, -647.3065194256925, 0.0, 0.0, 0.0, 0.0, -1875.0878423557094, 0.0]
['beep', 0.0, -643.4396676349244, 0.0, 0.0, 0.0, 0.0, -1872.2268190654302, 0.0]
['beep', 0.0, -647.8876647815305, 0.0, 0.0, 0.0, 0.0, -1872.8750196546341, 0.0]
['beep', 0.0, -653.162676472983, 0.0, 0.0, 0.0, 0.0, -1874.0596621107654, 0.0]
['beep', 0.0, -651.6874613389327, 0.0, 0.0, 0.0, 0.0, -1873.5008684993827, 0.0]
['beep', 0.0, -646.9488915144076, 0.0, 0.0, 0.0, 0.0, -1872.651502210081, 0.0]
['beep', 0.0, -644.3337374131366, 0.0, 0.0, 0.0, 0.0, -1872.0927085986984, 0.0]
['beep', 0.0, -647.1500572145054, 0.0, 0.0, 0.0, 0.0, -1874.4619935109608, 0.0]
['beep', 0.0, -652.6038828616003, 0.0, 0.0, 0.0, 0.0, -1877.4124237790613, 0.0]
['beep', 0.0, -653.5873596176339, 0.0, 0.0, 0.0, 0.0, -1876.0266156228324, 0.0]
['beep', 0.0, -646.613615347578, 0.0, 0.0, 0.0, 0.0, -1872.293874298796, 0.0]
['beep', 0.0, -642.7467635568099, 0.0, 0.0, 0.0, 0.0, -1869.2093335639638, 0.0]
['beep', 0.0, -645.4960281248127, 0.0, 0.0, 0.0, 0.0, -1871.84683940969, 0.0]
['beep', 0.0, -650.9722055163629, 0.0, 0.0, 0.0, 0.0, -1876.004263878377, 0.0]
['beep', 0.0, -651.6204061055668, 0.0, 0.0, 0.0, 0.0, -1876.0936708561983, 0.0]
['beep', 0.0, -646.4348013919356, 0.0, 0.0, 0.0, 0.0, -1875.2443045668967, 0.0]
['beep', 0.0, -642.9926327458182, 0.0, 0.0, 0.0, 0.0, -1871.7574324318687, 0.0]
['beep', 0.0, -646.3453944141144, 0.0, 0.0, 0.0, 0.0, -1870.2375138089078, 0.0]
['beep', 0.0, -652.5591793726896, 0.0, 0.0, 0.0, 0.0, -1874.6631592110587, 0.0]
['beep', 0.0, -652.0674409946729, 0.0, 0.0, 0.0, 0.0, -1875.1325458446202, 0.0]
['beep', 0.0, -646.8818362810417, 0.0, 0.0, 0.0, 0.0, -1872.6738539545363, 0.0]
['beep', 0.0, -643.2161501903713, 0.0, 0.0, 0.0, 0.0, -1872.137412087609, 0.0]
['beep', 0.0, -646.9488915144076, 0.0, 0.0, 0.0, 0.0, -1874.104365599676, 0.0]
['beep', 0.0, -653.6544148509997, 0.0, 0.0, 0.0, 0.0, -1876.4065952785727, 0.0]
['beep', 0.0, -651.8662752945752, 0.0, 0.0, 0.0, 0.0, -1873.1655923325532, 0.0]
['beep', 0.0, -645.9877665028295, 0.0, 0.0, 0.0, 0.0, -1871.1539353315754, 0.0]
['beep', 0.0, -644.7360688133322, 0.0, 0.0, 0.0, 0.0, -1870.461031253461, 0.0]
['beep', 0.0, -647.0159467477736, 0.0, 0.0, 0.0, 0.0, -1873.1655923325532, 0.0]
['beep', 0.0, -651.709813083388, 0.0, 0.0, 0.0, 0.0, -1875.9819121339217, 0.0]
['beep', 0.0, -653.0509177507065, 0.0, 0.0, 0.0, 0.0, -1873.6349789661144, 0.0]
['beep', 0.0, -646.323042669659, 0.0, 0.0, 0.0, 0.0, -1873.2102958214637, 0.0]
['beep', 0.0, -644.1772752019496, 0.0, 0.0, 0.0, 0.0, -1871.3103975427625, 0.0]
['beep', 0.0, -646.7030223253993, 0.0, 0.0, 0.0, 0.0, -1873.6126272216593, 0.0]
['beep', 0.0, -652.3580136725919, 0.0, 0.0, 0.0, 0.0, -1878.0829761127206, 0.0]
['beep', 0.0, -652.8944555395193, 0.0, 0.0, 0.0, 0.0, -1877.7253482014357, 0.0]
['beep', 0.0, -648.580568859645, 0.0, 0.0, 0.0, 0.0, -1873.3891097771061, 0.0]
['beep', 0.0, -643.6631850794774, 0.0, 0.0, 0.0, 0.0, -1871.1539353315754, 0.0]
['beep', 0.0, -646.8371327921311, 0.0, 0.0, 0.0, 0.0, -1872.0480051097877, 0.0]
['beep', 0.0, -651.5309991277455, 0.0, 0.0, 0.0, 0.0, -1875.1101941001648, 0.0]
['beep', 0.0, -652.4250689059578, 0.0, 0.0, 0.0, 0.0, -1874.5961039776928, 0.0]
['beep', 0.0, -647.8206095481646, 0.0, 0.0, 0.0, 0.0, -1872.6291504656258, 0.0]
['beep', 0.0, -645.3842694025361, 0.0, 0.0, 0.0, 0.0, -1873.5455719882932, 0.0]
['beep', 0.0, -648.6476240930109, 0.0, 0.0, 0.0, 0.0, -1873.8361446662122, 0.0]
['beep', 0.0, -652.5368276282344, 0.0, 0.0, 0.0, 0.0, -1875.2890080558072, 0.0]
['beep', 0.0, -652.6262346060556, 0.0, 0.0, 0.0, 0.0, -1874.6408074666033, 0.0]
['beep', 0.0, -646.5465601142121, 0.0, 0.0, 0.0, 0.0, -1874.1267173441313, 0.0]
['beep', 0.0, -643.8419990351199, 0.0, 0.0, 0.0, 0.0, -1870.2598655533632, 0.0]
['beep', 0.0, -648.9829002598406, 0.0, 0.0, 0.0, 0.0, -1872.2268190654302, 0.0]
['beep', 0.0, -654.1461532290165, 0.0, 0.0, 0.0, 0.0, -1878.6864732130139, 0.0]
['beep', 0.0, -653.453249150902, 0.0, 0.0, 0.0, 0.0, -1878.1947348349972, 0.0]
['beep', 0.0, -648.5135136262791, 0.0, 0.0, 0.0, 0.0, -1871.6680254540474, 0.0]
['beep', 0.0, -645.5854351026339, 0.0, 0.0, 0.0, 0.0, -1868.8293539082235, 0.0]
['beep', 0.0, -649.2958246822149, 0.0, 0.0, 0.0, 0.0, -1875.6242842226368, 0.0]
['beep', 0.0, -654.4814293958461, 0.0, 0.0, 0.0, 0.0, -1877.9488656459887, 0.0]
['beep', 0.0, -653.9226357844634, 0.0, 0.0, 0.0, 0.0, -1873.7690894328464, 0.0]
['beep', 0.0, -648.1335339705389, 0.0, 0.0, 0.0, 0.0, -1872.3609295321621, 0.0]
['beep', 0.0, -645.6748420804552, 0.0, 0.0, 0.0, 0.0, -1874.7302144444245, 0.0]
['beep', 0.0, -653.2520834508042, 0.0, 0.0, 0.0, 0.0, -1875.84780166719, 0.0]
['beep', 0.0, -656.8283625636534, 0.0, 0.0, 0.0, 0.0, -1877.010092378866, 0.0]
['beep', 0.0, -647.5747403591562, 0.0, 0.0, 0.0, 0.0, -1873.1432405880978, 0.0]
['beep', 0.0, -638.678746065944, 0.0, 0.0, 0.0, 0.0, -1872.3832812766173, 0.0]
['beep', 0.0, -634.2083971748826, 0.0, 0.0, 0.0, 0.0, -1871.9362463875111, 0.0]
['beep', 0.0, -637.0694204651619, 0.0, 0.0, 0.0, 0.0, -1874.7749179333352, 0.0]
['beep', 0.0, -644.5125513687791, 0.0, 0.0, 0.0, 0.0, -1878.2170865794524, 0.0]
['beep', 0.0, -645.8760077805529, 0.0, 0.0, 0.0, 0.0, -1874.394938277595, 0.0]
['beep', 0.0, -639.8410367776199, 0.0, 0.0, 0.0, 0.0, -1872.3385777877068, 0.0]
['beep', 0.0, -636.0859437091284, 0.0, 0.0, 0.0, 0.0, -1873.3220545437403, 0.0]
['beep', 0.0, -640.0869059666284, 0.0, 0.0, 0.0, 0.0, -1875.5125255003604, 0.0]
['beep', 0.0, -644.3784409020473, 0.0, 0.0, 0.0, 0.0, -1874.7525661888799, 0.0]
['beep', 0.0, -642.8808740235418, 0.0, 0.0, 0.0, 0.0, -1872.3832812766173, 0.0]
['beep', 0.0, -638.0752489656508, 0.0, 0.0, 0.0, 0.0, -1873.3891097771061, 0.0]
['beep', 0.0, -635.6836123089329, 0.0, 0.0, 0.0, 0.0, -1873.2773510548295, 0.0]
['beep', 0.0, -639.0587257216843, 0.0, 0.0, 0.0, 0.0, -1873.4338132660168, 0.0]
['beep', 0.0, -643.774943801754, 0.0, 0.0, 0.0, 0.0, -1876.1160226006537, 0.0]
['beep', 0.0, -644.4454961354132, 0.0, 0.0, 0.0, 0.0, -1876.5630574897598, 0.0]
['beep', 0.0, -639.0810774661395, 0.0, 0.0, 0.0, 0.0, -1875.0878423557094, 0.0]
['beep', 0.0, -636.9576617428854, 0.0, 0.0, 0.0, 0.0, -1873.8361446662122, 0.0]
['beep', 0.0, -638.9469669994077, 0.0, 0.0, 0.0, 0.0, -1871.8915428986006, 0.0]
['beep', 0.0, -644.5572548576897, 0.0, 0.0, 0.0, 0.0, -1872.5620952322597, 0.0]
['beep', 0.0, -645.004289746796, 0.0, 0.0, 0.0, 0.0, -1875.3784150336285, 0.0]
['beep', 0.0, -640.1763129444496, 0.0, 0.0, 0.0, 0.0, -1874.909028400067, 0.0]
['beep', 0.0, -636.7341442983322, 0.0, 0.0, 0.0, 0.0, -1871.8915428986006, 0.0]
['beep', 0.0, -639.3716501440585, 0.0, 0.0, 0.0, 0.0, -1871.623321965137, 0.0]
['beep', 0.0, -642.7467635568099, 0.0, 0.0, 0.0, 0.0, -1873.0091301213658, 0.0]
['beep', 0.0, -644.9819380023406, 0.0, 0.0, 0.0, 0.0, -1873.076185354732, 0.0]
['beep', 0.0, -639.9080920109859, 0.0, 0.0, 0.0, 0.0, -1873.1655923325532, 0.0]
['beep', 0.0, -636.3765163870473, 0.0, 0.0, 0.0, 0.0, -1873.0538336102766, 0.0]
['beep', 0.0, -637.6729175654552, 0.0, 0.0, 0.0, 0.0, -1875.043138866799, 0.0]
['beep', 0.0, -642.165618200972, 0.0, 0.0, 0.0, 0.0, -1878.3064935572736, 0.0]
['beep', 0.0, -643.9537577573965, 0.0, 0.0, 0.0, 0.0, -1874.551400488782, 0.0]
['beep', 0.0, -638.2764146657485, 0.0, 0.0, 0.0, 0.0, -1870.6621969535586, 0.0]
['beep', 0.0, -634.3201558971591, 0.0, 0.0, 0.0, 0.0, -1868.8293539082235, 0.0]
['beep', 0.0, -638.388173388025, 0.0, 0.0, 0.0, 0.0, -1872.584446976715, 0.0]
['beep', 0.0, -644.1102199685836, 0.0, 0.0, 0.0, 0.0, -1876.2277813229302, 0.0]
['beep', 0.0, -643.5737781016562, 0.0, 0.0, 0.0, 0.0, -1874.8643249111565, 0.0]
['beep', 0.0, -637.8740832655529, 0.0, 0.0, 0.0, 0.0, -1872.7409091879022, 0.0]
['beep', 0.0, -635.4377431199244, 0.0, 0.0, 0.0, 0.0, -1870.3045690422737, 0.0]
['beep', 0.0, -638.6116908325781, 0.0, 0.0, 0.0, 0.0, -1871.2209905649413, 0.0]
['beep', 0.0, -645.3842694025361, 0.0, 0.0, 0.0, 0.0, -1872.8973713990895, 0.0]
['beep', 0.0, -646.4124496474802, 0.0, 0.0, 0.0, 0.0, -1870.9527696314776, 0.0]
['beep', 0.0, -640.5115891112791, 0.0, 0.0, 0.0, 0.0, -1873.5679237327486, 0.0]
['beep', 0.0, -637.5611588431786, 0.0, 0.0, 0.0, 0.0, -1874.5961039776928, 0.0]
['beep', 0.0, -638.7905047882206, 0.0, 0.0, 0.0, 0.0, -1872.4503365099833, 0.0]
['beep', 0.0, -643.9537577573965, 0.0, 0.0, 0.0, 0.0, -1875.3113598002626, 0.0]
['beep', 0.0, -646.7700775587651, 0.0, 0.0, 0.0, 0.0, -1874.5961039776928, 0.0]
['beep', 0.0, -639.5057606107904, 0.0, 0.0, 0.0, 0.0, -1872.4503365099833, 0.0]
['beep', 0.0, -634.7001355528994, 0.0, 0.0, 0.0, 0.0, -1873.2773510548295, 0.0]
['beep', 0.0, -639.5057606107904, 0.0, 0.0, 0.0, 0.0, -1874.5737522332374, 0.0]
['beep', 0.0, -644.8031240466981, 0.0, 0.0, 0.0, 0.0, -1877.2336098234189, 0.0]
['beep', 0.0, -645.4513246359021, 0.0, 0.0, 0.0, 0.0, -1875.1772493335307, 0.0]
['beep', 0.0, -639.7069263108881, 0.0, 0.0, 0.0, 0.0, -1875.8701534116453, 0.0]
['beep', 0.0, -636.5106268537792, 0.0, 0.0, 0.0, 0.0, -1875.1325458446202, 0.0]
['beep', 0.0, -638.9469669994077, 0.0, 0.0, 0.0, 0.0, -1871.332749287218, 0.0]
['beep', 0.0, -643.2608536792819, 0.0, 0.0, 0.0, 0.0, -1874.7972696777904, 0.0]
['beep', 0.0, -645.3842694025361, 0.0, 0.0, 0.0, 0.0, -1879.0888046132095, 0.0]
['beep', 0.0, -641.807990289687, 0.0, 0.0, 0.0, 0.0, -1874.618455722148, 0.0]
['beep', 0.0, -638.0752489656508, 0.0, 0.0, 0.0, 0.0, -1872.584446976715, 0.0]
['beep', 0.0, -638.0081937322848, 0.0, 0.0, 0.0, 0.0, -1873.590275477204, 0.0]
['beep', 0.0, -643.2608536792819, 0.0, 0.0, 0.0, 0.0, -1877.2783133123296, 0.0]
['beep', 0.0, -644.9148827689747, 0.0, 0.0, 0.0, 0.0, -1874.7972696777904, 0.0]
['beep', 0.0, -638.7905047882206, 0.0, 0.0, 0.0, 0.0, -1872.4950399988938, 0.0]
['beep', 0.0, -636.1082954535837, 0.0, 0.0, 0.0, 0.0, -1876.5630574897598, 0.0]
['beep', 0.0, -639.1257809550501, 0.0, 0.0, 0.0, 0.0, -1877.7924034348016, 0.0]
['beep', 0.0, -641.7185833118658, 0.0, 0.0, 0.0, 0.0, -1878.0829761127206, 0.0]
['beep', 0.0, -642.8585222790864, 0.0, 0.0, 0.0, 0.0, -1877.0324441233213, 0.0]
['beep', 0.0, -638.7234495548546, 0.0, 0.0, 0.0, 0.0, -1873.7914411773017, 0.0]
['beep', 0.0, -635.4377431199244, 0.0, 0.0, 0.0, 0.0, -1872.0927085986984, 0.0]
['beep', 0.0, -638.1199524545614, 0.0, 0.0, 0.0, 0.0, -1874.909028400067, 0.0]
['beep', 0.0, -644.3113856686814, 0.0, 0.0, 0.0, 0.0, -1877.2112580789637, 0.0]
['beep', 0.0, -645.3619176580809, 0.0, 0.0, 0.0, 0.0, -1875.4007667780838, 0.0]
['beep', 0.0, -638.8128565326758, 0.0, 0.0, 0.0, 0.0, -1877.3677202901508, 0.0]
['beep', 0.0, -634.8118942751759, 0.0, 0.0, 0.0, 0.0, -1878.775880190835, 0.0]
['beep', 0.0, -637.1141239540725, 0.0, 0.0, 0.0, 0.0, -1879.0441011242988, 0.0]
['beep', 0.0, -641.3162519116703, 0.0, 0.0, 0.0, 0.0, -1879.6923017135027, 0.0]
['beep', 0.0, -641.003327489296, 0.0, 0.0, 0.0, 0.0, -1876.4289470230278, 0.0]
['beep', 0.0, -635.0801152086395, 0.0, 0.0, 0.0, 0.0, -1873.5008684993827, 0.0]
['beep', 0.0, -628.5087023387792, 0.0, 0.0, 0.0, 0.0, -1872.6067987211704, 0.0]
['beep', 0.0, -628.9110337389748, 0.0, 0.0, 0.0, 0.0, -1872.5397434878046, 0.0]
['beep', 0.0, -635.3706878865586, 0.0, 0.0, 0.0, 0.0, -1875.4007667780838, 0.0]
['beep', 0.0, -639.0140222327736, 0.0, 0.0, 0.0, 0.0, -1876.6077609786703, 0.0]
['beep', 0.0, -635.7059640533881, 0.0, 0.0, 0.0, 0.0, -1872.2491708098855, 0.0]
['beep', 0.0, -633.8507692635977, 0.0, 0.0, 0.0, 0.0, -1872.785612676813, 0.0]
['beep', 0.0, -637.1588274429831, 0.0, 0.0, 0.0, 0.0, -1876.0489673672878, 0.0]
['beep', 0.0, -642.8361705346312, 0.0, 0.0, 0.0, 0.0, -1879.200563335486, 0.0]
['beep', 0.0, -643.6184815905668, 0.0, 0.0, 0.0, 0.0, -1878.5747144907373, 0.0]
['beep', 0.0, -637.002365231796, 0.0, 0.0, 0.0, 0.0, -1876.8536301676788, 0.0]
['beep', 0.0, -634.0295832192402, 0.0, 0.0, 0.0, 0.0, -1875.356063289173, 0.0]
['beep', 0.0, -635.1695221864608, 0.0, 0.0, 0.0, 0.0, -1876.5630574897598, 0.0]
['beep', 0.0, -640.9586240003854, 0.0, 0.0, 0.0, 0.0, -1877.1218511011425, 0.0]
['beep', 0.0, -643.1937984459161, 0.0, 0.0, 0.0, 0.0, -1876.5854092342151, 0.0]
['beep', 0.0, -639.3492983996032, 0.0, 0.0, 0.0, 0.0, -1877.4124237790613, 0.0]
['beep', 0.0, -635.1024669530949, 0.0, 0.0, 0.0, 0.0, -1873.880848155123, 0.0]
['beep', 0.0, -637.3376413986256, 0.0, 0.0, 0.0, 0.0, -1877.0324441233213, 0.0]
['beep', 0.0, -642.4114873899803, 0.0, 0.0, 0.0, 0.0, -1881.1228133586424, 0.0]
['beep', 0.0, -644.3113856686814, 0.0, 0.0, 0.0, 0.0, -1880.8098889362682, 0.0]
['beep', 0.0, -638.7681530437652, 0.0, 0.0, 0.0, 0.0, -1879.200563335486, 0.0]
['beep', 0.0, -634.2754524082485, 0.0, 0.0, 0.0, 0.0, -1880.2510953248855, 0.0]
['beep', 0.0, -636.4435716204133, 0.0, 0.0, 0.0, 0.0, -1876.9877406344106, 0.0]
['beep', 0.0, -643.8196472906646, 0.0, 0.0, 0.0, 0.0, -1877.971217390444, 0.0]
['beep', 0.0, -645.1384002135278, 0.0, 0.0, 0.0, 0.0, -1882.6650837260586, 0.0]
['beep', 0.0, -638.969318743863, 0.0, 0.0, 0.0, 0.0, -1878.03827262381, 0.0]
['beep', 0.0, -634.7001355528994, 0.0, 0.0, 0.0, 0.0, -1877.2336098234189, 0.0]
['beep', 0.0, -638.388173388025, 0.0, 0.0, 0.0, 0.0, -1879.424080780039, 0.0]
['beep', 0.0, -643.0596879791842, 0.0, 0.0, 0.0, 0.0, -1878.2841418128185, 0.0]
['beep', 0.0, -643.5290746127456, 0.0, 0.0, 0.0, 0.0, -1879.3570255466732, 0.0]
['beep', 0.0, -638.388173388025, 0.0, 0.0, 0.0, 0.0, -1878.2170865794524, 0.0]
['beep', 0.0, -633.4931413523128, 0.0, 0.0, 0.0, 0.0, -1875.9595603894666, 0.0]
['beep', 0.0, -636.6000338316004, 0.0, 0.0, 0.0, 0.0, -1877.7700516903462, 0.0]
['beep', 0.0, -642.8361705346312, 0.0, 0.0, 0.0, 0.0, -1879.8264121802347, 0.0]
['beep', 0.0, -643.8643507795753, 0.0, 0.0, 0.0, 0.0, -1880.742833702902, 0.0]
['beep', 0.0, -638.5222838547569, 0.0, 0.0, 0.0, 0.0, -1877.1442028455976, 0.0]
['beep', 0.0, -634.0295832192402, 0.0, 0.0, 0.0, 0.0, -1876.0936708561983, 0.0]
['beep', 0.0, -636.1977024314049, 0.0, 0.0, 0.0, 0.0, -1879.4464325244944, 0.0]
['beep', 0.0, -643.4396676349244, 0.0, 0.0, 0.0, 0.0, -1882.7991941927903, 0.0]
['beep', 0.0, -643.484371123835, 0.0, 0.0, 0.0, 0.0, -1882.9333046595223, 0.0]
['beep', 0.0, -638.8352082771312, 0.0, 0.0, 0.0, 0.0, -1879.938170902511, 0.0]
['beep', 0.0, -634.8118942751759, 0.0, 0.0, 0.0, 0.0, -1876.6077609786703, 0.0]
['beep', 0.0, -636.6894408094216, 0.0, 0.0, 0.0, 0.0, -1878.1723830905419, 0.0]
['beep', 0.0, -642.098562967606, 0.0, 0.0, 0.0, 0.0, -1879.714653457958, 0.0]
['beep', 0.0, -643.551426357201, 0.0, 0.0, 0.0, 0.0, -1881.5921999922039, 0.0]
['beep', 0.0, -638.1199524545614, 0.0, 0.0, 0.0, 0.0, -1879.0217493798436, 0.0]
['beep', 0.0, -632.2190919183603, 0.0, 0.0, 0.0, 0.0, -1877.9488656459887, 0.0]
['beep', 0.0, -634.677783808444, 0.0, 0.0, 0.0, 0.0, -1876.9877406344106, 0.0]
['beep', 0.0, -640.355126900092, 0.0, 0.0, 0.0, 0.0, -1881.167516847553, 0.0]
['beep', 0.0, -642.0762112231507, 0.0, 0.0, 0.0, 0.0, -1881.1228133586424, 0.0]
['beep', 0.0, -636.063591964673, 0.0, 0.0, 0.0, 0.0, -1878.1500313460865, 0.0]
['beep', 0.0, -632.8225890186535, 0.0, 0.0, 0.0, 0.0, -1877.0994993566871, 0.0]
['beep', 0.0, -635.4600948643798, 0.0, 0.0, 0.0, 0.0, -1879.4687842689498, 0.0]
['beep', 0.0, -640.0198507332624, 0.0, 0.0, 0.0, 0.0, -1879.938170902511, 0.0]
['beep', 0.0, -640.9809757448406, 0.0, 0.0, 0.0, 0.0, -1881.167516847553, 0.0]
['beep', 0.0, -636.7788477872429, 0.0, 0.0, 0.0, 0.0, -1881.0557581252765, 0.0]
['beep', 0.0, -632.9566994853855, 0.0, 0.0, 0.0, 0.0, -1873.9479033884888, 0.0]
['beep', 0.0, -633.582548330134, 0.0, 0.0, 0.0, 0.0, -1877.010092378866, 0.0]
['beep', 0.0, -639.7292780553435, 0.0, 0.0, 0.0, 0.0, -1882.553325003782, 0.0]
['beep', 0.0, -640.6233478335557, 0.0, 0.0, 0.0, 0.0, -1883.1568221040754, 0.0]
['beep', 0.0, -635.7283157978435, 0.0, 0.0, 0.0, 0.0, -1880.9663511474553, 0.0]
['beep', 0.0, -633.0237547187513, 0.0, 0.0, 0.0, 0.0, -1878.3064935572736, 0.0]
['beep', 0.0, -634.1189901970614, 0.0, 0.0, 0.0, 0.0, -1878.5523627462821, 0.0]
['beep', 0.0, -640.6233478335557, 0.0, 0.0, 0.0, 0.0, -1879.8711156691452, 0.0]
['beep', 0.0, -640.2657199222708, 0.0, 0.0, 0.0, 0.0, -1880.4746127694384, 0.0]
['beep', 0.0, -636.5776820871451, 0.0, 0.0, 0.0, 0.0, -1876.004263878377, 0.0]
['beep', 0.0, -632.710830296377, 0.0, 0.0, 0.0, 0.0, -1872.785612676813, 0.0]
['beep', 0.0, -634.5213215972569, 0.0, 0.0, 0.0, 0.0, -1873.4114615215615, 0.0]
['beep', 0.0, -639.5057606107904, 0.0, 0.0, 0.0, 0.0, -1875.0878423557094, 0.0]
['beep', 0.0, -640.2880716667261, 0.0, 0.0, 0.0, 0.0, -1873.2773510548295, 0.0]
['beep', 0.0, -636.4882751093239, 0.0, 0.0, 0.0, 0.0, -1869.812830664257, 0.0]
['beep', 0.0, -633.4260861189468, 0.0, 0.0, 0.0, 0.0, -1871.5786184762262, 0.0]
['beep', 0.0, -635.5942053311117, 0.0, 0.0, 0.0, 0.0, -1871.1539353315754, 0.0]
['beep', 0.0, -639.483408866335, 0.0, 0.0, 0.0, 0.0, -1872.718557443447, 0.0]
['beep', 0.0, -642.1432664565166, 0.0, 0.0, 0.0, 0.0, -1872.2044673209748, 0.0]
['beep', 0.0, -638.902263510497, 0.0, 0.0, 0.0, 0.0, -1870.4163277645503, 0.0]
['beep', 0.0, -633.2249204188491, 0.0, 0.0, 0.0, 0.0, -1868.5387812303045, 0.0]
['beep', 0.0, -635.9741849868518, 0.0, 0.0, 0.0, 0.0, -1866.7953451627905, 0.0]
['beep', 0.0, -639.6175193330669, 0.0, 0.0, 0.0, 0.0, -1869.4328510085168, 0.0]
['beep', 0.0, -641.7632868007764, 0.0, 0.0, 0.0, 0.0, -1867.1753248185307, 0.0]
['beep', 0.0, -637.4494001209022, 0.0, 0.0, 0.0, 0.0, -1863.9343218725112, 0.0]
['beep', 0.0, -632.0179262182625, 0.0, 0.0, 0.0, 0.0, -1865.297778284285, 0.0]
['beep', 0.0, -633.582548330134, 0.0, 0.0, 0.0, 0.0, -1867.331787029718, 0.0]
['beep', 0.0, -638.6340425770334, 0.0, 0.0, 0.0, 0.0, -1867.4211940075393, 0.0]
['beep', 0.0, -639.2375396773267, 0.0, 0.0, 0.0, 0.0, -1867.4882492409051, 0.0]
['beep', 0.0, -636.4882751093239, 0.0, 0.0, 0.0, 0.0, -1867.264731796352, 0.0]
['beep', 0.0, -631.8167605181648, 0.0, 0.0, 0.0, 0.0, -1863.4425834944946, 0.0]
['beep', 0.0, -632.1967401739049, 0.0, 0.0, 0.0, 0.0, -1865.2530747953745, 0.0]
['beep', 0.0, -637.7399727988211, 0.0, 0.0, 0.0, 0.0, -1865.454240495472, 0.0]
['beep', 0.0, -641.0703827226619, 0.0, 0.0, 0.0, 0.0, -1864.6719294395364, 0.0]
['beep', 0.0, -636.3094611536815, 0.0, 0.0, 0.0, 0.0, -1862.5932172051928, 0.0]
['beep', 0.0, -633.2472721633044, 0.0, 0.0, 0.0, 0.0, -1858.8828276256118, 0.0]
['beep', 0.0, -634.7224872973546, 0.0, 0.0, 0.0, 0.0, -1860.3133392707516, 0.0]
['beep', 0.0, -642.0315077342401, 0.0, 0.0, 0.0, 0.0, -1865.9683306179443, 0.0]
['beep', 0.0, -641.9421007564189, 0.0, 0.0, 0.0, 0.0, -1865.9012753845782, 0.0]
['beep', 0.0, -636.9800134873407, 0.0, 0.0, 0.0, 0.0, -1864.2248945504302, 0.0]
['beep', 0.0, -632.1520366849943, 0.0, 0.0, 0.0, 0.0, -1860.2462840373855, 0.0]
['beep', 0.0, -634.5660250861675, 0.0, 0.0, 0.0, 0.0, -1861.877961382623, 0.0]
['beep', 0.0, -639.7516297997987, 0.0, 0.0, 0.0, 0.0, -1863.263769538852, 0.0]
['beep', 0.0, -641.7856385452317, 0.0, 0.0, 0.0, 0.0, -1862.839086394201, 0.0]
['beep', 0.0, -638.74580129931, 0.0, 0.0, 0.0, 0.0, -1865.230723050919, 0.0]
['beep', 0.0, -633.8060657746871, 0.0, 0.0, 0.0, 0.0, -1862.8837898831118, 0.0]
['beep', 0.0, -635.2365774198267, 0.0, 0.0, 0.0, 0.0, -1862.7273276719247, 0.0]
['beep', 0.0, -641.3162519116703, 0.0, 0.0, 0.0, 0.0, -1864.0460805947878, 0.0]
['beep', 0.0, -644.1102199685836, 0.0, 0.0, 0.0, 0.0, -1864.8283916507235, 0.0]
['beep', 0.0, -639.5728158441563, 0.0, 0.0, 0.0, 0.0, -1862.5932172051928, 0.0]
['beep', 0.0, -633.940176241419, 0.0, 0.0, 0.0, 0.0, -1860.6709671820365, 0.0]
['beep', 0.0, -635.1024669530949, 0.0, 0.0, 0.0, 0.0, -1861.7214991714359, 0.0]
['beep', 0.0, -639.6398710775222, 0.0, 0.0, 0.0, 0.0, -1862.2579410383632, 0.0]
['beep', 0.0, -641.8973972675083, 0.0, 0.0, 0.0, 0.0, -1866.236551551408, 0.0]
['beep', 0.0, -637.4270483764468, 0.0, 0.0, 0.0, 0.0, -1865.3871852621062, 0.0]
['beep', 0.0, -633.6272518190447, 0.0, 0.0, 0.0, 0.0, -1859.4639729814498, 0.0]
['beep', 0.0, -634.6330803195334, 0.0, 0.0, 0.0, 0.0, -1860.872132882134, 0.0]
['beep', 0.0, -638.6116908325781, 0.0, 0.0, 0.0, 0.0, -1862.6602724385586, 0.0]
['beep', 0.0, -643.6184815905668, 0.0, 0.0, 0.0, 0.0, -1863.84491489469, 0.0]
['beep', 0.0, -638.969318743863, 0.0, 0.0, 0.0, 0.0, -1861.7662026603464, 0.0]
['beep', 0.0, -632.8449407631089, 0.0, 0.0, 0.0, 0.0, -1861.4979817268827, 0.0]
['beep', 0.0, -635.6165570755669, 0.0, 0.0, 0.0, 0.0, -1861.3191677712402, 0.0]
['beep', 0.0, -641.1150862115725, 0.0, 0.0, 0.0, 0.0, -1862.392051505095, 0.0]
['beep', 0.0, -643.1267432125501, 0.0, 0.0, 0.0, 0.0, -1864.3813567616173, 0.0]
['beep', 0.0, -639.9080920109859, 0.0, 0.0, 0.0, 0.0, -1860.9615398599553, 0.0]
['beep', 0.0, -633.359030885581, 0.0, 0.0, 0.0, 0.0, -1861.3191677712402, 0.0]
['beep', 0.0, -634.2531006637932, 0.0, 0.0, 0.0, 0.0, -1862.2802927828186, 0.0]
['beep', 0.0, -638.1870076879272, 0.0, 0.0, 0.0, 0.0, -1862.7049759274694, 0.0]
['beep', 0.0, -641.4950658673127, 0.0, 0.0, 0.0, 0.0, -1862.7720311608352, 0.0]
['beep', 0.0, -638.2764146657485, 0.0, 0.0, 0.0, 0.0, -1861.6991474269805, 0.0]
['beep', 0.0, -633.6943070524105, 0.0, 0.0, 0.0, 0.0, -1860.6039119486704, 0.0]
['beep', 0.0, -635.1471704420055, 0.0, 0.0, 0.0, 0.0, -1863.0849555832096, 0.0]
['beep', 0.0, -639.0810774661395, 0.0, 0.0, 0.0, 0.0, -1863.9566736169666, 0.0]
['beep', 0.0, -641.8303420341423, 0.0, 0.0, 0.0, 0.0, -1863.0849555832096, 0.0]
['beep', 0.0, -637.6729175654552, 0.0, 0.0, 0.0, 0.0, -1859.7768974038243, 0.0]
['beep', 0.0, -632.643775063011, 0.0, 0.0, 0.0, 0.0, -1857.2735020248297, 0.0]
['beep', 0.0, -633.8284175191424, 0.0, 0.0, 0.0, 0.0, -1859.1510485590757, 0.0]
['beep', 0.0, -639.5728158441563, 0.0, 0.0, 0.0, 0.0, -1863.7555079168687, 0.0]
['beep', 0.0, -641.3833071450362, 0.0, 0.0, 0.0, 0.0, -1861.6991474269805, 0.0]
['beep', 0.0, -637.4941036098128, 0.0, 0.0, 0.0, 0.0, -1857.9664061029443, 0.0]
['beep', 0.0, -632.5320163407346, 0.0, 0.0, 0.0, 0.0, -1858.74871715888, 0.0]
['beep', 0.0, -635.9741849868518, 0.0, 0.0, 0.0, 0.0, -1863.1743625610309, 0.0]
['beep', 0.0, -639.8186850331647, 0.0, 0.0, 0.0, 0.0, -1863.2414177943967, 0.0]
['beep', 0.0, -642.7020600678993, 0.0, 0.0, 0.0, 0.0, -1864.269598039341, 0.0]
['beep', 0.0, -639.7963332887093, 0.0, 0.0, 0.0, 0.0, -1861.0285950933214, 0.0]
['beep', 0.0, -634.1413419415167, 0.0, 0.0, 0.0, 0.0, -1858.1452200585868, 0.0]
['beep', 0.0, -635.3706878865586, 0.0, 0.0, 0.0, 0.0, -1859.3298625147181, 0.0]
['beep', 0.0, -641.5397693562234, 0.0, 0.0, 0.0, 0.0, -1865.431888751017, 0.0]
['beep', 0.0, -644.1996269464048, 0.0, 0.0, 0.0, 0.0, -1866.102441084676, 0.0]
['beep', 0.0, -638.6116908325781, 0.0, 0.0, 0.0, 0.0, -1862.2132375494525, 0.0]
['beep', 0.0, -635.2812809087374, 0.0, 0.0, 0.0, 0.0, -1858.8381241367013, 0.0]
['beep', 0.0, -636.711792553877, 0.0, 0.0, 0.0, 0.0, -1862.324996271729, 0.0]
['beep', 0.0, -643.1043914680948, 0.0, 0.0, 0.0, 0.0, -1863.7108044279582, 0.0]
['beep', 0.0, -644.4454961354132, 0.0, 0.0, 0.0, 0.0, -1863.0849555832096, 0.0]
['beep', 0.0, -640.2880716667261, 0.0, 0.0, 0.0, 0.0, -1861.2744642823297, 0.0]
['beep', 0.0, -635.907129753486, 0.0, 0.0, 0.0, 0.0, -1860.3803945041175, 0.0]
['beep', 0.0, -636.130647198039, 0.0, 0.0, 0.0, 0.0, -1861.363871260151, 0.0]
['beep', 0.0, -643.6855368239328, 0.0, 0.0, 0.0, 0.0, -1861.877961382623, 0.0]
['beep', 0.0, -645.3172141691703, 0.0, 0.0, 0.0, 0.0, -1861.1403538155978, 0.0]
['beep', 0.0, -641.6962315674105, 0.0, 0.0, 0.0, 0.0, -1863.2414177943967, 0.0]
['beep', 0.0, -636.6223855760558, 0.0, 0.0, 0.0, 0.0, -1861.4979817268827, 0.0]
['beep', 0.0, -637.2258826763491, 0.0, 0.0, 0.0, 0.0, -1862.3473480161845, 0.0]
['beep', 0.0, -642.3667839010697, 0.0, 0.0, 0.0, 0.0, -1861.6991474269805, 0.0]
['beep', 0.0, -643.9761095018517, 0.0, 0.0, 0.0, 0.0, -1863.0626038387543, 0.0]
['beep', 0.0, -640.0869059666284, 0.0, 0.0, 0.0, 0.0, -1862.8837898831118, 0.0]
['beep', 0.0, -635.4824466088351, 0.0, 0.0, 0.0, 0.0, -1858.6369584366034, 0.0]
['beep', 0.0, -636.8235512761535, 0.0, 0.0, 0.0, 0.0, -1859.240455536897, 0.0]
['beep', 0.0, -640.7351065558322, 0.0, 0.0, 0.0, 0.0, -1862.3696997606398, 0.0]
['beep', 0.0, -643.774943801754, 0.0, 0.0, 0.0, 0.0, -1866.1694963180419, 0.0]
['beep', 0.0, -641.1597897004831, 0.0, 0.0, 0.0, 0.0, -1863.621397450137, 0.0]
['beep', 0.0, -636.1753506869496, 0.0, 0.0, 0.0, 0.0, -1863.0626038387543, 0.0]
['beep', 0.0, -636.5329785982345, 0.0, 0.0, 0.0, 0.0, -1860.872132882134, 0.0]
['beep', 0.0, -642.970281001363, 0.0, 0.0, 0.0, 0.0, -1863.3978800055838, 0.0]
['beep', 0.0, -644.7584205577875, 0.0, 0.0, 0.0, 0.0, -1863.9566736169666, 0.0]
['beep', 0.0, -640.1986646889048, 0.0, 0.0, 0.0, 0.0, -1861.4085747490615, 0.0]
['beep', 0.0, -633.0237547187513, 0.0, 0.0, 0.0, 0.0, -1860.1568770595643, 0.0]
['beep', 0.0, -634.8565977640865, 0.0, 0.0, 0.0, 0.0, -1858.4134409920505, 0.0]
['beep', 0.0, -642.0762112231507, 0.0, 0.0, 0.0, 0.0, -1862.03442359381, 0.0]
['beep', 0.0, -644.2219786908602, 0.0, 0.0, 0.0, 0.0, -1864.5154672283493, 0.0]
['beep', 0.0, -639.3269466551479, 0.0, 0.0, 0.0, 0.0, -1861.8332578937125, 0.0]
['beep', 0.0, -634.3201558971591, 0.0, 0.0, 0.0, 0.0, -1859.0839933257096, 0.0]
['beep', 0.0, -636.3318128981367, 0.0, 0.0, 0.0, 0.0, -1861.6991474269805, 0.0]
['beep', 0.0, -641.4056588894915, 0.0, 0.0, 0.0, 0.0, -1862.1461823160867, 0.0]
['beep', 0.0, -645.0936967246172, 0.0, 0.0, 0.0, 0.0, -1862.2355892939079, 0.0]
['beep', 0.0, -641.2939001672149, 0.0, 0.0, 0.0, 0.0, -1859.8216008927348, 0.0]
['beep', 0.0, -635.0577634641843, 0.0, 0.0, 0.0, 0.0, -1858.4134409920505, 0.0]
['beep', 0.0, -636.8011995316982, 0.0, 0.0, 0.0, 0.0, -1858.9722346034332, 0.0]
['beep', 0.0, -643.2832054237373, 0.0, 0.0, 0.0, 0.0, -1859.7321939149135, 0.0]
['beep', 0.0, -646.2112839473825, 0.0, 0.0, 0.0, 0.0, -1860.9168363710448, 0.0]
['beep', 0.0, -640.5786443446451, 0.0, 0.0, 0.0, 0.0, -1859.262807281352, 0.0]
['beep', 0.0, -636.6670890649664, 0.0, 0.0, 0.0, 0.0, -1857.6311299361146, 0.0]
['beep', 0.0, -637.8517315210977, 0.0, 0.0, 0.0, 0.0, -1857.5193712138382, 0.0]
['beep', 0.0, -642.1879699454272, 0.0, 0.0, 0.0, 0.0, -1860.0898218261984, 0.0]
['beep', 0.0, -645.6301385915446, 0.0, 0.0, 0.0, 0.0, -1860.9168363710448, 0.0]
['beep', 0.0, -642.165618200972, 0.0, 0.0, 0.0, 0.0, -1856.4688392244386, 0.0]
['beep', 0.0, -636.1753506869496, 0.0, 0.0, 0.0, 0.0, -1857.787592147302, 0.0]
['beep', 0.0, -638.902263510497, 0.0, 0.0, 0.0, 0.0, -1857.2287985359192, 0.0]
['beep', 0.0, -644.065516479673, 0.0, 0.0, 0.0, 0.0, -1859.2181037924415, 0.0]
['beep', 0.0, -645.2054554468937, 0.0, 0.0, 0.0, 0.0, -1861.587388704704, 0.0]
['beep', 0.0, -642.2550251787932, 0.0, 0.0, 0.0, 0.0, -1859.3745660036286, 0.0]
['beep', 0.0, -636.2647576647709, 0.0, 0.0, 0.0, 0.0, -1855.977100846422, 0.0]
['beep', 0.0, -637.2705861652597, 0.0, 0.0, 0.0, 0.0, -1857.7428886583912, 0.0]
['beep', 0.0, -643.2161501903713, 0.0, 0.0, 0.0, 0.0, -1861.9003131270783, 0.0]
['beep', 0.0, -643.9984612463071, 0.0, 0.0, 0.0, 0.0, -1861.587388704704, 0.0]
['beep', 0.0, -641.6291763340446, 0.0, 0.0, 0.0, 0.0, -1859.6427869370923, 0.0]
['beep', 0.0, -636.7341442983322, 0.0, 0.0, 0.0, 0.0, -1856.9158741135448, 0.0]
['beep', 0.0, -638.3658216435697, 0.0, 0.0, 0.0, 0.0, -1856.7370601579023, 0.0]
['beep', 0.0, -642.8138187901758, 0.0, 0.0, 0.0, 0.0, -1859.3075107702628, 0.0]
['beep', 0.0, -645.7866008027316, 0.0, 0.0, 0.0, 0.0, -1859.7992491482794, 0.0]
['beep', 0.0, -640.8245135336534, 0.0, 0.0, 0.0, 0.0, -1859.396917748084, 0.0]
['beep', 0.0, -633.9178244969636, 0.0, 0.0, 0.0, 0.0, -1855.6641764240476, 0.0]
['beep', 0.0, -631.8838157515306, 0.0, 0.0, 0.0, 0.0, -1858.0334613363102, 0.0]
['beep', 0.0, -643.6631850794774, 0.0, 0.0, 0.0, 0.0, -1859.1286968146203, 0.0]
['beep', 0.0, -651.5309991277455, 0.0, 0.0, 0.0, 0.0, -1857.9217026140336, 0.0]
['beep', 0.0, -650.8380950496311, 0.0, 0.0, 0.0, 0.0, -1854.4571822234611, 0.0]
['beep', 0.0, -646.8147810476758, 0.0, 0.0, 0.0, 0.0, -1855.3512520016734, 0.0]
['beep', 0.0, -643.9761095018517, 0.0, 0.0, 0.0, 0.0, -1854.4795339679163, 0.0]
['beep', 0.0, -651.0169090052735, 0.0, 0.0, 0.0, 0.0, -1855.84299037969, 0.0]
['beep', 0.0, -652.9838625173405, 0.0, 0.0, 0.0, 0.0, -1857.2511502803745, 0.0]
['beep', 0.0, -649.0276037487512, 0.0, 0.0, 0.0, 0.0, -1855.5971211906817, 0.0]
['beep', 0.0, -644.5572548576897, 0.0, 0.0, 0.0, 0.0, -1851.8196763777348, 0.0]
['beep', 0.0, -645.7195455693658, 0.0, 0.0, 0.0, 0.0, -1851.5738071887265, 0.0]
['beep', 0.0, -651.6874613389327, 0.0, 0.0, 0.0, 0.0, -1854.36777524564, 0.0]
['beep', 0.0, -653.3638421730808, 0.0, 0.0, 0.0, 0.0, -1852.9596153449554, 0.0]
['beep', 0.0, -649.9216735269634, 0.0, 0.0, 0.0, 0.0, -1854.7254031569248, 0.0]
['beep', 0.0, -646.3453944141144, 0.0, 0.0, 0.0, 0.0, -1852.3114147557517, 0.0]
['beep', 0.0, -646.6583188364887, 0.0, 0.0, 0.0, 0.0, -1851.9984903333773, 0.0]
['beep', 0.0, -651.2627781942819, 0.0, 0.0, 0.0, 0.0, -1856.5135427133494, 0.0]
['beep', 0.0, -652.4027171615026, 0.0, 0.0, 0.0, 0.0, -1856.8935223690896, 0.0]
['beep', 0.0, -649.1840659599384, 0.0, 0.0, 0.0, 0.0, -1854.680699668014, 0.0]
['beep', 0.0, -644.1772752019496, 0.0, 0.0, 0.0, 0.0, -1852.423173478028, 0.0]
['beep', 0.0, -646.4348013919356, 0.0, 0.0, 0.0, 0.0, -1850.9926618328884, 0.0]
['beep', 0.0, -650.9498537719076, 0.0, 0.0, 0.0, 0.0, -1855.8653421241454, 0.0]
['beep', 0.0, -653.0285660062511, 0.0, 0.0, 0.0, 0.0, -1859.1957520479862, 0.0]
['beep', 0.0, -647.7982578037092, 0.0, 0.0, 0.0, 0.0, -1855.84299037969, 0.0]
['beep', 0.0, -641.7632868007764, 0.0, 0.0, 0.0, 0.0, -1851.6632141665477, 0.0]
['beep', 0.0, -641.8526937785977, 0.0, 0.0, 0.0, 0.0, -1851.8643798666455, 0.0]
['beep', 0.0, -646.0548217361953, 0.0, 0.0, 0.0, 0.0, -1854.3454235011845, 0.0]
['beep', 0.0, -646.7253740698545, 0.0, 0.0, 0.0, 0.0, -1853.6972229119806, 0.0]
['beep', 0.0, -643.3279089126479, 0.0, 0.0, 0.0, 0.0, -1854.2783682678187, 0.0]
['beep', 0.0, -639.7069263108881, 0.0, 0.0, 0.0, 0.0, -1851.8643798666455, 0.0]
['beep', 0.0, -641.7409350563211, 0.0, 0.0, 0.0, 0.0, -1852.9819670894108, 0.0]
['beep', 0.0, -648.5358653707344, 0.0, 0.0, 0.0, 0.0, -1856.0218043353325, 0.0]
['beep', 0.0, -652.3133101836813, 0.0, 0.0, 0.0, 0.0, -1855.5747694462264, 0.0]
['beep', 0.0, -649.742859571321, 0.0, 0.0, 0.0, 0.0, -1853.943092100989, 0.0]
['beep', 0.0, -644.5349031132345, 0.0, 0.0, 0.0, 0.0, -1849.6068536766595, 0.0]
['beep', 0.0, -645.8313042916423, 0.0, 0.0, 0.0, 0.0, -1852.5349322003046, 0.0]
['beep', 0.0, -649.2064177043936, 0.0, 0.0, 0.0, 0.0, -1857.005281091366, 0.0]
['beep', 0.0, -651.1063159830948, 0.0, 0.0, 0.0, 0.0, -1859.396917748084, 0.0]
['beep', 0.0, -647.0830019811394, 0.0, 0.0, 0.0, 0.0, -1857.6087781916594, 0.0]
['beep', 0.0, -641.4056588894915, 0.0, 0.0, 0.0, 0.0, -1855.2841967683075, 0.0]
['beep', 0.0, -641.4950658673127, 0.0, 0.0, 0.0, 0.0, -1853.429001978517, 0.0]
['beep', 0.0, -647.8653130370752, 0.0, 0.0, 0.0, 0.0, -1855.686528168503, 0.0]
['beep', 0.0, -651.195722960916, 0.0, 0.0, 0.0, 0.0, -1858.6593101810588, 0.0]
['beep', 0.0, -646.9488915144076, 0.0, 0.0, 0.0, 0.0, -1855.7312316574137, 0.0]
['beep', 0.0, -642.389135645525, 0.0, 0.0, 0.0, 0.0, -1857.809943891757, 0.0]
['beep', 0.0, -643.774943801754, 0.0, 0.0, 0.0, 0.0, -1858.6593101810588, 0.0]
['beep', 0.0, -648.7817345597427, 0.0, 0.0, 0.0, 0.0, -1858.0334613363102, 0.0]
['beep', 0.0, -653.162676472983, 0.0, 0.0, 0.0, 0.0, -1859.3075107702628, 0.0]
['beep', 0.0, -648.8040863041981, 0.0, 0.0, 0.0, 0.0, -1856.6700049245364, 0.0]
['beep', 0.0, -644.0431647352177, 0.0, 0.0, 0.0, 0.0, -1855.5524177017712, 0.0]
['beep', 0.0, -643.9314060129411, 0.0, 0.0, 0.0, 0.0, -1855.0606793237544, 0.0]
['beep', 0.0, -648.7593828152875, 0.0, 0.0, 0.0, 0.0, -1857.586426447204, 0.0]
['beep', 0.0, -652.000385761307, 0.0, 0.0, 0.0, 0.0, -1858.0781648252207, 0.0]
['beep', 0.0, -647.6641473369774, 0.0, 0.0, 0.0, 0.0, -1854.0324990788101, 0.0]
['beep', 0.0, -643.0596879791842, 0.0, 0.0, 0.0, 0.0, -1854.7701066458353, 0.0]
['beep', 0.0, -643.0373362347289, 0.0, 0.0, 0.0, 0.0, -1857.7652404028465, 0.0]
['beep', 0.0, -647.5523886147009, 0.0, 0.0, 0.0, 0.0, -1856.9158741135448, 0.0]
['beep', 0.0, -651.419240405469, 0.0, 0.0, 0.0, 0.0, -1859.9780631039218, 0.0]
['beep', 0.0, -648.0664787371729, 0.0, 0.0, 0.0, 0.0, -1859.262807281352, 0.0]
['beep', 0.0, -642.5455978567121, 0.0, 0.0, 0.0, 0.0, -1855.0830310682097, 0.0]
['beep', 0.0, -642.679708323444, 0.0, 0.0, 0.0, 0.0, -1855.686528168503, 0.0]
['beep', 0.0, -647.2394641923266, 0.0, 0.0, 0.0, 0.0, -1855.2171415349414, 0.0]
['beep', 0.0, -650.5922258606226, 0.0, 0.0, 0.0, 0.0, -1855.9323973575113, 0.0]
['beep', 0.0, -648.6029206041003, 0.0, 0.0, 0.0, 0.0, -1857.0499845802767, 0.0]
['beep', 0.0, -642.8585222790864, 0.0, 0.0, 0.0, 0.0, -1856.133563057609, 0.0]
['beep', 0.0, -643.5067228682904, 0.0, 0.0, 0.0, 0.0, -1856.5358944578047, 0.0]
['beep', 0.0, -648.7146793263769, 0.0, 0.0, 0.0, 0.0, -1860.8274293932236, 0.0]
['beep', 0.0, -652.6485863505109, 0.0, 0.0, 0.0, 0.0, -1861.7214991714359, 0.0]
['beep', 0.0, -649.3405281711255, 0.0, 0.0, 0.0, 0.0, -1858.100516569676, 0.0]
['beep', 0.0, -643.0149844902736, 0.0, 0.0, 0.0, 0.0, -1857.2064467914638, 0.0]
['beep', 0.0, -644.6466618355109, 0.0, 0.0, 0.0, 0.0, -1858.815772392246, 0.0]
['beep', 0.0, -648.1111822260835, 0.0, 0.0, 0.0, 0.0, -1859.0839933257096, 0.0]
['beep', 0.0, -652.3133101836813, 0.0, 0.0, 0.0, 0.0, -1859.5310282148157, 0.0]
['beep', 0.0, -650.5698741161674, 0.0, 0.0, 0.0, 0.0, -1857.8322956362124, 0.0]
['beep', 0.0, -644.8701792800641, 0.0, 0.0, 0.0, 0.0, -1855.7982868907795, 0.0]
['beep', 0.0, -643.9537577573965, 0.0, 0.0, 0.0, 0.0, -1857.429964236017, 0.0]
['beep', 0.0, -649.809914804687, 0.0, 0.0, 0.0, 0.0, -1857.7652404028465, 0.0]
['beep', 0.0, -653.3414904286254, 0.0, 0.0, 0.0, 0.0, -1861.3191677712402, 0.0]
['beep', 0.0, -648.6923275819215, 0.0, 0.0, 0.0, 0.0, -1860.492153226394, 0.0]
['beep', 0.0, -643.3055571681925, 0.0, 0.0, 0.0, 0.0, -1856.8264671357235, 0.0]
['beep', 0.0, -644.1102199685836, 0.0, 0.0, 0.0, 0.0, -1856.8041153912684, 0.0]
['beep', 0.0, -648.8934932820193, 0.0, 0.0, 0.0, 0.0, -1855.8876938686008, 0.0]
['beep', 0.0, -651.933330527941, 0.0, 0.0, 0.0, 0.0, -1857.3852607471063, 0.0]
['beep', 0.0, -648.4017549040026, 0.0, 0.0, 0.0, 0.0, -1860.3133392707516, 0.0]
['beep', 0.0, -643.5737781016562, 0.0, 0.0, 0.0, 0.0, -1858.5251997143268, 0.0]
['beep', 0.0, -642.4785426233462, 0.0, 0.0, 0.0, 0.0, -1857.2287985359192, 0.0]
['beep', 0.0, -647.0606502366842, 0.0, 0.0, 0.0, 0.0, -1859.8216008927348, 0.0]
['beep', 0.0, -649.6087491045892, 0.0, 0.0, 0.0, 0.0, -1861.1627055600532, 0.0]
['beep', 0.0, -646.8147810476758, 0.0, 0.0, 0.0, 0.0, -1857.586426447204, 0.0]
['beep', 0.0, -642.2103216898826, 0.0, 0.0, 0.0, 0.0, -1855.1947897904863, 0.0]
['beep', 0.0, -641.4280106339468, 0.0, 0.0, 0.0, 0.0, -1852.6466909225812, 0.0]
['beep', 0.0, -646.9265397699523, 0.0, 0.0, 0.0, 0.0, -1855.0830310682097, 0.0]
['beep', 0.0, -651.195722960916, 0.0, 0.0, 0.0, 0.0, -1860.5145049708492, 0.0]
['beep', 0.0, -648.4241066484578, 0.0, 0.0, 0.0, 0.0, -1859.7992491482794, 0.0]
['beep', 0.0, -643.1937984459161, 0.0, 0.0, 0.0, 0.0, -1857.4076124915616, 0.0]
['beep', 0.0, -642.5903013456227, 0.0, 0.0, 0.0, 0.0, -1856.2453217798857, 0.0]
['beep', 0.0, -647.3288711701479, 0.0, 0.0, 0.0, 0.0, -1857.5193712138382, 0.0]
['beep', 0.0, -652.4027171615026, 0.0, 0.0, 0.0, 0.0, -1857.4970194693828, 0.0]
['beep', 0.0, -651.3074816831925, 0.0, 0.0, 0.0, 0.0, -1858.7263654144247, 0.0]
['beep', 0.0, -644.5349031132345, 0.0, 0.0, 0.0, 0.0, -1856.7370601579023, 0.0]
['beep', 0.0, -643.5290746127456, 0.0, 0.0, 0.0, 0.0, -1855.1277345571202, 0.0]
['beep', 0.0, -650.8827985385417, 0.0, 0.0, 0.0, 0.0, -1859.1957520479862, 0.0]
['beep', 0.0, -653.8555805510975, 0.0, 0.0, 0.0, 0.0, -1860.358042759662, 0.0]
['beep', 0.0, -650.1451909715165, 0.0, 0.0, 0.0, 0.0, -1858.1228683141314, 0.0]
['beep', 0.0, -646.1889322029272, 0.0, 0.0, 0.0, 0.0, -1857.5193712138382, 0.0]
['beep', 0.0, -644.6690135799663, 0.0, 0.0, 0.0, 0.0, -1856.267673524341, 0.0]
['beep', 0.0, -651.1733712164606, 0.0, 0.0, 0.0, 0.0, -1858.1452200585868, 0.0]
['beep', 0.0, -653.4085456619914, 0.0, 0.0, 0.0, 0.0, -1859.687490426003, 0.0]
['beep', 0.0, -650.3016531827037, 0.0, 0.0, 0.0, 0.0, -1861.2074090489639, 0.0]
['beep', 0.0, -644.7584205577875, 0.0, 0.0, 0.0, 0.0, -1856.5805979467152, 0.0]
['beep', 0.0, -646.8818362810417, 0.0, 0.0, 0.0, 0.0, -1858.4357927365056, 0.0]
['beep', 0.0, -651.9109787834858, 0.0, 0.0, 0.0, 0.0, -1860.358042759662, 0.0]
['beep', 0.0, -653.7214700843657, 0.0, 0.0, 0.0, 0.0, -1862.7049759274694, 0.0]
['beep', 0.0, -649.9440252714188, 0.0, 0.0, 0.0, 0.0, -1860.1345253151092, 0.0]
['beep', 0.0, -644.4678478798685, 0.0, 0.0, 0.0, 0.0, -1857.0276328358214, 0.0]
['beep', 0.0, -645.0266414912512, 0.0, 0.0, 0.0, 0.0, -1859.5980834481818, 0.0]
['beep', 0.0, -649.8322665491422, 0.0, 0.0, 0.0, 0.0, -1859.4639729814498, 0.0]
['beep', 0.0, -653.6544148509997, 0.0, 0.0, 0.0, 0.0, -1859.240455536897, 0.0]
['beep', 0.0, -650.5251706272568, 0.0, 0.0, 0.0, 0.0, -1860.2239322929304, 0.0]
['beep', 0.0, -644.8925310245194, 0.0, 0.0, 0.0, 0.0, -1858.3240340142293, 0.0]
['beep', 0.0, -644.5572548576897, 0.0, 0.0, 0.0, 0.0, -1856.7370601579023, 0.0]
['beep', 0.0, -650.0781357381506, 0.0, 0.0, 0.0, 0.0, -1857.8769991251231, 0.0]
['beep', 0.0, -653.386193917536, 0.0, 0.0, 0.0, 0.0, -1859.5980834481818, 0.0]
['beep', 0.0, -649.161714215483, 0.0, 0.0, 0.0, 0.0, -1857.787592147302, 0.0]
['beep', 0.0, -644.289033924226, 0.0, 0.0, 0.0, 0.0, -1857.944054358489, 0.0]
['beep', 0.0, -644.8254757911534, 0.0, 0.0, 0.0, 0.0, -1858.458144480961, 0.0]
['beep', 0.0, -650.8604467940863, 0.0, 0.0, 0.0, 0.0, -1859.7098421704582, 0.0]
['beep', 0.0, -654.1908567179271, 0.0, 0.0, 0.0, 0.0, -1861.0956503266873, 0.0]
['beep', 0.0, -651.4862956388349, 0.0, 0.0, 0.0, 0.0, -1859.911007870556, 0.0]
['beep', 0.0, -646.3006909252038, 0.0, 0.0, 0.0, 0.0, -1856.4017839910728, 0.0]
['beep', 0.0, -646.323042669659, 0.0, 0.0, 0.0, 0.0, -1854.881865368112, 0.0]
['beep', 0.0, -648.9829002598406, 0.0, 0.0, 0.0, 0.0, -1860.2686357818409, 0.0]
['beep', 0.0, -653.9002840400082, 0.0, 0.0, 0.0, 0.0, -1861.810906149257, 0.0]
['beep', 0.0, -650.8157433051757, 0.0, 0.0, 0.0, 0.0, -1858.592254947693, 0.0]
['beep', 0.0, -646.1889322029272, 0.0, 0.0, 0.0, 0.0, -1855.1947897904863, 0.0]
['beep', 0.0, -646.1889322029272, 0.0, 0.0, 0.0, 0.0, -1853.6972229119806, 0.0]
['beep', 0.0, -651.709813083388, 0.0, 0.0, 0.0, 0.0, -1858.9051793700671, 0.0]
['beep', 0.0, -654.3249671846589, 0.0, 0.0, 0.0, 0.0, -1862.5038102273716, 0.0]
['beep', 0.0, -652.0450892502176, 0.0, 0.0, 0.0, 0.0, -1860.0898218261984, 0.0]
['beep', 0.0, -644.3337374131366, 0.0, 0.0, 0.0, 0.0, -1858.0558130807656, 0.0]
['beep', 0.0, -643.4173158904691, 0.0, 0.0, 0.0, 0.0, -1857.9217026140336, 0.0]
['beep', 0.0, -650.1004874826059, 0.0, 0.0, 0.0, 0.0, -1858.6816619255142, 0.0]
['beep', 0.0, -653.8332288066422, 0.0, 0.0, 0.0, 0.0, -1860.715670670947, 0.0]
['beep', 0.0, -650.391060160525, 0.0, 0.0, 0.0, 0.0, -1857.295853769285, 0.0]
['beep', 0.0, -643.2832054237373, 0.0, 0.0, 0.0, 0.0, -1856.0441560797879, 0.0]
['beep', 0.0, -642.6350048345333, 0.0, 0.0, 0.0, 0.0, -1857.8769991251231, 0.0]
['beep', 0.0, -647.9323682704411, 0.0, 0.0, 0.0, 0.0, -1860.8050776487682, 0.0]
['beep', 0.0, -652.9168072839747, 0.0, 0.0, 0.0, 0.0, -1860.1568770595643, 0.0]
['beep', 0.0, -648.4017549040026, 0.0, 0.0, 0.0, 0.0, -1858.6369584366034, 0.0]
['beep', 0.0, -643.9984612463071, 0.0, 0.0, 0.0, 0.0, -1857.6758334250253, 0.0]
['beep', 0.0, -644.2666821797708, 0.0, 0.0, 0.0, 0.0, -1857.787592147302, 0.0]
['beep', 0.0, -647.0606502366842, 0.0, 0.0, 0.0, 0.0, -1858.9051793700671, 0.0]
['beep', 0.0, -650.5028188828014, 0.0, 0.0, 0.0, 0.0, -1862.1014788271762, 0.0]
['beep', 0.0, -647.2394641923266, 0.0, 0.0, 0.0, 0.0, -1859.0839933257096, 0.0]
['beep', 0.0, -642.2550251787932, 0.0, 0.0, 0.0, 0.0, -1855.84299037969, 0.0]
['beep', 0.0, -643.3279089126479, 0.0, 0.0, 0.0, 0.0, -1858.234627036408, 0.0]
['beep', 0.0, -649.4075834044914, 0.0, 0.0, 0.0, 0.0, -1862.3026445272737, 0.0]
['beep', 0.0, -653.4979526398126, 0.0, 0.0, 0.0, 0.0, -1860.425097993028, 0.0]
['beep', 0.0, -650.391060160525, 0.0, 0.0, 0.0, 0.0, -1860.425097993028, 0.0]
['beep', 0.0, -645.518379869268, 0.0, 0.0, 0.0, 0.0, -1859.6651386815477, 0.0]
['beep', 0.0, -644.6019583466003, 0.0, 0.0, 0.0, 0.0, -1859.0169380923437, 0.0]
['beep', 0.0, -649.8546182935976, 0.0, 0.0, 0.0, 0.0, -1859.1510485590757, 0.0]
['beep', 0.0, -654.1685049734718, 0.0, 0.0, 0.0, 0.0, -1861.7662026603464, 0.0]
['beep', 0.0, -651.1733712164606, 0.0, 0.0, 0.0, 0.0, -1860.1345253151092, 0.0]
['beep', 0.0, -649.4075834044914, 0.0, 0.0, 0.0, 0.0, -1857.3405572581958, 0.0]
['beep', 0.0, -647.9994235038071, 0.0, 0.0, 0.0, 0.0, -1859.396917748084, 0.0]
['beep', 0.0, -646.2112839473825, 0.0, 0.0, 0.0, 0.0, -1856.647653180081, 0.0]
['beep', 0.0, -646.0101182472847, 0.0, 0.0, 0.0, 0.0, -1860.2239322929304, 0.0]
['beep', 0.0, -642.4785426233462, 0.0, 0.0, 0.0, 0.0, -1861.9003131270783, 0.0]
['beep', 0.0, -637.2705861652597, 0.0, 0.0, 0.0, 0.0, -1858.1228683141314, 0.0]
['beep', 0.0, -637.1364756985279, 0.0, 0.0, 0.0, 0.0, -1858.2569787808632, 0.0]
['beep', 0.0, -641.9197490119635, 0.0, 0.0, 0.0, 0.0, -1859.5086764703606, 0.0]
['beep', 0.0, -646.0548217361953, 0.0, 0.0, 0.0, 0.0, -1860.0898218261984, 0.0]
['beep', 0.0, -643.3502606571031, 0.0, 0.0, 0.0, 0.0, -1860.4698014819387, 0.0]
['beep', 0.0, -637.9858419878295, 0.0, 0.0, 0.0, 0.0, -1858.4134409920505, 0.0]
['beep', 0.0, -637.0470687207066, 0.0, 0.0, 0.0, 0.0, -1861.810906149257, 0.0]
['beep', 0.0, -641.807990289687, 0.0, 0.0, 0.0, 0.0, -1862.973196860933, 0.0]
['beep', 0.0, -644.8031240466981, 0.0, 0.0, 0.0, 0.0, -1862.6155689496482, 0.0]
['beep', 0.0, -641.517417611768, 0.0, 0.0, 0.0, 0.0, -1863.3084730277626, 0.0]
['beep', 0.0, -636.1529989424943, 0.0, 0.0, 0.0, 0.0, -1860.5815602042153, 0.0]
['beep', 0.0, -636.3094611536815, 0.0, 0.0, 0.0, 0.0, -1858.7934206477905, 0.0]
['beep', 0.0, -640.645699578011, 0.0, 0.0, 0.0, 0.0, -1861.6767956825252, 0.0]
['beep', 0.0, -644.4231443909579, 0.0, 0.0, 0.0, 0.0, -1864.8954468840896, 0.0]
['beep', 0.0, -642.2997286677038, 0.0, 0.0, 0.0, 0.0, -1862.839086394201, 0.0]
['beep', 0.0, -637.002365231796, 0.0, 0.0, 0.0, 0.0, -1861.0956503266873, 0.0]
['beep', 0.0, -636.4882751093239, 0.0, 0.0, 0.0, 0.0, -1861.9450166159888, 0.0]
['beep', 0.0, -642.1432664565166, 0.0, 0.0, 0.0, 0.0, -1862.2355892939079, 0.0]
['beep', 0.0, -646.3453944141144, 0.0, 0.0, 0.0, 0.0, -1862.0567753382654, 0.0]
['beep', 0.0, -644.065516479673, 0.0, 0.0, 0.0, 0.0, -1861.810906149257, 0.0]
['beep', 0.0, -637.6952693099105, 0.0, 0.0, 0.0, 0.0, -1861.9897201048996, 0.0]
['beep', 0.0, -637.3599931430809, 0.0, 0.0, 0.0, 0.0, -1862.9061416275672, 0.0]
['beep', 0.0, -641.3609554005809, 0.0, 0.0, 0.0, 0.0, -1863.7331561724136, 0.0]
['beep', 0.0, -645.004289746796, 0.0, 0.0, 0.0, 0.0, -1864.4484119949834, 0.0]
['beep', 0.0, -642.7467635568099, 0.0, 0.0, 0.0, 0.0, -1862.2802927828186, 0.0]
['beep', 0.0, -639.3269466551479, 0.0, 0.0, 0.0, 0.0, -1859.7992491482794, 0.0]
['beep', 0.0, -636.3318128981367, 0.0, 0.0, 0.0, 0.0, -1860.492153226394, 0.0]
['beep', 0.0, -641.0256792337512, 0.0, 0.0, 0.0, 0.0, -1860.201580548475, 0.0]
['beep', 0.0, -645.6077868470892, 0.0, 0.0, 0.0, 0.0, -1857.787592147302, 0.0]
['beep', 0.0, -642.1209147120613, 0.0, 0.0, 0.0, 0.0, -1859.8663043816455, 0.0]
['beep', 0.0, -636.3765163870473, 0.0, 0.0, 0.0, 0.0, -1858.1452200585868, 0.0]
['beep', 0.0, -635.1471704420055, 0.0, 0.0, 0.0, 0.0, -1858.7040136699693, 0.0]
['beep', 0.0, -641.0927344671172, 0.0, 0.0, 0.0, 0.0, -1858.9722346034332, 0.0]
['beep', 0.0, -645.7195455693658, 0.0, 0.0, 0.0, 0.0, -1862.973196860933, 0.0]
['beep', 0.0, -641.9197490119635, 0.0, 0.0, 0.0, 0.0, -1859.9333596150113, 0.0]
['beep', 0.0, -637.0694204651619, 0.0, 0.0, 0.0, 0.0, -1858.0781648252207, 0.0]
['beep', 0.0, -638.1199524545614, 0.0, 0.0, 0.0, 0.0, -1860.4027462485728, 0.0]
['beep', 0.0, -642.8585222790864, 0.0, 0.0, 0.0, 0.0, -1860.4698014819387, 0.0]
['beep', 0.0, -646.7700775587651, 0.0, 0.0, 0.0, 0.0, -1858.7263654144247, 0.0]
['beep', 0.0, -644.5796066021451, 0.0, 0.0, 0.0, 0.0, -1859.106345070165, 0.0]
['beep', 0.0, -638.5222838547569, 0.0, 0.0, 0.0, 0.0, -1860.5368567153046, 0.0]
['beep', 0.0, -637.3376413986256, 0.0, 0.0, 0.0, 0.0, -1858.5475514587822, 0.0]
['beep', 0.0, -642.6573565789887, 0.0, 0.0, 0.0, 0.0, -1859.396917748084, 0.0]
['beep', 0.0, -646.5689118586674, 0.0, 0.0, 0.0, 0.0, -1863.3978800055838, 0.0]
['beep', 0.0, -643.3055571681925, 0.0, 0.0, 0.0, 0.0, -1862.9061416275672, 0.0]
['beep', 0.0, -637.583510587634, 0.0, 0.0, 0.0, 0.0, -1861.4309264935168, 0.0]
['beep', 0.0, -637.8293797766423, 0.0, 0.0, 0.0, 0.0, -1860.0898218261984, 0.0]
['beep', 0.0, -643.2608536792819, 0.0, 0.0, 0.0, 0.0, -1860.9391881155002, 0.0]
['beep', 0.0, -645.6748420804552, 0.0, 0.0, 0.0, 0.0, -1861.5426852157934, 0.0]
['beep', 0.0, -643.1267432125501, 0.0, 0.0, 0.0, 0.0, -1861.7662026603464, 0.0]
['beep', 0.0, -637.9858419878295, 0.0, 0.0, 0.0, 0.0, -1859.0169380923437, 0.0]
['beep', 0.0, -637.0694204651619, 0.0, 0.0, 0.0, 0.0, -1857.0276328358214, 0.0]
['beep', 0.0, -642.2103216898826, 0.0, 0.0, 0.0, 0.0, -1859.5980834481818, 0.0]
['beep', 0.0, -646.0771734806507, 0.0, 0.0, 0.0, 0.0, -1862.7943829052906, 0.0]
['beep', 0.0, -644.5572548576897, 0.0, 0.0, 0.0, 0.0, -1861.5426852157934, 0.0]
['beep', 0.0, -640.131609455539, 0.0, 0.0, 0.0, 0.0, -1857.6758334250253, 0.0]
['beep', 0.0, -637.6282140765446, 0.0, 0.0, 0.0, 0.0, -1858.1228683141314, 0.0]
['beep', 0.0, -641.8973972675083, 0.0, 0.0, 0.0, 0.0, -1861.4309264935168, 0.0]
['beep', 0.0, -646.4348013919356, 0.0, 0.0, 0.0, 0.0, -1863.3084730277626, 0.0]
['beep', 0.0, -644.3337374131366, 0.0, 0.0, 0.0, 0.0, -1862.839086394201, 0.0]
['beep', 0.0, -639.3940018885138, 0.0, 0.0, 0.0, 0.0, -1860.9838916044107, 0.0]
['beep', 0.0, -639.1704844439607, 0.0, 0.0, 0.0, 0.0, -1857.4076124915616, 0.0]
['beep', 0.0, -642.1209147120613, 0.0, 0.0, 0.0, 0.0, -1860.045118337288, 0.0]
['beep', 0.0, -645.4736763803573, 0.0, 0.0, 0.0, 0.0, -1864.4707637394386, 0.0]
['beep', 0.0, -645.3619176580809, 0.0, 0.0, 0.0, 0.0, -1862.324996271729, 0.0]
['beep', 0.0, -640.0198507332624, 0.0, 0.0, 0.0, 0.0, -1860.7827259043129, 0.0]
['beep', 0.0, -638.7234495548546, 0.0, 0.0, 0.0, 0.0, -1859.3522142591733, 0.0]
['beep', 0.0, -642.8808740235418, 0.0, 0.0, 0.0, 0.0, -1862.2579410383632, 0.0]
['beep', 0.0, -646.8594845365864, 0.0, 0.0, 0.0, 0.0, -1861.810906149257, 0.0]
['beep', 0.0, -642.970281001363, 0.0, 0.0, 0.0, 0.0, -1860.2462840373855, 0.0]
['beep', 0.0, -637.6952693099105, 0.0, 0.0, 0.0, 0.0, -1860.3356910152067, 0.0]
['beep', 0.0, -637.5611588431786, 0.0, 0.0, 0.0, 0.0, -1859.1286968146203, 0.0]
['beep', 0.0, -642.4114873899803, 0.0, 0.0, 0.0, 0.0, -1862.1014788271762, 0.0]
['beep', 0.0, -646.0771734806507, 0.0, 0.0, 0.0, 0.0, -1862.5485137162823, 0.0]
['beep', 0.0, -643.9984612463071, 0.0, 0.0, 0.0, 0.0, -1861.1627055600532, 0.0]
['beep', 0.0, -637.9634902433742, 0.0, 0.0, 0.0, 0.0, -1859.754545659369, 0.0]
['beep', 0.0, -635.1471704420055, 0.0, 0.0, 0.0, 0.0, -1858.74871715888, 0.0]
['beep', 0.0, -637.6505658209999, 0.0, 0.0, 0.0, 0.0, -1862.7720311608352, 0.0]
['beep', 0.0, -640.9139205114748, 0.0, 0.0, 0.0, 0.0, -1862.8837898831118, 0.0]
['beep', 0.0, -637.4494001209022, 0.0, 0.0, 0.0, 0.0, -1858.3910892475951, 0.0]
['beep', 0.0, -632.643775063011, 0.0, 0.0, 0.0, 0.0, -1859.106345070165, 0.0]
['beep', 0.0, -632.8002372741983, 0.0, 0.0, 0.0, 0.0, -1860.358042759662, 0.0]
['beep', 0.0, -639.1257809550501, 0.0, 0.0, 0.0, 0.0, -1861.2074090489639, 0.0]
['beep', 0.0, -644.6243100910557, 0.0, 0.0, 0.0, 0.0, -1862.2802927828186, 0.0]
['beep', 0.0, -643.551426357201, 0.0, 0.0, 0.0, 0.0, -1862.168534060542, 0.0]
['beep', 0.0, -637.8293797766423, 0.0, 0.0, 0.0, 0.0, -1858.234627036408, 0.0]
['beep', 0.0, -637.2482344208044, 0.0, 0.0, 0.0, 0.0, -1856.133563057609, 0.0]
['beep', 0.0, -639.8633885220753, 0.0, 0.0, 0.0, 0.0, -1862.2579410383632, 0.0]
['beep', 0.0, -645.6748420804552, 0.0, 0.0, 0.0, 0.0, -1866.0800893402206, 0.0]
['beep', 0.0, -643.9984612463071, 0.0, 0.0, 0.0, 0.0, -1862.7273276719247, 0.0]
['beep', 0.0, -639.1928361884161, 0.0, 0.0, 0.0, 0.0, -1859.1957520479862, 0.0]
['beep', 0.0, -638.164655943472, 0.0, 0.0, 0.0, 0.0, -1859.3298625147181, 0.0]
['beep', 0.0, -640.7351065558322, 0.0, 0.0, 0.0, 0.0, -1860.4027462485728, 0.0]
['beep', 0.0, -644.7137170688769, 0.0, 0.0, 0.0, 0.0, -1860.358042759662, 0.0]
['beep', 0.0, -642.6573565789887, 0.0, 0.0, 0.0, 0.0, -1866.1471445735867, 0.0]
['beep', 0.0, -638.678746065944, 0.0, 0.0, 0.0, 0.0, -1863.263769538852, 0.0]
['beep', 0.0, -637.292937909715, 0.0, 0.0, 0.0, 0.0, -1859.4192694925393, 0.0]
['beep', 0.0, -640.4445338779133, 0.0, 0.0, 0.0, 0.0, -1861.2074090489639, 0.0]
['beep', 0.0, -644.4007926465026, 0.0, 0.0, 0.0, 0.0, -1865.454240495472, 0.0]
['beep', 0.0, -643.1490949570054, 0.0, 0.0, 0.0, 0.0, -1862.8614381386565, 0.0]
['beep', 0.0, -637.3823448875362, 0.0, 0.0, 0.0, 0.0, -1859.5086764703606, 0.0]
['beep', 0.0, -636.0412402202178, 0.0, 0.0, 0.0, 0.0, -1859.911007870556, 0.0]
['beep', 0.0, -642.9479292569076, 0.0, 0.0, 0.0, 0.0, -1862.9061416275672, 0.0]
['beep', 0.0, -647.0830019811394, 0.0, 0.0, 0.0, 0.0, -1862.2579410383632, 0.0]
['beep', 0.0, -644.1772752019496, 0.0, 0.0, 0.0, 0.0, -1863.46493523895, 0.0]
['beep', 0.0, -638.388173388025, 0.0, 0.0, 0.0, 0.0, -1861.3862230046063, 0.0]
['beep', 0.0, -636.5553303426898, 0.0, 0.0, 0.0, 0.0, -1860.1345253151092, 0.0]
['beep', 0.0, -641.6068245895892, 0.0, 0.0, 0.0, 0.0, -1862.526161971827, 0.0]
['beep', 0.0, -646.0548217361953, 0.0, 0.0, 0.0, 0.0, -1863.979025361422, 0.0]
['beep', 0.0, -644.8478275356088, 0.0, 0.0, 0.0, 0.0, -1861.1403538155978, 0.0]
['beep', 0.0, -638.969318743863, 0.0, 0.0, 0.0, 0.0, -1859.620435192637, 0.0]
['beep', 0.0, -637.4494001209022, 0.0, 0.0, 0.0, 0.0, -1858.5251997143268, 0.0]
['beep', 0.0, -641.807990289687, 0.0, 0.0, 0.0, 0.0, -1859.1957520479862, 0.0]
['beep', 0.0, -646.4124496474802, 0.0, 0.0, 0.0, 0.0, -1860.3803945041175, 0.0]
['beep', 0.0, -643.2832054237373, 0.0, 0.0, 0.0, 0.0, -1859.1734003035308, 0.0]
['beep', 0.0, -637.7399727988211, 0.0, 0.0, 0.0, 0.0, -1858.9051793700671, 0.0]
['beep', 0.0, -635.9965367313072, 0.0, 0.0, 0.0, 0.0, -1859.5757317037264, 0.0]
['beep', 0.0, -640.9586240003854, 0.0, 0.0, 0.0, 0.0, -1860.1568770595643, 0.0]
['beep', 0.0, -644.1325717130389, 0.0, 0.0, 0.0, 0.0, -1860.9391881155002, 0.0]
['beep', 0.0, -641.2939001672149, 0.0, 0.0, 0.0, 0.0, -1859.0169380923437, 0.0]
['beep', 0.0, -636.5553303426898, 0.0, 0.0, 0.0, 0.0, -1856.5582462022599, 0.0]
['beep', 0.0, -636.063591964673, 0.0, 0.0, 0.0, 0.0, -1858.0334613363102, 0.0]
['beep', 0.0, -639.6398710775222, 0.0, 0.0, 0.0, 0.0, -1858.8604758811566, 0.0]
['beep', 0.0, -643.774943801754, 0.0, 0.0, 0.0, 0.0, -1861.296816026785, 0.0]
['beep', 0.0, -642.9926327458182, 0.0, 0.0, 0.0, 0.0, -1861.587388704704, 0.0]
['beep', 0.0, -636.7341442983322, 0.0, 0.0, 0.0, 0.0, -1858.6369584366034, 0.0]
['beep', 0.0, -634.8342460196312, 0.0, 0.0, 0.0, 0.0, -1858.9498828589778, 0.0]
['beep', 0.0, -638.0305454767401, 0.0, 0.0, 0.0, 0.0, -1859.3298625147181, 0.0]
['beep', 0.0, -643.0373362347289, 0.0, 0.0, 0.0, 0.0, -1862.526161971827, 0.0]
['beep', 0.0, -641.3386036561255, 0.0, 0.0, 0.0, 0.0, -1861.4309264935168, 0.0]
['beep', 0.0, -636.130647198039, 0.0, 0.0, 0.0, 0.0, -1860.9391881155002, 0.0]
['beep', 0.0, -633.1355134410279, 0.0, 0.0, 0.0, 0.0, -1861.9226648715337, 0.0]
['beep', 0.0, -638.5222838547569, 0.0, 0.0, 0.0, 0.0, -1862.4367549940057, 0.0]
['beep', 0.0, -642.9926327458182, 0.0, 0.0, 0.0, 0.0, -1864.0684323392431, 0.0]
['beep', 0.0, -640.9809757448406, 0.0, 0.0, 0.0, 0.0, -1864.3366532727068, 0.0]
['beep', 0.0, -635.8177227756647, 0.0, 0.0, 0.0, 0.0, -1861.9673683604442, 0.0]
['beep', 0.0, -634.5883768306228, 0.0, 0.0, 0.0, 0.0, -1863.2190660499414, 0.0]
['beep', 0.0, -639.0810774661395, 0.0, 0.0, 0.0, 0.0, -1862.6602724385586, 0.0]
['beep', 0.0, -641.9868042453295, 0.0, 0.0, 0.0, 0.0, -1866.1918480624972, 0.0]
['beep', 0.0, -641.2044931893937, 0.0, 0.0, 0.0, 0.0, -1865.454240495472, 0.0]
['beep', 0.0, -638.164655943472, 0.0, 0.0, 0.0, 0.0, -1862.682624183014, 0.0]
['beep', 0.0, -635.7730192867541, 0.0, 0.0, 0.0, 0.0, -1863.3978800055838, 0.0]
['beep', 0.0, -640.2210164333602, 0.0, 0.0, 0.0, 0.0, -1864.0907840836985, 0.0]
['beep', 0.0, -643.6408333350222, 0.0, 0.0, 0.0, 0.0, -1868.136449830109, 0.0]
['beep', 0.0, -641.517417611768, 0.0, 0.0, 0.0, 0.0, -1865.5212957288381, 0.0]
['beep', 0.0, -636.421219875958, 0.0, 0.0, 0.0, 0.0, -1861.7885544048017, 0.0]
['beep', 0.0, -634.7671907862652, 0.0, 0.0, 0.0, 0.0, -1864.291949783796, 0.0]
['beep', 0.0, -639.3716501440585, 0.0, 0.0, 0.0, 0.0, -1865.2083713064637, 0.0]
['beep', 0.0, -643.3726124015585, 0.0, 0.0, 0.0, 0.0, -1864.5378189728046, 0.0]
['beep', 0.0, -642.9255775124524, 0.0, 0.0, 0.0, 0.0, -1864.0907840836985, 0.0]
['beep', 0.0, -636.9353099984301, 0.0, 0.0, 0.0, 0.0, -1862.168534060542, 0.0]
['beep', 0.0, -635.7059640533881, 0.0, 0.0, 0.0, 0.0, -1862.7496794163799, 0.0]
['beep', 0.0, -640.4221821334579, 0.0, 0.0, 0.0, 0.0, -1862.5932172051928, 0.0]
['beep', 0.0, -645.1160484690724, 0.0, 0.0, 0.0, 0.0, -1863.040252094299, 0.0]
['beep', 0.0, -643.6184815905668, 0.0, 0.0, 0.0, 0.0, -1864.8283916507235, 0.0]
['beep', 0.0, -637.3823448875362, 0.0, 0.0, 0.0, 0.0, -1866.1247928291314, 0.0]
['beep', 0.0, -636.2871094092261, 0.0, 0.0, 0.0, 0.0, -1863.1743625610309, 0.0]
['beep', 0.0, -639.9080920109859, 0.0, 0.0, 0.0, 0.0, -1866.5047724848716, 0.0]
['beep', 0.0, -644.9819380023406, 0.0, 0.0, 0.0, 0.0, -1866.7282899294246, 0.0]
['beep', 0.0, -643.2161501903713, 0.0, 0.0, 0.0, 0.0, -1864.8283916507235, 0.0]
['beep', 0.0, -638.5222838547569, 0.0, 0.0, 0.0, 0.0, -1862.1461823160867, 0.0]
['beep', 0.0, -636.9353099984301, 0.0, 0.0, 0.0, 0.0, -1859.4192694925393, 0.0]
['beep', 0.0, -640.7574583002876, 0.0, 0.0, 0.0, 0.0, -1861.7438509158912, 0.0]
['beep', 0.0, -646.3677461585696, 0.0, 0.0, 0.0, 0.0, -1868.8070021637682, 0.0]
['beep', 0.0, -644.5349031132345, 0.0, 0.0, 0.0, 0.0, -1868.9858161194106, 0.0]
['beep', 0.0, -638.0528972211954, 0.0, 0.0, 0.0, 0.0, -1866.7953451627905, 0.0]
['beep', 0.0, -636.8011995316982, 0.0, 0.0, 0.0, 0.0, -1863.040252094299, 0.0]
['beep', 0.0, -641.9421007564189, 0.0, 0.0, 0.0, 0.0, -1861.9897201048996, 0.0]
['beep', 0.0, -645.0936967246172, 0.0, 0.0, 0.0, 0.0, -1863.8896183836007, 0.0]
['beep', 0.0, -644.0208129907624, 0.0, 0.0, 0.0, 0.0, -1866.4377172515055, 0.0]
['beep', 0.0, -639.5057606107904, 0.0, 0.0, 0.0, 0.0, -1866.884752140612, 0.0]
['beep', 0.0, -637.292937909715, 0.0, 0.0, 0.0, 0.0, -1865.9012753845782, 0.0]
['beep', 0.0, -640.6009960891004, 0.0, 0.0, 0.0, 0.0, -1865.9236271290335, 0.0]
['beep', 0.0, -643.551426357201, 0.0, 0.0, 0.0, 0.0, -1866.3036067847738, 0.0]
['beep', 0.0, -642.8138187901758, 0.0, 0.0, 0.0, 0.0, -1864.3143015282515, 0.0]
['beep', 0.0, -639.1481326995055, 0.0, 0.0, 0.0, 0.0, -1863.3755282611287, 0.0]
['beep', 0.0, -636.5329785982345, 0.0, 0.0, 0.0, 0.0, -1863.9566736169666, 0.0]
['beep', 0.0, -640.6009960891004, 0.0, 0.0, 0.0, 0.0, -1864.783688161813, 0.0]
['beep', 0.0, -645.0713449801618, 0.0, 0.0, 0.0, 0.0, -1870.9304178870225, 0.0]
['beep', 0.0, -643.9761095018517, 0.0, 0.0, 0.0, 0.0, -1870.103403342176, 0.0]
['beep', 0.0, -637.9634902433742, 0.0, 0.0, 0.0, 0.0, -1867.4658974964498, 0.0]
['beep', 0.0, -636.3094611536815, 0.0, 0.0, 0.0, 0.0, -1866.3483102736843, 0.0]
['beep', 0.0, -641.2044931893937, 0.0, 0.0, 0.0, 0.0, -1866.5941794626929, 0.0]
['beep', 0.0, -646.390097903025, 0.0, 0.0, 0.0, 0.0, -1867.0635660962544, 0.0]
['beep', 0.0, -644.1549234574942, 0.0, 0.0, 0.0, 0.0, -1867.7788219188242, 0.0]
['beep', 0.0, -638.9246152549524, 0.0, 0.0, 0.0, 0.0, -1870.4386795090056, 0.0]
['beep', 0.0, -636.2871094092261, 0.0, 0.0, 0.0, 0.0, -1866.6612346960587, 0.0]
['beep', 0.0, -640.9586240003854, 0.0, 0.0, 0.0, 0.0, -1865.7224614289357, 0.0]
['beep', 0.0, -644.0878682241283, 0.0, 0.0, 0.0, 0.0, -1867.3541387741732, 0.0]
['beep', 0.0, -642.4785426233462, 0.0, 0.0, 0.0, 0.0, -1866.5718277182375, 0.0]
['beep', 0.0, -638.3434698991144, 0.0, 0.0, 0.0, 0.0, -1863.8002114057795, 0.0]
['beep', 0.0, -636.8459030206088, 0.0, 0.0, 0.0, 0.0, -1861.4756299824276, 0.0]
['beep', 0.0, -640.8468652781088, 0.0, 0.0, 0.0, 0.0, -1868.6952434414916, 0.0]
['beep', 0.0, -644.0431647352177, 0.0, 0.0, 0.0, 0.0, -1868.9858161194106, 0.0]
['beep', 0.0, -642.5903013456227, 0.0, 0.0, 0.0, 0.0, -1868.5387812303045, 0.0]
['beep', 0.0, -638.2317111768378, 0.0, 0.0, 0.0, 0.0, -1867.9576358744666, 0.0]
['beep', 0.0, -638.6116908325781, 0.0, 0.0, 0.0, 0.0, -1865.297778284285, 0.0]
['beep', 0.0, -641.7409350563211, 0.0, 0.0, 0.0, 0.0, -1867.1306213296202, 0.0]
