['beep', 0.0, -312.1197595739078, 0.0, 0.0, 0.0, 0.0, -1940.9137297765888, 0.0]
['beep', 0.0, -310.26456478411734, 0.0, 0.0, 0.0, 0.0, -1943.4841803889492, 0.0]
['beep', 0.0, -314.75726541963405, 0.0, 0.0, 0.0, 0.0, -1944.1770844670637, 0.0]
['beep', 0.0, -319.7193526887122, 0.0, 0.0, 0.0, 0.0, -1941.293709432329, 0.0]
['beep', 0.0, -318.17708232129604, 0.0, 0.0, 0.0, 0.0, -1938.4997413754156, 0.0]
['beep', 0.0, -311.60566945143574, 0.0, 0.0, 0.0, 0.0, -1939.7737908093682, 0.0]
['beep', 0.0, -308.99051535016486, 0.0, 0.0, 0.0, 0.0, -1941.3384129212395, 0.0]
['beep', 0.0, -314.01965785260893, 0.0, 0.0, 0.0, 0.0, -1942.970090266477, 0.0]
['beep', 0.0, -318.80293116604463, 0.0, 0.0, 0.0, 0.0, -1941.1819507100524, 0.0]
['beep', 0.0, -317.59593696545807, 0.0, 0.0, 0.0, 0.0, -1939.170293709075, 0.0]
['beep', 0.0, -310.4880822286704, 0.0, 0.0, 0.0, 0.0, -1941.3160611767844, 0.0]
['beep', 0.0, -307.0682653270084, 0.0, 0.0, 0.0, 0.0, -1941.7630960658905, 0.0]
['beep', 0.0, -312.32092527400556, 0.0, 0.0, 0.0, 0.0, -1942.7242210774687, 0.0]
['beep', 0.0, -317.59593696545807, 0.0, 0.0, 0.0, 0.0, -1942.0760204882647, 0.0]
['beep', 0.0, -317.1265503318966, 0.0, 0.0, 0.0, 0.0, -1939.550273364815, 0.0]
['beep', 0.0, -311.1586345623296, 0.0, 0.0, 0.0, 0.0, -1940.131418720653, 0.0]
['beep', 0.0, -309.63871593936875, 0.0, 0.0, 0.0, 0.0, -1940.8019710543122, 0.0]
['beep', 0.0, -313.2373467966732, 0.0, 0.0, 0.0, 0.0, -1939.4832181314491, 0.0]
['beep', 0.0, -317.4394747542709, 0.0, 0.0, 0.0, 0.0, -1940.9807850099546, 0.0]
['beep', 0.0, -316.9924398651648, 0.0, 0.0, 0.0, 0.0, -1938.879721031156, 0.0]
['beep', 0.0, -311.404503751338, 0.0, 0.0, 0.0, 0.0, -1938.3209274197732, 0.0]
['beep', 0.0, -307.3588380049274, 0.0, 0.0, 0.0, 0.0, -1942.2995379328179, 0.0]
['beep', 0.0, -313.08088458548605, 0.0, 0.0, 0.0, 0.0, -1941.4054681546056, 0.0]
['beep', 0.0, -318.4005997658491, 0.0, 0.0, 0.0, 0.0, -1940.0643634872872, 0.0]
['beep', 0.0, -316.210128809229, 0.0, 0.0, 0.0, 0.0, -1940.3102326762955, 0.0]
['beep', 0.0, -310.7339514176788, 0.0, 0.0, 0.0, 0.0, -1941.360764665695, 0.0]
['beep', 0.0, -307.22472753819557, 0.0, 0.0, 0.0, 0.0, -1941.517226876882, 0.0]
['beep', 0.0, -312.4550357407374, 0.0, 0.0, 0.0, 0.0, -1940.9584332654995, 0.0]
['beep', 0.0, -318.1100270879301, 0.0, 0.0, 0.0, 0.0, -1940.5337501208485, 0.0]
['beep', 0.0, -316.12072183140776, 0.0, 0.0, 0.0, 0.0, -1938.0750582307649, 0.0]
['beep', 0.0, -309.30343977253915, 0.0, 0.0, 0.0, 0.0, -1938.9467762645218, 0.0]
['beep', 0.0, -306.9565066047319, 0.0, 0.0, 0.0, 0.0, -1941.8525030437117, 0.0]
['beep', 0.0, -310.7786549065894, 0.0, 0.0, 0.0, 0.0, -1941.941910021533, 0.0]
['beep', 0.0, -316.12072183140776, 0.0, 0.0, 0.0, 0.0, -1941.0925437322312, 0.0]
['beep', 0.0, -314.3102305305279, 0.0, 0.0, 0.0, 0.0, -1940.1090669761977, 0.0]
['beep', 0.0, -308.20820429422906, 0.0, 0.0, 0.0, 0.0, -1939.4161628980833, 0.0]
['beep', 0.0, -305.6824571707794, 0.0, 0.0, 0.0, 0.0, -1939.2820524313513, 0.0]
['beep', 0.0, -311.0692275845084, 0.0, 0.0, 0.0, 0.0, -1940.3996396541168, 0.0]
['beep', 0.0, -317.7747509211005, 0.0, 0.0, 0.0, 0.0, -1939.8855495316448, 0.0]
['beep', 0.0, -316.03131485358654, 0.0, 0.0, 0.0, 0.0, -1938.2091686974966, 0.0]
['beep', 0.0, -309.95164036174305, 0.0, 0.0, 0.0, 0.0, -1941.584282110248, 0.0]
['beep', 0.0, -307.9176316163101, 0.0, 0.0, 0.0, 0.0, -1940.0643634872872, 0.0]
['beep', 0.0, -312.00800085163127, 0.0, 0.0, 0.0, 0.0, -1937.3821541526502, 0.0]
['beep', 0.0, -317.86415789892175, 0.0, 0.0, 0.0, 0.0, -1937.940947764033, 0.0]
['beep', 0.0, -316.41129450932675, 0.0, 0.0, 0.0, 0.0, -1937.359802408195, 0.0]
['beep', 0.0, -309.66106768382406, 0.0, 0.0, 0.0, 0.0, -1937.9185960195775, 0.0]
['beep', 0.0, -307.20237579374026, 0.0, 0.0, 0.0, 0.0, -1938.9914797534325, 0.0]
['beep', 0.0, -311.22568979569553, 0.0, 0.0, 0.0, 0.0, -1938.879721031156, 0.0]
['beep', 0.0, -316.85832939843294, 0.0, 0.0, 0.0, 0.0, -1938.8573692867005, 0.0]
['beep', 0.0, -315.8972043868547, 0.0, 0.0, 0.0, 0.0, -1938.745610564424, 0.0]
['beep', 0.0, -309.34814326144976, 0.0, 0.0, 0.0, 0.0, -1939.393811153628, 0.0]
['beep', 0.0, -306.46476822671514, 0.0, 0.0, 0.0, 0.0, -1940.779619309857, 0.0]
['beep', 0.0, -310.4880822286704, 0.0, 0.0, 0.0, 0.0, -1942.0089652548988, 0.0]
['beep', 0.0, -317.93121313228767, 0.0, 0.0, 0.0, 0.0, -1941.0478402433207, 0.0]
['beep', 0.0, -315.9419078757653, 0.0, 0.0, 0.0, 0.0, -1940.9584332654995, 0.0]
['beep', 0.0, -309.61636419491344, 0.0, 0.0, 0.0, 0.0, -1941.137247221142, 0.0]
['beep', 0.0, -306.0400850820643, 0.0, 0.0, 0.0, 0.0, -1942.5007036329155, 0.0]
['beep', 0.0, -310.66689618431286, 0.0, 0.0, 0.0, 0.0, -1943.4841803889492, 0.0]
['beep', 0.0, -316.210128809229, 0.0, 0.0, 0.0, 0.0, -1941.8301512992564, 0.0]
['beep', 0.0, -314.48904448617037, 0.0, 0.0, 0.0, 0.0, -1940.0196599983765, 0.0]
['beep', 0.0, -307.6494106828464, 0.0, 0.0, 0.0, 0.0, -1939.393811153628, 0.0]
['beep', 0.0, -305.57069844850287, 0.0, 0.0, 0.0, 0.0, -1940.6231570986697, 0.0]
['beep', 0.0, -310.7339514176788, 0.0, 0.0, 0.0, 0.0, -1941.6736890880693, 0.0]
['beep', 0.0, -315.42781775329325, 0.0, 0.0, 0.0, 0.0, -1940.712564076491, 0.0]
['beep', 0.0, -313.46086424122626, 0.0, 0.0, 0.0, 0.0, -1940.0867152317423, 0.0]
['beep', 0.0, -307.984686849676, 0.0, 0.0, 0.0, 0.0, -1941.293709432329, 0.0]
['beep', 0.0, -306.0847885709749, 0.0, 0.0, 0.0, 0.0, -1942.5007036329155, 0.0]
['beep', 0.0, -311.4492072402486, 0.0, 0.0, 0.0, 0.0, -1941.8525030437117, 0.0]
['beep', 0.0, -317.7971026655558, 0.0, 0.0, 0.0, 0.0, -1940.846674543223, 0.0]
['beep', 0.0, -314.6455066973575, 0.0, 0.0, 0.0, 0.0, -1940.2878809318402, 0.0]
['beep', 0.0, -308.8787566278883, 0.0, 0.0, 0.0, 0.0, -1939.550273364815, 0.0]
['beep', 0.0, -307.0012100936425, 0.0, 0.0, 0.0, 0.0, -1940.4443431430273, 0.0]
['beep', 0.0, -310.93511711777654, 0.0, 0.0, 0.0, 0.0, -1941.2266541989632, 0.0]
['beep', 0.0, -316.61246020942457, 0.0, 0.0, 0.0, 0.0, -1940.0643634872872, 0.0]
['beep', 0.0, -315.38311426438264, 0.0, 0.0, 0.0, 0.0, -1938.9914797534325, 0.0]
['beep', 0.0, -309.32579151699446, 0.0, 0.0, 0.0, 0.0, -1938.387982653139, 0.0]
['beep', 0.0, -305.3695327484051, 0.0, 0.0, 0.0, 0.0, -1941.4501716435161, 0.0]
['beep', 0.0, -309.1693293058073, 0.0, 0.0, 0.0, 0.0, -1940.8243227987675, 0.0]
['beep', 0.0, -315.78544566457816, 0.0, 0.0, 0.0, 0.0, -1938.6338518421476, 0.0]
['beep', 0.0, -315.3160590310167, 0.0, 0.0, 0.0, 0.0, -1937.0245262413653, 0.0]
['beep', 0.0, -308.3199630165056, 0.0, 0.0, 0.0, 0.0, -1937.9856512529436, 0.0]
['beep', 0.0, -306.15184380434084, 0.0, 0.0, 0.0, 0.0, -1941.1148954766866, 0.0]
['beep', 0.0, -310.8010066510447, 0.0, 0.0, 0.0, 0.0, -1941.1148954766866, 0.0]
['beep', 0.0, -316.09837008695246, 0.0, 0.0, 0.0, 0.0, -1940.0867152317423, 0.0]
['beep', 0.0, -314.243175297162, 0.0, 0.0, 0.0, 0.0, -1939.2149971979854, 0.0]
['beep', 0.0, -308.16350080531845, 0.0, 0.0, 0.0, 0.0, -1938.0527064863095, 0.0]
['beep', 0.0, -305.86127112642185, 0.0, 0.0, 0.0, 0.0, -1941.2713576878737, 0.0]
['beep', 0.0, -310.1304543173855, 0.0, 0.0, 0.0, 0.0, -1941.8525030437117, 0.0]
['beep', 0.0, -315.2713555421061, 0.0, 0.0, 0.0, 0.0, -1939.326755920262, 0.0]
['beep', 0.0, -313.9973061081536, 0.0, 0.0, 0.0, 0.0, -1938.745610564424, 0.0]
['beep', 0.0, -308.61053569442464, 0.0, 0.0, 0.0, 0.0, -1939.5279216203598, 0.0]
['beep', 0.0, -305.83891938196655, 0.0, 0.0, 0.0, 0.0, -1939.036183242343, 0.0]
['beep', 0.0, -310.57748920649163, 0.0, 0.0, 0.0, 0.0, -1940.6231570986697, 0.0]
['beep', 0.0, -316.36659102041614, 0.0, 0.0, 0.0, 0.0, -1940.6231570986697, 0.0]
['beep', 0.0, -315.1595968198296, 0.0, 0.0, 0.0, 0.0, -1939.2149971979854, 0.0]
['beep', 0.0, -308.7669979056118, 0.0, 0.0, 0.0, 0.0, -1939.4385146425386, 0.0]
['beep', 0.0, -304.9448496037543, 0.0, 0.0, 0.0, 0.0, -1940.2208256984743, 0.0]
['beep', 0.0, -309.0799223279861, 0.0, 0.0, 0.0, 0.0, -1941.0254884988653, 0.0]
['beep', 0.0, -315.47252124220387, 0.0, 0.0, 0.0, 0.0, -1937.7844855528458, 0.0]
['beep', 0.0, -315.11489333091896, 0.0, 0.0, 0.0, 0.0, -1936.6892500745357, 0.0]
['beep', 0.0, -308.65523918333525, 0.0, 0.0, 0.0, 0.0, -1937.940947764033, 0.0]
['beep', 0.0, -307.15767230482965, 0.0, 0.0, 0.0, 0.0, -1939.9079012761, 0.0]
['beep', 0.0, -310.4657304842151, 0.0, 0.0, 0.0, 0.0, -1939.5949768537257, 0.0]
['beep', 0.0, -315.338410775472, 0.0, 0.0, 0.0, 0.0, -1937.2480436859184, 0.0]
['beep', 0.0, -314.75726541963405, 0.0, 0.0, 0.0, 0.0, -1936.130456463153, 0.0]
['beep', 0.0, -308.7222944167012, 0.0, 0.0, 0.0, 0.0, -1936.197511696519, 0.0]
['beep', 0.0, -305.9283263597878, 0.0, 0.0, 0.0, 0.0, -1937.6056715972034, 0.0]
['beep', 0.0, -308.8787566278883, 0.0, 0.0, 0.0, 0.0, -1938.4326861420498, 0.0]
['beep', 0.0, -312.566794463014, 0.0, 0.0, 0.0, 0.0, -1937.6056715972034, 0.0]
['beep', 0.0, -311.33744851797206, 0.0, 0.0, 0.0, 0.0, -1937.2703954303738, 0.0]
['beep', 0.0, -302.8661373694107, 0.0, 0.0, 0.0, 0.0, -1936.130456463153, 0.0]
['beep', 0.0, -300.1168728014079, 0.0, 0.0, 0.0, 0.0, -1937.1362849636419, 0.0]
['beep', 0.0, -304.85544262593305, 0.0, 0.0, 0.0, 0.0, -1935.973994251966, 0.0]
['beep', 0.0, -310.95746886223185, 0.0, 0.0, 0.0, 0.0, -1934.945814007022, 0.0]
['beep', 0.0, -312.3879805073715, 0.0, 0.0, 0.0, 0.0, -1933.2023779395079, 0.0]
['beep', 0.0, -307.47059672720394, 0.0, 0.0, 0.0, 0.0, -1936.421029141072, 0.0]
['beep', 0.0, -304.4754629701928, 0.0, 0.0, 0.0, 0.0, -1937.8515407862117, 0.0]
['beep', 0.0, -308.5211287166034, 0.0, 0.0, 0.0, 0.0, -1938.455037886505, 0.0]
['beep', 0.0, -315.5172247311145, 0.0, 0.0, 0.0, 0.0, -1937.71743031948, 0.0]
['beep', 0.0, -315.71839043121224, 0.0, 0.0, 0.0, 0.0, -1933.9176337620777, 0.0]
['beep', 0.0, -308.0293903385866, 0.0, 0.0, 0.0, 0.0, -1934.6552413291029, 0.0]
['beep', 0.0, -305.81656763751124, 0.0, 0.0, 0.0, 0.0, -1936.6445465856252, 0.0]
['beep', 0.0, -309.8845851283771, 0.0, 0.0, 0.0, 0.0, -1938.1421134641307, 0.0]
['beep', 0.0, -316.3218875315055, 0.0, 0.0, 0.0, 0.0, -1936.9798227524548, 0.0]
['beep', 0.0, -316.54540497605865, 0.0, 0.0, 0.0, 0.0, -1936.0634012297871, 0.0]
['beep', 0.0, -307.7164659162123, 0.0, 0.0, 0.0, 0.0, -1936.1751599520637, 0.0]
['beep', 0.0, -304.2966490145503, 0.0, 0.0, 0.0, 0.0, -1938.0750582307649, 0.0]
['beep', 0.0, -310.1304543173855, 0.0, 0.0, 0.0, 0.0, -1938.879721031156, 0.0]
['beep', 0.0, -316.14307357586307, 0.0, 0.0, 0.0, 0.0, -1938.7679623088793, 0.0]
['beep', 0.0, -314.243175297162, 0.0, 0.0, 0.0, 0.0, -1937.069229730276, 0.0]
['beep', 0.0, -307.7164659162123, 0.0, 0.0, 0.0, 0.0, -1936.4657326299828, 0.0]
['beep', 0.0, -303.78255889207827, 0.0, 0.0, 0.0, 0.0, -1938.9244245200664, 0.0]
['beep', 0.0, -307.13532056037434, 0.0, 0.0, 0.0, 0.0, -1938.8350175422452, 0.0]
['beep', 0.0, -312.9691258632095, 0.0, 0.0, 0.0, 0.0, -1938.6115000976922, 0.0]
['beep', 0.0, -312.27622178509495, 0.0, 0.0, 0.0, 0.0, -1937.739782063935, 0.0]
['beep', 0.0, -306.7329891601788, 0.0, 0.0, 0.0, 0.0, -1937.940947764033, 0.0]
['beep', 0.0, -303.78255889207827, 0.0, 0.0, 0.0, 0.0, -1938.7679623088793, 0.0]
['beep', 0.0, -308.7446461611565, 0.0, 0.0, 0.0, 0.0, -1938.8573692867005, 0.0]
['beep', 0.0, -313.8631956414218, 0.0, 0.0, 0.0, 0.0, -1938.7009070755134, 0.0]
['beep', 0.0, -313.39380900786034, 0.0, 0.0, 0.0, 0.0, -1937.9856512529436, 0.0]
['beep', 0.0, -307.22472753819557, 0.0, 0.0, 0.0, 0.0, -1936.488084374438, 0.0]
['beep', 0.0, -303.2461170251509, 0.0, 0.0, 0.0, 0.0, -1938.6115000976922, 0.0]
['beep', 0.0, -308.65523918333525, 0.0, 0.0, 0.0, 0.0, -1940.0867152317423, 0.0]
['beep', 0.0, -314.39963750834914, 0.0, 0.0, 0.0, 0.0, -1939.2149971979854, 0.0]
['beep', 0.0, -314.243175297162, 0.0, 0.0, 0.0, 0.0, -1938.5891483532369, 0.0]
['beep', 0.0, -308.3199630165056, 0.0, 0.0, 0.0, 0.0, -1939.1032384757088, 0.0]
['beep', 0.0, -305.19071879276265, 0.0, 0.0, 0.0, 0.0, -1941.0701919877758, 0.0]
['beep', 0.0, -308.43172173878213, 0.0, 0.0, 0.0, 0.0, -1939.8855495316448, 0.0]
['beep', 0.0, -313.79614040805586, 0.0, 0.0, 0.0, 0.0, -1939.6620320870916, 0.0]
['beep', 0.0, -313.8631956414218, 0.0, 0.0, 0.0, 0.0, -1937.8515407862117, 0.0]
['beep', 0.0, -307.7611694051229, 0.0, 0.0, 0.0, 0.0, -1937.8068372973012, 0.0]
['beep', 0.0, -305.0342565815755, 0.0, 0.0, 0.0, 0.0, -1941.00313675441, 0.0]
['beep', 0.0, -309.25873628362854, 0.0, 0.0, 0.0, 0.0, -1940.6678605875804, 0.0]
['beep', 0.0, -314.6231549529022, 0.0, 0.0, 0.0, 0.0, -1940.332584420751, 0.0]
['beep', 0.0, -313.5055677301369, 0.0, 0.0, 0.0, 0.0, -1937.6503750861139, 0.0]
['beep', 0.0, -307.80587289403354, 0.0, 0.0, 0.0, 0.0, -1937.1586367080972, 0.0]
['beep', 0.0, -304.54251820355876, 0.0, 0.0, 0.0, 0.0, -1938.9467762645218, 0.0]
['beep', 0.0, -308.99051535016486, 0.0, 0.0, 0.0, 0.0, -1940.3772879096614, 0.0]
['beep', 0.0, -315.0031346086424, 0.0, 0.0, 0.0, 0.0, -1939.4385146425386, 0.0]
['beep', 0.0, -314.80196890854467, 0.0, 0.0, 0.0, 0.0, -1938.9244245200664, 0.0]
['beep', 0.0, -308.8787566278883, 0.0, 0.0, 0.0, 0.0, -1938.5444448643264, 0.0]
['beep', 0.0, -304.78838739256713, 0.0, 0.0, 0.0, 0.0, -1938.81266579779, 0.0]
['beep', 0.0, -308.7669979056118, 0.0, 0.0, 0.0, 0.0, -1939.9526047650106, 0.0]
['beep', 0.0, -314.3102305305279, 0.0, 0.0, 0.0, 0.0, -1939.2149971979854, 0.0]
['beep', 0.0, -312.9020706298436, 0.0, 0.0, 0.0, 0.0, -1938.2538721864073, 0.0]
['beep', 0.0, -306.57652694899167, 0.0, 0.0, 0.0, 0.0, -1937.6056715972034, 0.0]
['beep', 0.0, -303.44728272524867, 0.0, 0.0, 0.0, 0.0, -1938.3432791642285, 0.0]
['beep', 0.0, -308.0293903385866, 0.0, 0.0, 0.0, 0.0, -1938.5891483532369, 0.0]
['beep', 0.0, -313.43851249677095, 0.0, 0.0, 0.0, 0.0, -1937.9185960195775, 0.0]
['beep', 0.0, -312.5220909741034, 0.0, 0.0, 0.0, 0.0, -1936.935119263544, 0.0]
['beep', 0.0, -305.48129147068164, 0.0, 0.0, 0.0, 0.0, -1936.711601818991, 0.0]
['beep', 0.0, -303.2237652806956, 0.0, 0.0, 0.0, 0.0, -1937.8515407862117, 0.0]
['beep', 0.0, -308.0293903385866, 0.0, 0.0, 0.0, 0.0, -1939.036183242343, 0.0]
['beep', 0.0, -312.29857352955025, 0.0, 0.0, 0.0, 0.0, -1937.6503750861139, 0.0]
['beep', 0.0, -312.4103322518268, 0.0, 0.0, 0.0, 0.0, -1935.772828551868, 0.0]
['beep', 0.0, -307.2694310271062, 0.0, 0.0, 0.0, 0.0, -1937.292747174829, 0.0]
['beep', 0.0, -302.32969550248333, 0.0, 0.0, 0.0, 0.0, -1937.7844855528458, 0.0]
['beep', 0.0, -305.54834670404756, 0.0, 0.0, 0.0, 0.0, -1937.873892530667, 0.0]
['beep', 0.0, -311.94094561826535, 0.0, 0.0, 0.0, 0.0, -1936.7563053079016, 0.0]
['beep', 0.0, -313.5055677301369, 0.0, 0.0, 0.0, 0.0, -1934.81170354029, 0.0]
['beep', 0.0, -306.82239613800004, 0.0, 0.0, 0.0, 0.0, -1934.9011105181112, 0.0]
['beep', 0.0, -303.33552400297214, 0.0, 0.0, 0.0, 0.0, -1936.8010087968123, 0.0]
['beep', 0.0, -307.6494106828464, 0.0, 0.0, 0.0, 0.0, -1937.6950785750246, 0.0]
['beep', 0.0, -312.9691258632095, 0.0, 0.0, 0.0, 0.0, -1937.1362849636419, 0.0]
['beep', 0.0, -312.9691258632095, 0.0, 0.0, 0.0, 0.0, -1934.4764273734604, 0.0]
['beep', 0.0, -306.48711997117044, 0.0, 0.0, 0.0, 0.0, -1934.588186095737, 0.0]
['beep', 0.0, -303.42493098079336, 0.0, 0.0, 0.0, 0.0, -1936.130456463153, 0.0]
['beep', 0.0, -307.2694310271062, 0.0, 0.0, 0.0, 0.0, -1936.3092704187954, 0.0]
['beep', 0.0, -313.3044020300391, 0.0, 0.0, 0.0, 0.0, -1937.069229730276, 0.0]
['beep', 0.0, -312.8350153964777, 0.0, 0.0, 0.0, 0.0, -1934.5434826068263, 0.0]
['beep', 0.0, -306.9788583491872, 0.0, 0.0, 0.0, 0.0, -1935.3704971516727, 0.0]
['beep', 0.0, -305.48129147068164, 0.0, 0.0, 0.0, 0.0, -1937.292747174829, 0.0]
['beep', 0.0, -308.99051535016486, 0.0, 0.0, 0.0, 0.0, -1936.912767519089, 0.0]
['beep', 0.0, -314.8913758863659, 0.0, 0.0, 0.0, 0.0, -1936.4657326299828, 0.0]
['beep', 0.0, -315.09254158646365, 0.0, 0.0, 0.0, 0.0, -1934.9234622625665, 0.0]
['beep', 0.0, -308.47642522769274, 0.0, 0.0, 0.0, 0.0, -1934.81170354029, 0.0]
['beep', 0.0, -304.2966490145503, 0.0, 0.0, 0.0, 0.0, -1936.0186977408766, 0.0]
['beep', 0.0, -309.8398816394665, 0.0, 0.0, 0.0, 0.0, -1936.778657052357, 0.0]
['beep', 0.0, -315.4948729866592, 0.0, 0.0, 0.0, 0.0, -1936.421029141072, 0.0]
['beep', 0.0, -314.5113962306257, 0.0, 0.0, 0.0, 0.0, -1935.8622355296893, 0.0]
['beep', 0.0, -309.72812291719, 0.0, 0.0, 0.0, 0.0, -1934.2305581844519, 0.0]
['beep', 0.0, -306.0400850820643, 0.0, 0.0, 0.0, 0.0, -1935.750476807413, 0.0]
['beep', 0.0, -308.3870182498715, 0.0, 0.0, 0.0, 0.0, -1937.7621338083904, 0.0]
['beep', 0.0, -314.6231549529022, 0.0, 0.0, 0.0, 0.0, -1936.555139607804, 0.0]
['beep', 0.0, -314.08671308597485, 0.0, 0.0, 0.0, 0.0, -1935.5716628517705, 0.0]
['beep', 0.0, -309.2140327947179, 0.0, 0.0, 0.0, 0.0, -1934.454075629005, 0.0]
['beep', 0.0, -306.12949205988554, 0.0, 0.0, 0.0, 0.0, -1934.521130862371, 0.0]
['beep', 0.0, -310.1304543173855, 0.0, 0.0, 0.0, 0.0, -1936.8233605412677, 0.0]
['beep', 0.0, -315.8301491534888, 0.0, 0.0, 0.0, 0.0, -1936.7563053079016, 0.0]
['beep', 0.0, -315.74074217566755, 0.0, 0.0, 0.0, 0.0, -1934.5658343512816, 0.0]
['beep', 0.0, -308.8117013945224, 0.0, 0.0, 0.0, 0.0, -1935.6834215740469, 0.0]
['beep', 0.0, -305.45893972622633, 0.0, 0.0, 0.0, 0.0, -1935.2363866849407, 0.0]
['beep', 0.0, -311.1809863067849, 0.0, 0.0, 0.0, 0.0, -1935.4822558739493, 0.0]
['beep', 0.0, -316.12072183140776, 0.0, 0.0, 0.0, 0.0, -1937.0468779858206, 0.0]
['beep', 0.0, -314.9584311197318, 0.0, 0.0, 0.0, 0.0, -1935.0799244737536, 0.0]
['beep', 0.0, -310.59984095094694, 0.0, 0.0, 0.0, 0.0, -1936.555139607804, 0.0]
['beep', 0.0, -306.9788583491872, 0.0, 0.0, 0.0, 0.0, -1937.2480436859184, 0.0]
['beep', 0.0, -310.68924792876817, 0.0, 0.0, 0.0, 0.0, -1937.359802408195, 0.0]
['beep', 0.0, -317.23830905417316, 0.0, 0.0, 0.0, 0.0, -1936.3092704187954, 0.0]
['beep', 0.0, -316.9924398651648, 0.0, 0.0, 0.0, 0.0, -1933.4705988729716, 0.0]
['beep', 0.0, -310.5104339731257, 0.0, 0.0, 0.0, 0.0, -1933.8952820176223, 0.0]
['beep', 0.0, -306.7329891601788, 0.0, 0.0, 0.0, 0.0, -1936.5774913522591, 0.0]
['beep', 0.0, -309.61636419491344, 0.0, 0.0, 0.0, 0.0, -1937.7621338083904, 0.0]
['beep', 0.0, -317.7523991766452, 0.0, 0.0, 0.0, 0.0, -1937.6950785750246, 0.0]
['beep', 0.0, -316.92538463179886, 0.0, 0.0, 0.0, 0.0, -1934.744648306924, 0.0]
['beep', 0.0, -309.1693293058073, 0.0, 0.0, 0.0, 0.0, -1933.805875039801, 0.0]
['beep', 0.0, -304.83309088147774, 0.0, 0.0, 0.0, 0.0, -1937.225691941463, 0.0]
['beep', 0.0, -309.28108802808384, 0.0, 0.0, 0.0, 0.0, -1939.2149971979854, 0.0]
['beep', 0.0, -314.9137276308212, 0.0, 0.0, 0.0, 0.0, -1937.8291890417563, 0.0]
['beep', 0.0, -315.8525008979441, 0.0, 0.0, 0.0, 0.0, -1937.0915814747314, 0.0]
['beep', 0.0, -310.26456478411734, 0.0, 0.0, 0.0, 0.0, -1936.5104361188933, 0.0]
['beep', 0.0, -306.6882856712682, 0.0, 0.0, 0.0, 0.0, -1937.2033401970077, 0.0]
['beep', 0.0, -309.8175298950112, 0.0, 0.0, 0.0, 0.0, -1938.4773896309603, 0.0]
['beep', 0.0, -317.21595730971785, 0.0, 0.0, 0.0, 0.0, -1937.873892530667, 0.0]
['beep', 0.0, -315.71839043121224, 0.0, 0.0, 0.0, 0.0, -1936.555139607804, 0.0]
['beep', 0.0, -309.7728264061006, 0.0, 0.0, 0.0, 0.0, -1935.8175320407788, 0.0]
['beep', 0.0, -306.2636025266174, 0.0, 0.0, 0.0, 0.0, -1936.6892500745357, 0.0]
['beep', 0.0, -309.32579151699446, 0.0, 0.0, 0.0, 0.0, -1937.9632995084883, 0.0]
['beep', 0.0, -315.42781775329325, 0.0, 0.0, 0.0, 0.0, -1938.4773896309603, 0.0]
['beep', 0.0, -314.9807828641871, 0.0, 0.0, 0.0, 0.0, -1935.772828551868, 0.0]
['beep', 0.0, -308.4987769721481, 0.0, 0.0, 0.0, 0.0, -1936.3763256521615, 0.0]
['beep', 0.0, -304.81073913702244, 0.0, 0.0, 0.0, 0.0, -1936.0410494853318, 0.0]
['beep', 0.0, -307.80587289403354, 0.0, 0.0, 0.0, 0.0, -1936.8680640301782, 0.0]
['beep', 0.0, -313.5726229635028, 0.0, 0.0, 0.0, 0.0, -1937.3150989192843, 0.0]
['beep', 0.0, -314.01965785260893, 0.0, 0.0, 0.0, 0.0, -1935.772828551868, 0.0]
['beep', 0.0, -307.3811897493827, 0.0, 0.0, 0.0, 0.0, -1936.2422151854296, 0.0]
['beep', 0.0, -304.36370424791625, 0.0, 0.0, 0.0, 0.0, -1937.8291890417563, 0.0]
['beep', 0.0, -308.275259527595, 0.0, 0.0, 0.0, 0.0, -1937.4492093860163, 0.0]
['beep', 0.0, -314.3102305305279, 0.0, 0.0, 0.0, 0.0, -1936.4433808855274, 0.0]
['beep', 0.0, -315.42781775329325, 0.0, 0.0, 0.0, 0.0, -1936.0410494853318, 0.0]
['beep', 0.0, -311.0692275845084, 0.0, 0.0, 0.0, 0.0, -1935.3481454072173, 0.0]
['beep', 0.0, -305.7495124041453, 0.0, 0.0, 0.0, 0.0, -1936.6668983300804, 0.0]
['beep', 0.0, -309.25873628362854, 0.0, 0.0, 0.0, 0.0, -1936.421029141072, 0.0]
['beep', 0.0, -315.9419078757653, 0.0, 0.0, 0.0, 0.0, -1934.9011105181112, 0.0]
['beep', 0.0, -314.8690241419106, 0.0, 0.0, 0.0, 0.0, -1934.0517442288094, 0.0]
['beep', 0.0, -309.5269572170922, 0.0, 0.0, 0.0, 0.0, -1932.9565087504996, 0.0]
['beep', 0.0, -305.9283263597878, 0.0, 0.0, 0.0, 0.0, -1934.8564070292007, 0.0]
['beep', 0.0, -309.72812291719, 0.0, 0.0, 0.0, 0.0, -1937.9632995084883, 0.0]
['beep', 0.0, -315.69603868675694, 0.0, 0.0, 0.0, 0.0, -1936.0186977408766, 0.0]
['beep', 0.0, -315.2043003087402, 0.0, 0.0, 0.0, 0.0, -1932.9118052615888, 0.0]
['beep', 0.0, -309.8398816394665, 0.0, 0.0, 0.0, 0.0, -1935.0128692403878, 0.0]
['beep', 0.0, -305.6824571707794, 0.0, 0.0, 0.0, 0.0, -1936.2422151854296, 0.0]
['beep', 0.0, -309.5493089615475, 0.0, 0.0, 0.0, 0.0, -1936.8680640301782, 0.0]
['beep', 0.0, -314.13141657488546, 0.0, 0.0, 0.0, 0.0, -1937.426857641561, 0.0]
['beep', 0.0, -314.9137276308212, 0.0, 0.0, 0.0, 0.0, -1934.744648306924, 0.0]
['beep', 0.0, -308.8340531389777, 0.0, 0.0, 0.0, 0.0, -1935.3481454072173, 0.0]
['beep', 0.0, -303.8272623809889, 0.0, 0.0, 0.0, 0.0, -1937.359802408195, 0.0]
['beep', 0.0, -308.14114906086314, 0.0, 0.0, 0.0, 0.0, -1938.5444448643264, 0.0]
['beep', 0.0, -314.1761200637961, 0.0, 0.0, 0.0, 0.0, -1939.4385146425386, 0.0]
['beep', 0.0, -313.75143691914525, 0.0, 0.0, 0.0, 0.0, -1936.9798227524548, 0.0]
['beep', 0.0, -307.7164659162123, 0.0, 0.0, 0.0, 0.0, -1936.5327878633486, 0.0]
['beep', 0.0, -303.78255889207827, 0.0, 0.0, 0.0, 0.0, -1936.2422151854296, 0.0]
['beep', 0.0, -307.0459135825531, 0.0, 0.0, 0.0, 0.0, -1935.3034419183068, 0.0]
['beep', 0.0, -314.1761200637961, 0.0, 0.0, 0.0, 0.0, -1936.3539739077062, 0.0]
['beep', 0.0, -314.243175297162, 0.0, 0.0, 0.0, 0.0, -1936.4433808855274, 0.0]
['beep', 0.0, -308.45407348323744, 0.0, 0.0, 0.0, 0.0, -1934.6105378401921, 0.0]
['beep', 0.0, -303.73785540316766, 0.0, 0.0, 0.0, 0.0, -1934.1858546955414, 0.0]
['beep', 0.0, -306.308306015528, 0.0, 0.0, 0.0, 0.0, -1936.0857529742425, 0.0]
['beep', 0.0, -313.9302508747877, 0.0, 0.0, 0.0, 0.0, -1935.7281250629576, 0.0]
['beep', 0.0, -315.38311426438264, 0.0, 0.0, 0.0, 0.0, -1935.0352209848431, 0.0]
['beep', 0.0, -308.3199630165056, 0.0, 0.0, 0.0, 0.0, -1934.454075629005, 0.0]
['beep', 0.0, -302.9778960916872, 0.0, 0.0, 0.0, 0.0, -1935.8398837852342, 0.0]
['beep', 0.0, -306.6212304379023, 0.0, 0.0, 0.0, 0.0, -1936.3092704187954, 0.0]
['beep', 0.0, -312.9467741187542, 0.0, 0.0, 0.0, 0.0, -1937.2033401970077, 0.0]
['beep', 0.0, -314.1761200637961, 0.0, 0.0, 0.0, 0.0, -1936.5104361188933, 0.0]
['beep', 0.0, -309.03521883907547, 0.0, 0.0, 0.0, 0.0, -1935.3481454072173, 0.0]
['beep', 0.0, -304.2295937811844, 0.0, 0.0, 0.0, 0.0, -1934.6328895846475, 0.0]
['beep', 0.0, -307.694114171757, 0.0, 0.0, 0.0, 0.0, -1936.9798227524548, 0.0]
['beep', 0.0, -313.5949747079581, 0.0, 0.0, 0.0, 0.0, -1937.3821541526502, 0.0]
['beep', 0.0, -314.533747975081, 0.0, 0.0, 0.0, 0.0, -1935.7057733185022, 0.0]
['beep', 0.0, -308.3199630165056, 0.0, 0.0, 0.0, 0.0, -1935.1246279626644, 0.0]
['beep', 0.0, -304.83309088147774, 0.0, 0.0, 0.0, 0.0, -1936.0186977408766, 0.0]
['beep', 0.0, -307.3811897493827, 0.0, 0.0, 0.0, 0.0, -1936.2422151854296, 0.0]
['beep', 0.0, -313.08088458548605, 0.0, 0.0, 0.0, 0.0, -1935.9069390186, 0.0]
['beep', 0.0, -314.69021018626813, 0.0, 0.0, 0.0, 0.0, -1934.8564070292007, 0.0]
['beep', 0.0, -308.3870182498715, 0.0, 0.0, 0.0, 0.0, -1934.007040739899, 0.0]
['beep', 0.0, -303.5813931919805, 0.0, 0.0, 0.0, 0.0, -1936.5327878633486, 0.0]
['beep', 0.0, -306.9565066047319, 0.0, 0.0, 0.0, 0.0, -1934.7893517958346, 0.0]
['beep', 0.0, -313.46086424122626, 0.0, 0.0, 0.0, 0.0, -1933.3141366617845, 0.0]
['beep', 0.0, -313.8855473858771, 0.0, 0.0, 0.0, 0.0, -1933.00121223941, 0.0]
['beep', 0.0, -308.58818394996933, 0.0, 0.0, 0.0, 0.0, -1932.8894535171335, 0.0]
['beep', 0.0, -303.98372459217603, 0.0, 0.0, 0.0, 0.0, -1934.9011105181112, 0.0]
['beep', 0.0, -308.0517420830419, 0.0, 0.0, 0.0, 0.0, -1935.6387180851364, 0.0]
['beep', 0.0, -314.6455066973575, 0.0, 0.0, 0.0, 0.0, -1934.7893517958346, 0.0]
['beep', 0.0, -314.8466723974553, 0.0, 0.0, 0.0, 0.0, -1935.0352209848431, 0.0]
['beep', 0.0, -310.0633990840196, 0.0, 0.0, 0.0, 0.0, -1933.7164680619799, 0.0]
['beep', 0.0, -304.6989804147459, 0.0, 0.0, 0.0, 0.0, -1934.2082064399967, 0.0]
['beep', 0.0, -306.77769264908943, 0.0, 0.0, 0.0, 0.0, -1935.750476807413, 0.0]
['beep', 0.0, -312.29857352955025, 0.0, 0.0, 0.0, 0.0, -1937.4715611304714, 0.0]
['beep', 0.0, -313.8408438969665, 0.0, 0.0, 0.0, 0.0, -1934.588186095737, 0.0]
['beep', 0.0, -308.275259527595, 0.0, 0.0, 0.0, 0.0, -1933.135322706142, 0.0]
['beep', 0.0, -304.1401868033632, 0.0, 0.0, 0.0, 0.0, -1932.6659360725805, 0.0]
['beep', 0.0, -308.3870182498715, 0.0, 0.0, 0.0, 0.0, -1933.6941163175245, 0.0]
['beep', 0.0, -313.5949747079581, 0.0, 0.0, 0.0, 0.0, -1935.325793662762, 0.0]
['beep', 0.0, -314.01965785260893, 0.0, 0.0, 0.0, 0.0, -1934.454075629005, 0.0]
['beep', 0.0, -307.9623351052207, 0.0, 0.0, 0.0, 0.0, -1932.6882878170359, 0.0]
['beep', 0.0, -305.1013118149414, 0.0, 0.0, 0.0, 0.0, -1934.297613417818, 0.0]
['beep', 0.0, -308.92346011679894, 0.0, 0.0, 0.0, 0.0, -1934.8564070292007, 0.0]
['beep', 0.0, -314.5113962306257, 0.0, 0.0, 0.0, 0.0, -1934.1858546955414, 0.0]
['beep', 0.0, -315.5395764755698, 0.0, 0.0, 0.0, 0.0, -1934.6775930735582, 0.0]
['beep', 0.0, -308.5211287166034, 0.0, 0.0, 0.0, 0.0, -1933.4482471285162, 0.0]
['beep', 0.0, -304.4978147146481, 0.0, 0.0, 0.0, 0.0, -1933.7164680619799, 0.0]
['beep', 0.0, -308.47642522769274, 0.0, 0.0, 0.0, 0.0, -1933.0235639838654, 0.0]
['beep', 0.0, -313.79614040805586, 0.0, 0.0, 0.0, 0.0, -1934.007040739899, 0.0]
['beep', 0.0, -314.37728576389384, 0.0, 0.0, 0.0, 0.0, -1934.8340552847453, 0.0]
['beep', 0.0, -309.0799223279861, 0.0, 0.0, 0.0, 0.0, -1932.3977151391168, 0.0]
['beep', 0.0, -305.79421589305593, 0.0, 0.0, 0.0, 0.0, -1933.4258953840608, 0.0]
['beep', 0.0, -309.99634385065366, 0.0, 0.0, 0.0, 0.0, -1935.750476807413, 0.0]
['beep', 0.0, -316.2995357870502, 0.0, 0.0, 0.0, 0.0, -1934.6999448180134, 0.0]
['beep', 0.0, -316.9700881207095, 0.0, 0.0, 0.0, 0.0, -1935.258738429396, 0.0]
['beep', 0.0, -310.59984095094694, 0.0, 0.0, 0.0, 0.0, -1934.9234622625665, 0.0]
['beep', 0.0, -304.34135250346094, 0.0, 0.0, 0.0, 0.0, -1933.6941163175245, 0.0]
['beep', 0.0, -305.9730298486984, 0.0, 0.0, 0.0, 0.0, -1934.0740959732648, 0.0]
['beep', 0.0, -311.113931073419, 0.0, 0.0, 0.0, 0.0, -1934.1858546955414, 0.0]
['beep', 0.0, -311.1586345623296, 0.0, 0.0, 0.0, 0.0, -1931.682459316547, 0.0]
['beep', 0.0, -307.3588380049274, 0.0, 0.0, 0.0, 0.0, -1932.3083081612956, 0.0]
['beep', 0.0, -304.2295937811844, 0.0, 0.0, 0.0, 0.0, -1934.1411512066306, 0.0]
['beep', 0.0, -307.51530021611455, 0.0, 0.0, 0.0, 0.0, -1935.5716628517705, 0.0]
['beep', 0.0, -314.6231549529022, 0.0, 0.0, 0.0, 0.0, -1935.4822558739493, 0.0]
['beep', 0.0, -314.9584311197318, 0.0, 0.0, 0.0, 0.0, -1934.2082064399967, 0.0]
['beep', 0.0, -308.4093699943268, 0.0, 0.0, 0.0, 0.0, -1934.6552413291029, 0.0]
['beep', 0.0, -304.00607633663134, 0.0, 0.0, 0.0, 0.0, -1936.3316221632508, 0.0]
['beep', 0.0, -307.984686849676, 0.0, 0.0, 0.0, 0.0, -1935.3704971516727, 0.0]
['beep', 0.0, -312.6785531852905, 0.0, 0.0, 0.0, 0.0, -1934.0964477177201, 0.0]
['beep', 0.0, -312.70090492974583, 0.0, 0.0, 0.0, 0.0, -1935.1246279626644, 0.0]
['beep', 0.0, -306.7553409046341, 0.0, 0.0, 0.0, 0.0, -1934.81170354029, 0.0]
['beep', 0.0, -302.39675073584925, 0.0, 0.0, 0.0, 0.0, -1934.9234622625665, 0.0]
['beep', 0.0, -306.46476822671514, 0.0, 0.0, 0.0, 0.0, -1935.6834215740469, 0.0]
['beep', 0.0, -312.6785531852905, 0.0, 0.0, 0.0, 0.0, -1934.0293924843543, 0.0]
['beep', 0.0, -312.79031190756706, 0.0, 0.0, 0.0, 0.0, -1931.838921527734, 0.0]
['beep', 0.0, -307.53765196056986, 0.0, 0.0, 0.0, 0.0, -1933.0906192172313, 0.0]
['beep', 0.0, -302.73202690267885, 0.0, 0.0, 0.0, 0.0, -1933.2470814284184, 0.0]
['beep', 0.0, -306.0624368265196, 0.0, 0.0, 0.0, 0.0, -1933.0459157283208, 0.0]
['beep', 0.0, -312.4550357407374, 0.0, 0.0, 0.0, 0.0, -1930.9001482606113, 0.0]
['beep', 0.0, -313.9078991303324, 0.0, 0.0, 0.0, 0.0, -1930.4978168604157, 0.0]
['beep', 0.0, -308.3199630165056, 0.0, 0.0, 0.0, 0.0, -1931.0119069828877, 0.0]
['beep', 0.0, -302.39675073584925, 0.0, 0.0, 0.0, 0.0, -1927.972069736966, 0.0]
['beep', 0.0, -305.83891938196655, 0.0, 0.0, 0.0, 0.0, -1926.6086133251922, 0.0]
['beep', 0.0, -311.62802119589105, 0.0, 0.0, 0.0, 0.0, -1922.0265057118543, 0.0]
['beep', 0.0, -312.857367140933, 0.0, 0.0, 0.0, 0.0, -1915.8350724977342, 0.0]
['beep', 0.0, -307.87292812739946, 0.0, 0.0, 0.0, 0.0, -1911.2753166288517, 0.0]
['beep', 0.0, -303.78255889207827, 0.0, 0.0, 0.0, 0.0, -1907.3190578602623, 0.0]
['beep', 0.0, -308.61053569442464, 0.0, 0.0, 0.0, 0.0, -1903.295743858307, 0.0]
['beep', 0.0, -314.80196890854467, 0.0, 0.0, 0.0, 0.0, -1895.8973164436004, 0.0]
['beep', 0.0, -314.5560997195363, 0.0, 0.0, 0.0, 0.0, -1887.202487850486, 0.0]
['beep', 0.0, -308.7222944167012, 0.0, 0.0, 0.0, 0.0, -1878.7311767019246, 0.0]
['beep', 0.0, -306.12949205988554, 0.0, 0.0, 0.0, 0.0, -1873.3667580326508, 0.0]
['beep', 0.0, -308.90110837234363, 0.0, 0.0, 0.0, 0.0, -1868.203505063475, 0.0]
['beep', 0.0, -315.69603868675694, 0.0, 0.0, 0.0, 0.0, -1860.4027462485728, 0.0]
['beep', 0.0, -317.7523991766452, 0.0, 0.0, 0.0, 0.0, -1853.7642781453465, 0.0]
['beep', 0.0, -310.5551374620363, 0.0, 0.0, 0.0, 0.0, -1846.2987954972739, 0.0]
['beep', 0.0, -305.6154019374135, 0.0, 0.0, 0.0, 0.0, -1844.7118216409472, 0.0]
['beep', 0.0, -309.01286709462016, 0.0, 0.0, 0.0, 0.0, -1839.8614930941455, 0.0]
['beep', 0.0, -312.9691258632095, 0.0, 0.0, 0.0, 0.0, -1837.782780859802, 0.0]
['beep', 0.0, -314.75726541963405, 0.0, 0.0, 0.0, 0.0, -1832.2171964904305, 0.0]
['beep', 0.0, -312.47738748519276, 0.0, 0.0, 0.0, 0.0, -1830.0937807671764, 0.0]
['beep', 0.0, -308.8787566278883, 0.0, 0.0, 0.0, 0.0, -1831.5689959012266, 0.0]
['beep', 0.0, -311.404503751338, 0.0, 0.0, 0.0, 0.0, -1830.8760918231121, 0.0]
['beep', 0.0, -317.6853439432793, 0.0, 0.0, 0.0, 0.0, -1831.1443127565758, 0.0]
['beep', 0.0, -318.4229515103044, 0.0, 0.0, 0.0, 0.0, -1831.2560714788524, 0.0]
['beep', 0.0, -310.3986752508492, 0.0, 0.0, 0.0, 0.0, -1833.2677284798299, 0.0]
['beep', 0.0, -304.63192518138, 0.0, 0.0, 0.0, 0.0, -1837.6039669041595, 0.0]
['beep', 0.0, -308.4093699943268, 0.0, 0.0, 0.0, 0.0, -1841.6943361394808, 0.0]
['beep', 0.0, -315.78544566457816, 0.0, 0.0, 0.0, 0.0, -1844.8906355965896, 0.0]
['beep', 0.0, -314.6455066973575, 0.0, 0.0, 0.0, 0.0, -1848.332804242707, 0.0]
['beep', 0.0, -309.28108802808384, 0.0, 0.0, 0.0, 0.0, -1853.0490223227766, 0.0]
['beep', 0.0, -303.9390211032654, 0.0, 0.0, 0.0, 0.0, -1857.4970194693828, 0.0]
['beep', 0.0, -306.82239613800004, 0.0, 0.0, 0.0, 0.0, -1863.0179003498438, 0.0]
['beep', 0.0, -311.62802119589105, 0.0, 0.0, 0.0, 0.0, -1867.8905806411005, 0.0]
['beep', 0.0, -311.96329736272065, 0.0, 0.0, 0.0, 0.0, -1870.9304178870225, 0.0]
['beep', 0.0, -305.9730298486984, 0.0, 0.0, 0.0, 0.0, -1876.0266156228324, 0.0]
['beep', 0.0, -300.9662390907096, 0.0, 0.0, 0.0, 0.0, -1881.7710139478463, 0.0]
['beep', 0.0, -303.8496141254442, 0.0, 0.0, 0.0, 0.0, -1884.0732436267429, 0.0]
['beep', 0.0, -309.57166070600283, 0.0, 0.0, 0.0, 0.0, -1887.202487850486, 0.0]
['beep', 0.0, -309.99634385065366, 0.0, 0.0, 0.0, 0.0, -1889.32590357374, 0.0]
['beep', 0.0, -304.63192518138, 0.0, 0.0, 0.0, 0.0, -1892.455147797483, 0.0]
['beep', 0.0, -299.6921896567571, 0.0, 0.0, 0.0, 0.0, -1895.9196681880558, 0.0]
['beep', 0.0, -301.2568117686286, 0.0, 0.0, 0.0, 0.0, -1898.9371536895221, 0.0]
['beep', 0.0, -307.984686849676, 0.0, 0.0, 0.0, 0.0, -1902.3122671022734, 0.0]
['beep', 0.0, -310.30926827302795, 0.0, 0.0, 0.0, 0.0, -1903.9439444475108, 0.0]
['beep', 0.0, -303.8719658698995, 0.0, 0.0, 0.0, 0.0, -1906.5814502932371, 0.0]
['beep', 0.0, -298.4851954561705, 0.0, 0.0, 0.0, 0.0, -1907.7213892604577, 0.0]
['beep', 0.0, -301.41327397981576, 0.0, 0.0, 0.0, 0.0, -1910.6718195285584, 0.0]
['beep', 0.0, -309.37049500590507, 0.0, 0.0, 0.0, 0.0, -1912.2140898959744, 0.0]
['beep', 0.0, -310.5551374620363, 0.0, 0.0, 0.0, 0.0, -1912.817586996268, 0.0]
['beep', 0.0, -304.7436839036565, 0.0, 0.0, 0.0, 0.0, -1914.717485274969, 0.0]
['beep', 0.0, -298.99928557864257, 0.0, 0.0, 0.0, 0.0, -1915.9244794755555, 0.0]
['beep', 0.0, -301.8379571244666, 0.0, 0.0, 0.0, 0.0, -1917.2655841428739, 0.0]
['beep', 0.0, -308.5211287166034, 0.0, 0.0, 0.0, 0.0, -1919.8360347552343, 0.0]
['beep', 0.0, -308.47642522769274, 0.0, 0.0, 0.0, 0.0, -1919.5454620773153, 0.0]
['beep', 0.0, -303.35787574742744, 0.0, 0.0, 0.0, 0.0, -1920.7301045334466, 0.0]
['beep', 0.0, -298.61930592290236, 0.0, 0.0, 0.0, 0.0, -1922.585299323237, 0.0]
['beep', 0.0, -301.43562572427106, 0.0, 0.0, 0.0, 0.0, -1923.3452586347175, 0.0]
['beep', 0.0, -307.7611694051229, 0.0, 0.0, 0.0, 0.0, -1924.5969563242147, 0.0]
['beep', 0.0, -309.66106768382406, 0.0, 0.0, 0.0, 0.0, -1923.6358313126364, 0.0]
['beep', 0.0, -303.44728272524867, 0.0, 0.0, 0.0, 0.0, -1924.0605144572874, 0.0]
['beep', 0.0, -297.7475878891454, 0.0, 0.0, 0.0, 0.0, -1924.552252835304, 0.0]
['beep', 0.0, -300.8321286239778, 0.0, 0.0, 0.0, 0.0, -1925.2898604023292, 0.0]
['beep', 0.0, -307.6717624273017, 0.0, 0.0, 0.0, 0.0, -1925.6027848247033, 0.0]
['beep', 0.0, -309.1693293058073, 0.0, 0.0, 0.0, 0.0, -1925.0886947022314, 0.0]
['beep', 0.0, -304.2295937811844, 0.0, 0.0, 0.0, 0.0, -1924.5746045797594, 0.0]
['beep', 0.0, -298.88752685636604, 0.0, 0.0, 0.0, 0.0, -1924.6416598131252, 0.0]
['beep', 0.0, -300.78742513506717, 0.0, 0.0, 0.0, 0.0, -1924.5299010908486, 0.0]
['beep', 0.0, -307.82822463848885, 0.0, 0.0, 0.0, 0.0, -1925.8039505248012, 0.0]
['beep', 0.0, -309.5046054726369, 0.0, 0.0, 0.0, 0.0, -1926.6980203030134, 0.0]
['beep', 0.0, -304.4754629701928, 0.0, 0.0, 0.0, 0.0, -1926.1168749471756, 0.0]
['beep', 0.0, -298.86517511191073, 0.0, 0.0, 0.0, 0.0, -1927.614441825681, 0.0]
['beep', 0.0, -301.34621874644984, 0.0, 0.0, 0.0, 0.0, -1929.6037470822034, 0.0]
['beep', 0.0, -307.85057638294415, 0.0, 0.0, 0.0, 0.0, -1929.2014156820078, 0.0]
['beep', 0.0, -309.66106768382406, 0.0, 0.0, 0.0, 0.0, -1928.7096773039912, 0.0]
['beep', 0.0, -304.6989804147459, 0.0, 0.0, 0.0, 0.0, -1927.681497059047, 0.0]
['beep', 0.0, -298.64165766735766, 0.0, 0.0, 0.0, 0.0, -1928.6649738150804, 0.0]
['beep', 0.0, -300.72036990170125, 0.0, 0.0, 0.0, 0.0, -1929.9166715045776, 0.0]
['beep', 0.0, -306.0847885709749, 0.0, 0.0, 0.0, 0.0, -1929.9613749934883, 0.0]
['beep', 0.0, -308.8117013945224, 0.0, 0.0, 0.0, 0.0, -1930.0507819713096, 0.0]
['beep', 0.0, -303.76020714762296, 0.0, 0.0, 0.0, 0.0, -1930.9895552384326, 0.0]
['beep', 0.0, -298.88752685636604, 0.0, 0.0, 0.0, 0.0, -1932.196549439019, 0.0]
['beep', 0.0, -301.36857049090514, 0.0, 0.0, 0.0, 0.0, -1932.7329913059464, 0.0]
['beep', 0.0, -307.3141345160168, 0.0, 0.0, 0.0, 0.0, -1933.4035436396057, 0.0]
['beep', 0.0, -310.26456478411734, 0.0, 0.0, 0.0, 0.0, -1932.4647703724827, 0.0]
['beep', 0.0, -304.4531112257375, 0.0, 0.0, 0.0, 0.0, -1930.4307616270498, 0.0]
['beep', 0.0, -298.8428233674554, 0.0, 0.0, 0.0, 0.0, -1932.1518459501085, 0.0]
['beep', 0.0, -301.9497158467431, 0.0, 0.0, 0.0, 0.0, -1933.9846889954435, 0.0]
['beep', 0.0, -308.3870182498715, 0.0, 0.0, 0.0, 0.0, -1934.6999448180134, 0.0]
['beep', 0.0, -310.0633990840196, 0.0, 0.0, 0.0, 0.0, -1933.4035436396057, 0.0]
['beep', 0.0, -305.0119048371202, 0.0, 0.0, 0.0, 0.0, -1930.9448517495218, 0.0]
['beep', 0.0, -300.0051140791314, 0.0, 0.0, 0.0, 0.0, -1931.838921527734, 0.0]
['beep', 0.0, -302.9555443472319, 0.0, 0.0, 0.0, 0.0, -1933.9846889954435, 0.0]
['beep', 0.0, -310.7339514176788, 0.0, 0.0, 0.0, 0.0, -1931.5707005942704, 0.0]
['beep', 0.0, -310.8680618844106, 0.0, 0.0, 0.0, 0.0, -1929.7602092933905, 0.0]
['beep', 0.0, -304.78838739256713, 0.0, 0.0, 0.0, 0.0, -1930.6766308160582, 0.0]
['beep', 0.0, -299.89335535685484, 0.0, 0.0, 0.0, 0.0, -1932.6882878170359, 0.0]
['beep', 0.0, -301.5920879354582, 0.0, 0.0, 0.0, 0.0, -1933.291784917329, 0.0]
['beep', 0.0, -307.2694310271062, 0.0, 0.0, 0.0, 0.0, -1931.7718662943682, 0.0]
['beep', 0.0, -309.7728264061006, 0.0, 0.0, 0.0, 0.0, -1930.587223838237, 0.0]
['beep', 0.0, -303.8719658698995, 0.0, 0.0, 0.0, 0.0, -1931.3471831497175, 0.0]
['beep', 0.0, -298.86517511191073, 0.0, 0.0, 0.0, 0.0, -1932.554177350304, 0.0]
['beep', 0.0, -300.74272164615655, 0.0, 0.0, 0.0, 0.0, -1934.5658343512816, 0.0]
['beep', 0.0, -307.80587289403354, 0.0, 0.0, 0.0, 0.0, -1934.2529099289072, 0.0]
['beep', 0.0, -308.45407348323744, 0.0, 0.0, 0.0, 0.0, -1932.2636046723849, 0.0]
['beep', 0.0, -302.7990821360448, 0.0, 0.0, 0.0, 0.0, -1933.8282267842565, 0.0]
['beep', 0.0, -299.1110443009191, 0.0, 0.0, 0.0, 0.0, -1934.454075629005, 0.0]
['beep', 0.0, -301.45797746872637, 0.0, 0.0, 0.0, 0.0, -1934.007040739899, 0.0]
['beep', 0.0, -308.43172173878213, 0.0, 0.0, 0.0, 0.0, -1934.319965162273, 0.0]
['beep', 0.0, -311.404503751338, 0.0, 0.0, 0.0, 0.0, -1932.4424186280273, 0.0]
['beep', 0.0, -306.0400850820643, 0.0, 0.0, 0.0, 0.0, -1933.9176337620777, 0.0]
['beep', 0.0, -300.63096292388, 0.0, 0.0, 0.0, 0.0, -1935.0352209848431, 0.0]
['beep', 0.0, -303.04495132505315, 0.0, 0.0, 0.0, 0.0, -1934.007040739899, 0.0]
['beep', 0.0, -309.1022740724414, 0.0, 0.0, 0.0, 0.0, -1933.492950617427, 0.0]
['beep', 0.0, -309.0575705835308, 0.0, 0.0, 0.0, 0.0, -1933.3364884062396, 0.0]
['beep', 0.0, -303.69315191425704, 0.0, 0.0, 0.0, 0.0, -1933.805875039801, 0.0]
['beep', 0.0, -298.97693383418726, 0.0, 0.0, 0.0, 0.0, -1934.9011105181112, 0.0]
['beep', 0.0, -299.6698379123018, 0.0, 0.0, 0.0, 0.0, -1934.6552413291029, 0.0]
['beep', 0.0, -306.10714031543023, 0.0, 0.0, 0.0, 0.0, -1934.3870203956392, 0.0]
['beep', 0.0, -308.856404883433, 0.0, 0.0, 0.0, 0.0, -1935.1693314515749, 0.0]
['beep', 0.0, -303.35787574742744, 0.0, 0.0, 0.0, 0.0, -1933.515302361882, 0.0]
['beep', 0.0, -298.32873324498337, 0.0, 0.0, 0.0, 0.0, -1933.5376541063374, 0.0]
['beep', 0.0, -300.0721693124973, 0.0, 0.0, 0.0, 0.0, -1936.2198634409742, 0.0]
['beep', 0.0, -306.3753612488939, 0.0, 0.0, 0.0, 0.0, -1935.7951802963235, 0.0]
['beep', 0.0, -308.16350080531845, 0.0, 0.0, 0.0, 0.0, -1935.459904129494, 0.0]
['beep', 0.0, -301.72619840219005, 0.0, 0.0, 0.0, 0.0, -1934.1187994621755, 0.0]
['beep', 0.0, -296.42883496628224, 0.0, 0.0, 0.0, 0.0, -1935.4375523850385, 0.0]
['beep', 0.0, -299.60278267893585, 0.0, 0.0, 0.0, 0.0, -1936.3763256521615, 0.0]
['beep', 0.0, -305.6154019374135, 0.0, 0.0, 0.0, 0.0, -1935.459904129494, 0.0]
['beep', 0.0, -307.0012100936425, 0.0, 0.0, 0.0, 0.0, -1934.81170354029, 0.0]
['beep', 0.0, -303.179061791785, 0.0, 0.0, 0.0, 0.0, -1935.3034419183068, 0.0]
['beep', 0.0, -298.66400941181297, 0.0, 0.0, 0.0, 0.0, -1935.5940145962256, 0.0]
['beep', 0.0, -299.89335535685484, 0.0, 0.0, 0.0, 0.0, -1937.940947764033, 0.0]
['beep', 0.0, -306.3753612488939, 0.0, 0.0, 0.0, 0.0, -1937.1362849636419, 0.0]
['beep', 0.0, -307.78352114957823, 0.0, 0.0, 0.0, 0.0, -1934.968165751477, 0.0]
['beep', 0.0, -303.33552400297214, 0.0, 0.0, 0.0, 0.0, -1936.0857529742425, 0.0]
['beep', 0.0, -298.86517511191073, 0.0, 0.0, 0.0, 0.0, -1936.5774913522591, 0.0]
['beep', 0.0, -300.3627419904163, 0.0, 0.0, 0.0, 0.0, -1938.5444448643264, 0.0]
['beep', 0.0, -307.51530021611455, 0.0, 0.0, 0.0, 0.0, -1939.2149971979854, 0.0]
['beep', 0.0, -308.92346011679894, 0.0, 0.0, 0.0, 0.0, -1935.1246279626644, 0.0]
['beep', 0.0, -303.00024783614253, 0.0, 0.0, 0.0, 0.0, -1935.4822558739493, 0.0]
['beep', 0.0, -306.7106374157235, 0.0, 0.0, 0.0, 0.0, -1939.1479419646196, 0.0]
['beep', 0.0, -308.16350080531845, 0.0, 0.0, 0.0, 0.0, -1937.6503750861139, 0.0]
['beep', 0.0, -302.4638059692152, 0.0, 0.0, 0.0, 0.0, -1938.522093119871, 0.0]
['beep', 0.0, -297.25584951112864, 0.0, 0.0, 0.0, 0.0, -1938.7679623088793, 0.0]
['beep', 0.0, -299.4463204677487, 0.0, 0.0, 0.0, 0.0, -1937.6503750861139, 0.0]
['beep', 0.0, -304.54251820355876, 0.0, 0.0, 0.0, 0.0, -1937.069229730276, 0.0]
['beep', 0.0, -305.9283263597878, 0.0, 0.0, 0.0, 0.0, -1936.912767519089, 0.0]
['beep', 0.0, -301.39092223536045, 0.0, 0.0, 0.0, 0.0, -1935.6387180851364, 0.0]
['beep', 0.0, -295.5794686769806, 0.0, 0.0, 0.0, 0.0, -1936.0186977408766, 0.0]
['beep', 0.0, -296.40648322182693, 0.0, 0.0, 0.0, 0.0, -1938.0750582307649, 0.0]
['beep', 0.0, -303.64844842534643, 0.0, 0.0, 0.0, 0.0, -1938.6562035866027, 0.0]
['beep', 0.0, -306.10714031543023, 0.0, 0.0, 0.0, 0.0, -1936.3763256521615, 0.0]
['beep', 0.0, -299.89335535685484, 0.0, 0.0, 0.0, 0.0, -1935.9069390186, 0.0]
['beep', 0.0, -295.19948902124037, 0.0, 0.0, 0.0, 0.0, -1937.1586367080972, 0.0]
['beep', 0.0, -298.1499192893409, 0.0, 0.0, 0.0, 0.0, -1938.0080029973988, 0.0]
['beep', 0.0, -303.76020714762296, 0.0, 0.0, 0.0, 0.0, -1939.2149971979854, 0.0]
['beep', 0.0, -305.3471810039498, 0.0, 0.0, 0.0, 0.0, -1937.8068372973012, 0.0]
['beep', 0.0, -299.58043093448055, 0.0, 0.0, 0.0, 0.0, -1936.3763256521615, 0.0]
['beep', 0.0, -293.567811676003, 0.0, 0.0, 0.0, 0.0, -1937.359802408195, 0.0]
['beep', 0.0, -294.0148465651091, 0.0, 0.0, 0.0, 0.0, -1937.4715611304714, 0.0]
['beep', 0.0, -298.55225068953644, 0.0, 0.0, 0.0, 0.0, -1937.3150989192843, 0.0]
['beep', 0.0, -300.63096292388, 0.0, 0.0, 0.0, 0.0, -1934.968165751477, 0.0]
['beep', 0.0, -296.7864628775672, 0.0, 0.0, 0.0, 0.0, -1935.0352209848431, 0.0]
['beep', 0.0, -292.04789305304206, 0.0, 0.0, 0.0, 0.0, -1935.0352209848431, 0.0]
['beep', 0.0, -294.2830674985728, 0.0, 0.0, 0.0, 0.0, -1936.0186977408766, 0.0]
['beep', 0.0, -302.5532129470364, 0.0, 0.0, 0.0, 0.0, -1936.488084374438, 0.0]
['beep', 0.0, -305.0342565815755, 0.0, 0.0, 0.0, 0.0, -1935.0799244737536, 0.0]
['beep', 0.0, -301.1674047908074, 0.0, 0.0, 0.0, 0.0, -1935.2140349404856, 0.0]
['beep', 0.0, -295.8923930993549, 0.0, 0.0, 0.0, 0.0, -1935.973994251966, 0.0]
['beep', 0.0, -297.97110533369846, 0.0, 0.0, 0.0, 0.0, -1937.9856512529436, 0.0]
['beep', 0.0, -304.6989804147459, 0.0, 0.0, 0.0, 0.0, -1937.583319852748, 0.0]
['beep', 0.0, -306.9788583491872, 0.0, 0.0, 0.0, 0.0, -1935.973994251966, 0.0]
['beep', 0.0, -301.1897565352627, 0.0, 0.0, 0.0, 0.0, -1935.0799244737536, 0.0]
['beep', 0.0, -296.20531752172917, 0.0, 0.0, 0.0, 0.0, -1938.2538721864073, 0.0]
['beep', 0.0, -297.0770355554862, 0.0, 0.0, 0.0, 0.0, -1939.7737908093682, 0.0]
['beep', 0.0, -304.6766286702906, 0.0, 0.0, 0.0, 0.0, -1938.387982653139, 0.0]
['beep', 0.0, -307.78352114957823, 0.0, 0.0, 0.0, 0.0, -1936.0186977408766, 0.0]
['beep', 0.0, -301.68149491327944, 0.0, 0.0, 0.0, 0.0, -1936.935119263544, 0.0]
['beep', 0.0, -297.00998032212027, 0.0, 0.0, 0.0, 0.0, -1938.387982653139, 0.0]
['beep', 0.0, -298.64165766735766, 0.0, 0.0, 0.0, 0.0, -1938.7679623088793, 0.0]
['beep', 0.0, -305.0119048371202, 0.0, 0.0, 0.0, 0.0, -1939.7514390649128, 0.0]
['beep', 0.0, -307.78352114957823, 0.0, 0.0, 0.0, 0.0, -1938.8350175422452, 0.0]
['beep', 0.0, -301.39092223536045, 0.0, 0.0, 0.0, 0.0, -1935.3704971516727, 0.0]
['beep', 0.0, -295.49006169915936, 0.0, 0.0, 0.0, 0.0, -1937.1809884525526, 0.0]
['beep', 0.0, -297.4123117223158, 0.0, 0.0, 0.0, 0.0, -1940.3772879096614, 0.0]
['beep', 0.0, -304.7660356481118, 0.0, 0.0, 0.0, 0.0, -1939.8184942982787, 0.0]
['beep', 0.0, -305.6377536818688, 0.0, 0.0, 0.0, 0.0, -1937.6727268305692, 0.0]
['beep', 0.0, -300.20627977922913, 0.0, 0.0, 0.0, 0.0, -1936.0634012297871, 0.0]
['beep', 0.0, -294.7077506432236, 0.0, 0.0, 0.0, 0.0, -1937.426857641561, 0.0]
['beep', 0.0, -297.1217390443968, 0.0, 0.0, 0.0, 0.0, -1938.6338518421476, 0.0]
['beep', 0.0, -304.2295937811844, 0.0, 0.0, 0.0, 0.0, -1938.4326861420498, 0.0]
['beep', 0.0, -306.17419554879615, 0.0, 0.0, 0.0, 0.0, -1938.09740997522, 0.0]
['beep', 0.0, -301.5920879354582, 0.0, 0.0, 0.0, 0.0, -1935.8175320407788, 0.0]
['beep', 0.0, -296.7641111331119, 0.0, 0.0, 0.0, 0.0, -1937.0468779858206, 0.0]
['beep', 0.0, -298.66400941181297, 0.0, 0.0, 0.0, 0.0, -1939.2597006868962, 0.0]
['beep', 0.0, -305.4142362373157, 0.0, 0.0, 0.0, 0.0, -1938.7903140533347, 0.0]
['beep', 0.0, -307.0459135825531, 0.0, 0.0, 0.0, 0.0, -1937.4715611304714, 0.0]
['beep', 0.0, -302.1732332912962, 0.0, 0.0, 0.0, 0.0, -1936.0857529742425, 0.0]
['beep', 0.0, -296.40648322182693, 0.0, 0.0, 0.0, 0.0, -1936.555139607804, 0.0]
['beep', 0.0, -296.7641111331119, 0.0, 0.0, 0.0, 0.0, -1937.9185960195775, 0.0]
['beep', 0.0, -302.2179367802068, 0.0, 0.0, 0.0, 0.0, -1938.9691280089771, 0.0]
['beep', 0.0, -305.3695327484051, 0.0, 0.0, 0.0, 0.0, -1938.745610564424, 0.0]
['beep', 0.0, -300.4745007126928, 0.0, 0.0, 0.0, 0.0, -1938.678555331058, 0.0]
['beep', 0.0, -294.19366052075156, 0.0, 0.0, 0.0, 0.0, -1939.2820524313513, 0.0]
['beep', 0.0, -295.5571169325253, 0.0, 0.0, 0.0, 0.0, -1939.036183242343, 0.0]
['beep', 0.0, -301.10034955744146, 0.0, 0.0, 0.0, 0.0, -1938.6562035866027, 0.0]
['beep', 0.0, -302.75437864713416, 0.0, 0.0, 0.0, 0.0, -1937.1139332191865, 0.0]
['beep', 0.0, -298.26167801161745, 0.0, 0.0, 0.0, 0.0, -1938.1421134641307, 0.0]
['beep', 0.0, -292.36081747541635, 0.0, 0.0, 0.0, 0.0, -1938.3656309086837, 0.0]
['beep', 0.0, -294.9089163433214, 0.0, 0.0, 0.0, 0.0, -1939.550273364815, 0.0]
['beep', 0.0, -301.1450530463521, 0.0, 0.0, 0.0, 0.0, -1938.0527064863095, 0.0]
['beep', 0.0, -303.8272623809889, 0.0, 0.0, 0.0, 0.0, -1936.6445465856252, 0.0]
['beep', 0.0, -300.0721693124973, 0.0, 0.0, 0.0, 0.0, -1938.09740997522, 0.0]
['beep', 0.0, -294.0371983095644, 0.0, 0.0, 0.0, 0.0, -1937.9856512529436, 0.0]
['beep', 0.0, -294.77480587658954, 0.0, 0.0, 0.0, 0.0, -1939.2149971979854, 0.0]
['beep', 0.0, -301.68149491327944, 0.0, 0.0, 0.0, 0.0, -1939.9973082539211, 0.0]
['beep', 0.0, -303.71550365871235, 0.0, 0.0, 0.0, 0.0, -1939.393811153628, 0.0]
['beep', 0.0, -298.55225068953644, 0.0, 0.0, 0.0, 0.0, -1936.6892500745357, 0.0]
['beep', 0.0, -293.0537215535309, 0.0, 0.0, 0.0, 0.0, -1936.0634012297871, 0.0]
['beep', 0.0, -293.79132912055604, 0.0, 0.0, 0.0, 0.0, -1939.5726251092703, 0.0]
['beep', 0.0, -300.20627977922913, 0.0, 0.0, 0.0, 0.0, -1941.0478402433207, 0.0]
['beep', 0.0, -303.469634469704, 0.0, 0.0, 0.0, 0.0, -1938.3432791642285, 0.0]
['beep', 0.0, -299.4016169788381, 0.0, 0.0, 0.0, 0.0, -1937.2703954303738, 0.0]
['beep', 0.0, -293.45605295372644, 0.0, 0.0, 0.0, 0.0, -1939.5279216203598, 0.0]
['beep', 0.0, -295.73593088816773, 0.0, 0.0, 0.0, 0.0, -1942.5454071218262, 0.0]
['beep', 0.0, -301.39092223536045, 0.0, 0.0, 0.0, 0.0, -1941.6066338547032, 0.0]
['beep', 0.0, -303.8496141254442, 0.0, 0.0, 0.0, 0.0, -1940.1761222095636, 0.0]
['beep', 0.0, -298.1946227782515, 0.0, 0.0, 0.0, 0.0, -1938.678555331058, 0.0]
['beep', 0.0, -293.2995907425393, 0.0, 0.0, 0.0, 0.0, -1939.19264545353, 0.0]
['beep', 0.0, -295.49006169915936, 0.0, 0.0, 0.0, 0.0, -1940.1761222095636, 0.0]
['beep', 0.0, -301.502680957637, 0.0, 0.0, 0.0, 0.0, -1939.3714594091725, 0.0]
['beep', 0.0, -304.6095734369247, 0.0, 0.0, 0.0, 0.0, -1938.387982653139, 0.0]
['beep', 0.0, -299.53572744556993, 0.0, 0.0, 0.0, 0.0, -1937.6056715972034, 0.0]
['beep', 0.0, -294.3277709874834, 0.0, 0.0, 0.0, 0.0, -1938.3432791642285, 0.0]
['beep', 0.0, -295.6688756548018, 0.0, 0.0, 0.0, 0.0, -1941.1819507100524, 0.0]
['beep', 0.0, -302.597916435947, 0.0, 0.0, 0.0, 0.0, -1941.941910021533, 0.0]
['beep', 0.0, -305.0789600704861, 0.0, 0.0, 0.0, 0.0, -1938.4997413754156, 0.0]
['beep', 0.0, -300.29568675705036, 0.0, 0.0, 0.0, 0.0, -1937.9185960195775, 0.0]
['beep', 0.0, -294.2830674985728, 0.0, 0.0, 0.0, 0.0, -1939.8184942982787, 0.0]
['beep', 0.0, -296.07120705499733, 0.0, 0.0, 0.0, 0.0, -1940.8243227987675, 0.0]
['beep', 0.0, -301.4803292131817, 0.0, 0.0, 0.0, 0.0, -1939.617328598181, 0.0]
['beep', 0.0, -304.1178350589079, 0.0, 0.0, 0.0, 0.0, -1938.4997413754156, 0.0]
['beep', 0.0, -298.93223034527665, 0.0, 0.0, 0.0, 0.0, -1937.8291890417563, 0.0]
['beep', 0.0, -292.78550062006724, 0.0, 0.0, 0.0, 0.0, -1938.09740997522, 0.0]
['beep', 0.0, -296.07120705499733, 0.0, 0.0, 0.0, 0.0, -1940.4443431430273, 0.0]
['beep', 0.0, -301.68149491327944, 0.0, 0.0, 0.0, 0.0, -1939.9526047650106, 0.0]
['beep', 0.0, -304.1848902922738, 0.0, 0.0, 0.0, 0.0, -1939.4832181314491, 0.0]
['beep', 0.0, -299.96041059022076, 0.0, 0.0, 0.0, 0.0, -1938.3209274197732, 0.0]
['beep', 0.0, -294.77480587658954, 0.0, 0.0, 0.0, 0.0, -1939.2149971979854, 0.0]
['beep', 0.0, -295.87004135489957, 0.0, 0.0, 0.0, 0.0, -1941.1148954766866, 0.0]
['beep', 0.0, -301.212108279718, 0.0, 0.0, 0.0, 0.0, -1940.0643634872872, 0.0]
['beep', 0.0, -303.98372459217603, 0.0, 0.0, 0.0, 0.0, -1940.8913780321334, 0.0]
['beep', 0.0, -299.1110443009191, 0.0, 0.0, 0.0, 0.0, -1940.9807850099546, 0.0]
['beep', 0.0, -292.5172796866035, 0.0, 0.0, 0.0, 0.0, -1939.393811153628, 0.0]
['beep', 0.0, -294.3948262208493, 0.0, 0.0, 0.0, 0.0, -1942.4112966550942, 0.0]
['beep', 0.0, -300.921535601799, 0.0, 0.0, 0.0, 0.0, -1942.4112966550942, 0.0]
['beep', 0.0, -305.2577740261286, 0.0, 0.0, 0.0, 0.0, -1940.6678605875804, 0.0]
['beep', 0.0, -300.4745007126928, 0.0, 0.0, 0.0, 0.0, -1940.0643634872872, 0.0]
['beep', 0.0, -294.19366052075156, 0.0, 0.0, 0.0, 0.0, -1942.388944910639, 0.0]
['beep', 0.0, -296.11591054390794, 0.0, 0.0, 0.0, 0.0, -1942.5454071218262, 0.0]
['beep', 0.0, -303.08965481396376, 0.0, 0.0, 0.0, 0.0, -1941.159598965597, 0.0]
['beep', 0.0, -305.81656763751124, 0.0, 0.0, 0.0, 0.0, -1943.2383111999407, 0.0]
['beep', 0.0, -301.8379571244666, 0.0, 0.0, 0.0, 0.0, -1940.6231570986697, 0.0]
['beep', 0.0, -295.9818000771761, 0.0, 0.0, 0.0, 0.0, -1941.2713576878737, 0.0]
['beep', 0.0, -296.697055899746, 0.0, 0.0, 0.0, 0.0, -1943.3053664333067, 0.0]
['beep', 0.0, -302.307343758028, 0.0, 0.0, 0.0, 0.0, -1943.1265524776643, 0.0]
['beep', 0.0, -305.88362287087716, 0.0, 0.0, 0.0, 0.0, -1942.0760204882647, 0.0]
['beep', 0.0, -302.9555443472319, 0.0, 0.0, 0.0, 0.0, -1942.388944910639, 0.0]
['beep', 0.0, -299.1110443009191, 0.0, 0.0, 0.0, 0.0, -1942.7689245663794, 0.0]
['beep', 0.0, -297.0770355554862, 0.0, 0.0, 0.0, 0.0, -1942.970090266477, 0.0]
['beep', 0.0, -297.90405010033254, 0.0, 0.0, 0.0, 0.0, -1942.2101309549967, 0.0]
['beep', 0.0, -302.73202690267885, 0.0, 0.0, 0.0, 0.0, -1940.3102326762955, 0.0]
['beep', 0.0, -299.60278267893585, 0.0, 0.0, 0.0, 0.0, -1939.7067355760023, 0.0]
['beep', 0.0, -293.9030878428326, 0.0, 0.0, 0.0, 0.0, -1939.9973082539211, 0.0]
['beep', 0.0, -294.50658494312586, 0.0, 0.0, 0.0, 0.0, -1942.2324826994518, 0.0]
['beep', 0.0, -299.7815966345783, 0.0, 0.0, 0.0, 0.0, -1943.4618286444938, 0.0]
['beep', 0.0, -301.68149491327944, 0.0, 0.0, 0.0, 0.0, -1942.0536687438093, 0.0]
['beep', 0.0, -297.27820125558395, 0.0, 0.0, 0.0, 0.0, -1942.1430757216306, 0.0]
['beep', 0.0, -291.5785064194806, 0.0, 0.0, 0.0, 0.0, -1941.7854478103457, 0.0]
['beep', 0.0, -292.40552096432697, 0.0, 0.0, 0.0, 0.0, -1943.5065321334043, 0.0]
['beep', 0.0, -297.7028844002348, 0.0, 0.0, 0.0, 0.0, -1944.2888431893402, 0.0]
['beep', 0.0, -301.5473844465476, 0.0, 0.0, 0.0, 0.0, -1941.3160611767844, 0.0]
['beep', 0.0, -297.25584951112864, 0.0, 0.0, 0.0, 0.0, -1940.9584332654995, 0.0]
['beep', 0.0, -290.4609191967153, 0.0, 0.0, 0.0, 0.0, -1941.651337343614, 0.0]
['beep', 0.0, -290.8632505969108, 0.0, 0.0, 0.0, 0.0, -1942.8583315442006, 0.0]
['beep', 0.0, -297.7475878891454, 0.0, 0.0, 0.0, 0.0, -1942.8136280552899, 0.0]
['beep', 0.0, -301.9720675911984, 0.0, 0.0, 0.0, 0.0, -1940.0420117428318, 0.0]
['beep', 0.0, -296.96527683320966, 0.0, 0.0, 0.0, 0.0, -1939.3491076647174, 0.0]
['beep', 0.0, -291.8690790973996, 0.0, 0.0, 0.0, 0.0, -1940.354936165206, 0.0]
['beep', 0.0, -291.2655819971063, 0.0, 0.0, 0.0, 0.0, -1942.7689245663794, 0.0]
['beep', 0.0, -298.3510849894387, 0.0, 0.0, 0.0, 0.0, -1943.5959391112256, 0.0]
['beep', 0.0, -301.39092223536045, 0.0, 0.0, 0.0, 0.0, -1939.7737908093682, 0.0]
['beep', 0.0, -296.7417593886566, 0.0, 0.0, 0.0, 0.0, -1940.5113983763933, 0.0]
['beep', 0.0, -290.95265757473203, 0.0, 0.0, 0.0, 0.0, -1941.7630960658905, 0.0]
['beep', 0.0, -290.97500931918734, 0.0, 0.0, 0.0, 0.0, -1941.964261765988, 0.0]
['beep', 0.0, -297.0993872999415, 0.0, 0.0, 0.0, 0.0, -1941.941910021533, 0.0]
['beep', 0.0, -300.8991838573437, 0.0, 0.0, 0.0, 0.0, -1940.7349158209463, 0.0]
['beep', 0.0, -296.63000066638006, 0.0, 0.0, 0.0, 0.0, -1940.9584332654995, 0.0]
['beep', 0.0, -291.39969246383816, 0.0, 0.0, 0.0, 0.0, -1941.6960408325244, 0.0]
['beep', 0.0, -291.33263723047224, 0.0, 0.0, 0.0, 0.0, -1941.7854478103457, 0.0]
['beep', 0.0, -297.21114602221803, 0.0, 0.0, 0.0, 0.0, -1941.8525030437117, 0.0]
['beep', 0.0, -301.10034955744146, 0.0, 0.0, 0.0, 0.0, -1939.550273364815, 0.0]
['beep', 0.0, -296.47353845519285, 0.0, 0.0, 0.0, 0.0, -1938.7679623088793, 0.0]
['beep', 0.0, -290.32680872998344, 0.0, 0.0, 0.0, 0.0, -1940.2208256984743, 0.0]
['beep', 0.0, -291.2655819971063, 0.0, 0.0, 0.0, 0.0, -1941.964261765988, 0.0]
['beep', 0.0, -297.59112567795825, 0.0, 0.0, 0.0, 0.0, -1942.4112966550942, 0.0]
['beep', 0.0, -299.7815966345783, 0.0, 0.0, 0.0, 0.0, -1942.0760204882647, 0.0]
['beep', 0.0, -296.3617797329163, 0.0, 0.0, 0.0, 0.0, -1941.3831164101503, 0.0]
['beep', 0.0, -290.5950296634471, 0.0, 0.0, 0.0, 0.0, -1942.7018693330133, 0.0]
['beep', 0.0, -290.2374017521622, 0.0, 0.0, 0.0, 0.0, -1942.970090266477, 0.0]
['beep', 0.0, -298.61930592290236, 0.0, 0.0, 0.0, 0.0, -1943.260662944396, 0.0]
['beep', 0.0, -301.5697361910029, 0.0, 0.0, 0.0, 0.0, -1940.5784536097592, 0.0]
['beep', 0.0, -298.52989894508113, 0.0, 0.0, 0.0, 0.0, -1940.0420117428318, 0.0]
['beep', 0.0, -290.95265757473203, 0.0, 0.0, 0.0, 0.0, -1942.1207239771754, 0.0]
['beep', 0.0, -291.1761750192851, 0.0, 0.0, 0.0, 0.0, -1943.3500699222172, 0.0]
['beep', 0.0, -297.99345707815377, 0.0, 0.0, 0.0, 0.0, -1943.4841803889492, 0.0]
['beep', 0.0, -302.37439899139395, 0.0, 0.0, 0.0, 0.0, -1942.0760204882647, 0.0]
['beep', 0.0, -295.9594483327208, 0.0, 0.0, 0.0, 0.0, -1940.3996396541168, 0.0]
['beep', 0.0, -290.30445698552813, 0.0, 0.0, 0.0, 0.0, -1940.5113983763933, 0.0]
['beep', 0.0, -291.824375608489, 0.0, 0.0, 0.0, 0.0, -1942.612462355192, 0.0]
['beep', 0.0, -297.4793669556817, 0.0, 0.0, 0.0, 0.0, -1942.5230553773708, 0.0]
['beep', 0.0, -300.6533146683353, 0.0, 0.0, 0.0, 0.0, -1942.2995379328179, 0.0]
['beep', 0.0, -295.6912273992571, 0.0, 0.0, 0.0, 0.0, -1940.2878809318402, 0.0]
['beep', 0.0, -289.8350703519667, 0.0, 0.0, 0.0, 0.0, -1940.5337501208485, 0.0]
['beep', 0.0, -290.8632505969108, 0.0, 0.0, 0.0, 0.0, -1940.6902123320358, 0.0]
['beep', 0.0, -297.1887942777627, 0.0, 0.0, 0.0, 0.0, -1940.779619309857, 0.0]
['beep', 0.0, -301.3015152575392, 0.0, 0.0, 0.0, 0.0, -1940.8690262876783, 0.0]
['beep', 0.0, -296.56294543301414, 0.0, 0.0, 0.0, 0.0, -1939.617328598181, 0.0]
['beep', 0.0, -290.66208489681304, 0.0, 0.0, 0.0, 0.0, -1937.6503750861139, 0.0]
['beep', 0.0, -289.74566337414547, 0.0, 0.0, 0.0, 0.0, -1938.7679623088793, 0.0]
['beep', 0.0, -296.8088146220225, 0.0, 0.0, 0.0, 0.0, -1939.7067355760023, 0.0]
['beep', 0.0, -300.8544803684331, 0.0, 0.0, 0.0, 0.0, -1937.8291890417563, 0.0]
['beep', 0.0, -296.8088146220225, 0.0, 0.0, 0.0, 0.0, -1937.7844855528458, 0.0]
['beep', 0.0, -291.28793374156163, 0.0, 0.0, 0.0, 0.0, -1939.1032384757088, 0.0]
['beep', 0.0, -291.7796721195784, 0.0, 0.0, 0.0, 0.0, -1940.1090669761977, 0.0]
['beep', 0.0, -298.23932626716214, 0.0, 0.0, 0.0, 0.0, -1941.6289855991586, 0.0]
['beep', 0.0, -302.888489113866, 0.0, 0.0, 0.0, 0.0, -1939.4832181314491, 0.0]
['beep', 0.0, -298.0381605670644, 0.0, 0.0, 0.0, 0.0, -1937.940947764033, 0.0]
['beep', 0.0, -292.33846573096105, 0.0, 0.0, 0.0, 0.0, -1940.2208256984743, 0.0]
['beep', 0.0, -292.2714104975951, 0.0, 0.0, 0.0, 0.0, -1942.456000144005, 0.0]
['beep', 0.0, -298.8204716230001, 0.0, 0.0, 0.0, 0.0, -1942.4783518884603, 0.0]
['beep', 0.0, -301.68149491327944, 0.0, 0.0, 0.0, 0.0, -1940.8913780321334, 0.0]
['beep', 0.0, -297.5240704445923, 0.0, 0.0, 0.0, 0.0, -1940.4443431430273, 0.0]
['beep', 0.0, -292.07024479749737, 0.0, 0.0, 0.0, 0.0, -1940.4219913985721, 0.0]
['beep', 0.0, -292.02554130858675, 0.0, 0.0, 0.0, 0.0, -1941.4948751324268, 0.0]
['beep', 0.0, -297.4793669556817, 0.0, 0.0, 0.0, 0.0, -1942.0760204882647, 0.0]
['beep', 0.0, -301.10034955744146, 0.0, 0.0, 0.0, 0.0, -1940.6008053542146, 0.0]
['beep', 0.0, -297.23349776667334, 0.0, 0.0, 0.0, 0.0, -1938.3656309086837, 0.0]
['beep', 0.0, -291.73496863066777, 0.0, 0.0, 0.0, 0.0, -1939.2149971979854, 0.0]
['beep', 0.0, -291.1985267637404, 0.0, 0.0, 0.0, 0.0, -1939.8184942982787, 0.0]
['beep', 0.0, -297.8146431225113, 0.0, 0.0, 0.0, 0.0, -1940.6678605875804, 0.0]
['beep', 0.0, -302.35204724693864, 0.0, 0.0, 0.0, 0.0, -1941.5395786213373, 0.0]
['beep', 0.0, -296.7417593886566, 0.0, 0.0, 0.0, 0.0, -1939.8855495316448, 0.0]
['beep', 0.0, -291.4890994416594, 0.0, 0.0, 0.0, 0.0, -1938.8573692867005, 0.0]
['beep', 0.0, -292.6737418977907, 0.0, 0.0, 0.0, 0.0, -1939.9079012761, 0.0]
['beep', 0.0, -299.24515476765094, 0.0, 0.0, 0.0, 0.0, -1940.1537704651084, 0.0]
['beep', 0.0, -301.9050123578325, 0.0, 0.0, 0.0, 0.0, -1939.7961425538235, 0.0]
['beep', 0.0, -298.0605123115197, 0.0, 0.0, 0.0, 0.0, -1938.745610564424, 0.0]
['beep', 0.0, -292.1596517753186, 0.0, 0.0, 0.0, 0.0, -1939.6620320870916, 0.0]
['beep', 0.0, -293.21018376471807, 0.0, 0.0, 0.0, 0.0, -1941.0478402433207, 0.0]
['beep', 0.0, -298.7087129007236, 0.0, 0.0, 0.0, 0.0, -1940.3102326762955, 0.0]
['beep', 0.0, -301.5473844465476, 0.0, 0.0, 0.0, 0.0, -1939.2597006868962, 0.0]
['beep', 0.0, -298.373436733894, 0.0, 0.0, 0.0, 0.0, -1939.4385146425386, 0.0]
['beep', 0.0, -294.48423319867055, 0.0, 0.0, 0.0, 0.0, -1940.712564076491, 0.0]
['beep', 0.0, -293.0537215535309, 0.0, 0.0, 0.0, 0.0, -1941.2266541989632, 0.0]
['beep', 0.0, -299.24515476765094, 0.0, 0.0, 0.0, 0.0, -1939.550273364815, 0.0]
['beep', 0.0, -301.5473844465476, 0.0, 0.0, 0.0, 0.0, -1937.3150989192843, 0.0]
['beep', 0.0, -297.4123117223158, 0.0, 0.0, 0.0, 0.0, -1939.0808867312537, 0.0]
['beep', 0.0, -291.71261688621246, 0.0, 0.0, 0.0, 0.0, -1938.9467762645218, 0.0]
['beep', 0.0, -292.40552096432697, 0.0, 0.0, 0.0, 0.0, -1940.3996396541168, 0.0]
['beep', 0.0, -298.373436733894, 0.0, 0.0, 0.0, 0.0, -1942.2324826994518, 0.0]
['beep', 0.0, -302.4861577136705, 0.0, 0.0, 0.0, 0.0, -1941.1148954766866, 0.0]
['beep', 0.0, -299.4239687232934, 0.0, 0.0, 0.0, 0.0, -1938.81266579779, 0.0]
['beep', 0.0, -293.3889977203605, 0.0, 0.0, 0.0, 0.0, -1940.7349158209463, 0.0]
['beep', 0.0, -293.277238998084, 0.0, 0.0, 0.0, 0.0, -1941.2490059434183, 0.0]
['beep', 0.0, -300.5639076905141, 0.0, 0.0, 0.0, 0.0, -1941.0478402433207, 0.0]
['beep', 0.0, -303.5813931919805, 0.0, 0.0, 0.0, 0.0, -1940.2878809318402, 0.0]
['beep', 0.0, -299.7815966345783, 0.0, 0.0, 0.0, 0.0, -1940.1090669761977, 0.0]
['beep', 0.0, -293.85838435392196, 0.0, 0.0, 0.0, 0.0, -1940.712564076491, 0.0]
['beep', 0.0, -290.147994774341, 0.0, 0.0, 0.0, 0.0, -1937.4715611304714, 0.0]
['beep', 0.0, -289.6115529074136, 0.0, 0.0, 0.0, 0.0, -1937.2703954303738, 0.0]
['beep', 0.0, -297.92640184478785, 0.0, 0.0, 0.0, 0.0, -1937.6950785750246, 0.0]
['beep', 0.0, -304.07313156999726, 0.0, 0.0, 0.0, 0.0, -1937.5609681082926, 0.0]
['beep', 0.0, -300.4745007126928, 0.0, 0.0, 0.0, 0.0, -1937.2480436859184, 0.0]
['beep', 0.0, -295.6912273992571, 0.0, 0.0, 0.0, 0.0, -1939.1255902201642, 0.0]
['beep', 0.0, -295.6688756548018, 0.0, 0.0, 0.0, 0.0, -1940.6231570986697, 0.0]
['beep', 0.0, -301.68149491327944, 0.0, 0.0, 0.0, 0.0, -1940.5337501208485, 0.0]
['beep', 0.0, -306.0400850820643, 0.0, 0.0, 0.0, 0.0, -1939.7290873204574, 0.0]
['beep', 0.0, -302.5532129470364, 0.0, 0.0, 0.0, 0.0, -1939.4832181314491, 0.0]
['beep', 0.0, -294.9312680877767, 0.0, 0.0, 0.0, 0.0, -1940.6678605875804, 0.0]
['beep', 0.0, -296.697055899746, 0.0, 0.0, 0.0, 0.0, -1941.00313675441, 0.0]
['beep', 0.0, -302.9108408583213, 0.0, 0.0, 0.0, 0.0, -1940.0643634872872, 0.0]
['beep', 0.0, -306.9341548602766, 0.0, 0.0, 0.0, 0.0, -1941.0925437322312, 0.0]
['beep', 0.0, -303.8496141254442, 0.0, 0.0, 0.0, 0.0, -1938.8350175422452, 0.0]
['beep', 0.0, -295.9370965882655, 0.0, 0.0, 0.0, 0.0, -1938.2985756753178, 0.0]
['beep', 0.0, -296.0265035660867, 0.0, 0.0, 0.0, 0.0, -1940.0867152317423, 0.0]
['beep', 0.0, -302.66497166931293, 0.0, 0.0, 0.0, 0.0, -1939.4608663869938, 0.0]
['beep', 0.0, -306.9118031158213, 0.0, 0.0, 0.0, 0.0, -1938.7009070755134, 0.0]
['beep', 0.0, -302.2179367802068, 0.0, 0.0, 0.0, 0.0, -1938.9467762645218, 0.0]
['beep', 0.0, -294.953619832232, 0.0, 0.0, 0.0, 0.0, -1939.8184942982787, 0.0]
['beep', 0.0, -294.663047154313, 0.0, 0.0, 0.0, 0.0, -1940.5561018653038, 0.0]
['beep', 0.0, -300.72036990170125, 0.0, 0.0, 0.0, 0.0, -1938.9244245200664, 0.0]
['beep', 0.0, -304.9672013482096, 0.0, 0.0, 0.0, 0.0, -1938.5891483532369, 0.0]
['beep', 0.0, -301.2344600241733, 0.0, 0.0, 0.0, 0.0, -1937.5386163638375, 0.0]
['beep', 0.0, -294.3948262208493, 0.0, 0.0, 0.0, 0.0, -1938.2985756753178, 0.0]
['beep', 0.0, -295.13243378787445, 0.0, 0.0, 0.0, 0.0, -1939.9302530205553, 0.0]
['beep', 0.0, -300.4074454793269, 0.0, 0.0, 0.0, 0.0, -1938.5667966087815, 0.0]
['beep', 0.0, -304.78838739256713, 0.0, 0.0, 0.0, 0.0, -1936.0857529742425, 0.0]
['beep', 0.0, -301.10034955744146, 0.0, 0.0, 0.0, 0.0, -1936.130456463153, 0.0]
['beep', 0.0, -294.84186110995546, 0.0, 0.0, 0.0, 0.0, -1937.6056715972034, 0.0]
['beep', 0.0, -296.2500210106398, 0.0, 0.0, 0.0, 0.0, -1938.09740997522, 0.0]
['beep', 0.0, -302.1508815468409, 0.0, 0.0, 0.0, 0.0, -1937.8962442751224, 0.0]
['beep', 0.0, -305.3695327484051, 0.0, 0.0, 0.0, 0.0, -1937.0468779858206, 0.0]
['beep', 0.0, -301.03329432407554, 0.0, 0.0, 0.0, 0.0, -1935.973994251966, 0.0]
['beep', 0.0, -296.2723727550951, 0.0, 0.0, 0.0, 0.0, -1936.8680640301782, 0.0]
['beep', 0.0, -296.09355879945264, 0.0, 0.0, 0.0, 0.0, -1936.7563053079016, 0.0]
['beep', 0.0, -301.6144396799135, 0.0, 0.0, 0.0, 0.0, -1937.7621338083904, 0.0]
['beep', 0.0, -306.12949205988554, 0.0, 0.0, 0.0, 0.0, -1936.3986773966167, 0.0]
['beep', 0.0, -302.70967515822355, 0.0, 0.0, 0.0, 0.0, -1936.5104361188933, 0.0]
['beep', 0.0, -296.18296577727386, 0.0, 0.0, 0.0, 0.0, -1937.6950785750246, 0.0]
['beep', 0.0, -294.9759715766873, 0.0, 0.0, 0.0, 0.0, -1937.3150989192843, 0.0]
['beep', 0.0, -300.25098326813975, 0.0, 0.0, 0.0, 0.0, -1937.2480436859184, 0.0]
['beep', 0.0, -303.40257923633806, 0.0, 0.0, 0.0, 0.0, -1937.4939128749268, 0.0]
['beep', 0.0, -301.01094257962023, 0.0, 0.0, 0.0, 0.0, -1935.8398837852342, 0.0]
['beep', 0.0, -295.49006169915936, 0.0, 0.0, 0.0, 0.0, -1937.0468779858206, 0.0]
['beep', 0.0, -295.87004135489957, 0.0, 0.0, 0.0, 0.0, -1937.6503750861139, 0.0]
['beep', 0.0, -301.36857049090514, 0.0, 0.0, 0.0, 0.0, -1938.7009070755134, 0.0]
['beep', 0.0, -305.3248292594945, 0.0, 0.0, 0.0, 0.0, -1936.197511696519, 0.0]
['beep', 0.0, -300.8991838573437, 0.0, 0.0, 0.0, 0.0, -1935.7951802963235, 0.0]
['beep', 0.0, -294.3054192430281, 0.0, 0.0, 0.0, 0.0, -1937.5609681082926, 0.0]
['beep', 0.0, -293.6348669093689, 0.0, 0.0, 0.0, 0.0, -1937.4939128749268, 0.0]
['beep', 0.0, -300.4521489682375, 0.0, 0.0, 0.0, 0.0, -1938.0750582307649, 0.0]
['beep', 0.0, -305.23542228167327, 0.0, 0.0, 0.0, 0.0, -1937.0468779858206, 0.0]
['beep', 0.0, -301.9050123578325, 0.0, 0.0, 0.0, 0.0, -1935.8622355296893, 0.0]
['beep', 0.0, -296.5405936885588, 0.0, 0.0, 0.0, 0.0, -1936.8233605412677, 0.0]
['beep', 0.0, -297.0770355554862, 0.0, 0.0, 0.0, 0.0, -1937.8291890417563, 0.0]
['beep', 0.0, -302.1955850357515, 0.0, 0.0, 0.0, 0.0, -1940.0643634872872, 0.0]
['beep', 0.0, -306.7553409046341, 0.0, 0.0, 0.0, 0.0, -1939.9079012761, 0.0]
['beep', 0.0, -303.179061791785, 0.0, 0.0, 0.0, 0.0, -1937.1586367080972, 0.0]
['beep', 0.0, -296.2947244995504, 0.0, 0.0, 0.0, 0.0, -1937.1362849636419, 0.0]
['beep', 0.0, -295.9818000771761, 0.0, 0.0, 0.0, 0.0, -1937.4045058971055, 0.0]
['beep', 0.0, -303.179061791785, 0.0, 0.0, 0.0, 0.0, -1939.7290873204574, 0.0]
['beep', 0.0, -307.53765196056986, 0.0, 0.0, 0.0, 0.0, -1938.5891483532369, 0.0]
['beep', 0.0, -304.02842808108664, 0.0, 0.0, 0.0, 0.0, -1936.3763256521615, 0.0]
['beep', 0.0, -296.8088146220225, 0.0, 0.0, 0.0, 0.0, -1937.1139332191865, 0.0]
['beep', 0.0, -295.49006169915936, 0.0, 0.0, 0.0, 0.0, -1938.09740997522, 0.0]
['beep', 0.0, -301.502680957637, 0.0, 0.0, 0.0, 0.0, -1937.6950785750246, 0.0]
['beep', 0.0, -305.9506781042431, 0.0, 0.0, 0.0, 0.0, -1936.6892500745357, 0.0]
['beep', 0.0, -301.9273641022878, 0.0, 0.0, 0.0, 0.0, -1936.1751599520637, 0.0]
['beep', 0.0, -296.3170762440057, 0.0, 0.0, 0.0, 0.0, -1936.6892500745357, 0.0]
['beep', 0.0, -294.9089163433214, 0.0, 0.0, 0.0, 0.0, -1936.1528082076084, 0.0]
['beep', 0.0, -300.9885908351649, 0.0, 0.0, 0.0, 0.0, -1938.879721031156, 0.0]
['beep', 0.0, -305.14601530385204, 0.0, 0.0, 0.0, 0.0, -1936.912767519089, 0.0]
['beep', 0.0, -302.4638059692152, 0.0, 0.0, 0.0, 0.0, -1935.102276218209, 0.0]
['beep', 0.0, -296.697055899746, 0.0, 0.0, 0.0, 0.0, -1937.4045058971055, 0.0]
['beep', 0.0, -296.87586985538843, 0.0, 0.0, 0.0, 0.0, -1937.069229730276, 0.0]
['beep', 0.0, -301.9273641022878, 0.0, 0.0, 0.0, 0.0, -1939.2597006868962, 0.0]
['beep', 0.0, -307.4258932382933, 0.0, 0.0, 0.0, 0.0, -1937.5386163638375, 0.0]
['beep', 0.0, -303.469634469704, 0.0, 0.0, 0.0, 0.0, -1937.6503750861139, 0.0]
['beep', 0.0, -297.00998032212027, 0.0, 0.0, 0.0, 0.0, -1938.4997413754156, 0.0]
['beep', 0.0, -296.89822159984374, 0.0, 0.0, 0.0, 0.0, -1940.5561018653038, 0.0]
['beep', 0.0, -302.35204724693864, 0.0, 0.0, 0.0, 0.0, -1941.2266541989632, 0.0]
['beep', 0.0, -307.0906170714637, 0.0, 0.0, 0.0, 0.0, -1938.9020727756113, 0.0]
['beep', 0.0, -303.4919862141593, 0.0, 0.0, 0.0, 0.0, -1936.0634012297871, 0.0]
['beep', 0.0, -297.27820125558395, 0.0, 0.0, 0.0, 0.0, -1938.3209274197732, 0.0]
['beep', 0.0, -297.27820125558395, 0.0, 0.0, 0.0, 0.0, -1940.332584420751, 0.0]
['beep', 0.0, -303.8049106365336, 0.0, 0.0, 0.0, 0.0, -1937.426857641561, 0.0]
['beep', 0.0, -306.15184380434084, 0.0, 0.0, 0.0, 0.0, -1936.555139607804, 0.0]
['beep', 0.0, -303.8049106365336, 0.0, 0.0, 0.0, 0.0, -1937.4715611304714, 0.0]
['beep', 0.0, -296.96527683320966, 0.0, 0.0, 0.0, 0.0, -1938.164465208586, 0.0]
['beep', 0.0, -296.07120705499733, 0.0, 0.0, 0.0, 0.0, -1939.4608663869938, 0.0]
['beep', 0.0, -302.39675073584925, 0.0, 0.0, 0.0, 0.0, -1939.4832181314491, 0.0]
['beep', 0.0, -306.9565066047319, 0.0, 0.0, 0.0, 0.0, -1938.2985756753178, 0.0]
['beep', 0.0, -303.5813931919805, 0.0, 0.0, 0.0, 0.0, -1937.2033401970077, 0.0]
['beep', 0.0, -297.792291378056, 0.0, 0.0, 0.0, 0.0, -1938.3432791642285, 0.0]
['beep', 0.0, -296.07120705499733, 0.0, 0.0, 0.0, 0.0, -1939.684383831547, 0.0]
['beep', 0.0, -301.212108279718, 0.0, 0.0, 0.0, 0.0, -1940.0867152317423, 0.0]
['beep', 0.0, -306.2636025266174, 0.0, 0.0, 0.0, 0.0, -1938.7232588199688, 0.0]
['beep', 0.0, -301.9720675911984, 0.0, 0.0, 0.0, 0.0, -1937.8962442751224, 0.0]
['beep', 0.0, -295.87004135489957, 0.0, 0.0, 0.0, 0.0, -1937.225691941463, 0.0]
['beep', 0.0, -295.51241344361466, 0.0, 0.0, 0.0, 0.0, -1938.3656309086837, 0.0]
['beep', 0.0, -301.2568117686286, 0.0, 0.0, 0.0, 0.0, -1939.393811153628, 0.0]
['beep', 0.0, -305.3024775150392, 0.0, 0.0, 0.0, 0.0, -1938.164465208586, 0.0]
['beep', 0.0, -302.2402885246621, 0.0, 0.0, 0.0, 0.0, -1936.9798227524548, 0.0]
['beep', 0.0, -297.0770355554862, 0.0, 0.0, 0.0, 0.0, -1936.8904157746335, 0.0]
['beep', 0.0, -296.63000066638006, 0.0, 0.0, 0.0, 0.0, -1939.4832181314491, 0.0]
['beep', 0.0, -302.44145422475987, 0.0, 0.0, 0.0, 0.0, -1940.9807850099546, 0.0]
['beep', 0.0, -306.3530095044386, 0.0, 0.0, 0.0, 0.0, -1938.3209274197732, 0.0]
['beep', 0.0, -303.64844842534643, 0.0, 0.0, 0.0, 0.0, -1938.8350175422452, 0.0]
['beep', 0.0, -296.98762857766496, 0.0, 0.0, 0.0, 0.0, -1939.550273364815, 0.0]
['beep', 0.0, -296.42883496628224, 0.0, 0.0, 0.0, 0.0, -1941.2043024545078, 0.0]
['beep', 0.0, -302.4638059692152, 0.0, 0.0, 0.0, 0.0, -1941.00313675441, 0.0]
['beep', 0.0, -305.45893972622633, 0.0, 0.0, 0.0, 0.0, -1938.2538721864073, 0.0]
['beep', 0.0, -303.469634469704, 0.0, 0.0, 0.0, 0.0, -1936.6892500745357, 0.0]
['beep', 0.0, -296.96527683320966, 0.0, 0.0, 0.0, 0.0, -1938.4997413754156, 0.0]
['beep', 0.0, -296.3841314773716, 0.0, 0.0, 0.0, 0.0, -1940.354936165206, 0.0]
['beep', 0.0, -302.7990821360448, 0.0, 0.0, 0.0, 0.0, -1941.0254884988653, 0.0]
['beep', 0.0, -307.403541493838, 0.0, 0.0, 0.0, 0.0, -1939.5055698759045, 0.0]
['beep', 0.0, -305.0342565815755, 0.0, 0.0, 0.0, 0.0, -1937.9632995084883, 0.0]
['beep', 0.0, -297.8146431225113, 0.0, 0.0, 0.0, 0.0, -1938.6562035866027, 0.0]
['beep', 0.0, -297.32290474449456, 0.0, 0.0, 0.0, 0.0, -1940.5784536097592, 0.0]
['beep', 0.0, -303.1343583028744, 0.0, 0.0, 0.0, 0.0, -1939.3714594091725, 0.0]
['beep', 0.0, -307.85057638294415, 0.0, 0.0, 0.0, 0.0, -1938.6338518421476, 0.0]
['beep', 0.0, -305.12366355939673, 0.0, 0.0, 0.0, 0.0, -1938.9467762645218, 0.0]
['beep', 0.0, -297.54642218904763, 0.0, 0.0, 0.0, 0.0, -1937.7621338083904, 0.0]
['beep', 0.0, -296.51824194410347, 0.0, 0.0, 0.0, 0.0, -1938.7009070755134, 0.0]
['beep', 0.0, -303.11200655841907, 0.0, 0.0, 0.0, 0.0, -1938.9244245200664, 0.0]
['beep', 0.0, -307.984686849676, 0.0, 0.0, 0.0, 0.0, -1936.3539739077062, 0.0]
['beep', 0.0, -305.19071879276265, 0.0, 0.0, 0.0, 0.0, -1937.225691941463, 0.0]
['beep', 0.0, -297.8593466114219, 0.0, 0.0, 0.0, 0.0, -1938.4997413754156, 0.0]
['beep', 0.0, -296.07120705499733, 0.0, 0.0, 0.0, 0.0, -1938.9020727756113, 0.0]
['beep', 0.0, -301.5250327020923, 0.0, 0.0, 0.0, 0.0, -1941.2490059434183, 0.0]
['beep', 0.0, -307.3588380049274, 0.0, 0.0, 0.0, 0.0, -1938.387982653139, 0.0]
['beep', 0.0, -305.12366355939673, 0.0, 0.0, 0.0, 0.0, -1937.2480436859184, 0.0]
['beep', 0.0, -299.26750651210625, 0.0, 0.0, 0.0, 0.0, -1937.6503750861139, 0.0]
['beep', 0.0, -298.0605123115197, 0.0, 0.0, 0.0, 0.0, -1939.4385146425386, 0.0]
['beep', 0.0, -304.00607633663134, 0.0, 0.0, 0.0, 0.0, -1940.3102326762955, 0.0]
['beep', 0.0, -308.2529077831397, 0.0, 0.0, 0.0, 0.0, -1938.9914797534325, 0.0]
['beep', 0.0, -305.0789600704861, 0.0, 0.0, 0.0, 0.0, -1938.3432791642285, 0.0]
['beep', 0.0, -299.1110443009191, 0.0, 0.0, 0.0, 0.0, -1938.387982653139, 0.0]
['beep', 0.0, -299.3569134899275, 0.0, 0.0, 0.0, 0.0, -1941.293709432329, 0.0]
['beep', 0.0, -305.9283263597878, 0.0, 0.0, 0.0, 0.0, -1940.0643634872872, 0.0]
['beep', 0.0, -310.0633990840196, 0.0, 0.0, 0.0, 0.0, -1936.3763256521615, 0.0]
['beep', 0.0, -306.55417520453636, 0.0, 0.0, 0.0, 0.0, -1935.5269593628598, 0.0]
['beep', 0.0, -300.0051140791314, 0.0, 0.0, 0.0, 0.0, -1937.3150989192843, 0.0]
['beep', 0.0, -299.4463204677487, 0.0, 0.0, 0.0, 0.0, -1938.6115000976922, 0.0]
['beep', 0.0, -304.7436839036565, 0.0, 0.0, 0.0, 0.0, -1939.9526047650106, 0.0]
['beep', 0.0, -309.0575705835308, 0.0, 0.0, 0.0, 0.0, -1938.2538721864073, 0.0]
['beep', 0.0, -304.6989804147459, 0.0, 0.0, 0.0, 0.0, -1937.069229730276, 0.0]
['beep', 0.0, -295.8923930993549, 0.0, 0.0, 0.0, 0.0, -1937.0245262413653, 0.0]
['beep', 0.0, -296.2723727550951, 0.0, 0.0, 0.0, 0.0, -1938.1421134641307, 0.0]
['beep', 0.0, -308.5434804610587, 0.0, 0.0, 0.0, 0.0, -1939.393811153628, 0.0]
['beep', 0.0, -317.0371433540754, 0.0, 0.0, 0.0, 0.0, -1940.2878809318402, 0.0]
['beep', 0.0, -315.69603868675694, 0.0, 0.0, 0.0, 0.0, -1937.359802408195, 0.0]
['beep', 0.0, -306.88945137136596, 0.0, 0.0, 0.0, 0.0, -1937.4045058971055, 0.0]
['beep', 0.0, -304.1848902922738, 0.0, 0.0, 0.0, 0.0, -1939.1479419646196, 0.0]
['beep', 0.0, -310.4433787397598, 0.0, 0.0, 0.0, 0.0, -1939.7737908093682, 0.0]
['beep', 0.0, -314.9360793752765, 0.0, 0.0, 0.0, 0.0, -1938.3656309086837, 0.0]
['beep', 0.0, -311.31509677351676, 0.0, 0.0, 0.0, 0.0, -1938.9914797534325, 0.0]
['beep', 0.0, -304.58722169246937, 0.0, 0.0, 0.0, 0.0, -1939.326755920262, 0.0]
['beep', 0.0, -304.1848902922738, 0.0, 0.0, 0.0, 0.0, -1941.293709432329, 0.0]
['beep', 0.0, -309.8175298950112, 0.0, 0.0, 0.0, 0.0, -1941.0254884988653, 0.0]
['beep', 0.0, -313.5055677301369, 0.0, 0.0, 0.0, 0.0, -1937.9185960195775, 0.0]
['beep', 0.0, -312.4550357407374, 0.0, 0.0, 0.0, 0.0, -1936.2422151854296, 0.0]
['beep', 0.0, -306.7329891601788, 0.0, 0.0, 0.0, 0.0, -1937.940947764033, 0.0]
['beep', 0.0, -304.36370424791625, 0.0, 0.0, 0.0, 0.0, -1939.393811153628, 0.0]
['beep', 0.0, -309.68341942827936, 0.0, 0.0, 0.0, 0.0, -1938.522093119871, 0.0]
['beep', 0.0, -314.08671308597485, 0.0, 0.0, 0.0, 0.0, -1937.6056715972034, 0.0]
['beep', 0.0, -310.93511711777654, 0.0, 0.0, 0.0, 0.0, -1936.6668983300804, 0.0]
['beep', 0.0, -305.5930501929582, 0.0, 0.0, 0.0, 0.0, -1938.9467762645218, 0.0]
['beep', 0.0, -303.4919862141593, 0.0, 0.0, 0.0, 0.0, -1941.2490059434183, 0.0]
['beep', 0.0, -308.16350080531845, 0.0, 0.0, 0.0, 0.0, -1939.1479419646196, 0.0]
['beep', 0.0, -312.9467741187542, 0.0, 0.0, 0.0, 0.0, -1938.0303547418541, 0.0]
['beep', 0.0, -311.00217235114246, 0.0, 0.0, 0.0, 0.0, -1937.225691941463, 0.0]
['beep', 0.0, -304.85544262593305, 0.0, 0.0, 0.0, 0.0, -1938.5891483532369, 0.0]
['beep', 0.0, -302.6426199248576, 0.0, 0.0, 0.0, 0.0, -1939.7067355760023, 0.0]
['beep', 0.0, -308.0517420830419, 0.0, 0.0, 0.0, 0.0, -1939.7737908093682, 0.0]
['beep', 0.0, -313.79614040805586, 0.0, 0.0, 0.0, 0.0, -1938.5444448643264, 0.0]
['beep', 0.0, -311.0468758400531, 0.0, 0.0, 0.0, 0.0, -1936.8233605412677, 0.0]
['beep', 0.0, -305.23542228167327, 0.0, 0.0, 0.0, 0.0, -1938.164465208586, 0.0]
['beep', 0.0, -303.02259958059784, 0.0, 0.0, 0.0, 0.0, -1938.7009070755134, 0.0]
['beep', 0.0, -308.3646665054162, 0.0, 0.0, 0.0, 0.0, -1940.4666948874826, 0.0]
['beep', 0.0, -314.1984718082514, 0.0, 0.0, 0.0, 0.0, -1940.4443431430273, 0.0]
['beep', 0.0, -311.69507642925697, 0.0, 0.0, 0.0, 0.0, -1937.71743031948, 0.0]
['beep', 0.0, -305.0789600704861, 0.0, 0.0, 0.0, 0.0, -1938.2538721864073, 0.0]
['beep', 0.0, -302.1508815468409, 0.0, 0.0, 0.0, 0.0, -1940.645508843125, 0.0]
['beep', 0.0, -309.146977561352, 0.0, 0.0, 0.0, 0.0, -1941.1819507100524, 0.0]
['beep', 0.0, -314.6455066973575, 0.0, 0.0, 0.0, 0.0, -1941.00313675441, 0.0]
['beep', 0.0, -312.8350153964777, 0.0, 0.0, 0.0, 0.0, -1939.0585349867983, 0.0]
['beep', 0.0, -306.0400850820643, 0.0, 0.0, 0.0, 0.0, -1939.4385146425386, 0.0]
['beep', 0.0, -305.3024775150392, 0.0, 0.0, 0.0, 0.0, -1940.0420117428318, 0.0]
['beep', 0.0, -310.28691652857265, 0.0, 0.0, 0.0, 0.0, -1938.3656309086837, 0.0]
['beep', 0.0, -314.824320653, 0.0, 0.0, 0.0, 0.0, -1939.2149971979854, 0.0]
['beep', 0.0, -312.4326839962821, 0.0, 0.0, 0.0, 0.0, -1938.0527064863095, 0.0]
['beep', 0.0, -305.88362287087716, 0.0, 0.0, 0.0, 0.0, -1938.4103343975944, 0.0]
['beep', 0.0, -304.36370424791625, 0.0, 0.0, 0.0, 0.0, -1940.6008053542146, 0.0]
['beep', 0.0, -309.7728264061006, 0.0, 0.0, 0.0, 0.0, -1939.617328598181, 0.0]
['beep', 0.0, -314.9360793752765, 0.0, 0.0, 0.0, 0.0, -1938.1421134641307, 0.0]
['beep', 0.0, -312.3656287629162, 0.0, 0.0, 0.0, 0.0, -1936.7563053079016, 0.0]
['beep', 0.0, -306.19654729325146, 0.0, 0.0, 0.0, 0.0, -1938.0527064863095, 0.0]
['beep', 0.0, -304.9672013482096, 0.0, 0.0, 0.0, 0.0, -1938.7232588199688, 0.0]
['beep', 0.0, -310.1751578062961, 0.0, 0.0, 0.0, 0.0, -1939.9973082539211, 0.0]
['beep', 0.0, -316.36659102041614, 0.0, 0.0, 0.0, 0.0, -1939.617328598181, 0.0]
['beep', 0.0, -313.46086424122626, 0.0, 0.0, 0.0, 0.0, -1937.6056715972034, 0.0]
['beep', 0.0, -305.3695327484051, 0.0, 0.0, 0.0, 0.0, -1940.489046631938, 0.0]
['beep', 0.0, -304.85544262593305, 0.0, 0.0, 0.0, 0.0, -1941.1148954766866, 0.0]
['beep', 0.0, -310.4880822286704, 0.0, 0.0, 0.0, 0.0, -1940.8913780321334, 0.0]
['beep', 0.0, -315.5172247311145, 0.0, 0.0, 0.0, 0.0, -1940.7349158209463, 0.0]
['beep', 0.0, -313.46086424122626, 0.0, 0.0, 0.0, 0.0, -1938.678555331058, 0.0]
['beep', 0.0, -307.53765196056986, 0.0, 0.0, 0.0, 0.0, -1939.5055698759045, 0.0]
['beep', 0.0, -305.54834670404756, 0.0, 0.0, 0.0, 0.0, -1942.1207239771754, 0.0]
['beep', 0.0, -310.68924792876817, 0.0, 0.0, 0.0, 0.0, -1941.6066338547032, 0.0]
['beep', 0.0, -315.2490037976508, 0.0, 0.0, 0.0, 0.0, -1941.4054681546056, 0.0]
['beep', 0.0, -313.0138293521201, 0.0, 0.0, 0.0, 0.0, -1939.9526047650106, 0.0]
['beep', 0.0, -305.436587981771, 0.0, 0.0, 0.0, 0.0, -1939.393811153628, 0.0]
['beep', 0.0, -305.0342565815755, 0.0, 0.0, 0.0, 0.0, -1940.6008053542146, 0.0]
['beep', 0.0, -311.56096596252513, 0.0, 0.0, 0.0, 0.0, -1939.9526047650106, 0.0]
['beep', 0.0, -316.59010846496926, 0.0, 0.0, 0.0, 0.0, -1939.8855495316448, 0.0]
['beep', 0.0, -314.80196890854467, 0.0, 0.0, 0.0, 0.0, -1938.7232588199688, 0.0]
['beep', 0.0, -307.3141345160168, 0.0, 0.0, 0.0, 0.0, -1939.2597006868962, 0.0]
['beep', 0.0, -305.7048089152347, 0.0, 0.0, 0.0, 0.0, -1941.0701919877758, 0.0]
['beep', 0.0, -309.63871593936875, 0.0, 0.0, 0.0, 0.0, -1940.846674543223, 0.0]
['beep', 0.0, -315.5172247311145, 0.0, 0.0, 0.0, 0.0, -1939.393811153628, 0.0]
['beep', 0.0, -314.39963750834914, 0.0, 0.0, 0.0, 0.0, -1936.8680640301782, 0.0]
['beep', 0.0, -307.2694310271062, 0.0, 0.0, 0.0, 0.0, -1937.8515407862117, 0.0]
['beep', 0.0, -305.5930501929582, 0.0, 0.0, 0.0, 0.0, -1938.2091686974966, 0.0]
['beep', 0.0, -312.49973922964807, 0.0, 0.0, 0.0, 0.0, -1936.3763256521615, 0.0]
['beep', 0.0, -316.2995357870502, 0.0, 0.0, 0.0, 0.0, -1934.588186095737, 0.0]
['beep', 0.0, -313.39380900786034, 0.0, 0.0, 0.0, 0.0, -1935.0128692403878, 0.0]
['beep', 0.0, -306.48711997117044, 0.0, 0.0, 0.0, 0.0, -1933.358840150695, 0.0]
['beep', 0.0, -305.19071879276265, 0.0, 0.0, 0.0, 0.0, -1931.8836250166448, 0.0]
['beep', 0.0, -311.3821520068827, 0.0, 0.0, 0.0, 0.0, -1929.939023249033, 0.0]
['beep', 0.0, -315.91955613131, 0.0, 0.0, 0.0, 0.0, -1924.5075493463935, 0.0]
['beep', 0.0, -313.6396781968687, 0.0, 0.0, 0.0, 0.0, -1919.4337033550387, 0.0]
['beep', 0.0, -309.34814326144976, 0.0, 0.0, 0.0, 0.0, -1913.5551945632928, 0.0]
['beep', 0.0, -308.4093699943268, 0.0, 0.0, 0.0, 0.0, -1907.3190578602623, 0.0]
['beep', 0.0, -314.1984718082514, 0.0, 0.0, 0.0, 0.0, -1901.5299560463377, 0.0]
['beep', 0.0, -311.29274502906145, 0.0, 0.0, 0.0, 0.0, -1920.9983254669103, 0.0]
['beep', 0.0, -305.9506781042431, 0.0, 0.0, 0.0, 0.0, -1921.6688778005694, 0.0]
['beep', 0.0, -304.2295937811844, 0.0, 0.0, 0.0, 0.0, -1924.7534185354018, 0.0]
['beep', 0.0, -310.62219269540225, 0.0, 0.0, 0.0, 0.0, -1924.8204737687677, 0.0]
['beep', 0.0, -315.02548635309773, 0.0, 0.0, 0.0, 0.0, -1923.6581830570917, 0.0]
['beep', 0.0, -314.3325822749832, 0.0, 0.0, 0.0, 0.0, -1923.8593487571895, 0.0]
['beep', 0.0, -309.34814326144976, 0.0, 0.0, 0.0, 0.0, -1923.8146452682788, 0.0]
['beep', 0.0, -307.80587289403354, 0.0, 0.0, 0.0, 0.0, -1925.0886947022314, 0.0]
['beep', 0.0, -312.9467741187542, 0.0, 0.0, 0.0, 0.0, -1925.6921918025246, 0.0]
['beep', 0.0, -317.59593696545807, 0.0, 0.0, 0.0, 0.0, -1924.8651772576784, 0.0]
['beep', 0.0, -315.69603868675694, 0.0, 0.0, 0.0, 0.0, -1925.7368952914353, 0.0]
['beep', 0.0, -310.4880822286704, 0.0, 0.0, 0.0, 0.0, -1927.9050145036001, 0.0]
['beep', 0.0, -307.984686849676, 0.0, 0.0, 0.0, 0.0, -1929.871968015667, 0.0]
['beep', 0.0, -312.5220909741034, 0.0, 0.0, 0.0, 0.0, -1929.6708023155693, 0.0]
['beep', 0.0, -319.87581489989935, 0.0, 0.0, 0.0, 0.0, -1928.3967528816167, 0.0]
['beep', 0.0, -316.6348119538799, 0.0, 0.0, 0.0, 0.0, -1928.2179389259743, 0.0]
['beep', 0.0, -310.7563031621341, 0.0, 0.0, 0.0, 0.0, -1929.8943197601225, 0.0]
['beep', 0.0, -307.9176316163101, 0.0, 0.0, 0.0, 0.0, -1931.5707005942704, 0.0]
['beep', 0.0, -313.3044020300391, 0.0, 0.0, 0.0, 0.0, -1933.8505785287118, 0.0]
['beep', 0.0, -318.6688206993128, 0.0, 0.0, 0.0, 0.0, -1929.581395337748, 0.0]
['beep', 0.0, -317.26066079862846, 0.0, 0.0, 0.0, 0.0, -1928.106180203698, 0.0]
['beep', 0.0, -310.66689618431286, 0.0, 0.0, 0.0, 0.0, -1929.6708023155693, 0.0]
['beep', 0.0, -308.275259527595, 0.0, 0.0, 0.0, 0.0, -1932.4200668835722, 0.0]
['beep', 0.0, -312.34327701846087, 0.0, 0.0, 0.0, 0.0, -1933.00121223941, 0.0]
['beep', 0.0, -317.81945441001113, 0.0, 0.0, 0.0, 0.0, -1931.2577761718962, 0.0]
['beep', 0.0, -316.6795154427905, 0.0, 0.0, 0.0, 0.0, -1931.1460174496196, 0.0]
['beep', 0.0, -310.532785717581, 0.0, 0.0, 0.0, 0.0, -1932.6212325836698, 0.0]
['beep', 0.0, -309.25873628362854, 0.0, 0.0, 0.0, 0.0, -1932.8894535171335, 0.0]
['beep', 0.0, -314.1761200637961, 0.0, 0.0, 0.0, 0.0, -1933.1129709616866, 0.0]
['beep', 0.0, -319.7864079220781, 0.0, 0.0, 0.0, 0.0, -1931.7718662943682, 0.0]
['beep', 0.0, -317.662992198824, 0.0, 0.0, 0.0, 0.0, -1931.7718662943682, 0.0]
['beep', 0.0, -309.95164036174305, 0.0, 0.0, 0.0, 0.0, -1932.0624389722873, 0.0]
['beep', 0.0, -308.11879731640784, 0.0, 0.0, 0.0, 0.0, -1932.1071424611978, 0.0]
['beep', 0.0, -313.9749543636983, 0.0, 0.0, 0.0, 0.0, -1933.3364884062396, 0.0]
['beep', 0.0, -318.758227677134, 0.0, 0.0, 0.0, 0.0, -1933.2247296839632, 0.0]
['beep', 0.0, -317.7747509211005, 0.0, 0.0, 0.0, 0.0, -1933.3141366617845, 0.0]
['beep', 0.0, -311.3821520068827, 0.0, 0.0, 0.0, 0.0, -1933.0459157283208, 0.0]
['beep', 0.0, -307.82822463848885, 0.0, 0.0, 0.0, 0.0, -1934.588186095737, 0.0]
['beep', 0.0, -313.70673343023464, 0.0, 0.0, 0.0, 0.0, -1935.5716628517705, 0.0]
['beep', 0.0, -318.6911724437681, 0.0, 0.0, 0.0, 0.0, -1933.358840150695, 0.0]
['beep', 0.0, -317.86415789892175, 0.0, 0.0, 0.0, 0.0, -1932.9341570060442, 0.0]
['beep', 0.0, -310.7786549065894, 0.0, 0.0, 0.0, 0.0, -1933.2247296839632, 0.0]
['beep', 0.0, -309.2140327947179, 0.0, 0.0, 0.0, 0.0, -1934.297613417818, 0.0]
['beep', 0.0, -313.79614040805586, 0.0, 0.0, 0.0, 0.0, -1934.5658343512816, 0.0]
['beep', 0.0, -318.6241172104022, 0.0, 0.0, 0.0, 0.0, -1935.4375523850385, 0.0]
['beep', 0.0, -318.0876753434748, 0.0, 0.0, 0.0, 0.0, -1934.2752616733626, 0.0]
['beep', 0.0, -311.4939107291592, 0.0, 0.0, 0.0, 0.0, -1933.3811918951503, 0.0]
['beep', 0.0, -309.4599019837263, 0.0, 0.0, 0.0, 0.0, -1935.8175320407788, 0.0]
['beep', 0.0, -314.6455066973575, 0.0, 0.0, 0.0, 0.0, -1937.225691941463, 0.0]
['beep', 0.0, -321.1275125893966, 0.0, 0.0, 0.0, 0.0, -1934.4764273734604, 0.0]
['beep', 0.0, -319.3840765218826, 0.0, 0.0, 0.0, 0.0, -1932.8000465393122, 0.0]
['beep', 0.0, -312.566794463014, 0.0, 0.0, 0.0, 0.0, -1935.0352209848431, 0.0]
['beep', 0.0, -310.1751578062961, 0.0, 0.0, 0.0, 0.0, -1934.9234622625665, 0.0]
['beep', 0.0, -315.628983453391, 0.0, 0.0, 0.0, 0.0, -1935.4152006405832, 0.0]
['beep', 0.0, -320.8145881670223, 0.0, 0.0, 0.0, 0.0, -1933.2247296839632, 0.0]
['beep', 0.0, -319.048800355053, 0.0, 0.0, 0.0, 0.0, -1932.3753633946615, 0.0]
['beep', 0.0, -312.70090492974583, 0.0, 0.0, 0.0, 0.0, -1934.521130862371, 0.0]
['beep', 0.0, -310.2198612952067, 0.0, 0.0, 0.0, 0.0, -1935.750476807413, 0.0]
['beep', 0.0, -314.77961716408936, 0.0, 0.0, 0.0, 0.0, -1934.6775930735582, 0.0]
['beep', 0.0, -320.7698846781117, 0.0, 0.0, 0.0, 0.0, -1933.4035436396057, 0.0]
['beep', 0.0, -319.3617247774273, 0.0, 0.0, 0.0, 0.0, -1932.8894535171335, 0.0]
['beep', 0.0, -312.5220909741034, 0.0, 0.0, 0.0, 0.0, -1933.5823575952481, 0.0]
['beep', 0.0, -309.5493089615475, 0.0, 0.0, 0.0, 0.0, -1935.5269593628598, 0.0]
['beep', 0.0, -314.1761200637961, 0.0, 0.0, 0.0, 0.0, -1934.3423169067285, 0.0]
['beep', 0.0, -319.7193526887122, 0.0, 0.0, 0.0, 0.0, -1934.319965162273, 0.0]
['beep', 0.0, -320.1216840889077, 0.0, 0.0, 0.0, 0.0, -1934.2752616733626, 0.0]
['beep', 0.0, -314.04200959706424, 0.0, 0.0, 0.0, 0.0, -1933.7388198064352, 0.0]
['beep', 0.0, -310.3763235063939, 0.0, 0.0, 0.0, 0.0, -1933.7388198064352, 0.0]
['beep', 0.0, -315.45016949774856, 0.0, 0.0, 0.0, 0.0, -1934.6999448180134, 0.0]
['beep', 0.0, -321.082809100486, 0.0, 0.0, 0.0, 0.0, -1934.81170354029, 0.0]
['beep', 0.0, -319.6746491998016, 0.0, 0.0, 0.0, 0.0, -1934.7670000513795, 0.0]
['beep', 0.0, -313.5279194745922, 0.0, 0.0, 0.0, 0.0, -1933.135322706142, 0.0]
['beep', 0.0, -310.89041362886593, 0.0, 0.0, 0.0, 0.0, -1934.0293924843543, 0.0]
['beep', 0.0, -317.3053642875391, 0.0, 0.0, 0.0, 0.0, -1936.5998430967145, 0.0]
['beep', 0.0, -323.00505912364235, 0.0, 0.0, 0.0, 0.0, -1937.2480436859184, 0.0]
['beep', 0.0, -320.94869863375413, 0.0, 0.0, 0.0, 0.0, -1935.8175320407788, 0.0]
['beep', 0.0, -314.3102305305279, 0.0, 0.0, 0.0, 0.0, -1936.3092704187954, 0.0]
['beep', 0.0, -311.56096596252513, 0.0, 0.0, 0.0, 0.0, -1937.0468779858206, 0.0]
['beep', 0.0, -315.5172247311145, 0.0, 0.0, 0.0, 0.0, -1937.8068372973012, 0.0]
['beep', 0.0, -321.73100968968987, 0.0, 0.0, 0.0, 0.0, -1937.5386163638375, 0.0]
['beep', 0.0, -321.35103003394966, 0.0, 0.0, 0.0, 0.0, -1936.1528082076084, 0.0]
['beep', 0.0, -314.9807828641871, 0.0, 0.0, 0.0, 0.0, -1936.0857529742425, 0.0]
['beep', 0.0, -311.89624212935473, 0.0, 0.0, 0.0, 0.0, -1937.0468779858206, 0.0]
['beep', 0.0, -315.8748526423994, 0.0, 0.0, 0.0, 0.0, -1938.1421134641307, 0.0]
['beep', 0.0, -322.31215504552785, 0.0, 0.0, 0.0, 0.0, -1939.1032384757088, 0.0]
['beep', 0.0, -319.4287800107932, 0.0, 0.0, 0.0, 0.0, -1937.359802408195, 0.0]
['beep', 0.0, -314.01965785260893, 0.0, 0.0, 0.0, 0.0, -1938.81266579779, 0.0]
['beep', 0.0, -311.113931073419, 0.0, 0.0, 0.0, 0.0, -1940.6678605875804, 0.0]
['beep', 0.0, -317.26066079862846, 0.0, 0.0, 0.0, 0.0, -1939.9526047650106, 0.0]
['beep', 0.0, -322.62507946790214, 0.0, 0.0, 0.0, 0.0, -1939.8184942982787, 0.0]
['beep', 0.0, -320.4569602557374, 0.0, 0.0, 0.0, 0.0, -1939.1479419646196, 0.0]
['beep', 0.0, -313.37145726340503, 0.0, 0.0, 0.0, 0.0, -1939.170293709075, 0.0]
['beep', 0.0, -310.64454443985755, 0.0, 0.0, 0.0, 0.0, -1939.9973082539211, 0.0]
['beep', 0.0, -315.5842799644804, 0.0, 0.0, 0.0, 0.0, -1941.293709432329, 0.0]
['beep', 0.0, -320.23344281118426, 0.0, 0.0, 0.0, 0.0, -1940.2208256984743, 0.0]
['beep', 0.0, -318.26648929911727, 0.0, 0.0, 0.0, 0.0, -1938.5444448643264, 0.0]
['beep', 0.0, -311.27039328460614, 0.0, 0.0, 0.0, 0.0, -1938.5891483532369, 0.0]
['beep', 0.0, -309.8845851283771, 0.0, 0.0, 0.0, 0.0, -1937.8291890417563, 0.0]
['beep', 0.0, -314.69021018626813, 0.0, 0.0, 0.0, 0.0, -1939.9526047650106, 0.0]
['beep', 0.0, -320.7698846781117, 0.0, 0.0, 0.0, 0.0, -1939.2149971979854, 0.0]
['beep', 0.0, -319.20526256624015, 0.0, 0.0, 0.0, 0.0, -1936.9574710079994, 0.0]
['beep', 0.0, -313.79614040805586, 0.0, 0.0, 0.0, 0.0, -1937.5609681082926, 0.0]
['beep', 0.0, -310.532785717581, 0.0, 0.0, 0.0, 0.0, -1938.6115000976922, 0.0]
['beep', 0.0, -313.8855473858771, 0.0, 0.0, 0.0, 0.0, -1938.164465208586, 0.0]
['beep', 0.0, -320.0322771110865, 0.0, 0.0, 0.0, 0.0, -1939.326755920262, 0.0]
['beep', 0.0, -317.21595730971785, 0.0, 0.0, 0.0, 0.0, -1937.3150989192843, 0.0]
['beep', 0.0, -312.00800085163127, 0.0, 0.0, 0.0, 0.0, -1937.7621338083904, 0.0]
['beep', 0.0, -307.44824498274863, 0.0, 0.0, 0.0, 0.0, -1939.036183242343, 0.0]
['beep', 0.0, -311.7844834070782, 0.0, 0.0, 0.0, 0.0, -1938.7009070755134, 0.0]
['beep', 0.0, -320.792236422567, 0.0, 0.0, 0.0, 0.0, -1938.678555331058, 0.0]
['beep', 0.0, -320.7698846781117, 0.0, 0.0, 0.0, 0.0, -1937.940947764033, 0.0]
['beep', 0.0, -313.6173264524134, 0.0, 0.0, 0.0, 0.0, -1937.9856512529436, 0.0]
['beep', 0.0, -309.32579151699446, 0.0, 0.0, 0.0, 0.0, -1938.4997413754156, 0.0]
['beep', 0.0, -314.01965785260893, 0.0, 0.0, 0.0, 0.0, -1939.3044041758067, 0.0]
['beep', 0.0, -321.01575386712005, 0.0, 0.0, 0.0, 0.0, -1939.4832181314491, 0.0]
['beep', 0.0, -320.792236422567, 0.0, 0.0, 0.0, 0.0, -1939.2820524313513, 0.0]
['beep', 0.0, -314.75726541963405, 0.0, 0.0, 0.0, 0.0, -1938.7232588199688, 0.0]
['beep', 0.0, -310.59984095094694, 0.0, 0.0, 0.0, 0.0, -1938.3432791642285, 0.0]
['beep', 0.0, -315.74074217566755, 0.0, 0.0, 0.0, 0.0, -1938.6115000976922, 0.0]
['beep', 0.0, -321.61925096741334, 0.0, 0.0, 0.0, 0.0, -1937.6056715972034, 0.0]
['beep', 0.0, -321.03810561157536, 0.0, 0.0, 0.0, 0.0, -1936.6668983300804, 0.0]
['beep', 0.0, -314.5560997195363, 0.0, 0.0, 0.0, 0.0, -1937.4045058971055, 0.0]
['beep', 0.0, -310.8010066510447, 0.0, 0.0, 0.0, 0.0, -1940.8243227987675, 0.0]
['beep', 0.0, -315.47252124220387, 0.0, 0.0, 0.0, 0.0, -1940.4443431430273, 0.0]
['beep', 0.0, -321.1945678227625, 0.0, 0.0, 0.0, 0.0, -1937.9632995084883, 0.0]
['beep', 0.0, -320.3452015334608, 0.0, 0.0, 0.0, 0.0, -1935.2140349404856, 0.0]
['beep', 0.0, -315.628983453391, 0.0, 0.0, 0.0, 0.0, -1935.7281250629576, 0.0]
['beep', 0.0, -312.34327701846087, 0.0, 0.0, 0.0, 0.0, -1939.036183242343, 0.0]
['beep', 0.0, -314.5784514639916, 0.0, 0.0, 0.0, 0.0, -1938.5891483532369, 0.0]
['beep', 0.0, -319.87581489989935, 0.0, 0.0, 0.0, 0.0, -1938.1197617196754, 0.0]
['beep', 0.0, -320.3899050223714, 0.0, 0.0, 0.0, 0.0, -1937.2480436859184, 0.0]
['beep', 0.0, -314.71256193072344, 0.0, 0.0, 0.0, 0.0, -1936.4433808855274, 0.0]
['beep', 0.0, -311.5162624736145, 0.0, 0.0, 0.0, 0.0, -1937.3374506637397, 0.0]
['beep', 0.0, -316.83597765397764, 0.0, 0.0, 0.0, 0.0, -1938.7009070755134, 0.0]
['beep', 0.0, -322.4239137678044, 0.0, 0.0, 0.0, 0.0, -1938.09740997522, 0.0]
['beep', 0.0, -320.9263468892988, 0.0, 0.0, 0.0, 0.0, -1937.4939128749268, 0.0]
['beep', 0.0, -313.46086424122626, 0.0, 0.0, 0.0, 0.0, -1937.359802408195, 0.0]
['beep', 0.0, -310.1975095507514, 0.0, 0.0, 0.0, 0.0, -1939.0138314978876, 0.0]
['beep', 0.0, -314.824320653, 0.0, 0.0, 0.0, 0.0, -1939.9526047650106, 0.0]
['beep', 0.0, -321.4404370117709, 0.0, 0.0, 0.0, 0.0, -1939.393811153628, 0.0]
['beep', 0.0, -320.0322771110865, 0.0, 0.0, 0.0, 0.0, -1937.2033401970077, 0.0]
['beep', 0.0, -314.06436134151954, 0.0, 0.0, 0.0, 0.0, -1936.9574710079994, 0.0]
['beep', 0.0, -311.27039328460614, 0.0, 0.0, 0.0, 0.0, -1938.7679623088793, 0.0]
['beep', 0.0, -316.2548322981396, 0.0, 0.0, 0.0, 0.0, -1940.5561018653038, 0.0]
['beep', 0.0, -322.2450998121619, 0.0, 0.0, 0.0, 0.0, -1938.2538721864073, 0.0]
['beep', 0.0, -321.1722160783072, 0.0, 0.0, 0.0, 0.0, -1937.4045058971055, 0.0]
['beep', 0.0, -313.3044020300391, 0.0, 0.0, 0.0, 0.0, -1936.6445465856252, 0.0]
['beep', 0.0, -311.27039328460614, 0.0, 0.0, 0.0, 0.0, -1938.1868169530412, 0.0]
['beep', 0.0, -316.36659102041614, 0.0, 0.0, 0.0, 0.0, -1940.4443431430273, 0.0]
['beep', 0.0, -322.1109893454301, 0.0, 0.0, 0.0, 0.0, -1938.9914797534325, 0.0]
['beep', 0.0, -321.7757131786005, 0.0, 0.0, 0.0, 0.0, -1938.6562035866027, 0.0]
['beep', 0.0, -315.628983453391, 0.0, 0.0, 0.0, 0.0, -1939.617328598181, 0.0]
['beep', 0.0, -312.32092527400556, 0.0, 0.0, 0.0, 0.0, -1939.8184942982787, 0.0]
['beep', 0.0, -317.48417824318153, 0.0, 0.0, 0.0, 0.0, -1941.4948751324268, 0.0]
['beep', 0.0, -323.34033529047196, 0.0, 0.0, 0.0, 0.0, -1940.779619309857, 0.0]
['beep', 0.0, -321.73100968968987, 0.0, 0.0, 0.0, 0.0, -1938.09740997522, 0.0]
['beep', 0.0, -315.5172247311145, 0.0, 0.0, 0.0, 0.0, -1940.5561018653038, 0.0]
['beep', 0.0, -311.98564910717596, 0.0, 0.0, 0.0, 0.0, -1941.2266541989632, 0.0]
['beep', 0.0, -316.1877770647737, 0.0, 0.0, 0.0, 0.0, -1941.9866135104435, 0.0]
['beep', 0.0, -322.4015620233491, 0.0, 0.0, 0.0, 0.0, -1939.8855495316448, 0.0]
['beep', 0.0, -322.26745155661723, 0.0, 0.0, 0.0, 0.0, -1936.7339535634464, 0.0]
['beep', 0.0, -315.8972043868547, 0.0, 0.0, 0.0, 0.0, -1938.2091686974966, 0.0]
['beep', 0.0, -312.72325667420114, 0.0, 0.0, 0.0, 0.0, -1941.6960408325244, 0.0]
['beep', 0.0, -316.7689224206117, 0.0, 0.0, 0.0, 0.0, -1940.8243227987675, 0.0]
['beep', 0.0, -323.4744457572038, 0.0, 0.0, 0.0, 0.0, -1939.550273364815, 0.0]
['beep', 0.0, -323.34033529047196, 0.0, 0.0, 0.0, 0.0, -1938.5667966087815, 0.0]
['beep', 0.0, -317.88650964337705, 0.0, 0.0, 0.0, 0.0, -1938.1421134641307, 0.0]
['beep', 0.0, -315.40546600883795, 0.0, 0.0, 0.0, 0.0, -1939.9079012761, 0.0]
['beep', 0.0, -319.92051838880997, 0.0, 0.0, 0.0, 0.0, -1941.1819507100524, 0.0]
['beep', 0.0, -325.12847484689655, 0.0, 0.0, 0.0, 0.0, -1940.3996396541168, 0.0]
['beep', 0.0, -323.2062248237401, 0.0, 0.0, 0.0, 0.0, -1940.846674543223, 0.0]
['beep', 0.0, -316.1877770647737, 0.0, 0.0, 0.0, 0.0, -1940.9360815210441, 0.0]
['beep', 0.0, -310.01869559510897, 0.0, 0.0, 0.0, 0.0, -1939.8631977871894, 0.0]
['beep', 0.0, -311.60566945143574, 0.0, 0.0, 0.0, 0.0, -1939.170293709075, 0.0]
['beep', 0.0, -317.6182887099134, 0.0, 0.0, 0.0, 0.0, -1938.5444448643264, 0.0]
['beep', 0.0, -316.92538463179886, 0.0, 0.0, 0.0, 0.0, -1937.8068372973012, 0.0]
['beep', 0.0, -312.0750560849972, 0.0, 0.0, 0.0, 0.0, -1937.71743031948, 0.0]
['beep', 0.0, -309.7728264061006, 0.0, 0.0, 0.0, 0.0, -1938.4773896309603, 0.0]
['beep', 0.0, -316.00896310913123, 0.0, 0.0, 0.0, 0.0, -1939.326755920262, 0.0]
['beep', 0.0, -323.2285765681954, 0.0, 0.0, 0.0, 0.0, -1938.5667966087815, 0.0]
['beep', 0.0, -322.02158236760886, 0.0, 0.0, 0.0, 0.0, -1937.8068372973012, 0.0]
['beep', 0.0, -316.2548322981396, 0.0, 0.0, 0.0, 0.0, -1938.6562035866027, 0.0]
['beep', 0.0, -312.9691258632095, 0.0, 0.0, 0.0, 0.0, -1939.840846042734, 0.0]
['beep', 0.0, -317.4171230098156, 0.0, 0.0, 0.0, 0.0, -1941.6736890880693, 0.0]
['beep', 0.0, -321.4404370117709, 0.0, 0.0, 0.0, 0.0, -1941.1819507100524, 0.0]
['beep', 0.0, -320.70282944474576, 0.0, 0.0, 0.0, 0.0, -1939.840846042734, 0.0]
['beep', 0.0, -315.6513351978463, 0.0, 0.0, 0.0, 0.0, -1940.779619309857, 0.0]
['beep', 0.0, -311.65037294034636, 0.0, 0.0, 0.0, 0.0, -1941.4948751324268, 0.0]
['beep', 0.0, -316.1654253203184, 0.0, 0.0, 0.0, 0.0, -1942.388944910639, 0.0]
['beep', 0.0, -321.95452713424294, 0.0, 0.0, 0.0, 0.0, -1943.037145499843, 0.0]
['beep', 0.0, -322.8485969124552, 0.0, 0.0, 0.0, 0.0, -1939.7737908093682, 0.0]
['beep', 0.0, -317.17125382080724, 0.0, 0.0, 0.0, 0.0, -1940.5784536097592, 0.0]
['beep', 0.0, -313.8631956414218, 0.0, 0.0, 0.0, 0.0, -1942.3442414217284, 0.0]
['beep', 0.0, -318.4453032547597, 0.0, 0.0, 0.0, 0.0, -1942.165427466086, 0.0]
['beep', 0.0, -323.854425412944, 0.0, 0.0, 0.0, 0.0, -1940.5113983763933, 0.0]
['beep', 0.0, -323.563852735025, 0.0, 0.0, 0.0, 0.0, -1939.9973082539211, 0.0]
['beep', 0.0, -317.28301254308377, 0.0, 0.0, 0.0, 0.0, -1939.7961425538235, 0.0]
['beep', 0.0, -315.2490037976508, 0.0, 0.0, 0.0, 0.0, -1940.1090669761977, 0.0]
['beep', 0.0, -318.60176546594687, 0.0, 0.0, 0.0, 0.0, -1940.6231570986697, 0.0]
['beep', 0.0, -323.94383239076524, 0.0, 0.0, 0.0, 0.0, -1939.617328598181, 0.0]
['beep', 0.0, -323.63090796839094, 0.0, 0.0, 0.0, 0.0, -1937.8515407862117, 0.0]
['beep', 0.0, -319.0935038439636, 0.0, 0.0, 0.0, 0.0, -1937.9856512529436, 0.0]
['beep', 0.0, -314.08671308597485, 0.0, 0.0, 0.0, 0.0, -1939.9973082539211, 0.0]
['beep', 0.0, -319.83111141098874, 0.0, 0.0, 0.0, 0.0, -1941.3831164101503, 0.0]
['beep', 0.0, -324.72614344670103, 0.0, 0.0, 0.0, 0.0, -1941.4948751324268, 0.0]
['beep', 0.0, -324.2344050686842, 0.0, 0.0, 0.0, 0.0, -1937.9185960195775, 0.0]
['beep', 0.0, -316.81362590952233, 0.0, 0.0, 0.0, 0.0, -1938.3656309086837, 0.0]
['beep', 0.0, -313.68438168577933, 0.0, 0.0, 0.0, 0.0, -1940.8243227987675, 0.0]
['beep', 0.0, -316.03131485358654, 0.0, 0.0, 0.0, 0.0, -1940.7572675654017, 0.0]
['beep', 0.0, -321.5745474785027, 0.0, 0.0, 0.0, 0.0, -1939.8631977871894, 0.0]
['beep', 0.0, -322.0886376009748, 0.0, 0.0, 0.0, 0.0, -1938.3656309086837, 0.0]
['beep', 0.0, -315.3160590310167, 0.0, 0.0, 0.0, 0.0, -1938.0750582307649, 0.0]
['beep', 0.0, -310.7563031621341, 0.0, 0.0, 0.0, 0.0, -1939.4385146425386, 0.0]
['beep', 0.0, -315.1595968198296, 0.0, 0.0, 0.0, 0.0, -1941.584282110248, 0.0]
['beep', 0.0, -320.7698846781117, 0.0, 0.0, 0.0, 0.0, -1942.1430757216306, 0.0]
['beep', 0.0, -320.72518118920107, 0.0, 0.0, 0.0, 0.0, -1940.2878809318402, 0.0]
['beep', 0.0, -314.3325822749832, 0.0, 0.0, 0.0, 0.0, -1939.170293709075, 0.0]
['beep', 0.0, -309.99634385065366, 0.0, 0.0, 0.0, 0.0, -1941.6960408325244, 0.0]
['beep', 0.0, -315.5842799644804, 0.0, 0.0, 0.0, 0.0, -1940.3772879096614, 0.0]
['beep', 0.0, -321.28397480058374, 0.0, 0.0, 0.0, 0.0, -1939.4832181314491, 0.0]
['beep', 0.0, -319.4287800107932, 0.0, 0.0, 0.0, 0.0, -1938.0303547418541, 0.0]
['beep', 0.0, -313.952602619243, 0.0, 0.0, 0.0, 0.0, -1938.0750582307649, 0.0]
['beep', 0.0, -309.7728264061006, 0.0, 0.0, 0.0, 0.0, -1940.4443431430273, 0.0]
['beep', 0.0, -314.75726541963405, 0.0, 0.0, 0.0, 0.0, -1940.5113983763933, 0.0]
['beep', 0.0, -321.35103003394966, 0.0, 0.0, 0.0, 0.0, -1939.393811153628, 0.0]
['beep', 0.0, -321.1945678227625, 0.0, 0.0, 0.0, 0.0, -1938.455037886505, 0.0]
['beep', 0.0, -315.02548635309773, 0.0, 0.0, 0.0, 0.0, -1938.4103343975944, 0.0]
['beep', 0.0, -312.1197595739078, 0.0, 0.0, 0.0, 0.0, -1940.3996396541168, 0.0]
['beep', 0.0, -315.3160590310167, 0.0, 0.0, 0.0, 0.0, -1940.0420117428318, 0.0]
['beep', 0.0, -320.4122567668267, 0.0, 0.0, 0.0, 0.0, -1939.170293709075, 0.0]
['beep', 0.0, -320.7698846781117, 0.0, 0.0, 0.0, 0.0, -1938.3656309086837, 0.0]
['beep', 0.0, -314.42198925280445, 0.0, 0.0, 0.0, 0.0, -1939.8184942982787, 0.0]
['beep', 0.0, -309.5269572170922, 0.0, 0.0, 0.0, 0.0, -1941.360764665695, 0.0]
['beep', 0.0, -313.8408438969665, 0.0, 0.0, 0.0, 0.0, -1941.3160611767844, 0.0]
['beep', 0.0, -319.16055907732954, 0.0, 0.0, 0.0, 0.0, -1939.9973082539211, 0.0]
['beep', 0.0, -319.3840765218826, 0.0, 0.0, 0.0, 0.0, -1939.19264545353, 0.0]
['beep', 0.0, -314.1761200637961, 0.0, 0.0, 0.0, 0.0, -1939.3044041758067, 0.0]
['beep', 0.0, -309.7951781505559, 0.0, 0.0, 0.0, 0.0, -1940.4443431430273, 0.0]
['beep', 0.0, -313.70673343023464, 0.0, 0.0, 0.0, 0.0, -1940.8243227987675, 0.0]
['beep', 0.0, -319.048800355053, 0.0, 0.0, 0.0, 0.0, -1939.9973082539211, 0.0]
['beep', 0.0, -319.6075939664357, 0.0, 0.0, 0.0, 0.0, -1937.8962442751224, 0.0]
['beep', 0.0, -313.81849215251117, 0.0, 0.0, 0.0, 0.0, -1937.8068372973012, 0.0]
['beep', 0.0, -310.7339514176788, 0.0, 0.0, 0.0, 0.0, -1938.9244245200664, 0.0]
['beep', 0.0, -313.8631956414218, 0.0, 0.0, 0.0, 0.0, -1938.0527064863095, 0.0]
['beep', 0.0, -320.23344281118426, 0.0, 0.0, 0.0, 0.0, -1937.426857641561, 0.0]
['beep', 0.0, -320.5463672335586, 0.0, 0.0, 0.0, 0.0, -1935.5940145962256, 0.0]
['beep', 0.0, -314.39963750834914, 0.0, 0.0, 0.0, 0.0, -1935.5716628517705, 0.0]
['beep', 0.0, -310.3763235063939, 0.0, 0.0, 0.0, 0.0, -1937.292747174829, 0.0]
['beep', 0.0, -313.662029941324, 0.0, 0.0, 0.0, 0.0, -1937.3821541526502, 0.0]
['beep', 0.0, -319.85346315544405, 0.0, 0.0, 0.0, 0.0, -1937.3150989192843, 0.0]
['beep', 0.0, -320.501663744648, 0.0, 0.0, 0.0, 0.0, -1935.8622355296893, 0.0]
['beep', 0.0, -314.13141657488546, 0.0, 0.0, 0.0, 0.0, -1936.0186977408766, 0.0]
['beep', 0.0, -311.404503751338, 0.0, 0.0, 0.0, 0.0, -1937.1586367080972, 0.0]
['beep', 0.0, -314.39963750834914, 0.0, 0.0, 0.0, 0.0, -1937.5162646193821, 0.0]
['beep', 0.0, -319.9428701332653, 0.0, 0.0, 0.0, 0.0, -1937.8962442751224, 0.0]
['beep', 0.0, -320.3004980445502, 0.0, 0.0, 0.0, 0.0, -1935.1469797071195, 0.0]
['beep', 0.0, -315.2266520531955, 0.0, 0.0, 0.0, 0.0, -1935.0352209848431, 0.0]
['beep', 0.0, -311.67272468480166, 0.0, 0.0, 0.0, 0.0, -1936.197511696519, 0.0]
['beep', 0.0, -314.71256193072344, 0.0, 0.0, 0.0, 0.0, -1937.6280233416587, 0.0]
['beep', 0.0, -322.1109893454301, 0.0, 0.0, 0.0, 0.0, -1938.6115000976922, 0.0]
['beep', 0.0, -323.38503877938257, 0.0, 0.0, 0.0, 0.0, -1936.488084374438, 0.0]
['beep', 0.0, -316.210128809229, 0.0, 0.0, 0.0, 0.0, -1936.197511696519, 0.0]
['beep', 0.0, -311.7621316626229, 0.0, 0.0, 0.0, 0.0, -1937.4715611304714, 0.0]
['beep', 0.0, -316.1654253203184, 0.0, 0.0, 0.0, 0.0, -1936.6892500745357, 0.0]
['beep', 0.0, -322.2227480677066, 0.0, 0.0, 0.0, 0.0, -1935.973994251966, 0.0]
['beep', 0.0, -322.1109893454301, 0.0, 0.0, 0.0, 0.0, -1935.4375523850385, 0.0]
['beep', 0.0, -314.35493401943853, 0.0, 0.0, 0.0, 0.0, -1934.8340552847453, 0.0]
['beep', 0.0, -310.97982060668716, 0.0, 0.0, 0.0, 0.0, -1936.0186977408766, 0.0]
['beep', 0.0, -316.09837008695246, 0.0, 0.0, 0.0, 0.0, -1937.6950785750246, 0.0]
['beep', 0.0, -321.01575386712005, 0.0, 0.0, 0.0, 0.0, -1937.583319852748, 0.0]
['beep', 0.0, -321.4851405006815, 0.0, 0.0, 0.0, 0.0, -1936.2198634409742, 0.0]
['beep', 0.0, -316.43364625378206, 0.0, 0.0, 0.0, 0.0, -1935.8398837852342, 0.0]
['beep', 0.0, -312.0303525960866, 0.0, 0.0, 0.0, 0.0, -1936.5327878633486, 0.0]
['beep', 0.0, -314.9584311197318, 0.0, 0.0, 0.0, 0.0, -1938.1421134641307, 0.0]
['beep', 0.0, -321.32867828949435, 0.0, 0.0, 0.0, 0.0, -1936.3539739077062, 0.0]
['beep', 0.0, -322.1109893454301, 0.0, 0.0, 0.0, 0.0, -1935.7281250629576, 0.0]
['beep', 0.0, -315.38311426438264, 0.0, 0.0, 0.0, 0.0, -1935.3034419183068, 0.0]
['beep', 0.0, -311.22568979569553, 0.0, 0.0, 0.0, 0.0, -1935.973994251966, 0.0]
['beep', 0.0, -315.2937072865614, 0.0, 0.0, 0.0, 0.0, -1936.8457122857228, 0.0]
['beep', 0.0, -321.32867828949435, 0.0, 0.0, 0.0, 0.0, -1935.5046076184044, 0.0]
['beep', 0.0, -321.06045735603067, 0.0, 0.0, 0.0, 0.0, -1934.3646686511838, 0.0]
['beep', 0.0, -314.46669274171506, 0.0, 0.0, 0.0, 0.0, -1935.9069390186, 0.0]
['beep', 0.0, -310.0857508284749, 0.0, 0.0, 0.0, 0.0, -1937.6950785750246, 0.0]
['beep', 0.0, -313.6173264524134, 0.0, 0.0, 0.0, 0.0, -1937.4939128749268, 0.0]
['beep', 0.0, -320.5240154891033, 0.0, 0.0, 0.0, 0.0, -1937.6950785750246, 0.0]
['beep', 0.0, -323.0721143570083, 0.0, 0.0, 0.0, 0.0, -1935.0799244737536, 0.0]
['beep', 0.0, -315.5172247311145, 0.0, 0.0, 0.0, 0.0, -1935.5493111073151, 0.0]
['beep', 0.0, -311.8515386404441, 0.0, 0.0, 0.0, 0.0, -1938.2985756753178, 0.0]
['beep', 0.0, -315.5619282200251, 0.0, 0.0, 0.0, 0.0, -1937.7844855528458, 0.0]
['beep', 0.0, -321.8204166675111, 0.0, 0.0, 0.0, 0.0, -1937.1586367080972, 0.0]
['beep', 0.0, -321.7757131786005, 0.0, 0.0, 0.0, 0.0, -1935.1246279626644, 0.0]
['beep', 0.0, -314.42198925280445, 0.0, 0.0, 0.0, 0.0, -1934.744648306924, 0.0]
['beep', 0.0, -310.8233583955, 0.0, 0.0, 0.0, 0.0, -1937.426857641561, 0.0]
['beep', 0.0, -315.4948729866592, 0.0, 0.0, 0.0, 0.0, -1938.5891483532369, 0.0]
['beep', 0.0, -321.64160271186864, 0.0, 0.0, 0.0, 0.0, -1938.9244245200664, 0.0]
['beep', 0.0, -323.1615213348295, 0.0, 0.0, 0.0, 0.0, -1939.1479419646196, 0.0]
['beep', 0.0, -315.628983453391, 0.0, 0.0, 0.0, 0.0, -1939.0138314978876, 0.0]
['beep', 0.0, -311.8291868959888, 0.0, 0.0, 0.0, 0.0, -1940.779619309857, 0.0]
['beep', 0.0, -314.73491367517875, 0.0, 0.0, 0.0, 0.0, -1941.159598965597, 0.0]
['beep', 0.0, -320.72518118920107, 0.0, 0.0, 0.0, 0.0, -1936.8457122857228, 0.0]
['beep', 0.0, -321.66395445632395, 0.0, 0.0, 0.0, 0.0, -1937.739782063935, 0.0]
['beep', 0.0, -316.03131485358654, 0.0, 0.0, 0.0, 0.0, -1936.8457122857228, 0.0]
['beep', 0.0, -311.22568979569553, 0.0, 0.0, 0.0, 0.0, -1937.6056715972034, 0.0]
['beep', 0.0, -313.5279194745922, 0.0, 0.0, 0.0, 0.0, -1939.326755920262, 0.0]
['beep', 0.0, -319.83111141098874, 0.0, 0.0, 0.0, 0.0, -1937.5609681082926, 0.0]
['beep', 0.0, -317.7076956877346, 0.0, 0.0, 0.0, 0.0, -1937.9185960195775, 0.0]
['beep', 0.0, -310.62219269540225, 0.0, 0.0, 0.0, 0.0, -1937.8068372973012, 0.0]
['beep', 0.0, -311.8068351515335, 0.0, 0.0, 0.0, 0.0, -1937.8068372973012, 0.0]
['beep', 0.0, -319.9428701332653, 0.0, 0.0, 0.0, 0.0, -1938.2762239308624, 0.0]
['beep', 0.0, -327.5871667369803, 0.0, 0.0, 0.0, 0.0, -1937.0915814747314, 0.0]
['beep', 0.0, -328.2353673261842, 0.0, 0.0, 0.0, 0.0, -1935.9292907630554, 0.0]
['beep', 0.0, -320.61342246692453, 0.0, 0.0, 0.0, 0.0, -1935.5940145962256, 0.0]
['beep', 0.0, -316.34423927596083, 0.0, 0.0, 0.0, 0.0, -1935.6387180851364, 0.0]
['beep', 0.0, -318.9817451216871, 0.0, 0.0, 0.0, 0.0, -1935.9292907630554, 0.0]
['beep', 0.0, -324.9049574023435, 0.0, 0.0, 0.0, 0.0, -1936.0634012297871, 0.0]
['beep', 0.0, -326.2460620696619, 0.0, 0.0, 0.0, 0.0, -1935.4822558739493, 0.0]
['beep', 0.0, -319.80875966653343, 0.0, 0.0, 0.0, 0.0, -1935.9292907630554, 0.0]
['beep', 0.0, -316.210128809229, 0.0, 0.0, 0.0, 0.0, -1937.7621338083904, 0.0]
['beep', 0.0, -319.83111141098874, 0.0, 0.0, 0.0, 0.0, -1937.3150989192843, 0.0]
['beep', 0.0, -325.9778411361982, 0.0, 0.0, 0.0, 0.0, -1935.9069390186, 0.0]
['beep', 0.0, -327.9224429038099, 0.0, 0.0, 0.0, 0.0, -1936.6892500745357, 0.0]
['beep', 0.0, -321.887471900877, 0.0, 0.0, 0.0, 0.0, -1936.8233605412677, 0.0]
['beep', 0.0, -317.3053642875391, 0.0, 0.0, 0.0, 0.0, -1936.9574710079994, 0.0]
['beep', 0.0, -320.7698846781117, 0.0, 0.0, 0.0, 0.0, -1938.164465208586, 0.0]
['beep', 0.0, -326.71544870322333, 0.0, 0.0, 0.0, 0.0, -1935.8175320407788, 0.0]
['beep', 0.0, -327.3636492924272, 0.0, 0.0, 0.0, 0.0, -1937.1362849636419, 0.0]
['beep', 0.0, -321.28397480058374, 0.0, 0.0, 0.0, 0.0, -1936.555139607804, 0.0]
['beep', 0.0, -316.88068114288825, 0.0, 0.0, 0.0, 0.0, -1935.7281250629576, 0.0]
['beep', 0.0, -321.5745474785027, 0.0, 0.0, 0.0, 0.0, -1937.9185960195775, 0.0]
['beep', 0.0, -328.2800708150948, 0.0, 0.0, 0.0, 0.0, -1936.8680640301782, 0.0]
['beep', 0.0, -327.6542219703462, 0.0, 0.0, 0.0, 0.0, -1934.968165751477, 0.0]
['beep', 0.0, -321.28397480058374, 0.0, 0.0, 0.0, 0.0, -1935.4152006405832, 0.0]
['beep', 0.0, -317.1041985874413, 0.0, 0.0, 0.0, 0.0, -1937.2480436859184, 0.0]
['beep', 0.0, -321.8427684119664, 0.0, 0.0, 0.0, 0.0, -1936.8010087968123, 0.0]
['beep', 0.0, -327.76598069262275, 0.0, 0.0, 0.0, 0.0, -1935.3481454072173, 0.0]
['beep', 0.0, -328.61534698192446, 0.0, 0.0, 0.0, 0.0, -1936.3092704187954, 0.0]
['beep', 0.0, -323.0721143570083, 0.0, 0.0, 0.0, 0.0, -1937.4715611304714, 0.0]
['beep', 0.0, -317.7076956877346, 0.0, 0.0, 0.0, 0.0, -1935.9292907630554, 0.0]
['beep', 0.0, -321.5074922451368, 0.0, 0.0, 0.0, 0.0, -1938.09740997522, 0.0]
['beep', 0.0, -328.2577190706395, 0.0, 0.0, 0.0, 0.0, -1937.6950785750246, 0.0]
['beep', 0.0, -329.50941676013673, 0.0, 0.0, 0.0, 0.0, -1934.1187994621755, 0.0]
['beep', 0.0, -322.1109893454301, 0.0, 0.0, 0.0, 0.0, -1933.9176337620777, 0.0]
['beep', 0.0, -319.0935038439636, 0.0, 0.0, 0.0, 0.0, -1936.935119263544, 0.0]
['beep', 0.0, -322.02158236760886, 0.0, 0.0, 0.0, 0.0, -1938.4773896309603, 0.0]
['beep', 0.0, -328.16831209281827, 0.0, 0.0, 0.0, 0.0, -1938.4103343975944, 0.0]
['beep', 0.0, -329.4423615267708, 0.0, 0.0, 0.0, 0.0, -1936.0410494853318, 0.0]
['beep', 0.0, -323.36268703492726, 0.0, 0.0, 0.0, 0.0, -1935.258738429396, 0.0]
['beep', 0.0, -318.7135241882234, 0.0, 0.0, 0.0, 0.0, -1936.5774913522591, 0.0]
['beep', 0.0, -322.96035563473174, 0.0, 0.0, 0.0, 0.0, -1936.6445465856252, 0.0]
['beep', 0.0, -328.61534698192446, 0.0, 0.0, 0.0, 0.0, -1936.711601818991, 0.0]
['beep', 0.0, -330.4705417717149, 0.0, 0.0, 0.0, 0.0, -1936.6668983300804, 0.0]
['beep', 0.0, -325.01671612462, 0.0, 0.0, 0.0, 0.0, -1935.6834215740469, 0.0]
['beep', 0.0, -318.19943406575135, 0.0, 0.0, 0.0, 0.0, -1936.4657326299828, 0.0]
['beep', 0.0, -321.887471900877, 0.0, 0.0, 0.0, 0.0, -1938.1868169530412, 0.0]
['beep', 0.0, -327.8777394148993, 0.0, 0.0, 0.0, 0.0, -1936.4657326299828, 0.0]
['beep', 0.0, -328.07890511499704, 0.0, 0.0, 0.0, 0.0, -1935.7951802963235, 0.0]
['beep', 0.0, -323.34033529047196, 0.0, 0.0, 0.0, 0.0, -1935.5716628517705, 0.0]
['beep', 0.0, -318.7135241882234, 0.0, 0.0, 0.0, 0.0, -1935.5716628517705, 0.0]
['beep', 0.0, -321.39573352286027, 0.0, 0.0, 0.0, 0.0, -1937.7844855528458, 0.0]
['beep', 0.0, -316.09837008695246, 0.0, 0.0, 0.0, 0.0, -1935.3034419183068, 0.0]
['beep', 0.0, -317.0371433540754, 0.0, 0.0, 0.0, 0.0, -1936.8233605412677, 0.0]
['beep', 0.0, -312.79031190756706, 0.0, 0.0, 0.0, 0.0, -1938.5444448643264, 0.0]
['beep', 0.0, -307.78352114957823, 0.0, 0.0, 0.0, 0.0, -1937.5386163638375, 0.0]
['beep', 0.0, -310.5551374620363, 0.0, 0.0, 0.0, 0.0, -1939.036183242343, 0.0]
['beep', 0.0, -318.7135241882234, 0.0, 0.0, 0.0, 0.0, -1938.4103343975944, 0.0]
['beep', 0.0, -319.0711520995083, 0.0, 0.0, 0.0, 0.0, -1937.6056715972034, 0.0]
['beep', 0.0, -312.27622178509495, 0.0, 0.0, 0.0, 0.0, -1936.935119263544, 0.0]
['beep', 0.0, -306.86709962691066, 0.0, 0.0, 0.0, 0.0, -1938.3656309086837, 0.0]
['beep', 0.0, -310.26456478411734, 0.0, 0.0, 0.0, 0.0, -1939.9526047650106, 0.0]
['beep', 0.0, -317.4394747542709, 0.0, 0.0, 0.0, 0.0, -1940.0420117428318, 0.0]
['beep', 0.0, -318.9593933772318, 0.0, 0.0, 0.0, 0.0, -1938.3656309086837, 0.0]
['beep', 0.0, -312.8350153964777, 0.0, 0.0, 0.0, 0.0, -1937.0915814747314, 0.0]
['beep', 0.0, -308.0293903385866, 0.0, 0.0, 0.0, 0.0, -1938.5891483532369, 0.0]
['beep', 0.0, -311.1586345623296, 0.0, 0.0, 0.0, 0.0, -1940.1761222095636, 0.0]
['beep', 0.0, -317.1041985874413, 0.0, 0.0, 0.0, 0.0, -1940.1090669761977, 0.0]
['beep', 0.0, -318.3335445324832, 0.0, 0.0, 0.0, 0.0, -1938.9467762645218, 0.0]
['beep', 0.0, -313.0138293521201, 0.0, 0.0, 0.0, 0.0, -1937.71743031948, 0.0]
['beep', 0.0, -308.4987769721481, 0.0, 0.0, 0.0, 0.0, -1939.550273364815, 0.0]
['beep', 0.0, -310.1751578062961, 0.0, 0.0, 0.0, 0.0, -1939.19264545353, 0.0]
['beep', 0.0, -315.40546600883795, 0.0, 0.0, 0.0, 0.0, -1937.069229730276, 0.0]
['beep', 0.0, -315.42781775329325, 0.0, 0.0, 0.0, 0.0, -1937.3821541526502, 0.0]
['beep', 0.0, -309.146977561352, 0.0, 0.0, 0.0, 0.0, -1936.0857529742425, 0.0]
['beep', 0.0, -303.179061791785, 0.0, 0.0, 0.0, 0.0, -1937.3821541526502, 0.0]
['beep', 0.0, -306.308306015528, 0.0, 0.0, 0.0, 0.0, -1938.4773896309603, 0.0]
['beep', 0.0, -314.8690241419106, 0.0, 0.0, 0.0, 0.0, -1937.225691941463, 0.0]
['beep', 0.0, -317.21595730971785, 0.0, 0.0, 0.0, 0.0, -1937.6950785750246, 0.0]
['beep', 0.0, -311.00217235114246, 0.0, 0.0, 0.0, 0.0, -1937.0021744969101, 0.0]
['beep', 0.0, -307.0459135825531, 0.0, 0.0, 0.0, 0.0, -1937.2033401970077, 0.0]
['beep', 0.0, -310.5104339731257, 0.0, 0.0, 0.0, 0.0, -1937.583319852748, 0.0]
['beep', 0.0, -316.52305323160334, 0.0, 0.0, 0.0, 0.0, -1938.0303547418541, 0.0]
['beep', 0.0, -317.3500677764497, 0.0, 0.0, 0.0, 0.0, -1937.2703954303738, 0.0]
['beep', 0.0, -311.60566945143574, 0.0, 0.0, 0.0, 0.0, -1936.3316221632508, 0.0]
['beep', 0.0, -306.82239613800004, 0.0, 0.0, 0.0, 0.0, -1936.3986773966167, 0.0]
['beep', 0.0, -309.2140327947179, 0.0, 0.0, 0.0, 0.0, -1938.0527064863095, 0.0]
['beep', 0.0, -314.9807828641871, 0.0, 0.0, 0.0, 0.0, -1936.5774913522591, 0.0]
['beep', 0.0, -316.1654253203184, 0.0, 0.0, 0.0, 0.0, -1933.939985506533, 0.0]
['beep', 0.0, -310.7115996732235, 0.0, 0.0, 0.0, 0.0, -1932.6212325836698, 0.0]
['beep', 0.0, -306.48711997117044, 0.0, 0.0, 0.0, 0.0, -1933.8282267842565, 0.0]
['beep', 0.0, -308.4987769721481, 0.0, 0.0, 0.0, 0.0, -1934.454075629005, 0.0]
['beep', 0.0, -315.3160590310167, 0.0, 0.0, 0.0, 0.0, -1933.9623372509882, 0.0]
['beep', 0.0, -317.26066079862846, 0.0, 0.0, 0.0, 0.0, -1931.4589418719938, 0.0]
['beep', 0.0, -312.79031190756706, 0.0, 0.0, 0.0, 0.0, -1930.3190029047732, 0.0]
['beep', 0.0, -307.4258932382933, 0.0, 0.0, 0.0, 0.0, -1928.6873255595358, 0.0]
['beep', 0.0, -307.53765196056986, 0.0, 0.0, 0.0, 0.0, -1924.2840319018403, 0.0]
['beep', 0.0, -313.1702915633073, 0.0, 0.0, 0.0, 0.0, -1919.6348690551365, 0.0]
['beep', 0.0, -315.76309392012286, 0.0, 0.0, 0.0, 0.0, -1910.9623922064773, 0.0]
['beep', 0.0, -311.56096596252513, 0.0, 0.0, 0.0, 0.0, -1905.0838834147316, 0.0]
['beep', 0.0, -306.3306577599833, 0.0, 0.0, 0.0, 0.0, -1898.490118800416, 0.0]
['beep', 0.0, -310.4880822286704, 0.0, 0.0, 0.0, 0.0, -1891.8292989527345, 0.0]
['beep', 0.0, -316.6348119538799, 0.0, 0.0, 0.0, 0.0, -1882.329807559229, 0.0]
['beep', 0.0, -318.17708232129604, 0.0, 0.0, 0.0, 0.0, -1874.1267173441313, 0.0]
['beep', 0.0, -312.0750560849972, 0.0, 0.0, 0.0, 0.0, -1864.6942811839917, 0.0]
['beep', 0.0, -305.1013118149414, 0.0, 0.0, 0.0, 0.0, -1855.619472935137, 0.0]
['beep', 0.0, -309.90693687283243, 0.0, 0.0, 0.0, 0.0, -1850.2774060103186, 0.0]
['beep', 0.0, -318.19943406575135, 0.0, 0.0, 0.0, 0.0, -1840.7108593834473, 0.0]
['beep', 0.0, -318.4005997658491, 0.0, 0.0, 0.0, 0.0, -1829.8255598337128, 0.0]
['beep', 0.0, -313.05853284103074, 0.0, 0.0, 0.0, 0.0, -1820.7731033293132, 0.0]
['beep', 0.0, -306.44241648225983, 0.0, 0.0, 0.0, 0.0, -1817.2191759609195, 0.0]
['beep', 0.0, -307.80587289403354, 0.0, 0.0, 0.0, 0.0, -1813.9781730149, 0.0]
['beep', 0.0, -313.05853284103074, 0.0, 0.0, 0.0, 0.0, -1808.1667194565202, 0.0]
['beep', 0.0, -316.07601834249715, 0.0, 0.0, 0.0, 0.0, -1798.5107658518275, 0.0]
['beep', 0.0, -314.06436134151954, 0.0, 0.0, 0.0, 0.0, -1793.4816233493834, 0.0]
['beep', 0.0, -308.4987769721481, 0.0, 0.0, 0.0, 0.0, -1789.7935855142578, 0.0]
['beep', 0.0, -305.7048089152347, 0.0, 0.0, 0.0, 0.0, -1784.719739522903, 0.0]
['beep', 0.0, -310.7786549065894, 0.0, 0.0, 0.0, 0.0, -1778.6177132866042, 0.0]
['beep', 0.0, -314.243175297162, 0.0, 0.0, 0.0, 0.0, -1772.0239486722887, 0.0]
['beep', 0.0, -309.8175298950112, 0.0, 0.0, 0.0, 0.0, -1770.1911056269535, 0.0]
['beep', 0.0, -303.67080016980174, 0.0, 0.0, 0.0, 0.0, -1766.2795503472746, 0.0]
['beep', 0.0, -304.1625385478185, 0.0, 0.0, 0.0, 0.0, -1763.0161956568, 0.0]
['beep', 0.0, -310.7339514176788, 0.0, 0.0, 0.0, 0.0, -1758.5681985101937, 0.0]
['beep', 0.0, -315.9642596202206, 0.0, 0.0, 0.0, 0.0, -1756.3777275535738, 0.0]
['beep', 0.0, -311.94094561826535, 0.0, 0.0, 0.0, 0.0, -1754.2543118303195, 0.0]
['beep', 0.0, -306.19654729325146, 0.0, 0.0, 0.0, 0.0, -1754.433125785962, 0.0]
['beep', 0.0, -305.81656763751124, 0.0, 0.0, 0.0, 0.0, -1754.7684019527915, 0.0]
['beep', 0.0, -313.8631956414218, 0.0, 0.0, 0.0, 0.0, -1755.237788586353, 0.0]
['beep', 0.0, -318.1100270879301, 0.0, 0.0, 0.0, 0.0, -1754.366070552596, 0.0]
['beep', 0.0, -312.6785531852905, 0.0, 0.0, 0.0, 0.0, -1755.885989175557, 0.0]
['beep', 0.0, -304.2519455256397, 0.0, 0.0, 0.0, 0.0, -1756.6683002314926, 0.0]
['beep', 0.0, -306.017733337609, 0.0, 0.0, 0.0, 0.0, -1758.0541083877217, 0.0]
['beep', 0.0, -312.5220909741034, 0.0, 0.0, 0.0, 0.0, -1760.7363177223585, 0.0]
['beep', 0.0, -316.6348119538799, 0.0, 0.0, 0.0, 0.0, -1762.4126985565065, 0.0]
['beep', 0.0, -314.01965785260893, 0.0, 0.0, 0.0, 0.0, -1763.1950096124424, 0.0]
['beep', 0.0, -310.0633990840196, 0.0, 0.0, 0.0, 0.0, -1765.0502044022328, 0.0]
['beep', 0.0, -312.0527043405419, 0.0, 0.0, 0.0, 0.0, -1768.5147247928055, 0.0]
['beep', 0.0, -318.2888410435726, 0.0, 0.0, 0.0, 0.0, -1771.9568934389226, 0.0]
['beep', 0.0, -319.9652218777206, 0.0, 0.0, 0.0, 0.0, -1772.9627219394115, 0.0]
['beep', 0.0, -313.6396781968687, 0.0, 0.0, 0.0, 0.0, -1775.689634762959, 0.0]
['beep', 0.0, -308.8340531389777, 0.0, 0.0, 0.0, 0.0, -1779.8023557427355, 0.0]
['beep', 0.0, -312.27622178509495, 0.0, 0.0, 0.0, 0.0, -1785.814975001213, 0.0]
['beep', 0.0, -318.49000674367034, 0.0, 0.0, 0.0, 0.0, -1791.1793936704867, 0.0]
['beep', 0.0, -319.339373032972, 0.0, 0.0, 0.0, 0.0, -1792.9898849713666, 0.0]
['beep', 0.0, -316.210128809229, 0.0, 0.0, 0.0, 0.0, -1797.7955100292577, 0.0]
['beep', 0.0, -312.9244223742989, 0.0, 0.0, 0.0, 0.0, -1804.076350221199, 0.0]
['beep', 0.0, -315.45016949774856, 0.0, 0.0, 0.0, 0.0, -1809.8431002906682, 0.0]
['beep', 0.0, -321.1275125893966, 0.0, 0.0, 0.0, 0.0, -1813.4193794035173, 0.0]
['beep', 0.0, -322.7815416790893, 0.0, 0.0, 0.0, 0.0, -1819.4096469175397, 0.0]
['beep', 0.0, -318.55706197703626, 0.0, 0.0, 0.0, 0.0, -1824.7964173312687, 0.0]
['beep', 0.0, -313.05853284103074, 0.0, 0.0, 0.0, 0.0, -1830.272594722819, 0.0]
['beep', 0.0, -315.02548635309773, 0.0, 0.0, 0.0, 0.0, -1837.3133942262405, 0.0]
['beep', 0.0, -321.4180852673156, 0.0, 0.0, 0.0, 0.0, -1841.5155221838384, 0.0]
['beep', 0.0, -322.66978295681275, 0.0, 0.0, 0.0, 0.0, -1846.2764437528187, 0.0]
['beep', 0.0, -316.83597765397764, 0.0, 0.0, 0.0, 0.0, -1849.4503914654722, 0.0]
['beep', 0.0, -311.35980026242737, 0.0, 0.0, 0.0, 0.0, -1854.9042171125673, 0.0]
['beep', 0.0, -312.4326839962821, 0.0, 0.0, 0.0, 0.0, -1860.3803945041175, 0.0]
['beep', 0.0, -319.6522974553463, 0.0, 0.0, 0.0, 0.0, -1865.1636678175532, 0.0]
['beep', 0.0, -321.4404370117709, 0.0, 0.0, 0.0, 0.0, -1867.6447114520922, 0.0]
['beep', 0.0, -315.45016949774856, 0.0, 0.0, 0.0, 0.0, -1870.8633626536564, 0.0]
['beep', 0.0, -310.97982060668716, 0.0, 0.0, 0.0, 0.0, -1875.356063289173, 0.0]
['beep', 0.0, -314.9584311197318, 0.0, 0.0, 0.0, 0.0, -1880.0052261358771, 0.0]
['beep', 0.0, -319.4287800107932, 0.0, 0.0, 0.0, 0.0, -1882.709787214969, 0.0]
['beep', 0.0, -320.65812595583515, 0.0, 0.0, 0.0, 0.0, -1883.3803395486284, 0.0]
['beep', 0.0, -316.7018671872458, 0.0, 0.0, 0.0, 0.0, -1884.162650604564, 0.0]
['beep', 0.0, -310.4433787397598, 0.0, 0.0, 0.0, 0.0, -1887.0013221503882, 0.0]
['beep', 0.0, -313.1926433077626, 0.0, 0.0, 0.0, 0.0, -1891.2705053413517, 0.0]
['beep', 0.0, -319.9428701332653, 0.0, 0.0, 0.0, 0.0, -1892.3880925641172, 0.0]
['beep', 0.0, -322.4239137678044, 0.0, 0.0, 0.0, 0.0, -1892.3433890752065, 0.0]
['beep', 0.0, -315.69603868675694, 0.0, 0.0, 0.0, 0.0, -1894.5115082873713, 0.0]
['beep', 0.0, -309.5046054726369, 0.0, 0.0, 0.0, 0.0, -1897.2384211109188, 0.0]
['beep', 0.0, -312.4103322518268, 0.0, 0.0, 0.0, 0.0, -1926.5639098362817, 0.0]
['beep', 0.0, -319.7640561776228, 0.0, 0.0, 0.0, 0.0, -1926.7874272808347, 0.0]
['beep', 0.0, -322.02158236760886, 0.0, 0.0, 0.0, 0.0, -1926.362744136184, 0.0]
['beep', 0.0, -317.28301254308377, 0.0, 0.0, 0.0, 0.0, -1928.6426220706253, 0.0]
['beep', 0.0, -313.08088458548605, 0.0, 0.0, 0.0, 0.0, -1929.7602092933905, 0.0]
['beep', 0.0, -314.5113962306257, 0.0, 0.0, 0.0, 0.0, -1930.2519476714074, 0.0]
['beep', 0.0, -321.35103003394966, 0.0, 0.0, 0.0, 0.0, -1930.1625406935862, 0.0]
['beep', 0.0, -323.5191492461144, 0.0, 0.0, 0.0, 0.0, -1930.3413546492286, 0.0]
['beep', 0.0, -317.953564876743, 0.0, 0.0, 0.0, 0.0, -1929.648450571114, 0.0]
['beep', 0.0, -312.27622178509495, 0.0, 0.0, 0.0, 0.0, -1928.262642414885, 0.0]
['beep', 0.0, -313.6173264524134, 0.0, 0.0, 0.0, 0.0, -1931.0119069828877, 0.0]
['beep', 0.0, -319.56289047752506, 0.0, 0.0, 0.0, 0.0, -1932.330659905751, 0.0]
['beep', 0.0, -321.1051608449413, 0.0, 0.0, 0.0, 0.0, -1930.0060784823988, 0.0]
['beep', 0.0, -316.34423927596083, 0.0, 0.0, 0.0, 0.0, -1928.8884912596336, 0.0]
['beep', 0.0, -310.5104339731257, 0.0, 0.0, 0.0, 0.0, -1929.6037470822034, 0.0]
['beep', 0.0, -311.8068351515335, 0.0, 0.0, 0.0, 0.0, -1929.648450571114, 0.0]
['beep', 0.0, -317.953564876743, 0.0, 0.0, 0.0, 0.0, -1930.7883895383347, 0.0]
['beep', 0.0, -320.99340212266475, 0.0, 0.0, 0.0, 0.0, -1930.3413546492286, 0.0]
['beep', 0.0, -315.8748526423994, 0.0, 0.0, 0.0, 0.0, -1929.9613749934883, 0.0]
['beep', 0.0, -311.27039328460614, 0.0, 0.0, 0.0, 0.0, -1928.910843004089, 0.0]
['beep', 0.0, -311.96329736272065, 0.0, 0.0, 0.0, 0.0, -1929.0226017263653, 0.0]
['beep', 0.0, -317.7300474321899, 0.0, 0.0, 0.0, 0.0, -1929.0226017263653, 0.0]
['beep', 0.0, -320.18873932227365, 0.0, 0.0, 0.0, 0.0, -1927.6367935701364, 0.0]
['beep', 0.0, -315.9642596202206, 0.0, 0.0, 0.0, 0.0, -1928.8214360262677, 0.0]
['beep', 0.0, -310.1751578062961, 0.0, 0.0, 0.0, 0.0, -1927.748552292413, 0.0]
['beep', 0.0, -312.6338496963799, 0.0, 0.0, 0.0, 0.0, -1928.6426220706253, 0.0]
['beep', 0.0, -320.72518118920107, 0.0, 0.0, 0.0, 0.0, -1927.5473865923152, 0.0]
['beep', 0.0, -321.30632654503904, 0.0, 0.0, 0.0, 0.0, -1925.4016191246058, 0.0]
['beep', 0.0, -316.54540497605865, 0.0, 0.0, 0.0, 0.0, -1925.133398191142, 0.0]
['beep', 0.0, -310.62219269540225, 0.0, 0.0, 0.0, 0.0, -1926.519206347371, 0.0]
['beep', 0.0, -311.8291868959888, 0.0, 0.0, 0.0, 0.0, -1927.6367935701364, 0.0]
['beep', 0.0, -319.6522974553463, 0.0, 0.0, 0.0, 0.0, -1929.939023249033, 0.0]
['beep', 0.0, -322.4239137678044, 0.0, 0.0, 0.0, 0.0, -1928.5308633483487, 0.0]
['beep', 0.0, -315.5172247311145, 0.0, 0.0, 0.0, 0.0, -1927.1897586810303, 0.0]
['beep', 0.0, -310.8233583955, 0.0, 0.0, 0.0, 0.0, -1927.5920900812257, 0.0]
['beep', 0.0, -312.72325667420114, 0.0, 0.0, 0.0, 0.0, -1929.4472848710163, 0.0]
['beep', 0.0, -318.7135241882234, 0.0, 0.0, 0.0, 0.0, -1928.8214360262677, 0.0]
['beep', 0.0, -320.9039951448435, 0.0, 0.0, 0.0, 0.0, -1929.0449534708207, 0.0]
['beep', 0.0, -314.80196890854467, 0.0, 0.0, 0.0, 0.0, -1928.5979185817146, 0.0]
['beep', 0.0, -309.8845851283771, 0.0, 0.0, 0.0, 0.0, -1930.0507819713096, 0.0]
['beep', 0.0, -312.9691258632095, 0.0, 0.0, 0.0, 0.0, -1930.453113371505, 0.0]
['beep', 0.0, -319.6522974553463, 0.0, 0.0, 0.0, 0.0, -1929.8943197601225, 0.0]
['beep', 0.0, -321.4180852673156, 0.0, 0.0, 0.0, 0.0, -1928.9778982374548, 0.0]
['beep', 0.0, -315.2043003087402, 0.0, 0.0, 0.0, 0.0, -1928.486159859438, 0.0]
['beep', 0.0, -311.29274502906145, 0.0, 0.0, 0.0, 0.0, -1930.2519476714074, 0.0]
['beep', 0.0, -312.70090492974583, 0.0, 0.0, 0.0, 0.0, -1931.8836250166448, 0.0]
['beep', 0.0, -318.84763465495524, 0.0, 0.0, 0.0, 0.0, -1930.9448517495218, 0.0]
