['beep', 187500.0, -4082.7919939508433, 187500.0, 187500.0, 187500.0, 187500.0, 4794.85151706356, 187500.0]
['beep', 187500.0, -4087.061177141807, 187500.0, 187500.0, 187500.0, 187500.0, 4796.103214753058, 187500.0]
['beep', 187500.0, -4089.162241120606, 187500.0, 187500.0, 187500.0, 187500.0, 4790.269409450222, 187500.0]
['beep', 187500.0, -4077.7852031928546, 187500.0, 187500.0, 187500.0, 187500.0, 4784.100327980558, 187500.0]
['beep', 187500.0, -4075.8182496807876, 187500.0, 187500.0, 187500.0, 187500.0, 4780.479345378798, 187500.0]
['beep', 187500.0, -4081.0709096277847, 187500.0, 187500.0, 187500.0, 187500.0, 4785.083804736591, 187500.0]
['beep', 187500.0, -4087.195287608539, 187500.0, 187500.0, 187500.0, 187500.0, 4786.536668126187, 187500.0]
['beep', 187500.0, -4084.6248369961786, 187500.0, 187500.0, 187500.0, 187500.0, 4783.9662175138255, 187500.0]
['beep', 187500.0, -4074.9241799025754, 187500.0, 187500.0, 187500.0, 187500.0, 4781.03813899018, 187500.0]
['beep', 187500.0, -4071.571418234279, 187500.0, 187500.0, 187500.0, 187500.0, 4779.831144789594, 187500.0]
['beep', 187500.0, -4076.712319459, 187500.0, 187500.0, 187500.0, 187500.0, 4782.669816335419, 187500.0]
['beep', 187500.0, -4082.0767381282735, 187500.0, 187500.0, 187500.0, 187500.0, 4786.536668126187, 187500.0]
['beep', 187500.0, -4077.606389237212, 187500.0, 187500.0, 187500.0, 187500.0, 4781.529877368197, 187500.0]
['beep', 187500.0, -4070.2973688003267, 187500.0, 187500.0, 187500.0, 187500.0, 4775.271388920712, 187500.0]
['beep', 187500.0, -4068.2410083104387, 187500.0, 187500.0, 187500.0, 187500.0, 4775.539609854175, 187500.0]
['beep', 187500.0, -4072.3090258013044, 187500.0, 187500.0, 187500.0, 187500.0, 4779.004130244748, 187500.0]
['beep', 187500.0, -4079.1710113490835, 187500.0, 187500.0, 187500.0, 187500.0, 4781.373415157011, 187500.0]
['beep', 187500.0, -4076.2429328254384, 187500.0, 187500.0, 187500.0, 187500.0, 4773.416194130921, 187500.0]
['beep', 187500.0, -4067.5034007434133, 187500.0, 187500.0, 187500.0, 187500.0, 4768.543513839664, 187500.0]
['beep', 187500.0, -4062.89894138562, 187500.0, 187500.0, 187500.0, 187500.0, 4768.364699884021, 187500.0]
['beep', 187500.0, -4066.6540344541118, 187500.0, 187500.0, 187500.0, 187500.0, 4771.94097899687, 187500.0]
['beep', 187500.0, -4071.9961013789302, 187500.0, 187500.0, 187500.0, 187500.0, 4775.584313343085, 187500.0]
['beep', 187500.0, -4065.022357108874, 187500.0, 187500.0, 187500.0, 187500.0, 4776.970121499315, 187500.0]
['beep', 187500.0, -4059.2109035504945, 187500.0, 187500.0, 187500.0, 187500.0, 4769.504638851242, 187500.0]
['beep', 187500.0, -4060.2390837954385, 187500.0, 187500.0, 187500.0, 187500.0, 4766.867133005516, 187500.0]
['beep', 187500.0, -4064.262397797394, 187500.0, 187500.0, 187500.0, 187500.0, 4770.823391774105, 187500.0]
['beep', 187500.0, -4071.0126246228965, 187500.0, 187500.0, 187500.0, 187500.0, 4772.052737719147, 187500.0]
['beep', 187500.0, -4065.357633275704, 187500.0, 187500.0, 187500.0, 187500.0, 4767.247112661256, 187500.0]
['beep', 187500.0, -4055.522865715369, 187500.0, 187500.0, 187500.0, 187500.0, 4759.155781168435, 187500.0]
['beep', 187500.0, -4055.23229303745, 187500.0, 187500.0, 187500.0, 187500.0, 4759.803981757639, 187500.0]
['beep', 187500.0, -4062.4295547520587, 187500.0, 187500.0, 187500.0, 187500.0, 4766.889484749971, 187500.0]
['beep', 187500.0, -4065.9834821204527, 187500.0, 187500.0, 187500.0, 187500.0, 4768.476458606298, 187500.0]
['beep', 187500.0, -4064.7541361754106, 187500.0, 187500.0, 187500.0, 187500.0, 4762.508542836731, 187500.0]
['beep', 187500.0, -4055.4111069930923, 187500.0, 187500.0, 187500.0, 187500.0, 4757.389993356466, 187500.0]
['beep', 187500.0, -4050.5607784462904, 187500.0, 187500.0, 187500.0, 187500.0, 4756.250054389245, 187500.0]
['beep', 187500.0, -4057.2663017828827, 187500.0, 187500.0, 187500.0, 187500.0, 4760.027499202192, 187500.0]
['beep', 187500.0, -4063.2789210413603, 187500.0, 187500.0, 187500.0, 187500.0, 4763.626130059496, 187500.0]
['beep', 187500.0, -4056.461638982492, 187500.0, 187500.0, 187500.0, 187500.0, 4762.195618414356, 187500.0]
['beep', 187500.0, -4046.448057466514, 187500.0, 187500.0, 187500.0, 187500.0, 4758.79815325715, 187500.0]
['beep', 187500.0, -4045.0175458213744, 187500.0, 187500.0, 187500.0, 187500.0, 4757.3229381231, 187500.0]
['beep', 187500.0, -4050.069040068274, 187500.0, 187500.0, 187500.0, 187500.0, 4759.759278268728, 187500.0]
['beep', 187500.0, -4056.260473282394, 187500.0, 187500.0, 187500.0, 187500.0, 4761.882693991983, 187500.0]
['beep', 187500.0, -4051.5666069467793, 187500.0, 187500.0, 187500.0, 187500.0, 4761.815638758617, 187500.0]
['beep', 187500.0, -4042.89413009812, 187500.0, 187500.0, 187500.0, 187500.0, 4758.060545690125, 187500.0]
['beep', 187500.0, -4041.709487641989, 187500.0, 187500.0, 187500.0, 187500.0, 4757.144124167457, 187500.0]
['beep', 187500.0, -4046.4033539776033, 187500.0, 187500.0, 187500.0, 187500.0, 4760.7204032803065, 187500.0]
['beep', 187500.0, -4053.3323947587487, 187500.0, 187500.0, 187500.0, 187500.0, 4762.508542836731, 187500.0]
['beep', 187500.0, -4059.322662272771, 187500.0, 187500.0, 187500.0, 187500.0, 4758.820505001606, 187500.0]
['beep', 187500.0, -4051.5219034578686, 187500.0, 187500.0, 187500.0, 187500.0, 4748.583406041075, 187500.0]
['beep', 187500.0, -4041.1059905416955, 187500.0, 187500.0, 187500.0, 187500.0, 4745.655327517429, 187500.0]
['beep', 187500.0, -4042.201226020006, 187500.0, 187500.0, 187500.0, 187500.0, 4751.600891542541, 187500.0]
['beep', 187500.0, -4046.9844993334414, 187500.0, 187500.0, 187500.0, 187500.0, 4757.300586378645, 187500.0]
['beep', 187500.0, -4039.7201823854666, 187500.0, 187500.0, 187500.0, 187500.0, 4759.692223035362, 187500.0]
['beep', 187500.0, -4027.2702607238607, 187500.0, 187500.0, 187500.0, 187500.0, 4754.908949721927, 187500.0]
['beep', 187500.0, -4023.1128362551735, 187500.0, 187500.0, 187500.0, 187500.0, 4752.98669969877, 187500.0]
['beep', 187500.0, -4032.7017346265, 187500.0, 187500.0, 187500.0, 187500.0, 4756.540627067164, 187500.0]
['beep', 187500.0, -4043.0058888203966, 187500.0, 187500.0, 187500.0, 187500.0, 4759.155781168435, 187500.0]
['beep', 187500.0, -4038.557891673791, 187500.0, 187500.0, 187500.0, 187500.0, 4753.70195552134, 187500.0]
['beep', 187500.0, -4030.779484603344, 187500.0, 187500.0, 187500.0, 187500.0, 4745.923548450894, 187500.0]
['beep', 187500.0, -4030.9582985589864, 187500.0, 187500.0, 187500.0, 187500.0, 4743.822484472094, 187500.0]
['beep', 187500.0, -4035.4062957055926, 187500.0, 187500.0, 187500.0, 187500.0, 4745.498865306243, 187500.0]
['beep', 187500.0, -4042.1788742755502, 187500.0, 187500.0, 187500.0, 187500.0, 4747.264653118212, 187500.0]
['beep', 187500.0, -4037.641470151123, 187500.0, 187500.0, 187500.0, 187500.0, 4747.577577540586, 187500.0]
['beep', 187500.0, -4028.3431444577154, 187500.0, 187500.0, 187500.0, 187500.0, 4740.045039659148, 187500.0]
['beep', 187500.0, -4027.493778168414, 187500.0, 187500.0, 187500.0, 187500.0, 4737.698106491341, 187500.0]
['beep', 187500.0, -4032.2323479929387, 187500.0, 187500.0, 187500.0, 187500.0, 4741.3190890931, 187500.0]
['beep', 187500.0, -4040.0778102967515, 187500.0, 187500.0, 187500.0, 187500.0, 4743.017821671703, 187500.0]
['beep', 187500.0, -4037.4403044510254, 187500.0, 187500.0, 187500.0, 187500.0, 4742.481379804776, 187500.0]
['beep', 187500.0, -4026.264432223372, 187500.0, 187500.0, 187500.0, 187500.0, 4739.441542558854, 187500.0]
['beep', 187500.0, -4024.968031044964, 187500.0, 187500.0, 187500.0, 187500.0, 4736.088780890558, 187500.0]
['beep', 187500.0, -4031.5394439148245, 187500.0, 187500.0, 187500.0, 187500.0, 4736.111132635014, 187500.0]
['beep', 187500.0, -4034.735743371933, 187500.0, 187500.0, 187500.0, 187500.0, 4739.821522214595, 187500.0]
['beep', 187500.0, -4030.3771532031483, 187500.0, 187500.0, 187500.0, 187500.0, 4738.659231502918, 187500.0]
['beep', 187500.0, -4020.452978664992, 187500.0, 187500.0, 187500.0, 187500.0, 4734.79237971215, 187500.0]
['beep', 187500.0, -4017.41314141907, 187500.0, 187500.0, 187500.0, 187500.0, 4733.004240155726, 187500.0]
['beep', 187500.0, -4019.3353914422264, 187500.0, 187500.0, 187500.0, 187500.0, 4738.368658824999, 187500.0]
['beep', 187500.0, -4025.571528145257, 187500.0, 187500.0, 187500.0, 187500.0, 4737.966327424804, 187500.0]
['beep', 187500.0, -4021.2129379764724, 187500.0, 187500.0, 187500.0, 187500.0, 4736.558167524119, 187500.0]
['beep', 187500.0, -4012.965144272464, 187500.0, 187500.0, 187500.0, 187500.0, 4732.847777944538, 187500.0]
['beep', 187500.0, -4009.7241413264446, 187500.0, 187500.0, 187500.0, 187500.0, 4731.059638388114, 187500.0]
['beep', 187500.0, -4016.2508507073944, 187500.0, 187500.0, 187500.0, 187500.0, 4733.563033767108, 187500.0]
['beep', 187500.0, -4023.4257606775477, 187500.0, 187500.0, 187500.0, 187500.0, 4736.289946590656, 187500.0]
['beep', 187500.0, -4017.100216996696, 187500.0, 187500.0, 187500.0, 187500.0, 4736.2452431017455, 187500.0]
['beep', 187500.0, -4009.321809926249, 187500.0, 187500.0, 187500.0, 187500.0, 4731.327859321578, 187500.0]
['beep', 187500.0, -4003.108024967674, 187500.0, 187500.0, 187500.0, 187500.0, 4729.6067749985195, 187500.0]
['beep', 187500.0, -4010.327638426738, 187500.0, 187500.0, 187500.0, 187500.0, 4732.7807227111725, 187500.0]
['beep', 187500.0, -4020.5647373872685, 187500.0, 187500.0, 187500.0, 187500.0, 4736.468760546299, 187500.0]
['beep', 187500.0, -4015.6697053515563, 187500.0, 187500.0, 187500.0, 187500.0, 4732.333687822066, 187500.0]
['beep', 187500.0, -4007.265449436361, 187500.0, 187500.0, 187500.0, 187500.0, 4727.818635442095, 187500.0]
['beep', 187500.0, -4004.359722657171, 187500.0, 187500.0, 187500.0, 187500.0, 4725.069370874092, 187500.0]
['beep', 187500.0, -4009.0535889927855, 187500.0, 187500.0, 187500.0, 187500.0, 4730.165568609902, 187500.0]
['beep', 187500.0, -4017.904879797087, 187500.0, 187500.0, 187500.0, 187500.0, 4731.327859321578, 187500.0]
['beep', 187500.0, -4014.552118128791, 187500.0, 187500.0, 187500.0, 187500.0, 4725.896385418938, 187500.0]
['beep', 187500.0, -4004.1138534681627, 187500.0, 187500.0, 187500.0, 187500.0, 4722.118940605991, 187500.0]
['beep', 187500.0, -3997.9894754874085, 187500.0, 187500.0, 187500.0, 187500.0, 4723.6835627178625, 187500.0]
['beep', 187500.0, -3993.228553918428, 187500.0, 187500.0, 187500.0, 187500.0, 4730.143216865446, 187500.0]
['beep', 187500.0, -4001.476347622436, 187500.0, 187500.0, 187500.0, 187500.0, 4733.898309933938, 187500.0]
['beep', 187500.0, -4015.446187907003, 187500.0, 187500.0, 187500.0, 187500.0, 4727.103379619525, 187500.0]
['beep', 187500.0, -4012.1381297276175, 187500.0, 187500.0, 187500.0, 187500.0, 4718.6320684709635, 187500.0]
['beep', 187500.0, -4007.3101529252713, 187500.0, 187500.0, 187500.0, 187500.0, 4719.101455104525, 187500.0]
['beep', 187500.0, -4006.930173269531, 187500.0, 187500.0, 187500.0, 187500.0, 4722.074237117081, 187500.0]
['beep', 187500.0, -4014.3062489397826, 187500.0, 187500.0, 187500.0, 187500.0, 4721.984830139259, 187500.0]
['beep', 187500.0, -4011.7357983274223, 187500.0, 187500.0, 187500.0, 187500.0, 4721.64955397243, 187500.0]
['beep', 187500.0, -4004.1809087015286, 187500.0, 187500.0, 187500.0, 187500.0, 4714.273478302179, 187500.0]
['beep', 187500.0, -3999.0847109657184, 187500.0, 187500.0, 187500.0, 187500.0, 4713.111187590503, 187500.0]
['beep', 187500.0, -4002.795100545299, 187500.0, 187500.0, 187500.0, 187500.0, 4716.665114958896, 187500.0]
['beep', 187500.0, -4011.847557049699, 187500.0, 187500.0, 187500.0, 187500.0, 4720.151987093925, 187500.0]
['beep', 187500.0, -4010.1041209821847, 187500.0, 187500.0, 187500.0, 187500.0, 4715.659286458407, 187500.0]
['beep', 187500.0, -3998.883545265621, 187500.0, 187500.0, 187500.0, 187500.0, 4711.278344545168, 187500.0]
['beep', 187500.0, -3995.977818486431, 187500.0, 187500.0, 187500.0, 187500.0, 4710.227812555768, 187500.0]
['beep', 187500.0, -3999.8223185327433, 187500.0, 187500.0, 187500.0, 187500.0, 4714.496995746732, 187500.0]
['beep', 187500.0, -4008.4724436369474, 187500.0, 187500.0, 187500.0, 187500.0, 4715.905155647416, 187500.0]
['beep', 187500.0, -4007.8018913032884, 187500.0, 187500.0, 187500.0, 187500.0, 4708.283210788156, 187500.0]
['beep', 187500.0, -3995.8213562752435, 187500.0, 187500.0, 187500.0, 187500.0, 4707.1879753098465, 187500.0]
['beep', 187500.0, -3991.9321527400202, 187500.0, 187500.0, 187500.0, 187500.0, 4707.031513098659, 187500.0]
['beep', 187500.0, -3994.994341730397, 187500.0, 187500.0, 187500.0, 187500.0, 4713.692332946341, 187500.0]
['beep', 187500.0, -4000.157594699573, 187500.0, 187500.0, 187500.0, 187500.0, 4716.620411469986, 187500.0]
['beep', 187500.0, -3996.4695568644474, 187500.0, 187500.0, 187500.0, 187500.0, 4715.569879480587, 187500.0]
['beep', 187500.0, -3988.6240945606346, 187500.0, 187500.0, 187500.0, 187500.0, 4711.725379434273, 187500.0]
['beep', 187500.0, -3983.6620072915566, 187500.0, 187500.0, 187500.0, 187500.0, 4708.260859043701, 187500.0]
['beep', 187500.0, -3991.708635295467, 187500.0, 187500.0, 187500.0, 187500.0, 4712.485338745754, 187500.0]
['beep', 187500.0, -3999.5317458548247, 187500.0, 187500.0, 187500.0, 187500.0, 4716.083969603058, 187500.0]
['beep', 187500.0, -3995.5084318528693, 187500.0, 187500.0, 187500.0, 187500.0, 4713.066484101592, 187500.0]
['beep', 187500.0, -3984.2431526473947, 187500.0, 187500.0, 187500.0, 187500.0, 4709.132577077458, 187500.0]
['beep', 187500.0, -3978.4093473445596, 187500.0, 187500.0, 187500.0, 187500.0, 4705.153966564413, 187500.0]
['beep', 187500.0, -3979.8622107341544, 187500.0, 187500.0, 187500.0, 187500.0, 4709.289039288645, 187500.0]
['beep', 187500.0, -3985.427795103526, 187500.0, 187500.0, 187500.0, 187500.0, 4713.200594568324, 187500.0]
['beep', 187500.0, -3988.110004438163, 187500.0, 187500.0, 187500.0, 187500.0, 4707.746768921229, 187500.0]
['beep', 187500.0, -3978.8563822336655, 187500.0, 187500.0, 187500.0, 187500.0, 4702.4941089742315, 187500.0]
['beep', 187500.0, -3975.0118821873525, 187500.0, 187500.0, 187500.0, 187500.0, 4702.7846816521505, 187500.0]
['beep', 187500.0, -3979.8175072452436, 187500.0, 187500.0, 187500.0, 187500.0, 4707.970286365782, 187500.0]
['beep', 187500.0, -3983.572600313735, 187500.0, 187500.0, 187500.0, 187500.0, 4711.5912689675415, 187500.0]
['beep', 187500.0, -3978.655216533568, 187500.0, 187500.0, 187500.0, 187500.0, 4708.752597421718, 187500.0]
['beep', 187500.0, -3969.289835606794, 187500.0, 187500.0, 187500.0, 187500.0, 4704.349303764022, 187500.0]
['beep', 187500.0, -3963.4783820484145, 187500.0, 187500.0, 187500.0, 187500.0, 4704.975152608771, 187500.0]
['beep', 187500.0, -3970.250960618372, 187500.0, 187500.0, 187500.0, 187500.0, 4707.813824154595, 187500.0]
['beep', 187500.0, -3976.755318254867, 187500.0, 187500.0, 187500.0, 187500.0, 4707.813824154595, 187500.0]
['beep', 187500.0, -3973.067280419741, 187500.0, 187500.0, 187500.0, 187500.0, 4707.724417176773, 187500.0]
['beep', 187500.0, -3965.981777427409, 187500.0, 187500.0, 187500.0, 187500.0, 4700.54950720662, 187500.0]
['beep', 187500.0, -3964.998300671375, 187500.0, 187500.0, 187500.0, 187500.0, 4698.716664161285, 187500.0]
['beep', 187500.0, -3971.256789118861, 187500.0, 187500.0, 187500.0, 187500.0, 4700.527155462165, 187500.0]
['beep', 187500.0, -3979.392824100593, 187500.0, 187500.0, 187500.0, 187500.0, 4705.6010014535195, 187500.0]
['beep', 187500.0, -3975.458917076459, 187500.0, 187500.0, 187500.0, 187500.0, 4705.690408431341, 187500.0]
['beep', 187500.0, -3964.394803571082, 187500.0, 187500.0, 187500.0, 187500.0, 4698.180222294357, 187500.0]
['beep', 187500.0, -3962.8301814592105, 187500.0, 187500.0, 187500.0, 187500.0, 4694.559239692598, 187500.0]
['beep', 187500.0, -3967.591103028191, 187500.0, 187500.0, 187500.0, 187500.0, 4697.777890894162, 187500.0]
['beep', 187500.0, -3976.8000217437775, 187500.0, 187500.0, 187500.0, 187500.0, 4700.750672906718, 187500.0]
['beep', 187500.0, -3974.2072193869617, 187500.0, 187500.0, 187500.0, 187500.0, 4698.023760083171, 187500.0]
['beep', 187500.0, -3964.350100082171, 187500.0, 187500.0, 187500.0, 187500.0, 4694.291018759134, 187500.0]
['beep', 187500.0, -3961.5561320252577, 187500.0, 187500.0, 187500.0, 187500.0, 4692.391120480433, 187500.0]
['beep', 187500.0, -3966.965254183442, 187500.0, 187500.0, 187500.0, 187500.0, 4695.07332981507, 187500.0]
['beep', 187500.0, -3972.106155408163, 187500.0, 187500.0, 187500.0, 187500.0, 4699.186050794846, 187500.0]
['beep', 187500.0, -3966.8534954611655, 187500.0, 187500.0, 187500.0, 187500.0, 4697.353207749511, 187500.0]
['beep', 187500.0, -3960.036213402297, 187500.0, 187500.0, 187500.0, 187500.0, 4689.395986723422, 187500.0]
['beep', 187500.0, -3954.3365185661937, 187500.0, 187500.0, 187500.0, 187500.0, 4688.770137878673, 187500.0]
['beep', 187500.0, -3965.0206524158307, 187500.0, 187500.0, 187500.0, 187500.0, 4691.385291979944, 187500.0]
['beep', 187500.0, -3975.16834439854, 187500.0, 187500.0, 187500.0, 187500.0, 4693.285190258645, 187500.0]
['beep', 187500.0, -3970.5638850407468, 187500.0, 187500.0, 187500.0, 187500.0, 4692.860507113995, 187500.0]
['beep', 187500.0, -3960.818524458233, 187500.0, 187500.0, 187500.0, 187500.0, 4686.333797733045, 187500.0]
['beep', 187500.0, -3955.4988092778694, 187500.0, 187500.0, 187500.0, 187500.0, 4685.171507021369, 187500.0]
['beep', 187500.0, -3959.6562337465566, 187500.0, 187500.0, 187500.0, 187500.0, 4689.507745445699, 187500.0]
['beep', 187500.0, -3965.8029634717664, 187500.0, 187500.0, 187500.0, 187500.0, 4692.212306524791, 187500.0]
['beep', 187500.0, -3963.0536989037632, 187500.0, 187500.0, 187500.0, 187500.0, 4689.172469278868, 187500.0]
['beep', 187500.0, -3952.25780633185, 187500.0, 187500.0, 187500.0, 187500.0, 4683.964512820782, 187500.0]
['beep', 187500.0, -3947.6086434851463, 187500.0, 187500.0, 187500.0, 187500.0, 4684.232733754246, 187500.0]
['beep', 187500.0, -3954.8282569442104, 187500.0, 187500.0, 187500.0, 187500.0, 4684.679768643352, 187500.0]
['beep', 187500.0, -3962.1149256366407, 187500.0, 187500.0, 187500.0, 187500.0, 4685.707948888296, 187500.0]
['beep', 187500.0, -3959.6115302576463, 187500.0, 187500.0, 187500.0, 187500.0, 4686.445556455321, 187500.0]
['beep', 187500.0, -3950.7602394533446, 187500.0, 187500.0, 187500.0, 187500.0, 4679.4047569519, 187500.0]
['beep', 187500.0, -3945.328765550705, 187500.0, 187500.0, 187500.0, 187500.0, 4679.471812185266, 187500.0]
['beep', 187500.0, -3948.8603411746435, 187500.0, 187500.0, 187500.0, 187500.0, 4683.1822017648465, 187500.0]
['beep', 187500.0, -3955.610568000146, 187500.0, 187500.0, 187500.0, 187500.0, 4686.557315177598, 187500.0]
['beep', 187500.0, -3952.011937142842, 187500.0, 187500.0, 187500.0, 187500.0, 4683.271608742668, 187500.0]
['beep', 187500.0, -3940.59019572618, 187500.0, 187500.0, 187500.0, 187500.0, 4678.465983684777, 187500.0]
['beep', 187500.0, -3935.449294501459, 187500.0, 187500.0, 187500.0, 187500.0, 4678.622445895964, 187500.0]
['beep', 187500.0, -3942.423038771515, 187500.0, 187500.0, 187500.0, 187500.0, 4682.668111642374, 187500.0]
['beep', 187500.0, -3950.268501075328, 187500.0, 187500.0, 187500.0, 187500.0, 4684.16567852088, 187500.0]
['beep', 187500.0, -3946.2898905622833, 187500.0, 187500.0, 187500.0, 187500.0, 4683.4727744427655, 187500.0]
['beep', 187500.0, -3936.8351026576884, 187500.0, 187500.0, 187500.0, 187500.0, 4678.667149384874, 187500.0]
['beep', 187500.0, -3933.169416567018, 187500.0, 187500.0, 187500.0, 187500.0, 4678.197762751313, 187500.0]
['beep', 187500.0, -3936.365716024127, 187500.0, 187500.0, 187500.0, 187500.0, 4681.818745353073, 187500.0]
['beep', 187500.0, -3944.837027172688, 187500.0, 187500.0, 187500.0, 187500.0, 4682.824573853562, 187500.0]
['beep', 187500.0, -3943.2724050608167, 187500.0, 187500.0, 187500.0, 187500.0, 4682.086966286536, 187500.0]
['beep', 187500.0, -3933.080009589197, 187500.0, 187500.0, 187500.0, 187500.0, 4677.63896913993, 187500.0]
['beep', 187500.0, -3927.6708874310125, 187500.0, 187500.0, 187500.0, 187500.0, 4676.499030172709, 187500.0]
['beep', 187500.0, -3930.0848758321854, 187500.0, 187500.0, 187500.0, 187500.0, 4679.091832529525, 187500.0]
['beep', 187500.0, -3935.4716462459146, 187500.0, 187500.0, 187500.0, 187500.0, 4682.109318030992, 187500.0]
['beep', 187500.0, -3930.3530967656493, 187500.0, 187500.0, 187500.0, 187500.0, 4682.981036064749, 187500.0]
['beep', 187500.0, -3925.1451403075625, 187500.0, 187500.0, 187500.0, 187500.0, 4678.3095214735895, 187500.0]
['beep', 187500.0, -3919.736018149378, 187500.0, 187500.0, 187500.0, 187500.0, 4675.739070861229, 187500.0]
['beep', 187500.0, -3921.5241577058027, 187500.0, 187500.0, 187500.0, 187500.0, 4683.584533165042, 187500.0]
['beep', 187500.0, -3931.068352588219, 187500.0, 187500.0, 187500.0, 187500.0, 4684.54565817662, 187500.0]
['beep', 187500.0, -3933.482340989392, 187500.0, 187500.0, 187500.0, 187500.0, 4680.87997208595, 187500.0]
['beep', 187500.0, -3937.0586201022415, 187500.0, 187500.0, 187500.0, 187500.0, 4675.180277249847, 187500.0]
['beep', 187500.0, -3923.3122972622273, 187500.0, 187500.0, 187500.0, 187500.0, 4672.810992337584, 187500.0]
['beep', 187500.0, -3904.782701108778, 187500.0, 187500.0, 187500.0, 187500.0, 4679.382405207444, 187500.0]
['beep', 187500.0, -3911.912907590021, 187500.0, 187500.0, 187500.0, 187500.0, 4683.226905253757, 187500.0]
['beep', 187500.0, -3910.1918232669623, 187500.0, 187500.0, 187500.0, 187500.0, 4681.617579652975, 187500.0]
['beep', 187500.0, -3903.776872608289, 187500.0, 187500.0, 187500.0, 187500.0, 4673.883876071439, 187500.0]
['beep', 187500.0, -3897.7866050942666, 187500.0, 187500.0, 187500.0, 187500.0, 4674.397966193911, 187500.0]
['beep', 187500.0, -3898.5018609168364, 187500.0, 187500.0, 187500.0, 187500.0, 4680.097661030014, 187500.0]
['beep', 187500.0, -3908.5377941772695, 187500.0, 187500.0, 187500.0, 187500.0, 4681.081137786047, 187500.0]
['beep', 187500.0, -3905.587363909169, 187500.0, 187500.0, 187500.0, 187500.0, 4676.588437150531, 187500.0]
['beep', 187500.0, -3898.5018609168364, 187500.0, 187500.0, 187500.0, 187500.0, 4672.2074952372905, 187500.0]
['beep', 187500.0, -3894.1432707480517, 187500.0, 187500.0, 187500.0, 187500.0, 4673.615655137975, 187500.0]
['beep', 187500.0, -3900.178241750985, 187500.0, 187500.0, 187500.0, 187500.0, 4676.007291794693, 187500.0]
['beep', 187500.0, -3909.0518842997417, 187500.0, 187500.0, 187500.0, 187500.0, 4681.394062208422, 187500.0]
['beep', 187500.0, -3900.0888347731634, 187500.0, 187500.0, 187500.0, 187500.0, 4679.360053462989, 187500.0]
['beep', 187500.0, -3894.031512025775, 187500.0, 187500.0, 187500.0, 187500.0, 4673.347434204511, 187500.0]
['beep', 187500.0, -3890.3434741906494, 187500.0, 187500.0, 187500.0, 187500.0, 4674.107393515992, 187500.0]
['beep', 187500.0, -3894.7020643594346, 187500.0, 187500.0, 187500.0, 187500.0, 4675.694367372318, 187500.0]
['beep', 187500.0, -3901.206421995929, 187500.0, 187500.0, 187500.0, 187500.0, 4681.97520756426, 187500.0]
['beep', 187500.0, -3898.4124539390154, 187500.0, 187500.0, 187500.0, 187500.0, 4681.036434297137, 187500.0]
['beep', 187500.0, -3887.0577677557194, 187500.0, 187500.0, 187500.0, 187500.0, 4677.97424530676, 187500.0]
['beep', 187500.0, -3878.2511804403284, 187500.0, 187500.0, 187500.0, 187500.0, 4677.124879017458, 187500.0]
['beep', 187500.0, -3885.783718321767, 187500.0, 187500.0, 187500.0, 187500.0, 4676.297864472612, 187500.0]
['beep', 187500.0, -3890.455232912926, 187500.0, 187500.0, 187500.0, 187500.0, 4680.92467557486, 187500.0]
['beep', 187500.0, -3886.3425119331496, 187500.0, 187500.0, 187500.0, 187500.0, 4677.59426565102, 187500.0]
['beep', 187500.0, -3876.2171716948956, 187500.0, 187500.0, 187500.0, 187500.0, 4675.716719116774, 187500.0]
['beep', 187500.0, -3868.0811367131637, 187500.0, 187500.0, 187500.0, 187500.0, 4673.2580272266905, 187500.0]
['beep', 187500.0, -3870.1151454585965, 187500.0, 187500.0, 187500.0, 187500.0, 4676.7225476172625, 187500.0]
['beep', 187500.0, -3876.7312618173673, 187500.0, 187500.0, 187500.0, 187500.0, 4683.204553509302, 187500.0]
['beep', 187500.0, -3875.725433316879, 187500.0, 187500.0, 187500.0, 187500.0, 4679.874143585461, 187500.0]
['beep', 187500.0, -3861.397965121027, 187500.0, 187500.0, 187500.0, 187500.0, 4676.2531609837015, 187500.0]
['beep', 187500.0, -3853.016060950287, 187500.0, 187500.0, 187500.0, 187500.0, 4674.017986538171, 187500.0]
['beep', 187500.0, -3860.436840109449, 187500.0, 187500.0, 187500.0, 187500.0, 4679.628274396453, 187500.0]
['beep', 187500.0, -3866.2482936678284, 187500.0, 187500.0, 187500.0, 187500.0, 4683.316312231578, 187500.0]
['beep', 187500.0, -3867.0976599571304, 187500.0, 187500.0, 187500.0, 187500.0, 4680.16471626338, 187500.0]
['beep', 187500.0, -3860.7050610429123, 187500.0, 187500.0, 187500.0, 187500.0, 4677.281341228645, 187500.0]
['beep', 187500.0, -3856.167656918485, 187500.0, 187500.0, 187500.0, 187500.0, 4671.3804806924445, 187500.0]
['beep', 187500.0, -3863.43197386646, 187500.0, 187500.0, 187500.0, 187500.0, 4671.000501036704, 187500.0]
['beep', 187500.0, -3873.1549827045183, 187500.0, 187500.0, 187500.0, 187500.0, 4675.940236561327, 187500.0]
['beep', 187500.0, -3866.71768030139, 187500.0, 187500.0, 187500.0, 187500.0, 4675.381442949944, 187500.0]
['beep', 187500.0, -3855.497104584826, 187500.0, 187500.0, 187500.0, 187500.0, 4668.742974846718, 187500.0]
['beep', 187500.0, -3848.4116015924933, 187500.0, 187500.0, 187500.0, 187500.0, 4667.379518434945, 187500.0]
['beep', 187500.0, -3849.5068370708036, 187500.0, 187500.0, 187500.0, 187500.0, 4677.571913906564, 187500.0]
['beep', 187500.0, -3855.497104584826, 187500.0, 187500.0, 187500.0, 187500.0, 4684.657416898896, 187500.0]
['beep', 187500.0, -3849.663299281991, 187500.0, 187500.0, 187500.0, 187500.0, 4682.01991105317, 187500.0]
['beep', 187500.0, -3840.566139288681, 187500.0, 187500.0, 187500.0, 187500.0, 4676.454326683799, 187500.0]
['beep', 187500.0, -3838.621537521069, 187500.0, 187500.0, 187500.0, 187500.0, 4675.001463294204, 187500.0]
['beep', 187500.0, -3845.6623370244906, 187500.0, 187500.0, 187500.0, 187500.0, 4681.081137786047, 187500.0]
['beep', 187500.0, -3855.8100290072002, 187500.0, 187500.0, 187500.0, 187500.0, 4683.495126187221, 187500.0]
['beep', 187500.0, -3857.4417063524374, 187500.0, 187500.0, 187500.0, 187500.0, 4680.20941975229, 187500.0]
['beep', 187500.0, -3846.489351569337, 187500.0, 187500.0, 187500.0, 187500.0, 4675.560256905586, 187500.0]
['beep', 187500.0, -3842.0190026782757, 187500.0, 187500.0, 187500.0, 187500.0, 4673.995634793715, 187500.0]
['beep', 187500.0, -3848.4116015924933, 187500.0, 187500.0, 187500.0, 187500.0, 4676.811954595084, 187500.0]
['beep', 187500.0, -3844.880025968555, 187500.0, 187500.0, 187500.0, 187500.0, 4681.774041864162, 187500.0]
['beep', 187500.0, -3837.9956886763202, 187500.0, 187500.0, 187500.0, 187500.0, 4682.198725008813, 187500.0]
['beep', 187500.0, -3847.6292905365576, 187500.0, 187500.0, 187500.0, 187500.0, 4671.06755627007, 187500.0]
['beep', 187500.0, -3849.462133581893, 187500.0, 187500.0, 187500.0, 187500.0, 4669.145306246914, 187500.0]
['beep', 187500.0, -3862.806125021711, 187500.0, 187500.0, 187500.0, 187500.0, 4675.180277249847, 187500.0]
['beep', 187500.0, -3864.6389680670463, 187500.0, 187500.0, 187500.0, 187500.0, 4679.4047569519, 187500.0]
['beep', 187500.0, -3857.3746511190716, 187500.0, 187500.0, 187500.0, 187500.0, 4675.157925505391, 187500.0]
['beep', 187500.0, -3849.8421132376334, 187500.0, 187500.0, 187500.0, 187500.0, 4673.4368411823325, 187500.0]
['beep', 187500.0, -3840.297918355217, 187500.0, 187500.0, 187500.0, 187500.0, 4672.274550470656, 187500.0]
['beep', 187500.0, -3848.9256917149655, 187500.0, 187500.0, 187500.0, 187500.0, 4674.330910960545, 187500.0]
['beep', 187500.0, -3858.4475348529263, 187500.0, 187500.0, 187500.0, 187500.0, 4678.6000941515085, 187500.0]
['beep', 187500.0, -3854.5136278287923, 187500.0, 187500.0, 187500.0, 187500.0, 4675.6049603944975, 187500.0]
['beep', 187500.0, -3848.389249848038, 187500.0, 187500.0, 187500.0, 187500.0, 4666.664262612375, 187500.0]
['beep', 187500.0, -3844.4776945683593, 187500.0, 187500.0, 187500.0, 187500.0, 4665.390213178422, 187500.0]
['beep', 187500.0, -3847.651642281013, 187500.0, 187500.0, 187500.0, 187500.0, 4672.185143492835, 187500.0]
['beep', 187500.0, -3860.19097092044, 187500.0, 187500.0, 187500.0, 187500.0, 4673.526248160154, 187500.0]
['beep', 187500.0, -3856.9276162299657, 187500.0, 187500.0, 187500.0, 187500.0, 4675.716719116774, 187500.0]
['beep', 187500.0, -3846.109371913597, 187500.0, 187500.0, 187500.0, 187500.0, 4672.699233615307, 187500.0]
['beep', 187500.0, -3839.850883466111, 187500.0, 187500.0, 187500.0, 187500.0, 4668.966492291271, 187500.0]
['beep', 187500.0, -3845.192950390929, 187500.0, 187500.0, 187500.0, 187500.0, 4670.240541725224, 187500.0]
['beep', 187500.0, -3855.4300493514597, 187500.0, 187500.0, 187500.0, 187500.0, 4673.4368411823325, 187500.0]
['beep', 187500.0, -3852.658433039002, 187500.0, 187500.0, 187500.0, 187500.0, 4671.983977792737, 187500.0]
['beep', 187500.0, -3843.136589901041, 187500.0, 187500.0, 187500.0, 187500.0, 4668.228884724246, 187500.0]
['beep', 187500.0, -3834.9558514303985, 187500.0, 187500.0, 187500.0, 187500.0, 4667.4465736683105, 187500.0]
['beep', 187500.0, -3839.7391247438345, 187500.0, 187500.0, 187500.0, 187500.0, 4669.458230669288, 187500.0]
['beep', 187500.0, -3850.9373487159432, 187500.0, 187500.0, 187500.0, 187500.0, 4671.738108603729, 187500.0]
['beep', 187500.0, -3847.9422149589323, 187500.0, 187500.0, 187500.0, 187500.0, 4670.978149292248, 187500.0]
['beep', 187500.0, -3836.2075491198957, 187500.0, 187500.0, 187500.0, 187500.0, 4665.904303300894, 187500.0]
['beep', 187500.0, -3833.2124153628847, 187500.0, 187500.0, 187500.0, 187500.0, 4665.703137600796, 187500.0]
['beep', 187500.0, -3840.0520491662087, 187500.0, 187500.0, 187500.0, 187500.0, 4666.619559123464, 187500.0]
['beep', 187500.0, -3848.165732403485, 187500.0, 187500.0, 187500.0, 187500.0, 4668.698271357807, 187500.0]
['beep', 187500.0, -3845.8635027245887, 187500.0, 187500.0, 187500.0, 187500.0, 4667.804201579595, 187500.0]
['beep', 187500.0, -3837.883929954044, 187500.0, 187500.0, 187500.0, 187500.0, 4663.311500944078, 187500.0]
['beep', 187500.0, -3835.358182830594, 187500.0, 187500.0, 187500.0, 187500.0, 4660.897512542905, 187500.0]
['beep', 187500.0, -3843.784790490245, 187500.0, 187500.0, 187500.0, 187500.0, 4663.199742221802, 187500.0]
['beep', 187500.0, -3852.2113981498956, 187500.0, 187500.0, 187500.0, 187500.0, 4664.272625955657, 187500.0]
['beep', 187500.0, -3849.462133581893, 187500.0, 187500.0, 187500.0, 187500.0, 4662.797410821607, 187500.0]
['beep', 187500.0, -3839.336793343639, 187500.0, 187500.0, 187500.0, 187500.0, 4659.846980553506, 187500.0]
['beep', 187500.0, -3833.6370985075355, 187500.0, 187500.0, 187500.0, 187500.0, 4656.605977607486, 187500.0]
['beep', 187500.0, -3837.3474880871167, 187500.0, 187500.0, 187500.0, 187500.0, 4660.964567776271, 187500.0]
['beep', 187500.0, -3846.824627736167, 187500.0, 187500.0, 187500.0, 187500.0, 4660.986919520727, 187500.0]
['beep', 187500.0, -3843.650680023513, 187500.0, 187500.0, 187500.0, 187500.0, 4659.042317753115, 187500.0]
['beep', 187500.0, -3831.6701449954685, 187500.0, 187500.0, 187500.0, 187500.0, 4655.376631662444, 187500.0]
['beep', 187500.0, -3827.8703484380662, 187500.0, 187500.0, 187500.0, 187500.0, 4654.326099673045, 187500.0]
['beep', 187500.0, -3836.721639242368, 187500.0, 187500.0, 187500.0, 187500.0, 4655.890721784916, 187500.0]
['beep', 187500.0, -3846.5340550582478, 187500.0, 187500.0, 187500.0, 187500.0, 4660.249311953701, 187500.0]
['beep', 187500.0, -3840.1191043995746, 187500.0, 187500.0, 187500.0, 187500.0, 4658.975262519749, 187500.0]
['beep', 187500.0, -3831.0219444062645, 187500.0, 187500.0, 187500.0, 187500.0, 4655.331928173534, 187500.0]
['beep', 187500.0, -3828.51854902727, 187500.0, 187500.0, 187500.0, 187500.0, 4650.816875793562, 187500.0]
['beep', 187500.0, -3829.166749616474, 187500.0, 187500.0, 187500.0, 187500.0, 4654.437858395321, 187500.0]
['beep', 187500.0, -3838.2862613542393, 187500.0, 187500.0, 187500.0, 187500.0, 4659.4670008977655, 187500.0]
['beep', 187500.0, -3835.5593485306918, 187500.0, 187500.0, 187500.0, 187500.0, 4653.4767333837435, 187500.0]
['beep', 187500.0, -3825.7916362037226, 187500.0, 187500.0, 187500.0, 187500.0, 4650.30278567109, 187500.0]
['beep', 187500.0, -3818.4155605334713, 187500.0, 187500.0, 187500.0, 187500.0, 4649.185198448325, 187500.0]
['beep', 187500.0, -3822.237708835329, 187500.0, 187500.0, 187500.0, 187500.0, 4654.527265373143, 187500.0]
['beep', 187500.0, -3836.6098805200913, 187500.0, 187500.0, 187500.0, 187500.0, 4659.869332297961, 187500.0]
['beep', 187500.0, -3840.968470688876, 187500.0, 187500.0, 187500.0, 187500.0, 4658.5282276306425, 187500.0]
['beep', 187500.0, -3818.817891933667, 187500.0, 187500.0, 187500.0, 187500.0, 4651.532131616132, 187500.0]
['beep', 187500.0, -3796.644961434002, 187500.0, 187500.0, 187500.0, 187500.0, 4649.274605426145, 187500.0]
['beep', 187500.0, -3805.205679560385, 187500.0, 187500.0, 187500.0, 187500.0, 4654.616672350964, 187500.0]
['beep', 187500.0, -3814.526356998248, 187500.0, 187500.0, 187500.0, 187500.0, 4656.15894271838, 187500.0]
['beep', 187500.0, -3810.011304618276, 187500.0, 187500.0, 187500.0, 187500.0, 4655.711907829274, 187500.0]
['beep', 187500.0, -3800.2212405468513, 187500.0, 187500.0, 187500.0, 187500.0, 4652.4262013943435, 187500.0]
['beep', 187500.0, -3793.0910340656087, 187500.0, 187500.0, 187500.0, 187500.0, 4650.638061837919, 187500.0]
['beep', 187500.0, -3800.6682754359576, 187500.0, 187500.0, 187500.0, 187500.0, 4653.6555473393855, 187500.0]
['beep', 187500.0, -3810.1007115960974, 187500.0, 187500.0, 187500.0, 187500.0, 4657.388288663422, 187500.0]
['beep', 187500.0, -3808.916069139966, 187500.0, 187500.0, 187500.0, 187500.0, 4653.432029894832, 187500.0]
['beep', 187500.0, -3799.5059847242815, 187500.0, 187500.0, 187500.0, 187500.0, 4649.855750781983, 187500.0]
['beep', 187500.0, -3793.113385810064, 187500.0, 187500.0, 187500.0, 187500.0, 4648.11231471447, 187500.0]
['beep', 187500.0, -3796.264981778262, 187500.0, 187500.0, 187500.0, 187500.0, 4651.3980211494, 187500.0]
['beep', 187500.0, -3806.6361912055245, 187500.0, 187500.0, 187500.0, 187500.0, 4656.11423922947, 187500.0]
['beep', 187500.0, -3805.406845260483, 187500.0, 187500.0, 187500.0, 187500.0, 4652.917939772361, 187500.0]
['beep', 187500.0, -3798.880135879533, 187500.0, 187500.0, 187500.0, 187500.0, 4644.49133211271, 187500.0]
['beep', 187500.0, -3795.1920980444074, 187500.0, 187500.0, 187500.0, 187500.0, 4642.524378600643, 187500.0]
['beep', 187500.0, -3798.7013219238906, 187500.0, 187500.0, 187500.0, 187500.0, 4647.888797269917, 187500.0]
['beep', 187500.0, -3804.3563132710833, 187500.0, 187500.0, 187500.0, 187500.0, 4651.375669404944, 187500.0]
['beep', 187500.0, -3806.2562115497844, 187500.0, 187500.0, 187500.0, 187500.0, 4650.123971715448, 187500.0]
['beep', 187500.0, -3799.573039957648, 187500.0, 187500.0, 187500.0, 187500.0, 4647.5535211030865, 187500.0]
['beep', 187500.0, -3794.946228855399, 187500.0, 187500.0, 187500.0, 187500.0, 4645.430105379833, 187500.0]
['beep', 187500.0, -3801.472938236349, 187500.0, 187500.0, 187500.0, 187500.0, 4646.167712946858, 187500.0]
['beep', 187500.0, -3809.988952873821, 187500.0, 187500.0, 187500.0, 187500.0, 4648.067611225559, 187500.0]
['beep', 187500.0, -3808.021999361754, 187500.0, 187500.0, 187500.0, 187500.0, 4647.330003658534, 187500.0]
['beep', 187500.0, -3802.1881940589187, 187500.0, 187500.0, 187500.0, 187500.0, 4642.859654767472, 187500.0]
['beep', 187500.0, -3798.0531213346867, 187500.0, 187500.0, 187500.0, 187500.0, 4641.764419289162, 187500.0]
['beep', 187500.0, -3803.6187057040584, 187500.0, 187500.0, 187500.0, 187500.0, 4645.675974568841, 187500.0]
['beep', 187500.0, -3810.4359877629267, 187500.0, 187500.0, 187500.0, 187500.0, 4650.1910269488135, 187500.0]
['beep', 187500.0, -3808.4690342508597, 187500.0, 187500.0, 187500.0, 187500.0, 4647.8440937810055, 187500.0]
['beep', 187500.0, -3801.517641725259, 187500.0, 187500.0, 187500.0, 187500.0, 4642.524378600643, 187500.0]
['beep', 187500.0, -3799.7295021688346, 187500.0, 187500.0, 187500.0, 187500.0, 4639.931576243827, 187500.0]
['beep', 187500.0, -3803.171670814952, 187500.0, 187500.0, 187500.0, 187500.0, 4644.692497812807, 187500.0]
['beep', 187500.0, -3807.6420197060133, 187500.0, 187500.0, 187500.0, 187500.0, 4650.34748916, 187500.0]
['beep', 187500.0, -3806.8597086500777, 187500.0, 187500.0, 187500.0, 187500.0, 4648.91697751486, 187500.0]
['beep', 187500.0, -3797.919010867955, 187500.0, 187500.0, 187500.0, 187500.0, 4645.877140268939, 187500.0]
['beep', 187500.0, -3794.633304433025, 187500.0, 187500.0, 187500.0, 187500.0, 4641.943233244805, 187500.0]
['beep', 187500.0, -3800.0200748467537, 187500.0, 187500.0, 187500.0, 187500.0, 4643.418448378855, 187500.0]
['beep', 187500.0, -3807.0608743501753, 187500.0, 187500.0, 187500.0, 187500.0, 4649.118143214959, 187500.0]
['beep', 187500.0, -3802.076435336642, 187500.0, 187500.0, 187500.0, 187500.0, 4649.498122870698, 187500.0]
['beep', 187500.0, -3794.4097869884718, 187500.0, 187500.0, 187500.0, 187500.0, 4644.714849557263, 187500.0]
['beep', 187500.0, -3794.8568218775777, 187500.0, 187500.0, 187500.0, 187500.0, 4641.764419289162, 187500.0]
['beep', 187500.0, -3795.7955951447007, 187500.0, 187500.0, 187500.0, 187500.0, 4645.743029802207, 187500.0]
['beep', 187500.0, -3803.082263837131, 187500.0, 187500.0, 187500.0, 187500.0, 4647.195893191802, 187500.0]
['beep', 187500.0, -3806.5691359721586, 187500.0, 187500.0, 187500.0, 187500.0, 4645.921843757849, 187500.0]
['beep', 187500.0, -3795.1250428110416, 187500.0, 187500.0, 187500.0, 187500.0, 4643.038468723115, 187500.0]
['beep', 187500.0, -3788.0842433076195, 187500.0, 187500.0, 187500.0, 187500.0, 4642.770247789651, 187500.0]
['beep', 187500.0, -3791.079377064631, 187500.0, 187500.0, 187500.0, 187500.0, 4644.424276879344, 187500.0]
['beep', 187500.0, -3797.0249410897427, 187500.0, 187500.0, 187500.0, 187500.0, 4648.246425181202, 187500.0]
['beep', 187500.0, -3797.8072521456784, 187500.0, 187500.0, 187500.0, 187500.0, 4646.659451324875, 187500.0]
['beep', 187500.0, -3787.659560162969, 187500.0, 187500.0, 187500.0, 187500.0, 4642.390268133911, 187500.0]
['beep', 187500.0, -3783.9938740722987, 187500.0, 187500.0, 187500.0, 187500.0, 4641.004459977682, 187500.0]
['beep', 187500.0, -3788.9559613413767, 187500.0, 187500.0, 187500.0, 187500.0, 4642.859654767472, 187500.0]
['beep', 187500.0, -3794.5438974552035, 187500.0, 187500.0, 187500.0, 187500.0, 4648.87227402595, 187500.0]
['beep', 187500.0, -3795.728539911335, 187500.0, 187500.0, 187500.0, 187500.0, 4649.2522536816905, 187500.0]
['beep', 187500.0, -3793.649827676991, 187500.0, 187500.0, 187500.0, 187500.0, 4648.11231471447, 187500.0]
['beep', 187500.0, -3782.8092316161674, 187500.0, 187500.0, 187500.0, 187500.0, 4651.3086141715785, 187500.0]
['beep', 187500.0, -3767.788859342201, 187500.0, 187500.0, 187500.0, 187500.0, 4669.771155091662, 187500.0]
['beep', 187500.0, -3764.8607808185557, 187500.0, 187500.0, 187500.0, 187500.0, 4695.475661215265, 187500.0]
['beep', 187500.0, -3750.309795178151, 187500.0, 187500.0, 187500.0, 187500.0, 4715.88280390296, 187500.0]
['beep', 187500.0, -3725.789931510679, 187500.0, 187500.0, 187500.0, 187500.0, 4734.635917500963, 187500.0]
['beep', 187500.0, -3701.82886145459, 187500.0, 187500.0, 187500.0, 187500.0, 4756.2724061337, 187500.0]
['beep', 187500.0, -3702.7676347217125, 187500.0, 187500.0, 187500.0, 187500.0, 4784.2791419362, 187500.0]
['beep', 187500.0, -3701.6500474989475, 187500.0, 187500.0, 187500.0, 187500.0, 4815.482177195809, 187500.0]
['beep', 187500.0, -3688.507221759227, 187500.0, 187500.0, 187500.0, 187500.0, 4839.912633885459, 187500.0]
['beep', 187500.0, -3656.365413232495, 187500.0, 187500.0, 187500.0, 187500.0, 4867.382927821031, 187500.0]
['beep', 187500.0, -3638.2157967347857, 187500.0, 187500.0, 187500.0, 187500.0, 4897.870707258071, 187500.0]
['beep', 187500.0, -3639.109866512998, 187500.0, 187500.0, 187500.0, 187500.0, 4924.759855837805, 187500.0]
['beep', 187500.0, -3632.270232709674, 187500.0, 187500.0, 187500.0, 187500.0, 4957.7733823982935, 187500.0]
['beep', 187500.0, -3617.1381017134313, 187500.0, 187500.0, 187500.0, 187500.0, 4982.494411765863, 187500.0]
['beep', 187500.0, -3597.602677059493, 187500.0, 187500.0, 187500.0, 187500.0, 5007.282496366799, 187500.0]
['beep', 187500.0, -3578.827211717035, 187500.0, 187500.0, 187500.0, 187500.0, 5029.388371633097, 187500.0]
['beep', 187500.0, -3568.724223223236, 187500.0, 187500.0, 187500.0, 187500.0, 5050.197845720988, 187500.0]
['beep', 187500.0, -3572.7251854807364, 187500.0, 187500.0, 187500.0, 187500.0, 5074.628302410639, 187500.0]
['beep', 187500.0, -3569.350072067985, 187500.0, 187500.0, 187500.0, 187500.0, 5091.749738663404, 187500.0]
['beep', 187500.0, -3556.2072463282643, 187500.0, 187500.0, 187500.0, 187500.0, 5101.651561457105, 187500.0]
['beep', 187500.0, -3541.5445019655826, 187500.0, 187500.0, 187500.0, 187500.0, 5108.714712704982, 187500.0]
['beep', 187500.0, -3539.644603686882, 187500.0, 187500.0, 187500.0, 187500.0, 5118.862404687691, 187500.0]
['beep', 187500.0, -3550.5969584699824, 187500.0, 187500.0, 187500.0, 187500.0, 5130.954698438013, 187500.0]
['beep', 187500.0, -3554.955548638767, 187500.0, 187500.0, 187500.0, 187500.0, 5134.933308951057, 187500.0]
['beep', 187500.0, -3548.0488596020773, 187500.0, 187500.0, 187500.0, 187500.0, 5132.899300205624, 187500.0]
['beep', 187500.0, -3540.739839165192, 187500.0, 187500.0, 187500.0, 187500.0, 5130.0606286598, 187500.0]
['beep', 187500.0, -3546.0148508566444, 187500.0, 187500.0, 187500.0, 187500.0, 5128.451303059019, 187500.0]
['beep', 187500.0, -3561.504609764172, 187500.0, 187500.0, 187500.0, 187500.0, 5123.332753578753, 187500.0]
['beep', 187500.0, -3561.6610719753594, 187500.0, 187500.0, 187500.0, 187500.0, 5118.191852354033, 187500.0]
['beep', 187500.0, -3554.955548638767, 187500.0, 187500.0, 187500.0, 187500.0, 5102.433872513041, 187500.0]
['beep', 187500.0, -3558.151848095876, 187500.0, 187500.0, 187500.0, 187500.0, 5089.29104677332, 187500.0]
['beep', 187500.0, -3571.026452902133, 187500.0, 187500.0, 187500.0, 187500.0, 5078.271636756854, 187500.0]
['beep', 187500.0, -3584.2586856196745, 187500.0, 187500.0, 187500.0, 187500.0, 5074.248322754899, 187500.0]
['beep', 187500.0, -3591.053615934088, 187500.0, 187500.0, 187500.0, 187500.0, 5059.987909792413, 187500.0]
['beep', 187500.0, -3588.505517066183, 187500.0, 187500.0, 187500.0, 187500.0, 5043.872302040137, 187500.0]
['beep', 187500.0, -3586.829136232035, 187500.0, 187500.0, 187500.0, 187500.0, 5030.99769723388, 187500.0]
['beep', 187500.0, -3597.2674008926633, 187500.0, 187500.0, 187500.0, 187500.0, 5020.179452917511, 187500.0]
['beep', 187500.0, -3609.8514330210014, 187500.0, 187500.0, 187500.0, 187500.0, 5013.51863306983, 187500.0]
['beep', 187500.0, -3616.7357703132357, 187500.0, 187500.0, 187500.0, 187500.0, 5005.22613587691, 187500.0]
['beep', 187500.0, -3613.628877833948, 187500.0, 187500.0, 187500.0, 187500.0, 4991.345702570165, 187500.0]
['beep', 187500.0, -3611.3937033884176, 187500.0, 187500.0, 187500.0, 187500.0, 4983.5449437552625, 187500.0]
['beep', 187500.0, -3618.0992267250094, 187500.0, 187500.0, 187500.0, 187500.0, 4981.51093500983, 187500.0]
['beep', 187500.0, -3631.912604798389, 187500.0, 187500.0, 187500.0, 187500.0, 4976.750013440849, 187500.0]
['beep', 187500.0, -3635.801808333613, 187500.0, 187500.0, 187500.0, 187500.0, 4967.071708091701, 187500.0]
['beep', 187500.0, -3628.4927878967274, 187500.0, 187500.0, 187500.0, 187500.0, 4958.958024854425, 187500.0]
['beep', 187500.0, -3626.4140756623838, 187500.0, 187500.0, 187500.0, 187500.0, 4951.090210806156, 187500.0]
['beep', 187500.0, -3634.885386810945, 187500.0, 187500.0, 187500.0, 187500.0, 4946.821027615193, 187500.0]
['beep', 187500.0, -3648.475247439772, 187500.0, 187500.0, 187500.0, 187500.0, 4944.876425847581, 187500.0]
['beep', 187500.0, -3650.308090485107, 187500.0, 187500.0, 187500.0, 187500.0, 4943.557672924719, 187500.0]
['beep', 187500.0, -3643.602567148515, 187500.0, 187500.0, 187500.0, 187500.0, 4934.684030375962, 187500.0]
['beep', 187500.0, -3639.4451426798278, 187500.0, 187500.0, 187500.0, 187500.0, 4929.163149495501, 187500.0]
['beep', 187500.0, -3642.574386903571, 187500.0, 187500.0, 187500.0, 187500.0, 4930.995992540836, 187500.0]
['beep', 187500.0, -3656.7677446326907, 187500.0, 187500.0, 187500.0, 187500.0, 4930.839530329648, 187500.0]
['beep', 187500.0, -3658.6899946558474, 187500.0, 187500.0, 187500.0, 187500.0, 4926.458588416408, 187500.0]
['beep', 187500.0, -3653.5043899422158, 187500.0, 187500.0, 187500.0, 187500.0, 4920.02128601328, 187500.0]
['beep', 187500.0, -3649.5481311736266, 187500.0, 187500.0, 187500.0, 187500.0, 4916.869690045081, 187500.0]
['beep', 187500.0, -3655.5160469431935, 187500.0, 187500.0, 187500.0, 187500.0, 4915.349771422121, 187500.0]
['beep', 187500.0, -3665.44022148135, 187500.0, 187500.0, 187500.0, 187500.0, 4915.439178399942, 187500.0]
['beep', 187500.0, -3660.2993202566295, 187500.0, 187500.0, 187500.0, 187500.0, 4914.343942921632, 187500.0]
['beep', 187500.0, -3652.073878297076, 187500.0, 187500.0, 187500.0, 187500.0, 4914.142777221534, 187500.0]
['beep', 187500.0, -3642.4849799257495, 187500.0, 187500.0, 187500.0, 187500.0, 4911.058236486702, 187500.0]
['beep', 187500.0, -3646.2624247386966, 187500.0, 187500.0, 187500.0, 187500.0, 4911.862899287093, 187500.0]
['beep', 187500.0, -3656.4771719547716, 187500.0, 187500.0, 187500.0, 187500.0, 4917.853166801116, 187500.0]
['beep', 187500.0, -3657.1030207995204, 187500.0, 187500.0, 187500.0, 187500.0, 4914.321591177177, 187500.0]
['beep', 187500.0, -3655.0913637985427, 187500.0, 187500.0, 187500.0, 187500.0, 4908.666599829984, 187500.0]
['beep', 187500.0, -3654.890198098445, 187500.0, 187500.0, 187500.0, 187500.0, 4906.677294573462, 187500.0]
['beep', 187500.0, -3660.7463551457354, 187500.0, 187500.0, 187500.0, 187500.0, 4909.560669608196, 187500.0]
['beep', 187500.0, -3675.3196925305956, 187500.0, 187500.0, 187500.0, 187500.0, 4907.191384695934, 187500.0]
['beep', 187500.0, -3676.3925762644503, 187500.0, 187500.0, 187500.0, 187500.0, 4904.285657916744, 187500.0]
['beep', 187500.0, -3668.077727327076, 187500.0, 187500.0, 187500.0, 187500.0, 4900.262343914788, 187500.0]
['beep', 187500.0, -3663.048584824632, 187500.0, 187500.0, 187500.0, 187500.0, 4897.356617135599, 187500.0]
['beep', 187500.0, -3666.2001807928305, 187500.0, 187500.0, 187500.0, 187500.0, 4898.027169469258, 187500.0]
['beep', 187500.0, -3673.3974425074393, 187500.0, 187500.0, 187500.0, 187500.0, 4900.083529959146, 187500.0]
['beep', 187500.0, -3675.565561719604, 187500.0, 187500.0, 187500.0, 187500.0, 4900.374102637065, 187500.0]
['beep', 187500.0, -3671.3187302730958, 187500.0, 187500.0, 187500.0, 187500.0, 4893.154489178001, 187500.0]
['beep', 187500.0, -3663.987358091755, 187500.0, 187500.0, 187500.0, 187500.0, 4890.360521121088, 187500.0]
['beep', 187500.0, -3667.787154649157, 187500.0, 187500.0, 187500.0, 187500.0, 4895.568477579174, 187500.0]
['beep', 187500.0, -3677.5772187205816, 187500.0, 187500.0, 187500.0, 187500.0, 4899.703550303406, 187500.0]
['beep', 187500.0, -3674.470326241294, 187500.0, 187500.0, 187500.0, 187500.0, 4898.8988875030145, 187500.0]
['beep', 187500.0, -3667.5859889490594, 187500.0, 187500.0, 187500.0, 187500.0, 4889.5111548317855, 187500.0]
['beep', 187500.0, -3664.2779307696737, 187500.0, 187500.0, 187500.0, 187500.0, 4885.957227463392, 187500.0]
['beep', 187500.0, -3672.302207029129, 187500.0, 187500.0, 187500.0, 187500.0, 4887.2759803862555, 187500.0]
['beep', 187500.0, -3685.1097566020203, 187500.0, 187500.0, 187500.0, 187500.0, 4889.399396109509, 187500.0]
['beep', 187500.0, -3686.830840925079, 187500.0, 187500.0, 187500.0, 187500.0, 4886.58307630814, 187500.0]
['beep', 187500.0, -3679.119489087998, 187500.0, 187500.0, 187500.0, 187500.0, 4882.358596606087, 187500.0]
['beep', 187500.0, -3672.212800051308, 187500.0, 187500.0, 187500.0, 187500.0, 4879.899904716004, 187500.0]
['beep', 187500.0, -3677.398404764939, 187500.0, 187500.0, 187500.0, 187500.0, 4882.939741961925, 187500.0]
['beep', 187500.0, -3687.9931316367547, 187500.0, 187500.0, 187500.0, 187500.0, 4885.554896063197, 187500.0]
['beep', 187500.0, -3684.3945007794505, 187500.0, 187500.0, 187500.0, 187500.0, 4886.292503630221, 187500.0]
['beep', 187500.0, -3681.667587955903, 187500.0, 187500.0, 187500.0, 187500.0, 4880.302236116199, 187500.0]
['beep', 187500.0, -3676.7502041757352, 187500.0, 187500.0, 187500.0, 187500.0, 4878.581151793141, 187500.0]
['beep', 187500.0, -3679.343006532551, 187500.0, 187500.0, 187500.0, 187500.0, 4881.285712872233, 187500.0]
['beep', 187500.0, -3690.3177130601066, 187500.0, 187500.0, 187500.0, 187500.0, 4886.918352474971, 187500.0]
['beep', 187500.0, -3689.2895328151626, 187500.0, 187500.0, 187500.0, 187500.0, 4887.2759803862555, 187500.0]
['beep', 187500.0, -3679.9241518883887, 187500.0, 187500.0, 187500.0, 187500.0, 4882.358596606087, 187500.0]
['beep', 187500.0, -3676.9960733647436, 187500.0, 187500.0, 187500.0, 187500.0, 4877.016529681269, 187500.0]
['beep', 187500.0, -3682.7851751786684, 187500.0, 187500.0, 187500.0, 187500.0, 4878.6482070265065, 187500.0]
['beep', 187500.0, -3692.508184016727, 187500.0, 187500.0, 187500.0, 187500.0, 4885.554896063197, 187500.0]
['beep', 187500.0, -3694.050454384143, 187500.0, 187500.0, 187500.0, 187500.0, 4885.241971640822, 187500.0]
['beep', 187500.0, -3691.167079349408, 187500.0, 187500.0, 187500.0, 187500.0, 4878.737614004328, 187500.0]
['beep', 187500.0, -3685.757957191224, 187500.0, 187500.0, 187500.0, 187500.0, 4875.518962802764, 187500.0]
['beep', 187500.0, -3694.2516200842406, 187500.0, 187500.0, 187500.0, 187500.0, 4874.446079068909, 187500.0]
['beep', 187500.0, -3706.9921144237655, 187500.0, 187500.0, 187500.0, 187500.0, 4875.049576169202, 187500.0]
['beep', 187500.0, -3711.037780170176, 187500.0, 187500.0, 187500.0, 187500.0, 4873.39554707951, 187500.0]
['beep', 187500.0, -3703.885221944478, 187500.0, 187500.0, 187500.0, 187500.0, 4871.62975926754, 187500.0]
['beep', 187500.0, -3699.6830939868805, 187500.0, 187500.0, 187500.0, 187500.0, 4872.412070323476, 187500.0]
['beep', 187500.0, -3705.427492311894, 187500.0, 187500.0, 187500.0, 187500.0, 4875.96599769187, 187500.0]
['beep', 187500.0, -3712.982381937788, 187500.0, 187500.0, 187500.0, 187500.0, 4880.01166343828, 187500.0]
['beep', 187500.0, -3712.647105770958, 187500.0, 187500.0, 187500.0, 187500.0, 4881.285712872233, 187500.0]
['beep', 187500.0, -3707.68501850188, 187500.0, 187500.0, 187500.0, 187500.0, 4873.931988946437, 187500.0]
['beep', 187500.0, -3702.20884111033, 187500.0, 187500.0, 187500.0, 187500.0, 4873.015567423769, 187500.0]
['beep', 187500.0, -3712.8706232155114, 187500.0, 187500.0, 187500.0, 187500.0, 4871.182724378434, 187500.0]
['beep', 187500.0, -3720.425512841405, 187500.0, 187500.0, 187500.0, 187500.0, 4874.82605872465, 187500.0]
['beep', 187500.0, -3719.2632221297295, 187500.0, 187500.0, 187500.0, 187500.0, 4877.776488992749, 187500.0]
['beep', 187500.0, -3710.948373192355, 187500.0, 187500.0, 187500.0, 187500.0, 4875.161334891479, 187500.0]
['beep', 187500.0, -3707.4167975684168, 187500.0, 187500.0, 187500.0, 187500.0, 4869.81926796666, 187500.0]
['beep', 187500.0, -3716.6704197729136, 187500.0, 187500.0, 187500.0, 187500.0, 4873.730823246339, 187500.0]
['beep', 187500.0, -3727.1310361779974, 187500.0, 187500.0, 187500.0, 187500.0, 4876.793012236716, 187500.0]
['beep', 187500.0, -3731.489626346782, 187500.0, 187500.0, 187500.0, 187500.0, 4870.735689489328, 187500.0]
['beep', 187500.0, -3728.3156786341287, 187500.0, 187500.0, 187500.0, 187500.0, 4865.393622564509, 187500.0]
['beep', 187500.0, -3717.3186203621176, 187500.0, 187500.0, 187500.0, 187500.0, 4868.545218532708, 187500.0]
['beep', 187500.0, -3724.06884718762, 187500.0, 187500.0, 187500.0, 187500.0, 4872.523829045753, 187500.0]
['beep', 187500.0, -3735.781161282201, 187500.0, 187500.0, 187500.0, 187500.0, 4875.049576169202, 187500.0]
['beep', 187500.0, -3734.2612426592405, 187500.0, 187500.0, 187500.0, 187500.0, 4876.100108158602, 187500.0]
['beep', 187500.0, -3730.4837978462933, 187500.0, 187500.0, 187500.0, 187500.0, 4873.931988946437, 187500.0]
['beep', 187500.0, -3724.8511582435563, 187500.0, 187500.0, 187500.0, 187500.0, 4872.121497645557, 187500.0]
['beep', 187500.0, -3733.5459868366706, 187500.0, 187500.0, 187500.0, 187500.0, 4870.422765066954, 187500.0]
['beep', 187500.0, -3745.6829840759024, 187500.0, 187500.0, 187500.0, 187500.0, 4874.222561624356, 187500.0]
['beep', 187500.0, -3741.7714287962235, 187500.0, 187500.0, 187500.0, 187500.0, 4878.178820392945, 187500.0]
['beep', 187500.0, -3737.8375217720895, 187500.0, 187500.0, 187500.0, 187500.0, 4874.334320346632, 187500.0]
['beep', 187500.0, -3737.6363560719915, 187500.0, 187500.0, 187500.0, 187500.0, 4873.5967127796075, 187500.0]
['beep', 187500.0, -3742.1514084519636, 187500.0, 187500.0, 187500.0, 187500.0, 4874.334320346632, 187500.0]
['beep', 187500.0, -3749.7062980778574, 187500.0, 187500.0, 187500.0, 187500.0, 4882.492707072819, 187500.0]
['beep', 187500.0, -3751.6061963565585, 187500.0, 187500.0, 187500.0, 187500.0, 4884.213791395878, 187500.0]
['beep', 187500.0, -3751.8967690344775, 187500.0, 187500.0, 187500.0, 187500.0, 4876.949474447903, 187500.0]
['beep', 187500.0, -3750.9132922784443, 187500.0, 187500.0, 187500.0, 187500.0, 4878.022358181758, 187500.0]
['beep', 187500.0, -3757.4176499149385, 187500.0, 187500.0, 187500.0, 187500.0, 4885.733710018839, 187500.0]
['beep', 187500.0, -3762.4467924173828, 187500.0, 187500.0, 187500.0, 187500.0, 4890.986369965836, 187500.0]
['beep', 187500.0, -3764.681966862913, 187500.0, 187500.0, 187500.0, 187500.0, 4888.192401908923, 187500.0]
['beep', 187500.0, -3755.6742138474247, 187500.0, 187500.0, 187500.0, 187500.0, 4887.588904808629, 187500.0]
['beep', 187500.0, -3755.338937680595, 187500.0, 187500.0, 187500.0, 187500.0, 4887.611256553085, 187500.0]
['beep', 187500.0, -3763.5196761512375, 187500.0, 187500.0, 187500.0, 187500.0, 4886.359558863587, 187500.0]
['beep', 187500.0, -3775.0084728012653, 187500.0, 187500.0, 187500.0, 187500.0, 4890.651093799007, 187500.0]
['beep', 187500.0, -3781.8034031156785, 187500.0, 187500.0, 187500.0, 187500.0, 4891.455756599397, 187500.0]
['beep', 187500.0, -3779.2776559922286, 187500.0, 187500.0, 187500.0, 187500.0, 4881.9339134614365, 187500.0]
['beep', 187500.0, -3773.5109059227593, 187500.0, 187500.0, 187500.0, 187500.0, 4878.894076215515, 187500.0]
['beep', 187500.0, -3777.757737369268, 187500.0, 187500.0, 187500.0, 187500.0, 4884.72788151835, 187500.0]
['beep', 187500.0, -3783.8374118611114, 187500.0, 187500.0, 187500.0, 187500.0, 4890.7405007768275, 187500.0]
['beep', 187500.0, -3786.206696773374, 187500.0, 187500.0, 187500.0, 187500.0, 4891.768681021772, 187500.0]
['beep', 187500.0, -3786.8101938736672, 187500.0, 187500.0, 187500.0, 187500.0, 4883.856163484593, 187500.0]
['beep', 187500.0, -3783.233914760818, 187500.0, 187500.0, 187500.0, 187500.0, 4882.269189628267, 187500.0]
['beep', 187500.0, -3784.172688027941, 187500.0, 187500.0, 187500.0, 187500.0, 4888.952361220403, 187500.0]
['beep', 187500.0, -3798.500156223793, 187500.0, 187500.0, 187500.0, 187500.0, 4888.259457142289, 187500.0]
['beep', 187500.0, -3802.0093801032763, 187500.0, 187500.0, 187500.0, 187500.0, 4887.477146086353, 187500.0]
['beep', 187500.0, -3792.420481731949, 187500.0, 187500.0, 187500.0, 187500.0, 4886.180744907945, 187500.0]
['beep', 187500.0, -3790.207659030874, 187500.0, 187500.0, 187500.0, 187500.0, 4884.4596605848865, 187500.0]
['beep', 187500.0, -3798.924839368444, 187500.0, 187500.0, 187500.0, 187500.0, 4885.711358274384, 187500.0]
['beep', 187500.0, -3808.334923784128, 187500.0, 187500.0, 187500.0, 187500.0, 4890.874611243559, 187500.0]
['beep', 187500.0, -3817.5661942441698, 187500.0, 187500.0, 187500.0, 187500.0, 4890.204058909901, 187500.0]
['beep', 187500.0, -3816.13568259903, 187500.0, 187500.0, 187500.0, 187500.0, 4884.593771051618, 187500.0]
['beep', 187500.0, -3810.592449974114, 187500.0, 187500.0, 187500.0, 187500.0, 4884.258494884789, 187500.0]
['beep', 187500.0, -3813.520528497759, 187500.0, 187500.0, 187500.0, 187500.0, 4888.192401908923, 187500.0]
['beep', 187500.0, -3831.200758361907, 187500.0, 187500.0, 187500.0, 187500.0, 4888.237105397833, 187500.0]
['beep', 187500.0, -3832.2959938402173, 187500.0, 187500.0, 187500.0, 187500.0, 4890.159355420989, 187500.0]
['beep', 187500.0, -3824.428179791949, 187500.0, 187500.0, 187500.0, 187500.0, 4889.131175176046, 187500.0]
['beep', 187500.0, -3825.076380381153, 187500.0, 187500.0, 187500.0, 187500.0, 4887.96888446437, 187500.0]
['beep', 187500.0, -3833.011249662787, 187500.0, 187500.0, 187500.0, 187500.0, 4891.276942643755, 187500.0]
['beep', 187500.0, -3846.6011102916136, 187500.0, 187500.0, 187500.0, 187500.0, 4890.338169376632, 187500.0]
['beep', 187500.0, -3850.4679620823817, 187500.0, 187500.0, 187500.0, 187500.0, 4884.884343729537, 187500.0]
['beep', 187500.0, -3842.4436858229265, 187500.0, 187500.0, 187500.0, 187500.0, 4886.560724563686, 187500.0]
['beep', 187500.0, -3836.8333979646445, 187500.0, 187500.0, 187500.0, 187500.0, 4888.035939697736, 187500.0]
['beep', 187500.0, -3844.7235637573676, 187500.0, 187500.0, 187500.0, 187500.0, 4890.695797287917, 187500.0]
['beep', 187500.0, -3856.949967974421, 187500.0, 187500.0, 187500.0, 187500.0, 4892.6180473110735, 187500.0]
['beep', 187500.0, -3865.4883343563483, 187500.0, 187500.0, 187500.0, 187500.0, 4888.304160631199, 187500.0]
['beep', 187500.0, -3860.5038953428148, 187500.0, 187500.0, 187500.0, 187500.0, 4885.599599552107, 187500.0]
['beep', 187500.0, -3859.0063284643093, 187500.0, 187500.0, 187500.0, 187500.0, 4888.639436798029, 187500.0]
['beep', 187500.0, -3864.6389680670463, 187500.0, 187500.0, 187500.0, 187500.0, 4891.29929438821, 187500.0]
['beep', 187500.0, -3877.1559449620186, 187500.0, 187500.0, 187500.0, 187500.0, 4892.305122888699, 187500.0]
['beep', 187500.0, -3881.3133694307057, 187500.0, 187500.0, 187500.0, 187500.0, 4891.142832177024, 187500.0]
['beep', 187500.0, -3875.5466193612365, 187500.0, 187500.0, 187500.0, 187500.0, 4886.650131541506, 187500.0]
['beep', 187500.0, -3871.2774361702727, 187500.0, 187500.0, 187500.0, 187500.0, 4888.192401908923, 187500.0]
['beep', 187500.0, -3879.368767663094, 187500.0, 187500.0, 187500.0, 187500.0, 4886.784242008239, 187500.0]
['beep', 187500.0, -3890.298770701739, 187500.0, 187500.0, 187500.0, 187500.0, 4889.265285642778, 187500.0]
['beep', 187500.0, -3892.4668899139037, 187500.0, 187500.0, 187500.0, 187500.0, 4890.91931473247, 187500.0]
['beep', 187500.0, -3890.1199567460967, 187500.0, 187500.0, 187500.0, 187500.0, 4886.6277797970515, 187500.0]
['beep', 187500.0, -3890.3434741906494, 187500.0, 187500.0, 187500.0, 187500.0, 4883.140907662023, 187500.0]
['beep', 187500.0, -3894.590305637158, 187500.0, 187500.0, 187500.0, 187500.0, 4887.074814686157, 187500.0]
['beep', 187500.0, -3907.10728253213, 187500.0, 187500.0, 187500.0, 187500.0, 4892.103957188601, 187500.0]
['beep', 187500.0, -3912.941087834965, 187500.0, 187500.0, 187500.0, 187500.0, 4888.3935676090205, 187500.0]
['beep', 187500.0, -3908.001352310342, 187500.0, 187500.0, 187500.0, 187500.0, 4888.885305987037, 187500.0]
['beep', 187500.0, -3904.492128430859, 187500.0, 187500.0, 187500.0, 187500.0, 4890.092300187624, 187500.0]
['beep', 187500.0, -3917.791416381767, 187500.0, 187500.0, 187500.0, 187500.0, 4889.198230409412, 187500.0]
['beep', 187500.0, -3932.454160744448, 187500.0, 187500.0, 187500.0, 187500.0, 4887.030111197247, 187500.0]
['beep', 187500.0, -3931.738904921878, 187500.0, 187500.0, 187500.0, 187500.0, 4891.031073454747, 187500.0]
['beep', 187500.0, -3928.25203278685, 187500.0, 187500.0, 187500.0, 187500.0, 4886.784242008239, 187500.0]
['beep', 187500.0, -3924.943974607465, 187500.0, 187500.0, 187500.0, 187500.0, 4887.5665530641745, 187500.0]
['beep', 187500.0, -3932.5435677222695, 187500.0, 187500.0, 187500.0, 187500.0, 4887.141869919524, 187500.0]
['beep', 187500.0, -3941.774838182311, 187500.0, 187500.0, 187500.0, 187500.0, 4887.655960041995, 187500.0]
['beep', 187500.0, -3949.5755969972133, 187500.0, 187500.0, 187500.0, 187500.0, 4888.572381564663, 187500.0]
['beep', 187500.0, -3947.16160859604, 187500.0, 187500.0, 187500.0, 187500.0, 4884.325550118155, 187500.0]
['beep', 187500.0, -3945.9322626509984, 187500.0, 187500.0, 187500.0, 187500.0, 4880.972788449859, 187500.0]
['beep', 187500.0, -3957.2869488342944, 187500.0, 187500.0, 187500.0, 187500.0, 4883.833811740138, 187500.0]
['beep', 187500.0, -3968.4628210619476, 187500.0, 187500.0, 187500.0, 187500.0, 4886.359558863587, 187500.0]
['beep', 187500.0, -3971.4356030745034, 187500.0, 187500.0, 187500.0, 187500.0, 4888.997064709314, 187500.0]
['beep', 187500.0, -3967.009957672353, 187500.0, 187500.0, 187500.0, 187500.0, 4885.733710018839, 187500.0]
['beep', 187500.0, -3964.9535971824644, 187500.0, 187500.0, 187500.0, 187500.0, 4886.247800141311, 187500.0]
['beep', 187500.0, -3970.83210597421, 187500.0, 187500.0, 187500.0, 187500.0, 4887.96888446437, 187500.0]
['beep', 187500.0, -3985.584257314713, 187500.0, 187500.0, 187500.0, 187500.0, 4890.852259499105, 187500.0]
['beep', 187500.0, -3993.0497399627857, 187500.0, 187500.0, 187500.0, 187500.0, 4889.734672276339, 187500.0]
['beep', 187500.0, -3990.9039724950762, 187500.0, 187500.0, 187500.0, 187500.0, 4881.4645268278755, 187500.0]
['beep', 187500.0, -3986.3665683706486, 187500.0, 187500.0, 187500.0, 187500.0, 4877.664730270473, 187500.0]
['beep', 187500.0, -3992.736815540411, 187500.0, 187500.0, 187500.0, 187500.0, 4883.006797195291, 187500.0]
['beep', 187500.0, -4004.359722657171, 187500.0, 187500.0, 187500.0, 187500.0, 4887.052462941702, 187500.0]
['beep', 187500.0, -4009.880603537632, 187500.0, 187500.0, 187500.0, 187500.0, 4887.141869919524, 187500.0]
['beep', 187500.0, -4009.835900048721, 187500.0, 187500.0, 187500.0, 187500.0, 4879.96695994937, 187500.0]
['beep', 187500.0, -4007.578373858735, 187500.0, 187500.0, 187500.0, 187500.0, 4877.329454103644, 187500.0]
['beep', 187500.0, -4012.853385550188, 187500.0, 187500.0, 187500.0, 187500.0, 4879.184648893434, 187500.0]
['beep', 187500.0, -4020.6317926206343, 187500.0, 187500.0, 187500.0, 187500.0, 4885.934875718936, 187500.0]
['beep', 187500.0, -4025.0574380227854, 187500.0, 187500.0, 187500.0, 187500.0, 4887.29833213071, 187500.0]
['beep', 187500.0, -4018.9777635309415, 187500.0, 187500.0, 187500.0, 187500.0, 4884.482012329342, 187500.0]
['beep', 187500.0, -4018.12839724164, 187500.0, 187500.0, 187500.0, 187500.0, 4882.4033000949985, 187500.0]
['beep', 187500.0, -4021.056475765285, 187500.0, 187500.0, 187500.0, 187500.0, 4886.3372071191325, 187500.0]
['beep', 187500.0, -4027.4714264239583, 187500.0, 187500.0, 187500.0, 187500.0, 4886.381910608043, 187500.0]
['beep', 187500.0, -4030.8241880922546, 187500.0, 187500.0, 187500.0, 187500.0, 4889.131175176046, 187500.0]
['beep', 187500.0, -4031.4947404259137, 187500.0, 187500.0, 187500.0, 187500.0, 4881.956265205892, 187500.0]
['beep', 187500.0, -4026.8232258347543, 187500.0, 187500.0, 187500.0, 187500.0, 4881.039843683225, 187500.0]
['beep', 187500.0, -4033.5063974268915, 187500.0, 187500.0, 187500.0, 187500.0, 4886.448965841409, 187500.0]
['beep', 187500.0, -4043.60938592069, 187500.0, 187500.0, 187500.0, 187500.0, 4889.086471687135, 187500.0]
['beep', 187500.0, -4049.8902261126314, 187500.0, 187500.0, 187500.0, 187500.0, 4888.304160631199, 187500.0]
['beep', 187500.0, -4048.2809005118493, 187500.0, 187500.0, 187500.0, 187500.0, 4882.559762306186, 187500.0]
['beep', 187500.0, -4048.057383067296, 187500.0, 187500.0, 187500.0, 187500.0, 4877.217695381367, 187500.0]
['beep', 187500.0, -4052.9524151030087, 187500.0, 187500.0, 187500.0, 187500.0, 4878.894076215515, 187500.0]
['beep', 187500.0, -4060.9096361290976, 187500.0, 187500.0, 187500.0, 187500.0, 4881.486878572331, 187500.0]
['beep', 187500.0, -4064.7317844309555, 187500.0, 187500.0, 187500.0, 187500.0, 4880.34693960511, 187500.0]
['beep', 187500.0, -4064.8211914087765, 187500.0, 187500.0, 187500.0, 187500.0, 4874.334320346632, 187500.0]
['beep', 187500.0, -4058.3615372611926, 187500.0, 187500.0, 187500.0, 187500.0, 4875.317797102666, 187500.0]
['beep', 187500.0, -4062.1389820741397, 187500.0, 187500.0, 187500.0, 187500.0, 4877.798840737205, 187500.0]
['beep', 187500.0, -4074.18657233555, 187500.0, 187500.0, 187500.0, 187500.0, 4881.799802994705, 187500.0]
['beep', 187500.0, -4081.1156131166954, 187500.0, 187500.0, 187500.0, 187500.0, 4877.329454103644, 187500.0]
['beep', 187500.0, -4077.159354348106, 187500.0, 187500.0, 187500.0, 187500.0, 4870.758041233783, 187500.0]
['beep', 187500.0, -4073.001929879419, 187500.0, 187500.0, 187500.0, 187500.0, 4869.10401214409, 187500.0]
['beep', 187500.0, -4082.18849685055, 187500.0, 187500.0, 187500.0, 187500.0, 4872.792049979216, 187500.0]
['beep', 187500.0, -4093.319665589293, 187500.0, 187500.0, 187500.0, 187500.0, 4872.747346490306, 187500.0]
['beep', 187500.0, -4099.488747058957, 187500.0, 187500.0, 187500.0, 187500.0, 4871.182724378434, 187500.0]
['beep', 187500.0, -4095.0407499123517, 187500.0, 187500.0, 187500.0, 187500.0, 4870.266302855766, 187500.0]
['beep', 187500.0, -4089.2292963539717, 187500.0, 187500.0, 187500.0, 187500.0, 4868.008776665781, 187500.0]
['beep', 187500.0, -4094.0125696674077, 187500.0, 187500.0, 187500.0, 187500.0, 4869.461640055375, 187500.0]
['beep', 187500.0, -4106.216622140005, 187500.0, 187500.0, 187500.0, 187500.0, 4871.58505577863, 187500.0]
['beep', 187500.0, -4106.8201192402985, 187500.0, 187500.0, 187500.0, 187500.0, 4874.82605872465, 187500.0]
['beep', 187500.0, -4096.672427257589, 187500.0, 187500.0, 187500.0, 187500.0, 4878.87172447106, 187500.0]
['beep', 187500.0, -4095.6218952681897, 187500.0, 187500.0, 187500.0, 187500.0, 4871.965035434369, 187500.0]
['beep', 187500.0, -4109.278811130383, 187500.0, 187500.0, 187500.0, 187500.0, 4871.763869734272, 187500.0]
['beep', 187500.0, -4123.762741537421, 187500.0, 187500.0, 187500.0, 187500.0, 4878.379986093043, 187500.0]
['beep', 187500.0, -4133.53045386439, 187500.0, 187500.0, 187500.0, 187500.0, 4872.926160445948, 187500.0]
['beep', 187500.0, -4134.648041087155, 187500.0, 187500.0, 187500.0, 187500.0, 4861.77263996275, 187500.0]
['beep', 187500.0, -4131.250575929949, 187500.0, 187500.0, 187500.0, 187500.0, 4862.107916129579, 187500.0]
['beep', 187500.0, -4135.340945165271, 187500.0, 187500.0, 187500.0, 187500.0, 4867.338224332121, 187500.0]
['beep', 187500.0, -4146.338003437281, 187500.0, 187500.0, 187500.0, 187500.0, 4867.181762120934, 187500.0]
['beep', 187500.0, -4150.853055817253, 187500.0, 187500.0, 187500.0, 187500.0, 4868.34405283261, 187500.0]
['beep', 187500.0, -4146.516817392924, 187500.0, 187500.0, 187500.0, 187500.0, 4868.366404577066, 187500.0]
['beep', 187500.0, -4144.259291202938, 187500.0, 187500.0, 187500.0, 187500.0, 4862.756116718783, 187500.0]
['beep', 187500.0, -4151.143628495172, 187500.0, 187500.0, 187500.0, 187500.0, 4862.1526196184905, 187500.0]
['beep', 187500.0, -4162.811239100843, 187500.0, 187500.0, 187500.0, 187500.0, 4863.940759174915, 187500.0]
['beep', 187500.0, -4170.835515360298, 187500.0, 187500.0, 187500.0, 187500.0, 4863.024337652247, 187500.0]
['beep', 187500.0, -4169.069727548329, 187500.0, 187500.0, 187500.0, 187500.0, 4861.370308562554, 187500.0]
['beep', 187500.0, -4165.135820524195, 187500.0, 187500.0, 187500.0, 187500.0, 4860.140962617513, 187500.0]
['beep', 187500.0, -4170.567294426834, 187500.0, 187500.0, 187500.0, 187500.0, 4860.00685215078, 187500.0]
['beep', 187500.0, -4178.010425330452, 187500.0, 187500.0, 187500.0, 187500.0, 4863.292558585711, 187500.0]
['beep', 187500.0, -4181.139669554194, 187500.0, 187500.0, 187500.0, 187500.0, 4862.689061485417, 187500.0]
['beep', 187500.0, -4179.776213142421, 187500.0, 187500.0, 187500.0, 187500.0, 4861.079735884636, 187500.0]
['beep', 187500.0, -4176.6693206631335, 187500.0, 187500.0, 187500.0, 187500.0, 4855.983538148826, 187500.0]
['beep', 187500.0, -4182.883105621709, 187500.0, 187500.0, 187500.0, 187500.0, 4856.452924782387, 187500.0]
['beep', 187500.0, -4192.44965224858, 187500.0, 187500.0, 187500.0, 187500.0, 4859.29159632821, 187500.0]
['beep', 187500.0, -4194.036626104907, 187500.0, 187500.0, 187500.0, 187500.0, 4858.419878294454, 187500.0]
['beep', 187500.0, -4192.82963190432, 187500.0, 187500.0, 187500.0, 187500.0, 4854.15069510349, 187500.0]
['beep', 187500.0, -4187.666378935144, 187500.0, 187500.0, 187500.0, 187500.0, 4854.374212548043, 187500.0]
['beep', 187500.0, -4192.851983648776, 187500.0, 187500.0, 187500.0, 187500.0, 4851.624947980041, 187500.0]
['beep', 187500.0, -4205.480719266024, 187500.0, 187500.0, 187500.0, 187500.0, 4853.614253236563, 187500.0]
['beep', 187500.0, -4207.514728011457, 187500.0, 187500.0, 187500.0, 187500.0, 4854.977709648337, 187500.0]
['beep', 187500.0, -4205.011332632463, 187500.0, 187500.0, 187500.0, 187500.0, 4847.7133927003615, 187500.0]
['beep', 187500.0, -4201.92679189763, 187500.0, 187500.0, 187500.0, 187500.0, 4852.988404391815, 187500.0]
['beep', 187500.0, -4209.25816407897, 187500.0, 187500.0, 187500.0, 187500.0, 4877.44121282592, 187500.0]
['beep', 187500.0, -4221.864547951764, 187500.0, 187500.0, 187500.0, 187500.0, 4894.830870012149, 187500.0]
['beep', 187500.0, -4226.357248587281, 187500.0, 187500.0, 187500.0, 187500.0, 4903.056311971702, 187500.0]
['beep', 187500.0, -4224.345591586303, 187500.0, 187500.0, 187500.0, 187500.0, 4905.693817817428, 187500.0]
['beep', 187500.0, -4222.780969474432, 187500.0, 187500.0, 187500.0, 187500.0, 4908.9348207634475, 187500.0]
['beep', 187500.0, -4229.531196299934, 187500.0, 187500.0, 187500.0, 187500.0, 4913.159300465501, 187500.0]
['beep', 187500.0, -4237.1307894147385, 187500.0, 187500.0, 187500.0, 187500.0, 4916.176785966967, 187500.0]
['beep', 187500.0, -4239.656536538188, 187500.0, 187500.0, 187500.0, 187500.0, 4917.026152256269, 187500.0]
['beep', 187500.0, -4240.952937716596, 187500.0, 187500.0, 187500.0, 187500.0, 4910.097111475124, 187500.0]
['beep', 187500.0, -4238.404838848691, 187500.0, 187500.0, 187500.0, 187500.0, 4908.7560068078055, 187500.0]
['beep', 187500.0, -4243.165760417672, 187500.0, 187500.0, 187500.0, 187500.0, 4909.314800419188, 187500.0]
['beep', 187500.0, -4254.520446600967, 187500.0, 187500.0, 187500.0, 187500.0, 4909.135986463545, 187500.0]
['beep', 187500.0, -4259.236664681037, 187500.0, 187500.0, 187500.0, 187500.0, 4903.816271283183, 187500.0]
['beep', 187500.0, -4253.179341933649, 187500.0, 187500.0, 187500.0, 187500.0, 4902.810442782694, 187500.0]
['beep', 187500.0, -4250.050097709906, 187500.0, 187500.0, 187500.0, 187500.0, 4898.585963080641, 187500.0]
['beep', 187500.0, -4254.900426256708, 187500.0, 187500.0, 187500.0, 187500.0, 4897.133099691046, 187500.0]
['beep', 187500.0, -4263.170571705171, 187500.0, 187500.0, 187500.0, 187500.0, 4901.022303226269, 187500.0]
['beep', 187500.0, -4260.734231559543, 187500.0, 187500.0, 187500.0, 187500.0, 4903.391588138532, 187500.0]
['beep', 187500.0, -4261.002452493007, 187500.0, 187500.0, 187500.0, 187500.0, 4896.239029912834, 187500.0]
['beep', 187500.0, -4262.544722860423, 187500.0, 187500.0, 187500.0, 187500.0, 4890.852259499105, 187500.0]
['beep', 187500.0, -4267.104478729306, 187500.0, 187500.0, 187500.0, 187500.0, 4888.304160631199, 187500.0]
['beep', 187500.0, -4272.401842165214, 187500.0, 187500.0, 187500.0, 187500.0, 4892.126308933057, 187500.0]
['beep', 187500.0, -4278.392109679236, 187500.0, 187500.0, 187500.0, 187500.0, 4891.5004600883085, 187500.0]
['beep', 187500.0, -4273.340615432336, 187500.0, 187500.0, 187500.0, 187500.0, 4886.940704219425, 187500.0]
['beep', 187500.0, -4267.506810129501, 187500.0, 187500.0, 187500.0, 187500.0, 4883.163259406479, 187500.0]
['beep', 187500.0, -4274.234685210548, 187500.0, 187500.0, 187500.0, 187500.0, 4883.207962895389, 187500.0]
['beep', 187500.0, -4284.427080682169, 187500.0, 187500.0, 187500.0, 187500.0, 4883.878515229048, 187500.0]
['beep', 187500.0, -4290.260885985003, 187500.0, 187500.0, 187500.0, 187500.0, 4885.219619896367, 187500.0]
['beep', 187500.0, -4286.438737683146, 187500.0, 187500.0, 187500.0, 187500.0, 4878.4693930708645, 187500.0]
['beep', 187500.0, -4283.018920781484, 187500.0, 187500.0, 187500.0, 187500.0, 4873.127326146046, 187500.0]
['beep', 187500.0, -4286.930476061163, 187500.0, 187500.0, 187500.0, 187500.0, 4877.44121282592, 187500.0]
['beep', 187500.0, -4293.367778464291, 187500.0, 187500.0, 187500.0, 187500.0, 4878.849372726604, 187500.0]
['beep', 187500.0, -4294.597124409333, 187500.0, 187500.0, 187500.0, 187500.0, 4880.369291349565, 187500.0]
['beep', 187500.0, -4293.32307497538, 187500.0, 187500.0, 187500.0, 187500.0, 4874.334320346632, 187500.0]
['beep', 187500.0, -4292.943095319641, 187500.0, 187500.0, 187500.0, 187500.0, 4868.165238876968, 187500.0]
['beep', 187500.0, -4300.296819245436, 187500.0, 187500.0, 187500.0, 187500.0, 4864.656014997485, 187500.0]
['beep', 187500.0, -4308.812833882908, 187500.0, 187500.0, 187500.0, 187500.0, 4867.449983054398, 187500.0]
['beep', 187500.0, -4310.936249606162, 187500.0, 187500.0, 187500.0, 187500.0, 4868.366404577066, 187500.0]
['beep', 187500.0, -4307.672894915688, 187500.0, 187500.0, 187500.0, 187500.0, 4863.761945219272, 187500.0]
['beep', 187500.0, -4311.003304839529, 187500.0, 187500.0, 187500.0, 187500.0, 4856.609386993574, 187500.0]
['beep', 187500.0, -4317.462958987112, 187500.0, 187500.0, 187500.0, 187500.0, 4857.235235838322, 187500.0]
['beep', 187500.0, -4319.944002621652, 187500.0, 187500.0, 187500.0, 187500.0, 4865.639491753518, 187500.0]
['beep', 187500.0, -4326.04602885795, 187500.0, 187500.0, 187500.0, 187500.0, 4865.505381286786, 187500.0]
['beep', 187500.0, -4329.175273081693, 187500.0, 187500.0, 187500.0, 187500.0, 4858.330471316633, 187500.0]
['beep', 187500.0, -4324.816682912909, 187500.0, 187500.0, 187500.0, 187500.0, 4852.206093335878, 187500.0]
['beep', 187500.0, -4328.907052148229, 187500.0, 187500.0, 187500.0, 187500.0, 4852.474314269342, 187500.0]
['beep', 187500.0, -4336.618403985311, 187500.0, 187500.0, 187500.0, 187500.0, 4855.983538148826, 187500.0]
['beep', 187500.0, -4342.80983719943, 187500.0, 187500.0, 187500.0, 187500.0, 4855.491799770809, 187500.0]
['beep', 187500.0, -4337.825398185897, 187500.0, 187500.0, 187500.0, 187500.0, 4850.730878201828, 187500.0]
['beep', 187500.0, -4331.723371949598, 187500.0, 187500.0, 187500.0, 187500.0, 4852.608424736074, 187500.0]
['beep', 187500.0, -4337.959508652629, 187500.0, 187500.0, 187500.0, 187500.0, 4852.63077648053, 187500.0]
['beep', 187500.0, -4347.101372134849, 187500.0, 187500.0, 187500.0, 187500.0, 4849.278014812233, 187500.0]
['beep', 187500.0, -4350.834113458885, 187500.0, 187500.0, 187500.0, 187500.0, 4848.003965378281, 187500.0]
['beep', 187500.0, -4349.5377122804775, 187500.0, 187500.0, 187500.0, 187500.0, 4845.031183365725, 187500.0]
['beep', 187500.0, -4344.732087222586, 187500.0, 187500.0, 187500.0, 187500.0, 4841.343145530599, 187500.0]
['beep', 187500.0, -4348.017793657517, 187500.0, 187500.0, 187500.0, 187500.0, 4845.120590343546, 187500.0]
['beep', 187500.0, -4355.326814094403, 187500.0, 187500.0, 187500.0, 187500.0, 4846.4840467553195, 187500.0]
['beep', 187500.0, -4357.897264706763, 187500.0, 187500.0, 187500.0, 187500.0, 4845.05353511018, 187500.0]
['beep', 187500.0, -4359.126610651804, 187500.0, 187500.0, 187500.0, 187500.0, 4841.030221108225, 187500.0]
['beep', 187500.0, -4359.14896239626, 187500.0, 187500.0, 187500.0, 187500.0, 4839.6667646964515, 187500.0]
['beep', 187500.0, -4361.942930453173, 187500.0, 187500.0, 187500.0, 187500.0, 4834.86113963856, 187500.0]
['beep', 187500.0, -4371.822401502419, 187500.0, 187500.0, 187500.0, 187500.0, 4834.637622194007, 187500.0]
['beep', 187500.0, -4375.733956782098, 187500.0, 187500.0, 187500.0, 187500.0, 4835.822264650138, 187500.0]
['beep', 187500.0, -4376.091584693383, 187500.0, 187500.0, 187500.0, 187500.0, 4832.871834382037, 187500.0]
['beep', 187500.0, -4370.10131717936, 187500.0, 187500.0, 187500.0, 187500.0, 4831.664840181451, 187500.0]
['beep', 187500.0, -4372.269436391525, 187500.0, 187500.0, 187500.0, 187500.0, 4831.061343081158, 187500.0]
['beep', 187500.0, -4380.919561495729, 187500.0, 187500.0, 187500.0, 187500.0, 4831.3966192479875, 187500.0]
['beep', 187500.0, -4384.317026652936, 187500.0, 187500.0, 187500.0, 187500.0, 4828.379133746521, 187500.0]
['beep', 187500.0, -4380.249009162069, 187500.0, 187500.0, 187500.0, 187500.0, 4826.725104656828, 187500.0]
['beep', 187500.0, -4379.734919039598, 187500.0, 187500.0, 187500.0, 187500.0, 4823.595860433085, 187500.0]
['beep', 187500.0, -4385.456965620157, 187500.0, 187500.0, 187500.0, 187500.0, 4821.047761565181, 187500.0]
['beep', 187500.0, -4392.810689545952, 187500.0, 187500.0, 187500.0, 187500.0, 4822.970011588337, 187500.0]
['beep', 187500.0, -4392.453061634667, 187500.0, 187500.0, 187500.0, 187500.0, 4822.567680188141, 187500.0]
['beep', 187500.0, -4391.067253478438, 187500.0, 187500.0, 187500.0, 187500.0, 4820.600726676074, 187500.0]
['beep', 187500.0, -4387.759195299053, 187500.0, 187500.0, 187500.0, 187500.0, 4817.449130707876, 187500.0]
['beep', 187500.0, -4388.988541244094, 187500.0, 187500.0, 187500.0, 187500.0, 4818.969049330837, 187500.0]
['beep', 187500.0, -4395.336436669402, 187500.0, 187500.0, 187500.0, 187500.0, 4818.276145252722, 187500.0]
['beep', 187500.0, -4398.286866937503, 187500.0, 187500.0, 187500.0, 187500.0, 4816.890337096494, 187500.0]
['beep', 187500.0, -4398.331570426413, 187500.0, 187500.0, 187500.0, 187500.0, 4809.737778870795, 187500.0]
['beep', 187500.0, -4396.096395980882, 187500.0, 187500.0, 187500.0, 187500.0, 4806.161499757945, 187500.0]
['beep', 187500.0, -4399.359750671358, 187500.0, 187500.0, 187500.0, 187500.0, 4808.776653859217, 187500.0]
['beep', 187500.0, -4406.579364130422, 187500.0, 187500.0, 187500.0, 187500.0, 4811.19064226039, 187500.0]
['beep', 187500.0, -4411.720265355142, 187500.0, 187500.0, 187500.0, 187500.0, 4808.128453270013, 187500.0]
['beep', 187500.0, -4410.669733365743, 187500.0, 187500.0, 187500.0, 187500.0, 4803.076959023114, 187500.0]
['beep', 187500.0, -4406.311143196957, 187500.0, 187500.0, 187500.0, 187500.0, 4799.835956077094, 187500.0]
['beep', 187500.0, -4411.027361277028, 187500.0, 187500.0, 187500.0, 187500.0, 4796.036159519692, 187500.0]
['beep', 187500.0, -4416.704704368675, 187500.0, 187500.0, 187500.0, 187500.0, 4800.506508410753, 187500.0]
['beep', 187500.0, -4422.225585249136, 187500.0, 187500.0, 187500.0, 187500.0, 4799.299514210166, 187500.0]
['beep', 187500.0, -4422.069123037949, 187500.0, 187500.0, 187500.0, 187500.0, 4795.477365908309, 187500.0]
['beep', 187500.0, -4420.057466036972, 187500.0, 187500.0, 187500.0, 187500.0, 4792.035197262192, 187500.0]
['beep', 187500.0, -4425.041905050505, 187500.0, 187500.0, 187500.0, 187500.0, 4791.4764036508095, 187500.0]
['beep', 187500.0, -4431.434503964723, 187500.0, 187500.0, 187500.0, 187500.0, 4794.404482174455, 187500.0]
['beep', 187500.0, -4432.239166765114, 187500.0, 187500.0, 187500.0, 187500.0, 4793.353950185055, 187500.0]
['beep', 187500.0, -4429.914585341762, 187500.0, 187500.0, 187500.0, 187500.0, 4789.576505372108, 187500.0]
['beep', 187500.0, -4427.791169618508, 187500.0, 187500.0, 187500.0, 187500.0, 4782.2674849352225, 187500.0]
['beep', 187500.0, -4431.725076642642, 187500.0, 187500.0, 187500.0, 187500.0, 4786.626075104007, 187500.0]
['beep', 187500.0, -4438.251786023591, 187500.0, 187500.0, 187500.0, 187500.0, 4788.3695111715215, 187500.0]
['beep', 187500.0, -4438.207082534681, 187500.0, 187500.0, 187500.0, 187500.0, 4786.983703015292, 187500.0]
['beep', 187500.0, -4437.357716245379, 187500.0, 187500.0, 187500.0, 187500.0, 4781.976912257303, 187500.0]
['beep', 187500.0, -4432.932070843229, 187500.0, 187500.0, 187500.0, 187500.0, 4778.780612800195, 187500.0]
['beep', 187500.0, -4438.430599979234, 187500.0, 187500.0, 187500.0, 187500.0, 4779.540572111675, 187500.0]
['beep', 187500.0, -4443.370335503857, 187500.0, 187500.0, 187500.0, 187500.0, 4778.713557566829, 187500.0]
['beep', 187500.0, -4445.963137860673, 187500.0, 187500.0, 187500.0, 187500.0, 4779.004130244748, 187500.0]
['beep', 187500.0, -4446.454876238689, 187500.0, 187500.0, 187500.0, 187500.0, 4775.271388920712, 187500.0]
['beep', 187500.0, -4443.996184348605, 187500.0, 187500.0, 187500.0, 187500.0, 4770.823391774105, 187500.0]
['beep', 187500.0, -4445.203178549192, 187500.0, 187500.0, 187500.0, 187500.0, 4775.3384441540775, 187500.0]
['beep', 187500.0, -4453.719193186664, 187500.0, 187500.0, 187500.0, 187500.0, 4778.668854077918, 187500.0]
['beep', 187500.0, -4460.827047923452, 187500.0, 187500.0, 187500.0, 187500.0, 4776.61249358803, 187500.0]
['beep', 187500.0, -4456.714326943676, 187500.0, 187500.0, 187500.0, 187500.0, 4771.717461552317, 187500.0]
['beep', 187500.0, -4451.841646652419, 187500.0, 187500.0, 187500.0, 187500.0, 4766.822429516606, 187500.0]
['beep', 187500.0, -4455.350870531902, 187500.0, 187500.0, 187500.0, 187500.0, 4764.631958559985, 187500.0]
['beep', 187500.0, -4460.2459025676135, 187500.0, 187500.0, 187500.0, 187500.0, 4766.643615560963, 187500.0]
['beep', 187500.0, -4460.558826989988, 187500.0, 187500.0, 187500.0, 187500.0, 4769.124659195502, 187500.0]
['beep', 187500.0, -4458.770687433564, 187500.0, 187500.0, 187500.0, 187500.0, 4765.436621360376, 187500.0]
['beep', 187500.0, -4456.803733921496, 187500.0, 187500.0, 187500.0, 187500.0, 4763.760240526229, 187500.0]
['beep', 187500.0, -4458.681280455742, 187500.0, 187500.0, 187500.0, 187500.0, 4766.308339394133, 187500.0]
['beep', 187500.0, -4466.973777648661, 187500.0, 187500.0, 187500.0, 187500.0, 4763.7155370373175, 187500.0]
['beep', 187500.0, -4470.259484083591, 187500.0, 187500.0, 187500.0, 187500.0, 4764.98958647127, 187500.0]
['beep', 187500.0, -4463.799829936008, 187500.0, 187500.0, 187500.0, 187500.0, 4762.5979498145525, 187500.0]
['beep', 187500.0, -4459.731812445141, 187500.0, 187500.0, 187500.0, 187500.0, 4759.289891635167, 187500.0]
['beep', 187500.0, -4461.989338635128, 187500.0, 187500.0, 187500.0, 187500.0, 4762.4861910922755, 187500.0]
['beep', 187500.0, -4470.5053532726, 187500.0, 187500.0, 187500.0, 187500.0, 4763.067336448114, 187500.0]
['beep', 187500.0, -4473.969873663173, 187500.0, 187500.0, 187500.0, 187500.0, 4760.876865491494, 187500.0]
['beep', 187500.0, -4470.997091650616, 187500.0, 187500.0, 187500.0, 187500.0, 4753.299624121145, 187500.0]
['beep', 187500.0, -4467.130239859848, 187500.0, 187500.0, 187500.0, 187500.0, 4747.085839162569, 187500.0]
['beep', 187500.0, -4471.332367817446, 187500.0, 187500.0, 187500.0, 187500.0, 4746.929376951382, 187500.0]
['beep', 187500.0, -4479.110774887893, 187500.0, 187500.0, 187500.0, 187500.0, 4746.482342062276, 187500.0]
['beep', 187500.0, -4481.122431888871, 187500.0, 187500.0, 187500.0, 187500.0, 4746.683507762374, 187500.0]
['beep', 187500.0, -4477.099117886915, 187500.0, 187500.0, 187500.0, 187500.0, 4746.884673462471, 187500.0]
['beep', 187500.0, -4474.126335874359, 187500.0, 187500.0, 187500.0, 187500.0, 4742.928414693883, 187500.0]
['beep', 187500.0, -4475.132164374848, 187500.0, 187500.0, 187500.0, 187500.0, 4745.252996117234, 187500.0]
['beep', 187500.0, -4482.843516211929, 187500.0, 187500.0, 187500.0, 187500.0, 4747.331708351578, 187500.0]
['beep', 187500.0, -4485.279856357558, 187500.0, 187500.0, 187500.0, 187500.0, 4744.962423439315, 187500.0]
['beep', 187500.0, -4482.061205155994, 187500.0, 187500.0, 187500.0, 187500.0, 4739.955632681326, 187500.0]
['beep', 187500.0, -4479.0884231434375, 187500.0, 187500.0, 187500.0, 187500.0, 4736.155836123924, 187500.0]
['beep', 187500.0, -4480.206010366203, 187500.0, 187500.0, 187500.0, 187500.0, 4734.993545412248, 187500.0]
['beep', 187500.0, -4484.117565645882, 187500.0, 187500.0, 187500.0, 187500.0, 4737.027554157681, 187500.0]
['beep', 187500.0, -4488.319693603479, 187500.0, 187500.0, 187500.0, 187500.0, 4735.954670423826, 187500.0]
['beep', 187500.0, -4486.710368002698, 187500.0, 187500.0, 187500.0, 187500.0, 4730.478493032276, 187500.0]
['beep', 187500.0, -4481.50241154461, 187500.0, 187500.0, 187500.0, 187500.0, 4732.825426200084, 187500.0]
['beep', 187500.0, -4486.978588936161, 187500.0, 187500.0, 187500.0, 187500.0, 4732.378391310977, 187500.0]
['beep', 187500.0, -4490.443109326734, 187500.0, 187500.0, 187500.0, 187500.0, 4731.685487232863, 187500.0]
['beep', 187500.0, -4495.472251829177, 187500.0, 187500.0, 187500.0, 187500.0, 4730.634955243463, 187500.0]
['beep', 187500.0, -4493.594705294932, 187500.0, 187500.0, 187500.0, 187500.0, 4724.890556918449, 187500.0]
['beep', 187500.0, -4484.0728621569715, 187500.0, 187500.0, 187500.0, 187500.0, 4723.482397017765, 187500.0]
['beep', 187500.0, -4482.731757489652, 187500.0, 187500.0, 187500.0, 187500.0, 4725.941088907849, 187500.0]
['beep', 187500.0, -4484.609304023898, 187500.0, 187500.0, 187500.0, 187500.0, 4729.427961042877, 187500.0]
['beep', 187500.0, -4484.36343483489, 187500.0, 187500.0, 187500.0, 187500.0, 4732.668963988896, 187500.0]
['beep', 187500.0, -4477.747318476119, 187500.0, 187500.0, 187500.0, 187500.0, 4733.048943644637, 187500.0]
['beep', 187500.0, -4478.976664421161, 187500.0, 187500.0, 187500.0, 187500.0, 4730.009106398715, 187500.0]
['beep', 187500.0, -4489.772556993074, 187500.0, 187500.0, 187500.0, 187500.0, 4724.868205173994, 187500.0]
['beep', 187500.0, -4497.908591974806, 187500.0, 187500.0, 187500.0, 187500.0, 4724.823501685083, 187500.0]
['beep', 187500.0, -4502.669513543787, 187500.0, 187500.0, 187500.0, 187500.0, 4722.163644094902, 187500.0]
['beep', 187500.0, -4502.17777516577, 187500.0, 187500.0, 187500.0, 187500.0, 4717.335667292556, 187500.0]
['beep', 187500.0, -4497.863888485896, 187500.0, 187500.0, 187500.0, 187500.0, 4713.111187590503, 187500.0]
['beep', 187500.0, -4500.0990629314265, 187500.0, 187500.0, 187500.0, 187500.0, 4713.625277712975, 187500.0]
['beep', 187500.0, -4507.050455457027, 187500.0, 187500.0, 187500.0, 187500.0, 4715.614582969497, 187500.0]
['beep', 187500.0, -4512.75015029313, 187500.0, 187500.0, 187500.0, 187500.0, 4712.887670145949, 187500.0]
['beep', 187500.0, -4505.12820543387, 187500.0, 187500.0, 187500.0, 187500.0, 4709.803129411117, 187500.0]
['beep', 187500.0, -4501.373112365379, 187500.0, 187500.0, 187500.0, 187500.0, 4706.450367742821, 187500.0]
['beep', 187500.0, -4503.720045533186, 187500.0, 187500.0, 187500.0, 187500.0, 4704.237545041746, 187500.0]
['beep', 187500.0, -4509.933830491761, 187500.0, 187500.0, 187500.0, 187500.0, 4706.182146809358, 187500.0]
['beep', 187500.0, -4512.906612504317, 187500.0, 187500.0, 187500.0, 187500.0, 4704.975152608771, 187500.0]
['beep', 187500.0, -4508.480967102167, 187500.0, 187500.0, 187500.0, 187500.0, 4702.896440374428, 187500.0]
['beep', 187500.0, -4502.468347843689, 187500.0, 187500.0, 187500.0, 187500.0, 4701.756501407207, 187500.0]
['beep', 187500.0, -4506.581068823465, 187500.0, 187500.0, 187500.0, 187500.0, 4697.956704849805, 187500.0]
['beep', 187500.0, -4512.012542726105, 187500.0, 187500.0, 187500.0, 187500.0, 4697.867297871983, 187500.0]
['beep', 187500.0, -4515.633525327865, 187500.0, 187500.0, 187500.0, 187500.0, 4699.476623472765, 187500.0]
['beep', 187500.0, -4514.873566016384, 187500.0, 187500.0, 187500.0, 187500.0, 4691.429995468855, 187500.0]
['beep', 187500.0, -4511.677266559275, 187500.0, 187500.0, 187500.0, 187500.0, 4687.630198911453, 187500.0]
['beep', 187500.0, -4511.878432259373, 187500.0, 187500.0, 187500.0, 187500.0, 4690.155946034903, 187500.0]
['beep', 187500.0, -4518.092217217948, 187500.0, 187500.0, 187500.0, 187500.0, 4689.932428590349, 187500.0]
['beep', 187500.0, -4521.243813186146, 187500.0, 187500.0, 187500.0, 187500.0, 4689.552448934609, 187500.0]
['beep', 187500.0, -4518.874528273885, 187500.0, 187500.0, 187500.0, 187500.0, 4686.847887855517, 187500.0]
['beep', 187500.0, -4515.410007883312, 187500.0, 187500.0, 187500.0, 187500.0, 4683.6515883984075, 187500.0]
['beep', 187500.0, -4518.114568962404, 187500.0, 187500.0, 187500.0, 187500.0, 4681.774041864162, 187500.0]
['beep', 187500.0, -4525.267127188102, 187500.0, 187500.0, 187500.0, 187500.0, 4682.5340011756425, 187500.0]
['beep', 187500.0, -4531.458560402222, 187500.0, 187500.0, 187500.0, 187500.0, 4680.499992430209, 187500.0]
['beep', 187500.0, -4525.244775443647, 187500.0, 187500.0, 187500.0, 187500.0, 4679.807088352095, 187500.0]
['beep', 187500.0, -4519.32156316299, 187500.0, 187500.0, 187500.0, 187500.0, 4677.035472039637, 187500.0]
['beep', 187500.0, -4521.422627141789, 187500.0, 187500.0, 187500.0, 187500.0, 4673.861524326983, 187500.0]
['beep', 187500.0, -4528.597537111943, 187500.0, 187500.0, 187500.0, 187500.0, 4677.907190073394, 187500.0]
['beep', 187500.0, -4530.2739179460905, 187500.0, 187500.0, 187500.0, 187500.0, 4678.3095214735895, 187500.0]
['beep', 187500.0, -4529.938641779261, 187500.0, 187500.0, 187500.0, 187500.0, 4672.2074952372905, 187500.0]
['beep', 187500.0, -4524.909499276817, 187500.0, 187500.0, 187500.0, 187500.0, 4668.675919613352, 187500.0]
['beep', 187500.0, -4524.685981832264, 187500.0, 187500.0, 187500.0, 187500.0, 4669.905265558394, 187500.0]
['beep', 187500.0, -4529.6257173568865, 187500.0, 187500.0, 187500.0, 187500.0, 4670.240541725224, 187500.0]
['beep', 187500.0, -4526.3400109219565, 187500.0, 187500.0, 187500.0, 187500.0, 4667.580684135042, 187500.0]
['beep', 187500.0, -4524.104836476426, 187500.0, 187500.0, 187500.0, 187500.0, 4667.357166690489, 187500.0]
['beep', 187500.0, -4520.215632941203, 187500.0, 187500.0, 187500.0, 187500.0, 4665.546675389609, 187500.0]
['beep', 187500.0, -4522.473159131188, 187500.0, 187500.0, 187500.0, 187500.0, 4665.5690271340645, 187500.0]
['beep', 187500.0, -4523.769560309596, 187500.0, 187500.0, 187500.0, 187500.0, 4665.881951556439, 187500.0]
['beep', 187500.0, -4524.864795787907, 187500.0, 187500.0, 187500.0, 187500.0, 4665.770192834162, 187500.0]
['beep', 187500.0, -4521.757903308619, 187500.0, 187500.0, 187500.0, 187500.0, 4657.812971808073, 187500.0]
['beep', 187500.0, -4518.673362573786, 187500.0, 187500.0, 187500.0, 187500.0, 4651.487428127221, 187500.0]
['beep', 187500.0, -4516.4158363838005, 187500.0, 187500.0, 187500.0, 187500.0, 4655.287224684623, 187500.0]
['beep', 187500.0, -4514.94062124975, 187500.0, 187500.0, 187500.0, 187500.0, 4659.601111364497, 187500.0]
['beep', 187500.0, -4516.5946503394425, 187500.0, 187500.0, 187500.0, 187500.0, 4654.169637461858, 187500.0]
['beep', 187500.0, -4507.430435112767, 187500.0, 187500.0, 187500.0, 187500.0, 4651.465076382766, 187500.0]
['beep', 187500.0, -4499.763786764596, 187500.0, 187500.0, 187500.0, 187500.0, 4648.894625770406, 187500.0]
['beep', 187500.0, -4500.479042587166, 187500.0, 187500.0, 187500.0, 187500.0, 4647.06178272507, 187500.0]
['beep', 187500.0, -4507.698656046231, 187500.0, 187500.0, 187500.0, 187500.0, 4648.805218792584, 187500.0]
['beep', 187500.0, -4511.386693881356, 187500.0, 187500.0, 187500.0, 187500.0, 4647.687631569819, 187500.0]
['beep', 187500.0, -4511.185528181259, 187500.0, 187500.0, 187500.0, 187500.0, 4641.876178011439, 187500.0]
['beep', 187500.0, -4506.3799031233675, 187500.0, 187500.0, 187500.0, 187500.0, 4643.3960966344, 187500.0]
['beep', 187500.0, -4508.9056502468175, 187500.0, 187500.0, 187500.0, 187500.0, 4641.071515211048, 187500.0]
['beep', 187500.0, -4515.32060090549, 187500.0, 187500.0, 187500.0, 187500.0, 4641.5632535890645, 187500.0]
['beep', 187500.0, -4521.4673306306995, 187500.0, 187500.0, 187500.0, 187500.0, 4636.578814575531, 187500.0]
['beep', 187500.0, -4517.399313139834, 187500.0, 187500.0, 187500.0, 187500.0, 4635.148302930392, 187500.0]
['beep', 187500.0, -4516.438188128256, 187500.0, 187500.0, 187500.0, 187500.0, 4633.650736051886, 187500.0]
['beep', 187500.0, -4519.27685967408, 187500.0, 187500.0, 187500.0, 187500.0, 4632.935480229316, 187500.0]
['beep', 187500.0, -4525.490644632655, 187500.0, 187500.0, 187500.0, 187500.0, 4634.187177918813, 187500.0]
['beep', 187500.0, -4523.3448771649455, 187500.0, 187500.0, 187500.0, 187500.0, 4634.120122685447, 187500.0]
['beep', 187500.0, -4518.248679429135, 187500.0, 187500.0, 187500.0, 187500.0, 4630.253270894679, 187500.0]
['beep', 187500.0, -4517.153443950826, 187500.0, 187500.0, 187500.0, 187500.0, 4627.213433648758, 187500.0]
['beep', 187500.0, -4518.338086406957, 187500.0, 187500.0, 187500.0, 187500.0, 4624.285355125112, 187500.0]
['beep', 187500.0, -4524.261298687613, 187500.0, 187500.0, 187500.0, 187500.0, 4624.665334780852, 187500.0]
['beep', 187500.0, -4524.440112643256, 187500.0, 187500.0, 187500.0, 187500.0, 4627.258137137668, 187500.0]
['beep', 187500.0, -4519.880356774373, 187500.0, 187500.0, 187500.0, 187500.0, 4621.267869623646, 187500.0]
['beep', 187500.0, -4520.014467241105, 187500.0, 187500.0, 187500.0, 187500.0, 4618.049218422082, 187500.0]
['beep', 187500.0, -4522.741380064653, 187500.0, 187500.0, 187500.0, 187500.0, 4617.2669073661455, 187500.0]
['beep', 187500.0, -4530.788008068563, 187500.0, 187500.0, 187500.0, 187500.0, 4616.037561421104, 187500.0]
['beep', 187500.0, -4531.302098191035, 187500.0, 187500.0, 187500.0, 187500.0, 4617.0880934105035, 187500.0]
['beep', 187500.0, -4532.03970575806, 187500.0, 187500.0, 187500.0, 187500.0, 4612.6847997528075, 187500.0]
['beep', 187500.0, -4526.429417899778, 187500.0, 187500.0, 187500.0, 187500.0, 4609.2202793622355, 187500.0]
['beep', 187500.0, -4527.412894655811, 187500.0, 187500.0, 187500.0, 187500.0, 4607.05216015007, 187500.0]
['beep', 187500.0, -4532.620851113898, 187500.0, 187500.0, 187500.0, 187500.0, 4608.862651450951, 187500.0]
['beep', 187500.0, -4534.18547322577, 187500.0, 187500.0, 187500.0, 187500.0, 4612.595392774987, 187500.0]
['beep', 187500.0, -4528.105798733926, 187500.0, 187500.0, 187500.0, 187500.0, 4608.057988650559, 187500.0]
['beep', 187500.0, -4526.183548710769, 187500.0, 187500.0, 187500.0, 187500.0, 4602.514756025643, 187500.0]
['beep', 187500.0, -4527.368191166901, 187500.0, 187500.0, 187500.0, 187500.0, 4601.665389736341, 187500.0]
['beep', 187500.0, -4533.425513914289, 187500.0, 187500.0, 187500.0, 187500.0, 4605.5769450160205, 187500.0]
['beep', 187500.0, -4534.2078249702245, 187500.0, 187500.0, 187500.0, 187500.0, 4604.325247326523, 187500.0]
['beep', 187500.0, -4533.201996469736, 187500.0, 187500.0, 187500.0, 187500.0, 4600.4136920468445, 187500.0]
['beep', 187500.0, -4530.855063301929, 187500.0, 187500.0, 187500.0, 187500.0, 4598.089110623492, 187500.0]
['beep', 187500.0, -4527.5693568669985, 187500.0, 187500.0, 187500.0, 187500.0, 4598.5361455125985, 187500.0]
['beep', 187500.0, -4532.866720302906, 187500.0, 187500.0, 187500.0, 187500.0, 4602.134776369903, 187500.0]
['beep', 187500.0, -4532.956127280728, 187500.0, 187500.0, 187500.0, 187500.0, 4596.703302467264, 187500.0]
['beep', 187500.0, -4530.89976679084, 187500.0, 187500.0, 187500.0, 187500.0, 4594.6022384884645, 187500.0]
['beep', 187500.0, -4527.949336522739, 187500.0, 187500.0, 187500.0, 187500.0, 4591.785918687096, 187500.0]
['beep', 187500.0, -4529.178682467781, 187500.0, 187500.0, 187500.0, 187500.0, 4590.713034953241, 187500.0]
['beep', 187500.0, -4535.861854059917, 187500.0, 187500.0, 187500.0, 187500.0, 4589.729558197208, 187500.0]
['beep', 187500.0, -4538.208787227725, 187500.0, 187500.0, 187500.0, 187500.0, 4587.5614389850425, 187500.0]
['beep', 187500.0, -4532.911423791817, 187500.0, 187500.0, 187500.0, 187500.0, 4586.1532790843585, 187500.0]
['beep', 187500.0, -4528.910461534317, 187500.0, 187500.0, 187500.0, 187500.0, 4581.14648832637, 187500.0]
['beep', 187500.0, -4530.653897601831, 187500.0, 187500.0, 187500.0, 187500.0, 4580.610046459442, 187500.0]
['beep', 187500.0, -4535.1465982373475, 187500.0, 187500.0, 187500.0, 187500.0, 4585.438023261789, 187500.0]
['beep', 187500.0, -4537.113551749415, 187500.0, 187500.0, 187500.0, 187500.0, 4584.499249994666, 187500.0]
['beep', 187500.0, -4533.0902377474595, 187500.0, 187500.0, 187500.0, 187500.0, 4581.90644763785, 187500.0]
['beep', 187500.0, -4531.525615635588, 187500.0, 187500.0, 187500.0, 187500.0, 4577.883133635894, 187500.0]
['beep', 187500.0, -4534.632508114875, 187500.0, 187500.0, 187500.0, 187500.0, 4574.2397992896795, 187500.0]
['beep', 187500.0, -4535.683040104275, 187500.0, 187500.0, 187500.0, 187500.0, 4577.749023169163, 187500.0]
['beep', 187500.0, -4536.778275582585, 187500.0, 187500.0, 187500.0, 187500.0, 4580.4535842482555, 187500.0]
['beep', 187500.0, -4538.275842461091, 187500.0, 187500.0, 187500.0, 187500.0, 4577.078470835504, 187500.0]
['beep', 187500.0, -4537.113551749415, 187500.0, 187500.0, 187500.0, 187500.0, 4571.222313788213, 187500.0]
['beep', 187500.0, -4534.118417992404, 187500.0, 187500.0, 187500.0, 187500.0, 4573.703357422753, 187500.0]
['beep', 187500.0, -4536.934737793772, 187500.0, 187500.0, 187500.0, 187500.0, 4573.90452312285, 187500.0]
['beep', 187500.0, -4538.164083738814, 187500.0, 187500.0, 187500.0, 187500.0, 4573.3010260225565, 187500.0]
['beep', 187500.0, -4535.526577893088, 187500.0, 187500.0, 187500.0, 187500.0, 4569.992967843172, 187500.0]
['beep', 187500.0, -4533.067886003004, 187500.0, 187500.0, 187500.0, 187500.0, 4567.020185830615, 187500.0]
['beep', 187500.0, -4537.895862805351, 187500.0, 187500.0, 187500.0, 187500.0, 4565.746136396663, 187500.0]
['beep', 187500.0, -4553.698546135252, 187500.0, 187500.0, 187500.0, 187500.0, 4564.583845684987, 187500.0]
['beep', 187500.0, -4545.428400686789, 187500.0, 187500.0, 187500.0, 187500.0, 4572.250494033157, 187500.0]
['beep', 187500.0, -4516.617002083898, 187500.0, 187500.0, 187500.0, 187500.0, 4569.970616098716, 187500.0]
['beep', 187500.0, -4507.072807201482, 187500.0, 187500.0, 187500.0, 187500.0, 4570.171781798814, 187500.0]
['beep', 187500.0, -4508.235097913158, 187500.0, 187500.0, 187500.0, 187500.0, 4568.338938753479, 187500.0]
['beep', 187500.0, -4521.1767579527805, 187500.0, 187500.0, 187500.0, 187500.0, 4567.891903864373, 187500.0]
['beep', 187500.0, -4527.591708611454, 187500.0, 187500.0, 187500.0, 187500.0, 4564.226217773702, 187500.0]
['beep', 187500.0, -4522.786083553563, 187500.0, 187500.0, 187500.0, 187500.0, 4563.645072417864, 187500.0]
['beep', 187500.0, -4520.975592252683, 187500.0, 187500.0, 187500.0, 187500.0, 4559.465296204722, 187500.0]
['beep', 187500.0, -4522.361400408912, 187500.0, 187500.0, 187500.0, 187500.0, 4559.1523717823475, 187500.0]
['beep', 187500.0, -4526.138845221859, 187500.0, 187500.0, 187500.0, 187500.0, 4562.28161600609, 187500.0]
['beep', 187500.0, -4524.238946943158, 187500.0, 187500.0, 187500.0, 187500.0, 4561.4993049501545, 187500.0]
['beep', 187500.0, -4521.020295741594, 187500.0, 187500.0, 187500.0, 187500.0, 4558.794743871063, 187500.0]
['beep', 187500.0, -4519.723894563186, 187500.0, 187500.0, 187500.0, 187500.0, 4555.464333947222, 187500.0]
['beep', 187500.0, -4521.89201377535, 187500.0, 187500.0, 187500.0, 187500.0, 4552.357441467934, 187500.0]
['beep', 187500.0, -4529.826883056985, 187500.0, 187500.0, 187500.0, 187500.0, 4553.3409182239675, 187500.0]
['beep', 187500.0, -4531.346801679945, 187500.0, 187500.0, 187500.0, 187500.0, 4556.000775814149, 187500.0]
['beep', 187500.0, -4529.960993523717, 187500.0, 187500.0, 187500.0, 187500.0, 4553.13975252387, 187500.0]
['beep', 187500.0, -4523.27782193158, 187500.0, 187500.0, 187500.0, 187500.0, 4550.815171100518, 187500.0]
['beep', 187500.0, -4525.736513821664, 187500.0, 187500.0, 187500.0, 187500.0, 4549.80934260003, 187500.0]
['beep', 187500.0, -4527.055266744526, 187500.0, 187500.0, 187500.0, 187500.0, 4553.51973217961, 187500.0]
['beep', 187500.0, -4525.736513821664, 187500.0, 187500.0, 187500.0, 187500.0, 4552.715069379219, 187500.0]
['beep', 187500.0, -4526.697638833241, 187500.0, 187500.0, 187500.0, 187500.0, 4548.200016999247, 187500.0]
['beep', 187500.0, -4525.870624288395, 187500.0, 187500.0, 187500.0, 187500.0, 4542.455618674233, 187500.0]
['beep', 187500.0, -4525.08831323246, 187500.0, 187500.0, 187500.0, 187500.0, 4542.23210122968, 187500.0]
['beep', 187500.0, -4526.94350802225, 187500.0, 187500.0, 187500.0, 187500.0, 4540.823941328996, 187500.0]
['beep', 187500.0, -4531.123284235392, 187500.0, 187500.0, 187500.0, 187500.0, 4544.08729601947, 187500.0]
['beep', 187500.0, -4529.737476079164, 187500.0, 187500.0, 187500.0, 187500.0, 4539.505188406132, 187500.0]
['beep', 187500.0, -4525.892976032851, 187500.0, 187500.0, 187500.0, 187500.0, 4536.04066801556, 187500.0]
['beep', 187500.0, -4523.411932398311, 187500.0, 187500.0, 187500.0, 187500.0, 4540.980403540183, 187500.0]
['beep', 187500.0, -4523.009600998116, 187500.0, 187500.0, 187500.0, 187500.0, 4543.640261130365, 187500.0]
['beep', 187500.0, -4522.8754905313845, 187500.0, 187500.0, 187500.0, 187500.0, 4544.288461719569, 187500.0]
['beep', 187500.0, -4522.182586453269, 187500.0, 187500.0, 187500.0, 187500.0, 4540.376906439889, 187500.0]
['beep', 187500.0, -4517.488720117655, 187500.0, 187500.0, 187500.0, 187500.0, 4537.739400594163, 187500.0]
['beep', 187500.0, -4519.835653285462, 187500.0, 187500.0, 187500.0, 187500.0, 4536.80062732704, 187500.0]
['beep', 187500.0, -4525.736513821664, 187500.0, 187500.0, 187500.0, 187500.0, 4533.067886003004, 187500.0]
['beep', 187500.0, -4526.56352836651, 187500.0, 187500.0, 187500.0, 187500.0, 4533.693734847753, 187500.0]
['beep', 187500.0, -4523.300173676035, 187500.0, 187500.0, 187500.0, 187500.0, 4533.2690517031015, 187500.0]
['beep', 187500.0, -4522.450807386734, 187500.0, 187500.0, 187500.0, 187500.0, 4527.70346733373, 187500.0]
['beep', 187500.0, -4526.608231855421, 187500.0, 187500.0, 187500.0, 187500.0, 4525.17772021028, 187500.0]
['beep', 187500.0, -4523.255470187124, 187500.0, 187500.0, 187500.0, 187500.0, 4533.783141825574, 187500.0]
['beep', 187500.0, -4520.103874218926, 187500.0, 187500.0, 187500.0, 187500.0, 4535.057191259527, 187500.0]
['beep', 187500.0, -4519.858005029918, 187500.0, 187500.0, 187500.0, 187500.0, 4529.893938290351, 187500.0]
['beep', 187500.0, -4515.968801494694, 187500.0, 187500.0, 187500.0, 187500.0, 4524.37305740989, 187500.0]
['beep', 187500.0, -4518.092217217948, 187500.0, 187500.0, 187500.0, 187500.0, 4525.244775443647, 187500.0]
['beep', 187500.0, -4522.473159131188, 187500.0, 187500.0, 187500.0, 187500.0, 4526.652935344331, 187500.0]
['beep', 187500.0, -4527.055266744526, 187500.0, 187500.0, 187500.0, 187500.0, 4524.4177608988, 187500.0]
['beep', 187500.0, -4525.781217310574, 187500.0, 187500.0, 187500.0, 187500.0, 4515.968801494694, 187500.0]
['beep', 187500.0, -4524.887147532362, 187500.0, 187500.0, 187500.0, 187500.0, 4511.5431560925435, 187500.0]
['beep', 187500.0, -4526.742342322153, 187500.0, 187500.0, 187500.0, 187500.0, 4509.8444235139405, 187500.0]
['beep', 187500.0, -4528.552833623032, 187500.0, 187500.0, 187500.0, 187500.0, 4508.771539780086, 187500.0]
['beep', 187500.0, -4528.552833623032, 187500.0, 187500.0, 187500.0, 187500.0, 4508.4362636132555, 187500.0]
['beep', 187500.0, -4525.758865566118, 187500.0, 187500.0, 187500.0, 187500.0, 4502.356589121412, 187500.0]
['beep', 187500.0, -4523.680153331775, 187500.0, 187500.0, 187500.0, 187500.0, 4497.908591974806, 187500.0]
['beep', 187500.0, -4522.651973086831, 187500.0, 187500.0, 187500.0, 187500.0, 4499.741435020142, 187500.0]
['beep', 187500.0, -4527.926984778283, 187500.0, 187500.0, 187500.0, 187500.0, 4499.27204838658, 187500.0]
['beep', 187500.0, -4529.245737701147, 187500.0, 187500.0, 187500.0, 187500.0, 4494.868754728885, 187500.0]
['beep', 187500.0, -4523.948374265239, 187500.0, 187500.0, 187500.0, 187500.0, 4488.02912092556, 187500.0]
['beep', 187500.0, -4517.868699773396, 187500.0, 187500.0, 187500.0, 187500.0, 4486.799774980518, 187500.0]
['beep', 187500.0, -4510.447920614233, 187500.0, 187500.0, 187500.0, 187500.0, 4492.387711094345, 187500.0]
['beep', 187500.0, -4505.418778111789, 187500.0, 187500.0, 187500.0, 187500.0, 4494.913458217795, 187500.0]
['beep', 187500.0, -4506.044626956538, 187500.0, 187500.0, 187500.0, 187500.0, 4496.656894285309, 187500.0]
['beep', 187500.0, -4511.766673537097, 187500.0, 187500.0, 187500.0, 187500.0, 4491.113661660393, 187500.0]
['beep', 187500.0, -4511.945487492739, 187500.0, 187500.0, 187500.0, 187500.0, 4488.051472670016, 187500.0]
['beep', 187500.0, -4513.800682282529, 187500.0, 187500.0, 187500.0, 187500.0, 4487.000940680617, 187500.0]
['beep', 187500.0, -4523.300173676035, 187500.0, 187500.0, 187500.0, 187500.0, 4486.196277880225, 187500.0]
['beep', 187500.0, -4525.244775443647, 187500.0, 187500.0, 187500.0, 187500.0, 4481.681225500253, 187500.0]
['beep', 187500.0, -4521.9367172642615, 187500.0, 187500.0, 187500.0, 187500.0, 4475.892123686329, 187500.0]
['beep', 187500.0, -4519.790949796552, 187500.0, 187500.0, 187500.0, 187500.0, 4475.221571352669, 187500.0]
['beep', 187500.0, -4519.723894563186, 187500.0, 187500.0, 187500.0, 187500.0, 4475.4450887972225, 187500.0]
['beep', 187500.0, -4518.785121296063, 187500.0, 187500.0, 187500.0, 187500.0, 4478.9096091877955, 187500.0]
['beep', 187500.0, -4519.858005029918, 187500.0, 187500.0, 187500.0, 187500.0, 4479.356644076901, 187500.0]
['beep', 187500.0, -4514.292420660547, 187500.0, 187500.0, 187500.0, 187500.0, 4477.255580098103, 187500.0]
['beep', 187500.0, -4514.851214271929, 187500.0, 187500.0, 187500.0, 187500.0, 4471.444126539723, 187500.0]
['beep', 187500.0, -4513.241888671147, 187500.0, 187500.0, 187500.0, 187500.0, 4468.337234060435, 187500.0]
['beep', 187500.0, -4517.89105151785, 187500.0, 187500.0, 187500.0, 187500.0, 4470.55005676151, 187500.0]
['beep', 187500.0, -4522.584917853465, 187500.0, 187500.0, 187500.0, 187500.0, 4470.952388161706, 187500.0]
['beep', 187500.0, -4518.114568962404, 187500.0, 187500.0, 187500.0, 187500.0, 4467.21964683767, 187500.0]
['beep', 187500.0, -4512.973667737683, 187500.0, 187500.0, 187500.0, 187500.0, 4465.677376470253, 187500.0]
['beep', 187500.0, -4517.265202673102, 187500.0, 187500.0, 187500.0, 187500.0, 4463.442202024723, 187500.0]
['beep', 187500.0, -4516.952278250727, 187500.0, 187500.0, 187500.0, 187500.0, 4465.051527625505, 187500.0]
['beep', 187500.0, -4516.549946850532, 187500.0, 187500.0, 187500.0, 187500.0, 4465.2303415811475, 187500.0]
['beep', 187500.0, -4516.572298594988, 187500.0, 187500.0, 187500.0, 187500.0, 4464.045699125016, 187500.0]
['beep', 187500.0, -4513.4207026267895, 187500.0, 187500.0, 187500.0, 187500.0, 4461.430545023745, 187500.0]
['beep', 187500.0, -4512.303115404024, 187500.0, 187500.0, 187500.0, 187500.0, 4458.636576966832, 187500.0]
['beep', 187500.0, -4510.157347936314, 187500.0, 187500.0, 187500.0, 187500.0, 4463.822181680463, 187500.0]
['beep', 187500.0, -4513.174833437781, 187500.0, 187500.0, 187500.0, 187500.0, 4462.570483990966, 187500.0]
['beep', 187500.0, -4510.403217125323, 187500.0, 187500.0, 187500.0, 187500.0, 4459.664757211775, 187500.0]
['beep', 187500.0, -4508.771539780086, 187500.0, 187500.0, 187500.0, 187500.0, 4458.748335689108, 187500.0]
['beep', 187500.0, -4511.163176436803, 187500.0, 187500.0, 187500.0, 187500.0, 4458.435411266734, 187500.0]
['beep', 187500.0, -4511.341990392446, 187500.0, 187500.0, 187500.0, 187500.0, 4456.557864732488, 187500.0]
['beep', 187500.0, -4513.174833437781, 187500.0, 187500.0, 187500.0, 187500.0, 4457.295472299513, 187500.0]
['beep', 187500.0, -4513.1301299488705, 187500.0, 187500.0, 187500.0, 187500.0, 4453.383917019834, 187500.0]
['beep', 187500.0, -4508.726836291175, 187500.0, 187500.0, 187500.0, 187500.0, 4451.282853041035, 187500.0]
['beep', 187500.0, -4512.906612504317, 187500.0, 187500.0, 187500.0, 187500.0, 4449.762934418075, 187500.0]
['beep', 187500.0, -4515.566470094499, 187500.0, 187500.0, 187500.0, 187500.0, 4451.998108863605, 187500.0]
['beep', 187500.0, -4515.99115323915, 187500.0, 187500.0, 187500.0, 187500.0, 4451.64048095232, 187500.0]
['beep', 187500.0, -4510.626734569876, 187500.0, 187500.0, 187500.0, 187500.0, 4448.31007102848, 187500.0]
['beep', 187500.0, -4509.173871180281, 187500.0, 187500.0, 187500.0, 187500.0, 4445.292585527013, 187500.0]
['beep', 187500.0, -4512.012542726105, 187500.0, 187500.0, 187500.0, 187500.0, 4443.504445970589, 187500.0]
['beep', 187500.0, -4512.727798548674, 187500.0, 187500.0, 187500.0, 187500.0, 4446.901911127796, 187500.0]
['beep', 187500.0, -4512.280763659569, 187500.0, 187500.0, 187500.0, 187500.0, 4443.705611670686, 187500.0]
['beep', 187500.0, -4508.883298502362, 187500.0, 187500.0, 187500.0, 187500.0, 4441.537492458522, 187500.0]
['beep', 187500.0, -4504.2117839112025, 187500.0, 187500.0, 187500.0, 187500.0, 4442.3421552589125, 187500.0]
['beep', 187500.0, -4502.513051332599, 187500.0, 187500.0, 187500.0, 187500.0, 4441.157512802782, 187500.0]
['beep', 187500.0, -4504.457653100211, 187500.0, 187500.0, 187500.0, 187500.0, 4442.811541892474, 187500.0]
['beep', 187500.0, -4507.162214179303, 187500.0, 187500.0, 187500.0, 187500.0, 4440.889291869318, 187500.0]
['beep', 187500.0, -4507.385731623856, 187500.0, 187500.0, 187500.0, 187500.0, 4439.548187201999, 187500.0]
['beep', 187500.0, -4506.357551378912, 187500.0, 187500.0, 187500.0, 187500.0, 4432.932070843229, 187500.0]
['beep', 187500.0, -4502.960086221706, 187500.0, 187500.0, 187500.0, 187500.0, 4431.97094583165, 187500.0]
['beep', 187500.0, -4504.36824612239, 187500.0, 187500.0, 187500.0, 187500.0, 4435.2343005221255, 187500.0]
['beep', 187500.0, -4508.9056502468175, 187500.0, 187500.0, 187500.0, 187500.0, 4433.982602832628, 187500.0]
['beep', 187500.0, -4505.932868234261, 187500.0, 187500.0, 187500.0, 187500.0, 4432.216815020659, 187500.0]
['beep', 187500.0, -4501.79779551003, 187500.0, 187500.0, 187500.0, 187500.0, 4433.334402243424, 187500.0]
['beep', 187500.0, -4497.439205341245, 187500.0, 187500.0, 187500.0, 187500.0, 4431.993297576106, 187500.0]
['beep', 187500.0, -4498.288571630546, 187500.0, 187500.0, 187500.0, 187500.0, 4434.921376099751, 187500.0]
['beep', 187500.0, -4502.848327499429, 187500.0, 187500.0, 187500.0, 187500.0, 4432.149759787293, 187500.0]
['beep', 187500.0, -4499.964952464695, 187500.0, 187500.0, 187500.0, 187500.0, 4428.0817422964265, 187500.0]
['beep', 187500.0, -4500.009655953605, 187500.0, 187500.0, 187500.0, 187500.0, 4424.103131783382, 187500.0]
['beep', 187500.0, -4497.439205341245, 187500.0, 187500.0, 187500.0, 187500.0, 4425.891271339807, 187500.0]
['beep', 187500.0, -4497.79683325253, 187500.0, 187500.0, 187500.0, 187500.0, 4425.108960283871, 187500.0]
['beep', 187500.0, -4498.668551286287, 187500.0, 187500.0, 187500.0, 187500.0, 4425.0866085394155, 187500.0]
['beep', 187500.0, -4496.522783818577, 187500.0, 187500.0, 187500.0, 187500.0, 4425.108960283871, 187500.0]
['beep', 187500.0, -4494.421719839778, 187500.0, 187500.0, 187500.0, 187500.0, 4420.929184070728, 187500.0]
['beep', 187500.0, -4495.1146239178925, 187500.0, 187500.0, 187500.0, 187500.0, 4420.593907903899, 187500.0]
['beep', 187500.0, -4498.377978608368, 187500.0, 187500.0, 187500.0, 187500.0, 4421.2644602375585, 187500.0]
['beep', 187500.0, -4499.026179197572, 187500.0, 187500.0, 187500.0, 187500.0, 4422.180881760226, 187500.0]
['beep', 187500.0, -4498.780310008563, 187500.0, 187500.0, 187500.0, 187500.0, 4419.006934047572, 187500.0]
['beep', 187500.0, -4498.065054185993, 187500.0, 187500.0, 187500.0, 187500.0, 4413.486053167111, 187500.0]
['beep', 187500.0, -4496.835708240951, 187500.0, 187500.0, 187500.0, 187500.0, 4413.195480489192, 187500.0]
['beep', 187500.0, -4498.534440819555, 187500.0, 187500.0, 187500.0, 187500.0, 4414.424826434234, 187500.0]
['beep', 187500.0, -4496.0533971850155, 187500.0, 187500.0, 187500.0, 187500.0, 4415.251840979081, 187500.0]
['beep', 187500.0, -4497.483908830155, 187500.0, 187500.0, 187500.0, 187500.0, 4412.971963044639, 187500.0]
['beep', 187500.0, -4497.193336152236, 187500.0, 187500.0, 187500.0, 187500.0, 4410.826195576929, 187500.0]
['beep', 187500.0, -4496.0533971850155, 187500.0, 187500.0, 187500.0, 187500.0, 4408.568669386944, 187500.0]
['beep', 187500.0, -4491.9406762052395, 187500.0, 187500.0, 187500.0, 187500.0, 4413.553108400477, 187500.0]
['beep', 187500.0, -4490.756033749108, 187500.0, 187500.0, 187500.0, 187500.0, 4415.050675278982, 187500.0]
['beep', 187500.0, -4492.655932027809, 187500.0, 187500.0, 187500.0, 187500.0, 4409.1721664872375, 187500.0]
['beep', 187500.0, -4495.069920428982, 187500.0, 187500.0, 187500.0, 187500.0, 4403.807747817963, 187500.0]
['beep', 187500.0, -4494.5111268176, 187500.0, 187500.0, 187500.0, 187500.0, 4406.601715874876, 187500.0]
['beep', 187500.0, -4496.992170452138, 187500.0, 187500.0, 187500.0, 187500.0, 4406.847585063885, 187500.0]
['beep', 187500.0, -4494.1758506507695, 187500.0, 187500.0, 187500.0, 187500.0, 4410.2897537100025, 187500.0]
['beep', 187500.0, -4493.304132617013, 187500.0, 187500.0, 187500.0, 187500.0, 4405.104148996371, 187500.0]
['beep', 187500.0, -4490.286647115547, 187500.0, 187500.0, 187500.0, 187500.0, 4401.706683839165, 187500.0]
['beep', 187500.0, -4486.352740091413, 187500.0, 187500.0, 187500.0, 187500.0, 4403.91950654024, 187500.0]
['beep', 187500.0, -4487.693844758731, 187500.0, 187500.0, 187500.0, 187500.0, 4406.422901919234, 187500.0]
['beep', 187500.0, -4488.051472670016, 187500.0, 187500.0, 187500.0, 187500.0, 4405.104148996371, 187500.0]
['beep', 187500.0, -4485.972760435672, 187500.0, 187500.0, 187500.0, 187500.0, 4403.91950654024, 187500.0]
['beep', 187500.0, -4485.324559846468, 187500.0, 187500.0, 187500.0, 187500.0, 4404.545355384988, 187500.0]
['beep', 187500.0, -4484.229324368158, 187500.0, 187500.0, 187500.0, 187500.0, 4404.031265262516, 187500.0]
['beep', 187500.0, -4480.854210955406, 187500.0, 187500.0, 187500.0, 187500.0, 4402.913678039751, 187500.0]
['beep', 187500.0, -4481.9047429448065, 187500.0, 187500.0, 187500.0, 187500.0, 4401.706683839165, 187500.0]
['beep', 187500.0, -4492.007731438605, 187500.0, 187500.0, 187500.0, 187500.0, 4397.705721581665, 187500.0]
['beep', 187500.0, -4491.158365149304, 187500.0, 187500.0, 187500.0, 187500.0, 4398.510384382055, 187500.0]
['beep', 187500.0, -4497.774481508074, 187500.0, 187500.0, 187500.0, 187500.0, 4400.030303005016, 187500.0]
['beep', 187500.0, -4498.2215163971805, 187500.0, 187500.0, 187500.0, 187500.0, 4406.422901919234, 187500.0]
['beep', 187500.0, -4496.679246029764, 187500.0, 187500.0, 187500.0, 187500.0, 4401.729035583619, 187500.0]
['beep', 187500.0, -4497.2827431300575, 187500.0, 187500.0, 187500.0, 187500.0, 4399.002122760073, 187500.0]
['beep', 187500.0, -4495.092272173438, 187500.0, 187500.0, 187500.0, 187500.0, 4394.710587824654, 187500.0]
['beep', 187500.0, -4493.5276500615655, 187500.0, 187500.0, 187500.0, 187500.0, 4393.883573279807, 187500.0]
['beep', 187500.0, -4496.433376840756, 187500.0, 187500.0, 187500.0, 187500.0, 4394.308256424458, 187500.0]
['beep', 187500.0, -4500.2778768870685, 187500.0, 187500.0, 187500.0, 187500.0, 4392.721282568131, 187500.0]
['beep', 187500.0, -4501.060187943004, 187500.0, 187500.0, 187500.0, 187500.0, 4392.318951167936, 187500.0]
['beep', 187500.0, -4498.199164652725, 187500.0, 187500.0, 187500.0, 187500.0, 4392.698930823676, 187500.0]
['beep', 187500.0, -4498.266219886091, 187500.0, 187500.0, 187500.0, 187500.0, 4391.961323256651, 187500.0]
['beep', 187500.0, -4496.098100673927, 187500.0, 187500.0, 187500.0, 187500.0, 4394.1517942132705, 187500.0]
['beep', 187500.0, -4496.589839051943, 187500.0, 187500.0, 187500.0, 187500.0, 4396.655189592265, 187500.0]
['beep', 187500.0, -4500.724911776175, 187500.0, 187500.0, 187500.0, 187500.0, 4391.626047089821, 187500.0]
['beep', 187500.0, -4495.762824507096, 187500.0, 187500.0, 187500.0, 187500.0, 4390.86608777834, 187500.0]
['beep', 187500.0, -4497.036873941049, 187500.0, 187500.0, 187500.0, 187500.0, 4389.614390088844, 187500.0]
['beep', 187500.0, -4497.193336152236, 187500.0, 187500.0, 187500.0, 187500.0, 4393.5035936240665, 187500.0]
['beep', 187500.0, -4493.281780872558, 187500.0, 187500.0, 187500.0, 187500.0, 4396.163451214248, 187500.0]
['beep', 187500.0, -4491.963027949694, 187500.0, 187500.0, 187500.0, 187500.0, 4390.307294166958, 187500.0]
['beep', 187500.0, -4489.504336059611, 187500.0, 187500.0, 187500.0, 187500.0, 4389.72614881112, 187500.0]
['beep', 187500.0, -4487.202106380714, 187500.0, 187500.0, 187500.0, 187500.0, 4393.39183490179, 187500.0]
['beep', 187500.0, -4489.102004659415, 187500.0, 187500.0, 187500.0, 187500.0, 4397.951590770673, 187500.0]
['beep', 187500.0, -4488.498507559122, 187500.0, 187500.0, 187500.0, 187500.0, 4398.130404726316, 187500.0]
['beep', 187500.0, -4488.0067691811055, 187500.0, 187500.0, 187500.0, 187500.0, 4394.4423668911895, 187500.0]
['beep', 187500.0, -4483.916399945784, 187500.0, 187500.0, 187500.0, 187500.0, 4394.487070380101, 187500.0]
['beep', 187500.0, -4480.250713855114, 187500.0, 187500.0, 187500.0, 187500.0, 4395.336436669402, 187500.0]
['beep', 187500.0, -4482.910571445295, 187500.0, 187500.0, 187500.0, 187500.0, 4398.0857012374045, 187500.0]
['beep', 187500.0, -4488.967894192683, 187500.0, 187500.0, 187500.0, 187500.0, 4396.185802958704, 187500.0]
['beep', 187500.0, -4487.135051147348, 187500.0, 187500.0, 187500.0, 187500.0, 4391.58134360091, 187500.0]
['beep', 187500.0, -4485.503373802111, 187500.0, 187500.0, 187500.0, 187500.0, 4391.849564534374, 187500.0]
['beep', 187500.0, -4483.178792378759, 187500.0, 187500.0, 187500.0, 187500.0, 4392.229544190114, 187500.0]
['beep', 187500.0, -4483.826992967963, 187500.0, 187500.0, 187500.0, 187500.0, 4391.983675001106, 187500.0]
['beep', 187500.0, -4483.491716801133, 187500.0, 187500.0, 187500.0, 187500.0, 4391.424881389723, 187500.0]
['beep', 187500.0, -4478.529629532055, 187500.0, 187500.0, 187500.0, 187500.0, 4389.167355199737, 187500.0]
['beep', 187500.0, -4476.965007420184, 187500.0, 187500.0, 187500.0, 187500.0, 4390.44140463369, 187500.0]
['beep', 187500.0, -4476.987359164638, 187500.0, 187500.0, 187500.0, 187500.0, 4392.765986057042, 187500.0]
['beep', 187500.0, -4476.339158575435, 187500.0, 187500.0, 187500.0, 187500.0, 4394.554125613467, 187500.0]
['beep', 187500.0, -4476.674434742265, 187500.0, 187500.0, 187500.0, 187500.0, 4394.956457013662, 187500.0]
['beep', 187500.0, -4478.999016165616, 187500.0, 187500.0, 187500.0, 187500.0, 4391.246067434081, 187500.0]
['beep', 187500.0, -4475.400385308312, 187500.0, 187500.0, 187500.0, 187500.0, 4388.317988910436, 187500.0]
['beep', 187500.0, -4475.579199263954, 187500.0, 187500.0, 187500.0, 187500.0, 4391.469584878634, 187500.0]
['beep', 187500.0, -4472.4052515513, 187500.0, 187500.0, 187500.0, 187500.0, 4394.084738979905, 187500.0]
['beep', 187500.0, -4472.047623640015, 187500.0, 187500.0, 187500.0, 187500.0, 4392.96715175714, 187500.0]
['beep', 187500.0, -4475.735661475142, 187500.0, 187500.0, 187500.0, 187500.0, 4396.454023892167, 187500.0]
['beep', 187500.0, -4474.372205063368, 187500.0, 187500.0, 187500.0, 187500.0, 4394.06238723545, 187500.0]
['beep', 187500.0, -4473.4557835407, 187500.0, 187500.0, 187500.0, 187500.0, 4392.408358145757, 187500.0]
['beep', 187500.0, -4474.193391107726, 187500.0, 187500.0, 187500.0, 187500.0, 4394.934105269206, 187500.0]
['beep', 187500.0, -4476.74148997563, 187500.0, 187500.0, 187500.0, 187500.0, 4394.308256424458, 187500.0]
['beep', 187500.0, -4474.841591696929, 187500.0, 187500.0, 187500.0, 187500.0, 4395.2023262026705, 187500.0]
['beep', 187500.0, -4472.069975384471, 187500.0, 187500.0, 187500.0, 187500.0, 4392.810689545952, 187500.0]
['beep', 187500.0, -4472.919341673773, 187500.0, 187500.0, 187500.0, 187500.0, 4394.420015146735, 187500.0]
['beep', 187500.0, -4474.014577152083, 187500.0, 187500.0, 187500.0, 187500.0, 4397.973942515128, 187500.0]
['beep', 187500.0, -4472.785231207041, 187500.0, 187500.0, 187500.0, 187500.0, 4394.531773869011, 187500.0]
