['beep', 0.0, 1329.7499811351279, 0.0, 0.0, 0.0, 0.0, -4430.5404341865105, 0.0]
['beep', 0.0, 1292.8472510394158, 0.0, 0.0, 0.0, 0.0, -4422.538509671511, 0.0]
['beep', 0.0, 1222.394552516288, 0.0, 0.0, 0.0, 0.0, -4478.104946387404, 0.0]
['beep', 0.0, 1220.3381920263996, 0.0, 0.0, 0.0, 0.0, -4516.3040776615235, 0.0]
['beep', 0.0, 1283.68303581274, 0.0, 0.0, 0.0, 0.0, -4488.409100581301, 0.0]
['beep', 0.0, 1332.7451148921389, 0.0, 0.0, 0.0, 0.0, -4428.1935010187035, 0.0]
['beep', 0.0, 1296.2447161966224, 0.0, 0.0, 0.0, 0.0, -4422.87378583834, 0.0]
['beep', 0.0, 1225.9708316291371, 0.0, 0.0, 0.0, 0.0, -4480.049548155016, 0.0]
['beep', 0.0, 1222.618069960841, 0.0, 0.0, 0.0, 0.0, -4515.365304394401, 0.0]
['beep', 0.0, 1283.2807044125443, 0.0, 0.0, 0.0, 0.0, -4485.123394146371, 0.0]
['beep', 0.0, 1332.8568736144155, 0.0, 0.0, 0.0, 0.0, -4427.880576596329, 0.0]
['beep', 0.0, 1295.9764952631588, 0.0, 0.0, 0.0, 0.0, -4424.349000972391, 0.0]
['beep', 0.0, 1225.881424651316, 0.0, 0.0, 0.0, 0.0, -4481.50241154461, 0.0]
['beep', 0.0, 1222.5063112385644, 0.0, 0.0, 0.0, 0.0, -4519.030990485071, 0.0]
['beep', 0.0, 1283.392463134821, 0.0, 0.0, 0.0, 0.0, -4484.206972623703, 0.0]
['beep', 0.0, 1332.968632336692, 0.0, 0.0, 0.0, 0.0, -4424.058428294472, 0.0]
['beep', 0.0, 1296.0211987520695, 0.0, 0.0, 0.0, 0.0, -4423.164358516259, 0.0]
['beep', 0.0, 1222.9309943832154, 0.0, 0.0, 0.0, 0.0, -4481.323597588968, 0.0]
['beep', 0.0, 1217.745389669584, 0.0, 0.0, 0.0, 0.0, -4514.2477171716355, 0.0]
['beep', 0.0, 1279.3020938994998, 0.0, 0.0, 0.0, 0.0, -4482.999978423117, 0.0]
['beep', 0.0, 1328.5653386789966, 0.0, 0.0, 0.0, 0.0, -4431.814483620463, 0.0]
['beep', 0.0, 1291.8861260278377, 0.0, 0.0, 0.0, 0.0, -4433.848492365896, 0.0]
['beep', 0.0, 1221.9475176271817, 0.0, 0.0, 0.0, 0.0, -4484.475193557167, 0.0]
['beep', 0.0, 1217.7006861806735, 0.0, 0.0, 0.0, 0.0, -4511.789025281551, 0.0]
['beep', 0.0, 1280.263218911078, 0.0, 0.0, 0.0, 0.0, -4482.88821970084, 0.0]
['beep', 0.0, 1331.225196269178, 0.0, 0.0, 0.0, 0.0, -4428.349963229891, 0.0]
['beep', 0.0, 1295.4400533962314, 0.0, 0.0, 0.0, 0.0, -4425.913623084262, 0.0]
['beep', 0.0, 1224.6520787062739, 0.0, 0.0, 0.0, 0.0, -4479.669568499276, 0.0]
['beep', 0.0, 1219.0641425924473, 0.0, 0.0, 0.0, 0.0, -4511.677266559275, 0.0]
['beep', 0.0, 1281.2690474115668, 0.0, 0.0, 0.0, 0.0, -4481.994149922628, 0.0]
['beep', 0.0, 1332.1416177918456, 0.0, 0.0, 0.0, 0.0, -4429.378143474834, 0.0]
['beep', 0.0, 1294.8589080403935, 0.0, 0.0, 0.0, 0.0, -4427.2547277515805, 0.0]
['beep', 0.0, 1221.4334275047097, 0.0, 0.0, 0.0, 0.0, -4480.116603388382, 0.0]
['beep', 0.0, 1212.7833024005058, 0.0, 0.0, 0.0, 0.0, -4509.151519435825, 0.0]
['beep', 0.0, 1272.1495356738014, 0.0, 0.0, 0.0, 0.0, -4478.037891154038, 0.0]
['beep', 0.0, 1319.8258065969715, 0.0, 0.0, 0.0, 0.0, -4424.661925394765, 0.0]
['beep', 0.0, 1283.7277393016504, 0.0, 0.0, 0.0, 0.0, -4420.9738875596395, 0.0]
['beep', 0.0, 1212.7385989115953, 0.0, 0.0, 0.0, 0.0, -4477.277931842557, 0.0]
['beep', 0.0, 1206.4801104641094, 0.0, 0.0, 0.0, 0.0, -4510.93965899225, 0.0]
['beep', 0.0, 1267.098041426902, 0.0, 0.0, 0.0, 0.0, -4479.401347565812, 0.0]
['beep', 0.0, 1316.9424315622368, 0.0, 0.0, 0.0, 0.0, -4422.8514340938855, 0.0]
['beep', 0.0, 1283.7947945350165, 0.0, 0.0, 0.0, 0.0, -4420.459797437167, 0.0]
['beep', 0.0, 1211.3751424998215, 0.0, 0.0, 0.0, 0.0, -4479.826030710463, 0.0]
['beep', 0.0, 1204.1331772963022, 0.0, 0.0, 0.0, 0.0, -4509.732664791663, 0.0]
['beep', 0.0, 1265.1534396592904, 0.0, 0.0, 0.0, 0.0, -4477.434394053745, 0.0]
['beep', 0.0, 1316.4283414397648, 0.0, 0.0, 0.0, 0.0, -4421.219756748647, 0.0]
['beep', 0.0, 1283.4371666237316, 0.0, 0.0, 0.0, 0.0, -4416.615297390855, 0.0]
['beep', 0.0, 1212.649191933774, 0.0, 0.0, 0.0, 0.0, -4474.5063155300995, 0.0]
['beep', 0.0, 1204.5131569520422, 0.0, 0.0, 0.0, 0.0, -4511.744321792641, 0.0]
['beep', 0.0, 1263.7676315030612, 0.0, 0.0, 0.0, 0.0, -4485.905705202306, 0.0]
['beep', 0.0, 1316.8083210955049, 0.0, 0.0, 0.0, 0.0, -4426.651230651287, 0.0]
['beep', 0.0, 1284.1077189573907, 0.0, 0.0, 0.0, 0.0, -4420.079817781427, 0.0]
['beep', 0.0, 1211.4198459887323, 0.0, 0.0, 0.0, 0.0, -4478.93196093225, 0.0]
['beep', 0.0, 1202.7697208845284, 0.0, 0.0, 0.0, 0.0, -4515.253545672124, 0.0]
['beep', 0.0, 1262.7618030025726, 0.0, 0.0, 0.0, 0.0, -4484.5422487905325, 0.0]
['beep', 0.0, 1316.2495274841224, 0.0, 0.0, 0.0, 0.0, -4425.779512617531, 0.0]
['beep', 0.0, 1284.9123817577818, 0.0, 0.0, 0.0, 0.0, -4417.911698569262, 0.0]
['beep', 0.0, 1213.4091512452544, 0.0, 0.0, 0.0, 0.0, -4473.053452140504, 0.0]
['beep', 0.0, 1205.3401714968886, 0.0, 0.0, 0.0, 0.0, -4514.3594758939125, 0.0]
['beep', 0.0, 1265.6228262928519, 0.0, 0.0, 0.0, 0.0, -4485.749242991119, 0.0]
['beep', 0.0, 1317.8812048293598, 0.0, 0.0, 0.0, 0.0, -4425.176015517237, 0.0]
['beep', 0.0, 1287.4828323701422, 0.0, 0.0, 0.0, 0.0, -4418.559899158466, 0.0]
['beep', 0.0, 1215.778436157517, 0.0, 0.0, 0.0, 0.0, -4475.914475430784, 0.0]
['beep', 0.0, 1205.5636889414418, 0.0, 0.0, 0.0, 0.0, -4513.018371226593, 0.0]
['beep', 0.0, 1265.6228262928519, 0.0, 0.0, 0.0, 0.0, -4482.821164467474, 0.0]
['beep', 0.0, 1318.5741089074743, 0.0, 0.0, 0.0, 0.0, -4424.572518416943, 0.0]
['beep', 0.0, 1288.3992538928096, 0.0, 0.0, 0.0, 0.0, -4414.156605500771, 0.0]
['beep', 0.0, 1215.9796018576149, 0.0, 0.0, 0.0, 0.0, -4470.840629439429, 0.0]
['beep', 0.0, 1205.4072267302545, 0.0, 0.0, 0.0, 0.0, -4511.118472947893, 0.0]
['beep', 0.0, 1263.7229280141507, 0.0, 0.0, 0.0, 0.0, -4481.971798178172, 0.0]
['beep', 0.0, 1318.4623501851977, 0.0, 0.0, 0.0, 0.0, -4425.287774239513, 0.0]
['beep', 0.0, 1288.3321986594437, 0.0, 0.0, 0.0, 0.0, -4418.470492180645, 0.0]
['beep', 0.0, 1215.487863479598, 0.0, 0.0, 0.0, 0.0, -4474.953350419206, 0.0]
['beep', 0.0, 1206.033075575003, 0.0, 0.0, 0.0, 0.0, -4515.700580561231, 0.0]
['beep', 0.0, 1264.1699629032569, 0.0, 0.0, 0.0, 0.0, -4487.827955225463, 0.0]
['beep', 0.0, 1318.328239718466, 0.0, 0.0, 0.0, 0.0, -4426.226547506636, 0.0]
['beep', 0.0, 1290.321503915966, 0.0, 0.0, 0.0, 0.0, -4420.705666626175, 0.0]
['beep', 0.0, 1219.265308292545, 0.0, 0.0, 0.0, 0.0, -4473.724004474164, 0.0]
['beep', 0.0, 1206.7259796531177, 0.0, 0.0, 0.0, 0.0, -4509.620906069387, 0.0]
['beep', 0.0, 1263.8793902253378, 0.0, 0.0, 0.0, 0.0, -4485.033987168549, 0.0]
['beep', 0.0, 1319.0211437965804, 0.0, 0.0, 0.0, 0.0, -4425.3771812173345, 0.0]
['beep', 0.0, 1289.6733033267622, 0.0, 0.0, 0.0, 0.0, -4415.296544467991, 0.0]
['beep', 0.0, 1217.4995204805757, 0.0, 0.0, 0.0, 0.0, -4471.488830028633, 0.0]
['beep', 0.0, 1206.167186041735, 0.0, 0.0, 0.0, 0.0, -4509.956182236217, 0.0]
['beep', 0.0, 1264.7064047701842, 0.0, 0.0, 0.0, 0.0, -4480.898914444318, 0.0]
['beep', 0.0, 1320.1163792748905, 0.0, 0.0, 0.0, 0.0, -4423.92431782774, 0.0]
['beep', 0.0, 1291.617905094374, 0.0, 0.0, 0.0, 0.0, -4415.005971790072, 0.0]
['beep', 0.0, 1218.237128047601, 0.0, 0.0, 0.0, 0.0, -4471.779402706552, 0.0]
['beep', 0.0, 1206.457758719654, 0.0, 0.0, 0.0, 0.0, -4512.280763659569, 0.0]
['beep', 0.0, 1264.3711286033547, 0.0, 0.0, 0.0, 0.0, -4488.923190703773, 0.0]
['beep', 0.0, 1318.328239718466, 0.0, 0.0, 0.0, 0.0, -4430.451027208689, 0.0]
['beep', 0.0, 1291.0144079940806, 0.0, 0.0, 0.0, 0.0, -4420.817425348452, 0.0]
['beep', 0.0, 1219.7570466705617, 0.0, 0.0, 0.0, 0.0, -4476.205048108703, 0.0]
['beep', 0.0, 1206.0554273194584, 0.0, 0.0, 0.0, 0.0, -4511.789025281551, 0.0]
['beep', 0.0, 1262.8288582359385, 0.0, 0.0, 0.0, 0.0, -4482.463536556189, 0.0]
['beep', 0.0, 1319.6246408968736, 0.0, 0.0, 0.0, 0.0, -4425.064256794961, 0.0]
['beep', 0.0, 1291.550849861008, 0.0, 0.0, 0.0, 0.0, -4418.515195669555, 0.0]
['beep', 0.0, 1218.393590258788, 0.0, 0.0, 0.0, 0.0, -4474.081632385449, 0.0]
['beep', 0.0, 1204.4461017186763, 0.0, 0.0, 0.0, 0.0, -4511.856080514918, 0.0]
['beep', 0.0, 1261.420698335254, 0.0, 0.0, 0.0, 0.0, -4483.402309823312, 0.0]
['beep', 0.0, 1319.065847285491, 0.0, 0.0, 0.0, 0.0, -4427.746466129597, 0.0]
['beep', 0.0, 1294.0318934955471, 0.0, 0.0, 0.0, 0.0, -4421.599736404388, 0.0]
['beep', 0.0, 1221.165206571246, 0.0, 0.0, 0.0, 0.0, -4483.4246615677675, 0.0]
['beep', 0.0, 1206.457758719654, 0.0, 0.0, 0.0, 0.0, -4518.896880018339, 0.0]
['beep', 0.0, 1265.5781228039411, 0.0, 0.0, 0.0, 0.0, -4485.123394146371, 0.0]
['beep', 0.0, 1322.7985886095273, 0.0, 0.0, 0.0, 0.0, -4425.131312028327, 0.0]
['beep', 0.0, 1298.2563731976002, 0.0, 0.0, 0.0, 0.0, -4413.73192235612, 0.0]
['beep', 0.0, 1225.1885205732012, 0.0, 0.0, 0.0, 0.0, -4468.918379416273, 0.0]
['beep', 0.0, 1210.1905000436902, 0.0, 0.0, 0.0, 0.0, -4511.006714225616, 0.0]
['beep', 0.0, 1266.427489093243, 0.0, 0.0, 0.0, 0.0, -4487.045644169527, 0.0]
['beep', 0.0, 1320.6304693973625, 0.0, 0.0, 0.0, 0.0, -4431.166283031259, 0.0]
['beep', 0.0, 1292.8696027838712, 0.0, 0.0, 0.0, 0.0, -4421.756198615575, 0.0]
['beep', 0.0, 1220.2040815596679, 0.0, 0.0, 0.0, 0.0, -4472.941693418228, 0.0]
['beep', 0.0, 1204.2896395074893, 0.0, 0.0, 0.0, 0.0, -4512.772502037586, 0.0]
['beep', 0.0, 1261.3312913574327, 0.0, 0.0, 0.0, 0.0, -4489.660798270797, 0.0]
['beep', 0.0, 1318.3058879740106, 0.0, 0.0, 0.0, 0.0, -4431.166283031259, 0.0]
['beep', 0.0, 1294.7918528070275, 0.0, 0.0, 0.0, 0.0, -4417.2187944911475, 0.0]
['beep', 0.0, 1222.8862908943047, 0.0, 0.0, 0.0, 0.0, -4474.305149830002, 0.0]
['beep', 0.0, 1204.3790464853105, 0.0, 0.0, 0.0, 0.0, -4514.784159038563, 0.0]
['beep', 0.0, 1262.0465471800028, 0.0, 0.0, 0.0, 0.0, -4490.756033749108, 0.0]
['beep', 0.0, 1319.6246408968736, 0.0, 0.0, 0.0, 0.0, -4434.630803421832, 0.0]
['beep', 0.0, 1295.708274329695, 0.0, 0.0, 0.0, 0.0, -4421.73384687112, 0.0]
['beep', 0.0, 1223.8697676503382, 0.0, 0.0, 0.0, 0.0, -4473.969873663173, 0.0]
['beep', 0.0, 1206.9047936087602, 0.0, 0.0, 0.0, 0.0, -4518.896880018339, 0.0]
['beep', 0.0, 1262.5606373024748, 0.0, 0.0, 0.0, 0.0, -4494.958161706706, 0.0]
['beep', 0.0, 1320.7198763751837, 0.0, 0.0, 0.0, 0.0, -4433.110884798871, 0.0]
['beep', 0.0, 1297.384655163843, 0.0, 0.0, 0.0, 0.0, -4418.626954391832, 0.0]
['beep', 0.0, 1224.5626717284526, 0.0, 0.0, 0.0, 0.0, -4476.026234153061, 0.0]
['beep', 0.0, 1208.134139553802, 0.0, 0.0, 0.0, 0.0, -4519.790949796552, 0.0]
['beep', 0.0, 1263.4100035917763, 0.0, 0.0, 0.0, 0.0, -4492.052434927516, 0.0]
['beep', 0.0, 1321.0775042864686, 0.0, 0.0, 0.0, 0.0, -4432.239166765114, 0.0]
['beep', 0.0, 1298.4351871532426, 0.0, 0.0, 0.0, 0.0, -4419.141044514304, 0.0]
['beep', 0.0, 1224.8979478952824, 0.0, 0.0, 0.0, 0.0, -4476.3838620643455, 0.0]
['beep', 0.0, 1208.6258779318189, 0.0, 0.0, 0.0, 0.0, -4518.60630734042, 0.0]
['beep', 0.0, 1264.974625703648, 0.0, 0.0, 0.0, 0.0, -4490.443109326734, 0.0]
['beep', 0.0, 1322.6197746538849, 0.0, 0.0, 0.0, 0.0, -4431.099227797893, 0.0]
['beep', 0.0, 1300.5586028764967, 0.0, 0.0, 0.0, 0.0, -4417.934050313717, 0.0]
['beep', 0.0, 1225.3449827843885, 0.0, 0.0, 0.0, 0.0, -4476.428565553256, 0.0]
['beep', 0.0, 1207.1730145422239, 0.0, 0.0, 0.0, 0.0, -4521.199109697236, 0.0]
['beep', 0.0, 1262.6276925358407, 0.0, 0.0, 0.0, 0.0, -4497.148632663326, 0.0]
['beep', 0.0, 1322.5303676760636, 0.0, 0.0, 0.0, 0.0, -4438.050620323494, 0.0]
['beep', 0.0, 1301.7208935881727, 0.0, 0.0, 0.0, 0.0, -4418.805768347474, 0.0]
['beep', 0.0, 1228.6977444526844, 0.0, 0.0, 0.0, 0.0, -4470.438298039234, 0.0]
['beep', 0.0, 1210.2799070215115, 0.0, 0.0, 0.0, 0.0, -4516.4158363838005, 0.0]
['beep', 0.0, 1263.4100035917763, 0.0, 0.0, 0.0, 0.0, -4499.026179197572, 0.0]
['beep', 0.0, 1321.4127804532982, 0.0, 0.0, 0.0, 0.0, -4441.06810582496, 0.0]
['beep', 0.0, 1301.5197278880748, 0.0, 0.0, 0.0, 0.0, -4420.124521270338, 0.0]
['beep', 0.0, 1229.1894828307013, 0.0, 0.0, 0.0, 0.0, -4471.98056840665, 0.0]
['beep', 0.0, 1210.5034244660646, 0.0, 0.0, 0.0, 0.0, -4515.968801494694, 0.0]
['beep', 0.0, 1264.0805559254356, 0.0, 0.0, 0.0, 0.0, -4495.449900084723, 0.0]
['beep', 0.0, 1322.7538851206166, 0.0, 0.0, 0.0, 0.0, -4437.357716245379, 0.0]
['beep', 0.0, 1302.9725912776698, 0.0, 0.0, 0.0, 0.0, -4419.856300336874, 0.0]
['beep', 0.0, 1228.9212618972376, 0.0, 0.0, 0.0, 0.0, -4471.891161428829, 0.0]
['beep', 0.0, 1208.6258779318189, 0.0, 0.0, 0.0, 0.0, -4517.309906162012, 0.0]
['beep', 0.0, 1262.6723960247514, 0.0, 0.0, 0.0, 0.0, -4499.361455364401, 0.0]
['beep', 0.0, 1321.3457252199323, 0.0, 0.0, 0.0, 0.0, -4439.369373246357, 0.0]
['beep', 0.0, 1301.6314866103514, 0.0, 0.0, 0.0, 0.0, -4419.252803236581, 0.0]
['beep', 0.0, 1227.848378163383, 0.0, 0.0, 0.0, 0.0, -4472.539362018033, 0.0]
['beep', 0.0, 1208.7599883985506, 0.0, 0.0, 0.0, 0.0, -4515.32060090549, 0.0]
['beep', 0.0, 1262.5606373024748, 0.0, 0.0, 0.0, 0.0, -4493.751167506119, 0.0]
['beep', 0.0, 1321.3457252199323, 0.0, 0.0, 0.0, 0.0, -4434.809617377475, 0.0]
['beep', 0.0, 1303.2184604666784, 0.0, 0.0, 0.0, 0.0, -4415.520061912544, 0.0]
['beep', 0.0, 1229.9047386532711, 0.0, 0.0, 0.0, 0.0, -4468.024309638061, 0.0]
['beep', 0.0, 1208.6929331651847, 0.0, 0.0, 0.0, 0.0, -4509.553850836021, 0.0]
['beep', 0.0, 1263.67822452524, 0.0, 0.0, 0.0, 0.0, -4484.229324368158, 0.0]
['beep', 0.0, 1322.128036275868, 0.0, 0.0, 0.0, 0.0, -4427.567652173955, 0.0]
['beep', 0.0, 1302.7267220886615, 0.0, 0.0, 0.0, 0.0, -4404.746521085086, 0.0]
['beep', 0.0, 1227.133122340813, 0.0, 0.0, 0.0, 0.0, -4449.427658251245, 0.0]
['beep', 0.0, 1201.8980028507713, 0.0, 0.0, 0.0, 0.0, -4487.760899992097, 0.0]
['beep', 0.0, 1255.2963203545, 0.0, 0.0, 0.0, 0.0, -4458.837742666929, 0.0]
['beep', 0.0, 1320.518710675086, 0.0, 0.0, 0.0, 0.0, -4387.58038134341, 0.0]
['beep', 0.0, 1299.3739604203654, 0.0, 0.0, 0.0, 0.0, -4361.406488586246, 0.0]
['beep', 0.0, 1218.103017580869, 0.0, 0.0, 0.0, 0.0, -4395.068215735939, 0.0]
['beep', 0.0, 1198.6122964158412, 0.0, 0.0, 0.0, 0.0, -4423.834910849919, 0.0]
['beep', 0.0, 1252.1670761307569, 0.0, 0.0, 0.0, 0.0, -4393.101262223871, 0.0]
['beep', 0.0, 1307.8899750578375, 0.0, 0.0, 0.0, 0.0, -4325.598993968844, 0.0]
['beep', 0.0, 1288.4439573817203, 0.0, 0.0, 0.0, 0.0, -4290.953790063118, 0.0]
['beep', 0.0, 1214.4149797457433, 0.0, 0.0, 0.0, 0.0, -4326.873043402797, 0.0]
['beep', 0.0, 1191.8620695903385, 0.0, 0.0, 0.0, 0.0, -4361.317081608425, 0.0]
['beep', 0.0, 1242.9358056707151, 0.0, 0.0, 0.0, 0.0, -4335.746685951553, 0.0]
['beep', 0.0, 1302.682018599751, 0.0, 0.0, 0.0, 0.0, -4268.400879907713, 0.0]
['beep', 0.0, 1285.359416646888, 0.0, 0.0, 0.0, 0.0, -4240.170626660661, 0.0]
['beep', 0.0, 1208.290601764989, 0.0, 0.0, 0.0, 0.0, -4291.736101119054, 0.0]
['beep', 0.0, 1183.5472206529644, 0.0, 0.0, 0.0, 0.0, -4338.495950519557, 0.0]
['beep', 0.0, 1234.7327154556174, 0.0, 0.0, 0.0, 0.0, -4312.769092651498, 0.0]
['beep', 0.0, 1295.6859225852397, 0.0, 0.0, 0.0, 0.0, -4248.977213976052, 0.0]
['beep', 0.0, 1277.357492131888, 0.0, 0.0, 0.0, 0.0, -4219.316449083859, 0.0]
['beep', 0.0, 1199.5734214274194, 0.0, 0.0, 0.0, 0.0, -4266.657443840199, 0.0]
['beep', 0.0, 1177.7581188390398, 0.0, 0.0, 0.0, 0.0, -4314.04314208545, 0.0]
['beep', 0.0, 1231.8046369319723, 0.0, 0.0, 0.0, 0.0, -4299.380397722769, 0.0]
['beep', 0.0, 1291.6849603277399, 0.0, 0.0, 0.0, 0.0, -4239.768295260465, 0.0]
['beep', 0.0, 1273.5129920855752, 0.0, 0.0, 0.0, 0.0, -4215.248431592993, 0.0]
['beep', 0.0, 1201.3839127282993, 0.0, 0.0, 0.0, 0.0, -4263.505847872001, 0.0]
['beep', 0.0, 1176.7969938274616, 0.0, 0.0, 0.0, 0.0, -4313.953735107629, 0.0]
['beep', 0.0, 1227.4460467631873, 0.0, 0.0, 0.0, 0.0, -4294.597124409333, 0.0]
['beep', 0.0, 1285.7170445581728, 0.0, 0.0, 0.0, 0.0, -4238.494245826512, 0.0]
['beep', 0.0, 1271.2778176400445, 0.0, 0.0, 0.0, 0.0, -4216.902460682686, 0.0]
['beep', 0.0, 1197.584116170897, 0.0, 0.0, 0.0, 0.0, -4261.7847635489425, 0.0]
['beep', 0.0, 1171.812554813928, 0.0, 0.0, 0.0, 0.0, -4309.5057379610225, 0.0]
['beep', 0.0, 1222.8192356609388, 0.0, 0.0, 0.0, 0.0, -4299.0004180670285, 0.0]
['beep', 0.0, 1283.7724427905612, 0.0, 0.0, 0.0, 0.0, -4241.93641447263, 0.0]
['beep', 0.0, 1269.9367129727261, 0.0, 0.0, 0.0, 0.0, -4221.126940384739, 0.0]
['beep', 0.0, 1198.366427226833, 0.0, 0.0, 0.0, 0.0, -4273.810002065898, 0.0]
['beep', 0.0, 1174.1818397261907, 0.0, 0.0, 0.0, 0.0, -4323.587336967867, 0.0]
['beep', 0.0, 1225.1885205732012, 0.0, 0.0, 0.0, 0.0, -4308.90224086073, 0.0]
['beep', 0.0, 1288.0863294704354, 0.0, 0.0, 0.0, 0.0, -4257.314414657881, 0.0]
['beep', 0.0, 1275.0776141974468, 0.0, 0.0, 0.0, 0.0, -4238.337783615325, 0.0]
['beep', 0.0, 1200.8251191169165, 0.0, 0.0, 0.0, 0.0, -4292.004322052518, 0.0]
['beep', 0.0, 1173.8912670482716, 0.0, 0.0, 0.0, 0.0, -4343.636851744277, 0.0]
['beep', 0.0, 1224.71913393964, 0.0, 0.0, 0.0, 0.0, -4330.292860304458, 0.0]
['beep', 0.0, 1291.0591114829913, 0.0, 0.0, 0.0, 0.0, -4277.1627637341935, 0.0]
['beep', 0.0, 1281.0455299670136, 0.0, 0.0, 0.0, 0.0, -4259.169609447671, 0.0]
['beep', 0.0, 1206.9942005865814, 0.0, 0.0, 0.0, 0.0, -4312.7914443959535, 0.0]
['beep', 0.0, 1181.0661770184252, 0.0, 0.0, 0.0, 0.0, -4365.049822932461, 0.0]
['beep', 0.0, 1232.7881136880058, 0.0, 0.0, 0.0, 0.0, -4354.38804082728, 0.0]
['beep', 0.0, 1296.3788266633544, 0.0, 0.0, 0.0, 0.0, -4302.7555111355205, 0.0]
['beep', 0.0, 1288.4886608706308, 0.0, 0.0, 0.0, 0.0, -4282.348368447825, 0.0]
['beep', 0.0, 1216.3372297688998, 0.0, 0.0, 0.0, 0.0, -4333.198587083649, 0.0]
['beep', 0.0, 1190.2527439895564, 0.0, 0.0, 0.0, 0.0, -4387.066291220938, 0.0]
['beep', 0.0, 1243.941634171204, 0.0, 0.0, 0.0, 0.0, -4377.9467794831735, 0.0]
['beep', 0.0, 1308.4934721581308, 0.0, 0.0, 0.0, 0.0, -4324.704924190632, 0.0]
['beep', 0.0, 1297.1387859748347, 0.0, 0.0, 0.0, 0.0, -4306.443548970646, 0.0]
['beep', 0.0, 1224.6297269618187, 0.0, 0.0, 0.0, 0.0, -4358.768982740519, 0.0]
['beep', 0.0, 1200.4004359722658, 0.0, 0.0, 0.0, 0.0, -4411.809672332964, 0.0]
['beep', 0.0, 1249.9319016852262, 0.0, 0.0, 0.0, 0.0, -4401.527869883522, 0.0]
['beep', 0.0, 1312.1368065043457, 0.0, 0.0, 0.0, 0.0, -4345.514398278523, 0.0]
['beep', 0.0, 1299.6645330982844, 0.0, 0.0, 0.0, 0.0, -4328.012982370017, 0.0]
['beep', 0.0, 1227.5578054854639, 0.0, 0.0, 0.0, 0.0, -4379.3549393838575, 0.0]
['beep', 0.0, 1200.847470861372, 0.0, 0.0, 0.0, 0.0, -4432.730905143131, 0.0]
['beep', 0.0, 1250.1554191297794, 0.0, 0.0, 0.0, 0.0, -4419.58807940341, 0.0]
['beep', 0.0, 1312.650896626818, 0.0, 0.0, 0.0, 0.0, -4368.581398556399, 0.0]
['beep', 0.0, 1302.1232249883683, 0.0, 0.0, 0.0, 0.0, -4348.107200635338, 0.0]
['beep', 0.0, 1229.5247589975309, 0.0, 0.0, 0.0, 0.0, -4395.023512247028, 0.0]
['beep', 0.0, 1201.3168574949334, 0.0, 0.0, 0.0, 0.0, -4449.78528616253, 0.0]
['beep', 0.0, 1250.5577505299748, 0.0, 0.0, 0.0, 0.0, -4443.727963415142, 0.0]
['beep', 0.0, 1314.4613879276978, 0.0, 0.0, 0.0, 0.0, -4389.927314511217, 0.0]
['beep', 0.0, 1305.7889110790386, 0.0, 0.0, 0.0, 0.0, -4366.234465388592, 0.0]
['beep', 0.0, 1232.6763549657292, 0.0, 0.0, 0.0, 0.0, -4414.87186132334, 0.0]
['beep', 0.0, 1204.3790464853105, 0.0, 0.0, 0.0, 0.0, -4469.141896860826, 0.0]
['beep', 0.0, 1254.4469540651983, 0.0, 0.0, 0.0, 0.0, -4459.195370578214, 0.0]
['beep', 0.0, 1317.4788734291642, 0.0, 0.0, 0.0, 0.0, -4405.752349585575, 0.0]
['beep', 0.0, 1308.6052308804074, 0.0, 0.0, 0.0, 0.0, -4382.618294074332, 0.0]
['beep', 0.0, 1234.8221224334386, 0.0, 0.0, 0.0, 0.0, -4427.679410896231, 0.0]
['beep', 0.0, 1207.1953662866792, 0.0, 0.0, 0.0, 0.0, -4477.881428942851, 0.0]
['beep', 0.0, 1255.519837799053, 0.0, 0.0, 0.0, 0.0, -4468.270178827069, 0.0]
['beep', 0.0, 1319.132902518857, 0.0, 0.0, 0.0, 0.0, -4413.620163633843, 0.0]
['beep', 0.0, 1310.1698529922787, 0.0, 0.0, 0.0, 0.0, -4391.938971512195, 0.0]
['beep', 0.0, 1236.5432067564973, 0.0, 0.0, 0.0, 0.0, -4441.135161058326, 0.0]
['beep', 0.0, 1207.4188837312322, 0.0, 0.0, 0.0, 0.0, -4490.487812815644, 0.0]
['beep', 0.0, 1254.1787331317346, 0.0, 0.0, 0.0, 0.0, -4479.155478376803, 0.0]
['beep', 0.0, 1317.1212455178793, 0.0, 0.0, 0.0, 0.0, -4419.297506725491, 0.0]
['beep', 0.0, 1309.745169847628, 0.0, 0.0, 0.0, 0.0, -4393.771814557531, 0.0]
['beep', 0.0, 1238.3313463129218, 0.0, 0.0, 0.0, 0.0, -4442.275100025547, 0.0]
['beep', 0.0, 1206.748331397573, 0.0, 0.0, 0.0, 0.0, -4498.310923375002, 0.0]
['beep', 0.0, 1253.4411255647094, 0.0, 0.0, 0.0, 0.0, -4488.431452325756, 0.0]
['beep', 0.0, 1317.8812048293598, 0.0, 0.0, 0.0, 0.0, -4431.836835364918, 0.0]
['beep', 0.0, 1318.1717775072786, 0.0, 0.0, 0.0, 0.0, -4450.187617562726, 0.0]
['beep', 0.0, 1319.937565319248, 0.0, 0.0, 0.0, 0.0, -4420.817425348452, 0.0]
['beep', 0.0, 1249.6636807517625, 0.0, 0.0, 0.0, 0.0, -4459.105963600393, 0.0]
['beep', 0.0, 1210.4140174882434, 0.0, 0.0, 0.0, 0.0, -4509.442092113744, 0.0]
['beep', 0.0, 1250.6695092522514, 0.0, 0.0, 0.0, 0.0, -4503.988266466649, 0.0]
['beep', 0.0, 1317.322411217977, 0.0, 0.0, 0.0, 0.0, -4449.718230929164, 0.0]
['beep', 0.0, 1320.0493240415244, 0.0, 0.0, 0.0, 0.0, -4416.771759602041, 0.0]
['beep', 0.0, 1248.5684452734524, 0.0, 0.0, 0.0, 0.0, -4459.821219422963, 0.0]
['beep', 0.0, 1208.9835058431038, 0.0, 0.0, 0.0, 0.0, -4514.404179382823, 0.0]
['beep', 0.0, 1249.976605174137, 0.0, 0.0, 0.0, 0.0, -4509.173871180281, 0.0]
['beep', 0.0, 1315.35545770591, 0.0, 0.0, 0.0, 0.0, -4457.206065321692, 0.0]
['beep', 0.0, 1318.1270740183681, 0.0, 0.0, 0.0, 0.0, -4421.599736404388, 0.0]
['beep', 0.0, 1248.5907970179078, 0.0, 0.0, 0.0, 0.0, -4456.64727171031, 0.0]
['beep', 0.0, 1207.3965319867768, 0.0, 0.0, 0.0, 0.0, -4508.771539780086, 0.0]
['beep', 0.0, 1248.456686551176, 0.0, 0.0, 0.0, 0.0, -4507.586897323954, 0.0]
['beep', 0.0, 1315.8024925950162, 0.0, 0.0, 0.0, 0.0, -4449.829989651441, 0.0]
['beep', 0.0, 1319.4458269412312, 0.0, 0.0, 0.0, 0.0, -4416.5705939019435, 0.0]
['beep', 0.0, 1247.6296720063297, 0.0, 0.0, 0.0, 0.0, -4458.971853133661, 0.0]
['beep', 0.0, 1207.9553255981596, 0.0, 0.0, 0.0, 0.0, -4517.913403262306, 0.0]
['beep', 0.0, 1247.5402650285084, 0.0, 0.0, 0.0, 0.0, -4514.270068916091, 0.0]
['beep', 0.0, 1315.4448646837313, 0.0, 0.0, 0.0, 0.0, -4450.947576874206, 0.0]
['beep', 0.0, 1321.032800797558, 0.0, 0.0, 0.0, 0.0, -4412.390817688802, 0.0]
['beep', 0.0, 1248.6578522512737, 0.0, 0.0, 0.0, 0.0, -4454.568559475966, 0.0]
['beep', 0.0, 1208.5141192095423, 0.0, 0.0, 0.0, 0.0, -4508.03393221306, 0.0]
['beep', 0.0, 1249.551922029486, 0.0, 0.0, 0.0, 0.0, -4503.921211233283, 0.0]
['beep', 0.0, 1316.5401001620412, 0.0, 0.0, 0.0, 0.0, -4452.0875158414265, 0.0]
['beep', 0.0, 1321.2786699865665, 0.0, 0.0, 0.0, 0.0, -4418.291678225002, 0.0]
['beep', 0.0, 1250.8483232078938, 0.0, 0.0, 0.0, 0.0, -4454.345042031413, 0.0]
['beep', 0.0, 1209.43054073221, 0.0, 0.0, 0.0, 0.0, -4511.163176436803, 0.0]
['beep', 0.0, 1248.5013900400866, 0.0, 0.0, 0.0, 0.0, -4511.789025281551, 0.0]
['beep', 0.0, 1315.7577891061055, 0.0, 0.0, 0.0, 0.0, -4455.97671937665, 0.0]
['beep', 0.0, 1320.6975246307284, 0.0, 0.0, 0.0, 0.0, -4416.414131690756, 0.0]
['beep', 0.0, 1251.004785419081, 0.0, 0.0, 0.0, 0.0, -4454.568559475966, 0.0]
['beep', 0.0, 1210.0787413214136, 0.0, 0.0, 0.0, 0.0, -4509.620906069387, 0.0]
['beep', 0.0, 1249.4401633072096, 0.0, 0.0, 0.0, 0.0, -4510.403217125323, 0.0]
['beep', 0.0, 1315.5566234060077, 0.0, 0.0, 0.0, 0.0, -4455.775553676553, 0.0]
['beep', 0.0, 1321.904518831315, 0.0, 0.0, 0.0, 0.0, -4420.660963137265, 0.0]
['beep', 0.0, 1252.3235383419442, 0.0, 0.0, 0.0, 0.0, -4453.674489697753, 0.0]
['beep', 0.0, 1210.168148299235, 0.0, 0.0, 0.0, 0.0, -4507.095158945937, 0.0]
['beep', 0.0, 1248.6355005068185, 0.0, 0.0, 0.0, 0.0, -4507.765711279597, 0.0]
['beep', 0.0, 1315.936603061748, 0.0, 0.0, 0.0, 0.0, -4454.747373431608, 0.0]
['beep', 0.0, 1321.8151118534938, 0.0, 0.0, 0.0, 0.0, -4418.649306136287, 0.0]
['beep', 0.0, 1251.7870964750168, 0.0, 0.0, 0.0, 0.0, -4455.93201588774, 0.0]
['beep', 0.0, 1213.2750407785227, 0.0, 0.0, 0.0, 0.0, -4511.699618303731, 0.0]
['beep', 0.0, 1253.6199395203519, 0.0, 0.0, 0.0, 0.0, -4511.677266559275, 0.0]
['beep', 0.0, 1322.2174432536892, 0.0, 0.0, 0.0, 0.0, -4457.876617655351, 0.0]
['beep', 0.0, 1334.3767922373763, 0.0, 0.0, 0.0, 0.0, -4419.811596847963, 0.0]
['beep', 0.0, 1270.808431006483, 0.0, 0.0, 0.0, 0.0, -4454.233283309136, 0.0]
['beep', 0.0, 1231.7599334430615, 0.0, 0.0, 0.0, 0.0, -4508.659781057809, 0.0]
['beep', 0.0, 1272.551867073997, 0.0, 0.0, 0.0, 0.0, -4508.011580468605, 0.0]
['beep', 0.0, 1341.8646266299043, 0.0, 0.0, 0.0, 0.0, -4454.769725176064, 0.0]
['beep', 0.0, 1350.1571238228232, 0.0, 0.0, 0.0, 0.0, -4419.2751549810355, 0.0]
['beep', 0.0, 1281.5149166005751, 0.0, 0.0, 0.0, 0.0, -4453.160399575281, 0.0]
['beep', 0.0, 1237.6384422348074, 0.0, 0.0, 0.0, 0.0, -4511.677266559275, 0.0]
['beep', 0.0, 1272.7977362630054, 0.0, 0.0, 0.0, 0.0, -4515.812339283507, 0.0]
['beep', 0.0, 1341.5293504630747, 0.0, 0.0, 0.0, 0.0, -4456.4237542657565, 0.0]
['beep', 0.0, 1351.3641180234097, 0.0, 0.0, 0.0, 0.0, -4413.798977589486, 0.0]
['beep', 0.0, 1281.9843032341366, 0.0, 0.0, 0.0, 0.0, -4448.488884984122, 0.0]
['beep', 0.0, 1237.5937387458966, 0.0, 0.0, 0.0, 0.0, -4509.3750368803785, 0.0]
['beep', 0.0, 1273.3565298743881, 0.0, 0.0, 0.0, 0.0, -4513.487757860155, 0.0]
['beep', 0.0, 1341.9763853521808, 0.0, 0.0, 0.0, 0.0, -4456.02142286556, 0.0]
['beep', 0.0, 1351.3417662789543, 0.0, 0.0, 0.0, 0.0, -4416.123559012837, 0.0]
['beep', 0.0, 1282.7889660345277, 0.0, 0.0, 0.0, 0.0, -4454.568559475966, 0.0]
['beep', 0.0, 1237.2361108346117, 0.0, 0.0, 0.0, 0.0, -4510.470272358689, 0.0]
['beep', 0.0, 1272.9541984741925, 0.0, 0.0, 0.0, 0.0, -4508.771539780086, 0.0]
['beep', 0.0, 1340.5905771959517, 0.0, 0.0, 0.0, 0.0, -4456.1331815878375, 0.0]
['beep', 0.0, 1351.0288418565801, 0.0, 0.0, 0.0, 0.0, -4421.599736404388, 0.0]
['beep', 0.0, 1282.2972276565108, 0.0, 0.0, 0.0, 0.0, -4452.825123408452, 0.0]
['beep', 0.0, 1237.3031660679778, 0.0, 0.0, 0.0, 0.0, -4509.732664791663, 0.0]
['beep', 0.0, 1273.4906403411198, 0.0, 0.0, 0.0, 0.0, -4517.488720117655, 0.0]
['beep', 0.0, 1341.5293504630747, 0.0, 0.0, 0.0, 0.0, -4457.653100210798, 0.0]
['beep', 0.0, 1351.9452633792478, 0.0, 0.0, 0.0, 0.0, -4416.235317735114, 0.0]
['beep', 0.0, 1283.3030561569997, 0.0, 0.0, 0.0, 0.0, -4451.863998396873, 0.0]
['beep', 0.0, 1237.5937387458966, 0.0, 0.0, 0.0, 0.0, -4509.777368280575, 0.0]
['beep', 0.0, 1272.909494985282, 0.0, 0.0, 0.0, 0.0, -4511.341990392446, 0.0]
['beep', 0.0, 1341.5740539519852, 0.0, 0.0, 0.0, 0.0, -4457.183713577237, 0.0]
['beep', 0.0, 1353.1522575798342, 0.0, 0.0, 0.0, 0.0, -4421.040942793005, 0.0]
['beep', 0.0, 1285.1806026912454, 0.0, 0.0, 0.0, 0.0, -4460.000033378606, 0.0]
['beep', 0.0, 1238.845436435394, 0.0, 0.0, 0.0, 0.0, -4513.264240415602, 0.0]
['beep', 0.0, 1273.6918060412177, 0.0, 0.0, 0.0, 0.0, -4509.8444235139405, 0.0]
['beep', 0.0, 1341.5293504630747, 0.0, 0.0, 0.0, 0.0, -4455.842608909918, 0.0]
['beep', 0.0, 1353.5769407244852, 0.0, 0.0, 0.0, 0.0, -4420.750370115086, 0.0]
['beep', 0.0, 1286.2534864251002, 0.0, 0.0, 0.0, 0.0, -4457.809562421985, 0.0]
['beep', 0.0, 1239.4936370245978, 0.0, 0.0, 0.0, 0.0, -4509.173871180281, 0.0]
['beep', 0.0, 1274.1835444192345, 0.0, 0.0, 0.0, 0.0, -4510.291458403046, 0.0]
['beep', 0.0, 1342.8481033859377, 0.0, 0.0, 0.0, 0.0, -4458.770687433564, 0.0]
['beep', 0.0, 1356.1473913368454, 0.0, 0.0, 0.0, 0.0, -4420.996239304094, 0.0]
['beep', 0.0, 1288.7568818040945, 0.0, 0.0, 0.0, 0.0, -4455.529684487544, 0.0]
['beep', 0.0, 1240.4547620361761, 0.0, 0.0, 0.0, 0.0, -4508.995057224638, 0.0]
['beep', 0.0, 1267.4780210826423, 0.0, 0.0, 0.0, 0.0, -4514.739455549652, 0.0]
['beep', 0.0, 1333.6391846703511, 0.0, 0.0, 0.0, 0.0, -4459.97768163415, 0.0]
['beep', 0.0, 1344.3680220088986, 0.0, 0.0, 0.0, 0.0, -4414.313067711958, 0.0]
['beep', 0.0, 1270.3837478618323, 0.0, 0.0, 0.0, 0.0, -4447.192483805715, 0.0]
['beep', 0.0, 1217.0301338470142, 0.0, 0.0, 0.0, 0.0, -4507.9668769796945, 0.0]
['beep', 0.0, 1250.8930266968046, 0.0, 0.0, 0.0, 0.0, -4512.727798548674, 0.0]
['beep', 0.0, 1317.7694461070832, 0.0, 0.0, 0.0, 0.0, -4458.88244615584, 0.0]
['beep', 0.0, 1332.5886526809518, 0.0, 0.0, 0.0, 0.0, -4421.555032915478, 0.0]
['beep', 0.0, 1266.7851170045278, 0.0, 0.0, 0.0, 0.0, -4449.852341395896, 0.0]
['beep', 0.0, 1218.0583140919584, 0.0, 0.0, 0.0, 0.0, -4504.614115311399, 0.0]
['beep', 0.0, 1251.4965237970978, 0.0, 0.0, 0.0, 0.0, -4511.386693881356, 0.0]
['beep', 0.0, 1319.4681786856866, 0.0, 0.0, 0.0, 0.0, -4460.156495589793, 0.0]
['beep', 0.0, 1333.3709637368875, 0.0, 0.0, 0.0, 0.0, -4417.3305532134245, 0.0]
['beep', 0.0, 1266.718061771162, 0.0, 0.0, 0.0, 0.0, -4447.192483805715, 0.0]
['beep', 0.0, 1217.7677414140394, 0.0, 0.0, 0.0, 0.0, -4505.754054278619, 0.0]
['beep', 0.0, 1250.6024540188855, 0.0, 0.0, 0.0, 0.0, -4512.347818892935, 0.0]
['beep', 0.0, 1318.7529228631167, 0.0, 0.0, 0.0, 0.0, -4464.403327036301, 0.0]
['beep', 0.0, 1333.1474462923345, 0.0, 0.0, 0.0, 0.0, -4425.690105639709, 0.0]
['beep', 0.0, 1266.4721925821534, 0.0, 0.0, 0.0, 0.0, -4451.953405374695, 0.0]
['beep', 0.0, 1217.9018518807711, 0.0, 0.0, 0.0, 0.0, -4507.60924906841, 0.0]
['beep', 0.0, 1249.0601836514693, 0.0, 0.0, 0.0, 0.0, -4515.700580561231, 0.0]
['beep', 0.0, 1318.5964606519296, 0.0, 0.0, 0.0, 0.0, -4461.274082812558, 0.0]
['beep', 0.0, 1334.0191643260914, 0.0, 0.0, 0.0, 0.0, -4414.11190201186, 0.0]
['beep', 0.0, 1269.1096984278797, 0.0, 0.0, 0.0, 0.0, -4447.930091372739, 0.0]
['beep', 0.0, 1218.8406251478941, 0.0, 0.0, 0.0, 0.0, -4507.721007790686, 0.0]
['beep', 0.0, 1249.551922029486, 0.0, 0.0, 0.0, 0.0, -4514.60534508292, 0.0]
['beep', 0.0, 1319.646992641329, 0.0, 0.0, 0.0, 0.0, -4461.989338635128, 0.0]
['beep', 0.0, 1336.7013736607282, 0.0, 0.0, 0.0, 0.0, -4420.146873014793, 0.0]
['beep', 0.0, 1272.3954048628098, 0.0, 0.0, 0.0, 0.0, -4446.812504149974, 0.0]
['beep', 0.0, 1221.0981513378802, 0.0, 0.0, 0.0, 0.0, -4504.74822577813, 0.0]
['beep', 0.0, 1250.8706749523492, 0.0, 0.0, 0.0, 0.0, -4512.07959795947, 0.0]
['beep', 0.0, 1319.9822688081586, 0.0, 0.0, 0.0, 0.0, -4458.681280455742, 0.0]
['beep', 0.0, 1335.3379172489545, 0.0, 0.0, 0.0, 0.0, -4414.87186132334, 0.0]
['beep', 0.0, 1271.3895763623211, 0.0, 0.0, 0.0, 0.0, -4444.2197017931585, 0.0]
['beep', 0.0, 1220.00291585957, 0.0, 0.0, 0.0, 0.0, -4506.93869673475, 0.0]
['beep', 0.0, 1249.8871981963157, 0.0, 0.0, 0.0, 0.0, -4517.0640369730045, 0.0]
['beep', 0.0, 1317.6129838958961, 0.0, 0.0, 0.0, 0.0, -4465.565617747977, 0.0]
['beep', 0.0, 1334.6226614263846, 0.0, 0.0, 0.0, 0.0, -4419.431617192223, 0.0]
['beep', 0.0, 1269.6908437837176, 0.0, 0.0, 0.0, 0.0, -4449.02532685105, 0.0]
['beep', 0.0, 1219.041790847992, 0.0, 0.0, 0.0, 0.0, -4508.2574496576135, 0.0]
['beep', 0.0, 1249.037831907014, 0.0, 0.0, 0.0, 0.0, -4512.70544680422, 0.0]
['beep', 0.0, 1317.5682804069854, 0.0, 0.0, 0.0, 0.0, -4458.904797900295, 0.0]
['beep', 0.0, 1335.5390829490523, 0.0, 0.0, 0.0, 0.0, -4418.738713114109, 0.0]
['beep', 0.0, 1269.9814164616366, 0.0, 0.0, 0.0, 0.0, -4449.315899528969, 0.0]
['beep', 0.0, 1217.879500136316, 0.0, 0.0, 0.0, 0.0, -4505.642295556342, 0.0]
['beep', 0.0, 1247.9872999176146, 0.0, 0.0, 0.0, 0.0, -4512.303115404024, 0.0]
['beep', 0.0, 1315.869547828382, 0.0, 0.0, 0.0, 0.0, -4461.609358979387, 0.0]
['beep', 0.0, 1334.6897166597507, 0.0, 0.0, 0.0, 0.0, -4415.4530066791785, 0.0]
['beep', 0.0, 1270.3390443729215, 0.0, 0.0, 0.0, 0.0, -4440.732829658131, 0.0]
['beep', 0.0, 1217.8571483918606, 0.0, 0.0, 0.0, 0.0, -4505.307019389513, 0.0]
['beep', 0.0, 1246.1321051278242, 0.0, 0.0, 0.0, 0.0, -4512.101949703926, 0.0]
['beep', 0.0, 1315.6013268949184, 0.0, 0.0, 0.0, 0.0, -4457.5413414885215, 0.0]
['beep', 0.0, 1334.488550959653, 0.0, 0.0, 0.0, 0.0, -4415.721227612642, 0.0]
['beep', 0.0, 1270.4955065841089, 0.0, 0.0, 0.0, 0.0, -4445.78432390503, 0.0]
['beep', 0.0, 1220.5393577264974, 0.0, 0.0, 0.0, 0.0, -4502.781272266063, 0.0]
['beep', 0.0, 1249.2166458626564, 0.0, 0.0, 0.0, 0.0, -4509.8444235139405, 0.0]
['beep', 0.0, 1317.7247426181725, 0.0, 0.0, 0.0, 0.0, -4460.782344434541, 0.0]
['beep', 0.0, 1337.260167272111, 0.0, 0.0, 0.0, 0.0, -4417.911698569262, 0.0]
['beep', 0.0, 1273.714157785673, 0.0, 0.0, 0.0, 0.0, -4444.957309360184, 0.0]
['beep', 0.0, 1221.969869371637, 0.0, 0.0, 0.0, 0.0, -4503.675342044276, 0.0]
['beep', 0.0, 1249.3507563293883, 0.0, 0.0, 0.0, 0.0, -4512.839557270951, 0.0]
['beep', 0.0, 1317.970611807181, 0.0, 0.0, 0.0, 0.0, -4462.458725268689, 0.0]
['beep', 0.0, 1338.7353824061613, 0.0, 0.0, 0.0, 0.0, -4422.87378583834, 0.0]
['beep', 0.0, 1276.0163874645696, 0.0, 0.0, 0.0, 0.0, -4448.041850095016, 0.0]
['beep', 0.0, 1224.3391542838997, 0.0, 0.0, 0.0, 0.0, -4500.881373987362, 0.0]
['beep', 0.0, 1252.5023522975866, 0.0, 0.0, 0.0, 0.0, -4510.269106658591, 0.0]
['beep', 0.0, 1321.3457252199323, 0.0, 0.0, 0.0, 0.0, -4461.0058618790945, 0.0]
['beep', 0.0, 1342.0210888410913, 0.0, 0.0, 0.0, 0.0, -4419.185748003215, 0.0]
['beep', 0.0, 1277.1563264317901, 0.0, 0.0, 0.0, 0.0, -4445.02436459355, 0.0]
['beep', 0.0, 1221.7016484381734, 0.0, 0.0, 0.0, 0.0, -4501.864850743395, 0.0]
['beep', 0.0, 1246.5791400169303, 0.0, 0.0, 0.0, 0.0, -4510.93965899225, 0.0]
['beep', 0.0, 1312.516786160086, 0.0, 0.0, 0.0, 0.0, -4462.592835735421, 0.0]
['beep', 0.0, 1336.2990422605328, 0.0, 0.0, 0.0, 0.0, -4417.911698569262, 0.0]
['beep', 0.0, 1275.0552624529914, 0.0, 0.0, 0.0, 0.0, -4442.431562236734, 0.0]
['beep', 0.0, 1219.7346949261064, 0.0, 0.0, 0.0, 0.0, -4501.015484454094, 0.0]
['beep', 0.0, 1246.7579539725727, 0.0, 0.0, 0.0, 0.0, -4511.118472947893, 0.0]
['beep', 0.0, 1315.3778094503652, 0.0, 0.0, 0.0, 0.0, -4462.794001435519, 0.0]
['beep', 0.0, 1338.3106992615103, 0.0, 0.0, 0.0, 0.0, -4415.520061912544, 0.0]
['beep', 0.0, 1274.6752827972512, 0.0, 0.0, 0.0, 0.0, -4439.749352902098, 0.0]
['beep', 0.0, 1220.2711367930337, 0.0, 0.0, 0.0, 0.0, -4500.32258037598, 0.0]
['beep', 0.0, 1246.869712694849, 0.0, 0.0, 0.0, 0.0, -4512.593688081943, 0.0]
['beep', 0.0, 1315.2436989836335, 0.0, 0.0, 0.0, 0.0, -4461.318786301468, 0.0]
['beep', 0.0, 1338.4895132171528, 0.0, 0.0, 0.0, 0.0, -4416.637649135309, 0.0]
['beep', 0.0, 1277.357492131888, 0.0, 0.0, 0.0, 0.0, -4443.370335503857, 0.0]
['beep', 0.0, 1221.7687036715392, 0.0, 0.0, 0.0, 0.0, -4498.2215163971805, 0.0]
['beep', 0.0, 1246.556788272475, 0.0, 0.0, 0.0, 0.0, -4506.737531034652, 0.0]
['beep', 0.0, 1314.7072571167062, 0.0, 0.0, 0.0, 0.0, -4458.636576966832, 0.0]
['beep', 0.0, 1338.6683271727952, 0.0, 0.0, 0.0, 0.0, -4416.123559012837, 0.0]
['beep', 0.0, 1276.1504979313015, 0.0, 0.0, 0.0, 0.0, -4441.291623269513, 0.0]
['beep', 0.0, 1220.651116448774, 0.0, 0.0, 0.0, 0.0, -4497.79683325253, 0.0]
['beep', 0.0, 1246.6685469947515, 0.0, 0.0, 0.0, 0.0, -4507.944525235239, 0.0]
['beep', 0.0, 1314.7296088611615, 0.0, 0.0, 0.0, 0.0, -4459.642405467321, 0.0]
['beep', 0.0, 1339.5400452065523, 0.0, 0.0, 0.0, 0.0, -4414.558936900966, 0.0]
['beep', 0.0, 1275.4799455976422, 0.0, 0.0, 0.0, 0.0, -4435.815445877963, 0.0]
['beep', 0.0, 1222.1710350717349, 0.0, 0.0, 0.0, 0.0, -4494.242905884136, 0.0]
['beep', 0.0, 1251.8317999639273, 0.0, 0.0, 0.0, 0.0, -4508.503318846621, 0.0]
['beep', 0.0, 1318.6188123963848, 0.0, 0.0, 0.0, 0.0, -4461.654062468298, 0.0]
['beep', 0.0, 1343.74217316415, 0.0, 0.0, 0.0, 0.0, -4412.323762455436, 0.0]
['beep', 0.0, 1287.616942836874, 0.0, 0.0, 0.0, 0.0, -4433.580271432433, 0.0]
['beep', 0.0, 1233.8162939329497, 0.0, 0.0, 0.0, 0.0, -4493.482946572655, 0.0]
['beep', 0.0, 1255.5868930324189, 0.0, 0.0, 0.0, 0.0, -4509.240926413647, 0.0]
['beep', 0.0, 1322.8432920984378, 0.0, 0.0, 0.0, 0.0, -4461.542303746021, 0.0]
['beep', 0.0, 1348.8160191555046, 0.0, 0.0, 0.0, 0.0, -4411.16147174376, 0.0]
['beep', 0.0, 1287.1475562033124, 0.0, 0.0, 0.0, 0.0, -4432.239166765114, 0.0]
['beep', 0.0, 1229.971793886637, 0.0, 0.0, 0.0, 0.0, -4489.973722693172, 0.0]
['beep', 0.0, 1253.910512198271, 0.0, 0.0, 0.0, 0.0, -4501.887202487851, 0.0]
['beep', 0.0, 1320.742228119639, 0.0, 0.0, 0.0, 0.0, -4457.094306599415, 0.0]
['beep', 0.0, 1346.6031964544293, 0.0, 0.0, 0.0, 0.0, -4410.9379542992065, 0.0]
['beep', 0.0, 1286.6558178252958, 0.0, 0.0, 0.0, 0.0, -4434.049658065994, 0.0]
['beep', 0.0, 1230.4411805201985, 0.0, 0.0, 0.0, 0.0, -4493.818222739485, 0.0]
['beep', 0.0, 1253.1282011423352, 0.0, 0.0, 0.0, 0.0, -4508.212746168702, 0.0]
['beep', 0.0, 1321.904518831315, 0.0, 0.0, 0.0, 0.0, -4458.12248684436, 0.0]
['beep', 0.0, 1347.8995976328372, 0.0, 0.0, 0.0, 0.0, -4410.222698476637, 0.0]
['beep', 0.0, 1287.7287015591505, 0.0, 0.0, 0.0, 0.0, -4434.831969121929, 0.0]
['beep', 0.0, 1230.9329188982153, 0.0, 0.0, 0.0, 0.0, -4491.672455271775, 0.0]
['beep', 0.0, 1253.2846633535223, 0.0, 0.0, 0.0, 0.0, -4501.954257721217, 0.0]
['beep', 0.0, 1322.3068502315105, 0.0, 0.0, 0.0, 0.0, -4457.273120555058, 0.0]
['beep', 0.0, 1348.1231150773901, 0.0, 0.0, 0.0, 0.0, -4413.262535722558, 0.0]
['beep', 0.0, 1288.712178315184, 0.0, 0.0, 0.0, 0.0, -4435.614280177865, 0.0]
['beep', 0.0, 1231.7599334430615, 0.0, 0.0, 0.0, 0.0, -4496.947466963228, 0.0]
['beep', 0.0, 1254.9163406987598, 0.0, 0.0, 0.0, 0.0, -4505.642295556342, 0.0]
['beep', 0.0, 1322.195091509234, 0.0, 0.0, 0.0, 0.0, -4453.875655397851, 0.0]
['beep', 0.0, 1350.5594552230186, 0.0, 0.0, 0.0, 0.0, -4407.786358331008, 0.0]
['beep', 0.0, 1292.0649399834801, 0.0, 0.0, 0.0, 0.0, -4432.038001065016, 0.0]
['beep', 0.0, 1233.525721255031, 0.0, 0.0, 0.0, 0.0, -4491.717158760686, 0.0]
['beep', 0.0, 1254.5587127874749, 0.0, 0.0, 0.0, 0.0, -4503.787100766552, 0.0]
['beep', 0.0, 1322.8432920984378, 0.0, 0.0, 0.0, 0.0, -4456.244940310114, 0.0]
['beep', 0.0, 1350.8947313898482, 0.0, 0.0, 0.0, 0.0, -4407.741654842098, 0.0]
['beep', 0.0, 1292.9590097616924, 0.0, 0.0, 0.0, 0.0, -4432.060352809472, 0.0]
['beep', 0.0, 1235.5597300004638, 0.0, 0.0, 0.0, 0.0, -4497.014522196594, 0.0]
['beep', 0.0, 1254.6704715097515, 0.0, 0.0, 0.0, 0.0, -4508.615077568898, 0.0]
['beep', 0.0, 1322.2397949981446, 0.0, 0.0, 0.0, 0.0, -4458.88244615584, 0.0]
['beep', 0.0, 1352.2134843127114, 0.0, 0.0, 0.0, 0.0, -4408.769835087041, 0.0]
['beep', 0.0, 1293.9648382621813, 0.0, 0.0, 0.0, 0.0, -4426.293602740002, 0.0]
['beep', 0.0, 1234.5762532444303, 0.0, 0.0, 0.0, 0.0, -4489.437280826245, 0.0]
['beep', 0.0, 1254.134029642824, 0.0, 0.0, 0.0, 0.0, -4508.279801402068, 0.0]
['beep', 0.0, 1321.9268705757704, 0.0, 0.0, 0.0, 0.0, -4462.570483990966, 0.0]
['beep', 0.0, 1351.8111529125158, 0.0, 0.0, 0.0, 0.0, -4411.429692677223, 0.0]
['beep', 0.0, 1294.3448179179213, 0.0, 0.0, 0.0, 0.0, -4427.142969029304, 0.0]
['beep', 0.0, 1235.9620614006594, 0.0, 0.0, 0.0, 0.0, -4488.051472670016, 0.0]
['beep', 0.0, 1256.1456866438016, 0.0, 0.0, 0.0, 0.0, -4505.016446711594, 0.0]
['beep', 0.0, 1324.1173415323904, 0.0, 0.0, 0.0, 0.0, -4459.016556622571, 0.0]
['beep', 0.0, 1352.9287401352813, 0.0, 0.0, 0.0, 0.0, -4408.702779853676, 0.0]
['beep', 0.0, 1295.3059429294997, 0.0, 0.0, 0.0, 0.0, -4428.64053590781, 0.0]
['beep', 0.0, 1235.9173579117487, 0.0, 0.0, 0.0, 0.0, -4489.549039548521, 0.0]
['beep', 0.0, 1255.9221691992486, 0.0, 0.0, 0.0, 0.0, -4501.931905976761, 0.0]
['beep', 0.0, 1322.485664187153, 0.0, 0.0, 0.0, 0.0, -4455.529684487544, 0.0]
['beep', 0.0, 1354.515713991608, 0.0, 0.0, 0.0, 0.0, -4405.327666440924, 0.0]
['beep', 0.0, 1296.5129371300861, 0.0, 0.0, 0.0, 0.0, -4423.186710260715, 0.0]
['beep', 0.0, 1235.0679916224472, 0.0, 0.0, 0.0, 0.0, -4483.916399945784, 0.0]
['beep', 0.0, 1253.418773820254, 0.0, 0.0, 0.0, 0.0, -4504.882336244862, 0.0]
['beep', 0.0, 1322.5303676760636, 0.0, 0.0, 0.0, 0.0, -4455.954367632195, 0.0]
['beep', 0.0, 1352.906388390826, 0.0, 0.0, 0.0, 0.0, -4403.405416417768, 0.0]
['beep', 0.0, 1295.9541435187034, 0.0, 0.0, 0.0, 0.0, -4422.15853001577, 0.0]
['beep', 0.0, 1235.7385439561062, 0.0, 0.0, 0.0, 0.0, -4484.788117979541, 0.0]
['beep', 0.0, 1252.4129453197654, 0.0, 0.0, 0.0, 0.0, -4506.357551378912, 0.0]
['beep', 0.0, 1320.0493240415244, 0.0, 0.0, 0.0, 0.0, -4457.921321144262, 0.0]
['beep', 0.0, 1352.1464290793454, 0.0, 0.0, 0.0, 0.0, -4404.567707129444, 0.0]
['beep', 0.0, 1296.0211987520695, 0.0, 0.0, 0.0, 0.0, -4423.9690213166505, 0.0]
['beep', 0.0, 1233.3469072993885, 0.0, 0.0, 0.0, 0.0, -4485.324559846468, 0.0]
['beep', 0.0, 1251.742392986106, 0.0, 0.0, 0.0, 0.0, -4499.1602896643035, 0.0]
['beep', 0.0, 1320.2281379971669, 0.0, 0.0, 0.0, 0.0, -4453.830951908941, 0.0]
['beep', 0.0, 1353.3087197910213, 0.0, 0.0, 0.0, 0.0, -4402.019608261538, 0.0]
['beep', 0.0, 1299.4186639092761, 0.0, 0.0, 0.0, 0.0, -4419.766893359053, 0.0]
['beep', 0.0, 1238.2195875906455, 0.0, 0.0, 0.0, 0.0, -4478.88725744334, 0.0]
['beep', 0.0, 1249.5072185405754, 0.0, 0.0, 0.0, 0.0, -4497.640371041342, 0.0]
['beep', 0.0, 1312.9861727936475, 0.0, 0.0, 0.0, 0.0, -4453.853303653396, 0.0]
['beep', 0.0, 1343.4292487417756, 0.0, 0.0, 0.0, 0.0, -4403.584230373411, 0.0]
['beep', 0.0, 1284.644160824318, 0.0, 0.0, 0.0, 0.0, -4421.353867215379, 0.0]
['beep', 0.0, 1220.651116448774, 0.0, 0.0, 0.0, 0.0, -4485.101042401915, 0.0]
['beep', 0.0, 1238.4878085241091, 0.0, 0.0, 0.0, 0.0, -4501.574278065476, 0.0]
['beep', 0.0, 1304.8948413008263, 0.0, 0.0, 0.0, 0.0, -4457.3625275328795, 0.0]
['beep', 0.0, 1339.1153620619014, 0.0, 0.0, 0.0, 0.0, -4407.518137397545, 0.0]
['beep', 0.0, 1285.0911957134242, 0.0, 0.0, 0.0, 0.0, -4421.599736404388, 0.0]
['beep', 0.0, 1221.9475176271817, 0.0, 0.0, 0.0, 0.0, -4480.608341766399, 0.0]
['beep', 0.0, 1238.398401546288, 0.0, 0.0, 0.0, 0.0, -4500.054359442515, 0.0]
['beep', 0.0, 1305.2971727010217, 0.0, 0.0, 0.0, 0.0, -4458.211893822181, 0.0]
['beep', 0.0, 1338.3330510059657, 0.0, 0.0, 0.0, 0.0, -4407.272268208536, 0.0]
['beep', 0.0, 1283.4595183681868, 0.0, 0.0, 0.0, 0.0, -4422.672620138243, 0.0]
['beep', 0.0, 1221.81340716045, 0.0, 0.0, 0.0, 0.0, -4481.055376655505, 0.0]
['beep', 0.0, 1235.5820817449192, 0.0, 0.0, 0.0, 0.0, -4501.0378361985495, 0.0]
['beep', 0.0, 1303.1290534888572, 0.0, 0.0, 0.0, 0.0, -4457.5413414885215, 0.0]
['beep', 0.0, 1338.5565684505189, 0.0, 0.0, 0.0, 0.0, -4403.271305951036, 0.0]
['beep', 0.0, 1284.6665125687734, 0.0, 0.0, 0.0, 0.0, -4414.380122945324, 0.0]
['beep', 0.0, 1221.5004827380756, 0.0, 0.0, 0.0, 0.0, -4476.585027764443, 0.0]
['beep', 0.0, 1237.5713870014415, 0.0, 0.0, 0.0, 0.0, -4499.808490253507, 0.0]
['beep', 0.0, 1305.2524692121112, 0.0, 0.0, 0.0, 0.0, -4458.748335689108, 0.0]
['beep', 0.0, 1338.7800858950718, 0.0, 0.0, 0.0, 0.0, -4406.624067619332, 0.0]
['beep', 0.0, 1284.5771055909522, 0.0, 0.0, 0.0, 0.0, -4416.3917799463015, 0.0]
['beep', 0.0, 1222.5510147274751, 0.0, 0.0, 0.0, 0.0, -4476.875600442362, 0.0]
['beep', 0.0, 1237.0125933900588, 0.0, 0.0, 0.0, 0.0, -4497.5733158079765, 0.0]
['beep', 0.0, 1304.6936756007285, 0.0, 0.0, 0.0, 0.0, -4455.753201932097, 0.0]
['beep', 0.0, 1338.4895132171528, 0.0, 0.0, 0.0, 0.0, -4404.143023984793, 0.0]
['beep', 0.0, 1284.8900300133264, 0.0, 0.0, 0.0, 0.0, -4417.531718913522, 0.0]
['beep', 0.0, 1222.6627734497517, 0.0, 0.0, 0.0, 0.0, -4478.417870809779, 0.0]
['beep', 0.0, 1236.3643928008548, 0.0, 0.0, 0.0, 0.0, -4501.239001898647, 0.0]
['beep', 0.0, 1302.8608325553935, 0.0, 0.0, 0.0, 0.0, -4455.507332743088, 0.0]
['beep', 0.0, 1337.9530713502254, 0.0, 0.0, 0.0, 0.0, -4402.220773961637, 0.0]
['beep', 0.0, 1286.097024213913, 0.0, 0.0, 0.0, 0.0, -4414.178957245226, 0.0]
['beep', 0.0, 1221.7687036715392, 0.0, 0.0, 0.0, 0.0, -4472.964045162684, 0.0]
['beep', 0.0, 1234.8891776668047, 0.0, 0.0, 0.0, 0.0, -4494.600533795421, 0.0]
['beep', 0.0, 1302.5032046441086, 0.0, 0.0, 0.0, 0.0, -4450.3217280294575, 0.0]
['beep', 0.0, 1338.4448097282423, 0.0, 0.0, 0.0, 0.0, -4399.091529737893, 0.0]
['beep', 0.0, 1286.0523207250026, 0.0, 0.0, 0.0, 0.0, -4413.083721766916, 0.0]
['beep', 0.0, 1221.5898897158968, 0.0, 0.0, 0.0, 0.0, -4476.0932893864265, 0.0]
['beep', 0.0, 1235.8279509339275, 0.0, 0.0, 0.0, 0.0, -4500.657856542809, 0.0]
['beep', 0.0, 1301.7879488215387, 0.0, 0.0, 0.0, 0.0, -4455.350870531902, 0.0]
['beep', 0.0, 1337.5060364611193, 0.0, 0.0, 0.0, 0.0, -4401.751387328075, 0.0]
['beep', 0.0, 1288.8462887819157, 0.0, 0.0, 0.0, 0.0, -4415.497710168089, 0.0]
['beep', 0.0, 1224.227395561623, 0.0, 0.0, 0.0, 0.0, -4478.104946387404, 0.0]
['beep', 0.0, 1235.8279509339275, 0.0, 0.0, 0.0, 0.0, -4498.2215163971805, 0.0]
['beep', 0.0, 1302.3020389440107, 0.0, 0.0, 0.0, 0.0, -4453.898007142307, 0.0]
['beep', 0.0, 1339.4953417176416, 0.0, 0.0, 0.0, 0.0, -4403.20425071767, 0.0]
['beep', 0.0, 1289.0921579709243, 0.0, 0.0, 0.0, 0.0, -4414.983620045617, 0.0]
['beep', 0.0, 1224.2720990505338, 0.0, 0.0, 0.0, 0.0, -4475.310978330491, 0.0]
['beep', 0.0, 1236.1408753563019, 0.0, 0.0, 0.0, 0.0, -4496.321618118479, 0.0]
['beep', 0.0, 1302.682018599751, 0.0, 0.0, 0.0, 0.0, -4456.64727171031, 0.0]
['beep', 0.0, 1339.808266140016, 0.0, 0.0, 0.0, 0.0, -4405.327666440924, 0.0]
['beep', 0.0, 1289.2709719265667, 0.0, 0.0, 0.0, 0.0, -4413.597811889388, 0.0]
['beep', 0.0, 1222.752180427573, 0.0, 0.0, 0.0, 0.0, -4470.192428850225, 0.0]
['beep', 0.0, 1231.424657276232, 0.0, 0.0, 0.0, 0.0, -4492.611228538898, 0.0]
['beep', 0.0, 1304.514861645086, 0.0, 0.0, 0.0, 0.0, -4450.724059429653, 0.0]
['beep', 0.0, 1347.5419697215523, 0.0, 0.0, 0.0, 0.0, -4396.543430869989, 0.0]
['beep', 0.0, 1298.7257598311617, 0.0, 0.0, 0.0, 0.0, -4409.909774054262, 0.0]
['beep', 0.0, 1237.0796486234246, 0.0, 0.0, 0.0, 0.0, -4472.226437595658, 0.0]
['beep', 0.0, 1251.451820308187, 0.0, 0.0, 0.0, 0.0, -4496.522783818577, 0.0]
['beep', 0.0, 1320.5634141639966, 0.0, 0.0, 0.0, 0.0, -4452.825123408452, 0.0]
['beep', 0.0, 1360.9083129058258, 0.0, 0.0, 0.0, 0.0, -4395.336436669402, 0.0]
['beep', 0.0, 1312.8297105824604, 0.0, 0.0, 0.0, 0.0, -4400.879669294318, 0.0]
['beep', 0.0, 1247.3390993284106, 0.0, 0.0, 0.0, 0.0, -4461.899931657306, 0.0]
['beep', 0.0, 1256.100983154891, 0.0, 0.0, 0.0, 0.0, -4484.184620879248, 0.0]
['beep', 0.0, 1323.3126787319993, 0.0, 0.0, 0.0, 0.0, -4444.242053537614, 0.0]
['beep', 0.0, 1361.9141414063147, 0.0, 0.0, 0.0, 0.0, -4391.938971512195, 0.0]
['beep', 0.0, 1310.8851088148485, 0.0, 0.0, 0.0, 0.0, -4400.700855338676, 0.0]
['beep', 0.0, 1245.3721458163436, 0.0, 0.0, 0.0, 0.0, -4461.117620601371, 0.0]
['beep', 0.0, 1255.2069133766788, 0.0, 0.0, 0.0, 0.0, -4487.693844758731, 0.0]
['beep', 0.0, 1321.5692426644855, 0.0, 0.0, 0.0, 0.0, -4448.9135681287735, 0.0]
['beep', 0.0, 1360.6847954612726, 0.0, 0.0, 0.0, 0.0, -4393.2130209461475, 0.0]
['beep', 0.0, 1312.7850070935497, 0.0, 0.0, 0.0, 0.0, -4402.377236172823, 0.0]
['beep', 0.0, 1247.3838028173213, 0.0, 0.0, 0.0, 0.0, -4461.989338635128, 0.0]
['beep', 0.0, 1254.6257680208407, 0.0, 0.0, 0.0, 0.0, -4486.263333113591, 0.0]
['beep', 0.0, 1320.8763385863708, 0.0, 0.0, 0.0, 0.0, -4446.141951816315, 0.0]
['beep', 0.0, 1360.8189059280046, 0.0, 0.0, 0.0, 0.0, -4394.77764305802, 0.0]
['beep', 0.0, 1312.0921030154352, 0.0, 0.0, 0.0, 0.0, -4398.912715782251, 0.0]
['beep', 0.0, 1246.6685469947515, 0.0, 0.0, 0.0, 0.0, -4453.652137953298, 0.0]
['beep', 0.0, 1253.9999191760921, 0.0, 0.0, 0.0, 0.0, -4481.234190611147, 0.0]
['beep', 0.0, 1318.9764403076697, 0.0, 0.0, 0.0, 0.0, -4445.314937271469, 0.0]
['beep', 0.0, 1360.7294989501834, 0.0, 0.0, 0.0, 0.0, -4391.983675001106, 0.0]
['beep', 0.0, 1312.9414693047368, 0.0, 0.0, 0.0, 0.0, -4397.504555881566, 0.0]
['beep', 0.0, 1247.361451072866, 0.0, 0.0, 0.0, 0.0, -4455.26146355408, 0.0]
['beep', 0.0, 1256.6597767662736, 0.0, 0.0, 0.0, 0.0, -4481.949446433717, 0.0]
['beep', 0.0, 1321.1892630087452, 0.0, 0.0, 0.0, 0.0, -4445.851379138396, 0.0]
['beep', 0.0, 1364.1493158518454, 0.0, 0.0, 0.0, 0.0, -4391.9166197677405, 0.0]
['beep', 0.0, 1318.4399984407423, 0.0, 0.0, 0.0, 0.0, -4400.767910572042, 0.0]
['beep', 0.0, 1251.7647447305615, 0.0, 0.0, 0.0, 0.0, -4461.0058618790945, 0.0]
['beep', 0.0, 1259.4984483120977, 0.0, 0.0, 0.0, 0.0, -4485.570429035477, 0.0]
['beep', 0.0, 1325.324335732977, 0.0, 0.0, 0.0, 0.0, -4445.806675649485, 0.0]
['beep', 0.0, 1366.1386211083677, 0.0, 0.0, 0.0, 0.0, -4391.58134360091, 0.0]
['beep', 0.0, 1316.6518588843178, 0.0, 0.0, 0.0, 0.0, -4399.516212882544, 0.0]
['beep', 0.0, 1247.0485266504916, 0.0, 0.0, 0.0, 0.0, -4457.2507688106025, 0.0]
['beep', 0.0, 1251.7870964750168, 0.0, 0.0, 0.0, 0.0, -4483.067033656483, 0.0]
['beep', 0.0, 1316.6071553954073, 0.0, 0.0, 0.0, 0.0, -4447.3265942724465, 0.0]
['beep', 0.0, 1358.6507867158398, 0.0, 0.0, 0.0, 0.0, -4389.234410433103, 0.0]
['beep', 0.0, 1313.1426350048346, 0.0, 0.0, 0.0, 0.0, -4393.369483157335, 0.0]
['beep', 0.0, 1247.0485266504916, 0.0, 0.0, 0.0, 0.0, -4453.495675742111, 0.0]
['beep', 0.0, 1253.9775674316368, 0.0, 0.0, 0.0, 0.0, -4483.290551101035, 0.0]
['beep', 0.0, 1318.708219374206, 0.0, 0.0, 0.0, 0.0, -4446.588986705421, 0.0]
['beep', 0.0, 1361.9811966396805, 0.0, 0.0, 0.0, 0.0, -4391.134308711804, 0.0]
['beep', 0.0, 1315.9589548062033, 0.0, 0.0, 0.0, 0.0, -4392.833041290408, 0.0]
['beep', 0.0, 1249.9989569185923, 0.0, 0.0, 0.0, 0.0, -4449.584120462432, 0.0]
['beep', 0.0, 1254.1787331317346, 0.0, 0.0, 0.0, 0.0, -4479.401347565812, 0.0]
['beep', 0.0, 1318.3058879740106, 0.0, 0.0, 0.0, 0.0, -4445.717268671664, 0.0]
['beep', 0.0, 1361.645920472851, 0.0, 0.0, 0.0, 0.0, -4391.871916278829, 0.0]
['beep', 0.0, 1317.0765420289686, 0.0, 0.0, 0.0, 0.0, -4394.732939569109, 0.0]
['beep', 0.0, 1249.8201429629496, 0.0, 0.0, 0.0, 0.0, -4451.819294907963, 0.0]
['beep', 0.0, 1254.8939889543044, 0.0, 0.0, 0.0, 0.0, -4477.814373709485, 0.0]
['beep', 0.0, 1318.551757163019, 0.0, 0.0, 0.0, 0.0, -4444.0408878375165, 0.0]
['beep', 0.0, 1362.6517489733399, 0.0, 0.0, 0.0, 0.0, -4389.1002999663715, 0.0]
['beep', 0.0, 1318.3729432073765, 0.0, 0.0, 0.0, 0.0, -4390.128480211315, 0.0]
['beep', 0.0, 1251.9212069417486, 0.0, 0.0, 0.0, 0.0, -4449.897044884807, 0.0]
['beep', 0.0, 1255.7657069880613, 0.0, 0.0, 0.0, 0.0, -4481.167135377781, 0.0]
['beep', 0.0, 1314.1484635053234, 0.0, 0.0, 0.0, 0.0, -4447.192483805715, 0.0]
['beep', 0.0, 1354.1357343358677, 0.0, 0.0, 0.0, 0.0, -4388.742672055087, 0.0]
['beep', 0.0, 1308.1581959913012, 0.0, 0.0, 0.0, 0.0, -4389.524983111022, 0.0]
['beep', 0.0, 1235.2468055780896, 0.0, 0.0, 0.0, 0.0, -4448.600643706399, 0.0]
['beep', 0.0, 1234.486846266609, 0.0, 0.0, 0.0, 0.0, -4478.864905698884, 0.0]
['beep', 0.0, 1296.7588063190944, 0.0, 0.0, 0.0, 0.0, -4445.672565182754, 0.0]
['beep', 0.0, 1342.0210888410913, 0.0, 0.0, 0.0, 0.0, -4392.989503501595, 0.0]
['beep', 0.0, 1298.032855753047, 0.0, 0.0, 0.0, 0.0, -4395.157622713759, 0.0]
['beep', 0.0, 1229.7035729531733, 0.0, 0.0, 0.0, 0.0, -4454.389745520323, 0.0]
['beep', 0.0, 1233.168093343746, 0.0, 0.0, 0.0, 0.0, -4485.145745890826, 0.0]
['beep', 0.0, 1297.0940824859242, 0.0, 0.0, 0.0, 0.0, -4449.606472206888, 0.0]
['beep', 0.0, 1342.132847563368, 0.0, 0.0, 0.0, 0.0, -4391.961323256651, 0.0]
['beep', 0.0, 1301.5644313769856, 0.0, 0.0, 0.0, 0.0, -4391.536640112, 0.0]
['beep', 0.0, 1231.4693607651427, 0.0, 0.0, 0.0, 0.0, -4451.796943163507, 0.0]
['beep', 0.0, 1233.1457415992907, 0.0, 0.0, 0.0, 0.0, -4483.581123778954, 0.0]
['beep', 0.0, 1297.5634691194855, 0.0, 0.0, 0.0, 0.0, -4443.035059337028, 0.0]
['beep', 0.0, 1342.6245859413846, 0.0, 0.0, 0.0, 0.0, -4386.999235987572, 0.0]
['beep', 0.0, 1300.5138993875862, 0.0, 0.0, 0.0, 0.0, -4389.457927877656, 0.0]
['beep', 0.0, 1230.3741252868326, 0.0, 0.0, 0.0, 0.0, -4447.237187294625, 0.0]
['beep', 0.0, 1232.229320076623, 0.0, 0.0, 0.0, 0.0, -4480.094251643926, 0.0]
['beep', 0.0, 1296.9152685302818, 0.0, 0.0, 0.0, 0.0, -4449.315899528969, 0.0]
['beep', 0.0, 1342.9598621082143, 0.0, 0.0, 0.0, 0.0, -4395.559954113955, 0.0]
['beep', 0.0, 1300.133919731846, 0.0, 0.0, 0.0, 0.0, -4395.224677947125, 0.0]
['beep', 0.0, 1231.7375816986064, 0.0, 0.0, 0.0, 0.0, -4448.9135681287735, 0.0]
['beep', 0.0, 1233.1904450882012, 0.0, 0.0, 0.0, 0.0, -4478.753146976608, 0.0]
['beep', 0.0, 1296.8929167858264, 0.0, 0.0, 0.0, 0.0, -4445.694916927208, 0.0]
['beep', 0.0, 1342.7139929192058, 0.0, 0.0, 0.0, 0.0, -4392.028378490017, 0.0]
['beep', 0.0, 1301.4973761436197, 0.0, 0.0, 0.0, 0.0, -4393.369483157335, 0.0]
['beep', 0.0, 1232.877520665827, 0.0, 0.0, 0.0, 0.0, -4449.897044884807, 0.0]
['beep', 0.0, 1231.3352502984108, 0.0, 0.0, 0.0, 0.0, -4480.74245223313, 0.0]
['beep', 0.0, 1293.7189690731727, 0.0, 0.0, 0.0, 0.0, -4449.829989651441, 0.0]
['beep', 0.0, 1341.3058330185215, 0.0, 0.0, 0.0, 0.0, -4394.554125613467, 0.0]
['beep', 0.0, 1301.1173964878794, 0.0, 0.0, 0.0, 0.0, -4390.2178871891365, 0.0]
['beep', 0.0, 1231.6481747207852, 0.0, 0.0, 0.0, 0.0, -4445.113771571371, 0.0]
['beep', 0.0, 1231.0446776204917, 0.0, 0.0, 0.0, 0.0, -4478.93196093225, 0.0]
['beep', 0.0, 1293.6966173287176, 0.0, 0.0, 0.0, 0.0, -4444.465570982167, 0.0]
['beep', 0.0, 1340.5235219625858, 0.0, 0.0, 0.0, 0.0, -4388.921486010729, 0.0]
['beep', 0.0, 1301.586783121441, 0.0, 0.0, 0.0, 0.0, -4388.139174954793, 0.0]
['beep', 0.0, 1231.201139831679, 0.0, 0.0, 0.0, 0.0, -4445.940786116217, 0.0]
['beep', 0.0, 1229.7035729531733, 0.0, 0.0, 0.0, 0.0, -4480.295417344024, 0.0]
['beep', 0.0, 1293.0707684839688, 0.0, 0.0, 0.0, 0.0, -4447.795980906008, 0.0]
['beep', 0.0, 1339.517693462097, 0.0, 0.0, 0.0, 0.0, -4388.854430777363, 0.0]
['beep', 0.0, 1299.8880505428376, 0.0, 0.0, 0.0, 0.0, -4386.529849354011, 0.0]
['beep', 0.0, 1230.1506078422794, 0.0, 0.0, 0.0, 0.0, -4442.230396536636, 0.0]
['beep', 0.0, 1228.9883171306035, 0.0, 0.0, 0.0, 0.0, -4474.595722507921, 0.0]
['beep', 0.0, 1292.0649399834801, 0.0, 0.0, 0.0, 0.0, -4444.845550637907, 0.0]
['beep', 0.0, 1338.4001062393315, 0.0, 0.0, 0.0, 0.0, -4388.541506354989, 0.0]
['beep', 0.0, 1300.2456784541225, 0.0, 0.0, 0.0, 0.0, -4384.562895841944, 0.0]
['beep', 0.0, 1230.1953113311902, 0.0, 0.0, 0.0, 0.0, -4443.236225037125, 0.0]
['beep', 0.0, 1227.848378163383, 0.0, 0.0, 0.0, 0.0, -4479.401347565812, 0.0]
['beep', 0.0, 1291.5284981165528, 0.0, 0.0, 0.0, 0.0, -4448.019498350561, 0.0]
['beep', 0.0, 1341.7081644187172, 0.0, 0.0, 0.0, 0.0, -4387.066291220938, 0.0]
['beep', 0.0, 1302.8608325553935, 0.0, 0.0, 0.0, 0.0, -4384.942875497684, 0.0]
['beep', 0.0, 1233.1233898548353, 0.0, 0.0, 0.0, 0.0, -4445.359640760379, 0.0]
['beep', 0.0, 1230.262366564556, 0.0, 0.0, 0.0, 0.0, -4474.908646930296, 0.0]
['beep', 0.0, 1292.0649399834801, 0.0, 0.0, 0.0, 0.0, -4440.643422680309, 0.0]
['beep', 0.0, 1342.0881440744572, 0.0, 0.0, 0.0, 0.0, -4383.445308619179, 0.0]
['beep', 0.0, 1304.358399433899, 0.0, 0.0, 0.0, 0.0, -4381.679520807209, 0.0]
['beep', 0.0, 1232.72105845464, 0.0, 0.0, 0.0, 0.0, -4441.1128093138705, 0.0]
['beep', 0.0, 1229.9941456310924, 0.0, 0.0, 0.0, 0.0, -4477.590856264932, 0.0]
['beep', 0.0, 1291.1708702052679, 0.0, 0.0, 0.0, 0.0, -4444.085591326427, 0.0]
['beep', 0.0, 1340.0094318401136, 0.0, 0.0, 0.0, 0.0, -4385.00993073105, 0.0]
['beep', 0.0, 1303.5313848890526, 0.0, 0.0, 0.0, 0.0, -4381.590113829388, 0.0]
['beep', 0.0, 1232.6763549657292, 0.0, 0.0, 0.0, 0.0, -4440.196387791203, 0.0]
['beep', 0.0, 1228.8542066638718, 0.0, 0.0, 0.0, 0.0, -4476.070937641971, 0.0]
['beep', 0.0, 1291.4614428831867, 0.0, 0.0, 0.0, 0.0, -4446.454876238689, 0.0]
['beep', 0.0, 1339.160065550812, 0.0, 0.0, 0.0, 0.0, -4387.736843554598, 0.0]
['beep', 0.0, 1304.514861645086, 0.0, 0.0, 0.0, 0.0, -4381.076023706916, 0.0]
['beep', 0.0, 1233.7268869551285, 0.0, 0.0, 0.0, 0.0, -4433.937899343718, 0.0]
['beep', 0.0, 1230.105904353369, 0.0, 0.0, 0.0, 0.0, -4467.353757304401, 0.0]
['beep', 0.0, 1292.131995216846, 0.0, 0.0, 0.0, 0.0, -4437.245957523102, 0.0]
['beep', 0.0, 1341.6634609298064, 0.0, 0.0, 0.0, 0.0, -4383.735881297098, 0.0]
['beep', 0.0, 1307.4429401687314, 0.0, 0.0, 0.0, 0.0, -4382.975921985617, 0.0]
['beep', 0.0, 1235.4032677892767, 0.0, 0.0, 0.0, 0.0, -4440.196387791203, 0.0]
['beep', 0.0, 1228.809503174961, 0.0, 0.0, 0.0, 0.0, -4475.132164374848, 0.0]
['beep', 0.0, 1292.0649399834801, 0.0, 0.0, 0.0, 0.0, -4439.8164081354635, 0.0]
['beep', 0.0, 1348.4583912442197, 0.0, 0.0, 0.0, 0.0, -4382.260666163047, 0.0]
['beep', 0.0, 1314.7072571167062, 0.0, 0.0, 0.0, 0.0, -4376.337453882391, 0.0]
['beep', 0.0, 1244.5227795270418, 0.0, 0.0, 0.0, 0.0, -4432.328573742935, 0.0]
['beep', 0.0, 1238.9795469021258, 0.0, 0.0, 0.0, 0.0, -4471.287664328535, 0.0]
['beep', 0.0, 1299.7092365871952, 0.0, 0.0, 0.0, 0.0, -4441.761009903074, 0.0]
['beep', 0.0, 1351.1853040677672, 0.0, 0.0, 0.0, 0.0, -4381.523058596023, 0.0]
['beep', 0.0, 1316.1154170173904, 0.0, 0.0, 0.0, 0.0, -4374.124631181316, 0.0]
['beep', 0.0, 1245.0145179050587, 0.0, 0.0, 0.0, 0.0, -4433.513216199067, 0.0]
['beep', 0.0, 1238.711325968662, 0.0, 0.0, 0.0, 0.0, -4469.1642486052815, 0.0]
['beep', 0.0, 1300.3797889208543, 0.0, 0.0, 0.0, 0.0, -4438.810579634975, 0.0]
['beep', 0.0, 1349.8889028893595, 0.0, 0.0, 0.0, 0.0, -4378.952607983662, 0.0]
['beep', 0.0, 1315.869547828382, 0.0, 0.0, 0.0, 0.0, -4372.0235672025165, 0.0]
['beep', 0.0, 1244.6792417382292, 0.0, 0.0, 0.0, 0.0, -4433.624974921343, 0.0]
['beep', 0.0, 1237.0125933900588, 0.0, 0.0, 0.0, 0.0, -4470.013614894583, 0.0]
['beep', 0.0, 1298.5692976199743, 0.0, 0.0, 0.0, 0.0, -4437.648288923298, 0.0]
['beep', 0.0, 1351.0288418565801, 0.0, 0.0, 0.0, 0.0, -4379.734919039598, 0.0]
['beep', 0.0, 1316.3165827174882, 0.0, 0.0, 0.0, 0.0, -4372.537657324989, 0.0]
['beep', 0.0, 1244.6792417382292, 0.0, 0.0, 0.0, 0.0, -4429.6016609193875, 0.0]
['beep', 0.0, 1237.7949044459945, 0.0, 0.0, 0.0, 0.0, -4469.0524898830045, 0.0]
['beep', 0.0, 1298.1893179642343, 0.0, 0.0, 0.0, 0.0, -4442.096286069905, 0.0]
['beep', 0.0, 1349.7324406781722, 0.0, 0.0, 0.0, 0.0, -4383.042977218983, 0.0]
['beep', 0.0, 1318.8870333298485, 0.0, 0.0, 0.0, 0.0, -4376.158639926749, 0.0]
['beep', 0.0, 1247.0932301394023, 0.0, 0.0, 0.0, 0.0, -4431.993297576106, 0.0]
['beep', 0.0, 1239.8959684247934, 0.0, 0.0, 0.0, 0.0, -4468.046661382516, 0.0]
['beep', 0.0, 1301.4303209102536, 0.0, 0.0, 0.0, 0.0, -4441.202216291692, 0.0]
['beep', 0.0, 1353.9345686357701, 0.0, 0.0, 0.0, 0.0, -4384.495840608578, 0.0]
['beep', 0.0, 1322.3068502315105, 0.0, 0.0, 0.0, 0.0, -4374.929293981707, 0.0]
['beep', 0.0, 1248.9484249291927, 0.0, 0.0, 0.0, 0.0, -4428.64053590781, 0.0]
['beep', 0.0, 1240.812389947461, 0.0, 0.0, 0.0, 0.0, -4466.0573561259935, 0.0]
['beep', 0.0, 1301.5197278880748, 0.0, 0.0, 0.0, 0.0, -4438.005916834583, 0.0]
['beep', 0.0, 1354.0686791025018, 0.0, 0.0, 0.0, 0.0, -4382.014796974039, 0.0]
['beep', 0.0, 1321.8374635979492, 0.0, 0.0, 0.0, 0.0, -4373.0740991919165, 0.0]
['beep', 0.0, 1249.3731080738435, 0.0, 0.0, 0.0, 0.0, -4427.411189962768, 0.0]
['beep', 0.0, 1240.2088928471676, 0.0, 0.0, 0.0, 0.0, -4465.699728214709, 0.0]
['beep', 0.0, 1298.4128354087873, 0.0, 0.0, 0.0, 0.0, -4437.044791823005, 0.0]
['beep', 0.0, 1351.900559890337, 0.0, 0.0, 0.0, 0.0, -4378.4832213501, 0.0]
['beep', 0.0, 1321.904518831315, 0.0, 0.0, 0.0, 0.0, -4371.308311379947, 0.0]
['beep', 0.0, 1248.680203995729, 0.0, 0.0, 0.0, 0.0, -4429.1322742858265, 0.0]
['beep', 0.0, 1239.1583608577682, 0.0, 0.0, 0.0, 0.0, -4467.689033471231, 0.0]
['beep', 0.0, 1298.9045737868041, 0.0, 0.0, 0.0, 0.0, -4436.754219145086, 0.0]
['beep', 0.0, 1353.9345686357701, 0.0, 0.0, 0.0, 0.0, -4379.600808572866, 0.0]
['beep', 0.0, 1321.5468909200301, 0.0, 0.0, 0.0, 0.0, -4373.163506169737, 0.0]
['beep', 0.0, 1249.6413290073071, 0.0, 0.0, 0.0, 0.0, -4425.533643428522, 0.0]
['beep', 0.0, 1241.2370730921118, 0.0, 0.0, 0.0, 0.0, -4463.2410363246245, 0.0]
['beep', 0.0, 1299.1057394869017, 0.0, 0.0, 0.0, 0.0, -4436.977736589639, 0.0]
['beep', 0.0, 1353.0404988575576, 0.0, 0.0, 0.0, 0.0, -4378.863201005841, 0.0]
['beep', 0.0, 1323.2456234986334, 0.0, 0.0, 0.0, 0.0, -4369.475468334612, 0.0]
['beep', 0.0, 1251.5412272860083, 0.0, 0.0, 0.0, 0.0, -4427.031210307027, 0.0]
['beep', 0.0, 1241.4382387922096, 0.0, 0.0, 0.0, 0.0, -4466.8173154374745, 0.0]
['beep', 0.0, 1300.424492409765, 0.0, 0.0, 0.0, 0.0, -4439.659945924276, 0.0]
['beep', 0.0, 1354.6945279472504, 0.0, 0.0, 0.0, 0.0, -4382.662997563243, 0.0]
['beep', 0.0, 1325.0114113106026, 0.0, 0.0, 0.0, 0.0, -4372.090622435882, 0.0]
['beep', 0.0, 1252.0329656640251, 0.0, 0.0, 0.0, 0.0, -4426.181844017726, 0.0]
['beep', 0.0, 1241.1476661142906, 0.0, 0.0, 0.0, 0.0, -4463.0622223689825, 0.0]
['beep', 0.0, 1299.485719142642, 0.0, 0.0, 0.0, 0.0, -4434.742562144108, 0.0]
['beep', 0.0, 1355.0745076029907, 0.0, 0.0, 0.0, 0.0, -4377.119764938327, 0.0]
['beep', 0.0, 1326.128998533368, 0.0, 0.0, 0.0, 0.0, -4367.240293889081, 0.0]
['beep', 0.0, 1252.904683697782, 0.0, 0.0, 0.0, 0.0, -4422.404399204779, 0.0]
['beep', 0.0, 1240.5665207584525, 0.0, 0.0, 0.0, 0.0, -4462.257559568591, 0.0]
['beep', 0.0, 1297.7199313306728, 0.0, 0.0, 0.0, 0.0, -4435.055486566483, 0.0]
['beep', 0.0, 1353.353423279932, 0.0, 0.0, 0.0, 0.0, -4375.15281142626, 0.0]
['beep', 0.0, 1324.9667078216921, 0.0, 0.0, 0.0, 0.0, -4366.614445044333, 0.0]
['beep', 0.0, 1250.7365644856172, 0.0, 0.0, 0.0, 0.0, -4422.538509671511, 0.0]
['beep', 0.0, 1238.711325968662, 0.0, 0.0, 0.0, 0.0, -4461.430545023745, 0.0]
['beep', 0.0, 1297.9881522641365, 0.0, 0.0, 0.0, 0.0, -4434.966079588661, 0.0]
['beep', 0.0, 1352.7946296685493, 0.0, 0.0, 0.0, 0.0, -4378.192648672181, 0.0]
['beep', 0.0, 1325.3690392218875, 0.0, 0.0, 0.0, 0.0, -4366.547389810967, 0.0]
['beep', 0.0, 1252.0776691529356, 0.0, 0.0, 0.0, 0.0, -4422.292640482502, 0.0]
['beep', 0.0, 1239.8289131914275, 0.0, 0.0, 0.0, 0.0, -4462.436373524234, 0.0]
['beep', 0.0, 1299.4410156537315, 0.0, 0.0, 0.0, 0.0, -4435.681335411231, 0.0]
['beep', 0.0, 1356.3038535480325, 0.0, 0.0, 0.0, 0.0, -4378.080889949905, 0.0]
['beep', 0.0, 1329.4594084572088, 0.0, 0.0, 0.0, 0.0, -4367.374404355813, 0.0]
['beep', 0.0, 1255.877465710338, 0.0, 0.0, 0.0, 0.0, -4420.68331488172, 0.0]
['beep', 0.0, 1241.2817765810223, 0.0, 0.0, 0.0, 0.0, -4462.324614801957, 0.0]
['beep', 0.0, 1299.1504429758124, 0.0, 0.0, 0.0, 0.0, -4437.82710287894, 0.0]
['beep', 0.0, 1355.02980411408, 0.0, 0.0, 0.0, 0.0, -4375.5998463153655, 0.0]
['beep', 0.0, 1328.5429869345412, 0.0, 0.0, 0.0, 0.0, -4363.2169798871255, 0.0]
['beep', 0.0, 1255.0728029099469, 0.0, 0.0, 0.0, 0.0, -4418.895175325296, 0.0]
['beep', 0.0, 1241.8852736813158, 0.0, 0.0, 0.0, 0.0, -4462.592835735421, 0.0]
['beep', 0.0, 1300.2456784541225, 0.0, 0.0, 0.0, 0.0, -4438.095323812405, 0.0]
['beep', 0.0, 1355.7674116811052, 0.0, 0.0, 0.0, 0.0, -4374.862238748341, 0.0]
['beep', 0.0, 1329.3252979904769, 0.0, 0.0, 0.0, 0.0, -4360.467715319123, 0.0]
['beep', 0.0, 1256.5927215329077, 0.0, 0.0, 0.0, 0.0, -4414.2236607341365, 0.0]
['beep', 0.0, 1242.1087911258687, 0.0, 0.0, 0.0, 0.0, -4459.552998489499, 0.0]
['beep', 0.0, 1300.4691958986755, 0.0, 0.0, 0.0, 0.0, -4436.418942978256, 0.0]
['beep', 0.0, 1357.3320337929767, 0.0, 0.0, 0.0, 0.0, -4374.281093392503, 0.0]
['beep', 0.0, 1334.3320887484658, 0.0, 0.0, 0.0, 0.0, -4360.735936252587, 0.0]
['beep', 0.0, 1259.878427967838, 0.0, 0.0, 0.0, 0.0, -4414.849509578885, 0.0]
['beep', 0.0, 1243.0475643929917, 0.0, 0.0, 0.0, 0.0, -4459.709460700687, 0.0]
['beep', 0.0, 1299.5527743760078, 0.0, 0.0, 0.0, 0.0, -4434.273175510547, 0.0]
['beep', 0.0, 1355.0521558585353, 0.0, 0.0, 0.0, 0.0, -4373.431727103201, 0.0]
['beep', 0.0, 1328.2077107677117, 0.0, 0.0, 0.0, 0.0, -4358.970148440618, 0.0]
['beep', 0.0, 1252.457648808676, 0.0, 0.0, 0.0, 0.0, -4413.351942700379, 0.0]
['beep', 0.0, 1236.2749858230336, 0.0, 0.0, 0.0, 0.0, -4460.447068267711, 0.0]
['beep', 0.0, 1293.584858606441, 0.0, 0.0, 0.0, 0.0, -4438.005916834583, 0.0]
['beep', 0.0, 1352.7499261796388, 0.0, 0.0, 0.0, 0.0, -4378.4832213501, 0.0]
['beep', 0.0, 1329.0123735681027, 0.0, 0.0, 0.0, 0.0, -4362.43466883119, 0.0]
['beep', 0.0, 1255.5868930324189, 0.0, 0.0, 0.0, 0.0, -4414.469529923145, 0.0]
['beep', 0.0, 1239.4712852801426, 0.0, 0.0, 0.0, 0.0, -4458.748335689108, 0.0]
['beep', 0.0, 1296.579992363452, 0.0, 0.0, 0.0, 0.0, -4439.25761452408, 0.0]
['beep', 0.0, 1353.8004581690382, 0.0, 0.0, 0.0, 0.0, -4377.656206805254, 0.0]
['beep', 0.0, 1330.867568357893, 0.0, 0.0, 0.0, 0.0, -4359.908921707741, 0.0]
['beep', 0.0, 1257.8891227113156, 0.0, 0.0, 0.0, 0.0, -4412.770797344541, 0.0]
['beep', 0.0, 1241.7064597256733, 0.0, 0.0, 0.0, 0.0, -4457.004899621595, 0.0]
['beep', 0.0, 1296.870565041371, 0.0, 0.0, 0.0, 0.0, -4435.681335411231, 0.0]
['beep', 0.0, 1354.3145482915102, 0.0, 0.0, 0.0, 0.0, -4374.392852114779, 0.0]
['beep', 0.0, 1330.9122718468038, 0.0, 0.0, 0.0, 0.0, -4358.523113551511, 0.0]
['beep', 0.0, 1257.0844599109246, 0.0, 0.0, 0.0, 0.0, -4409.619201376343, 0.0]
['beep', 0.0, 1238.3760498018326, 0.0, 0.0, 0.0, 0.0, -4452.489847241623, 0.0]
['beep', 0.0, 1293.7860243065388, 0.0, 0.0, 0.0, 0.0, -4434.340230743913, 0.0]
['beep', 0.0, 1352.3028912905327, 0.0, 0.0, 0.0, 0.0, -4378.952607983662, 0.0]
['beep', 0.0, 1332.7227631476835, 0.0, 0.0, 0.0, 0.0, -4354.991537927573, 0.0]
['beep', 0.0, 1255.67630001024, 0.0, 0.0, 0.0, 0.0, -4401.751387328075, 0.0]
['beep', 0.0, 1232.00580263207, 0.0, 0.0, 0.0, 0.0, -4446.3878210053235, 0.0]
['beep', 0.0, 1287.7957567925164, 0.0, 0.0, 0.0, 0.0, -4428.327611485435, 0.0]
['beep', 0.0, 1344.0550975865242, 0.0, 0.0, 0.0, 0.0, -4375.443384104179, 0.0]
['beep', 0.0, 1318.8870333298485, 0.0, 0.0, 0.0, 0.0, -4353.851598960352, 0.0]
['beep', 0.0, 1243.7181167266508, 0.0, 0.0, 0.0, 0.0, -4403.047788506483, 0.0]
['beep', 0.0, 1227.5131019965534, 0.0, 0.0, 0.0, 0.0, -4446.745448916608, 0.0]
['beep', 0.0, 1283.191297434723, 0.0, 0.0, 0.0, 0.0, -4428.841701607907, 0.0]
['beep', 0.0, 1343.608062697418, 0.0, 0.0, 0.0, 0.0, -4372.716471280632, 0.0]
['beep', 0.0, 1322.195091509234, 0.0, 0.0, 0.0, 0.0, -4357.316119350925, 0.0]
['beep', 0.0, 1248.8813696958268, 0.0, 0.0, 0.0, 0.0, -4405.39472167429, 0.0]
['beep', 0.0, 1230.8435119203941, 0.0, 0.0, 0.0, 0.0, -4446.678393683243, 0.0]
['beep', 0.0, 1286.7005213142063, 0.0, 0.0, 0.0, 0.0, -4425.801864361985, 0.0]
['beep', 0.0, 1346.9161208768037, 0.0, 0.0, 0.0, 0.0, -4369.00608170105, 0.0]
['beep', 0.0, 1324.6537833993177, 0.0, 0.0, 0.0, 0.0, -4353.851598960352, 0.0]
['beep', 0.0, 1250.781267974528, 0.0, 0.0, 0.0, 0.0, -4405.282962952014, 0.0]
['beep', 0.0, 1232.4751892656313, 0.0, 0.0, 0.0, 0.0, -4447.63951869482, 0.0]
['beep', 0.0, 1287.1475562033124, 0.0, 0.0, 0.0, 0.0, -4429.556957430477, 0.0]
['beep', 0.0, 1346.4467342432422, 0.0, 0.0, 0.0, 0.0, -4371.755346269053, 0.0]
['beep', 0.0, 1326.7548473781167, 0.0, 0.0, 0.0, 0.0, -4352.845770459863, 0.0]
['beep', 0.0, 1253.038794164514, 0.0, 0.0, 0.0, 0.0, -4404.5900588739, 0.0]
['beep', 0.0, 1232.3187270544443, 0.0, 0.0, 0.0, 0.0, -4446.007841349583, 0.0]
['beep', 0.0, 1286.9016870143041, 0.0, 0.0, 0.0, 0.0, -4424.4384079502115, 0.0]
['beep', 0.0, 1347.832542399471, 0.0, 0.0, 0.0, 0.0, -4366.882665977796, 0.0]
['beep', 0.0, 1327.4477514562311, 0.0, 0.0, 0.0, 0.0, -4348.24131110207, 0.0]
['beep', 0.0, 1253.1058493978799, 0.0, 0.0, 0.0, 0.0, -4400.522041383033, 0.0]
['beep', 0.0, 1231.9834508876147, 0.0, 0.0, 0.0, 0.0, -4446.209007049681, 0.0]
['beep', 0.0, 1285.4711753691645, 0.0, 0.0, 0.0, 0.0, -4429.199329519192, 0.0]
['beep', 0.0, 1344.390373753354, 0.0, 0.0, 0.0, 0.0, -4371.241256146581, 0.0]
['beep', 0.0, 1325.6596118998066, 0.0, 0.0, 0.0, 0.0, -4348.777752968997, 0.0]
['beep', 0.0, 1252.7258697421396, 0.0, 0.0, 0.0, 0.0, -4398.353922170869, 0.0]
['beep', 0.0, 1231.7599334430615, 0.0, 0.0, 0.0, 0.0, -4446.298414027502, 0.0]
['beep', 0.0, 1283.6383323238292, 0.0, 0.0, 0.0, 0.0, -4431.769780131553, 0.0]
['beep', 0.0, 1343.7645249086054, 0.0, 0.0, 0.0, 0.0, -4372.805878258452, 0.0]
['beep', 0.0, 1327.4253997117758, 0.0, 0.0, 0.0, 0.0, -4352.801066970953, 0.0]
['beep', 0.0, 1254.8939889543044, 0.0, 0.0, 0.0, 0.0, -4403.807747817963, 0.0]
['beep', 0.0, 1231.7599334430615, 0.0, 0.0, 0.0, 0.0, -4445.270233782558, 0.0]
['beep', 0.0, 1284.644160824318, 0.0, 0.0, 0.0, 0.0, -4426.248899251092, 0.0]
['beep', 0.0, 1345.6420714428511, 0.0, 0.0, 0.0, 0.0, -4368.916674723229, 0.0]
['beep', 0.0, 1327.7383241341502, 0.0, 0.0, 0.0, 0.0, -4346.900206434751, 0.0]
['beep', 0.0, 1254.4469540651983, 0.0, 0.0, 0.0, 0.0, -4400.365579171847, 0.0]
['beep', 0.0, 1230.9329188982153, 0.0, 0.0, 0.0, 0.0, -4448.198312306204, 0.0]
['beep', 0.0, 1283.8842015128378, 0.0, 0.0, 0.0, 0.0, -4429.378143474834, 0.0]
['beep', 0.0, 1345.8208853984936, 0.0, 0.0, 0.0, 0.0, -4366.86031423334, 0.0]
['beep', 0.0, 1328.2524142566222, 0.0, 0.0, 0.0, 0.0, -4346.274357590003, 0.0]
['beep', 0.0, 1253.4858290536201, 0.0, 0.0, 0.0, 0.0, -4400.030303005016, 0.0]
['beep', 0.0, 1231.8940439097935, 0.0, 0.0, 0.0, 0.0, -4446.477227983145, 0.0]
['beep', 0.0, 1283.6383323238292, 0.0, 0.0, 0.0, 0.0, -4430.87571035334, 0.0]
['beep', 0.0, 1345.2397400426555, 0.0, 0.0, 0.0, 0.0, -4369.251950890059, 0.0]
['beep', 0.0, 1328.0065450676138, 0.0, 0.0, 0.0, 0.0, -4343.748610466553, 0.0]
['beep', 0.0, 1254.134029642824, 0.0, 0.0, 0.0, 0.0, -4393.280076179513, 0.0]
['beep', 0.0, 1229.7929799309945, 0.0, 0.0, 0.0, 0.0, -4441.8727686253515, 0.0]
['beep', 0.0, 1281.5372683450305, 0.0, 0.0, 0.0, 0.0, -4424.773684117042, 0.0]
['beep', 0.0, 1342.2222545411892, 0.0, 0.0, 0.0, 0.0, -4367.508514822544, 0.0]
['beep', 0.0, 1327.291289245044, 0.0, 0.0, 0.0, 0.0, -4346.833151201386, 0.0]
['beep', 0.0, 1253.8658087093602, 0.0, 0.0, 0.0, 0.0, -4396.476375636623, 0.0]
['beep', 0.0, 1228.585985730408, 0.0, 0.0, 0.0, 0.0, -4442.6327279368315, 0.0]
['beep', 0.0, 1278.8774107548488, 0.0, 0.0, 0.0, 0.0, -4424.997201561595, 0.0]
['beep', 0.0, 1342.3340132634657, 0.0, 0.0, 0.0, 0.0, -4367.374404355813, 0.0]
['beep', 0.0, 1329.0347253125578, 0.0, 0.0, 0.0, 0.0, -4348.017793657517, 0.0]
['beep', 0.0, 1255.363375587866, 0.0, 0.0, 0.0, 0.0, -4396.521079125533, 0.0]
['beep', 0.0, 1229.7929799309945, 0.0, 0.0, 0.0, 0.0, -4441.1128093138705, 0.0]
['beep', 0.0, 1281.4478613672093, 0.0, 0.0, 0.0, 0.0, -4422.694971882698, 0.0]
['beep', 0.0, 1342.7363446636612, 0.0, 0.0, 0.0, 0.0, -4366.167410155226, 0.0]
['beep', 0.0, 1329.2358910126557, 0.0, 0.0, 0.0, 0.0, -4345.894377934263, 0.0]
['beep', 0.0, 1254.7375267431173, 0.0, 0.0, 0.0, 0.0, -4394.129442468816, 0.0]
['beep', 0.0, 1228.161302585757, 0.0, 0.0, 0.0, 0.0, -4443.012707592572, 0.0]
['beep', 0.0, 1280.8220125224607, 0.0, 0.0, 0.0, 0.0, -4427.455893451678, 0.0]
['beep', 0.0, 1342.8481033859377, 0.0, 0.0, 0.0, 0.0, -4364.736898510087, 0.0]
['beep', 0.0, 1329.101780545924, 0.0, 0.0, 0.0, 0.0, -4341.245215087559, 0.0]
['beep', 0.0, 1254.4022505762878, 0.0, 0.0, 0.0, 0.0, -4393.838869790897, 0.0]
['beep', 0.0, 1230.1729595867348, 0.0, 0.0, 0.0, 0.0, -4444.130294815337, 0.0]
['beep', 0.0, 1280.1738119332567, 0.0, 0.0, 0.0, 0.0, -4424.706628883676, 0.0]
['beep', 0.0, 1343.3174900194992, 0.0, 0.0, 0.0, 0.0, -4365.116878165827, 0.0]
['beep', 0.0, 1330.554643935519, 0.0, 0.0, 0.0, 0.0, -4342.496912777056, 0.0]
['beep', 0.0, 1257.4197360777541, 0.0, 0.0, 0.0, 0.0, -4391.134308711804, 0.0]
['beep', 0.0, 1230.6423462202963, 0.0, 0.0, 0.0, 0.0, -4441.313975013969, 0.0]
['beep', 0.0, 1279.4362043662316, 0.0, 0.0, 0.0, 0.0, -4424.4384079502115, 0.0]
['beep', 0.0, 1341.7305161631723, 0.0, 0.0, 0.0, 0.0, -4362.546427553467, 0.0]
['beep', 0.0, 1331.001678824625, 0.0, 0.0, 0.0, 0.0, -4337.937156908173, 0.0]
['beep', 0.0, 1258.4926198116088, 0.0, 0.0, 0.0, 0.0, -4389.68144532221, 0.0]
['beep', 0.0, 1232.0952096098913, 0.0, 0.0, 0.0, 0.0, -4438.162379045771, 0.0]
['beep', 0.0, 1280.3973293778097, 0.0, 0.0, 0.0, 0.0, -4422.247936993592, 0.0]
['beep', 0.0, 1343.093972574946, 0.0, 0.0, 0.0, 0.0, -4368.357881111847, 0.0]
['beep', 0.0, 1330.576995679974, 0.0, 0.0, 0.0, 0.0, -4342.0275261434945, 0.0]
['beep', 0.0, 1256.7044802551843, 0.0, 0.0, 0.0, 0.0, -4385.0546342199605, 0.0]
['beep', 0.0, 1228.6083374748632, 0.0, 0.0, 0.0, 0.0, -4435.323707499946, 0.0]
['beep', 0.0, 1277.9609892321814, 0.0, 0.0, 0.0, 0.0, -4418.761064858564, 0.0]
['beep', 0.0, 1342.3116615190104, 0.0, 0.0, 0.0, 0.0, -4360.624177530311, 0.0]
['beep', 0.0, 1331.515768947097, 0.0, 0.0, 0.0, 0.0, -4337.71363946362, 0.0]
['beep', 0.0, 1256.168038388257, 0.0, 0.0, 0.0, 0.0, -4386.887477265296, 0.0]
['beep', 0.0, 1227.1107705963577, 0.0, 0.0, 0.0, 0.0, -4438.318841256958, 0.0]
['beep', 0.0, 1281.358454389388, 0.0, 0.0, 0.0, 0.0, -4421.599736404388, 0.0]
['beep', 0.0, 1348.994833111147, 0.0, 0.0, 0.0, 0.0, -4364.1557531542485, 0.0]
['beep', 0.0, 1340.3000045180327, 0.0, 0.0, 0.0, 0.0, -4336.774866196498, 0.0]
['beep', 0.0, 1270.808431006483, 0.0, 0.0, 0.0, 0.0, -4377.969131227628, 0.0]
['beep', 0.0, 1244.9251109272375, 0.0, 0.0, 0.0, 0.0, -4426.15949227327, 0.0]
['beep', 0.0, 1291.7967190500165, 0.0, 0.0, 0.0, 0.0, -4411.988486288606, 0.0]
['beep', 0.0, 1357.3543855374319, 0.0, 0.0, 0.0, 0.0, -4358.858389718341, 0.0]
['beep', 0.0, 1347.832542399471, 0.0, 0.0, 0.0, 0.0, -4334.80791268443, 0.0]
['beep', 0.0, 1273.4682885966645, 0.0, 0.0, 0.0, 0.0, -4378.729090539109, 0.0]
['beep', 0.0, 1243.6957649821957, 0.0, 0.0, 0.0, 0.0, -4426.360657973368, 0.0]
['beep', 0.0, 1291.483794627642, 0.0, 0.0, 0.0, 0.0, -4417.889346824807, 0.0]
['beep', 0.0, 1356.7508884371387, 0.0, 0.0, 0.0, 0.0, -4363.14992465376, 0.0]
['beep', 0.0, 1348.4136877553092, 0.0, 0.0, 0.0, 0.0, -4333.243290572559, 0.0]
['beep', 0.0, 1275.8822769978378, 0.0, 0.0, 0.0, 0.0, -4376.046881204472, 0.0]
['beep', 0.0, 1246.5344365280196, 0.0, 0.0, 0.0, 0.0, -4424.952498072684, 0.0]
['beep', 0.0, 1293.9648382621813, 0.0, 0.0, 0.0, 0.0, -4414.894213067796, 0.0]
['beep', 0.0, 1357.5331994930746, 0.0, 0.0, 0.0, 0.0, -4357.114953650827, 0.0]
['beep', 0.0, 1350.5147517341081, 0.0, 0.0, 0.0, 0.0, -4330.449322515646, 0.0]
['beep', 0.0, 1274.5635240749746, 0.0, 0.0, 0.0, 0.0, -4374.750480026064, 0.0]
['beep', 0.0, 1243.785171960017, 0.0, 0.0, 0.0, 0.0, -4427.455893451678, 0.0]
['beep', 0.0, 1290.5673731049744, 0.0, 0.0, 0.0, 0.0, -4419.073989280938, 0.0]
['beep', 0.0, 1353.5098854911191, 0.0, 0.0, 0.0, 0.0, -4359.059555418438, 0.0]
['beep', 0.0, 1347.005527854625, 0.0, 0.0, 0.0, 0.0, -4328.638831214766, 0.0]
['beep', 0.0, 1272.328349629444, 0.0, 0.0, 0.0, 0.0, -4375.15281142626, 0.0]
['beep', 0.0, 1240.678279480729, 0.0, 0.0, 0.0, 0.0, -4426.919451584751, 0.0]
['beep', 0.0, 1291.5061463720974, 0.0, 0.0, 0.0, 0.0, -4411.58615488841, 0.0]
['beep', 0.0, 1355.9462256367476, 0.0, 0.0, 0.0, 0.0, -4354.455096060646, 0.0]
['beep', 0.0, 1348.83837089996, 0.0, 0.0, 0.0, 0.0, -4329.041162614962, 0.0]
['beep', 0.0, 1275.5693525754634, 0.0, 0.0, 0.0, 0.0, -4377.0080062160505, 0.0]
['beep', 0.0, 1243.1146196263576, 0.0, 0.0, 0.0, 0.0, -4430.0710475529495, 0.0]
['beep', 0.0, 1290.1426899603237, 0.0, 0.0, 0.0, 0.0, -4420.906832326274, 0.0]
['beep', 0.0, 1354.4710105026975, 0.0, 0.0, 0.0, 0.0, -4360.847694974863, 0.0]
['beep', 0.0, 1347.2290452991779, 0.0, 0.0, 0.0, 0.0, -4330.583432982377, 0.0]
['beep', 0.0, 1274.518820586064, 0.0, 0.0, 0.0, 0.0, -4373.610541058843, 0.0]
['beep', 0.0, 1241.840570192405, 0.0, 0.0, 0.0, 0.0, -4425.310125983969, 0.0]
['beep', 0.0, 1287.9298672592483, 0.0, 0.0, 0.0, 0.0, -4415.855338079374, 0.0]
['beep', 0.0, 1353.5992924689403, 0.0, 0.0, 0.0, 0.0, -4359.2830728629915, 0.0]
['beep', 0.0, 1348.3019290330326, 0.0, 0.0, 0.0, 0.0, -4329.801121926442, 0.0]
['beep', 0.0, 1275.032910708536, 0.0, 0.0, 0.0, 0.0, -4376.337453882391, 0.0]
['beep', 0.0, 1240.9465004141928, 0.0, 0.0, 0.0, 0.0, -4427.813521362963, 0.0]
['beep', 0.0, 1288.421605637265, 0.0, 0.0, 0.0, 0.0, -4417.419960191245, 0.0]
['beep', 0.0, 1353.487533746664, 0.0, 0.0, 0.0, 0.0, -4366.726203766609, 0.0]
['beep', 0.0, 1346.7149551767059, 0.0, 0.0, 0.0, 0.0, -4340.306441820436, 0.0]
['beep', 0.0, 1272.842439751916, 0.0, 0.0, 0.0, 0.0, -4376.002177715562, 0.0]
['beep', 0.0, 1240.0300788915251, 0.0, 0.0, 0.0, 0.0, -4421.800902104485, 0.0]
['beep', 0.0, 1286.7005213142063, 0.0, 0.0, 0.0, 0.0, -4411.183823488214, 0.0]
['beep', 0.0, 1351.9229116347924, 0.0, 0.0, 0.0, 0.0, -4355.639738516777, 0.0]
['beep', 0.0, 1347.5419697215523, 0.0, 0.0, 0.0, 0.0, -4329.577604481889, 0.0]
['beep', 0.0, 1273.6918060412177, 0.0, 0.0, 0.0, 0.0, -4373.029395703005, 0.0]
['beep', 0.0, 1240.4994655250866, 0.0, 0.0, 0.0, 0.0, -4424.505463183577, 0.0]
['beep', 0.0, 1285.582934091441, 0.0, 0.0, 0.0, 0.0, -4416.078855523927, 0.0]
['beep', 0.0, 1352.2358360571666, 0.0, 0.0, 0.0, 0.0, -4362.188799642182, 0.0]
['beep', 0.0, 1348.8830743888707, 0.0, 0.0, 0.0, 0.0, -4337.33365980788, 0.0]
['beep', 0.0, 1271.3448728734104, 0.0, 0.0, 0.0, 0.0, -4377.410337616246, 0.0]
['beep', 0.0, 1233.7939421884946, 0.0, 0.0, 0.0, 0.0, -4421.510329426566, 0.0]
['beep', 0.0, 1276.5081258425864, 0.0, 0.0, 0.0, 0.0, -4413.530756656022, 0.0]
['beep', 0.0, 1337.1484085498344, 0.0, 0.0, 0.0, 0.0, -4361.048860674961, 0.0]
['beep', 0.0, 1332.7451148921389, 0.0, 0.0, 0.0, 0.0, -4331.410447527224, 0.0]
['beep', 0.0, 1259.6772622677402, 0.0, 0.0, 0.0, 0.0, -4374.325796881413, 0.0]
['beep', 0.0, 1225.7249624401286, 0.0, 0.0, 0.0, 0.0, -4427.791169618508, 0.0]
['beep', 0.0, 1270.2272856506452, 0.0, 0.0, 0.0, 0.0, -4418.358733458368, 0.0]
['beep', 0.0, 1336.0531730715243, 0.0, 0.0, 0.0, 0.0, -4363.261683376037, 0.0]
['beep', 0.0, 1333.7062399037172, 0.0, 0.0, 0.0, 0.0, -4336.618403985311, 0.0]
['beep', 0.0, 1261.1524774017903, 0.0, 0.0, 0.0, 0.0, -4377.589151571889, 0.0]
['beep', 0.0, 1226.0602386069584, 0.0, 0.0, 0.0, 0.0, -4429.065219052461, 0.0]
['beep', 0.0, 1269.9590647171815, 0.0, 0.0, 0.0, 0.0, -4424.416056205757, 0.0]
['beep', 0.0, 1335.6061381824181, 0.0, 0.0, 0.0, 0.0, -4371.218904402126, 0.0]
['beep', 0.0, 1333.9074056038148, 0.0, 0.0, 0.0, 0.0, -4334.852616173341, 0.0]
['beep', 0.0, 1262.6276925358407, 0.0, 0.0, 0.0, 0.0, -4371.129497424305, 0.0]
['beep', 0.0, 1229.0106688750589, 0.0, 0.0, 0.0, 0.0, -4426.0253818065385, 0.0]
['beep', 0.0, 1269.6684920392624, 0.0, 0.0, 0.0, 0.0, -4417.643477635798, 0.0]
['beep', 0.0, 1336.5896149384516, 0.0, 0.0, 0.0, 0.0, -4364.4463258321675, 0.0]
['beep', 0.0, 1342.7586964081165, 0.0, 0.0, 0.0, 0.0, -4331.298688804947, 0.0]
['beep', 0.0, 1271.7695560180612, 0.0, 0.0, 0.0, 0.0, -4365.876837477307, 0.0]
['beep', 0.0, 1230.329421797922, 0.0, 0.0, 0.0, 0.0, -4419.230451492125, 0.0]
['beep', 0.0, 1268.9308844722373, 0.0, 0.0, 0.0, 0.0, -4414.603640389877, 0.0]
['beep', 0.0, 1335.0473445710356, 0.0, 0.0, 0.0, 0.0, -4364.803953743452, 0.0]
['beep', 0.0, 1340.3670597513985, 0.0, 0.0, 0.0, 0.0, -4327.320078291903, 0.0]
['beep', 0.0, 1271.8589629958824, 0.0, 0.0, 0.0, 0.0, -4364.669843276721, 0.0]
['beep', 0.0, 1229.457703764165, 0.0, 0.0, 0.0, 0.0, -4423.231413749625, 0.0]
['beep', 0.0, 1266.7627652600725, 0.0, 0.0, 0.0, 0.0, -4423.991373061106, 0.0]
['beep', 0.0, 1335.8743591158818, 0.0, 0.0, 0.0, 0.0, -4363.9769391986065, 0.0]
['beep', 0.0, 1341.7975713965384, 0.0, 0.0, 0.0, 0.0, -4322.514453234012, 0.0]
['beep', 0.0, 1271.099003684402, 0.0, 0.0, 0.0, 0.0, -4365.161581654737, 0.0]
['beep', 0.0, 1227.356639785366, 0.0, 0.0, 0.0, 0.0, -4423.343172471902, 0.0]
['beep', 0.0, 1267.4780210826423, 0.0, 0.0, 0.0, 0.0, -4421.01859104855, 0.0]
['beep', 0.0, 1333.192149781245, 0.0, 0.0, 0.0, 0.0, -4364.088697920883, 0.0]
['beep', 0.0, 1339.674155673284, 0.0, 0.0, 0.0, 0.0, -4325.71075269112, 0.0]
['beep', 0.0, 1270.0261199505474, 0.0, 0.0, 0.0, 0.0, -4366.10035492186, 0.0]
['beep', 0.0, 1226.4849217516091, 0.0, 0.0, 0.0, 0.0, -4423.097303282893, 0.0]
['beep', 0.0, 1262.4041750912877, 0.0, 0.0, 0.0, 0.0, -4416.525890413033, 0.0]
['beep', 0.0, 1330.554643935519, 0.0, 0.0, 0.0, 0.0, -4363.284035120491, 0.0]
['beep', 0.0, 1339.383582995365, 0.0, 0.0, 0.0, 0.0, -4327.610650969822, 0.0]
['beep', 0.0, 1269.7355472726283, 0.0, 0.0, 0.0, 0.0, -4362.166447897726, 0.0]
['beep', 0.0, 1225.6132037178522, 0.0, 0.0, 0.0, 0.0, -4418.023457291539, 0.0]
['beep', 0.0, 1263.164134402768, 0.0, 0.0, 0.0, 0.0, -4415.497710168089, 0.0]
['beep', 0.0, 1332.029859069569, 0.0, 0.0, 0.0, 0.0, -4362.0993926643605, 0.0]
['beep', 0.0, 1341.2834812740662, 0.0, 0.0, 0.0, 0.0, -4325.8225114133975, 0.0]
['beep', 0.0, 1270.7190240286618, 0.0, 0.0, 0.0, 0.0, -4361.808819986441, 0.0]
['beep', 0.0, 1226.328459540422, 0.0, 0.0, 0.0, 0.0, -4420.526852670533, 0.0]
['beep', 0.0, 1264.6393495368184, 0.0, 0.0, 0.0, 0.0, -4417.442311935701, 0.0]
['beep', 0.0, 1332.0522108140244, 0.0, 0.0, 0.0, 0.0, -4363.753421754053, 0.0]
['beep', 0.0, 1340.0541353290243, 0.0, 0.0, 0.0, 0.0, -4326.9400986361625, 0.0]
['beep', 0.0, 1270.7413757731172, 0.0, 0.0, 0.0, 0.0, -4362.76994499802, 0.0]
['beep', 0.0, 1227.3119362964555, 0.0, 0.0, 0.0, 0.0, -4418.291678225002, 0.0]
['beep', 0.0, 1262.7394512581172, 0.0, 0.0, 0.0, 0.0, -4417.01762879105, 0.0]
['beep', 0.0, 1331.4710654581863, 0.0, 0.0, 0.0, 0.0, -4360.95945369714, 0.0]
['beep', 0.0, 1342.3116615190104, 0.0, 0.0, 0.0, 0.0, -4327.767113181008, 0.0]
['beep', 0.0, 1272.5742188184522, 0.0, 0.0, 0.0, 0.0, -4361.406488586246, 0.0]
['beep', 0.0, 1228.5412822414974, 0.0, 0.0, 0.0, 0.0, -4414.022495034039, 0.0]
['beep', 0.0, 1265.421660592754, 0.0, 0.0, 0.0, 0.0, -4412.234355477614, 0.0]
['beep', 0.0, 1332.901577103326, 0.0, 0.0, 0.0, 0.0, -4360.691232763676, 0.0]
['beep', 0.0, 1342.2669580300997, 0.0, 0.0, 0.0, 0.0, -4325.397828268746, 0.0]
['beep', 0.0, 1274.7199862861619, 0.0, 0.0, 0.0, 0.0, -4361.384136841791, 0.0]
['beep', 0.0, 1228.9212618972376, 0.0, 0.0, 0.0, 0.0, -4416.235317735114, 0.0]
['beep', 0.0, 1265.5110675705753, 0.0, 0.0, 0.0, 0.0, -4417.5093671690665, 0.0]
['beep', 0.0, 1332.9909840811472, 0.0, 0.0, 0.0, 0.0, -4365.653320032754, 0.0]
['beep', 0.0, 1344.412725497809, 0.0, 0.0, 0.0, 0.0, -4326.113084091316, 0.0]
['beep', 0.0, 1276.9328089872372, 0.0, 0.0, 0.0, 0.0, -4356.422049572712, 0.0]
['beep', 0.0, 1230.619994475841, 0.0, 0.0, 0.0, 0.0, -4411.049713021483, 0.0]
['beep', 0.0, 1266.2710268820558, 0.0, 0.0, 0.0, 0.0, -4411.899079310784, 0.0]
['beep', 0.0, 1333.974460837181, 0.0, 0.0, 0.0, 0.0, -4359.953625196651, 0.0]
['beep', 0.0, 1345.1503330648343, 0.0, 0.0, 0.0, 0.0, -4321.910956133718, 0.0]
['beep', 0.0, 1276.5304775870416, 0.0, 0.0, 0.0, 0.0, -4355.8185524724195, 0.0]
['beep', 0.0, 1230.2176630756455, 0.0, 0.0, 0.0, 0.0, -4414.603640389877, 0.0]
['beep', 0.0, 1263.9464454587037, 0.0, 0.0, 0.0, 0.0, -4417.151739257782, 0.0]
['beep', 0.0, 1331.6722311582841, 0.0, 0.0, 0.0, 0.0, -4363.664014776232, 0.0]
['beep', 0.0, 1346.223216798689, 0.0, 0.0, 0.0, 0.0, -4319.675781688187, 0.0]
['beep', 0.0, 1278.296265399011, 0.0, 0.0, 0.0, 0.0, -4351.683479748187, 0.0]
['beep', 0.0, 1230.2176630756455, 0.0, 0.0, 0.0, 0.0, -4413.039018278006, 0.0]
['beep', 0.0, 1264.7958117480055, 0.0, 0.0, 0.0, 0.0, -4417.844643335896, 0.0]
['beep', 0.0, 1333.5274259480748, 0.0, 0.0, 0.0, 0.0, -4362.859351975841, 0.0]
['beep', 0.0, 1345.709126676217, 0.0, 0.0, 0.0, 0.0, -4322.626211956288, 0.0]
['beep', 0.0, 1278.96681773267, 0.0, 0.0, 0.0, 0.0, -4350.029450658494, 0.0]
['beep', 0.0, 1231.6258229763298, 0.0, 0.0, 0.0, 0.0, -4407.227564719626, 0.0]
['beep', 0.0, 1264.9299222147372, 0.0, 0.0, 0.0, 0.0, -4414.469529923145, 0.0]
['beep', 0.0, 1334.7120684042059, 0.0, 0.0, 0.0, 0.0, -4361.898226964263, 0.0]
['beep', 0.0, 1348.6595569443175, 0.0, 0.0, 0.0, 0.0, -4318.7817119099755, 0.0]
['beep', 0.0, 1280.1738119332567, 0.0, 0.0, 0.0, 0.0, -4350.811761714431, 0.0]
['beep', 0.0, 1231.6034712318744, 0.0, 0.0, 0.0, 0.0, -4409.283925209514, 0.0]
['beep', 0.0, 1263.9464454587037, 0.0, 0.0, 0.0, 0.0, -4411.049713021483, 0.0]
['beep', 0.0, 1331.068734057991, 0.0, 0.0, 0.0, 0.0, -4358.746630996065, 0.0]
['beep', 0.0, 1345.7538301651277, 0.0, 0.0, 0.0, 0.0, -4320.860424144319, 0.0]
['beep', 0.0, 1279.7044252996952, 0.0, 0.0, 0.0, 0.0, -4349.515360536023, 0.0]
['beep', 0.0, 1229.5918142308967, 0.0, 0.0, 0.0, 0.0, -4400.544393127489, 0.0]
['beep', 0.0, 1260.3031111124888, 0.0, 0.0, 0.0, 0.0, -4406.199384474681, 0.0]
['beep', 0.0, 1330.9569753357143, 0.0, 0.0, 0.0, 0.0, -4352.711659993131, 0.0]
['beep', 0.0, 1343.4068969973205, 0.0, 0.0, 0.0, 0.0, -4308.052874571428, 0.0]
['beep', 0.0, 1273.6918060412177, 0.0, 0.0, 0.0, 0.0, -4337.758342952531, 0.0]
['beep', 0.0, 1223.489787994598, 0.0, 0.0, 0.0, 0.0, -4392.318951167936, 0.0]
['beep', 0.0, 1250.8930266968046, 0.0, 0.0, 0.0, 0.0, -4387.267456921036, 0.0]
['beep', 0.0, 1318.484701929653, 0.0, 0.0, 0.0, 0.0, -4322.00036311154, 0.0]
['beep', 0.0, 1334.801475382027, 0.0, 0.0, 0.0, 0.0, -4271.105440986806, 0.0]
['beep', 0.0, 1267.4780210826423, 0.0, 0.0, 0.0, 0.0, -4287.1986969946265, 0.0]
['beep', 0.0, 1214.5043867235645, 0.0, 0.0, 0.0, 0.0, -4330.471674260101, 0.0]
['beep', 0.0, 1242.4217155482431, 0.0, 0.0, 0.0, 0.0, -4325.017848613006, 0.0]
['beep', 0.0, 1308.426416924765, 0.0, 0.0, 0.0, 0.0, -4257.739097802531, 0.0]
['beep', 0.0, 1320.45165544172, 0.0, 0.0, 0.0, 0.0, -4199.02106511844, 0.0]
['beep', 0.0, 1253.910512198271, 0.0, 0.0, 0.0, 0.0, -4214.443768792602, 0.0]
['beep', 0.0, 1201.294505750478, 0.0, 0.0, 0.0, 0.0, -4263.9528827611075, 0.0]
['beep', 0.0, 1229.971793886637, 0.0, 0.0, 0.0, 0.0, -4259.035498980939, 0.0]
['beep', 0.0, 1296.4682336411756, 0.0, 0.0, 0.0, 0.0, -4194.729530183021, 0.0]
['beep', 0.0, 1312.2709169710777, 0.0, 0.0, 0.0, 0.0, -4142.20293071305, 0.0]
['beep', 0.0, 1244.969814416148, 0.0, 0.0, 0.0, 0.0, -4164.018233301429, 0.0]
['beep', 0.0, 1195.5948109143749, 0.0, 0.0, 0.0, 0.0, -4220.098760139795, 0.0]
['beep', 0.0, 1224.6520787062739, 0.0, 0.0, 0.0, 0.0, -4218.422379305646, 0.0]
['beep', 0.0, 1292.8248992949605, 0.0, 0.0, 0.0, 0.0, -4161.783058855898, 0.0]
['beep', 0.0, 1310.549832648019, 0.0, 0.0, 0.0, 0.0, -4115.224375155494, 0.0]
['beep', 0.0, 1245.9309394277263, 0.0, 0.0, 0.0, 0.0, -4143.365221424726, 0.0]
['beep', 0.0, 1196.2206597591235, 0.0, 0.0, 0.0, 0.0, -4198.0375883624065, 0.0]
['beep', 0.0, 1225.881424651316, 0.0, 0.0, 0.0, 0.0, -4202.105605853272, 0.0]
['beep', 0.0, 1292.7354923171392, 0.0, 0.0, 0.0, 0.0, -4152.171808740117, 0.0]
['beep', 0.0, 1310.4604256701978, 0.0, 0.0, 0.0, 0.0, -4112.05042744284, 0.0]
['beep', 0.0, 1243.9192824267486, 0.0, 0.0, 0.0, 0.0, -4136.123256221206, 0.0]
['beep', 0.0, 1193.7172643801289, 0.0, 0.0, 0.0, 0.0, -4190.9967888589845, 0.0]
['beep', 0.0, 1223.6909536946957, 0.0, 0.0, 0.0, 0.0, -4197.299980795381, 0.0]
['beep', 0.0, 1292.8472510394158, 0.0, 0.0, 0.0, 0.0, -4146.96385228203, 0.0]
['beep', 0.0, 1311.6227163818737, 0.0, 0.0, 0.0, 0.0, -4102.260363371416, 0.0]
['beep', 0.0, 1247.1826371172235, 0.0, 0.0, 0.0, 0.0, -4128.970697995508, 0.0]
['beep', 0.0, 1195.6395144032854, 0.0, 0.0, 0.0, 0.0, -4189.566277213845, 0.0]
['beep', 0.0, 1223.0874565944025, 0.0, 0.0, 0.0, 0.0, -4200.473928508035, 0.0]
['beep', 0.0, 1292.0649399834801, 0.0, 0.0, 0.0, 0.0, -4151.881236062198, 0.0]
['beep', 0.0, 1313.5896698939407, 0.0, 0.0, 0.0, 0.0, -4112.788035009866, 0.0]
['beep', 0.0, 1250.8930266968046, 0.0, 0.0, 0.0, 0.0, -4144.7286778365, 0.0]
['beep', 0.0, 1200.489842950087, 0.0, 0.0, 0.0, 0.0, -4204.229021576527, 0.0]
['beep', 0.0, 1228.5636339859527, 0.0, 0.0, 0.0, 0.0, -4217.260088593971, 0.0]
['beep', 0.0, 1296.423530152265, 0.0, 0.0, 0.0, 0.0, -4173.897704350675, 0.0]
['beep', 0.0, 1315.6907338727397, 0.0, 0.0, 0.0, 0.0, -4129.909471262631, 0.0]
['beep', 0.0, 1255.363375587866, 0.0, 0.0, 0.0, 0.0, -4160.978396055508, 0.0]
['beep', 0.0, 1205.071950563425, 0.0, 0.0, 0.0, 0.0, -4224.233832864026, 0.0]
['beep', 0.0, 1236.4761515231314, 0.0, 0.0, 0.0, 0.0, -4231.833425978831, 0.0]
['beep', 0.0, 1306.2582977126, 0.0, 0.0, 0.0, 0.0, -4187.465213235047, 0.0]
['beep', 0.0, 1328.6547456568178, 0.0, 0.0, 0.0, 0.0, -4149.91428255013, 0.0]
['beep', 0.0, 1265.6004745483965, 0.0, 0.0, 0.0, 0.0, -4181.810221887854, 0.0]
['beep', 0.0, 1213.5656134564417, 0.0, 0.0, 0.0, 0.0, -4244.797437762909, 0.0]
['beep', 0.0, 1243.651061493285, 0.0, 0.0, 0.0, 0.0, -4256.9120832576855, 0.0]
['beep', 0.0, 1313.3438007049324, 0.0, 0.0, 0.0, 0.0, -4213.16971935865, 0.0]
['beep', 0.0, 1334.3097370040105, 0.0, 0.0, 0.0, 0.0, -4175.2611607624485, 0.0]
['beep', 0.0, 1273.289474641022, 0.0, 0.0, 0.0, 0.0, -4205.056036121373, 0.0]
['beep', 0.0, 1221.0534478489694, 0.0, 0.0, 0.0, 0.0, -4263.572903105367, 0.0]
['beep', 0.0, 1250.2001226186899, 0.0, 0.0, 0.0, 0.0, -4279.576752135366, 0.0]
['beep', 0.0, 1319.6246408968736, 0.0, 0.0, 0.0, 0.0, -4240.751772016499, 0.0]
['beep', 0.0, 1340.903501618326, 0.0, 0.0, 0.0, 0.0, -4203.267896564948, 0.0]
['beep', 0.0, 1278.4303758657427, 0.0, 0.0, 0.0, 0.0, -4232.436923079124, 0.0]
['beep', 0.0, 1224.4509130061763, 0.0, 0.0, 0.0, 0.0, -4299.380397722769, 0.0]
['beep', 0.0, 1251.8988551972932, 0.0, 0.0, 0.0, 0.0, -4312.433816484669, 0.0]
['beep', 0.0, 1322.195091509234, 0.0, 0.0, 0.0, 0.0, -4259.437830381135, 0.0]
['beep', 0.0, 1344.1892080532562, 0.0, 0.0, 0.0, 0.0, -4219.6964287395995, 0.0]
['beep', 0.0, 1281.5596200894856, 0.0, 0.0, 0.0, 0.0, -4249.6030628208, 0.0]
['beep', 0.0, 1227.133122340813, 0.0, 0.0, 0.0, 0.0, -4314.244307785548, 0.0]
['beep', 0.0, 1254.8939889543044, 0.0, 0.0, 0.0, 0.0, -4334.092656861861, 0.0]
['beep', 0.0, 1325.3690392218875, 0.0, 0.0, 0.0, 0.0, -4290.059720284906, 0.0]
['beep', 0.0, 1350.447696500742, 0.0, 0.0, 0.0, 0.0, -4247.122019186261, 0.0]
['beep', 0.0, 1288.7568818040945, 0.0, 0.0, 0.0, 0.0, -4278.034481767951, 0.0]
['beep', 0.0, 1235.0232881335364, 0.0, 0.0, 0.0, 0.0, -4338.8535784308415, 0.0]
['beep', 0.0, 1261.5101053130752, 0.0, 0.0, 0.0, 0.0, -4353.315157093425, 0.0]
['beep', 0.0, 1329.9287950907703, 0.0, 0.0, 0.0, 0.0, -4303.80604312492, 0.0]
['beep', 0.0, 1350.7829726675718, 0.0, 0.0, 0.0, 0.0, -4258.052022224906, 0.0]
['beep', 0.0, 1286.1864311917343, 0.0, 0.0, 0.0, 0.0, -4285.254095227015, 0.0]
['beep', 0.0, 1229.0330206195142, 0.0, 0.0, 0.0, 0.0, -4347.771924468509, 0.0]
['beep', 0.0, 1255.005747676581, 0.0, 0.0, 0.0, 0.0, -4363.865180476329, 0.0]
['beep', 0.0, 1324.0279345545691, 0.0, 0.0, 0.0, 0.0, -4320.636906699766, 0.0]
['beep', 0.0, 1348.547798222041, 0.0, 0.0, 0.0, 0.0, -4274.860534055297, 0.0]
['beep', 0.0, 1287.7063498146952, 0.0, 0.0, 0.0, 0.0, -4298.195755266637, 0.0]
['beep', 0.0, 1233.8162939329497, 0.0, 0.0, 0.0, 0.0, -4357.8749129623075, 0.0]
['beep', 0.0, 1258.5596750449747, 0.0, 0.0, 0.0, 0.0, -4372.269436391525, 0.0]
['beep', 0.0, 1326.486626444653, 0.0, 0.0, 0.0, 0.0, -4327.767113181008, 0.0]
['beep', 0.0, 1352.6828709462727, 0.0, 0.0, 0.0, 0.0, -4283.5106591595, 0.0]
['beep', 0.0, 1290.6567800827956, 0.0, 0.0, 0.0, 0.0, -4307.181156537671, 0.0]
['beep', 0.0, 1233.7715904440392, 0.0, 0.0, 0.0, 0.0, -4365.876837477307, 0.0]
['beep', 0.0, 1258.8949512118045, 0.0, 0.0, 0.0, 0.0, -4382.461831863146, 0.0]
['beep', 0.0, 1327.157178778312, 0.0, 0.0, 0.0, 0.0, -4334.651450473243, 0.0]
['beep', 0.0, 1351.5876354679629, 0.0, 0.0, 0.0, 0.0, -4288.3162842173915, 0.0]
['beep', 0.0, 1291.5284981165528, 0.0, 0.0, 0.0, 0.0, -4311.0927118173495, 0.0]
['beep', 0.0, 1233.391610788299, 0.0, 0.0, 0.0, 0.0, -4371.48712533559, 0.0]
['beep', 0.0, 1257.7997157334944, 0.0, 0.0, 0.0, 0.0, -4385.9934074870835, 0.0]
['beep', 0.0, 1327.6042136674182, 0.0, 0.0, 0.0, 0.0, -4341.781656954487, 0.0]
['beep', 0.0, 1353.1746093242896, 0.0, 0.0, 0.0, 0.0, -4293.680702886665, 0.0]
['beep', 0.0, 1292.6907888282287, 0.0, 0.0, 0.0, 0.0, -4311.226822284081, 0.0]
['beep', 0.0, 1235.805599189472, 0.0, 0.0, 0.0, 0.0, -4370.391889857279, 0.0]
['beep', 0.0, 1258.9173029562596, 0.0, 0.0, 0.0, 0.0, -4386.239276676092, 0.0]
['beep', 0.0, 1327.648917156329, 0.0, 0.0, 0.0, 0.0, -4342.899244177252, 0.0]
['beep', 0.0, 1353.6216442133957, 0.0, 0.0, 0.0, 0.0, -4295.13356627626, 0.0]
['beep', 0.0, 1293.8530795399047, 0.0, 0.0, 0.0, 0.0, -4312.433816484669, 0.0]
['beep', 0.0, 1236.1408753563019, 0.0, 0.0, 0.0, 0.0, -4376.3598056268465, 0.0]
['beep', 0.0, 1258.3808610893323, 0.0, 0.0, 0.0, 0.0, -4393.078910479416, 0.0]
['beep', 0.0, 1325.190225266245, 0.0, 0.0, 0.0, 0.0, -4342.474561032601, 0.0]
['beep', 0.0, 1351.3641180234097, 0.0, 0.0, 0.0, 0.0, -4295.312380231903, 0.0]
['beep', 0.0, 1292.4002161503097, 0.0, 0.0, 0.0, 0.0, -4318.267621787503, 0.0]
['beep', 0.0, 1234.3527357998773, 0.0, 0.0, 0.0, 0.0, -4376.493916093578, 0.0]
['beep', 0.0, 1255.7657069880613, 0.0, 0.0, 0.0, 0.0, -4390.5084598670555, 0.0]
['beep', 0.0, 1325.8831293443598, 0.0, 0.0, 0.0, 0.0, -4346.542578523467, 0.0]
['beep', 0.0, 1354.515713991608, 0.0, 0.0, 0.0, 0.0, -4298.151051777727, 0.0]
['beep', 0.0, 1294.3224661734662, 0.0, 0.0, 0.0, 0.0, -4315.943040364152, 0.0]
['beep', 0.0, 1235.8279509339275, 0.0, 0.0, 0.0, 0.0, -4376.382157371301, 0.0]
['beep', 0.0, 1257.9785296891368, 0.0, 0.0, 0.0, 0.0, -4391.648398834276, 0.0]
['beep', 0.0, 1327.0454200560357, 0.0, 0.0, 0.0, 0.0, -4346.184950612182, 0.0]
['beep', 0.0, 1357.0191093706023, 0.0, 0.0, 0.0, 0.0, -4298.1734035221825, 0.0]
['beep', 0.0, 1295.909440029793, 0.0, 0.0, 0.0, 0.0, -4319.407560754724, 0.0]
['beep', 0.0, 1236.9231864122376, 0.0, 0.0, 0.0, 0.0, -4379.421994617223, 0.0]
['beep', 0.0, 1258.0455849225027, 0.0, 0.0, 0.0, 0.0, -4396.923410525729, 0.0]
['beep', 0.0, 1326.6877921447508, 0.0, 0.0, 0.0, 0.0, -4351.728183237098, 0.0]
['beep', 0.0, 1356.2815018035772, 0.0, 0.0, 0.0, 0.0, -4297.100519788328, 0.0]
['beep', 0.0, 1297.2505446971113, 0.0, 0.0, 0.0, 0.0, -4313.32788626288, 0.0]
['beep', 0.0, 1236.8784829233268, 0.0, 0.0, 0.0, 0.0, -4373.990520714584, 0.0]
['beep', 0.0, 1257.0844599109246, 0.0, 0.0, 0.0, 0.0, -4393.369483157335, 0.0]
['beep', 0.0, 1325.2796322440663, 0.0, 0.0, 0.0, 0.0, -4348.800104713453, 0.0]
['beep', 0.0, 1355.4321355142756, 0.0, 0.0, 0.0, 0.0, -4299.670970400688, 0.0]
['beep', 0.0, 1295.8870882853375, 0.0, 0.0, 0.0, 0.0, -4316.837110142364, 0.0]
['beep', 0.0, 1235.9844131451146, 0.0, 0.0, 0.0, 0.0, -4375.555142826455, 0.0]
['beep', 0.0, 1255.7880587325167, 0.0, 0.0, 0.0, 0.0, -4395.694064580687, 0.0]
['beep', 0.0, 1322.0833327869575, 0.0, 0.0, 0.0, 0.0, -4351.795238470464, 0.0]
['beep', 0.0, 1351.9899668681583, 0.0, 0.0, 0.0, 0.0, -4300.743854134543, 0.0]
['beep', 0.0, 1293.87543128436, 0.0, 0.0, 0.0, 0.0, -4314.154900807726, 0.0]
['beep', 0.0, 1233.9504043996817, 0.0, 0.0, 0.0, 0.0, -4371.978863713606, 0.0]
['beep', 0.0, 1254.5363610430195, 0.0, 0.0, 0.0, 0.0, -4390.642570333787, 0.0]
['beep', 0.0, 1322.3292019759658, 0.0, 0.0, 0.0, 0.0, -4347.749572724053, 0.0]
['beep', 0.0, 1351.7664494236053, 0.0, 0.0, 0.0, 0.0, -4296.072339543383, 0.0]
['beep', 0.0, 1295.2388876961336, 0.0, 0.0, 0.0, 0.0, -4313.573755451889, 0.0]
['beep', 0.0, 1236.1408753563019, 0.0, 0.0, 0.0, 0.0, -4375.733956782098, 0.0]
['beep', 0.0, 1256.4139075772653, 0.0, 0.0, 0.0, 0.0, -4395.58230585841, 0.0]
['beep', 0.0, 1324.2961554880328, 0.0, 0.0, 0.0, 0.0, -4353.0022326710505, 0.0]
['beep', 0.0, 1355.834466914471, 0.0, 0.0, 0.0, 0.0, -4307.359970493313, 0.0]
['beep', 0.0, 1298.3681319198768, 0.0, 0.0, 0.0, 0.0, -4327.722409692098, 0.0]
['beep', 0.0, 1236.3643928008548, 0.0, 0.0, 0.0, 0.0, -4390.0390732334945, 0.0]
['beep', 0.0, 1256.3021488549887, 0.0, 0.0, 0.0, 0.0, -4408.1216344978375, 0.0]
['beep', 0.0, 1324.0279345545691, 0.0, 0.0, 0.0, 0.0, -4366.636796788788, 0.0]
['beep', 0.0, 1355.2980250475437, 0.0, 0.0, 0.0, 0.0, -4317.731179920576, 0.0]
['beep', 0.0, 1300.2680301985777, 0.0, 0.0, 0.0, 0.0, -4334.874967917796, 0.0]
['beep', 0.0, 1239.583044002419, 0.0, 0.0, 0.0, 0.0, -4399.359750671358, 0.0]
['beep', 0.0, 1257.5314948000307, 0.0, 0.0, 0.0, 0.0, -4412.033189777517, 0.0]
['beep', 0.0, 1326.4642747001976, 0.0, 0.0, 0.0, 0.0, -4359.059555418438, 0.0]
['beep', 0.0, 1358.5390279935632, 0.0, 0.0, 0.0, 0.0, -4311.405636239724, 0.0]
['beep', 0.0, 1302.2349837106449, 0.0, 0.0, 0.0, 0.0, -4327.320078291903, 0.0]
['beep', 0.0, 1240.0300788915251, 0.0, 0.0, 0.0, 0.0, -4388.139174954793, 0.0]
['beep', 0.0, 1256.39155583281, 0.0, 0.0, 0.0, 0.0, -4410.021532776539, 0.0]
['beep', 0.0, 1323.1338647763569, 0.0, 0.0, 0.0, 0.0, -4365.921540966218, 0.0]
['beep', 0.0, 1355.2756733030885, 0.0, 0.0, 0.0, 0.0, -4316.121854319794, 0.0]
['beep', 0.0, 1300.9162307877816, 0.0, 0.0, 0.0, 0.0, -4329.823473670897, 0.0]
['beep', 0.0, 1238.7336777131175, 0.0, 0.0, 0.0, 0.0, -4390.0390732334945, 0.0]
['beep', 0.0, 1253.9999191760921, 0.0, 0.0, 0.0, 0.0, -4409.686256609709, 0.0]
['beep', 0.0, 1322.7538851206166, 0.0, 0.0, 0.0, 0.0, -4365.474506077112, 0.0]
['beep', 0.0, 1356.7955919260494, 0.0, 0.0, 0.0, 0.0, -4316.412426997713, 0.0]
['beep', 0.0, 1301.4079691657985, 0.0, 0.0, 0.0, 0.0, -4331.47750276059, 0.0]
['beep', 0.0, 1237.258462579067, 0.0, 0.0, 0.0, 0.0, -4387.91565751024, 0.0]
['beep', 0.0, 1253.1282011423352, 0.0, 0.0, 0.0, 0.0, -4409.820367076441, 0.0]
['beep', 0.0, 1321.3904287088428, 0.0, 0.0, 0.0, 0.0, -4365.563913054933, 0.0]
['beep', 0.0, 1355.2086180697224, 0.0, 0.0, 0.0, 0.0, -4313.529051962978, 0.0]
['beep', 0.0, 1300.7150650876838, 0.0, 0.0, 0.0, 0.0, -4328.594127725855, 0.0]
['beep', 0.0, 1239.3148230689553, 0.0, 0.0, 0.0, 0.0, -4389.212058688648, 0.0]
['beep', 0.0, 1254.6257680208407, 0.0, 0.0, 0.0, 0.0, -4410.625029876832, 0.0]
['beep', 0.0, 1322.4633124426978, 0.0, 0.0, 0.0, 0.0, -4365.34039561038, 0.0]
['beep', 0.0, 1355.7674116811052, 0.0, 0.0, 0.0, 0.0, -4316.367723508803, 0.0]
['beep', 0.0, 1301.7208935881727, 0.0, 0.0, 0.0, 0.0, -4327.968278881107, 0.0]
['beep', 0.0, 1241.2817765810223, 0.0, 0.0, 0.0, 0.0, -4386.060462720449, 0.0]
['beep', 0.0, 1256.458611066176, 0.0, 0.0, 0.0, 0.0, -4406.512308897056, 0.0]
['beep', 0.0, 1323.4914926876418, 0.0, 0.0, 0.0, 0.0, -4368.96137821214, 0.0]
['beep', 0.0, 1359.5225047495967, 0.0, 0.0, 0.0, 0.0, -4317.32884852038, 0.0]
['beep', 0.0, 1305.8559663124045, 0.0, 0.0, 0.0, 0.0, -4328.5717759814, 0.0]
['beep', 0.0, 1242.1087911258687, 0.0, 0.0, 0.0, 0.0, -4389.234410433103, 0.0]
['beep', 0.0, 1255.4304308212318, 0.0, 0.0, 0.0, 0.0, -4406.44525366369, 0.0]
['beep', 0.0, 1324.5867281659519, 0.0, 0.0, 0.0, 0.0, -4361.518247308522, 0.0]
['beep', 0.0, 1359.9248361497923, 0.0, 0.0, 0.0, 0.0, -4310.936249606162, 0.0]
['beep', 0.0, 1306.0571320125023, 0.0, 0.0, 0.0, 0.0, -4329.219976570604, 0.0]
['beep', 0.0, 1241.617052747852, 0.0, 0.0, 0.0, 0.0, -4391.357826156357, 0.0]
['beep', 0.0, 1255.810410476972, 0.0, 0.0, 0.0, 0.0, -4412.033189777517, 0.0]
['beep', 0.0, 1323.9832310656586, 0.0, 0.0, 0.0, 0.0, -4372.515305580533, 0.0]
['beep', 0.0, 1359.3660425384096, 0.0, 0.0, 0.0, 0.0, -4317.261793287014, 0.0]
['beep', 0.0, 1306.3030012015106, 0.0, 0.0, 0.0, 0.0, -4325.107255590828, 0.0]
['beep', 0.0, 1243.5393027710084, 0.0, 0.0, 0.0, 0.0, -4385.9934074870835, 0.0]
['beep', 0.0, 1256.7268319996397, 0.0, 0.0, 0.0, 0.0, -4407.674599608731, 0.0]
['beep', 0.0, 1323.3126787319993, 0.0, 0.0, 0.0, 0.0, -4366.05565143295, 0.0]
['beep', 0.0, 1359.5225047495967, 0.0, 0.0, 0.0, 0.0, -4316.61359269781, 0.0]
['beep', 0.0, 1305.744207590128, 0.0, 0.0, 0.0, 0.0, -4329.7564184375315, 0.0]
['beep', 0.0, 1241.5723492589414, 0.0, 0.0, 0.0, 0.0, -4387.0439394764835, 0.0]
['beep', 0.0, 1254.6257680208407, 0.0, 0.0, 0.0, 0.0, -4409.619201376343, 0.0]
['beep', 0.0, 1321.3457252199323, 0.0, 0.0, 0.0, 0.0, -4367.307349122447, 0.0]
['beep', 0.0, 1358.5390279935632, 0.0, 0.0, 0.0, 0.0, -4315.116025819305, 0.0]
['beep', 0.0, 1306.481815157153, 0.0, 0.0, 0.0, 0.0, -4328.23649981457, 0.0]
['beep', 0.0, 1243.1816748597234, 0.0, 0.0, 0.0, 0.0, -4386.552201098466, 0.0]
['beep', 0.0, 1254.6257680208407, 0.0, 0.0, 0.0, 0.0, -4406.914640297251, 0.0]
['beep', 0.0, 1322.0386292980468, 0.0, 0.0, 0.0, 0.0, -4364.043994431972, 0.0]
['beep', 0.0, 1358.9637111382142, 0.0, 0.0, 0.0, 0.0, -4313.953735107629, 0.0]
['beep', 0.0, 1305.520690145575, 0.0, 0.0, 0.0, 0.0, -4329.71171494862, 0.0]
['beep', 0.0, 1242.4440672926985, 0.0, 0.0, 0.0, 0.0, -4387.021587732028, 0.0]
['beep', 0.0, 1255.0280994210364, 0.0, 0.0, 0.0, 0.0, -4403.897154795784, 0.0]
['beep', 0.0, 1322.2174432536892, 0.0, 0.0, 0.0, 0.0, -4362.3899653422795, 0.0]
['beep', 0.0, 1358.874304160393, 0.0, 0.0, 0.0, 0.0, -4312.5679269514, 0.0]
['beep', 0.0, 1309.387541936343, 0.0, 0.0, 0.0, 0.0, -4324.973145124095, 0.0]
['beep', 0.0, 1243.5616545154637, 0.0, 0.0, 0.0, 0.0, -4384.853468519863, 0.0]
['beep', 0.0, 1254.2234366206453, 0.0, 0.0, 0.0, 0.0, -4405.685294352209, 0.0]
['beep', 0.0, 1322.709181631706, 0.0, 0.0, 0.0, 0.0, -4365.653320032754, 0.0]
['beep', 0.0, 1359.4554495162308, 0.0, 0.0, 0.0, 0.0, -4315.496005475045, 0.0]
['beep', 0.0, 1312.9414693047368, 0.0, 0.0, 0.0, 0.0, -4323.833206156874, 0.0]
['beep', 0.0, 1251.2059511191787, 0.0, 0.0, 0.0, 0.0, -4381.813631273942, 0.0]
['beep', 0.0, 1262.493582069109, 0.0, 0.0, 0.0, 0.0, -4406.713474597153, 0.0]
['beep', 0.0, 1333.0580393145133, 0.0, 0.0, 0.0, 0.0, -4365.429802588201, 0.0]
['beep', 0.0, 1376.5545340245408, 0.0, 0.0, 0.0, 0.0, -4312.813796140408, 0.0]
['beep', 0.0, 1325.2349287551558, 0.0, 0.0, 0.0, 0.0, -4321.374514266791, 0.0]
['beep', 0.0, 1260.5042768125866, 0.0, 0.0, 0.0, 0.0, -4375.532791082, 0.0]
['beep', 0.0, 1268.4614978386758, 0.0, 0.0, 0.0, 0.0, -4398.465680893145, 0.0]
['beep', 0.0, 1334.287385259555, 0.0, 0.0, 0.0, 0.0, -4359.908921707741, 0.0]
['beep', 0.0, 1374.386414812376, 0.0, 0.0, 0.0, 0.0, -4308.321095504892, 0.0]
['beep', 0.0, 1325.257280499611, 0.0, 0.0, 0.0, 0.0, -4318.222918298593, 0.0]
['beep', 0.0, 1258.6267302783408, 0.0, 0.0, 0.0, 0.0, -4377.209171916148, 0.0]
['beep', 0.0, 1267.5897798049189, 0.0, 0.0, 0.0, 0.0, -4402.466643150645, 0.0]
['beep', 0.0, 1334.6897166597507, 0.0, 0.0, 0.0, 0.0, -4365.899189221763, 0.0]
['beep', 0.0, 1372.8217927005044, 0.0, 0.0, 0.0, 0.0, -4310.4445112281455, 0.0]
['beep', 0.0, 1324.0279345545691, 0.0, 0.0, 0.0, 0.0, -4316.2559647865255, 0.0]
['beep', 0.0, 1259.0290616785362, 0.0, 0.0, 0.0, 0.0, -4376.0692329489275, 0.0]
['beep', 0.0, 1265.9581024596814, 0.0, 0.0, 0.0, 0.0, -4401.706683839165, 0.0]
['beep', 0.0, 1332.678059658773, 0.0, 0.0, 0.0, 0.0, -4365.452154332656, 0.0]
['beep', 0.0, 1371.9724264112028, 0.0, 0.0, 0.0, 0.0, -4308.008171082517, 0.0]
['beep', 0.0, 1324.4749694436753, 0.0, 0.0, 0.0, 0.0, -4311.182118795171, 0.0]
['beep', 0.0, 1257.7997157334944, 0.0, 0.0, 0.0, 0.0, -4374.638721303788, 0.0]
['beep', 0.0, 1266.7851170045278, 0.0, 0.0, 0.0, 0.0, -4400.991428016595, 0.0]
['beep', 0.0, 1332.2533765141222, 0.0, 0.0, 0.0, 0.0, -4364.043994431972, 0.0]
['beep', 0.0, 1372.6653304893173, 0.0, 0.0, 0.0, 0.0, -4311.249174028537, 0.0]
['beep', 0.0, 1324.2514519991223, 0.0, 0.0, 0.0, 0.0, -4313.864328129808, 0.0]
['beep', 0.0, 1257.3079773554775, 0.0, 0.0, 0.0, 0.0, -4375.935122482196, 0.0]
['beep', 0.0, 1265.645178037307, 0.0, 0.0, 0.0, 0.0, -4400.410282660757, 0.0]
['beep', 0.0, 1332.2310247696669, 0.0, 0.0, 0.0, 0.0, -4360.199494385659, 0.0]
['beep', 0.0, 1373.4252898007978, 0.0, 0.0, 0.0, 0.0, -4306.600011181833, 0.0]
['beep', 0.0, 1327.1124752894016, 0.0, 0.0, 0.0, 0.0, -4314.289011274459, 0.0]
['beep', 0.0, 1260.3701663458546, 0.0, 0.0, 0.0, 0.0, -4373.163506169737, 0.0]
['beep', 0.0, 1267.1874484047232, 0.0, 0.0, 0.0, 0.0, -4403.226602462126, 0.0]
['beep', 0.0, 1333.2145015257004, 0.0, 0.0, 0.0, 0.0, -4362.904055464752, 0.0]
['beep', 0.0, 1374.6099322569291, 0.0, 0.0, 0.0, 0.0, -4306.197679781638, 0.0]
['beep', 0.0, 1326.7324956336613, 0.0, 0.0, 0.0, 0.0, -4314.244307785548, 0.0]
['beep', 0.0, 1261.2195326351564, 0.0, 0.0, 0.0, 0.0, -4376.113936437838, 0.0]
['beep', 0.0, 1267.880352482838, 0.0, 0.0, 0.0, 0.0, -4404.098320495882, 0.0]
['beep', 0.0, 1332.83452186996, 0.0, 0.0, 0.0, 0.0, -4360.24419787457, 0.0]
['beep', 0.0, 1374.4311183012867, 0.0, 0.0, 0.0, 0.0, -4301.950848335129, 0.0]
['beep', 0.0, 1328.3865247233541, 0.0, 0.0, 0.0, 0.0, -4309.393979238746, 0.0]
['beep', 0.0, 1261.6442157798072, 0.0, 0.0, 0.0, 0.0, -4369.229599145603, 0.0]
['beep', 0.0, 1268.4838495831311, 0.0, 0.0, 0.0, 0.0, -4397.236334948103, 0.0]
['beep', 0.0, 1333.1697980367896, 0.0, 0.0, 0.0, 0.0, -4363.261683376037, 0.0]
['beep', 0.0, 1376.6662927468174, 0.0, 0.0, 0.0, 0.0, -4311.115063561805, 0.0]
['beep', 0.0, 1332.8121701255047, 0.0, 0.0, 0.0, 0.0, -4316.702999675632, 0.0]
['beep', 0.0, 1263.8346867364273, 0.0, 0.0, 0.0, 0.0, -4377.410337616246, 0.0]
['beep', 0.0, 1269.9143612282708, 0.0, 0.0, 0.0, 0.0, -4405.059445507461, 0.0]
['beep', 0.0, 1337.4836847166641, 0.0, 0.0, 0.0, 0.0, -4363.775773498509, 0.0]
['beep', 0.0, 1378.5214875366078, 0.0, 0.0, 0.0, 0.0, -4308.276392015981, 0.0]
['beep', 0.0, 1330.3311264909657, 0.0, 0.0, 0.0, 0.0, -4309.170461794193, 0.0]
['beep', 0.0, 1259.811372734472, 0.0, 0.0, 0.0, 0.0, -4368.134363667294, 0.0]
['beep', 0.0, 1263.8793902253378, 0.0, 0.0, 0.0, 0.0, -4396.409320403257, 0.0]
['beep', 0.0, 1328.095952045435, 0.0, 0.0, 0.0, 0.0, -4361.540599052978, 0.0]
['beep', 0.0, 1371.2348188441777, 0.0, 0.0, 0.0, 0.0, -4305.594182681344, 0.0]
['beep', 0.0, 1328.3865247233541, 0.0, 0.0, 0.0, 0.0, -4311.651505428732, 0.0]
['beep', 0.0, 1259.9007797122931, 0.0, 0.0, 0.0, 0.0, -4372.939988725185, 0.0]
['beep', 0.0, 1263.7899832475166, 0.0, 0.0, 0.0, 0.0, -4401.594925116888, 0.0]
['beep', 0.0, 1329.4370567127535, 0.0, 0.0, 0.0, 0.0, -4363.373442098313, 0.0]
['beep', 0.0, 1373.514696778619, 0.0, 0.0, 0.0, 0.0, -4305.974162337085, 0.0]
['beep', 0.0, 1329.2135392682003, 0.0, 0.0, 0.0, 0.0, -4310.310400761414, 0.0]
['beep', 0.0, 1260.616035534863, 0.0, 0.0, 0.0, 0.0, -4367.284997377992, 0.0]
['beep', 0.0, 1266.3827856043322, 0.0, 0.0, 0.0, 0.0, -4394.844698291386, 0.0]
['beep', 0.0, 1330.6887544022507, 0.0, 0.0, 0.0, 0.0, -4360.9818054415955, 0.0]
['beep', 0.0, 1369.0666996320128, 0.0, 0.0, 0.0, 0.0, -4304.767168136498, 0.0]
['beep', 0.0, 1322.8656438428932, 0.0, 0.0, 0.0, 0.0, -4306.354141992824, 0.0]
['beep', 0.0, 1252.4129453197654, 0.0, 0.0, 0.0, 0.0, -4365.34039561038, 0.0]
['beep', 0.0, 1253.3517185868882, 0.0, 0.0, 0.0, 0.0, -4395.269381436036, 0.0]
['beep', 0.0, 1316.9871350511473, 0.0, 0.0, 0.0, 0.0, -4361.026508930506, 0.0]
['beep', 0.0, 1362.7858594400716, 0.0, 0.0, 0.0, 0.0, -4306.242383270548, 0.0]
['beep', 0.0, 1317.8812048293598, 0.0, 0.0, 0.0, 0.0, -4309.304572260925, 0.0]
['beep', 0.0, 1247.3167475839552, 0.0, 0.0, 0.0, 0.0, -4370.570703812922, 0.0]
['beep', 0.0, 1250.1554191297794, 0.0, 0.0, 0.0, 0.0, -4398.622143104332, 0.0]
['beep', 0.0, 1314.8190158389828, 0.0, 0.0, 0.0, 0.0, -4364.20045664316, 0.0]
['beep', 0.0, 1360.5953884834514, 0.0, 0.0, 0.0, 0.0, -4305.080092558872, 0.0]
['beep', 0.0, 1318.7305711186614, 0.0, 0.0, 0.0, 0.0, -4308.23168852707, 0.0]
['beep', 0.0, 1248.5460935289973, 0.0, 0.0, 0.0, 0.0, -4369.676634034709, 0.0]
['beep', 0.0, 1252.1223726418464, 0.0, 0.0, 0.0, 0.0, -4390.754329056064, 0.0]
['beep', 0.0, 1316.875376328871, 0.0, 0.0, 0.0, 0.0, -4354.8797792052965, 0.0]
['beep', 0.0, 1361.9141414063147, 0.0, 0.0, 0.0, 0.0, -4301.682627401666, 0.0]
['beep', 0.0, 1318.2164809961894, 0.0, 0.0, 0.0, 0.0, -4305.482423959068, 0.0]
['beep', 0.0, 1250.1107156408686, 0.0, 0.0, 0.0, 0.0, -4368.134363667294, 0.0]
['beep', 0.0, 1251.3177098414553, 0.0, 0.0, 0.0, 0.0, -4401.036131505505, 0.0]
['beep', 0.0, 1315.9813065506587, 0.0, 0.0, 0.0, 0.0, -4362.948758953662, 0.0]
['beep', 0.0, 1362.741155951161, 0.0, 0.0, 0.0, 0.0, -4303.940153591651, 0.0]
['beep', 0.0, 1321.032800797558, 0.0, 0.0, 0.0, 0.0, -4307.494080960046, 0.0]
['beep', 0.0, 1249.0825353959247, 0.0, 0.0, 0.0, 0.0, -4363.708718265142, 0.0]
['beep', 0.0, 1251.004785419081, 0.0, 0.0, 0.0, 0.0, -4393.369483157335, 0.0]
['beep', 0.0, 1315.35545770591, 0.0, 0.0, 0.0, 0.0, -4358.612520529333, 0.0]
['beep', 0.0, 1361.1094786059236, 0.0, 0.0, 0.0, 0.0, -4304.431891969668, 0.0]
['beep', 0.0, 1319.289364730044, 0.0, 0.0, 0.0, 0.0, -4311.249174028537, 0.0]
['beep', 0.0, 1250.6248057633409, 0.0, 0.0, 0.0, 0.0, -4366.2121136441365, 0.0]
['beep', 0.0, 1251.2059511191787, 0.0, 0.0, 0.0, 0.0, -4390.553163355967, 0.0]
['beep', 0.0, 1315.064885027991, 0.0, 0.0, 0.0, 0.0, -4358.456058318146, 0.0]
['beep', 0.0, 1361.3776995393873, 0.0, 0.0, 0.0, 0.0, -4304.208374525115, 0.0]
['beep', 0.0, 1321.4127804532982, 0.0, 0.0, 0.0, 0.0, -4305.124796047783, 0.0]
['beep', 0.0, 1251.2059511191787, 0.0, 0.0, 0.0, 0.0, -4365.027471188006, 0.0]
['beep', 0.0, 1251.6976894971956, 0.0, 0.0, 0.0, 0.0, -4397.526907626022, 0.0]
['beep', 0.0, 1314.5731466499742, 0.0, 0.0, 0.0, 0.0, -4364.2675118765255, 0.0]
['beep', 0.0, 1361.9141414063147, 0.0, 0.0, 0.0, 0.0, -4312.746740907042, 0.0]
['beep', 0.0, 1321.457483942209, 0.0, 0.0, 0.0, 0.0, -4304.878926858774, 0.0]
['beep', 0.0, 1251.228302863634, 0.0, 0.0, 0.0, 0.0, -4358.1654856402265, 0.0]
['beep', 0.0, 1250.8036197189833, 0.0, 0.0, 0.0, 0.0, -4391.290770922991, 0.0]
['beep', 0.0, 1315.2660507280889, 0.0, 0.0, 0.0, 0.0, -4356.24323561707, 0.0]
['beep', 0.0, 1362.8752664178928, 0.0, 0.0, 0.0, 0.0, -4301.839089612852, 0.0]
['beep', 0.0, 1322.9774025651698, 0.0, 0.0, 0.0, 0.0, -4306.912935604208, 0.0]
['beep', 0.0, 1251.5188755415531, 0.0, 0.0, 0.0, 0.0, -4362.032337430995, 0.0]
['beep', 0.0, 1250.1554191297794, 0.0, 0.0, 0.0, 0.0, -4392.207192445659, 0.0]
['beep', 0.0, 1314.7966640945274, 0.0, 0.0, 0.0, 0.0, -4359.551293796456, 0.0]
['beep', 0.0, 1362.741155951161, 0.0, 0.0, 0.0, 0.0, -4303.426063469179, 0.0]
['beep', 0.0, 1323.4020857098205, 0.0, 0.0, 0.0, 0.0, -4303.113139046805, 0.0]
['beep', 0.0, 1252.1223726418464, 0.0, 0.0, 0.0, 0.0, -4364.558084554445, 0.0]
['beep', 0.0, 1251.2730063525446, 0.0, 0.0, 0.0, 0.0, -4397.01281750355, 0.0]
['beep', 0.0, 1313.9025943163151, 0.0, 0.0, 0.0, 0.0, -4365.429802588201, 0.0]
['beep', 0.0, 1362.9199699068035, 0.0, 0.0, 0.0, 0.0, -4311.740912406553, 0.0]
['beep', 0.0, 1323.066809542991, 0.0, 0.0, 0.0, 0.0, -4303.068435557894, 0.0]
['beep', 0.0, 1252.3458900863993, 0.0, 0.0, 0.0, 0.0, -4354.700965249654, 0.0]
['beep', 0.0, 1250.6695092522514, 0.0, 0.0, 0.0, 0.0, -4389.234410433103, 0.0]
['beep', 0.0, 1313.679076871762, 0.0, 0.0, 0.0, 0.0, -4360.668881019221, 0.0]
['beep', 0.0, 1361.064775117013, 0.0, 0.0, 0.0, 0.0, -4306.667066415199, 0.0]
['beep', 0.0, 1324.094989787935, 0.0, 0.0, 0.0, 0.0, -4302.7555111355205, 0.0]
['beep', 0.0, 1253.7987534759943, 0.0, 0.0, 0.0, 0.0, -4362.009985686539, 0.0]
['beep', 0.0, 1250.0436604075028, 0.0, 0.0, 0.0, 0.0, -4392.900096523774, 0.0]
['beep', 0.0, 1311.9356408042481, 0.0, 0.0, 0.0, 0.0, -4360.713584508131, 0.0]
['beep', 0.0, 1362.6293972288845, 0.0, 0.0, 0.0, 0.0, -4308.432854227168, 0.0]
['beep', 0.0, 1324.1173415323904, 0.0, 0.0, 0.0, 0.0, -4309.237517027559, 0.0]
['beep', 0.0, 1253.2176081201565, 0.0, 0.0, 0.0, 0.0, -4361.697061264165, 0.0]
['beep', 0.0, 1249.9319016852262, 0.0, 0.0, 0.0, 0.0, -4390.530811611511, 0.0]
['beep', 0.0, 1311.8015303375162, 0.0, 0.0, 0.0, 0.0, -4362.524075809011, 0.0]
['beep', 0.0, 1361.4000512838427, 0.0, 0.0, 0.0, 0.0, -4305.795348381442, 0.0]
['beep', 0.0, 1326.128998533368, 0.0, 0.0, 0.0, 0.0, -4300.453281456624, 0.0]
['beep', 0.0, 1253.1282011423352, 0.0, 0.0, 0.0, 0.0, -4361.853523475352, 0.0]
['beep', 0.0, 1250.4459918076984, 0.0, 0.0, 0.0, 0.0, -4398.577439615422, 0.0]
['beep', 0.0, 1312.8520623269155, 0.0, 0.0, 0.0, 0.0, -4366.078003177405, 0.0]
['beep', 0.0, 1362.0929553619571, 0.0, 0.0, 0.0, 0.0, -4304.633057669766, 0.0]
['beep', 0.0, 1326.2854607445552, 0.0, 0.0, 0.0, 0.0, -4297.771072121986, 0.0]
['beep', 0.0, 1254.9163406987598, 0.0, 0.0, 0.0, 0.0, -4357.00319492855, 0.0]
['beep', 0.0, 1249.328404584933, 0.0, 0.0, 0.0, 0.0, -4392.497765123578, 0.0]
['beep', 0.0, 1311.2427367261334, 0.0, 0.0, 0.0, 0.0, -4362.0993926643605, 0.0]
['beep', 0.0, 1361.93649315077, 0.0, 0.0, 0.0, 0.0, -4306.42119722619, 0.0]
['beep', 0.0, 1325.3019839885217, 0.0, 0.0, 0.0, 0.0, -4303.068435557894, 0.0]
['beep', 0.0, 1253.1282011423352, 0.0, 0.0, 0.0, 0.0, -4362.0993926643605, 0.0]
['beep', 0.0, 1247.7414307286062, 0.0, 0.0, 0.0, 0.0, -4397.929239026218, 0.0]
['beep', 0.0, 1309.5663558919855, 0.0, 0.0, 0.0, 0.0, -4364.066346176427, 0.0]
['beep', 0.0, 1361.6012169839403, 0.0, 0.0, 0.0, 0.0, -4303.515470447001, 0.0]
['beep', 0.0, 1326.4195712112871, 0.0, 0.0, 0.0, 0.0, -4299.581563422867, 0.0]
['beep', 0.0, 1253.776401731539, 0.0, 0.0, 0.0, 0.0, -4360.355956596846, 0.0]
['beep', 0.0, 1248.5907970179078, 0.0, 0.0, 0.0, 0.0, -4394.598829102377, 0.0]
['beep', 0.0, 1310.2816117145553, 0.0, 0.0, 0.0, 0.0, -4364.423974087712, 0.0]
['beep', 0.0, 1361.3106443060212, 0.0, 0.0, 0.0, 0.0, -4311.003304839529, 0.0]
['beep', 0.0, 1326.4195712112871, 0.0, 0.0, 0.0, 0.0, -4303.13549079126, 0.0]
['beep', 0.0, 1254.6704715097515, 0.0, 0.0, 0.0, 0.0, -4357.33847109538, 0.0]
['beep', 0.0, 1247.584968517419, 0.0, 0.0, 0.0, 0.0, -4396.006989003061, 0.0]
['beep', 0.0, 1309.096969258424, 0.0, 0.0, 0.0, 0.0, -4365.2062851436485, 0.0]
['beep', 0.0, 1361.3106443060212, 0.0, 0.0, 0.0, 0.0, -4306.175328037182, 0.0]
['beep', 0.0, 1326.0395915555468, 0.0, 0.0, 0.0, 0.0, -4303.0460838134395, 0.0]
['beep', 0.0, 1254.066974409458, 0.0, 0.0, 0.0, 0.0, -4358.858389718341, 0.0]
['beep', 0.0, 1248.032003406525, 0.0, 0.0, 0.0, 0.0, -4395.068215735939, 0.0]
['beep', 0.0, 1308.2476029691225, 0.0, 0.0, 0.0, 0.0, -4365.34039561038, 0.0]
['beep', 0.0, 1361.1541820948341, 0.0, 0.0, 0.0, 0.0, -4307.337618748858, 0.0]
['beep', 0.0, 1327.648917156329, 0.0, 0.0, 0.0, 0.0, -4300.989723323551, 0.0]
['beep', 0.0, 1253.776401731539, 0.0, 0.0, 0.0, 0.0, -4354.991537927573, 0.0]
['beep', 0.0, 1246.489733039109, 0.0, 0.0, 0.0, 0.0, -4395.269381436036, 0.0]
['beep', 0.0, 1306.7947395795275, 0.0, 0.0, 0.0, 0.0, -4368.8496194898635, 0.0]
['beep', 0.0, 1360.1483535943453, 0.0, 0.0, 0.0, 0.0, -4305.951810592629, 0.0]
['beep', 0.0, 1327.5371584340523, 0.0, 0.0, 0.0, 0.0, -4299.2909907449475, 0.0]
['beep', 0.0, 1253.418773820254, 0.0, 0.0, 0.0, 0.0, -4354.320985593914, 0.0]
['beep', 0.0, 1246.7356022281174, 0.0, 0.0, 0.0, 0.0, -4390.575515100421, 0.0]
['beep', 0.0, 1306.9512017907145, 0.0, 0.0, 0.0, 0.0, -4362.166447897726, 0.0]
['beep', 0.0, 1359.7907256830604, 0.0, 0.0, 0.0, 0.0, -4304.856575114319, 0.0]
['beep', 0.0, 1327.6042136674182, 0.0, 0.0, 0.0, 0.0, -4298.575734922378, 0.0]
['beep', 0.0, 1255.5645412879637, 0.0, 0.0, 0.0, 0.0, -4354.611558271832, 0.0]
['beep', 0.0, 1246.6908987392067, 0.0, 0.0, 0.0, 0.0, -4391.201363945171, 0.0]
['beep', 0.0, 1307.1970709797229, 0.0, 0.0, 0.0, 0.0, -4360.95945369714, 0.0]
['beep', 0.0, 1360.84125767246, 0.0, 0.0, 0.0, 0.0, -4306.75647339302, 0.0]
['beep', 0.0, 1329.4370567127535, 0.0, 0.0, 0.0, 0.0, -4298.575734922378, 0.0]
['beep', 0.0, 1256.972701188648, 0.0, 0.0, 0.0, 0.0, -4355.10329664985, 0.0]
['beep', 0.0, 1248.2555208510782, 0.0, 0.0, 0.0, 0.0, -4394.732939569109, 0.0]
['beep', 0.0, 1308.0464372690246, 0.0, 0.0, 0.0, 0.0, -4364.20045664316, 0.0]
['beep', 0.0, 1359.8801326608816, 0.0, 0.0, 0.0, 0.0, -4303.336656491359, 0.0]
['beep', 0.0, 1329.9511468352255, 0.0, 0.0, 0.0, 0.0, -4291.065548785395, 0.0]
['beep', 0.0, 1257.5985500333966, 0.0, 0.0, 0.0, 0.0, -4347.794276212964, 0.0]
['beep', 0.0, 1247.5402650285084, 0.0, 0.0, 0.0, 0.0, -4391.804861045463, 0.0]
['beep', 0.0, 1307.5323471465526, 0.0, 0.0, 0.0, 0.0, -4367.173238655715, 0.0]
['beep', 0.0, 1361.355347794932, 0.0, 0.0, 0.0, 0.0, -4307.538784448956, 0.0]
['beep', 0.0, 1330.576995679974, 0.0, 0.0, 0.0, 0.0, -4296.362912221302, 0.0]
['beep', 0.0, 1258.2467506226005, 0.0, 0.0, 0.0, 0.0, -4350.543540780966, 0.0]
['beep', 0.0, 1247.652023750785, 0.0, 0.0, 0.0, 0.0, -4388.675616821721, 0.0]
['beep', 0.0, 1305.8336145679493, 0.0, 0.0, 0.0, 0.0, -4359.059555418438, 0.0]
['beep', 0.0, 1360.84125767246, 0.0, 0.0, 0.0, 0.0, -4300.676798901177, 0.0]
['beep', 0.0, 1330.554643935519, 0.0, 0.0, 0.0, 0.0, -4294.03833079795, 0.0]
['beep', 0.0, 1255.5645412879637, 0.0, 0.0, 0.0, 0.0, -4349.157732624738, 0.0]
['beep', 0.0, 1248.814314462461, 0.0, 0.0, 0.0, 0.0, -4387.178049943215, 0.0]
['beep', 0.0, 1312.7626553490943, 0.0, 0.0, 0.0, 0.0, -4360.467715319123, 0.0]
['beep', 0.0, 1367.6585397313286, 0.0, 0.0, 0.0, 0.0, -4306.175328037182, 0.0]
['beep', 0.0, 1341.0599638295132, 0.0, 0.0, 0.0, 0.0, -4294.530069175968, 0.0]
['beep', 0.0, 1270.0484716950027, 0.0, 0.0, 0.0, 0.0, -4347.816627957419, 0.0]
['beep', 0.0, 1259.0067099340808, 0.0, 0.0, 0.0, 0.0, -4390.2178871891365, 0.0]
['beep', 0.0, 1317.5012251736196, 0.0, 0.0, 0.0, 0.0, -4365.116878165827, 0.0]
['beep', 0.0, 1371.0336531440798, 0.0, 0.0, 0.0, 0.0, -4306.085921059361, 0.0]
['beep', 0.0, 1342.423420241287, 0.0, 0.0, 0.0, 0.0, -4294.820641853886, 0.0]
['beep', 0.0, 1268.550904816497, 0.0, 0.0, 0.0, 0.0, -4348.844808202363, 0.0]
['beep', 0.0, 1256.7938872330055, 0.0, 0.0, 0.0, 0.0, -4386.44044237619, 0.0]
['beep', 0.0, 1316.3165827174882, 0.0, 0.0, 0.0, 0.0, -4358.836037973886, 0.0]
['beep', 0.0, 1369.7819554545827, 0.0, 0.0, 0.0, 0.0, -4305.974162337085, 0.0]
['beep', 0.0, 1341.6858126742618, 0.0, 0.0, 0.0, 0.0, -4296.921705832685, 0.0]
['beep', 0.0, 1267.9474077162038, 0.0, 0.0, 0.0, 0.0, -4347.615462257321, 0.0]
['beep', 0.0, 1255.519837799053, 0.0, 0.0, 0.0, 0.0, -4386.663959820743, 0.0]
['beep', 0.0, 1316.3612862063987, 0.0, 0.0, 0.0, 0.0, -4361.205322886148, 0.0]
['beep', 0.0, 1370.5195630216078, 0.0, 0.0, 0.0, 0.0, -4301.570868679389, 0.0]
['beep', 0.0, 1341.5740539519852, 0.0, 0.0, 0.0, 0.0, -4290.216182496093, 0.0]
['beep', 0.0, 1269.2438088946114, 0.0, 0.0, 0.0, 0.0, -4345.983784912084, 0.0]
['beep', 0.0, 1255.877465710338, 0.0, 0.0, 0.0, 0.0, -4386.351035398368, 0.0]
['beep', 0.0, 1313.097931515924, 0.0, 0.0, 0.0, 0.0, -4360.9818054415955, 0.0]
['beep', 0.0, 1368.9772926541916, 0.0, 0.0, 0.0, 0.0, -4306.443548970646, 0.0]
['beep', 0.0, 1343.4739522306863, 0.0, 0.0, 0.0, 0.0, -4291.065548785395, 0.0]
['beep', 0.0, 1269.8026025059942, 0.0, 0.0, 0.0, 0.0, -4341.960470910129, 0.0]
['beep', 0.0, 1256.0786314104357, 0.0, 0.0, 0.0, 0.0, -4386.954532498662, 0.0]
['beep', 0.0, 1314.2155187386893, 0.0, 0.0, 0.0, 0.0, -4367.4414595891785, 0.0]
['beep', 0.0, 1371.100708377446, 0.0, 0.0, 0.0, 0.0, -4306.600011181833, 0.0]
['beep', 0.0, 1345.351498764932, 0.0, 0.0, 0.0, 0.0, -4290.238534240548, 0.0]
['beep', 0.0, 1272.127183929346, 0.0, 0.0, 0.0, 0.0, -4345.715563978621, 0.0]
['beep', 0.0, 1257.3526808443883, 0.0, 0.0, 0.0, 0.0, -4385.0546342199605, 0.0]
['beep', 0.0, 1315.1766437502677, 0.0, 0.0, 0.0, 0.0, -4360.847694974863, 0.0]
['beep', 0.0, 1371.0336531440798, 0.0, 0.0, 0.0, 0.0, -4306.108272803816, 0.0]
['beep', 0.0, 1346.7149551767059, 0.0, 0.0, 0.0, 0.0, -4291.601990652322, 0.0]
['beep', 0.0, 1274.1835444192345, 0.0, 0.0, 0.0, 0.0, -4342.00517439904, 0.0]
['beep', 0.0, 1260.2137041346675, 0.0, 0.0, 0.0, 0.0, -4383.355901641357, 0.0]
['beep', 0.0, 1318.6188123963848, 0.0, 0.0, 0.0, 0.0, -4362.524075809011, 0.0]
['beep', 0.0, 1376.8898101913703, 0.0, 0.0, 0.0, 0.0, -4307.09174955985, 0.0]
['beep', 0.0, 1350.7829726675718, 0.0, 0.0, 0.0, 0.0, -4291.065548785395, 0.0]
['beep', 0.0, 1273.9600269746813, 0.0, 0.0, 0.0, 0.0, -4340.976994154095, 0.0]
['beep', 0.0, 1255.9445209437038, 0.0, 0.0, 0.0, 0.0, -4384.451137119668, 0.0]
['beep', 0.0, 1310.9968675371251, 0.0, 0.0, 0.0, 0.0, -4362.926407209206, 0.0]
['beep', 0.0, 1366.7868216975717, 0.0, 0.0, 0.0, 0.0, -4304.677761158677, 0.0]
['beep', 0.0, 1342.579882452474, 0.0, 0.0, 0.0, 0.0, -4287.8468975838305, 0.0]
['beep', 0.0, 1269.5567333169859, 0.0, 0.0, 0.0, 0.0, -4343.055706388439, 0.0]
['beep', 0.0, 1254.4022505762878, 0.0, 0.0, 0.0, 0.0, -4387.625084832321, 0.0]
['beep', 0.0, 1312.874414071371, 0.0, 0.0, 0.0, 0.0, -4360.95945369714, 0.0]
['beep', 0.0, 1371.7265572221945, 0.0, 0.0, 0.0, 0.0, -4302.062607057405, 0.0]
['beep', 0.0, 1347.0502313435354, 0.0, 0.0, 0.0, 0.0, -4291.80315635242, 0.0]
['beep', 0.0, 1273.065957196469, 0.0, 0.0, 0.0, 0.0, -4343.2568720885365, 0.0]
['beep', 0.0, 1257.1515151442904, 0.0, 0.0, 0.0, 0.0, -4381.634817318299, 0.0]
['beep', 0.0, 1314.4166844387871, 0.0, 0.0, 0.0, 0.0, -4359.417183329723, 0.0]
['beep', 0.0, 1372.7994409560492, 0.0, 0.0, 0.0, 0.0, -4302.867269857797, 0.0]
['beep', 0.0, 1348.4583912442197, 0.0, 0.0, 0.0, 0.0, -4288.070415028384, 0.0]
['beep', 0.0, 1274.4741170971533, 0.0, 0.0, 0.0, 0.0, -4339.546482508956, 0.0]
['beep', 0.0, 1257.911474455771, 0.0, 0.0, 0.0, 0.0, -4382.685349307698, 0.0]
['beep', 0.0, 1314.841367583438, 0.0, 0.0, 0.0, 0.0, -4363.082869420394, 0.0]
['beep', 0.0, 1374.6993392347504, 0.0, 0.0, 0.0, 0.0, -4303.80604312492, 0.0]
['beep', 0.0, 1347.7431354216499, 0.0, 0.0, 0.0, 0.0, -4286.192868494138, 0.0]
['beep', 0.0, 1269.8696577393603, 0.0, 0.0, 0.0, 0.0, -4335.165540595715, 0.0]
['beep', 0.0, 1251.4965237970978, 0.0, 0.0, 0.0, 0.0, -4377.678558549709, 0.0]
['beep', 0.0, 1304.0231232670694, 0.0, 0.0, 0.0, 0.0, -4359.461886818634, 0.0]
['beep', 0.0, 1362.2270658286889, 0.0, 0.0, 0.0, 0.0, -4304.208374525115, 0.0]
['beep', 0.0, 1339.6071004399182, 0.0, 0.0, 0.0, 0.0, -4286.326978960869, 0.0]
['beep', 0.0, 1265.913398970771, 0.0, 0.0, 0.0, 0.0, -4333.802084183942, 0.0]
['beep', 0.0, 1247.8978929397933, 0.0, 0.0, 0.0, 0.0, -4376.203343415659, 0.0]
['beep', 0.0, 1304.2019372227119, 0.0, 0.0, 0.0, 0.0, -4355.773848983508, 0.0]
['beep', 0.0, 1362.1823623397784, 0.0, 0.0, 0.0, 0.0, -4303.180194280171, 0.0]
['beep', 0.0, 1340.188245795756, 0.0, 0.0, 0.0, 0.0, -4288.271580728481, 0.0]
['beep', 0.0, 1265.421660592754, 0.0, 0.0, 0.0, 0.0, -4337.71363946362, 0.0]
['beep', 0.0, 1245.9979946610922, 0.0, 0.0, 0.0, 0.0, -4380.986616729095, 0.0]
['beep', 0.0, 1302.4585011551978, 0.0, 0.0, 0.0, 0.0, -4359.372479840813, 0.0]
