['beep', 0.0, -94.36906509030642, 0.0, 0.0, 0.0, 0.0, -1820.7060480959474, 0.0]
['beep', 0.0, -92.78209123397961, 0.0, 0.0, 0.0, 0.0, -1823.8129405752352, 0.0]
['beep', 0.0, -87.0376929089657, 0.0, 0.0, 0.0, 0.0, -1826.6292603766037, 0.0]
['beep', 0.0, -85.47307079709421, 0.0, 0.0, 0.0, 0.0, -1828.3503446996624, 0.0]
['beep', 0.0, -88.44585280965005, 0.0, 0.0, 0.0, 0.0, -1830.138484256087, 0.0]
['beep', 0.0, -88.22233536509698, 0.0, 0.0, 0.0, 0.0, -1830.3843534450953, 0.0]
['beep', 0.0, -86.18832661966404, 0.0, 0.0, 0.0, 0.0, -1829.624394133615, 0.0]
['beep', 0.0, -85.29425684145176, 0.0, 0.0, 0.0, 0.0, -1828.1938824884753, 0.0]
['beep', 0.0, -84.511945785516, 0.0, 0.0, 0.0, 0.0, -1825.846949320668, 0.0]
['beep', 0.0, -84.60135276333723, 0.0, 0.0, 0.0, 0.0, -1824.6176033756262, 0.0]
['beep', 0.0, -85.13779463026461, 0.0, 0.0, 0.0, 0.0, -1823.2541469638525, 0.0]
['beep', 0.0, -83.79668996294618, 0.0, 0.0, 0.0, 0.0, -1821.6001178741597, 0.0]
['beep', 0.0, -82.96967541809981, 0.0, 0.0, 0.0, 0.0, -1819.9013852955563, 0.0]
['beep', 0.0, -81.40505330622833, 0.0, 0.0, 0.0, 0.0, -1818.1355974835872, 0.0]
['beep', 0.0, -80.33216957237359, 0.0, 0.0, 0.0, 0.0, -1816.4145131605285, 0.0]
['beep', 0.0, -80.89096318375626, 0.0, 0.0, 0.0, 0.0, -1815.1628154710313, 0.0]
['beep', 0.0, -79.21458234960824, 0.0, 0.0, 0.0, 0.0, -1814.201690459453, 0.0]
['beep', 0.0, -77.56055325991551, 0.0, 0.0, 0.0, 0.0, -1812.7711788143133, 0.0]
['beep', 0.0, -79.48280328307192, 0.0, 0.0, 0.0, 0.0, -1811.854757291646, 0.0]
['beep', 0.0, -82.0085504065216, 0.0, 0.0, 0.0, 0.0, -1811.1842049579866, 0.0]
['beep', 0.0, -83.84139345185679, 0.0, 0.0, 0.0, 0.0, -1811.7429985693693, 0.0]
['beep', 0.0, -84.95898067462214, 0.0, 0.0, 0.0, 0.0, -1812.1006264806542, 0.0]
['beep', 0.0, -85.18249811917522, 0.0, 0.0, 0.0, 0.0, -1811.877109036101, 0.0]
['beep', 0.0, -86.12127138629812, 0.0, 0.0, 0.0, 0.0, -1811.1171497246207, 0.0]
['beep', 0.0, -88.78112897647965, 0.0, 0.0, 0.0, 0.0, -1811.07244623571, 0.0]
['beep', 0.0, -90.68102725518075, 0.0, 0.0, 0.0, 0.0, -1811.7877020582798, 0.0]
['beep', 0.0, -91.06100691092098, 0.0, 0.0, 0.0, 0.0, -1811.8100538027352, 0.0]
['beep', 0.0, -90.54691678844891, 0.0, 0.0, 0.0, 0.0, -1810.5136526243273, 0.0]
['beep', 0.0, -88.6023150208372, 0.0, 0.0, 0.0, 0.0, -1808.6361060900815, 0.0]
['beep', 0.0, -89.65284701023663, 0.0, 0.0, 0.0, 0.0, -1808.9937340013664, 0.0]
['beep', 0.0, -90.01047492152153, 0.0, 0.0, 0.0, 0.0, -1808.6584578345369, 0.0]
['beep', 0.0, -88.06587315390982, 0.0, 0.0, 0.0, 0.0, -1807.272649678308, 0.0]
['beep', 0.0, -85.49542254154952, 0.0, 0.0, 0.0, 0.0, -1806.8926700225677, 0.0]
['beep', 0.0, -83.30495158492943, 0.0, 0.0, 0.0, 0.0, -1805.7527310553469, 0.0]
['beep', 0.0, -85.47307079709421, 0.0, 0.0, 0.0, 0.0, -1804.9257165105007, 0.0]
['beep', 0.0, -87.64119000925899, 0.0, 0.0, 0.0, 0.0, -1804.3892746435733, 0.0]
['beep', 0.0, -87.21650686460816, 0.0, 0.0, 0.0, 0.0, -1804.1657571990202, 0.0]
['beep', 0.0, -87.14945163124224, 0.0, 0.0, 0.0, 0.0, -1803.8975362655565, 0.0]
['beep', 0.0, -86.61300976431487, 0.0, 0.0, 0.0, 0.0, -1804.3222194102073, 0.0]
['beep', 0.0, -86.61300976431487, 0.0, 0.0, 0.0, 0.0, -1804.9480682549558, 0.0]
['beep', 0.0, -87.73059698708022, 0.0, 0.0, 0.0, 0.0, -1804.657495577037, 0.0]
['beep', 0.0, -84.02020740749924, 0.0, 0.0, 0.0, 0.0, -1804.366922899118, 0.0]
['beep', 0.0, -81.89679168424507, 0.0, 0.0, 0.0, 0.0, -1804.2998676657521, 0.0]
['beep', 0.0, -81.3379980728624, 0.0, 0.0, 0.0, 0.0, -1802.2435071758637, 0.0]
['beep', 0.0, -81.06977713939871, 0.0, 0.0, 0.0, 0.0, -1801.1259199530984, 0.0]
['beep', 0.0, -81.3156463284071, 0.0, 0.0, 0.0, 0.0, -1800.142443197065, 0.0]
['beep', 0.0, -81.69562598414731, 0.0, 0.0, 0.0, 0.0, -1800.2094984304308, 0.0]
['beep', 0.0, -82.65675099572552, 0.0, 0.0, 0.0, 0.0, -1800.2542019193415, 0.0]
['beep', 0.0, -84.22137310759702, 0.0, 0.0, 0.0, 0.0, -1799.136614696576, 0.0]
['beep', 0.0, -85.36131207481768, 0.0, 0.0, 0.0, 0.0, -1800.4106641305286, 0.0]
['beep', 0.0, -86.12127138629812, 0.0, 0.0, 0.0, 0.0, -1800.7459402973582, 0.0]
['beep', 0.0, -87.10474814233163, 0.0, 0.0, 0.0, 0.0, -1800.1871466859754, 0.0]
['beep', 0.0, -87.26121035351878, 0.0, 0.0, 0.0, 0.0, -1800.812995530724, 0.0]
['beep', 0.0, -86.68006499768079, 0.0, 0.0, 0.0, 0.0, -1801.9976379868554, 0.0]
['beep', 0.0, -87.37296907579531, 0.0, 0.0, 0.0, 0.0, -1800.8800507640901, 0.0]
['beep', 0.0, -88.69172199865842, 0.0, 0.0, 0.0, 0.0, -1800.3883123860733, 0.0]
['beep', 0.0, -88.66937025420312, 0.0, 0.0, 0.0, 0.0, -1800.9694577419114, 0.0]
['beep', 0.0, -87.84235570935675, 0.0, 0.0, 0.0, 0.0, -1800.8576990196348, 0.0]
['beep', 0.0, -86.54595453094895, 0.0, 0.0, 0.0, 0.0, -1800.7012368084477, 0.0]
['beep', 0.0, -85.85305045283442, 0.0, 0.0, 0.0, 0.0, -1800.9024025085453, 0.0]
['beep', 0.0, -88.42350106519474, 0.0, 0.0, 0.0, 0.0, -1800.8353472751794, 0.0]
['beep', 0.0, -86.45654755312772, 0.0, 0.0, 0.0, 0.0, -1800.947105997456, 0.0]
['beep', 0.0, -84.08726264086516, 0.0, 0.0, 0.0, 0.0, -1800.7012368084477, 0.0]
['beep', 0.0, -85.69658824164728, 0.0, 0.0, 0.0, 0.0, -1801.304733908741, 0.0]
['beep', 0.0, -86.7247684865914, 0.0, 0.0, 0.0, 0.0, -1800.2542019193415, 0.0]
['beep', 0.0, -86.16597487520873, 0.0, 0.0, 0.0, 0.0, -1799.4495391189505, 0.0]
['beep', 0.0, -84.91427718571153, 0.0, 0.0, 0.0, 0.0, -1799.5389460967717, 0.0]
['beep', 0.0, -83.39435856275065, 0.0, 0.0, 0.0, 0.0, -1799.1813181854866, 0.0]
['beep', 0.0, -83.41671030720596, 0.0, 0.0, 0.0, 0.0, -1797.7731582848023, 0.0]
['beep', 0.0, -82.07560563988753, 0.0, 0.0, 0.0, 0.0, -1797.3484751401515, 0.0]
['beep', 0.0, -82.99202716255512, 0.0, 0.0, 0.0, 0.0, -1797.7955100292577, 0.0]
['beep', 0.0, -83.70728298512495, 0.0, 0.0, 0.0, 0.0, -1798.1307861960872, 0.0]
['beep', 0.0, -81.80738470642385, 0.0, 0.0, 0.0, 0.0, -1798.0860827071767, 0.0]
['beep', 0.0, -82.25441959553, 0.0, 0.0, 0.0, 0.0, -1797.683751306981, 0.0]
['beep', 0.0, -82.88026844027858, 0.0, 0.0, 0.0, 0.0, -1797.3261233956962, 0.0]
['beep', 0.0, -83.05908239592104, 0.0, 0.0, 0.0, 0.0, -1797.5049373513386, 0.0]
['beep', 0.0, -81.673274239692, 0.0, 0.0, 0.0, 0.0, -1796.722626295403, 0.0]
['beep', 0.0, -81.3379980728624, 0.0, 0.0, 0.0, 0.0, -1795.4709286059058, 0.0]
['beep', 0.0, -82.03090215097691, 0.0, 0.0, 0.0, 0.0, -1796.0967774506544, 0.0]
['beep', 0.0, -82.50028878453837, 0.0, 0.0, 0.0, 0.0, -1796.3426466396627, 0.0]
['beep', 0.0, -84.22137310759702, 0.0, 0.0, 0.0, 0.0, -1796.7673297843135, 0.0]
['beep', 0.0, -85.36131207481768, 0.0, 0.0, 0.0, 0.0, -1796.1861844284756, 0.0]
['beep', 0.0, -84.8472219523456, 0.0, 0.0, 0.0, 0.0, -1795.4485768614504, 0.0]
['beep', 0.0, -85.1154428858093, 0.0, 0.0, 0.0, 0.0, -1796.5438123397605, 0.0]
['beep', 0.0, -88.19998362064167, 0.0, 0.0, 0.0, 0.0, -1797.169661184509, 0.0]
['beep', 0.0, -87.50707954252715, 0.0, 0.0, 0.0, 0.0, -1796.3426466396627, 0.0]
['beep', 0.0, -87.39532082025062, 0.0, 0.0, 0.0, 0.0, -1796.3202948952073, 0.0]
['beep', 0.0, -87.9988179205439, 0.0, 0.0, 0.0, 0.0, -1796.87908850659, 0.0]
['beep', 0.0, -87.48472779807184, 0.0, 0.0, 0.0, 0.0, -1796.7896815287688, 0.0]
['beep', 0.0, -88.2670388540076, 0.0, 0.0, 0.0, 0.0, -1795.9626669839224, 0.0]
['beep', 0.0, -89.00464642103272, 0.0, 0.0, 0.0, 0.0, -1794.7109692944252, 0.0]
['beep', 0.0, -88.40114932073944, 0.0, 0.0, 0.0, 0.0, -1793.8839547495788, 0.0]
['beep', 0.0, -87.41767256470592, 0.0, 0.0, 0.0, 0.0, -1793.7721960273025, 0.0]
['beep', 0.0, -86.47889929758303, 0.0, 0.0, 0.0, 0.0, -1794.0404169607662, 0.0]
['beep', 0.0, -86.4118440642171, 0.0, 0.0, 0.0, 0.0, -1794.3086378942298, 0.0]
['beep', 0.0, -87.70824524262491, 0.0, 0.0, 0.0, 0.0, -1794.0627687052213, 0.0]
['beep', 0.0, -87.0376929089657, 0.0, 0.0, 0.0, 0.0, -1794.1521756830425, 0.0]
['beep', 0.0, -84.69075974115846, 0.0, 0.0, 0.0, 0.0, -1793.0569402047327, 0.0]
['beep', 0.0, -83.99785566304394, 0.0, 0.0, 0.0, 0.0, -1793.1910506714644, 0.0]
['beep', 0.0, -86.21067836411935, 0.0, 0.0, 0.0, 0.0, -1792.7216640379029, 0.0]
['beep', 0.0, -85.4507190526389, 0.0, 0.0, 0.0, 0.0, -1792.811071015724, 0.0]
['beep', 0.0, -85.7859952194685, 0.0, 0.0, 0.0, 0.0, -1793.8392512606683, 0.0]
['beep', 0.0, -85.60718126382605, 0.0, 0.0, 0.0, 0.0, -1793.9733617274, 0.0]
['beep', 0.0, -84.75781497452438, 0.0, 0.0, 0.0, 0.0, -1792.811071015724, 0.0]
['beep', 0.0, -85.31660858590706, 0.0, 0.0, 0.0, 0.0, -1793.526326838294, 0.0]
['beep', 0.0, -85.40601556372829, 0.0, 0.0, 0.0, 0.0, -1794.263934405319, 0.0]
['beep', 0.0, -85.24955335254114, 0.0, 0.0, 0.0, 0.0, -1794.1521756830425, 0.0]
['beep', 0.0, -82.79086146245736, 0.0, 0.0, 0.0, 0.0, -1794.2192309164086, 0.0]
['beep', 0.0, -83.08143414037634, 0.0, 0.0, 0.0, 0.0, -1794.6439140610594, 0.0]
['beep', 0.0, -85.22720160808584, 0.0, 0.0, 0.0, 0.0, -1794.621562316604, 0.0]
['beep', 0.0, -87.37296907579531, 0.0, 0.0, 0.0, 0.0, -1795.1580041835314, 0.0]
['beep', 0.0, -87.93176268717798, 0.0, 0.0, 0.0, 0.0, -1795.1580041835314, 0.0]
['beep', 0.0, -87.95411443163329, 0.0, 0.0, 0.0, 0.0, -1792.7440157823582, 0.0]
['beep', 0.0, -87.52943128698246, 0.0, 0.0, 0.0, 0.0, -1791.9170012375118, 0.0]
['beep', 0.0, -88.22233536509698, 0.0, 0.0, 0.0, 0.0, -1786.753748268336, 0.0]
['beep', 0.0, -89.04934990994333, 0.0, 0.0, 0.0, 0.0, -1777.3436638526516, 0.0]
['beep', 0.0, -87.19415512015286, 0.0, 0.0, 0.0, 0.0, -1765.5419427802497, 0.0]
['beep', 0.0, -83.41671030720596, 0.0, 0.0, 0.0, 0.0, -1750.9015501620233, 0.0]
['beep', 0.0, -82.72380622909144, 0.0, 0.0, 0.0, 0.0, -1737.4457999999286, 0.0]
['beep', 0.0, -84.04255915195455, 0.0, 0.0, 0.0, 0.0, -1726.5828521946494, 0.0]
['beep', 0.0, -85.02603590798806, 0.0, 0.0, 0.0, 0.0, -1717.2621747567864, 0.0]
['beep', 0.0, -84.31078008541824, 0.0, 0.0, 0.0, 0.0, -1709.0367327972333, 0.0]
['beep', 0.0, -83.08143414037634, 0.0, 0.0, 0.0, 0.0, -1703.3817414500406, 0.0]
['beep', 0.0, -85.18249811917522, 0.0, 0.0, 0.0, 0.0, -1702.6441338830155, 0.0]
['beep', 0.0, -86.21067836411935, 0.0, 0.0, 0.0, 0.0, -1706.4215786959624, 0.0]
['beep', 0.0, -86.07656789738749, 0.0, 0.0, 0.0, 0.0, -1711.406017709496, 0.0]
['beep', 0.0, -86.34478883085119, 0.0, 0.0, 0.0, 0.0, -1720.212605024887, 0.0]
['beep', 0.0, -84.55664927442662, 0.0, 0.0, 0.0, 0.0, -1728.4603987288951, 0.0]
['beep', 0.0, -83.5284690294825, 0.0, 0.0, 0.0, 0.0, -1734.0930383316324, 0.0]
['beep', 0.0, -84.40018706323947, 0.0, 0.0, 0.0, 0.0, -1740.3291750346632, 0.0]
['beep', 0.0, -85.33896033036237, 0.0, 0.0, 0.0, 0.0, -1746.3417942931408, 0.0]
['beep', 0.0, -84.57900101888193, 0.0, 0.0, 0.0, 0.0, -1749.560445494705, 0.0]
['beep', 0.0, -83.68493124066964, 0.0, 0.0, 0.0, 0.0, -1753.6061112411155, 0.0]
['beep', 0.0, -83.97550391858863, 0.0, 0.0, 0.0, 0.0, -1757.1823903539648, 0.0]
['beep', 0.0, -86.3671405753065, 0.0, 0.0, 0.0, 0.0, -1759.8422479441463, 0.0]
['beep', 0.0, -87.10474814233163, 0.0, 0.0, 0.0, 0.0, -1762.2785880897748, 0.0]
['beep', 0.0, -86.7024167421361, 0.0, 0.0, 0.0, 0.0, -1764.3573003241183, 0.0]
['beep', 0.0, -87.48472779807184, 0.0, 0.0, 0.0, 0.0, -1766.3689573250958, 0.0]
['beep', 0.0, -86.54595453094895, 0.0, 0.0, 0.0, 0.0, -1768.1570968815206, 0.0]
['beep', 0.0, -86.21067836411935, 0.0, 0.0, 0.0, 0.0, -1768.3806143260736, 0.0]
['beep', 0.0, -88.87053595430088, 0.0, 0.0, 0.0, 0.0, -1769.1852771264646, 0.0]
['beep', 0.0, -88.6023150208372, 0.0, 0.0, 0.0, 0.0, -1768.715890492903, 0.0]
['beep', 0.0, -86.52360278649364, 0.0, 0.0, 0.0, 0.0, -1768.8947044485456, 0.0]
['beep', 0.0, -85.80834696392381, 0.0, 0.0, 0.0, 0.0, -1767.9335794369674, 0.0]
['beep', 0.0, -87.9988179205439, 0.0, 0.0, 0.0, 0.0, -1768.0676899036994, 0.0]
['beep', 0.0, -88.78112897647965, 0.0, 0.0, 0.0, 0.0, -1767.8441724591462, 0.0]
['beep', 0.0, -88.37879757628413, 0.0, 0.0, 0.0, 0.0, -1768.4923730483501, 0.0]
['beep', 0.0, -87.12709988678694, 0.0, 0.0, 0.0, 0.0, -1768.559428281716, 0.0]
['beep', 0.0, -87.77530047599083, 0.0, 0.0, 0.0, 0.0, -1768.6041317706267, 0.0]
['beep', 0.0, -89.67519875469193, 0.0, 0.0, 0.0, 0.0, -1768.201800370431, 0.0]
['beep', 0.0, -89.60814352132601, 0.0, 0.0, 0.0, 0.0, -1768.6488352595372, 0.0]
['beep', 0.0, -89.8763644547897, 0.0, 0.0, 0.0, 0.0, -1767.911227692512, 0.0]
['beep', 0.0, -88.66937025420312, 0.0, 0.0, 0.0, 0.0, -1768.850000959635, 0.0]
['beep', 0.0, -87.37296907579531, 0.0, 0.0, 0.0, 0.0, -1768.1347451370652, 0.0]
['beep', 0.0, -88.66937025420312, 0.0, 0.0, 0.0, 0.0, -1767.1959718699422, 0.0]
['beep', 0.0, -88.64701850974781, 0.0, 0.0, 0.0, 0.0, -1767.5759515256825, 0.0]
['beep', 0.0, -87.44002430916123, 0.0, 0.0, 0.0, 0.0, -1766.592474769649, 0.0]
['beep', 0.0, -86.07656789738749, 0.0, 0.0, 0.0, 0.0, -1764.7372799798586, 0.0]
['beep', 0.0, -86.85887895332324, 0.0, 0.0, 0.0, 0.0, -1764.6702247464925, 0.0]
['beep', 0.0, -88.53525978747128, 0.0, 0.0, 0.0, 0.0, -1765.139611380054, 0.0]
['beep', 0.0, -87.75294873153553, 0.0, 0.0, 0.0, 0.0, -1764.983149168867, 0.0]
['beep', 0.0, -88.2670388540076, 0.0, 0.0, 0.0, 0.0, -1762.6809194899702, 0.0]
['beep', 0.0, -86.65771325322548, 0.0, 0.0, 0.0, 0.0, -1762.2562363453194, 0.0]
['beep', 0.0, -85.36131207481768, 0.0, 0.0, 0.0, 0.0, -1761.8092014562133, 0.0]
['beep', 0.0, -85.74129173055789, 0.0, 0.0, 0.0, 0.0, -1761.7421462228474, 0.0]
['beep', 0.0, -87.64119000925899, 0.0, 0.0, 0.0, 0.0, -1762.8597334456126, 0.0]
['beep', 0.0, -88.17763187618637, 0.0, 0.0, 0.0, 0.0, -1762.6809194899702, 0.0]
['beep', 0.0, -87.08239639787632, 0.0, 0.0, 0.0, 0.0, -1761.9209601784898, 0.0]
['beep', 0.0, -87.17180337569755, 0.0, 0.0, 0.0, 0.0, -1762.9044369345233, 0.0]
['beep', 0.0, -88.89288769875618, 0.0, 0.0, 0.0, 0.0, -1762.367995067596, 0.0]
['beep', 0.0, -89.49638479904948, 0.0, 0.0, 0.0, 0.0, -1760.1551723665207, 0.0]
['beep', 0.0, -88.44585280965005, 0.0, 0.0, 0.0, 0.0, -1761.071593889188, 0.0]
['beep', 0.0, -88.9599429321221, 0.0, 0.0, 0.0, 0.0, -1760.8257247001798, 0.0]
['beep', 0.0, -87.61883826480368, 0.0, 0.0, 0.0, 0.0, -1759.7975444552358, 0.0]
['beep', 0.0, -88.31174234291821, 0.0, 0.0, 0.0, 0.0, -1761.1386491225542, 0.0]
['beep', 0.0, -89.45168131013887, 0.0, 0.0, 0.0, 0.0, -1761.8315532006686, 0.0]
['beep', 0.0, -90.63632376627014, 0.0, 0.0, 0.0, 0.0, -1760.5351520222607, 0.0]
['beep', 0.0, -89.16110863221988, 0.0, 0.0, 0.0, 0.0, -1759.3281578216743, 0.0]
['beep', 0.0, -88.19998362064167, 0.0, 0.0, 0.0, 0.0, -1759.104640377121, 0.0]
['beep', 0.0, -88.98229467657741, 0.0, 0.0, 0.0, 0.0, -1758.5681985101937, 0.0]
['beep', 0.0, -88.78112897647965, 0.0, 0.0, 0.0, 0.0, -1758.5458467657384, 0.0]
['beep', 0.0, -88.31174234291821, 0.0, 0.0, 0.0, 0.0, -1758.7693642102915, 0.0]
['beep', 0.0, -87.08239639787632, 0.0, 0.0, 0.0, 0.0, -1757.0929833761436, 0.0]
['beep', 0.0, -86.3671405753065, 0.0, 0.0, 0.0, 0.0, -1755.9530444089228, 0.0]
['beep', 0.0, -86.7024167421361, 0.0, 0.0, 0.0, 0.0, -1754.880160675068, 0.0]
['beep', 0.0, -85.02603590798806, 0.0, 0.0, 0.0, 0.0, -1755.1930850974425, 0.0]
['beep', 0.0, -82.34382657335122, 0.0, 0.0, 0.0, 0.0, -1754.656643230515, 0.0]
['beep', 0.0, -82.12030912879816, 0.0, 0.0, 0.0, 0.0, -1754.4107740415066, 0.0]
['beep', 0.0, -86.4118440642171, 0.0, 0.0, 0.0, 0.0, -1753.784925196758, 0.0]
['beep', 0.0, -91.84331796685672, 0.0, 0.0, 0.0, 0.0, -1752.3767652960737, 0.0]
['beep', 0.0, -94.2796581124852, 0.0, 0.0, 0.0, 0.0, -1753.3602420521072, 0.0]
['beep', 0.0, -92.20094587814164, 0.0, 0.0, 0.0, 0.0, -1754.7013467194256, 0.0]
['beep', 0.0, -90.94924818864443, 0.0, 0.0, 0.0, 0.0, -1754.589587997149, 0.0]
['beep', 0.0, -91.32922784438466, 0.0, 0.0, 0.0, 0.0, -1754.6789949749702, 0.0]
['beep', 0.0, -92.64798076724777, 0.0, 0.0, 0.0, 0.0, -1755.662471731004, 0.0]
['beep', 0.0, -93.43029182318352, 0.0, 0.0, 0.0, 0.0, -1755.9530444089228, 0.0]
['beep', 0.0, -92.91620170071145, 0.0, 0.0, 0.0, 0.0, -1754.2543118303195, 0.0]
['beep', 0.0, -93.07266391189862, 0.0, 0.0, 0.0, 0.0, -1754.4107740415066, 0.0]
['beep', 0.0, -92.96090518962207, 0.0, 0.0, 0.0, 0.0, -1754.3213670636853, 0.0]
['beep', 0.0, -94.10084415684274, 0.0, 0.0, 0.0, 0.0, -1755.4389542864508, 0.0]
['beep', 0.0, -94.57023079040418, 0.0, 0.0, 0.0, 0.0, -1755.5060095198166, 0.0]
['beep', 0.0, -93.96673369011089, 0.0, 0.0, 0.0, 0.0, -1755.662471731004, 0.0]
['beep', 0.0, -92.46916681160532, 0.0, 0.0, 0.0, 0.0, -1755.5507130087274, 0.0]
['beep', 0.0, -92.02213192249917, 0.0, 0.0, 0.0, 0.0, -1754.231960085864, 0.0]
['beep', 0.0, -93.3632365898176, 0.0, 0.0, 0.0, 0.0, -1752.8238001851798, 0.0]
['beep', 0.0, -94.0114371790215, 0.0, 0.0, 0.0, 0.0, -1753.0696693741882, 0.0]
['beep', 0.0, -93.89967845674497, 0.0, 0.0, 0.0, 0.0, -1752.6449862295374, 0.0]
['beep', 0.0, -91.4409865666612, 0.0, 0.0, 0.0, 0.0, -1752.689689718448, 0.0]
['beep', 0.0, -90.34575108835115, 0.0, 0.0, 0.0, 0.0, -1752.913207163001, 0.0]
['beep', 0.0, -91.32922784438466, 0.0, 0.0, 0.0, 0.0, -1752.9579106519118, 0.0]
['beep', 0.0, -92.51387030051593, 0.0, 0.0, 0.0, 0.0, -1752.6449862295374, 0.0]
['beep', 0.0, -92.20094587814164, 0.0, 0.0, 0.0, 0.0, -1752.5108757628057, 0.0]
['beep', 0.0, -90.97159993309974, 0.0, 0.0, 0.0, 0.0, -1751.7285647068697, 0.0]
['beep', 0.0, -91.32922784438466, 0.0, 0.0, 0.0, 0.0, -1751.236826328853, 0.0]
['beep', 0.0, -90.23399236607462, 0.0, 0.0, 0.0, 0.0, -1750.0745356171772, 0.0]
['beep', 0.0, -92.17859413368633, 0.0, 0.0, 0.0, 0.0, -1749.7839629392581, 0.0]
['beep', 0.0, -92.62562902279247, 0.0, 0.0, 0.0, 0.0, -1751.7285647068697, 0.0]
['beep', 0.0, -91.23982086656343, 0.0, 0.0, 0.0, 0.0, -1752.3097100627078, 0.0]
['beep', 0.0, -90.43515806617238, 0.0, 0.0, 0.0, 0.0, -1751.5721024956827, 0.0]
['beep', 0.0, -91.64215226675896, 0.0, 0.0, 0.0, 0.0, -1751.5721024956827, 0.0]
['beep', 0.0, -91.95507668913325, 0.0, 0.0, 0.0, 0.0, -1752.0861926181547, 0.0]
['beep', 0.0, -91.23982086656343, 0.0, 0.0, 0.0, 0.0, -1752.0638408736995, 0.0]
['beep', 0.0, -89.71990224360255, 0.0, 0.0, 0.0, 0.0, -1751.2815298177636, 0.0]
['beep', 0.0, -89.74225398805785, 0.0, 0.0, 0.0, 0.0, -1751.6391577290485, 0.0]
['beep', 0.0, -91.01630342201035, 0.0, 0.0, 0.0, 0.0, -1751.885026918057, 0.0]
['beep', 0.0, -90.79278597745729, 0.0, 0.0, 0.0, 0.0, -1751.2815298177636, 0.0]
['beep', 0.0, -90.65867551072544, 0.0, 0.0, 0.0, 0.0, -1751.4379920289507, 0.0]
['beep', 0.0, -89.80930922142377, 0.0, 0.0, 0.0, 0.0, -1752.1755995959759, 0.0]
['beep', 0.0, -88.42350106519474, 0.0, 0.0, 0.0, 0.0, -1751.750916451325, 0.0]
['beep', 0.0, -90.8374894663679, 0.0, 0.0, 0.0, 0.0, -1751.7732681957805, 0.0]
['beep', 0.0, -90.97159993309974, 0.0, 0.0, 0.0, 0.0, -1751.1921228399424, 0.0]
['beep', 0.0, -91.21746912210813, 0.0, 0.0, 0.0, 0.0, -1751.0133088843, 0.0]
['beep', 0.0, -90.39045457726176, 0.0, 0.0, 0.0, 0.0, -1752.2203030848866, 0.0]
['beep', 0.0, -89.5410882879601, 0.0, 0.0, 0.0, 0.0, -1752.0638408736995, 0.0]
['beep', 0.0, -89.78695747696847, 0.0, 0.0, 0.0, 0.0, -1751.9744338958783, 0.0]
['beep', 0.0, -90.59162027735952, 0.0, 0.0, 0.0, 0.0, -1751.460343773406, 0.0]
['beep', 0.0, -91.86566971131202, 0.0, 0.0, 0.0, 0.0, -1750.6109774841045, 0.0]
['beep', 0.0, -89.38462607677295, 0.0, 0.0, 0.0, 0.0, -1750.9015501620233, 0.0]
['beep', 0.0, -87.6635417537143, 0.0, 0.0, 0.0, 0.0, -1750.4768670173726, 0.0]
['beep', 0.0, -88.9599429321221, 0.0, 0.0, 0.0, 0.0, -1749.5380937502498, 0.0]
['beep', 0.0, -90.5245650439936, 0.0, 0.0, 0.0, 0.0, -1750.946253650934, 0.0]
['beep', 0.0, -89.83166096587908, 0.0, 0.0, 0.0, 0.0, -1751.0133088843, 0.0]
['beep', 0.0, -89.45168131013887, 0.0, 0.0, 0.0, 0.0, -1750.3427565506408, 0.0]
['beep', 0.0, -90.70337899963606, 0.0, 0.0, 0.0, 0.0, -1749.6498524725262, 0.0]
['beep', 0.0, -90.01047492152153, 0.0, 0.0, 0.0, 0.0, -1750.722736206381, 0.0]
['beep', 0.0, -91.4409865666612, 0.0, 0.0, 0.0, 0.0, -1751.0133088843, 0.0]
['beep', 0.0, -92.51387030051593, 0.0, 0.0, 0.0, 0.0, -1752.10854436261, 0.0]
['beep', 0.0, -91.64215226675896, 0.0, 0.0, 0.0, 0.0, -1750.1639425949984, 0.0]
['beep', 0.0, -90.72573074409136, 0.0, 0.0, 0.0, 0.0, -1750.655680973015, 0.0]
['beep', 0.0, -91.28452435547405, 0.0, 0.0, 0.0, 0.0, -1750.3204048061855, 0.0]
['beep', 0.0, -91.06100691092098, 0.0, 0.0, 0.0, 0.0, -1750.0968873616323, 0.0]
['beep', 0.0, -92.96090518962207, 0.0, 0.0, 0.0, 0.0, -1749.046355372233, 0.0]
['beep', 0.0, -92.20094587814164, 0.0, 0.0, 0.0, 0.0, -1750.0968873616323, 0.0]
['beep', 0.0, -91.99978017804386, 0.0, 0.0, 0.0, 0.0, -1750.8791984175682, 0.0]
['beep', 0.0, -93.81027147892374, 0.0, 0.0, 0.0, 0.0, -1749.2698728167861, 0.0]
['beep', 0.0, -93.51969880100475, 0.0, 0.0, 0.0, 0.0, -1751.5050472623168, 0.0]
['beep', 0.0, -91.35157958883997, 0.0, 0.0, 0.0, 0.0, -1754.5448845082385, 0.0]
['beep', 0.0, -92.69268425615839, 0.0, 0.0, 0.0, 0.0, -1755.684823475459, 0.0]
['beep', 0.0, -94.19025113466397, 0.0, 0.0, 0.0, 0.0, -1755.371899053085, 0.0]
['beep', 0.0, -93.27382961199638, 0.0, 0.0, 0.0, 0.0, -1756.3553758091184, 0.0]
['beep', 0.0, -93.22912612308576, 0.0, 0.0, 0.0, 0.0, -1755.6401199865486, 0.0]
['beep', 0.0, -93.51969880100475, 0.0, 0.0, 0.0, 0.0, -1755.3271955641742, 0.0]
['beep', 0.0, -93.38558833427291, 0.0, 0.0, 0.0, 0.0, -1754.656643230515, 0.0]
['beep', 0.0, -95.10667265733156, 0.0, 0.0, 0.0, 0.0, -1755.7518787088252, 0.0]
['beep', 0.0, -94.12319590129805, 0.0, 0.0, 0.0, 0.0, -1755.4613060309061, 0.0]
['beep', 0.0, -92.7597394895243, 0.0, 0.0, 0.0, 0.0, -1754.433125785962, 0.0]
['beep', 0.0, -93.83262322337904, 0.0, 0.0, 0.0, 0.0, -1753.784925196758, 0.0]
['beep', 0.0, -95.53135580198239, 0.0, 0.0, 0.0, 0.0, -1753.8072769412133, 0.0]
['beep', 0.0, -96.80540523593488, 0.0, 0.0, 0.0, 0.0, -1754.589587997149, 0.0]
['beep', 0.0, -97.49830931404941, 0.0, 0.0, 0.0, 0.0, -1755.4166025419954, 0.0]
['beep', 0.0, -96.96186744712203, 0.0, 0.0, 0.0, 0.0, -1753.9860908968558, 0.0]
['beep', 0.0, -95.17372789069748, 0.0, 0.0, 0.0, 0.0, -1755.6401199865486, 0.0]
['beep', 0.0, -94.48082381258295, 0.0, 0.0, 0.0, 0.0, -1756.2659688312972, 0.0]
['beep', 0.0, -94.07849241238743, 0.0, 0.0, 0.0, 0.0, -1756.4894862758501, 0.0]
['beep', 0.0, -94.6149342793148, 0.0, 0.0, 0.0, 0.0, -1756.6012449981267, 0.0]
['beep', 0.0, -92.22329762259695, 0.0, 0.0, 0.0, 0.0, -1754.8354571861576, 0.0]
['beep', 0.0, -91.97742843358856, 0.0, 0.0, 0.0, 0.0, -1754.075497874677, 0.0]
['beep', 0.0, -93.51969880100475, 0.0, 0.0, 0.0, 0.0, -1755.4613060309061, 0.0]
['beep', 0.0, -95.08432091287625, 0.0, 0.0, 0.0, 0.0, -1756.4224310424843, 0.0]
['beep', 0.0, -95.41959707970585, 0.0, 0.0, 0.0, 0.0, -1755.2601403308083, 0.0]
['beep', 0.0, -94.0337889234768, 0.0, 0.0, 0.0, 0.0, -1754.9025124195234, 0.0]
['beep', 0.0, -92.7150360006137, 0.0, 0.0, 0.0, 0.0, -1755.371899053085, 0.0]
['beep', 0.0, -92.60327727833716, 0.0, 0.0, 0.0, 0.0, -1754.6342914860597, 0.0]
['beep', 0.0, -94.59258253485949, 0.0, 0.0, 0.0, 0.0, -1755.7742304532803, 0.0]
['beep', 0.0, -94.19025113466397, 0.0, 0.0, 0.0, 0.0, -1756.333024064663, 0.0]
['beep', 0.0, -93.6761610121919, 0.0, 0.0, 0.0, 0.0, -1754.4778292748726, 0.0]
['beep', 0.0, -92.89384995625615, 0.0, 0.0, 0.0, 0.0, -1753.7402217078475, 0.0]
['beep', 0.0, -93.56440228991536, 0.0, 0.0, 0.0, 0.0, -1755.0366228862551, 0.0]
['beep', 0.0, -94.83845172386786, 0.0, 0.0, 0.0, 0.0, -1755.0813263751659, 0.0]
['beep', 0.0, -94.23495462357458, 0.0, 0.0, 0.0, 0.0, -1756.0871548756547, 0.0]
['beep', 0.0, -92.69268425615839, 0.0, 0.0, 0.0, 0.0, -1755.2601403308083, 0.0]
['beep', 0.0, -91.7986144779461, 0.0, 0.0, 0.0, 0.0, -1755.1036781196212, 0.0]
['beep', 0.0, -93.09501565635392, 0.0, 0.0, 0.0, 0.0, -1756.4224310424843, 0.0]
['beep', 0.0, -95.48665231307177, 0.0, 0.0, 0.0, 0.0, -1756.8918176760458, 0.0]
['beep', 0.0, -94.34671334585111, 0.0, 0.0, 0.0, 0.0, -1757.1153351205987, 0.0]
['beep', 0.0, -94.0114371790215, 0.0, 0.0, 0.0, 0.0, -1756.0871548756547, 0.0]
['beep', 0.0, -94.74904474604664, 0.0, 0.0, 0.0, 0.0, -1755.528361264272, 0.0]
['beep', 0.0, -95.46430056861647, 0.0, 0.0, 0.0, 0.0, -1755.9530444089228, 0.0]
['beep', 0.0, -96.11250115782038, 0.0, 0.0, 0.0, 0.0, -1757.1153351205987, 0.0]
['beep', 0.0, -95.12902440178686, 0.0, 0.0, 0.0, 0.0, -1755.9753961533781, 0.0]
['beep', 0.0, -95.576059290893, 0.0, 0.0, 0.0, 0.0, -1755.9753961533781, 0.0]
['beep', 0.0, -94.14554764575335, 0.0, 0.0, 0.0, 0.0, -1756.4894862758501, 0.0]
['beep', 0.0, -95.50900405752708, 0.0, 0.0, 0.0, 0.0, -1755.5507130087274, 0.0]
['beep', 0.0, -96.44777732464998, 0.0, 0.0, 0.0, 0.0, -1756.9365211649563, 0.0]
['beep', 0.0, -96.47012906910528, 0.0, 0.0, 0.0, 0.0, -1757.4282595429731, 0.0]
['beep', 0.0, -95.64311452425892, 0.0, 0.0, 0.0, 0.0, -1756.3777275535738, 0.0]
['beep', 0.0, -95.41959707970585, 0.0, 0.0, 0.0, 0.0, -1756.1542101090206, 0.0]
['beep', 0.0, -96.40307383573936, 0.0, 0.0, 0.0, 0.0, -1756.5565415092162, 0.0]
['beep', 0.0, -97.00657093603265, 0.0, 0.0, 0.0, 0.0, -1757.4282595429731, 0.0]
['beep', 0.0, -96.8724604693008, 0.0, 0.0, 0.0, 0.0, -1757.9870531543559, 0.0]
['beep', 0.0, -96.13485290227568, 0.0, 0.0, 0.0, 0.0, -1757.0706316316882, 0.0]
['beep', 0.0, -94.07849241238743, 0.0, 0.0, 0.0, 0.0, -1756.847114187135, 0.0]
['beep', 0.0, -94.41376857921703, 0.0, 0.0, 0.0, 0.0, -1756.981224653867, 0.0]
['beep', 0.0, -93.65380926773659, 0.0, 0.0, 0.0, 0.0, -1757.1600386095095, 0.0]
['beep', 0.0, -92.58092553388185, 0.0, 0.0, 0.0, 0.0, -1757.651776987526, 0.0]
['beep', 0.0, -92.58092553388185, 0.0, 0.0, 0.0, 0.0, -1757.137686865054, 0.0]
['beep', 0.0, -92.35740808932879, 0.0, 0.0, 0.0, 0.0, -1758.1211636210876, 0.0]
['beep', 0.0, -92.84914646734553, 0.0, 0.0, 0.0, 0.0, -1758.4564397879171, 0.0]
['beep', 0.0, -94.12319590129805, 0.0, 0.0, 0.0, 0.0, -1758.657605488015, 0.0]
['beep', 0.0, -95.35254184633993, 0.0, 0.0, 0.0, 0.0, -1759.7304892218697, 0.0]
['beep', 0.0, -93.89967845674497, 0.0, 0.0, 0.0, 0.0, -1757.3612043096073, 0.0]
['beep', 0.0, -93.6761610121919, 0.0, 0.0, 0.0, 0.0, -1758.1882188544535, 0.0]
['beep', 0.0, -92.89384995625615, 0.0, 0.0, 0.0, 0.0, -1757.8976461765346, 0.0]
['beep', 0.0, -93.00560867853268, 0.0, 0.0, 0.0, 0.0, -1757.6741287319815, 0.0]
['beep', 0.0, -94.59258253485949, 0.0, 0.0, 0.0, 0.0, -1760.3116345777078, 0.0]
['beep', 0.0, -92.737387745069, 0.0, 0.0, 0.0, 0.0, -1759.462268288406, 0.0]
['beep', 0.0, -90.97159993309974, 0.0, 0.0, 0.0, 0.0, -1759.4399165439509, 0.0]
['beep', 0.0, -91.91037320022264, 0.0, 0.0, 0.0, 0.0, -1759.886951433057, 0.0]
['beep', 0.0, -93.74321624555782, 0.0, 0.0, 0.0, 0.0, -1760.3563380666183, 0.0]
['beep', 0.0, -92.89384995625615, 0.0, 0.0, 0.0, 0.0, -1761.2280561003754, 0.0]
['beep', 0.0, -89.98812317706623, 0.0, 0.0, 0.0, 0.0, -1759.1269921215764, 0.0]
['beep', 0.0, -88.82583246539026, 0.0, 0.0, 0.0, 0.0, -1758.9258264214786, 0.0]
['beep', 0.0, -90.47986155508299, 0.0, 0.0, 0.0, 0.0, -1759.4399165439509, 0.0]
['beep', 0.0, -92.51387030051593, 0.0, 0.0, 0.0, 0.0, -1759.1940473549423, 0.0]
['beep', 0.0, -92.35740808932879, 0.0, 0.0, 0.0, 0.0, -1759.3281578216743, 0.0]
['beep', 0.0, -90.189288877164, 0.0, 0.0, 0.0, 0.0, -1759.5516752662272, 0.0]
['beep', 0.0, -90.34575108835115, 0.0, 0.0, 0.0, 0.0, -1759.529323521772, 0.0]
['beep', 0.0, -91.75391098903549, 0.0, 0.0, 0.0, 0.0, -1760.6022072556268, 0.0]
['beep', 0.0, -92.33505634487348, 0.0, 0.0, 0.0, 0.0, -1760.915131678001, 0.0]
['beep', 0.0, -91.7986144779461, 0.0, 0.0, 0.0, 0.0, -1761.4068700560179, 0.0]
['beep', 0.0, -91.28452435547405, 0.0, 0.0, 0.0, 0.0, -1760.4457450444395, 0.0]
['beep', 0.0, -90.70337899963606, 0.0, 0.0, 0.0, 0.0, -1761.8762566895791, 0.0]
['beep', 0.0, -91.03865516646566, 0.0, 0.0, 0.0, 0.0, -1762.211532856409, 0.0]
['beep', 0.0, -91.88802145576733, 0.0, 0.0, 0.0, 0.0, -1762.211532856409, 0.0]
['beep', 0.0, -91.4633383111165, 0.0, 0.0, 0.0, 0.0, -1762.1444776230428, 0.0]
['beep', 0.0, -89.76460573251316, 0.0, 0.0, 0.0, 0.0, -1762.2785880897748, 0.0]
['beep', 0.0, -88.6023150208372, 0.0, 0.0, 0.0, 0.0, -1761.719794478392, 0.0]
['beep', 0.0, -90.21164062161931, 0.0, 0.0, 0.0, 0.0, -1762.5468090232384, 0.0]
['beep', 0.0, -91.95507668913325, 0.0, 0.0, 0.0, 0.0, -1763.6196927570932, 0.0]
['beep', 0.0, -90.65867551072544, 0.0, 0.0, 0.0, 0.0, -1763.4855822903614, 0.0]
['beep', 0.0, -89.11640514330927, 0.0, 0.0, 0.0, 0.0, -1762.5691607676938, 0.0]
['beep', 0.0, -90.72573074409136, 0.0, 0.0, 0.0, 0.0, -1761.429221800473, 0.0]
['beep', 0.0, -90.94924818864443, 0.0, 0.0, 0.0, 0.0, -1762.8597334456126, 0.0]
['beep', 0.0, -90.79278597745729, 0.0, 0.0, 0.0, 0.0, -1765.497239291339, 0.0]
['beep', 0.0, -91.03865516646566, 0.0, 0.0, 0.0, 0.0, -1765.139611380054, 0.0]
['beep', 0.0, -89.898716199245, 0.0, 0.0, 0.0, 0.0, -1763.6196927570932, 0.0]
['beep', 0.0, -89.51873654350479, 0.0, 0.0, 0.0, 0.0, -1763.530285779272, 0.0]
['beep', 0.0, -90.01047492152153, 0.0, 0.0, 0.0, 0.0, -1764.2455416018418, 0.0]
['beep', 0.0, -91.95507668913325, 0.0, 0.0, 0.0, 0.0, -1764.7149282354032, 0.0]
['beep', 0.0, -92.84914646734553, 0.0, 0.0, 0.0, 0.0, -1765.0949078911435, 0.0]
['beep', 0.0, -93.07266391189862, 0.0, 0.0, 0.0, 0.0, -1762.8597334456126, 0.0]
['beep', 0.0, -91.84331796685672, 0.0, 0.0, 0.0, 0.0, -1763.7985067127356, 0.0]
['beep', 0.0, -92.44681506715001, 0.0, 0.0, 0.0, 0.0, -1764.044375901744, 0.0]
['beep', 0.0, -93.98908543456619, 0.0, 0.0, 0.0, 0.0, -1764.2231898573864, 0.0]
['beep', 0.0, -92.22329762259695, 0.0, 0.0, 0.0, 0.0, -1764.1337828795652, 0.0]
['beep', 0.0, -90.54691678844891, 0.0, 0.0, 0.0, 0.0, -1763.172657867987, 0.0]
['beep', 0.0, -89.42932956568356, 0.0, 0.0, 0.0, 0.0, -1761.563332267205, 0.0]
['beep', 0.0, -89.5410882879601, 0.0, 0.0, 0.0, 0.0, -1762.6362160010597, 0.0]
['beep', 0.0, -89.898716199245, 0.0, 0.0, 0.0, 0.0, -1763.3067683347188, 0.0]
['beep', 0.0, -90.21164062161931, 0.0, 0.0, 0.0, 0.0, -1763.3291200791741, 0.0]
['beep', 0.0, -89.5410882879601, 0.0, 0.0, 0.0, 0.0, -1763.038547401255, 0.0]
['beep', 0.0, -89.31757084340703, 0.0, 0.0, 0.0, 0.0, -1763.239713101353, 0.0]
['beep', 0.0, -91.37393133329527, 0.0, 0.0, 0.0, 0.0, -1764.2455416018418, 0.0]
['beep', 0.0, -91.86566971131202, 0.0, 0.0, 0.0, 0.0, -1765.1619631245094, 0.0]
['beep', 0.0, -91.21746912210813, 0.0, 0.0, 0.0, 0.0, -1765.6089980136155, 0.0]
['beep', 0.0, -91.37393133329527, 0.0, 0.0, 0.0, 0.0, -1765.0502044022328, 0.0]
['beep', 0.0, -90.61397202181483, 0.0, 0.0, 0.0, 0.0, -1763.9549689239227, 0.0]
['beep', 0.0, -91.7986144779461, 0.0, 0.0, 0.0, 0.0, -1763.463230545906, 0.0]
['beep', 0.0, -91.15041388874221, 0.0, 0.0, 0.0, 0.0, -1763.9102654350122, 0.0]
['beep', 0.0, -93.09501565635392, 0.0, 0.0, 0.0, 0.0, -1765.653701502526, 0.0]
['beep', 0.0, -92.33505634487348, 0.0, 0.0, 0.0, 0.0, -1765.9219224359897, 0.0]
['beep', 0.0, -91.73155924458018, 0.0, 0.0, 0.0, 0.0, -1764.849038702135, 0.0]
['beep', 0.0, -90.07753015488747, 0.0, 0.0, 0.0, 0.0, -1766.1007363916322, 0.0]
['beep', 0.0, -91.28452435547405, 0.0, 0.0, 0.0, 0.0, -1766.0336811582663, 0.0]
['beep', 0.0, -91.73155924458018, 0.0, 0.0, 0.0, 0.0, -1766.5477712807383, 0.0]
['beep', 0.0, -89.20581212113049, 0.0, 0.0, 0.0, 0.0, -1767.1512683810317, 0.0]
['beep', 0.0, -89.04934990994333, 0.0, 0.0, 0.0, 0.0, -1765.6313497580709, 0.0]
['beep', 0.0, -91.06100691092098, 0.0, 0.0, 0.0, 0.0, -1766.4807160473724, 0.0]
['beep', 0.0, -93.07266391189862, 0.0, 0.0, 0.0, 0.0, -1766.2124951139087, 0.0]
['beep', 0.0, -91.23982086656343, 0.0, 0.0, 0.0, 0.0, -1765.6313497580709, 0.0]
['beep', 0.0, -89.27286735449641, 0.0, 0.0, 0.0, 0.0, -1767.2853788477635, 0.0]
['beep', 0.0, -87.90941094272267, 0.0, 0.0, 0.0, 0.0, -1766.815992214202, 0.0]
['beep', 0.0, -89.8763644547897, 0.0, 0.0, 0.0, 0.0, -1767.5088962923166, 0.0]
['beep', 0.0, -91.4409865666612, 0.0, 0.0, 0.0, 0.0, -1768.6041317706267, 0.0]
['beep', 0.0, -92.89384995625615, 0.0, 0.0, 0.0, 0.0, -1767.911227692512, 0.0]
['beep', 0.0, -91.57509703339304, 0.0, 0.0, 0.0, 0.0, -1767.4418410589508, 0.0]
['beep', 0.0, -90.21164062161931, 0.0, 0.0, 0.0, 0.0, -1769.498201548839, 0.0]
['beep', 0.0, -92.49151855606063, 0.0, 0.0, 0.0, 0.0, -1769.6323120155707, 0.0]
['beep', 0.0, -94.74904474604664, 0.0, 0.0, 0.0, 0.0, -1768.6488352595372, 0.0]
['beep', 0.0, -92.0668354114098, 0.0, 0.0, 0.0, 0.0, -1769.2523323598305, 0.0]
['beep', 0.0, -91.06100691092098, 0.0, 0.0, 0.0, 0.0, -1769.2523323598305, 0.0]
['beep', 0.0, -90.8598412108232, 0.0, 0.0, 0.0, 0.0, -1768.9617596819116, 0.0]
['beep', 0.0, -90.90454469973382, 0.0, 0.0, 0.0, 0.0, -1768.7605939818138, 0.0]
['beep', 0.0, -91.82096622240141, 0.0, 0.0, 0.0, 0.0, -1767.4865445478613, 0.0]
['beep', 0.0, -90.8374894663679, 0.0, 0.0, 0.0, 0.0, -1768.0229864147886, 0.0]
['beep', 0.0, -91.4409865666612, 0.0, 0.0, 0.0, 0.0, -1768.045338159244, 0.0]
['beep', 0.0, -90.5245650439936, 0.0, 0.0, 0.0, 0.0, -1768.693538748448, 0.0]
['beep', 0.0, -90.12223364379808, 0.0, 0.0, 0.0, 0.0, -1768.8276492151797, 0.0]
['beep', 0.0, -90.90454469973382, 0.0, 0.0, 0.0, 0.0, -1768.8947044485456, 0.0]
['beep', 0.0, -92.0668354114098, 0.0, 0.0, 0.0, 0.0, -1769.7887742267578, 0.0]
['beep', 0.0, -90.23399236607462, 0.0, 0.0, 0.0, 0.0, -1769.364091082107, 0.0]
['beep', 0.0, -90.34575108835115, 0.0, 0.0, 0.0, 0.0, -1769.1852771264646, 0.0]
['beep', 0.0, -90.27869585498523, 0.0, 0.0, 0.0, 0.0, -1769.3864428265624, 0.0]
['beep', 0.0, -92.4021115782394, 0.0, 0.0, 0.0, 0.0, -1770.5934370271489, 0.0]
['beep', 0.0, -90.61397202181483, 0.0, 0.0, 0.0, 0.0, -1769.3417393376517, 0.0]
['beep', 0.0, -89.20581212113049, 0.0, 0.0, 0.0, 0.0, -1769.0064631708221, 0.0]
['beep', 0.0, -89.67519875469193, 0.0, 0.0, 0.0, 0.0, -1767.7324137368696, 0.0]
['beep', 0.0, -89.31757084340703, 0.0, 0.0, 0.0, 0.0, -1768.3806143260736, 0.0]
['beep', 0.0, -89.29521909895172, 0.0, 0.0, 0.0, 0.0, -1768.5370765372606, 0.0]
['beep', 0.0, -90.43515806617238, 0.0, 0.0, 0.0, 0.0, -1767.8441724591462, 0.0]
['beep', 0.0, -90.56926853290422, 0.0, 0.0, 0.0, 0.0, -1765.6760532469814, 0.0]
['beep', 0.0, -90.32339934389584, 0.0, 0.0, 0.0, 0.0, -1767.0618614032105, 0.0]
['beep', 0.0, -90.81513772191259, 0.0, 0.0, 0.0, 0.0, -1766.815992214202, 0.0]
['beep', 0.0, -92.60327727833716, 0.0, 0.0, 0.0, 0.0, -1768.2241521148865, 0.0]
['beep', 0.0, -92.29035285596287, 0.0, 0.0, 0.0, 0.0, -1767.4865445478613, 0.0]
['beep', 0.0, -92.29035285596287, 0.0, 0.0, 0.0, 0.0, -1768.4476695594394, 0.0]
['beep', 0.0, -91.23982086656343, 0.0, 0.0, 0.0, 0.0, -1767.3300823366742, 0.0]
['beep', 0.0, -91.61980052230365, 0.0, 0.0, 0.0, 0.0, -1767.0842131476657, 0.0]
['beep', 0.0, -92.04448366695448, 0.0, 0.0, 0.0, 0.0, -1768.1123933926099, 0.0]
['beep', 0.0, -89.27286735449641, 0.0, 0.0, 0.0, 0.0, -1769.8334777156686, 0.0]
['beep', 0.0, -91.1057103998316, 0.0, 0.0, 0.0, 0.0, -1769.2523323598305, 0.0]
['beep', 0.0, -88.73642548756904, 0.0, 0.0, 0.0, 0.0, -1769.6323120155707, 0.0]
['beep', 0.0, -88.66937025420312, 0.0, 0.0, 0.0, 0.0, -1767.9335794369674, 0.0]
['beep', 0.0, -90.39045457726176, 0.0, 0.0, 0.0, 0.0, -1769.5205532932941, 0.0]
['beep', 0.0, -94.05614066793213, 0.0, 0.0, 0.0, 0.0, -1767.5535997812271, 0.0]
['beep', 0.0, -92.04448366695448, 0.0, 0.0, 0.0, 0.0, -1766.2795503472746, 0.0]
['beep', 0.0, -90.88219295527851, 0.0, 0.0, 0.0, 0.0, -1767.888875948057, 0.0]
['beep', 0.0, -89.33992258786233, 0.0, 0.0, 0.0, 0.0, -1768.9394079374563, 0.0]
['beep', 0.0, -91.32922784438466, 0.0, 0.0, 0.0, 0.0, -1768.715890492903, 0.0]
['beep', 0.0, -92.58092553388185, 0.0, 0.0, 0.0, 0.0, -1767.39713757004, 0.0]
['beep', 0.0, -91.32922784438466, 0.0, 0.0, 0.0, 0.0, -1766.5030677918278, 0.0]
['beep', 0.0, -90.99395167755505, 0.0, 0.0, 0.0, 0.0, -1767.263027103308, 0.0]
['beep', 0.0, -90.09988189934278, 0.0, 0.0, 0.0, 0.0, -1766.3242538361853, 0.0]
['beep', 0.0, -92.53622204497124, 0.0, 0.0, 0.0, 0.0, -1765.8772189470792, 0.0]
['beep', 0.0, -93.02796042298799, 0.0, 0.0, 0.0, 0.0, -1764.983149168867, 0.0]
['beep', 0.0, -91.68685575566957, 0.0, 0.0, 0.0, 0.0, -1763.7985067127356, 0.0]
['beep', 0.0, -91.50804180002712, 0.0, 0.0, 0.0, 0.0, -1767.5759515256825, 0.0]
['beep', 0.0, -92.69268425615839, 0.0, 0.0, 0.0, 0.0, -1770.7498992383362, 0.0]
['beep', 0.0, -92.87149821180084, 0.0, 0.0, 0.0, 0.0, -1768.8723527040904, 0.0]
['beep', 0.0, -91.57509703339304, 0.0, 0.0, 0.0, 0.0, -1768.9617596819116, 0.0]
['beep', 0.0, -91.61980052230365, 0.0, 0.0, 0.0, 0.0, -1770.0569951602215, 0.0]
['beep', 0.0, -90.99395167755505, 0.0, 0.0, 0.0, 0.0, -1766.9053991920232, 0.0]
['beep', 0.0, -93.40794007872822, 0.0, 0.0, 0.0, 0.0, -1764.2678933462971, 0.0]
['beep', 0.0, -89.71990224360255, 0.0, 0.0, 0.0, 0.0, -1767.240675358853, 0.0]
['beep', 0.0, -91.4409865666612, 0.0, 0.0, 0.0, 0.0, -1767.9335794369674, 0.0]
['beep', 0.0, -93.94438194565558, 0.0, 0.0, 0.0, 0.0, -1770.30286434923, 0.0]
['beep', 0.0, -92.13389064477572, 0.0, 0.0, 0.0, 0.0, -1770.526381793783, 0.0]
['beep', 0.0, -92.67033251170308, 0.0, 0.0, 0.0, 0.0, -1767.2853788477635, 0.0]
['beep', 0.0, -91.35157958883997, 0.0, 0.0, 0.0, 0.0, -1767.0618614032105, 0.0]
['beep', 0.0, -94.48082381258295, 0.0, 0.0, 0.0, 0.0, -1769.8111259712132, 0.0]
['beep', 0.0, -90.32339934389584, 0.0, 0.0, 0.0, 0.0, -1770.1911056269535, 0.0]
['beep', 0.0, -89.74225398805785, 0.0, 0.0, 0.0, 0.0, -1769.5652567822049, 0.0]
['beep', 0.0, -94.34671334585111, 0.0, 0.0, 0.0, 0.0, -1769.2970358487412, 0.0]
['beep', 0.0, -94.92785870168909, 0.0, 0.0, 0.0, 0.0, -1769.1852771264646, 0.0]
['beep', 0.0, -93.3408848453623, 0.0, 0.0, 0.0, 0.0, -1769.2746841042858, 0.0]
['beep', 0.0, -94.12319590129805, 0.0, 0.0, 0.0, 0.0, -1768.6041317706267, 0.0]
['beep', 0.0, -95.86663196881199, 0.0, 0.0, 0.0, 0.0, -1768.693538748448, 0.0]
['beep', 0.0, -96.96186744712203, 0.0, 0.0, 0.0, 0.0, -1765.7654602248026, 0.0]
['beep', 0.0, -94.86080346832317, 0.0, 0.0, 0.0, 0.0, -1768.402966070529, 0.0]
['beep', 0.0, -97.69947501414717, 0.0, 0.0, 0.0, 0.0, -1767.4418410589508, 0.0]
['beep', 0.0, -97.25244012504103, 0.0, 0.0, 0.0, 0.0, -1768.6264835150819, 0.0]
['beep', 0.0, -90.56926853290422, 0.0, 0.0, 0.0, 0.0, -1767.6653585035037, 0.0]
['beep', 0.0, -93.74321624555782, 0.0, 0.0, 0.0, 0.0, -1765.9889776693558, 0.0]
['beep', 0.0, -93.51969880100475, 0.0, 0.0, 0.0, 0.0, -1767.8441724591462, 0.0]
['beep', 0.0, -94.36906509030642, 0.0, 0.0, 0.0, 0.0, -1765.5642945247048, 0.0]
['beep', 0.0, -92.96090518962207, 0.0, 0.0, 0.0, 0.0, -1767.754765481325, 0.0]
['beep', 0.0, -91.39628307775058, 0.0, 0.0, 0.0, 0.0, -1768.2912073482523, 0.0]
['beep', 0.0, -91.21746912210813, 0.0, 0.0, 0.0, 0.0, -1765.9219224359897, 0.0]
['beep', 0.0, -91.48569005557181, 0.0, 0.0, 0.0, 0.0, -1768.0676899036994, 0.0]
['beep', 0.0, -91.73155924458018, 0.0, 0.0, 0.0, 0.0, -1767.1959718699422, 0.0]
['beep', 0.0, -88.19998362064167, 0.0, 0.0, 0.0, 0.0, -1766.3242538361853, 0.0]
['beep', 0.0, -91.88802145576733, 0.0, 0.0, 0.0, 0.0, -1767.7324137368696, 0.0]
['beep', 0.0, -91.48569005557181, 0.0, 0.0, 0.0, 0.0, -1768.4476695594394, 0.0]
['beep', 0.0, -91.4633383111165, 0.0, 0.0, 0.0, 0.0, -1766.011329413811, 0.0]
['beep', 0.0, -92.58092553388185, 0.0, 0.0, 0.0, 0.0, -1767.6653585035037, 0.0]
['beep', 0.0, -91.50804180002712, 0.0, 0.0, 0.0, 0.0, -1767.8441724591462, 0.0]
['beep', 0.0, -91.7986144779461, 0.0, 0.0, 0.0, 0.0, -1765.6089980136155, 0.0]
['beep', 0.0, -89.94341968815561, 0.0, 0.0, 0.0, 0.0, -1767.8218207146908, 0.0]
['beep', 0.0, -94.0337889234768, 0.0, 0.0, 0.0, 0.0, -1771.5992655276377, 0.0]
['beep', 0.0, -94.48082381258295, 0.0, 0.0, 0.0, 0.0, -1769.498201548839, 0.0]
['beep', 0.0, -91.50804180002712, 0.0, 0.0, 0.0, 0.0, -1769.6099602711154, 0.0]
['beep', 0.0, -94.39141683476173, 0.0, 0.0, 0.0, 0.0, -1768.850000959635, 0.0]
['beep', 0.0, -90.79278597745729, 0.0, 0.0, 0.0, 0.0, -1767.5535997812271, 0.0]
['beep', 0.0, -93.16207088971984, 0.0, 0.0, 0.0, 0.0, -1768.9841114263668, 0.0]
['beep', 0.0, -93.87732671228966, 0.0, 0.0, 0.0, 0.0, -1768.1123933926099, 0.0]
['beep', 0.0, -93.00560867853268, 0.0, 0.0, 0.0, 0.0, -1769.1182218930987, 0.0]
['beep', 0.0, -90.79278597745729, 0.0, 0.0, 0.0, 0.0, -1768.917056193001, 0.0]
['beep', 0.0, -92.22329762259695, 0.0, 0.0, 0.0, 0.0, -1767.3747858255847, 0.0]
['beep', 0.0, -92.11153890032041, 0.0, 0.0, 0.0, 0.0, -1768.7605939818138, 0.0]
['beep', 0.0, -91.21746912210813, 0.0, 0.0, 0.0, 0.0, -1769.6993672489366, 0.0]
['beep', 0.0, -90.189288877164, 0.0, 0.0, 0.0, 0.0, -1767.3524340811293, 0.0]
['beep', 0.0, -88.9599429321221, 0.0, 0.0, 0.0, 0.0, -1765.4748875468836, 0.0]
['beep', 0.0, -85.67423649719197, 0.0, 0.0, 0.0, 0.0, -1766.3913090695512, 0.0]
['beep', 0.0, -86.79182371995732, 0.0, 0.0, 0.0, 0.0, -1769.073518404188, 0.0]
['beep', 0.0, -93.63145752328128, 0.0, 0.0, 0.0, 0.0, -1769.498201548839, 0.0]
['beep', 0.0, -90.68102725518075, 0.0, 0.0, 0.0, 0.0, -1766.950102680934, 0.0]
['beep', 0.0, -86.18832661966404, 0.0, 0.0, 0.0, 0.0, -1766.011329413811, 0.0]
['beep', 0.0, -88.53525978747128, 0.0, 0.0, 0.0, 0.0, -1766.458364302917, 0.0]
['beep', 0.0, -89.11640514330927, 0.0, 0.0, 0.0, 0.0, -1766.7936404697468, 0.0]
['beep', 0.0, -90.03282666597684, 0.0, 0.0, 0.0, 0.0, -1767.8441724591462, 0.0]
['beep', 0.0, -92.62562902279247, 0.0, 0.0, 0.0, 0.0, -1767.4865445478613, 0.0]
['beep', 0.0, -92.55857378942655, 0.0, 0.0, 0.0, 0.0, -1765.8772189470792, 0.0]
['beep', 0.0, -89.8763644547897, 0.0, 0.0, 0.0, 0.0, -1766.1677916249982, 0.0]
['beep', 0.0, -89.42932956568356, 0.0, 0.0, 0.0, 0.0, -1765.2066666134199, 0.0]
['beep', 0.0, -90.54691678844891, 0.0, 0.0, 0.0, 0.0, -1765.787811969258, 0.0]
['beep', 0.0, -89.33992258786233, 0.0, 0.0, 0.0, 0.0, -1764.983149168867, 0.0]
['beep', 0.0, -92.60327727833716, 0.0, 0.0, 0.0, 0.0, -1763.4185270569953, 0.0]
['beep', 0.0, -89.65284701023663, 0.0, 0.0, 0.0, 0.0, -1763.1950096124424, 0.0]
['beep', 0.0, -93.47499531209414, 0.0, 0.0, 0.0, 0.0, -1762.4574020454172, 0.0]
['beep', 0.0, -95.12902440178686, 0.0, 0.0, 0.0, 0.0, -1762.9267886789787, 0.0]
['beep', 0.0, -90.5022132995383, 0.0, 0.0, 0.0, 0.0, -1764.6478730020374, 0.0]
['beep', 0.0, -89.78695747696847, 0.0, 0.0, 0.0, 0.0, -1763.6420445015485, 0.0]
['beep', 0.0, -91.1057103998316, 0.0, 0.0, 0.0, 0.0, -1763.172657867987, 0.0]
['beep', 0.0, -93.02796042298799, 0.0, 0.0, 0.0, 0.0, -1761.3398148226518, 0.0]
['beep', 0.0, -95.41959707970585, 0.0, 0.0, 0.0, 0.0, -1762.6809194899702, 0.0]
['beep', 0.0, -95.62076277980361, 0.0, 0.0, 0.0, 0.0, -1764.469059046395, 0.0]
['beep', 0.0, -92.89384995625615, 0.0, 0.0, 0.0, 0.0, -1763.0832508901658, 0.0]
['beep', 0.0, -92.04448366695448, 0.0, 0.0, 0.0, 0.0, -1763.172657867987, 0.0]
['beep', 0.0, -90.90454469973382, 0.0, 0.0, 0.0, 0.0, -1763.1279543790763, 0.0]
['beep', 0.0, -90.14458538825339, 0.0, 0.0, 0.0, 0.0, -1763.9102654350122, 0.0]
['beep', 0.0, -93.58675403437067, 0.0, 0.0, 0.0, 0.0, -1763.530285779272, 0.0]
['beep', 0.0, -90.88219295527851, 0.0, 0.0, 0.0, 0.0, -1763.3291200791741, 0.0]
['beep', 0.0, -88.9375911876668, 0.0, 0.0, 0.0, 0.0, -1761.9433119229452, 0.0]
['beep', 0.0, -92.69268425615839, 0.0, 0.0, 0.0, 0.0, -1761.9656636674003, 0.0]
['beep', 0.0, -91.84331796685672, 0.0, 0.0, 0.0, 0.0, -1762.4797537898726, 0.0]
['beep', 0.0, -90.34575108835115, 0.0, 0.0, 0.0, 0.0, -1763.2620648458083, 0.0]
['beep', 0.0, -91.4409865666612, 0.0, 0.0, 0.0, 0.0, -1761.071593889188, 0.0]
['beep', 0.0, -91.37393133329527, 0.0, 0.0, 0.0, 0.0, -1761.9209601784898, 0.0]
['beep', 0.0, -92.78209123397961, 0.0, 0.0, 0.0, 0.0, -1763.6420445015485, 0.0]
['beep', 0.0, -92.80444297843492, 0.0, 0.0, 0.0, 0.0, -1763.7314514793698, 0.0]
['beep', 0.0, -90.27869585498523, 0.0, 0.0, 0.0, 0.0, -1762.7032712344255, 0.0]
['beep', 0.0, -91.08335865537629, 0.0, 0.0, 0.0, 0.0, -1763.0832508901658, 0.0]
['beep', 0.0, -92.13389064477572, 0.0, 0.0, 0.0, 0.0, -1763.1950096124424, 0.0]
['beep', 0.0, -91.97742843358856, 0.0, 0.0, 0.0, 0.0, -1762.7479747233363, 0.0]
['beep', 0.0, -89.45168131013887, 0.0, 0.0, 0.0, 0.0, -1763.1503061235317, 0.0]
['beep', 0.0, -89.67519875469193, 0.0, 0.0, 0.0, 0.0, -1762.077422389677, 0.0]
['beep', 0.0, -91.41863482220589, 0.0, 0.0, 0.0, 0.0, -1760.9821869113669, 0.0]
['beep', 0.0, -92.17859413368633, 0.0, 0.0, 0.0, 0.0, -1760.7139659779032, 0.0]
['beep', 0.0, -88.9375911876668, 0.0, 0.0, 0.0, 0.0, -1761.4068700560179, 0.0]
['beep', 0.0, -88.66937025420312, 0.0, 0.0, 0.0, 0.0, -1762.2785880897748, 0.0]
['beep', 0.0, -88.75877723202434, 0.0, 0.0, 0.0, 0.0, -1761.0268904002776, 0.0]
['beep', 0.0, -87.9988179205439, 0.0, 0.0, 0.0, 0.0, -1759.5740270106826, 0.0]
['beep', 0.0, -89.20581212113049, 0.0, 0.0, 0.0, 0.0, -1760.2892828332524, 0.0]
['beep', 0.0, -88.24468710955229, 0.0, 0.0, 0.0, 0.0, -1759.238750843853, 0.0]
['beep', 0.0, -88.2670388540076, 0.0, 0.0, 0.0, 0.0, -1758.1658671099983, 0.0]
['beep', 0.0, -88.06587315390982, 0.0, 0.0, 0.0, 0.0, -1757.8752944320793, 0.0]
['beep', 0.0, -87.17180337569755, 0.0, 0.0, 0.0, 0.0, -1759.7975444552358, 0.0]
['beep', 0.0, -89.69755049914724, 0.0, 0.0, 0.0, 0.0, -1757.8752944320793, 0.0]
['beep', 0.0, -91.23982086656343, 0.0, 0.0, 0.0, 0.0, -1754.7460502083363, 0.0]
['beep', 0.0, -89.16110863221988, 0.0, 0.0, 0.0, 0.0, -1757.338852565152, 0.0]
['beep', 0.0, -88.15528013173106, 0.0, 0.0, 0.0, 0.0, -1757.651776987526, 0.0]
['beep', 0.0, -88.15528013173106, 0.0, 0.0, 0.0, 0.0, -1756.400079298029, 0.0]
['beep', 0.0, -90.68102725518075, 0.0, 0.0, 0.0, 0.0, -1757.0035763983224, 0.0]
['beep', 0.0, -89.04934990994333, 0.0, 0.0, 0.0, 0.0, -1759.7304892218697, 0.0]
['beep', 0.0, -89.04934990994333, 0.0, 0.0, 0.0, 0.0, -1757.4506112874285, 0.0]
['beep', 0.0, -88.55761153192658, 0.0, 0.0, 0.0, 0.0, -1756.7130037204033, 0.0]
['beep', 0.0, -86.59065801985956, 0.0, 0.0, 0.0, 0.0, -1756.8918176760458, 0.0]
['beep', 0.0, -84.42253880769478, 0.0, 0.0, 0.0, 0.0, -1757.495314776339, 0.0]
['beep', 0.0, -85.87540219728973, 0.0, 0.0, 0.0, 0.0, -1758.1211636210876, 0.0]
['beep', 0.0, -87.73059698708022, 0.0, 0.0, 0.0, 0.0, -1758.3893845545513, 0.0]
['beep', 0.0, -88.15528013173106, 0.0, 0.0, 0.0, 0.0, -1757.9870531543559, 0.0]
['beep', 0.0, -89.00464642103272, 0.0, 0.0, 0.0, 0.0, -1757.3835560540624, 0.0]
['beep', 0.0, -89.04934990994333, 0.0, 0.0, 0.0, 0.0, -1758.1211636210876, 0.0]
['beep', 0.0, -87.70824524262491, 0.0, 0.0, 0.0, 0.0, -1757.6964804764368, 0.0]
['beep', 0.0, -87.77530047599083, 0.0, 0.0, 0.0, 0.0, -1757.9423496654451, 0.0]
['beep', 0.0, -85.07073939689867, 0.0, 0.0, 0.0, 0.0, -1755.885989175557, 0.0]
['beep', 0.0, -85.67423649719197, 0.0, 0.0, 0.0, 0.0, -1756.1542101090206, 0.0]
['beep', 0.0, -86.92593418668916, 0.0, 0.0, 0.0, 0.0, -1755.6177682420932, 0.0]
['beep', 0.0, -88.08822489836514, 0.0, 0.0, 0.0, 0.0, -1754.9025124195234, 0.0]
['beep', 0.0, -91.21746912210813, 0.0, 0.0, 0.0, 0.0, -1758.1211636210876, 0.0]
['beep', 0.0, -93.76556799001312, 0.0, 0.0, 0.0, 0.0, -1758.791715954747, 0.0]
['beep', 0.0, -89.5857917768707, 0.0, 0.0, 0.0, 0.0, -1757.9870531543559, 0.0]
['beep', 0.0, -86.99298942005508, 0.0, 0.0, 0.0, 0.0, -1759.4175647994955, 0.0]
['beep', 0.0, -90.09988189934278, 0.0, 0.0, 0.0, 0.0, -1761.0045386558222, 0.0]
['beep', 0.0, -87.52943128698246, 0.0, 0.0, 0.0, 0.0, -1761.049242144733, 0.0]
['beep', 0.0, -88.51290804301597, 0.0, 0.0, 0.0, 0.0, -1757.8305909431685, 0.0]
['beep', 0.0, -89.16110863221988, 0.0, 0.0, 0.0, 0.0, -1758.5011432768279, 0.0]
['beep', 0.0, -87.46237605361654, 0.0, 0.0, 0.0, 0.0, -1761.496277033839, 0.0]
['beep', 0.0, -90.27869585498523, 0.0, 0.0, 0.0, 0.0, -1760.8033729557244, 0.0]
['beep', 0.0, -91.57509703339304, 0.0, 0.0, 0.0, 0.0, -1759.7975444552358, 0.0]
['beep', 0.0, -89.33992258786233, 0.0, 0.0, 0.0, 0.0, -1760.244579344342, 0.0]
['beep', 0.0, -89.27286735449641, 0.0, 0.0, 0.0, 0.0, -1756.82476244268, 0.0]
['beep', 0.0, -92.62562902279247, 0.0, 0.0, 0.0, 0.0, -1758.009404898811, 0.0]
['beep', 0.0, -91.1280621442869, 0.0, 0.0, 0.0, 0.0, -1760.7810212112693, 0.0]
['beep', 0.0, -85.4283673081836, 0.0, 0.0, 0.0, 0.0, -1760.7363177223585, 0.0]
['beep', 0.0, -91.41863482220589, 0.0, 0.0, 0.0, 0.0, -1759.7304892218697, 0.0]
['beep', 0.0, -95.19607963515278, 0.0, 0.0, 0.0, 0.0, -1761.853904945124, 0.0]
['beep', 0.0, -91.26217261101874, 0.0, 0.0, 0.0, 0.0, -1760.9598351669117, 0.0]
['beep', 0.0, -90.65867551072544, 0.0, 0.0, 0.0, 0.0, -1763.7985067127356, 0.0]
['beep', 0.0, -93.05031216744331, 0.0, 0.0, 0.0, 0.0, -1762.7032712344255, 0.0]
['beep', 0.0, -91.88802145576733, 0.0, 0.0, 0.0, 0.0, -1761.6750909894815, 0.0]
['beep', 0.0, -91.21746912210813, 0.0, 0.0, 0.0, 0.0, -1764.3573003241183, 0.0]
['beep', 0.0, -92.49151855606063, 0.0, 0.0, 0.0, 0.0, -1765.273721846786, 0.0]
['beep', 0.0, -91.88802145576733, 0.0, 0.0, 0.0, 0.0, -1765.2066666134199, 0.0]
['beep', 0.0, -93.40794007872822, 0.0, 0.0, 0.0, 0.0, -1765.653701502526, 0.0]
['beep', 0.0, -89.98812317706623, 0.0, 0.0, 0.0, 0.0, -1766.815992214202, 0.0]
['beep', 0.0, -91.48569005557181, 0.0, 0.0, 0.0, 0.0, -1766.4807160473724, 0.0]
['beep', 0.0, -91.66450401121426, 0.0, 0.0, 0.0, 0.0, -1763.977320668378, 0.0]
['beep', 0.0, -86.25538185302996, 0.0, 0.0, 0.0, 0.0, -1763.686747990459, 0.0]
['beep', 0.0, -89.2281638655858, 0.0, 0.0, 0.0, 0.0, -1765.7431084803472, 0.0]
['beep', 0.0, -88.71407374311373, 0.0, 0.0, 0.0, 0.0, -1764.3125968352076, 0.0]
['beep', 0.0, -85.54012603046013, 0.0, 0.0, 0.0, 0.0, -1765.430184057973, 0.0]
['beep', 0.0, -90.01047492152153, 0.0, 0.0, 0.0, 0.0, -1766.3242538361853, 0.0]
['beep', 0.0, -90.8598412108232, 0.0, 0.0, 0.0, 0.0, -1761.1610008670093, 0.0]
['beep', 0.0, -86.09891964184281, 0.0, 0.0, 0.0, 0.0, -1763.530285779272, 0.0]
['beep', 0.0, -88.89288769875618, 0.0, 0.0, 0.0, 0.0, -1763.9996724128334, 0.0]
['beep', 0.0, -88.75877723202434, 0.0, 0.0, 0.0, 0.0, -1764.044375901744, 0.0]
['beep', 0.0, -86.81417546441263, 0.0, 0.0, 0.0, 0.0, -1766.2124951139087, 0.0]
['beep', 0.0, -86.68006499768079, 0.0, 0.0, 0.0, 0.0, -1765.0949078911435, 0.0]
['beep', 0.0, -90.21164062161931, 0.0, 0.0, 0.0, 0.0, -1763.8655619461015, 0.0]
['beep', 0.0, -90.79278597745729, 0.0, 0.0, 0.0, 0.0, -1762.658567745515, 0.0]
['beep', 0.0, -90.189288877164, 0.0, 0.0, 0.0, 0.0, -1763.3738235680848, 0.0]
['beep', 0.0, -85.24955335254114, 0.0, 0.0, 0.0, 0.0, -1764.8266869576798, 0.0]
['beep', 0.0, -86.23303010857465, 0.0, 0.0, 0.0, 0.0, -1763.9326171794676, 0.0]
['beep', 0.0, -89.09405339885396, 0.0, 0.0, 0.0, 0.0, -1763.3067683347188, 0.0]
['beep', 0.0, -89.42932956568356, 0.0, 0.0, 0.0, 0.0, -1763.4185270569953, 0.0]
['beep', 0.0, -87.6858934981696, 0.0, 0.0, 0.0, 0.0, -1768.693538748448, 0.0]
['beep', 0.0, -87.37296907579531, 0.0, 0.0, 0.0, 0.0, -1766.0336811582663, 0.0]
['beep', 0.0, -88.31174234291821, 0.0, 0.0, 0.0, 0.0, -1763.3067683347188, 0.0]
['beep', 0.0, -90.21164062161931, 0.0, 0.0, 0.0, 0.0, -1761.5186287782942, 0.0]
['beep', 0.0, -90.34575108835115, 0.0, 0.0, 0.0, 0.0, -1762.0327189007664, 0.0]
['beep', 0.0, -89.5410882879601, 0.0, 0.0, 0.0, 0.0, -1766.458364302917, 0.0]
['beep', 0.0, -88.35644583182882, 0.0, 0.0, 0.0, 0.0, -1769.7664224823027, 0.0]
['beep', 0.0, -89.5410882879601, 0.0, 0.0, 0.0, 0.0, -1768.045338159244, 0.0]
['beep', 0.0, -88.55761153192658, 0.0, 0.0, 0.0, 0.0, -1766.7936404697468, 0.0]
['beep', 0.0, -87.46237605361654, 0.0, 0.0, 0.0, 0.0, -1768.0229864147886, 0.0]
['beep', 0.0, -84.73546323006907, 0.0, 0.0, 0.0, 0.0, -1773.2532946173305, 0.0]
['beep', 0.0, -85.58482951937074, 0.0, 0.0, 0.0, 0.0, -1768.9394079374563, 0.0]
['beep', 0.0, -90.23399236607462, 0.0, 0.0, 0.0, 0.0, -1768.1794486259757, 0.0]
['beep', 0.0, -90.56926853290422, 0.0, 0.0, 0.0, 0.0, -1770.4593265604171, 0.0]
['beep', 0.0, -85.02603590798806, 0.0, 0.0, 0.0, 0.0, -1772.6497975170373, 0.0]
['beep', 0.0, -85.093091141354, 0.0, 0.0, 0.0, 0.0, -1770.3922713270513, 0.0]
['beep', 0.0, -87.50707954252715, 0.0, 0.0, 0.0, 0.0, -1772.6945010059478, 0.0]
['beep', 0.0, -86.85887895332324, 0.0, 0.0, 0.0, 0.0, -1774.080309162177, 0.0]
['beep', 0.0, -86.97063767559978, 0.0, 0.0, 0.0, 0.0, -1770.012291671311, 0.0]
['beep', 0.0, -88.73642548756904, 0.0, 0.0, 0.0, 0.0, -1773.8120882287133, 0.0]
['beep', 0.0, -87.9988179205439, 0.0, 0.0, 0.0, 0.0, -1780.2493906318416, 0.0]
['beep', 0.0, -88.80348072093496, 0.0, 0.0, 0.0, 0.0, -1771.8004312277355, 0.0]
['beep', 0.0, -88.87053595430088, 0.0, 0.0, 0.0, 0.0, -1774.6614545180148, 0.0]
['beep', 0.0, -89.47403305459417, 0.0, 0.0, 0.0, 0.0, -1774.6167510291043, 0.0]
['beep', 0.0, -87.79765222044614, 0.0, 0.0, 0.0, 0.0, -1770.1464021380427, 0.0]
['beep', 0.0, -88.69172199865842, 0.0, 0.0, 0.0, 0.0, -1776.0249109297886, 0.0]
['beep', 0.0, -91.55274528893773, 0.0, 0.0, 0.0, 0.0, -1769.5652567822049, 0.0]
['beep', 0.0, -92.0891871558651, 0.0, 0.0, 0.0, 0.0, -1768.0676899036994, 0.0]
['beep', 0.0, -87.64119000925899, 0.0, 0.0, 0.0, 0.0, -1769.8111259712132, 0.0]
['beep', 0.0, -88.9375911876668, 0.0, 0.0, 0.0, 0.0, -1766.2571986028195, 0.0]
['beep', 0.0, -89.27286735449641, 0.0, 0.0, 0.0, 0.0, -1768.5817800261714, 0.0]
['beep', 0.0, -88.42350106519474, 0.0, 0.0, 0.0, 0.0, -1757.4282595429731, 0.0]
['beep', 0.0, -91.4633383111165, 0.0, 0.0, 0.0, 0.0, -1750.3427565506408, 0.0]
['beep', 0.0, -91.82096622240141, 0.0, 0.0, 0.0, 0.0, -1739.0104221118002, 0.0]
['beep', 0.0, -86.50125104203833, 0.0, 0.0, 0.0, 0.0, -1729.622689440571, 0.0]
['beep', 0.0, -86.7024167421361, 0.0, 0.0, 0.0, 0.0, -1711.5177764317723, 0.0]
['beep', 0.0, -84.06491089640986, 0.0, 0.0, 0.0, 0.0, -1694.7092646013814, 0.0]
['beep', 0.0, -87.23885860906347, 0.0, 0.0, 0.0, 0.0, -1666.5237148432393, 0.0]
['beep', 0.0, -88.87053595430088, 0.0, 0.0, 0.0, 0.0, -1642.406182575963, 0.0]
['beep', 0.0, -86.4118440642171, 0.0, 0.0, 0.0, 0.0, -1624.927118411913, 0.0]
['beep', 0.0, -86.54595453094895, 0.0, 0.0, 0.0, 0.0, -1603.0000571012565, 0.0]
['beep', 0.0, -90.25634411052992, 0.0, 0.0, 0.0, 0.0, -1585.0069028147345, 0.0]
['beep', 0.0, -92.0668354114098, 0.0, 0.0, 0.0, 0.0, -1570.6794346188826, 0.0]
['beep', 0.0, -93.72086450110251, 0.0, 0.0, 0.0, 0.0, -1564.4880014047626, 0.0]
['beep', 0.0, -87.21650686460816, 0.0, 0.0, 0.0, 0.0, -1549.1770564528772, 0.0]
['beep', 0.0, -86.63536150877017, 0.0, 0.0, 0.0, 0.0, -1544.1032104615224, 0.0]
['beep', 0.0, -91.01630342201035, 0.0, 0.0, 0.0, 0.0, -1549.668794830894, 0.0]
['beep', 0.0, -93.58675403437067, 0.0, 0.0, 0.0, 0.0, -1554.7426408222486, 0.0]
['beep', 0.0, -98.50413781453823, 0.0, 0.0, 0.0, 0.0, -1551.635748342961, 0.0]
['beep', 0.0, -89.80930922142377, 0.0, 0.0, 0.0, 0.0, -1557.0001670122347, 0.0]
['beep', 0.0, -86.52360278649364, 0.0, 0.0, 0.0, 0.0, -1568.2207427287988, 0.0]
['beep', 0.0, -90.05517841043215, 0.0, 0.0, 0.0, 0.0, -1572.9369608088687, 0.0]
['beep', 0.0, -93.13971914526454, 0.0, 0.0, 0.0, 0.0, -1580.245981245754, 0.0]
['beep', 0.0, -92.44681506715001, 0.0, 0.0, 0.0, 0.0, -1587.9126295939243, 0.0]
['beep', 0.0, -89.80930922142377, 0.0, 0.0, 0.0, 0.0, -1594.9981325862566, 0.0]
['beep', 0.0, -82.50028878453837, 0.0, 0.0, 0.0, 0.0, -1610.1302635824995, 0.0]
['beep', 0.0, -83.72963472958025, 0.0, 0.0, 0.0, 0.0, -1617.4616357638404, 0.0]
['beep', 0.0, -91.19511737765282, 0.0, 0.0, 0.0, 0.0, -1622.669592221927, 0.0]
['beep', 0.0, -91.48569005557181, 0.0, 0.0, 0.0, 0.0, -1626.5587957571502, 0.0]
['beep', 0.0, -91.23982086656343, 0.0, 0.0, 0.0, 0.0, -1631.7444004707816, 0.0]
['beep', 0.0, -88.2670388540076, 0.0, 0.0, 0.0, 0.0, -1646.049516922178, 0.0]
['beep', 0.0, -88.2893905984629, 0.0, 0.0, 0.0, 0.0, -1651.8386187361025, 0.0]
['beep', 0.0, -89.98812317706623, 0.0, 0.0, 0.0, 0.0, -1655.0572699376667, 0.0]
['beep', 0.0, -90.39045457726176, 0.0, 0.0, 0.0, 0.0, -1665.9649212318566, 0.0]
['beep', 0.0, -90.99395167755505, 0.0, 0.0, 0.0, 0.0, -1670.8152497786582, 0.0]
['beep', 0.0, -90.39045457726176, 0.0, 0.0, 0.0, 0.0, -1673.8327352801248, 0.0]
['beep', 0.0, -92.02213192249917, 0.0, 0.0, 0.0, 0.0, -1678.2583806822754, 0.0]
['beep', 0.0, -89.18346037667519, 0.0, 0.0, 0.0, 0.0, -1681.0076452502783, 0.0]
['beep', 0.0, -89.74225398805785, 0.0, 0.0, 0.0, 0.0, -1688.1825552204318, 0.0]
['beep', 0.0, -88.57996327638189, 0.0, 0.0, 0.0, 0.0, -1693.9046018009903, 0.0]
['beep', 0.0, -88.57996327638189, 0.0, 0.0, 0.0, 0.0, -1694.7986715792026, 0.0]
['beep', 0.0, -86.88123069777855, 0.0, 0.0, 0.0, 0.0, -1699.0007995368005, 0.0]
['beep', 0.0, -89.5634400324154, 0.0, 0.0, 0.0, 0.0, -1701.6159536380715, 0.0]
['beep', 0.0, -90.01047492152153, 0.0, 0.0, 0.0, 0.0, -1707.6509246410042, 0.0]
['beep', 0.0, -88.71407374311373, 0.0, 0.0, 0.0, 0.0, -1714.5799654221494, 0.0]
['beep', 0.0, -85.83069870837912, 0.0, 0.0, 0.0, 0.0, -1714.0658752996774, 0.0]
['beep', 0.0, -85.89775394174504, 0.0, 0.0, 0.0, 0.0, -1711.9648113208787, 0.0]
['beep', 0.0, -88.37879757628413, 0.0, 0.0, 0.0, 0.0, -1718.0668375571775, 0.0]
['beep', 0.0, -86.25538185302996, 0.0, 0.0, 0.0, 0.0, -1721.9560410924007, 0.0]
['beep', 0.0, -85.27190509699645, 0.0, 0.0, 0.0, 0.0, -1722.693648659426, 0.0]
['beep', 0.0, -85.51777428600482, 0.0, 0.0, 0.0, 0.0, -1724.4817882158504, 0.0]
['beep', 0.0, -87.26121035351878, 0.0, 0.0, 0.0, 0.0, -1725.9346516054454, 0.0]
['beep', 0.0, -88.87053595430088, 0.0, 0.0, 0.0, 0.0, -1727.4098667394958, 0.0]
['beep', 0.0, -86.61300976431487, 0.0, 0.0, 0.0, 0.0, -1731.3884772525403, 0.0]
['beep', 0.0, -86.03186440847688, 0.0, 0.0, 0.0, 0.0, -1732.6401749420377, 0.0]
['beep', 0.0, -85.093091141354, 0.0, 0.0, 0.0, 0.0, -1736.2388057993421, 0.0]
['beep', 0.0, -84.44489055215008, 0.0, 0.0, 0.0, 0.0, -1736.1941023104314, 0.0]
['beep', 0.0, -86.25538185302996, 0.0, 0.0, 0.0, 0.0, -1732.6178231975823, 0.0]
['beep', 0.0, -88.40114932073944, 0.0, 0.0, 0.0, 0.0, -1735.7470674213253, 0.0]
['beep', 0.0, -87.44002430916123, 0.0, 0.0, 0.0, 0.0, -1740.3291750346632, 0.0]
['beep', 0.0, -86.05421615293218, 0.0, 0.0, 0.0, 0.0, -1744.4418960144396, 0.0]
['beep', 0.0, -85.27190509699645, 0.0, 0.0, 0.0, 0.0, -1744.4865995033504, 0.0]
['beep', 0.0, -86.63536150877017, 0.0, 0.0, 0.0, 0.0, -1743.0337361137554, 0.0]
['beep', 0.0, -85.92010568620034, 0.0, 0.0, 0.0, 0.0, -1741.8043901687136, 0.0]
['beep', 0.0, -83.12613762928697, 0.0, 0.0, 0.0, 0.0, -1743.3466605361295, 0.0]
['beep', 0.0, -82.9249719291892, 0.0, 0.0, 0.0, 0.0, -1746.587663482149, 0.0]
['beep', 0.0, -83.99785566304394, 0.0, 0.0, 0.0, 0.0, -1746.207683826409, 0.0]
['beep', 0.0, -84.64605625224785, 0.0, 0.0, 0.0, 0.0, -1746.3417942931408, 0.0]
['beep', 0.0, -85.38366381927298, 0.0, 0.0, 0.0, 0.0, -1749.0240036277776, 0.0]
['beep', 0.0, -83.41671030720596, 0.0, 0.0, 0.0, 0.0, -1749.2922245612413, 0.0]
['beep', 0.0, -82.29912308444061, 0.0, 0.0, 0.0, 0.0, -1748.0852303606548, 0.0]
['beep', 0.0, -83.46141379611657, 0.0, 0.0, 0.0, 0.0, -1749.851018172624, 0.0]
['beep', 0.0, -86.54595453094895, 0.0, 0.0, 0.0, 0.0, -1751.7285647068697, 0.0]
['beep', 0.0, -87.14945163124224, 0.0, 0.0, 0.0, 0.0, -1752.2873583182525, 0.0]
['beep', 0.0, -85.24955335254114, 0.0, 0.0, 0.0, 0.0, -1751.5497507512273, 0.0]
['beep', 0.0, -84.08726264086516, 0.0, 0.0, 0.0, 0.0, -1752.265006573797, 0.0]
['beep', 0.0, -83.79668996294618, 0.0, 0.0, 0.0, 0.0, -1750.5215705062833, 0.0]
['beep', 0.0, -84.46724229660539, 0.0, 0.0, 0.0, 0.0, -1749.7839629392581, 0.0]
['beep', 0.0, -85.58482951937074, 0.0, 0.0, 0.0, 0.0, -1750.9686053953894, 0.0]
['beep', 0.0, -85.7636434750132, 0.0, 0.0, 0.0, 0.0, -1751.9073786625122, 0.0]
['beep', 0.0, -86.52360278649364, 0.0, 0.0, 0.0, 0.0, -1751.3932885400402, 0.0]
['beep', 0.0, -88.9599429321221, 0.0, 0.0, 0.0, 0.0, -1749.336928050152, 0.0]
['beep', 0.0, -91.08335865537629, 0.0, 0.0, 0.0, 0.0, -1750.5215705062833, 0.0]
['beep', 0.0, -92.0668354114098, 0.0, 0.0, 0.0, 0.0, -1751.0580123732107, 0.0]
['beep', 0.0, -89.8763644547897, 0.0, 0.0, 0.0, 0.0, -1751.750916451325, 0.0]
['beep', 0.0, -88.75877723202434, 0.0, 0.0, 0.0, 0.0, -1752.466172273895, 0.0]
['beep', 0.0, -88.04352140945451, 0.0, 0.0, 0.0, 0.0, -1754.1425531080429, 0.0]
['beep', 0.0, -89.29521909895172, 0.0, 0.0, 0.0, 0.0, -1755.1483816085317, 0.0]
['beep', 0.0, -89.76460573251316, 0.0, 0.0, 0.0, 0.0, -1756.2659688312972, 0.0]
['beep', 0.0, -89.76460573251316, 0.0, 0.0, 0.0, 0.0, -1755.5507130087274, 0.0]
['beep', 0.0, -87.9988179205439, 0.0, 0.0, 0.0, 0.0, -1754.8578089306127, 0.0]
['beep', 0.0, -85.69658824164728, 0.0, 0.0, 0.0, 0.0, -1755.7295269643698, 0.0]
['beep', 0.0, -86.63536150877017, 0.0, 0.0, 0.0, 0.0, -1755.7295269643698, 0.0]
['beep', 0.0, -88.19998362064167, 0.0, 0.0, 0.0, 0.0, -1753.7625734523028, 0.0]
['beep', 0.0, -88.51290804301597, 0.0, 0.0, 0.0, 0.0, -1754.8578089306127, 0.0]
['beep', 0.0, -88.49055629856066, 0.0, 0.0, 0.0, 0.0, -1755.9306926644676, 0.0]
['beep', 0.0, -87.88705919826737, 0.0, 0.0, 0.0, 0.0, -1755.7071752199145, 0.0]
['beep', 0.0, -89.07170165439865, 0.0, 0.0, 0.0, 0.0, -1755.7742304532803, 0.0]
['beep', 0.0, -89.5410882879601, 0.0, 0.0, 0.0, 0.0, -1755.7071752199145, 0.0]
['beep', 0.0, -87.86470745381206, 0.0, 0.0, 0.0, 0.0, -1756.2212653423865, 0.0]
['beep', 0.0, -87.73059698708022, 0.0, 0.0, 0.0, 0.0, -1756.0648031311994, 0.0]
['beep', 0.0, -88.35644583182882, 0.0, 0.0, 0.0, 0.0, -1757.338852565152, 0.0]
['beep', 0.0, -89.04934990994333, 0.0, 0.0, 0.0, 0.0, -1758.2105705989088, 0.0]
['beep', 0.0, -89.09405339885396, 0.0, 0.0, 0.0, 0.0, -1759.0152333992999, 0.0]
['beep', 0.0, -89.67519875469193, 0.0, 0.0, 0.0, 0.0, -1757.4282595429731, 0.0]
['beep', 0.0, -87.21650686460816, 0.0, 0.0, 0.0, 0.0, -1755.885989175557, 0.0]
['beep', 0.0, -86.65771325322548, 0.0, 0.0, 0.0, 0.0, -1757.137686865054, 0.0]
['beep', 0.0, -87.70824524262491, 0.0, 0.0, 0.0, 0.0, -1757.651776987526, 0.0]
['beep', 0.0, -86.09891964184281, 0.0, 0.0, 0.0, 0.0, -1757.651776987526, 0.0]
['beep', 0.0, -85.13779463026461, 0.0, 0.0, 0.0, 0.0, -1757.8305909431685, 0.0]
['beep', 0.0, -85.74129173055789, 0.0, 0.0, 0.0, 0.0, -1757.8976461765346, 0.0]
['beep', 0.0, -86.90358244223385, 0.0, 0.0, 0.0, 0.0, -1757.651776987526, 0.0]
['beep', 0.0, -88.22233536509698, 0.0, 0.0, 0.0, 0.0, -1757.8752944320793, 0.0]
['beep', 0.0, -87.08239639787632, 0.0, 0.0, 0.0, 0.0, -1759.171695610487, 0.0]
['beep', 0.0, -87.23885860906347, 0.0, 0.0, 0.0, 0.0, -1759.7304892218697, 0.0]
['beep', 0.0, -88.15528013173106, 0.0, 0.0, 0.0, 0.0, -1757.852942687624, 0.0]
['beep', 0.0, -87.6635417537143, 0.0, 0.0, 0.0, 0.0, -1758.9034746770233, 0.0]
['beep', 0.0, -88.2893905984629, 0.0, 0.0, 0.0, 0.0, -1758.6799572324703, 0.0]
['beep', 0.0, -87.64119000925899, 0.0, 0.0, 0.0, 0.0, -1759.6857857329592, 0.0]
['beep', 0.0, -86.34478883085119, 0.0, 0.0, 0.0, 0.0, -1758.0541083877217, 0.0]
['beep', 0.0, -84.28842834096294, 0.0, 0.0, 0.0, 0.0, -1757.0929833761436, 0.0]
['beep', 0.0, -85.67423649719197, 0.0, 0.0, 0.0, 0.0, -1757.7411839653473, 0.0]
['beep', 0.0, -86.88123069777855, 0.0, 0.0, 0.0, 0.0, -1758.4787915323725, 0.0]
['beep', 0.0, -86.12127138629812, 0.0, 0.0, 0.0, 0.0, -1758.8587711881128, 0.0]
['beep', 0.0, -85.02603590798806, 0.0, 0.0, 0.0, 0.0, -1757.852942687624, 0.0]
['beep', 0.0, -84.69075974115846, 0.0, 0.0, 0.0, 0.0, -1757.3835560540624, 0.0]
['beep', 0.0, -86.18832661966404, 0.0, 0.0, 0.0, 0.0, -1758.657605488015, 0.0]
['beep', 0.0, -88.44585280965005, 0.0, 0.0, 0.0, 0.0, -1757.1823903539648, 0.0]
['beep', 0.0, -87.26121035351878, 0.0, 0.0, 0.0, 0.0, -1757.2270938428753, 0.0]
['beep', 0.0, -84.511945785516, 0.0, 0.0, 0.0, 0.0, -1759.2611025883082, 0.0]
['beep', 0.0, -83.59552426284841, 0.0, 0.0, 0.0, 0.0, -1759.6857857329592, 0.0]
['beep', 0.0, -85.31660858590706, 0.0, 0.0, 0.0, 0.0, -1757.3835560540624, 0.0]
['beep', 0.0, -85.62953300828136, 0.0, 0.0, 0.0, 0.0, -1755.1930850974425, 0.0]
['beep', 0.0, -84.73546323006907, 0.0, 0.0, 0.0, 0.0, -1755.7965821977357, 0.0]
['beep', 0.0, -84.69075974115846, 0.0, 0.0, 0.0, 0.0, -1757.9870531543559, 0.0]
['beep', 0.0, -83.70728298512495, 0.0, 0.0, 0.0, 0.0, -1757.6964804764368, 0.0]
['beep', 0.0, -83.08143414037634, 0.0, 0.0, 0.0, 0.0, -1756.82476244268, 0.0]
['beep', 0.0, -83.46141379611657, 0.0, 0.0, 0.0, 0.0, -1757.852942687624, 0.0]
['beep', 0.0, -83.08143414037634, 0.0, 0.0, 0.0, 0.0, -1758.3893845545513, 0.0]
['beep', 0.0, -82.20971610661938, 0.0, 0.0, 0.0, 0.0, -1758.3223293211854, 0.0]
['beep', 0.0, -83.30495158492943, 0.0, 0.0, 0.0, 0.0, -1757.0929833761436, 0.0]
['beep', 0.0, -84.62370450779254, 0.0, 0.0, 0.0, 0.0, -1756.5341897647609, 0.0]
['beep', 0.0, -84.33313182987355, 0.0, 0.0, 0.0, 0.0, -1756.8918176760458, 0.0]
['beep', 0.0, -85.58482951937074, 0.0, 0.0, 0.0, 0.0, -1757.3835560540624, 0.0]
['beep', 0.0, -85.093091141354, 0.0, 0.0, 0.0, 0.0, -1759.1493438660318, 0.0]
['beep', 0.0, -85.4283673081836, 0.0, 0.0, 0.0, 0.0, -1759.596378755138, 0.0]
['beep', 0.0, -85.62953300828136, 0.0, 0.0, 0.0, 0.0, -1760.3786898110736, 0.0]
['beep', 0.0, -87.21650686460816, 0.0, 0.0, 0.0, 0.0, -1759.886951433057, 0.0]
['beep', 0.0, -85.24955335254114, 0.0, 0.0, 0.0, 0.0, -1760.5351520222607, 0.0]
['beep', 0.0, -86.07656789738749, 0.0, 0.0, 0.0, 0.0, -1761.1833526114647, 0.0]
['beep', 0.0, -88.73642548756904, 0.0, 0.0, 0.0, 0.0, -1760.3563380666183, 0.0]
['beep', 0.0, -87.52943128698246, 0.0, 0.0, 0.0, 0.0, -1760.691614233448, 0.0]
['beep', 0.0, -87.6635417537143, 0.0, 0.0, 0.0, 0.0, -1760.691614233448, 0.0]
['beep', 0.0, -87.64119000925899, 0.0, 0.0, 0.0, 0.0, -1762.077422389677, 0.0]
['beep', 0.0, -85.51777428600482, 0.0, 0.0, 0.0, 0.0, -1762.010367156311, 0.0]
['beep', 0.0, -85.16014637471991, 0.0, 0.0, 0.0, 0.0, -1760.1775241109758, 0.0]
['beep', 0.0, -85.56247777491544, 0.0, 0.0, 0.0, 0.0, -1759.9987101553334, 0.0]
['beep', 0.0, -85.58482951937074, 0.0, 0.0, 0.0, 0.0, -1760.401041555529, 0.0]
['beep', 0.0, -86.50125104203833, 0.0, 0.0, 0.0, 0.0, -1759.886951433057, 0.0]
['beep', 0.0, -87.41767256470592, 0.0, 0.0, 0.0, 0.0, -1760.1328206220653, 0.0]
['beep', 0.0, -87.3282655868847, 0.0, 0.0, 0.0, 0.0, -1760.6469107445373, 0.0]
['beep', 0.0, -87.35061733134, 0.0, 0.0, 0.0, 0.0, -1761.0268904002776, 0.0]
['beep', 0.0, -88.33409408737351, 0.0, 0.0, 0.0, 0.0, -1761.8315532006686, 0.0]
['beep', 0.0, -88.19998362064167, 0.0, 0.0, 0.0, 0.0, -1763.1503061235317, 0.0]
['beep', 0.0, -87.17180337569755, 0.0, 0.0, 0.0, 0.0, -1761.1162973780988, 0.0]
['beep', 0.0, -85.31660858590706, 0.0, 0.0, 0.0, 0.0, -1760.624559000082, 0.0]
['beep', 0.0, -84.86957369680091, 0.0, 0.0, 0.0, 0.0, -1760.6469107445373, 0.0]
['beep', 0.0, -86.68006499768079, 0.0, 0.0, 0.0, 0.0, -1761.3845183115625, 0.0]
['beep', 0.0, -86.7024167421361, 0.0, 0.0, 0.0, 0.0, -1762.367995067596, 0.0]
['beep', 0.0, -86.03186440847688, 0.0, 0.0, 0.0, 0.0, -1761.7644979673028, 0.0]
['beep', 0.0, -85.36131207481768, 0.0, 0.0, 0.0, 0.0, -1761.6303875005708, 0.0]
['beep', 0.0, -85.40601556372829, 0.0, 0.0, 0.0, 0.0, -1762.591512512149, 0.0]
['beep', 0.0, -86.09891964184281, 0.0, 0.0, 0.0, 0.0, -1763.7985067127356, 0.0]
['beep', 0.0, -87.37296907579531, 0.0, 0.0, 0.0, 0.0, -1764.6702247464925, 0.0]
['beep', 0.0, -89.04934990994333, 0.0, 0.0, 0.0, 0.0, -1763.9102654350122, 0.0]
['beep', 0.0, -88.44585280965005, 0.0, 0.0, 0.0, 0.0, -1763.7538032238251, 0.0]
['beep', 0.0, -89.38462607677295, 0.0, 0.0, 0.0, 0.0, -1764.044375901744, 0.0]
['beep', 0.0, -90.99395167755505, 0.0, 0.0, 0.0, 0.0, -1765.944274180445, 0.0]
['beep', 0.0, -90.01047492152153, 0.0, 0.0, 0.0, 0.0, -1766.5701230251937, 0.0]
['beep', 0.0, -89.42932956568356, 0.0, 0.0, 0.0, 0.0, -1766.0560329027217, 0.0]
['beep', 0.0, -88.17763187618637, 0.0, 0.0, 0.0, 0.0, -1764.469059046395, 0.0]
['beep', 0.0, -86.3894923197618, 0.0, 0.0, 0.0, 0.0, -1764.0220241572888, 0.0]
['beep', 0.0, -87.55178303143776, 0.0, 0.0, 0.0, 0.0, -1764.6702247464925, 0.0]
['beep', 0.0, -86.18832661966404, 0.0, 0.0, 0.0, 0.0, -1765.3631288246072, 0.0]
['beep', 0.0, -84.22137310759702, 0.0, 0.0, 0.0, 0.0, -1764.9384456799562, 0.0]
['beep', 0.0, -84.511945785516, 0.0, 0.0, 0.0, 0.0, -1765.273721846786, 0.0]
['beep', 0.0, -84.95898067462214, 0.0, 0.0, 0.0, 0.0, -1764.334948579663, 0.0]
['beep', 0.0, -86.4118440642171, 0.0, 0.0, 0.0, 0.0, -1765.497239291339, 0.0]
['beep', 0.0, -86.21067836411935, 0.0, 0.0, 0.0, 0.0, -1765.139611380054, 0.0]
['beep', 0.0, -84.511945785516, 0.0, 0.0, 0.0, 0.0, -1764.4467073019396, 0.0]
['beep', 0.0, -84.75781497452438, 0.0, 0.0, 0.0, 0.0, -1766.1901433694534, 0.0]
['beep', 0.0, -85.29425684145176, 0.0, 0.0, 0.0, 0.0, -1765.8772189470792, 0.0]
['beep', 0.0, -85.40601556372829, 0.0, 0.0, 0.0, 0.0, -1766.748936980836, 0.0]
['beep', 0.0, -84.80251846343499, 0.0, 0.0, 0.0, 0.0, -1766.234846858364, 0.0]
['beep', 0.0, -85.07073939689867, 0.0, 0.0, 0.0, 0.0, -1766.4807160473724, 0.0]
['beep', 0.0, -85.51777428600482, 0.0, 0.0, 0.0, 0.0, -1766.950102680934, 0.0]
['beep', 0.0, -85.31660858590706, 0.0, 0.0, 0.0, 0.0, -1766.4807160473724, 0.0]
['beep', 0.0, -85.33896033036237, 0.0, 0.0, 0.0, 0.0, -1765.9889776693558, 0.0]
['beep', 0.0, -86.30008534194057, 0.0, 0.0, 0.0, 0.0, -1766.1007363916322, 0.0]
['beep', 0.0, -86.76947197550201, 0.0, 0.0, 0.0, 0.0, -1765.9219224359897, 0.0]
['beep', 0.0, -84.4895940410607, 0.0, 0.0, 0.0, 0.0, -1765.6984049914367, 0.0]
['beep', 0.0, -84.86957369680091, 0.0, 0.0, 0.0, 0.0, -1765.497239291339, 0.0]
['beep', 0.0, -86.47889929758303, 0.0, 0.0, 0.0, 0.0, -1766.950102680934, 0.0]
['beep', 0.0, -86.54595453094895, 0.0, 0.0, 0.0, 0.0, -1767.0395096587552, 0.0]
['beep', 0.0, -84.28842834096294, 0.0, 0.0, 0.0, 0.0, -1766.8383439586573, 0.0]
['beep', 0.0, -83.1931928626529, 0.0, 0.0, 0.0, 0.0, -1767.7994689702357, 0.0]
['beep', 0.0, -83.70728298512495, 0.0, 0.0, 0.0, 0.0, -1768.4253178149843, 0.0]
['beep', 0.0, -87.17180337569755, 0.0, 0.0, 0.0, 0.0, -1767.7324137368696, 0.0]
['beep', 0.0, -88.2893905984629, 0.0, 0.0, 0.0, 0.0, -1768.0676899036994, 0.0]
['beep', 0.0, -87.59648652034838, 0.0, 0.0, 0.0, 0.0, -1768.7382422373585, 0.0]
['beep', 0.0, -86.92593418668916, 0.0, 0.0, 0.0, 0.0, -1768.8723527040904, 0.0]
['beep', 0.0, -86.81417546441263, 0.0, 0.0, 0.0, 0.0, -1768.9394079374563, 0.0]
['beep', 0.0, -87.060044653421, 0.0, 0.0, 0.0, 0.0, -1768.9394079374563, 0.0]
['beep', 0.0, -85.62953300828136, 0.0, 0.0, 0.0, 0.0, -1768.4700213038948, 0.0]
['beep', 0.0, -85.58482951937074, 0.0, 0.0, 0.0, 0.0, -1770.8616579606125, 0.0]
['beep', 0.0, -84.69075974115846, 0.0, 0.0, 0.0, 0.0, -1769.721718993392, 0.0]
['beep', 0.0, -84.511945785516, 0.0, 0.0, 0.0, 0.0, -1768.2241521148865, 0.0]
['beep', 0.0, -84.04255915195455, 0.0, 0.0, 0.0, 0.0, -1768.850000959635, 0.0]
['beep', 0.0, -84.75781497452438, 0.0, 0.0, 0.0, 0.0, -1769.0511666597329, 0.0]
['beep', 0.0, -85.40601556372829, 0.0, 0.0, 0.0, 0.0, -1769.20762887092, 0.0]
['beep', 0.0, -84.98133241907745, 0.0, 0.0, 0.0, 0.0, -1769.2970358487412, 0.0]
['beep', 0.0, -85.07073939689867, 0.0, 0.0, 0.0, 0.0, -1770.0569951602215, 0.0]
['beep', 0.0, -85.87540219728973, 0.0, 0.0, 0.0, 0.0, -1770.7275474938808, 0.0]
['beep', 0.0, -86.7024167421361, 0.0, 0.0, 0.0, 0.0, -1771.2639893608082, 0.0]
['beep', 0.0, -84.60135276333723, 0.0, 0.0, 0.0, 0.0, -1772.0239486722887, 0.0]
['beep', 0.0, -83.5508207739378, 0.0, 0.0, 0.0, 0.0, -1772.0015969278334, 0.0]
['beep', 0.0, -82.85791669582328, 0.0, 0.0, 0.0, 0.0, -1773.789736484258, 0.0]
['beep', 0.0, -84.19902136314171, 0.0, 0.0, 0.0, 0.0, -1773.7450329953472, 0.0]
['beep', 0.0, -83.03673065146573, 0.0, 0.0, 0.0, 0.0, -1774.8402684736573, 0.0]
['beep', 0.0, -82.07560563988753, 0.0, 0.0, 0.0, 0.0, -1775.1308411515763, 0.0]
['beep', 0.0, -82.32147482889592, 0.0, 0.0, 0.0, 0.0, -1773.4768120618835, 0.0]
['beep', 0.0, -82.79086146245736, 0.0, 0.0, 0.0, 0.0, -1774.0132539288109, 0.0]
['beep', 0.0, -85.24955335254114, 0.0, 0.0, 0.0, 0.0, -1773.9685504399004, 0.0]
['beep', 0.0, -85.27190509699645, 0.0, 0.0, 0.0, 0.0, -1774.2814748622745, 0.0]
['beep', 0.0, -85.47307079709421, 0.0, 0.0, 0.0, 0.0, -1774.4155853290065, 0.0]
['beep', 0.0, -85.98716091956626, 0.0, 0.0, 0.0, 0.0, -1773.5215155507942, 0.0]
['beep', 0.0, -85.96480917511096, 0.0, 0.0, 0.0, 0.0, -1775.041434173755, 0.0]
['beep', 0.0, -85.47307079709421, 0.0, 0.0, 0.0, 0.0, -1776.047262674244, 0.0]
['beep', 0.0, -84.69075974115846, 0.0, 0.0, 0.0, 0.0, -1775.0190824292997, 0.0]
['beep', 0.0, -81.85208819533446, 0.0, 0.0, 0.0, 0.0, -1775.7119865074144, 0.0]
['beep', 0.0, -80.48863178356073, 0.0, 0.0, 0.0, 0.0, -1775.3096551072188, 0.0]
['beep', 0.0, -80.93566667266687, 0.0, 0.0, 0.0, 0.0, -1775.3543585961295, 0.0]
['beep', 0.0, -82.43323355117245, 0.0, 0.0, 0.0, 0.0, -1776.5837045411713, 0.0]
['beep', 0.0, -83.08143414037634, 0.0, 0.0, 0.0, 0.0, -1776.3825388410735, 0.0]
['beep', 0.0, -83.43906205166127, 0.0, 0.0, 0.0, 0.0, -1776.1366696520652, 0.0]
['beep', 0.0, -84.42253880769478, 0.0, 0.0, 0.0, 0.0, -1776.2260766298864, 0.0]
['beep', 0.0, -84.60135276333723, 0.0, 0.0, 0.0, 0.0, -1776.3154836077076, 0.0]
['beep', 0.0, -86.43419580867241, 0.0, 0.0, 0.0, 0.0, -1775.9578556964227, 0.0]
['beep', 0.0, -87.64119000925899, 0.0, 0.0, 0.0, 0.0, -1775.8908004630568, 0.0]
['beep', 0.0, -86.88123069777855, 0.0, 0.0, 0.0, 0.0, -1776.2484283743418, 0.0]
['beep', 0.0, -84.46724229660539, 0.0, 0.0, 0.0, 0.0, -1775.8684487186015, 0.0]
['beep', 0.0, -84.1543178742311, 0.0, 0.0, 0.0, 0.0, -1775.689634762959, 0.0]
['beep', 0.0, -84.8472219523456, 0.0, 0.0, 0.0, 0.0, -1776.0919661631544, 0.0]
['beep', 0.0, -86.30008534194057, 0.0, 0.0, 0.0, 0.0, -1775.7119865074144, 0.0]
['beep', 0.0, -85.22720160808584, 0.0, 0.0, 0.0, 0.0, -1775.756689996325, 0.0]
['beep', 0.0, -84.55664927442662, 0.0, 0.0, 0.0, 0.0, -1775.6002277851378, 0.0]
['beep', 0.0, -84.75781497452438, 0.0, 0.0, 0.0, 0.0, -1775.689634762959, 0.0]
['beep', 0.0, -87.08239639787632, 0.0, 0.0, 0.0, 0.0, -1776.5837045411713, 0.0]
['beep', 0.0, -87.41767256470592, 0.0, 0.0, 0.0, 0.0, -1776.2484283743418, 0.0]
['beep', 0.0, -86.52360278649364, 0.0, 0.0, 0.0, 0.0, -1775.108489407121, 0.0]
['beep', 0.0, -84.37783531878416, 0.0, 0.0, 0.0, 0.0, -1775.7119865074144, 0.0]
['beep', 0.0, -84.511945785516, 0.0, 0.0, 0.0, 0.0, -1775.756689996325, 0.0]
['beep', 0.0, -85.47307079709421, 0.0, 0.0, 0.0, 0.0, -1775.3767103405846, 0.0]
['beep', 0.0, -84.55664927442662, 0.0, 0.0, 0.0, 0.0, -1776.7848702412691, 0.0]
['beep', 0.0, -84.62370450779254, 0.0, 0.0, 0.0, 0.0, -1775.041434173755, 0.0]
['beep', 0.0, -83.79668996294618, 0.0, 0.0, 0.0, 0.0, -1774.7061580069255, 0.0]
['beep', 0.0, -83.72963472958025, 0.0, 0.0, 0.0, 0.0, -1775.1755446404868, 0.0]
['beep', 0.0, -84.73546323006907, 0.0, 0.0, 0.0, 0.0, -1774.7955649847468, 0.0]
['beep', 0.0, -85.18249811917522, 0.0, 0.0, 0.0, 0.0, -1774.3932335845511, 0.0]
['beep', 0.0, -85.47307079709421, 0.0, 0.0, 0.0, 0.0, -1773.9238469509896, 0.0]
['beep', 0.0, -84.57900101888193, 0.0, 0.0, 0.0, 0.0, -1773.9014952065345, 0.0]
['beep', 0.0, -83.5508207739378, 0.0, 0.0, 0.0, 0.0, -1774.2591231178194, 0.0]
['beep', 0.0, -85.04838765244337, 0.0, 0.0, 0.0, 0.0, -1775.3767103405846, 0.0]
['beep', 0.0, -83.68493124066964, 0.0, 0.0, 0.0, 0.0, -1775.6002277851378, 0.0]
['beep', 0.0, -83.2378963515635, 0.0, 0.0, 0.0, 0.0, -1774.2591231178194, 0.0]
['beep', 0.0, -82.14266087325346, 0.0, 0.0, 0.0, 0.0, -1775.8684487186015, 0.0]
['beep', 0.0, -82.0085504065216, 0.0, 0.0, 0.0, 0.0, -1776.0919661631544, 0.0]
['beep', 0.0, -82.79086146245736, 0.0, 0.0, 0.0, 0.0, -1775.7790417407803, 0.0]
['beep', 0.0, -85.093091141354, 0.0, 0.0, 0.0, 0.0, -1774.3261783511853, 0.0]
['beep', 0.0, -83.01437890701042, 0.0, 0.0, 0.0, 0.0, -1774.817916729202, 0.0]
['beep', 0.0, -81.71797772860262, 0.0, 0.0, 0.0, 0.0, -1774.9967306848444, 0.0]
['beep', 0.0, -82.05325389543222, 0.0, 0.0, 0.0, 0.0, -1775.264951618308, 0.0]
['beep', 0.0, -83.34965507384004, 0.0, 0.0, 0.0, 0.0, -1776.0919661631544, 0.0]
['beep', 0.0, -82.85791669582328, 0.0, 0.0, 0.0, 0.0, -1776.9636841969116, 0.0]
['beep', 0.0, -82.03090215097691, 0.0, 0.0, 0.0, 0.0, -1776.5166493078054, 0.0]
['beep', 0.0, -82.54499227344898, 0.0, 0.0, 0.0, 0.0, -1776.8072219857243, 0.0]
['beep', 0.0, -82.6120475068149, 0.0, 0.0, 0.0, 0.0, -1777.3436638526516, 0.0]
['beep', 0.0, -82.07560563988753, 0.0, 0.0, 0.0, 0.0, -1777.5448295527494, 0.0]
['beep', 0.0, -84.42253880769478, 0.0, 0.0, 0.0, 0.0, -1776.6507597745372, 0.0]
['beep', 0.0, -84.02020740749924, 0.0, 0.0, 0.0, 0.0, -1775.6002277851378, 0.0]
['beep', 0.0, -83.84139345185679, 0.0, 0.0, 0.0, 0.0, -1776.851925474635, 0.0]
['beep', 0.0, -84.28842834096294, 0.0, 0.0, 0.0, 0.0, -1776.6060562856267, 0.0]
['beep', 0.0, -85.13779463026461, 0.0, 0.0, 0.0, 0.0, -1777.7683469973026, 0.0]
['beep', 0.0, -86.12127138629812, 0.0, 0.0, 0.0, 0.0, -1778.2153818864087, 0.0]
['beep', 0.0, -84.19902136314171, 0.0, 0.0, 0.0, 0.0, -1778.528306308783, 0.0]
['beep', 0.0, -84.40018706323947, 0.0, 0.0, 0.0, 0.0, -1778.5953615421488, 0.0]
['beep', 0.0, -86.27773359748527, 0.0, 0.0, 0.0, 0.0, -1778.5506580532383, 0.0]
['beep', 0.0, -85.94245743065565, 0.0, 0.0, 0.0, 0.0, -1779.0647481757103, 0.0]
['beep', 0.0, -86.47889929758303, 0.0, 0.0, 0.0, 0.0, -1781.0093499433221, 0.0]
['beep', 0.0, -85.33896033036237, 0.0, 0.0, 0.0, 0.0, -1782.8645447331126, 0.0]
['beep', 0.0, -84.35548357432886, 0.0, 0.0, 0.0, 0.0, -1783.1551174110316, 0.0]
['beep', 0.0, -84.1766696186864, 0.0, 0.0, 0.0, 0.0, -1784.7644430118137, 0.0]
['beep', 0.0, -84.62370450779254, 0.0, 0.0, 0.0, 0.0, -1786.0384924457662, 0.0]
['beep', 0.0, -84.69075974115846, 0.0, 0.0, 0.0, 0.0, -1786.8878587350678, 0.0]
['beep', 0.0, -84.55664927442662, 0.0, 0.0, 0.0, 0.0, -1786.7090447794253, 0.0]
['beep', 0.0, -84.13196612977579, 0.0, 0.0, 0.0, 0.0, -1787.2454866463527, 0.0]
['beep', 0.0, -85.40601556372829, 0.0, 0.0, 0.0, 0.0, -1786.8431552461573, 0.0]
['beep', 0.0, -85.62953300828136, 0.0, 0.0, 0.0, 0.0, -1787.1784314129868, 0.0]
['beep', 0.0, -84.62370450779254, 0.0, 0.0, 0.0, 0.0, -1788.3630738691181, 0.0]
['beep', 0.0, -85.093091141354, 0.0, 0.0, 0.0, 0.0, -1788.720701780403, 0.0]
['beep', 0.0, -84.33313182987355, 0.0, 0.0, 0.0, 0.0, -1788.8548122471348, 0.0]
['beep', 0.0, -84.08726264086516, 0.0, 0.0, 0.0, 0.0, -1790.106509936632, 0.0]
['beep', 0.0, -86.3671405753065, 0.0, 0.0, 0.0, 0.0, -1789.5700680697046, 0.0]
['beep', 0.0, -86.16597487520873, 0.0, 0.0, 0.0, 0.0, -1788.8995157360455, 0.0]
['beep', 0.0, -84.62370450779254, 0.0, 0.0, 0.0, 0.0, -1788.5195360803052, 0.0]
['beep', 0.0, -84.95898067462214, 0.0, 0.0, 0.0, 0.0, -1785.144422667554, 0.0]
['beep', 0.0, -85.20484986363053, 0.0, 0.0, 0.0, 0.0, -1785.010312200822, 0.0]
['beep', 0.0, -86.45654755312772, 0.0, 0.0, 0.0, 0.0, -1786.3737686125958, 0.0]
['beep', 0.0, -85.65188475273666, 0.0, 0.0, 0.0, 0.0, -1787.7372250243695, 0.0]
['beep', 0.0, -83.12613762928697, 0.0, 0.0, 0.0, 0.0, -1779.981169698378, 0.0]
['beep', 0.0, -82.38853006226184, 0.0, 0.0, 0.0, 0.0, -1750.0521838727218, 0.0]
['beep', 0.0, -83.99785566304394, 0.0, 0.0, 0.0, 0.0, -1750.8568466731128, 0.0]
['beep', 0.0, -86.3671405753065, 0.0, 0.0, 0.0, 0.0, -1751.6838612179592, 0.0]
['beep', 0.0, -85.80834696392381, 0.0, 0.0, 0.0, 0.0, -1752.1755995959759, 0.0]
['beep', 0.0, -85.093091141354, 0.0, 0.0, 0.0, 0.0, -1752.9355589074564, 0.0]
['beep', 0.0, -85.51777428600482, 0.0, 0.0, 0.0, 0.0, -1754.7684019527915, 0.0]
['beep', 0.0, -86.45654755312772, 0.0, 0.0, 0.0, 0.0, -1755.2154368418976, 0.0]
['beep', 0.0, -86.65771325322548, 0.0, 0.0, 0.0, 0.0, -1755.9977478978335, 0.0]
['beep', 0.0, -85.7636434750132, 0.0, 0.0, 0.0, 0.0, -1757.4506112874285, 0.0]
['beep', 0.0, -82.96967541809981, 0.0, 0.0, 0.0, 0.0, -1757.0035763983224, 0.0]
['beep', 0.0, -82.32147482889592, 0.0, 0.0, 0.0, 0.0, -1757.4506112874285, 0.0]
['beep', 0.0, -82.74615797354674, 0.0, 0.0, 0.0, 0.0, -1756.2212653423865, 0.0]
['beep', 0.0, -83.99785566304394, 0.0, 0.0, 0.0, 0.0, -1755.9977478978335, 0.0]
['beep', 0.0, -83.32730332938473, 0.0, 0.0, 0.0, 0.0, -1756.3106723202077, 0.0]
['beep', 0.0, -82.05325389543222, 0.0, 0.0, 0.0, 0.0, -1757.495314776339, 0.0]
['beep', 0.0, -82.63439925127021, 0.0, 0.0, 0.0, 0.0, -1758.143515365543, 0.0]
['beep', 0.0, -83.41671030720596, 0.0, 0.0, 0.0, 0.0, -1759.238750843853, 0.0]
['beep', 0.0, -83.61787600730372, 0.0, 0.0, 0.0, 0.0, -1759.305806077219, 0.0]
['beep', 0.0, -83.39435856275065, 0.0, 0.0, 0.0, 0.0, -1759.9316549219675, 0.0]
['beep', 0.0, -81.56151551741547, 0.0, 0.0, 0.0, 0.0, -1760.557503766716, 0.0]
['beep', 0.0, -81.27094283949648, 0.0, 0.0, 0.0, 0.0, -1760.4904485333502, 0.0]
['beep', 0.0, -83.79668996294618, 0.0, 0.0, 0.0, 0.0, -1761.1162973780988, 0.0]
['beep', 0.0, -85.67423649719197, 0.0, 0.0, 0.0, 0.0, -1762.3456433231406, 0.0]
['beep', 0.0, -86.16597487520873, 0.0, 0.0, 0.0, 0.0, -1762.367995067596, 0.0]
['beep', 0.0, -87.23885860906347, 0.0, 0.0, 0.0, 0.0, -1763.239713101353, 0.0]
['beep', 0.0, -87.70824524262491, 0.0, 0.0, 0.0, 0.0, -1763.9102654350122, 0.0]
['beep', 0.0, -89.00464642103272, 0.0, 0.0, 0.0, 0.0, -1763.5749892681827, 0.0]
['beep', 0.0, -89.2281638655858, 0.0, 0.0, 0.0, 0.0, -1764.11143113511, 0.0]
['beep', 0.0, -89.5634400324154, 0.0, 0.0, 0.0, 0.0, -1763.9326171794676, 0.0]
['beep', 0.0, -88.31174234291821, 0.0, 0.0, 0.0, 0.0, -1762.7703264677914, 0.0]
['beep', 0.0, -87.3282655868847, 0.0, 0.0, 0.0, 0.0, -1763.7314514793698, 0.0]
['beep', 0.0, -87.75294873153553, 0.0, 0.0, 0.0, 0.0, -1763.7538032238251, 0.0]
['beep', 0.0, -85.29425684145176, 0.0, 0.0, 0.0, 0.0, -1763.820858457191, 0.0]
['beep', 0.0, -83.32730332938473, 0.0, 0.0, 0.0, 0.0, -1764.0890793906547, 0.0]
['beep', 0.0, -82.74615797354674, 0.0, 0.0, 0.0, 0.0, -1762.7032712344255, 0.0]
['beep', 0.0, -79.54985851643784, 0.0, 0.0, 0.0, 0.0, -1762.3456433231406, 0.0]
['beep', 0.0, -79.66161723871437, 0.0, 0.0, 0.0, 0.0, -1761.9880154118557, 0.0]
['beep', 0.0, -79.39339630525069, 0.0, 0.0, 0.0, 0.0, -1762.3232915786853, 0.0]
['beep', 0.0, -78.27580908248534, 0.0, 0.0, 0.0, 0.0, -1762.6138642566043, 0.0]
['beep', 0.0, -76.86764918180099, 0.0, 0.0, 0.0, 0.0, -1762.4574020454172, 0.0]
['beep', 0.0, -77.5382015154602, 0.0, 0.0, 0.0, 0.0, -1763.8655619461015, 0.0]
['beep', 0.0, -80.44392829465012, 0.0, 0.0, 0.0, 0.0, -1764.0220241572888, 0.0]
['beep', 0.0, -80.80155620593503, 0.0, 0.0, 0.0, 0.0, -1765.2290183578752, 0.0]
['beep', 0.0, -81.3379980728624, 0.0, 0.0, 0.0, 0.0, -1764.983149168867, 0.0]
['beep', 0.0, -82.56734401790429, 0.0, 0.0, 0.0, 0.0, -1763.4185270569953, 0.0]
['beep', 0.0, -84.08726264086516, 0.0, 0.0, 0.0, 0.0, -1765.4748875468836, 0.0]
['beep', 0.0, -84.98133241907745, 0.0, 0.0, 0.0, 0.0, -1766.3913090695512, 0.0]
['beep', 0.0, -84.64605625224785, 0.0, 0.0, 0.0, 0.0, -1767.5983032701379, 0.0]
['beep', 0.0, -84.95898067462214, 0.0, 0.0, 0.0, 0.0, -1767.888875948057, 0.0]
['beep', 0.0, -84.22137310759702, 0.0, 0.0, 0.0, 0.0, -1767.0171579142998, 0.0]
['beep', 0.0, -84.31078008541824, 0.0, 0.0, 0.0, 0.0, -1766.1230881360875, 0.0]
['beep', 0.0, -85.74129173055789, 0.0, 0.0, 0.0, 0.0, -1766.7042334919256, 0.0]
['beep', 0.0, -87.01534116451039, 0.0, 0.0, 0.0, 0.0, -1766.4136608140066, 0.0]
['beep', 0.0, -85.74129173055789, 0.0, 0.0, 0.0, 0.0, -1766.8383439586573, 0.0]
['beep', 0.0, -85.29425684145176, 0.0, 0.0, 0.0, 0.0, -1766.7712887252915, 0.0]
['beep', 0.0, -86.85887895332324, 0.0, 0.0, 0.0, 0.0, -1766.9277509364786, 0.0]
['beep', 0.0, -88.84818420984557, 0.0, 0.0, 0.0, 0.0, -1767.7324137368696, 0.0]
['beep', 0.0, -89.04934990994333, 0.0, 0.0, 0.0, 0.0, -1769.0958701486434, 0.0]
['beep', 0.0, -89.07170165439865, 0.0, 0.0, 0.0, 0.0, -1769.1629253820092, 0.0]
['beep', 0.0, -87.82000396490145, 0.0, 0.0, 0.0, 0.0, -1767.9335794369674, 0.0]
['beep', 0.0, -87.59648652034838, 0.0, 0.0, 0.0, 0.0, -1768.1570968815206, 0.0]
['beep', 0.0, -87.44002430916123, 0.0, 0.0, 0.0, 0.0, -1768.5147247928055, 0.0]
['beep', 0.0, -87.79765222044614, 0.0, 0.0, 0.0, 0.0, -1767.7100619924145, 0.0]
['beep', 0.0, -85.4283673081836, 0.0, 0.0, 0.0, 0.0, -1767.4865445478613, 0.0]
['beep', 0.0, -83.30495158492943, 0.0, 0.0, 0.0, 0.0, -1767.464192803406, 0.0]
['beep', 0.0, -83.08143414037634, 0.0, 0.0, 0.0, 0.0, -1767.39713757004, 0.0]
['beep', 0.0, -84.19902136314171, 0.0, 0.0, 0.0, 0.0, -1768.2912073482523, 0.0]
['beep', 0.0, -84.40018706323947, 0.0, 0.0, 0.0, 0.0, -1767.263027103308, 0.0]
['beep', 0.0, -82.79086146245736, 0.0, 0.0, 0.0, 0.0, -1768.5817800261714, 0.0]
['beep', 0.0, -81.56151551741547, 0.0, 0.0, 0.0, 0.0, -1768.8947044485456, 0.0]
['beep', 0.0, -81.71797772860262, 0.0, 0.0, 0.0, 0.0, -1768.7382422373585, 0.0]
['beep', 0.0, -82.12030912879816, 0.0, 0.0, 0.0, 0.0, -1769.6770155044815, 0.0]
['beep', 0.0, -82.76850971800205, 0.0, 0.0, 0.0, 0.0, -1770.0346434157664, 0.0]
['beep', 0.0, -83.61787600730372, 0.0, 0.0, 0.0, 0.0, -1770.5040300493276, 0.0]
['beep', 0.0, -83.1931928626529, 0.0, 0.0, 0.0, 0.0, -1770.4593265604171, 0.0]
['beep', 0.0, -84.8472219523456, 0.0, 0.0, 0.0, 0.0, -1769.8111259712132, 0.0]
['beep', 0.0, -85.33896033036237, 0.0, 0.0, 0.0, 0.0, -1770.0569951602215, 0.0]
['beep', 0.0, -85.71893998610258, 0.0, 0.0, 0.0, 0.0, -1769.4534980599283, 0.0]
['beep', 0.0, -85.29425684145176, 0.0, 0.0, 0.0, 0.0, -1770.235809115864, 0.0]
['beep', 0.0, -84.08726264086516, 0.0, 0.0, 0.0, 0.0, -1769.498201548839, 0.0]
['beep', 0.0, -84.73546323006907, 0.0, 0.0, 0.0, 0.0, -1769.1182218930987, 0.0]
['beep', 0.0, -86.97063767559978, 0.0, 0.0, 0.0, 0.0, -1770.0569951602215, 0.0]
['beep', 0.0, -87.44002430916123, 0.0, 0.0, 0.0, 0.0, -1771.1298788940762, 0.0]
['beep', 0.0, -86.50125104203833, 0.0, 0.0, 0.0, 0.0, -1771.3533963386294, 0.0]
['beep', 0.0, -85.4507190526389, 0.0, 0.0, 0.0, 0.0, -1770.235809115864, 0.0]
['beep', 0.0, -84.71311148561377, 0.0, 0.0, 0.0, 0.0, -1771.688672505459, 0.0]
['beep', 0.0, -86.18832661966404, 0.0, 0.0, 0.0, 0.0, -1772.0239486722887, 0.0]
['beep', 0.0, -86.32243708639588, 0.0, 0.0, 0.0, 0.0, -1772.6497975170373, 0.0]
['beep', 0.0, -86.52360278649364, 0.0, 0.0, 0.0, 0.0, -1771.5545620387272, 0.0]
['beep', 0.0, -86.61300976431487, 0.0, 0.0, 0.0, 0.0, -1772.0239486722887, 0.0]
['beep', 0.0, -86.03186440847688, 0.0, 0.0, 0.0, 0.0, -1772.7392044948585, 0.0]
['beep', 0.0, -87.19415512015286, 0.0, 0.0, 0.0, 0.0, -1772.4262800724841, 0.0]
['beep', 0.0, -87.97646617608859, 0.0, 0.0, 0.0, 0.0, -1773.8120882287133, 0.0]
['beep', 0.0, -87.70824524262491, 0.0, 0.0, 0.0, 0.0, -1773.8120882287133, 0.0]
['beep', 0.0, -87.61883826480368, 0.0, 0.0, 0.0, 0.0, -1772.9850736838669, 0.0]
['beep', 0.0, -87.50707954252715, 0.0, 0.0, 0.0, 0.0, -1773.141535895054, 0.0]
['beep', 0.0, -87.48472779807184, 0.0, 0.0, 0.0, 0.0, -1774.3708818400958, 0.0]
['beep', 0.0, -88.33409408737351, 0.0, 0.0, 0.0, 0.0, -1773.9238469509896, 0.0]
['beep', 0.0, -88.31174234291821, 0.0, 0.0, 0.0, 0.0, -1774.527344051283, 0.0]
['beep', 0.0, -84.8472219523456, 0.0, 0.0, 0.0, 0.0, -1774.6167510291043, 0.0]
['beep', 0.0, -84.73546323006907, 0.0, 0.0, 0.0, 0.0, -1773.5215155507942, 0.0]
['beep', 0.0, -85.96480917511096, 0.0, 0.0, 0.0, 0.0, -1773.0521289172327, 0.0]
['beep', 0.0, -84.64605625224785, 0.0, 0.0, 0.0, 0.0, -1773.2309428728752, 0.0]
['beep', 0.0, -83.41671030720596, 0.0, 0.0, 0.0, 0.0, -1773.0521289172327, 0.0]
['beep', 0.0, -81.82973645087915, 0.0, 0.0, 0.0, 0.0, -1772.8733149615903, 0.0]
['beep', 0.0, -82.43323355117245, 0.0, 0.0, 0.0, 0.0, -1773.722681250892, 0.0]
['beep', 0.0, -83.2378963515635, 0.0, 0.0, 0.0, 0.0, -1773.946198695445, 0.0]
['beep', 0.0, -83.66257949621433, 0.0, 0.0, 0.0, 0.0, -1773.7673847398025, 0.0]
['beep', 0.0, -83.46141379611657, 0.0, 0.0, 0.0, 0.0, -1773.297998106241, 0.0]
['beep', 0.0, -82.85791669582328, 0.0, 0.0, 0.0, 0.0, -1774.7732132402914, 0.0]
['beep', 0.0, -82.23206785107469, 0.0, 0.0, 0.0, 0.0, -1775.8908004630568, 0.0]
['beep', 0.0, -84.73546323006907, 0.0, 0.0, 0.0, 0.0, -1775.0861376626656, 0.0]
['beep', 0.0, -84.98133241907745, 0.0, 0.0, 0.0, 0.0, -1776.047262674244, 0.0]
['beep', 0.0, -84.13196612977579, 0.0, 0.0, 0.0, 0.0, -1775.4661173184058, 0.0]
['beep', 0.0, -84.53429752997131, 0.0, 0.0, 0.0, 0.0, -1775.4661173184058, 0.0]
['beep', 0.0, -86.07656789738749, 0.0, 0.0, 0.0, 0.0, -1775.8237452296908, 0.0]
['beep', 0.0, -85.65188475273666, 0.0, 0.0, 0.0, 0.0, -1776.5390010522606, 0.0]
['beep', 0.0, -85.96480917511096, 0.0, 0.0, 0.0, 0.0, -1777.20955338592, 0.0]
['beep', 0.0, -86.21067836411935, 0.0, 0.0, 0.0, 0.0, -1776.2931318632523, 0.0]
['beep', 0.0, -85.36131207481768, 0.0, 0.0, 0.0, 0.0, -1776.4495940744393, 0.0]
['beep', 0.0, -86.14362313075343, 0.0, 0.0, 0.0, 0.0, -1775.4214138294954, 0.0]
['beep', 0.0, -86.18832661966404, 0.0, 0.0, 0.0, 0.0, -1776.6731115189925, 0.0]
['beep', 0.0, -86.18832661966404, 0.0, 0.0, 0.0, 0.0, -1777.366015597107, 0.0]
['beep', 0.0, -85.07073939689867, 0.0, 0.0, 0.0, 0.0, -1777.20955338592, 0.0]
['beep', 0.0, -82.96967541809981, 0.0, 0.0, 0.0, 0.0, -1776.8742772190903, 0.0]
['beep', 0.0, -82.20971610661938, 0.0, 0.0, 0.0, 0.0, -1777.6118847861153, 0.0]
['beep', 0.0, -83.2378963515635, 0.0, 0.0, 0.0, 0.0, -1777.723643508392, 0.0]
['beep', 0.0, -84.1766696186864, 0.0, 0.0, 0.0, 0.0, -1777.522477808294, 0.0]
['beep', 0.0, -83.50611728502719, 0.0, 0.0, 0.0, 0.0, -1777.947160952945, 0.0]
['beep', 0.0, -83.28259984047412, 0.0, 0.0, 0.0, 0.0, -1778.1036231641322, 0.0]
['beep', 0.0, -82.74615797354674, 0.0, 0.0, 0.0, 0.0, -1778.8635824756125, 0.0]
['beep', 0.0, -84.24372485205232, 0.0, 0.0, 0.0, 0.0, -1779.8023557427355, 0.0]
['beep', 0.0, -84.06491089640986, 0.0, 0.0, 0.0, 0.0, -1779.6682452760037, 0.0]
['beep', 0.0, -82.83556495136797, 0.0, 0.0, 0.0, 0.0, -1778.8412307311573, 0.0]
['beep', 0.0, -82.43323355117245, 0.0, 0.0, 0.0, 0.0, -1779.4894313203613, 0.0]
['beep', 0.0, -81.3156463284071, 0.0, 0.0, 0.0, 0.0, -1778.5953615421488, 0.0]
['beep', 0.0, -82.2767713399853, 0.0, 0.0, 0.0, 0.0, -1778.3941958420512, 0.0]
['beep', 0.0, -84.1766696186864, 0.0, 0.0, 0.0, 0.0, -1777.7906987417578, 0.0]
['beep', 0.0, -84.13196612977579, 0.0, 0.0, 0.0, 0.0, -1777.6118847861153, 0.0]
['beep', 0.0, -83.1931928626529, 0.0, 0.0, 0.0, 0.0, -1778.1036231641322, 0.0]
['beep', 0.0, -83.34965507384004, 0.0, 0.0, 0.0, 0.0, -1778.5730097976937, 0.0]
['beep', 0.0, -84.04255915195455, 0.0, 0.0, 0.0, 0.0, -1778.68476851997, 0.0]
['beep', 0.0, -84.13196612977579, 0.0, 0.0, 0.0, 0.0, -1778.2377336308639, 0.0]
['beep', 0.0, -82.34382657335122, 0.0, 0.0, 0.0, 0.0, -1778.327140608685, 0.0]
['beep', 0.0, -81.60621900632609, 0.0, 0.0, 0.0, 0.0, -1777.6118847861153, 0.0]
['beep', 0.0, -81.0474253949434, 0.0, 0.0, 0.0, 0.0, -1777.5671812972048, 0.0]
['beep', 0.0, -82.0085504065216, 0.0, 0.0, 0.0, 0.0, -1777.9024574640343, 0.0]
['beep', 0.0, -82.63439925127021, 0.0, 0.0, 0.0, 0.0, -1777.075442919188, 0.0]
['beep', 0.0, -81.94149517315569, 0.0, 0.0, 0.0, 0.0, -1776.2931318632523, 0.0]
['beep', 0.0, -80.33216957237359, 0.0, 0.0, 0.0, 0.0, -1775.5778760406824, 0.0]
['beep', 0.0, -80.55568701692665, 0.0, 0.0, 0.0, 0.0, -1776.3825388410735, 0.0]
['beep', 0.0, -81.80738470642385, 0.0, 0.0, 0.0, 0.0, -1776.5837045411713, 0.0]
['beep', 0.0, -81.00272190603279, 0.0, 0.0, 0.0, 0.0, -1777.3883673415623, 0.0]
['beep', 0.0, -79.97454166108867, 0.0, 0.0, 0.0, 0.0, -1777.0530911747328, 0.0]
['beep', 0.0, -79.16987886069762, 0.0, 0.0, 0.0, 0.0, -1776.3154836077076, 0.0]
['beep', 0.0, -78.43227129367249, 0.0, 0.0, 0.0, 0.0, -1776.6731115189925, 0.0]
['beep', 0.0, -80.01924514999928, 0.0, 0.0, 0.0, 0.0, -1775.3767103405846, 0.0]
['beep', 0.0, -81.38270156177302, 0.0, 0.0, 0.0, 0.0, -1774.9073237070231, 0.0]
['beep', 0.0, -80.15335561673113, 0.0, 0.0, 0.0, 0.0, -1772.0239486722887, 0.0]
['beep', 0.0, -78.4993265270384, 0.0, 0.0, 0.0, 0.0, -1771.979245183378, 0.0]
['beep', 0.0, -79.88513468326744, 0.0, 0.0, 0.0, 0.0, -1771.5769137831826, 0.0]
['beep', 0.0, -81.42740505068363, 0.0, 0.0, 0.0, 0.0, -1769.20762887092, 0.0]
['beep', 0.0, -82.6120475068149, 0.0, 0.0, 0.0, 0.0, -1763.239713101353, 0.0]
['beep', 0.0, -81.3379980728624, 0.0, 0.0, 0.0, 0.0, -1756.623596742582, 0.0]
['beep', 0.0, -79.66161723871437, 0.0, 0.0, 0.0, 0.0, -1749.560445494705, 0.0]
['beep', 0.0, -80.06394863890989, 0.0, 0.0, 0.0, 0.0, -1738.4069250115067, 0.0]
['beep', 0.0, -82.47793704008306, 0.0, 0.0, 0.0, 0.0, -1728.7062679179035, 0.0]
['beep', 0.0, -81.27094283949648, 0.0, 0.0, 0.0, 0.0, -1715.33992473363, 0.0]
['beep', 0.0, -79.70632072762498, 0.0, 0.0, 0.0, 0.0, -1701.3924361935183, 0.0]
['beep', 0.0, -78.1640503602088, 0.0, 0.0, 0.0, 0.0, -1685.8803255415353, 0.0]
['beep', 0.0, -79.66161723871437, 0.0, 0.0, 0.0, 0.0, -1673.9444940024011, 0.0]
['beep', 0.0, -81.56151551741547, 0.0, 0.0, 0.0, 0.0, -1661.271054896242, 0.0]
['beep', 0.0, -83.72963472958025, 0.0, 0.0, 0.0, 0.0, -1647.6364907785048, 0.0]
['beep', 0.0, -84.78016671897969, 0.0, 0.0, 0.0, 0.0, -1633.2866708381978, 0.0]
['beep', 0.0, -81.11448062830934, 0.0, 0.0, 0.0, 0.0, -1623.854234678058, 0.0]
['beep', 0.0, -78.4993265270384, 0.0, 0.0, 0.0, 0.0, -1615.0699991071224, 0.0]
['beep', 0.0, -78.76754746050209, 0.0, 0.0, 0.0, 0.0, -1605.279935035698, 0.0]
['beep', 0.0, -79.54985851643784, 0.0, 0.0, 0.0, 0.0, -1593.5899726855723, 0.0]
['beep', 0.0, -78.1416986157535, 0.0, 0.0, 0.0, 0.0, -1584.090481292067, 0.0]
['beep', 0.0, -76.5994282483373, 0.0, 0.0, 0.0, 0.0, -1576.5579434106285, 0.0]
['beep', 0.0, -76.75589045952445, 0.0, 0.0, 0.0, 0.0, -1570.7688415967039, 0.0]
['beep', 0.0, -78.61108524931494, 0.0, 0.0, 0.0, 0.0, -1568.5113154067178, 0.0]
['beep', 0.0, -79.92983817217805, 0.0, 0.0, 0.0, 0.0, -1565.1585537384217, 0.0]
['beep', 0.0, -79.01341664951046, 0.0, 0.0, 0.0, 0.0, -1564.4656496603072, 0.0]
['beep', 0.0, -78.45462303812779, 0.0, 0.0, 0.0, 0.0, -1564.6444636159497, 0.0]
['beep', 0.0, -80.1086521278205, 0.0, 0.0, 0.0, 0.0, -1564.666815360405, 0.0]
['beep', 0.0, -80.3545213168289, 0.0, 0.0, 0.0, 0.0, -1567.3713764394972, 0.0]
['beep', 0.0, -80.26511433900767, 0.0, 0.0, 0.0, 0.0, -1573.0710712756004, 0.0]
['beep', 0.0, -80.89096318375626, 0.0, 0.0, 0.0, 0.0, -1578.7484143672484, 0.0]
['beep', 0.0, -81.80738470642385, 0.0, 0.0, 0.0, 0.0, -1584.7163301368155, 0.0]
['beep', 0.0, -80.48863178356073, 0.0, 0.0, 0.0, 0.0, -1591.1983360288546, 0.0]
['beep', 0.0, -80.55568701692665, 0.0, 0.0, 0.0, 0.0, -1596.6745134204048, 0.0]
['beep', 0.0, -81.85208819533446, 0.0, 0.0, 0.0, 0.0, -1604.7881966576813, 0.0]
['beep', 0.0, -80.80155620593503, 0.0, 0.0, 0.0, 0.0, -1612.2089758168431, 0.0]
['beep', 0.0, -80.93566667266687, 0.0, 0.0, 0.0, 0.0, -1618.0427811196782, 0.0]
['beep', 0.0, -82.41088180671714, 0.0, 0.0, 0.0, 0.0, -1626.916423668435, 0.0]
['beep', 0.0, -83.17084111819759, 0.0, 0.0, 0.0, 0.0, -1632.5043597822619, 0.0]
['beep', 0.0, -81.27094283949648, 0.0, 0.0, 0.0, 0.0, -1638.1369993849994, 0.0]
['beep', 0.0, -81.47210853959425, 0.0, 0.0, 0.0, 0.0, -1646.3177378556418, 0.0]
['beep', 0.0, -81.85208819533446, 0.0, 0.0, 0.0, 0.0, -1652.2185983918428, 0.0]
['beep', 0.0, -80.75685271702442, 0.0, 0.0, 0.0, 0.0, -1657.4936100832952, 0.0]
['beep', 0.0, -81.22623935058587, 0.0, 0.0, 0.0, 0.0, -1663.953264230879, 0.0]
['beep', 0.0, -83.05908239592104, 0.0, 0.0, 0.0, 0.0, -1668.9377032444124, 0.0]
['beep', 0.0, -82.63439925127021, 0.0, 0.0, 0.0, 0.0, -1674.4585841248734, 0.0]
['beep', 0.0, -82.34382657335122, 0.0, 0.0, 0.0, 0.0, -1678.7724708047476, 0.0]
['beep', 0.0, -82.90262018473389, 0.0, 0.0, 0.0, 0.0, -1683.3098749291748, 0.0]
['beep', 0.0, -82.96967541809981, 0.0, 0.0, 0.0, 0.0, -1688.7413488318145, 0.0]
['beep', 0.0, -82.56734401790429, 0.0, 0.0, 0.0, 0.0, -1694.4410436679177, 0.0]
['beep', 0.0, -83.68493124066964, 0.0, 0.0, 0.0, 0.0, -1697.9949710363117, 0.0]
['beep', 0.0, -83.05908239592104, 0.0, 0.0, 0.0, 0.0, -1701.9959332938115, 0.0]
['beep', 0.0, -82.76850971800205, 0.0, 0.0, 0.0, 0.0, -1704.6781426284485, 0.0]
['beep', 0.0, -82.41088180671714, 0.0, 0.0, 0.0, 0.0, -1707.494462429817, 0.0]
['beep', 0.0, -84.35548357432886, 0.0, 0.0, 0.0, 0.0, -1711.4507211984064, 0.0]
['beep', 0.0, -84.31078008541824, 0.0, 0.0, 0.0, 0.0, -1714.5129101887835, 0.0]
['beep', 0.0, -83.68493124066964, 0.0, 0.0, 0.0, 0.0, -1716.591622423127, 0.0]
['beep', 0.0, -84.06491089640986, 0.0, 0.0, 0.0, 0.0, -1718.8938521020236, 0.0]
['beep', 0.0, -83.8860969407674, 0.0, 0.0, 0.0, 0.0, -1722.8724626150683, 0.0]
['beep', 0.0, -84.40018706323947, 0.0, 0.0, 0.0, 0.0, -1725.7334859053476, 0.0]
['beep', 0.0, -82.9473236736445, 0.0, 0.0, 0.0, 0.0, -1728.1921777954315, 0.0]
['beep', 0.0, -81.82973645087915, 0.0, 0.0, 0.0, 0.0, -1729.6450411850265, 0.0]
['beep', 0.0, -82.16501261770877, 0.0, 0.0, 0.0, 0.0, -1731.7461051638254, 0.0]
['beep', 0.0, -83.90844868522271, 0.0, 0.0, 0.0, 0.0, -1733.0872098311438, 0.0]
['beep', 0.0, -84.37783531878416, 0.0, 0.0, 0.0, 0.0, -1734.9871081098447, 0.0]
['beep', 0.0, -82.0085504065216, 0.0, 0.0, 0.0, 0.0, -1736.7752476662695, 0.0]
['beep', 0.0, -82.07560563988753, 0.0, 0.0, 0.0, 0.0, -1737.781076166758, 0.0]
['beep', 0.0, -82.67910274018082, 0.0, 0.0, 0.0, 0.0, -1737.9375383779454, 0.0]
['beep', 0.0, -83.8637451963121, 0.0, 0.0, 0.0, 0.0, -1739.0551256007107, 0.0]
['beep', 0.0, -83.99785566304394, 0.0, 0.0, 0.0, 0.0, -1740.6420994570376, 0.0]
['beep', 0.0, -83.79668996294618, 0.0, 0.0, 0.0, 0.0, -1741.0220791127776, 0.0]
['beep', 0.0, -82.72380622909144, 0.0, 0.0, 0.0, 0.0, -1742.3184802911856, 0.0]
['beep', 0.0, -83.01437890701042, 0.0, 0.0, 0.0, 0.0, -1742.2737768022748, 0.0]
['beep', 0.0, -83.8860969407674, 0.0, 0.0, 0.0, 0.0, -1743.3913640250403, 0.0]
['beep', 0.0, -84.08726264086516, 0.0, 0.0, 0.0, 0.0, -1744.6877652034482, 0.0]
['beep', 0.0, -84.22137310759702, 0.0, 0.0, 0.0, 0.0, -1746.9899948823447, 0.0]
['beep', 0.0, -83.34965507384004, 0.0, 0.0, 0.0, 0.0, -1747.2135123268977, 0.0]
['beep', 0.0, -83.39435856275065, 0.0, 0.0, 0.0, 0.0, -1747.660547216004, 0.0]
['beep', 0.0, -84.71311148561377, 0.0, 0.0, 0.0, 0.0, -1748.2640443162973, 0.0]
['beep', 0.0, -85.98716091956626, 0.0, 0.0, 0.0, 0.0, -1748.4205065274843, 0.0]
['beep', 0.0, -83.43906205166127, 0.0, 0.0, 0.0, 0.0, -1749.2251693278754, 0.0]
['beep', 0.0, -81.38270156177302, 0.0, 0.0, 0.0, 0.0, -1749.7616111948028, 0.0]
['beep', 0.0, -81.11448062830934, 0.0, 0.0, 0.0, 0.0, -1750.3204048061855, 0.0]
['beep', 0.0, -81.15918411721995, 0.0, 0.0, 0.0, 0.0, -1751.1250676065765, 0.0]
['beep', 0.0, -83.05908239592104, 0.0, 0.0, 0.0, 0.0, -1753.2484833298306, 0.0]
['beep', 0.0, -83.57317251839311, 0.0, 0.0, 0.0, 0.0, -1753.1367246075542, 0.0]
['beep', 0.0, -81.60621900632609, 0.0, 0.0, 0.0, 0.0, -1752.913207163001, 0.0]
['beep', 0.0, -80.93566667266687, 0.0, 0.0, 0.0, 0.0, -1754.2766635747748, 0.0]
['beep', 0.0, -81.91914342870038, 0.0, 0.0, 0.0, 0.0, -1754.7460502083363, 0.0]
['beep', 0.0, -81.78503296196854, 0.0, 0.0, 0.0, 0.0, -1755.4166025419954, 0.0]
['beep', 0.0, -82.14266087325346, 0.0, 0.0, 0.0, 0.0, -1755.5730647531827, 0.0]
['beep', 0.0, -80.51098352801604, 0.0, 0.0, 0.0, 0.0, -1755.9306926644676, 0.0]
['beep', 0.0, -79.99689340554397, 0.0, 0.0, 0.0, 0.0, -1756.6683002314926, 0.0]
['beep', 0.0, -81.71797772860262, 0.0, 0.0, 0.0, 0.0, -1757.3165008206965, 0.0]
['beep', 0.0, -82.05325389543222, 0.0, 0.0, 0.0, 0.0, -1759.3505095661294, 0.0]
['beep', 0.0, -80.06394863890989, 0.0, 0.0, 0.0, 0.0, -1760.3563380666183, 0.0]
['beep', 0.0, -79.72867247208029, 0.0, 0.0, 0.0, 0.0, -1759.2834543327635, 0.0]
['beep', 0.0, -80.7121492281138, 0.0, 0.0, 0.0, 0.0, -1759.3281578216743, 0.0]
['beep', 0.0, -81.40505330622833, 0.0, 0.0, 0.0, 0.0, -1760.1998758554312, 0.0]
['beep', 0.0, -82.03090215097691, 0.0, 0.0, 0.0, 0.0, -1760.6469107445373, 0.0]
['beep', 0.0, -81.71797772860262, 0.0, 0.0, 0.0, 0.0, -1761.4068700560179, 0.0]
['beep', 0.0, -81.62857075078139, 0.0, 0.0, 0.0, 0.0, -1763.038547401255, 0.0]
['beep', 0.0, -82.72380622909144, 0.0, 0.0, 0.0, 0.0, -1764.2008381129313, 0.0]
['beep', 0.0, -85.093091141354, 0.0, 0.0, 0.0, 0.0, -1764.469059046395, 0.0]
['beep', 0.0, -87.26121035351878, 0.0, 0.0, 0.0, 0.0, -1763.1503061235317, 0.0]
['beep', 0.0, -87.82000396490145, 0.0, 0.0, 0.0, 0.0, -1762.2562363453194, 0.0]
['beep', 0.0, -85.98716091956626, 0.0, 0.0, 0.0, 0.0, -1763.4185270569953, 0.0]
['beep', 0.0, -85.07073939689867, 0.0, 0.0, 0.0, 0.0, -1763.9549689239227, 0.0]
['beep', 0.0, -86.25538185302996, 0.0, 0.0, 0.0, 0.0, -1764.7596317243137, 0.0]
['beep', 0.0, -86.54595453094895, 0.0, 0.0, 0.0, 0.0, -1765.6089980136155, 0.0]
['beep', 0.0, -85.87540219728973, 0.0, 0.0, 0.0, 0.0, -1766.5030677918278, 0.0]
['beep', 0.0, -84.35548357432886, 0.0, 0.0, 0.0, 0.0, -1768.9617596819116, 0.0]
['beep', 0.0, -83.41671030720596, 0.0, 0.0, 0.0, 0.0, -1767.464192803406, 0.0]
['beep', 0.0, -83.90844868522271, 0.0, 0.0, 0.0, 0.0, -1765.8772189470792, 0.0]
['beep', 0.0, -85.87540219728973, 0.0, 0.0, 0.0, 0.0, -1771.0851754051657, 0.0]
['beep', 0.0, -84.91427718571153, 0.0, 0.0, 0.0, 0.0, -1774.4155853290065, 0.0]
['beep', 0.0, -83.95315217413332, 0.0, 0.0, 0.0, 0.0, -1769.140573637554, 0.0]
['beep', 0.0, -84.1543178742311, 0.0, 0.0, 0.0, 0.0, -1769.5652567822049, 0.0]
['beep', 0.0, -86.43419580867241, 0.0, 0.0, 0.0, 0.0, -1775.980207440878, 0.0]
['beep', 0.0, -88.11057664282045, 0.0, 0.0, 0.0, 0.0, -1776.3601870966181, 0.0]
['beep', 0.0, -87.060044653421, 0.0, 0.0, 0.0, 0.0, -1772.7392044948585, 0.0]
['beep', 0.0, -86.54595453094895, 0.0, 0.0, 0.0, 0.0, -1775.1531928960317, 0.0]
['beep', 0.0, -87.3282655868847, 0.0, 0.0, 0.0, 0.0, -1776.3601870966181, 0.0]
['beep', 0.0, -86.76947197550201, 0.0, 0.0, 0.0, 0.0, -1777.2542568748304, 0.0]
['beep', 0.0, -86.7247684865914, 0.0, 0.0, 0.0, 0.0, -1779.6682452760037, 0.0]
['beep', 0.0, -86.09891964184281, 0.0, 0.0, 0.0, 0.0, -1779.8470592316462, 0.0]
['beep', 0.0, -84.02020740749924, 0.0, 0.0, 0.0, 0.0, -1781.3446261101517, 0.0]
['beep', 0.0, -83.70728298512495, 0.0, 0.0, 0.0, 0.0, -1784.8314982451795, 0.0]
['beep', 0.0, -84.80251846343499, 0.0, 0.0, 0.0, 0.0, -1785.6138093011152, 0.0]
['beep', 0.0, -85.07073939689867, 0.0, 0.0, 0.0, 0.0, -1784.9209052230008, 0.0]
['beep', 0.0, -83.61787600730372, 0.0, 0.0, 0.0, 0.0, -1785.882030234579, 0.0]
['beep', 0.0, -82.16501261770877, 0.0, 0.0, 0.0, 0.0, -1787.7148732799142, 0.0]
['beep', 0.0, -83.30495158492943, 0.0, 0.0, 0.0, 0.0, -1788.7654052693135, 0.0]
['beep', 0.0, -84.02020740749924, 0.0, 0.0, 0.0, 0.0, -1790.6429518035593, 0.0]
['beep', 0.0, -83.39435856275065, 0.0, 0.0, 0.0, 0.0, -1790.7323587813805, 0.0]
['beep', 0.0, -82.76850971800205, 0.0, 0.0, 0.0, 0.0, -1791.1123384371208, 0.0]
['beep', 0.0, -82.09795738434283, 0.0, 0.0, 0.0, 0.0, -1791.4476146039506, 0.0]
['beep', 0.0, -82.18736436216408, 0.0, 0.0, 0.0, 0.0, -1792.5875535711712, 0.0]
['beep', 0.0, -83.75198647403556, 0.0, 0.0, 0.0, 0.0, -1793.9733617274, 0.0]
['beep', 0.0, -84.24372485205232, 0.0, 0.0, 0.0, 0.0, -1795.9626669839224, 0.0]
['beep', 0.0, -84.31078008541824, 0.0, 0.0, 0.0, 0.0, -1796.230887917386, 0.0]
['beep', 0.0, -84.1766696186864, 0.0, 0.0, 0.0, 0.0, -1794.8227280167018, 0.0]
['beep', 0.0, -84.26607659650763, 0.0, 0.0, 0.0, 0.0, -1796.2979431507522, 0.0]
['beep', 0.0, -85.54012603046013, 0.0, 0.0, 0.0, 0.0, -1796.8567367621347, 0.0]
['beep', 0.0, -86.52360278649364, 0.0, 0.0, 0.0, 0.0, -1797.6613995625257, 0.0]
['beep', 0.0, -86.92593418668916, 0.0, 0.0, 0.0, 0.0, -1797.4602338624281, 0.0]
['beep', 0.0, -85.51777428600482, 0.0, 0.0, 0.0, 0.0, -1797.0355507177771, 0.0]
['beep', 0.0, -84.511945785516, 0.0, 0.0, 0.0, 0.0, -1795.0909489501655, 0.0]
['beep', 0.0, -83.99785566304394, 0.0, 0.0, 0.0, 0.0, -1794.6439140610594, 0.0]
['beep', 0.0, -84.91427718571153, 0.0, 0.0, 0.0, 0.0, -1795.5379838392716, 0.0]
['beep', 0.0, -83.64022775175903, 0.0, 0.0, 0.0, 0.0, -1794.9568384834336, 0.0]
['beep', 0.0, -82.65675099572552, 0.0, 0.0, 0.0, 0.0, -1793.6157338161152, 0.0]
['beep', 0.0, -82.72380622909144, 0.0, 0.0, 0.0, 0.0, -1794.4874518498723, 0.0]
['beep', 0.0, -82.43323355117245, 0.0, 0.0, 0.0, 0.0, -1795.1133006946209, 0.0]
['beep', 0.0, -81.06977713939871, 0.0, 0.0, 0.0, 0.0, -1794.6886175499699, 0.0]
['beep', 0.0, -81.13683237276464, 0.0, 0.0, 0.0, 0.0, -1795.2474111613526, 0.0]
['beep', 0.0, -79.86278293881213, 0.0, 0.0, 0.0, 0.0, -1793.9957134718554, 0.0]
['beep', 0.0, -79.66161723871437, 0.0, 0.0, 0.0, 0.0, -1793.9957134718554, 0.0]
['beep', 0.0, -82.05325389543222, 0.0, 0.0, 0.0, 0.0, -1795.0238937167996, 0.0]
['beep', 0.0, -84.04255915195455, 0.0, 0.0, 0.0, 0.0, -1796.1191291951097, 0.0]
['beep', 0.0, -83.50611728502719, 0.0, 0.0, 0.0, 0.0, -1795.8062047727353, 0.0]
['beep', 0.0, -82.88026844027858, 0.0, 0.0, 0.0, 0.0, -1795.7615012838248, 0.0]
['beep', 0.0, -81.82973645087915, 0.0, 0.0, 0.0, 0.0, -1795.9850187283778, 0.0]
['beep', 0.0, -82.0085504065216, 0.0, 0.0, 0.0, 0.0, -1796.655571062037, 0.0]
['beep', 0.0, -82.85791669582328, 0.0, 0.0, 0.0, 0.0, -1796.5438123397605, 0.0]
['beep', 0.0, -82.6120475068149, 0.0, 0.0, 0.0, 0.0, -1796.3873501285734, 0.0]
['beep', 0.0, -79.92983817217805, 0.0, 0.0, 0.0, 0.0, -1796.5214605953051, 0.0]
['beep', 0.0, -80.0863003833652, 0.0, 0.0, 0.0, 0.0, -1796.0520739617436, 0.0]
['beep', 0.0, -82.9249719291892, 0.0, 0.0, 0.0, 0.0, -1794.755672783336, 0.0]
['beep', 0.0, -83.03673065146573, 0.0, 0.0, 0.0, 0.0, -1795.8956117505566, 0.0]
['beep', 0.0, -82.63439925127021, 0.0, 0.0, 0.0, 0.0, -1795.9850187283778, 0.0]
['beep', 0.0, -82.65675099572552, 0.0, 0.0, 0.0, 0.0, -1794.8674315056123, 0.0]
['beep', 0.0, -83.68493124066964, 0.0, 0.0, 0.0, 0.0, -1793.59338207166, 0.0]
['beep', 0.0, -85.07073939689867, 0.0, 0.0, 0.0, 0.0, -1793.7051407939364, 0.0]
['beep', 0.0, -85.69658824164728, 0.0, 0.0, 0.0, 0.0, -1793.526326838294, 0.0]
['beep', 0.0, -85.13779463026461, 0.0, 0.0, 0.0, 0.0, -1793.6604373050259, 0.0]
['beep', 0.0, -83.61787600730372, 0.0, 0.0, 0.0, 0.0, -1793.7721960273025, 0.0]
['beep', 0.0, -83.30495158492943, 0.0, 0.0, 0.0, 0.0, -1790.531193081283, 0.0]
['beep', 0.0, -82.5896957623596, 0.0, 0.0, 0.0, 0.0, -1791.0899866926654, 0.0]
['beep', 0.0, -81.60621900632609, 0.0, 0.0, 0.0, 0.0, -1791.626428559593, 0.0]
['beep', 0.0, -79.61691374980376, 0.0, 0.0, 0.0, 0.0, -1790.3300273811851, 0.0]
['beep', 0.0, -78.09699512684287, 0.0, 0.0, 0.0, 0.0, -1789.1453849250538, 0.0]
['beep', 0.0, -79.03576839396577, 0.0, 0.0, 0.0, 0.0, -1789.1006814361433, 0.0]
['beep', 0.0, -80.84625969484564, 0.0, 0.0, 0.0, 0.0, -1787.6031145576376, 0.0]
['beep', 0.0, -81.673274239692, 0.0, 0.0, 0.0, 0.0, -1787.0219692017997, 0.0]
['beep', 0.0, -79.84043119435682, 0.0, 0.0, 0.0, 0.0, -1788.206611657931, 0.0]
['beep', 0.0, -80.01924514999928, 0.0, 0.0, 0.0, 0.0, -1788.2960186357523, 0.0]
['beep', 0.0, -81.20388760613056, 0.0, 0.0, 0.0, 0.0, -1789.4136058585175, 0.0]
['beep', 0.0, -81.56151551741547, 0.0, 0.0, 0.0, 0.0, -1790.0841581921768, 0.0]
['beep', 0.0, -81.87443993978977, 0.0, 0.0, 0.0, 0.0, -1790.9558762259337, 0.0]
['beep', 0.0, -82.83556495136797, 0.0, 0.0, 0.0, 0.0, -1791.5370215817718, 0.0]
['beep', 0.0, -82.50028878453837, 0.0, 0.0, 0.0, 0.0, -1790.0618064477214, 0.0]
['beep', 0.0, -82.34382657335122, 0.0, 0.0, 0.0, 0.0, -1789.525364580794, 0.0]
['beep', 0.0, -84.62370450779254, 0.0, 0.0, 0.0, 0.0, -1789.6147715586153, 0.0]
['beep', 0.0, -85.87540219728973, 0.0, 0.0, 0.0, 0.0, -1790.397082614551, 0.0]
['beep', 0.0, -85.54012603046013, 0.0, 0.0, 0.0, 0.0, -1790.106509936632, 0.0]
['beep', 0.0, -83.5508207739378, 0.0, 0.0, 0.0, 0.0, -1789.5030128363387, 0.0]
['beep', 0.0, -78.70049222713617, 0.0, 0.0, 0.0, 0.0, -1789.4583093474282, 0.0]
['beep', 0.0, -78.94636141614454, 0.0, 0.0, 0.0, 0.0, -1788.7654052693135, 0.0]
['beep', 0.0, -79.21458234960824, 0.0, 0.0, 0.0, 0.0, -1788.5195360803052, 0.0]
['beep', 0.0, -80.51098352801604, 0.0, 0.0, 0.0, 0.0, -1788.8548122471348, 0.0]
['beep', 0.0, -81.11448062830934, 0.0, 0.0, 0.0, 0.0, -1788.944219224956, 0.0]
['beep', 0.0, -81.38270156177302, 0.0, 0.0, 0.0, 0.0, -1789.1900884139645, 0.0]
['beep', 0.0, -81.71797772860262, 0.0, 0.0, 0.0, 0.0, -1788.944219224956, 0.0]
['beep', 0.0, -82.45558529562776, 0.0, 0.0, 0.0, 0.0, -1789.7041785364365, 0.0]
['beep', 0.0, -81.49446028404955, 0.0, 0.0, 0.0, 0.0, -1789.8606407476236, 0.0]
['beep', 0.0, -80.04159689445459, 0.0, 0.0, 0.0, 0.0, -1789.1006814361433, 0.0]
['beep', 0.0, -80.39922480573951, 0.0, 0.0, 0.0, 0.0, -1789.2794953917858, 0.0]
['beep', 0.0, -80.93566667266687, 0.0, 0.0, 0.0, 0.0, -1789.234791902875, 0.0]
['beep', 0.0, -82.70145448463613, 0.0, 0.0, 0.0, 0.0, -1790.531193081283, 0.0]
['beep', 0.0, -83.64022775175903, 0.0, 0.0, 0.0, 0.0, -1789.1230331805984, 0.0]
['beep', 0.0, -82.16501261770877, 0.0, 0.0, 0.0, 0.0, -1788.8548122471348, 0.0]
['beep', 0.0, -82.0085504065216, 0.0, 0.0, 0.0, 0.0, -1788.787757013769, 0.0]
['beep', 0.0, -83.17084111819759, 0.0, 0.0, 0.0, 0.0, -1790.1288616810873, 0.0]
['beep', 0.0, -83.77433821849087, 0.0, 0.0, 0.0, 0.0, -1790.0171029588107, 0.0]
['beep', 0.0, -82.03090215097691, 0.0, 0.0, 0.0, 0.0, -1790.2182686589085, 0.0]
['beep', 0.0, -81.06977713939871, 0.0, 0.0, 0.0, 0.0, -1790.4641378479168, 0.0]
['beep', 0.0, -80.33216957237359, 0.0, 0.0, 0.0, 0.0, -1791.626428559593, 0.0]
['beep', 0.0, -81.62857075078139, 0.0, 0.0, 0.0, 0.0, -1790.7770622702913, 0.0]
['beep', 0.0, -82.6120475068149, 0.0, 0.0, 0.0, 0.0, -1789.525364580794, 0.0]
['beep', 0.0, -82.23206785107469, 0.0, 0.0, 0.0, 0.0, -1789.8606407476236, 0.0]
['beep', 0.0, -79.7733759609909, 0.0, 0.0, 0.0, 0.0, -1790.978227970389, 0.0]
['beep', 0.0, -79.08047188287638, 0.0, 0.0, 0.0, 0.0, -1790.3076756367298, 0.0]
['beep', 0.0, -80.26511433900767, 0.0, 0.0, 0.0, 0.0, -1789.6818267919812, 0.0]
['beep', 0.0, -81.85208819533446, 0.0, 0.0, 0.0, 0.0, -1789.9053442365343, 0.0]
['beep', 0.0, -83.81904170740148, 0.0, 0.0, 0.0, 0.0, -1789.4583093474282, 0.0]
['beep', 0.0, -82.90262018473389, 0.0, 0.0, 0.0, 0.0, -1789.1453849250538, 0.0]
['beep', 0.0, -82.85791669582328, 0.0, 0.0, 0.0, 0.0, -1789.0559779472326, 0.0]
['beep', 0.0, -83.90844868522271, 0.0, 0.0, 0.0, 0.0, -1790.1959169144532, 0.0]
['beep', 0.0, -84.98133241907745, 0.0, 0.0, 0.0, 0.0, -1789.5700680697046, 0.0]
['beep', 0.0, -83.37200681829535, 0.0, 0.0, 0.0, 0.0, -1788.9218674805009, 0.0]
['beep', 0.0, -80.13100387227583, 0.0, 0.0, 0.0, 0.0, -1788.720701780403, 0.0]
['beep', 0.0, -79.84043119435682, 0.0, 0.0, 0.0, 0.0, -1788.7654052693135, 0.0]
['beep', 0.0, -80.19805910564175, 0.0, 0.0, 0.0, 0.0, -1790.6206000591042, 0.0]
['beep', 0.0, -80.22041085009705, 0.0, 0.0, 0.0, 0.0, -1790.5758965701934, 0.0]
['beep', 0.0, -81.3379980728624, 0.0, 0.0, 0.0, 0.0, -1788.787757013769, 0.0]
['beep', 0.0, -80.06394863890989, 0.0, 0.0, 0.0, 0.0, -1788.072501191199, 0.0]
['beep', 0.0, -79.92983817217805, 0.0, 0.0, 0.0, 0.0, -1788.7430535248584, 0.0]
['beep', 0.0, -81.22623935058587, 0.0, 0.0, 0.0, 0.0, -1788.1842599134757, 0.0]
['beep', 0.0, -82.67910274018082, 0.0, 0.0, 0.0, 0.0, -1788.6759982914923, 0.0]
['beep', 0.0, -82.07560563988753, 0.0, 0.0, 0.0, 0.0, -1788.3854256135735, 0.0]
['beep', 0.0, -79.92983817217805, 0.0, 0.0, 0.0, 0.0, -1787.6478180465483, 0.0]
['beep', 0.0, -79.59456200534845, 0.0, 0.0, 0.0, 0.0, -1787.6701697910037, 0.0]
['beep', 0.0, -80.93566667266687, 0.0, 0.0, 0.0, 0.0, -1788.6759982914923, 0.0]
['beep', 0.0, -81.78503296196854, 0.0, 0.0, 0.0, 0.0, -1787.625466302093, 0.0]
['beep', 0.0, -81.22623935058587, 0.0, 0.0, 0.0, 0.0, -1786.7761000127912, 0.0]
['beep', 0.0, -79.01341664951046, 0.0, 0.0, 0.0, 0.0, -1788.3183703802074, 0.0]
['beep', 0.0, -80.1086521278205, 0.0, 0.0, 0.0, 0.0, -1787.78192851328, 0.0]
['beep', 0.0, -80.98037016157748, 0.0, 0.0, 0.0, 0.0, -1788.6089430581264, 0.0]
['beep', 0.0, -81.94149517315569, 0.0, 0.0, 0.0, 0.0, -1788.8995157360455, 0.0]
['beep', 0.0, -81.56151551741547, 0.0, 0.0, 0.0, 0.0, -1789.4136058585175, 0.0]
['beep', 0.0, -80.53333527247135, 0.0, 0.0, 0.0, 0.0, -1789.1677366695092, 0.0]
['beep', 0.0, -80.53333527247135, 0.0, 0.0, 0.0, 0.0, -1788.7430535248584, 0.0]
['beep', 0.0, -81.6509224952367, 0.0, 0.0, 0.0, 0.0, -1788.9665709694114, 0.0]
['beep', 0.0, -82.07560563988753, 0.0, 0.0, 0.0, 0.0, -1789.0559779472326, 0.0]
['beep', 0.0, -79.92983817217805, 0.0, 0.0, 0.0, 0.0, -1788.8324605026796, 0.0]
['beep', 0.0, -77.98523640456634, 0.0, 0.0, 0.0, 0.0, -1788.4524808469394, 0.0]
['beep', 0.0, -78.43227129367249, 0.0, 0.0, 0.0, 0.0, -1788.072501191199, 0.0]
['beep', 0.0, -78.34286431585126, 0.0, 0.0, 0.0, 0.0, -1787.6701697910037, 0.0]
['beep', 0.0, -78.94636141614454, 0.0, 0.0, 0.0, 0.0, -1788.8771639915901, 0.0]
['beep', 0.0, -79.10282362733169, 0.0, 0.0, 0.0, 0.0, -1788.0054459578332, 0.0]
['beep', 0.0, -78.1416986157535, 0.0, 0.0, 0.0, 0.0, -1788.8995157360455, 0.0]
['beep', 0.0, -77.2029253486306, 0.0, 0.0, 0.0, 0.0, -1789.748882025347, 0.0]
['beep', 0.0, -78.34286431585126, 0.0, 0.0, 0.0, 0.0, -1788.6089430581264, 0.0]
['beep', 0.0, -79.95218991663336, 0.0, 0.0, 0.0, 0.0, -1789.1677366695092, 0.0]
['beep', 0.0, -79.12517537178701, 0.0, 0.0, 0.0, 0.0, -1788.3854256135735, 0.0]
['beep', 0.0, -78.18640210466411, 0.0, 0.0, 0.0, 0.0, -1787.4913558353612, 0.0]
['beep', 0.0, -78.43227129367249, 0.0, 0.0, 0.0, 0.0, -1788.0054459578332, 0.0]
['beep', 0.0, -79.01341664951046, 0.0, 0.0, 0.0, 0.0, -1788.8995157360455, 0.0]
['beep', 0.0, -79.90748642772274, 0.0, 0.0, 0.0, 0.0, -1789.5030128363387, 0.0]
['beep', 0.0, -80.55568701692665, 0.0, 0.0, 0.0, 0.0, -1789.6147715586153, 0.0]
['beep', 0.0, -78.7898992049574, 0.0, 0.0, 0.0, 0.0, -1789.1677366695092, 0.0]
['beep', 0.0, -79.25928583851885, 0.0, 0.0, 0.0, 0.0, -1790.240620403364, 0.0]
['beep', 0.0, -82.16501261770877, 0.0, 0.0, 0.0, 0.0, -1791.2464489038528, 0.0]
['beep', 0.0, -83.5284690294825, 0.0, 0.0, 0.0, 0.0, -1790.3523791256405, 0.0]
['beep', 0.0, -82.03090215097691, 0.0, 0.0, 0.0, 0.0, -1791.0229314592996, 0.0]
['beep', 0.0, -82.45558529562776, 0.0, 0.0, 0.0, 0.0, -1791.5370215817718, 0.0]
['beep', 0.0, -83.30495158492943, 0.0, 0.0, 0.0, 0.0, -1792.1181669376097, 0.0]
['beep', 0.0, -84.02020740749924, 0.0, 0.0, 0.0, 0.0, -1792.2522774043416, 0.0]
['beep', 0.0, -83.68493124066964, 0.0, 0.0, 0.0, 0.0, -1793.526326838294, 0.0]
['beep', 0.0, -83.72963472958025, 0.0, 0.0, 0.0, 0.0, -1793.816899516213, 0.0]
['beep', 0.0, -82.83556495136797, 0.0, 0.0, 0.0, 0.0, -1792.7440157823582, 0.0]
['beep', 0.0, -82.47793704008306, 0.0, 0.0, 0.0, 0.0, -1791.0899866926654, 0.0]
['beep', 0.0, -82.50028878453837, 0.0, 0.0, 0.0, 0.0, -1791.4699663484057, 0.0]
['beep', 0.0, -83.70728298512495, 0.0, 0.0, 0.0, 0.0, -1792.1628704265204, 0.0]
['beep', 0.0, -83.08143414037634, 0.0, 0.0, 0.0, 0.0, -1792.5428500822604, 0.0]
['beep', 0.0, -80.73450097256911, 0.0, 0.0, 0.0, 0.0, -1792.5204983378053, 0.0]
['beep', 0.0, -81.58386726187078, 0.0, 0.0, 0.0, 0.0, -1791.4252628594952, 0.0]
['beep', 0.0, -81.963846917611, 0.0, 0.0, 0.0, 0.0, -1791.9170012375118, 0.0]
['beep', 0.0, -82.0085504065216, 0.0, 0.0, 0.0, 0.0, -1793.012236715822, 0.0]
['beep', 0.0, -82.50028878453837, 0.0, 0.0, 0.0, 0.0, -1791.2240971593974, 0.0]
['beep', 0.0, -81.42740505068363, 0.0, 0.0, 0.0, 0.0, -1789.1006814361433, 0.0]
['beep', 0.0, -81.15918411721995, 0.0, 0.0, 0.0, 0.0, -1787.3795971130846, 0.0]
['beep', 0.0, -83.37200681829535, 0.0, 0.0, 0.0, 0.0, -1786.9996174573444, 0.0]
['beep', 0.0, -81.62857075078139, 0.0, 0.0, 0.0, 0.0, -1785.882030234579, 0.0]
['beep', 0.0, -80.24276259455236, 0.0, 0.0, 0.0, 0.0, -1785.9267337234896, 0.0]
['beep', 0.0, -81.24859109504118, 0.0, 0.0, 0.0, 0.0, -1776.9413324524562, 0.0]
['beep', 0.0, -79.68396898316968, 0.0, 0.0, 0.0, 0.0, -1766.950102680934, 0.0]
['beep', 0.0, -76.64413173724792, 0.0, 0.0, 0.0, 0.0, -1757.7635357098027, 0.0]
['beep', 0.0, -78.74519571604678, 0.0, 0.0, 0.0, 0.0, -1740.3291750346632, 0.0]
['beep', 0.0, -81.20388760613056, 0.0, 0.0, 0.0, 0.0, -1721.6207649255712, 0.0]
['beep', 0.0, -80.26511433900767, 0.0, 0.0, 0.0, 0.0, -1698.7102268588815, 0.0]
['beep', 0.0, -80.93566667266687, 0.0, 0.0, 0.0, 0.0, -1673.4751073688399, 0.0]
['beep', 0.0, -80.82390795039034, 0.0, 0.0, 0.0, 0.0, -1649.1564094014657, 0.0]
['beep', 0.0, -80.84625969484564, 0.0, 0.0, 0.0, 0.0, -1627.4528655353624, 0.0]
['beep', 0.0, -81.56151551741547, 0.0, 0.0, 0.0, 0.0, -1604.2070513018432, 0.0]
['beep', 0.0, -80.64509399474788, 0.0, 0.0, 0.0, 0.0, -1581.2965132351535, 0.0]
['beep', 0.0, -80.46628003910543, 0.0, 0.0, 0.0, 0.0, -1561.314053692109, 0.0]
['beep', 0.0, -77.82877419337919, 0.0, 0.0, 0.0, 0.0, -1545.2655011731986, 0.0]
['beep', 0.0, -79.14752711624232, 0.0, 0.0, 0.0, 0.0, -1536.280099902165, 0.0]
['beep', 0.0, -80.3545213168289, 0.0, 0.0, 0.0, 0.0, -1528.5240445761735, 0.0]
['beep', 0.0, -81.49446028404955, 0.0, 0.0, 0.0, 0.0, -1522.1985008953216, 0.0]
['beep', 0.0, -82.34382657335122, 0.0, 0.0, 0.0, 0.0, -1519.3821810939528, 0.0]
['beep', 0.0, -83.59552426284841, 0.0, 0.0, 0.0, 0.0, -1520.9691549502797, 0.0]
['beep', 0.0, -82.88026844027858, 0.0, 0.0, 0.0, 0.0, -1524.0760474295673, 0.0]
['beep', 0.0, -81.56151551741547, 0.0, 0.0, 0.0, 0.0, -1529.1722451653775, 0.0]
['beep', 0.0, -81.91914342870038, 0.0, 0.0, 0.0, 0.0, -1535.8107132686036, 0.0]
['beep', 0.0, -82.56734401790429, 0.0, 0.0, 0.0, 0.0, -1542.6950505608381, 0.0]
['beep', 0.0, -83.95315217413332, 0.0, 0.0, 0.0, 0.0, -1551.6804518318716, 0.0]
['beep', 0.0, -84.4895940410607, 0.0, 0.0, 0.0, 0.0, -1561.090536247556, 0.0]
['beep', 0.0, -83.50611728502719, 0.0, 0.0, 0.0, 0.0, -1570.2547514742319, 0.0]
['beep', 0.0, -79.46045153861661, 0.0, 0.0, 0.0, 0.0, -1579.016635300712, 0.0]
['beep', 0.0, -78.34286431585126, 0.0, 0.0, 0.0, 0.0, -1588.113795294022, 0.0]
['beep', 0.0, -80.39922480573951, 0.0, 0.0, 0.0, 0.0, -1596.607458187039, 0.0]
['beep', 0.0, -82.05325389543222, 0.0, 0.0, 0.0, 0.0, -1603.6482576904605, 0.0]
['beep', 0.0, -81.963846917611, 0.0, 0.0, 0.0, 0.0, -1610.152615326955, 0.0]
['beep', 0.0, -78.72284397159147, 0.0, 0.0, 0.0, 0.0, -1619.2050718313542, 0.0]
['beep', 0.0, -79.25928583851885, 0.0, 0.0, 0.0, 0.0, -1625.7988364456698, 0.0]
['beep', 0.0, -81.56151551741547, 0.0, 0.0, 0.0, 0.0, -1633.5101882827507, 0.0]
['beep', 0.0, -82.63439925127021, 0.0, 0.0, 0.0, 0.0, -1640.8192087196362, 0.0]
['beep', 0.0, -82.23206785107469, 0.0, 0.0, 0.0, 0.0, -1646.340089600097, 0.0]
['beep', 0.0, -82.41088180671714, 0.0, 0.0, 0.0, 0.0, -1652.5762263031277, 0.0]
['beep', 0.0, -82.96967541809981, 0.0, 0.0, 0.0, 0.0, -1658.9688252173455, 0.0]
['beep', 0.0, -82.6120475068149, 0.0, 0.0, 0.0, 0.0, -1665.5849415761163, 0.0]
['beep', 0.0, -83.39435856275065, 0.0, 0.0, 0.0, 0.0, -1672.3575201460744, 0.0]
['beep', 0.0, -83.2155446071082, 0.0, 0.0, 0.0, 0.0, -1677.341959159608, 0.0]
['beep', 0.0, -80.57803876138196, 0.0, 0.0, 0.0, 0.0, -1682.885191784524, 0.0]
['beep', 0.0, -81.3379980728624, 0.0, 0.0, 0.0, 0.0, -1688.4731278983509, 0.0]
['beep', 0.0, -82.18736436216408, 0.0, 0.0, 0.0, 0.0, -1693.3234564451525, 0.0]
['beep', 0.0, -82.20971610661938, 0.0, 0.0, 0.0, 0.0, -1697.592639636116, 0.0]
['beep', 0.0, -80.55568701692665, 0.0, 0.0, 0.0, 0.0, -1701.5488984047054, 0.0]
['beep', 0.0, -79.86278293881213, 0.0, 0.0, 0.0, 0.0, -1705.7733781067584, 0.0]
['beep', 0.0, -81.42740505068363, 0.0, 0.0, 0.0, 0.0, -1709.2826019862416, 0.0]
['beep', 0.0, -82.05325389543222, 0.0, 0.0, 0.0, 0.0, -1713.7305991328478, 0.0]
['beep', 0.0, -82.36617831780653, 0.0, 0.0, 0.0, 0.0, -1718.1562445349987, 0.0]
['beep', 0.0, -81.85208819533446, 0.0, 0.0, 0.0, 0.0, -1721.3972474810182, 0.0]
['beep', 0.0, -80.46628003910543, 0.0, 0.0, 0.0, 0.0, -1724.079456815655, 0.0]
['beep', 0.0, -80.19805910564175, 0.0, 0.0, 0.0, 0.0, -1726.4710934723728, 0.0]
['beep', 0.0, -81.20388760613056, 0.0, 0.0, 0.0, 0.0, -1730.0026690963114, 0.0]
['beep', 0.0, -81.53916377296017, 0.0, 0.0, 0.0, 0.0, -1732.9754511088672, 0.0]
['beep', 0.0, -82.32147482889592, 0.0, 0.0, 0.0, 0.0, -1734.7412389208364, 0.0]
['beep', 0.0, -81.40505330622833, 0.0, 0.0, 0.0, 0.0, -1736.7752476662695, 0.0]
['beep', 0.0, -80.26511433900767, 0.0, 0.0, 0.0, 0.0, -1739.7480296788253, 0.0]
['beep', 0.0, -82.23206785107469, 0.0, 0.0, 0.0, 0.0, -1741.5361692352499, 0.0]
['beep', 0.0, -81.85208819533446, 0.0, 0.0, 0.0, 0.0, -1743.6819367029593, 0.0]
['beep', 0.0, -80.64509399474788, 0.0, 0.0, 0.0, 0.0, -1745.91711114849, 0.0]
['beep', 0.0, -79.88513468326744, 0.0, 0.0, 0.0, 0.0, -1746.9899948823447, 0.0]
['beep', 0.0, -78.45462303812779, 0.0, 0.0, 0.0, 0.0, -1749.1134106055988, 0.0]
['beep', 0.0, -79.23693409406354, 0.0, 0.0, 0.0, 0.0, -1749.8733699170793, 0.0]
['beep', 0.0, -81.06977713939871, 0.0, 0.0, 0.0, 0.0, -1750.208646083909, 0.0]
['beep', 0.0, -81.58386726187078, 0.0, 0.0, 0.0, 0.0, -1752.4214687849844, 0.0]
['beep', 0.0, -82.03090215097691, 0.0, 0.0, 0.0, 0.0, -1753.3602420521072, 0.0]
['beep', 0.0, -82.38853006226184, 0.0, 0.0, 0.0, 0.0, -1756.333024064663, 0.0]
['beep', 0.0, -83.1931928626529, 0.0, 0.0, 0.0, 0.0, -1758.590550254649, 0.0]
['beep', 0.0, -85.07073939689867, 0.0, 0.0, 0.0, 0.0, -1761.1386491225542, 0.0]
['beep', 0.0, -85.02603590798806, 0.0, 0.0, 0.0, 0.0, -1761.049242144733, 0.0]
['beep', 0.0, -82.2767713399853, 0.0, 0.0, 0.0, 0.0, -1760.8927799335456, 0.0]
['beep', 0.0, -81.38270156177302, 0.0, 0.0, 0.0, 0.0, -1759.6187304995933, 0.0]
['beep', 0.0, -81.71797772860262, 0.0, 0.0, 0.0, 0.0, -1761.1610008670093, 0.0]
['beep', 0.0, -82.0085504065216, 0.0, 0.0, 0.0, 0.0, -1763.5973410126378, 0.0]
['beep', 0.0, -81.44975679513894, 0.0, 0.0, 0.0, 0.0, -1764.11143113511, 0.0]
['beep', 0.0, -79.48280328307192, 0.0, 0.0, 0.0, 0.0, -1763.3291200791741, 0.0]
['beep', 0.0, -79.92983817217805, 0.0, 0.0, 0.0, 0.0, -1763.8655619461015, 0.0]
