['beep', 0.0, -3808.5360894842256, 0.0, 0.0, 0.0, 0.0, -2691.0159219522384, 0.0]
['beep', 0.0, -3815.5098337542813, 0.0, 0.0, 0.0, 0.0, -2710.417236139445, 0.0]
['beep', 0.0, -3820.2707553232617, 0.0, 0.0, 0.0, 0.0, -2742.603748155087, 0.0]
['beep', 0.0, -3816.3144965546726, 0.0, 0.0, 0.0, 0.0, -2743.4978179332993, 0.0]
['beep', 0.0, -3808.267868550762, 0.0, 0.0, 0.0, 0.0, -2713.3453146630904, 0.0]
['beep', 0.0, -3805.4739004938488, 0.0, 0.0, 0.0, 0.0, -2694.39103536499, 0.0]
['beep', 0.0, -3812.1794238304406, 0.0, 0.0, 0.0, 0.0, -2715.0440472416935, 0.0]
['beep', 0.0, -3818.840243678122, 0.0, 0.0, 0.0, 0.0, -2747.454076701889, 0.0]
['beep', 0.0, -3816.9850488883317, 0.0, 0.0, 0.0, 0.0, -2748.035222057727, 0.0]
['beep', 0.0, -3808.916069139966, 0.0, 0.0, 0.0, 0.0, -2717.6815530874196, 0.0]
['beep', 0.0, -3807.1279295835416, 0.0, 0.0, 0.0, 0.0, -2699.6213435675318, 0.0]
['beep', 0.0, -3814.0793221091417, 0.0, 0.0, 0.0, 0.0, -2718.8885472880065, 0.0]
['beep', 0.0, -3820.337810556628, 0.0, 0.0, 0.0, 0.0, -2749.8904168475174, 0.0]
['beep', 0.0, -3817.812063433178, 0.0, 0.0, 0.0, 0.0, -2750.8515418590955, 0.0]
['beep', 0.0, -3810.5700982296585, 0.0, 0.0, 0.0, 0.0, -2719.9837827663164, 0.0]
['beep', 0.0, -3810.391284274016, 0.0, 0.0, 0.0, 0.0, -2702.2364976688027, 0.0]
['beep', 0.0, -3817.365028544072, 0.0, 0.0, 0.0, 0.0, -2720.833149055618, 0.0]
['beep', 0.0, -3821.8577291795887, 0.0, 0.0, 0.0, 0.0, -2751.767963381763, 0.0]
['beep', 0.0, -3819.175519844952, 0.0, 0.0, 0.0, 0.0, -2754.606634927587, 0.0]
['beep', 0.0, -3812.626458719547, 0.0, 0.0, 0.0, 0.0, -2723.3365444346127, 0.0]
['beep', 0.0, -3810.7712639297565, 0.0, 0.0, 0.0, 0.0, -2704.1810994364146, 0.0]
['beep', 0.0, -3815.9345168989325, 0.0, 0.0, 0.0, 0.0, -2723.738875834808, 0.0]
['beep', 0.0, -3821.4777495238486, 0.0, 0.0, 0.0, 0.0, -2754.3384139941236, 0.0]
['beep', 0.0, -3819.130816356041, 0.0, 0.0, 0.0, 0.0, -2756.3053675061906, 0.0]
['beep', 0.0, -3810.32422904065, 0.0, 0.0, 0.0, 0.0, -2725.2140909688583, 0.0]
['beep', 0.0, -3808.6031447175915, 0.0, 0.0, 0.0, 0.0, -2707.8244337826295, 0.0]
['beep', 0.0, -3813.788749431223, 0.0, 0.0, 0.0, 0.0, -2725.906995046973, 0.0]
['beep', 0.0, -3818.750836700301, 0.0, 0.0, 0.0, 0.0, -2756.6853471619306, 0.0]
['beep', 0.0, -3817.0297523772424, 0.0, 0.0, 0.0, 0.0, -2758.160562295981, 0.0]
['beep', 0.0, -3809.9666011293652, 0.0, 0.0, 0.0, 0.0, -2726.286974702713, 0.0]
['beep', 0.0, -3808.4690342508597, 0.0, 0.0, 0.0, 0.0, -2706.9303640044172, 0.0]
['beep', 0.0, -3815.979220387843, 0.0, 0.0, 0.0, 0.0, -2725.035277013216, 0.0]
['beep', 0.0, -3821.343639057117, 0.0, 0.0, 0.0, 0.0, -2755.232483772336, 0.0]
['beep', 0.0, -3817.2756215662507, 0.0, 0.0, 0.0, 0.0, -2756.1489052950033, 0.0]
['beep', 0.0, -3809.7654354292677, 0.0, 0.0, 0.0, 0.0, -2723.9847450238162, 0.0]
['beep', 0.0, -3806.9714673723543, 0.0, 0.0, 0.0, 0.0, -2703.711712802853, 0.0]
['beep', 0.0, -3815.822758176656, 0.0, 0.0, 0.0, 0.0, -2718.575622865632, 0.0]
['beep', 0.0, -3821.388342546027, 0.0, 0.0, 0.0, 0.0, -2745.3306609786346, 0.0]
['beep', 0.0, -3817.9685256443654, 0.0, 0.0, 0.0, 0.0, -2743.1178382775593, 0.0]
['beep', 0.0, -3810.391284274016, 0.0, 0.0, 0.0, 0.0, -2710.908974517462, 0.0]
['beep', 0.0, -3807.4855574948265, 0.0, 0.0, 0.0, 0.0, -2683.349273604068, 0.0]
['beep', 0.0, -3812.7829209307342, 0.0, 0.0, 0.0, 0.0, -2692.669951041931, 0.0]
['beep', 0.0, -3818.6167262335694, 0.0, 0.0, 0.0, 0.0, -2715.513433875255, 0.0]
['beep', 0.0, -3815.3086680541837, 0.0, 0.0, 0.0, 0.0, -2710.05960822816, 0.0]
['beep', 0.0, -3807.2620400502733, 0.0, 0.0, 0.0, 0.0, -2672.799250221163, 0.0]
['beep', 0.0, -3804.8704033935555, 0.0, 0.0, 0.0, 0.0, -2641.8867876394734, 0.0]
['beep', 0.0, -3808.8713656510554, 0.0, 0.0, 0.0, 0.0, -2647.2959097976577, 0.0]
['beep', 0.0, -3813.274659308751, 0.0, 0.0, 0.0, 0.0, -2668.686529241387, 0.0]
['beep', 0.0, -3811.620630219058, 0.0, 0.0, 0.0, 0.0, -2663.6573867389425, 0.0]
['beep', 0.0, -3805.0939208381083, 0.0, 0.0, 0.0, 0.0, -2623.8712816084962, 0.0]
['beep', 0.0, -3801.517641725259, 0.0, 0.0, 0.0, 0.0, -2595.1939934723373, 0.0]
['beep', 0.0, -3806.300915038695, 0.0, 0.0, 0.0, 0.0, -2604.358208699013, 0.0]
['beep', 0.0, -3812.335886041628, 0.0, 0.0, 0.0, 0.0, -2629.481569466778, 0.0]
['beep', 0.0, -3809.5419179847145, 0.0, 0.0, 0.0, 0.0, -2625.23473802027, 0.0]
['beep', 0.0, -3801.0929585806084, 0.0, 0.0, 0.0, 0.0, -2587.817917802086, 0.0]
['beep', 0.0, -3798.611914946069, 0.0, 0.0, 0.0, 0.0, -2560.817010500075, 0.0]
['beep', 0.0, -3805.160976071474, 0.0, 0.0, 0.0, 0.0, -2573.132821694949, 0.0]
['beep', 0.0, -3811.687685452424, 0.0, 0.0, 0.0, 0.0, -2601.5642406421, 0.0]
['beep', 0.0, -3809.1619383289744, 0.0, 0.0, 0.0, 0.0, -2603.218269731792, 0.0]
['beep', 0.0, -3802.210545803374, 0.0, 0.0, 0.0, 0.0, -2573.490449606234, 0.0]
['beep', 0.0, -3801.4058830029826, 0.0, 0.0, 0.0, 0.0, -2552.1445336514157, 0.0]
['beep', 0.0, -3805.9432871274103, 0.0, 0.0, 0.0, 0.0, -2568.9306937373512, 0.0]
['beep', 0.0, -3809.8324906626335, 0.0, 0.0, 0.0, 0.0, -2602.234792975759, 0.0]
['beep', 0.0, -3809.072531351153, 0.0, 0.0, 0.0, 0.0, -2609.588516901555, 0.0]
['beep', 0.0, -3803.5963539596028, 0.0, 0.0, 0.0, 0.0, -2581.782946799153, 0.0]
['beep', 0.0, -3800.489461480315, 0.0, 0.0, 0.0, 0.0, -2566.4943535917228, 0.0]
['beep', 0.0, -3806.6138394610693, 0.0, 0.0, 0.0, 0.0, -2590.097795736527, 0.0]
['beep', 0.0, -3811.397112774505, 0.0, 0.0, 0.0, 0.0, -2628.0287060771834, 0.0]
['beep', 0.0, -3812.0676651081644, 0.0, 0.0, 0.0, 0.0, -2635.6282991919875, 0.0]
['beep', 0.0, -3804.780996415734, 0.0, 0.0, 0.0, 0.0, -2612.2483744917363, 0.0]
['beep', 0.0, -3804.6468859490024, 0.0, 0.0, 0.0, 0.0, -2595.663380105899, 0.0]
['beep', 0.0, -3810.972429629854, 0.0, 0.0, 0.0, 0.0, -2618.70802863932, 0.0]
['beep', 0.0, -3815.979220387843, 0.0, 0.0, 0.0, 0.0, -2654.873151168007, 0.0]
['beep', 0.0, -3813.4087697754826, 0.0, 0.0, 0.0, 0.0, -2662.137468115982, 0.0]
['beep', 0.0, -3806.9938191168094, 0.0, 0.0, 0.0, 0.0, -2638.779895160186, 0.0]
['beep', 0.0, -3804.915106882466, 0.0, 0.0, 0.0, 0.0, -2623.0219153191942, 0.0]
['beep', 0.0, -3810.525394740748, 0.0, 0.0, 0.0, 0.0, -2644.3678312740126, 0.0]
['beep', 0.0, -3815.867461665566, 0.0, 0.0, 0.0, 0.0, -2681.583485792099, 0.0]
['beep', 0.0, -3812.8946796530104, 0.0, 0.0, 0.0, 0.0, -2689.384244607001, 0.0]
['beep', 0.0, -3807.1502813279967, 0.0, 0.0, 0.0, 0.0, -2663.702090227853, 0.0]
['beep', 0.0, -3804.6468859490024, 0.0, 0.0, 0.0, 0.0, -2646.2453778082586, 0.0]
['beep', 0.0, -3811.2853540522283, 0.0, 0.0, 0.0, 0.0, -2665.087898384082, 0.0]
['beep', 0.0, -3818.9520024003987, 0.0, 0.0, 0.0, 0.0, -2700.7612825347524, 0.0]
['beep', 0.0, -3817.3873802885273, 0.0, 0.0, 0.0, 0.0, -2709.612573339054, 0.0]
['beep', 0.0, -3810.5477464852033, 0.0, 0.0, 0.0, 0.0, -2682.745776503775, 0.0]
['beep', 0.0, -3808.2455168063066, 0.0, 0.0, 0.0, 0.0, -2663.7914972056747, 0.0]
['beep', 0.0, -3814.1016738535973, 0.0, 0.0, 0.0, 0.0, -2682.8798869705065, 0.0]
['beep', 0.0, -3819.04140937822, 0.0, 0.0, 0.0, 0.0, -2716.7204280758415, 0.0]
['beep', 0.0, -3817.7673599442674, 0.0, 0.0, 0.0, 0.0, -2721.704867089375, 0.0]
['beep', 0.0, -3811.5088714967815, 0.0, 0.0, 0.0, 0.0, -2693.5640208201435, 0.0]
['beep', 0.0, -3809.631324962536, 0.0, 0.0, 0.0, 0.0, -2674.0285961662053, 0.0]
['beep', 0.0, -3816.2474413213067, 0.0, 0.0, 0.0, 0.0, -2692.1782126639146, 0.0]
['beep', 0.0, -3821.9918396463204, 0.0, 0.0, 0.0, 0.0, -2726.0858090026154, 0.0]
['beep', 0.0, -3819.8907756675217, 0.0, 0.0, 0.0, 0.0, -2731.6290416275315, 0.0]
['beep', 0.0, -3812.8723279085552, 0.0, 0.0, 0.0, 0.0, -2703.8234715251297, 0.0]
['beep', 0.0, -3809.8324906626335, 0.0, 0.0, 0.0, 0.0, -2683.349273604068, 0.0]
['beep', 0.0, -3815.3086680541837, 0.0, 0.0, 0.0, 0.0, -2699.889564500995, 0.0]
['beep', 0.0, -3820.427217534449, 0.0, 0.0, 0.0, 0.0, -2732.0760765166374, 0.0]
['beep', 0.0, -3817.9908773888205, 0.0, 0.0, 0.0, 0.0, -2736.8593498300734, 0.0]
['beep', 0.0, -3809.8995458959994, 0.0, 0.0, 0.0, 0.0, -2709.031427983216, 0.0]
['beep', 0.0, -3807.619667961558, 0.0, 0.0, 0.0, 0.0, -2688.221953895325, 0.0]
['beep', 0.0, -3814.235784320329, 0.0, 0.0, 0.0, 0.0, -2704.9187070034395, 0.0]
['beep', 0.0, -3818.2143948333737, 0.0, 0.0, 0.0, 0.0, -2737.7981230971964, 0.0]
['beep', 0.0, -3816.3592000435833, 0.0, 0.0, 0.0, 0.0, -2742.3578789660787, 0.0]
['beep', 0.0, -3809.676028451446, 0.0, 0.0, 0.0, 0.0, -2713.971163507839, 0.0]
['beep', 0.0, -3808.0890545951197, 0.0, 0.0, 0.0, 0.0, -2691.798233008174, 0.0]
['beep', 0.0, -3814.7945779317115, 0.0, 0.0, 0.0, 0.0, -2707.422102382434, 0.0]
['beep', 0.0, -3819.779016945245, 0.0, 0.0, 0.0, 0.0, -2740.5250359207434, 0.0]
['beep', 0.0, -3817.2756215662507, 0.0, 0.0, 0.0, 0.0, -2745.6435854010087, 0.0]
['beep', 0.0, -3810.4359877629267, 0.0, 0.0, 0.0, 0.0, -2716.452207142378, 0.0]
['beep', 0.0, -3808.9607726288764, 0.0, 0.0, 0.0, 0.0, -2695.419215609934, 0.0]
['beep', 0.0, -3814.4145982759715, 0.0, 0.0, 0.0, 0.0, -2711.601878595576, 0.0]
['beep', 0.0, -3819.5107960117816, 0.0, 0.0, 0.0, 0.0, -2744.9730330673497, 0.0]
['beep', 0.0, -3818.169691344463, 0.0, 0.0, 0.0, 0.0, -2749.6892511474193, 0.0]
['beep', 0.0, -3810.7936156742117, 0.0, 0.0, 0.0, 0.0, -2720.028486255227, 0.0]
['beep', 0.0, -3809.050179606698, 0.0, 0.0, 0.0, 0.0, -2696.067416199138, 0.0]
['beep', 0.0, -3814.1910808314183, 0.0, 0.0, 0.0, 0.0, -2711.668933828942, 0.0]
['beep', 0.0, -3820.695438467913, 0.0, 0.0, 0.0, 0.0, -2744.794219111707, 0.0]
['beep', 0.0, -3818.5496710002035, 0.0, 0.0, 0.0, 0.0, -2750.002175569794, 0.0]
['beep', 0.0, -3811.4641680078707, 0.0, 0.0, 0.0, 0.0, -2721.414294411456, 0.0]
['beep', 0.0, -3809.676028451446, 0.0, 0.0, 0.0, 0.0, -2696.872078999529, 0.0]
['beep', 0.0, -3815.6886477099238, 0.0, 0.0, 0.0, 0.0, -2711.3336576621127, 0.0]
['beep', 0.0, -3822.014191390776, 0.0, 0.0, 0.0, 0.0, -2742.4919894328104, 0.0]
['beep', 0.0, -3819.175519844952, 0.0, 0.0, 0.0, 0.0, -2747.2082075128806, 0.0]
['beep', 0.0, -3810.7712639297565, 0.0, 0.0, 0.0, 0.0, -2719.4026374104783, 0.0]
['beep', 0.0, -3808.8043104176895, 0.0, 0.0, 0.0, 0.0, -2696.1568231769593, 0.0]
['beep', 0.0, -3814.213432575874, 0.0, 0.0, 0.0, 0.0, -2710.260773928258, 0.0]
['beep', 0.0, -3819.3766855450494, 0.0, 0.0, 0.0, 0.0, -2740.7932568542074, 0.0]
['beep', 0.0, -3819.2872785672284, 0.0, 0.0, 0.0, 0.0, -2745.1741987674477, 0.0]
['beep', 0.0, -3811.955906385888, 0.0, 0.0, 0.0, 0.0, -2712.384189651512, 0.0]
['beep', 0.0, -3809.296048795706, 0.0, 0.0, 0.0, 0.0, -2683.0139974372387, 0.0]
['beep', 0.0, -3814.7498744428012, 0.0, 0.0, 0.0, 0.0, -2694.2792766427133, 0.0]
['beep', 0.0, -3820.404865789994, 0.0, 0.0, 0.0, 0.0, -2719.2461751992914, 0.0]
['beep', 0.0, -3817.655601221991, 0.0, 0.0, 0.0, 0.0, -2718.106236232071, 0.0]
['beep', 0.0, -3810.1007115960974, 0.0, 0.0, 0.0, 0.0, -2681.225857880814, 0.0]
['beep', 0.0, -3807.5526127281923, 0.0, 0.0, 0.0, 0.0, -2645.4407150078673, 0.0]
['beep', 0.0, -3814.4816535093373, 0.0, 0.0, 0.0, 0.0, -2647.4970754977558, 0.0]
['beep', 0.0, -3818.9967058893094, 0.0, 0.0, 0.0, 0.0, -2666.585465262588, 0.0]
['beep', 0.0, -3814.7945779317115, 0.0, 0.0, 0.0, 0.0, -2661.221046593314, 0.0]
['beep', 0.0, -3807.8431854061114, 0.0, 0.0, 0.0, 0.0, -2621.166720529404, 0.0]
['beep', 0.0, -3806.1221010830527, 0.0, 0.0, 0.0, 0.0, -2585.8956677789292, 0.0]
['beep', 0.0, -3810.4359877629267, 0.0, 0.0, 0.0, 0.0, -2589.2484294472256, 0.0]
['beep', 0.0, -3815.331019798639, 0.0, 0.0, 0.0, 0.0, -2612.8295198475744, 0.0]
['beep', 0.0, -3813.5428802422143, 0.0, 0.0, 0.0, 0.0, -2610.259069235214, 0.0]
['beep', 0.0, -3803.9316301264325, 0.0, 0.0, 0.0, 0.0, -2574.004539728706, 0.0]
['beep', 0.0, -3800.623571947047, 0.0, 0.0, 0.0, 0.0, -2542.26506260217, 0.0]
['beep', 0.0, -3806.725598183346, 0.0, 0.0, 0.0, 0.0, -2549.17175163886, 0.0]
['beep', 0.0, -3812.0900168526196, 0.0, 0.0, 0.0, 0.0, -2574.7197955512756, 0.0]
['beep', 0.0, -3809.4972144958037, 0.0, 0.0, 0.0, 0.0, -2576.2844176631475, 0.0]
['beep', 0.0, -3802.1211388255524, 0.0, 0.0, 0.0, 0.0, -2547.4059638268905, 0.0]
['beep', 0.0, -3800.690627180413, 0.0, 0.0, 0.0, 0.0, -2523.1543210928826, 0.0]
['beep', 0.0, -3805.6750661939463, 0.0, 0.0, 0.0, 0.0, -2535.3807253099353, 0.0]
['beep', 0.0, -3808.7372551843237, 0.0, 0.0, 0.0, 0.0, -2568.237789659237, 0.0]
['beep', 0.0, -3807.3514470280943, 0.0, 0.0, 0.0, 0.0, -2576.84321127453, 0.0]
['beep', 0.0, -3799.573039957648, 0.0, 0.0, 0.0, 0.0, -2551.8316092290415, 0.0]
['beep', 0.0, -3797.360217256572, 0.0, 0.0, 0.0, 0.0, -2531.3127078190696, 0.0]
['beep', 0.0, -3802.9258016259437, 0.0, 0.0, 0.0, 0.0, -2548.680013260843, 0.0]
['beep', 0.0, -3809.8995458959994, 0.0, 0.0, 0.0, 0.0, -2586.7226823237756, 0.0]
['beep', 0.0, -3810.7712639297565, 0.0, 0.0, 0.0, 0.0, -2600.267839463692, 0.0]
['beep', 0.0, -3803.75281617079, 0.0, 0.0, 0.0, 0.0, -2579.9501037538175, 0.0]
['beep', 0.0, -3801.8976213809997, 0.0, 0.0, 0.0, 0.0, -2563.9239029793625, 0.0]
['beep', 0.0, -3808.2008133173963, 0.0, 0.0, 0.0, 0.0, -2584.196935200326, 0.0]
['beep', 0.0, -3814.1910808314183, 0.0, 0.0, 0.0, 0.0, -2624.1171507975046, 0.0]
['beep', 0.0, -3813.721694197857, 0.0, 0.0, 0.0, 0.0, -2640.7915521611635, 0.0]
['beep', 0.0, -3807.3514470280943, 0.0, 0.0, 0.0, 0.0, -2619.6691536508984, 0.0]
['beep', 0.0, -3805.652714449491, 0.0, 0.0, 0.0, 0.0, -2603.3300284540687, 0.0]
['beep', 0.0, -3811.330057541139, 0.0, 0.0, 0.0, 0.0, -2622.686639152365, 0.0]
['beep', 0.0, -3818.147339600008, 0.0, 0.0, 0.0, 0.0, -2662.159819860437, 0.0]
['beep', 0.0, -3815.9345168989325, 0.0, 0.0, 0.0, 0.0, -2676.2190671228254, 0.0]
['beep', 0.0, -3809.0278278622422, 0.0, 0.0, 0.0, 0.0, -2653.28617731168, 0.0]
['beep', 0.0, -3807.820833661656, 0.0, 0.0, 0.0, 0.0, -2633.482531724278, 0.0]
['beep', 0.0, -3812.8499761641, 0.0, 0.0, 0.0, 0.0, -2650.156933087937, 0.0]
['beep', 0.0, -3818.6167262335694, 0.0, 0.0, 0.0, 0.0, -2685.7632620052414, 0.0]
['beep', 0.0, -3818.5720227446586, 0.0, 0.0, 0.0, 0.0, -2698.1014249445707, 0.0]
['beep', 0.0, -3812.626458719547, 0.0, 0.0, 0.0, 0.0, -2674.3638723330346, 0.0]
['beep', 0.0, -3809.430159262438, 0.0, 0.0, 0.0, 0.0, -2653.934377900884, 0.0]
['beep', 0.0, -3813.6769907089465, 0.0, 0.0, 0.0, 0.0, -2669.5358955306883, 0.0]
['beep', 0.0, -3820.2931070677173, 0.0, 0.0, 0.0, 0.0, -2706.5056808597665, 0.0]
['beep', 0.0, -3820.0025343897983, 0.0, 0.0, 0.0, 0.0, -2715.200509452881, 0.0]
['beep', 0.0, -3813.3417145421167, 0.0, 0.0, 0.0, 0.0, -2689.7195207738305, 0.0]
['beep', 0.0, -3809.1619383289744, 0.0, 0.0, 0.0, 0.0, -2668.91004668594, 0.0]
['beep', 0.0, -3814.7498744428012, 0.0, 0.0, 0.0, 0.0, -2683.192811392881, 0.0]
['beep', 0.0, -3821.053066379198, 0.0, 0.0, 0.0, 0.0, -2717.3462769205903, 0.0]
['beep', 0.0, -3819.4437407784158, 0.0, 0.0, 0.0, 0.0, -2725.951698535883, 0.0]
['beep', 0.0, -3810.8383191631224, 0.0, 0.0, 0.0, 0.0, -2700.5601168346548, 0.0]
['beep', 0.0, -3807.776130172745, 0.0, 0.0, 0.0, 0.0, -2677.001378178761, 0.0]
['beep', 0.0, -3813.855804664589, 0.0, 0.0, 0.0, 0.0, -2690.680645785409, 0.0]
['beep', 0.0, -3819.711961711879, 0.0, 0.0, 0.0, 0.0, -2727.1139892475594, 0.0]
['beep', 0.0, -3817.5661942441698, 0.0, 0.0, 0.0, 0.0, -2738.4463236864, 0.0]
['beep', 0.0, -3811.7323889413346, 0.0, 0.0, 0.0, 0.0, -2710.4619396283556, 0.0]
['beep', 0.0, -3807.5749644726475, 0.0, 0.0, 0.0, 0.0, -2685.9197242164287, 0.0]
['beep', 0.0, -3813.364066286572, 0.0, 0.0, 0.0, 0.0, -2696.626209810521, 0.0]
['beep', 0.0, -3818.773188444756, 0.0, 0.0, 0.0, 0.0, -2729.6173846265538, 0.0]
['beep', 0.0, -3816.6050692325916, 0.0, 0.0, 0.0, 0.0, -2740.189759753914, 0.0]
['beep', 0.0, -3811.173595329952, 0.0, 0.0, 0.0, 0.0, -2712.6524105849758, 0.0]
['beep', 0.0, -3807.329095283639, 0.0, 0.0, 0.0, 0.0, -2687.461994583845, 0.0]
['beep', 0.0, -3811.5088714967815, 0.0, 0.0, 0.0, 0.0, -2700.224840667825, 0.0]
['beep', 0.0, -3818.2814500667396, 0.0, 0.0, 0.0, 0.0, -2733.0819050171262, 0.0]
['beep', 0.0, -3817.0074006327873, 0.0, 0.0, 0.0, 0.0, -2742.939024321917, 0.0]
['beep', 0.0, -3810.4583395073823, 0.0, 0.0, 0.0, 0.0, -2716.1169309755483, 0.0]
['beep', 0.0, -3807.776130172745, 0.0, 0.0, 0.0, 0.0, -2691.731177774808, 0.0]
['beep', 0.0, -3813.3864180310275, 0.0, 0.0, 0.0, 0.0, -2702.9741052358277, 0.0]
['beep', 0.0, -3820.807197190189, 0.0, 0.0, 0.0, 0.0, -2734.154788750981, 0.0]
['beep', 0.0, -3819.3766855450494, 0.0, 0.0, 0.0, 0.0, -2744.6377569005203, 0.0]
['beep', 0.0, -3812.7829209307342, 0.0, 0.0, 0.0, 0.0, -2717.2792216872244, 0.0]
['beep', 0.0, -3809.5195662402593, 0.0, 0.0, 0.0, 0.0, -2692.4687853418336, 0.0]
['beep', 0.0, -3814.0793221091417, 0.0, 0.0, 0.0, 0.0, -2705.030465725716, 0.0]
['beep', 0.0, -3820.4719210233598, 0.0, 0.0, 0.0, 0.0, -2737.999288797294, 0.0]
['beep', 0.0, -3819.555499500692, 0.0, 0.0, 0.0, 0.0, -2747.8564081020845, 0.0]
['beep', 0.0, -3810.972429629854, 0.0, 0.0, 0.0, 0.0, -2722.576585123132, 0.0]
['beep', 0.0, -3809.072531351153, 0.0, 0.0, 0.0, 0.0, -2698.3919976224897, 0.0]
['beep', 0.0, -3814.548708742703, 0.0, 0.0, 0.0, 0.0, -2707.802082038174, 0.0]
['beep', 0.0, -3818.5496710002035, 0.0, 0.0, 0.0, 0.0, -2741.7543818657855, 0.0]
['beep', 0.0, -3818.9520024003987, 0.0, 0.0, 0.0, 0.0, -2751.1421145370145, 0.0]
['beep', 0.0, -3812.693513952913, 0.0, 0.0, 0.0, 0.0, -2725.1470357354924, 0.0]
['beep', 0.0, -3809.4078075179827, 0.0, 0.0, 0.0, 0.0, -2700.604820323565, 0.0]
['beep', 0.0, -3813.6099354755806, 0.0, 0.0, 0.0, 0.0, -2712.6300588405206, 0.0]
['beep', 0.0, -3820.404865789994, 0.0, 0.0, 0.0, 0.0, -2743.9225010779505, 0.0]
['beep', 0.0, -3819.42138903396, 0.0, 0.0, 0.0, 0.0, -2753.1537715379923, 0.0]
['beep', 0.0, -3812.917031397466, 0.0, 0.0, 0.0, 0.0, -2727.1363409920145, 0.0]
['beep', 0.0, -3809.0948830956086, 0.0, 0.0, 0.0, 0.0, -2702.0353319687047, 0.0]
['beep', 0.0, -3812.9617348863767, 0.0, 0.0, 0.0, 0.0, -2714.4629018858554, 0.0]
['beep', 0.0, -3819.6449064785133, 0.0, 0.0, 0.0, 0.0, -2746.3364894791234, 0.0]
['beep', 0.0, -3818.7061332113904, 0.0, 0.0, 0.0, 0.0, -2756.506533206288, 0.0]
['beep', 0.0, -3811.7994441747005, 0.0, 0.0, 0.0, 0.0, -2731.092599760604, 0.0]
['beep', 0.0, -3808.5360894842256, 0.0, 0.0, 0.0, 0.0, -2706.6174395820426, 0.0]
['beep', 0.0, -3814.7498744428012, 0.0, 0.0, 0.0, 0.0, -2717.502739131777, 0.0]
['beep', 0.0, -3818.884947167033, 0.0, 0.0, 0.0, 0.0, -2747.4317249574337, 0.0]
['beep', 0.0, -3818.9296506559435, 0.0, 0.0, 0.0, 0.0, -2756.1489052950033, 0.0]
['beep', 0.0, -3812.492348252815, 0.0, 0.0, 0.0, 0.0, -2730.1761782379363, 0.0]
['beep', 0.0, -3808.491385995315, 0.0, 0.0, 0.0, 0.0, -2704.2481546697804, 0.0]
['beep', 0.0, -3813.94521164241, 0.0, 0.0, 0.0, 0.0, -2714.552308863677, 0.0]
['beep', 0.0, -3822.2600605797843, 0.0, 0.0, 0.0, 0.0, -2747.0517453016932, 0.0]
['beep', 0.0, -3821.678915223946, 0.0, 0.0, 0.0, 0.0, -2758.384079740534, 0.0]
['beep', 0.0, -3814.012266875776, 0.0, 0.0, 0.0, 0.0, -2733.841864328607, 0.0]
['beep', 0.0, -3810.614801718569, 0.0, 0.0, 0.0, 0.0, -2708.740855305297, 0.0]
['beep', 0.0, -3814.7945779317115, 0.0, 0.0, 0.0, 0.0, -2717.905070531973, 0.0]
['beep', 0.0, -3820.8966041680105, 0.0, 0.0, 0.0, 0.0, -2748.728126135841, 0.0]
['beep', 0.0, -3820.784845445734, 0.0, 0.0, 0.0, 0.0, -2759.1440390520143, 0.0]
['beep', 0.0, -3812.5146999972703, 0.0, 0.0, 0.0, 0.0, -2733.5736433951433, 0.0]
['beep', 0.0, -3810.2124703183736, 0.0, 0.0, 0.0, 0.0, -2707.131529704515, 0.0]
['beep', 0.0, -3814.816929676167, 0.0, 0.0, 0.0, 0.0, -2717.0557042426713, 0.0]
['beep', 0.0, -3820.9413076569213, 0.0, 0.0, 0.0, 0.0, -2750.091582547615, 0.0]
['beep', 0.0, -3819.7343134563343, 0.0, 0.0, 0.0, 0.0, -2761.870951875562, 0.0]
['beep', 0.0, -3811.911202896977, 0.0, 0.0, 0.0, 0.0, -2737.2393294858134, 0.0]
['beep', 0.0, -3810.8383191631224, 0.0, 0.0, 0.0, 0.0, -2711.356009406568, 0.0]
['beep', 0.0, -3815.532185498737, 0.0, 0.0, 0.0, 0.0, -2718.732085076819, 0.0]
['beep', 0.0, -3820.114293112075, 0.0, 0.0, 0.0, 0.0, -2749.8457133586066, 0.0]
['beep', 0.0, -3819.6002029896026, 0.0, 0.0, 0.0, 0.0, -2761.155696052992, 0.0]
['beep', 0.0, -3811.687685452424, 0.0, 0.0, 0.0, 0.0, -2734.4900649178107, 0.0]
['beep', 0.0, -3807.686723194924, 0.0, 0.0, 0.0, 0.0, -2708.003247738272, 0.0]
['beep', 0.0, -3812.6711622084576, 0.0, 0.0, 0.0, 0.0, -2716.6533728424756, 0.0]
['beep', 0.0, -3821.1201216125637, 0.0, 0.0, 0.0, 0.0, -2748.750477880297, 0.0]
['beep', 0.0, -3820.1589966009856, 0.0, 0.0, 0.0, 0.0, -2759.792239641218, 0.0]
['beep', 0.0, -3813.1852523309294, 0.0, 0.0, 0.0, 0.0, -2734.6912306179083, 0.0]
['beep', 0.0, -3809.94424938491, 0.0, 0.0, 0.0, 0.0, -2709.4784628723223, 0.0]
['beep', 0.0, -3812.246479063807, 0.0, 0.0, 0.0, 0.0, -2711.311305917657, 0.0]
['beep', 0.0, -3815.174557587452, 0.0, 0.0, 0.0, 0.0, -2718.352105421079, 0.0]
['beep', 0.0, -3821.790673946223, 0.0, 0.0, 0.0, 0.0, -2749.5998441695983, 0.0]
['beep', 0.0, -3820.360162301083, 0.0, 0.0, 0.0, 0.0, -2762.385041998034, 0.0]
['beep', 0.0, -3810.7712639297565, 0.0, 0.0, 0.0, 0.0, -2738.3345649641237, 0.0]
['beep', 0.0, -3808.424330761949, 0.0, 0.0, 0.0, 0.0, -2709.389055894501, 0.0]
['beep', 0.0, -3811.330057541139, 0.0, 0.0, 0.0, 0.0, -2715.15580596397, 0.0]
['beep', 0.0, -3818.728484955846, 0.0, 0.0, 0.0, 0.0, -2746.805876112685, 0.0]
['beep', 0.0, -3818.5943744891138, 0.0, 0.0, 0.0, 0.0, -2761.1780477974476, 0.0]
['beep', 0.0, -3812.246479063807, 0.0, 0.0, 0.0, 0.0, -2736.412314940967, 0.0]
['beep', 0.0, -3808.983124373332, 0.0, 0.0, 0.0, 0.0, -2709.031427983216, 0.0]
['beep', 0.0, -3813.9005081534992, 0.0, 0.0, 0.0, 0.0, -2716.6533728424756, 0.0]
['beep', 0.0, -3820.9413076569213, 0.0, 0.0, 0.0, 0.0, -2749.1975127694027, 0.0]
['beep', 0.0, -3820.0248861342534, 0.0, 0.0, 0.0, 0.0, -2761.3345100086344, 0.0]
['beep', 0.0, -3812.939383141921, 0.0, 0.0, 0.0, 0.0, -2737.373439952545, 0.0]
['beep', 0.0, -3808.6701999509573, 0.0, 0.0, 0.0, 0.0, -2708.718503560842, 0.0]
['beep', 0.0, -3811.106540096586, 0.0, 0.0, 0.0, 0.0, -2714.77582630823, 0.0]
['beep', 0.0, -3818.2814500667396, 0.0, 0.0, 0.0, 0.0, -2747.5658354241655, 0.0]
['beep', 0.0, -3819.2202233338626, 0.0, 0.0, 0.0, 0.0, -2761.6027309420983, 0.0]
['beep', 0.0, -3813.4758250088485, 0.0, 0.0, 0.0, 0.0, -2738.4463236864, 0.0]
['beep', 0.0, -3810.368932529561, 0.0, 0.0, 0.0, 0.0, -2710.193718694892, 0.0]
['beep', 0.0, -3814.2804878092397, 0.0, 0.0, 0.0, 0.0, -2715.5581373641658, 0.0]
['beep', 0.0, -3819.488444267326, 0.0, 0.0, 0.0, 0.0, -2747.610538913076, 0.0]
['beep', 0.0, -3821.4106942904828, 0.0, 0.0, 0.0, 0.0, -2761.6474344310086, 0.0]
['beep', 0.0, -3814.3698947870607, 0.0, 0.0, 0.0, 0.0, -2737.976937052839, 0.0]
['beep', 0.0, -3810.011304618276, 0.0, 0.0, 0.0, 0.0, -2709.612573339054, 0.0]
['beep', 0.0, -3813.587583731125, 0.0, 0.0, 0.0, 0.0, -2716.094579231093, 0.0]
['beep', 0.0, -3820.1813483454407, 0.0, 0.0, 0.0, 0.0, -2747.968166824361, 0.0]
['beep', 0.0, -3819.108464611586, 0.0, 0.0, 0.0, 0.0, -2761.6250826865535, 0.0]
['beep', 0.0, -3814.526356998248, 0.0, 0.0, 0.0, 0.0, -2739.630966142531, 0.0]
['beep', 0.0, -3810.1901185739184, 0.0, 0.0, 0.0, 0.0, -2711.2442506842913, 0.0]
['beep', 0.0, -3812.939383141921, 0.0, 0.0, 0.0, 0.0, -2716.876890287029, 0.0]
['beep', 0.0, -3820.0919413676193, 0.0, 0.0, 0.0, 0.0, -2749.1975127694027, 0.0]
['beep', 0.0, -3820.2260518343514, 0.0, 0.0, 0.0, 0.0, -2764.731975165841, 0.0]
['beep', 0.0, -3812.4029412749937, 0.0, 0.0, 0.0, 0.0, -2743.184893510925, 0.0]
['beep', 0.0, -3809.1619383289744, 0.0, 0.0, 0.0, 0.0, -2713.3453146630904, 0.0]
['beep', 0.0, -3814.258136064784, 0.0, 0.0, 0.0, 0.0, -2718.352105421079, 0.0]
['beep', 0.0, -3820.3825140455383, 0.0, 0.0, 0.0, 0.0, -2750.650376158998, 0.0]
['beep', 0.0, -3822.014191390776, 0.0, 0.0, 0.0, 0.0, -2764.128478065548, 0.0]
['beep', 0.0, -3814.571060487159, 0.0, 0.0, 0.0, 0.0, -2743.6766318889418, 0.0]
['beep', 0.0, -3808.916069139966, 0.0, 0.0, 0.0, 0.0, -2714.7534745637745, 0.0]
['beep', 0.0, -3813.56523198667, 0.0, 0.0, 0.0, 0.0, -2719.000306010283, 0.0]
['beep', 0.0, -3819.823720434156, 0.0, 0.0, 0.0, 0.0, -2750.1362860365257, 0.0]
['beep', 0.0, -3819.3766855450494, 0.0, 0.0, 0.0, 0.0, -2765.4919344773216, 0.0]
['beep', 0.0, -3813.297011053206, 0.0, 0.0, 0.0, 0.0, -2743.9448528224057, 0.0]
['beep', 0.0, -3810.234822062829, 0.0, 0.0, 0.0, 0.0, -2711.7359890623084, 0.0]
['beep', 0.0, -3813.2523075642953, 0.0, 0.0, 0.0, 0.0, -2716.541614120199, 0.0]
['beep', 0.0, -3819.2649268227733, 0.0, 0.0, 0.0, 0.0, -2749.5327889362325, 0.0]
['beep', 0.0, -3817.94617389991, 0.0, 0.0, 0.0, 0.0, -2763.6590914319863, 0.0]
['beep', 0.0, -3812.291182552717, 0.0, 0.0, 0.0, 0.0, -2739.4968556757995, 0.0]
['beep', 0.0, -3808.3125720396724, 0.0, 0.0, 0.0, 0.0, -2711.8253960401294, 0.0]
['beep', 0.0, -3811.888851152522, 0.0, 0.0, 0.0, 0.0, -2715.826358297629, 0.0]
['beep', 0.0, -3818.9296506559435, 0.0, 0.0, 0.0, 0.0, -2746.6047104125873, 0.0]
['beep', 0.0, -3818.9967058893094, 0.0, 0.0, 0.0, 0.0, -2762.8544286315955, 0.0]
['beep', 0.0, -3811.620630219058, 0.0, 0.0, 0.0, 0.0, -2739.899187075995, 0.0]
['beep', 0.0, -3808.983124373332, 0.0, 0.0, 0.0, 0.0, -2711.557175106666, 0.0]
['beep', 0.0, -3811.553574985692, 0.0, 0.0, 0.0, 0.0, -2716.385151909012, 0.0]
['beep', 0.0, -3816.426255276949, 0.0, 0.0, 0.0, 0.0, -2746.872931346051, 0.0]
['beep', 0.0, -3816.8509384216, 0.0, 0.0, 0.0, 0.0, -2762.5638559536765, 0.0]
['beep', 0.0, -3811.7323889413346, 0.0, 0.0, 0.0, 0.0, -2741.2402917433133, 0.0]
['beep', 0.0, -3808.558441228681, 0.0, 0.0, 0.0, 0.0, -2713.3900181520007, 0.0]
['beep', 0.0, -3813.22995581984, 0.0, 0.0, 0.0, 0.0, -2715.87106178654, 0.0]
['beep', 0.0, -3820.5613280011808, 0.0, 0.0, 0.0, 0.0, -2746.6270621570425, 0.0]
['beep', 0.0, -3820.740141956823, 0.0, 0.0, 0.0, 0.0, -2762.742669909319, 0.0]
['beep', 0.0, -3812.4699965083596, 0.0, 0.0, 0.0, 0.0, -2741.0391260432157, 0.0]
['beep', 0.0, -3808.759606928779, 0.0, 0.0, 0.0, 0.0, -2711.065436728649, 0.0]
['beep', 0.0, -3812.1123685970747, 0.0, 0.0, 0.0, 0.0, -2715.15580596397, 0.0]
['beep', 0.0, -3818.8625954225777, 0.0, 0.0, 0.0, 0.0, -2746.716469134864, 0.0]
['beep', 0.0, -3819.689609967424, 0.0, 0.0, 0.0, 0.0, -2760.0157570857714, 0.0]
['beep', 0.0, -3811.4641680078707, 0.0, 0.0, 0.0, 0.0, -2736.2782044742353, 0.0]
['beep', 0.0, -3806.8597086500777, 0.0, 0.0, 0.0, 0.0, -2705.3657418925454, 0.0]
['beep', 0.0, -3810.4359877629267, 0.0, 0.0, 0.0, 0.0, -2707.690323315898, 0.0]
['beep', 0.0, -3816.113330854575, 0.0, 0.0, 0.0, 0.0, -2734.8476928290956, 0.0]
['beep', 0.0, -3817.432083777438, 0.0, 0.0, 0.0, 0.0, -2746.2470825013024, 0.0]
['beep', 0.0, -3811.4418162634156, 0.0, 0.0, 0.0, 0.0, -2719.000306010283, 0.0]
['beep', 0.0, -3805.742121427312, 0.0, 0.0, 0.0, 0.0, -2681.5387823031883, 0.0]
['beep', 0.0, -3810.368932529561, 0.0, 0.0, 0.0, 0.0, -2678.72246250182, 0.0]
['beep', 0.0, -3817.0521041216975, 0.0, 0.0, 0.0, 0.0, -2703.6670093139423, 0.0]
['beep', 0.0, -3817.23091807734, 0.0, 0.0, 0.0, 0.0, -2711.7806925512186, 0.0]
['beep', 0.0, -3809.1172348400637, 0.0, 0.0, 0.0, 0.0, -2681.1364509029927, 0.0]
['beep', 0.0, -3806.144452827508, 0.0, 0.0, 0.0, 0.0, -2640.322165527602, 0.0]
['beep', 0.0, -3810.592449974114, 0.0, 0.0, 0.0, 0.0, -2633.124903812993, 0.0]
['beep', 0.0, -3816.1580343434853, 0.0, 0.0, 0.0, 0.0, -2653.934377900884, 0.0]
['beep', 0.0, -3817.2532698217956, 0.0, 0.0, 0.0, 0.0, -2662.1821716048926, 0.0]
['beep', 0.0, -3810.9053743964882, 0.0, 0.0, 0.0, 0.0, -2630.129770055982, 0.0]
['beep', 0.0, -3803.484595237326, 0.0, 0.0, 0.0, 0.0, -2591.9529905263175, 0.0]
['beep', 0.0, -3808.021999361754, 0.0, 0.0, 0.0, 0.0, -2587.0803102350606, 0.0]
['beep', 0.0, -3814.1910808314183, 0.0, 0.0, 0.0, 0.0, -2610.7284558687757, 0.0]
['beep', 0.0, -3815.6886477099238, 0.0, 0.0, 0.0, 0.0, -2617.5904414165548, 0.0]
['beep', 0.0, -3808.2008133173963, 0.0, 0.0, 0.0, 0.0, -2586.9909032572396, 0.0]
['beep', 0.0, -3804.758644671279, 0.0, 0.0, 0.0, 0.0, -2550.043469672617, 0.0]
['beep', 0.0, -3807.329095283639, 0.0, 0.0, 0.0, 0.0, -2546.131914392938, 0.0]
['beep', 0.0, -3813.431121519938, 0.0, 0.0, 0.0, 0.0, -2569.914170493385, 0.0]
['beep', 0.0, -3815.4427785209155, 0.0, 0.0, 0.0, 0.0, -2581.067690976583, 0.0]
['beep', 0.0, -3808.625496462047, 0.0, 0.0, 0.0, 0.0, -2556.4137168423795, 0.0]
['beep', 0.0, -3802.165842314463, 0.0, 0.0, 0.0, 0.0, -2523.6013559819885, 0.0]
['beep', 0.0, -3806.077397594142, 0.0, 0.0, 0.0, 0.0, -2524.4060187823798, 0.0]
['beep', 0.0, -3814.258136064784, 0.0, 0.0, 0.0, 0.0, -2554.5361703081335, 0.0]
['beep', 0.0, -3814.593412231614, 0.0, 0.0, 0.0, 0.0, -2575.0103682291947, 0.0]
['beep', 0.0, -3808.692551695413, 0.0, 0.0, 0.0, 0.0, -2557.978338954251, 0.0]
['beep', 0.0, -3803.886926637522, 0.0, 0.0, 0.0, 0.0, -2531.849149685997, 0.0]
['beep', 0.0, -3806.9938191168094, 0.0, 0.0, 0.0, 0.0, -2538.018231155662, 0.0]
['beep', 0.0, -3815.0627988651754, 0.0, 0.0, 0.0, 0.0, -2572.9540077393067, 0.0]
['beep', 0.0, -3817.074455866153, 0.0, 0.0, 0.0, 0.0, -2596.7362638397535, 0.0]
['beep', 0.0, -3809.273697051251, 0.0, 0.0, 0.0, 0.0, -2581.7605950546977, 0.0]
['beep', 0.0, -3804.6692376934575, 0.0, 0.0, 0.0, 0.0, -2559.9229407218627, 0.0]
['beep', 0.0, -3807.3514470280943, 0.0, 0.0, 0.0, 0.0, -2570.6964815493207, 0.0]
['beep', 0.0, -3813.274659308751, 0.0, 0.0, 0.0, 0.0, -2609.387351201457, 0.0]
['beep', 0.0, -3813.6769907089465, 0.0, 0.0, 0.0, 0.0, -2634.778932902686, 0.0]
['beep', 0.0, -3806.792653416712, 0.0, 0.0, 0.0, 0.0, -2621.8596246075185, 0.0]
['beep', 0.0, -3801.8976213809997, 0.0, 0.0, 0.0, 0.0, -2598.747920840731, 0.0]
['beep', 0.0, -3806.2785632942396, 0.0, 0.0, 0.0, 0.0, -2607.9121360674067, 0.0]
['beep', 0.0, -3813.5428802422143, 0.0, 0.0, 0.0, 0.0, -2645.6865841968756, 0.0]
['beep', 0.0, -3814.459301764882, 0.0, 0.0, 0.0, 0.0, -2671.0111106647387, 0.0]
['beep', 0.0, -3808.8937173955105, 0.0, 0.0, 0.0, 0.0, -2659.0305756366943, 0.0]
['beep', 0.0, -3806.8373569056225, 0.0, 0.0, 0.0, 0.0, -2634.5330637136776, 0.0]
['beep', 0.0, -3809.2289935623403, 0.0, 0.0, 0.0, 0.0, -2641.685621939376, 0.0]
['beep', 0.0, -3816.0015721322984, 0.0, 0.0, 0.0, 0.0, -2676.487288056289, 0.0]
['beep', 0.0, -3817.7673599442674, 0.0, 0.0, 0.0, 0.0, -2698.280238900213, 0.0]
['beep', 0.0, -3811.553574985692, 0.0, 0.0, 0.0, 0.0, -2682.8798869705065, 0.0]
['beep', 0.0, -3806.949115627899, 0.0, 0.0, 0.0, 0.0, -2657.890636669473, 0.0]
['beep', 0.0, -3811.8441476636112, 0.0, 0.0, 0.0, 0.0, -2663.411517549934, 0.0]
['beep', 0.0, -3817.5438424997146, 0.0, 0.0, 0.0, 0.0, -2696.603858066065, 0.0]
['beep', 0.0, -3819.2202233338626, 0.0, 0.0, 0.0, 0.0, -2717.2345181983137, 0.0]
['beep', 0.0, -3812.604106975092, 0.0, 0.0, 0.0, 0.0, -2699.6660470564425, 0.0]
['beep', 0.0, -3807.396150517005, 0.0, 0.0, 0.0, 0.0, -2671.0781658981045, 0.0]
['beep', 0.0, -3811.7994441747005, 0.0, 0.0, 0.0, 0.0, -2675.034424666694, 0.0]
['beep', 0.0, -3817.9238221554547, 0.0, 0.0, 0.0, 0.0, -2708.293820416191, 0.0]
['beep', 0.0, -3816.13568259903, 0.0, 0.0, 0.0, 0.0, -2728.1421694925034, 0.0]
['beep', 0.0, -3811.3747610300497, 0.0, 0.0, 0.0, 0.0, -2710.3725326505346, 0.0]
['beep', 0.0, -3807.820833661656, 0.0, 0.0, 0.0, 0.0, -2682.7904799926855, 0.0]
['beep', 0.0, -3810.681856951935, 0.0, 0.0, 0.0, 0.0, -2684.6903782713866, 0.0]
['beep', 0.0, -3817.6332494775356, 0.0, 0.0, 0.0, 0.0, -2716.765131564752, 0.0]
['beep', 0.0, -3819.6672582229685, 0.0, 0.0, 0.0, 0.0, -2736.9264050634392, 0.0]
['beep', 0.0, -3813.788749431223, 0.0, 0.0, 0.0, 0.0, -2718.6873815879085, 0.0]
['beep', 0.0, -3808.759606928779, 0.0, 0.0, 0.0, 0.0, -2691.10532893006, 0.0]
['beep', 0.0, -3811.5759267301473, 0.0, 0.0, 0.0, 0.0, -2694.256924898258, 0.0]
['beep', 0.0, -3817.745008199812, 0.0, 0.0, 0.0, 0.0, -2725.325849691135, 0.0]
['beep', 0.0, -3819.555499500692, 0.0, 0.0, 0.0, 0.0, -2745.3306609786346, 0.0]
['beep', 0.0, -3813.431121519938, 0.0, 0.0, 0.0, 0.0, -2727.53867239221, 0.0]
['beep', 0.0, -3808.0890545951197, 0.0, 0.0, 0.0, 0.0, -2696.8050237661632, 0.0]
['beep', 0.0, -3810.5030429962926, 0.0, 0.0, 0.0, 0.0, -2698.570811578132, 0.0]
['beep', 0.0, -3816.9850488883317, 0.0, 0.0, 0.0, 0.0, -2729.170349737448, 0.0]
['beep', 0.0, -3818.2590983222844, 0.0, 0.0, 0.0, 0.0, -2749.73395463633, 0.0]
['beep', 0.0, -3812.0229616192537, 0.0, 0.0, 0.0, 0.0, -2731.785503838719, 0.0]
['beep', 0.0, -3807.6420197060133, 0.0, 0.0, 0.0, 0.0, -2699.4425296118893, 0.0]
['beep', 0.0, -3809.2289935623403, 0.0, 0.0, 0.0, 0.0, -2701.253020912769, 0.0]
['beep', 0.0, -3816.47095876586, 0.0, 0.0, 0.0, 0.0, -2733.6854021174195, 0.0]
['beep', 0.0, -3817.812063433178, 0.0, 0.0, 0.0, 0.0, -2751.969129081861, 0.0]
['beep', 0.0, -3810.7712639297565, 0.0, 0.0, 0.0, 0.0, -2732.478407916833, 0.0]
['beep', 0.0, -3806.2115080608737, 0.0, 0.0, 0.0, 0.0, -2702.124738946526, 0.0]
['beep', 0.0, -3809.787787173723, 0.0, 0.0, 0.0, 0.0, -2702.2364976688027, 0.0]
['beep', 0.0, -3816.9850488883317, 0.0, 0.0, 0.0, 0.0, -2733.5289399062326, 0.0]
['beep', 0.0, -3819.622554734058, 0.0, 0.0, 0.0, 0.0, -2752.2149982708693, 0.0]
['beep', 0.0, -3813.3417145421167, 0.0, 0.0, 0.0, 0.0, -2734.802989340185, 0.0]
['beep', 0.0, -3807.686723194924, 0.0, 0.0, 0.0, 0.0, -2703.8905267584955, 0.0]
['beep', 0.0, -3810.7936156742117, 0.0, 0.0, 0.0, 0.0, -2703.4881953583, 0.0]
['beep', 0.0, -3817.521490755259, 0.0, 0.0, 0.0, 0.0, -2735.3394312071123, 0.0]
['beep', 0.0, -3818.0579326221864, 0.0, 0.0, 0.0, 0.0, -2754.5619314386763, 0.0]
['beep', 0.0, -3811.75474068579, 0.0, 0.0, 0.0, 0.0, -2736.4346666854226, 0.0]
['beep', 0.0, -3805.9209353829547, 0.0, 0.0, 0.0, 0.0, -2706.8186052821407, 0.0]
['beep', 0.0, -3809.94424938491, 0.0, 0.0, 0.0, 0.0, -2706.5950878375875, 0.0]
['beep', 0.0, -3817.0297523772424, 0.0, 0.0, 0.0, 0.0, -2738.736896364319, 0.0]
['beep', 0.0, -3818.370857044561, 0.0, 0.0, 0.0, 0.0, -2757.244140773313, 0.0]
['beep', 0.0, -3812.693513952913, 0.0, 0.0, 0.0, 0.0, -2738.9157103199614, 0.0]
['beep', 0.0, -3806.077397594142, 0.0, 0.0, 0.0, 0.0, -2709.4561111278667, 0.0]
['beep', 0.0, -3808.6031447175915, 0.0, 0.0, 0.0, 0.0, -2708.673800071931, 0.0]
['beep', 0.0, -3817.655601221991, 0.0, 0.0, 0.0, 0.0, -2739.250986486791, 0.0]
['beep', 0.0, -3819.04140937822, 0.0, 0.0, 0.0, 0.0, -2759.814591385674, 0.0]
['beep', 0.0, -3810.7042086963907, 0.0, 0.0, 0.0, 0.0, -2740.927367320939, 0.0]
['beep', 0.0, -3804.46807199336, 0.0, 0.0, 0.0, 0.0, -2708.1373582050037, 0.0]
['beep', 0.0, -3807.776130172745, 0.0, 0.0, 0.0, 0.0, -2708.942021005395, 0.0]
['beep', 0.0, -3814.6828192094354, 0.0, 0.0, 0.0, 0.0, -2740.5920911541098, 0.0]
['beep', 0.0, -3814.1910808314183, 0.0, 0.0, 0.0, 0.0, -2760.149867552503, 0.0]
['beep', 0.0, -3808.8937173955105, 0.0, 0.0, 0.0, 0.0, -2741.7543818657855, 0.0]
['beep', 0.0, -3804.7362929268234, 0.0, 0.0, 0.0, 0.0, -2710.1490152059814, 0.0]
['beep', 0.0, -3806.8597086500777, 0.0, 0.0, 0.0, 0.0, -2709.903146016973, 0.0]
['beep', 0.0, -3814.459301764882, 0.0, 0.0, 0.0, 0.0, -2740.63679464302, 0.0]
['beep', 0.0, -3816.828586677145, 0.0, 0.0, 0.0, 0.0, -2759.792239641218, 0.0]
['beep', 0.0, -3808.4466825064046, 0.0, 0.0, 0.0, 0.0, -2740.7262016208415, 0.0]
['beep', 0.0, -3800.9588481138767, 0.0, 0.0, 0.0, 0.0, -2708.8526140275735, 0.0]
['beep', 0.0, -3803.909278381977, 0.0, 0.0, 0.0, 0.0, -2708.9867244943052, 0.0]
['beep', 0.0, -3813.1181970975636, 0.0, 0.0, 0.0, 0.0, -2740.346221965101, 0.0]
['beep', 0.0, -3816.6050692325916, 0.0, 0.0, 0.0, 0.0, -2761.379213497545, 0.0]
['beep', 0.0, -3809.2289935623403, 0.0, 0.0, 0.0, 0.0, -2744.0342598002267, 0.0]
['beep', 0.0, -3804.333961526628, 0.0, 0.0, 0.0, 0.0, -2712.674762329431, 0.0]
['beep', 0.0, -3807.463205750371, 0.0, 0.0, 0.0, 0.0, -2710.976029750828, 0.0]
['beep', 0.0, -3814.168729086963, 0.0, 0.0, 0.0, 0.0, -2741.575567910143, 0.0]
['beep', 0.0, -3815.4204267764603, 0.0, 0.0, 0.0, 0.0, -2761.3121582641793, 0.0]
['beep', 0.0, -3810.4359877629267, 0.0, 0.0, 0.0, 0.0, -2743.2072452553807, 0.0]
['beep', 0.0, -3803.842223148611, 0.0, 0.0, 0.0, 0.0, -2712.875928029529, 0.0]
['beep', 0.0, -3805.362141771572, 0.0, 0.0, 0.0, 0.0, -2711.0207332397385, 0.0]
['beep', 0.0, -3813.721694197857, 0.0, 0.0, 0.0, 0.0, -2740.6814981319308, 0.0]
['beep', 0.0, -3814.1910808314183, 0.0, 0.0, 0.0, 0.0, -2761.9156553644725, 0.0]
['beep', 0.0, -3808.3796272730387, 0.0, 0.0, 0.0, 0.0, -2744.9506813228945, 0.0]
['beep', 0.0, -3803.842223148611, 0.0, 0.0, 0.0, 0.0, -2713.166500707448, 0.0]
['beep', 0.0, -3805.5186039827595, 0.0, 0.0, 0.0, 0.0, -2709.7913872946965, 0.0]
['beep', 0.0, -3812.559403486181, 0.0, 0.0, 0.0, 0.0, -2739.630966142531, 0.0]
['beep', 0.0, -3814.4816535093373, 0.0, 0.0, 0.0, 0.0, -2762.2732832757574, 0.0]
['beep', 0.0, -3807.1502813279967, 0.0, 0.0, 0.0, 0.0, -2745.1071435340814, 0.0]
['beep', 0.0, -3801.0482550916977, 0.0, 0.0, 0.0, 0.0, -2713.7029425743754, 0.0]
['beep', 0.0, -3805.429197004938, 0.0, 0.0, 0.0, 0.0, -2711.512471617755, 0.0]
['beep', 0.0, -3812.8499761641, 0.0, 0.0, 0.0, 0.0, -2740.63679464302, 0.0]
['beep', 0.0, -3814.906336653988, 0.0, 0.0, 0.0, 0.0, -2760.127515808048, 0.0]
['beep', 0.0, -3808.3125720396724, 0.0, 0.0, 0.0, 0.0, -2745.5541784231878, 0.0]
['beep', 0.0, -3803.2163743038627, 0.0, 0.0, 0.0, 0.0, -2714.1723292079364, 0.0]
['beep', 0.0, -3805.451548749393, 0.0, 0.0, 0.0, 0.0, -2710.5960500950873, 0.0]
['beep', 0.0, -3811.911202896977, 0.0, 0.0, 0.0, 0.0, -2740.569739409654, 0.0]
['beep', 0.0, -3814.4145982759715, 0.0, 0.0, 0.0, 0.0, -2762.317986764668, 0.0]
['beep', 0.0, -3808.5807929731363, 0.0, 0.0, 0.0, 0.0, -2742.3578789660787, 0.0]
['beep', 0.0, -3804.177499315441, 0.0, 0.0, 0.0, 0.0, -2710.9536780063722, 0.0]
['beep', 0.0, -3805.697417938402, 0.0, 0.0, 0.0, 0.0, -2707.064474471149, 0.0]
['beep', 0.0, -3812.3135342971727, 0.0, 0.0, 0.0, 0.0, -2734.4453614289, 0.0]
['beep', 0.0, -3812.0900168526196, 0.0, 0.0, 0.0, 0.0, -2751.2315215148355, 0.0]
['beep', 0.0, -3805.697417938402, 0.0, 0.0, 0.0, 0.0, -2728.7903700817074, 0.0]
['beep', 0.0, -3801.0259033472425, 0.0, 0.0, 0.0, 0.0, -2692.6252475530205, 0.0]
['beep', 0.0, -3803.171670814952, 0.0, 0.0, 0.0, 0.0, -2684.131584660004, 0.0]
['beep', 0.0, -3809.2289935623403, 0.0, 0.0, 0.0, 0.0, -2704.1140442030483, 0.0]
['beep', 0.0, -3810.4359877629267, 0.0, 0.0, 0.0, 0.0, -2716.6980763313863, 0.0]
['beep', 0.0, -3805.9879906163205, 0.0, 0.0, 0.0, 0.0, -2692.357026619557, 0.0]
['beep', 0.0, -3798.9024876239882, 0.0, 0.0, 0.0, 0.0, -2648.0111656202275, 0.0]
['beep', 0.0, -3801.517641725259, 0.0, 0.0, 0.0, 0.0, -2634.868339880507, 0.0]
['beep', 0.0, -3808.5807929731363, 0.0, 0.0, 0.0, 0.0, -2654.515523256722, 0.0]
['beep', 0.0, -3811.7100371968795, 0.0, 0.0, 0.0, 0.0, -2662.3162820716243, 0.0]
['beep', 0.0, -3807.4855574948265, 0.0, 0.0, 0.0, 0.0, -2636.701182925842, 0.0]
['beep', 0.0, -3799.7071504243795, 0.0, 0.0, 0.0, 0.0, -2596.5127463952003, 0.0]
['beep', 0.0, -3801.3164760251616, 0.0, 0.0, 0.0, 0.0, -2582.609961343999, 0.0]
['beep', 0.0, -3808.2008133173963, 0.0, 0.0, 0.0, 0.0, -2601.3407231975466, 0.0]
['beep', 0.0, -3811.553574985692, 0.0, 0.0, 0.0, 0.0, -2614.483548937267, 0.0]
['beep', 0.0, -3805.2503830492956, 0.0, 0.0, 0.0, 0.0, -2590.075443992072, 0.0]
['beep', 0.0, -3799.9977231022986, 0.0, 0.0, 0.0, 0.0, -2552.1892371403264, 0.0]
['beep', 0.0, -3800.9588481138767, 0.0, 0.0, 0.0, 0.0, -2542.98031842474, 0.0]
['beep', 0.0, -3808.491385995315, 0.0, 0.0, 0.0, 0.0, -2565.5555803245998, 0.0]
['beep', 0.0, -3811.397112774505, 0.0, 0.0, 0.0, 0.0, -2582.386443899446, 0.0]
['beep', 0.0, -3805.205679560385, 0.0, 0.0, 0.0, 0.0, -2563.1862954123376, 0.0]
['beep', 0.0, -3798.8130806461672, 0.0, 0.0, 0.0, 0.0, -2528.7646089511645, 0.0]
['beep', 0.0, -3800.936496369421, 0.0, 0.0, 0.0, 0.0, -2525.031867627128, 0.0]
['beep', 0.0, -3808.558441228681, 0.0, 0.0, 0.0, 0.0, -2553.5750452965553, 0.0]
['beep', 0.0, -3808.9384208844212, 0.0, 0.0, 0.0, 0.0, -2575.5691618405776, 0.0]
['beep', 0.0, -3804.4457202489043, 0.0, 0.0, 0.0, 0.0, -2564.46034484629, 0.0]
['beep', 0.0, -3798.880135879533, 0.0, 0.0, 0.0, 0.0, -2537.302975333092, 0.0]
['beep', 0.0, -3799.573039957648, 0.0, 0.0, 0.0, 0.0, -2538.621728255955, 0.0]
['beep', 0.0, -3807.1502813279967, 0.0, 0.0, 0.0, 0.0, -2573.17752518386, 0.0]
['beep', 0.0, -3808.111406339575, 0.0, 0.0, 0.0, 0.0, -2600.6701708638875, 0.0]
['beep', 0.0, -3802.1211388255524, 0.0, 0.0, 0.0, 0.0, -2592.5564876266108, 0.0]
['beep', 0.0, -3798.500156223793, 0.0, 0.0, 0.0, 0.0, -2567.8578100034965, 0.0]
['beep', 0.0, -3799.4389294909156, 0.0, 0.0, 0.0, 0.0, -2569.981225726751, 0.0]
['beep', 0.0, -3805.138624327019, 0.0, 0.0, 0.0, 0.0, -2606.906307566918, 0.0]
['beep', 0.0, -3806.524432483248, 0.0, 0.0, 0.0, 0.0, -2636.410610247923, 0.0]
['beep', 0.0, -3801.0706068361533, 0.0, 0.0, 0.0, 0.0, -2628.453389221834, 0.0]
['beep', 0.0, -3797.695493423402, 0.0, 0.0, 0.0, 0.0, -2603.6653046208985, 0.0]
['beep', 0.0, -3801.7411591698124, 0.0, 0.0, 0.0, 0.0, -2607.9121360674067, 0.0]
['beep', 0.0, -3809.3184005401613, 0.0, 0.0, 0.0, 0.0, -2643.0490783511495, 0.0]
['beep', 0.0, -3812.1570720859854, 0.0, 0.0, 0.0, 0.0, -2671.10051764256, 0.0]
['beep', 0.0, -3806.792653416712, 0.0, 0.0, 0.0, 0.0, -2663.322110572113, 0.0]
['beep', 0.0, -3799.953019613388, 0.0, 0.0, 0.0, 0.0, -2637.4387904928676, 0.0]
['beep', 0.0, -3804.3116097821726, 0.0, 0.0, 0.0, 0.0, -2638.5116742267223, 0.0]
['beep', 0.0, -3811.240650563318, 0.0, 0.0, 0.0, 0.0, -2671.3463868315685, 0.0]
['beep', 0.0, -3811.7323889413346, 0.0, 0.0, 0.0, 0.0, -2698.5931633225878, 0.0]
['beep', 0.0, -3806.390322016516, 0.0, 0.0, 0.0, 0.0, -2687.0596631836493, 0.0]
['beep', 0.0, -3800.7353306693235, 0.0, 0.0, 0.0, 0.0, -2659.4776105258, 0.0]
['beep', 0.0, -3802.232897547829, 0.0, 0.0, 0.0, 0.0, -2658.225912836303, 0.0]
['beep', 0.0, -3809.8324906626335, 0.0, 0.0, 0.0, 0.0, -2688.825450995618, 0.0]
['beep', 0.0, -3811.7323889413346, 0.0, 0.0, 0.0, 0.0, -2714.5299571192213, 0.0]
['beep', 0.0, -3805.8315284051337, 0.0, 0.0, 0.0, 0.0, -2701.968276735339, 0.0]
['beep', 0.0, -3800.7129789248684, 0.0, 0.0, 0.0, 0.0, -2671.234628109292, 0.0]
['beep', 0.0, -3802.746987670301, 0.0, 0.0, 0.0, 0.0, -2669.3347298305907, 0.0]
['beep', 0.0, -3810.4583395073823, 0.0, 0.0, 0.0, 0.0, -2699.420177867434, 0.0]
['beep', 0.0, -3814.012266875776, 0.0, 0.0, 0.0, 0.0, -2724.8788148020285, 0.0]
['beep', 0.0, -3807.4408540059158, 0.0, 0.0, 0.0, 0.0, -2712.9876867518055, 0.0]
['beep', 0.0, -3799.1260050685414, 0.0, 0.0, 0.0, 0.0, -2683.192811392881, 0.0]
['beep', 0.0, -3803.5069469817818, 0.0, 0.0, 0.0, 0.0, -2679.4600700688447, 0.0]
['beep', 0.0, -3810.1230633405526, 0.0, 0.0, 0.0, 0.0, -2709.1655384499477, 0.0]
['beep', 0.0, -3813.855804664589, 0.0, 0.0, 0.0, 0.0, -2734.154788750981, 0.0]
['beep', 0.0, -3807.016170861265, 0.0, 0.0, 0.0, 0.0, -2720.8555008000735, 0.0]
['beep', 0.0, -3799.8412608911112, 0.0, 0.0, 0.0, 0.0, -2689.9430382183837, 0.0]
['beep', 0.0, -3803.5740022151476, 0.0, 0.0, 0.0, 0.0, -2686.9255527169175, 0.0]
['beep', 0.0, -3809.385455773527, 0.0, 0.0, 0.0, 0.0, -2715.424026897434, 0.0]
['beep', 0.0, -3811.888851152522, 0.0, 0.0, 0.0, 0.0, -2739.519207420255, 0.0]
['beep', 0.0, -3806.882060394533, 0.0, 0.0, 0.0, 0.0, -2724.1188554905484, 0.0]
['beep', 0.0, -3801.517641725259, 0.0, 0.0, 0.0, 0.0, -2692.2452678972804, 0.0]
['beep', 0.0, -3801.9870283588207, 0.0, 0.0, 0.0, 0.0, -2686.4338143389004, 0.0]
['beep', 0.0, -3808.2902202952173, 0.0, 0.0, 0.0, 0.0, -2715.580489108621, 0.0]
['beep', 0.0, -3812.000609874798, 0.0, 0.0, 0.0, 0.0, -2740.547387665199, 0.0]
['beep', 0.0, -3805.2950865382063, 0.0, 0.0, 0.0, 0.0, -2726.0187537692495, 0.0]
['beep', 0.0, -3799.1036533240863, 0.0, 0.0, 0.0, 0.0, -2694.8380702540962, 0.0]
['beep', 0.0, -3801.9646766143655, 0.0, 0.0, 0.0, 0.0, -2689.9653899628393, 0.0]
['beep', 0.0, -3808.983124373332, 0.0, 0.0, 0.0, 0.0, -2716.6533728424756, 0.0]
['beep', 0.0, -3810.8606709075775, 0.0, 0.0, 0.0, 0.0, -2740.7932568542074, 0.0]
['beep', 0.0, -3806.1891563164186, 0.0, 0.0, 0.0, 0.0, -2728.3656869370566, 0.0]
['beep', 0.0, -3799.3942260020053, 0.0, 0.0, 0.0, 0.0, -2696.2015266658696, 0.0]
['beep', 0.0, -3800.7353306693235, 0.0, 0.0, 0.0, 0.0, -2691.194735907881, 0.0]
['beep', 0.0, -3808.6701999509573, 0.0, 0.0, 0.0, 0.0, -2720.1849484664144, 0.0]
['beep', 0.0, -3810.8159674186672, 0.0, 0.0, 0.0, 0.0, -2743.2072452553807, 0.0]
['beep', 0.0, -3805.2950865382063, 0.0, 0.0, 0.0, 0.0, -2728.4997974037883, 0.0]
['beep', 0.0, -3800.46710973586, 0.0, 0.0, 0.0, 0.0, -2697.028541210716, 0.0]
['beep', 0.0, -3801.94232486991, 0.0, 0.0, 0.0, 0.0, -2691.127680674515, 0.0]
['beep', 0.0, -3809.5419179847145, 0.0, 0.0, 0.0, 0.0, -2720.028486255227, 0.0]
['beep', 0.0, -3810.7936156742117, 0.0, 0.0, 0.0, 0.0, -2743.6319284000315, 0.0]
['beep', 0.0, -3803.9539818708877, 0.0, 0.0, 0.0, 0.0, -2730.734971849319, 0.0]
['beep', 0.0, -3799.260115535273, 0.0, 0.0, 0.0, 0.0, -2698.973142978328, 0.0]
['beep', 0.0, -3800.5118132247703, 0.0, 0.0, 0.0, 0.0, -2692.9828754643054, 0.0]
['beep', 0.0, -3807.083226094631, 0.0, 0.0, 0.0, 0.0, -2721.995439767294, 0.0]
['beep', 0.0, -3811.5088714967815, 0.0, 0.0, 0.0, 0.0, -2746.180027267936, 0.0]
['beep', 0.0, -3806.1221010830527, 0.0, 0.0, 0.0, 0.0, -2732.3666491945564, 0.0]
['beep', 0.0, -3798.1872318014184, 0.0, 0.0, 0.0, 0.0, -2699.911916245451, 0.0]
['beep', 0.0, -3799.885964380022, 0.0, 0.0, 0.0, 0.0, -2694.5251458317216, 0.0]
['beep', 0.0, -3807.105577839086, 0.0, 0.0, 0.0, 0.0, -2723.224785712336, 0.0]
['beep', 0.0, -3810.614801718569, 0.0, 0.0, 0.0, 0.0, -2747.4987801907996, 0.0]
['beep', 0.0, -3805.742121427312, 0.0, 0.0, 0.0, 0.0, -2734.9818032958274, 0.0]
['beep', 0.0, -3799.4165777464605, 0.0, 0.0, 0.0, 0.0, -2702.7505877912745, 0.0]
['beep', 0.0, -3800.623571947047, 0.0, 0.0, 0.0, 0.0, -2696.9167824884394, 0.0]
['beep', 0.0, -3805.429197004938, 0.0, 0.0, 0.0, 0.0, -2724.7223525908416, 0.0]
['beep', 0.0, -3809.988952873821, 0.0, 0.0, 0.0, 0.0, -2747.6328906575313, 0.0]
['beep', 0.0, -3803.462243492871, 0.0, 0.0, 0.0, 0.0, -2732.8807393170287, 0.0]
['beep', 0.0, -3796.600257945092, 0.0, 0.0, 0.0, 0.0, -2700.135433690004, 0.0]
['beep', 0.0, -3799.3495225130946, 0.0, 0.0, 0.0, 0.0, -2694.3016283871684, 0.0]
['beep', 0.0, -3806.9938191168094, 0.0, 0.0, 0.0, 0.0, -2722.330715934124, 0.0]
['beep', 0.0, -3810.27952555174, 0.0, 0.0, 0.0, 0.0, -2746.06826854566, 0.0]
['beep', 0.0, -3805.0939208381083, 0.0, 0.0, 0.0, 0.0, -2732.031373027727, 0.0]
['beep', 0.0, -3799.5059847242815, 0.0, 0.0, 0.0, 0.0, -2700.6271720680206, 0.0]
['beep', 0.0, -3799.4836329798263, 0.0, 0.0, 0.0, 0.0, -2693.9216487314284, 0.0]
['beep', 0.0, -3806.591487716614, 0.0, 0.0, 0.0, 0.0, -2721.101369989082, 0.0]
['beep', 0.0, -3809.787787173723, 0.0, 0.0, 0.0, 0.0, -2745.2636057452687, 0.0]
['beep', 0.0, -3805.0268656047424, 0.0, 0.0, 0.0, 0.0, -2734.802989340185, 0.0]
['beep', 0.0, -3798.366045757061, 0.0, 0.0, 0.0, 0.0, -2705.321038403635, 0.0]
['beep', 0.0, -3799.461281235371, 0.0, 0.0, 0.0, 0.0, -2697.1402999329925, 0.0]
['beep', 0.0, -3810.1677668294633, 0.0, 0.0, 0.0, 0.0, -2725.616422369054, 0.0]
['beep', 0.0, -3817.8344151776337, 0.0, 0.0, 0.0, 0.0, -2753.891379105017, 0.0]
['beep', 0.0, -3813.7440459423124, 0.0, 0.0, 0.0, 0.0, -2744.190722011414, 0.0]
['beep', 0.0, -3804.5351272267258, 0.0, 0.0, 0.0, 0.0, -2712.58535535161, 0.0]
['beep', 0.0, -3805.652714449491, 0.0, 0.0, 0.0, 0.0, -2707.6009163380763, 0.0]
['beep', 0.0, -3813.0958453531084, 0.0, 0.0, 0.0, 0.0, -2736.1664457519587, 0.0]
['beep', 0.0, -3815.532185498737, 0.0, 0.0, 0.0, 0.0, -2760.194571041414, 0.0]
['beep', 0.0, -3810.033656362731, 0.0, 0.0, 0.0, 0.0, -2748.0128703132714, 0.0]
['beep', 0.0, -3805.8315284051337, 0.0, 0.0, 0.0, 0.0, -2715.804006553174, 0.0]
['beep', 0.0, -3807.2173365613626, 0.0, 0.0, 0.0, 0.0, -2708.718503560842, 0.0]
['beep', 0.0, -3812.4476447639045, 0.0, 0.0, 0.0, 0.0, -2737.284032974724, 0.0]
['beep', 0.0, -3815.979220387843, 0.0, 0.0, 0.0, 0.0, -2761.826248386651, 0.0]
['beep', 0.0, -3812.201775574896, 0.0, 0.0, 0.0, 0.0, -2749.3092714916793, 0.0]
['beep', 0.0, -3805.9879906163205, 0.0, 0.0, 0.0, 0.0, -2717.3239251761347, 0.0]
['beep', 0.0, -3807.8878888950217, 0.0, 0.0, 0.0, 0.0, -2709.7243320613306, 0.0]
['beep', 0.0, -3815.0180953762647, 0.0, 0.0, 0.0, 0.0, -2737.664012630464, 0.0]
['beep', 0.0, -3816.2474413213067, 0.0, 0.0, 0.0, 0.0, -2763.6590914319863, 0.0]
['beep', 0.0, -3811.8664994080664, 0.0, 0.0, 0.0, 0.0, -2751.991480826316, 0.0]
['beep', 0.0, -3806.457377249882, 0.0, 0.0, 0.0, 0.0, -2718.419160654445, 0.0]
['beep', 0.0, -3806.5020807387928, 0.0, 0.0, 0.0, 0.0, -2710.618401839543, 0.0]
['beep', 0.0, -3812.8276244196445, 0.0, 0.0, 0.0, 0.0, -2736.747591107797, 0.0]
['beep', 0.0, -3816.7615314437785, 0.0, 0.0, 0.0, 0.0, -2762.2062280423916, 0.0]
['beep', 0.0, -3811.1959470744073, 0.0, 0.0, 0.0, 0.0, -2749.801009869696, 0.0]
['beep', 0.0, -3804.423368504449, 0.0, 0.0, 0.0, 0.0, -2717.2345181983137, 0.0]
['beep', 0.0, -3805.8985836384995, 0.0, 0.0, 0.0, 0.0, -2708.8973175164842, 0.0]
['beep', 0.0, -3814.235784320329, 0.0, 0.0, 0.0, 0.0, -2735.026506784738, 0.0]
['beep', 0.0, -3816.940345399421, 0.0, 0.0, 0.0, 0.0, -2759.859294874584, 0.0]
['beep', 0.0, -3811.173595329952, 0.0, 0.0, 0.0, 0.0, -2749.443381958411, 0.0]
['beep', 0.0, -3806.882060394533, 0.0, 0.0, 0.0, 0.0, -2717.390980409501, 0.0]
['beep', 0.0, -3808.267868550762, 0.0, 0.0, 0.0, 0.0, -2709.8584425280624, 0.0]
['beep', 0.0, -3815.4204267764603, 0.0, 0.0, 0.0, 0.0, -2736.345259707601, 0.0]
['beep', 0.0, -3817.9908773888205, 0.0, 0.0, 0.0, 0.0, -2759.9263501079504, 0.0]
['beep', 0.0, -3812.5370517417255, 0.0, 0.0, 0.0, 0.0, -2748.795181369207, 0.0]
['beep', 0.0, -3806.815005161167, 0.0, 0.0, 0.0, 0.0, -2716.7874833092073, 0.0]
['beep', 0.0, -3807.1949848169074, 0.0, 0.0, 0.0, 0.0, -2707.667971571442, 0.0]
['beep', 0.0, -3813.1852523309294, 0.0, 0.0, 0.0, 0.0, -2734.735934106819, 0.0]
['beep', 0.0, -3816.6497727215024, 0.0, 0.0, 0.0, 0.0, -2760.8204198861627, 0.0]
['beep', 0.0, -3811.620630219058, 0.0, 0.0, 0.0, 0.0, -2750.359803481079, 0.0]
['beep', 0.0, -3804.3563132710833, 0.0, 0.0, 0.0, 0.0, -2717.480387387322, 0.0]
['beep', 0.0, -3806.099749338597, 0.0, 0.0, 0.0, 0.0, -2709.2772971722243, 0.0]
['beep', 0.0, -3812.8946796530104, 0.0, 0.0, 0.0, 0.0, -2736.747591107797, 0.0]
['beep', 0.0, -3817.432083777438, 0.0, 0.0, 0.0, 0.0, -2763.033242587238, 0.0]
['beep', 0.0, -3812.0676651081644, 0.0, 0.0, 0.0, 0.0, -2752.5055709487883, 0.0]
['beep', 0.0, -3806.524432483248, 0.0, 0.0, 0.0, 0.0, -2720.5872798666096, 0.0]
['beep', 0.0, -3807.329095283639, 0.0, 0.0, 0.0, 0.0, -2712.831224540618, 0.0]
['beep', 0.0, -3813.4758250088485, 0.0, 0.0, 0.0, 0.0, -2740.3015184761907, 0.0]
['beep', 0.0, -3817.655601221991, 0.0, 0.0, 0.0, 0.0, -2766.1848385554363, 0.0]
['beep', 0.0, -3812.715865697368, 0.0, 0.0, 0.0, 0.0, -2755.4112977279783, 0.0]
['beep', 0.0, -3805.6303627050356, 0.0, 0.0, 0.0, 0.0, -2723.291840945702, 0.0]
['beep', 0.0, -3807.8655371505665, 0.0, 0.0, 0.0, 0.0, -2714.418198396945, 0.0]
['beep', 0.0, -3814.302839553695, 0.0, 0.0, 0.0, 0.0, -2740.4579806873776, 0.0]
['beep', 0.0, -3817.0521041216975, 0.0, 0.0, 0.0, 0.0, -2765.5366379662323, 0.0]
['beep', 0.0, -3811.106540096586, 0.0, 0.0, 0.0, 0.0, -2755.0536698166934, 0.0]
['beep', 0.0, -3804.3563132710833, 0.0, 0.0, 0.0, 0.0, -2723.358896179068, 0.0]
['beep', 0.0, -3807.37379877255, 0.0, 0.0, 0.0, 0.0, -2714.9546402638725, 0.0]
['beep', 0.0, -3812.6711622084576, 0.0, 0.0, 0.0, 0.0, -2740.4356289429224, 0.0]
['beep', 0.0, -3818.5943744891138, 0.0, 0.0, 0.0, 0.0, -2765.693100177419, 0.0]
['beep', 0.0, -3812.4252930194493, 0.0, 0.0, 0.0, 0.0, -2756.283015761735, 0.0]
['beep', 0.0, -3805.0939208381083, 0.0, 0.0, 0.0, 0.0, -2723.4259514124337, 0.0]
['beep', 0.0, -3807.7984819172007, 0.0, 0.0, 0.0, 0.0, -2713.4347216409114, 0.0]
['beep', 0.0, -3813.2523075642953, 0.0, 0.0, 0.0, 0.0, -2739.4521521868887, 0.0]
['beep', 0.0, -3816.3815517880385, 0.0, 0.0, 0.0, 0.0, -2766.296597277713, 0.0]
['beep', 0.0, -3811.5088714967815, 0.0, 0.0, 0.0, 0.0, -2756.283015761735, 0.0]
['beep', 0.0, -3805.9879906163205, 0.0, 0.0, 0.0, 0.0, -2724.096503746093, 0.0]
['beep', 0.0, -3807.5973162171026, 0.0, 0.0, 0.0, 0.0, -2714.0829222301154, 0.0]
['beep', 0.0, -3812.9617348863767, 0.0, 0.0, 0.0, 0.0, -2739.519207420255, 0.0]
['beep', 0.0, -3817.141511099519, 0.0, 0.0, 0.0, 0.0, -2766.408355999989, 0.0]
['beep', 0.0, -3811.620630219058, 0.0, 0.0, 0.0, 0.0, -2755.7912773837184, 0.0]
['beep', 0.0, -3804.6245342045468, 0.0, 0.0, 0.0, 0.0, -2723.671820601442, 0.0]
['beep', 0.0, -3806.099749338597, 0.0, 0.0, 0.0, 0.0, -2713.032390240716, 0.0]
['beep', 0.0, -3813.5428802422143, 0.0, 0.0, 0.0, 0.0, -2737.999288797294, 0.0]
['beep', 0.0, -3816.716827954868, 0.0, 0.0, 0.0, 0.0, -2765.961321110883, 0.0]
['beep', 0.0, -3811.642981963513, 0.0, 0.0, 0.0, 0.0, -2756.6853471619306, 0.0]
['beep', 0.0, -3804.6021824600916, 0.0, 0.0, 0.0, 0.0, -2725.0799805021265, 0.0]
['beep', 0.0, -3805.697417938402, 0.0, 0.0, 0.0, 0.0, -2714.6864193304086, 0.0]
['beep', 0.0, -3811.4641680078707, 0.0, 0.0, 0.0, 0.0, -2739.7427248648078, 0.0]
['beep', 0.0, -3814.235784320329, 0.0, 0.0, 0.0, 0.0, -2766.967149611372, 0.0]
['beep', 0.0, -3810.4359877629267, 0.0, 0.0, 0.0, 0.0, -2756.506533206288, 0.0]
['beep', 0.0, -3804.4457202489043, 0.0, 0.0, 0.0, 0.0, -2723.3365444346127, 0.0]
['beep', 0.0, -3804.3116097821726, 0.0, 0.0, 0.0, 0.0, -2714.418198396945, 0.0]
['beep', 0.0, -3812.2241273193513, 0.0, 0.0, 0.0, 0.0, -2739.5639109091653, 0.0]
['beep', 0.0, -3816.2474413213067, 0.0, 0.0, 0.0, 0.0, -2766.408355999989, 0.0]
['beep', 0.0, -3810.9053743964882, 0.0, 0.0, 0.0, 0.0, -2757.199437284403, 0.0]
['beep', 0.0, -3804.8704033935555, 0.0, 0.0, 0.0, 0.0, -2724.3647246795567, 0.0]
['beep', 0.0, -3805.742121427312, 0.0, 0.0, 0.0, 0.0, -2714.842881541596, 0.0]
['beep', 0.0, -3811.911202896977, 0.0, 0.0, 0.0, 0.0, -2740.7932568542074, 0.0]
['beep', 0.0, -3814.459301764882, 0.0, 0.0, 0.0, 0.0, -2766.5648182111763, 0.0]
['beep', 0.0, -3810.5700982296585, 0.0, 0.0, 0.0, 0.0, -2756.551236695199, 0.0]
['beep', 0.0, -3806.077397594142, 0.0, 0.0, 0.0, 0.0, -2723.1577304789703, 0.0]
['beep', 0.0, -3807.1279295835416, 0.0, 0.0, 0.0, 0.0, -2714.4405501414003, 0.0]
['beep', 0.0, -3810.950077885399, 0.0, 0.0, 0.0, 0.0, -2739.7203731203526, 0.0]
['beep', 0.0, -3810.681856951935, 0.0, 0.0, 0.0, 0.0, -2761.5803791976427, 0.0]
['beep', 0.0, -3804.3786650155384, 0.0, 0.0, 0.0, 0.0, -2751.008004070283, 0.0]
['beep', 0.0, -3798.3213422681506, 0.0, 0.0, 0.0, 0.0, -2717.0780559871264, 0.0]
['beep', 0.0, -3798.142528312508, 0.0, 0.0, 0.0, 0.0, -2704.3152099031463, 0.0]
['beep', 0.0, -3807.105577839086, 0.0, 0.0, 0.0, 0.0, -2728.7009631038864, 0.0]
['beep', 0.0, -3811.8664994080664, 0.0, 0.0, 0.0, 0.0, -2754.159600038481, 0.0]
['beep', 0.0, -3805.4739004938488, 0.0, 0.0, 0.0, 0.0, -2745.420067956456, 0.0]
['beep', 0.0, -3799.3495225130946, 0.0, 0.0, 0.0, 0.0, -2713.0994454740817, 0.0]
['beep', 0.0, -3802.501118481293, 0.0, 0.0, 0.0, 0.0, -2701.9906284797944, 0.0]
['beep', 0.0, -3808.781958673234, 0.0, 0.0, 0.0, 0.0, -2727.3822101810233, 0.0]
['beep', 0.0, -3811.598278474603, 0.0, 0.0, 0.0, 0.0, -2753.1761232824474, 0.0]
['beep', 0.0, -3806.099749338597, 0.0, 0.0, 0.0, 0.0, -2744.7271638783413, 0.0]
['beep', 0.0, -3799.818909146656, 0.0, 0.0, 0.0, 0.0, -2712.6524105849758, 0.0]
['beep', 0.0, -3800.109481824575, 0.0, 0.0, 0.0, 0.0, -2700.6718755569314, 0.0]
['beep', 0.0, -3807.37379877255, 0.0, 0.0, 0.0, 0.0, -2725.705829346875, 0.0]
['beep', 0.0, -3811.620630219058, 0.0, 0.0, 0.0, 0.0, -2752.930254093439, 0.0]
['beep', 0.0, -3806.3232667831503, 0.0, 0.0, 0.0, 0.0, -2745.151847022992, 0.0]
['beep', 0.0, -3798.611914946069, 0.0, 0.0, 0.0, 0.0, -2713.3900181520007, 0.0]
['beep', 0.0, -3799.4165777464605, 0.0, 0.0, 0.0, 0.0, -2700.7836342792075, 0.0]
['beep', 0.0, -3806.1221010830527, 0.0, 0.0, 0.0, 0.0, -2724.945870035395, 0.0]
['beep', 0.0, -3809.4525110068935, 0.0, 0.0, 0.0, 0.0, -2752.1032395485927, 0.0]
['beep', 0.0, -3804.2892580377174, 0.0, 0.0, 0.0, 0.0, -2745.5988819120985, 0.0]
['beep', 0.0, -3798.366045757061, 0.0, 0.0, 0.0, 0.0, -2713.859404785562, 0.0]
['beep', 0.0, -3799.953019613388, 0.0, 0.0, 0.0, 0.0, -2702.482366857811, 0.0]
['beep', 0.0, -3806.6138394610693, 0.0, 0.0, 0.0, 0.0, -2725.8175880691515, 0.0]
['beep', 0.0, -3812.0229616192537, 0.0, 0.0, 0.0, 0.0, -2752.4385157154225, 0.0]
['beep', 0.0, -3806.1891563164186, 0.0, 0.0, 0.0, 0.0, -2744.3024807336906, 0.0]
['beep', 0.0, -3799.953019613388, 0.0, 0.0, 0.0, 0.0, -2712.920631518439, 0.0]
['beep', 0.0, -3800.8023859026894, 0.0, 0.0, 0.0, 0.0, -2700.895393001484, 0.0]
['beep', 0.0, -3807.2173365613626, 0.0, 0.0, 0.0, 0.0, -2725.3705531800456, 0.0]
['beep', 0.0, -3810.7936156742117, 0.0, 0.0, 0.0, 0.0, -2753.2431785158133, 0.0]
['beep', 0.0, -3806.3232667831503, 0.0, 0.0, 0.0, 0.0, -2745.062440045171, 0.0]
['beep', 0.0, -3799.4836329798263, 0.0, 0.0, 0.0, 0.0, -2712.540651862699, 0.0]
['beep', 0.0, -3799.7742056577454, 0.0, 0.0, 0.0, 0.0, -2699.844861012085, 0.0]
['beep', 0.0, -3806.2338598053293, 0.0, 0.0, 0.0, 0.0, -2725.1470357354924, 0.0]
['beep', 0.0, -3809.340752284617, 0.0, 0.0, 0.0, 0.0, -2754.316062249668, 0.0]
['beep', 0.0, -3805.697417938402, 0.0, 0.0, 0.0, 0.0, -2746.872931346051, 0.0]
['beep', 0.0, -3798.6789701794355, 0.0, 0.0, 0.0, 0.0, -2714.932288519417, 0.0]
['beep', 0.0, -3798.9918946018097, 0.0, 0.0, 0.0, 0.0, -2702.7505877912745, 0.0]
['beep', 0.0, -3805.9209353829547, 0.0, 0.0, 0.0, 0.0, -2726.4881404028106, 0.0]
['beep', 0.0, -3810.9277261409434, 0.0, 0.0, 0.0, 0.0, -2753.4890477048216, 0.0]
['beep', 0.0, -3807.776130172745, 0.0, 0.0, 0.0, 0.0, -2745.509474934277, 0.0]
['beep', 0.0, -3800.2882957802176, 0.0, 0.0, 0.0, 0.0, -2712.7418175627968, 0.0]
['beep', 0.0, -3799.7742056577454, 0.0, 0.0, 0.0, 0.0, -2700.0683784566377, 0.0]
['beep', 0.0, -3805.5856592161254, 0.0, 0.0, 0.0, 0.0, -2724.610593868565, 0.0]
['beep', 0.0, -3810.614801718569, 0.0, 0.0, 0.0, 0.0, -2752.192646526414, 0.0]
['beep', 0.0, -3806.4126737609718, 0.0, 0.0, 0.0, 0.0, -2746.716469134864, 0.0]
['beep', 0.0, -3799.260115535273, 0.0, 0.0, 0.0, 0.0, -2714.865233286051, 0.0]
['beep', 0.0, -3799.4389294909156, 0.0, 0.0, 0.0, 0.0, -2700.895393001484, 0.0]
['beep', 0.0, -3806.3232667831503, 0.0, 0.0, 0.0, 0.0, -2724.2753177017353, 0.0]
['beep', 0.0, -3811.911202896977, 0.0, 0.0, 0.0, 0.0, -2753.7572686382855, 0.0]
['beep', 0.0, -3807.7984819172007, 0.0, 0.0, 0.0, 0.0, -2747.54348367971, 0.0]
['beep', 0.0, -3800.489461480315, 0.0, 0.0, 0.0, 0.0, -2714.6193640970428, 0.0]
['beep', 0.0, -3799.2824672797287, 0.0, 0.0, 0.0, 0.0, -2703.2423261692916, 0.0]
['beep', 0.0, -3806.055045849687, 0.0, 0.0, 0.0, 0.0, -2725.5940706245983, 0.0]
['beep', 0.0, -3809.4078075179827, 0.0, 0.0, 0.0, 0.0, -2755.0536698166934, 0.0]
['beep', 0.0, -3804.9821621158317, 0.0, 0.0, 0.0, 0.0, -2750.5386174367213, 0.0]
['beep', 0.0, -3798.4331009904267, 0.0, 0.0, 0.0, 0.0, -2716.742779820297, 0.0]
['beep', 0.0, -3797.5390312122145, 0.0, 0.0, 0.0, 0.0, -2702.3706081355344, 0.0]
['beep', 0.0, -3803.775167915245, 0.0, 0.0, 0.0, 0.0, -2726.599899125087, 0.0]
['beep', 0.0, -3808.6031447175915, 0.0, 0.0, 0.0, 0.0, -2754.1148965495704, 0.0]
['beep', 0.0, -3804.915106882466, 0.0, 0.0, 0.0, 0.0, -2748.0128703132714, 0.0]
['beep', 0.0, -3800.4224062469493, 0.0, 0.0, 0.0, 0.0, -2716.809835053663, 0.0]
['beep', 0.0, -3800.2882957802176, 0.0, 0.0, 0.0, 0.0, -2703.9128785029507, 0.0]
['beep', 0.0, -3806.7703016722567, 0.0, 0.0, 0.0, 0.0, -2727.605727625576, 0.0]
['beep', 0.0, -3809.1619383289744, 0.0, 0.0, 0.0, 0.0, -2756.3277192506457, 0.0]
['beep', 0.0, -3804.557478971181, 0.0, 0.0, 0.0, 0.0, -2749.7563063807856, 0.0]
['beep', 0.0, -3798.1201765680526, 0.0, 0.0, 0.0, 0.0, -2717.838015298607, 0.0]
['beep', 0.0, -3798.4331009904267, 0.0, 0.0, 0.0, 0.0, -2704.382265136512, 0.0]
['beep', 0.0, -3804.3116097821726, 0.0, 0.0, 0.0, 0.0, -2727.4939689032994, 0.0]
['beep', 0.0, -3808.1561098284856, 0.0, 0.0, 0.0, 0.0, -2756.9759198398497, 0.0]
['beep', 0.0, -3805.764473171768, 0.0, 0.0, 0.0, 0.0, -2752.3938122265117, 0.0]
['beep', 0.0, -3799.1036533240863, 0.0, 0.0, 0.0, 0.0, -2720.408465910967, 0.0]
['beep', 0.0, -3798.008417845776, 0.0, 0.0, 0.0, 0.0, -2706.684494815409, 0.0]
['beep', 0.0, -3803.75281617079, 0.0, 0.0, 0.0, 0.0, -2730.5561578936768, 0.0]
['beep', 0.0, -3807.8878888950217, 0.0, 0.0, 0.0, 0.0, -2757.4006029845004, 0.0]
['beep', 0.0, -3804.199851059896, 0.0, 0.0, 0.0, 0.0, -2751.1644662814697, 0.0]
['beep', 0.0, -3797.583734701125, 0.0, 0.0, 0.0, 0.0, -2719.1120647325597, 0.0]
['beep', 0.0, -3798.3213422681506, 0.0, 0.0, 0.0, 0.0, -2704.762244792252, 0.0]
['beep', 0.0, -3805.429197004938, 0.0, 0.0, 0.0, 0.0, -2726.599899125087, 0.0]
['beep', 0.0, -3809.273697051251, 0.0, 0.0, 0.0, 0.0, -2755.612463428076, 0.0]
['beep', 0.0, -3804.5798307156365, 0.0, 0.0, 0.0, 0.0, -2749.9798238253384, 0.0]
['beep', 0.0, -3799.0589498351756, 0.0, 0.0, 0.0, 0.0, -2718.2850501877133, 0.0]
['beep', 0.0, -3799.170708557452, 0.0, 0.0, 0.0, 0.0, -2704.426968625423, 0.0]
['beep', 0.0, -3805.1833278159297, 0.0, 0.0, 0.0, 0.0, -2727.7174863478526, 0.0]
['beep', 0.0, -3809.430159262438, 0.0, 0.0, 0.0, 0.0, -2755.54540819471, 0.0]
['beep', 0.0, -3804.0657405931643, 0.0, 0.0, 0.0, 0.0, -2751.656204659487, 0.0]
['beep', 0.0, -3799.1260050685414, 0.0, 0.0, 0.0, 0.0, -2719.447340899389, 0.0]
['beep', 0.0, -3799.260115535273, 0.0, 0.0, 0.0, 0.0, -2703.845823269585, 0.0]
['beep', 0.0, -3805.205679560385, 0.0, 0.0, 0.0, 0.0, -2727.7174863478526, 0.0]
['beep', 0.0, -3808.6701999509573, 0.0, 0.0, 0.0, 0.0, -2756.506533206288, 0.0]
['beep', 0.0, -3805.071569093653, 0.0, 0.0, 0.0, 0.0, -2751.0750593036487, 0.0]
['beep', 0.0, -3798.723673668346, 0.0, 0.0, 0.0, 0.0, -2718.6650298434533, 0.0]
['beep', 0.0, -3800.3553510135835, 0.0, 0.0, 0.0, 0.0, -2704.382265136512, 0.0]
['beep', 0.0, -3807.7984819172007, 0.0, 0.0, 0.0, 0.0, -2727.225747969836, 0.0]
['beep', 0.0, -3812.8052726751894, 0.0, 0.0, 0.0, 0.0, -2755.835980872629, 0.0]
['beep', 0.0, -3808.334923784128, 0.0, 0.0, 0.0, 0.0, -2751.030355814738, 0.0]
['beep', 0.0, -3800.9588481138767, 0.0, 0.0, 0.0, 0.0, -2719.447340899389, 0.0]
['beep', 0.0, -3800.7576824137786, 0.0, 0.0, 0.0, 0.0, -2704.9857622368054, 0.0]
['beep', 0.0, -3806.7703016722567, 0.0, 0.0, 0.0, 0.0, -2726.9798787808277, 0.0]
['beep', 0.0, -3812.0900168526196, 0.0, 0.0, 0.0, 0.0, -2756.0147948282715, 0.0]
['beep', 0.0, -3808.3125720396724, 0.0, 0.0, 0.0, 0.0, -2752.3938122265117, 0.0]
['beep', 0.0, -3801.9646766143655, 0.0, 0.0, 0.0, 0.0, -2719.9390792774057, 0.0]
['beep', 0.0, -3799.7071504243795, 0.0, 0.0, 0.0, 0.0, -2704.6951895588863, 0.0]
['beep', 0.0, -3805.4739004938488, 0.0, 0.0, 0.0, 0.0, -2727.3822101810233, 0.0]
['beep', 0.0, -3809.8771941515442, 0.0, 0.0, 0.0, 0.0, -2754.673690160953, 0.0]
['beep', 0.0, -3804.4457202489043, 0.0, 0.0, 0.0, 0.0, -2751.54444593721, 0.0]
['beep', 0.0, -3798.1648800569633, 0.0, 0.0, 0.0, 0.0, -2720.5202246332437, 0.0]
['beep', 0.0, -3798.008417845776, 0.0, 0.0, 0.0, 0.0, -2705.8798320150177, 0.0]
['beep', 0.0, -3804.557478971181, 0.0, 0.0, 0.0, 0.0, -2728.566852637154, 0.0]
['beep', 0.0, -3808.647848206502, 0.0, 0.0, 0.0, 0.0, -2756.6182919285648, 0.0]
['beep', 0.0, -3806.7032464388903, 0.0, 0.0, 0.0, 0.0, -2751.991480826316, 0.0]
['beep', 0.0, -3800.489461480315, 0.0, 0.0, 0.0, 0.0, -2720.1402449775037, 0.0]
['beep', 0.0, -3802.6128772035695, 0.0, 0.0, 0.0, 0.0, -2706.6621430709533, 0.0]
['beep', 0.0, -3808.6701999509573, 0.0, 0.0, 0.0, 0.0, -2728.4103904259673, 0.0]
['beep', 0.0, -3812.581755230636, 0.0, 0.0, 0.0, 0.0, -2757.6464721735088, 0.0]
['beep', 0.0, -3808.8266621621447, 0.0, 0.0, 0.0, 0.0, -2753.1537715379923, 0.0]
['beep', 0.0, -3802.501118481293, 0.0, 0.0, 0.0, 0.0, -2721.8613293005624, 0.0]
['beep', 0.0, -3801.4058830029826, 0.0, 0.0, 0.0, 0.0, -2706.6174395820426, 0.0]
['beep', 0.0, -3807.709074939379, 0.0, 0.0, 0.0, 0.0, -2728.25392821478, 0.0]
['beep', 0.0, -3811.8664994080664, 0.0, 0.0, 0.0, 0.0, -2757.847637873607, 0.0]
['beep', 0.0, -3806.166804571963, 0.0, 0.0, 0.0, 0.0, -2753.7572686382855, 0.0]
['beep', 0.0, -3798.7683771572565, 0.0, 0.0, 0.0, 0.0, -2722.0177915117492, 0.0]
['beep', 0.0, -3797.986066101321, 0.0, 0.0, 0.0, 0.0, -2705.812776781652, 0.0]
['beep', 0.0, -3804.8704033935555, 0.0, 0.0, 0.0, 0.0, -2728.186872981414, 0.0]
['beep', 0.0, -3808.491385995315, 0.0, 0.0, 0.0, 0.0, -2757.6241204290536, 0.0]
['beep', 0.0, -3805.853880149589, 0.0, 0.0, 0.0, 0.0, -2751.9244255929502, 0.0]
['beep', 0.0, -3801.3164760251616, 0.0, 0.0, 0.0, 0.0, -2719.424989154934, 0.0]
['beep', 0.0, -3801.4058830029826, 0.0, 0.0, 0.0, 0.0, -2704.717541303342, 0.0]
['beep', 0.0, -3806.2115080608737, 0.0, 0.0, 0.0, 0.0, -2727.4045619254784, 0.0]
['beep', 0.0, -3810.5030429962926, 0.0, 0.0, 0.0, 0.0, -2758.3617279960786, 0.0]
['beep', 0.0, -3808.491385995315, 0.0, 0.0, 0.0, 0.0, -2755.3889459835227, 0.0]
['beep', 0.0, -3799.9306678689327, 0.0, 0.0, 0.0, 0.0, -2724.029448512727, 0.0]
['beep', 0.0, -3798.4554527348823, 0.0, 0.0, 0.0, 0.0, -2707.936192504906, 0.0]
['beep', 0.0, -3804.780996415734, 0.0, 0.0, 0.0, 0.0, -2728.7233148483415, 0.0]
['beep', 0.0, -3808.759606928779, 0.0, 0.0, 0.0, 0.0, -2757.0653268176707, 0.0]
['beep', 0.0, -3803.9986853597984, 0.0, 0.0, 0.0, 0.0, -2754.092544805115, 0.0]
['beep', 0.0, -3799.0365980907204, 0.0, 0.0, 0.0, 0.0, -2721.749570578286, 0.0]
['beep', 0.0, -3797.4719759788486, 0.0, 0.0, 0.0, 0.0, -2707.332695404613, 0.0]
['beep', 0.0, -3803.3728365150496, 0.0, 0.0, 0.0, 0.0, -2728.2762799592356, 0.0]
['beep', 0.0, -3809.1619383289744, 0.0, 0.0, 0.0, 0.0, -2757.7805826402405, 0.0]
['beep', 0.0, -3804.803348160189, 0.0, 0.0, 0.0, 0.0, -2754.293710505213, 0.0]
['beep', 0.0, -3798.65661843498, 0.0, 0.0, 0.0, 0.0, -2723.1577304789703, 0.0]
['beep', 0.0, -3797.4719759788486, 0.0, 0.0, 0.0, 0.0, -2706.4386256264, 0.0]
['beep', 0.0, -3803.529298726237, 0.0, 0.0, 0.0, 0.0, -2727.5610241366658, 0.0]
['beep', 0.0, -3808.13375808403, 0.0, 0.0, 0.0, 0.0, -2756.7300506508413, 0.0]
['beep', 0.0, -3804.803348160189, 0.0, 0.0, 0.0, 0.0, -2753.8243238716514, 0.0]
['beep', 0.0, -3798.8354323906224, 0.0, 0.0, 0.0, 0.0, -2722.4424746564, 0.0]
['beep', 0.0, -3798.1201765680526, 0.0, 0.0, 0.0, 0.0, -2706.1480529484816, 0.0]
['beep', 0.0, -3804.691589437913, 0.0, 0.0, 0.0, 0.0, -2727.605727625576, 0.0]
['beep', 0.0, -3809.653676706991, 0.0, 0.0, 0.0, 0.0, -2757.7582308957853, 0.0]
['beep', 0.0, -3807.664371450469, 0.0, 0.0, 0.0, 0.0, -2755.4336494724334, 0.0]
['beep', 0.0, -3801.8976213809997, 0.0, 0.0, 0.0, 0.0, -2722.643640356498, 0.0]
['beep', 0.0, -3801.0706068361533, 0.0, 0.0, 0.0, 0.0, -2706.0809977151152, 0.0]
['beep', 0.0, -3807.0608743501753, 0.0, 0.0, 0.0, 0.0, -2727.806893325674, 0.0]
['beep', 0.0, -3811.7770924302454, 0.0, 0.0, 0.0, 0.0, -2758.0264518292493, 0.0]
['beep', 0.0, -3807.105577839086, 0.0, 0.0, 0.0, 0.0, -2754.83015237214, 0.0]
['beep', 0.0, -3801.0259033472425, 0.0, 0.0, 0.0, 0.0, -2723.2694892012464, 0.0]
['beep', 0.0, -3799.0813015796307, 0.0, 0.0, 0.0, 0.0, -2706.684494815409, 0.0]
['beep', 0.0, -3805.138624327019, 0.0, 0.0, 0.0, 0.0, -2728.566852637154, 0.0]
['beep', 0.0, -3809.8995458959994, 0.0, 0.0, 0.0, 0.0, -2760.6863094194305, 0.0]
['beep', 0.0, -3805.5186039827595, 0.0, 0.0, 0.0, 0.0, -2759.2334460298357, 0.0]
['beep', 0.0, -3801.0259033472425, 0.0, 0.0, 0.0, 0.0, -2725.929346791428, 0.0]
['beep', 0.0, -3804.915106882466, 0.0, 0.0, 0.0, 0.0, -2709.411407638956, 0.0]
['beep', 0.0, -3813.9005081534992, 0.0, 0.0, 0.0, 0.0, -2729.706791604375, 0.0]
['beep', 0.0, -3820.360162301083, 0.0, 0.0, 0.0, 0.0, -2759.456963474389, 0.0]
['beep', 0.0, -3818.884947167033, 0.0, 0.0, 0.0, 0.0, -2757.847637873607, 0.0]
['beep', 0.0, -3812.2241273193513, 0.0, 0.0, 0.0, 0.0, -2728.231576470325, 0.0]
['beep', 0.0, -3810.7712639297565, 0.0, 0.0, 0.0, 0.0, -2712.540651862699, 0.0]
['beep', 0.0, -3817.5438424997146, 0.0, 0.0, 0.0, 0.0, -2732.3666491945564, 0.0]
['beep', 0.0, -3820.427217534449, 0.0, 0.0, 0.0, 0.0, -2761.9380071089276, 0.0]
['beep', 0.0, -3817.2756215662507, 0.0, 0.0, 0.0, 0.0, -2759.479315218844, 0.0]
['beep', 0.0, -3810.234822062829, 0.0, 0.0, 0.0, 0.0, -2727.672782858942, 0.0]
['beep', 0.0, -3809.653676706991, 0.0, 0.0, 0.0, 0.0, -2712.58535535161, 0.0]
['beep', 0.0, -3815.7109994543794, 0.0, 0.0, 0.0, 0.0, -2730.7573235937743, 0.0]
['beep', 0.0, -3819.4437407784158, 0.0, 0.0, 0.0, 0.0, -2759.9487018524055, 0.0]
['beep', 0.0, -3815.331019798639, 0.0, 0.0, 0.0, 0.0, -2758.5852454406318, 0.0]
['beep', 0.0, -3808.5807929731363, 0.0, 0.0, 0.0, 0.0, -2727.7174863478526, 0.0]
['beep', 0.0, -3807.686723194924, 0.0, 0.0, 0.0, 0.0, -2709.634925083509, 0.0]
['beep', 0.0, -3814.6828192094354, 0.0, 0.0, 0.0, 0.0, -2730.802027082685, 0.0]
['beep', 0.0, -3818.9520024003987, 0.0, 0.0, 0.0, 0.0, -2761.0439373307154, 0.0]
['beep', 0.0, -3816.7615314437785, 0.0, 0.0, 0.0, 0.0, -2760.0381088302265, 0.0]
['beep', 0.0, -3811.240650563318, 0.0, 0.0, 0.0, 0.0, -2728.611556126065, 0.0]
['beep', 0.0, -3810.391284274016, 0.0, 0.0, 0.0, 0.0, -2711.1771954509254, 0.0]
['beep', 0.0, -3816.8956419105107, 0.0, 0.0, 0.0, 0.0, -2729.550329393188, 0.0]
['beep', 0.0, -3821.790673946223, 0.0, 0.0, 0.0, 0.0, -2760.127515808048, 0.0]
['beep', 0.0, -3819.086112867131, 0.0, 0.0, 0.0, 0.0, -2758.9875768408274, 0.0]
['beep', 0.0, -3812.3135342971727, 0.0, 0.0, 0.0, 0.0, -2728.097466003593, 0.0]
['beep', 0.0, -3811.1288918410414, 0.0, 0.0, 0.0, 0.0, -2710.7525123062746, 0.0]
['beep', 0.0, -3816.6721244659575, 0.0, 0.0, 0.0, 0.0, -2731.6513933719866, 0.0]
['beep', 0.0, -3822.4835780243375, 0.0, 0.0, 0.0, 0.0, -2762.07211757566, 0.0]
['beep', 0.0, -3819.711961711879, 0.0, 0.0, 0.0, 0.0, -2761.4015652420003, 0.0]
['beep', 0.0, -3810.1677668294633, 0.0, 0.0, 0.0, 0.0, -2729.3044602041796, 0.0]
['beep', 0.0, -3809.8771941515442, 0.0, 0.0, 0.0, 0.0, -2710.5289948617215, 0.0]
['beep', 0.0, -3815.554537243192, 0.0, 0.0, 0.0, 0.0, -2730.1091230045704, 0.0]
['beep', 0.0, -3820.13664485653, 0.0, 0.0, 0.0, 0.0, -2758.9205216074615, 0.0]
['beep', 0.0, -3817.074455866153, 0.0, 0.0, 0.0, 0.0, -2758.4511349739, 0.0]
['beep', 0.0, -3808.9384208844212, 0.0, 0.0, 0.0, 0.0, -2728.3880386815117, 0.0]
['beep', 0.0, -3807.776130172745, 0.0, 0.0, 0.0, 0.0, -2710.640753583998, 0.0]
['beep', 0.0, -3815.5098337542813, 0.0, 0.0, 0.0, 0.0, -2729.7514950932855, 0.0]
['beep', 0.0, -3821.075418123653, 0.0, 0.0, 0.0, 0.0, -2761.2674547752686, 0.0]
['beep', 0.0, -3818.728484955846, 0.0, 0.0, 0.0, 0.0, -2760.798068141707, 0.0]
['beep', 0.0, -3810.883022652033, 0.0, 0.0, 0.0, 0.0, -2730.9137858049617, 0.0]
['beep', 0.0, -3811.0841883521307, 0.0, 0.0, 0.0, 0.0, -2712.8535762850734, 0.0]
['beep', 0.0, -3818.2590983222844, 0.0, 0.0, 0.0, 0.0, -2731.673745116442, 0.0]
['beep', 0.0, -3822.394171046516, 0.0, 0.0, 0.0, 0.0, -2763.2791117762463, 0.0]
['beep', 0.0, -3818.8625954225777, 0.0, 0.0, 0.0, 0.0, -2762.83207688714, 0.0]
['beep', 0.0, -3812.4252930194493, 0.0, 0.0, 0.0, 0.0, -2730.77967533823, 0.0]
['beep', 0.0, -3811.4641680078707, 0.0, 0.0, 0.0, 0.0, -2712.8535762850734, 0.0]
['beep', 0.0, -3815.822758176656, 0.0, 0.0, 0.0, 0.0, -2733.2607189727687, 0.0]
['beep', 0.0, -3821.097769868108, 0.0, 0.0, 0.0, 0.0, -2763.6590914319863, 0.0]
['beep', 0.0, -3817.499139010804, 0.0, 0.0, 0.0, 0.0, -2762.407393742489, 0.0]
['beep', 0.0, -3810.011304618276, 0.0, 0.0, 0.0, 0.0, -2732.411352683467, 0.0]
['beep', 0.0, -3807.172633072452, 0.0, 0.0, 0.0, 0.0, -2713.8147012966515, 0.0]
['beep', 0.0, -3815.107502354086, 0.0, 0.0, 0.0, 0.0, -2733.126608506037, 0.0]
['beep', 0.0, -3818.6614297224796, 0.0, 0.0, 0.0, 0.0, -2762.2509315313023, 0.0]
['beep', 0.0, -3814.3475430426056, 0.0, 0.0, 0.0, 0.0, -2763.1673530539697, 0.0]
['beep', 0.0, -3808.0890545951197, 0.0, 0.0, 0.0, 0.0, -2732.545463150199, 0.0]
['beep', 0.0, -3806.591487716614, 0.0, 0.0, 0.0, 0.0, -2714.0605704856603, 0.0]
['beep', 0.0, -3812.693513952913, 0.0, 0.0, 0.0, 0.0, -2734.3336027066234, 0.0]
['beep', 0.0, -3818.482615766837, 0.0, 0.0, 0.0, 0.0, -2763.681443176442, 0.0]
['beep', 0.0, -3816.3592000435833, 0.0, 0.0, 0.0, 0.0, -2762.2509315313023, 0.0]
['beep', 0.0, -3810.391284274016, 0.0, 0.0, 0.0, 0.0, -2731.5843381386208, 0.0]
['beep', 0.0, -3808.781958673234, 0.0, 0.0, 0.0, 0.0, -2712.808872796163, 0.0]
['beep', 0.0, -3816.0462756212087, 0.0, 0.0, 0.0, 0.0, -2730.511454404766, 0.0]
['beep', 0.0, -3821.298935568206, 0.0, 0.0, 0.0, 0.0, -2760.64160593052, 0.0]
['beep', 0.0, -3818.884947167033, 0.0, 0.0, 0.0, 0.0, -2761.9156553644725, 0.0]
['beep', 0.0, -3811.620630219058, 0.0, 0.0, 0.0, 0.0, -2731.4949311607998, 0.0]
['beep', 0.0, -3809.2066418178847, 0.0, 0.0, 0.0, 0.0, -2713.613535596554, 0.0]
['beep', 0.0, -3815.6662959654686, 0.0, 0.0, 0.0, 0.0, -2733.484236417322, 0.0]
['beep', 0.0, -3821.6118599905803, 0.0, 0.0, 0.0, 0.0, -2763.703794920897, 0.0]
['beep', 0.0, -3818.9743541448543, 0.0, 0.0, 0.0, 0.0, -2765.156658310492, 0.0]
['beep', 0.0, -3809.9666011293652, 0.0, 0.0, 0.0, 0.0, -2733.394829439501, 0.0]
['beep', 0.0, -3807.41850226146, 0.0, 0.0, 0.0, 0.0, -2715.0216954972384, 0.0]
['beep', 0.0, -3815.5768889876476, 0.0, 0.0, 0.0, 0.0, -2733.5512916506877, 0.0]
['beep', 0.0, -3819.2872785672284, 0.0, 0.0, 0.0, 0.0, -2763.5920361986205, 0.0]
['beep', 0.0, -3816.940345399421, 0.0, 0.0, 0.0, 0.0, -2764.2178850433693, 0.0]
['beep', 0.0, -3808.714903439868, 0.0, 0.0, 0.0, 0.0, -2734.1100852620707, 0.0]
['beep', 0.0, -3807.9996476172983, 0.0, 0.0, 0.0, 0.0, -2713.4570733853666, 0.0]
['beep', 0.0, -3814.861633165078, 0.0, 0.0, 0.0, 0.0, -2731.092599760604, 0.0]
['beep', 0.0, -3819.7343134563343, 0.0, 0.0, 0.0, 0.0, -2761.35686175309, 0.0]
['beep', 0.0, -3816.6721244659575, 0.0, 0.0, 0.0, 0.0, -2762.5862076981316, 0.0]
['beep', 0.0, -3809.8324906626335, 0.0, 0.0, 0.0, 0.0, -2732.7242771058413, 0.0]
['beep', 0.0, -3808.647848206502, 0.0, 0.0, 0.0, 0.0, -2713.322962918635, 0.0]
['beep', 0.0, -3815.1522058429964, 0.0, 0.0, 0.0, 0.0, -2732.187835238914, 0.0]
['beep', 0.0, -3820.494272767815, 0.0, 0.0, 0.0, 0.0, -2763.256760031791, 0.0]
['beep', 0.0, -3816.47095876586, 0.0, 0.0, 0.0, 0.0, -2764.2402367878244, 0.0]
['beep', 0.0, -3809.4525110068935, 0.0, 0.0, 0.0, 0.0, -2733.707753861875, 0.0]
['beep', 0.0, -3807.619667961558, 0.0, 0.0, 0.0, 0.0, -2713.479425129822, 0.0]
['beep', 0.0, -3813.587583731125, 0.0, 0.0, 0.0, 0.0, -2731.6290416275315, 0.0]
['beep', 0.0, -3818.817891933667, 0.0, 0.0, 0.0, 0.0, -2764.351995510101, 0.0]
['beep', 0.0, -3816.47095876586, 0.0, 0.0, 0.0, 0.0, -2766.6542251889978, 0.0]
['beep', 0.0, -3808.714903439868, 0.0, 0.0, 0.0, 0.0, -2735.5853003961206, 0.0]
['beep', 0.0, -3807.329095283639, 0.0, 0.0, 0.0, 0.0, -2716.541614120199, 0.0]
['beep', 0.0, -3814.4145982759715, 0.0, 0.0, 0.0, 0.0, -2734.06538177316, 0.0]
['beep', 0.0, -3819.2872785672284, 0.0, 0.0, 0.0, 0.0, -2764.1508298100034, 0.0]
['beep', 0.0, -3815.554537243192, 0.0, 0.0, 0.0, 0.0, -2765.4919344773216, 0.0]
['beep', 0.0, -3809.8324906626335, 0.0, 0.0, 0.0, 0.0, -2734.5347684067215, 0.0]
['beep', 0.0, -3807.619667961558, 0.0, 0.0, 0.0, 0.0, -2714.3734949080344, 0.0]
['beep', 0.0, -3813.6993424534016, 0.0, 0.0, 0.0, 0.0, -2732.2101869833696, 0.0]
['beep', 0.0, -3819.555499500692, 0.0, 0.0, 0.0, 0.0, -2763.1673530539697, 0.0]
['beep', 0.0, -3817.521490755259, 0.0, 0.0, 0.0, 0.0, -2765.35782401059, 0.0]
['beep', 0.0, -3808.8937173955105, 0.0, 0.0, 0.0, 0.0, -2735.674707373942, 0.0]
['beep', 0.0, -3807.5749644726475, 0.0, 0.0, 0.0, 0.0, -2715.87106178654, 0.0]
['beep', 0.0, -3812.4252930194493, 0.0, 0.0, 0.0, 0.0, -2732.746628850297, 0.0]
['beep', 0.0, -3817.588545988625, 0.0, 0.0, 0.0, 0.0, -2763.346167009612, 0.0]
['beep', 0.0, -3813.7440459423124, 0.0, 0.0, 0.0, 0.0, -2765.715451921875, 0.0]
['beep', 0.0, -3807.2173365613626, 0.0, 0.0, 0.0, 0.0, -2734.735934106819, 0.0]
['beep', 0.0, -3806.524432483248, 0.0, 0.0, 0.0, 0.0, -2713.479425129822, 0.0]
['beep', 0.0, -3813.788749431223, 0.0, 0.0, 0.0, 0.0, -2730.712620104864, 0.0]
['beep', 0.0, -3818.7061332113904, 0.0, 0.0, 0.0, 0.0, -2762.2509315313023, 0.0]
['beep', 0.0, -3816.6497727215024, 0.0, 0.0, 0.0, 0.0, -2765.223713543858, 0.0]
['beep', 0.0, -3809.7654354292677, 0.0, 0.0, 0.0, 0.0, -2735.16061725147, 0.0]
['beep', 0.0, -3806.591487716614, 0.0, 0.0, 0.0, 0.0, -2715.446378641889, 0.0]
['beep', 0.0, -3813.0287901197426, 0.0, 0.0, 0.0, 0.0, -2732.25489047228, 0.0]
['beep', 0.0, -3820.2931070677173, 0.0, 0.0, 0.0, 0.0, -2764.374347254556, 0.0]
['beep', 0.0, -3816.8509384216, 0.0, 0.0, 0.0, 0.0, -2766.050728088704, 0.0]
['beep', 0.0, -3810.1007115960974, 0.0, 0.0, 0.0, 0.0, -2735.607652140576, 0.0]
['beep', 0.0, -3807.1279295835416, 0.0, 0.0, 0.0, 0.0, -2716.3180966756463, 0.0]
['beep', 0.0, -3812.7605691862786, 0.0, 0.0, 0.0, 0.0, -2732.456056172378, 0.0]
['beep', 0.0, -3818.3485053001054, 0.0, 0.0, 0.0, 0.0, -2762.2732832757574, 0.0]
['beep', 0.0, -3814.816929676167, 0.0, 0.0, 0.0, 0.0, -2767.056556589193, 0.0]
['beep', 0.0, -3809.2066418178847, 0.0, 0.0, 0.0, 0.0, -2736.904053318984, 0.0]
['beep', 0.0, -3809.4748627513486, 0.0, 0.0, 0.0, 0.0, -2715.5581373641658, 0.0]
['beep', 0.0, -3816.0686273656643, 0.0, 0.0, 0.0, 0.0, -2732.411352683467, 0.0]
['beep', 0.0, -3820.114293112075, 0.0, 0.0, 0.0, 0.0, -2764.3966989990117, 0.0]
['beep', 0.0, -3817.074455866153, 0.0, 0.0, 0.0, 0.0, -2766.1624868109807, 0.0]
['beep', 0.0, -3810.8383191631224, 0.0, 0.0, 0.0, 0.0, -2736.5911288966095, 0.0]
['beep', 0.0, -3809.7654354292677, 0.0, 0.0, 0.0, 0.0, -2716.675724586931, 0.0]
['beep', 0.0, -3816.269793065762, 0.0, 0.0, 0.0, 0.0, -2733.0148497837604, 0.0]
['beep', 0.0, -3820.784845445734, 0.0, 0.0, 0.0, 0.0, -2765.1119548215815, 0.0]
['beep', 0.0, -3817.6779529664464, 0.0, 0.0, 0.0, 0.0, -2767.7941641562184, 0.0]
['beep', 0.0, -3810.883022652033, 0.0, 0.0, 0.0, 0.0, -2737.2169777413583, 0.0]
['beep', 0.0, -3810.1007115960974, 0.0, 0.0, 0.0, 0.0, -2717.5697943651435, 0.0]
['beep', 0.0, -3817.141511099519, 0.0, 0.0, 0.0, 0.0, -2735.071210273649, 0.0]
['beep', 0.0, -3821.790673946223, 0.0, 0.0, 0.0, 0.0, -2766.944797866917, 0.0]
['beep', 0.0, -3820.650734979002, 0.0, 0.0, 0.0, 0.0, -2770.2975595352127, 0.0]
['beep', 0.0, -3812.7382174418235, 0.0, 0.0, 0.0, 0.0, -2740.3685737095566, 0.0]
['beep', 0.0, -3810.011304618276, 0.0, 0.0, 0.0, 0.0, -2719.670858343942, 0.0]
['beep', 0.0, -3815.465130265371, 0.0, 0.0, 0.0, 0.0, -2736.121742263048, 0.0]
['beep', 0.0, -3819.4437407784158, 0.0, 0.0, 0.0, 0.0, -2767.414184500478, 0.0]
['beep', 0.0, -3817.3203250551614, 0.0, 0.0, 0.0, 0.0, -2770.4316700019444, 0.0]
['beep', 0.0, -3817.0074006327873, 0.0, 0.0, 0.0, 0.0, -2733.0148497837604, 0.0]
['beep', 0.0, -3823.020019891265, 0.0, 0.0, 0.0, 0.0, -2762.8544286315955, 0.0]
['beep', 0.0, -3818.817891933667, 0.0, 0.0, 0.0, 0.0, -2768.867047890073, 0.0]
['beep', 0.0, -3812.268830808262, 0.0, 0.0, 0.0, 0.0, -2739.005117297783, 0.0]
['beep', 0.0, -3811.1288918410414, 0.0, 0.0, 0.0, 0.0, -2717.033352498216, 0.0]
['beep', 0.0, -3817.8344151776337, 0.0, 0.0, 0.0, 0.0, -2731.472579416344, 0.0]
['beep', 0.0, -3822.371819302061, 0.0, 0.0, 0.0, 0.0, -2763.1450013095146, 0.0]
['beep', 0.0, -3819.488444267326, 0.0, 0.0, 0.0, 0.0, -2766.5201147222656, 0.0]
['beep', 0.0, -3812.291182552717, 0.0, 0.0, 0.0, 0.0, -2738.736896364319, 0.0]
['beep', 0.0, -3810.0560081071867, 0.0, 0.0, 0.0, 0.0, -2717.100407731582, 0.0]
['beep', 0.0, -3815.3757232875496, 0.0, 0.0, 0.0, 0.0, -2732.5231114057437, 0.0]
['beep', 0.0, -3819.779016945245, 0.0, 0.0, 0.0, 0.0, -2763.9273123654502, 0.0]
['beep', 0.0, -3818.169691344463, 0.0, 0.0, 0.0, 0.0, -2768.509419978788, 0.0]
['beep', 0.0, -3811.665333707969, 0.0, 0.0, 0.0, 0.0, -2740.4356289429224, 0.0]
['beep', 0.0, -3809.5195662402593, 0.0, 0.0, 0.0, 0.0, -2719.1791199659256, 0.0]
['beep', 0.0, -3815.2192610763627, 0.0, 0.0, 0.0, 0.0, -2734.1771404954366, 0.0]
['beep', 0.0, -3820.717790212368, 0.0, 0.0, 0.0, 0.0, -2765.02254784376, 0.0]
['beep', 0.0, -3816.6497727215024, 0.0, 0.0, 0.0, 0.0, -2770.7222426798635, 0.0]
['beep', 0.0, -3810.5477464852033, 0.0, 0.0, 0.0, 0.0, -2743.4978179332993, 0.0]
['beep', 0.0, -3809.720731940357, 0.0, 0.0, 0.0, 0.0, -2720.2073002108696, 0.0]
['beep', 0.0, -3815.0851506096305, 0.0, 0.0, 0.0, 0.0, -2733.417181183956, 0.0]
['beep', 0.0, -3819.622554734058, 0.0, 0.0, 0.0, 0.0, -2765.2684170327684, 0.0]
['beep', 0.0, -3817.722656455357, 0.0, 0.0, 0.0, 0.0, -2770.4093182574893, 0.0]
['beep', 0.0, -3811.7323889413346, 0.0, 0.0, 0.0, 0.0, -2741.7320301213304, 0.0]
['beep', 0.0, -3808.983124373332, 0.0, 0.0, 0.0, 0.0, -2719.87202404404, 0.0]
['beep', 0.0, -3812.581755230636, 0.0, 0.0, 0.0, 0.0, -2734.4006579399893, 0.0]
['beep', 0.0, -3820.047237878709, 0.0, 0.0, 0.0, 0.0, -2766.5201147222656, 0.0]
['beep', 0.0, -3817.0297523772424, 0.0, 0.0, 0.0, 0.0, -2771.6833676914416, 0.0]
['beep', 0.0, -3810.32422904065, 0.0, 0.0, 0.0, 0.0, -2741.3967539545006, 0.0]
['beep', 0.0, -3807.5302609837368, 0.0, 0.0, 0.0, 0.0, -2719.089712988104, 0.0]
['beep', 0.0, -3813.140548842019, 0.0, 0.0, 0.0, 0.0, -2734.1994922398917, 0.0]
['beep', 0.0, -3820.2260518343514, 0.0, 0.0, 0.0, 0.0, -2765.938969366428, 0.0]
['beep', 0.0, -3818.0579326221864, 0.0, 0.0, 0.0, 0.0, -2771.4374985024333, 0.0]
['beep', 0.0, -3809.8995458959994, 0.0, 0.0, 0.0, 0.0, -2741.7767336102406, 0.0]
['beep', 0.0, -3808.9607726288764, 0.0, 0.0, 0.0, 0.0, -2719.4696926438446, 0.0]
['beep', 0.0, -3815.465130265371, 0.0, 0.0, 0.0, 0.0, -2735.004155040283, 0.0]
['beep', 0.0, -3821.2318803348403, 0.0, 0.0, 0.0, 0.0, -2767.838867645129, 0.0]
['beep', 0.0, -3817.8344151776337, 0.0, 0.0, 0.0, 0.0, -2773.2032863144027, 0.0]
['beep', 0.0, -3811.598278474603, 0.0, 0.0, 0.0, 0.0, -2743.319003977657, 0.0]
['beep', 0.0, -3808.4466825064046, 0.0, 0.0, 0.0, 0.0, -2720.3414106776013, 0.0]
['beep', 0.0, -3814.235784320329, 0.0, 0.0, 0.0, 0.0, -2734.3112509621683, 0.0]
['beep', 0.0, -3821.3212873126613, 0.0, 0.0, 0.0, 0.0, -2766.2295420443465, 0.0]
['beep', 0.0, -3820.404865789994, 0.0, 0.0, 0.0, 0.0, -2772.5550857251988, 0.0]
['beep', 0.0, -3811.4865197523263, 0.0, 0.0, 0.0, 0.0, -2745.151847022992, 0.0]
['beep', 0.0, -3808.424330761949, 0.0, 0.0, 0.0, 0.0, -2722.7553990787746, 0.0]
['beep', 0.0, -3814.258136064784, 0.0, 0.0, 0.0, 0.0, -2736.5017219187885, 0.0]
['beep', 0.0, -3820.8966041680105, 0.0, 0.0, 0.0, 0.0, -2766.631873444542, 0.0]
['beep', 0.0, -3817.9014704109995, 0.0, 0.0, 0.0, 0.0, -2772.5997892141095, 0.0]
['beep', 0.0, -3810.4583395073823, 0.0, 0.0, 0.0, 0.0, -2744.6154051560648, 0.0]
['beep', 0.0, -3808.267868550762, 0.0, 0.0, 0.0, 0.0, -2722.1519019784814, 0.0]
['beep', 0.0, -3813.8334529201334, 0.0, 0.0, 0.0, 0.0, -2736.099390518593, 0.0]
['beep', 0.0, -3819.0637611226753, 0.0, 0.0, 0.0, 0.0, -2768.0847368341374, 0.0]
['beep', 0.0, -3816.783883188234, 0.0, 0.0, 0.0, 0.0, -2775.036129359738, 0.0]
['beep', 0.0, -3809.0948830956086, 0.0, 0.0, 0.0, 0.0, -2746.2694342457576, 0.0]
['beep', 0.0, -3806.9938191168094, 0.0, 0.0, 0.0, 0.0, -2720.9225560334394, 0.0]
['beep', 0.0, -3812.2241273193513, 0.0, 0.0, 0.0, 0.0, -2734.1771404954366, 0.0]
['beep', 0.0, -3819.622554734058, 0.0, 0.0, 0.0, 0.0, -2765.4248792439557, 0.0]
['beep', 0.0, -3817.94617389991, 0.0, 0.0, 0.0, 0.0, -2772.152754325003, 0.0]
['beep', 0.0, -3812.2241273193513, 0.0, 0.0, 0.0, 0.0, -2745.151847022992, 0.0]
['beep', 0.0, -3809.787787173723, 0.0, 0.0, 0.0, 0.0, -2723.0459717566937, 0.0]
['beep', 0.0, -3813.3417145421167, 0.0, 0.0, 0.0, 0.0, -2735.8535213295845, 0.0]
['beep', 0.0, -3819.846072178611, 0.0, 0.0, 0.0, 0.0, -2766.8553908890954, 0.0]
['beep', 0.0, -3817.655601221991, 0.0, 0.0, 0.0, 0.0, -2774.0526526037042, 0.0]
['beep', 0.0, -3809.586621473625, 0.0, 0.0, 0.0, 0.0, -2746.6047104125873, 0.0]
['beep', 0.0, -3807.5973162171026, 0.0, 0.0, 0.0, 0.0, -2723.0459717566937, 0.0]
['beep', 0.0, -3814.951040142899, 0.0, 0.0, 0.0, 0.0, -2735.1382655070147, 0.0]
['beep', 0.0, -3820.807197190189, 0.0, 0.0, 0.0, 0.0, -2767.1683153114695, 0.0]
['beep', 0.0, -3818.750836700301, 0.0, 0.0, 0.0, 0.0, -2774.5667427261765, 0.0]
['beep', 0.0, -3810.234822062829, 0.0, 0.0, 0.0, 0.0, -2746.82822785714, 0.0]
['beep', 0.0, -3807.37379877255, 0.0, 0.0, 0.0, 0.0, -2722.2413089563024, 0.0]
['beep', 0.0, -3813.4534732643933, 0.0, 0.0, 0.0, 0.0, -2734.668878873453, 0.0]
['beep', 0.0, -3819.555499500692, 0.0, 0.0, 0.0, 0.0, -2764.8884373770284, 0.0]
['beep', 0.0, -3818.236746577829, 0.0, 0.0, 0.0, 0.0, -2771.4598502468884, 0.0]
['beep', 0.0, -3811.173595329952, 0.0, 0.0, 0.0, 0.0, -2744.548349922699, 0.0]
['beep', 0.0, -3809.2513453067954, 0.0, 0.0, 0.0, 0.0, -2720.743742077797, 0.0]
['beep', 0.0, -3815.2192610763627, 0.0, 0.0, 0.0, 0.0, -2733.2830707172243, 0.0]
['beep', 0.0, -3820.6730867234573, 0.0, 0.0, 0.0, 0.0, -2764.5084577212883, 0.0]
['beep', 0.0, -3819.5107960117816, 0.0, 0.0, 0.0, 0.0, -2770.2081525573913, 0.0]
['beep', 0.0, -3812.0676651081644, 0.0, 0.0, 0.0, 0.0, -2743.0731347886485, 0.0]
['beep', 0.0, -3810.1677668294633, 0.0, 0.0, 0.0, 0.0, -2719.87202404404, 0.0]
['beep', 0.0, -3814.258136064784, 0.0, 0.0, 0.0, 0.0, -2732.3666491945564, 0.0]
['beep', 0.0, -3819.086112867131, 0.0, 0.0, 0.0, 0.0, -2765.73780366633, 0.0]
['beep', 0.0, -3817.141511099519, 0.0, 0.0, 0.0, 0.0, -2772.9127136364837, 0.0]
['beep', 0.0, -3811.5088714967815, 0.0, 0.0, 0.0, 0.0, -2745.3306609786346, 0.0]
['beep', 0.0, -3808.2231650618514, 0.0, 0.0, 0.0, 0.0, -2721.1684252224477, 0.0]
['beep', 0.0, -3812.268830808262, 0.0, 0.0, 0.0, 0.0, -2733.6630503729643, 0.0]
['beep', 0.0, -3818.2143948333737, 0.0, 0.0, 0.0, 0.0, -2766.631873444542, 0.0]
['beep', 0.0, -3818.817891933667, 0.0, 0.0, 0.0, 0.0, -2771.3927950135226, 0.0]
['beep', 0.0, -3811.2182988188624, 0.0, 0.0, 0.0, 0.0, -2742.4696376883553, 0.0]
['beep', 0.0, -3808.5360894842256, 0.0, 0.0, 0.0, 0.0, -2718.9332507769172, 0.0]
['beep', 0.0, -3814.571060487159, 0.0, 0.0, 0.0, 0.0, -2732.836035828118, 0.0]
['beep', 0.0, -3821.9024326684994, 0.0, 0.0, 0.0, 0.0, -2764.1061263210927, 0.0]
['beep', 0.0, -3820.069589623164, 0.0, 0.0, 0.0, 0.0, -2772.3315682806456, 0.0]
['beep', 0.0, -3812.693513952913, 0.0, 0.0, 0.0, 0.0, -2745.3977162120004, 0.0]
['beep', 0.0, -3809.005476117787, 0.0, 0.0, 0.0, 0.0, -2722.1966054673917, 0.0]
['beep', 0.0, -3814.146377342508, 0.0, 0.0, 0.0, 0.0, -2735.6300038850313, 0.0]
['beep', 0.0, -3821.2318803348403, 0.0, 0.0, 0.0, 0.0, -2766.1177833220704, 0.0]
['beep', 0.0, -3818.0579326221864, 0.0, 0.0, 0.0, 0.0, -2772.532733980743, 0.0]
['beep', 0.0, -3811.4641680078707, 0.0, 0.0, 0.0, 0.0, -2746.180027267936, 0.0]
['beep', 0.0, -3810.614801718569, 0.0, 0.0, 0.0, 0.0, -2720.5202246332437, 0.0]
['beep', 0.0, -3814.571060487159, 0.0, 0.0, 0.0, 0.0, -2731.807855583174, 0.0]
['beep', 0.0, -3821.1201216125637, 0.0, 0.0, 0.0, 0.0, -2763.6590914319863, 0.0]
['beep', 0.0, -3820.717790212368, 0.0, 0.0, 0.0, 0.0, -2771.8174781581733, 0.0]
['beep', 0.0, -3814.571060487159, 0.0, 0.0, 0.0, 0.0, -2745.2636057452687, 0.0]
['beep', 0.0, -3809.720731940357, 0.0, 0.0, 0.0, 0.0, -2720.5649281221545, 0.0]
['beep', 0.0, -3813.8111011756782, 0.0, 0.0, 0.0, 0.0, -2732.031373027727, 0.0]
['beep', 0.0, -3819.197871589407, 0.0, 0.0, 0.0, 0.0, -2765.4025274995006, 0.0]
['beep', 0.0, -3818.773188444756, 0.0, 0.0, 0.0, 0.0, -2772.2645130472797, 0.0]
['beep', 0.0, -3811.017133118765, 0.0, 0.0, 0.0, 0.0, -2745.5988819120985, 0.0]
['beep', 0.0, -3808.8266621621447, 0.0, 0.0, 0.0, 0.0, -2721.995439767294, 0.0]
['beep', 0.0, -3815.3086680541837, 0.0, 0.0, 0.0, 0.0, -2734.713582362364, 0.0]
['beep', 0.0, -3821.745970457312, 0.0, 0.0, 0.0, 0.0, -2766.698928677908, 0.0]
['beep', 0.0, -3818.5049675112928, 0.0, 0.0, 0.0, 0.0, -2774.3432252816233, 0.0]
['beep', 0.0, -3810.726560440846, 0.0, 0.0, 0.0, 0.0, -2747.5658354241655, 0.0]
['beep', 0.0, -3808.267868550762, 0.0, 0.0, 0.0, 0.0, -2722.353067678579, 0.0]
['beep', 0.0, -3813.006438375287, 0.0, 0.0, 0.0, 0.0, -2733.2383672283136, 0.0]
['beep', 0.0, -3817.879118666544, 0.0, 0.0, 0.0, 0.0, -2765.290768777224, 0.0]
['beep', 0.0, -3817.588545988625, 0.0, 0.0, 0.0, 0.0, -2774.11970783707, 0.0]
['beep', 0.0, -3811.665333707969, 0.0, 0.0, 0.0, 0.0, -2746.738820879319, 0.0]
['beep', 0.0, -3806.8597086500777, 0.0, 0.0, 0.0, 0.0, -2721.4589979003667, 0.0]
['beep', 0.0, -3812.201775574896, 0.0, 0.0, 0.0, 0.0, -2733.707753861875, 0.0]
['beep', 0.0, -3817.722656455357, 0.0, 0.0, 0.0, 0.0, -2766.4754112333553, 0.0]
['beep', 0.0, -3818.0579326221864, 0.0, 0.0, 0.0, 0.0, -2774.6114462150867, 0.0]
['beep', 0.0, -3811.03948486322, 0.0, 0.0, 0.0, 0.0, -2747.0517453016932, 0.0]
['beep', 0.0, -3807.9102406394773, 0.0, 0.0, 0.0, 0.0, -2722.1519019784814, 0.0]
['beep', 0.0, -3812.6711622084576, 0.0, 0.0, 0.0, 0.0, -2734.087733517615, 0.0]
['beep', 0.0, -3820.13664485653, 0.0, 0.0, 0.0, 0.0, -2767.1236118225593, 0.0]
['beep', 0.0, -3819.108464611586, 0.0, 0.0, 0.0, 0.0, -2775.6172747155756, 0.0]
['beep', 0.0, -3810.391284274016, 0.0, 0.0, 0.0, 0.0, -2747.9905185688162, 0.0]
['beep', 0.0, -3807.083226094631, 0.0, 0.0, 0.0, 0.0, -2723.6941723458976, 0.0]
['beep', 0.0, -3812.8946796530104, 0.0, 0.0, 0.0, 0.0, -2734.087733517615, 0.0]
['beep', 0.0, -3820.2931070677173, 0.0, 0.0, 0.0, 0.0, -2765.447230988411, 0.0]
['beep', 0.0, -3817.454435521893, 0.0, 0.0, 0.0, 0.0, -2773.873838648062, 0.0]
['beep', 0.0, -3811.3524092855946, 0.0, 0.0, 0.0, 0.0, -2748.102277291093, 0.0]
['beep', 0.0, -3810.033656362731, 0.0, 0.0, 0.0, 0.0, -2722.375419423034, 0.0]
['beep', 0.0, -3814.615763976069, 0.0, 0.0, 0.0, 0.0, -2732.0760765166374, 0.0]
['beep', 0.0, -3819.175519844952, 0.0, 0.0, 0.0, 0.0, -2764.329643765646, 0.0]
['beep', 0.0, -3819.6672582229685, 0.0, 0.0, 0.0, 0.0, -2773.7173764368745, 0.0]
['beep', 0.0, -3813.1181970975636, 0.0, 0.0, 0.0, 0.0, -2747.3423179796123, 0.0]
['beep', 0.0, -3808.6031447175915, 0.0, 0.0, 0.0, 0.0, -2723.358896179068, 0.0]
['beep', 0.0, -3814.6381157205246, 0.0, 0.0, 0.0, 0.0, -2732.0537247721822, 0.0]
['beep', 0.0, -3821.0307146347423, 0.0, 0.0, 0.0, 0.0, -2763.6590914319863, 0.0]
['beep', 0.0, -3819.622554734058, 0.0, 0.0, 0.0, 0.0, -2773.2032863144027, 0.0]
['beep', 0.0, -3814.4369500204266, 0.0, 0.0, 0.0, 0.0, -2747.118800535059, 0.0]
['beep', 0.0, -3810.4806912518375, 0.0, 0.0, 0.0, 0.0, -2723.4930066457996, 0.0]
['beep', 0.0, -3814.3475430426056, 0.0, 0.0, 0.0, 0.0, -2733.841864328607, 0.0]
['beep', 0.0, -3823.2882408247283, 0.0, 0.0, 0.0, 0.0, -2764.5308094657435, 0.0]
['beep', 0.0, -3820.5166245122705, 0.0, 0.0, 0.0, 0.0, -2773.873838648062, 0.0]
['beep', 0.0, -3812.559403486181, 0.0, 0.0, 0.0, 0.0, -2747.8564081020845, 0.0]
['beep', 0.0, -3811.0618366076756, 0.0, 0.0, 0.0, 0.0, -2721.3025356891794, 0.0]
['beep', 0.0, -3816.6050692325916, 0.0, 0.0, 0.0, 0.0, -2732.746628850297, 0.0]
['beep', 0.0, -3822.014191390776, 0.0, 0.0, 0.0, 0.0, -2765.000196099305, 0.0]
['beep', 0.0, -3820.114293112075, 0.0, 0.0, 0.0, 0.0, -2773.5832659701427, 0.0]
['beep', 0.0, -3813.6099354755806, 0.0, 0.0, 0.0, 0.0, -2746.381192968034, 0.0]
['beep', 0.0, -3809.7430836848125, 0.0, 0.0, 0.0, 0.0, -2721.2801839447243, 0.0]
['beep', 0.0, -3814.302839553695, 0.0, 0.0, 0.0, 0.0, -2732.9924980393052, 0.0]
['beep', 0.0, -3821.164825101474, 0.0, 0.0, 0.0, 0.0, -2764.6202164435645, 0.0]
['beep', 0.0, -3820.6283832345466, 0.0, 0.0, 0.0, 0.0, -2775.103184593104, 0.0]
['beep', 0.0, -3812.917031397466, 0.0, 0.0, 0.0, 0.0, -2747.5211319352547, 0.0]
['beep', 0.0, -3809.4525110068935, 0.0, 0.0, 0.0, 0.0, -2722.1071984895707, 0.0]
['beep', 0.0, -3813.587583731125, 0.0, 0.0, 0.0, 0.0, -2731.807855583174, 0.0]
['beep', 0.0, -3822.751798957801, 0.0, 0.0, 0.0, 0.0, -2763.837905387629, 0.0]
['beep', 0.0, -3822.4835780243375, 0.0, 0.0, 0.0, 0.0, -2773.136231081037, 0.0]
['beep', 0.0, -3807.664371450469, 0.0, 0.0, 0.0, 0.0, -2746.6494139014976, 0.0]
['beep', 0.0, -3801.6070487030806, 0.0, 0.0, 0.0, 0.0, -2721.68251534492, 0.0]
['beep', 0.0, -3803.0152086037647, 0.0, 0.0, 0.0, 0.0, -2731.6960968608973, 0.0]
['beep', 0.0, -3805.3397900271166, 0.0, 0.0, 0.0, 0.0, -2763.703794920897, 0.0]
['beep', 0.0, -3802.367008014561, 0.0, 0.0, 0.0, 0.0, -2774.253818303802, 0.0]
['beep', 0.0, -3791.6158189315584, 0.0, 0.0, 0.0, 0.0, -2750.963300581372, 0.0]
['beep', 0.0, -3786.0055310732764, 0.0, 0.0, 0.0, 0.0, -2724.7670560797524, 0.0]
['beep', 0.0, -3788.5089264522708, 0.0, 0.0, 0.0, 0.0, -2732.6348701280203, 0.0]
['beep', 0.0, -3793.627475932536, 0.0, 0.0, 0.0, 0.0, -2764.441402487922, 0.0]
['beep', 0.0, -3792.5545921986813, 0.0, 0.0, 0.0, 0.0, -2776.0419578602264, 0.0]
['beep', 0.0, -3785.9608275843657, 0.0, 0.0, 0.0, 0.0, -2749.4880854473217, 0.0]
['beep', 0.0, -3783.1668595274523, 0.0, 0.0, 0.0, 0.0, -2721.034314755716, 0.0]
['beep', 0.0, -3785.0891095506086, 0.0, 0.0, 0.0, 0.0, -2732.031373027727, 0.0]
['beep', 0.0, -3793.2921997657063, 0.0, 0.0, 0.0, 0.0, -2764.1731815544586, 0.0]
['beep', 0.0, -3792.8898683655107, 0.0, 0.0, 0.0, 0.0, -2774.9467223819165, 0.0]
['beep', 0.0, -3785.0220543172427, 0.0, 0.0, 0.0, 0.0, -2749.577492425143, 0.0]
['beep', 0.0, -3781.8481066045892, 0.0, 0.0, 0.0, 0.0, -2723.671820601442, 0.0]
['beep', 0.0, -3785.849068862089, 0.0, 0.0, 0.0, 0.0, -2732.701925361386, 0.0]
['beep', 0.0, -3794.1192143105527, 0.0, 0.0, 0.0, 0.0, -2765.648396688509, 0.0]
['beep', 0.0, -3793.113385810064, 0.0, 0.0, 0.0, 0.0, -2776.6007514716093, 0.0]
['beep', 0.0, -3785.3126269951617, 0.0, 0.0, 0.0, 0.0, -2750.2033412698916, 0.0]
['beep', 0.0, -3782.8986385939884, 0.0, 0.0, 0.0, 0.0, -2722.576585123132, 0.0]
['beep', 0.0, -3787.6372084185136, 0.0, 0.0, 0.0, 0.0, -2730.6455648714978, 0.0]
['beep', 0.0, -3792.6439991765023, 0.0, 0.0, 0.0, 0.0, -2763.5249809652546, 0.0]
['beep', 0.0, -3792.375778243039, 0.0, 0.0, 0.0, 0.0, -2776.3995857715113, 0.0]
['beep', 0.0, -3785.849068862089, 0.0, 0.0, 0.0, 0.0, -2750.4939139478106, 0.0]
['beep', 0.0, -3782.4516037048825, 0.0, 0.0, 0.0, 0.0, -2725.1023322465817, 0.0]
['beep', 0.0, -3787.9948363297985, 0.0, 0.0, 0.0, 0.0, -2734.154788750981, 0.0]
['beep', 0.0, -3793.359254999072, 0.0, 0.0, 0.0, 0.0, -2765.4919344773216, 0.0]
['beep', 0.0, -3793.8062898881785, 0.0, 0.0, 0.0, 0.0, -2777.2266003163577, 0.0]
['beep', 0.0, -3786.2514002622847, 0.0, 0.0, 0.0, 0.0, -2752.036184315227, 0.0]
['beep', 0.0, -3782.3845484715166, 0.0, 0.0, 0.0, 0.0, -2724.543538635199, 0.0]
['beep', 0.0, -3785.9608275843657, 0.0, 0.0, 0.0, 0.0, -2735.652355629487, 0.0]
['beep', 0.0, -3791.2134875313627, 0.0, 0.0, 0.0, 0.0, -2769.2693792902687, 0.0]
['beep', 0.0, -3793.5157172102595, 0.0, 0.0, 0.0, 0.0, -2780.0429201177267, 0.0]
['beep', 0.0, -3787.1901735294073, 0.0, 0.0, 0.0, 0.0, -2755.3442424946124, 0.0]
['beep', 0.0, -3783.233914760818, 0.0, 0.0, 0.0, 0.0, -2728.6562596149756, 0.0]
['beep', 0.0, -3788.106595052075, 0.0, 0.0, 0.0, 0.0, -2736.8817015745285, 0.0]
['beep', 0.0, -3796.264981778262, 0.0, 0.0, 0.0, 0.0, -2769.7387659238298, 0.0]
['beep', 0.0, -3793.7392346548127, 0.0, 0.0, 0.0, 0.0, -2782.322798052168, 0.0]
['beep', 0.0, -3787.525449696237, 0.0, 0.0, 0.0, 0.0, -2757.6464721735088, 0.0]
['beep', 0.0, -3783.591542672103, 0.0, 0.0, 0.0, 0.0, -2729.572681137643, 0.0]
['beep', 0.0, -3789.3806444860274, 0.0, 0.0, 0.0, 0.0, -2737.060515530171, 0.0]
['beep', 0.0, -3795.236801533318, 0.0, 0.0, 0.0, 0.0, -2769.448193245911, 0.0]
['beep', 0.0, -3794.946228855399, 0.0, 0.0, 0.0, 0.0, -2782.6804259634528, 0.0]
['beep', 0.0, -3787.9277810964327, 0.0, 0.0, 0.0, 0.0, -2756.3947744840116, 0.0]
['beep', 0.0, -3785.290275250706, 0.0, 0.0, 0.0, 0.0, -2727.6504311144868, 0.0]
['beep', 0.0, -3789.3806444860274, 0.0, 0.0, 0.0, 0.0, -2736.009983540772, 0.0]
['beep', 0.0, -3796.019112589254, 0.0, 0.0, 0.0, 0.0, -2769.247027545813, 0.0]
['beep', 0.0, -3794.9238771109435, 0.0, 0.0, 0.0, 0.0, -2781.4734317628663, 0.0]
['beep', 0.0, -3787.6148566740585, 0.0, 0.0, 0.0, 0.0, -2755.835980872629, 0.0]
['beep', 0.0, -3783.1221560385416, 0.0, 0.0, 0.0, 0.0, -2727.806893325674, 0.0]
['beep', 0.0, -3787.9724845853434, 0.0, 0.0, 0.0, 0.0, -2735.5853003961206, 0.0]
['beep', 0.0, -3794.5662491996586, 0.0, 0.0, 0.0, 0.0, -2768.9788066123497, 0.0]
['beep', 0.0, -3793.113385810064, 0.0, 0.0, 0.0, 0.0, -2781.7416526963298, 0.0]
['beep', 0.0, -3787.1007665515863, 0.0, 0.0, 0.0, 0.0, -2756.7076989063858, 0.0]
['beep', 0.0, -3784.3515019835836, 0.0, 0.0, 0.0, 0.0, -2730.153826493481, 0.0]
['beep', 0.0, -3789.760624141768, 0.0, 0.0, 0.0, 0.0, -2738.2451579863023, 0.0]
['beep', 0.0, -3796.0638160781646, 0.0, 0.0, 0.0, 0.0, -2770.163449068481, 0.0]
['beep', 0.0, -3795.594429444603, 0.0, 0.0, 0.0, 0.0, -2783.283923063746, 0.0]
['beep', 0.0, -3788.486574707815, 0.0, 0.0, 0.0, 0.0, -2757.6688239179643, 0.0]
['beep', 0.0, -3783.8374118611114, 0.0, 0.0, 0.0, 0.0, -2730.3549921935787, 0.0]
['beep', 0.0, -3788.777147385734, 0.0, 0.0, 0.0, 0.0, -2737.8204748416515, 0.0]
['beep', 0.0, -3794.4544904773825, 0.0, 0.0, 0.0, 0.0, -2770.4316700019444, 0.0]
['beep', 0.0, -3793.135737554519, 0.0, 0.0, 0.0, 0.0, -2783.283923063746, 0.0]
['beep', 0.0, -3787.6372084185136, 0.0, 0.0, 0.0, 0.0, -2757.512361706777, 0.0]
['beep', 0.0, -3784.306798494673, 0.0, 0.0, 0.0, 0.0, -2731.4055241829783, 0.0]
['beep', 0.0, -3788.397167729994, 0.0, 0.0, 0.0, 0.0, -2740.25681498728, 0.0]
['beep', 0.0, -3795.4156154889606, 0.0, 0.0, 0.0, 0.0, -2770.3646147685786, 0.0]
['beep', 0.0, -3795.3485602555947, 0.0, 0.0, 0.0, 0.0, -2782.903943408006, 0.0]
['beep', 0.0, -3787.883077607522, 0.0, 0.0, 0.0, 0.0, -2759.0546320741933, 0.0]
['beep', 0.0, -3782.8986385939884, 0.0, 0.0, 0.0, 0.0, -2732.746628850297, 0.0]
['beep', 0.0, -3789.045368319198, 0.0, 0.0, 0.0, 0.0, -2739.250986486791, 0.0]
['beep', 0.0, -3796.242630033807, 0.0, 0.0, 0.0, 0.0, -2769.515248479277, 0.0]
['beep', 0.0, -3795.1250428110416, 0.0, 0.0, 0.0, 0.0, -2782.5239637522654, 0.0]
['beep', 0.0, -3787.1007665515863, 0.0, 0.0, 0.0, 0.0, -2758.227617529347, 0.0]
['beep', 0.0, -3782.8315833606225, 0.0, 0.0, 0.0, 0.0, -2731.0031927827827, 0.0]
['beep', 0.0, -3787.145470040497, 0.0, 0.0, 0.0, 0.0, -2738.513378919766, 0.0]
['beep', 0.0, -3794.5662491996586, 0.0, 0.0, 0.0, 0.0, -2770.543428724221, 0.0]
['beep', 0.0, -3794.9238771109435, 0.0, 0.0, 0.0, 0.0, -2784.155641097503, 0.0]
['beep', 0.0, -3789.917086352955, 0.0, 0.0, 0.0, 0.0, -2759.501666963299, 0.0]
['beep', 0.0, -3785.625551417536, 0.0, 0.0, 0.0, 0.0, -2732.2995939611906, 0.0]
['beep', 0.0, -3789.6041619305806, 0.0, 0.0, 0.0, 0.0, -2738.356916708579, 0.0]
['beep', 0.0, -3797.293162023206, 0.0, 0.0, 0.0, 0.0, -2769.0905653346263, 0.0]
['beep', 0.0, -3796.600257945092, 0.0, 0.0, 0.0, 0.0, -2782.0769288631595, 0.0]
['beep', 0.0, -3789.0677200636533, 0.0, 0.0, 0.0, 0.0, -2758.518190207266, 0.0]
['beep', 0.0, -3784.686778150413, 0.0, 0.0, 0.0, 0.0, -2729.170349737448, 0.0]
['beep', 0.0, -3789.492403208304, 0.0, 0.0, 0.0, 0.0, -2735.719410862853, 0.0]
['beep', 0.0, -3798.8354323906224, 0.0, 0.0, 0.0, 0.0, -2767.4365362449334, 0.0]
['beep', 0.0, -3803.685760937424, 0.0, 0.0, 0.0, 0.0, -2780.4228997734667, 0.0]
['beep', 0.0, -3798.4331009904267, 0.0, 0.0, 0.0, 0.0, -2758.1158588070703, 0.0]
['beep', 0.0, -3795.527374211237, 0.0, 0.0, 0.0, 0.0, -2731.5843381386208, 0.0]
['beep', 0.0, -3798.880135879533, 0.0, 0.0, 0.0, 0.0, -2737.999288797294, 0.0]
['beep', 0.0, -3807.1502813279967, 0.0, 0.0, 0.0, 0.0, -2770.029338601749, 0.0]
['beep', 0.0, -3806.5467842277035, 0.0, 0.0, 0.0, 0.0, -2784.2673998197797, 0.0]
['beep', 0.0, -3799.908316124477, 0.0, 0.0, 0.0, 0.0, -2761.2451030308134, 0.0]
['beep', 0.0, -3796.8237753896447, 0.0, 0.0, 0.0, 0.0, -2733.059553272671, 0.0]
['beep', 0.0, -3799.304819024184, 0.0, 0.0, 0.0, 0.0, -2739.832131842629, 0.0]
['beep', 0.0, -3807.1502813279967, 0.0, 0.0, 0.0, 0.0, -2771.191629313425, 0.0]
['beep', 0.0, -3806.8373569056225, 0.0, 0.0, 0.0, 0.0, -2784.960303897894, 0.0]
['beep', 0.0, -3800.7129789248684, 0.0, 0.0, 0.0, 0.0, -2760.775716397252, 0.0]
['beep', 0.0, -3796.4214439894495, 0.0, 0.0, 0.0, 0.0, -2732.321945705646, 0.0]
['beep', 0.0, -3801.271772536251, 0.0, 0.0, 0.0, 0.0, -2738.714544619864, 0.0]
['beep', 0.0, -3807.9996476172983, 0.0, 0.0, 0.0, 0.0, -2769.4928967348214, 0.0]
['beep', 0.0, -3809.050179606698, 0.0, 0.0, 0.0, 0.0, -2783.194516085925, 0.0]
['beep', 0.0, -3801.539993469715, 0.0, 0.0, 0.0, 0.0, -2760.485143719333, 0.0]
['beep', 0.0, -3798.7013219238906, 0.0, 0.0, 0.0, 0.0, -2733.640698628509, 0.0]
['beep', 0.0, -3802.948153370399, 0.0, 0.0, 0.0, 0.0, -2740.703849876386, 0.0]
['beep', 0.0, -3808.334923784128, 0.0, 0.0, 0.0, 0.0, -2772.2645130472797, 0.0]
['beep', 0.0, -3807.306743539184, 0.0, 0.0, 0.0, 0.0, -2786.480222520855, 0.0]
['beep', 0.0, -3802.2776010367397, 0.0, 0.0, 0.0, 0.0, -2764.5531612101986, 0.0]
['beep', 0.0, -3799.595391702103, 0.0, 0.0, 0.0, 0.0, -2735.965280051861, 0.0]
['beep', 0.0, -3802.232897547829, 0.0, 0.0, 0.0, 0.0, -2740.770905109752, 0.0]
['beep', 0.0, -3810.2124703183736, 0.0, 0.0, 0.0, 0.0, -2772.9797688698495, 0.0]
['beep', 0.0, -3810.234822062829, 0.0, 0.0, 0.0, 0.0, -2789.765928955785, 0.0]
['beep', 0.0, -3804.199851059896, 0.0, 0.0, 0.0, 0.0, -2767.3024257782017, 0.0]
['beep', 0.0, -3798.924839368444, 0.0, 0.0, 0.0, 0.0, -2739.630966142531, 0.0]
['beep', 0.0, -3802.858746392578, 0.0, 0.0, 0.0, 0.0, -2743.766038866763, 0.0]
['beep', 0.0, -3809.56426972917, 0.0, 0.0, 0.0, 0.0, -2774.387928770534, 0.0]
['beep', 0.0, -3808.357275528583, 0.0, 0.0, 0.0, 0.0, -2788.9612661553942, 0.0]
['beep', 0.0, -3802.814042903667, 0.0, 0.0, 0.0, 0.0, -2765.1119548215815, 0.0]
['beep', 0.0, -3798.8130806461672, 0.0, 0.0, 0.0, 0.0, -2737.373439952545, 0.0]
['beep', 0.0, -3802.1211388255524, 0.0, 0.0, 0.0, 0.0, -2742.0226027992494, 0.0]
['beep', 0.0, -3807.776130172745, 0.0, 0.0, 0.0, 0.0, -2772.9127136364837, 0.0]
['beep', 0.0, -3808.021999361754, 0.0, 0.0, 0.0, 0.0, -2786.480222520855, 0.0]
['beep', 0.0, -3801.517641725259, 0.0, 0.0, 0.0, 0.0, -2762.5191524647657, 0.0]
['beep', 0.0, -3796.756720156279, 0.0, 0.0, 0.0, 0.0, -2735.9429283074055, 0.0]
['beep', 0.0, -3800.0647783356644, 0.0, 0.0, 0.0, 0.0, -2742.514341177266, 0.0]
['beep', 0.0, -3807.5526127281923, 0.0, 0.0, 0.0, 0.0, -2774.097356092615, 0.0]
['beep', 0.0, -3809.1619383289744, 0.0, 0.0, 0.0, 0.0, -2788.424824288467, 0.0]
['beep', 0.0, -3802.456414992382, 0.0, 0.0, 0.0, 0.0, -2763.3685187540673, 0.0]
['beep', 0.0, -3796.332037011628, 0.0, 0.0, 0.0, 0.0, -2735.8758730740396, 0.0]
['beep', 0.0, -3799.818909146656, 0.0, 0.0, 0.0, 0.0, -2739.943890564906, 0.0]
['beep', 0.0, -3808.6031447175915, 0.0, 0.0, 0.0, 0.0, -2771.124574080059, 0.0]
['beep', 0.0, -3810.9053743964882, 0.0, 0.0, 0.0, 0.0, -2786.4355190319443, 0.0]
['beep', 0.0, -3805.8762318940444, 0.0, 0.0, 0.0, 0.0, -2764.776678654752, 0.0]
['beep', 0.0, -3799.9306678689327, 0.0, 0.0, 0.0, 0.0, -2736.8146463411626, 0.0]
['beep', 0.0, -3803.082263837131, 0.0, 0.0, 0.0, 0.0, -2742.0449545437045, 0.0]
['beep', 0.0, -3809.050179606698, 0.0, 0.0, 0.0, 0.0, -2775.393757271023, 0.0]
['beep', 0.0, -3809.698380195902, 0.0, 0.0, 0.0, 0.0, -2789.9894464003382, 0.0]
['beep', 0.0, -3802.5458219702036, 0.0, 0.0, 0.0, 0.0, -2766.408355999989, 0.0]
['beep', 0.0, -3797.628438190036, 0.0, 0.0, 0.0, 0.0, -2736.769942852252, 0.0]
['beep', 0.0, -3801.9646766143655, 0.0, 0.0, 0.0, 0.0, -2740.770905109752, 0.0]
['beep', 0.0, -3807.5526127281923, 0.0, 0.0, 0.0, 0.0, -2773.4938589923217, 0.0]
['beep', 0.0, -3808.3125720396724, 0.0, 0.0, 0.0, 0.0, -2789.3635975555894, 0.0]
['beep', 0.0, -3803.1269673260413, 0.0, 0.0, 0.0, 0.0, -2767.190667055925, 0.0]
['beep', 0.0, -3797.7849004012232, 0.0, 0.0, 0.0, 0.0, -2739.2733382312463, 0.0]
['beep', 0.0, -3801.4058830029826, 0.0, 0.0, 0.0, 0.0, -2743.184893510925, 0.0]
['beep', 0.0, -3808.759606928779, 0.0, 0.0, 0.0, 0.0, -2773.4268037589554, 0.0]
['beep', 0.0, -3809.56426972917, 0.0, 0.0, 0.0, 0.0, -2788.469527777377, 0.0]
['beep', 0.0, -3803.1269673260413, 0.0, 0.0, 0.0, 0.0, -2766.4307077444446, 0.0]
['beep', 0.0, -3797.5390312122145, 0.0, 0.0, 0.0, 0.0, -2736.7252393633416, 0.0]
['beep', 0.0, -3800.824737647145, 0.0, 0.0, 0.0, 0.0, -2741.508512676777, 0.0]
['beep', 0.0, -3808.759606928779, 0.0, 0.0, 0.0, 0.0, -2773.247989803313, 0.0]
['beep', 0.0, -3809.720731940357, 0.0, 0.0, 0.0, 0.0, -2789.095376622126, 0.0]
['beep', 0.0, -3803.685760937424, 0.0, 0.0, 0.0, 0.0, -2767.414184500478, 0.0]
['beep', 0.0, -3799.1036533240863, 0.0, 0.0, 0.0, 0.0, -2736.412314940967, 0.0]
['beep', 0.0, -3801.4505864918933, 0.0, 0.0, 0.0, 0.0, -2739.8544835870844, 0.0]
['beep', 0.0, -3809.1172348400637, 0.0, 0.0, 0.0, 0.0, -2771.6833676914416, 0.0]
['beep', 0.0, -3808.983124373332, 0.0, 0.0, 0.0, 0.0, -2788.8495074331177, 0.0]
['beep', 0.0, -3802.1881940589187, 0.0, 0.0, 0.0, 0.0, -2767.257722289291, 0.0]
['beep', 0.0, -3798.209583545874, 0.0, 0.0, 0.0, 0.0, -2736.904053318984, 0.0]
['beep', 0.0, -3801.0035516027874, 0.0, 0.0, 0.0, 0.0, -2740.4132771984673, 0.0]
['beep', 0.0, -3808.13375808403, 0.0, 0.0, 0.0, 0.0, -2772.063347347182, 0.0]
['beep', 0.0, -3809.988952873821, 0.0, 0.0, 0.0, 0.0, -2788.2013068439137, 0.0]
['beep', 0.0, -3803.6634091929686, 0.0, 0.0, 0.0, 0.0, -2767.4365362449334, 0.0]
['beep', 0.0, -3797.7625486567676, 0.0, 0.0, 0.0, 0.0, -2738.289861475213, 0.0]
['beep', 0.0, -3802.232897547829, 0.0, 0.0, 0.0, 0.0, -2741.508512676777, 0.0]
['beep', 0.0, -3808.4690342508597, 0.0, 0.0, 0.0, 0.0, -2772.488030491833, 0.0]
['beep', 0.0, -3809.1172348400637, 0.0, 0.0, 0.0, 0.0, -2787.843678932629, 0.0]
['beep', 0.0, -3803.395188259505, 0.0, 0.0, 0.0, 0.0, -2765.9166176219724, 0.0]
['beep', 0.0, -3800.2212405468513, 0.0, 0.0, 0.0, 0.0, -2738.021640541749, 0.0]
['beep', 0.0, -3805.138624327019, 0.0, 0.0, 0.0, 0.0, -2741.262643487769, 0.0]
['beep', 0.0, -3811.2853540522283, 0.0, 0.0, 0.0, 0.0, -2772.0856990916373, 0.0]
['beep', 0.0, -3811.1288918410414, 0.0, 0.0, 0.0, 0.0, -2788.871859177573, 0.0]
['beep', 0.0, -3803.529298726237, 0.0, 0.0, 0.0, 0.0, -2767.704757178397, 0.0]
['beep', 0.0, -3799.617743446558, 0.0, 0.0, 0.0, 0.0, -2737.619309141554, 0.0]
['beep', 0.0, -3801.830566147634, 0.0, 0.0, 0.0, 0.0, -2740.234463242825, 0.0]
['beep', 0.0, -3809.2289935623403, 0.0, 0.0, 0.0, 0.0, -2770.6551874464976, 0.0]
['beep', 0.0, -3809.4972144958037, 0.0, 0.0, 0.0, 0.0, -2787.9554376549054, 0.0]
['beep', 0.0, -3802.367008014561, 0.0, 0.0, 0.0, 0.0, -2765.313120521679, 0.0]
['beep', 0.0, -3796.555554456181, 0.0, 0.0, 0.0, 0.0, -2735.2723759737464, 0.0]
['beep', 0.0, -3801.137662069519, 0.0, 0.0, 0.0, 0.0, -2739.4745039313443, 0.0]
['beep', 0.0, -3806.9938191168094, 0.0, 0.0, 0.0, 0.0, -2771.92923688045, 0.0]
['beep', 0.0, -3808.111406339575, 0.0, 0.0, 0.0, 0.0, -2787.843678932629, 0.0]
['beep', 0.0, -3800.891792880511, 0.0, 0.0, 0.0, 0.0, -2766.4754112333553, 0.0]
['beep', 0.0, -3796.1308713115304, 0.0, 0.0, 0.0, 0.0, -2736.121742263048, 0.0]
['beep', 0.0, -3800.4224062469493, 0.0, 0.0, 0.0, 0.0, -2739.295689975702, 0.0]
['beep', 0.0, -3808.558441228681, 0.0, 0.0, 0.0, 0.0, -2770.6551874464976, 0.0]
['beep', 0.0, -3809.2513453067954, 0.0, 0.0, 0.0, 0.0, -2787.3295888101566, 0.0]
['beep', 0.0, -3803.0375603482203, 0.0, 0.0, 0.0, 0.0, -2766.2295420443465, 0.0]
['beep', 0.0, -3798.1872318014184, 0.0, 0.0, 0.0, 0.0, -2736.1664457519587, 0.0]
['beep', 0.0, -3800.4447579914045, 0.0, 0.0, 0.0, 0.0, -2738.625137642043, 0.0]
['beep', 0.0, -3806.7703016722567, 0.0, 0.0, 0.0, 0.0, -2768.934103123439, 0.0]
['beep', 0.0, -3808.2231650618514, 0.0, 0.0, 0.0, 0.0, -2786.3461120541233, 0.0]
['beep', 0.0, -3802.456414992382, 0.0, 0.0, 0.0, 0.0, -2766.386004255534, 0.0]
['beep', 0.0, -3797.360217256572, 0.0, 0.0, 0.0, 0.0, -2737.73106786383, 0.0]
['beep', 0.0, -3800.578868458136, 0.0, 0.0, 0.0, 0.0, -2737.7981230971964, 0.0]
['beep', 0.0, -3807.03852260572, 0.0, 0.0, 0.0, 0.0, -2768.3306060231457, 0.0]
['beep', 0.0, -3808.2231650618514, 0.0, 0.0, 0.0, 0.0, -2784.8485451756173, 0.0]
['beep', 0.0, -3801.6964556809016, 0.0, 0.0, 0.0, 0.0, -2764.731975165841, 0.0]
['beep', 0.0, -3797.7849004012232, 0.0, 0.0, 0.0, 0.0, -2734.78063759573, 0.0]
['beep', 0.0, -3799.1483568129966, 0.0, 0.0, 0.0, 0.0, -2737.73106786383, 0.0]
['beep', 0.0, -3806.5691359721586, 0.0, 0.0, 0.0, 0.0, -2768.799992656707, 0.0]
['beep', 0.0, -3807.75377842829, 0.0, 0.0, 0.0, 0.0, -2786.3908155430336, 0.0]
['beep', 0.0, -3800.9588481138767, 0.0, 0.0, 0.0, 0.0, -2765.73780366633, 0.0]
['beep', 0.0, -3796.4884992228153, 0.0, 0.0, 0.0, 0.0, -2735.7864660962186, 0.0]
['beep', 0.0, -3800.332999269128, 0.0, 0.0, 0.0, 0.0, -2739.094524275604, 0.0]
['beep', 0.0, -3808.111406339575, 0.0, 0.0, 0.0, 0.0, -2769.9846351128385, 0.0]
['beep', 0.0, -3809.430159262438, 0.0, 0.0, 0.0, 0.0, -2786.9943126433272, 0.0]
['beep', 0.0, -3802.232897547829, 0.0, 0.0, 0.0, 0.0, -2766.7883356557295, 0.0]
['beep', 0.0, -3797.717845167857, 0.0, 0.0, 0.0, 0.0, -2737.0828672746266, 0.0]
['beep', 0.0, -3802.6352289480246, 0.0, 0.0, 0.0, 0.0, -2740.25681498728, 0.0]
['beep', 0.0, -3808.044351106209, 0.0, 0.0, 0.0, 0.0, -2770.878704891051, 0.0]
['beep', 0.0, -3809.988952873821, 0.0, 0.0, 0.0, 0.0, -2789.5647632556875, 0.0]
['beep', 0.0, -3802.9258016259437, 0.0, 0.0, 0.0, 0.0, -2770.3869665130337, 0.0]
['beep', 0.0, -3796.980237600832, 0.0, 0.0, 0.0, 0.0, -2741.486160932322, 0.0]
['beep', 0.0, -3801.3164760251616, 0.0, 0.0, 0.0, 0.0, -2741.866140588062, 0.0]
['beep', 0.0, -3808.759606928779, 0.0, 0.0, 0.0, 0.0, -2772.3762717695563, 0.0]
['beep', 0.0, -3808.8937173955105, 0.0, 0.0, 0.0, 0.0, -2788.2683620772796, 0.0]
['beep', 0.0, -3801.18236555843, 0.0, 0.0, 0.0, 0.0, -2767.257722289291, 0.0]
['beep', 0.0, -3795.3485602555947, 0.0, 0.0, 0.0, 0.0, -2737.4628469303666, 0.0]
['beep', 0.0, -3800.1541853134854, 0.0, 0.0, 0.0, 0.0, -2737.3957916970007, 0.0]
['beep', 0.0, -3805.652714449491, 0.0, 0.0, 0.0, 0.0, -2768.30825427869, 0.0]
['beep', 0.0, -3805.2503830492956, 0.0, 0.0, 0.0, 0.0, -2786.5249260097657, 0.0]
['beep', 0.0, -3799.4836329798263, 0.0, 0.0, 0.0, 0.0, -2767.5035914782993, 0.0]
['beep', 0.0, -3796.264981778262, 0.0, 0.0, 0.0, 0.0, -2735.9429283074055, 0.0]
['beep', 0.0, -3799.215412046363, 0.0, 0.0, 0.0, 0.0, -2738.5580824086765, 0.0]
['beep', 0.0, -3805.3174382826614, 0.0, 0.0, 0.0, 0.0, -2768.799992656707, 0.0]
['beep', 0.0, -3807.083226094631, 0.0, 0.0, 0.0, 0.0, -2786.413167287489, 0.0]
['beep', 0.0, -3802.6799324369354, 0.0, 0.0, 0.0, 0.0, -2766.1624868109807, 0.0]
['beep', 0.0, -3795.4156154889606, 0.0, 0.0, 0.0, 0.0, -2734.512416662266, 0.0]
['beep', 0.0, -3798.65661843498, 0.0, 0.0, 0.0, 0.0, -2735.8535213295845, 0.0]
['beep', 0.0, -3806.7032464388903, 0.0, 0.0, 0.0, 0.0, -2767.995329856316, 0.0]
['beep', 0.0, -3806.792653416712, 0.0, 0.0, 0.0, 0.0, -2786.793146943229, 0.0]
['beep', 0.0, -3801.271772536251, 0.0, 0.0, 0.0, 0.0, -2767.414184500478, 0.0]
['beep', 0.0, -3794.0968625660976, 0.0, 0.0, 0.0, 0.0, -2736.7922945967075, 0.0]
['beep', 0.0, -3795.75089165579, 0.0, 0.0, 0.0, 0.0, -2737.1052190190817, 0.0]
['beep', 0.0, -3803.5740022151476, 0.0, 0.0, 0.0, 0.0, -2767.1683153114695, 0.0]
['beep', 0.0, -3805.071569093653, 0.0, 0.0, 0.0, 0.0, -2785.2061730869023, 0.0]
['beep', 0.0, -3798.3883975015165, 0.0, 0.0, 0.0, 0.0, -2765.223713543858, 0.0]
['beep', 0.0, -3793.716882910357, 0.0, 0.0, 0.0, 0.0, -2735.8311695851294, 0.0]
['beep', 0.0, -3796.555554456181, 0.0, 0.0, 0.0, 0.0, -2736.389963196512, 0.0]
['beep', 0.0, -3802.948153370399, 0.0, 0.0, 0.0, 0.0, -2767.5035914782993, 0.0]
['beep', 0.0, -3805.2727347937507, 0.0, 0.0, 0.0, 0.0, -2786.212001587391, 0.0]
['beep', 0.0, -3800.042426591209, 0.0, 0.0, 0.0, 0.0, -2766.631873444542, 0.0]
['beep', 0.0, -3795.3485602555947, 0.0, 0.0, 0.0, 0.0, -2735.8311695851294, 0.0]
['beep', 0.0, -3798.500156223793, 0.0, 0.0, 0.0, 0.0, -2737.5522539081876, 0.0]
['beep', 0.0, -3804.4457202489043, 0.0, 0.0, 0.0, 0.0, -2768.799992656707, 0.0]
['beep', 0.0, -3805.451548749393, 0.0, 0.0, 0.0, 0.0, -2786.0778911206594, 0.0]
['beep', 0.0, -3800.5118132247703, 0.0, 0.0, 0.0, 0.0, -2766.2295420443465, 0.0]
['beep', 0.0, -3795.75089165579, 0.0, 0.0, 0.0, 0.0, -2736.389963196512, 0.0]
['beep', 0.0, -3799.4389294909156, 0.0, 0.0, 0.0, 0.0, -2738.021640541749, 0.0]
['beep', 0.0, -3806.9714673723543, 0.0, 0.0, 0.0, 0.0, -2768.665882189975, 0.0]
['beep', 0.0, -3807.977295872843, 0.0, 0.0, 0.0, 0.0, -2787.3295888101566, 0.0]
['beep', 0.0, -3801.271772536251, 0.0, 0.0, 0.0, 0.0, -2768.911751378984, 0.0]
['beep', 0.0, -3797.4719759788486, 0.0, 0.0, 0.0, 0.0, -2739.027469042238, 0.0]
['beep', 0.0, -3797.919010867955, 0.0, 0.0, 0.0, 0.0, -2739.586262653621, 0.0]
['beep', 0.0, -3800.936496369421, 0.0, 0.0, 0.0, 0.0, -2769.247027545813, 0.0]
['beep', 0.0, -3800.9588481138767, 0.0, 0.0, 0.0, 0.0, -2788.804803944207, 0.0]
['beep', 0.0, -3794.007455588276, 0.0, 0.0, 0.0, 0.0, -2771.1469258245143, 0.0]
['beep', 0.0, -3788.1289467965303, 0.0, 0.0, 0.0, 0.0, -2740.6591463874756, 0.0]
['beep', 0.0, -3789.17947878593, 0.0, 0.0, 0.0, 0.0, -2740.860312087573, 0.0]
['beep', 0.0, -3796.5332027117256, 0.0, 0.0, 0.0, 0.0, -2771.0798705911484, 0.0]
['beep', 0.0, -3799.818909146656, 0.0, 0.0, 0.0, 0.0, -2791.2634958342906, 0.0]
['beep', 0.0, -3794.8121183886674, 0.0, 0.0, 0.0, 0.0, -2774.0526526037042, 0.0]
['beep', 0.0, -3788.2854090077176, 0.0, 0.0, 0.0, 0.0, -2742.737858621819, 0.0]
['beep', 0.0, -3791.2581910202734, 0.0, 0.0, 0.0, 0.0, -2742.5590446661768, 0.0]
['beep', 0.0, -3798.6789701794355, 0.0, 0.0, 0.0, 0.0, -2773.225638058858, 0.0]
['beep', 0.0, -3799.3718742575497, 0.0, 0.0, 0.0, 0.0, -2793.342208068634, 0.0]
['beep', 0.0, -3792.822813132145, 0.0, 0.0, 0.0, 0.0, -2774.4996874928106, 0.0]
['beep', 0.0, -3786.206696773374, 0.0, 0.0, 0.0, 0.0, -2743.475466188844, 0.0]
['beep', 0.0, -3788.0618915631644, 0.0, 0.0, 0.0, 0.0, -2743.2743004887466, 0.0]
['beep', 0.0, -3795.952057355888, 0.0, 0.0, 0.0, 0.0, -2772.6891961919305, 0.0]
['beep', 0.0, -3797.717845167857, 0.0, 0.0, 0.0, 0.0, -2792.0458068902262, 0.0]
['beep', 0.0, -3790.5652869421588, 0.0, 0.0, 0.0, 0.0, -2774.4326322594443, 0.0]
['beep', 0.0, -3785.17851652843, 0.0, 0.0, 0.0, 0.0, -2743.87779758904, 0.0]
['beep', 0.0, -3787.9277810964327, 0.0, 0.0, 0.0, 0.0, -2742.0896580326153, 0.0]
['beep', 0.0, -3795.080339322131, 0.0, 0.0, 0.0, 0.0, -2771.9739403693607, 0.0]
['beep', 0.0, -3796.8014236451895, 0.0, 0.0, 0.0, 0.0, -2791.5987720011203, 0.0]
['beep', 0.0, -3790.431176475427, 0.0, 0.0, 0.0, 0.0, -2772.733899680841, 0.0]
['beep', 0.0, -3785.4020339729827, 0.0, 0.0, 0.0, 0.0, -2742.4919894328104, 0.0]
['beep', 0.0, -3788.263057263262, 0.0, 0.0, 0.0, 0.0, -2741.955547565883, 0.0]
['beep', 0.0, -3794.0298073327313, 0.0, 0.0, 0.0, 0.0, -2772.2645130472797, 0.0]
['beep', 0.0, -3796.957885856377, 0.0, 0.0, 0.0, 0.0, -2790.6152952450866, 0.0]
['beep', 0.0, -3791.772281142745, 0.0, 0.0, 0.0, 0.0, -2772.197457813914, 0.0]
['beep', 0.0, -3786.2514002622847, 0.0, 0.0, 0.0, 0.0, -2741.486160932322, 0.0]
['beep', 0.0, -3788.196002029896, 0.0, 0.0, 0.0, 0.0, -2741.597919654598, 0.0]
['beep', 0.0, -3795.974409100343, 0.0, 0.0, 0.0, 0.0, -2769.7387659238298, 0.0]
['beep', 0.0, -3796.5332027117256, 0.0, 0.0, 0.0, 0.0, -2791.039978389738, 0.0]
['beep', 0.0, -3790.6099904310695, 0.0, 0.0, 0.0, 0.0, -2773.516210736777, 0.0]
['beep', 0.0, -3785.536144439715, 0.0, 0.0, 0.0, 0.0, -2741.128533021037, 0.0]
['beep', 0.0, -3788.106595052075, 0.0, 0.0, 0.0, 0.0, -2740.703849876386, 0.0]
['beep', 0.0, -3796.0638160781646, 0.0, 0.0, 0.0, 0.0, -2771.6610159469865, 0.0]
['beep', 0.0, -3797.047292834198, 0.0, 0.0, 0.0, 0.0, -2793.923353424472, 0.0]
['beep', 0.0, -3791.794632887201, 0.0, 0.0, 0.0, 0.0, -2775.729033437852, 0.0]
['beep', 0.0, -3786.541972940204, 0.0, 0.0, 0.0, 0.0, -2744.7271638783413, 0.0]
['beep', 0.0, -3788.9559613413767, 0.0, 0.0, 0.0, 0.0, -2743.900149333495, 0.0]
['beep', 0.0, -3795.460318977871, 0.0, 0.0, 0.0, 0.0, -2772.063347347182, 0.0]
['beep', 0.0, -3798.7013219238906, 0.0, 0.0, 0.0, 0.0, -2790.9282196674612, 0.0]
['beep', 0.0, -3791.682874164924, 0.0, 0.0, 0.0, 0.0, -2773.4938589923217, 0.0]
['beep', 0.0, -3786.8325456181224, 0.0, 0.0, 0.0, 0.0, -2743.386059211023, 0.0]
['beep', 0.0, -3789.0900718081084, 0.0, 0.0, 0.0, 0.0, -2742.3802307105343, 0.0]
['beep', 0.0, -3795.75089165579, 0.0, 0.0, 0.0, 0.0, -2772.510382236288, 0.0]
['beep', 0.0, -3798.1648800569633, 0.0, 0.0, 0.0, 0.0, -2792.023455145771, 0.0]
['beep', 0.0, -3793.2251445323404, 0.0, 0.0, 0.0, 0.0, -2775.416109015478, 0.0]
['beep', 0.0, -3787.3689874850497, 0.0, 0.0, 0.0, 0.0, -2745.3753644675453, 0.0]
['beep', 0.0, -3790.364121242061, 0.0, 0.0, 0.0, 0.0, -2742.9166725774617, 0.0]
['beep', 0.0, -3797.9637143568657, 0.0, 0.0, 0.0, 0.0, -2771.3257397801567, 0.0]
['beep', 0.0, -3798.366045757061, 0.0, 0.0, 0.0, 0.0, -2792.9398766684385, 0.0]
['beep', 0.0, -3792.778109643234, 0.0, 0.0, 0.0, 0.0, -2775.9749026268605, 0.0]
['beep', 0.0, -3787.011359573765, 0.0, 0.0, 0.0, 0.0, -2745.2412540008136, 0.0]
['beep', 0.0, -3789.1571270414743, 0.0, 0.0, 0.0, 0.0, -2743.475466188844, 0.0]
['beep', 0.0, -3796.1308713115304, 0.0, 0.0, 0.0, 0.0, -2773.5609142256876, 0.0]
['beep', 0.0, -3797.203755045385, 0.0, 0.0, 0.0, 0.0, -2794.660960991497, 0.0]
['beep', 0.0, -3790.9899700868095, 0.0, 0.0, 0.0, 0.0, -2779.2382573173354, 0.0]
['beep', 0.0, -3785.334978739617, 0.0, 0.0, 0.0, 0.0, -2747.185855768425, 0.0]
['beep', 0.0, -3788.486574707815, 0.0, 0.0, 0.0, 0.0, -2744.0342598002267, 0.0]
['beep', 0.0, -3796.600257945092, 0.0, 0.0, 0.0, 0.0, -2773.2703415477686, 0.0]
['beep', 0.0, -3798.0531213346867, 0.0, 0.0, 0.0, 0.0, -2793.8786499355615, 0.0]
['beep', 0.0, -3791.816984631656, 0.0, 0.0, 0.0, 0.0, -2776.6231032160645, 0.0]
['beep', 0.0, -3785.290275250706, 0.0, 0.0, 0.0, 0.0, -2745.3753644675453, 0.0]
['beep', 0.0, -3786.0949380510974, 0.0, 0.0, 0.0, 0.0, -2742.201416754892, 0.0]
['beep', 0.0, -3794.2533247772844, 0.0, 0.0, 0.0, 0.0, -2770.7892979132293, 0.0]
['beep', 0.0, -3797.069644578653, 0.0, 0.0, 0.0, 0.0, -2792.31402782369, 0.0]
['beep', 0.0, -3791.437004975916, 0.0, 0.0, 0.0, 0.0, -2776.131364838048, 0.0]
['beep', 0.0, -3785.8043653731784, 0.0, 0.0, 0.0, 0.0, -2745.1071435340814, 0.0]
['beep', 0.0, -3789.0677200636533, 0.0, 0.0, 0.0, 0.0, -2742.7602103662744, 0.0]
['beep', 0.0, -3796.2873335227173, 0.0, 0.0, 0.0, 0.0, -2772.3315682806456, 0.0]
['beep', 0.0, -3799.7742056577454, 0.0, 0.0, 0.0, 0.0, -2793.543373768732, 0.0]
['beep', 0.0, -3792.9569235988765, 0.0, 0.0, 0.0, 0.0, -2777.673635205464, 0.0]
['beep', 0.0, -3787.3913392295053, 0.0, 0.0, 0.0, 0.0, -2747.0070418127825, 0.0]
['beep', 0.0, -3789.1571270414743, 0.0, 0.0, 0.0, 0.0, -2745.844751101107, 0.0]
['beep', 0.0, -3796.4884992228153, 0.0, 0.0, 0.0, 0.0, -2774.544390981721, 0.0]
['beep', 0.0, -3797.1590515564744, 0.0, 0.0, 0.0, 0.0, -2795.4432720474333, 0.0]
['beep', 0.0, -3793.1804410434297, 0.0, 0.0, 0.0, 0.0, -2778.902981150506, 0.0]
['beep', 0.0, -3787.212525273863, 0.0, 0.0, 0.0, 0.0, -2746.6941173904083, 0.0]
['beep', 0.0, -3789.402996230483, 0.0, 0.0, 0.0, 0.0, -2744.5259981782438, 0.0]
['beep', 0.0, -3797.695493423402, 0.0, 0.0, 0.0, 0.0, -2774.745556681819, 0.0]
['beep', 0.0, -3799.9977231022986, 0.0, 0.0, 0.0, 0.0, -2797.343170326134, 0.0]
['beep', 0.0, -3793.4710137213488, 0.0, 0.0, 0.0, 0.0, -2780.1993823289135, 0.0]
['beep', 0.0, -3787.4807462073263, 0.0, 0.0, 0.0, 0.0, -2747.8787598465397, 0.0]
['beep', 0.0, -3789.492403208304, 0.0, 0.0, 0.0, 0.0, -2744.861274345073, 0.0]
['beep', 0.0, -3796.242630033807, 0.0, 0.0, 0.0, 0.0, -2774.3655770260784, 0.0]
['beep', 0.0, -3798.3213422681506, 0.0, 0.0, 0.0, 0.0, -2795.353865069612, 0.0]
['beep', 0.0, -3792.621647432047, 0.0, 0.0, 0.0, 0.0, -2779.707643950897, 0.0]
['beep', 0.0, -3786.7654903847565, 0.0, 0.0, 0.0, 0.0, -2747.2305592573357, 0.0]
['beep', 0.0, -3788.486574707815, 0.0, 0.0, 0.0, 0.0, -2745.151847022992, 0.0]
['beep', 0.0, -3797.1366998120193, 0.0, 0.0, 0.0, 0.0, -2774.5667427261765, 0.0]
['beep', 0.0, -3798.231935290329, 0.0, 0.0, 0.0, 0.0, -2796.1138243810924, 0.0]
['beep', 0.0, -3793.850993377089, 0.0, 0.0, 0.0, 0.0, -2779.9088096509945, 0.0]
['beep', 0.0, -3787.9948363297985, 0.0, 0.0, 0.0, 0.0, -2748.5716639246543, 0.0]
['beep', 0.0, -3789.6712171639465, 0.0, 0.0, 0.0, 0.0, -2744.704812133886, 0.0]
['beep', 0.0, -3795.7955951447007, 0.0, 0.0, 0.0, 0.0, -2772.890361892028, 0.0]
['beep', 0.0, -3798.209583545874, 0.0, 0.0, 0.0, 0.0, -2794.7280162248635, 0.0]
['beep', 0.0, -3792.5992956875916, 0.0, 0.0, 0.0, 0.0, -2778.5230014947656, 0.0]
['beep', 0.0, -3786.1172897955526, 0.0, 0.0, 0.0, 0.0, -2745.73299237883, 0.0]
['beep', 0.0, -3786.6984351513906, 0.0, 0.0, 0.0, 0.0, -2740.8156085986625, 0.0]
['beep', 0.0, -3793.8733451215444, 0.0, 0.0, 0.0, 0.0, -2769.0905653346263, 0.0]
['beep', 0.0, -3797.0249410897427, 0.0, 0.0, 0.0, 0.0, -2792.2469725903243, 0.0]
['beep', 0.0, -3791.727577653835, 0.0, 0.0, 0.0, 0.0, -2775.997254371316, 0.0]
