[[-124.85684452734525, -126.48852187258267, -125.28152767199609, -123.69455381566928, -123.7616090490352, -124.09688521586482, -124.65567882724748, -125.86267302783406, -125.3262311609067, -123.1134084598313, -124.25334742705196, -124.74508580506871, -125.23682418308547, -126.6226323393145, -126.91320501723351, -126.66733582822512, -128.34371666237314, -129.50600737404912, -128.83545504038992, -128.83545504038992, -128.00844049554354, -127.60610909534802, -127.5614056064374, -126.19794919466368, -126.82379803941227, -126.30970791694021, -126.22030093911899, -127.58375735089271, -126.73439106159104, -125.48269337209385, -126.08619047238714, -126.19794919466368, -127.04731548396535, -127.27083292851842, -126.53322536149328, -124.7227340606134, -125.28152767199609, -126.22030093911899, -127.09201897287596, -127.00261199505474, -126.2650044280296, -126.86850152832288, -127.27083292851842, -126.75674280604635, -125.6615073277363, -127.82962653990108, -127.67316432871394, -129.1483794627642, -130.17655970770832, -129.17073120721952, -128.2319579400966, -129.55071086295973, -129.57306260741504, -128.7460480625687, -128.34371666237314, -127.42729513970556, -127.91903351772233, -128.99191725157706, -129.39424865177259, -127.24848118406311, -127.78492305099047, -128.67899282920277, -129.1260277183089, -129.68482132969157, -128.187254451186, -128.92486201821114, -129.17073120721952, -130.6459463412698, -130.44478064117203, -129.1036759738536, -128.61193759583685, -127.60610909534802, -130.42242889671672, -129.39424865177259, -128.29901317346253, -127.44964688416087, -127.2261294396078, -128.09784747336477, -127.69551607316924, -125.99678349456592, -125.99678349456592, -125.52739686100446, -124.52156836051564, -125.03565848298771, -122.62167008181454, -122.35344914835086, -124.9909549940771, -126.06383872793184, -127.15907420624188, -126.5779288504039, -126.71203931713573, -129.01426899603237, -128.83545504038992, -129.4836556295938, -128.03079223999885, -127.58375735089271, -128.187254451186, -129.34954516286197, -128.2319579400966, -127.82962653990108, -128.07549572890946, -128.768399807024, -128.72369631811338, -127.94138526217763, -127.74021956207986, -127.02496373951004, -127.04731548396535, -128.34371666237314, -127.24848118406311, -126.95790850614412, -127.36023990633964, -128.12019921782007, -128.65664108474746, -129.90833877424464, -126.82379803941227, -126.80144629495696, -128.61193759583685, -128.61193759583685, -127.44964688416087, -126.93555676168882, -127.24848118406311, -128.27666142900722, -128.50017887356032, -127.85197828435639, -127.15907420624188, -126.8908532727782, -126.15324570575306, -127.44964688416087, -126.22030093911899, -124.7227340606134, -124.61097533833687, -125.6615073277363, -126.77909455050165, -126.33205966139552, -124.18629219368604, -126.42146663921675, -127.80727479544578, -127.2261294396078, -127.65081258425863, -126.24265268357429, -125.14741720526425, -126.39911489476144, -127.2261294396078, -127.85197828435639, -126.17559745020837, -125.08036197189833, -125.43798988318323, -126.46617012812736, -127.00261199505474, -126.39911489476144, -127.42729513970556, -128.05314398445415, -129.1036759738536, -128.61193759583685, -126.55557710594859, -125.81796953892345, -127.42729513970556, -128.187254451186, -127.69551607316924, -126.10854221684245, -126.98026025059943, -127.91903351772233, -128.27666142900722, -128.7907515514793, -126.66733582822512, -126.91320501723351, -127.44964688416087, -126.91320501723351, -127.33788816188434, -126.84614978386757, -126.04148698347653, -126.35441140585083, -125.9297282612, -124.74508580506871, -123.96277474913298, -121.63819332578103, -121.50408285904919, -122.62167008181454, -123.1134084598313, -122.75578054854638, -123.91807126022236, -126.04148698347653, -127.5390538619821, -128.38842015128378, -128.05314398445415, -128.00844049554354, -128.34371666237314, -128.05314398445415, -128.00844049554354, -127.18142595069719, -127.82962653990108, -126.86850152832288, -127.76257130653516, -126.91320501723351, -122.1299317037978, -121.12410320330898, -124.09688521586482, -125.86267302783406, -126.08619047238714, -125.12506546080894, -124.9909549940771, -126.30970791694021, -125.90737651674469, -125.97443175011061, -125.25917592754078, -123.91807126022236, -125.639155583281, -126.71203931713573, -127.00261199505474, -128.12019921782007, -128.12019921782007, -129.57306260741504, -130.40007715226142, -129.4613038851385, -128.4107718957391, -128.05314398445415, -128.54488236247093, -128.61193759583685, -129.1036759738536, -127.2261294396078, -127.67316432871394, -128.2096061956413, -129.30484167395136, -127.96373700663294, -126.77909455050165, -125.75091430555753, -129.1260277183089, -130.02009749652117, -128.7907515514793, -129.57306260741504, -130.1318562187977, -131.45060914166083, -131.91999577522228, -130.82476029691225, -128.2319579400966, -127.42729513970556, -127.18142595069719, -127.29318467297372, -127.44964688416087, -125.79561779446814, -126.15324570575306, -126.80144629495696, -127.98608875108825, -127.65081258425863, -127.38259165079495, -126.55557710594859, -128.67899282920277, -128.27666142900722, -128.00844049554354, -128.99191725157706, -127.31553641742903, -128.14255096227538, -128.12019921782007, -128.38842015128378, -128.72369631811338, -127.98608875108825, -129.99774575206587, -129.95304226315525, -131.27179518601838, -130.60124285235918, -129.7518765630575, -130.51183587453795, -130.44478064117203, -129.4613038851385, -129.1260277183089, -127.76257130653516, -127.15907420624188, -127.38259165079495, -126.77909455050165, -125.84032128337876, -123.62749858230336, -125.37093464981731, -125.41563813872793, -124.27569917150727, -122.21933868161902, -121.45937937013858, -123.13576020428661, -123.31457415992907, -124.65567882724748, -124.76743754952402, -125.3038794164514, -127.5390538619821, -130.02009749652117, -131.16003646374185, -130.40007715226142, -130.1318562187977, -130.40007715226142, -131.85294054185636, -131.42825739720553, -130.44478064117203, -129.7965800519681, -129.4389521406832, -129.70717307414688, -130.33302191889547, -128.50017887356032, -127.02496373951004, -128.00844049554354, -127.33788816188434, -127.15907420624188, -124.7003823161581, -122.24169042607433, -122.86753927082292, -123.78396079349051, -124.3651061493285, -124.3651061493285, -124.25334742705196, -124.63332708279218, -127.96373700663294, -128.4554753846497, -127.00261199505474, -127.5390538619821, -127.96373700663294, -126.10854221684245, -127.65081258425863, -126.48852187258267, -124.92389976071118, -125.37093464981731, -125.43798988318323, -124.65567882724748, -124.14158870477543, -123.56044334893744, -122.86753927082292, -122.17463519270841, -120.31944040291792, -120.61001308083691, -119.78299853599054, -120.16297819173077, -121.30291715895143, -122.1299317037978, -120.63236482529221, -120.52060610301568, -121.8617107703341, -122.1299317037978, -121.99582123706595, -121.68289681469165, -119.87240551381177, -121.25821367004082, -121.72760030360226, -122.42050438171678, -122.97929799309946, -122.33109740389555, -125.43798988318323, -127.27083292851842, -124.58862359388156, -123.87336777131173, -123.69455381566928, -124.43216138269442, -126.46617012812736, -125.08036197189833, -124.34275440487319, -122.73342880409108, -123.7616090490352, -124.9686032496218, -125.41563813872793, -124.74508580506871, -124.47686487160503, -124.47686487160503, -124.78978929397933, -125.23682418308547, -123.87336777131173, -124.20864393814135, -124.63332708279218, -123.7616090490352, -124.3651061493285, -123.40398113775029, -122.37580089280617, -124.43216138269442, -124.81214103843463, -124.92389976071118, -126.6002805948592, -126.2650044280296, -127.98608875108825, -123.98512649358828, -120.40884738073915, -120.29708865846261, -120.72177180311344, -120.29708865846261, -121.2135101811302, -122.30874565944025, -121.34762064786204, -120.20768168064139, -120.05121946945424, -122.84518752636761, -123.22516718210784, -122.55461484844862, -121.92876600370003, -122.64402182626985, -122.88989101527822, -121.90641425924473, -119.69359155816932, -119.89475725826708, -120.52060610301568, -121.5264346035045, -122.68872531518046, -120.29708865846261, -120.83353052538997, -120.5653095919263, -120.07357121390955, -120.31944040291792, -119.96181249163301, -119.71594330262462, -119.6265363248034, -120.74412354756875, -119.98416423608832, -118.39719037976151, -118.84422526886765, -120.54295784747099, -121.61584158132572, -122.64402182626985, -122.08522821488718, -120.16297819173077, -121.30291715895143, -123.13576020428661, -122.24169042607433, -121.10175145885367, -120.34179214737323, -120.9005857587559, -124.00747823804359, -122.08522821488718, -121.03469622548775, -120.16297819173077, -120.38649563628384, -122.53226310399332, -122.30874565944025, -120.54295784747099, -119.06774271342073, -120.09592295836485, -120.72177180311344, -120.16297819173077, -119.78299853599054, -119.85005376935646, -120.94528924766652, -121.83935902587879, -121.23586192558551, -119.44772236916094, -118.91128050223357, -118.73246654659111, -119.33596364688441, -121.45937937013858, -122.30874565944025, -120.52060610301568, -121.30291715895143, -121.92876600370003, -121.70524855914695, -121.32526890340674, -120.2747369140073, -120.38649563628384, -121.39232413677266, -121.8617107703341, -120.94528924766652, -119.67123981371401, -118.82187352441234, -120.67706831420283, -119.89475725826708, -119.38066713579502, -117.52547234600453, -119.00068748005481, -121.57113809241511, -120.54295784747099, -119.67123981371401, -118.26307991302967, -117.50312060154923, -117.54782409045984, -118.86657701332295, -119.17950143569726, -119.04539096896542, -121.14645494776428, -122.10757995934249, -122.62167008181454, -121.03469622548775, -119.78299853599054, -120.16297819173077, -121.16880669221959, -121.50408285904919, -120.5653095919263, -120.5653095919263, -119.9394607471777, -121.57113809241511, -122.66637357072516, -122.08522821488718, -121.61584158132572, -120.78882703647936, -122.42050438171678, -123.091056715376, -122.30874565944025, -120.87823401430059, -120.96764099212183, -121.45937937013858, -120.85588226984528, -120.72177180311344, -120.92293750321122, -121.28056541449612, -123.15811194874192, -122.800484037457, -121.81700728142349, -120.45355086964976, -119.9171090027224, -122.50991135953801, -122.75578054854638, -121.8840625147894, -122.53226310399332, -122.35344914835086, -122.55461484844862, -122.55461484844862, -122.28639391498494, -121.61584158132572, -120.65471656974752, -121.50408285904919, -123.15811194874192, -121.1911584366749, -121.07939971439836, -122.21933868161902, -122.73342880409108, -123.40398113775029, -121.28056541449612, -121.16880669221959, -122.1299317037978, -123.04635322646538, -121.61584158132572, -121.90641425924473, -121.39232413677266, -121.68289681469165, -122.1522834482531, -121.99582123706595, -122.17463519270841, -120.47590261410507, -119.26890841351849, -120.67706831420283, -121.39232413677266, -119.85005376935646, -119.96181249163301, -119.73829504707993, -121.1911584366749, -121.01234448103244, -118.48659735758274, -119.35831539133972, -119.73829504707993, -121.28056541449612, -121.30291715895143, -120.67706831420283, -120.38649563628384, -120.40884738073915, -121.97346949261065, -121.30291715895143, -120.72177180311344, -120.72177180311344, -121.5264346035045, -122.64402182626985, -123.20281543765253, -122.01817298152126, -121.59348983687042, -121.68289681469165, -121.95111774815534, -121.79465553696818, -122.42050438171678, -121.14645494776428, -122.35344914835086, -121.61584158132572, -121.50408285904919, -120.11827470282016, -119.6488880692587, -121.10175145885367, -119.73829504707993, -119.69359155816932, -119.71594330262462, -119.67123981371401, -119.40301888025033, -120.78882703647936, -120.96764099212183, -119.51477760252686, -119.38066713579502, -120.18532993618608, -122.42050438171678, -122.55461484844862, -120.11827470282016, -119.51477760252686, -119.51477760252686, -120.85588226984528, -121.63819332578103, -120.31944040291792, -120.81117878093467, -120.11827470282016, -120.96764099212183, -124.32040266041788, -124.9909549940771, -125.6615073277363, -126.66733582822512, -125.9297282612, -124.58862359388156, -124.16394044923074, -123.91807126022236, -125.639155583281, -125.72856256110222, -125.86267302783406, -123.96277474913298, -122.62167008181454, -123.26987067101845, -125.9520800056553, -127.09201897287596, -126.01913523902122, -126.10854221684245, -123.7616090490352, -124.76743754952402, -125.639155583281, -124.63332708279218, -123.85101602685643, -125.54974860545977, -127.2261294396078, -126.95790850614412, -126.98026025059943, -126.75674280604635, -126.51087361703797, -127.67316432871394, -126.71203931713573, -125.48269337209385, -124.85684452734525, -124.54392010497095, -123.89571951576706, -124.56627184942626, -122.84518752636761, -122.68872531518046, -123.35927764883968, -125.79561779446814, -126.55557710594859, -125.3262311609067, -124.43216138269442, -123.96277474913298, -124.20864393814135, -123.91807126022236, -122.75578054854638, -122.62167008181454, -123.49338811557152, -126.6002805948592, -128.92486201821114, -129.66246958523627, -129.32719341840667, -130.1318562187977, -131.316498674929, -130.44478064117203, -128.32136491791783, -126.08619047238714, -126.53322536149328, -126.6002805948592, -126.71203931713573, -127.00261199505474, -125.46034162763854, -126.48852187258267, -125.97443175011061, -126.80144629495696, -125.75091430555753, -124.54392010497095, -124.45451312714972, -124.14158870477543, -125.99678349456592, -127.2037776951525, -123.91807126022236, -123.51573986002683, -122.95694624864416, -123.40398113775029, -123.47103637111621, -124.47686487160503, -126.64498408376981, -129.66246958523627, -132.5458446199709, -132.63525159779212, -131.0035742525547, -131.6964783306692, -132.67995508670273, -131.85294054185636, -128.90251027375584, -126.48852187258267, -124.81214103843463, -125.39328639427262, -123.38162939329499, -122.08522821488718, -121.23586192558551, -121.8617107703341, -121.50408285904919, -123.24751892656315, -123.40398113775029, -121.83935902587879, -123.02400148201008, -124.34275440487319, -125.97443175011061, -123.80631253794581, -121.95111774815534, -122.64402182626985, -123.96277474913298, -124.92389976071118, -125.41563813872793, -125.43798988318323, -125.86267302783406, -128.768399807024, -129.17073120721952, -129.4613038851385, -127.2037776951525, -127.5614056064374, -128.2543096845519, -128.61193759583685, -128.38842015128378, -128.2543096845519, -127.2261294396078, -126.75674280604635, -127.38259165079495, -126.37676315030613, -124.49921661606034, -124.40980963823911, -125.08036197189833, -125.3038794164514, -124.76743754952402, -123.7392573045799, -123.13576020428661, -126.01913523902122, -126.82379803941227, -125.48269337209385, -124.58862359388156, -125.21447243863017, -126.10854221684245, -126.10854221684245, -126.6002805948592, -127.2261294396078, -127.82962653990108, -128.477827129105, -129.34954516286197, -129.17073120721952, -128.09784747336477, -128.4554753846497, -129.88598702978933, -129.4836556295938, -129.88598702978933, -130.55653936344856, -129.97539400761056, -129.68482132969157, -129.1483794627642, -127.2261294396078, -126.10854221684245, -126.33205966139552, -126.48852187258267, -125.90737651674469, -125.34858290536201, -124.34275440487319, -123.94042300467767, -123.96277474913298, -125.21447243863017, -125.14741720526425, -124.45451312714972, -123.1134084598313, -127.60610909534802, -128.50017887356032, -127.5614056064374], [-2036.4450855785713, -2038.4120390906382, -2038.7696670019232, -2038.613204790736, -2037.8755972237109, -2038.7920187463785, -2039.8872542246884, -2039.5743298023142, -2039.194350146574, -2038.613204790736, -2037.1156379122303, -2037.6520797791577, -2037.6073762902472, -2036.3333268562947, -2036.73565825649, -2038.16616990163, -2039.6860885245908, -2040.5354548138923, -2039.2614053799398, -2038.9037774686549, -2040.0660681803308, -2040.9154344696326, -2040.155475158152, -2039.3284606133059, -2037.6073762902472, -2039.8649024802332, -2041.0495449363643, -2041.9212629701215, -2040.6248617917136, -2039.7978472468671, -2039.775495502412, -2039.7531437579567, -2039.9096059691437, -2038.836722235289, -2039.0155361909315, -2040.2225303915181, -2040.580158302803, -2041.5859868032917, -2039.999012946965, -2038.970832702021, -2040.2001786470628, -2041.3624693587387, -2041.4742280810153, -2040.133123413697, -2040.4013443471606, -2039.931957713599, -2040.0213646914203, -2041.384821103194, -2041.5189315699258, -2039.5743298023142, -2040.6248617917136, -2040.8930827251772, -2040.3119373693394, -2038.9261292131102, -2038.970832702021, -2039.8201989913225, -2041.7648007589341, -2041.6306902922024, -2040.647213536169, -2040.5578065583477, -2041.2730623809175, -2040.4683995805265, -2040.6919170250794, -2040.1778269026074, -2039.127294913208, -2038.16616990163, -2040.1778269026074, -2040.2225303915181, -2039.7307920135013, -2039.5966815467696, -2040.6025100472582, -2041.0048414474538, -2040.8483792362667, -2038.9261292131102, -2038.3002803683617, -2038.680260024102, -2040.3566408582499, -2040.9154344696326, -2039.931957713599, -2038.613204790736, -2039.4625710800376, -2040.1107716692416, -2041.3624693587387, -2040.6919170250794, -2040.4013443471606, -2042.256539136951, -2042.3012426258617, -2042.7259257705125, -2042.7482775149679, -2041.6306902922024, -2041.6306902922024, -2042.033021692398, -2042.9941467039762, -2043.061201937342, -2041.965966459032, -2042.390649603683, -2043.8435129932777, -2044.7822862604007, -2043.351774615261, -2043.418829848627, -2043.8882164821885, -2044.7599345159454, -2044.1117339267414, -2043.0388501928867, -2042.5247600704147, -2042.7035740260571, -2043.575292059814, -2043.195312404074, -2041.1166001697304, -2040.803675747356, -2041.8542077367554, -2042.390649603683, -2042.7482775149679, -2040.5354548138923, -2040.6248617917136, -2042.3235943703169, -2042.100076925764, -2042.3235943703169, -2041.4742280810153, -2039.3955158466717, -2041.4965798254705, -2041.5859868032917, -2042.1447804146744, -2042.5247600704147, -2041.8542077367554, -2040.8707309807219, -2041.4295245921046, -2041.742449014479, -2040.6695652806243, -2039.1496466576634, -2038.993184446476, -2039.9543094580545, -2040.6025100472582, -2039.8872542246884, -2038.4120390906382, -2038.7249635130124, -2039.7531437579567, -2040.6025100472582, -2038.4567425795487, -2038.0767629238087, -2039.9766612025096, -2040.4683995805265, -2040.133123413697, -2039.7978472468671, -2039.5072745689483, -2039.2614053799398, -2039.9543094580545, -2041.4742280810153, -2040.1778269026074, -2039.8425507357779, -2040.1778269026074, -2040.2001786470628, -2040.7589722584455, -2040.0437164358757, -2038.5014460684595, -2038.3896873461829, -2040.5578065583477, -2040.2225303915181, -2038.5014460684595, -2038.5685013018253, -2040.4236960916157, -2041.1836554030963, -2041.094248425275, -2041.384821103194, -2040.4683995805265, -2040.9824897029985, -2042.4577048370488, -2041.7871525033895, -2040.6695652806243, -2039.2837571243952, -2039.7531437579567, -2041.0271931919092, -2041.1389519141856, -2040.7142687695348, -2039.8425507357779, -2040.4013443471606, -2041.317765869828, -2041.4295245921046, -2040.647213536169, -2039.64138503568, -2040.8707309807219, -2042.5694635593254, -2041.4742280810153, -2041.8542077367554, -2041.2954141253729, -2041.5412833143812, -2042.256539136951, -2043.5976438042694, -2042.6812222816018, -2041.0718966808197, -2041.7871525033895, -2043.6423472931801, -2042.033021692398, -2040.513103069437, -2040.960137958543, -2040.4013443471606, -2041.9883182034873, -2043.418829848627, -2041.9436147145766, -2041.8318559923002, -2042.7482775149679, -2044.3128996268392, -2044.0893821822863, -2042.6588705371466, -2043.061201937342, -2042.3012426258617, -2042.6365187926913, -2043.2176641485291, -2042.2341873924956, -2038.7920187463785, -2040.0213646914203, -2040.8707309807219, -2040.7142687695348, -2040.0660681803308, -2039.0825914242973, -2038.3896873461829, -2040.2448821359733, -2040.289585624884, -2039.417867591127, -2038.613204790736, -2039.0155361909315, -2038.8143704908337, -2039.350812357761, -2039.194350146574, -2038.4120390906382, -2038.1214664127192, -2039.9096059691437, -2039.6190332912247, -2038.9037774686549, -2039.6860885245908, -2040.0437164358757, -2040.4013443471606, -2041.8765594812107, -2041.2060071475516, -2039.64138503568, -2039.5296263134035, -2039.9766612025096, -2039.5296263134035, -2039.8649024802332, -2038.1214664127192, -2037.897948968166, -2039.9543094580545, -2040.1778269026074, -2039.8201989913225, -2039.6860885245908, -2040.0660681803308, -2041.5189315699258, -2041.8542077367554, -2041.0718966808197, -2040.1107716692416, -2040.3342891137945, -2040.960137958543, -2041.4965798254705, -2041.5412833143812, -2040.6248617917136, -2040.4236960916157, -2042.7035740260571, -2043.3741263597165, -2042.3235943703169, -2042.4800565815042, -2042.7929810038784, -2043.709402526546, -2044.8269897493112, -2043.709402526546, -2041.965966459032, -2041.8318559923002, -2043.195312404074, -2043.575292059814, -2042.256539136951, -2040.4907513249818, -2041.2954141253729, -2041.898911225666, -2042.770629259423, -2042.5247600704147, -2040.7589722584455, -2040.960137958543, -2041.3624693587387, -2040.803675747356, -2041.4071728476492, -2039.9766612025096, -2040.4013443471606, -2042.413001348138, -2043.9105682266438, -2044.223492649018, -2043.5082368264482, -2042.8600362372442, -2043.0835536817974, -2043.2847193818952, -2042.7929810038784, -2041.5859868032917, -2040.937786214088, -2042.4353530925935, -2042.8153327483337, -2041.7648007589341, -2041.2060071475516, -2041.965966459032, -2043.8211612488226, -2042.9270914706103, -2040.960137958543, -2040.5354548138923, -2041.8765594812107, -2043.351774615261, -2044.0893821822863, -2044.8269897493112, -2044.6258240492136, -2047.3974403616717, -2052.9183212421326, -2060.227341679018, -2066.485830126504, -2071.2020482065736, -2077.281722698417, -2084.456632668571, -2090.245734482495, -2094.8501938402887, -2098.3147142308612, -2101.1980892655956, -2103.030932310931, -2105.355513734283, -2104.6849614006237, -2103.1203392887523, -2101.7792346214337, -2102.0474555548976, -2101.712179388068, -2099.9463915760984, -2099.477004942537, -2099.1640805201628, -2100.3040194873834, -2100.2593159984726, -2099.767577620456, -2099.052321797886, -2099.544060175903, -2101.1310340322298, -2100.728702632034, -2099.6334671537243, -2098.5382316754144, -2098.828804353333, -2099.767577620456, -2100.5275369319365, -2100.7510543764897, -2099.968743320554, -2099.70052238709, -2101.8239381103444, -2101.5557171768805, -2100.1475572761965, -2099.7228741315453, -2099.387597964716, -2099.4323014536267, -2099.678170642635, -2099.029970053431, -2098.091196786308, -2097.8453275972997, -2098.9182113311545, -2098.828804353333, -2097.4653479415592, -2095.6548566406796, -2095.230173496029, -2096.057188040875, -2097.353589219283, -2096.41481595216, -2093.352626961783, -2092.838536839311, -2093.4420339396042, -2094.134938017719, -2093.8220135953443, -2092.905592072677, -2093.1738130061403, -2093.553792661881, -2094.3808072067272, -2094.246696739995, -2094.0678827843526, -2093.88906882871, -2095.2078217515736, -2097.085368285819, -2098.404121208682, -2098.404121208682, -2099.544060175903, -2100.348722976294, -2101.2427927545064, -2101.421606710149, -2100.2593159984726, -2099.387597964716, -2101.153385776685, -2101.3321997323274, -2099.2087840090735, -2098.135900275219, -2098.515879930959, -2099.253487497984, -2099.4993566869925, -2099.052321797886, -2097.9347345751207, -2098.2476589974954, -2098.717045631057, -2099.097025286797, -2098.9405630756096, -2098.672342142146, -2098.5829351643247, -2099.745225876001, -2099.70052238709, -2099.991095065009, -2099.1417287757076, -2098.2476589974954, -2100.0134468094643, -2101.1086822877746, -2100.2593159984726, -2098.806452608878, -2099.253487497984, -2099.186432264618, -2098.6276386532354, -2098.3147142308612, -2097.6441618972017, -2097.13007177473, -2098.8511560977886, -2099.5217084314477, -2098.381769464227, -2098.135900275219, -2098.1806037641295, -2098.359417719772, -2098.9405630756096, -2098.359417719772, -2096.6830368856236, -2097.3088857303724, -2098.0464932973973, -2098.3370659753164, -2098.6499903976905, -2097.286533985917, -2097.0183130524533, -2097.1747752636406, -2097.6441618972017, -2097.286533985917, -2094.8501938402887, -2095.7219118740454, -2096.9512578190875, -2095.453690940582, -2094.60432465128, -2095.7889671074113, -2094.8501938402887, -2095.185470007118, -2095.8783740852327, -2095.2748769849395, -2094.3361037178165, -2093.553792661881, -2094.514917673459, -2095.4089874516712, -2094.4702141845482, -2093.486737428515, -2093.0397025394086, -2094.0008275509867, -2094.1125862732633, -2093.7326066175233, -2092.3915019502047, -2092.480908928026, -2093.0844060283193, -2092.547964161392, -2092.480908928026, -2091.6985978720904, -2091.7433013610007, -2092.6597228836686, -2093.1067577727745, -2092.4138536946602, -2090.93863856061, -2090.5586589048694, -2091.609190894269, -2091.6985978720904, -2090.312789715861, -2088.0105600369648, -2088.41289143716, -2088.6587606261683, -2089.351664704283, -2089.3963681931937, -2089.1281472597298, -2088.5022984149814, -2089.0387402819088, -2090.156327504674, -2090.379844949227, -2089.2399059820063, -2089.016388537453, -2090.4916036715035, -2090.670417627146, -2090.0669205268528, -2088.8375745818107, -2088.681112370624, -2090.0669205268528, -2089.575182148836, -2088.904629815177, -2088.703464115079, -2088.5246501594365, -2088.971685048543, -2088.7481676039897, -2087.2282489810286, -2087.049435025386, -2087.1835454921184, -2087.094138514297, -2087.1388420032076, -2087.0717867698418, -2086.378882691727, -2086.065958269353, -2087.004731536476, -2087.65293212568, -2087.4741181700374, -2087.6305803812243, -2086.6918071141013, -2086.3341792028164, -2087.988208292509, -2087.988208292509, -2086.445937925093, -2085.8871443137105, -2087.2282489810286, -2087.5188216589477, -2087.7199873590457, -2086.736510603012, -2086.356530947272, -2085.998903035987, -2085.797737335889, -2085.395405935694, -2084.0095977794645, -2083.9872460350093, -2085.283647213417, -2085.3283507023275, -2085.3283507023275, -2084.7919088354, -2084.2331152240176, -2084.836612324311, -2084.0766530128303, -2083.3166937013502, -2082.780251834423, -2082.713196601057, -2083.3390454458054, -2083.4061006791712, -2082.4002721786824, -2081.260333211462, -2081.0815192558193, -2081.3720919337384, -2082.0426442673975, -2080.209801222062, -2080.2992081998837, -2081.3497401892832, -2081.1038710002745, -2081.4614989115594, -2081.5285541449257, -2079.874525055233, -2079.6510076106797, -2080.522725644437, -2080.612132622258, -2079.7180628440456, -2079.7851180774114, -2078.93575178811, -2079.583952377314, -2081.0815192558193, -2080.3439116887944, -2079.0698622548416, -2078.9804552770206, -2079.293379699395, -2079.516897143948, -2079.203972721574, -2078.354606432272, -2077.5052401429703, -2078.4663651545484, -2079.6957110995904, -2079.4051384216714, -2077.7287575875234, -2076.7452808314897, -2077.862868054255, -2078.198144221085, -2077.415833165149, -2076.544115131392, -2076.4994116424814, -2077.415833165149, -2078.7569378324674, -2078.6228273657357, -2076.6558738536687, -2077.1699639761405, -2078.511068643459, -2080.098042499786, -2079.516897143948, -2078.198144221085, -2076.342949431294, -2076.186487220107, -2075.65004535318, -2069.5703708613364, -2058.685071311602, -2049.1185246847303, -2038.3673356017275, -2028.286698852384, -2020.1730156151077, -2007.901907909144, -2002.3363235397726, -1998.3353612822727, -1995.7649106699123, -1998.5588787268257, -1999.229431060485, -2002.1351578396748, -2009.6900474655686, -2014.9203556681105, -2018.451931292049, -2020.6200505042139, -2023.2799080943953, -2026.453855807049, -2029.06900990832, -2029.0243064194092, -2030.1418936421746, -2029.896024453166, -2030.097190153264, -2031.5724052873143, -2032.6899925100795, -2032.35471634325, -2032.0417919208758, -2034.031097177398, -2035.1039809112528, -2034.1205041552194, -2033.2264343770069, -2033.293489610373, -2033.673469266113, -2033.964041944032, -2033.2040826325517, -2031.4382948205823, -2029.9183761976215, -2030.8795012091998, -2031.5947570317696, -2031.9076814541438, -2030.2760041089064, -2030.1195418977193, -2031.9747366875097, -2031.7959227318672, -2030.8795012091998, -2030.9912599314762, -2030.4995215534595, -2030.7900942313786, -2030.8124459758337, -2029.8513209642556, -2028.4431610635713, -2028.7337337414901, -2029.896024453166, -2030.2983558533617, -2029.8513209642556, -2028.1749401301076, -2027.3032220963505, -2027.5043877964483, -2028.9572511860433, -2029.0466581638645, -2027.9961261744652, -2027.102056396253, -2028.867844208222, -2030.4101145756383, -2029.6501552641578, -2029.44898956406, -2030.521873297915, -2030.8571494647445, -2031.035963420387, -2030.1195418977193, -2029.4936930529707, -2029.2478238639624, -2028.6666785081243, -2030.0524866643534, -2029.516044797426, -2028.35375408575, -2026.8338354627892, -2027.3255738408059, -2028.934899441588, -2028.7784372304009, -2027.2808703518954, -2026.9232424406105, -2028.5549197858477, -2028.6666785081243, -2029.1137133972304, -2028.9572511860433, -2029.7619139864344, -2031.1253703982081, -2032.4217715766158, -2032.2429576209734, -2031.2371291204847, -2030.4771698090042, -2031.2818326093952, -2032.1535506431521, -2031.9747366875097, -2030.7453907424679, -2029.583100030792, -2030.968908187021, -2031.2594808649399, -2030.4101145756383, -2030.5665767868254, -2030.2313006199959, -2031.4159430761272, -2032.5335302988924, -2032.0864954097863, -2029.739562241979, -2031.1253703982081, -2032.8911582101773, -2033.3605448437388, -2032.6005855322583, -2032.9582134435432, -2033.2711378659176, -2033.9863936884874, -2034.8581117222443, -2034.9922221889763, -2033.8746349662108, -2033.0476204213644, -2032.935861699088, -2033.4276000771047, -2033.9193384551215, -2032.935861699088, -2031.035963420387, -2031.3041843538506, -2032.8911582101773, -2032.6005855322583, -2030.901852953655, -2029.896024453166, -2031.6171087762248, -2031.9076814541438, -2031.192425631574, -2030.1418936421746, -2031.8629779652333, -2032.6899925100795, -2033.9193384551215, -2033.5840622882918, -2032.35471634325, -2032.6005855322583, -2033.2264343770069, -2034.2099111330406, -2034.031097177398, -2032.6005855322583, -2032.3323645987946, -2033.7628762439342, -2033.9863936884874, -2034.0758006663086, -2033.3605448437388, -2032.868806465722, -2034.254614621951, -2035.1486844001633, -2035.483960566993, -2034.612242533236, -2033.9416901995767, -2034.8357599777892, -2035.4392570780824, -2034.4781320665043, -2032.868806465722, -2032.3994198321607, -2033.6064140327471, -2035.6851262670907, -2035.3274983558058, -2033.7181727550237, -2032.2206058765182, -2033.6287657772025, -2034.3440215997723, -2035.2380913779846, -2034.8134082333338, -2034.7016495110572, -2035.4616088225378, -2037.1826931455962, -2036.6015477897583, -2035.3274983558058]]
[[-125.3038794164514, -124.74508580506871, -125.639155583281, -126.42146663921675, -125.16976894971955, -124.09688521586482, -123.00164973755477, -123.31457415992907, -125.10271371635363, -125.9520800056553, -125.86267302783406, -126.6002805948592, -126.77909455050165, -126.82379803941227, -127.2261294396078, -125.6615073277363, -124.63332708279218, -124.74508580506871, -124.9909549940771, -125.48269337209385, -124.14158870477543, -124.3651061493285, -125.48269337209385, -126.42146663921675, -126.33205966139552, -125.6615073277363, -125.08036197189833, -126.71203931713573, -127.58375735089271, -126.6002805948592, -125.46034162763854, -125.08036197189833, -125.86267302783406, -125.10271371635363, -124.07453347140951, -125.41563813872793, -124.45451312714972, -124.58862359388156, -127.49435037307148, -127.2037776951525, -125.16976894971955, -125.25917592754078, -126.15324570575306, -126.53322536149328, -126.01913523902122, -125.23682418308547, -124.56627184942626, -126.10854221684245, -126.22030093911899, -127.11437071733127, -127.15907420624188, -126.82379803941227, -127.98608875108825, -127.5390538619821, -124.14158870477543, -120.40884738073915, -117.7489897905576, -116.87727175680062, -119.26890841351849, -119.40301888025033, -118.77717003550173, -116.89962350125593, -117.4360653681833, -117.34665839036208, -116.69845780115817, -116.27377465650734, -116.76551303452409, -117.88310025728944, -118.93363224668889, -118.39719037976151, -119.04539096896542, -118.48659735758274, -119.67123981371401, -119.55948109143748, -119.44772236916094, -118.28543165748498, -117.86074851283414, -119.20185318015257, -118.91128050223357, -120.34179214737323, -119.82770202490116, -117.92780374620007, -118.66541131322519, -119.67123981371401, -119.71594330262462, -118.48659735758274, -118.39719037976151, -117.54782409045984, -118.19602467966375, -118.86657701332295, -117.27960315699616, -117.05608571244309, -117.4360653681833, -119.6265363248034, -118.10661770184252, -117.45841711263861, -118.26307991302967, -117.88310025728944, -118.3748386353062, -118.9783357355995, -118.39719037976151, -117.70428630164699, -118.26307991302967, -118.73246654659111, -118.93363224668889, -119.53712934698217, -116.31847814541796, -117.4360653681833, -120.85588226984528, -120.20768168064139, -118.21837642411906, -119.55948109143748, -120.29708865846261, -120.85588226984528, -118.21837642411906, -117.92780374620007, -118.55365259094866, -118.33013514639559, -119.44772236916094, -120.9005857587559, -120.47590261410507, -119.33596364688441, -119.9394607471777, -121.30291715895143, -120.45355086964976, -119.17950143569726, -119.49242585807156, -118.17367293520844, -118.50894910203804, -119.9394607471777, -118.9559839911442, -117.97250723511068, -120.5876613363816, -120.252385169552, -121.57113809241511, -120.94528924766652, -118.91128050223357, -120.18532993618608, -120.40884738073915, -120.45355086964976, -119.00068748005481, -117.61487932382576, -117.83839676837883, -119.04539096896542, -119.67123981371401, -119.17950143569726, -118.15132119075314, -118.77717003550173, -119.85005376935646, -119.44772236916094, -118.21837642411906, -118.66541131322519, -118.88892875777826, -120.14062644727547, -121.07939971439836, -119.71594330262462, -119.55948109143748, -121.07939971439836, -115.08913220037607, -102.84037623886779, -118.55365259094866, -119.85005376935646, -119.9394607471777, -107.44483559666105, -84.1543178742311, -116.8102165234347, -119.42537062470564, -120.11827470282016, -102.41569309421696, -72.95609390212225, -114.9103182447336, -119.00068748005481, -120.16297819173077, -97.25244012504103, -65.62472172078154, -113.56921357741518, -119.13479794678665, -119.51477760252686, -93.78791973446843, -62.38371877476201, -113.36804787731742, -120.87823401430059, -121.2135101811302, -90.45750981062768, -58.13688732825367, -112.63044031029229, -121.63819332578103, -120.78882703647936, -87.35061733134, -54.47120123758331, -110.1270449312979, -121.32526890340674, -121.95111774815534, -86.45654755312772, -50.87257038027887, -107.75776001903535, -119.6265363248034, -117.95015549065538, -81.58386726187078, -46.893959867234216, -104.36029486182868, -116.72080954561348, -118.59835607985927, -80.51098352801604, -42.401259231717496, -105.27671638449627, -120.9005857587559, -119.96181249163301, -78.34286431585126, -41.32837549786276, -100.53814655997117, -119.85005376935646, -117.83839676837883, -74.02897763597699, -39.36142198579574, -99.06293142592091, -120.45355086964976, -119.17950143569726, -72.91139041321163, -37.79679987392424, -96.71599825811366, -119.67123981371401, -118.15132119075314, -72.4420037796502, -39.54023594143819, -96.96186744712203, -121.90641425924473, -120.31944040291792, -73.29137006895186, -38.69086965213653, -96.13485290227568, -124.58862359388156, -120.29708865846261, -67.94930314413347, -35.941605084133755, -92.737387745069, -122.50991135953801, -120.83353052538997, -70.31858805639602, -38.06502080738793, -93.29618135645168, -123.98512649358828, -121.30291715895143, -68.84337292234575, -37.30506149590749, -90.5022132995383, -124.78978929397933, -120.34179214737323, -64.06009960891004, -34.13111378325389, -86.45654755312772, -123.49338811557152, -120.07357121390955, -64.75300368702456, -35.025183561466164, -85.31660858590706, -123.38162939329499, -121.01234448103244, -64.39537577573965, -34.10876203879858, -84.35548357432886, -125.81796953892345, -121.57113809241511, -63.590712975348595, -35.24870100601924, -83.59552426284841, -125.50504511654916, -121.1911584366749, -63.38954727525083, -34.30992773889634, -80.89096318375626, -124.54392010497095, -118.84422526886765, -61.17672457417543, -33.10293353830976, -76.77824220397976, -122.66637357072516, -117.61487932382576, -58.76273617300227, -30.443075948128218, -74.29719856944068, -108.76358851952416, -45.28463426645211, -33.237044005041604, -50.29142502444089, -113.36804787731742, -108.98710596407724, -46.24575927803031, -33.5499684274159, -48.25741627900795, -112.45162635464983, -104.80732975093481, -41.149561542220304, -30.085448036843307, -43.116515054287326, -105.88021348478955, -101.63338203828121, -40.05432606391025, -29.52665442546063, -43.29532900992978, -105.94726871815547, -102.46039658312758, -41.32837549786276, -30.59953815931537, -43.3623842432957, -106.37195186280631, -105.12025417330912, -44.27880576596329, -34.26522424998573, -46.513980211493994, -111.0881699428761, -106.48371058508285, -44.83759937734597, -35.00283181701086, -45.2622825219968, -107.55659431893758, -104.91908847321135, -42.669480165181184, -32.097105037820945, -41.216616775586225, -104.13677741727561, -99.95700120413318, -40.836637119846, -31.314793981885195, -38.26618650748569, -100.22522213759687, -97.18538489167511, -38.82498011886837, -29.325488725362867, -35.338107983840466, -97.99004769206616, -98.54884130344884, -39.33907024134043, -30.867759092779053, -38.53440744094937, -99.84524248185664, -97.31949535840695, -39.160256285697976, -30.398372459217605, -37.528578940460555, -97.76653024751309, -95.97839069108852, -38.57911092985999, -29.481950936550017, -36.3886399732399, -97.09597791385389, -95.64311452425892, -39.227311519063896, -29.97368931456677, -37.394468473728715, -97.58771629187063, -97.69947501414717, -40.25549176400802, -29.97368931456677, -36.52275043997174, -95.01726567951032, -95.15137614624217, -37.3497649848181, -28.83375034734611, -34.13111378325389, -93.78791973446843, -94.68198951268072, -36.545102184427044, -28.744343369524884, -34.77931437245779, -91.68685575566957, -93.58675403437067, -38.713221396591834, -29.77252361446901, -37.193302773630954, -95.01726567951032, -97.99004769206616, -41.19426503113092, -29.861930592290236, -37.193302773630954, -93.3408848453623, -96.00074243554383, -39.36142198579574, -29.280785236452253, -35.65103240621477, -90.61397202181483, -93.87732671228966, -37.84150336283486, -28.00673580249975, -32.67825039365893, -86.74712023104671, -91.7762627334908, -35.740439384035994, -27.31383172438523, -32.00769805999971, -86.21067836411935, -90.45750981062768, -36.790971373435426, -28.431418947150583, -34.86872135027902, -88.98229467657741, -91.50804180002712, -37.528578940460555, -28.20790150259751, -33.70643063860305, -86.74712023104671, -91.95507668913325, -37.68504115164771, -27.98438405804444, -34.06405854988796, -87.10474814233163, -93.29618135645168, -37.30506149590749, -27.760866613491373, -33.371154471773444, -83.72963472958025, -91.95507668913325, -38.02031731847731, -27.872625335767907, -33.237044005041604, -85.04838765244337, -93.31853310090699, -38.35559348530692, -27.939680569133827, -33.25939574949691, -85.13779463026461, -92.60327727833716, -38.08737255184324, -27.671459635670143, -33.2146922605863, -82.50028878453837, -90.07753015488747, -36.09806729532091, -26.86679683527909, -31.851235848812564, -81.673274239692, -88.53525978747128, -36.05336380641029, -26.956203813100316, -32.34297422682932, -80.28746608346297, -88.89288769875618, -34.75696262800248, -26.218596246075183, -29.928985825656156, -77.2029253486306, -85.89775394174504, -34.19816901661981, -26.196244501619876, -29.571357914371244, -76.48766952606077, -86.65771325322548, -34.66755565018126, -26.39741020171764, -30.42072420367291, -76.5994282483373, -87.50707954252715, -34.958128328100244, -26.576224157360098, -32.164160271186866, -78.76754746050209, -89.33992258786233, -36.343936484329284, -26.598575901815405, -30.53248292594945, -76.97940790407752, -84.44489055215008, -34.64520390572595, -26.822093346368476, -30.59953815931537, -75.37008230329542, -88.71407374311373, -35.51692193948292, -26.486817179538868, -30.82305560386844, -75.34773055884011, -88.42350106519474, -37.640337662737096, -27.02325904646624, -31.538311426438266, -76.5994282483373, -86.92593418668916, -35.606328917304154, -26.531520668449485, -30.465427692583525, -73.33607355786248, -85.18249811917522, -34.68990739463656, -26.24094799053049, -28.07379103586567, -68.75396594452452, -85.36131207481768, -39.8755121082678, -28.699639880614267, -39.36142198579574, -89.16110863221988, -105.20966115113035, -55.409974504706206, -33.72878238305836, -56.99694836103301, -109.23297515308562, -120.96764099212183, -64.82005892039048, -35.136942283742705, -58.69568093963635, -109.41178910872807, -119.9394607471777, -65.73648044305807, -34.98048007255555, -56.39345126073972, -107.9365739746778, -120.98999273657714, -63.68011995316982, -34.555796927904716, -56.90754138321178, -107.75776001903535, -121.34762064786204, -64.37302403128434, -35.00283181701086, -57.198114061130774, -106.64017279627, -122.73342880409108, -65.35650078731786, -35.51692193948292, -58.047480350432444, -106.43900709617223, -122.75578054854638, -69.67038746719211, -37.23800626254157, -68.15046884423123, -129.21543469613013, -147.09683026037578, -90.23399236607462, -43.42943947666162, -89.74225398805785, -158.76444086604607, -179.4398044872051, -116.76551303452409, -49.665576179692295, -102.2145273941192, -172.19783928368562, -187.0393976020095, -117.30195490145147, -49.24089303504146, -101.09694017135385, -169.56033343795937, -184.06661558945365, -115.49146360057159, -48.950320357122465, -99.95700120413318, -166.31933049193987, -183.2843045335179, -117.25725141254085, -49.10678256830962, -100.15816690423095, -168.44274621519403, -184.96068536766595, -117.36901013481739, -48.99502384603308, -99.15233840374214, -167.90630434826664, -185.85475514587822, -116.85492001234532, -48.57034070138225, -98.16886164770862, -168.71096714865772, -186.12297607934192, -118.84422526886765, -49.10678256830962, -98.54884130344884, -168.42039447073873, -186.3911970128056, -116.67610605670286, -48.45858197910571, -96.8501087248455, -166.49814444758232, -185.94416212369944, -117.70428630164699, -48.63739593474817, -98.61589653681476, -166.7216618921354, -185.65358944578045, -118.30778340194028, -49.62087269078168, -101.83454773837897, -173.4048334842722, -193.3649412828614, -124.9686032496218, -50.336128513351504, -101.05223668244324, -172.71192940615768, -190.4815662481268, -123.82866428240112, -50.3137767688962, -101.18634714917508, -172.93544685071075, -191.68856044871336, -124.63332708279218, -49.82203839087944, -99.77818724849072, -171.8402113724007, -192.20265057118544, -123.51573986002683, -49.57616920187107, -99.7111320151248, -171.14730729428618, -191.4650430041603, -123.96277474913298, -49.95614885761128, -99.48761457057174, -170.0073683270655, -189.5651447254592, -122.97929799309946, -49.77733490196883, -98.95117270364436, -170.07442356043143, -192.04618835999827, -125.08036197189833, -49.799686646424135, -97.4536058251388, -168.37569098182811, -190.5262697370374, -124.47686487160503, -49.64322443523699, -97.85593722533432, -170.5885136829035, -192.49322324910443, -124.87919627180055, -49.91144536870067, -97.69947501414717, -169.0015398265767, -194.39312152780553, -126.46617012812736, -50.29142502444089, -96.24661162455222, -166.60990316985885, -190.7944906705011, -123.51573986002683, -49.48676222404983, -95.5984110353483, -166.766365381046, -190.7944906705011, -125.28152767199609, -50.17966630216436, -96.69364651365835, -167.81689737044542, -191.86737440435581, -125.79561779446814, -50.13496281325374, -94.41376857921703, -165.98405432511024, -190.1462900812972, -124.18629219368604, -49.48676222404983, -94.07849241238743, -167.7721938815348, -193.3425895384061, -128.2096061956413, -50.89492212473418, -97.27479186949634, -170.36499623835044, -197.8576419183781, -131.80823705294574, -51.69958492512524, -99.50996631502704, -173.33777825090627, -199.28815356351777, -131.83058879740105, -51.81134364740177, -101.09694017135385, -176.06469107445372, -201.635086731325, -133.41756265372786, -51.65488143621462, -97.94534420315554, -172.64487417279176, -197.72353145164627, -132.6128998533368, -51.900750625223, -95.82192847990137, -166.49814444758232, -189.9004208922888, -125.14741720526425, -50.000852346521896, -90.70337899963606, -166.05110955847616, -194.37076978335023, -127.74021956207986, -50.82786689136826, -93.49734705654944, -164.8888188468002, -193.49905174959324, -128.2096061956413, -50.470238980083344, -91.73155924458018, -164.10650779086444, -193.0520168604871, -127.2037776951525, -50.38083200226212, -91.39628307775058, -162.9665688236438, -193.47670000513793, -129.19308295167482, -50.89492212473418, -90.5022132995383, -162.16190602325273, -190.39215927030557, -126.93555676168882, -50.22436979107497, -89.5634400324154, -160.66433914474717, -190.34745578139496, -126.53322536149328, -50.06790757988782, -88.9599429321221, -158.47386818812708, -189.47573774763796, -127.04731548396535, -50.269073279985584, -89.38462607677295, -161.17842926721923, -190.8168424149564, -127.04731548396535, -50.3137767688962, -88.84818420984557, -160.32906297791757, -191.8450226599005, -128.09784747336477, -50.69375642463642, -88.08822489836514, -159.59145541089242, -189.78866217001226, -127.11437071733127, -50.20201804661966, -85.89775394174504, -159.45734494416058, -190.30275229248434, -127.31553641742903, -50.73845991354703, -87.10474814233163, -160.08319378890917, -193.56610698295916, -129.7965800519681, -51.07373608037664, -87.37296907579531, -160.28435948900696, -193.52140349404854, -130.91416727473347, -51.386660502750935, -85.51777428600482, -156.73043212061313, -188.9169441362553, -127.29318467297372, -50.69375642463642, -84.80251846343499], [-2042.2341873924956, -2040.647213536169, -2042.413001348138, -2043.932919971099, -2043.0835536817974, -2041.9883182034873, -2041.3401176142834, -2041.5859868032917, -2042.54711181487, -2041.0271931919092, -2039.9766612025096, -2041.0718966808197, -2042.5247600704147, -2042.7035740260571, -2042.1894839035851, -2041.9883182034873, -2042.256539136951, -2043.3070711263504, -2042.4800565815042, -2040.8260274918114, -2041.2060071475516, -2041.7871525033895, -2042.5694635593254, -2043.3070711263504, -2043.5305885709035, -2042.9494432150655, -2043.195312404074, -2043.709402526546, -2043.351774615261, -2043.3964781041716, -2043.6646990376353, -2043.0388501928867, -2044.7822862604007, -2044.5587688158475, -2044.1117339267414, -2043.7764577599119, -2043.6423472931801, -2044.7599345159454, -2045.4751903385152, -2044.8269897493112, -2044.5364170713924, -2044.5364170713924, -2045.5645973163364, -2045.4975420829705, -2044.804638004856, -2044.5587688158475, -2044.9387484715878, -2046.2351496499957, -2046.54807407237, -2047.9562339730544, -2048.3362136287947, -2050.861960752244, -2056.8969317551773, -2065.927036515121, -2072.252580195973, -2077.5052401429703, -2084.2778187129284, -2090.8268798383333, -2096.2807054854284, -2099.32054273135, -2099.477004942537, -2098.962914820065, -2098.6946938866013, -2099.253487497984, -2098.2923624864056, -2097.3759409637382, -2098.5382316754144, -2098.806452608878, -2098.9852665645203, -2098.739397375512, -2098.2029555085846, -2098.9405630756096, -2098.806452608878, -2099.342894475805, -2099.186432264618, -2097.353589219283, -2097.1747752636406, -2099.477004942537, -2100.371074720749, -2098.9405630756096, -2098.1806037641295, -2099.029970053431, -2099.611115409269, -2100.281667742928, -2100.1028537872858, -2099.1417287757076, -2099.8793363427326, -2099.5664119203584, -2100.41577820966, -2100.482833443026, -2099.70052238709, -2099.7899293649116, -2100.03579855392, -2099.544060175903, -2098.7841008644227, -2098.2029555085846, -2098.091196786308, -2098.4935281865037, -2098.6499903976905, -2096.7277403745343, -2095.6772083851347, -2096.7947956079, -2097.4653479415592, -2097.3759409637382, -2096.9065543301767, -2096.839499096811, -2097.197127008096, -2100.996923565498, -2106.0707695568526, -2111.5916504373135, -2114.832653383333, -2118.923022618654, -2123.214557554073, -2123.9968686100087, -2121.1134935752743, -2118.677153429646, -2116.956069106587, -2117.4701592290594, -2117.8501388847994, -2117.0678278288638, -2116.1290545617408, -2115.972592350554, -2115.0785225723416, -2115.8608336282773, -2115.1008743167968, -2113.670362671657, -2114.452673727593, -2114.9220603611543, -2115.2349847835285, -2114.832653383333, -2113.6033074382913, -2113.357438249283, -2114.6538394276904, -2115.5926126948134, -2114.4973772165035, -2113.4915487160147, -2113.402141738193, -2114.027990582942, -2119.057133085386, -2131.305889046894, -2112.8433481268107, -2111.70340915959, -2112.999810337998, -2124.5556622213917, -2144.359307808794, -2114.5644324498694, -2111.5916504373135, -2112.1057405597858, -2130.1435983352185, -2152.4059358127042, -2115.5702609503583, -2111.3681329927604, -2111.859871370777, -2133.384601281238, -2156.988043426042, -2116.4643307285705, -2110.4293597256374, -2111.9492783485985, -2138.704316461601, -2161.279578361461, -2117.246641784506, -2110.3623044922715, -2110.541118447914, -2137.318508305372, -2163.3582905958046, -2117.581917951336, -2109.602345180791, -2111.099912059297, -2140.2018833401066, -2166.465183075092, -2118.543042962914, -2108.127130046741, -2109.8482143697997, -2140.738325207034, -2166.129906908263, -2117.5372144624253, -2105.601382923291, -2107.0765980573415, -2142.057078129897, -2167.6274737867684, -2118.0513045848975, -2104.5061474449813, -2106.808377123878, -2142.8840926747434, -2168.342729609338, -2119.8170923968664, -2103.634429411224, -2106.22723176804, -2144.001679897509, -2170.734366266056, -2121.5605284643802, -2103.1650427776626, -2105.288458500917, -2143.8228659418664, -2169.1920958986398, -2121.2029005530953, -2101.2651444989615, -2104.1261677892408, -2145.543950264925, -2170.7790697549667, -2123.2369092985286, -2100.7510543764897, -2103.612077666769, -2144.672232231168, -2169.505020321014, -2123.214557554073, -2098.806452608878, -2103.835595111322, -2147.3320898213497, -2171.8072499999107, -2126.8131884113777, -2101.1310340322298, -2104.8190718673554, -2148.829656699855, -2171.8743052332766, -2127.6625547006793, -2101.1310340322298, -2105.6907899011126, -2151.087182889841, -2172.2095814001063, -2125.807359910889, -2095.096063029297, -2099.0746735423418, -2139.196054839618, -2151.1095346342963, -2097.442996197104, -2054.6617573096464, -2049.5655595738363, -2085.283647213417, -2100.2146125095624, -2051.197236919074, -2013.4004370451496, -2019.0107249034318, -2066.8211062933333, -2092.7491298614896, -2057.992167233487, -2028.0855331522864, -2037.8308937348002, -2089.2399059820063, -2113.022162082453, -2075.2030104640735, -2041.6306902922024, -2048.939710729088, -2098.22530725304, -2117.7607319069784, -2080.209801222062, -2044.7822862604007, -2050.124353185219, -2097.085368285819, -2117.4254557401487, -2082.802603578878, -2044.2011409045626, -2049.8114287628446, -2100.41577820966, -2120.197072052607, -2084.0766530128303, -2044.4470100935712, -2051.9124927416437, -2101.421606710149, -2119.70533367459, -2086.6918071141013, -2045.3634316162386, -2050.906664241155, -2101.8239381103444, -2120.0406098414196, -2085.5518681468807, -2043.9776234600097, -2051.26429215244, -2102.2039177660845, -2119.7723889079557, -2087.451766425582, -2043.4858850819928, -2050.4149258631383, -2101.0416270544088, -2119.1465400632073, -2087.407062936671, -2043.5976438042694, -2050.5937398187807, -2101.6898276436123, -2117.984249351531, -2087.004731536476, -2062.55192310237, -2004.1468148406525, -1740.239768056842, -2062.7977922913783, -2058.036870722398, -2063.580103347314, -1987.9418001105548, -1682.5499156176945, -2050.638443307691, -2057.7910015333896, -2061.993129490987, -1970.3733289686834, -1626.6929062238821, -2038.3449838572724, -2057.0086904774535, -2061.8590190242553, -1954.0789072607647, -1569.8524200740362, -2027.906719196644, -2060.0485277233756, -2062.9766062470208, -1937.4492093860163, -1509.3909513224307, -2015.2109283460295, -2059.8473620232776, -2063.1107167137525, -1920.2383661554297, -1453.3327762285205, -2001.576364228292, -2062.060184724353, -2064.0494899808755, -1903.9215927030557, -1397.3416563679764, -1987.6512274326358, -2061.6578533241577, -2064.2730074254287, -1888.1189093731534, -1341.0823155739683, -1973.1449452811416, -2063.5353998584033, -2063.9824347475096, -1871.265694053852, -1284.2865329130332, -1959.0186427853876, -2065.4576498815595, -2064.921208014632, -1854.0772025677209, -1228.0271921190254, -1941.4054681546056, -2065.6588155816576, -2066.5305336154147, -1838.073353537721, -1173.0195490145147, -1924.9322324910443, -2066.4411266375932, -2066.6869958266016, -1820.326068440207, -1118.525996032476, -1907.229650882441, -2066.3293679153167, -2065.9493882595766, -1805.5739170997044, -1065.3288442288451, -1887.9177436730558, -2067.782231304912, -2065.7258708150234, -1790.1288616810873, -1016.177358171625, -1871.1986388204862, -2069.860943539255, -2066.843458037789, -1774.0356056732662, -965.1259738357037, -1850.8809031106118, -2068.251617938473, -2065.0553184813643, -1757.3835560540624, -914.1863482220589, -1831.7701616013244, -2069.6597778391574, -2064.5635801033472, -1742.2290733133643, -864.7219377424643, -1813.821710803713, -2073.1690017186406, -2068.5868941053027, -1732.0590295861996, -821.314850010258, -1793.9733617274, -2074.264237196951, -2067.871638282733, -1719.0056108243002, -782.0204832578282, -1777.7906987417578, -2077.572295376336, -2069.995054005987, -1706.5780409071494, -744.6036630396442, -1759.4846200328614, -2079.0251587659313, -2069.2127429500515, -1694.8880785570238, -714.3394010471584, -1741.91614889099, -2077.0805569983195, -2070.2632749394506, -1684.919200529957, -686.6008861781223, -1725.7781893942583, -2078.93575178811, -2070.4644406395487, -1676.403185892485, -661.969263788374, -1709.5284711752502, -2082.6014378787804, -2072.2972836848835, -1668.4236131219404, -639.1704844439607, -1693.4799186563396, -2082.1096995007633, -2070.9785307620205, -1660.824020007136, -620.3279638681369, -1677.85604928208, -2082.7579000899673, -2071.514972628948, -1652.7326885143148, -599.4961380357908, -1661.4945723407952, -2084.166059990652, -2072.36433891825, -1645.2895576106976, -581.1900593268942, -1645.4236680774295, -2085.037778024409, -2074.5995133637803, -1639.8580837080578, -564.7391754077883, -1631.4314760484071, -2086.736510603012, -2075.024196508431, -1633.4207813049295, -549.0035473112521, -1615.5393857406839, -2088.0776152703306, -2075.5606383753584, -1628.5481010136725, -534.9219483044086, -1600.6084204445388, -2087.7870425924116, -2074.5995133637803, -1622.4907782662845, -521.8238260535987, -1586.2362487597763, -2089.8210513378444, -2076.0747284978306, -1617.0816561081, -508.68100031387814, -1570.1653444964106, -2089.731644360023, -2076.253542453473, -1610.0408566046783, -496.1416716744509, -1556.2625594452095, -2088.2340774815175, -2076.275894197928, -1607.403350758952, -485.5469448026353, -1542.9856232387572, -2088.8375745818107, -2076.611170364758, -1603.7823681571924, -476.4721365537807, -1530.4239428548747, -2091.0503972828865, -2078.4663651545484, -1601.1225105670107, -466.1903341043394, -1515.381218836453, -2094.291400228906, -2084.121356501741, -1601.5248419672064, -459.5518660011132, -1505.3005820871094, -2094.4255106956375, -2082.780251834423, -1598.0156180877232, -451.751107186211, -1490.5484307466068, -2092.7267781170344, -2081.997940778487, -1596.8533273760472, -444.5761972160575, -1477.9420468738135, -2094.738435118012, -2085.2389437245065, -1595.959257597835, -438.11654306847373, -1466.0732705680455, -2095.6995601295903, -2085.7530338469787, -1594.6181529305165, -433.37797324394865, -1455.992633818702, -2096.5265746744367, -2089.910458315666, -1596.8533273760472, -428.57234818605764, -1447.0519360365793, -2100.5945921653024, -2094.3361037178165, -1598.3955977434634, -424.0349440616303, -1437.6642033653502, -2102.092159043808, -2096.146595018696, -1599.4684814773182, -421.5091969381806, -1428.6340986054063, -2105.7801968789336, -2107.3671707352605, -1604.3188100241198, -420.2574992486834, -1420.095732223479, -2106.920135846154, -2109.155310291685, -1607.023371103212, -418.24584224770575, -1412.8761187644147, -2108.350647491294, -2109.781159136434, -1611.0243333607118, -417.95526956978676, -1405.1200634384231, -2107.7918538799113, -2110.898746359199, -1614.4217985179184, -417.1506067693957, -1399.7332930246941, -2108.507109702481, -2111.3234295038496, -1620.4120660319409, -417.4411794473147, -1389.7197115087167, -2106.3613422347717, -2109.3341242473275, -1619.4285892759074, -415.1836532573287, -1378.8120602145268, -2100.8851648432214, -2105.221403267551, -1620.8814526655024, -414.82602534604376, -1374.0064351566357, -2105.668438156657, -2110.541118447914, -1625.8211881901252, -414.2001765012952, -1366.9432839087588, -2104.953182334087, -2110.250545769995, -1628.4810457803067, -413.1943480008064, -1358.2931588045549, -2104.3943887227047, -2112.061037070875, -1632.0573248931557, -412.14381601140695, -1351.2747110455884, -2105.668438156657, -2112.776292893445, -1635.1642173724435, -411.5626706555689, -1343.8762836308817, -2104.7296648895344, -2111.8151678818667, -1637.6452610069825, -410.35567645498236, -1335.4273242267757, -2104.7967201229003, -2113.066865571364, -1640.3051185971642, -409.8862898214209, -1326.844254355938, -2103.4332637111265, -2111.9716300930536, -1642.1156098980439, -409.2157374877617, -1318.350591462921, -2101.3992549656937, -2111.6363539262243, -1644.37313608803, -407.6064118869796, -1308.582879135952, -2102.8297666108333, -2113.2903830159166, -1649.3352233571081, -408.36637119846006, -1300.8938790433263, -2100.1475572761965, -2110.831691125833, -1649.0670024236445, -406.51117640866954, -1292.422567894765, -2100.706350887579, -2113.2233277825508, -1653.9396827149014, -407.4052461868818, -1286.0746724694577, -2100.03579855392, -2111.7257609040453, -1655.7725257602365, -406.0641415195634, -1275.7034630421954, -2097.733568875023, -2111.457539970582, -1657.7618310167588, -406.15354849738463, -1268.7744222610502, -2097.5547549193807, -2110.9881533370203, -1659.438211850907, -405.84062407501034, -1259.6996140121955, -2095.811318851867, -2111.189319037118, -1664.4897060978064, -406.6676386198567, -1253.6199395203519, -2095.7219118740454, -2111.457539970582, -1667.3507293880857, -406.7346938532226, -1245.5956632608966, -2094.738435118012, -2111.390484737216, -1670.4129183784628, -407.1146735089628, -1237.7949044459945, -2094.246696739995, -2112.1057405597858, -1673.8997905134906, -408.5451851541025, -1230.8882154093046, -2094.3361037178165, -2112.3292580043385, -1678.2360289378203, -409.1933857433064, -1220.9863926156036, -2092.8832403282213, -2112.1057405597858, -1680.0912237276107, -409.1933857433064, -1213.7220756676288, -2092.324446716839, -2113.1339208047298, -1683.2875231847195, -409.8639380769656, -1206.3459999973775, -2091.5644874053582, -2113.357438249283, -1686.5508778751944, -411.2497462331946, -1199.036979560492, -2091.162156005163, -2112.2622027709726, -1687.9366860314235, -410.62389738844604, -1187.6822933771962, -2087.675283870135, -2106.3613422347717, -1686.5061743862839, -411.1826909998287, -1174.2041914706458, -2062.708385313557, -2080.232152966518, -1668.892999755502, -408.05344677608576, -1153.5511795939422, -2032.9805651879985, -2050.3478706297724, -1651.8162669916471, -406.4441211753036, -1138.3072898754228, -2020.5306435263926, -2045.6093008052471, -1655.0572699376667, -407.7181706092561, -1135.2898043739563, -2031.9076814541438, -2059.9814724900093, -1669.0718137111444, -411.0932840220075, -1134.9321764626714, -2044.067030437831, -2071.760841817956, -1680.6053138500827, -413.3731619564488, -1130.2159583826017, -2050.325518885317, -2079.0251587659313, -1688.3613691760743, -414.5354526681248, -1126.0585339139145, -2059.31092015635, -2089.1952024930956, -1696.8326803246357, -416.18948175781753, -1120.9846879225597, -2062.0825364688085, -2092.480908928026, -1702.822947838658, -418.1340835254292, -1115.3744000642778, -2063.4236411361267, -2095.6772083851347, -1706.6227443960602, -419.139912025918, -1108.624173238775, -2064.6976905700794, -2097.3982927081934, -1711.4507211984064, -420.8386446045214, -1102.0304086244594, -2063.669510325135, -2098.9182113311545, -1714.9152415889791, -420.72688588224486, -1094.6096294652975, -2066.6869958266016, -2101.7792346214337, -1720.1679015359762, -422.35856322748225, -1087.3229607728674, -2065.904684770666, -2101.8909933437103, -1723.1853870374428, -424.6831446508342, -1079.9692368470714, -2064.831801036811, -2101.443958454604, -1725.2640992717863, -425.53251094013586, -1071.5649809318759, -2063.4459928805823, -2102.5615456773694, -1729.5556342072052, -427.83474061903246, -1064.4794779395436, -2063.602455091769, -2103.679132900135, -1734.2495005428198, -430.24872902020564, -1057.3939749472113, -2062.3060539133617, -2104.4390922116154, -1736.3952680105292, -430.6957639093118, -1048.721498098552, -2060.674376568124, -2103.925002089143, -1738.5857389671492, -431.25455752069445, -1039.2667101939571, -2057.992167233487, -2102.449786955093, -1740.9997273683225, -433.75795289968886, -1031.9576897570719]]
[[-30.376020714762298, -73.4031287912284, -50.67140468018111, -27.514997424482996, -25.212767745586365, -33.10293353830976, -76.73353871506914, -52.437192492150366, -27.716163124580756, -24.855139834301454, -32.365325971284626, -76.51002127051608, -49.933797113155975, -27.067962535376854, -24.18458750064224, -28.856102091801418, -70.5644572454044, -48.30211976791856, -26.352706712807027, -24.18458750064224, -27.98438405804444, -69.9609601451111, -47.18453254515321, -25.995078801522112, -24.341049711829392, -28.54317766942712, -72.28554156846305, -50.87257038027887, -26.93385206864501, -24.0504770339104, -28.23025324705282, -73.29137006895186, -50.98432910255541, -26.978555557555623, -24.51986366747185, -29.325488725362867, -72.57611424638203, -50.60434944681519, -26.419761946172947, -24.11753226727632, -28.364363713784662, -71.77145144599098, -50.53729421344927, -27.000907302010933, -24.989250301033294, -31.091276537332124, -73.93957065815576, -54.85118089332353, -28.721991625069574, -25.548043912415974, -32.56649167138239, -75.3030270699295, -54.62766344877046, -28.83375034734611, -25.9503753126115, -33.08058179385445, -73.06785262439878, -54.225332048574934, -29.4372474476394, -25.458636934594743, -34.06405854988796, -75.14656485874235, -53.46537273709449, -28.856102091801418, -25.05630553439922, -30.75600037050252, -75.0348061364658, -55.56643671589336, -28.31966022487405, -25.19041600113106, -31.22538700406397, -75.0348061364658, -57.06400359439893, -28.945509069622645, -24.743381112024917, -29.861930592290236, -73.06785262439878, -54.06886983738779, -29.14667476972041, -25.05630553439922, -30.711296881591903, -71.99496889054404, -54.56060821540454, -27.067962535376854, -24.788084600935534, -30.13015152575392, -71.23500957906361, -53.554779714915725, -27.067962535376854, -24.29634622291878, -28.476122436061196, -70.54210550094909, -54.58295995985985, -28.587881158337733, -24.631622389748383, -30.398372459217605, -72.35259680182897, -54.20298030411963, -28.297308480418742, -24.609270645293076, -28.342011969329356, -71.99496889054404, -55.58878846034867, -28.587881158337733, -24.72102936756961, -30.577186414860062, -72.4420037796502, -54.38179425976208, -27.47029393557238, -24.631622389748383, -29.459599192094707, -71.99496889054404, -55.29821578242967, -27.69381138012545, -24.452808434105926, -28.990212558533262, -71.1679543456977, -54.739422171046996, -27.112666024287467, -24.29634622291878, -27.291479979929925, -67.03288162146588, -52.168971558686685, -26.79974160191317, -24.341049711829392, -27.179721257653387, -67.54697174393795, -54.02416634847717, -27.291479979929925, -24.18458750064224, -27.067962535376854, -67.99400663304408, -53.64418669273695, -27.38088695775115, -24.65397413420369, -28.990212558533262, -69.91625665620049, -57.01930010548832, -27.537349168938302, -24.72102936756961, -28.990212558533262, -70.45269852312786, -56.61696870529279, -27.514997424482996, -24.206939245097548, -26.03978229043273, -65.91529439870052, -55.18645706015314, -27.224424746564, -24.51986366747185, -29.392543958728787, -70.40799503421725, -57.55574197241569, -28.587881158337733, -24.989250301033294, -29.884282336745542, -69.87155316728987, -57.399279761228534, -28.856102091801418, -24.855139834301454, -28.31966022487405, -68.12811709977592, -58.02512860597714, -29.37019221427348, -24.788084600935534, -28.721991625069574, -67.32345429938488, -56.259340794007876, -28.654936391703654, -24.475160178561232, -27.760866613491373, -68.15046884423123, -59.32152978438494, -28.029087546955058, -24.631622389748383, -27.62675614675953, -67.56932348839325, -58.69568093963635, -27.8502735913126, -24.609270645293076, -28.923157325167338, -69.82684967837926, -59.8132681624017, -29.794875358924315, -24.743381112024917, -28.76669511398019, -67.79284093294632, -57.35457627231792, -27.69381138012545, -24.452808434105926, -26.93385206864501, -64.39537577573965, -55.63349194925928, -27.24677649101931, -24.318697967374085, -26.62092764627071, -64.17185833118657, -55.65584369371459, -27.425590446661765, -24.385753200740005, -27.358535213295845, -66.49643975453851, -58.15923907270898, -28.297308480418742, -24.698677623114303, -27.112666024287467, -64.64124496474803, -57.62279720578161, -28.587881158337733, -24.72102936756961, -27.805570102401987, -66.85406766582342, -59.38858501775086, -27.179721257653387, -24.29634622291878, -26.39741020171764, -63.81423041990166, -59.4779919955721, -28.20790150259751, -24.51986366747185, -27.067962535376854, -63.56836123089329, -58.02512860597714, -27.537349168938302, -24.542215411927156, -27.55970091339361, -65.13298334276477, -59.61210246230394, -27.8502735913126, -24.385753200740005, -25.324526467862903, -60.93085538516705, -50.000852346521896, -65.66942520969215, -29.034916047443875, -24.698677623114303, -25.12336076776514, -51.83369539185708, -67.54697174393795, -29.191378258631023, -24.832788089846147, -26.911500324189703, -54.40414600421739, -70.5644572454044, -31.135980026242738, -25.12336076776514, -24.788084600935534, -52.772468658979975, -69.80449793392395, -31.471256193072342, -25.168064256675752, -26.419761946172947, -53.26420703699673, -71.41382353470607, -32.49943643801647, -25.03395378994391, -26.486817179538868, -52.28073028096322, -69.15629734472004, -30.331317225851684, -24.989250301033294, -26.419761946172947, -50.98432910255541, -70.18447758966418, -31.80653235990195, -25.27982297895229, -27.269128235474618, -51.94545411413361, -70.94443690114461, -32.54413992692708, -25.391581701228823, -26.86679683527909, -51.96780585858892, -70.5644572454044, -32.38767771573993, -25.27982297895229, -27.179721257653387, -53.4877244815498, -73.4254805356837, -33.41585796068406, -25.391581701228823, -26.308003223896414, -52.28073028096322, -71.99496889054404, -32.11945678227625, -25.302174723407596, -27.31383172438523, -53.42066924818388, -73.96192240261107, -34.220520761075115, -25.816264845879658, -28.83375034734611, -55.92406462717827, -76.44296603715016, -34.91342483918963, -25.905671823700885, -29.21373000308633, -54.65001519322577, -75.6159514923038, -35.36045972829577, -25.592747401326587, -26.419761946172947, -50.49259072453865, -70.69856771213624, -31.203035259608658, -25.011602045488605, -24.966898556577988, -47.58686394534874, -66.25057056553014, -29.705468381103085, -25.27982297895229, -30.867759092779053, -63.054271108421226, -90.8374894663679, -49.55381745741576, -29.52665442546063, -49.531465712960454, -92.58092553388185, -122.01817298152126, -74.78893694745743, -34.8016661169131, -71.10089911233176, -127.8743300288117, -152.64006288529194, -97.63241978078125, -39.00379407451082, -82.74615797354674, -145.15222849276407, -169.20270552667446, -108.94240247516662, -40.94839584212254, -86.76947197550201, -151.9024553182668, -175.3717869963392, -112.6527920547476, -41.57424468687114, -90.21164062161931, -158.11624027684215, -178.34456900889506, -114.35152463335093, -41.61894817578175, -86.83652720886793, -152.4836006741048, -172.68957766170237, -111.53520483198224, -41.39543073122868, -85.20484986363053, -151.74599310707964, -175.3717869963392, -111.28933564297387, -41.39543073122868, -85.87540219728973, -150.6284058843143, -173.18131603971912, -111.26698389851856, -41.61894817578175, -83.84139345185679, -150.51664716203777, -174.88004861832246, -113.03277171048782, -41.84246562033482, -84.57900101888193, -150.53899890649308, -173.53894395100403, -110.05998969793198, -41.484837709049906, -82.90262018473389, -147.87914131631152, -171.48258346111578, -110.64113505376996, -41.50718945350521, -81.85208819533446, -147.29799596047354, -172.4660602171493, -112.51868158801575, -42.065983064887895, -83.43906205166127, -149.13083900580872, -175.10356606287553, -114.82091126691238, -42.78123888745772, -85.85305045283442, -155.3669757088394, -182.81491789995647, -119.53712934698217, -43.51884645448285, -86.25538185302996, -155.65754838675838, -180.46798473214923, -118.3524868908509, -43.787067387946536, -85.94245743065565, -155.83636234240083, -181.83144114392294, -120.29708865846261, -43.854122621312456, -84.95898067462214, -153.8247053414232, -179.61861844284755, -118.0172107240213, -43.340032498840394, -83.28259984047412, -150.89662681777799, -179.05982483146488, -119.00068748005481, -43.720012154580616, -83.81904170740148, -152.01421404054332, -179.0821765759202, -119.80535028044585, -44.09999181032084, -83.30495158492943, -151.9471588071774, -179.57391495393694, -119.9171090027224, -44.23410227705268, -83.01437890701042, -151.85775182935618, -178.72454866463528, -120.5876613363816, -44.189398788142064, -82.74615797354674, -153.57883615241482, -182.8819731333224, -121.92876600370003, -44.77054414398005, -83.50611728502719, -154.04822278597626, -182.52434522203748, -120.9005857587559, -44.6140819327929, -82.65675099572552, -152.10362101836455, -183.19489755569668, -122.77813229300169, -44.927006355167194, -83.05908239592104, -154.58466465290365, -184.93833362321064, -125.14741720526425, -45.53050345546049, -82.9473236736445, -153.73529836360197, -183.03843534450954, -122.75578054854638, -45.2622825219968, -82.70145448463613, -154.1823332527081, -184.60305745638104, -124.85684452734525, -45.75402090001356, -82.07560563988753, -152.70711811865786, -182.74786266659055, -121.72760030360226, -45.172875544175575, -80.7121492281138, -149.84609482837854, -180.7362056656129, -121.63819332578103, -45.19522728863088, -79.16987886069762, -150.40488843976124, -183.99956035608773, -124.49921661606034, -46.02224183347724, -81.36034981731771, -150.74016460659084, -181.96555161065479, -124.43216138269442, -45.82107613337948, -77.89582942674511, -148.1250105053199, -181.0491300879872, -124.00747823804359, -46.24575927803031, -79.03576839396577, -147.92384480522213, -179.35039750938387, -122.73342880409108, -46.513980211493994, -78.85695443832331, -149.46611517263833, -182.0102550995654, -125.19212069417486, -46.558683700404615, -78.92400967168923, -151.41071694025004, -183.6195807003475, -125.9297282612, -47.02807033396606, -78.90165792723393, -150.76251635104614, -182.12201382184196, -124.76743754952402, -46.893959867234216, -77.5382015154602, -149.28730121699587, -181.25029578808497, -124.7003823161581, -47.20688428960852, -77.06881488189875, -148.90732156125566, -183.9101533782665, -125.08036197189833, -47.11747731178729, -76.89000092625629, -146.38157443780597, -180.1103568208643, -125.88502477228937, -47.72097441208058, -77.58290500437082, -149.84609482837854, -185.40772025677208, -127.33788816188434, -48.078602323365494, -77.69466372664735, -148.08030701640928, -182.2561242885738, -126.35441140585083, -48.1009540678208, -75.92887591467809, -147.54386514948192, -182.74786266659055, -126.66733582822512, -48.03389883445488, -75.6383032367591, -146.96271979364394, -182.5914004554034, -126.2650044280296, -48.25741627900795, -74.3419020583513, -145.44280117068305, -180.42328124323862, -125.86267302783406, -48.50328546801632, -74.63247473627028, -145.50985640404897, -181.11618532135313, -124.07453347140951, -47.7880296454465, -72.39730029073958, -144.68284185920263, -181.3620545103615, -124.45451312714972, -48.1009540678208, -73.87251542478984, -144.86165581484508, -179.66332193175816, -125.79561779446814, -48.480933723561016, -72.39730029073958, -141.41948716872778, -179.39510099829448, -127.2261294396078, -49.28559652395207, -72.26318982400774, -143.54290289198195, -180.42328124323862, -125.90737651674469, -49.41970699068391, -72.68787296865857, -142.76059183604622, -180.3562260098727, -126.10854221684245, -49.263244779496766, -71.32441655688484, -141.39713542427248, -179.57391495393694, -129.03662074048768, -50.49259072453865, -71.65969272371444, -144.74989709256855, -183.03843534450954, -129.4613038851385, -50.581997702359885, -74.72188171409151, -150.18137099520814, -188.78283366952346, -133.1940452091748, -51.40901224720624, -72.82198343539041, -147.7897343384903, -188.80518541397876, -133.03758299798764, -50.9619773581001, -72.91139041321163, -146.02394652652103, -184.4912987341045, -131.56236786393737, -51.23019829156379, -71.88321016826751, -144.14639999227524, -182.65845568876932, -131.60707135284798, -52.19132330314199, -72.68787296865857, -146.35922269335066, -187.24056330210726, -135.22805395460773, -52.79482040343528, -71.34676830134015, -145.2639872150406, -184.1336708228196, -131.3612021638396, -51.54312271393809, -71.5255822569826, -146.64979537126965, -187.46408074666033, -134.55750162094853, -52.973634359077735, -71.07854736787645, -145.17458023721937, -185.98886561261006, -133.43991439818316, -52.61600644779283, -69.53627700046027, -142.4029639247613, -184.08896733390895, -133.46226614263847, -52.92893087016712, -69.6033322338262, -144.52637964801548, -186.83823190191174, -135.85390279935632, -53.91240762620063, -71.41382353470607, -147.56621689393722, -188.40285401378324, -136.54680687747086, -54.02416634847717, -70.13977410075356, -145.9345395486998, -187.79935691348993, -137.0161935110323, -54.739422171046996, -71.01149213451053, -147.58856863839253, -187.82170865794524, -139.16196097874177, -55.409974504706206, -69.42451827818374, -145.21928372613, -186.27943829052907, -136.7256208331133, -55.02999484896599, -66.4293845211726, -141.73241159110208, -185.765348168057, -133.70813533164684, -54.158276815209014, -68.64220722224799, -144.0346412699987, -186.32414177943969, -137.3291179334066, -55.23116054906375, -67.21169557710834, -141.8218185689233, -185.31831327895085, -136.0997719883647, -55.074698337876605, -66.85406766582342, -140.88304530180042, -183.66428418925813, -136.01036501054347, -55.477029738072126, -66.47408801008321, -140.34660343487306, -183.32900802242852, -134.4680946431273, -55.812305904901734, -66.51879149899382, -142.78294358050152, -186.88293539082235, -138.40200166726135, -56.6393204497481, -66.96582638809996, -142.87235055832275, -185.67594119023576, -137.84320805587865, -56.37109951628441, -65.71412869860276, -142.98410928059928, -185.02774060103187, -136.21153071064123, -56.48285823856095, -65.24474206504132, -141.95592903565515, -187.97817086913238, -139.78780982349036, -57.30987278340731, -65.08827985385416, -141.93357729119984, -186.50295573508214, -137.0385452554876, -56.68402393865871, -63.83658216435697, -138.33494643389542, -183.77604291153466, -138.06672550043172, -57.265169294496694, -63.590712975348595, -137.77615282251273, -182.74786266659055, -137.57498712241497, -57.9133698837006, -63.00956761951061, -138.73727783409095, -186.3911970128056, -141.68770810219146, -58.62862570627043, -57.24281755004139, -119.71594330262462, -161.089022289398, -112.18340542118615, -49.15148605722023, -46.73749765604707, -92.0668354114098, -129.7295248186022, -82.67910274018082, -39.093201052332056, -35.606328917304154, -60.99791061853298, -97.54301280296002, -56.43815474965033, -30.934814326144974, -27.067962535376854, -38.89203535223429, -77.82877419337919, -42.602424931815264, -26.978555557555623, -25.078657278854525, -34.39933471671757, -74.96775090309988, -39.58493943034881, -25.615099145781894, -23.96107005608917, -30.465427692583525, -71.74909970153567, -38.914387096689595, -25.88332007924558, -24.385753200740005, -33.12528528276507, -74.38660554726191, -40.94839584212254, -26.755038113002556, -25.726857868058428, -35.78514287294661, -77.00175964853283, -43.049459820921406], [-1804.0316467322884, -2120.4429412416152, -2014.9203556681105, -857.636434750132, -437.44599073481453, -1802.3105624092298, -2122.61106045378, -2018.6083935032361, -863.9843301754393, -433.71324941077825, -1798.6001728296487, -2121.962859864576, -2020.4635882930265, -871.2262953789586, -428.7288103972448, -1792.9898849713666, -2121.381714508738, -2019.8824429371887, -876.1883826480368, -424.7054963952895, -1788.8101087582243, -2121.3370110198275, -2023.324611583306, -884.860859496696, -420.5257201821471, -1783.5798005556824, -2121.225252297551, -2024.933937184088, -889.6217810656764, -416.30124048009407, -1778.8859342200678, -2121.158197064185, -2027.6832017520908, -898.4060166366121, -413.3284584675382, -1775.7119865074144, -2122.856929642788, -2029.9630796865322, -904.731560317464, -407.89698456489856, -1767.9335794369674, -2122.6334121982354, -2032.3100128543394, -911.3923801651455, -403.47133916274777, -1763.7090997349144, -2122.834577898333, -2034.4110768331382, -917.5391098903549, -400.81148157256627, -1760.6692624889927, -2123.2369092985286, -2036.2439198784734, -925.5410344053548, -396.788167570611, -1756.042451386744, -2124.0192203544643, -2037.4285623346047, -931.5089501749219, -392.6977983352898, -1750.3427565506408, -2124.8462348993107, -2040.937786214088, -938.5944531672542, -390.1720512118401, -1746.6994222044257, -2124.578013965847, -2041.8318559923002, -944.6070724257318, -385.58994359850215, -1741.20089306842, -2125.0026971104976, -2044.0223269489202, -951.9384446070725, -382.52775460812506, -1736.5517302217163, -2125.248566299506, -2045.676356038613, -957.4593254875333, -378.63855107290163, -1731.0308493412554, -2125.51678723297, -2048.73854502899, -965.7965261693629, -375.3751963824268, -1727.9463086064231, -2128.0425343564193, -2052.6501003086687, -973.887857662184, -372.402414369871, -1722.6042416816047, -2127.0143541114753, -2052.806562519856, -979.6993112205639, -369.51903933513637, -1718.6032794241048, -2127.930775634143, -2055.108792198753, -988.0365119023934, -366.143925922385, -1712.6130119100824, -2127.774313422956, -2056.449896866071, -993.8032619718626, -362.52294332062525, -1706.9356688184344, -2127.7519616785007, -2058.483905611504, -1000.5534887973654, -359.08077467450795, -1701.7277123603478, -2128.646031456713, -2060.964949246043, -1007.370770856234, -356.6444345288795, -1697.7043983583926, -2127.997830867509, -2060.339100401294, -1012.5340238254099, -353.02345192711977, -1690.4847848993284, -2126.2096913110845, -2060.1602864456518, -1018.3454773837898, -349.7377454921896, -1684.338055174119, -2125.092104088319, -2061.5013911129704, -1025.3639251427562, -346.72025999072315, -1678.6383603380157, -2125.8520633997996, -2063.9153795141438, -1032.6952973240968, -343.0992773889634, -1673.117479457555, -2126.5896709668245, -2065.278835925917, -1040.2278352055355, -340.7299924767009, -1667.6189503215494, -2126.790836666922, -2066.3964231486825, -1044.787591074418, -337.19841685276236, -1662.053365952178, -2126.2543947999948, -2066.9552167600655, -1050.5766928883424, -333.5997859954579, -1655.9289879714238, -2127.483740745037, -2070.6209028507355, -1057.9304168141387, -331.0293353830976, -1651.8162669916471, -2129.696563446112, -2072.990187762998, -1065.30649248439, -329.3753062934049, -1647.725897756326, -2129.763618679478, -2074.308940685861, -1072.012015820982, -325.7096202027345, -1639.8133802191473, -2129.026011112453, -2075.0688999973418, -1079.6339606802417, -323.8320736684887, -1635.8347697061026, -2129.987136124031, -2077.549943631881, -1085.7136351720853, -320.1216840889077, -1628.2575283357537, -2128.2437000565174, -2076.298245942384, -1090.4745567410657, -317.4618264987262, -1621.1943770878765, -2128.4672175010705, -2077.326426187328, -1097.8059289224063, -315.47252124220387, -1616.3887520299857, -2129.2048250680955, -2080.4333186666154, -1104.5785074923645, -312.79031190756706, -1609.8173391601254, -2128.355458778794, -2081.8414785673, -1111.0381616399482, -310.3763235063939, -1603.7823681571924, -2129.5848047238355, -2082.8473070677887, -1116.335525075856, -308.275259527595, -1599.2896675216757, -2130.2330053130395, -2084.3448739462942, -1123.2869176014565, -305.90597461533247, -1591.7794813846924, -2128.5342727344364, -2084.2778187129284, -1129.7018682601295, -304.7660356481118, -1587.3538359825416, -2128.757790178989, -2084.389577435205, -1134.3063276179228, -301.45797746872637, -1579.731891123282, -2128.5566244788915, -2086.22242048054, -1142.040031199459, -299.7815966345783, -1573.987492798268, -2129.249528557006, -2088.2117257370624, -1148.7902580249618, -297.88169835587723, -1568.3548531955307, -2128.6907349456233, -2088.703464115079, -1153.9982144830483, -295.53476518806997, -1561.7387368367597, -2128.400162267704, -2108.261240513473, -2115.614964439269, -1449.935311071314, -271.9760265321763, -1247.6967272396955, -2105.5566794343804, -2113.8268248828444, -1455.0315088071238, -273.406538177316, -1243.3157853264554, -2105.6907899011126, -2115.2349847835285, -1460.1500582873891, -273.6300556218691, -1235.7608957005616, -2105.020237567453, -2115.614964439269, -1466.2967880125987, -274.85940156691095, -1228.7424479415952, -2103.902650344688, -2115.972592350554, -1472.2423520377104, -276.13345100086343, -1222.4392560051986, -2103.7461881335007, -2117.0454760844086, -1478.4784887407409, -277.1839829902629, -1216.1807675577127, -2103.030932310931, -2116.6207929397574, -1484.2675905546655, -278.01099753510925, -1207.9553255981596, -2102.7850631219226, -2118.0513045848975, -1487.9779801342465, -278.4133289353048, -1202.9038313512601, -2102.449786955093, -2118.1183598182633, -1494.3258755595537, -279.8661923248997, -1196.0641975479361, -2100.5722404208473, -2118.297173773906, -1500.3161430735759, -281.47551792568186, -1190.6997788786625, -2100.5275369319365, -2118.7665604074673, -1507.1781286213552, -283.1966022487405, -1182.7649095970285, -2099.70052238709, -2118.6548016851907, -1512.6990095018161, -284.6718173827908, -1176.8416973163721, -2099.253487497984, -2119.0794848298415, -1518.44340782683, -286.43760519476, -1171.2761129470007, -2099.097025286797, -2119.3924092522157, -1523.986640451746, -287.3540267174276, -1161.8883802757716, -2097.1077200302743, -2121.158197064185, -1530.7368672772488, -289.43273895177117, -1157.172162195702, -2098.068845041853, -2122.186377309129, -1535.3636783794975, -290.01388430760915, -1150.8019150259395, -2098.359417719772, -2124.198034310107, -1541.7562772937154, -292.04789305304206, -1140.5424643209535, -2090.245734482495, -2113.5809556938357, -1539.8787307594694, -293.0760732979862, -1129.880682215772, -2069.3021499278725, -2092.7491298614896, -1531.54153007764, -292.9419628312544, -1112.5804320073644, -2046.2351496499957, -2072.2078767070625, -1525.9088904749026, -294.08190179847503, -1108.110083116303, -2051.197236919074, -2081.7520715894784, -1537.3306318915645, -296.51824194410347, -1105.4725772705767, -2059.087402711797, -2089.932810060121, -1547.2101029408102, -298.28402975607275, -1101.784539435451, -2064.6529870811687, -2096.8171473523557, -1556.888408289958, -300.74272164615655, -1095.8613271547947, -2067.9833970050095, -2100.7957578654, -1563.862152560014, -302.597916435947, -1090.139280574236, -2070.352681917272, -2105.020237567453, -1572.244056730754, -305.6824571707794, -1087.077091583859, -2071.2020482065736, -2106.2719352569507, -1577.8096411001256, -307.2917827715615, -1079.2316292800463, -2072.36433891825, -2109.244717269506, -1584.604571414539, -309.5269572170922, -1072.9731408325601, -2072.476097640526, -2109.088255058319, -1589.276086005698, -311.65037294034636, -1066.915818085172, -2071.1349929732078, -2110.474063214548, -1597.4568244763404, -314.9137276308212, -1060.8584953377838, -2073.057242996364, -2113.2009760380956, -1604.9893623577789, -317.4618264987262, -1053.2365504785241, -2074.063071496853, -2115.056170827886, -1611.5831269720945, -320.2781463000949, -1047.916835298161, -2073.280760440917, -2115.346743505805, -1617.305173552653, -322.8709486569105, -1041.3007189393902, -2071.8726005402327, -2116.307868517383, -1622.0437433771783, -324.32381204650545, -1032.7400008130076, -2071.31380692885, -2116.352572006294, -1625.441208534385, -326.15665509184066, -1027.1520646991808, -2070.084460983808, -2117.291345273417, -1632.437304548896, -329.4200097823155, -1020.401837873678, -2069.8162400503447, -2118.1407115627185, -1637.4217435624296, -332.16927435031823, -1014.2327564040132, -2067.581065604814, -2117.8054353958887, -1641.9591476868568, -334.1585796068406, -1006.9907912004937, -2065.8823330262107, -2117.2019382955955, -1648.217636134343, -337.3101755750389, -1000.2629161194463, -2065.8823330262107, -2118.7665604074673, -1652.889150725502, -339.2771290871059, -993.8926689496839, -2065.3458911592834, -2119.32535401885, -1656.688947282904, -341.177027365807, -985.309599078846, -2064.228303936518, -2121.158197064185, -1661.8074967631694, -343.97099542272036, -981.3756920547119, -2065.524705114926, -2123.125150576252, -1667.2389706658091, -346.1614663793405, -972.9714361395164, -2063.0883649692973, -2122.566356964869, -1672.9163137574571, -349.7153937477343, -965.9976918694606, -2061.8143155353446, -2122.6557639426906, -1676.2690754257533, -351.16825713732925, -959.6497964441535, -2060.0708794678308, -2123.549833720903, -1680.9405900169124, -354.1857426387957, -953.3466045077569, -2059.1321062007078, -2123.0133918539755, -1686.9308575309346, -358.1643531518404, -946.5069707044329, -2056.382841632705, -2121.4264179976485, -1690.3953779215071, -360.84656248647724, -942.148380535648, -2057.165152688641, -2122.9686883650647, -1695.6703896129598, -363.50642007665874, -935.5322641768771, -2055.9581584880543, -2123.505130231992, -1700.207793737387, -366.7474230226783, -928.9161478181062, -2054.8852747541996, -2125.0474005994083, -1706.689799629426, -370.368405624438, -923.0376390263605, -2054.54999858737, -2126.2990982889055, -1711.6295351540489, -373.8105742705553, -916.7344470899639, -2051.5995683192696, -2124.8015314104, -1716.301049745208, -377.40920512785976, -910.2077377090142, -2051.152533430163, -2124.8015314104, -1721.3972474810182, -381.0525394740748, -904.5303946173663, -2050.6831467966017, -2126.477912244548, -1726.0911138166325, -384.33824590900497, -899.3000864148244, -2048.224454906518, -2126.701429689101, -1731.2543667858085, -388.1827459553178, -892.79572877833, -2045.9892804609872, -2125.807359910889, -1734.5400732207386, -391.5131558791585, -886.3807781196568, -2045.8328182498, -2126.477912244548, -1740.1280093345654, -395.916449536854, -883.0727199402714, -2043.9552717155543, -2126.679077944646, -1744.598358225627, -399.8056530720774, -876.9036384706067, -2042.54711181487, -2126.1426360777186, -1749.1134106055988, -402.80078682908857, -869.0134726778833, -2039.8649024802332, -2126.0085256109865, -1752.8238001851798, -405.7065136082785, -863.9843301754393, -2038.5685013018253, -2125.4050285106932, -1758.1211636210876, -411.38385669992647, -856.4517922940007, -2035.774533244912, -2125.7179529330674, -1762.4574020454172, -414.6472113904013, -851.0203183913611, -2036.1992163895627, -2127.1931680671178, -1767.6206550145932, -418.24584224770575, -845.2535683218919, -2034.6569460221467, -2127.4613890005817, -1771.0851754051657, -421.5762521715465, -839.0621351077718, -2032.3323645987946, -2126.343801777816, -1773.6109225286154, -424.9290138398426, -832.155446071082, -2029.4042860751495, -2124.868586643766, -1777.2319051303753, -428.63940341942356, -827.282765779825, -2028.0184779189203, -2125.5838424663357, -1782.104585421632, -432.9309383548425, -820.3537249986798, -2025.224509862007, -2124.5556622213917, -1783.4903935778611, -435.00965058918604, -814.0952365511938, -2023.2799080943953, -2125.740304677523, -1789.4583093474282, -439.94938611380894, -809.1107975376603, -2022.6540592496467, -2126.2543947999948, -1793.7051407939364, -443.7044791823005, -801.1759282560264, -2020.7988644598563, -2126.701429689101, -1798.041379218266, -448.15247632890663, -795.5656403977442, -2016.8873091801775, -2124.6227174547575, -1801.304733908741, -453.0922118535295, -789.6647798615433, -2016.1049981242418, -2126.5226157334587, -1807.719684567414, -457.8978369114205, -784.3674164256355, -2016.2391085909735, -2128.2437000565174, -1813.106454981143, -462.6587584804009, -777.2819134333031, -2013.802768445345, -2127.70725818959, -1814.9392980264781, -465.2292090927612, -772.0516052307612, -2012.5510707558478, -2128.4672175010705, -1819.297888195263, -470.41481380639243, -765.3013784052586, -2008.7959776873563, -2126.8578919002885, -1823.008277774844, -474.57223827507954, -758.9534829799513, -2005.5549747413368, -2126.120284333263, -1826.9645365434333, -479.04258716614095, -753.9466922219625, -2004.3479805407503, -2127.9084238896876, -1831.0325540342992, -483.267066868194, -746.9505962074514, -2003.4092072736273, -2129.5401012349253, -1836.1511035145645, -488.5420785596465, -741.0497356712503, -2001.7328264394794, -2129.2718803014614, -1840.9343768280003, -493.59357280654586, -733.5842530231778, -1997.2177740595073, -2128.444865756615, -1843.5718826737266, -497.97451471978604, -728.9797936653846, -1996.8601461482224, -2129.89772914621, -1848.8692461096343, -503.09306420005134, -723.1236366180941, -1995.7202071810018, -2130.702391946601, -1852.3784699891175, -507.69752355784465, -715.2111190809154, -1990.4451954895492, -2129.5624529793804, -1855.9323973575113, -512.458445126825, -710.8748806565858, -1991.1157478232085, -2131.1717785801625, -1860.3133392707516, -516.7946835511545, -702.2694590412926, -1985.7289774094795, -2128.5789762233467, -1861.5426852157934, -521.4885498867691, -697.3073717722144, -1984.6337419311694, -2129.7859704239336, -1865.2754265398296, -526.1153609890176, -690.9594763469072, -1981.8174221298007, -2131.305889046894, -1871.779784176324, -532.3962011809589, -685.1480227885274, -1979.6716546620912, -2130.99296462452, -1873.9255516440335, -535.748962849255, -677.9060575850079, -1977.3917767276498, -2130.925909391154, -1878.105327857176, -540.8675123295203, -672.6981011269213, -1974.0166633148986, -2129.9200808906653, -1880.4075575360725, -545.7625443652325, -665.4114324344913, -1969.5910179127477, -2128.444865756615, -1882.8662494261564, -550.746983378766, -661.8575050660975, -1968.3169684787952, -2129.4283425126487, -1886.4201767945501, -554.8597043585426, -653.386193917536, -1964.1595440101082, -2129.9424326351204, -1889.549421018293, -559.77708813871, -648.1335339705389, -1960.3150439637952, -2126.030877355442, -1890.5328977743266, -565.163858552439, -640.4668856223685, -1950.2344072144517, -2116.352572006294, -1882.7321389594244, -567.6672539314335, -630.8332837621313, -1933.5823575952481, -2102.7850631219226, -1877.3900720346062, -570.5506289661681, -622.3619726135698, -1926.0945232027202, -2099.477004942537, -1877.4794790124274, -574.6409982014893, -617.6904580224107, -1924.261680157385, -2100.1475572761965, -1883.1568221040754, -580.9218383934306, -612.3483910975923, -1926.653316814103, -2106.6295631682356, -1891.8292989527345, -588.7002454638774, -607.5874695286119, -1926.1839301805414, -2110.6975806591013, -1897.394883322106, -595.003437400274, -602.2230508593382, -1923.5687760792705, -2111.5916504373135, -1900.8370519682232, -599.3843793135142, -597.3950740569919, -1921.7359330339352, -2111.0105050814755, -1904.7039037589914]]
