[[-2437.144808428861, -2434.172026416305, -2432.0709624375063, -2432.540349071068, -2434.9319857277856, -2437.010697962129, -2435.2449101501597, -2433.233253149182, -2433.501474082646, -2436.9212909843077, -2436.9436427287633, -2435.200206661249, -2433.501474082646, -2432.6074043044337, -2436.0048694616403, -2438.441209607269, -2435.9825177171847, -2432.830921748987, -2433.590881060467, -2436.049572950551, -2437.6812502957882, -2435.6248898059, -2432.6968112822547, -2433.3226601270035, -2435.7366485281764, -2437.5471398290565, -2434.9543374722407, -2432.6968112822547, -2432.786218260076, -2435.0884479389724, -2436.8765874953974, -2435.557834572534, -2433.657936293833, -2434.3061368830367, -2437.9047677403414, -2439.2011689187493, -2437.457732851235, -2434.6414130498665, -2433.4791223381903, -2434.7084682832324, -2436.0272212060954, -2433.81439850502, -2431.4004101038468, -2430.7522095146433, -2433.6355845493777, -2436.809532262031, -2434.3731921164026, -2431.847444992953, -2433.1214944269054, -2435.9601659727296, -2438.2847473960815, -2435.423724105802, -2432.0709624375063, -2432.138017670872, -2435.6472415503554, -2436.2730903951037, -2434.6861165387772, -2433.4791223381903, -2433.9038054828416, -2435.7142967837212, -2436.362497372925, -2433.9708607162074, -2431.534520570579, -2432.0709624375063, -2435.3566688724363, -2437.43538110678, -2435.267261894615, -2431.601575803945, -2432.0933141819614, -2435.2449101501597, -2435.7366485281764, -2434.753171772143, -2432.2497763931487, -2433.724991527199, -2437.2565671511375, -2437.6812502957882, -2436.2283869061935, -2433.166197915816, -2432.9650322157186, -2435.9601659727296, -2437.7036020402434, -2435.490779339168, -2431.6686310373107, -2432.585052559978, -2436.206035161738, -2437.1224566844057, -2435.7142967837212, -2432.2944798820595, -2431.914500226319, -2436.0272212060954, -2437.167160173316, -2435.557834572534, -2432.6968112822547, -2432.473293837702, -2435.5801863169895, -2437.6141950624224, -2435.557834572534, -2432.473293837702, -2433.2556048936376, -2435.334317127981, -2437.05540145104, -2436.2730903951037, -2433.501474082646, -2433.881453738386, -2436.0272212060954, -2437.6141950624224, -2434.8649304944197, -2430.975726959196, -2430.4392850922686, -2433.9261572272967, -2435.133151427883, -2432.7191630267102, -2429.9922502031627, -2430.4169333478135, -2433.7473432716542, -2434.4178956053133, -2434.104971182939, -2431.3110031260258, -2431.0204304481067, -2434.462599094224, -2436.049572950551, -2434.596709560956, -2431.199244403749, -2431.825093248498, -2434.3731921164026, -2436.362497372925, -2434.6861165387772, -2431.3780583593916, -2432.1156659264166, -2434.6414130498665, -2436.34014562847, -2434.3508403719475, -2430.7745612590984, -2431.2886513815706, -2434.3508403719475, -2435.759000272632, -2434.2167299052157, -2431.4451135927575, -2432.562700815523, -2436.429552606291, -2437.7036020402434, -2434.753171772143, -2432.6744595377995, -2432.205072904238, -2436.071924695006, -2437.368325873414, -2434.239081649671, -2429.9922502031627, -2429.5452153140563, -2432.1156659264166, -2434.9543374722407, -2433.7696950161094, -2431.7580380151317, -2433.143846171361, -2434.9990409611514, -2436.9436427287633, -2434.753171772143, -2431.914500226319, -2432.6968112822547, -2435.6695932948105, -2435.7142967837212, -2434.14967467185, -2432.786218260076, -2433.9261572272967, -2435.557834572534, -2437.413029362325, -2435.490779339168, -2432.540349071068, -2431.6462792928555, -2434.3731921164026, -2435.8707589949086, -2432.9873839601737, -2429.724029269699, -2431.176892659294, -2434.3731921164026, -2435.691945039266, -2433.9932124606626, -2431.176892659294, -2431.0651339370174, -2433.4791223381903, -2434.9319857277856, -2433.6355845493777, -2429.8357879919754, -2430.90867172583, -2434.3061368830367, -2435.468427594713, -2434.14967467185, -2431.266299637115, -2430.215767647716, -2433.9708607162074, -2436.2954421395593, -2433.81439850502, -2431.8027415040424, -2432.473293837702, -2435.6025380614446, -2437.6141950624224, -2435.915462483819, -2433.0320874490844, -2432.8979769823527, -2435.2449101501597, -2436.72012528421, -2435.7142967837212, -2432.138017670872, -2432.0039072041404, -2435.915462483819, -2438.038878207073, -2435.490779339168, -2432.8979769823527, -2434.9319857277856, -2436.6530700508442, -2435.535482828079, -2433.300308382548, -2431.24394789266, -2434.9543374722407, -2436.6083665619335, -2435.3119653835256, -2432.182721159783, -2432.786218260076, -2436.049572950551, -2437.167160173316, -2435.8707589949086, -2431.690982781766, -2430.171064158805, -2433.4120671048245, -2436.2507386506486, -2434.887282238875, -2431.892148481864, -2431.8027415040424, -2434.14967467185, -2435.490779339168, -2433.9038054828416, -2430.953375214741, -2430.4839885811793, -2433.0991426824503, -2434.1273229273943, -2431.3780583593916, -2429.008773447129, -2430.215767647716, -2433.143846171361, -2435.177854916794, -2434.1273229273943, -2431.109837425928, -2431.825093248498, -2433.81439850502, -2435.423724105802, -2433.657936293833, -2430.2828228810818, -2429.3887531028695, -2431.1545409148384, -2433.523825827101, -2431.6239275484, -2428.0252966910957, -2427.5112065686235, -2431.109837425928, -2433.4791223381903, -2431.2886513815706, -2429.1205321694056, -2429.589918802967, -2431.690982781766, -2434.0155642051177, -2432.942680471263, -2427.757075757632, -2427.354744357436, -2429.880491480886, -2432.272128137604, -2432.2944798820595, -2427.7794275020874, -2428.561738558023, -2430.52869207009, -2432.8085700045312, -2431.914500226319, -2427.7794275020874, -2427.354744357436, -2430.171064158805, -2432.8979769823527, -2432.0262589485956, -2428.8970147248524, -2427.7794275020874, -2431.8027415040424, -2433.9708607162074, -2433.6802880382884, -2429.8134362475203, -2425.8795292233863, -2429.8134362475203, -2432.562700815523, -2430.8416164924643, -2427.645317035355, -2426.6394885348664, -2430.573395559001, -2433.143846171361, -2430.461636836724, -2425.946584456752, -2427.1312269128834, -2429.612270547422, -2431.176892659294, -2430.90867172583, -2428.204110646738, -2427.4665030797128, -2430.4169333478135, -2433.43441884928, -2432.6968112822547, -2429.567567058512, -2428.8970147248524, -2431.847444992953, -2434.2837851385816, -2433.590881060467, -2429.880491480886, -2428.00294494664, -2430.215767647716, -2432.6744595377995, -2431.6462792928555, -2429.1205321694056, -2427.5335583130786, -2430.685154281277, -2432.540349071068, -2430.685154281277, -2428.941718213763, -2428.1817589022826, -2430.2828228810818, -2431.467465337213, -2429.7910845030647, -2426.7735990015985, -2426.326564112492, -2429.612270547422, -2432.3391833709697, -2430.6404507923667, -2426.52772981259, -2426.371267601403, -2429.0534769360397, -2431.2886513815706, -2430.7298577701877, -2426.818302490509, -2425.3207356120033, -2429.276994380593, -2430.90867172583, -2430.1934159032603, -2426.974764701696, -2425.5666048010116, -2429.0534769360397, -2431.8027415040424, -2430.014601947618, -2426.9971164461513, -2427.667668779811, -2429.500511825146, -2432.6968112822547, -2431.5121688261233, -2428.33822111347, -2426.080694923484, -2428.1370554133723, -2431.3557066149365, -2429.4558083362353, -2426.9971164461513, -2426.103046667939, -2429.0534769360397, -2432.517997326612, -2432.517997326612, -2428.8299594914865, -2428.00294494664, -2431.3110031260258, -2432.920328726808, -2431.6686310373107, -2427.3770961018918, -2427.2206338907044, -2430.5063403256345, -2431.6239275484, -2430.3722298589028, -2427.8688344799084, -2427.1982821462493, -2428.2264623911933, -2429.925194969797, -2430.3722298589028, -2427.108875168428, -2425.365439100914, -2428.7629042581207, -2432.853273493442, -2430.327526369992, -2427.265337379615, -2427.4217995908025, -2428.2264623911933, -2431.2215961482043, -2430.1263606698944, -2427.4665030797128, -2426.7959507460537, -2430.4169333478135, -2432.6521077933444, -2431.4004101038468, -2427.8911862243635, -2426.5500815570454, -2427.2876891240703, -2430.7745612590984, -2430.215767647716, -2426.035991434573, -2425.43249433428, -2428.248814135649, -2431.4004101038468, -2429.7463810141544, -2427.645317035355, -2427.757075757632, -2429.5452153140563, -2432.0262589485956, -2430.595747303456, -2427.757075757632, -2427.108875168428, -2428.8746629803973, -2431.981555459685, -2431.6686310373107, -2428.986421702674, -2427.8017792465425, -2430.4392850922686, -2433.076790937995, -2431.936851970774, -2428.271165880104, -2427.108875168428, -2429.1652356583163, -2430.3498781144476, -2429.612270547422, -2426.4159710903136, -2426.5724333015005, -2428.00294494664, -2429.9028432253413, -2429.7687327586095, -2426.4383228347688, -2424.9631077007184, -2428.1370554133723, -2430.975726959196, -2430.1263606698944, -2426.9971164461513, -2426.6394885348664, -2428.6734972802997, -2430.551043814545, -2429.925194969797, -2426.661840279322, -2425.5666048010116, -2428.3158693690148, -2431.489817081668, -2431.2215961482043, -2427.6229652909, -2426.7959507460537, -2431.0651339370174, -2432.3838868598805, -2430.595747303456, -2427.2206338907044, -2427.4441513352576, -2429.3440496139588, -2431.9592037152297, -2431.4004101038468, -2427.2206338907044, -2427.354744357436, -2428.494683324657, -2430.3498781144476, -2430.014601947618, -2426.2818606235815, -2424.426665833791, -2426.6394885348664, -2430.4392850922686, -2428.651145535844, -2426.4383228347688, -2425.4771978231906, -2426.4830263236795, -2428.3158693690148, -2427.7794275020874, -2425.141921656361, -2424.8066454895315, -2429.008773447129, -2432.7415147711654, -2430.0816571809837, -2427.6229652909, -2425.8571774789307, -2428.941718213763, -2432.0039072041404, -2429.8357879919754, -2426.7735990015985, -2427.3770961018918, -2430.1487124143496, -2432.8085700045312, -2432.0262589485956, -2429.232290891682, -2427.4665030797128, -2428.293517624559, -2431.4004101038468, -2431.109837425928, -2426.9971164461513, -2425.991287945663, -2428.7629042581207, -2432.4509420932463, -2431.3557066149365, -2428.3829246023806, -2426.1924536457605, -2427.913537968819, -2431.601575803945, -2429.880491480886, -2425.8795292233863, -2426.6394885348664, -2429.8134362475203, -2431.3557066149365, -2431.4227618483023, -2427.6229652909, -2426.2595088791263, -2429.4334565917798, -2432.3615351154253, -2431.1321891703833, -2426.8630059794195, -2425.0972181674506, -2427.555910057534, -2430.3945816033583, -2430.171064158805, -2427.265337379615, -2428.4276280912914, -2430.6404507923667, -2432.6744595377995, -2431.534520570579, -2427.7347240131767, -2426.7065437682327, -2428.8970147248524, -2430.685154281277, -2431.1321891703833, -2428.852311235942, -2425.8348257344755, -2428.941718213763, -2430.7745612590984, -2430.0369536920734, -2426.7735990015985, -2425.7677705011097, -2427.5335583130786, -2431.3110031260258, -2430.215767647716, -2426.035991434573, -2425.700715267744, -2428.494683324657, -2430.1263606698944, -2430.327526369992, -2426.751247257143, -2426.080694923484, -2428.7405525136655, -2429.3887531028695, -2428.986421702674, -2426.728895512688, -2425.2089768897267, -2428.8299594914865, -2431.6239275484, -2430.327526369992, -2426.974764701696, -2425.745418756654, -2428.584090302478, -2430.573395559001, -2430.1487124143496, -2426.8406542349644, -2425.8571774789307, -2429.4558083362353, -2431.2215961482043, -2430.1040089254393, -2426.8406542349644, -2425.946584456752, -2428.494683324657, -2429.947546714252, -2430.2828228810818, -2426.9300612127854, -2425.633660034378, -2428.7405525136655, -2430.7298577701877, -2430.327526369992, -2428.360572857925, -2426.2148053902156, -2427.7794275020874, -2430.551043814545, -2429.522863569601, -2426.6394885348664, -2425.3207356120033, -2427.9358897132743, -2432.0262589485956, -2430.3498781144476, -2425.365439100914, -2424.8737007228974, -2427.7347240131767, -2428.561738558023, -2427.555910057534, -2425.633660034378, -2423.420837333302, -2426.684192023777, -2429.880491480886, -2428.2264623911933, -2425.9018809678414, -2424.8066454895315, -2427.8911862243635, -2430.0593054365286, -2429.4781600806905, -2427.2206338907044, -2426.952412957241, -2428.33822111347, -2431.2215961482043, -2431.2886513815706, -2427.980593202185, -2427.108875168428, -2430.215767647716, -2431.2886513815706, -2430.171064158805, -2427.8241309909977, -2426.326564112492, -2428.248814135649, -2431.2886513815706, -2431.7803897595873, -2428.7405525136655, -2426.9971164461513, -2428.360572857925, -2430.7969130035535, -2430.238119392171, -2427.5782618019894, -2426.8630059794195, -2429.7463810141544, -2432.272128137604, -2431.109837425928, -2428.047648435551, -2427.108875168428, -2429.3440496139588, -2432.4509420932463, -2432.2497763931487, -2429.522863569601, -2429.656974036333, -2432.0039072041404, -2434.3061368830367, -2433.43441884928, -2430.618099047911, -2428.3829246023806, -2429.880491480886, -2433.143846171361, -2433.166197915816, -2430.0369536920734, -2428.1817589022826, -2432.1603694153273, -2436.206035161738, -2433.523825827101, -2430.3945816033583, -2429.3887531028695, -2430.7745612590984, -2432.920328726808, -2432.6744595377995, -2430.305174625537, -2429.9028432253413, -2431.9592037152297, -2432.853273493442, -2432.0262589485956, -2428.7629042581207, -2426.7735990015985, -2428.8746629803973, -2430.52869207009, -2429.947546714252, -2426.885357723875, -2426.2595088791263, -2428.8746629803973, -2431.4004101038468, -2430.461636836724, -2428.360572857925, -2425.8571774789307, -2427.7347240131767, -2429.925194969797, -2430.0593054365286, -2428.1147036689167, -2426.0583431790287, -2427.8688344799084, -2430.90867172583, -2430.260471136626, -2426.751247257143, -2425.5442530565565, -2427.1982821462493, -2430.461636836724, -2430.1934159032603, -2428.0923519244616, -2424.9631077007184, -2427.0865234239727, -2430.238119392171, -2429.4334565917798, -2427.2876891240703, -2426.1701019013053, -2428.070000180006, -2430.8416164924643, -2429.656974036333, -2425.8571774789307, -2424.8960524673525, -2427.7347240131767, -2431.1545409148384, -2430.52869207009, -2426.304212368037, -2425.3207356120033, -2427.7794275020874, -2430.3498781144476, -2430.819264748009, -2427.555910057534, -2425.5219013121014, -2428.1817589022826, -2430.3498781144476, -2430.7745612590984, -2428.584090302478, -2427.0865234239727, -2428.8746629803973, -2431.0204304481067, -2430.975726959196, -2427.555910057534, -2425.141921656361, -2428.3158693690148, -2431.109837425928, -2431.2215961482043, -2427.5112065686235, -2426.103046667939, -2428.561738558023, -2430.886319981375, -2429.880491480886, -2426.818302490509, -2426.080694923484, -2427.9358897132743, -2430.551043814545, -2429.3440496139588, -2426.0583431790287, -2425.5219013121014, -2427.2876891240703, -2431.467465337213, -2430.0369536920734, -2427.1312269128834, -2425.9689362012073, -2428.00294494664, -2431.3557066149365, -2429.7463810141544, -2427.1759304017937, -2426.103046667939, -2427.7794275020874, -2431.4451135927575, -2429.6793257807885, -2426.818302490509, -2426.4383228347688, -2428.8299594914865, -2431.7356862706765, -2431.3557066149365, -2427.980593202185, -2425.4771978231906, -2428.204110646738, -2428.919366469308, -2427.712372268721, -2425.2089768897267, -2423.979630944685, -2426.885357723875, -2430.0593054365286, -2431.2215961482043, -2428.00294494664, -2426.1477501568497, -2428.1147036689167, -2430.3945816033583, -2430.171064158805, -2426.974764701696, -2426.2818606235815, -2428.2264623911933, -2431.9592037152297], [-2567.7907547701307, -2560.2135133997817, -2542.935614935829, -2541.7062689907875, -2557.1289726649493, -2567.589589070033, -2558.9618157102846, -2542.488580046723, -2540.1192951344606, -2556.324309864558, -2567.231961158748, -2556.7936964981195, -2542.577987024544, -2542.26506260217, -2556.1231441644604, -2566.5390570806335, -2559.542961066122, -2543.5391120361223, -2541.3709928239577, -2556.033737186639, -2567.5672373255775, -2558.9618157102846, -2541.750972479698, -2538.5993765114995, -2553.4632865742788, -2566.6284640584545, -2558.1124494209826, -2542.935614935829, -2542.287414346625, -2556.0784406755497, -2567.1202024364716, -2561.532266322645, -2545.975452181751, -2542.5109317911783, -2556.5701790535663, -2568.684824548343, -2562.0910599340273, -2544.0308504141394, -2541.88508294643, -2556.2796063756477, -2567.74605128122, -2559.7441267662202, -2543.583815525033, -2541.4156963128685, -2554.916149963874, -2566.8966849919184, -2560.0123476996837, -2543.293242847114, -2538.688783489321, -2554.1561906523934, -2566.337891380536, -2559.4312023438456, -2544.0532021585946, -2540.722792234754, -2555.4078883418906, -2567.8578100034965, -2560.0123476996837, -2543.9861469252287, -2541.4156963128685, -2555.0502604306057, -2569.3106733930917, -2562.2698738896697, -2545.595472526011, -2542.488580046723, -2556.592530798022, -2569.0201007151727, -2562.0240047006614, -2545.528417292645, -2542.4438765578125, -2555.6984610198097, -2567.74605128122, -2562.6051500564995, -2546.9589289377845, -2544.232016114237, -2558.4030220989016, -2569.6012460710103, -2562.0463564451165, -2546.511894048678, -2542.935614935829, -2557.263083131681, -2569.690653048832, -2561.778135511653, -2544.7461062367092, -2540.879254445941, -2554.98320519724, -2568.014272214684, -2560.9511209668067, -2543.8967399474072, -2540.029888156639, -2556.324309864558, -2568.7965832706195, -2560.481734333245, -2543.6732225028545, -2543.1144288914716, -2556.4137168423795, -2569.0201007151727, -2562.5380948231336, -2545.3048998480917, -2541.661565501877, -2556.7936964981195, -2569.042452459628, -2563.3204058790693, -2548.2106266272817, -2543.561463780578, -2556.0784406755497, -2567.678996047854, -2560.9287692223515, -2543.852036458497, -2542.332117835536, -2556.4137168423795, -2570.7411850382314, -2564.5944553130216, -2547.0036324266953, -2542.5332835356335, -2557.285434876136, -2570.2494466602143, -2562.873370989963, -2545.7742864816532, -2541.102771890494, -2555.631405786444, -2568.5730658260663, -2561.755783767198, -2545.1484376369044, -2542.1756556243486, -2556.7042895202985, -2568.7965832706195, -2561.3311006225467, -2544.3214230920585, -2539.135818378427, -2552.4798098182455, -2567.1425541809267, -2560.258216888692, -2543.3826498249355, -2540.1192951344606, -2554.4467633303125, -2567.7907547701307, -2562.5380948231336, -2546.109562648483, -2541.527455035145, -2554.4914668192228, -2567.231961158748, -2561.487562833734, -2544.567292281067, -2540.9016061903963, -2553.9550249522954, -2567.075498947561, -2561.264045389181, -2544.544940536611, -2540.298109090103, -2553.060955174083, -2565.354414624502, -2561.0852314335384, -2544.567292281067, -2539.5157980341673, -2554.670280774865, -2569.1318594374493, -2561.2863971336365, -2544.3661265809687, -2539.4710945452566, -2552.8597894739855, -2566.2708361471696, -2560.392327355424, -2543.3826498249355, -2539.69461198981, -2552.9938999407173, -2565.5108768356895, -2560.7723070111642, -2544.3437748365136, -2538.5323212781336, -2551.786905740131, -2565.5779320690554, -2558.581836054544, -2540.4769230457455, -2537.615899755466, -2552.07747841805, -2564.415641357379, -2560.481734333245, -2543.136780635927, -2540.387516067924, -2552.2562923736923, -2564.5050483352006, -2559.0735744325607, -2541.8627312019744, -2538.353507322491, -2551.719850506765, -2563.879199490452, -2557.7548215096976, -2540.968661423762, -2538.4429143003126, -2553.776210996653, -2566.9190367363735, -2560.817010500075, -2543.3379463360247, -2538.554673022589, -2553.396231340913, -2567.7907547701307, -2562.64985354541, -2545.483713803734, -2541.0580684015836, -2554.5138185636783, -2566.583760569544, -2560.817010500075, -2543.852036458497, -2539.2028736117927, -2551.2504638732034, -2565.265007646681, -2560.101754677505, -2543.226187613748, -2639.383392260479, -2651.7886104331747, -2647.161799330926, -2633.460179979823, -2626.9558223433282, -2639.4280957493897, -2653.5096947562333, -2650.8498371660517, -2634.130732313482, -2628.1404647994596, -2639.942185871862, -2653.8002674341524, -2651.5427412441663, -2634.488360224767, -2627.1569880434263, -2637.483493981778, -2653.62145347851, -2651.319223799613, -2633.8848631244737, -2627.648726421443, -2639.875130638496, -2655.2084273348364, -2652.2356453222806, -2634.4660084803118, -2626.911118854418, -2638.645784693454, -2651.609796477532, -2644.971328374306, -2626.7546566432306, -2620.0491333066384, -2630.0403630781607, -2642.8926161399622, -2642.8926161399622, -2626.419380476401, -2618.551566428133, -2630.9567846008285, -2647.0500406086494, -2644.3678312740126, -2628.207520032826, -2621.2114240183146, -2631.9849648457725, -2645.932453385884, -2642.4008777619456, -2626.486435709767, -2619.6020984175325, -2631.001488089739, -2646.4688952528113, -2643.6302237069876, -2628.229871777281, -2621.4349414628678, -2632.9460898573507, -2647.0500406086494, -2644.1219620850043, -2628.0510578216386, -2621.6584589074205, -2632.744924157253, -2648.9275871428954, -2648.5699592316105, -2630.9567846008285, -2622.3737147299903, -2634.9577468583284, -2649.5534359876438, -2646.2453778082586, -2628.7439618997532, -2621.5467001851443, -2632.431999734879, -2647.2512063087474, -2644.6360522074765, -2628.945127599851, -2623.08897055256, -2634.4660084803118, -2648.2793865536914, -2642.914967884418, -2627.3805054879795, -2620.227947262281, -2629.190996788859, -2643.6972789403535, -2641.7303254282865, -2625.1453310424486, -2618.2162902613036, -2629.928604355884, -2643.831389407085, -2642.3338225285797, -2626.3746769874906, -2619.155063528426, -2630.934432856373, -2645.3289562855907, -2643.853741151541, -2626.978174087784, -2619.512691439711, -2631.3144125121134, -2647.720592942309, -2647.139447586471, -2630.3532875005353, -2621.837272863063, -2634.443656735856, -2647.832351664585, -2644.457238251834, -2627.5369676991663, -2620.5408716846555, -2631.9179096124067, -2647.0276888641943, -2645.194845818859, -2628.0734095660937, -2620.160892028915, -2631.448522978845, -2646.7594679307304, -2645.843046408063, -2629.325107255591, -2619.80326411763, -2629.883900866974, -2642.4679329953115, -2642.3338225285797, -2626.7546566432306, -2620.2055955178257, -2632.2084822903257, -2646.5359504861776, -2644.390183018468, -2626.8217118765965, -2618.104531539027, -2628.8333688775742, -2644.9266248853955, -2644.9266248853955, -2628.945127599851, -2620.8314443625745, -2631.0238398341944, -2647.3182615421133, -2645.820694663608, -2628.7216101552976, -2620.3173542401023, -2631.068543323105, -2646.3347847860796, -2644.3454795295575, -2628.6992584108425, -2622.2396042632586, -2632.096723568049, -2646.4688952528113, -2644.546645229655, -2628.587499688566, -2621.122017040493, -2631.202653789837, -2645.485418496778, -2644.0102033627277, -2628.7216101552976, -2623.066618808105, -2634.510711969222, -2646.6477092084538, -2644.5913487185658, -2629.7274386557865, -2621.323182740591, -2631.448522978845, -2647.452372008845, -2644.5689969741106, -2626.3746769874906, -2619.0209530616944, -2630.845025878552, -2644.6360522074765, -2642.1103050840265, -2626.486435709767, -2619.2668222507027, -2630.845025878552, -2645.552473730144, -2644.1443138294594, -2627.5369676991663, -2618.5962699170436, -2629.7274386557865, -2644.7925144186634, -2642.4232295064007, -2627.000525832239, -2619.110360039516, -2629.2804037666806, -2644.479589996289, -2643.3843545179793, -2627.0452293211497, -2618.037476305661, -2627.849892121541, -2643.294947540158, -2642.1550085729373, -2625.8382351205632, -2618.819787361597, -2629.481569466778, -2642.8255609065964, -2640.8362556500742, -2625.301793253636, -2616.13757802696, -2627.0452293211497, -2642.2444155507583, -2640.7692004167084, -2625.1900345313593, -2616.4057989604235, -2625.8382351205632, -2643.741982429264, -2643.898444640451, -2625.5700141870993, -2616.294040238147, -2629.034534577672, -2643.451409751345, -2641.8197324061075, -2625.4135519759125, -2617.903365838929, -2627.1122845545156, -2642.512636484222, -2643.004374862239, -2625.324144998091, -2615.9811158157727, -2627.4699124658005, -2641.4621044948226, -2640.3668690165127, -2625.1453310424486, -2617.255165249725, -2627.7604851437195, -2642.289119039669, -2640.612738205521, -2624.742999642253, -2616.2493367492366, -2626.195863031848, -2641.350345772546, -2638.8469503935517, -2624.2512612642363, -2616.6963716383425, -2626.3076217541247, -2641.931491128384, -2640.5009794832445, -2624.2065577753256, -2615.869357093496, -2626.8887671099624, -2642.0208981062055, -2640.7244969277976, -2625.9276420983842, -2617.9927728167504, -2628.587499688566, -2642.959671373328, -2643.451409751345, -2625.8158833761076, -2617.2998687386357, -2629.1239415554933, -2644.5689969741106, -2642.847912651052, -2627.0452293211497, -2618.104531539027, -2629.1462932999484, -2645.1501423299483, -2642.870264395507, -2627.6934299103536, -2618.551566428133, -2628.587499688566, -2643.80903766263, -2643.250244051247, -2627.268746765703, -2616.875185593985, -2626.061752565116, -2642.5349882286773, -2641.3950492614567, -2625.23473802027, -2617.5904414165548, -2627.514615954711, -2642.847912651052, -2643.0714300956047, -2627.8945956104512, -2617.813958861108, -2626.1064560540267, -2642.579691717588, -2642.199712061848, -2624.9888688312612, -2616.6293164049766, -2627.4699124658005, -2641.7303254282865, -2640.2104068053254, -2624.653592664432, -2616.4728541937893, -2626.2182147763033, -2641.573863217099, -2641.1715318169036, -2624.8994618534402, -2615.4670256933005, -2624.072447308594, -2639.316337027113, -2640.746848672253, -2624.9218135978954, -2615.0646942931053, -2624.7653513867085, -2640.3445172720576, -2640.4339242498786, -2625.011220575717, -2616.0258193046834, -2626.2182147763033, -2642.0208981062055, -2642.0879533395714, -2625.4135519759125, -2616.003467560228, -2626.5087874542223, -2641.0597730946274, -2640.165703316415, -2624.027743819683, -2615.1764530153814, -2625.5700141870993, -2642.937319628873, -2641.573863217099, -2626.3970287319457, -2619.0880082950603, -2628.542796199655, -2642.9820231177837, -2641.573863217099, -2625.7711798871974, -2616.3610954715127, -2624.318316497602, -2640.165703316415, -2641.193883561359, -2625.748828142742, -2615.936412326862, -2625.3688484870017, -2640.7244969277976, -2639.09281958256, -2623.4913019527557, -2613.7235896257866, -2622.9325083413733, -2638.981060860284, -2639.875130638496, -2625.3688484870017, -2616.4057989604235, -2625.011220575717, -2640.0762963385937, -2640.5009794832445, -2624.5194821977, -2614.3047349816247, -2623.3124879971133, -2638.265805037714, -2639.226930049292, -2624.742999642253, -2615.3105634821136, -2623.379543230479, -2636.8576451370295, -2637.975232359795, -2625.0782758090827, -2615.3105634821136, -2623.737171141764, -2639.226930049292, -2639.9198341274064, -2624.005392075228, -2613.522423925689, -2623.2454327637474, -2639.3386887715687, -2639.4951509827556, -2623.5136536972113, -2613.008333803217, -2621.2337757627697, -2636.9917556037612, -2638.1093428265267, -2623.1783775303816, -2613.5671274145993, -2623.781874630675, -2638.1987498043477, -2639.7857236606746, -2624.363019986513, -2614.4164937039013, -2623.4465984638455, -2638.1093428265267, -2640.5009794832445, -2624.8547583645295, -2614.260031492714, -2623.647764163943, -2638.37756375999, -2637.1929213038593, -2623.2007292748367, -2612.8071681031192, -2621.122017040493, -2638.1540463154374, -2639.3386887715687, -2624.072447308594, -2612.4048367029236, -2622.2396042632586, -2637.707011426331, -2639.1598748159263, -2624.385371730968, -2613.9247553258842, -2623.04426706365, -2638.936357371373, -2639.09281958256, -2623.938336841862, -2615.0423425486497, -2623.357191486024, -2638.5563777156326, -2639.383392260479, -2623.938336841862, -2614.170624514893, -2622.4407699633566, -2636.4329619923788, -2637.103514326038, -2624.1618542864153, -2615.2435082487477, -2623.357191486024, -2638.7575434157307, -2639.4504474938453, -2623.1783775303816, -2613.455368692323, -2622.105493796527, -2636.5894242035656, -2638.1540463154374, -2623.692467652854, -2612.628354147477, -2621.5019966962336, -2637.61760444851, -2638.4446189933565, -2622.641935663454, -2610.5049384242225, -2620.652630406932, -2637.7964184041525, -2638.288156782169, -2623.1113222970157, -2613.2765547366807, -2622.8207496190967, -2639.517502727211, -2639.5622062161215, -2623.2454327637474, -2613.388313458957, -2621.725514140787, -2635.8518166365407, -2638.645784693454, -2624.0500955641387, -2613.3659617145017, -2620.9879065737614, -2636.5447207146553, -2639.5398544716663, -2624.295964753147, -2614.170624514893, -2622.843101363552, -2637.639956192965, -2639.5622062161215, -2624.452426964334, -2612.941278569851, -2622.731342641275, -2638.6010812045433, -2639.1598748159263, -2623.9606885863172, -2613.008333803217, -2621.770217629697, -2639.226930049292, -2640.880959138985, -2623.647764163943, -2613.030685547672, -2621.837272863063, -2638.0869910820716, -2639.9198341274064, -2624.966517086806, -2612.5389471696553, -2620.0491333066384, -2636.2764997811914, -2638.2211015488033, -2622.2172525188034, -2610.974325057784, -2618.037476305661, -2635.0248020916943, -2637.4387904928676, -2622.32901124108, -2611.2201942467923, -2620.451464706834, -2635.1142090695157, -2637.349383515046, -2620.384409473468, -2610.7284558687757, -2620.227947262281, -2636.298851525647, -2638.5563777156326, -2621.7925693741527, -2609.744979112742, -2618.462159450312, -2635.8518166365407, -2637.908177126429, -2623.2007292748367, -2613.522423925689, -2620.674982151387, -2635.7624096587197, -2638.0869910820716, -2622.999563574739, -2611.980153558273, -2621.5019966962336, -2635.9188718699065, -2637.2152730483144, -2622.351362985535, -2610.5272901686776, -2618.6633251504095, -2634.8906916249625, -2637.014107348217, -2623.0219153191942, -2611.555470413622, -2620.004429817728, -2636.2541480367363, -2638.0199358487052, -2622.5078251967225, -2612.226022747281, -2619.3785809729793, -2636.298851525647, -2638.4669707378116, -2621.7925693741527, -2609.387351201457, -2618.484511194767, -2634.9130433694177, -2637.1929213038593, -2622.5748804300883, -2611.980153558273, -2619.42328446189, -2633.9742701022947, -2635.2483195362474, -2621.2337757627697, -2610.5272901686776, -2617.970421072295, -2634.756581158231, -2637.327031770591, -2623.290136252658, -2611.622525646988, -2618.3280489835797, -2634.0189735912054, -2637.5729009595993, -2621.4349414628678, -2610.2143657463034, -2618.5962699170436, -2633.9742701022947, -2636.745886414753, -2622.4407699633566, -2610.3708279574907, -2617.3445722275465, -2635.4718369808006, -2638.0869910820716, -2621.5690519295995, -2611.7342843692645, -2619.3338774840686, -2635.069505580605, -2637.103514326038, -2620.2055955178257, -2608.448577934334, -2616.2493367492366, -2632.5661102016106, -2635.2036160473367, -2621.2337757627697, -2610.1473105129376, -2617.970421072295, -2633.8848631244737, -2636.2541480367363, -2620.1832437733706, -2608.359170956513, -2614.3494384705355, -2631.448522978845]]
[[-2429.0981804249504, -2427.2876891240703, -2424.8066454895315, -2427.24298563516, -2431.1321891703833, -2430.662802536822, -2426.974764701696, -2424.5160728116125, -2425.9689362012073, -2428.5393868135675, -2429.276994380593, -2426.4383228347688, -2423.5996512889446, -2425.8348257344755, -2428.7629042581207, -2428.6734972802997, -2427.3770961018918, -2425.0301629340843, -2424.493721067157, -2428.7852560025763, -2428.561738558023, -2424.471369322702, -2422.4150088328133, -2423.2867268665705, -2425.298383867548, -2426.8630059794195, -2425.745418756654, -2424.136093155872, -2425.790122245565, -2428.7629042581207, -2428.986421702674, -2425.8124739900204, -2423.085561166473, -2423.420837333302, -2426.035991434573, -2427.5112065686235, -2425.4771978231906, -2422.3479535994475, -2423.5996512889446, -2428.00294494664, -2429.3440496139588, -2427.332392612981, -2425.43249433428, -2426.4830263236795, -2429.500511825146, -2429.7016775252437, -2425.700715267744, -2423.8008169890427, -2425.3207356120033, -2427.24298563516, -2428.360572857925, -2427.0865234239727, -2424.2925553670593, -2425.588956545467, -2427.332392612981, -2426.4830263236795, -2425.4101425898248, -2423.9572792002296, -2424.7395902561657, -2427.645317035355, -2428.6734972802997, -2426.5724333015005, -2424.694886767255, -2425.8124739900204, -2429.1205321694056, -2429.232290891682, -2427.1535786573386, -2424.8289972339867, -2426.460674579224, -2428.7629042581207, -2428.4276280912914, -2425.05251467854, -2423.689058266766, -2425.43249433428, -2426.8630059794195, -2428.33822111347, -2424.985459445174, -2422.4150088328133, -2423.018505933107, -2425.298383867548, -2426.2818606235815, -2424.2925553670593, -2422.2138431327157, -2422.884395466375, -2425.678363523288, -2427.4665030797128, -2426.013639690118, -2421.81151173252, -2422.303250110537, -2425.9242327122965, -2425.946584456752, -2424.33725885597, -2421.6997530102435, -2423.0632094220173, -2427.2206338907044, -2427.712372268721, -2424.8737007228974, -2421.9232704547967, -2422.6385262773665, -2425.9242327122965, -2427.5782618019894, -2425.5219013121014, -2422.012677432618, -2423.130264655383, -2426.1477501568497, -2428.1147036689167, -2426.237157134671, -2423.487892566668, -2423.5102443111236, -2426.661840279322, -2428.4276280912914, -2426.6394885348664, -2422.8620437219197, -2422.8620437219197, -2426.8406542349644, -2427.7347240131767, -2425.656011778833, -2424.1807966447827, -2423.3537820999363, -2426.1477501568497, -2428.00294494664, -2426.2148053902156, -2424.5607763005232, -2425.790122245565, -2429.008773447129, -2429.075828680495, -2426.5500815570454, -2423.2643751221153, -2423.6667065223105, -2426.9971164461513, -2428.5393868135675, -2427.645317035355, -2424.493721067157, -2424.8960524673525, -2429.276994380593, -2430.238119392171, -2426.4383228347688, -2424.6725350227994, -2426.1924536457605, -2429.5452153140563, -2430.7745612590984, -2427.265337379615, -2423.823168733498, -2425.4771978231906, -2429.1205321694056, -2430.1487124143496, -2427.3770961018918, -2424.6501832783442, -2425.991287945663, -2428.71820076921, -2429.925194969797, -2427.8017792465425, -2424.2031483892383, -2424.9631077007184, -2428.494683324657, -2429.7910845030647, -2427.310040868526, -2424.9631077007184, -2425.9689362012073, -2429.612270547422, -2429.880491480886, -2426.885357723875, -2425.4771978231906, -2425.2536803786375, -2427.5782618019894, -2428.293517624559, -2425.3207356120033, -2423.398485588847, -2424.694886767255, -2427.712372268721, -2429.656974036333, -2427.1535786573386, -2425.05251467854, -2425.700715267744, -2428.561738558023, -2430.215767647716, -2428.2264623911933, -2424.851348978442, -2425.074866422995, -2428.0923519244616, -2429.3887531028695, -2427.24298563516, -2424.046686178051, -2424.404314089336, -2428.628793791389, -2430.1040089254393, -2427.4888548241684, -2423.778465244587, -2425.5666048010116, -2429.7910845030647, -2430.819264748009, -2429.1652356583163, -2426.013639690118, -2425.2536803786375, -2429.232290891682, -2430.3722298589028, -2428.1817589022826, -2425.4101425898248, -2427.1982821462493, -2430.886319981375, -2431.0651339370174, -2428.4499798357465, -2425.656011778833, -2425.1642734008165, -2427.5112065686235, -2429.4334565917798, -2427.4665030797128, -2424.627831533889, -2426.4830263236795, -2429.1652356583163, -2429.4334565917798, -2426.661840279322, -2424.5831280449784, -2425.0301629340843, -2427.5335583130786, -2428.606442046934, -2425.3207356120033, -2422.52676755509, -2424.3149071115145, -2427.041819935062, -2427.5335583130786, -2425.43249433428, -2423.5102443111236, -2423.174968144294, -2426.684192023777, -2428.5170350691124, -2426.1924536457605, -2423.689058266766, -2425.0301629340843, -2427.555910057534, -2429.4111048473246, -2427.4441513352576, -2424.404314089336, -2424.8066454895315, -2427.1982821462493, -2428.651145535844, -2425.745418756654, -2422.6385262773665, -2423.689058266766, -2425.9242327122965, -2427.1535786573386, -2425.745418756654, -2422.9738024441963, -2423.532596055579, -2427.265337379615, -2429.522863569601, -2427.0865234239727, -2425.1642734008165, -2424.851348978442, -2427.8241309909977, -2429.0981804249504, -2426.7735990015985, -2423.2420233776597, -2423.8008169890427, -2426.974764701696, -2428.5393868135675, -2427.1982821462493, -2424.6501832783442, -2424.918404211808, -2428.1594071578274, -2429.858139736431, -2427.24298563516, -2424.5160728116125, -2425.43249433428, -2428.047648435551, -2428.9640699582187, -2426.6394885348664, -2423.733761755677, -2424.7395902561657, -2427.980593202185, -2429.500511825146, -2427.4665030797128, -2424.3149071115145, -2424.8066454895315, -2426.5053780681346, -2428.494683324657, -2426.080694923484, -2423.443189077758, -2424.784293745076, -2426.974764701696, -2429.7910845030647, -2430.685154281277, -2429.1652356583163, -2426.52772981259, -2427.24298563516, -2429.5452153140563, -2430.0816571809837, -2427.8241309909977, -2425.4101425898248, -2426.2595088791263, -2429.4558083362353, -2430.1487124143496, -2428.00294494664, -2424.985459445174, -2425.678363523288, -2428.628793791389, -2429.589918802967, -2427.555910057534, -2424.4490175782466, -2424.471369322702, -2427.5335583130786, -2429.9028432253413, -2427.108875168428, -2425.1866251452716, -2425.8571774789307, -2428.584090302478, -2428.7629042581207, -2426.617136790411, -2424.694886767255, -2426.035991434573, -2428.0923519244616, -2430.238119392171, -2428.248814135649, -2424.784293745076, -2424.784293745076, -2426.728895512688, -2427.1535786573386, -2425.633660034378, -2423.465540822213, -2424.5607763005232, -2429.4334565917798, -2428.986421702674, -2423.733761755677, -2420.5151105541127, -2421.2527181211376, -2425.365439100914, -2426.1924536457605, -2424.471369322702, -2422.459712321724, -2423.1973198887495, -2425.7677705011097, -2428.695849024755, -2427.310040868526, -2424.4490175782466, -2424.5831280449784, -2427.108875168428, -2428.1817589022826, -2424.8737007228974, -2423.689058266766, -2425.5442530565565, -2427.645317035355, -2429.880491480886, -2427.2876891240703, -2425.05251467854, -2425.8124739900204, -2429.9028432253413, -2430.573395559001, -2427.265337379615, -2425.2089768897267, -2426.103046667939, -2428.6734972802997, -2430.3945816033583, -2427.555910057534, -2424.2925553670593, -2424.2925553670593, -2428.00294494664, -2429.4558083362353, -2427.5335583130786, -2424.426665833791, -2424.8960524673525, -2428.584090302478, -2430.238119392171, -2427.1535786573386, -2424.426665833791, -2425.074866422995, -2428.628793791389, -2429.858139736431, -2427.310040868526, -2424.71723851171, -2424.2478518781486, -2427.2206338907044, -2428.606442046934, -2426.7735990015985, -2423.7114100112212, -2424.426665833791, -2428.8299594914865, -2430.3945816033583, -2428.651145535844, -2424.918404211808, -2424.851348978442, -2428.941718213763, -2430.4392850922686, -2429.724029269699, -2427.8911862243635, -2429.366401358414, -2431.3780583593916, -2432.3391833709697, -2429.1652356583163, -2427.24298563516, -2426.885357723875, -2429.299346125048, -2430.90867172583, -2429.142883913861, -2426.661840279322, -2427.108875168428, -2429.9922502031627, -2431.690982781766, -2430.3722298589028, -2426.9300612127854, -2426.1924536457605, -2429.366401358414, -2429.7910845030647, -2427.310040868526, -2423.8678722224086, -2424.6501832783442, -2429.142883913861, -2431.467465337213, -2430.260471136626, -2427.5112065686235, -2426.661840279322, -2430.2828228810818, -2431.981555459685, -2429.969898458707, -2425.656011778833, -2426.4383228347688, -2429.925194969797, -2432.473293837702, -2430.1263606698944, -2426.952412957241, -2427.600613546445, -2429.4334565917798, -2430.975726959196, -2429.3440496139588, -2426.1701019013053, -2425.723067012199, -2429.522863569601, -2430.3945816033583, -2428.561738558023, -2424.6501832783442, -2425.074866422995, -2428.651145535844, -2430.0593054365286, -2427.108875168428, -2424.404314089336, -2425.074866422995, -2427.5782618019894, -2429.1875874027714, -2426.974764701696, -2425.5666048010116, -2426.304212368037, -2427.555910057534, -2429.209939147227, -2427.24298563516, -2423.420837333302, -2425.007811189629, -2428.9640699582187, -2430.9310234702857, -2427.600613546445, -2423.5996512889446, -2423.689058266766, -2427.913537968819, -2430.0593054365286, -2428.606442046934, -2426.0583431790287, -2426.52772981259, -2429.500511825146, -2430.7969130035535, -2428.6734972802997, -2424.8289972339867, -2424.3149071115145, -2427.3770961018918, -2429.0534769360397, -2427.019468190607, -2424.069037922506, -2424.784293745076, -2427.7794275020874, -2428.606442046934, -2426.9300612127854, -2424.2925553670593, -2425.05251467854, -2427.1312269128834, -2428.8299594914865, -2426.2595088791263, -2423.6220030334002, -2424.0243344335954, -2426.751247257143, -2429.3440496139588, -2427.332392612981, -2423.2867268665705, -2424.404314089336, -2426.5500815570454, -2428.5393868135675, -2426.2595088791263, -2422.303250110537, -2423.2420233776597, -2427.1312269128834, -2429.2546426361373, -2426.371267601403, -2423.733761755677, -2427.0641716795176, -2430.685154281277, -2432.428590348791, -2430.3945816033583, -2427.757075757632, -2426.6394885348664, -2430.685154281277, -2431.914500226319, -2430.595747303456, -2428.651145535844, -2428.651145535844, -2430.618099047911, -2431.5121688261233, -2429.5452153140563, -2427.555910057534, -2428.71820076921, -2430.215767647716, -2431.7133345262214, -2430.662802536822, -2428.561738558023, -2427.265337379615, -2429.567567058512, -2431.5121688261233, -2429.0981804249504, -2427.0865234239727, -2425.700715267744, -2427.757075757632, -2429.567567058512, -2428.4499798357465, -2426.751247257143, -2429.4558083362353, -2433.3226601270035, -2433.9708607162074, -2431.0204304481067, -2428.1147036689167, -2427.4217995908025, -2430.886319981375, -2431.9592037152297, -2430.819264748009, -2427.600613546445, -2428.695849024755, -2432.6744595377995, -2432.875625237897, -2430.3945816033583, -2427.2206338907044, -2428.047648435551, -2430.1934159032603, -2432.2497763931487, -2430.3722298589028, -2427.1759304017937, -2427.8464827354533, -2430.0593054365286, -2431.109837425928, -2429.5452153140563, -2426.393619345858, -2426.371267601403, -2429.567567058512, -2431.579224059489, -2429.276994380593, -2427.3770961018918, -2428.070000180006, -2431.6462792928555, -2433.2556048936376, -2431.5121688261233, -2428.7629042581207, -2429.1205321694056, -2432.0262589485956, -2433.523825827101, -2430.4169333478135, -2426.818302490509, -2427.645317035355, -2430.662802536822, -2433.0320874490844, -2430.886319981375, -2428.271165880104, -2429.008773447129, -2431.579224059489, -2432.853273493442, -2431.0874856814726, -2427.1982821462493, -2427.108875168428, -2429.567567058512, -2431.7580380151317, -2430.7745612590984, -2427.1982821462493, -2427.7347240131767, -2430.90867172583, -2433.300308382548, -2431.24394789266, -2427.4665030797128, -2428.1147036689167, -2431.6239275484, -2434.0155642051177, -2430.1263606698944, -2425.8571774789307, -2426.8406542349644, -2429.276994380593, -2431.892148481864, -2430.238119392171, -2427.0865234239727, -2426.661840279322, -2430.260471136626, -2431.5121688261233, -2428.248814135649, -2425.074866422995, -2426.4159710903136, -2429.3887531028695, -2430.9310234702857, -2428.7629042581207, -2425.0972181674506, -2425.1195699119057, -2427.310040868526, -2427.8911862243635, -2426.2148053902156, -2424.0913896669617, -2423.778465244587, -2425.8348257344755, -2427.555910057534, -2427.265337379615, -2425.723067012199, -2425.2089768897267, -2428.8746629803973, -2430.52869207009, -2428.6734972802997, -2425.1866251452716, -2424.404314089336, -2427.5782618019894, -2428.5393868135675, -2426.885357723875, -2425.2313286341823, -2424.5160728116125, -2428.00294494664, -2429.612270547422, -2427.4441513352576, -2424.985459445174, -2426.4830263236795, -2430.7745612590984, -2432.0709624375063, -2428.1817589022826, -2424.694886767255, -2425.4548460787355, -2427.555910057534, -2429.4558083362353, -2427.8911862243635, -2425.387790845369, -2425.276032123093, -2428.271165880104, -2429.9922502031627, -2427.667668779811, -2425.0301629340843, -2425.3207356120033, -2428.561738558023, -2430.6404507923667, -2429.008773447129, -2425.4995495676458, -2425.2089768897267, -2427.667668779811, -2430.5063403256345, -2429.0311251915846, -2425.0972181674506, -2425.0972181674506, -2428.7852560025763, -2429.7910845030647, -2428.271165880104, -2424.270203622604, -2423.733761755677, -2425.7677705011097, -2428.3158693690148, -2426.393619345858, -2424.069037922506, -2424.7395902561657, -2427.1312269128834, -2428.919366469308, -2428.00294494664, -2424.5160728116125, -2423.420837333302, -2426.1924536457605, -2427.4888548241684, -2426.1701019013053, -2423.9349274557744, -2423.689058266766, -2425.946584456752, -2428.5393868135675, -2427.1982821462493, -2424.5384245560676, -2424.8066454895315, -2427.4665030797128, -2429.947546714252, -2428.00294494664, -2424.069037922506, -2424.0243344335954, -2427.310040868526, -2430.618099047911, -2427.265337379615, -2422.7726367440982, -2423.3537820999363, -2425.43249433428, -2427.4441513352576, -2426.684192023777, -2422.1914913882606, -2420.4480553207463, -2424.471369322702, -2428.651145535844, -2427.24298563516, -2423.845520477953, -2422.9067472108304, -2425.298383867548, -2426.4830263236795, -2423.398485588847, -2419.174005886794, -2420.783331487576, -2423.6220030334002, -2424.2478518781486, -2422.437360577269, -2419.151654142339, -2420.7162762542102, -2423.2196716332046, -2424.9631077007184, -2421.81151173252, -2419.196357631249, -2419.6657442648107, -2423.2867268665705, -2424.694886767255, -2423.9125757113193, -2421.3868285878693, -2421.878566965886, -2424.71723851171, -2425.9018809678414, -2425.074866422995, -2420.917441954308, -2419.7104477537214, -2423.420837333302, -2423.8008169890427, -2422.303250110537, -2419.553985542534, -2417.944659941752, -2422.9067472108304, -2426.2818606235815, -2424.33725885597, -2420.9621454432186, -2420.112779153917, -2422.9961541886514, -2424.8737007228974, -2421.878566965886, -2418.86108146442, -2419.2857646090706, -2422.392657088358, -2422.8620437219197, -2421.163311143316, -2417.6987907527437, -2417.631735519378, -2420.626869276389, -2423.9125757113193, -2421.9009187103416, -2418.794026231054, -2419.531633798079, -2422.1244361548947, -2424.1807966447827, -2422.794988488554, -2419.7104477537214, -2419.7998547315424], [-2570.65177806041, -2559.3864988549353, -2544.3661265809687, -2546.8024667265972, -2564.035661701639, -2572.3952141279237, -2559.7664785106754, -2544.7461062367092, -2546.4448388153123, -2561.17463841136, -2569.265969904181, -2557.263083131681, -2543.5391120361223, -2548.232978371737, -2562.64985354541, -2570.4282606158567, -2558.850056988008, -2544.0979056475053, -2546.0648591595723, -2563.5662750680776, -2571.4340891163456, -2558.1571529098933, -2541.3709928239577, -2543.4497050583013, -2560.2805686331476, -2569.4000803709127, -2558.6935947768206, -2544.7908097256195, -2547.1824463823377, -2563.767440768175, -2571.2105716717924, -2559.9899959552286, -2545.0590306590834, -2547.3836120824353, -2563.1862954123376, -2572.3728623834686, -2558.626539543455, -2543.717925991765, -2548.232978371737, -2563.521571579167, -2570.4282606158567, -2558.850056988008, -2545.0813824035386, -2546.8024667265972, -2562.6945570343205, -2570.919998993874, -2559.6770715328544, -2544.0979056475053, -2547.5400742936226, -2563.678033790354, -2571.165868182882, -2558.64889128791, -2544.9249201923517, -2547.137742893427, -2562.2922256341253, -2570.2494466602143, -2559.252388388203, -2544.567292281067, -2546.780114982142, -2563.36510936798, -2570.942350738329, -2561.5993215560106, -2547.852998715997, -2548.434144071835, -2564.1921239128264, -2571.4787926052563, -2559.520609321667, -2544.947271936807, -2547.6071295269885, -2562.113411678483, -2570.9870542272397, -2559.878237232952, -2544.902568447896, -2547.3389085935246, -2563.9462547238177, -2572.6634350613876, -2560.3029203776027, -2546.7130597487762, -2549.618786527966, -2564.4379931018348, -2571.7023100498095, -2560.6829000333432, -2545.394306825913, -2547.3389085935246, -2563.678033790354, -2571.948179238818, -2559.878237232952, -2544.902568447896, -2547.4059638268905, -2562.851019245508, -2569.914170493385, -2559.1182779214714, -2545.7295829927425, -2547.5400742936226, -2563.454516345801, -2572.4175658723793, -2561.5546180671, -2546.0201556706616, -2546.780114982142, -2562.3816326119463, -2570.584722827044, -2560.4146790998793, -2545.461362059279, -2546.8024667265972, -2561.621673300466, -2571.7693652831754, -2562.493391334223, -2546.6460045154104, -2548.45649581629, -2564.616807057477, -2571.0541094606056, -2560.1241064219603, -2545.908396948385, -2547.450667315801, -2563.074536690061, -2572.529324594656, -2561.755783767198, -2545.7742864816532, -2545.751934737198, -2560.83936224453, -2569.914170493385, -2559.542961066122, -2545.9978039262064, -2546.869521959963, -2562.202818656304, -2570.607074571499, -2560.8617139889857, -2546.4001353264016, -2548.45649581629, -2564.46034484629, -2573.3339873950467, -2562.5604465675888, -2547.852998715997, -2550.132876650438, -2564.9073797353963, -2573.289283906136, -2563.387461112435, -2546.3107283485806, -2546.9589289377845, -2564.12506867946, -2572.886952505941, -2562.3369291230356, -2547.0259841711504, -2548.8588272164857, -2564.9073797353963, -2574.585685084544, -2564.415641357379, -2549.127048149949, -2549.1493998944047, -2564.817972757575, -2574.496278106723, -2562.448687845312, -2549.752896994698, -2551.9657196957733, -2567.164905925382, -2574.3845193844463, -2564.415641357379, -2550.5575597950888, -2551.3175191065693, -2566.069670447072, -2574.3845193844463, -2563.6109785569884, -2548.4117923273793, -2549.1493998944047, -2565.265007646681, -2575.74797579622, -2565.0191384576724, -2549.2611586166813, -2550.8257807285527, -2566.1814291693486, -2574.6303885734546, -2563.387461112435, -2548.7023650052984, -2549.0152894276725, -2564.1474204239157, -2574.4068711289015, -2564.393289612924, -2547.227149871248, -2547.6518330158992, -2563.476868090256, -2573.423394372868, -2564.326234379558, -2548.367088838469, -2550.9822429397395, -2566.136725680438, -2574.0268914731614, -2563.36510936798, -2548.6353097719325, -2548.9705859387623, -2562.9851297122395, -2573.7363187952424, -2563.2757023901586, -2547.204798126793, -2548.478847560745, -2564.1921239128264, -2573.266932161681, -2563.432164601346, -2545.483713803734, -2546.3777835819465, -2561.800487256108, -2571.4787926052563, -2561.711080278287, -2546.7354114932314, -2547.785943482631, -2563.655682045899, -2573.3786908839575, -2563.678033790354, -2547.160094637882, -2547.7412399937202, -2562.9627779677844, -2572.171696683371, -2563.3204058790693, -2548.523551049656, -2548.367088838469, -2563.1192401789713, -2572.104641450005, -2562.8957227344185, -2548.5906062830218, -2548.165923138371, -2563.789792512631, -2573.490449606234, -2564.2815308906474, -2548.367088838469, -2549.752896994698, -2564.683862290843, -2573.6022083285106, -2564.2815308906474, -2548.478847560745, -2549.0152894276725, -2565.2873593911363, -2574.65274031791, -2565.4438216023236, -2549.7305452502424, -2550.2669871171697, -2567.678996047854, -2577.066728719083, -2566.740222780731, -2550.803428984097, -2549.2611586166813, -2564.2368274017367, -2573.17752518386, -2566.0249669581613, -2551.69749876231, -2551.2057603842927, -2565.9579117247954, -2574.876257762463, -2565.2873593911363, -2550.3787458394463, -2549.6634900168765, -2563.2086471567927, -2574.3174641510805, -2564.169772168371, -2548.6353097719325, -2548.79177198312, -2563.9909582127284, -2573.915132750885, -2564.974434968762, -2548.165923138371, -2548.232978371737, -2564.326234379558, -2573.9598362397955, -2563.8344960015415, -2549.328213850047, -2548.6353097719325, -2563.74508902372, -2573.848077517519, -2564.46034484629, -2549.484676061234, -2549.5293795501448, -2564.6391588019324, -2574.8315542735522, -2563.9015512349074, -2548.5682545385666, -2548.478847560745, -2563.2086471567927, -2571.612903071988, -2563.096888434516, -2549.037641172128, -2547.8977022049075, -2548.098867905005, -2563.0298332011503, -2574.518629851178, -2564.6615105463875, -2547.942405693818, -2546.3554318374913, -2560.749955266709, -2573.3786908839575, -2564.013309957184, -2549.17175163886, -2548.4117923273793, -2562.940426223329, -2573.624560072966, -2563.7003855348094, -2547.070687660061, -2546.8918737044187, -2561.5993215560106, -2572.1493449389154, -2564.5050483352006, -2548.9258824498515, -2547.808295227086, -2563.655682045899, -2573.8257257730634, -2564.9967867132173, -2549.752896994698, -2547.852998715997, -2563.074536690061, -2573.4457461173233, -2564.8626762464855, -2549.3505655945023, -2548.478847560745, -2563.454516345801, -2573.579856584055, -2564.2815308906474, -2549.2611586166813, -2548.3223853495583, -2563.454516345801, -2574.1833536843483, -2566.092022191527, -2549.6634900168765, -2547.9647574382734, -2563.454516345801, -2572.7751937836642, -2561.040527944628, -2540.9239579348514, -2537.5711962665555, -2545.595472526011, -2551.652795273399, -2536.8335886995305, -2512.693704687799, -2506.4128644958573, -2515.3088587890697, -2519.6450972133994, -2505.3176290175475, -2484.664617140844, -2476.595637392478, -2487.3915299643913, -2496.555745191067, -2484.552858418567, -2468.325491944014, -2468.459602410746, -2485.4469281967795, -2496.354579490969, -2490.2525532546706, -2476.9532653037627, -2478.137907759894, -2494.6111434234554, -2506.5469749625895, -2499.752044648176, -2485.3798729634136, -2484.4858031852013, -2500.0649690705504, -2511.68787618731, -2504.6917801727986, -2489.6714078988325, -2489.8055183655642, -2505.3399807620026, -2517.1864053233153, -2511.017323853651, -2495.371102734936, -2495.2146405237486, -2509.1174255749497, -2520.6956292027985, -2513.1630913213603, -2497.4051114803688, -2496.712207402254, -2511.5761174650333, -2521.790864681109, -2514.884175644419, -2499.30500975907, -2498.232126025215, -2514.0571610995726, -2524.674239715843, -2516.9628878787626, -2501.1602045488603, -2499.394416736891, -2513.364257021458, -2525.389495538413, -2512.3807802654246, -2494.387625978902, -2491.168974777338, -2500.3555417484695, -2509.6091639529664, -2498.0533120695727, -2477.422651937324, -2472.4158611793355, -2485.6704456413327, -2496.3769312354248, -2488.3526549759695, -2473.3769861909136, -2472.01352977914, -2488.822041609531, -2500.2214312817373, -2492.7335968892094, -2476.595637392478, -2474.6957391137767, -2488.822041609531, -2502.3671987494467, -2494.812309123553, -2477.2885414705925, -2475.1204222584274, -2490.230201510215, -2501.9648673492516, -2494.789957379098, -2479.233143238204, -2476.6626926258436, -2489.7161113877432, -2502.0542743270726, -2494.7005504012764, -2478.786108349098, -2476.6850443702992, -2491.3030852440697, -2503.753006905676, -2496.4439864687906, -2481.021282794629, -2478.2720182266257, -2491.3701404774356, -2502.4119022383575, -2496.645152168888, -2479.747233360676, -2478.1826112488047, -2492.6441899113884, -2504.78118715062, -2498.679160914321, -2481.021282794629, -2479.2107914937487, -2493.9182393453407, -2504.9376493618074, -2497.271001013637, -2481.915352572841, -2480.2836752276035, -2493.359445733958, -2504.3118005170586, -2499.170899292338, -2481.557724661556, -2479.9260473163185, -2495.102881801472, -2505.809367395564, -2498.7909196365977, -2482.5635531620446, -2479.8589920829527, -2494.2535155121705, -2506.2787540291256, -2499.819099881542, -2484.306989229559, -2482.675311884321, -2496.1757655353267, -2506.6363819404105, -2499.327361503525, -2483.2564572401593, -2480.0601577830503, -2494.8570126124637, -2506.3234575180363, -2498.299181258581, -2480.39543394988, -2481.423614194824, -2496.4439864687906, -2505.6082016954665, -2498.8356231255084, -2482.8094223510534, -2482.004759550662, -2496.8910213578965, -2509.1621290638604, -2501.428425482324, -2484.9328380743073, -2481.7365386171987, -2495.8628411129525, -2508.5809837080224, -2502.1213295604384, -2484.8657828409414, -2481.4459659392796, -2496.9580765912624, -2508.4692249857458, -2501.227259782226, -2484.754024118665, -2482.787070606598, -2496.265172513148, -2506.9046028738744, -2500.0202655816397, -2484.0834717850057, -2482.049463039573, -2496.622800424433, -2508.133948818916, -2501.920163860341, -2485.7598526191537, -2481.4459659392796, -2496.1981172797823, -2507.753969163176, -2501.0931493154944, -2483.725843873721, -2481.1777450058157, -2495.326399246025, -2506.792844151598, -2498.5674021920445, -2481.267151983637, -2479.233143238204, -2494.7005504012764, -2507.0610650850613, -2500.266134770648, -2484.038768296095, -2481.2895037280923, -2494.6111434234554, -2505.3399807620026, -2499.975562092729, -2483.077643284517, -2479.076681027017, -2494.3429224899915, -2507.2175272962486, -2499.617934181444, -2481.557724661556, -2478.6519978823662, -2492.8677073559415, -2504.870594128441, -2497.9639050917513, -2481.7365386171987, -2479.076681027017, -2493.426500967324, -2504.9823528507177, -2498.679160914321, -2481.3789107059138, -2478.406128693358, -2492.040692811095, -2504.915297617352, -2500.5120039596563, -2482.8094223510534, -2479.456660682757, -2493.694721900788, -2505.854070884475, -2499.327361503525, -2482.5412014175895, -2479.099032771472, -2492.7112451447542, -2503.3059720165697, -2498.4556434697683, -2483.5023264291676, -2479.948399060774, -2494.052349812073, -2507.0610650850613, -2501.3390185045027, -2484.1505270183716, -2480.4848409277015, -2493.9852945787065, -2506.2787540291256, -2499.5061754591675, -2482.4964979286788, -2479.233143238204, -2492.912410844852, -2505.5411464621006, -2500.3555417484695, -2483.7705473626315, -2479.389605449391, -2493.3147422450475, -2506.3234575180363, -2499.908506859363, -2482.943532817785, -2478.450832182268, -2492.7112451447542, -2504.200041794782, -2498.5003469586786, -2482.384739206402, -2478.517887415634, -2492.197155022282, -2505.205870295271, -2499.0591405700616, -2483.2564572401593, -2479.657826382855, -2493.5382596896006, -2506.0552365845724, -2499.327361503525, -2483.9046578293633, -2479.8589920829527, -2492.39832072238, -2504.78118715062, -2496.622800424433, -2481.5130211726455, -2478.2273147377155, -2492.688893400299, -2504.8929458728967, -2498.880326614419, -2481.4459659392796, -2477.8026315930642, -2492.1524515333717, -2505.8317191400197, -2500.1096725594607, -2481.915352572841, -2477.8696868264306, -2490.20784976576, -2502.9930475941956, -2496.8016143800755, -2480.753061861165, -2476.2827129701036, -2490.0513875545726, -2501.87546037143, -2496.712207402254, -2480.5518961610674, -2477.9590938042516, -2491.146623032883, -2503.2165650387487, -2496.8463178689863, -2481.3118554725474, -2476.461526925746, -2489.582000921011, -2502.21073653826, -2495.5499166905784, -2478.495535671179, -2474.3828146914025, -2487.9950270646846, -2500.4225969818353, -2496.8910213578965, -2479.747233360676, -2475.3439397029806, -2488.6432276538885, -2501.562535949056, -2495.661675412855, -2477.9367420597964, -2474.494573413679, -2489.0232073096286, -2501.4731289712345, -2496.2204690242374, -2478.6296461379106, -2474.6957391137767, -2487.905620086863, -2502.143681304894, -2496.8463178689863, -2480.2389717386927, -2475.0980705139723, -2488.1514892758714, -2501.227259782226, -2495.6393236683994, -2478.6743496268214, -2474.7180908582322, -2488.531468931612, -2501.9872190937067, -2495.9969515796843, -2481.334207217003, -2477.623817637422, -2490.788995121598, -2504.110634816961, -2498.5450504475893, -2483.077643284517, -2477.6014658929666, -2490.2749049991257, -2502.814233638553, -2496.1534137908716, -2481.065986283539, -2475.142774002883, -2489.783166621109, -2501.651942926877, -2497.002780080173, -2480.082509527506, -2476.2827129701036, -2490.0513875545726, -2502.881288871919, -2497.561573691556, -2481.401262450369, -2476.5732856480226, -2489.6043526654666, -2502.613067938455, -2497.3157045025473, -2480.1272130164166, -2475.1204222584274, -2488.620875909433, -2502.7918818940975, -2496.9580765912624, -2480.5742479055225, -2476.819154837031, -2490.163146276849, -2503.820062139042, -2497.5168702026454, -2481.2895037280923, -2476.2603612256485, -2488.4420619537905, -2501.7637016491535, -2496.8910213578965, -2480.462489183246, -2475.6792158698104, -2489.202021265271, -2501.87546037143, -2498.1203673029386, -2481.647131639377, -2477.1544310038607, -2490.9901608216956, -2503.3059720165697, -2501.204908037771, -2489.179669520816, -2487.860916597953, -2501.6966464157877, -2516.538204734112, -2515.9570593782737, -2502.3671987494467, -2499.5732306925333, -2517.4769780012343, -2533.9502136647957, -2531.4691700302565, -2517.074646601039, -2516.2476320561927, -2533.6149374979664, -2550.5352080506336, -2550.8704842174634, -2537.5711962665555, -2534.2854898316255, -2550.199931883804, -2565.9132082358847, -2560.906417477896, -2545.7966382261084, -2541.639213757421, -2556.5031238202005, -2570.8082402715972, -2566.2484844027144, -2549.7976004836087, -2543.7402777362204, -2556.4807720757453, -2571.881124005452, -2568.1483826814156, -2551.652795273399, -2547.2718533601587, -2560.5711413110666, -2573.646911817421, -2568.953045481807, -2552.1221819069606, -2547.6741847603544, -2560.101754677505, -2572.9987112282174, -2568.2824931481473, -2552.591568540522, -2549.104696405494, -2562.0910599340273, -2575.3456443960245, -2570.517667593678, -2553.418583085368, -2549.1493998944047, -2562.158115167393, -2575.0103682291947, -2571.2776269051587, -2555.4078883418906, -2550.043469672617, -2562.158115167393, -2575.792679285131, -2570.562371082589, -2555.4525918308013, -2549.6411382724214, -2564.12506867946, -2577.4690601192788, -2571.814068772086, -2555.02790868615, -2550.065821417072, -2563.230998901248, -2577.3125979080914, -2573.1551734394043, -2555.653757530899, -2550.6022632839995]]
[[-2412.4684825502018, -2415.821244218498, -2416.245927363149, -2413.630773261878, -2413.6754767507887, -2416.7600174856207, -2417.8329012194754, -2416.7153139967104, -2413.921345939797, -2411.440302305258, -2414.927174440286, -2418.0340669195734, -2417.6987907527437, -2414.7930639735537, -2414.0331046620736, -2414.8154157180093, -2417.542328541557, -2417.4752733081905, -2413.787235473065, -2412.4461308057466, -2415.1953953737493, -2418.0564186640286, -2417.207052374727, -2413.295497095048, -2412.0885028944617, -2415.1506918848386, -2417.6093837749227, -2417.139997141361, -2413.697828495244, -2411.395598816347, -2414.0331046620736, -2417.207052374727, -2415.910651196319, -2411.5744127719895, -2410.9932674161514, -2412.1779098722827, -2414.7483604846434, -2415.038933162562, -2411.3508953274363, -2410.5685842715006, -2412.7814069725764, -2415.463616307213, -2414.614250017911, -2412.5131860391125, -2411.5744127719895, -2414.4577878067244, -2416.6482587633445, -2416.0671134075064, -2413.1837383727716, -2411.5073575386236, -2413.340200583959, -2415.4859680516684, -2415.977706429685, -2413.5413662840565, -2411.5073575386236, -2414.234270362171, -2415.910651196319, -2413.586069772967, -2410.5238807825904, -2410.6803429937772, -2412.043799405551, -2414.3460290844478, -2413.362552328414, -2410.412122060314, -2409.115720881906, -2411.4850057941685, -2414.7707122290985, -2414.5471947845454, -2411.9096889388193, -2411.1944331162495, -2412.71435173921, -2414.8154157180093, -2414.569546529001, -2411.105026138428, -2410.389770315858, -2411.9320406832744, -2415.1506918848386, -2415.463616307213, -2412.691999994755, -2411.105026138428, -2413.4519593062355, -2416.0224099185957, -2415.4859680516684, -2412.043799405551, -2410.3227150824923, -2413.04962790604, -2416.3576860854255, -2415.463616307213, -2412.4237790612915, -2412.7814069725764, -2413.943697684252, -2415.977706429685, -2415.9330029407743, -2413.0272761615847, -2412.7814069725764, -2414.1672151288053, -2417.0952936524504, -2416.536500041068, -2413.8989941953414, -2413.1837383727716, -2415.0836366514727, -2417.9893634306627, -2417.3635145859143, -2414.7036569957327, -2413.295497095048, -2414.8601192069195, -2417.3411628414588, -2416.983534930174, -2413.586069772967, -2411.6414680053554, -2412.5802412724784, -2414.9942296736517, -2414.7483604846434, -2411.328543582981, -2409.0263139040844, -2411.7755784720875, -2415.396561073847, -2414.9048226958303, -2412.066151150006, -2411.395598816347, -2413.1837383727716, -2417.0952936524504, -2416.4023895743358, -2414.010752917618, -2413.004924417129, -2414.726008740188, -2416.692962252255, -2416.7823692300763, -2414.7036569957327, -2412.4684825502018, -2412.9378691837633, -2416.2906308520596, -2415.016581418107, -2411.5073575386236, -2411.105026138428, -2414.234270362171, -2416.938831441263, -2415.910651196319, -2412.624944761389, -2410.6803429937772, -2413.362552328414, -2415.910651196319, -2416.491796552157, -2412.8931656948525, -2411.1944331162495, -2414.1448633843497, -2416.9611831857187, -2417.0729419079953, -2414.726008740188, -2412.7367034836657, -2416.268279107604, -2418.950488442241, -2417.4752733081905, -2414.2566221066263, -2412.021447661096, -2413.1166831394057, -2414.9942296736517, -2413.8989941953414, -2411.395598816347, -2410.14390112685, -2413.004924417129, -2415.553023285034, -2416.201223874238, -2412.6696482503, -2410.7697499715987, -2412.33437208347, -2415.821244218498, -2416.044761663051, -2412.244965105649, -2412.915517439308, -2415.95535468523, -2417.944659941752, -2417.0952936524504, -2413.7648837286097, -2412.1779098722827, -2413.8989941953414, -2415.687133751766, -2413.697828495244, -2410.1215493823947, -2409.3839418153693, -2411.596764516445, -2414.4577878067244, -2412.557889528023, -2410.5685842715006, -2409.42864530428, -2410.456825549224, -2413.8319389619755, -2413.1837383727716, -2409.9427354267523, -2409.42864530428, -2412.2896685945593, -2414.7483604846434, -2414.4130843178136, -2413.5190145396014, -2412.356723827925, -2414.1672151288053, -2417.0952936524504, -2417.788197730565, -2413.9660494287073, -2412.0885028944617, -2414.949526184741, -2417.6093837749227, -2418.0340669195734, -2414.4577878067244, -2413.0943313949506, -2414.2566221066263, -2416.1565203853274, -2414.4577878067244, -2410.6132877604114, -2408.8698516928976, -2411.015619160607, -2415.0836366514727, -2414.7483604846434, -2411.663819749811, -2412.5355377835676, -2412.557889528023, -2410.1215493823947, -2409.6521627488332, -2408.378113314881, -2407.6405057478555, -2409.8309767044757, -2411.2614883496153, -2409.8756801933864, -2406.1876423582607, -2403.7289504681767, -2406.455863291724, -2410.009790660118, -2411.663819749811, -2409.719217982199, -2407.9310784257746, -2409.4509970487356, -2409.4509970487356, -2410.8815086938753, -2414.1895668732604, -2412.7367034836657, -2409.9203836822967, -2408.981610415174, -2410.702694738233, -2413.7425319841545, -2414.278973851082, -2410.725046482688, -2409.1827761152717, -2410.814453460509, -2413.1837383727716, -2412.915517439308, -2409.8309767044757, -2408.534575526068, -2409.987438915663, -2412.8037587170315, -2413.630773261878, -2410.099197637939, -2408.445168548247, -2409.339238326459, -2411.8649854499085, -2412.5131860391125, -2409.42864530428, -2407.104063880928, -2408.6463342483444, -2411.8873371943637, -2411.7979302165427, -2409.1604243708166, -2406.589973758456, -2408.3110580815146, -2411.172081371794, -2411.730874983177, -2408.400465059336, -2407.595802258945, -2409.495700537646, -2412.021447661096, -2413.653125006333, -2410.9262121827855, -2408.6463342483444, -2410.6132877604114, -2411.976744172185, -2410.948563927241, -2410.8368052049645, -2409.495700537646, -2409.562755771012, -2411.1273778828836, -2410.7697499715987, -2407.014656903107, -2404.9582964132187, -2407.0370086475623, -2412.8484622059423, -2414.882470951375, -2410.2780115935816, -2407.2158226032047, -2409.406293559825, -2413.4519593062355, -2411.306191838526, -2408.3110580815146, -2406.6346772473667, -2407.439340047758, -2409.8980319378416, -2409.04866564854, -2407.461691792213, -2404.399502801836, -2404.8688894353977, -2408.6686859927995, -2410.6803429937772, -2407.148767369839, -2405.204165602227, -2408.199299359238, -2409.4509970487356, -2408.981610415174, -2406.567622014001, -2404.175985357283, -2405.8076627025202, -2409.696866237744, -2409.696866237744, -2407.0370086475623, -2405.472386535691, -2407.595802258945, -2409.8756801933864, -2410.099197637939, -2408.2440028481487, -2406.0535318915286, -2407.3275813254813, -2409.6074592599225, -2409.8309767044757, -2407.3275813254813, -2406.165290613805, -2407.014656903107, -2410.501529038135, -2410.5462325270455, -2407.148767369839, -2404.913592924308, -2407.372284814392, -2410.456825549224, -2410.099197637939, -2407.4169883033023, -2405.561793513512, -2407.3052295810257, -2409.786273215565, -2409.719217982199, -2406.791139458554, -2403.885412679364, -2405.76295921361, -2409.8309767044757, -2409.473348793191, -2405.9864766581627, -2403.7513022126323, -2405.628848746878, -2408.534575526068, -2409.406293559825, -2407.3052295810257, -2405.0253516465846, -2405.561793513512, -2408.445168548247, -2408.422816803791, -2405.8970696803417, -2402.566659756501, -2404.846537690942, -2409.6074592599225, -2412.8261104614867, -2411.976744172185, -2407.5734505144897, -2408.758092970621, -2412.066151150006, -2411.2838400940705, -2409.0263139040844, -2407.3275813254813, -2407.9757819146853, -2411.172081371794, -2411.663819749811, -2408.33340982597, -2407.1264156253833, -2408.8698516928976, -2411.976744172185, -2411.6191162609002, -2408.825148203987, -2406.8358429474647, -2407.9981336591404, -2411.082674393973, -2410.7697499715987, -2406.9252499252857, -2406.209994102716, -2409.1604243708166, -2411.172081371794, -2412.066151150006, -2409.7415697266542, -2406.589973758456, -2407.148767369839, -2409.8756801933864, -2410.5462325270455, -2407.9310784257746, -2405.76295921361, -2406.52291852509, -2410.5685842715006, -2411.1273778828836, -2409.1604243708166, -2406.791139458554, -2407.752264470132, -2411.462654049713, -2412.2002616167383, -2409.2945348375483, -2406.813491203009, -2408.1545958703277, -2411.105026138428, -2410.2109563602157, -2409.4509970487356, -2407.1264156253833, -2408.5569272705234, -2410.7697499715987, -2410.8368052049645, -2408.2663545926043, -2405.204165602227, -2407.2158226032047, -2411.082674393973, -2409.9650871712074, -2406.0982353804393, -2404.6677237352997, -2406.6793807362774, -2410.725046482688, -2410.2333081046713, -2406.6346772473667, -2404.466558035202, -2406.0535318915286, -2409.205127859727, -2409.9203836822967, -2407.9087266813194, -2406.1876423582607, -2407.7075609812214, -2409.719217982199, -2410.1662528713055, -2407.5510987700345, -2405.6735522357885, -2406.2546975916266, -2408.825148203987, -2409.6074592599225, -2406.6346772473667, -2404.1312818683723, -2406.0311801470734, -2409.0933691374507, -2409.138072626361, -2405.9864766581627, -2404.9359446687636, -2405.9641249137076, -2408.981610415174, -2409.8309767044757, -2407.7746162145872, -2405.5841452579675, -2406.7464359696432, -2411.5073575386236, -2409.2274796041825, -2405.6959039802437, -2404.399502801836, -2404.198337101738, -2406.2994010805373, -2407.6628574923106, -2406.120587124895, -2404.488909779657, -2406.2770493360817, -2408.780444715076, -2409.495700537646, -2407.148767369839, -2404.9359446687636, -2406.0311801470734, -2410.5909360159562, -2410.412122060314, -2406.589973758456, -2404.4218545462913, -2405.3382760689587, -2408.2216511036936, -2409.1604243708166, -2406.433511547269, -2403.57248825699, -2405.6512004913334, -2409.6074592599225, -2410.657991249322, -2407.886374936864, -2405.04770339104, -2406.075883635984, -2408.8698516928976, -2408.7133894817102, -2407.081712136473, -2404.3100958240148, -2405.7406074691544, -2408.735741226166, -2408.087540636962, -2406.791139458554, -2405.517090024601, -2406.4111598028135, -2409.138072626361, -2409.987438915663, -2405.9417731692524, -2403.505433023624, -2405.7406074691544, -2407.7746162145872, -2409.04866564854, -2407.081712136473, -2404.8688894353977, -2405.9641249137076, -2409.138072626361, -2410.412122060314, -2406.120587124895, -2404.198337101738, -2405.2488690911377, -2407.2605260921155, -2408.33340982597, -2406.14293886935, -2403.0583981345176, -2404.846537690942, -2409.6521627488332, -2410.0321424045733, -2406.6346772473667, -2405.405331302325, -2406.6570289918222, -2409.272183093093, -2409.2274796041825, -2406.433511547269, -2405.0253516465846, -2406.6793807362774, -2409.115720881906, -2410.501529038135, -2406.8358429474647, -2404.3100958240148, -2404.0418748905513, -2406.8358429474647, -2407.9757819146853, -2405.204165602227, -2402.298438823037, -2404.3771510573806, -2408.6463342483444, -2408.9145551818083, -2405.0924068799504, -2403.304267323526, -2404.243040590649, -2406.7017324807325, -2407.886374936864, -2404.623020246389, -2403.0360463900624, -2404.5783167574787, -2407.104063880928, -2407.9087266813194, -2405.271220835593, -2403.1925086012493, -2403.863060934909, -2406.1876423582607, -2407.7746162145872, -2405.472386535691, -2402.9689911566966, -2403.7960057015425, -2407.1264156253833, -2407.841671447953, -2404.757130713121, -2401.0020376446296, -2402.0302178895736, -2405.181813857772, -2405.9864766581627, -2403.57248825699, -2403.0583981345176, -2405.204165602227, -2407.104063880928, -2406.7687877140984, -2403.885412679364, -2399.8397469329534, -2401.8067004450204, -2405.0924068799504, -2406.589973758456, -2404.0418748905513, -2401.270258578093, -2403.0807498789727, -2406.6346772473667, -2406.9699534141964, -2405.628848746878, -2404.7347789686655, -2405.137110368861, -2407.9981336591404, -2408.6463342483444, -2405.181813857772, -2401.940810911752, -2403.6171917459, -2407.372284814392, -2408.5792790149785, -2406.14293886935, -2404.108930123917, -2405.561793513512, -2409.205127859727, -2410.2556598491265, -2405.852366191431, -2404.511261524113, -2405.137110368861, -2408.981610415174, -2408.8922034373527, -2403.1925086012493, -2401.04674113354, -2401.292610322548, -2404.623020246389, -2406.0311801470734, -2404.9582964132187, -2402.1196248673946, -2403.6171917459, -2407.1934708587496, -2409.4509970487356, -2407.796967959043, -2404.0418748905513, -2404.6453719908445, -2407.3275813254813, -2408.2216511036936, -2406.8358429474647, -2405.517090024601, -2406.7687877140984, -2409.071017392995, -2409.719217982199, -2407.9981336591404, -2405.5841452579675, -2405.137110368861, -2407.6405057478555, -2408.2663545926043, -2406.075883635984, -2403.214860345705, -2405.204165602227, -2407.9757819146853, -2409.272183093093, -2406.9028981808306, -2404.8688894353977, -2404.3324475684703, -2407.595802258945, -2409.5851075154674, -2406.0982353804393, -2404.198337101738, -2404.5783167574787, -2407.5510987700345, -2407.595802258945, -2404.9359446687636, -2402.566659756501, -2401.8067004450204, -2404.6900754797553, -2409.272183093093, -2407.9757819146853, -2403.6395434903557, -2405.539441769057, -2407.081712136473, -2407.9981336591404, -2405.2935725800485, -2402.723121967688, -2403.6395434903557, -2406.366456313903, -2408.0204854035956, -2406.3441045694476, -2403.6395434903557, -2405.3829795578695, -2408.2887063370595, -2408.445168548247, -2404.243040590649, -2402.6784184787775, -2403.907764423819, -2406.5452702695457, -2408.176947614783, -2405.42768304678, -2402.3878458008585, -2403.8407091904533, -2406.8358429474647, -2407.1934708587496, -2403.863060934909, -2401.9631626562077, -2402.3878458008585, -2406.0311801470734, -2407.528747025579, -2405.42768304678, -2402.946639412241, -2404.0195231460957, -2406.366456313903, -2405.874717935886, -2403.7513022126323, -2400.599706244434, -2401.4043690448248, -2404.6900754797553, -2406.6793807362774, -2404.511261524113, -2402.656066734322, -2405.0253516465846, -2406.7464359696432, -2407.2158226032047, -2405.517090024601, -2402.007866145118, -2401.851403933931, -2405.517090024601, -2407.5734505144897, -2404.511261524113, -2401.940810911752, -2402.276087078582, -2405.204165602227, -2405.472386535691, -2403.170156856794, -2401.203203344727, -2400.7785202000764, -2404.8688894353977, -2405.852366191431, -2403.6395434903557, -2401.6725899782887, -2401.4043690448248, -2405.4500347912353, -2406.52291852509, -2404.4218545462913, -2402.3431423119478, -2402.52195626759, -2406.7017324807325, -2408.2216511036936, -2405.9641249137076, -2403.7065987237215, -2404.399502801836, -2408.9145551818083, -2408.445168548247, -2406.7464359696432, -2404.1312818683723, -2403.3489708124366, -2406.3217528249925, -2407.9087266813194, -2404.824185946487, -2401.560831256012, -2402.7454737121434, -2406.120587124895, -2408.2216511036936, -2405.3382760689587, -2403.013694645607, -2405.2935725800485, -2408.1545958703277, -2409.8980319378416, -2407.3275813254813, -2403.7065987237215, -2404.8018342020314, -2408.400465059336, -2408.2663545926043, -2405.137110368861, -2402.8348806899644, -2403.7513022126323, -2406.6793807362774, -2408.33340982597, -2405.830014446976, -2402.3878458008585, -2401.8067004450204, -2404.2877440795596, -2404.5783167574787, -2405.0700551354953, -2405.137110368861, -2405.852366191431, -2408.6686859927995, -2410.725046482688, -2408.0651888925063, -2404.6453719908445, -2405.9417731692524, -2408.691037737255, -2409.495700537646, -2408.6686859927995, -2405.405331302325, -2406.0982353804393, -2410.725046482688, -2411.462654049713], [-2556.4137168423795, -2571.2776269051587, -2572.4399176168345, -2556.614882542477, -2545.327251592547, -2554.7373360082315, -2572.976359483762, -2574.0939467065273, -2556.972510453762, -2546.623652770955, -2555.1620191528823, -2569.3777286264576, -2571.1435164384266, -2555.8549232309965, -2545.6401760149215, -2555.385536597435, -2570.204743171304, -2570.361205382491, -2554.8937982194184, -2544.947271936807, -2553.5750452965553, -2569.1542111819044, -2568.8189350150747, -2554.1785423968486, -2546.221321370759, -2554.133838907938, -2568.9306937373512, -2570.65177806041, -2555.4302400863457, -2545.2154928702707, -2554.3797080969466, -2569.2436181597254, -2569.288321648636, -2555.385536597435, -2545.1260858924493, -2553.709155763287, -2569.8694670044742, -2570.607074571499, -2554.290301119125, -2545.17078938136, -2555.631405786444, -2570.875295504963, -2572.6634350613876, -2557.330138365047, -2547.4730190602563, -2556.301958120103, -2571.657606560899, -2574.071594962072, -2559.788830255131, -2549.0152894276725, -2556.167847653371, -2571.2105716717924, -2572.171696683371, -2556.9948621982176, -2547.1824463823377, -2555.1396674084267, -2572.685786805843, -2573.6692635618765, -2557.3077866205917, -2546.6013010264996, -2554.1114871634827, -2569.042452459628, -2571.545847838622, -2556.3690133534687, -2545.684879503832, -2553.9326732078403, -2569.422432115368, -2570.8976472494182, -2555.072612175061, -2544.232016114237, -2553.3738795964578, -2568.595417570522, -2568.5283623371556, -2552.8597894739855, -2543.226187613748, -2551.69749876231, -2566.695519291821, -2569.422432115368, -2555.2067226417926, -2544.3884783254243, -2554.066783674572, -2569.93652223784, -2570.8529437605075, -2556.6372342869327, -2546.511894048678, -2554.938501708329, -2570.6964815493207, -2572.618731572477, -2557.643062787421, -2545.0590306590834, -2553.329176107547, -2568.953045481807, -2571.545847838622, -2557.7324697652425, -2547.6518330158992, -2554.4020598414018, -2570.0259292156616, -2571.948179238818, -2556.4137168423795, -2545.8636934594742, -2553.664452274377, -2567.74605128122, -2571.3446821385246, -2556.2125511422814, -2545.237844614726, -2553.5973970410105, -2568.908341992896, -2571.3446821385246, -2556.011385442184, -2545.0366789146283, -2553.5526935521, -2568.8859902484405, -2571.679958305354, -2556.4807720757453, -2545.260196359181, -2553.2174173852704, -2570.875295504963, -2571.970530983273, -2556.681937775843, -2545.3719550814576, -2553.2844726186363, -2569.489487348734, -2572.3952141279237, -2558.1795046543484, -2547.137742893427, -2554.625577285955, -2570.919998993874, -2572.2834554056476, -2556.950158709307, -2546.489542304223, -2554.9608534527842, -2569.042452459628, -2571.657606560899, -2558.4030220989016, -2546.7354114932314, -2553.8879697189295, -2569.3106733930917, -2571.523496094167, -2556.950158709307, -2546.4001353264016, -2553.910321463385, -2569.690653048832, -2570.8305920160524, -2554.714984263776, -2545.103734147994, -2553.619748785466, -2569.0871559485386, -2571.948179238818, -2557.6654145318766, -2546.847170215508, -2555.3408331085247, -2572.7751937836642, -2573.579856584055, -2557.8665802319742, -2547.3165568490695, -2555.4525918308013, -2570.31650189358, -2571.948179238818, -2557.7771732541532, -2545.7295829927425, -2553.999728441206, -2571.3446821385246, -2573.512801350689, -2557.8665802319742, -2545.684879503832, -2553.396231340913, -2570.0259292156616, -2572.84224901703, -2557.196027898315, -2545.9978039262064, -2553.9326732078403, -2569.690653048832, -2571.7917170276305, -2555.586702297533, -2545.4390103148235, -2553.038603429628, -2569.333025137547, -2571.545847838622, -2555.8549232309965, -2543.9861469252287, -2550.334042350536, -2568.684824548343, -2572.171696683371, -2557.620711042966, -2545.4390103148235, -2554.5138185636783, -2571.165868182882, -2571.903475749907, -2558.4030220989016, -2548.1212196494603, -2554.8714464749632, -2570.4282606158567, -2572.574028083566, -2558.201856398804, -2547.9200539493627, -2555.564350553078, -2571.322330394069, -2573.6022083285106, -2559.9676442107734, -2548.232978371737, -2554.066783674572, -2571.299978649614, -2575.099775207016, -2560.258216888692, -2548.1882748828266, -2554.4467633303125, -2569.8694670044742, -2573.22222867277, -2557.531304065145, -2544.880216703441, -2553.2174173852704, -2569.1318594374493, -2572.0599379610944, -2558.939463965829, -2547.517722549167, -2554.64792903041, -2571.9928827277286, -2573.6692635618765, -2557.240731387226, -2546.7354114932314, -2554.5138185636783, -2570.31650189358, -2572.9987112282174, -2557.844228487519, -2546.198969626304, -2553.329176107547, -2569.2212664152703, -2571.9928827277286, -2558.8277052435524, -2548.389440582924, -2556.0560889310946, -2545.684879503832, -2550.3787458394463, -2567.231961158748, -2571.3670338829797, -2556.748993009209, -2543.3379463360247, -2549.2611586166813, -2565.130897179949, -2569.0871559485386, -2556.5031238202005, -2543.1591323803823, -2548.434144071835, -2564.750917524209, -2569.3777286264576, -2555.273777875159, -2543.136780635927, -2547.227149871248, -2563.879199490452, -2569.578894326555, -2556.681937775843, -2543.8296847140414, -2549.417620827868, -2565.779097769153, -2569.847115260019, -2556.7936964981195, -2544.880216703441, -2549.976414439251, -2565.980263469251, -2571.1435164384266, -2558.626539543455, -2545.327251592547, -2550.8257807285527, -2566.3155396360803, -2571.7470135387202, -2559.3194436215695, -2546.131914392938, -2550.803428984097, -2567.0531472031057, -2572.484621105745, -2559.4088505993905, -2547.3389085935246, -2554.8490947305077, -2573.535153095145, -2582.2746851771694, -2575.3232926515693, -2568.4836588482453, -2576.910266507896, -2597.071540006583, -2605.676961621876, -2596.915077795396, -2588.0637869910943, -2594.8587173055075, -2613.969458814795, -2621.122017040493, -2609.968496557295, -2599.3067144521137, -2605.2969819661357, -2622.0160868187054, -2629.3698107445016, -2619.155063528426, -2607.398045944935, -2614.1259210259823, -2630.8226741340964, -2637.0811625815827, -2623.066618808105, -2611.04138029115, -2615.8023018601302, -2629.906252611429, -2634.6895259248645, -2624.2512612642363, -2612.293077980647, -2616.3610954715127, -2631.940261356862, -2637.1929213038593, -2624.318316497602, -2611.264897735703, -2616.226985004781, -2631.6943921678535, -2638.1093428265267, -2624.4747787087895, -2611.3096012246137, -2615.7128948823092, -2631.850854379041, -2639.361040516024, -2627.648726421443, -2614.2153280038033, -2618.395104216946, -2635.0471538361494, -2641.551511472644, -2629.0121828332167, -2614.930583826373, -2619.445636206345, -2634.510711969222, -2639.606909705032, -2628.565147944111, -2614.7964733596414, -2619.0433048061495, -2635.9859271032724, -2640.7692004167084, -2627.492264210256, -2615.1764530153814, -2619.155063528426, -2634.5330637136776, -2640.545682972155, -2628.162816543915, -2614.237679748259, -2620.093836795549, -2637.014107348217, -2641.61856670601, -2629.3027555111357, -2615.578784415577, -2619.3785809729793, -2635.6282991919875, -2640.9256626278952, -2628.1404647994596, -2614.4611971928116, -2619.155063528426, -2635.5388922141665, -2642.0208981062055, -2630.71091541182, -2616.2716884936917, -2621.2114240183146, -2638.37756375999, -2645.194845818859, -2634.197787546848, -2621.837272863063, -2626.0170490762057, -2640.880959138985, -2646.3794882749903, -2635.09185732506, -2620.786740873664, -2624.966517086806, -2641.4621044948226, -2647.5864824755768, -2636.030630592183, -2621.8819763519737, -2625.4806072092783, -2643.831389407085, -2650.1122295990267, -2636.9023486259402, -2623.42424671939, -2627.1346362989707, -2642.2444155507583, -2647.765296431219, -2635.9635753588173, -2621.837272863063, -2625.704124653831, -2641.99854636175, -2648.9499388873505, -2637.5281974706886, -2623.4689502083006, -2627.604022932532, -2644.1219620850043, -2649.5087324987335, -2638.1763980598926, -2624.877110108985, -2628.0510578216386, -2644.3007760406467, -2651.2521685662473, -2640.4115725054235, -2625.8829386094735, -2627.7828368881746, -2644.166665573915, -2650.7604301882307, -2638.355212015535, -2624.4747787087895, -2628.0734095660937, -2645.172494074404, -2651.0510028661497, -2638.33286027108, -2624.1395025419597, -2628.811017133119, -2645.127790585493, -2651.453334266345, -2639.003412604739, -2623.5583571861216, -2626.933470598873, -2643.9878516182725, -2650.782781932686, -2636.298851525647, -2622.1725490298927, -2626.70995315432, -2641.551511472644, -2648.0558691091383, -2636.321203270102, -2623.2007292748367, -2625.547662442644, -2642.914967884418, -2649.419325520912, -2635.9859271032724, -2621.9937350742503, -2626.486435709767, -2642.624395206499, -2649.441677265367, -2638.0199358487052, -2624.363019986513, -2627.648726421443, -2643.6972789403535, -2649.9557673878394, -2638.7575434157307, -2624.027743819683, -2627.5369676991663, -2644.1219620850043, -2650.5592644881326, -2638.4893224822667, -2624.6312409199763, -2628.3639822440127, -2645.0830870965824, -2652.1909418333703, -2639.7857236606746, -2624.7877031311637, -2627.6934299103536, -2644.90427314094, -2653.129715100493, -2641.484456239278, -2626.262918265214, -2629.101589811038, -2646.0218603637054, -2652.7944389336635, -2640.8362556500742, -2626.7323048987755, -2629.0792380665825, -2644.7254591852975, -2651.8556656665405, -2639.942185871862, -2626.4640839653116, -2630.3979909894456, -2646.0442121081605, -2652.5038662557445, -2641.4174010059123, -2626.0841043095716, -2628.7439618997532, -2644.233720807281, -2650.648671465954, -2637.5058457262335, -2623.8042263751304, -2628.207520032826, -2645.127790585493, -2651.5203894997107, -2639.7857236606746, -2626.4640839653116, -2626.7993601321414, -2643.80903766263, -2650.872188910507, -2639.3386887715687, -2625.23473802027, -2627.581671188077, -2644.233720807281, -2651.386279032979, -2638.288156782169, -2623.334839741569, -2627.0452293211497, -2643.2725957957027, -2648.815828420619, -2636.321203270102, -2624.1171507975046, -2626.352325243035, -2643.496113240256, -2650.71572669932, -2639.0481160936497, -2624.6982961533427, -2628.162816543915, -2643.294947540158, -2650.872188910507, -2639.8304271495854, -2624.4747787087895, -2627.224043276792, -2643.876092895996, -2650.067526110116, -2638.042287593161, -2623.2230810192923, -2626.70995315432, -2643.138485328971, -2649.8663604100184, -2637.8634736375184, -2624.452426964334, -2627.358153743524, -2642.8032091621412, -2649.9334156433843, -2637.975232359795, -2623.8489298640407, -2627.872243865996, -2644.3454795295575, -2651.229816821792, -2640.590386461066, -2626.2405665207584, -2628.6992584108425, -2643.585520218077, -2648.7934766761637, -2637.416438748412, -2623.2230810192923, -2625.8158833761076, -2642.3338225285797, -2649.2181598208144, -2637.327031770591, -2623.8265781195855, -2625.8829386094735, -2640.8362556500742, -2648.458200509334, -2637.684659681876, -2623.6030606750323, -2626.3970287319457, -2642.3114707841246, -2649.8887121544735, -2637.103514326038, -2623.580708930577, -2627.559319443622, -2642.7585056732305, -2649.9557673878394, -2638.0869910820716, -2624.295964753147, -2627.268746765703, -2643.205540562337, -2650.6039679770433, -2638.71283992682, -2623.4689502083006, -2624.8994618534402, -2641.4397527503675, -2649.1511045874486, -2639.226930049292, -2624.810054875619, -2626.978174087784, -2643.80903766263, -2653.062659867127, -2641.28329053918, -2626.32997349858, -2628.90042411094, -2644.859569652029, -2651.006299377239, -2638.4893224822667, -2624.810054875619, -2627.604022932532, -2641.7303254282865, -2651.296872055158, -2640.2104068053254, -2625.3688484870017, -2627.5369676991663, -2642.4008777619456, -2650.2239883213033, -2638.668136437909, -2623.5360054416665, -2625.8158833761076, -2640.7692004167084, -2648.9946423762613, -2638.355212015535, -2624.005392075228, -2626.911118854418, -2641.685621939376, -2648.704069698342, -2638.4893224822667, -2622.843101363552, -2622.619583918999, -2639.271633538203, -2644.814866163119, -2625.8158833761076, -2605.006409288217, -2600.7372260972534, -2608.046246534139, -2605.520499410689, -2585.582743356555, -2561.9793012117507, -2554.916149963874, -2562.783964012142, -2562.515743078678, -2545.2825481036366, -2526.1271031054384, -2524.2495565711924, -2536.6324229994325, -2543.561463780578, -2533.391420053413, -2521.813216425564, -2525.389495538413, -2542.4215248133573, -2552.45745807379, -2543.4497050583013, -2530.7092107187764, -2534.397248553902, -2550.758725495187, -2560.548789566611, -2549.7305452502424, -2536.9676991662623, -2540.4769230457455, -2557.3524901095025, -2566.695519291821, -2556.257254631192, -2541.907434690885, -2545.0590306590834, -2561.420507600368, -2570.7635367826865, -2560.9958244557174, -2547.852998715997, -2549.6411382724214, -2566.136725680438, -2575.9714932407733, -2564.326234379558, -2548.8588272164857, -2552.1892371403264, -2569.265969904181, -2576.195010685326, -2565.689690791332, -2552.971548196262, -2554.5138185636783, -2570.003577471206, -2579.0560339756053, -2567.656644303399, -2553.619748785466, -2555.8549232309965, -2571.1435164384266, -2580.5759525985663, -2569.8247635155635, -2554.4914668192228, -2556.1901993978263, -2572.596379828022, -2580.4641938762898, -2569.690653048832, -2555.4078883418906, -2557.643062787421, -2572.3728623834686, -2580.8218217875747, -2570.0482809601167, -2555.609054041988, -2557.911283720885, -2573.22222867277, -2582.006464243706, -2571.03175771615, -2555.8996267199072, -2557.9559872097957, -2574.6750920623654, -2582.386443899446, -2571.255275160703, -2556.0784406755497, -2557.240731387226, -2571.8364205165412, -2581.9170572658845, -2571.7023100498095, -2555.877274975452, -2557.911283720885, -2573.624560072966, -2581.984112499251, -2571.523496094167, -2556.9948621982176, -2558.715946521276, -2574.4068711289015, -2583.8616590334964, -2572.171696683371, -2557.598359298511, -2559.9676442107734, -2575.770327540675, -2584.263990433692, -2573.3786908839575, -2557.531304065145, -2560.191161655326, -2576.5749903410665, -2584.84513578953, -2573.512801350689, -2557.687766276332, -2559.207684899293, -2575.2785891626586, -2584.040472989139, -2573.8033740286082, -2559.4759058327563, -2560.0794029330496, -2574.876257762463, -2584.331045667058, -2572.1493449389154, -2557.88893197643, -2560.6605482888876, -2575.6138653294884, -2584.3086939226027, -2573.490449606234, -2557.844228487519, -2559.7664785106754, -2575.457403118301, -2584.8898392784404, -2573.7363187952424, -2557.5089523206893, -2559.878237232952, -2575.233885673748, -2585.5380398676443, -2574.853906018008, -2560.593493055522, -2561.107583177994, -2575.9491414963177, -2584.8227840450745, -2574.7197955512756, -2559.2747401326587, -2559.542961066122, -2575.770327540675, -2584.286342178147, -2574.6303885734546, -2560.481734333245, -2560.6381965444325, -2575.1221269514713, -2584.3981009004237, -2573.6022083285106, -2558.1571529098933, -2559.6323680439436, -2575.0327199736503, -2584.1298799669603, -2573.5575048396, -2558.2465598877147, -2559.0288709436504, -2575.680920562854, -2585.0910049785384, -2571.948179238818, -2556.234902886737, -2557.620711042966, -2571.590551327533, -2578.9889787422394, -2569.5565425821, -2554.4020598414018, -2554.692632519321, -2570.8529437605075, -2580.9559322543064, -2571.4340891163456, -2558.0900976765274, -2558.2465598877147, -2572.909304250396, -2582.5429061106333]]
