[[-2107.478929457537, -2106.160176534674, -2102.8744700997436, -2101.1757375211405, -2102.5615456773694, -2106.6295631682356, -2106.2048800235843, -2102.338028232816, -2099.477004942537, -2101.5333654324254, -2107.613039924269, -2106.7860253794224, -2102.60624916628, -2098.9852665645203, -2101.5557171768805, -2106.7413218905117, -2107.0765980573415, -2104.0144090669646, -2101.2651444989615, -2102.673304399646, -2106.0707695568526, -2107.5012812019922, -2103.612077666769, -2100.281667742928, -2102.248621254995, -2106.517804445959, -2108.2388887690176, -2102.8744700997436, -2100.5275369319365, -2102.896821844199, -2107.0765980573415, -2107.6577434131796, -2103.1203392887523, -2101.376903221238, -2102.002752065987, -2105.7354933900233, -2106.093121301308, -2102.98622882202, -2099.253487497984, -2100.393426465205, -2105.4896242010145, -2105.601382923291, -2102.449786955093, -2099.4323014536267, -2101.421606710149, -2105.668438156657, -2106.6966184016014, -2103.1650427776626, -2099.8569845982774, -2101.8909933437103, -2106.0707695568526, -2108.1718335356513, -2104.059112555875, -2099.5217084314477, -2102.248621254995, -2105.7801968789336, -2106.093121301308, -2102.4274352106377, -2100.2146125095624, -2101.935696832621, -2106.093121301308, -2107.0765980573415, -2103.053284055386, -2099.5887636648135, -2101.2651444989615, -2107.0095428239756, -2106.8530806127883, -2101.667475899157, -2100.1028537872858, -2101.376903221238, -2107.188356779618, -2107.7471503910006, -2103.9473538335983, -2098.9405630756096, -2100.9522200765873, -2106.294287001406, -2106.3613422347717, -2101.6898276436123, -2099.0076183089755, -2101.9804003215313, -2107.4565777130815, -2108.9764963360426, -2104.4837957005257, -2099.968743320554, -2102.1592142771738, -2105.802548623389, -2105.8472521122994, -2103.254449755484, -2101.1757375211405, -2101.51101368797, -2105.959010834576, -2107.4118742241712, -2103.9473538335983, -2100.371074720749, -2102.94152533311, -2106.450749212593, -2107.0095428239756, -2104.3720369782495, -2101.086330543319, -2103.8802986002324, -2108.0153713244645, -2109.088255058319, -2105.1096445452745, -2102.0474555548976, -2104.707313145079, -2109.0211998249533, -2110.027028325442, -2105.802548623389, -2102.338028232816, -2104.6849614006237, -2107.858909113277, -2108.3953509802045, -2104.3720369782495, -2102.1592142771738, -2103.343856733305, -2108.216537024562, -2108.8200341248553, -2104.5284991894364, -2100.8404613543107, -2102.0474555548976, -2105.9813625790316, -2107.635391668724, -2103.4332637111265, -2100.41577820966, -2102.293324743906, -2107.3671707352605, -2109.602345180791, -2105.5566794343804, -2102.449786955093, -2104.4614439560705, -2108.4400544691152, -2109.3564759917826, -2105.5343276899252, -2101.8909933437103, -2102.896821844199, -2107.925964346643, -2109.222365525051, -2105.668438156657, -2101.51101368797, -2103.835595111322, -2109.870566114255, -2111.9492783485985, -2107.4342259686264, -2103.7238363890456, -2104.707313145079, -2110.3176010033612, -2111.144615548207, -2108.1047783022855, -2104.327333489339, -2106.0037143234867, -2111.0775603148413, -2112.776292893445, -2108.0824265578303, -2105.020237567453, -2107.0989498017966, -2109.9599730920763, -2110.809339381378, -2108.641220169213, -2104.349685233794, -2105.668438156657, -2110.183490536629, -2111.032856825931, -2107.5012812019922, -2104.5061474449813, -2106.182528279129, -2110.4293597256374, -2112.128092304241, -2107.635391668724, -2103.0085805664758, -2104.4614439560705, -2109.2670690139616, -2109.7588073919783, -2107.4342259686264, -2103.276801499939, -2103.70148464459, -2108.931792847132, -2111.6140021817687, -2106.6966184016014, -2102.7850631219226, -2105.310810245372, -2109.8482143697997, -2109.9152696031656, -2106.4731009570482, -2102.8744700997436, -2103.6567811556797, -2107.5012812019922, -2109.602345180791, -2105.959010834576, -2102.8521183552884, -2104.908478845177, -2109.13295854723, -2110.6975806591013, -2105.646086412202, -2101.8239381103444, -2103.2320980110285, -2108.216537024562, -2109.13295854723, -2104.997885822998, -2100.9075165876766, -2102.740359633012, -2108.127130046741, -2109.535289947425, -2106.316638745861, -2102.5615456773694, -2103.4332637111265, -2108.6859236581236, -2110.7199324035564, -2108.41770272466, -2104.7743683784447, -2110.5634701923696, -2112.776292893445, -2111.748112648501, -2108.5965166803026, -2108.6635719136684, -2112.1057405597858, -2115.1679295501626, -2112.08338881533, -2108.3059440023835, -2110.161138792174, -2113.9385836051206, -2117.984249351531, -2115.1679295501626, -2109.4235312251485, -2109.244717269506, -2112.9774585935425, -2116.41962723966, -2114.5644324498694, -2109.535289947425, -2110.027028325442, -2113.7821213939337, -2115.36909525026, -2113.670362671657, -2108.0824265578303, -2108.9541445915875, -2113.312734760372, -2114.6314876832353, -2112.5974789378024, -2107.3671707352605, -2107.7471503910006, -2110.7869876369223, -2116.307868517383, -2115.056170827886, -2108.574164935847, -2108.5294614469362, -2112.1727957931516, -2113.312734760372, -2112.128092304241, -2106.5625079348692, -2107.545984690903, -2112.061037070875, -2113.379789993738, -2110.474063214548, -2104.617906167258, -2103.8802986002324, -2107.7471503910006, -2111.2340225260286, -2108.0153713244645, -2103.32150498885, -2103.4556154555817, -2108.261240513473, -2109.89291785871, -2106.6295631682356, -2102.7627113774674, -2102.382731721727, -2105.646086412202, -2108.7306271470343, -2105.1096445452745, -2101.7792346214337, -2102.8297666108333, -2106.0707695568526, -2109.7141039030676, -2109.4011794806934, -2105.020237567453, -2103.7238363890456, -2107.7471503910006, -2111.8151678818667, -2109.6694004141573, -2104.997885822998, -2103.969705578054, -2108.127130046741, -2111.70340915959, -2109.200013780596, -2104.349685233794, -2102.092159043808, -2106.4731009570482, -2109.445882969604, -2106.897784101699, -2103.8579468557773, -2103.8802986002324, -2109.3564759917826, -2112.150444048696, -2111.748112648501, -2107.210708524073, -2103.5226706889475, -2107.1436532907073, -2109.870566114255, -2108.127130046741, -2104.7296648895344, -2102.8074148663777, -2106.450749212593, -2110.8763946147437, -2107.3001155018947, -2104.1261677892408, -2102.2039177660845, -2106.3389904903165, -2110.3176010033612, -2108.1047783022855, -2104.260278255973, -2103.053284055386, -2106.808377123878, -2109.7141039030676, -2107.3448189908054, -2103.2097462665733, -2103.0979875442968, -2107.121301546252, -2111.4351882261262, -2110.183490536629, -2105.1096445452745, -2104.0814643003305, -2108.0824265578303, -2111.256374270484, -2109.5576416918807, -2104.215574767062, -2103.1650427776626, -2107.121301546252, -2109.825862625344, -2108.0153713244645, -2103.0979875442968, -2102.740359633012, -2107.523632946448, -2112.9774585935425, -2110.6528771701905, -2107.7024469020903, -2105.310810245372, -2109.6917521586124, -2112.8209963823556, -2111.6587056706794, -2107.1436532907073, -2107.925964346643, -2111.70340915959, -2114.1844527941294, -2113.066865571364, -2107.858909113277, -2107.7024469020903, -2112.731589404534, -2117.4701592290594, -2114.1621010496738, -2110.2728975144505, -2109.6470486697017, -2111.8822231152326, -2114.027990582942, -2113.2233277825508, -2109.579993436336, -2108.7976823804, -2112.6198306822575, -2114.7208946610567, -2113.960935349576, -2108.484757958026, -2106.6966184016014, -2111.9492783485985, -2117.000772595498, -2114.7879498944226, -2110.2058422810846, -2109.490586458515, -2111.256374270484, -2114.7879498944226, -2114.050342327397, -2109.6246969252466, -2108.4400544691152, -2112.1057405597858, -2115.391446994716, -2113.2680312714615, -2108.9764963360426, -2109.535289947425, -2112.6198306822575, -2115.8831853727324, -2114.5644324498694, -2111.8822231152326, -2110.6528771701905, -2114.452673727593, -2116.285516772928, -2115.1679295501626, -2110.742284148012, -2108.9094411026767, -2112.8209963823556, -2115.0785225723416, -2112.373961493249, -2107.9706678355537, -2106.22723176804, -2109.89291785871, -2113.446845227104, -2111.70340915959, -2107.8812608577327, -2108.194185280107, -2111.837519626322, -2116.665496428668, -2115.994944095009, -2111.189319037118, -2109.5576416918807, -2112.5304237044365, -2115.614964439269, -2113.7821213939337, -2107.836557368822, -2106.4731009570482, -2110.116435303263, -2113.2233277825508, -2110.4964149590037, -2108.3059440023835, -2106.830728868333, -2109.2670690139616, -2113.8268248828444, -2112.3292580043385, -2108.149481791196, -2106.3613422347717, -2109.9823248365315, -2114.251508027495, -2113.089217315819, -2108.261240513473, -2106.830728868333, -2111.546946948403, -2115.391446994716, -2114.5197289609587, -2110.6975806591013, -2109.155310291685, -2113.0445138269083, -2117.6266214402463, -2116.307868517383, -2111.2116707815735, -2108.8200341248553, -2111.256374270484, -2114.899708616699, -2114.2738597719504, -2110.3399527478164, -2107.4565777130815, -2112.2622027709726, -2114.2962115164055, -2111.837519626322, -2109.6694004141573, -2110.250545769995, -2113.715066160568, -2115.972592350554, -2115.771426650456, -2113.6033074382913, -2113.2456795270064, -2113.6256591827464, -2115.2126330390734, -2116.1067028172856, -2111.032856825931, -2108.350647491294, -2111.70340915959, -2115.771426650456, -2115.36909525026, -2109.155310291685, -2108.7976823804, -2112.776292893445, -2115.279688272439, -2115.0114673389753, -2111.7257609040453, -2109.9376213476207, -2112.9551068490873, -2116.0396475839198, -2114.8103016388777, -2111.2116707815735, -2108.7976823804, -2112.5527754488917, -2115.5479092059027, -2112.731589404534, -2109.2670690139616, -2109.0211998249533, -2111.256374270484, -2115.9502406060983, -2116.5313859619364, -2111.6140021817687, -2108.3729992357494, -2112.999810337998, -2116.643144684213, -2113.6256591827464, -2110.9210981036545, -2109.602345180791, -2112.508071959981, -2116.8890138732213, -2115.637316183724, -2111.055208570386, -2108.641220169213, -2111.8151678818667, -2116.2408132840173, -2115.9502406060983, -2112.284554515428, -2110.22819402554, -2112.9327551046317, -2116.441978984115, -2115.5255574614475, -2111.6140021817687, -2110.4964149590037, -2114.363266749772, -2117.2019382955955, -2115.1679295501626, -2111.6810574151345, -2109.4682347140592, -2111.055208570386, -2116.6878481731237, -2115.391446994716, -2110.161138792174, -2109.0435515694085, -2111.70340915959, -2114.1621010496738, -2113.960935349576, -2109.579993436336, -2107.478929457537, -2111.837519626322, -2115.8384818838217, -2113.737417905023, -2109.4011794806934, -2107.4118742241712, -2109.8482143697997, -2113.402141738193, -2113.8268248828444, -2110.2058422810846, -2107.9706678355537, -2110.675228914646, -2113.402141738193, -2112.3963132377044, -2108.9764963360426, -2106.294287001406, -2109.4682347140592, -2114.8103016388777, -2114.7879498944226, -2109.736455647523, -2108.6859236581236, -2112.5304237044365, -2116.8443103843106, -2114.98911559452, -2111.0775603148413, -2108.350647491294, -2111.2116707815735, -2115.927888861643, -2116.1290545617408, -2112.150444048696, -2109.490586458515, -2112.1727957931516, -2115.726723161545, -2114.7879498944226, -2110.5858219368247, -2109.1106068027743, -2114.0726940718528, -2117.1572348066848, -2117.246641784506, -2113.7821213939337, -2110.9881533370203, -2114.1621010496738, -2118.543042962914, -2118.4089324961824, -2114.050342327397, -2110.384656236727, -2113.111569060274, -2118.252470284995, -2117.1795865511403, -2112.3963132377044, -2109.3564759917826, -2112.8433481268107, -2116.7772551509447, -2115.9502406060983, -2111.9269266041433, -2110.5858219368247, -2114.5644324498694, -2118.4312842406375, -2118.028952840442, -2112.4633684710707, -2109.3788277362382, -2113.1339208047298, -2117.7607319069784, -2118.4089324961824, -2114.2962115164055, -2111.837519626322, -2115.2126330390734, -2118.4089324961824, -2117.8277871403443, -2112.9551068490873, -2111.837519626322, -2115.637316183724, -2118.0960080738078, -2117.0454760844086, -2113.402141738193, -2110.898746359199, -2113.9162318606654, -2117.313697017872, -2116.9784208510423, -2113.5362522049254, -2110.0046765809866, -2114.1621010496738, -2119.191243552118, -2118.2077667960843, -2114.117397560763, -2110.898746359199, -2114.117397560763, -2119.191243552118, -2118.1407115627185, -2114.765598149967, -2112.0386853264195, -2113.9385836051206, -2118.4089324961824, -2118.386580751727, -2114.5197289609587, -2113.737417905023, -2117.358400506783, -2120.666458686168, -2118.99007785202, -2114.7208946610567, -2114.1844527941294, -2116.8890138732213, -2120.4205894971597, -2119.414760996671, -2114.4973772165035, -2112.5974789378024, -2115.3020400168944, -2118.833615640833, -2118.3642290072717, -2114.095045816308, -2111.2787260149394, -2114.1844527941294, -2118.4536359850927, -2117.8501388847994, -2115.8608336282773, -2113.1786242936405, -2115.5702609503583, -2120.197072052607, -2119.191243552118, -2114.5867841943245, -2111.166967292663, -2112.731589404534, -2117.358400506783, -2118.0960080738078, -2114.2068045385845, -2111.2787260149394, -2114.363266749772, -2118.0736563293526, -2117.9171941181653, -2114.5420807054143, -2112.0386853264195, -2115.3020400168944, -2118.3642290072717, -2117.604269695791, -2113.1339208047298, -2111.166967292663, -2114.5644324498694, -2118.319525518361, -2118.7442086630117, -2114.0726940718528, -2111.099912059297, -2112.8880516157215, -2117.2689935289613, -2117.090179573319, -2114.1621010496738, -2111.5245952039477, -2112.3963132377044, -2118.028952840442, -2118.297173773906, -2114.050342327397, -2112.6645341711683, -2114.5420807054143, -2118.4759877295483, -2117.224290040051, -2114.765598149967, -2112.731589404534, -2114.6538394276904, -2119.4371127411264, -2118.7665604074673, -2115.279688272439, -2112.6868859156234, -2115.7490749060007, -2118.319525518361, -2117.984249351531, -2113.2009760380956, -2109.535289947425, -2110.451711470093, -2116.0396475839198, -2117.2689935289613, -2113.715066160568, -2110.3176010033612, -2114.2738597719504, -2118.7442086630117, -2118.7442086630117, -2113.51390046047, -2110.5634701923696, -2112.8209963823556, -2118.5206912184585, -2118.3642290072717, -2113.022162082453, -2111.3681329927604, -2113.446845227104, -2117.447807484604, -2118.3642290072717, -2114.1621010496738, -2111.3234295038496, -2113.066865571364, -2117.961897607076, -2118.2077667960843, -2113.759769649478, -2112.1057405597858, -2114.385618494227, -2117.581917951336, -2117.4254557401487, -2113.8491766272996, -2111.502243459492, -2114.8550051277884, -2118.7889121519224, -2119.4371127411264, -2115.056170827886, -2111.166967292663, -2113.4915487160147, -2117.6936766736126, -2117.581917951336, -2113.7821213939337, -2111.9269266041433, -2112.217499282062, -2118.252470284995, -2118.2077667960843, -2112.642182426713, -2110.2058422810846, -2111.70340915959, -2115.682019672635, -2117.0678278288638, -2112.0386853264195, -2108.864737613766, -2110.4964149590037, -2117.0454760844086, -2117.6936766736126, -2114.117397560763, -2111.256374270484, -2112.6645341711683, -2117.961897607076, -2116.9113656176764, -2112.5527754488917, -2109.9152696031656, -2114.050342327397, -2118.1407115627185, -2118.4089324961824, -2114.340915005316, -2110.2728975144505, -2112.41866498216, -2117.8277871403443, -2119.1465400632073, -2114.4973772165035, -2110.60817368128, -2111.390484737216, -2116.732551662034, -2118.699505174101, -2115.1455778057075, -2111.5692986928584, -2113.6256591827464], [-7043.168788333987, -7031.791750406236, -7025.3767997475625, -7031.456474239407, -7041.492407499839, -7042.609994722605, -7032.328192273163, -7024.035695080244, -7030.607107950104, -7041.626517966572, -7042.028849366767, -7032.685820184448, -7025.756779403303, -7030.67416318347, -7041.850035411124, -7044.129913345566, -7032.886985884546, -7026.404979992507, -7031.0094393503, -7039.994840621333, -7042.386477278052, -7033.892814385035, -7025.846186381124, -7030.718866672381, -7042.811160422702, -7044.465189512395, -7032.641116695538, -7025.86853812558, -7031.679991683959, -7042.230015066864, -7045.336907546152, -7034.898642885523, -7027.008477092801, -7030.562404461194, -7042.811160422702, -7044.196968578932, -7034.183387062953, -7026.025000336766, -7029.713038171893, -7041.715924944392, -7043.504064500817, -7033.758703918303, -7027.097884070621, -7031.076494583666, -7040.732448188359, -7043.861692412102, -7032.81993065118, -7025.734427658847, -7031.925860872968, -7042.766456933792, -7044.8004656792245, -7036.150340575021, -7028.863671882591, -7031.612936450593, -7041.738276688848, -7043.861692412102, -7034.853939396613, -7027.477863726362, -7030.607107950104, -7040.330116788164, -7043.057029611711, -7034.406904507507, -7026.1367590590435, -7031.501177728317, -7042.29707030023, -7044.174616834476, -7035.7033056859145, -7028.684857926948, -7033.244613795831, -7043.5711197341825, -7045.426314523973, -7035.569195219183, -7027.589622448639, -7031.903509128512, -7042.364125533596, -7043.973451134379, -7034.563366718694, -7025.622668936571, -7028.975430604867, -7040.2854132992525, -7043.079381356166, -7033.266965540286, -7024.7285991583585, -7030.607107950104, -7041.3359452886525, -7044.666355212493, -7036.016230108289, -7027.522567215272, -7030.607107950104, -7041.447704010929, -7044.487541256851, -7035.658602197004, -7026.494386970328, -7030.942384116935, -7042.028849366767, -7043.839340667647, -7035.0104016078, -7025.756779403303, -7031.121198072577, -7042.185311577954, -7044.666355212493, -7036.217395808387, -7028.796616649225, -7030.495349227828, -7040.866558655091, -7044.465189512395, -7035.144512074532, -7027.5449189597275, -7030.785921905747, -7040.754799932814, -7044.196968578932, -7035.926823130468, -7027.3661050040855, -7030.115369572088, -7040.196006321431, -7044.129913345566, -7035.748009174826, -7027.0755323261665, -7030.785921905747, -7041.268890055286, -7044.465189512395, -7035.2339190523535, -7026.829663137158, -7029.802445149714, -7040.5759859771715, -7043.72758194537, -7036.4632649973955, -7026.270869525775, -7029.780093405258, -7040.531282488261, -7043.347602289629, -7034.228090551865, -7026.58379394815, -7030.875328883569, -7041.827683666669, -7043.0123261228, -7034.429256251962, -7026.740256159336, -7030.2494800388195, -7040.553634232716, -7042.721753444881, -7033.691648684937, -7025.175634047465, -7028.863671882591, -7040.307765043708, -7044.956927890412, -7035.815064408192, -7027.187291048443, -7030.763570161292, -7042.408829022507, -7044.845169168136, -7034.853939396613, -7025.399151492018, -7029.3107067716965, -7040.039544110245, -7043.973451134379, -7035.166863818988, -7026.002648592312, -7028.886023627046, -7038.430218509462, -7042.095904600133, -7034.272794040775, -7026.874366626069, -7031.210605050398, -7040.039544110245, -7042.788808678247, -7034.451607996418, -7025.466206725384, -7027.72373291537, -7039.77132317678, -7044.688706956948, -7034.138683574043, -7024.862709625091, -7028.282526526753, -7038.609032465105, -7042.945270889434, -7034.406904507507, -7025.354448003108, -7028.416636993485, -7040.307765043708, -7042.744105189337, -7033.423427751473, -7025.6673724254815, -7028.930727115957, -7040.553634232716, -7044.085209856655, -7035.278622541264, -7026.717904414882, -7030.3612387610965, -7040.48657899935, -7044.889872657046, -7035.993878363834, -7027.321401515174, -7029.780093405258, -7039.972488876879, -7042.855863911613, -7033.937517873946, -7026.1367590590435, -7029.109541071599, -7040.777151677269, -7044.711058701403, -7036.306802786208, -7027.187291048443, -7029.176596304965, -7040.508930743806, -7043.995802878833, -7037.022058608778, -7028.77426490477, -7030.987087605845, -7047.437971524951, -7042.721753444881, -7032.954041117912, -7032.194081806431, -7041.58181447766, -7049.047297125733, -7042.744105189337, -7032.015267850789, -7033.512834729295, -7041.671221455482, -7048.130875603066, -7043.124084845077, -7032.2387852953425, -7031.612936450593, -7040.508930743806, -7047.817951180691, -7041.358297033107, -7030.338887016641, -7030.607107950104, -7039.994840621333, -7048.10852385861, -7043.302898800719, -7031.7693986617805, -7031.143549817032, -7041.850035411124, -7048.466151769895, -7044.375782534574, -7034.786884163247, -7032.328192273163, -7042.1629598334985, -7045.068686612688, -7038.027887109267, -7025.510910214295, -7018.604221177605, -7021.867575868079, -7024.192157291432, -7011.988104818834, -6993.547915643206, -6980.472145136851, -6981.030938748234, -6984.942494027912, -6978.326377669142, -6966.077621707634, -6966.725822296838, -6978.728709069337, -6988.317607440664, -6984.2272382053425, -6977.052328235189, -6978.61695034706, -6990.418671419463, -6999.873459324058, -6997.459470922884, -6987.535296384728, -6986.752985328792, -6998.510002912284, -7005.573154160161, -7001.4827849248395, -6992.430328420441, -6990.351616186097, -6999.918162812968, -7008.210660005887, -7005.19317450442, -6994.218467976865, -6994.017302276767, -7004.075587281655, -7011.317552485175, -7006.95896231639, -6997.794747089714, -6996.923029055957, -7006.444872193918, -7015.34086648713, -7010.1105582845885, -7000.320494213163, -6999.895811068513, -7009.52941292875, -7016.749026387814, -7010.602296662605, -6999.4264244349515, -6996.967732544867, -7005.260229737786, -7011.071683296166, -7005.729616371348, -6993.659674365482, -6989.658712107982, -6998.532354656739, -7007.5848111611385, -7005.059064037689, -6994.397281932507, -6992.922066798457, -7002.399206447507, -7010.24466875132, -7005.751968115803, -6995.33605519963, -6994.039654021222, -7004.343808215119, -7011.384607718541, -7007.920087327968, -6996.386587189029, -6993.905543554491, -7003.896773326012, -7011.541069929728, -7007.651866394504, -6996.990084289323, -6994.978427288345, -7004.0532355372, -7011.876346096557, -7007.607162905594, -6996.654808122494, -6995.581924388639, -7003.67325588146, -7011.988104818834, -7008.255363494798, -6996.677159866948, -6993.950247043401, -7003.226220992354, -7011.474014696362, -7008.009494305789, -6997.191249989421, -6995.112537755077, -7003.002703547801, -7010.557593173694, -7007.629514650049, -6996.788918589225, -6993.234991220831, -7002.890944825524, -7011.0493315517115, -7007.875383839058, -6996.118366255566, -6994.777261588248, -7004.522622170762, -7010.714055384881, -7005.90843032699, -6995.626627877549, -6993.011473776278, -7001.259267480286, -7010.870517596069, -7005.997837304812, -6993.950247043401, -6991.893886553513, -7001.438081435929, -7010.065854795677, -7005.90843032699, -6994.911372054979, -6992.653845864993, -7001.1922122469205, -7008.590639661627, -7004.880250082047, -6993.682026109937, -6990.888058053024, -7000.275790724253, -7009.19413676192, -7004.38851170403, -6994.062005765678, -6993.659674365482, -7000.968694802367, -7009.14943327301, -7004.38851170403, -6993.3243981986525, -6991.290389453219, -7000.611066891082, -7008.903564084001, -7004.0532355372, -6993.883191810035, -6992.09505225361, -7000.275790724253, -7009.127081528554, -7006.24370649382, -6994.911372054979, -6990.262209208276, -6999.269962223764, -7008.165956516977, -7003.740311114826, -6993.369101687563, -6988.474069651851, -6996.118366255566, -7005.975485560356, -7003.382683203541, -6992.005645275789, -6987.311778940175, -6995.3807586885405, -7005.371988460063, -7001.90746806949, -6991.2680377087645, -6989.010511518778, -6997.124194756055, -7006.511927427284, -7003.71795937037, -6991.938590042423, -6988.675235351949, -6998.510002912284, -7007.629514650049, -7003.628552392549, -6993.838488321125, -6990.150450485999, -6997.303008711697, -7005.215526248876, -7003.002703547801, -6993.1455842430105, -6989.301084196697, -6996.520697655761, -7004.0532355372, -7001.169860502465, -6990.6198371195605, -6987.132964984533, -6996.900677311502, -7005.796671604714, -7001.661598880482, -6990.776299330748, -6987.758813829281, -6995.4925174108175, -7003.852069837102, -7000.655770379994, -6990.19515397491, -6987.3341306846305, -6993.369101687563, -7001.773357602759, -7000.566363402172, -6989.077566752144, -6983.847258549602, -6992.586790631627, -7002.153337258499, -6999.672293623959, -6987.9823312738345, -6983.891962038513, -6993.7937848322135, -7003.516793670273, -7002.309799469686, -6991.022168519756, -6985.657749850482, -6997.303008711697, -7010.95992457389, -7012.658657152493, -7006.020189049267, -7009.037674550734, -7023.163977046487, -7037.357334775607, -7039.234881309853, -7034.071628340677, -7035.34567777463, -7046.409791280007, -7060.849018198135, -7060.960776920411, -7051.215416337898, -7050.008422137311, -7058.5914920081495, -7067.666300257004, -7066.548713034238, -7055.708116973415, -7051.7295064603695, -7060.245521097841, -7069.655605513526, -7067.1075066456215, -7056.155151862521, -7052.467114027395, -7060.603149009126, -7070.3932130805515, -7067.5768932791825, -7055.909282673512, -7051.528340760272, -7058.993823408345, -7068.605073524127, -7066.548713034238, -7056.356317562619, -7052.467114027395, -7060.513742031306, -7070.080288658177, -7068.001576423833, -7057.697422229937, -7053.20472159442, -7060.8266664536795, -7070.907303203024, -7067.912169446012, -7057.339794318652, -7054.009384394812, -7061.564274020705, -7071.108468903121, -7068.716832246403, -7058.613843752604, -7054.322308817185, -7061.519570531795, -7071.197875880943, -7069.253274113331, -7057.563311763205, -7053.53999776125, -7061.184294364964, -7069.387384580063, -7068.783887479769, -7058.390326308051, -7053.674108227981, -7060.625500753582, -7071.0414136697555, -7069.096811902144, -7058.0103466523115, -7052.556521005216, -7060.670204242493, -7070.549675291739, -7069.3426810911515, -7058.099753630132, -7053.3164803166965, -7061.743087976348, -7071.06376541421, -7068.87329445759, -7057.608015252115, -7052.6682797274925, -7059.664375742004, -7068.940349690956, -7067.487486301361, -7057.004518151823, -7051.707154715915, -7057.093925129643, -7068.314500846208, -7066.034622911767, -7053.852922183624, -7047.996765136334, -7055.574006506683, -7065.051146155733, -7062.927730432479, -7052.355355305119, -7048.197930836432, -7056.44572454044, -7066.593416523149, -7064.335890333163, -7055.0152128953005, -7049.740201203847, -7056.1328001180655, -7065.58758802266, -7064.134724633065, -7052.176541349476, -7046.6780122134705, -7055.1940268509425, -7065.028794411278, -7062.570102521194, -7051.170712848987, -7046.2086255799095, -7053.338832061152, -7062.480695543372, -7062.458343798918, -7051.975375649378, -7046.409791280007, -7053.942329161446, -7064.179428121976, -7061.676032742982, -7052.757686705314, -7046.745067446836, -7053.160018105509, -7063.1735996214875, -7061.676032742982, -7051.505989015817, -7045.471018012884, -7052.444762282939, -7062.570102521194, -7062.346585076641, -7050.768381448792, -7044.845169168136, -7050.991898893345, -7062.838323454657, -7061.184294364964, -7049.941366903945, -7044.599299979127, -7052.444762282939, -7062.435992054462, -7061.854846698624, -7051.036602382255, -7045.023983123778, -7051.863616927102, -7061.4748670428835, -7060.513742031306, -7050.768381448792, -7046.163922090998, -7052.020079138289, -7061.430163553973, -7060.580797264672, -7050.455457026417, -7043.5711197341825, -7050.120180859588, -7060.558445520216, -7059.060878641711, -7048.0638203697, -7042.1629598334985, -7049.337869803652, -7059.77613446428, -7059.507913530817, -7049.047297125733, -7042.878215656068, -7050.008422137311, -7059.977300164378, -7059.954948419923, -7049.449628525928, -7044.5098930013055, -7051.863616927102, -7060.223169353387, -7059.217340852898, -7049.315518059197, -7043.816988923191, -7050.455457026417, -7058.837361197157, -7059.194989108442, -7048.600262236627, -7041.894738900035, -7048.957890147912, -7059.2396925973535, -7058.390326308051, -7048.935538403456, -7043.68287845646, -7050.768381448792, -7060.267872842297, -7058.435029796962, -7048.220282580886, -7042.609994722605, -7047.147398847032, -7057.585663507661, -7058.658547241515, -7048.980241892367, -7042.609994722605, -7047.460323269406, -7058.815009452702, -7057.943291418946, -7046.8568261691125, -7040.218358065887, -7047.3262128026745, -7058.5914920081495, -7058.390326308051, -7047.035640124755, -7039.413695265495, -7046.29803255773, -7057.339794318652, -7057.16098036301, -7047.706192458415, -7041.067724355188, -7046.901529658024, -7056.892759429546, -7056.691593729448, -7045.58277673516, -7038.832549909658, -7046.186273835454, -7058.3009193302305, -7057.16098036301, -7046.409791280007, -7038.944308631934, -7045.7392389463475, -7056.557483262716, -7054.970509406389, -7043.794637178736, -7037.20087256442, -7043.168788333987, -7055.1940268509425, -7055.462247784406, -7044.308727301208, -7038.139645831543, -7043.928747645467, -7054.568178006194, -7056.021041395788, -7045.292204057241, -7037.960831875901, -7044.085209856655, -7054.031736139266, -7055.618709995593, -7045.403962779518, -7039.68191619896, -7044.733410445859, -7054.232901839364, -7054.814047195202, -7044.308727301208, -7037.513796986795, -7043.794637178736, -7054.009384394812, -7052.467114027395, -7041.134779588554, -7034.518663229784, -7042.341773789141, -7052.3777070495735, -7052.131837860566, -7042.654698211515, -7035.949174874923, -7042.833512167158, -7053.495294272339, -7053.562349505705, -7043.861692412102, -7037.022058608778, -7042.96762263389, -7053.294128572242, -7053.741163461347, -7043.526416245272, -7036.686782441948, -7042.051201111222, -7052.914148916501, -7054.0764396281775, -7044.018154623289, -7035.926823130468, -7040.598337721627, -7051.282471571264, -7052.623576238582, -7042.900567400524, -7035.748009174826, -7041.53711098875, -7052.221244838387, -7054.478771028373, -7044.778113934769, -7037.20087256442, -7043.057029611711, -7054.903454173023, -7054.143494861543, -7043.2805470562635, -7036.1726923194765, -7041.20183482192, -7052.802390194224, -7054.903454173023, -7044.308727301208, -7037.692610942437, -7041.805331922214, -7051.953023904923, -7054.054087883722, -7043.481712756362, -7035.591546963638, -7040.620689466083, -7052.020079138289, -7056.043393140244, -7047.549730247228, -7039.436047009951, -7042.386477278052, -7053.9646809059, -7054.836398939658, -7045.135741846054, -7038.787846420747, -7043.772285434281, -7053.517646016794, -7055.775172206781, -7046.521550002283, -7038.25140455382, -7043.72758194537, -7053.629404739071, -7054.925805917479, -7045.091038357144, -7037.938480131445, -7042.855863911613, -7053.651756483527, -7055.261082084308, -7045.627480224071, -7038.027887109267, -7042.878215656068, -7052.712983216404]]
[[-2122.901633131699, -2125.89676688871, -2123.929813376643, -2118.4312842406375, -2118.632449940735, -2121.9405081201207, -2122.812226153878, -2121.828749397844, -2118.9453743631097, -2117.4701592290594, -2119.548871463403, -2124.3992000102044, -2120.957031364087, -2117.4031039956935, -2117.5372144624253, -2120.4652929860704, -2124.7121244325785, -2122.767522664967, -2118.699505174101, -2117.6936766736126, -2121.4264179976485, -2124.8015314104, -2123.1027988317965, -2118.6548016851907, -2117.5148627179697, -2120.7782174084446, -2124.9579936215873, -2122.208729053584, -2117.961897607076, -2117.5372144624253, -2119.928851119143, -2123.505130231992, -2121.6946389311124, -2117.2019382955955, -2115.7937783949114, -2119.861795885777, -2122.1416738202183, -2120.6217551972577, -2115.994944095009, -2114.8550051277884, -2118.923022618654, -2122.096970331308, -2119.191243552118, -2116.307868517383, -2116.710199917579, -2119.5935749523132, -2122.6557639426906, -2120.308830774883, -2115.0785225723416, -2114.407970238682, -2119.0124295964756, -2122.544005220414, -2120.308830774883, -2115.413798739171, -2114.4973772165035, -2117.872490629255, -2120.6888104306236, -2119.6829819301347, -2116.08435107283, -2115.033819083431, -2117.939545862621, -2120.308830774883, -2118.7665604074673, -2112.8209963823556, -2111.166967292663, -2116.1961097951066, -2119.6606301856796, -2116.8443103843106, -2112.1057405597858, -2112.1057405597858, -2117.358400506783, -2120.889976130721, -2118.341877262816, -2113.8491766272996, -2113.089217315819, -2116.9784208510423, -2119.414760996671, -2119.1018365742966, -2114.899708616699, -2109.89291785871, -2112.8433481268107, -2118.8783191297434, -2117.7830836514336, -2113.5586039493805, -2111.770464392956, -2116.5984411953023, -2121.292307530917, -2119.1018365742966, -2113.7821213939337, -2112.2622027709726, -2117.4031039956935, -2121.3370110198275, -2119.3924092522157, -2116.08435107283, -2114.60913593878, -2118.1407115627185, -2123.9074616321877, -2121.0687900863636, -2116.7772551509447, -2114.2962115164055, -2120.1300168192406, -2123.8851098877326, -2121.5605284643802, -2117.023124339953, -2115.726723161545, -2119.0347813409307, -2121.4264179976485, -2121.2029005530953, -2117.581917951336, -2115.9502406060983, -2120.509996474981, -2125.5614907218805, -2121.806397653389, -2117.4701592290594, -2117.090179573319, -2118.7665604074673, -2124.0192203544643, -2122.119322075763, -2116.576089450847, -2116.2408132840173, -2118.99007785202, -2123.3486680208052, -2123.773351165456, -2119.7500371635006, -2118.4536359850927, -2120.554699963892, -2122.7004674316013, -2121.3370110198275, -2117.738380162523, -2116.3972754952047, -2119.8841476302323, -2122.3875430092266, -2121.605231953291, -2117.358400506783, -2115.6596679281793, -2119.615926696769, -2121.158197064185, -2118.7665604074673, -2114.475025472048, -2114.005638838487, -2117.8054353958887, -2119.8170923968664, -2119.928851119143, -2115.8608336282773, -2112.441016726615, -2116.576089450847, -2121.091141830819, -2120.4205894971597, -2115.391446994716, -2113.737417905023, -2116.307868517383, -2120.4876447305255, -2119.2359470410283, -2114.6538394276904, -2113.5586039493805, -2116.710199917579, -2120.0853133303303, -2118.8112638963776, -2114.005638838487, -2112.8433481268107, -2115.1902812946178, -2117.9171941181653, -2118.341877262816, -2114.832653383333, -2113.5809556938357, -2116.5090342174813, -2117.5148627179697, -2116.956069106587, -2113.51390046047, -2111.479891715037, -2115.4361504836265, -2119.4371127411264, -2118.028952840442, -2114.2962115164055, -2112.6645341711683, -2116.285516772928, -2118.8783191297434, -2117.0454760844086, -2112.575127193347, -2110.2058422810846, -2114.1844527941294, -2119.124188318752, -2118.632449940735, -2113.9832870940313, -2111.9492783485985, -2116.7996068954, -2119.0347813409307, -2116.4643307285705, -2112.5974789378024, -2110.6528771701905, -2112.6198306822575, -2115.1902812946178, -2113.2009760380956, -2110.3176010033612, -2111.3010777593945, -2113.8715283717547, -2118.543042962914, -2119.7276854190454, -2113.737417905023, -2112.865699871266, -2116.352572006294, -2121.6946389311124, -2121.292307530917, -2115.8831853727324, -2113.066865571364, -2115.927888861643, -2120.264127285973, -2120.644106941713, -2116.7549034064896, -2114.7208946610567, -2115.8831853727324, -2118.8112638963776, -2116.7996068954, -2111.256374270484, -2110.4293597256374, -2112.3292580043385, -2115.5032057169924, -2115.7490749060007, -2111.502243459492, -2108.9094411026767, -2112.485720215526, -2115.5702609503583, -2116.1067028172856, -2111.7257609040453, -2109.4682347140592, -2112.575127193347, -2116.866662128766, -2117.5372144624253, -2112.4633684710707, -2110.5858219368247, -2111.9045748596877, -2115.9055371171876, -2115.257336527984, -2111.8822231152326, -2110.3623044922715, -2113.6927144161123, -2118.5206912184585, -2118.7442086630117, -2114.60913593878, -2111.5692986928584, -2114.2738597719504, -2117.7830836514336, -2117.380752251238, -2113.8268248828444, -2110.7199324035564, -2112.776292893445, -2118.0736563293526, -2116.1961097951066, -2111.189319037118, -2110.3176010033612, -2112.8209963823556, -2116.6878481731237, -2116.8219586398554, -2112.9551068490873, -2111.6140021817687, -2113.8491766272996, -2118.543042962914, -2118.7665604074673, -2112.5304237044365, -2111.099912059297, -2113.1339208047298, -2117.939545862621, -2118.5653947073693, -2113.715066160568, -2110.384656236727, -2112.9104033601766, -2118.0960080738078, -2118.5206912184585, -2111.7257609040453, -2109.3788277362382, -2113.9385836051206, -2118.5206912184585, -2116.441978984115, -2110.9210981036545, -2109.9823248365315, -2113.3350865048274, -2117.8277871403443, -2118.297173773906, -2113.6256591827464, -2112.41866498216, -2113.8491766272996, -2110.4293597256374, -2111.837519626322, -2117.447807484604, -2117.4701592290594, -2112.2622027709726, -2111.2787260149394, -2114.899708616699, -2119.213595296573, -2118.543042962914, -2113.8938801162103, -2111.9045748596877, -2114.899708616699, -2119.4371127411264, -2120.5323482194362, -2116.4643307285705, -2113.670362671657, -2114.5420807054143, -2119.638278441224, -2120.7558656639894, -2115.32439176135, -2111.3234295038496, -2113.8268248828444, -2118.4536359850927, -2118.319525518361, -2115.1455778057075, -2112.575127193347, -2114.452673727593, -2119.8170923968664, -2121.672287186657, -2115.3020400168944, -2111.3010777593945, -2114.2738597719504, -2119.414760996671, -2120.8452726418104, -2116.1290545617408, -2111.2787260149394, -2115.682019672635, -2118.900670874199, -2118.8559673852883, -2116.08435107283, -2113.446845227104, -2116.307868517383, -2121.024086597453, -2120.1747203081513, -2115.9055371171876, -2113.737417905023, -2116.6878481731237, -2120.4429412416152, -2122.164025564674, -2118.297173773906, -2114.4973772165035, -2115.1455778057075, -2118.8559673852883, -2119.7723889079557, -2114.340915005316, -2111.099912059297, -2115.8384818838217, -2120.3758860082494, -2117.648973184702, -2112.1057405597858, -2109.6470486697017, -2110.898746359199, -2115.5479092059027, -2115.972592350554, -2108.5965166803026, -2103.3662084777607, -2105.668438156657, -2111.8822231152326, -2114.0726940718528, -2108.3729992357494, -2103.299153244395, -2106.1154730457633, -2111.5245952039477, -2111.859871370777, -2106.249583512495, -2102.695656144101, -2106.182528279129, -2111.4351882261262, -2112.0386853264195, -2109.088255058319, -2106.0037143234867, -2107.6800951576347, -2109.13295854723, -2112.0386853264195, -2110.138787047719, -2107.545984690903, -2109.0211998249533, -2113.111569060274, -2111.6587056706794, -2110.8540428702886, -2110.764635892467, -2111.2787260149394, -2113.670362671657, -2115.056170827886, -2112.373961493249, -2107.0765980573415, -2109.7588073919783, -2114.966763850065, -2114.407970238682, -2106.7860253794224, -2106.0707695568526, -2109.9823248365315, -2113.066865571364, -2111.8822231152326, -2108.1047783022855, -2109.13295854723, -2110.2728975144505, -2113.3350865048274, -2114.340915005316, -2112.3292580043385, -2108.7976823804, -2111.0775603148413, -2114.676191172146, -2114.005638838487, -2111.837519626322, -2108.574164935847, -2110.3399527478164, -2114.7879498944226, -2115.682019672635, -2111.2116707815735, -2108.1047783022855, -2110.9434498481096, -2115.5255574614475, -2114.050342327397, -2112.0386853264195, -2111.7257609040453, -2113.111569060274, -2116.4643307285705, -2115.927888861643, -2111.770464392956, -2109.222365525051, -2111.837519626322, -2115.7937783949114, -2118.1407115627185, -2115.7490749060007, -2112.284554515428, -2111.8151678818667, -2115.123226061252, -2115.7490749060007, -2112.284554515428, -2109.870566114255, -2112.217499282062, -2116.1961097951066, -2117.0678278288638, -2111.9492783485985, -2107.0318945684307, -2108.931792847132, -2114.743246405512, -2116.3972754952047, -2112.0386853264195, -2109.244717269506, -2110.675228914646, -2114.966763850065, -2115.637316183724, -2112.217499282062, -2109.4235312251485, -2110.384656236727, -2115.279688272439, -2115.413798739171, -2112.865699871266, -2110.6528771701905, -2111.748112648501, -2115.5255574614475, -2114.698542916601, -2111.0105050814755, -2107.7471503910006, -2108.350647491294, -2112.485720215526, -2115.0114673389753, -2110.7199324035564, -2107.277763757439, -2108.6635719136684, -2113.670362671657, -2114.2291562830396, -2110.742284148012, -2108.5294614469362, -2109.222365525051, -2114.743246405512, -2115.5032057169924, -2111.0775603148413, -2109.6917521586124, -2109.3788277362382, -2113.51390046047, -2115.0785225723416, -2111.3457812483052, -2106.517804445959, -2107.4342259686264, -2113.1786242936405, -2115.7490749060007, -2111.5245952039477, -2106.7189701460566, -2108.194185280107, -2114.1621010496738, -2116.6878481731237, -2110.831691125833, -2109.0435515694085, -2111.3234295038496, -2114.6314876832353, -2115.8384818838217, -2112.2622027709726, -2107.925964346643, -2109.200013780596, -2113.066865571364, -2114.363266749772, -2111.144615548207, -2107.769502135456, -2109.1106068027743, -2113.8491766272996, -2113.8938801162103, -2110.094083558808, -2108.216537024562, -2109.870566114255, -2112.9327551046317, -2112.508071959981, -2111.032856825931, -2110.742284148012, -2109.781159136434, -2112.485720215526, -2112.709237660079, -2110.809339381378, -2107.903612602188, -2107.7918538799113, -2111.6140021817687, -2112.8880516157215, -2109.289420758417, -2105.154348034185, -2107.210708524073, -2110.384656236727, -2110.9210981036545, -2109.3788277362382, -2105.288458500917, -2107.523632946448, -2110.0717318143525, -2112.150444048696, -2110.9210981036545, -2105.1766997786403, -2107.1436532907073, -2113.357438249283, -2115.2349847835285, -2110.898746359199, -2105.221403267551, -2105.7801968789336, -2111.9269266041433, -2113.9385836051206, -2110.541118447914, -2107.0989498017966, -2106.7860253794224, -2112.709237660079, -2116.1961097951066, -2112.485720215526, -2106.9424875906097, -2107.3001155018947, -2110.541118447914, -2112.1727957931516, -2108.9094411026767, -2106.7413218905117, -2108.149481791196, -2111.5692986928584, -2112.999810337998, -2110.161138792174, -2106.294287001406, -2106.4954527015034, -2110.22819402554, -2110.831691125833, -2107.3001155018947, -2104.4390922116154, -2104.550850933892, -2108.350647491294, -2108.5965166803026, -2106.4731009570482, -2105.1990515230955, -2105.646086412202, -2108.4624062135704, -2110.3623044922715, -2105.8472521122994, -2103.343856733305, -2104.8190718673554, -2109.13295854723, -2112.508071959981, -2109.3117725028724, -2105.7801968789336, -2107.8142056243664, -2111.256374270484, -2112.7539411489893, -2110.764635892467, -2105.89195560121, -2105.3331619898277, -2109.0659033138636, -2111.748112648501, -2108.7082754025787, -2103.768539877956, -2107.6577434131796, -2113.111569060274, -2114.5197289609587, -2109.9823248365315, -2105.8472521122994, -2106.7413218905117, -2111.8151678818667, -2114.8550051277884, -2111.055208570386, -2107.836557368822, -2108.283592257928, -2113.6256591827464, -2114.832653383333, -2111.770464392956, -2108.931792847132, -2108.9988480804977, -2112.9104033601766, -2115.637316183724, -2111.144615548207, -2108.4624062135704, -2109.244717269506, -2112.061037070875, -2115.5479092059027, -2113.022162082453, -2109.0435515694085, -2109.490586458515, -2114.340915005316, -2116.866662128766, -2113.8268248828444, -2107.9483160910986, -2107.3671707352605, -2112.1951475376068, -2115.0785225723416, -2114.2962115164055, -2109.6694004141573, -2108.3953509802045, -2112.508071959981, -2115.391446994716, -2112.6645341711683, -2107.478929457537, -2107.478929457537, -2112.8209963823556, -2114.8773568722436, -2110.027028325442, -2106.7413218905117, -2107.769502135456, -2112.1057405597858, -2114.5197289609587, -2112.217499282062, -2109.3788277362382, -2109.088255058319, -2112.9551068490873, -2114.2291562830396, -2111.8151678818667, -2107.0095428239756, -2106.249583512495, -2112.1727957931516, -2114.8550051277884, -2110.6975806591013, -2104.8414236118106, -2106.5625079348692, -2110.183490536629, -2112.441016726615, -2109.6917521586124, -2106.540156190414, -2106.294287001406, -2110.138787047719, -2112.7539411489893, -2108.6859236581236, -2104.5061474449813, -2104.7743683784447, -2109.289420758417, -2111.144615548207, -2108.261240513473, -2104.8414236118106, -2104.8414236118106, -2110.094083558808, -2112.9327551046317, -2109.736455647523, -2105.4002172231935, -2105.0872928008193, -2109.2670690139616, -2111.6587056706794, -2108.931792847132, -2106.9424875906097, -2107.7918538799113, -2112.0386853264195, -2113.960935349576, -2110.5858219368247, -2106.897784101699, -2106.6966184016014, -2111.993981837509, -2114.8550051277884, -2110.22819402554, -2108.0824265578303, -2109.200013780596, -2113.2009760380956, -2114.5420807054143, -2111.144615548207, -2108.283592257928, -2108.194185280107, -2112.5974789378024, -2115.391446994716, -2112.776292893445, -2108.9094411026767, -2109.9152696031656, -2113.066865571364, -2114.2291562830396, -2114.2962115164055, -2109.3788277362382, -2109.0435515694085, -2113.424493482649, -2113.759769649478, -2111.546946948403, -2107.903612602188, -2107.613039924269, -2111.770464392956, -2113.111569060274, -2111.0105050814755, -2107.545984690903, -2106.4731009570482, -2110.742284148012, -2113.066865571364, -2109.803510880889, -2107.3448189908054, -2107.635391668724, -2112.061037070875, -2114.8550051277884, -2110.831691125833, -2108.3953509802045, -2108.775330635945, -2112.061037070875, -2115.8384818838217, -2112.6868859156234, -2108.7529788914894, -2107.255412012984, -2111.2787260149394, -2112.7986446379, -2110.2058422810846, -2105.668438156657, -2105.4449207121042, -2109.9599730920763, -2113.446845227104, -2112.0386853264195, -2106.0707695568526, -2105.7578451344784, -2111.748112648501, -2112.6645341711683, -2109.13295854723, -2105.668438156657, -2104.41674046716, -2108.8200341248553, -2112.5974789378024, -2110.094083558808, -2106.7860253794224, -2106.4731009570482, -2110.0493800698973, -2112.3292580043385, -2112.08338881533, -2107.1436532907073, -2106.450749212593, -2110.094083558808, -2112.8433481268107, -2110.116435303263, -2106.6966184016014, -2107.0989498017966, -2108.9988480804977, -2113.2009760380956, -2112.0386853264195, -2107.0542463128863, -2106.5625079348692, -2111.144615548207, -2113.3350865048274, -2112.5304237044365, -2108.641220169213, -2106.22723176804, -2111.032856825931, -2113.066865571364], [-7055.931634417968, -7051.908320416012, -7041.671221455482, -7038.273756298275, -7046.029811624267, -7055.35048906213, -7051.796561693735, -7039.503102243317, -7037.87142489808, -7047.3262128026745, -7055.462247784406, -7050.991898893345, -7040.2854132992525, -7038.385515020552, -7047.773247691781, -7055.73046871787, -7051.237768082353, -7039.838378410146, -7038.765494676291, -7046.29803255773, -7054.523474517283, -7050.790733193247, -7040.1065993436105, -7039.1678260764875, -7047.3262128026745, -7055.082268128666, -7051.796561693735, -7041.403000522018, -7038.720791187381, -7047.840302925147, -7056.11044837361, -7052.735334960858, -7042.744105189337, -7039.950137132423, -7048.890834914546, -7056.3116140737075, -7053.472942527884, -7041.961794133401, -7038.497273742828, -7047.460323269406, -7056.043393140244, -7051.148361104532, -7039.592509221138, -7036.932651630957, -7045.672183712982, -7054.881102428568, -7052.802390194224, -7041.939442388945, -7038.653735954015, -7048.041468625244, -7056.401021051529, -7052.4894657718505, -7042.006497622311, -7039.391343521041, -7048.332041303163, -7056.021041395788, -7051.885968671557, -7040.710096443903, -7037.357334775607, -7046.879177913568, -7054.791695450747, -7050.053125626222, -7039.190177820943, -7035.5244917302725, -7044.778113934769, -7054.389364050551, -7050.63427098206, -7038.810198165203, -7036.3515062751185, -7045.068686612688, -7053.562349505705, -7050.790733193247, -7039.4583987544065, -7037.647907453526, -7046.052163368722, -7053.9646809059, -7051.148361104532, -7039.816026665691, -7036.418561508484, -7044.018154623289, -7053.1376663610545, -7050.388401793051, -7038.899605143024, -7036.195044063931, -7045.515721501794, -7053.294128572242, -7048.980241892367, -7038.363163276096, -7036.217395808387, -7045.426314523973, -7053.4282390389735, -7050.768381448792, -7038.921956887479, -7035.636250452549, -7044.264023812298, -7053.271776827786, -7050.008422137311, -7040.061895854699, -7037.402038264518, -7046.767419191292, -7054.5458262617385, -7050.880140171068, -7040.352468532618, -7037.20087256442, -7046.409791280007, -7055.238730339853, -7052.645927983038, -7041.0453726107335, -7036.843244653135, -7044.979279634867, -7053.875273928079, -7050.835436682158, -7040.3971720215295, -7036.552671975216, -7046.186273835454, -7054.836398939658, -7051.327175060174, -7040.374820277074, -7037.2902795422415, -7045.7392389463475, -7054.63523323956, -7051.617747738093, -7040.374820277074, -7036.932651630957, -7044.241672067842, -7054.3670123060965, -7052.847093683135, -7041.872387155579, -7037.558500475705, -7045.225148823875, -7054.3670123060965, -7051.483637271362, -7040.352468532618, -7037.603203964616, -7045.694535457437, -7055.1940268509425, -7053.987032650356, -7040.5759859771715, -7036.262099297297, -7044.688706956948, -7053.361183805608, -7049.941366903945, -7038.989012120845, -7035.971526619378, -7044.353430790118, -7053.830570439169, -7050.164884348498, -7039.570157476683, -7036.955003375412, -7045.135741846054, -7053.785866950258, -7051.103657615621, -7040.732448188359, -7036.709134186403, -7044.2193203233865, -7053.249425083331, -7050.723677959881, -7040.44187551044, -7036.977355119867, -7045.158093590509, -7054.121143117088, -7051.170712848987, -7040.330116788164, -7035.457436496907, -7044.375782534574, -7053.271776827786, -7050.723677959881, -7041.291241799741, -7037.402038264518, -7045.7392389463475, -7054.63523323956, -7052.243596582842, -7040.330116788164, -7037.893776642535, -7045.471018012884, -7054.188198350454, -7051.081305871166, -7040.48657899935, -7035.368029519085, -7043.906395901013, -7053.472942527884, -7051.237768082353, -7041.15713133301, -7037.692610942437, -7046.230977324364, -7055.1940268509425, -7053.20472159442, -7042.475884255873, -7036.887948142046, -7044.196968578932, -7053.718811716893, -7052.221244838387, -7041.291241799741, -7037.670259197982, -7045.873349413079, -7055.059916384211, -7052.78003844977, -7042.386477278052, -7037.714962686892, -7045.91805290199, -7054.814047195202, -7053.048259383233, -7041.850035411124, -7036.887948142046, -7046.230977324364, -7054.63523323956, -7051.617747738093, -7041.5147592442945, -7037.133817331054, -7044.353430790118, -7054.031736139266, -7053.361183805608, -7042.073552855677, -7036.977355119867, -7044.129913345566, -7053.651756483527, -7050.723677959881, -7040.240709810342, -7036.284451041753, -7042.677049955971, -7053.338832061152, -7052.467114027395, -7042.319422044686, -7037.849073153624, -7045.493369757339, -7054.523474517283, -7051.640099482549, -7040.553634232716, -7036.038581852745, -7044.286375556752, -7053.6070529946155, -7052.131837860566, -7041.112427844099, -7036.083285341655, -7044.0405063677445, -7053.517646016794, -7051.997727393834, -7041.268890055286, -7036.686782441948, -7044.10756160111, -7053.361183805608, -7052.400058794029, -7041.559462733205, -7035.636250452549, -7042.833512167158, -7053.160018105509, -7052.288300071753, -7041.067724355188, -7035.68095394146, -7043.504064500817, -7054.2552535838195, -7054.0764396281775, -7041.492407499839, -7035.2339190523535, -7041.58181447766, -7052.914148916501, -7051.483637271362, -7041.403000522018, -7036.575023719672, -7043.3923057785405, -7053.495294272339, -7054.054087883722, -7043.593471478638, -7038.050238853722, -7046.8568261691125, -7055.864579184602, -7055.082268128666, -7045.7392389463475, -7039.816026665691, -7046.990936635845, -7057.429201296473, -7055.819875695691, -7044.44283776794, -7037.826721409169, -7044.8004656792245, -7054.612881495104, -7053.070611127689, -7043.347602289629, -7039.279584798764, -7046.521550002283, -7041.53711098875, -7047.661488969504, -7058.323271074685, -7059.217340852898, -7048.600262236627, -7043.168788333987, -7048.667317469993, -7058.4797332858725, -7060.737259475859, -7050.701326215426, -7043.0123261228, -7048.332041303163, -7059.35145131963, -7061.072535642688, -7050.567215748694, -7044.755762190314, -7049.963718648401, -7059.574968764183, -7060.781962964769, -7050.991898893345, -7043.3923057785405, -7048.935538403456, -7059.329099575174, -7059.8878931865565, -7051.5506925047275, -7043.414657522996, -7047.974413391878, -7058.725602474881, -7060.200817608931, -7050.6119192376045, -7043.68287845646, -7049.248462825831, -7059.4185065529955, -7060.960776920411, -7051.0142506378, -7043.526416245272, -7049.002593636822, -7058.949119919434, -7060.49139028685, -7051.282471571264, -7043.906395901013, -7048.510855258805, -7060.6478524980375, -7062.167771120999, -7051.908320416012, -7043.861692412102, -7049.2037593369205, -7061.4748670428835, -7062.435992054462, -7051.774209949281, -7044.956927890412, -7050.947195404434, -7060.737259475859, -7061.519570531795, -7053.249425083331, -7046.901529658024, -7051.282471571264, -7061.363108320607, -7066.816933967702, -7061.072535642688, -7057.675070485481, -7067.353375834629, -7083.692501031459, -7091.001521468344, -7086.397062110551, -7083.558390564727, -7093.370806380607, -7107.385350154084, -7111.721588578414, -7104.591382097171, -7097.505879104839, -7103.965533252423, -7116.214289213931, -7118.605925870648, -7111.140443222576, -7103.876126274601, -7108.525289121305, -7119.321181693218, -7122.31631545023, -7113.375617668107, -7105.932486764489, -7110.447539144461, -7122.025742772311, -7123.433902672995, -7115.499033391361, -7108.4358821434835, -7111.185146711487, -7123.07627476171, -7125.669077118526, -7116.616620614126, -7108.83821354368, -7113.196803712464, -7124.3950276845735, -7125.959649796445, -7116.7060275919475, -7108.614696099126, -7112.258030445341, -7123.277440461808, -7126.227870729908, -7117.8236148147125, -7108.011198998833, -7112.146271723065, -7123.1656817395315, -7126.205518985453, -7116.102530491654, -7108.793510054768, -7113.666190346025, -7124.707952106947, -7127.233699230397, -7116.862489803135, -7108.793510054768, -7113.375617668107, -7123.992696284377, -7125.445559673973, -7116.4154549140285, -7109.106434477143, -7113.621486857115, -7123.4562544174505, -7126.697257363469, -7118.985905526389, -7109.620524599615, -7114.001466512856, -7124.3950276845735, -7126.116112007632, -7117.175414225509, -7110.156966466542, -7114.314390935229, -7125.2220422294195, -7127.501920163861, -7117.622449114615, -7108.927620521501, -7113.129748479098, -7123.970344539923, -7127.367809697129, -7117.22011771442, -7107.988847254378, -7113.286210690286, -7124.819710829224, -7128.418341686528, -7119.4105886710395, -7108.748806565858, -7112.213326956431, -7122.964516039434, -7126.160815496542, -7118.382408426096, -7109.061730988233, -7111.967457767422, -7123.366847439629, -7126.831367830202, -7117.711856092436, -7109.709931577437, -7114.202632212953, -7125.244393973875, -7128.552452153261, -7119.5223473933165, -7110.469890888917, -7113.129748479098, -7124.640896873581, -7129.513577164838, -7119.857623560146, -7110.335780422185, -7112.079216489699, -7123.702123606458, -7127.658382375048, -7118.807091570747, -7109.4864141328835, -7111.565126367227, -7122.808053828247, -7126.071408518721, -7118.4718154039165, -7108.4358821434835, -7112.0121612563335, -7124.216213728931, -7126.473739918917, -7116.102530491654, -7107.273591431808, -7111.185146711487, -7123.0315712728, -7126.876071319112, -7116.907193292045, -7107.385350154084, -7111.140443222576, -7121.623411372115, -7125.087931762688, -7116.817786314224, -7107.3182949207185, -7111.229850200397, -7122.31631545023, -7126.227870729908, -7117.734207836892, -7108.681751332492, -7111.766292067325, -7121.5787078832045, -7125.289097462785, -7118.181242725997, -7108.704103076948, -7111.028684500299, -7122.606888128149, -7126.607850385649, -7116.974248525411, -7107.161832709531, -7111.140443222576, -7121.9810392834, -7126.540795152283, -7117.063655503232, -7108.100605976654, -7111.028684500299, -7121.802225327758, -7126.540795152283, -7117.443635158973, -7107.340646665174, -7110.246373444364, -7123.433902672995, -7127.3901614415845, -7117.8236148147125, -7108.324123421207, -7111.721588578414, -7121.534004394294, -7124.752655595858, -7116.124882236109, -7105.373693153107, -7109.553469366249, -7120.416417171528, -7124.216213728931, -7116.326047936207, -7106.759501309336, -7109.464062388428, -7120.081141004699, -7123.612716628638, -7115.633143858093, -7106.3795216535955, -7108.771158310314, -7120.014085771333, -7124.037399773289, -7115.253164202352, -7106.267762931319, -7108.83821354368, -7119.343533437674, -7123.322143950719, -7116.214289213931, -7107.675922832003, -7109.061730988233, -7118.628277615104, -7123.3444956951735, -7116.840138058679, -7106.938315264978, -7109.039379243777, -7120.371713682618, -7125.199690484964, -7116.370751425118, -7107.474757131906, -7110.089911233176, -7121.109321249643, -7125.154986996054, -7116.750731080858, -7107.094777476165, -7108.905268777045, -7119.969382282422, -7124.126806751109, -7116.147233980565, -7106.6700943315145, -7109.173489710509, -7119.276478204308, -7124.685600362493, -7116.616620614126, -7107.295943176263, -7108.391178654573, -7118.114187492632, -7123.612716628638, -7114.381446168595, -7105.038416986277, -7107.564164109727, -7118.69533284847, -7123.74682709537, -7116.482510147394, -7106.223059442408, -7107.765329809825, -7118.382408426096, -7123.299792206263, -7115.208460713442, -7106.424225142507, -7110.224021699909, -7118.494167148372, -7123.299792206263, -7116.929545036501, -7107.273591431808, -7109.21819319942, -7119.008257270844, -7123.4562544174505, -7114.962591524433, -7106.111300720132, -7105.753672808847, -7112.079216489699, -7113.845004301668, -7099.271666916808, -7082.597265553149, -7074.461230571417, -7074.595341038149, -7069.92382644699, -7055.775172206781, -7039.503102243317, -7037.804369664714, -7047.817951180691, -7053.227073338875, -7047.437971524951, -7039.324288287675, -7042.96762263389, -7056.557483262716, -7062.503047287828, -7055.551654762227, -7047.683840713959, -7049.360221548107, -7060.44668679794, -7066.772230478791, -7059.39615480854, -7050.388401793051, -7051.617747738093, -7062.748916476837, -7069.566198535705, -7061.407811809518, -7051.774209949281, -7052.6682797274925, -7064.000614166333, -7069.141515391054, -7061.608977509615, -7053.3164803166965, -7054.344660561641, -7064.022965910789, -7067.956872934923, -7060.938425175957, -7050.902491915524, -7052.757686705314, -7063.687689743959, -7070.527323547283, -7063.106544388122, -7053.361183805608, -7055.685765228959, -7065.58758802266, -7071.622559025594, -7064.648814755537, -7054.411715795007, -7055.641061740049, -7066.146381634043, -7070.996710180844, -7064.514704288806, -7054.3670123060965, -7055.126971617577, -7066.30284384523, -7071.689614258959, -7063.240654854853, -7053.852922183624, -7053.405887294518, -7063.553579277227, -7069.499143302339, -7062.905378688023, -7053.651756483527, -7054.411715795007, -7062.927730432479, -7067.599245023638, -7060.6478524980375, -7047.952061647423, -7048.309689558708, -7057.943291418946, -7063.73239323287, -7056.3116140737075, -7046.521550002283, -7047.415619780496, -7057.585663507661, -7064.134724633065, -7058.457381541417, -7047.885006414057, -7048.689669214448, -7059.217340852898, -7065.632291511571, -7058.546788519238, -7048.644965725537, -7048.242634325342, -7057.496256529839, -7064.626463011082, -7058.725602474881, -7049.53903550375, -7048.846131425636, -7058.904416430523, -7064.738221733359, -7057.608015252115, -7047.862654669601, -7047.0132883803, -7057.138628618554, -7063.978262421878, -7057.496256529839, -7047.34856454713, -7047.773247691781, -7057.2503873408305, -7063.933558932968, -7057.608015252115, -7047.3262128026745, -7048.5555587477165, -7058.390326308051, -7063.084192643666, -7056.579835007172, -7048.197930836432, -7048.332041303163, -7056.736297218358, -7063.911207188512, -7059.083230386166, -7048.041468625244, -7048.421448280985, -7058.233864096865, -7064.179428121976, -7057.697422229937, -7047.840302925147, -7046.767419191292, -7057.652718741027, -7064.425297310984, -7057.943291418946, -7047.147398847032, -7046.745067446836, -7056.579835007172, -7063.754744977325, -7057.3621460631075, -7046.990936635845, -7047.594433736138, -7056.199855351431, -7064.5817595221715, -7059.8878931865565, -7047.259157569309, -7046.29803255773, -7056.3116140737075, -7063.195951365942, -7057.116276874099, -7046.812122680202, -7046.432143024462, -7057.987994907856, -7064.5817595221715, -7056.982166407367, -7046.812122680202, -7047.996765136334, -7057.87623618558, -7064.134724633065, -7059.306747830719, -7047.7955994362355, -7045.761590690803, -7056.266910584797, -7063.799448466236, -7057.697422229937, -7047.661488969504, -7045.7392389463475, -7055.931634417968, -7063.799448466236, -7058.815009452702, -7048.376744792074, -7047.125047102577, -7058.0103466523115, -7064.626463011082, -7058.256215841319, -7049.047297125733, -7047.885006414057, -7057.2503873408305, -7063.911207188512, -7060.49139028685, -7049.941366903945, -7047.34856454713, -7057.339794318652, -7064.514704288806, -7059.262044341808, -7048.77907619227, -7048.4438000254395, -7058.4797332858725, -7065.185256622464, -7059.7090792309145]]
[[-2016.3955708021608, -2061.4343358796045, -2098.8958595866993, -2062.7307370580124, -2016.060294635331, -2015.8814806796886, -2060.6296730792133, -2098.5605834198695, -2057.969815489032, -2015.0544661348424, -2016.4626260355267, -2057.9474637445765, -2097.7559206194783, -2057.9474637445765, -2015.4567975350378, -2013.3780853006942, -2053.857094509255, -2096.7277403745343, -2054.482943354004, -2012.9086986671327, -2013.6686579786133, -2051.9571962305545, -2098.024141552942, -2054.505295098459, -2013.6910097230686, -2013.3110300673284, -2048.4479723510713, -2096.2360019965176, -2052.3148241418394, -2012.9086986671327, -2013.5345475118813, -2046.3692601167274, -2093.553792661881, -2048.246806650973, -2011.9252219110992, -2011.9475736555546, -2043.2623676374399, -2093.9114205731657, -2049.319690384828, -2013.4898440229708, -2014.2498033344514, -2041.0495449363643, -2091.7880048499114, -2048.291510139884, -2013.6686579786133, -2013.44514053406, -2039.417867591127, -2090.6927693716016, -2044.3128996268392, -2012.2157945890183, -2012.8192916893115, -2038.8590739797444, -2090.5363071604143, -2044.8269897493112, -2012.5287190113927, -2011.2993730663507, -2035.6851262670907, -2088.547001903892, -2044.6481757936688, -2012.5734225003032, -2014.0486376343536, -2037.674431523613, -2089.1504990041853, -2043.2176641485291, -2014.3168585678172, -2015.4120940461273, -2036.0427541783756, -2088.5246501594365, -2042.54711181487, -2012.8639951782222, -2014.3615620567277, -2035.3945535891717, -2088.681112370624, -2043.999975204465, -2016.3285155687947, -2017.5578615138368, -2033.3605448437388, -2086.1777169916295, -2042.9717949595208, -2014.1827481010853, -2014.2721550789065, -2032.5782337878031, -2086.4012344361827, -2042.0106699479427, -2014.9650591570212, -2015.4567975350378, -2031.5724052873143, -2082.9590657900653, -2039.3955158466717, -2015.4120940461273, -2014.8756521792, -2028.8901959526775, -2083.3166937013502, -2039.2837571243952, -2014.093341123264, -2015.4344457905825, -2028.1078848967416, -2081.483850656015, -2036.2662716229288, -2011.8805184221887, -2013.7133614675238, -2027.5043877964483, -2079.539248888403, -2037.9426524570767, -2014.6297829901914, -2015.032114390387, -2027.7949604743674, -2079.3604349327607, -2036.713306512035, -2014.4733207790043, -2015.9932394019652, -2026.9455941850656, -2080.2992081998837, -2038.5014460684595, -2014.383913801183, -2014.9874109014763, -2024.3751435727054, -2074.5101063859593, -2036.6686030231242, -2015.546204512859, -2015.680314979591, -2025.8503587067555, -2077.572295376336, -2037.0485826788645, -2015.2109283460295, -2016.4402742910713, -2023.4363703055824, -2073.2137052075514, -2035.7298297560014, -2013.5121957674262, -2015.1662248571188, -2022.4305418050938, -2071.64908309568, -2034.4334285775935, -2014.898003923655, -2015.2332800904849, -2021.2682510934176, -2070.7550133174677, -2034.388725088683, -2013.6016027452474, -2014.4733207790043, -2019.837739448278, -2068.9445220165876, -2032.7346959989902, -2012.4393120335715, -2014.3168585678172, -2020.9776784154988, -2069.12333597223, -2034.254614621951, -2015.6579632351356, -2017.8260824473005, -2022.7881697163787, -2067.4022516491714, -2032.9805651879985, -2016.1273498686971, -2018.0495998918534, -2021.7152859825237, -2066.2399609374957, -2033.4946553104705, -2014.7638934569234, -2015.8144254463227, -2019.614222003725, -2063.870676025233, -2031.9747366875097, -2014.3615620567277, -2015.613259746225, -2018.518986525415, -2062.954254502565, -2033.2264343770069, -2013.9145271676216, -2016.0155911464205, -2018.675448736602, -2061.1661149461406, -2032.9135099546327, -2013.802768445345, -2014.4733207790043, -2017.7813789583897, -2060.339100401294, -2031.7512192429567, -2014.6521347346468, -2015.836777190778, -2017.7813789583897, -2058.5733125893253, -2030.387762831183, -2013.132216111686, -2014.7862452013787, -2016.7308469689904, -2056.8969317551773, -2029.44898956406, -2013.44514053406, -2015.1438731126636, -2016.3955708021608, -2057.07574571082, -2029.0019546749538, -2012.1710911001078, -2014.6968382235575, -2015.7697219574122, -2053.2759491534175, -2028.8901959526775, -2013.646306234158, -2015.5238527684037, -2014.0709893788087, -2052.493638097482, -2028.5102162969372, -2013.7357132119791, -2014.9203556681105, -2015.7250184685015, -2053.4994665979702, -2031.1477221426635, -2013.5345475118813, -2015.680314979591, -2015.6579632351356, -2051.0854781967973, -2028.644326763669, -2012.5734225003032, -2016.0155911464205, -2017.2672888359177, -2051.130181685708, -2029.516044797426, -2013.0428091338647, -2014.898003923655, -2014.0486376343536, -2050.0349462073978, -2028.7337337414901, -2011.8581666777334, -2013.44514053406, -2012.8639951782222, -2047.7103647840459, -2028.35375408575, -2011.5899457442697, -2014.6521347346468, -2035.3945535891717, -2012.9757539004988, -2014.5403760123702, -2012.7969399448564, -2035.0816291667975, -2035.774533244912, -2010.1370823546747, -2014.16039635663, -2012.2381463334737, -2034.9922221889763, -2038.5237978129148, -2011.4111317886272, -2013.7580649564345, -2012.5287190113927, -2034.4781320665043, -2036.6015477897583, -2010.2711928214067, -2013.2439748339625, -2012.0816841222866, -2035.3274983558058, -2036.288623367384, -2009.868861421211, -2010.7405794549682, -2008.7289224539904, -2033.2711378659176, -2038.2779286239063, -2010.8523381772445, -2015.389742301672, -2013.1098643672306, -2035.551015800359, -2038.8590739797444, -2010.226489332496, -2011.679352722091, -2011.902870166644, -2034.5004838109594, -2033.6958210105684, -2000.838756661267, -1998.648285704647, -1991.003989100932, -2010.1147306102193, -2006.15847184163, -1969.5463144238372, -1963.9807300544658, -1955.1070875057087, -1979.2693232618958, -1980.9457040960438, -1939.4161628980833, -1934.2305581844519, -1927.7709040368682, -1954.5035904054155, -1955.5764741392702, -1915.7680172643684, -1916.4162178535723, -1914.4716160859605, -1947.976881024466, -1952.8048578268122, -1914.002229452399, -1916.1927004090192, -1914.5163195748712, -1946.2557967014072, -1953.229540971463, -1915.1868719085303, -1916.3044591312957, -1916.9750114649548, -1950.2344072144517, -1956.2693782173847, -1917.3773428651505, -1919.3666481216728, -1917.422046354061, -1945.4734856454713, -1956.0235090283763, -1916.5950318092148, -1918.0925986877203, -1918.2490608989074, -1946.5463693793263, -1954.682404361058, -1918.1149504321756, -1919.1207789326645, -1913.9798777079438, -1939.840846042734, -1947.7086600910022, -1906.939078204522, -1901.105272901687, -1896.8360897107232, -1928.3073459037955, -1937.3821541526502, -1898.7583397338797, -1900.0100374233768, -1898.646581011603, -1928.1508836926084, -1939.0585349867983, -1898.6689327560584, -1900.0323891678322, -1899.6971130010027, -1927.323869147762, -1939.1479419646196, -1898.847746711701, -1900.4123688235725, -1900.4123688235725, -1926.362744136184, -1938.7903140533347, -1901.8875839576226, -1902.0440461688097, -1899.3841885786283, -1924.2840319018403, -1937.4715611304714, -1900.6582380125808, -1902.4016740800946, -1900.6582380125808, -1925.9827644804436, -1937.2480436859184, -1898.6018775226926, -1898.9371536895221, -1898.0877874002203, -1925.2228051689633, -1937.6280233416587, -1899.4512438119941, -1899.652409512092, -1897.5960490222037, -1925.0216394688655, -1937.4715611304714, -1898.7583397338797, -1898.4677670559606, -1898.2442496114077, -1924.194624924019, -1939.1032384757088, -1900.971162434955, -1901.552307790793, -1900.2782583568405, -1923.5911278237259, -1939.036183242343, -1899.13831938962, -1899.8312234677344, -1900.2112031234747, -1924.0158109683766, -1938.5667966087815, -1898.6242292671477, -1899.4959473009048, -1898.6242292671477, -1923.747590034913, -1938.3209274197732, -1899.1606711340753, -1901.6864182575248, -1900.0100374233768, -1923.2558516568963, -1938.455037886505, -1899.6747612565473, -1900.8817554571337, -1899.7194647454578, -1922.1829679230414, -1937.6503750861139, -1900.23355486793, -1900.7029415014913, -1899.6747612565473, -1921.7359330339352, -1937.9185960195775, -1899.8759269566451, -1901.6417147686143, -1901.0605694127762, -1923.1440929346197, -1939.840846042734, -1900.5017758013937, -1901.0605694127762, -1901.5970112797036, -1924.5299010908486, -1939.8631977871894, -1900.9264589460445, -1901.7981769798014, -1901.038217668321, -1923.680534801547, -1940.0643634872872, -1901.4852525574272, -1903.5416130473154, -1903.4522060694942, -1921.6241743116589, -1939.7290873204574, -1900.1217961456534, -1901.619363024159, -1899.361836834173, -1919.5454620773153, -1940.5561018653038, -1900.591182779215, -1900.7029415014913, -1900.7029415014913, -1920.9536219779995, -1940.354936165206, -1899.5630025342707, -1901.1499763905974, -1899.6971130010027, -1919.2772411438516, -1939.3491076647174, -1901.4405490685165, -1902.1781566355417, -1902.1558048910863, -1920.5512905778041, -1940.7572675654017, -1902.7593019913797, -1901.619363024159, -1900.3676653346618, -1919.746627777413, -1938.9020727756113, -1899.7418164899132, -1899.8312234677344, -1899.4959473009048, -1917.8020260098012, -1939.9526047650106, -1900.8370519682232, -1900.3900170791171, -1901.5746595352484, -1918.2714126433627, -1937.71743031948, -1898.7583397338797, -1899.4959473009048, -1898.713636244969, -1916.0809416867426, -1939.0585349867983, -1899.4959473009048, -1899.3171333452624, -1898.713636244969, -1916.9750114649548, -1940.3772879096614, -1900.5017758013937, -1902.6028397801924, -1899.942982190011, -1916.8856044871336, -1938.455037886505, -1899.8759269566451, -1899.5182990453602, -1898.8253949672455, -1913.8010637523014, -1937.3150989192843, -1898.8700984561563, -1899.13831938962, -1898.9371536895221, -1914.1586916635863, -1939.4608663869938, -1901.395845579606, -1900.5464792903042, -1899.7641682343685, -1914.7845405083349, -1940.0643634872872, -1901.9322874465333, -1901.5970112797036, -1899.2053746229858, -1915.7233137754577, -1938.5891483532369, -1901.552307790793, -1900.2559066123852, -1899.428892067539, -1914.3375056192288, -1941.159598965597, -1902.1781566355417, -1900.8147002237679, -1900.9488106904998, -1914.0916364302202, -1940.2655291873848, -1901.5076043018823, -1900.9488106904998, -1901.1723281350528, -1914.7845405083349, -1939.1032384757088, -1901.5746595352484, -1901.2170316239635, -1900.9935141794103, -1914.2257468969522, -1938.0527064863095, -1898.2889531003182, -1901.8875839576226, -1907.0955404157091, -1925.0886947022314, -1956.2023229840188, -1928.106180203698, -1935.7057733185022, -1944.9146920340888, -1963.7572126099126, -1993.485032735471, -1975.2013057710299, -1982.2421052744514, -1989.9758088559877, -2001.8445851617557, -2024.3304400837947, -2006.7172654530127, -2008.0583701203311, -2007.0525416198425, -2011.321724810806, -2029.091361652775, -2004.0574078628313, -2005.3314572967838, -2007.1195968532083, -2012.7075329670351, -2031.9076814541438, -2006.7619689419234, -2008.2148323315184, -2007.387817786672, -2013.1992713450518, -2034.031097177398, -2007.4101695311274, -2009.4665300210156, -2008.8853846651775, -2015.0097626459317, -2037.3615071012387, -2009.3324195542837, -2008.9300881540883, -2008.4383497760714, -2015.2779835793954, -2036.869768723222, -2009.1536055986412, -2009.354771298739, -2007.901907909144, -2013.44514053406, -2035.4616088225378, -2008.4607015205268, -2008.3042393093397, -2007.231355575485, -2016.6414399911691, -2040.803675747356, -2011.3887800441719, -2010.4053032881384, -2009.0194951319095, -2016.6190882467138, -2041.675393781113, -2011.0535038773423, -2008.4607015205268, -2009.220660832007, -2017.870785936211, -2044.6705275381241, -2014.4733207790043, -2012.618125989214, -2011.7911114443675, -2017.8931376806663, -2044.1117339267414, -2013.936878912077, -2011.5899457442697, -2011.0535038773423, -2016.5073295244372, -2043.6423472931801, -2013.7804167008899, -2012.5957742447586, -2012.126387611197, -2018.004896402943, -2044.6705275381241, -2013.3557335562389, -2011.1876143440743, -2011.5675939998143, -2020.128312126197, -2048.1350479286966, -2014.5627277568256, -2012.8416434337669, -2013.6910097230686, -2018.3848760586832, -2045.4304868496047, -2013.7580649564345, -2010.517062010415, -2010.964096899521, -2019.100131881253, -2048.02328920642, -2012.260498077929, -2010.4053032881384, -2011.031152132887, -2016.7531987134457, -2046.972757217021, -2013.1992713450518, -2011.1205591107082, -2011.0088003884318, -2018.6307452476915, -2049.8561322517553, -2014.0486376343536, -2012.126387611197, -2012.4616637780266, -2018.5636900143256, -2047.6880130395907, -2012.998105644954, -2011.0088003884318, -2011.478187021993, -2018.451931292049, -2050.8843124966997, -2015.5015010239485, -2011.8805184221887, -2013.4898440229708, -2016.7755504579009, -2046.1233909277191, -2010.4053032881384, -2008.550108498348, -2009.5112335099261, -2015.7473702129569, -2048.0903444397863, -2010.8523381772445, -2008.4607015205268, -2008.4830532649821, -2013.8474719342557, -2047.9115304841437, -2013.869823678711, -2008.6395154761692, -2008.6842189650797, -2014.9874109014763, -2048.3362136287947, -2013.936878912077, -2008.2371840759736, -2008.192480587063, -2014.2945068233619, -2047.8891787396883, -2012.5734225003032, -2007.7230939535016, -2008.840681176267, -2014.6074312457363, -2046.5704258168253, -2012.8639951782222, -2007.387817786672, -2008.706570709535, -2014.2721550789065, -2045.7881147608896, -2011.3664282997167, -2007.9913148869653, -2008.9971433874541, -2013.8251201898004, -2045.318728127328, -2012.3946085446607, -2007.454873020038, -2008.393646287161, -2013.3780853006942, -2047.933882228599, -2013.936878912077, -2008.7959776873563, -2008.7959776873563, -2013.1992713450518, -2046.838646750289, -2013.8474719342557, -2008.3042393093397, -2008.773625942901, -2012.7075329670351, -2046.4139636056382, -2014.0486376343536, -2009.1759573430966, -2008.8853846651775, -2011.5899457442697, -2044.7599345159454, -2012.9086986671327, -2007.097245108753, -2007.4995765089486, -2012.7522364559456, -2044.2011409045626, -2013.3110300673284, -2005.3761607856943, -2006.8290241752893, -2012.7522364559456, -2043.865864737733, -2011.321724810806, -2006.9184311531105, -2010.025323632398, -2012.9757539004988, -2043.1506089151633, -2013.4004370451496, -2007.8125009313228, -2008.415998031616, -2012.1040358667417, -2042.3682978592276, -2012.8639951782222, -2007.745445697957, -2008.3712945427055, -2011.5005387664485, -2042.3235943703169, -2011.8134631888229, -2007.454873020038, -2008.5724602428033, -2010.964096899521, -2042.6588705371466, -2012.7075329670351, -2005.800843930345, -2007.1643003421188, -2008.5948119872585, -2040.580158302803, -2013.3557335562389, -2006.940782897566, -2007.96896314251, -2009.9135649101217, -2040.7589722584455, -2013.8474719342557, -2006.8737276642, -2007.611335231225, -2010.5394137548703, -2041.6530420366578, -2013.9815824009875, -2007.3431142977613, -2008.4383497760714, -2010.5841172437808, -2041.8765594812107, -2013.2439748339625, -2007.3207625533062, -2008.840681176267, -2010.1817858435854, -2039.8425507357779, -2014.3168585678172, -2007.1643003421188, -2008.393646287161, -2010.002971887943, -2039.417867591127, -2013.8921754231662, -2009.0418468763646, -2009.5112335099261, -2010.4723585215045, -2039.5296263134035, -2015.0768178792976, -2008.706570709535, -2010.5617654993257, -2010.8970416661552, -2038.8814257241997, -2014.5403760123702, -2007.7901491868674, -2009.5112335099261, -2010.673524221602, -2038.613204790736, -2014.9874109014763, -2009.6900474655686, -2010.6288207326916, -2010.450006777049, -2035.9980506894651, -2015.322687068306, -2012.9757539004988, -2012.8192916893115], [-7135.593251656682, -7107.765329809825, -7108.324123421207, -7123.858585817646, -7147.46202796245, -7138.118998780132, -7107.1394809650765, -7107.675922832003, -7123.568013139727, -7147.976118084922, -7138.297812735774, -7108.949972265956, -7108.011198998833, -7123.880937562101, -7148.736077396403, -7140.018897058832, -7109.6652280885255, -7108.681751332492, -7124.439731173484, -7149.473684963427, -7141.449408703972, -7110.000504255356, -7109.084082732687, -7125.244393973875, -7150.077182063721, -7143.282251749308, -7111.006332755845, -7108.324123421207, -7125.177338740509, -7149.965423341445, -7143.438713960495, -7110.760463566836, -7107.072425731711, -7123.724475350914, -7149.898368108078, -7143.036382560299, -7110.514594377827, -7105.641914086571, -7125.065580018232, -7151.932376853511, -7144.55630118326, -7112.459196145439, -7107.497108876361, -7124.417379429028, -7151.731211153414, -7145.025687816821, -7111.855699045146, -7108.190012954476, -7126.384332941096, -7151.708859408958, -7146.277385506319, -7113.353265923652, -7107.653571087548, -7126.339629452184, -7151.999432086877, -7145.629184917115, -7113.196803712464, -7106.759501309336, -7126.093760263177, -7152.133542553609, -7145.539777939293, -7113.867356046124, -7107.653571087548, -7124.462082917939, -7149.920719852534, -7146.03151631731, -7115.677847347003, -7108.927620521501, -7125.914946307534, -7152.334708253707, -7147.104400051165, -7114.6496671020595, -7107.362998409629, -7124.327972451208, -7150.568920441738, -7146.009164572855, -7115.7672543248245, -7107.340646665174, -7126.227870729908, -7150.881844864112, -7145.785647128302, -7115.163757224532, -7107.3182949207185, -7125.467911418428, -7153.27348152083, -7149.2278157744195, -7118.427111915006, -7108.592344354671, -7127.211347485942, -7152.044135575788, -7147.12675179562, -7117.22011771442, -7109.21819319942, -7128.552452153261, -7151.306528008763, -7145.65153666157, -7115.5884403691825, -7105.7313210643915, -7125.534966651794, -7147.909062851556, -7143.259900004852, -7114.806129313247, -7105.776024553303, -7125.557318396249, -7149.741905896892, -7145.718591894936, -7117.287172947786, -7108.234716443386, -7126.563146896738, -7149.630147174615, -7144.936280839001, -7116.683675847492, -7106.334818164685, -7126.227870729908, -7149.674850663526, -7144.8245221167235, -7117.711856092436, -7108.212364698931, -7127.837196330691, -7149.920719852534, -7144.221025016431, -7117.331876436696, -7108.212364698931, -7126.496091663372, -7149.786609385802, -7147.1714552845315, -7121.64576311657, -7109.3746554106065, -7125.490263162883, -7149.116057052142, -7145.383315728107, -7119.902327049056, -7108.301771676752, -7127.323106208219, -7150.099533808177, -7146.389144228595, -7122.6962951059695, -7109.776986810803, -7126.719609107925, -7149.339574496696, -7146.053868061766, -7121.623411372115, -7108.949972265956, -7128.440693430984, -7151.485341964405, -7147.216158773442, -7122.986867783889, -7110.291076933275, -7127.725437608414, -7150.188940785997, -7145.338612239196, -7123.143329995076, -7110.73811182238, -7128.395989942073, -7150.501865208372, -7146.053868061766, -7123.947992795467, -7110.671056589014, -7127.3901614415845, -7149.630147174615, -7145.338612239196, -7122.182204983498, -7109.173489710509, -7128.351286453162, -7149.786609385802, -7145.338612239196, -7124.372675940118, -7110.179318210998, -7126.898423063568, -7149.2278157744195, -7146.970289584433, -7124.752655595858, -7111.051036244755, -7129.4465219314725, -7150.792437886291, -7147.394972729084, -7124.9314695515, -7110.559297866738, -7128.239527730886, -7150.36775474164, -7147.707897151458, -7126.205518985453, -7109.93344902199, -7129.714742864936, -7150.904196608567, -7146.545606439782, -7126.227870729908, -7110.894574033568, -7128.373638197618, -7150.613623930648, -7146.322088995229, -7125.467911418428, -7110.447539144461, -7126.898423063568, -7148.356097740662, -7145.830350617212, -7126.250222474364, -7110.447539144461, -7128.463045175439, -7149.808961130258, -7146.478551206416, -7127.144292252576, -7111.118091478121, -7128.530100408805, -7149.808961130258, -7146.947937839978, -7128.485396919894, -7112.034513000788, -7127.6807341195035, -7148.914891352045, -7146.992641328889, -7128.641859131081, -7112.302733934252, -7129.133597509098, -7148.914891352045, -7145.048039561277, -7127.434864930495, -7109.620524599615, -7127.233699230397, -7147.976118084922, -7144.5339494388045, -7127.814844586235, -7110.559297866738, -7127.054885274754, -7148.356097740662, -7145.159798283554, -7127.993658541877, -7110.469890888917, -7126.943126552478, -7148.803132629769, -7145.629184917115, -7124.5738416402155, -7149.674850663526, -7149.65249891907, -7139.862434847646, -7116.080178747199, -7125.087931762688, -7151.261824519852, -7149.563091941249, -7138.633088902604, -7115.543736880271, -7124.953821295956, -7151.373583242129, -7150.233644274908, -7138.856606347157, -7114.69437059097, -7124.327972451208, -7149.6972024079805, -7150.032478574811, -7139.013068558344, -7114.895536291067, -7123.702123606458, -7149.428981474517, -7149.294871007785, -7139.571862169727, -7115.923716536012, -7126.116112007632, -7152.312356509252, -7151.932376853511, -7142.7681616268355, -7118.672981104015, -7126.965478296934, -7152.647632676081, -7152.602929187171, -7144.8245221167235, -7121.019914271822, -7127.054885274754, -7151.641804175592, -7151.440638475495, -7141.494112192883, -7116.460158402939, -7123.433902672995, -7151.306528008763, -7150.188940785997, -7140.8906150925895, -7118.181242725997, -7125.557318396249, -7151.08301056421, -7152.6923361649915, -7144.131618038609, -7120.125844493609, -7127.770141097324, -7155.665118177548, -7159.219045545941, -7152.044135575788, -7127.79249284178, -7137.046115046277, -7162.996490358889, -7164.538760726305, -7157.944996111989, -7132.7322283664025, -7139.1918825139865, -7166.326900282729, -7166.6621764495585, -7159.688432179503, -7136.040286545788, -7143.662231405048, -7169.232627061919, -7168.6514817060815, -7161.208350802464, -7137.157873768553, -7144.042211060788, -7171.065470107254, -7171.199580573986, -7164.248188048386, -7139.974193569922, -7146.2326820174085, -7171.5348567408155, -7172.540685241304, -7167.556246227771, -7141.672926148525, -7147.12675179562, -7171.870132907646, -7170.506676495872, -7163.6670426925475, -7141.181187770509, -7147.976118084922, -7173.367699786151, -7173.591217230704, -7167.84681890569, -7142.03055405981, -7148.356097740662, -7173.121830597142, -7173.7029759529805, -7167.779763672324, -7143.438713960495, -7149.741905896892, -7175.155839342576, -7175.312301553763, -7171.490153251905, -7145.897405850578, -7150.121885552631, -7174.37352828664, -7175.446412020495, -7170.506676495872, -7146.165626784043, -7151.552397197771, -7176.6981097099915, -7177.189848088008, -7172.2948160522965, -7147.394972729084, -7152.938205354, -7177.6368829771145, -7176.452240520984, -7171.5348567408155, -7147.1714552845315, -7152.066487320243, -7177.838048677212, -7176.094612609699, -7170.551379984782, -7146.433847717506, -7152.669984420537, -7176.876923665634, -7175.5805224872265, -7172.116002096654, -7148.445504718484, -7153.4522954764725, -7178.061566121765, -7177.949807399489, -7175.2899498093075, -7150.479513463916, -7153.184074543009, -7177.793345188302, -7177.748641699392, -7173.032423619321, -7148.959594840956, -7152.938205354, -7177.547475999293, -7176.899275410089, -7173.5241619973385, -7149.451333218973, -7153.9216821100335, -7177.793345188302, -7176.631054476626, -7173.032423619321, -7148.5796151852155, -7153.27348152083, -7178.709766710969, -7178.083917866221, -7172.965368385955, -7148.110228551654, -7151.418286731039, -7176.787516687813, -7176.027557376333, -7171.6466154630925, -7146.679716906514, -7150.837141375201, -7176.921627154545, -7177.1674963435535, -7172.697147452492, -7147.394972729084, -7149.630147174615, -7174.932321898023, -7173.926493397534, -7171.020766618343, -7148.177283785019, -7150.255996019363, -7175.781688187324, -7175.2899498093075, -7172.183057330019, -7146.5232546953275, -7149.138408796598, -7175.155839342576, -7174.619397475648, -7172.920664897045, -7147.998469829377, -7149.764257641346, -7174.082955608721, -7175.044080620299, -7173.166534086054, -7147.953766340467, -7150.255996019363, -7175.491115509405, -7174.775859686835, -7171.937188141012, -7147.774952384824, -7150.32305125273, -7176.675757965536, -7176.385185287618, -7173.390051530606, -7148.847836118679, -7150.680679164015, -7176.116964354153, -7175.5805224872265, -7175.044080620299, -7150.255996019363, -7149.183112285508, -7174.328824797729, -7174.887618409111, -7172.652443963581, -7149.116057052142, -7149.27251926333, -7174.485287008916, -7175.066432364754, -7172.9430166415, -7147.238510517897, -7147.752600640369, -7174.105307353176, -7174.105307353176, -7171.6466154630925, -7146.5232546953275, -7149.585443685704, -7174.015900375355, -7173.680624208525, -7172.965368385955, -7149.5183884523385, -7149.920719852534, -7173.904141653078, -7173.948845141989, -7173.188885830508, -7150.121885552631, -7150.121885552631, -7175.379356787129, -7174.708804453469, -7173.27829280833, -7149.183112285508, -7149.674850663526, -7174.306473053274, -7174.217066075453, -7173.032423619321, -7148.646670418581, -7148.4678564629385, -7172.317167796751, -7172.540685241304, -7171.5348567408155, -7147.886711107101, -7147.730248895914, -7172.920664897045, -7173.099478852687, -7172.317167796751, -7148.244339018386, -7146.880882606612, -7172.56303698576, -7172.920664897045, -7171.758374185369, -7148.087876807199, -7146.903234351067, -7171.937188141012, -7171.981891629922, -7170.797249173791, -7147.104400051165, -7145.897405850578, -7170.797249173791, -7171.6466154630925, -7170.976063129433, -7146.210330272953, -7144.198673271975, -7170.976063129433, -7171.221932318442, -7170.774897429335, -7146.947937839978, -7145.428019217017, -7169.970234628944, -7173.211237574964, -7172.361871285662, -7146.590309928693, -7143.773990127324, -7168.517371239349, -7170.864304407157, -7169.590254973204, -7144.6457081610815, -7142.052905804266, -7167.220970060942, -7167.064507849755, -7164.22583630393, -7140.577690670216, -7138.789551113791, -7163.018842103344, -7164.918740382045, -7163.398821759084, -7138.834254602702, -7135.325030723218, -7160.604853702171, -7164.449353748483, -7162.303586280774, -7139.773027869825, -7137.403742957562, -7163.823504903735, -7168.405612517073, -7165.365775271151, -7141.918795337534, -7138.923661580523, -7164.024670603832, -7168.517371239349, -7166.282196793819, -7142.2987749932745, -7139.616565658637, -7165.32107178224, -7170.529028240327, -7166.6621764495585, -7143.371658727129, -7139.773027869825, -7164.874036893134, -7170.640786962604, -7167.533894483316, -7144.6457081610815, -7140.532987181305, -7165.678699693525, -7172.048946863288, -7168.696185194992, -7144.042211060788, -7140.488283692394, -7164.829333404224, -7170.909007896067, -7169.053813106277, -7144.936280839001, -7140.264766247841, -7164.9410921265, -7171.601911974181, -7167.623301461137, -7144.042211060788, -7140.4212284590285, -7163.152952570075, -7168.942054384, -7165.9916241159, -7142.835216860201, -7139.437751702995, -7163.711746181459, -7170.7078421959695, -7167.13156308312, -7143.572824427227, -7139.728324380913, -7163.108249081165, -7170.774897429335, -7166.438659005005, -7141.6505744040705, -7139.393048214084, -7163.398821759084, -7170.4172695180505, -7166.930397383023, -7143.930452338512, -7138.968365069433, -7162.70591768097, -7170.4172695180505, -7166.215141560453, -7142.812865115746, -7137.336687724196, -7162.2588827918635, -7171.3560427851735, -7166.773935171836, -7142.857568604657, -7136.420266201529, -7160.806019402268, -7170.998414873889, -7166.215141560453, -7141.896443593078, -7136.710838879448, -7161.029536846821, -7170.305510795773, -7166.773935171836, -7142.991679071389, -7137.381391213106, -7161.3201095247405, -7170.774897429335, -7166.572769471738, -7142.388181971095, -7136.286155734797, -7161.096592080187, -7170.819600918246, -7166.103382838176, -7142.812865115746, -7137.202577257464, -7159.867246135145, -7170.193752073497, -7166.505714238372, -7142.03055405981, -7136.286155734797, -7160.470743235439, -7170.350214284685, -7166.528065982827, -7142.209368015453, -7134.430960945006, -7158.123810067632, -7169.903179395578, -7166.975100871933, -7143.259900004852, -7135.995583056878, -7158.6155484456485, -7169.858475906668, -7165.678699693525, -7142.03055405981, -7133.64864988907, -7158.414382745551, -7170.819600918246, -7166.773935171836, -7143.371658727129, -7134.7885888562905, -7158.772010656836, -7170.461973006961, -7165.902217138078, -7142.142312782087, -7134.6097749006485, -7158.190865300998, -7170.104345095676, -7166.818638660746, -7143.79634187178, -7134.565071411738, -7157.60971994516, -7169.9478828844885, -7166.326900282729, -7143.08108604921, -7136.040286545788, -7159.800190901779, -7171.020766618343, -7165.186961315509, -7142.388181971095, -7134.498016178372, -7157.8555891341675, -7169.187923573008, -7165.790458415802, -7143.215196515942, -7134.3192022227295, -7157.028574589322, -7168.785592172813, -7164.874036893134, -7142.522292437827, -7134.252146989364, -7157.050926333777, -7169.523199739838, -7165.857513649168, -7144.17632152752, -7134.274498733819, -7156.827408889224, -7169.2996822952855, -7164.628167704126, -7142.634051160104, -7132.531062666305, -7156.17920830002, -7169.076164850732, -7164.851685148679, -7143.505769193861, -7134.922699323023, -7156.246263533386, -7169.2996822952855, -7164.404650259573, -7142.70110639347, -7131.7934550992795, -7155.821580388735, -7168.740888683902, -7163.778801414825, -7142.857568604657, -7132.2628417328415, -7154.949862354978, -7167.332728783218, -7163.398821759084, -7142.164664526542, -7131.860510332645, -7154.480475721416, -7166.818638660746, -7163.108249081165, -7141.628222659615, -7132.12873126611, -7153.809923387757, -7167.265673549852, -7162.75062116988, -7140.197711014475, -7130.139426009587, -7153.474647220928, -7167.578597972227, -7163.354118270174, -7141.427056959517, -7130.8546818321565, -7152.312356509252, -7165.879865393623, -7162.996490358889, -7141.382353470606, -7129.468873675928, -7151.530045453316, -7165.566940971249, -7161.923606625034, -7140.17535927002, -7128.574803897715, -7151.306528008763, -7166.03632760481, -7162.191827558498, -7142.36583022664, -7130.3852951985955, -7151.261824519852, -7165.455182248972, -7162.862379892156, -7142.7681616268355, -7130.497053920872, -7150.859493119657, -7165.052850848777, -7161.074240335732, -7140.957670325955, -7129.357114953651, -7151.440638475495, -7165.052850848777, -7160.291929279796, -7140.577690670216, -7129.290059720285, -7150.6359756751035, -7163.890560137101, -7159.911949624056, -7142.321126737729, -7131.145254510076, -7151.1053623086655, -7165.65634794907, -7162.080068836221, -7142.410533715551, -7130.3852951985955, -7150.859493119657, -7165.008147359866, -7160.940129869, -7141.002373814867, -7126.898423063568, -7147.886711107101, -7163.175304314531, -7160.873074635634]]
