['beep', 0.0, 673.7709848607761, 0.0, 0.0, 0.0, 0.0, -3300.056254870445, 0.0]
['beep', 0.0, 519.588651608068, 0.0, 0.0, 0.0, 0.0, -2106.249583512495, 0.0]
['beep', 0.0, 188.71577843615754, 0.0, 0.0, 0.0, 0.0, -822.3430302552022, 0.0]
['beep', 0.0, 579.8936581484865, 0.0, 0.0, 0.0, 0.0, -2752.3714604820566, 0.0]
['beep', 0.0, 602.4018648149806, 0.0, 0.0, 0.0, 0.0, -3385.8869535788244, 0.0]
['beep', 0.0, 677.0119878067957, 0.0, 0.0, 0.0, 0.0, -3305.197156095166, 0.0]
['beep', 0.0, 520.8179975531099, 0.0, 0.0, 0.0, 0.0, -2109.7588073919783, 0.0]
['beep', 0.0, 187.91111563576646, 0.0, 0.0, 0.0, 0.0, -819.0796755647273, 0.0]
['beep', 0.0, 581.2124110713496, 0.0, 0.0, 0.0, 0.0, -2748.191684268914, 0.0]
['beep', 0.0, 603.5641555266566, 0.0, 0.0, 0.0, 0.0, -3387.652741390794, 0.0]
['beep', 0.0, 676.0061593063068, 0.0, 0.0, 0.0, 0.0, -3303.453720027652, 0.0]
['beep', 0.0, 522.7402475762663, 0.0, 0.0, 0.0, 0.0, -2108.551813191392, 0.0]
['beep', 0.0, 186.7264731796352, 0.0, 0.0, 0.0, 0.0, -811.0330475608167, 0.0]
['beep', 0.0, 581.4806320048133, 0.0, 0.0, 0.0, 0.0, -2734.8923963180064, 0.0]
['beep', 0.0, 606.0228474167404, 0.0, 0.0, 0.0, 0.0, -3382.3106744659754, 0.0]
['beep', 0.0, 677.4366709514464, 0.0, 0.0, 0.0, 0.0, -3304.0125136390348, 0.0]
['beep', 0.0, 526.137712733473, 0.0, 0.0, 0.0, 0.0, -2113.6480109272015, 0.0]
['beep', 0.0, 187.28526679101788, 0.0, 0.0, 0.0, 0.0, -810.0719225492386, 0.0]
['beep', 0.0, 580.6536174599669, 0.0, 0.0, 0.0, 0.0, -2736.6581841299753, 0.0]
['beep', 0.0, 604.972315427341, 0.0, 0.0, 0.0, 0.0, -3383.4729651776515, 0.0]
['beep', 0.0, 678.8224791076755, 0.0, 0.0, 0.0, 0.0, -3304.7501212060597, 0.0]
['beep', 0.0, 526.6294511114897, 0.0, 0.0, 0.0, 0.0, -2116.1290545617408, 0.0]
['beep', 0.0, 185.765348168057, 0.0, 0.0, 0.0, 0.0, -803.6346201461101, 0.0]
['beep', 0.0, 583.2464198167825, 0.0, 0.0, 0.0, 0.0, -2724.7670560797524, 0.0]
['beep', 0.0, 607.4310073174247, 0.0, 0.0, 0.0, 0.0, -3381.0813285209333, 0.0]
['beep', 0.0, 678.9789413188627, 0.0, 0.0, 0.0, 0.0, -3304.0572171279455, 0.0]
['beep', 0.0, 525.6906778443669, 0.0, 0.0, 0.0, 0.0, -2115.637316183724, 0.0]
['beep', 0.0, 183.9101533782665, 0.0, 0.0, 0.0, 0.0, -796.6385241315991, 0.0]
['beep', 0.0, 581.033597115707, 0.0, 0.0, 0.0, 0.0, -2722.4424746564, 0.0]
['beep', 0.0, 607.0510276616845, 0.0, 0.0, 0.0, 0.0, -3386.0434157900117, 0.0]
['beep', 0.0, 681.4599849534018, 0.0, 0.0, 0.0, 0.0, -3307.4770340296072, 0.0]
['beep', 0.0, 526.1153609890176, 0.0, 0.0, 0.0, 0.0, -2117.9171941181653, 0.0]
['beep', 0.0, 181.58557195491457, 0.0, 0.0, 0.0, 0.0, -788.6589513610544, 0.0]
['beep', 0.0, 580.228934315316, 0.0, 0.0, 0.0, 0.0, -2714.0829222301154, 0.0]
['beep', 0.0, 608.8168154736537, 0.0, 0.0, 0.0, 0.0, -3385.2387529896205, 0.0]
['beep', 0.0, 678.643665152033, 0.0, 0.0, 0.0, 0.0, -3303.453720027652, 0.0]
['beep', 0.0, 523.1649307209171, 0.0, 0.0, 0.0, 0.0, -2111.6363539262243, 0.0]
['beep', 0.0, 178.61278994235875, 0.0, 0.0, 0.0, 0.0, -777.6171896001327, 0.0]
['beep', 0.0, 577.7702424252323, 0.0, 0.0, 0.0, 0.0, -2700.493061601289, 0.0]
['beep', 0.0, 608.1015596510839, 0.0, 0.0, 0.0, 0.0, -3384.322331466953, 0.0]
['beep', 0.0, 681.3482262311252, 0.0, 0.0, 0.0, 0.0, -3308.9298974192025, 0.0]
['beep', 0.0, 525.7577330777327, 0.0, 0.0, 0.0, 0.0, -2113.5809556938357, 0.0]
['beep', 0.0, 176.64583643029172, 0.0, 0.0, 0.0, 0.0, -768.7658987958312, 0.0]
['beep', 0.0, 578.8654779035423, 0.0, 0.0, 0.0, 0.0, -2690.2336108963027, 0.0]
['beep', 0.0, 613.197757386894, 0.0, 0.0, 0.0, 0.0, -3383.025930288545, 0.0]
['beep', 0.0, 680.744729130832, 0.0, 0.0, 0.0, 0.0, -3305.7335979620934, 0.0]
['beep', 0.0, 524.617794110512, 0.0, 0.0, 0.0, 0.0, -2107.3671707352605, 0.0]
['beep', 0.0, 173.7624613955571, 0.0, 0.0, 0.0, 0.0, -758.5511515797558, 0.0]
['beep', 0.0, 575.8479924020759, 0.0, 0.0, 0.0, 0.0, -2690.9488667188725, 0.0]
['beep', 0.0, 611.7001905083883, 0.0, 0.0, 0.0, 0.0, -3388.993846058112, 0.0]
['beep', 0.0, 681.3258744866699, 0.0, 0.0, 0.0, 0.0, -3305.0183421395236, 0.0]
['beep', 0.0, 524.7742563216992, 0.0, 0.0, 0.0, 0.0, -2106.3613422347717, 0.0]
['beep', 0.0, 171.08025206092026, 0.0, 0.0, 0.0, 0.0, -747.2411688853704, 0.0]
['beep', 0.0, 576.0268063577183, 0.0, 0.0, 0.0, 0.0, -2671.0781658981045, 0.0]
['beep', 0.0, 615.9246702104414, 0.0, 0.0, 0.0, 0.0, -3383.160040755277, 0.0]
['beep', 0.0, 686.6455896670329, 0.0, 0.0, 0.0, 0.0, -3309.198118352666, 0.0]
['beep', 0.0, 526.0259540111964, 0.0, 0.0, 0.0, 0.0, -2104.1038160447856, 0.0]
['beep', 0.0, 169.13565029330854, 0.0, 0.0, 0.0, 0.0, -737.741677491865, 0.0]
['beep', 0.0, 574.9539226238636, 0.0, 0.0, 0.0, 0.0, -2663.4785727833, 0.0]
['beep', 0.0, 615.4105800879694, 0.0, 0.0, 0.0, 0.0, -3389.7314536251374, 0.0]
['beep', 0.0, 685.5056506998123, 0.0, 0.0, 0.0, 0.0, -3311.098016631367, 0.0]
['beep', 0.0, 525.5118638887244, 0.0, 0.0, 0.0, 0.0, -2102.1815660216294, 0.0]
['beep', 0.0, 167.4369177147052, 0.0, 0.0, 0.0, 0.0, -729.6279942545884, 0.0]
['beep', 0.0, 574.8645156460424, 0.0, 0.0, 0.0, 0.0, -2655.4319447793896, 0.0]
['beep', 0.0, 615.4105800879694, 0.0, 0.0, 0.0, 0.0, -3384.992883800612, 0.0]
['beep', 0.0, 687.2714385117815, 0.0, 0.0, 0.0, 0.0, -3306.873536929314, 0.0]
['beep', 0.0, 526.4059336669367, 0.0, 0.0, 0.0, 0.0, -2101.376903221238, 0.0]
['beep', 0.0, 165.33585373590634, 0.0, 0.0, 0.0, 0.0, -722.3860290510689, 0.0]
['beep', 0.0, 573.3445970230815, 0.0, 0.0, 0.0, 0.0, -2647.09474409756, 0.0]
['beep', 0.0, 618.7856935007208, 0.0, 0.0, 0.0, 0.0, -3390.580819914439, 0.0]
['beep', 0.0, 688.7243019013765, 0.0, 0.0, 0.0, 0.0, -3314.2496125995654, 0.0]
['beep', 0.0, 526.2047679668389, 0.0, 0.0, 0.0, 0.0, -2102.7627113774674, 0.0]
['beep', 0.0, 163.72652813512423, 0.0, 0.0, 0.0, 0.0, -714.0488283692395, 0.0]
['beep', 0.0, 574.5292394792127, 0.0, 0.0, 0.0, 0.0, -2635.069505580605, 0.0]
['beep', 0.0, 620.6855917794218, 0.0, 0.0, 0.0, 0.0, -3386.736319868126, 0.0]
['beep', 0.0, 688.4337292234575, 0.0, 0.0, 0.0, 0.0, -3311.120368375822, 0.0]
['beep', 0.0, 528.5740528791014, 0.0, 0.0, 0.0, 0.0, -2103.925002089143, 0.0]
['beep', 0.0, 163.52536243502647, 0.0, 0.0, 0.0, 0.0, -709.4443690114462, 0.0]
['beep', 0.0, 576.0715098466289, 0.0, 0.0, 0.0, 0.0, -2629.3698107445016, 0.0]
['beep', 0.0, 622.809007502676, 0.0, 0.0, 0.0, 0.0, -3385.8198983454586, 0.0]
['beep', 0.0, 691.2947525137369, 0.0, 0.0, 0.0, 0.0, -3310.203946853155, 0.0]
['beep', 0.0, 530.071619757607, 0.0, 0.0, 0.0, 0.0, -2107.7918538799113, 0.0]
['beep', 0.0, 162.78775486800134, 0.0, 0.0, 0.0, 0.0, -707.030380610273, 0.0]
['beep', 0.0, 573.3893005119921, 0.0, 0.0, 0.0, 0.0, -2626.8887671099624, 0.0]
['beep', 0.0, 623.9265947254413, 0.0, 0.0, 0.0, 0.0, -3389.060901291478, 0.0]
['beep', 0.0, 692.3899879920468, 0.0, 0.0, 0.0, 0.0, -3313.1767288657106, 0.0]
['beep', 0.0, 531.5915383805678, 0.0, 0.0, 0.0, 0.0, -2112.284554515428, 0.0]
['beep', 0.0, 161.35724322286168, 0.0, 0.0, 0.0, 0.0, -702.2471072968373, 0.0]
['beep', 0.0, 572.6069894560563, 0.0, 0.0, 0.0, 0.0, -2616.4057989604235, 0.0]
['beep', 0.0, 623.0772284361396, 0.0, 0.0, 0.0, 0.0, -3383.741186111115, 0.0]
['beep', 0.0, 691.6300286805664, 0.0, 0.0, 0.0, 0.0, -3309.488691030585, 0.0]
['beep', 0.0, 532.619718625512, 0.0, 0.0, 0.0, 0.0, -2111.3010777593945, 0.0]
['beep', 0.0, 160.53022867801533, 0.0, 0.0, 0.0, 0.0, -697.5308892167675, 0.0]
['beep', 0.0, 572.4505272448691, 0.0, 0.0, 0.0, 0.0, -2611.488415180256, 0.0]
['beep', 0.0, 624.2395191478156, 0.0, 0.0, 0.0, 0.0, -3391.0055030590897, 0.0]
['beep', 0.0, 691.965304847396, 0.0, 0.0, 0.0, 0.0, -3315.389551566786, 0.0]
['beep', 0.0, 532.5303116476907, 0.0, 0.0, 0.0, 0.0, -2114.6314876832353, 0.0]
['beep', 0.0, 159.23382749960751, 0.0, 0.0, 0.0, 0.0, -693.4852234703569, 0.0]
['beep', 0.0, 570.5059254772575, 0.0, 0.0, 0.0, 0.0, -2605.073464521583, 0.0]
['beep', 0.0, 624.0830569366285, 0.0, 0.0, 0.0, 0.0, -3386.870430334858, 0.0]
['beep', 0.0, 692.0994153141279, 0.0, 0.0, 0.0, 0.0, -3312.2379555985876, 0.0]
['beep', 0.0, 532.7985325811544, 0.0, 0.0, 0.0, 0.0, -2117.090179573319, 0.0]
['beep', 0.0, 158.13859202129746, 0.0, 0.0, 0.0, 0.0, -690.2665722687927, 0.0]
['beep', 0.0, 570.036538843696, 0.0, 0.0, 0.0, 0.0, -2599.9549150413177, 0.0]
['beep', 0.0, 626.0947139376061, 0.0, 0.0, 0.0, 0.0, -3388.5691629134612, 0.0]
['beep', 0.0, 696.1674328049937, 0.0, 0.0, 0.0, 0.0, -3312.841452698881, 0.0]
['beep', 0.0, 534.1172855040176, 0.0, 0.0, 0.0, 0.0, -2118.2077667960843, 0.0]
['beep', 0.0, 157.02100479853212, 0.0, 0.0, 0.0, 0.0, -685.9750373333737, 0.0]
['beep', 0.0, 569.2095242988496, 0.0, 0.0, 0.0, 0.0, -2590.9695137702843, 0.0]
['beep', 0.0, 627.614632560567, 0.0, 0.0, 0.0, 0.0, -3383.5847238999277, 0.0]
['beep', 0.0, 694.7592729043095, 0.0, 0.0, 0.0, 0.0, -3312.774397465515, 0.0]
['beep', 0.0, 534.877244815498, 0.0, 0.0, 0.0, 0.0, -2123.6615924431794, 0.0]
['beep', 0.0, 156.0151762980433, 0.0, 0.0, 0.0, 0.0, -680.901191342019, 0.0]
['beep', 0.0, 568.1813440539055, 0.0, 0.0, 0.0, 0.0, -2583.1240514664714, 0.0]
['beep', 0.0, 627.8828534940307, 0.0, 0.0, 0.0, 0.0, -3389.5079361805842, 0.0]
['beep', 0.0, 694.1110723151055, 0.0, 0.0, 0.0, 0.0, -3318.027057412512, 0.0]
['beep', 0.0, 537.134771005484, 0.0, 0.0, 0.0, 0.0, -2126.3661535222714, 0.0]
['beep', 0.0, 156.0375280424986, 0.0, 0.0, 0.0, 0.0, -676.1179180285833, 0.0]
['beep', 0.0, 573.0540243451625, 0.0, 0.0, 0.0, 0.0, -2573.17752518386, 0.0]
['beep', 0.0, 633.4484378634022, 0.0, 0.0, 0.0, 0.0, -3385.6634361342713, 0.0]
['beep', 0.0, 694.7592729043095, 0.0, 0.0, 0.0, 0.0, -3317.6917812456827, 0.0]
['beep', 0.0, 538.0288407836963, 0.0, 0.0, 0.0, 0.0, -2128.646031456713, 0.0]
['beep', 0.0, 153.4670774301383, 0.0, 0.0, 0.0, 0.0, -669.2335807363488, 0.0]
['beep', 0.0, 563.9792160963078, 0.0, 0.0, 0.0, 0.0, -2561.9569494672955, 0.0]
['beep', 0.0, 626.4076383599804, 0.0, 0.0, 0.0, 0.0, -3383.4729651776515, 0.0]
['beep', 0.0, 693.6193339370888, 0.0, 0.0, 0.0, 0.0, -3321.7150952476377, 0.0]
['beep', 0.0, 535.4360384268807, 0.0, 0.0, 0.0, 0.0, -2129.5848047238355, 0.0]
['beep', 0.0, 151.6342343848031, 0.0, 0.0, 0.0, 0.0, -662.3268916996589, 0.0]
['beep', 0.0, 564.8285823856095, 0.0, 0.0, 0.0, 0.0, -2554.7373360082315, 0.0]
['beep', 0.0, 629.9839174728296, 0.0, 0.0, 0.0, 0.0, -3384.5234971670507, 0.0]
['beep', 0.0, 695.3180665156921, 0.0, 0.0, 0.0, 0.0, -3316.1048073893558, 0.0]
['beep', 0.0, 537.2688814722159, 0.0, 0.0, 0.0, 0.0, -2128.4672175010705, 0.0]
['beep', 0.0, 150.6284058843143, 0.0, 0.0, 0.0, 0.0, -658.5047433978013, 0.0]
['beep', 0.0, 564.582713196601, 0.0, 0.0, 0.0, 0.0, -2547.450667315801, 0.0]
['beep', 0.0, 634.74483904181, 0.0, 0.0, 0.0, 0.0, -3382.3106744659754, 0.0]
['beep', 0.0, 696.2121362939043, 0.0, 0.0, 0.0, 0.0, -3314.4060748107527, 0.0]
['beep', 0.0, 537.8276750835986, 0.0, 0.0, 0.0, 0.0, -2129.4953977460145, 0.0]
['beep', 0.0, 148.81791458343443, 0.0, 0.0, 0.0, 0.0, -651.6427578500221, 0.0]
['beep', 0.0, 563.9345126073972, 0.0, 0.0, 0.0, 0.0, -2535.5371875211226, 0.0]
['beep', 0.0, 634.3201558971591, 0.0, 0.0, 0.0, 0.0, -3382.7577093550813, 0.0]
['beep', 0.0, 698.000275850329, 0.0, 0.0, 0.0, 0.0, -3316.305973089454, 0.0]
['beep', 0.0, 538.2523582282494, 0.0, 0.0, 0.0, 0.0, -2128.4672175010705, 0.0]
['beep', 0.0, 146.76155409354618, 0.0, 0.0, 0.0, 0.0, -645.3842694025361, 0.0]
['beep', 0.0, 561.1405445504838, 0.0, 0.0, 0.0, 0.0, -2529.3457543070026, 0.0]
['beep', 0.0, 632.2861471517261, 0.0, 0.0, 0.0, 0.0, -3381.9083430657797, 0.0]
['beep', 0.0, 695.4521769824239, 0.0, 0.0, 0.0, 0.0, -3314.294316088476, 0.0]
['beep', 0.0, 539.1240762620064, 0.0, 0.0, 0.0, 0.0, -2129.048362856908, 0.0]
['beep', 0.0, 145.9121878042445, 0.0, 0.0, 0.0, 0.0, -639.5057606107904, 0.0]
['beep', 0.0, 560.0900125610843, 0.0, 0.0, 0.0, 0.0, -2515.979411122729, 0.0]
['beep', 0.0, 634.4319146194357, 0.0, 0.0, 0.0, 0.0, -3379.9637412981683, 0.0]
['beep', 0.0, 696.9497438609295, 0.0, 0.0, 0.0, 0.0, -3315.7918829669816, 0.0]
['beep', 0.0, 539.6605181289337, 0.0, 0.0, 0.0, 0.0, -2128.154293078696, 0.0]
['beep', 0.0, 144.25815871455177, 0.0, 0.0, 0.0, 0.0, -633.940176241419, 0.0]
['beep', 0.0, 557.6313206710006, 0.0, 0.0, 0.0, 0.0, -2508.0221900966394, 0.0]
['beep', 0.0, 636.5553303426898, 0.0, 0.0, 0.0, 0.0, -3380.030796531534, 0.0]
['beep', 0.0, 700.3472090181361, 0.0, 0.0, 0.0, 0.0, -3316.4400835561855, 0.0]
['beep', 0.0, 539.5487594066572, 0.0, 0.0, 0.0, 0.0, -2127.70725818959, 0.0]
['beep', 0.0, 142.7158883471356, 0.0, 0.0, 0.0, 0.0, -626.5641005711676, 0.0]
['beep', 0.0, 559.3300532496039, 0.0, 0.0, 0.0, 0.0, -2500.3778934929246, 0.0]
['beep', 0.0, 637.5388070987234, 0.0, 0.0, 0.0, 0.0, -3382.9588750551793, 0.0]
['beep', 0.0, 701.4647962409016, 0.0, 0.0, 0.0, 0.0, -3315.948345178169, 0.0]
['beep', 0.0, 540.6216431405119, 0.0, 0.0, 0.0, 0.0, -2127.081409344841, 0.0]
['beep', 0.0, 141.39713542427248, 0.0, 0.0, 0.0, 0.0, -621.6243650465448, 0.0]
['beep', 0.0, 558.1454107934727, 0.0, 0.0, 0.0, 0.0, -2489.4478904542793, 0.0]
['beep', 0.0, 639.7292780553435, 0.0, 0.0, 0.0, 0.0, -3373.682901106227, 0.0]
['beep', 0.0, 701.5318514742675, 0.0, 0.0, 0.0, 0.0, -3312.41676955423, 0.0]
['beep', 0.0, 541.9627478078304, 0.0, 0.0, 0.0, 0.0, -2130.2330053130395, 0.0]
['beep', 0.0, 140.30189994596242, 0.0, 0.0, 0.0, 0.0, -617.0646091776621, 0.0]
['beep', 0.0, 556.7596026372436, 0.0, 0.0, 0.0, 0.0, -2480.77541360562, 0.0]
['beep', 0.0, 642.5903013456227, 0.0, 0.0, 0.0, 0.0, -3379.740223853615, 0.0]
['beep', 0.0, 702.3588660191139, 0.0, 0.0, 0.0, 0.0, -3315.70247598916, 0.0]
['beep', 0.0, 543.907349575442, 0.0, 0.0, 0.0, 0.0, -2131.4623512580815, 0.0]
['beep', 0.0, 139.9219202902222, 0.0, 0.0, 0.0, 0.0, -613.8012544871873, 0.0]
['beep', 0.0, 555.1055735475509, 0.0, 0.0, 0.0, 0.0, -2478.6072943934555, 0.0]
['beep', 0.0, 640.5115891112791, 0.0, 0.0, 0.0, 0.0, -3380.81310758747, 0.0]
['beep', 0.0, 702.3812177635691, 0.0, 0.0, 0.0, 0.0, -3312.7967492099706, 0.0]
['beep', 0.0, 543.8402943420762, 0.0, 0.0, 0.0, 0.0, -2134.7257059485564, 0.0]
['beep', 0.0, 138.69257434518033, 0.0, 0.0, 0.0, 0.0, -610.6943620078996, 0.0]
['beep', 0.0, 553.8315241135984, 0.0, 0.0, 0.0, 0.0, -2468.0572710105507, 0.0]
['beep', 0.0, 640.7574583002876, 0.0, 0.0, 0.0, 0.0, -3378.935561053224, 0.0]
['beep', 0.0, 702.5600317192116, 0.0, 0.0, 0.0, 0.0, -3315.8142347114367, 0.0]
['beep', 0.0, 544.3320327200929, 0.0, 0.0, 0.0, 0.0, -2134.8821681597433, 0.0]
['beep', 0.0, 137.53028363350435, 0.0, 0.0, 0.0, 0.0, -605.3075915941706, 0.0]
['beep', 0.0, 552.7362886352884, 0.0, 0.0, 0.0, 0.0, -2459.0495179950617, 0.0]
['beep', 0.0, 641.6962315674105, 0.0, 0.0, 0.0, 0.0, -3383.76353785557, 0.0]
['beep', 0.0, 702.6494386970328, 0.0, 0.0, 0.0, 0.0, -3322.2738888590206, 0.0]
['beep', 0.0, 545.5613786651348, 0.0, 0.0, 0.0, 0.0, -2141.833560685344, 0.0]
['beep', 0.0, 136.43504815519432, 0.0, 0.0, 0.0, 0.0, -601.8654229480533, 0.0]
['beep', 0.0, 552.1774950239056, 0.0, 0.0, 0.0, 0.0, -2451.114648713428, 0.0]
['beep', 0.0, 643.1937984459161, 0.0, 0.0, 0.0, 0.0, -3378.6002848863945, 0.0]
['beep', 0.0, 702.6270869525775, 0.0, 0.0, 0.0, 0.0, -3315.2330893555986, 0.0]
['beep', 0.0, 545.1143437760286, 0.0, 0.0, 0.0, 0.0, -2140.3359938068384, 0.0]
['beep', 0.0, 136.21153071064123, 0.0, 0.0, 0.0, 0.0, -599.004399657774, 0.0]
['beep', 0.0, 551.5963496680677, 0.0, 0.0, 0.0, 0.0, -2443.850331765453, 0.0]
['beep', 0.0, 642.6573565789887, 0.0, 0.0, 0.0, 0.0, -3375.6945581072046, 0.0]
['beep', 0.0, 700.7048369294212, 0.0, 0.0, 0.0, 0.0, -3311.8803276873027, 0.0]
['beep', 0.0, 546.5672071656236, 0.0, 0.0, 0.0, 0.0, -2144.5157700199807, 0.0]
['beep', 0.0, 135.65273709925856, 0.0, 0.0, 0.0, 0.0, -598.0209229017405, 0.0]
['beep', 0.0, 552.6468816574671, 0.0, 0.0, 0.0, 0.0, -2439.2235206632045, 0.0]
['beep', 0.0, 647.1053537255948, 0.0, 0.0, 0.0, 0.0, -3377.6838633637267, 0.0]
['beep', 0.0, 704.0128951088066, 0.0, 0.0, 0.0, 0.0, -3324.9560981936575, 0.0]
['beep', 0.0, 549.4505822003582, 0.0, 0.0, 0.0, 0.0, -2154.9763864250644, 0.0]
['beep', 0.0, 135.27275744351834, 0.0, 0.0, 0.0, 0.0, -594.3105333221595, 0.0]
['beep', 0.0, 552.6021781685565, 0.0, 0.0, 0.0, 0.0, -2427.1982821462493, 0.0]
['beep', 0.0, 647.8206095481646, 0.0, 0.0, 0.0, 0.0, -3381.416604687763, 0.0]
['beep', 0.0, 703.1635288195049, 0.0, 0.0, 0.0, 0.0, -3324.196138882177, 0.0]
['beep', 0.0, 550.4340589563917, 0.0, 0.0, 0.0, 0.0, -2150.148409622718, 0.0]
['beep', 0.0, 135.02688825450997, 0.0, 0.0, 0.0, 0.0, -592.5670972546455, 0.0]
['beep', 0.0, 550.3670037230258, 0.0, 0.0, 0.0, 0.0, -2427.1535786573386, 0.0]
['beep', 0.0, 646.8594845365864, 0.0, 0.0, 0.0, 0.0, -3376.834497074425, 0.0]
['beep', 0.0, 705.5104619873122, 0.0, 0.0, 0.0, 0.0, -3315.680124244705, 0.0]
['beep', 0.0, 552.5127711907353, 0.0, 0.0, 0.0, 0.0, -2155.8481044588216, 0.0]
['beep', 0.0, 134.4233911542167, 0.0, 0.0, 0.0, 0.0, -590.2648675757489, 0.0]
['beep', 0.0, 549.7635066227325, 0.0, 0.0, 0.0, 0.0, -2415.307154096026, 0.0]
['beep', 0.0, 650.2793014382484, 0.0, 0.0, 0.0, 0.0, -3371.648892360794, 0.0]
['beep', 0.0, 705.8233864096865, 0.0, 0.0, 0.0, 0.0, -3318.027057412512, 0.0]
['beep', 0.0, 553.9656345803303, 0.0, 0.0, 0.0, 0.0, -2160.921950450176, 0.0]
['beep', 0.0, 134.1998737096636, 0.0, 0.0, 0.0, 0.0, -586.9568093963635, 0.0]
['beep', 0.0, 549.3835269669923, 0.0, 0.0, 0.0, 0.0, -2410.9932674161514, 0.0]
['beep', 0.0, 649.228769448849, 0.0, 0.0, 0.0, 0.0, -3377.1474214967993, 0.0]
['beep', 0.0, 704.9293166314742, 0.0, 0.0, 0.0, 0.0, -3317.1776911232105, 0.0]
['beep', 0.0, 554.0997450470621, 0.0, 0.0, 0.0, 0.0, -2160.899598705721, 0.0]
['beep', 0.0, 133.08228648689825, 0.0, 0.0, 0.0, 0.0, -584.520469250735, 0.0]
['beep', 0.0, 548.7353263777884, 0.0, 0.0, 0.0, 0.0, -2403.3266190679815, 0.0]
['beep', 0.0, 651.4639438943797, 0.0, 0.0, 0.0, 0.0, -3379.0026162865897, 0.0]
['beep', 0.0, 707.9020986440299, 0.0, 0.0, 0.0, 0.0, -3325.425484827219, 0.0]
['beep', 0.0, 557.4748584598135, 0.0, 0.0, 0.0, 0.0, -2168.47684007607, 0.0]
['beep', 0.0, 132.3446789198731, 0.0, 0.0, 0.0, 0.0, -581.7712046827322, 0.0]
['beep', 0.0, 547.3048147326488, 0.0, 0.0, 0.0, 0.0, -2398.1633660988055, 0.0]
['beep', 0.0, 653.8108770621869, 0.0, 0.0, 0.0, 0.0, -3397.420453717763, 0.0]
['beep', 0.0, 708.0809125996724, 0.0, 0.0, 0.0, 0.0, -3322.8550342148587, 0.0]
['beep', 0.0, 556.8490096150648, 0.0, 0.0, 0.0, 0.0, -2163.3359388513495, 0.0]
['beep', 0.0, 131.6294230973033, 0.0, 0.0, 0.0, 0.0, -578.910181392453, 0.0]
['beep', 0.0, 546.4107449544365, 0.0, 0.0, 0.0, 0.0, -2385.8028514150205, 0.0]
['beep', 0.0, 655.710775340888, 0.0, 0.0, 0.0, 0.0, -3371.8500580608916, 0.0]
['beep', 0.0, 707.7903399217535, 0.0, 0.0, 0.0, 0.0, -3324.41965632673, 0.0]
['beep', 0.0, 558.6595009159447, 0.0, 0.0, 0.0, 0.0, -2174.8023837569217, 0.0]
['beep', 0.0, 131.85294054185636, 0.0, 0.0, 0.0, 0.0, -577.7702424252323, 0.0]
['beep', 0.0, 546.0307652986962, 0.0, 0.0, 0.0, 0.0, -2390.7649386840985, 0.0]
['beep', 0.0, 653.453249150902, 0.0, 0.0, 0.0, 0.0, -3382.3106744659754, 0.0]
['beep', 0.0, 707.7456364328428, 0.0, 0.0, 0.0, 0.0, -3307.0299991405013, 0.0]
['beep', 0.0, 560.1794195389056, 0.0, 0.0, 0.0, 0.0, -2169.996758699031, 0.0]
['beep', 0.0, 131.22709169710777, 0.0, 0.0, 0.0, 0.0, -574.618646457034, 0.0]
['beep', 0.0, 544.5779019091012, 0.0, 0.0, 0.0, 0.0, -2369.1508017958167, 0.0]
['beep', 0.0, 653.0062142617959, 0.0, 0.0, 0.0, 0.0, -3372.699424350193, 0.0]
['beep', 0.0, 709.5337759892674, 0.0, 0.0, 0.0, 0.0, -3317.267098101032, 0.0]
['beep', 0.0, 562.1240213065173, 0.0, 0.0, 0.0, 0.0, -2176.925799480176, 0.0]
['beep', 0.0, 131.6964783306692, 0.0, 0.0, 0.0, 0.0, -574.7080534348552, 0.0]
['beep', 0.0, 546.6342623989896, 0.0, 0.0, 0.0, 0.0, -2372.28004601956, 0.0]
['beep', 0.0, 658.7953160757204, 0.0, 0.0, 0.0, 0.0, -3386.2445814901093, 0.0]
['beep', 0.0, 711.836005668164, 0.0, 0.0, 0.0, 0.0, -3327.772417995026, 0.0]
['beep', 0.0, 563.3086637626486, 0.0, 0.0, 0.0, 0.0, -2182.9831222275643, 0.0]
['beep', 0.0, 131.07062948592062, 0.0, 0.0, 0.0, 0.0, -573.746928423277, 0.0]
['beep', 0.0, 543.3485559640594, 0.0, 0.0, 0.0, 0.0, -2363.9651970821856, 0.0]
['beep', 0.0, 658.3482811866143, 0.0, 0.0, 0.0, 0.0, -3369.480773148629, 0.0]
['beep', 0.0, 712.417151024002, 0.0, 0.0, 0.0, 0.0, -3317.714132990138, 0.0]
['beep', 0.0, 674.1062610276057, 0.0, 0.0, 0.0, 0.0, -3380.0978517649, 0.0]
['beep', 0.0, 720.4190755390019, 0.0, 0.0, 0.0, 0.0, -3337.9871652111015, 0.0]
['beep', 0.0, 604.0782456491287, 0.0, 0.0, 0.0, 0.0, -2310.9692109786524, 0.0]
['beep', 0.0, 139.72075459012444, 0.0, 0.0, 0.0, 0.0, -594.0199606442405, 0.0]
['beep', 0.0, 538.8111518396321, 0.0, 0.0, 0.0, 0.0, -2278.7156437296444, 0.0]
['beep', 0.0, 672.5863424046448, 0.0, 0.0, 0.0, 0.0, -3371.38067142733, 0.0]
['beep', 0.0, 719.2120813384154, 0.0, 0.0, 0.0, 0.0, -3335.3943628542856, 0.0]
['beep', 0.0, 606.3804753280253, 0.0, 0.0, 0.0, 0.0, -2318.6135075823677, 0.0]
['beep', 0.0, 140.57012087942613, 0.0, 0.0, 0.0, 0.0, -597.3950740569919, 0.0]
['beep', 0.0, 538.9452623063639, 0.0, 0.0, 0.0, 0.0, -2280.727300730622, 0.0]
['beep', 0.0, 673.9721505608738, 0.0, 0.0, 0.0, 0.0, -3375.38163368483, 0.0]
['beep', 0.0, 721.8942906730522, 0.0, 0.0, 0.0, 0.0, -3337.294261132987, 0.0]
['beep', 0.0, 608.9509259403856, 0.0, 0.0, 0.0, 0.0, -2322.055676228485, 0.0]
['beep', 0.0, 141.4641906576384, 0.0, 0.0, 0.0, 0.0, -597.842108946098, 0.0]
['beep', 0.0, 539.8840355734868, 0.0, 0.0, 0.0, 0.0, -2272.8147831934434, 0.0]
['beep', 0.0, 675.9391040729408, 0.0, 0.0, 0.0, 0.0, -3369.056090003978, 0.0]
['beep', 0.0, 722.1401598620606, 0.0, 0.0, 0.0, 0.0, -3338.9482902226796, 0.0]
['beep', 0.0, 612.1025219085839, 0.0, 0.0, 0.0, 0.0, -2334.595004867912, 0.0]
['beep', 0.0, 142.84999881386744, 0.0, 0.0, 0.0, 0.0, -603.1841758709164, 0.0]
['beep', 0.0, 539.8840355734868, 0.0, 0.0, 0.0, 0.0, -2276.9945594065857, 0.0]
['beep', 0.0, 677.0566912957063, 0.0, 0.0, 0.0, 0.0, -3371.939465038713, 0.0]
['beep', 0.0, 723.7271337183873, 0.0, 0.0, 0.0, 0.0, -3331.8180837414366, 0.0]
['beep', 0.0, 614.7176760098548, 0.0, 0.0, 0.0, 0.0, -2333.544472878513, 0.0]
['beep', 0.0, 144.056993014454, 0.0, 0.0, 0.0, 0.0, -604.9946671717962, 0.0]
['beep', 0.0, 541.2698437297158, 0.0, 0.0, 0.0, 0.0, -2272.278341326516, 0.0]
['beep', 0.0, 676.1849732619493, 0.0, 0.0, 0.0, 0.0, -3373.19116272821, 0.0]
['beep', 0.0, 722.2519185843371, 0.0, 0.0, 0.0, 0.0, -3343.5303978360175, 0.0]
['beep', 0.0, 615.4329318324246, 0.0, 0.0, 0.0, 0.0, -2351.0011852981074, 0.0]
['beep', 0.0, 144.70519360365793, 0.0, 0.0, 0.0, 0.0, -609.777940485232, 0.0]
['beep', 0.0, 540.6663466294225, 0.0, 0.0, 0.0, 0.0, -2267.9421029021864, 0.0]
['beep', 0.0, 676.3414354731364, 0.0, 0.0, 0.0, 0.0, -3365.52451438004, 0.0]
['beep', 0.0, 723.0342296402729, 0.0, 0.0, 0.0, 0.0, -3337.830702999914, 0.0]
['beep', 0.0, 617.7351615113213, 0.0, 0.0, 0.0, 0.0, -2354.9127405777863, 0.0]
['beep', 0.0, 145.71102210414674, 0.0, 0.0, 0.0, 0.0, -613.421274831447, 0.0]
['beep', 0.0, 540.5322361626907, 0.0, 0.0, 0.0, 0.0, -2268.366786046837, 0.0]
['beep', 0.0, 678.4872029408459, 0.0, 0.0, 0.0, 0.0, -3370.4642499046627, 0.0]
['beep', 0.0, 724.710610474421, 0.0, 0.0, 0.0, 0.0, -3344.960909481157, 0.0]
['beep', 0.0, 620.3726673570475, 0.0, 0.0, 0.0, 0.0, -2367.7426418951322, 0.0]
['beep', 0.0, 146.76155409354618, 0.0, 0.0, 0.0, 0.0, -616.4387603329135, 0.0]
['beep', 0.0, 540.6663466294225, 0.0, 0.0, 0.0, 0.0, -2262.600035977368, 0.0]
['beep', 0.0, 676.1626215174939, 0.0, 0.0, 0.0, 0.0, -3362.9540637676796, 0.0]
['beep', 0.0, 721.0896278726611, 0.0, 0.0, 0.0, 0.0, -3336.6907640326936, 0.0]
['beep', 0.0, 623.2113389028715, 0.0, 0.0, 0.0, 0.0, -2366.446240716725, 0.0]
['beep', 0.0, 148.03560352749867, 0.0, 0.0, 0.0, 0.0, -619.3444871121034, 0.0]
['beep', 0.0, 540.7781053516991, 0.0, 0.0, 0.0, 0.0, -2265.148134845273, 0.0]
['beep', 0.0, 676.9672843178851, 0.0, 0.0, 0.0, 0.0, -3368.3408341814084, 0.0]
['beep', 0.0, 722.3413255621583, 0.0, 0.0, 0.0, 0.0, -3339.797656511981, 0.0]
['beep', 0.0, 624.261870892271, 0.0, 0.0, 0.0, 0.0, -2371.1401070523393, 0.0]
['beep', 0.0, 148.348527949873, 0.0, 0.0, 0.0, 0.0, -619.5009493232906, 0.0]
['beep', 0.0, 540.7110501183331, 0.0, 0.0, 0.0, 0.0, -2258.8002394199657, 0.0]
['beep', 0.0, 678.1519267740163, 0.0, 0.0, 0.0, 0.0, -3370.0172150155563, 0.0]
['beep', 0.0, 721.5813662506779, 0.0, 0.0, 0.0, 0.0, -3349.6547758167717, 0.0]
['beep', 0.0, 626.6088040600782, 0.0, 0.0, 0.0, 0.0, -2382.5618484690012, 0.0]
['beep', 0.0, 148.48263841660483, 0.0, 0.0, 0.0, 0.0, -621.065571435162, 0.0]
['beep', 0.0, 534.877244815498, 0.0, 0.0, 0.0, 0.0, -2254.151076573262, 0.0]
['beep', 0.0, 671.3569964596029, 0.0, 0.0, 0.0, 0.0, -3369.6595871042714, 0.0]
['beep', 0.0, 713.0877033576612, 0.0, 0.0, 0.0, 0.0, -3341.8540170018696, 0.0]
['beep', 0.0, 615.6564492769777, 0.0, 0.0, 0.0, 0.0, -2381.8018891575207, 0.0]
['beep', 0.0, 146.15805699325287, 0.0, 0.0, 0.0, 0.0, -622.4290278469358, 0.0]
['beep', 0.0, 527.3447069340596, 0.0, 0.0, 0.0, 0.0, -2247.669070681223, 0.0]
['beep', 0.0, 658.4376881644355, 0.0, 0.0, 0.0, 0.0, -3356.6955753201933, 0.0]
['beep', 0.0, 700.9283543739742, 0.0, 0.0, 0.0, 0.0, -3334.6567552872607, 0.0]
['beep', 0.0, 611.3202108526482, 0.0, 0.0, 0.0, 0.0, -2386.942790382241, 0.0]
['beep', 0.0, 145.2639872150406, 0.0, 0.0, 0.0, 0.0, -623.1219319250503, 0.0]
['beep', 0.0, 523.5449103766573, 0.0, 0.0, 0.0, 0.0, -2245.25508228005, 0.0]
['beep', 0.0, 660.7622695877874, 0.0, 0.0, 0.0, 0.0, -3363.557560867973, 0.0]
['beep', 0.0, 702.6941421859434, 0.0, 0.0, 0.0, 0.0, -3334.679107031716, 0.0]
['beep', 0.0, 612.9965916867961, 0.0, 0.0, 0.0, 0.0, -2385.4452235037356, 0.0]
['beep', 0.0, 146.2698157155294, 0.0, 0.0, 0.0, 0.0, -622.5854900581229, 0.0]
['beep', 0.0, 524.9083667884311, 0.0, 0.0, 0.0, 0.0, -2238.3930967322704, 0.0]
['beep', 0.0, 658.3259294421589, 0.0, 0.0, 0.0, 0.0, -3362.574084111939, 0.0]
['beep', 0.0, 700.6601334405105, 0.0, 0.0, 0.0, 0.0, -3334.9920314540905, 0.0]
['beep', 0.0, 612.9742399423409, 0.0, 0.0, 0.0, 0.0, -2390.4520142617243, 0.0]
['beep', 0.0, 145.9121878042445, 0.0, 0.0, 0.0, 0.0, -622.8313592471313, 0.0]
['beep', 0.0, 520.8179975531099, 0.0, 0.0, 0.0, 0.0, -2239.465980466125, 0.0]
['beep', 0.0, 658.5270951422567, 0.0, 0.0, 0.0, 0.0, -3372.5206103945507, 0.0]
['beep', 0.0, 700.2578020403149, 0.0, 0.0, 0.0, 0.0, -3336.9589849661575, 0.0]
['beep', 0.0, 614.7847312432208, 0.0, 0.0, 0.0, 0.0, -2394.2294590746715, 0.0]
['beep', 0.0, 146.40392618226127, 0.0, 0.0, 0.0, 0.0, -623.8595394920754, 0.0]
['beep', 0.0, 521.2873841866713, 0.0, 0.0, 0.0, 0.0, -2227.664259393723, 0.0]
['beep', 0.0, 657.4765631528572, 0.0, 0.0, 0.0, 0.0, -3358.1037352208778, 0.0]
['beep', 0.0, 700.9954096073401, 0.0, 0.0, 0.0, 0.0, -3338.9929937115903, 0.0]
['beep', 0.0, 616.2152428883604, 0.0, 0.0, 0.0, 0.0, -2403.6395434903557, 0.0]
['beep', 0.0, 146.33687094889535, 0.0, 0.0, 0.0, 0.0, -623.6360220475224, 0.0]
['beep', 0.0, 519.4768928857915, 0.0, 0.0, 0.0, 0.0, -2219.952907556642, 0.0]
['beep', 0.0, 659.6223306205667, 0.0, 0.0, 0.0, 0.0, -3357.0755549759338, 0.0]
['beep', 0.0, 700.9283543739742, 0.0, 0.0, 0.0, 0.0, -3333.3380023643977, 0.0]
['beep', 0.0, 616.9752021998409, 0.0, 0.0, 0.0, 0.0, -2400.4879475221574, 0.0]
['beep', 0.0, 146.31451920444005, 0.0, 0.0, 0.0, 0.0, -622.7643040137654, 0.0]
['beep', 0.0, 518.6051748520345, 0.0, 0.0, 0.0, 0.0, -2215.929593554687, 0.0]
['beep', 0.0, 660.3152346986813, 0.0, 0.0, 0.0, 0.0, -3356.382650897819, 0.0]
['beep', 0.0, 701.7553689188205, 0.0, 0.0, 0.0, 0.0, -3336.266080888043, 0.0]
['beep', 0.0, 617.2210713888493, 0.0, 0.0, 0.0, 0.0, -2407.014656903107, 0.0]
['beep', 0.0, 146.31451920444005, 0.0, 0.0, 0.0, 0.0, -623.7924842587095, 0.0]
['beep', 0.0, 518.2922504296602, 0.0, 0.0, 0.0, 0.0, -2212.018038275008, 0.0]
['beep', 0.0, 659.8011445762091, 0.0, 0.0, 0.0, 0.0, -3355.3097671639644, 0.0]
['beep', 0.0, 700.7495404183318, 0.0, 0.0, 0.0, 0.0, -3329.5158540625403, 0.0]
['beep', 0.0, 619.7691702567543, 0.0, 0.0, 0.0, 0.0, -2406.3888080583583, 0.0]
['beep', 0.0, 146.31451920444005, 0.0, 0.0, 0.0, 0.0, -623.1889871584162, 0.0]
['beep', 0.0, 519.6557068414339, 0.0, 0.0, 0.0, 0.0, -2206.273639949994, 0.0]
['beep', 0.0, 663.7126998558879, 0.0, 0.0, 0.0, 0.0, -3357.299072420487, 0.0]
['beep', 0.0, 706.739807932354, 0.0, 0.0, 0.0, 0.0, -3332.332173863909, 0.0]
['beep', 0.0, 623.680725536433, 0.0, 0.0, 0.0, 0.0, -2408.9592586707186, 0.0]
['beep', 0.0, 146.8509610713674, 0.0, 0.0, 0.0, 0.0, -622.3396208691146, 0.0]
['beep', 0.0, 517.3758289069925, 0.0, 0.0, 0.0, 0.0, -2201.24449744755, 0.0]
['beep', 0.0, 659.9576067873963, 0.0, 0.0, 0.0, 0.0, -3361.277682933531, 0.0]
['beep', 0.0, 697.5308892167675, 0.0, 0.0, 0.0, 0.0, -3335.126141920822, 0.0]
['beep', 0.0, 619.5903563011118, 0.0, 0.0, 0.0, 0.0, -2412.33437208347, 0.0]
['beep', 0.0, 146.06865001543164, 0.0, 0.0, 0.0, 0.0, -621.713772024366, 0.0]
['beep', 0.0, 515.6770963283892, 0.0, 0.0, 0.0, 0.0, -2194.181346199673, 0.0]
['beep', 0.0, 661.969263788374, 0.0, 0.0, 0.0, 0.0, -3354.1474764522886, 0.0]
['beep', 0.0, 699.6543049400217, 0.0, 0.0, 0.0, 0.0, -3333.874444231325, 0.0]
['beep', 0.0, 621.5126063242682, 0.0, 0.0, 0.0, 0.0, -2418.86108146442, 0.0]
['beep', 0.0, 146.00159478206572, 0.0, 0.0, 0.0, 0.0, -621.9596412133743, 0.0]
['beep', 0.0, 513.2184044383055, 0.0, 0.0, 0.0, 0.0, -2187.922857752187, 0.0]
['beep', 0.0, 661.097545754617, 0.0, 0.0, 0.0, 0.0, -3355.2427119305985, 0.0]
['beep', 0.0, 699.7437119178429, 0.0, 0.0, 0.0, 0.0, -3334.9473279651797, 0.0]
['beep', 0.0, 619.9926877013073, 0.0, 0.0, 0.0, 0.0, -2424.33725885597, 0.0]
['beep', 0.0, 146.09100175988695, 0.0, 0.0, 0.0, 0.0, -623.1889871584162, 0.0]
['beep', 0.0, 514.0454189831519, 0.0, 0.0, 0.0, 0.0, -2182.67019780519, 0.0]
['beep', 0.0, 662.0363190217399, 0.0, 0.0, 0.0, 0.0, -3353.6333863298164, 0.0]
['beep', 0.0, 698.80493865072, 0.0, 0.0, 0.0, 0.0, -3337.540130321995, 0.0]
['beep', 0.0, 622.4066761024804, 0.0, 0.0, 0.0, 0.0, -2427.980593202185, 0.0]
['beep', 0.0, 147.1638854937417, 0.0, 0.0, 0.0, 0.0, -623.4795598363352, 0.0]
['beep', 0.0, 517.0629044846182, 0.0, 0.0, 0.0, 0.0, -2178.155145425218, 0.0]
['beep', 0.0, 666.998406290818, 0.0, 0.0, 0.0, 0.0, -3352.739316551604, 0.0]
['beep', 0.0, 705.8233864096865, 0.0, 0.0, 0.0, 0.0, -3333.89679597578, 0.0]
['beep', 0.0, 630.4086006174804, 0.0, 0.0, 0.0, 0.0, -2431.5121688261233, 0.0]
['beep', 0.0, 147.90149306076682, 0.0, 0.0, 0.0, 0.0, -623.2113389028715, 0.0]
['beep', 0.0, 516.3029451731378, 0.0, 0.0, 0.0, 0.0, -2172.5001540780254, 0.0]
['beep', 0.0, 671.289941226237, 0.0, 0.0, 0.0, 0.0, -3360.0706887329447, 0.0]
['beep', 0.0, 706.6056974656221, 0.0, 0.0, 0.0, 0.0, -3342.3010518909755, 0.0]
['beep', 0.0, 630.0062692172849, 0.0, 0.0, 0.0, 0.0, -2442.643337564866, 0.0]
['beep', 0.0, 148.50499016106014, 0.0, 0.0, 0.0, 0.0, -627.681687793933, 0.0]
['beep', 0.0, 515.0512474836406, 0.0, 0.0, 0.0, 0.0, -2172.0978226778298, 0.0]
['beep', 0.0, 670.41822319248, 0.0, 0.0, 0.0, 0.0, -3354.9297875082243, 0.0]
['beep', 0.0, 707.2762497992813, 0.0, 0.0, 0.0, 0.0, -3339.440028600696, 0.0]
['beep', 0.0, 635.1695221864608, 0.0, 0.0, 0.0, 0.0, -2449.8629510239307, 0.0]
['beep', 0.0, 151.88010357381148, 0.0, 0.0, 0.0, 0.0, -637.4941036098128, 0.0]
['beep', 0.0, 518.0910847295625, 0.0, 0.0, 0.0, 0.0, -2179.563305325902, 0.0]
['beep', 0.0, 669.3006359697147, 0.0, 0.0, 0.0, 0.0, -3358.483714876618, 0.0]
['beep', 0.0, 707.2762497992813, 0.0, 0.0, 0.0, 0.0, -3341.742258279593, 0.0]
['beep', 0.0, 638.4775803658463, 0.0, 0.0, 0.0, 0.0, -2461.9999482631624, 0.0]
['beep', 0.0, 155.0540512864651, 0.0, 0.0, 0.0, 0.0, -647.9994235038071, 0.0]
['beep', 0.0, 518.6945818298557, 0.0, 0.0, 0.0, 0.0, -2184.994779228542, 0.0]
['beep', 0.0, 669.5018016698125, 0.0, 0.0, 0.0, 0.0, -3358.5954735988944, 0.0]
['beep', 0.0, 708.192671321949, 0.0, 0.0, 0.0, 0.0, -3340.378801867819, 0.0]
['beep', 0.0, 641.5621211006786, 0.0, 0.0, 0.0, 0.0, -2471.655901867855, 0.0]
['beep', 0.0, 157.5797984099148, 0.0, 0.0, 0.0, 0.0, -655.5543131297009, 0.0]
['beep', 0.0, 518.7616370632217, 0.0, 0.0, 0.0, 0.0, -2183.676026305679, 0.0]
['beep', 0.0, 668.6524353805107, 0.0, 0.0, 0.0, 0.0, -3358.1484387097885, 0.0]
['beep', 0.0, 706.0692555986948, 0.0, 0.0, 0.0, 0.0, -3343.284528647009, 0.0]
['beep', 0.0, 641.0703827226619, 0.0, 0.0, 0.0, 0.0, -2481.8706490839304, 0.0]
['beep', 0.0, 158.92090307723322, 0.0, 0.0, 0.0, 0.0, -661.6563393659997, 0.0]
['beep', 0.0, 519.8568725415316, 0.0, 0.0, 0.0, 0.0, -2185.6206280732904, 0.0]
['beep', 0.0, 668.7418423583321, 0.0, 0.0, 0.0, 0.0, -3359.0425084880007, 0.0]
['beep', 0.0, 706.158662576516, 0.0, 0.0, 0.0, 0.0, -3342.2116449131545, 0.0]
['beep', 0.0, 643.7525920572987, 0.0, 0.0, 0.0, 0.0, -2485.49163168569, 0.0]
['beep', 0.0, 159.56910366643712, 0.0, 0.0, 0.0, 0.0, -662.9080370554968, 0.0]
['beep', 0.0, 519.6780585858892, 0.0, 0.0, 0.0, 0.0, -2180.278561148472, 0.0]
['beep', 0.0, 670.5076301703012, 0.0, 0.0, 0.0, 0.0, -3357.5002381205845, 0.0]
['beep', 0.0, 703.5882119641557, 0.0, 0.0, 0.0, 0.0, -3340.42350535673, 0.0]
['beep', 0.0, 641.6291763340446, 0.0, 0.0, 0.0, 0.0, -2485.7375008746985, 0.0]
['beep', 0.0, 159.5020484330712, 0.0, 0.0, 0.0, 0.0, -663.6009411336114, 0.0]
['beep', 0.0, 518.2922504296602, 0.0, 0.0, 0.0, 0.0, -2177.6634070472014, 0.0]
['beep', 0.0, 667.4007376910135, 0.0, 0.0, 0.0, 0.0, -3361.1435724667995, 0.0]
['beep', 0.0, 704.191709064449, 0.0, 0.0, 0.0, 0.0, -3344.8491507588806, 0.0]
['beep', 0.0, 644.3784409020473, 0.0, 0.0, 0.0, 0.0, -2491.794823622087, 0.0]
['beep', 0.0, 159.8149728554455, 0.0, 0.0, 0.0, 0.0, -665.7690603457762, 0.0]
['beep', 0.0, 515.4088753949255, 0.0, 0.0, 0.0, 0.0, -2173.282465133961, 0.0]
['beep', 0.0, 669.0547667807064, 0.0, 0.0, 0.0, 0.0, -3357.2767206760313, 0.0]
['beep', 0.0, 704.3705230200915, 0.0, 0.0, 0.0, 0.0, -3346.391421126297, 0.0]
['beep', 0.0, 645.0936967246172, 0.0, 0.0, 0.0, 0.0, -2499.1261958034274, 0.0]
['beep', 0.0, 160.217304255641, 0.0, 0.0, 0.0, 0.0, -666.4619644238907, 0.0]
['beep', 0.0, 514.9618405058194, 0.0, 0.0, 0.0, 0.0, -2166.5545900529137, 0.0]
['beep', 0.0, 670.8429063371309, 0.0, 0.0, 0.0, 0.0, -3355.5779880974283, 0.0]
['beep', 0.0, 703.8117294087087, 0.0, 0.0, 0.0, 0.0, -3342.6363280578053, 0.0]
['beep', 0.0, 647.0159467477736, 0.0, 0.0, 0.0, 0.0, -2502.7024749162765, 0.0]
['beep', 0.0, 160.88785658930024, 0.0, 0.0, 0.0, 0.0, -667.2219237353711, 0.0]
['beep', 0.0, 514.9618405058194, 0.0, 0.0, 0.0, 0.0, -2160.6537295167127, 0.0]
['beep', 0.0, 671.289941226237, 0.0, 0.0, 0.0, 0.0, -3356.1144299643556, 0.0]
['beep', 0.0, 704.0799503421724, 0.0, 0.0, 0.0, 0.0, -3341.51874083504, 0.0]
['beep', 0.0, 645.808952547187, 0.0, 0.0, 0.0, 0.0, -2502.1213295604384, 0.0]
['beep', 0.0, 160.08319378890917, 0.0, 0.0, 0.0, 0.0, -665.7243568568656, 0.0]
['beep', 0.0, 514.2912881721602, 0.0, 0.0, 0.0, 0.0, -2154.3058340914054, 0.0]
['beep', 0.0, 671.8934383265303, 0.0, 0.0, 0.0, 0.0, -3354.035717730012, 0.0]
['beep', 0.0, 705.063427098206, 0.0, 0.0, 0.0, 0.0, -3341.719906535138, 0.0]
['beep', 0.0, 647.4182781479691, 0.0, 0.0, 0.0, 0.0, -2508.133948818916, 0.0]
['beep', 0.0, 159.99378681108794, 0.0, 0.0, 0.0, 0.0, -666.5066679128013, 0.0]
['beep', 0.0, 511.54202360415746, 0.0, 0.0, 0.0, 0.0, -2146.1697991096735, 0.0]
['beep', 0.0, 667.6689586244772, 0.0, 0.0, 0.0, 0.0, -3352.6722613182383, 0.0]
['beep', 0.0, 701.8671276410971, 0.0, 0.0, 0.0, 0.0, -3344.7597437810596, 0.0]
['beep', 0.0, 647.4629816368797, 0.0, 0.0, 0.0, 0.0, -2511.039675598106, 0.0]
['beep', 0.0, 159.94908332217733, 0.0, 0.0, 0.0, 0.0, -666.5960748906225, 0.0]
['beep', 0.0, 509.66447706991164, 0.0, 0.0, 0.0, 0.0, -2144.739287464534, 0.0]
['beep', 0.0, 668.2948074692258, 0.0, 0.0, 0.0, 0.0, -3353.90160726328, 0.0]
['beep', 0.0, 702.8282526526752, 0.0, 0.0, 0.0, 0.0, -3342.7257350356267, 0.0]
['beep', 0.0, 647.4406298924243, 0.0, 0.0, 0.0, 0.0, -2513.654829699377, 0.0]
['beep', 0.0, 160.3737664668282, 0.0, 0.0, 0.0, 0.0, -668.0712900246727, 0.0]
['beep', 0.0, 508.2786689136826, 0.0, 0.0, 0.0, 0.0, -2138.100819361308, 0.0]
['beep', 0.0, 668.5630284026895, 0.0, 0.0, 0.0, 0.0, -3350.9958804840903, 0.0]
['beep', 0.0, 702.1353485745608, 0.0, 0.0, 0.0, 0.0, -3339.060048944956, 0.0]
['beep', 0.0, 648.289996181726, 0.0, 0.0, 0.0, 0.0, -2516.538204734112, 0.0]
['beep', 0.0, 160.88785658930024, 0.0, 0.0, 0.0, 0.0, -669.1441737585276, 0.0]
['beep', 0.0, 507.74222704675526, 0.0, 0.0, 0.0, 0.0, -2132.870511158766, 0.0]
['beep', 0.0, 668.2054004914046, 0.0, 0.0, 0.0, 0.0, -3352.8957787627915, 0.0]
['beep', 0.0, 701.5094997298122, 0.0, 0.0, 0.0, 0.0, -3345.7879240260036, 0.0]
['beep', 0.0, 650.2122462048825, 0.0, 0.0, 0.0, 0.0, -2521.1873675808156, 0.0]
['beep', 0.0, 161.35724322286168, 0.0, 0.0, 0.0, 0.0, -669.6582638809996, 0.0]
['beep', 0.0, 506.93756424636416, 0.0, 0.0, 0.0, 0.0, -2128.42251401216, 0.0]
['beep', 0.0, 667.1548685020052, 0.0, 0.0, 0.0, 0.0, -3351.0182322285455, 0.0]
['beep', 0.0, 703.3423427751474, 0.0, 0.0, 0.0, 0.0, -3343.977432725124, 0.0]
['beep', 0.0, 651.8215718056646, 0.0, 0.0, 0.0, 0.0, -2524.651887971388, 0.0]
['beep', 0.0, 162.0724990454315, 0.0, 0.0, 0.0, 0.0, -670.8205545926755, 0.0]
['beep', 0.0, 507.0269712241854, 0.0, 0.0, 0.0, 0.0, -2123.0357435984306, 0.0]
['beep', 0.0, 669.6582638809996, 0.0, 0.0, 0.0, 0.0, -3349.0736304609336, 0.0]
['beep', 0.0, 701.5765549631781, 0.0, 0.0, 0.0, 0.0, -3343.619804813839, 0.0]
['beep', 0.0, 650.1675427159719, 0.0, 0.0, 0.0, 0.0, -2531.8938531749077, 0.0]
['beep', 0.0, 160.61963565583656, 0.0, 0.0, 0.0, 0.0, -670.5299819147566, 0.0]
['beep', 0.0, 505.0153142232078, 0.0, 0.0, 0.0, 0.0, -2114.340915005316, 0.0]
['beep', 0.0, 668.8983045695192, 0.0, 0.0, 0.0, 0.0, -3344.290357147498, 0.0]
['beep', 0.0, 701.9565346189183, 0.0, 0.0, 0.0, 0.0, -3337.1377989218, 0.0]
['beep', 0.0, 651.2851299387372, 0.0, 0.0, 0.0, 0.0, -2524.5401292491115, 0.0]
['beep', 0.0, 161.0666705449427, 0.0, 0.0, 0.0, 0.0, -669.1888772474382, 0.0]
['beep', 0.0, 503.96478223380836, 0.0, 0.0, 0.0, 0.0, -2108.574164935847, 0.0]
['beep', 0.0, 668.451269680413, 0.0, 0.0, 0.0, 0.0, -3343.7315635361156, 0.0]
['beep', 0.0, 699.1625665620049, 0.0, 0.0, 0.0, 0.0, -3341.2728716460315, 0.0]
['beep', 0.0, 652.0227375057623, 0.0, 0.0, 0.0, 0.0, -2532.45264678629, 0.0]
['beep', 0.0, 160.97726356712147, 0.0, 0.0, 0.0, 0.0, -669.4123946919913, 0.0]
['beep', 0.0, 501.12611068798435, 0.0, 0.0, 0.0, 0.0, -2104.908478845177, 0.0]
['beep', 0.0, 669.0547667807064, 0.0, 0.0, 0.0, 0.0, -3346.704345548671, 0.0]
['beep', 0.0, 698.7155316728988, 0.0, 0.0, 0.0, 0.0, -3339.1718076672328, 0.0]
['beep', 0.0, 652.514475883779, 0.0, 0.0, 0.0, 0.0, -2533.480827031234, 0.0]
['beep', 0.0, 161.84898160087843, 0.0, 0.0, 0.0, 0.0, -669.4570981809019, 0.0]
['beep', 0.0, 502.08723569956254, 0.0, 0.0, 0.0, 0.0, -2098.9852665645203, 0.0]
['beep', 0.0, 669.1218220140722, 0.0, 0.0, 0.0, 0.0, -3347.8219327714364, 0.0]
['beep', 0.0, 700.5036712293233, 0.0, 0.0, 0.0, 0.0, -3337.093095432889, 0.0]
['beep', 0.0, 654.0567462511952, 0.0, 0.0, 0.0, 0.0, -2532.810274697575, 0.0]
['beep', 0.0, 160.57493216692595, 0.0, 0.0, 0.0, 0.0, -666.9313510574522, 0.0]
['beep', 0.0, 500.3661513765039, 0.0, 0.0, 0.0, 0.0, -2087.4964699144925, 0.0]
['beep', 0.0, 673.6145226495889, 0.0, 0.0, 0.0, 0.0, -3338.7918280114923, 0.0]
['beep', 0.0, 701.934182874463, 0.0, 0.0, 0.0, 0.0, -3334.679107031716, 0.0]
['beep', 0.0, 654.0567462511952, 0.0, 0.0, 0.0, 0.0, -2538.398210811402, 0.0]
['beep', 0.0, 161.29018798949576, 0.0, 0.0, 0.0, 0.0, -668.451269680413, 0.0]
['beep', 0.0, 497.8627559975095, 0.0, 0.0, 0.0, 0.0, -2085.0154262799533, 0.0]
['beep', 0.0, 670.3064644702035, 0.0, 0.0, 0.0, 0.0, -3350.168865939244, 0.0]
['beep', 0.0, 698.514365972801, 0.0, 0.0, 0.0, 0.0, -3345.0503164589786, 0.0]
['beep', 0.0, 653.2520834508042, 0.0, 0.0, 0.0, 0.0, -2539.9628329232733, 0.0]
['beep', 0.0, 160.1726007667304, 0.0, 0.0, 0.0, 0.0, -665.612598134589, 0.0]
['beep', 0.0, 495.8063955076213, 0.0, 0.0, 0.0, 0.0, -2075.024196508431, 0.0]
['beep', 0.0, 668.9653598028851, 0.0, 0.0, 0.0, 0.0, -3345.9220344927353, 0.0]
['beep', 0.0, 697.4414822389463, 0.0, 0.0, 0.0, 0.0, -3343.1951216691878, 0.0]
['beep', 0.0, 652.6485863505109, 0.0, 0.0, 0.0, 0.0, -2541.7733242241534, 0.0]
['beep', 0.0, 159.23382749960751, 0.0, 0.0, 0.0, 0.0, -664.7855835897427, 0.0]
['beep', 0.0, 491.87248848348725, 0.0, 0.0, 0.0, 0.0, -2068.3633766607495, 0.0]
['beep', 0.0, 666.774888846265, 0.0, 0.0, 0.0, 0.0, -3344.625633314328, 0.0]
['beep', 0.0, 695.094549071139, 0.0, 0.0, 0.0, 0.0, -3346.7266972931266, 0.0]
['beep', 0.0, 651.3521851721031, 0.0, 0.0, 0.0, 0.0, -2546.914225448874, 0.0]
['beep', 0.0, 158.74208912159077, 0.0, 0.0, 0.0, 0.0, -663.4444789224242, 0.0]
['beep', 0.0, 491.1572326609174, 0.0, 0.0, 0.0, 0.0, -2060.674376568124, 0.0]
['beep', 0.0, 667.3783859465583, 0.0, 0.0, 0.0, 0.0, -3341.6304995573164, 0.0]
['beep', 0.0, 696.9273921164743, 0.0, 0.0, 0.0, 0.0, -3343.619804813839, 0.0]
['beep', 0.0, 653.6097113620891, 0.0, 0.0, 0.0, 0.0, -2545.461362059279, 0.0]
['beep', 0.0, 157.6021501543701, 0.0, 0.0, 0.0, 0.0, -657.5212666417679, 0.0]
['beep', 0.0, 487.1339186589621, 0.0, 0.0, 0.0, 0.0, -2046.481018839004, 0.0]
['beep', 0.0, 667.2889789687371, 0.0, 0.0, 0.0, 0.0, -3338.4342001002074, 0.0]
['beep', 0.0, 693.9769618483737, 0.0, 0.0, 0.0, 0.0, -3336.3554878658642, 0.0]
['beep', 0.0, 646.5465601142121, 0.0, 0.0, 0.0, 0.0, -2538.4652660447678, 0.0]
['beep', 0.0, 154.6964233751802, 0.0, 0.0, 0.0, 0.0, -651.9780340168517, 0.0]
['beep', 0.0, 481.18835463385045, 0.0, 0.0, 0.0, 0.0, -2032.4217715766158, 0.0]
['beep', 0.0, 663.8691620670751, 0.0, 0.0, 0.0, 0.0, -3335.6849355322047, 0.0]
['beep', 0.0, 693.194650792438, 0.0, 0.0, 0.0, 0.0, -3339.9317669787133, 0.0]
['beep', 0.0, 646.613615347578, 0.0, 0.0, 0.0, 0.0, -2539.2028736117927, 0.0]
['beep', 0.0, 153.37767045231706, 0.0, 0.0, 0.0, 0.0, -645.8536560360976, 0.0]
['beep', 0.0, 479.2884563551493, 0.0, 0.0, 0.0, 0.0, -2020.0836086372865, 0.0]
['beep', 0.0, 668.0489382802175, 0.0, 0.0, 0.0, 0.0, -3337.093095432889, 0.0]
['beep', 0.0, 697.7320549168653, 0.0, 0.0, 0.0, 0.0, -3342.010479213057, 0.0]
['beep', 0.0, 650.391060160525, 0.0, 0.0, 0.0, 0.0, -2538.8675974449634, 0.0]
['beep', 0.0, 151.79069659599025, 0.0, 0.0, 0.0, 0.0, -639.3940018885138, 0.0]
['beep', 0.0, 474.99692141973037, 0.0, 0.0, 0.0, 0.0, -2005.2196985745072, 0.0]
['beep', 0.0, 661.388118432536, 0.0, 0.0, 0.0, 0.0, -3333.51681632004, 0.0]
['beep', 0.0, 687.9196391009855, 0.0, 0.0, 0.0, 0.0, -3338.836531500403, 0.0]
['beep', 0.0, 643.7302403128434, 0.0, 0.0, 0.0, 0.0, -2532.586757253022, 0.0]
['beep', 0.0, 149.28730121699587, 0.0, 0.0, 0.0, 0.0, -631.7720570292541, 0.0]
['beep', 0.0, 472.1582498739064, 0.0, 0.0, 0.0, 0.0, -1991.451023990038, 0.0]
['beep', 0.0, 663.3327202001477, 0.0, 0.0, 0.0, 0.0, -3338.0542204444673, 0.0]
['beep', 0.0, 693.8204996371866, 0.0, 0.0, 0.0, 0.0, -3342.971604224635, 0.0]
['beep', 0.0, 645.9430630139188, 0.0, 0.0, 0.0, 0.0, -2528.8093124400752, 0.0]
['beep', 0.0, 147.40975468275008, 0.0, 0.0, 0.0, 0.0, -624.1277604255391, 0.0]
['beep', 0.0, 468.80548820561035, 0.0, 0.0, 0.0, 0.0, -1978.710529650513, 0.0]
['beep', 0.0, 666.9089993129968, 0.0, 0.0, 0.0, 0.0, -3336.489598332596, 0.0]
['beep', 0.0, 694.4910519708458, 0.0, 0.0, 0.0, 0.0, -3343.5527495804727, 0.0]
['beep', 0.0, 644.2666821797708, 0.0, 0.0, 0.0, 0.0, -2528.4740362732455, 0.0]
['beep', 0.0, 145.19693198167468, 0.0, 0.0, 0.0, 0.0, -618.9645074563632, 0.0]
['beep', 0.0, 465.6091887485014, 0.0, 0.0, 0.0, 0.0, -1963.8242678432784, 0.0]
['beep', 0.0, 666.5513714017119, 0.0, 0.0, 0.0, 0.0, -3332.220415141632, 0.0]
['beep', 0.0, 694.0440170817396, 0.0, 0.0, 0.0, 0.0, -3344.8491507588806, 0.0]
['beep', 0.0, 642.2103216898826, 0.0, 0.0, 0.0, 0.0, -2528.362277550969, 0.0]
['beep', 0.0, 143.4087924252501, 0.0, 0.0, 0.0, 0.0, -613.0189434312515, 0.0]
['beep', 0.0, 462.27877882466066, 0.0, 0.0, 0.0, 0.0, -1950.972014781477, 0.0]
['beep', 0.0, 665.7690603457762, 0.0, 0.0, 0.0, 0.0, -3327.8171214839367, 0.0]
['beep', 0.0, 697.5755927056781, 0.0, 0.0, 0.0, 0.0, -3339.5964908118835, 0.0]
['beep', 0.0, 644.8031240466981, 0.0, 0.0, 0.0, 0.0, -2523.3107833040694, 0.0]
['beep', 0.0, 142.76059183604622, 0.0, 0.0, 0.0, 0.0, -607.229841617327, 0.0]
['beep', 0.0, 461.92115091337575, 0.0, 0.0, 0.0, 0.0, -1939.393811153628, 0.0]
['beep', 0.0, 672.8098598491979, 0.0, 0.0, 0.0, 0.0, -3330.1640546517438, 0.0]
['beep', 0.0, 699.6990084289323, 0.0, 0.0, 0.0, 0.0, -3344.1338949363108, 0.0]
['beep', 0.0, 644.6019583466003, 0.0, 0.0, 0.0, 0.0, -2525.970640894251, 0.0]
['beep', 0.0, 141.68770810219146, 0.0, 0.0, 0.0, 0.0, -603.6312107600226, 0.0]
['beep', 0.0, 459.70832821230033, 0.0, 0.0, 0.0, 0.0, -1928.3520493927062, 0.0]
['beep', 0.0, 670.8205545926755, 0.0, 0.0, 0.0, 0.0, -3328.286508117498, 0.0]
['beep', 0.0, 697.3744270055804, 0.0, 0.0, 0.0, 0.0, -3346.1679036817436, 0.0]
['beep', 0.0, 645.808952547187, 0.0, 0.0, 0.0, 0.0, -2527.2223385837483, 0.0]
['beep', 0.0, 141.8441703133786, 0.0, 0.0, 0.0, 0.0, -603.1841758709164, 0.0]
['beep', 0.0, 458.6577962229009, 0.0, 0.0, 0.0, 0.0, -1925.3122121467845, 0.0]
['beep', 0.0, 671.289941226237, 0.0, 0.0, 0.0, 0.0, -3333.4497610866742, 0.0]
['beep', 0.0, 698.3802555060691, 0.0, 0.0, 0.0, 0.0, -3351.6440810732943, 0.0]
['beep', 0.0, 647.0382984922288, 0.0, 0.0, 0.0, 0.0, -2531.1562456078823, 0.0]
['beep', 0.0, 141.508894146549, 0.0, 0.0, 0.0, 0.0, -601.7089607368662, 0.0]
['beep', 0.0, 457.204932833306, 0.0, 0.0, 0.0, 0.0, -1916.7514940204019, 0.0]
['beep', 0.0, 672.4075284490024, 0.0, 0.0, 0.0, 0.0, -3332.0863046749005, 0.0]
['beep', 0.0, 704.2587642978149, 0.0, 0.0, 0.0, 0.0, -3350.7947147839923, 0.0]
['beep', 0.0, 653.6320631065445, 0.0, 0.0, 0.0, 0.0, -2533.9949171537064, 0.0]
['beep', 0.0, 143.0288127695099, 0.0, 0.0, 0.0, 0.0, -601.5972020145896, 0.0]
['beep', 0.0, 465.40802304840366, 0.0, 0.0, 0.0, 0.0, -1909.8671567281672, 0.0]
['beep', 0.0, 691.2500490248262, 0.0, 0.0, 0.0, 0.0, -3340.6693745457383, 0.0]
['beep', 0.0, 719.0779708716835, 0.0, 0.0, 0.0, 0.0, -3356.0473747309898, 0.0]
['beep', 0.0, 660.7846213322428, 0.0, 0.0, 0.0, 0.0, -2532.854978186486, 0.0]
['beep', 0.0, 142.82764706941214, 0.0, 0.0, 0.0, 0.0, -597.9985711572851, 0.0]
['beep', 0.0, 464.268084081183, 0.0, 0.0, 0.0, 0.0, -1899.8312234677344, 0.0]
['beep', 0.0, 692.6135054365999, 0.0, 0.0, 0.0, 0.0, -3331.70632501916, 0.0]
['beep', 0.0, 718.2509563268371, 0.0, 0.0, 0.0, 0.0, -3347.4419531156964, 0.0]
['beep', 0.0, 661.7010428549103, 0.0, 0.0, 0.0, 0.0, -2533.816103198064, 0.0]
['beep', 0.0, 143.29703370297358, 0.0, 0.0, 0.0, 0.0, -598.8255857021315, 0.0]
['beep', 0.0, 461.3400055575378, 0.0, 0.0, 0.0, 0.0, -1893.5503832757931, 0.0]
['beep', 0.0, 692.9264298589743, 0.0, 0.0, 0.0, 0.0, -3331.7957319969814, 0.0]
['beep', 0.0, 715.769912692298, 0.0, 0.0, 0.0, 0.0, -3352.1134677068553, 0.0]
['beep', 0.0, 662.840981822131, 0.0, 0.0, 0.0, 0.0, -2544.880216703441, 0.0]
['beep', 0.0, 145.08517325939815, 0.0, 0.0, 0.0, 0.0, -603.2065276153717, 0.0]
['beep', 0.0, 460.28947356813836, 0.0, 0.0, 0.0, 0.0, -1887.9847989064217, 0.0]
['beep', 0.0, 692.255877525315, 0.0, 0.0, 0.0, 0.0, -3325.291374360487, 0.0]
['beep', 0.0, 718.9662121494069, 0.0, 0.0, 0.0, 0.0, -3346.7937525264924, 0.0]
['beep', 0.0, 663.8244585781645, 0.0, 0.0, 0.0, 0.0, -2544.142609136416, 0.0]
['beep', 0.0, 144.8840075593004, 0.0, 0.0, 0.0, 0.0, -605.2852398497153, 0.0]
['beep', 0.0, 461.87644742446514, 0.0, 0.0, 0.0, 0.0, -1888.1859646065195, 0.0]
['beep', 0.0, 692.255877525315, 0.0, 0.0, 0.0, 0.0, -3332.913319219747, 0.0]
['beep', 0.0, 718.2733080712925, 0.0, 0.0, 0.0, 0.0, -3352.2699299180426, 0.0]
['beep', 0.0, 666.8866475685415, 0.0, 0.0, 0.0, 0.0, -2552.032774929139, 0.0]
['beep', 0.0, 146.58274013790373, 0.0, 0.0, 0.0, 0.0, -609.0179811737515, 0.0]
['beep', 0.0, 462.3681858024819, 0.0, 0.0, 0.0, 0.0, -1886.6660459835584, 0.0]
['beep', 0.0, 695.4745287268793, 0.0, 0.0, 0.0, 0.0, -3329.5382058069954, 0.0]
['beep', 0.0, 719.6367644830661, 0.0, 0.0, 0.0, 0.0, -3350.928825250724, 0.0]
['beep', 0.0, 669.3006359697147, 0.0, 0.0, 0.0, 0.0, -2554.3797080969466, 0.0]
['beep', 0.0, 147.61092038284784, 0.0, 0.0, 0.0, 0.0, -610.1132166520616, 0.0]
['beep', 0.0, 461.8093921910992, 0.0, 0.0, 0.0, 0.0, -1876.294836556296, 0.0]
['beep', 0.0, 697.8214618946865, 0.0, 0.0, 0.0, 0.0, -3324.9560981936575, 0.0]
['beep', 0.0, 721.3578488061248, 0.0, 0.0, 0.0, 0.0, -3352.739316551604, 0.0]
['beep', 0.0, 669.4123946919913, 0.0, 0.0, 0.0, 0.0, -2560.101754677505, 0.0]
['beep', 0.0, 147.20858898265232, 0.0, 0.0, 0.0, 0.0, -610.1802718854275, 0.0]
['beep', 0.0, 460.28947356813836, 0.0, 0.0, 0.0, 0.0, -1873.8361446662122, 0.0]
['beep', 0.0, 696.6591711830106, 0.0, 0.0, 0.0, 0.0, -3333.4050575977635, 0.0]
['beep', 0.0, 722.2072150954265, 0.0, 0.0, 0.0, 0.0, -3356.4944096200957, 0.0]
['beep', 0.0, 670.5746854036672, 0.0, 0.0, 0.0, 0.0, -2559.4312023438456, 0.0]
['beep', 0.0, 146.8062575824568, 0.0, 0.0, 0.0, 0.0, -607.9450974398968, 0.0]
['beep', 0.0, 457.3390433000378, 0.0, 0.0, 0.0, 0.0, -1858.6816619255142, 0.0]
['beep', 0.0, 698.0673310836949, 0.0, 0.0, 0.0, 0.0, -3319.815196968937, 0.0]
['beep', 0.0, 721.3131453172142, 0.0, 0.0, 0.0, 0.0, -3349.6994793056824, 0.0]
['beep', 0.0, 668.9430080584298, 0.0, 0.0, 0.0, 0.0, -2558.5371325656333, 0.0]
['beep', 0.0, 145.8898360597892, 0.0, 0.0, 0.0, 0.0, -605.195832871894, 0.0]
['beep', 0.0, 453.7404124427334, 0.0, 0.0, 0.0, 0.0, -1854.524237456827, 0.0]
['beep', 0.0, 697.7767584057759, 0.0, 0.0, 0.0, 0.0, -3331.8851389748024, 0.0]
['beep', 0.0, 720.3743720500913, 0.0, 0.0, 0.0, 0.0, -3357.9249212652353, 0.0]
['beep', 0.0, 668.8536010806085, 0.0, 0.0, 0.0, 0.0, -2561.17463841136, 0.0]
['beep', 0.0, 145.3086907039512, 0.0, 0.0, 0.0, 0.0, -602.8936031929974, 0.0]
['beep', 0.0, 451.9299211418535, 0.0, 0.0, 0.0, 0.0, -1838.6992023824696, 0.0]
['beep', 0.0, 692.0994153141279, 0.0, 0.0, 0.0, 0.0, -3316.8647667008363, 0.0]
['beep', 0.0, 710.4278457674797, 0.0, 0.0, 0.0, 0.0, -3348.9842234831126, 0.0]
['beep', 0.0, 658.4823916533461, 0.0, 0.0, 0.0, 0.0, -2557.0842691760386, 0.0]
['beep', 0.0, 140.90539704625573, 0.0, 0.0, 0.0, 0.0, -597.4174258014472, 0.0]
['beep', 0.0, 435.8143133895771, 0.0, 0.0, 0.0, 0.0, -1825.4893214093831, 0.0]
['beep', 0.0, 672.0499005377175, 0.0, 0.0, 0.0, 0.0, -3317.1553393787553, 0.0]
['beep', 0.0, 697.5308892167675, 0.0, 0.0, 0.0, 0.0, -3349.90064500578, 0.0]
['beep', 0.0, 651.12866772755, 0.0, 0.0, 0.0, 0.0, -2553.642100529921, 0.0]
['beep', 0.0, 138.80433306745687, 0.0, 0.0, 0.0, 0.0, -592.7012077213774, 0.0]
['beep', 0.0, 434.04852557760785, 0.0, 0.0, 0.0, 0.0, -1814.4475596484615, 0.0]
['beep', 0.0, 675.5591244172007, 0.0, 0.0, 0.0, 0.0, -3321.268060358532, 0.0]
['beep', 0.0, 700.9730578628848, 0.0, 0.0, 0.0, 0.0, -3354.683918319216, 0.0]
['beep', 0.0, 651.5309991277455, 0.0, 0.0, 0.0, 0.0, -2554.4691150747676, 0.0]
['beep', 0.0, 137.15030397776414, 0.0, 0.0, 0.0, 0.0, -587.2473820742824, 0.0]
['beep', 0.0, 431.32161275406037, 0.0, 0.0, 0.0, 0.0, -1799.6730565635035, 0.0]
['beep', 0.0, 678.5989616631224, 0.0, 0.0, 0.0, 0.0, -3314.651943999761, 0.0]
['beep', 0.0, 704.5493369757339, 0.0, 0.0, 0.0, 0.0, -3352.068764217945, 0.0]
['beep', 0.0, 653.9226357844634, 0.0, 0.0, 0.0, 0.0, -2555.229074386248, 0.0]
['beep', 0.0, 137.55263537795966, 0.0, 0.0, 0.0, 0.0, -586.5768297406232, 0.0]
['beep', 0.0, 432.1933307878174, 0.0, 0.0, 0.0, 0.0, -1789.3241988806963, 0.0]
['beep', 0.0, 684.2316012658598, 0.0, 0.0, 0.0, 0.0, -3310.829795697903, 0.0]
['beep', 0.0, 707.9020986440299, 0.0, 0.0, 0.0, 0.0, -3349.3865548833082, 0.0]
['beep', 0.0, 656.3589759300919, 0.0, 0.0, 0.0, 0.0, -2558.358318609991, 0.0]
['beep', 0.0, 137.93261503369988, 0.0, 0.0, 0.0, 0.0, -588.0967483635841, 0.0]
['beep', 0.0, 432.12627555445147, 0.0, 0.0, 0.0, 0.0, -1782.0822336771769, 0.0]
['beep', 0.0, 685.0139123217956, 0.0, 0.0, 0.0, 0.0, -3309.9133741752357, 0.0]
['beep', 0.0, 708.8632236556082, 0.0, 0.0, 0.0, 0.0, -3352.1134677068553, 0.0]
['beep', 0.0, 657.0518800082065, 0.0, 0.0, 0.0, 0.0, -2558.7606500101865, 0.0]
['beep', 0.0, 137.26206270004067, 0.0, 0.0, 0.0, 0.0, -585.5486494956791, 0.0]
['beep', 0.0, 428.66175516387887, 0.0, 0.0, 0.0, 0.0, -1772.0910039056546, 0.0]
['beep', 0.0, 684.1868977769492, 0.0, 0.0, 0.0, 0.0, -3310.1815951086996, 0.0]
['beep', 0.0, 709.4667207559015, 0.0, 0.0, 0.0, 0.0, -3354.795677041492, 0.0]
['beep', 0.0, 656.7166038413768, 0.0, 0.0, 0.0, 0.0, -2564.0580134460943, 0.0]
['beep', 0.0, 137.26206270004067, 0.0, 0.0, 0.0, 0.0, -587.0909198630953, 0.0]
['beep', 0.0, 428.57234818605764, 0.0, 0.0, 0.0, 0.0, -1770.1911056269535, 0.0]
['beep', 0.0, 684.030435565762, 0.0, 0.0, 0.0, 0.0, -3316.7306562341046, 0.0]
['beep', 0.0, 706.2927730432478, 0.0, 0.0, 0.0, 0.0, -3352.448743873685, 0.0]
['beep', 0.0, 657.8788945530528, 0.0, 0.0, 0.0, 0.0, -2564.750917524209, 0.0]
['beep', 0.0, 138.42435341171665, 0.0, 0.0, 0.0, 0.0, -588.7002454638774, 0.0]
['beep', 0.0, 425.688973151323, 0.0, 0.0, 0.0, 0.0, -1761.5856840116603, 0.0]
['beep', 0.0, 684.4327669659575, 0.0, 0.0, 0.0, 0.0, -3306.873536929314, 0.0]
['beep', 0.0, 708.5726509776892, 0.0, 0.0, 0.0, 0.0, -3353.029889229523, 0.0]
['beep', 0.0, 658.2812259532483, 0.0, 0.0, 0.0, 0.0, -2568.997748970717, 0.0]
['beep', 0.0, 138.40200166726135, 0.0, 0.0, 0.0, 0.0, -590.1531088534724, 0.0]
['beep', 0.0, 425.08547605102973, 0.0, 0.0, 0.0, 0.0, -1756.8694659315904, 0.0]
['beep', 0.0, 683.2481245098263, 0.0, 0.0, 0.0, 0.0, -3311.2097753536436, 0.0]
['beep', 0.0, 705.7339794318652, 0.0, 0.0, 0.0, 0.0, -3361.635310844816, 0.0]
['beep', 0.0, 659.1752957314606, 0.0, 0.0, 0.0, 0.0, -2575.9267897518625, 0.0]
['beep', 0.0, 139.11725748983116, 0.0, 0.0, 0.0, 0.0, -592.2541728322713, 0.0]
['beep', 0.0, 425.44310396231464, 0.0, 0.0, 0.0, 0.0, -1750.208646083909, 0.0]
['beep', 0.0, 686.2209065223822, 0.0, 0.0, 0.0, 0.0, -3303.7889961944816, 0.0]
['beep', 0.0, 710.4278457674797, 0.0, 0.0, 0.0, 0.0, -3351.174694439733, 0.0]
['beep', 0.0, 665.2996737122147, 0.0, 0.0, 0.0, 0.0, -2577.066728719083, 0.0]
['beep', 0.0, 140.8383418128898, 0.0, 0.0, 0.0, 0.0, -594.8246234446316, 0.0]
['beep', 0.0, 426.15835978488445, 0.0, 0.0, 0.0, 0.0, -1750.5215705062833, 0.0]
['beep', 0.0, 691.0265315802732, 0.0, 0.0, 0.0, 0.0, -3315.009571911046, 0.0]
['beep', 0.0, 708.9526306334294, 0.0, 0.0, 0.0, 0.0, -3357.9249212652353, 0.0]
['beep', 0.0, 666.0596330236951, 0.0, 0.0, 0.0, 0.0, -2580.911228765396, 0.0]
['beep', 0.0, 141.7771150800127, 0.0, 0.0, 0.0, 0.0, -595.5622310116566, 0.0]
['beep', 0.0, 428.0582580635856, 0.0, 0.0, 0.0, 0.0, -1738.272814544775, 0.0]
['beep', 0.0, 699.4754909843792, 0.0, 0.0, 0.0, 0.0, -3301.8443944268697, 0.0]
['beep', 0.0, 720.8214069391975, 0.0, 0.0, 0.0, 0.0, -3355.1086014638668, 0.0]
['beep', 0.0, 672.9439703159297, 0.0, 0.0, 0.0, 0.0, -2583.8169555445857, 0.0]
['beep', 0.0, 142.91705404723336, 0.0, 0.0, 0.0, 0.0, -594.5787542556232, 0.0]
['beep', 0.0, 427.81238887457715, 0.0, 0.0, 0.0, 0.0, -1731.8355121416466, 0.0]
['beep', 0.0, 700.8165956516976, 0.0, 0.0, 0.0, 0.0, -3309.779263708504, 0.0]
['beep', 0.0, 721.7601802063203, 0.0, 0.0, 0.0, 0.0, -3362.350566667386, 0.0]
['beep', 0.0, 674.642702894533, 0.0, 0.0, 0.0, 0.0, -2588.779042813664, 0.0]
['beep', 0.0, 143.0288127695099, 0.0, 0.0, 0.0, 0.0, -596.0539693896734, 0.0]
['beep', 0.0, 428.61705167496825, 0.0, 0.0, 0.0, 0.0, -1725.2640992717863, 0.0]
['beep', 0.0, 704.482281742368, 0.0, 0.0, 0.0, 0.0, -3302.671408971716, 0.0]
['beep', 0.0, 726.5881570086667, 0.0, 0.0, 0.0, 0.0, -3355.086249719411, 0.0]
['beep', 0.0, 678.4201477074799, 0.0, 0.0, 0.0, 0.0, -2586.946199768329, 0.0]
['beep', 0.0, 143.27468195851827, 0.0, 0.0, 0.0, 0.0, -594.4893472778019, 0.0]
['beep', 0.0, 424.0796475505409, 0.0, 0.0, 0.0, 0.0, -1717.1727677789652, 0.0]
['beep', 0.0, 699.6990084289323, 0.0, 0.0, 0.0, 0.0, -3302.872574671814, 0.0]
['beep', 0.0, 719.8602819276192, 0.0, 0.0, 0.0, 0.0, -3358.99780499909, 0.0]
['beep', 0.0, 671.9381418154409, 0.0, 0.0, 0.0, 0.0, -2592.9364672823513, 0.0]
['beep', 0.0, 141.53124589100432, 0.0, 0.0, 0.0, 0.0, -593.3717600550366, 0.0]
['beep', 0.0, 421.1962725158063, 0.0, 0.0, 0.0, 0.0, -1704.8122530951803, 0.0]
['beep', 0.0, 702.224755552382, 0.0, 0.0, 0.0, 0.0, -3303.520775261018, 0.0]
['beep', 0.0, 723.2800988292812, 0.0, 0.0, 0.0, 0.0, -3359.936578266213, 0.0]
['beep', 0.0, 674.1509645165163, 0.0, 0.0, 0.0, 0.0, -2590.433071903357, 0.0]
['beep', 0.0, 140.74893483506858, 0.0, 0.0, 0.0, 0.0, -590.3989780424807, 0.0]
['beep', 0.0, 418.7822841146331, 0.0, 0.0, 0.0, 0.0, -1692.9658285338676, 0.0]
['beep', 0.0, 702.8282526526752, 0.0, 0.0, 0.0, 0.0, -3299.676275214705, 0.0]
['beep', 0.0, 724.3753343075913, 0.0, 0.0, 0.0, 0.0, -3359.646005588294, 0.0]
['beep', 0.0, 676.4308424509576, 0.0, 0.0, 0.0, 0.0, -2591.0589207481053, 0.0]
['beep', 0.0, 140.90539704625573, 0.0, 0.0, 0.0, 0.0, -588.0520448746735, 0.0]
['beep', 0.0, 417.88821433642084, 0.0, 0.0, 0.0, 0.0, -1682.2146394508648, 0.0]
['beep', 0.0, 704.3705230200915, 0.0, 0.0, 0.0, 0.0, -3297.2399350690766, 0.0]
['beep', 0.0, 726.4093430530243, 0.0, 0.0, 0.0, 0.0, -3356.42735438673, 0.0]
['beep', 0.0, 675.6038279061113, 0.0, 0.0, 0.0, 0.0, -2584.0628247335944, 0.0]
['beep', 0.0, 139.11725748983116, 0.0, 0.0, 0.0, 0.0, -582.0617773606513, 0.0]
['beep', 0.0, 413.48492067872536, 0.0, 0.0, 0.0, 0.0, -1671.172877689943, 0.0]
['beep', 0.0, 703.6552671975217, 0.0, 0.0, 0.0, 0.0, -3300.1680135927218, 0.0]
['beep', 0.0, 727.1469506200493, 0.0, 0.0, 0.0, 0.0, -3359.9812817551237, 0.0]
['beep', 0.0, 674.7768133612649, 0.0, 0.0, 0.0, 0.0, -2586.3427026680356, 0.0]
['beep', 0.0, 138.75962957854625, 0.0, 0.0, 0.0, 0.0, -581.7265011938216, 0.0]
['beep', 0.0, 412.3449817115047, 0.0, 0.0, 0.0, 0.0, -1663.1709531749432, 0.0]
['beep', 0.0, 705.9574968764183, 0.0, 0.0, 0.0, 0.0, -3293.84246991187, 0.0]
['beep', 0.0, 728.2421860983594, 0.0, 0.0, 0.0, 0.0, -3358.774287554537, 0.0]
['beep', 0.0, 676.4308424509576, 0.0, 0.0, 0.0, 0.0, -2589.829574803063, 0.0]
['beep', 0.0, 139.13960923428647, 0.0, 0.0, 0.0, 0.0, -581.8606116605534, 0.0]
['beep', 0.0, 409.8862898214209, 0.0, 0.0, 0.0, 0.0, -1658.3876798615074, 0.0]
['beep', 0.0, 705.0187236092954, 0.0, 0.0, 0.0, 0.0, -3298.4692810141187, 0.0]
['beep', 0.0, 728.2421860983594, 0.0, 0.0, 0.0, 0.0, -3362.7305463231264, 0.0]
['beep', 0.0, 676.9896360623403, 0.0, 0.0, 0.0, 0.0, -2594.814013816597, 0.0]
['beep', 0.0, 139.38547842329484, 0.0, 0.0, 0.0, 0.0, -583.134661094506, 0.0]
['beep', 0.0, 410.06510377706337, 0.0, 0.0, 0.0, 0.0, -1651.5703978026388, 0.0]
['beep', 0.0, 704.2140608089043, 0.0, 0.0, 0.0, 0.0, -3295.1165193458223, 0.0]
['beep', 0.0, 726.2081773529264, 0.0, 0.0, 0.0, 0.0, -3366.0386045025116, 0.0]
['beep', 0.0, 679.448327952424, 0.0, 0.0, 0.0, 0.0, -2600.357246441513, 0.0]
['beep', 0.0, 140.88304530180042, 0.0, 0.0, 0.0, 0.0, -586.777995440721, 0.0]
['beep', 0.0, 407.3158392090606, 0.0, 0.0, 0.0, 0.0, -1649.2011128903764, 0.0]
['beep', 0.0, 702.157700319016, 0.0, 0.0, 0.0, 0.0, -3294.1777460787, 0.0]
['beep', 0.0, 720.933165661474, 0.0, 0.0, 0.0, 0.0, -3357.7908107985036, 0.0]
['beep', 0.0, 674.2627232387929, 0.0, 0.0, 0.0, 0.0, -2601.9218685533847, 0.0]
['beep', 0.0, 140.65952785724735, 0.0, 0.0, 0.0, 0.0, -590.0637018756512, 0.0]
['beep', 0.0, 406.7570455976779, 0.0, 0.0, 0.0, 0.0, -1644.8425227215914, 0.0]
['beep', 0.0, 700.8165956516976, 0.0, 0.0, 0.0, 0.0, -3290.22148731011, 0.0]
['beep', 0.0, 720.352020305636, 0.0, 0.0, 0.0, 0.0, -3362.350566667386, 0.0]
['beep', 0.0, 676.3414354731364, 0.0, 0.0, 0.0, 0.0, -2612.941278569851, 0.0]
['beep', 0.0, 141.8441703133786, 0.0, 0.0, 0.0, 0.0, -593.3494083105813, 0.0]
['beep', 0.0, 405.0806647635299, 0.0, 0.0, 0.0, 0.0, -1638.9416621853904, 0.0]
['beep', 0.0, 702.0459415967396, 0.0, 0.0, 0.0, 0.0, -3290.266190799021, 0.0]
['beep', 0.0, 722.2519185843371, 0.0, 0.0, 0.0, 0.0, -3358.7966392989924, 0.0]
['beep', 0.0, 676.7884703622426, 0.0, 0.0, 0.0, 0.0, -2607.8674325784964, 0.0]
['beep', 0.0, 141.08421100189818, 0.0, 0.0, 0.0, 0.0, -592.16476585445, 0.0]
['beep', 0.0, 403.42663567383715, 0.0, 0.0, 0.0, 0.0, -1633.8454644495803, 0.0]
['beep', 0.0, 700.4589677404127, 0.0, 0.0, 0.0, 0.0, -3291.1379088327776, 0.0]
['beep', 0.0, 720.2626133278147, 0.0, 0.0, 0.0, 0.0, -3361.232979444621, 0.0]
['beep', 0.0, 677.2802087402594, 0.0, 0.0, 0.0, 0.0, -2611.5331186691665, 0.0]
['beep', 0.0, 141.64300461328085, 0.0, 0.0, 0.0, 0.0, -593.5282222662238, 0.0]
['beep', 0.0, 402.04082751760814, 0.0, 0.0, 0.0, 0.0, -1627.9893074022898, 0.0]
['beep', 0.0, 700.9730578628848, 0.0, 0.0, 0.0, 0.0, -3288.455699498141, 0.0]
['beep', 0.0, 720.6872964724656, 0.0, 0.0, 0.0, 0.0, -3362.350566667386, 0.0]
['beep', 0.0, 676.6320081510554, 0.0, 0.0, 0.0, 0.0, -2618.462159450312, 0.0]
['beep', 0.0, 142.06768775793168, 0.0, 0.0, 0.0, 0.0, -596.3221903231371, 0.0]
['beep', 0.0, 399.69389434980087, 0.0, 0.0, 0.0, 0.0, -1620.8367491765916, 0.0]
['beep', 0.0, 699.8554706401194, 0.0, 0.0, 0.0, 0.0, -3287.2710570420095, 0.0]
['beep', 0.0, 720.0837993721723, 0.0, 0.0, 0.0, 0.0, -3365.613921357861, 0.0]
['beep', 0.0, 676.7884703622426, 0.0, 0.0, 0.0, 0.0, -2620.786740873664, 0.0]
['beep', 0.0, 142.62648136931438, 0.0, 0.0, 0.0, 0.0, -597.842108946098, 0.0]
['beep', 0.0, 397.95045828228695, 0.0, 0.0, 0.0, 0.0, -1616.4111037744408, 0.0]
['beep', 0.0, 697.3967787500357, 0.0, 0.0, 0.0, 0.0, -3285.348807018853, 0.0]
['beep', 0.0, 717.3121830597142, 0.0, 0.0, 0.0, 0.0, -3363.9151887792577, 0.0]
['beep', 0.0, 675.7155866283878, 0.0, 0.0, 0.0, 0.0, -2624.5194821977, 0.0]
['beep', 0.0, 142.3582604358507, 0.0, 0.0, 0.0, 0.0, -598.5126612797573, 0.0]
['beep', 0.0, 395.5811733700244, 0.0, 0.0, 0.0, 0.0, -1609.0797315931002, 0.0]
['beep', 0.0, 697.5085374723122, 0.0, 0.0, 0.0, 0.0, -3289.193307065166, 0.0]
['beep', 0.0, 717.3345348041696, 0.0, 0.0, 0.0, 0.0, -3367.0444330030004, 0.0]
['beep', 0.0, 675.9614558173962, 0.0, 0.0, 0.0, 0.0, -2625.8605868650184, 0.0]
['beep', 0.0, 142.04533601347637, 0.0, 0.0, 0.0, 0.0, -598.8926409354974, 0.0]
['beep', 0.0, 392.18370821281775, 0.0, 0.0, 0.0, 0.0, -1599.1108535660333, 0.0]
['beep', 0.0, 696.837985138653, 0.0, 0.0, 0.0, 0.0, -3280.6996441721494, 0.0]
['beep', 0.0, 722.4977877733455, 0.0, 0.0, 0.0, 0.0, -3364.80925855747, 0.0]
['beep', 0.0, 681.7058541424101, 0.0, 0.0, 0.0, 0.0, -2624.810054875619, 0.0]
['beep', 0.0, 142.42531566921662, 0.0, 0.0, 0.0, 0.0, -594.8246234446316, 0.0]
['beep', 0.0, 396.36348442596017, 0.0, 0.0, 0.0, 0.0, -1585.342178981564, 0.0]
['beep', 0.0, 711.031342867773, 0.0, 0.0, 0.0, 0.0, -3278.531524959985, 0.0]
['beep', 0.0, 731.8855204445745, 0.0, 0.0, 0.0, 0.0, -3356.6061683423723, 0.0]
['beep', 0.0, 687.1149763005944, 0.0, 0.0, 0.0, 0.0, -2617.3669239720016, 0.0]
['beep', 0.0, 142.51472264703784, 0.0, 0.0, 0.0, 0.0, -590.2425158312936, 0.0]
['beep', 0.0, 393.48010939122554, 0.0, 0.0, 0.0, 0.0, -1573.696920120349, 0.0]
['beep', 0.0, 712.1489300905383, 0.0, 0.0, 0.0, 0.0, -3277.928027859691, 0.0]
['beep', 0.0, 733.7630669788202, 0.0, 0.0, 0.0, 0.0, -3360.80829629997, 0.0]
['beep', 0.0, 685.5056506998123, 0.0, 0.0, 0.0, 0.0, -2616.6963716383425, 0.0]
['beep', 0.0, 140.19014122368588, 0.0, 0.0, 0.0, 0.0, -584.3193035506372, 0.0]
['beep', 0.0, 388.272152933139, 0.0, 0.0, 0.0, 0.0, -1554.3850129109637, 0.0]
['beep', 0.0, 712.6183167240998, 0.0, 0.0, 0.0, 0.0, -3268.2497225105435, 0.0]
['beep', 0.0, 735.8194274687085, 0.0, 0.0, 0.0, 0.0, -3352.448743873685, 0.0]
['beep', 0.0, 686.4444239669352, 0.0, 0.0, 0.0, 0.0, -2611.331952969069, 0.0]
['beep', 0.0, 139.29607144547361, 0.0, 0.0, 0.0, 0.0, -579.0889953480954, 0.0]
['beep', 0.0, 385.433481387315, 0.0, 0.0, 0.0, 0.0, -1534.3578498790087, 0.0]
['beep', 0.0, 714.7417324473539, 0.0, 0.0, 0.0, 0.0, -3262.594731163351, 0.0]
['beep', 0.0, 739.5521687927447, 0.0, 0.0, 0.0, 0.0, -3357.2767206760313, 0.0]
['beep', 0.0, 685.6174094220888, 0.0, 0.0, 0.0, 0.0, -2610.1696622573927, 0.0]
['beep', 0.0, 137.3067661889513, 0.0, 0.0, 0.0, 0.0, -573.9927976122854, 0.0]
['beep', 0.0, 382.52775460812506, 0.0, 0.0, 0.0, 0.0, -1524.0983991740227, 0.0]
['beep', 0.0, 713.2665173133037, 0.0, 0.0, 0.0, 0.0, -3264.427574208686, 0.0]
['beep', 0.0, 738.0322501697839, 0.0, 0.0, 0.0, 0.0, -3356.1144299643556, 0.0]
['beep', 0.0, 683.7622146322983, 0.0, 0.0, 0.0, 0.0, -2608.806205845619, 0.0]
['beep', 0.0, 135.4962748880714, 0.0, 0.0, 0.0, 0.0, -570.5729807106234, 0.0]
['beep', 0.0, 378.2809231616167, 0.0, 0.0, 0.0, 0.0, -1509.3685995779754, 0.0]
['beep', 0.0, 712.0595231127171, 0.0, 0.0, 0.0, 0.0, -3261.0971642848453, 0.0]
['beep', 0.0, 737.674622258499, 0.0, 0.0, 0.0, 0.0, -3358.7966392989924, 0.0]
['beep', 0.0, 684.097490799128, 0.0, 0.0, 0.0, 0.0, -2608.1580052564154, 0.0]
['beep', 0.0, 135.51862663252672, 0.0, 0.0, 0.0, 0.0, -569.5895039545899, 0.0]
['beep', 0.0, 376.5374870941028, 0.0, 0.0, 0.0, 0.0, -1501.187861107333, 0.0]
['beep', 0.0, 713.8923661580523, 0.0, 0.0, 0.0, 0.0, -3256.3809462047752, 0.0]
['beep', 0.0, 739.3286513481917, 0.0, 0.0, 0.0, 0.0, -3359.5342468660174, 0.0]
['beep', 0.0, 685.2821332552593, 0.0, 0.0, 0.0, 0.0, -2615.0199908041945, 0.0]
['beep', 0.0, 135.36216442133957, 0.0, 0.0, 0.0, 0.0, -570.103594077062, 0.0]
['beep', 0.0, 375.1293271934184, 0.0, 0.0, 0.0, 0.0, -1490.77194819116, 0.0]
['beep', 0.0, 717.222776081893, 0.0, 0.0, 0.0, 0.0, -3255.4421729376522, 0.0]
['beep', 0.0, 742.5920060386666, 0.0, 0.0, 0.0, 0.0, -3360.8529997888804, 0.0]
['beep', 0.0, 687.4055489785134, 0.0, 0.0, 0.0, 0.0, -2615.198804759837, 0.0]
['beep', 0.0, 135.89860628826693, 0.0, 0.0, 0.0, 0.0, -570.5729807106234, 0.0]
['beep', 0.0, 372.51417309214753, 0.0, 0.0, 0.0, 0.0, -1485.2287155662436, 0.0]
['beep', 0.0, 715.5687469922003, 0.0, 0.0, 0.0, 0.0, -3257.07385028289, 0.0]
['beep', 0.0, 740.8932734600633, 0.0, 0.0, 0.0, 0.0, -3362.9764155121347, 0.0]
['beep', 0.0, 685.5727059331782, 0.0, 0.0, 0.0, 0.0, -2615.914060582407, 0.0]
['beep', 0.0, 135.65273709925856, 0.0, 0.0, 0.0, 0.0, -570.3941667549809, 0.0]
['beep', 0.0, 371.15071668037376, 0.0, 0.0, 0.0, 0.0, -1476.9809218622354, 0.0]
['beep', 0.0, 715.8593196701192, 0.0, 0.0, 0.0, 0.0, -3251.530617657974, 0.0]
['beep', 0.0, 741.0497356712503, 0.0, 0.0, 0.0, 0.0, -3359.020156743545, 0.0]
['beep', 0.0, 685.6844646554548, 0.0, 0.0, 0.0, 0.0, -2616.6740198938874, 0.0]
['beep', 0.0, 134.8033708099569, 0.0, 0.0, 0.0, 0.0, -568.8071928986541, 0.0]
['beep', 0.0, 367.1050509339632, 0.0, 0.0, 0.0, 0.0, -1465.2686077676544, 0.0]
['beep', 0.0, 714.0488283692395, 0.0, 0.0, 0.0, 0.0, -3256.3809462047752, 0.0]
['beep', 0.0, 740.8932734600633, 0.0, 0.0, 0.0, 0.0, -3367.9832062701234, 0.0]
['beep', 0.0, 686.1538512890162, 0.0, 0.0, 0.0, 0.0, -2619.8256158620857, 0.0]
['beep', 0.0, 134.60220510985914, 0.0, 0.0, 0.0, 0.0, -567.9801783538078, 0.0]
['beep', 0.0, 365.7415945221895, 0.0, 0.0, 0.0, 0.0, -1455.47854369623, 0.0]
['beep', 0.0, 715.8146161812086, 0.0, 0.0, 0.0, 0.0, -3251.485914169063, 0.0]
['beep', 0.0, 742.3237851052029, 0.0, 0.0, 0.0, 0.0, -3360.897703277791, 0.0]
['beep', 0.0, 686.0420925667397, 0.0, 0.0, 0.0, 0.0, -2615.4670256933005, 0.0]
['beep', 0.0, 133.64108009828092, 0.0, 0.0, 0.0, 0.0, -564.9179893634307, 0.0]
['beep', 0.0, 362.6794055318124, 0.0, 0.0, 0.0, 0.0, -1443.8556365794702, 0.0]
['beep', 0.0, 715.18876733646, 0.0, 0.0, 0.0, 0.0, -3245.1156669993006, 0.0]
['beep', 0.0, 740.8262182266973, 0.0, 0.0, 0.0, 0.0, -3366.0386045025116, 0.0]
['beep', 0.0, 685.3044849997145, 0.0, 0.0, 0.0, 0.0, -2623.580708930577, 0.0]
['beep', 0.0, 134.11046673184237, 0.0, 0.0, 0.0, 0.0, -566.2143905418385, 0.0]
['beep', 0.0, 359.39369909688224, 0.0, 0.0, 0.0, 0.0, -1434.8478835639817, 0.0]
['beep', 0.0, 713.6464969690439, 0.0, 0.0, 0.0, 0.0, -3242.5899198758507, 0.0]
['beep', 0.0, 740.4909420598677, 0.0, 0.0, 0.0, 0.0, -3361.3670899113527, 0.0]
['beep', 0.0, 685.4162437219911, 0.0, 0.0, 0.0, 0.0, -2617.836310605563, 0.0]
['beep', 0.0, 133.39521090927255, 0.0, 0.0, 0.0, 0.0, -564.3815474965033, 0.0]
['beep', 0.0, 357.3149868625387, 0.0, 0.0, 0.0, 0.0, -1427.8741392939257, 0.0]
['beep', 0.0, 717.0216103817953, 0.0, 0.0, 0.0, 0.0, -3245.316832699398, 0.0]
['beep', 0.0, 746.6153200406218, 0.0, 0.0, 0.0, 0.0, -3368.2514272035874, 0.0]
['beep', 0.0, 688.1655082899938, 0.0, 0.0, 0.0, 0.0, -2627.648726421443, 0.0]
['beep', 0.0, 134.4904463875826, 0.0, 0.0, 0.0, 0.0, -567.7566609092547, 0.0]
['beep', 0.0, 358.9019607188655, 0.0, 0.0, 0.0, 0.0, -1423.7614183141493, 0.0]
['beep', 0.0, 720.4190755390019, 0.0, 0.0, 0.0, 0.0, -3243.841617565348, 0.0]
['beep', 0.0, 745.7659537513201, 0.0, 0.0, 0.0, 0.0, -3366.128011480333, 0.0]
['beep', 0.0, 687.1820315339603, 0.0, 0.0, 0.0, 0.0, -2629.7497904002416, 0.0]
['beep', 0.0, 134.64690859876976, 0.0, 0.0, 0.0, 0.0, -569.8800766325089, 0.0]
['beep', 0.0, 354.25279787216164, 0.0, 0.0, 0.0, 0.0, -1416.675915321817, 0.0]
['beep', 0.0, 713.221813824393, 0.0, 0.0, 0.0, 0.0, -3240.3770971747754, 0.0]
['beep', 0.0, 741.7873432382755, 0.0, 0.0, 0.0, 0.0, -3368.2290754591318, 0.0]
['beep', 0.0, 687.5843629341558, 0.0, 0.0, 0.0, 0.0, -2635.1812643028816, 0.0]
['beep', 0.0, 135.69744058816917, 0.0, 0.0, 0.0, 0.0, -573.0316726007071, 0.0]
['beep', 0.0, 354.8115914835443, 0.0, 0.0, 0.0, 0.0, -1413.3455053979762, 0.0]
['beep', 0.0, 716.2616510703148, 0.0, 0.0, 0.0, 0.0, -3239.9747657745797, 0.0]
['beep', 0.0, 744.514256061823, 0.0, 0.0, 0.0, 0.0, -3367.2679504475536, 0.0]
['beep', 0.0, 689.8642408685972, 0.0, 0.0, 0.0, 0.0, -2638.0199358487052, 0.0]
['beep', 0.0, 136.30093768846245, 0.0, 0.0, 0.0, 0.0, -574.3727772680256, 0.0]
['beep', 0.0, 353.00110018266446, 0.0, 0.0, 0.0, 0.0, -1406.3494093834652, 0.0]
['beep', 0.0, 717.289831315259, 0.0, 0.0, 0.0, 0.0, -3234.1633122162, 0.0]
['beep', 0.0, 744.1789798949933, 0.0, 0.0, 0.0, 0.0, -3362.4623253896625, 0.0]
['beep', 0.0, 690.7583106468095, 0.0, 0.0, 0.0, 0.0, -2637.6623079374203, 0.0]
['beep', 0.0, 136.85973129984515, 0.0, 0.0, 0.0, 0.0, -575.6468267019781, 0.0]
['beep', 0.0, 351.52588504861416, 0.0, 0.0, 0.0, 0.0, -1399.2415546466775, 0.0]
['beep', 0.0, 716.1051888591277, 0.0, 0.0, 0.0, 0.0, -3239.9524140301246, 0.0]
['beep', 0.0, 744.9389392064738, 0.0, 0.0, 0.0, 0.0, -3373.414680172763, 0.0]
['beep', 0.0, 691.3841594915581, 0.0, 0.0, 0.0, 0.0, -2645.6195289635098, 0.0]
['beep', 0.0, 136.92678653321107, 0.0, 0.0, 0.0, 0.0, -577.3008557916709, 0.0]
['beep', 0.0, 349.20130362526226, 0.0, 0.0, 0.0, 0.0, -1391.3737405984093, 0.0]
['beep', 0.0, 715.546395247745, 0.0, 0.0, 0.0, 0.0, -3234.565643616396, 0.0]
['beep', 0.0, 745.2742153733034, 0.0, 0.0, 0.0, 0.0, -3372.1182789943555, 0.0]
['beep', 0.0, 691.2947525137369, 0.0, 0.0, 0.0, 0.0, -2648.458200509334, 0.0]
['beep', 0.0, 137.0161935110323, 0.0, 0.0, 0.0, 0.0, -577.3232075361261, 0.0]
['beep', 0.0, 348.30723384705, 0.0, 0.0, 0.0, 0.0, -1384.936438195281, 0.0]
['beep', 0.0, 718.2509563268371, 0.0, 0.0, 0.0, 0.0, -3233.8280360493704, 0.0]
['beep', 0.0, 747.1741136520045, 0.0, 0.0, 0.0, 0.0, -3369.5701801264504, 0.0]
['beep', 0.0, 693.0158368367955, 0.0, 0.0, 0.0, 0.0, -2645.0607353521273, 0.0]
['beep', 0.0, 137.48558014459374, 0.0, 0.0, 0.0, 0.0, -576.6526552024669, 0.0]
['beep', 0.0, 347.4578675577483, 0.0, 0.0, 0.0, 0.0, -1377.3368450804765, 0.0]
['beep', 0.0, 718.4744737713902, 0.0, 0.0, 0.0, 0.0, -3234.4315331496637, 0.0]
['beep', 0.0, 748.3587561081358, 0.0, 0.0, 0.0, 0.0, -3372.5653138834614, 0.0]
['beep', 0.0, 694.2228310373821, 0.0, 0.0, 0.0, 0.0, -2649.061697609627, 0.0]
['beep', 0.0, 138.11142898934233, 0.0, 0.0, 0.0, 0.0, -577.9714081253301, 0.0]
['beep', 0.0, 344.8650652009327, 0.0, 0.0, 0.0, 0.0, -1368.7314234651833, 0.0]
['beep', 0.0, 719.8155784387086, 0.0, 0.0, 0.0, 0.0, -3230.318812169887, 0.0]
['beep', 0.0, 751.4880003318788, 0.0, 0.0, 0.0, 0.0, -3374.420508673252, 0.0]
['beep', 0.0, 693.5746304481781, 0.0, 0.0, 0.0, 0.0, -2654.314357556624, 0.0]
['beep', 0.0, 137.0385452554876, 0.0, 0.0, 0.0, 0.0, -579.4913267482909, 0.0]
['beep', 0.0, 339.2547773426506, 0.0, 0.0, 0.0, 0.0, -1363.478763518186, 0.0]
['beep', 0.0, 708.4832439998679, 0.0, 0.0, 0.0, 0.0, -3226.87664352377, 0.0]
['beep', 0.0, 737.4064013250353, 0.0, 0.0, 0.0, 0.0, -3368.6537586037825, 0.0]
['beep', 0.0, 685.7962233777313, 0.0, 0.0, 0.0, 0.0, -2652.772087189208, 0.0]
['beep', 0.0, 136.41269641073902, 0.0, 0.0, 0.0, 0.0, -580.7206726933327, 0.0]
['beep', 0.0, 335.63379474089083, 0.0, 0.0, 0.0, 0.0, -1354.4933622471526, 0.0]
['beep', 0.0, 705.7116276874099, 0.0, 0.0, 0.0, 0.0, -3225.043800478435, 0.0]
['beep', 0.0, 738.3004711032476, 0.0, 0.0, 0.0, 0.0, -3371.6935958497047, 0.0]
['beep', 0.0, 687.2267350228709, 0.0, 0.0, 0.0, 0.0, -2658.7623547032304, 0.0]
['beep', 0.0, 136.92678653321107, 0.0, 0.0, 0.0, 0.0, -582.0617773606513, 0.0]
['beep', 0.0, 334.2479865846618, 0.0, 0.0, 0.0, 0.0, -1349.5312749780746, 0.0]
['beep', 0.0, 706.5833457211669, 0.0, 0.0, 0.0, 0.0, -3227.726009813072, 0.0]
['beep', 0.0, 736.7358489913761, 0.0, 0.0, 0.0, 0.0, -3375.649854618294, 0.0]
['beep', 0.0, 687.159679789505, 0.0, 0.0, 0.0, 0.0, -2659.902293670451, 0.0]
['beep', 0.0, 137.3291179334066, 0.0, 0.0, 0.0, 0.0, -583.06760586114, 0.0]
['beep', 0.0, 332.079867372497, 0.0, 0.0, 0.0, 0.0, -1343.74217316415, 0.0]
['beep', 0.0, 705.4881102428568, 0.0, 0.0, 0.0, 0.0, -3221.3110591543987, 0.0]
['beep', 0.0, 735.6182617686108, 0.0, 0.0, 0.0, 0.0, -3367.2679504475536, 0.0]
['beep', 0.0, 686.287961755748, 0.0, 0.0, 0.0, 0.0, -2659.2764448257026, 0.0]
['beep', 0.0, 137.7090975891468, 0.0, 0.0, 0.0, 0.0, -585.6604082179557, 0.0]
['beep', 0.0, 331.0516871275529, 0.0, 0.0, 0.0, 0.0, -1337.8860161168595, 0.0]
['beep', 0.0, 706.1139590876054, 0.0, 0.0, 0.0, 0.0, -3222.8309777773593, 0.0]
['beep', 0.0, 735.8864827020744, 0.0, 0.0, 0.0, 0.0, -3372.677072605738, 0.0]
['beep', 0.0, 687.3384937451475, 0.0, 0.0, 0.0, 0.0, -2667.591293763077, 0.0]
['beep', 0.0, 138.9384435341887, 0.0, 0.0, 0.0, 0.0, -590.4436815313913, 0.0]
['beep', 0.0, 329.6882307157792, 0.0, 0.0, 0.0, 0.0, -1331.73928639165, 0.0]
['beep', 0.0, 703.610563708611, 0.0, 0.0, 0.0, 0.0, -3216.8407102633373, 0.0]
['beep', 0.0, 734.6124332681219, 0.0, 0.0, 0.0, 0.0, -3371.5594853829725, 0.0]
['beep', 0.0, 685.5950576776336, 0.0, 0.0, 0.0, 0.0, -2671.4804972983, 0.0]
['beep', 0.0, 139.34077493438423, 0.0, 0.0, 0.0, 0.0, -593.5058705217684, 0.0]
['beep', 0.0, 327.9224429038099, 0.0, 0.0, 0.0, 0.0, -1328.4982834456305, 0.0]
['beep', 0.0, 701.2859822852591, 0.0, 0.0, 0.0, 0.0, -3213.0185619614795, 0.0]
['beep', 0.0, 730.6338227550773, 0.0, 0.0, 0.0, 0.0, -3367.223246958643, 0.0]
['beep', 0.0, 686.3773687335693, 0.0, 0.0, 0.0, 0.0, -2672.843953710074, 0.0]
['beep', 0.0, 139.72075459012444, 0.0, 0.0, 0.0, 0.0, -595.2493065892824, 0.0]
['beep', 0.0, 326.3354690474831, 0.0, 0.0, 0.0, 0.0, -1322.8432920984378, 0.0]
['beep', 0.0, 700.5260229737786, 0.0, 0.0, 0.0, 0.0, -3215.2537364070104, 0.0]
['beep', 0.0, 730.2985465882476, 0.0, 0.0, 0.0, 0.0, -3375.560447640473, 0.0]
['beep', 0.0, 687.673769911977, 0.0, 0.0, 0.0, 0.0, -2683.036349181694, 0.0]
['beep', 0.0, 140.95010053516634, 0.0, 0.0, 0.0, 0.0, -598.6244200020337, 0.0]
['beep', 0.0, 325.17317833580717, 0.0, 0.0, 0.0, 0.0, -1315.288402472544, 0.0]
['beep', 0.0, 702.2694590412926, 0.0, 0.0, 0.0, 0.0, -3205.933058969147, 0.0]
['beep', 0.0, 733.1148663896164, 0.0, 0.0, 0.0, 0.0, -3366.843267302903, 0.0]
['beep', 0.0, 687.6961216564324, 0.0, 0.0, 0.0, 0.0, -2679.2812561132023, 0.0]
['beep', 0.0, 140.90539704625573, 0.0, 0.0, 0.0, 0.0, -599.2726205912377, 0.0]
['beep', 0.0, 323.8320736684887, 0.0, 0.0, 0.0, 0.0, -1312.1368065043457, 0.0]
['beep', 0.0, 702.2024038079267, 0.0, 0.0, 0.0, 0.0, -3213.7338177840493, 0.0]
['beep', 0.0, 732.3996105670465, 0.0, 0.0, 0.0, 0.0, -3374.28639820652, 0.0]
['beep', 0.0, 687.8972873565301, 0.0, 0.0, 0.0, 0.0, -2683.4610323263446, 0.0]
['beep', 0.0, 141.57594937991493, 0.0, 0.0, 0.0, 0.0, -600.8372427031092, 0.0]
['beep', 0.0, 321.2616230561284, 0.0, 0.0, 0.0, 0.0, -1301.899707543815, 0.0]
['beep', 0.0, 701.6212584520887, 0.0, 0.0, 0.0, 0.0, -3204.659009535195, 0.0]
['beep', 0.0, 733.092514645161, 0.0, 0.0, 0.0, 0.0, -3370.352491182386, 0.0]
['beep', 0.0, 687.51730770079, 0.0, 0.0, 0.0, 0.0, -2687.0596631836493, 0.0]
['beep', 0.0, 141.4418389131831, 0.0, 0.0, 0.0, 0.0, -602.8041962151761, 0.0]
['beep', 0.0, 318.6241172104022, 0.0, 0.0, 0.0, 0.0, -1296.1553092188012, 0.0]
['beep', 0.0, 700.5036712293233, 0.0, 0.0, 0.0, 0.0, -3204.614306046284, 0.0]
['beep', 0.0, 734.4112675680242, 0.0, 0.0, 0.0, 0.0, -3372.8782383058356, 0.0]
['beep', 0.0, 688.903115857019, 0.0, 0.0, 0.0, 0.0, -2690.121852174026, 0.0]
['beep', 0.0, 142.04533601347637, 0.0, 0.0, 0.0, 0.0, -603.8770799490309, 0.0]
['beep', 0.0, 317.59593696545807, 0.0, 0.0, 0.0, 0.0, -1288.5110126150862, 0.0]
['beep', 0.0, 700.1460433180384, 0.0, 0.0, 0.0, 0.0, -3205.1507479132115, 0.0]
['beep', 0.0, 734.254805356837, 0.0, 0.0, 0.0, 0.0, -3377.8850290638247, 0.0]
['beep', 0.0, 689.2830955127592, 0.0, 0.0, 0.0, 0.0, -2692.9828754643054, 0.0]
['beep', 0.0, 142.06768775793168, 0.0, 0.0, 0.0, 0.0, -605.2852398497153, 0.0]
['beep', 0.0, 315.4948729866592, 0.0, 0.0, 0.0, 0.0, -1281.0008264781031, 0.0]
['beep', 0.0, 147.8344378274009, 0.0, 0.0, 0.0, 0.0, -614.9858969433185, 0.0]
['beep', 0.0, 301.8156053800113, 0.0, 0.0, 0.0, 0.0, -1203.9543633406597, 0.0]
['beep', 0.0, 695.161604304505, 0.0, 0.0, 0.0, 0.0, -3078.8633917407265, 0.0]
['beep', 0.0, 729.2256628543929, 0.0, 0.0, 0.0, 0.0, -3245.965033288602, 0.0]
['beep', 0.0, 692.7699676477871, 0.0, 0.0, 0.0, 0.0, -2623.42424671939, 0.0]
['beep', 0.0, 148.23676922759643, 0.0, 0.0, 0.0, 0.0, -610.2249753743381, 0.0]
['beep', 0.0, 298.64165766735766, 0.0, 0.0, 0.0, 0.0, -1186.4082439432436, 0.0]
['beep', 0.0, 689.6183716795888, 0.0, 0.0, 0.0, 0.0, -3025.196853303534, 0.0]
['beep', 0.0, 719.8155784387086, 0.0, 0.0, 0.0, 0.0, -3188.7892709719267, 0.0]
['beep', 0.0, 685.5727059331782, 0.0, 0.0, 0.0, 0.0, -2579.1454409534267, 0.0]
['beep', 0.0, 147.96854829413275, 0.0, 0.0, 0.0, 0.0, -605.7099229943661, 0.0]
['beep', 0.0, 296.45118671073755, 0.0, 0.0, 0.0, 0.0, -1171.7231478361068, 0.0]
['beep', 0.0, 684.4998221993235, 0.0, 0.0, 0.0, 0.0, -2986.8636115626828, 0.0]
['beep', 0.0, 716.5969272371444, 0.0, 0.0, 0.0, 0.0, -3148.7349449080166, 0.0]
['beep', 0.0, 684.902153599519, 0.0, 0.0, 0.0, 0.0, -2559.6100162994885, 0.0]
['beep', 0.0, 147.56621689393722, 0.0, 0.0, 0.0, 0.0, -604.6370392605113, 0.0]
['beep', 0.0, 292.4725761976929, 0.0, 0.0, 0.0, 0.0, -1161.9777872535929, 0.0]
['beep', 0.0, 680.0741767971726, 0.0, 0.0, 0.0, 0.0, -2968.468125875965, 0.0]
['beep', 0.0, 715.5016917588343, 0.0, 0.0, 0.0, 0.0, -3126.9196423196368, 0.0]
['beep', 0.0, 684.3433599881363, 0.0, 0.0, 0.0, 0.0, -2546.847170215508, 0.0]
['beep', 0.0, 147.8120860829456, 0.0, 0.0, 0.0, 0.0, -605.7322747388214, 0.0]
['beep', 0.0, 292.6290384088801, 0.0, 0.0, 0.0, 0.0, -1152.075964459892, 0.0]
['beep', 0.0, 680.1412320305386, 0.0, 0.0, 0.0, 0.0, -2944.6411662866076, 0.0]
['beep', 0.0, 713.8253109246864, 0.0, 0.0, 0.0, 0.0, -3107.719493832528, 0.0]
['beep', 0.0, 681.3929297200358, 0.0, 0.0, 0.0, 0.0, -2539.292280589614, 0.0]
['beep', 0.0, 147.70032736066906, 0.0, 0.0, 0.0, 0.0, -605.9334404389192, 0.0]
['beep', 0.0, 289.8350703519667, 0.0, 0.0, 0.0, 0.0, -1146.4656766016099, 0.0]
['beep', 0.0, 677.0566912957063, 0.0, 0.0, 0.0, 0.0, -2945.5575878092754, 0.0]
['beep', 0.0, 712.9759446353847, 0.0, 0.0, 0.0, 0.0, -3110.75933107845, 0.0]
['beep', 0.0, 683.2704762542816, 0.0, 0.0, 0.0, 0.0, -2540.968661423762, 0.0]
['beep', 0.0, 148.54969364997075, 0.0, 0.0, 0.0, 0.0, -607.2074898728716, 0.0]
['beep', 0.0, 288.6280761513801, 0.0, 0.0, 0.0, 0.0, -1139.5366358204647, 0.0]
['beep', 0.0, 678.2860372407481, 0.0, 0.0, 0.0, 0.0, -2937.1086284051694, 0.0]
['beep', 0.0, 712.1712818349936, 0.0, 0.0, 0.0, 0.0, -3107.4736246435195, 0.0]
['beep', 0.0, 681.7505576313207, 0.0, 0.0, 0.0, 0.0, -2543.717925991765, 0.0]
['beep', 0.0, 149.0414320279875, 0.0, 0.0, 0.0, 0.0, -609.8226439741426, 0.0]
['beep', 0.0, 286.21408775020694, 0.0, 0.0, 0.0, 0.0, -1133.5463683064424, 0.0]
['beep', 0.0, 677.1684500179828, 0.0, 0.0, 0.0, 0.0, -2936.6839452605186, 0.0]
['beep', 0.0, 710.0031626228289, 0.0, 0.0, 0.0, 0.0, -3110.401703167165, 0.0]
['beep', 0.0, 680.6329704085554, 0.0, 0.0, 0.0, 0.0, -2551.2504638732034, 0.0]
['beep', 0.0, 149.53317040600425, 0.0, 0.0, 0.0, 0.0, -613.5106818092682, 0.0]
['beep', 0.0, 281.9449045592433, 0.0, 0.0, 0.0, 0.0, -1132.205263639124, 0.0]
['beep', 0.0, 670.8652580815861, 0.0, 0.0, 0.0, 0.0, -2950.184398911524, 0.0]
['beep', 0.0, 708.1479678330384, 0.0, 0.0, 0.0, 0.0, -3127.433732442109, 0.0]
['beep', 0.0, 678.8895343410414, 0.0, 0.0, 0.0, 0.0, -2564.9967867132173, 0.0]
['beep', 0.0, 149.6672808727361, 0.0, 0.0, 0.0, 0.0, -617.5563475556788, 0.0]
['beep', 0.0, 284.09067202695275, 0.0, 0.0, 0.0, 0.0, -1134.395734595744, 0.0]
['beep', 0.0, 677.1684500179828, 0.0, 0.0, 0.0, 0.0, -2971.463259632976, 0.0]
['beep', 0.0, 710.8748806565858, 0.0, 0.0, 0.0, 0.0, -3154.1217153217453, 0.0]
['beep', 0.0, 681.2811709977593, 0.0, 0.0, 0.0, 0.0, -2586.946199768329, 0.0]
['beep', 0.0, 150.85192332886737, 0.0, 0.0, 0.0, 0.0, -623.3230976251481, 0.0]
['beep', 0.0, 282.9060295708215, 0.0, 0.0, 0.0, 0.0, -1132.205263639124, 0.0]
['beep', 0.0, 680.096528541628, 0.0, 0.0, 0.0, 0.0, -2988.6741028635624, 0.0]
['beep', 0.0, 716.5969272371444, 0.0, 0.0, 0.0, 0.0, -3180.6979394791056, 0.0]
['beep', 0.0, 686.2656100112928, 0.0, 0.0, 0.0, 0.0, -2611.3990082024347, 0.0]
['beep', 0.0, 152.5059524185601, 0.0, 0.0, 0.0, 0.0, -629.0004407167961, 0.0]
['beep', 0.0, 283.06249178200864, 0.0, 0.0, 0.0, 0.0, -1135.0886386738587, 0.0]
['beep', 0.0, 684.7680431327872, 0.0, 0.0, 0.0, 0.0, -3017.8654811221936, 0.0]
['beep', 0.0, 721.8719389285969, 0.0, 0.0, 0.0, 0.0, -3216.8407102633373, 0.0]
['beep', 0.0, 692.4570432254128, 0.0, 0.0, 0.0, 0.0, -2641.4397527503675, 0.0]
['beep', 0.0, 154.7187751196355, 0.0, 0.0, 0.0, 0.0, -636.6000338316004, 0.0]
['beep', 0.0, 283.82245109348906, 0.0, 0.0, 0.0, 0.0, -1136.0944671743473, 0.0]
['beep', 0.0, 690.355979246614, 0.0, 0.0, 0.0, 0.0, -3044.6205192351963, 0.0]
['beep', 0.0, 728.8233314541974, 0.0, 0.0, 0.0, 0.0, -3250.9941757910465, 0.0]
['beep', 0.0, 695.2063077934156, 0.0, 0.0, 0.0, 0.0, -2667.971273418817, 0.0]
['beep', 0.0, 154.91994081973326, 0.0, 0.0, 0.0, 0.0, -640.645699578011, 0.0]
['beep', 0.0, 283.39776794883824, 0.0, 0.0, 0.0, 0.0, -1133.8145892399061, 0.0]
['beep', 0.0, 692.7699676477871, 0.0, 0.0, 0.0, 0.0, -3063.887722955671, 0.0]
['beep', 0.0, 730.7008779884432, 0.0, 0.0, 0.0, 0.0, -3279.291484271465, 0.0]
['beep', 0.0, 697.933220616963, 0.0, 0.0, 0.0, 0.0, -2693.966352220339, 0.0]
['beep', 0.0, 156.2610454870517, 0.0, 0.0, 0.0, 0.0, -648.7817345597427, 0.0]
['beep', 0.0, 282.0119597926092, 0.0, 0.0, 0.0, 0.0, -1136.4073915967217, 0.0]
['beep', 0.0, 690.9594763469072, 0.0, 0.0, 0.0, 0.0, -3081.724415031006, 0.0]
['beep', 0.0, 731.1702646220047, 0.0, 0.0, 0.0, 0.0, -3296.524679246507, 0.0]
['beep', 0.0, 699.2743252842814, 0.0, 0.0, 0.0, 0.0, -2707.712675060353, 0.0]
['beep', 0.0, 157.75861236555724, 0.0, 0.0, 0.0, 0.0, -653.8555805510975, 0.0]
['beep', 0.0, 282.2801807260729, 0.0, 0.0, 0.0, 0.0, -1136.8544264858278, 0.0]
['beep', 0.0, 692.9711333478849, 0.0, 0.0, 0.0, 0.0, -3098.04118848338, 0.0]
['beep', 0.0, 731.1032093886387, 0.0, 0.0, 0.0, 0.0, -3317.4906155455847, 0.0]
['beep', 0.0, 701.934182874463, 0.0, 0.0, 0.0, 0.0, -2726.0187537692495, 0.0]
['beep', 0.0, 159.61380715534773, 0.0, 0.0, 0.0, 0.0, -660.739917843332, 0.0]
['beep', 0.0, 279.93324755826563, 0.0, 0.0, 0.0, 0.0, -1135.2227491405904, 0.0]
['beep', 0.0, 690.9147728579966, 0.0, 0.0, 0.0, 0.0, -3107.272458943422, 0.0]
['beep', 0.0, 728.4880552873678, 0.0, 0.0, 0.0, 0.0, -3326.2524993720654, 0.0]
['beep', 0.0, 701.1295200740719, 0.0, 0.0, 0.0, 0.0, -2734.378306195534, 0.0]
['beep', 0.0, 160.03849029999856, 0.0, 0.0, 0.0, 0.0, -663.6903481114326, 0.0]
['beep', 0.0, 279.1285847578746, 0.0, 0.0, 0.0, 0.0, -1131.758228750018, 0.0]
['beep', 0.0, 691.0041798358178, 0.0, 0.0, 0.0, 0.0, -3111.6086973677516, 0.0]
['beep', 0.0, 731.483189044379, 0.0, 0.0, 0.0, 0.0, -3340.80348501247, 0.0]
['beep', 0.0, 703.9905433643512, 0.0, 0.0, 0.0, 0.0, -2746.78352436823, 0.0]
['beep', 0.0, 161.29018798949576, 0.0, 0.0, 0.0, 0.0, -667.6689586244772, 0.0]
['beep', 0.0, 278.1004045129305, 0.0, 0.0, 0.0, 0.0, -1130.0594961714144, 0.0]
['beep', 0.0, 693.5746304481781, 0.0, 0.0, 0.0, 0.0, -3116.079046258813, 0.0]
['beep', 0.0, 731.7737617222979, 0.0, 0.0, 0.0, 0.0, -3341.094057690389, 0.0]
['beep', 0.0, 703.0294183527731, 0.0, 0.0, 0.0, 0.0, -2751.8573703595844, 0.0]
['beep', 0.0, 162.13955427879742, 0.0, 0.0, 0.0, 0.0, -672.6981011269213, 0.0]
['beep', 0.0, 277.2510382236288, 0.0, 0.0, 0.0, 0.0, -1127.0867141588587, 0.0]
['beep', 0.0, 691.0712350691838, 0.0, 0.0, 0.0, 0.0, -3118.336572448799, 0.0]
['beep', 0.0, 728.9797936653846, 0.0, 0.0, 0.0, 0.0, -3350.9511769951796, 0.0]
['beep', 0.0, 703.1188253305943, 0.0, 0.0, 0.0, 0.0, -2760.5521989526987, 0.0]
['beep', 0.0, 162.9442170791885, 0.0, 0.0, 0.0, 0.0, -675.4697174393795, 0.0]
['beep', 0.0, 276.3122649565059, 0.0, 0.0, 0.0, 0.0, -1121.3423158338446, 0.0]
['beep', 0.0, 691.3841594915581, 0.0, 0.0, 0.0, 0.0, -3114.134444491201, 0.0]
['beep', 0.0, 730.320898332703, 0.0, 0.0, 0.0, 0.0, -3346.5702350819392, 0.0]
['beep', 0.0, 703.90113638653, 0.0, 0.0, 0.0, 0.0, -2761.0439373307154, 0.0]
['beep', 0.0, 162.6759961457248, 0.0, 0.0, 0.0, 0.0, -677.3472639736252, 0.0]
['beep', 0.0, 275.082919011464, 0.0, 0.0, 0.0, 0.0, -1117.4531122986214, 0.0]
['beep', 0.0, 692.3676362475916, 0.0, 0.0, 0.0, 0.0, -3118.560089893352, 0.0]
['beep', 0.0, 731.7961134667532, 0.0, 0.0, 0.0, 0.0, -3352.2028746846768, 0.0]
['beep', 0.0, 706.739807932354, 0.0, 0.0, 0.0, 0.0, -2765.7825071552406, 0.0]
['beep', 0.0, 164.79941186897898, 0.0, 0.0, 0.0, 0.0, -680.677673897466, 0.0]
['beep', 0.0, 273.54064864404785, 0.0, 0.0, 0.0, 0.0, -1109.5405947614427, 0.0]
['beep', 0.0, 692.2782292697703, 0.0, 0.0, 0.0, 0.0, -3114.8720520582265, 0.0]
['beep', 0.0, 732.1090378891275, 0.0, 0.0, 0.0, 0.0, -3354.058069474467, 0.0]
['beep', 0.0, 707.3433050326473, 0.0, 0.0, 0.0, 0.0, -2772.2645130472797, 0.0]
['beep', 0.0, 164.97822582462143, 0.0, 0.0, 0.0, 0.0, -683.4045867210134, 0.0]
['beep', 0.0, 271.5289916430702, 0.0, 0.0, 0.0, 0.0, -1104.26558306999, 0.0]
['beep', 0.0, 691.451214724924, 0.0, 0.0, 0.0, 0.0, -3111.228717712011, 0.0]
['beep', 0.0, 733.5171977898119, 0.0, 0.0, 0.0, 0.0, -3352.068764217945, 0.0]
['beep', 0.0, 708.1703195774936, 0.0, 0.0, 0.0, 0.0, -2774.902018893006, 0.0]
['beep', 0.0, 166.4534409586717, 0.0, 0.0, 0.0, 0.0, -687.2714385117815, 0.0]
['beep', 0.0, 270.14318348684117, 0.0, 0.0, 0.0, 0.0, -1100.331676045856, 0.0]
['beep', 0.0, 689.8865926130525, 0.0, 0.0, 0.0, 0.0, -3110.0664270003354, 0.0]
['beep', 0.0, 731.5949477666554, 0.0, 0.0, 0.0, 0.0, -3353.096944462889, 0.0]
['beep', 0.0, 707.4103602660132, 0.0, 0.0, 0.0, 0.0, -2777.316007294179, 0.0]
['beep', 0.0, 167.03458631450968, 0.0, 0.0, 0.0, 0.0, -690.0877583131503, 0.0]
['beep', 0.0, 271.6183986208914, 0.0, 0.0, 0.0, 0.0, -1096.0624928548925, 0.0]
['beep', 0.0, 698.6261246950776, 0.0, 0.0, 0.0, 0.0, -3114.492072402486, 0.0]
['beep', 0.0, 743.4190205835129, 0.0, 0.0, 0.0, 0.0, -3357.388479398308, 0.0]
['beep', 0.0, 721.1566831060271, 0.0, 0.0, 0.0, 0.0, -2779.4617747618886, 0.0]
['beep', 0.0, 171.39317648329455, 0.0, 0.0, 0.0, 0.0, -692.3676362475916, 0.0]
['beep', 0.0, 271.41723292079365, 0.0, 0.0, 0.0, 0.0, -1088.9099346291941, 0.0]
['beep', 0.0, 704.1470055755384, 0.0, 0.0, 0.0, 0.0, -3110.178185722612, 0.0]
['beep', 0.0, 749.029308441795, 0.0, 0.0, 0.0, 0.0, -3356.6285200868274, 0.0]
['beep', 0.0, 721.9166424175075, 0.0, 0.0, 0.0, 0.0, -2785.228524831358, 0.0]
['beep', 0.0, 172.28724626150685, 0.0, 0.0, 0.0, 0.0, -696.9273921164743, 0.0]
['beep', 0.0, 271.2607707096065, 0.0, 0.0, 0.0, 0.0, -1085.8924491277278, 0.0]
['beep', 0.0, 703.4317497529686, 0.0, 0.0, 0.0, 0.0, -3106.847775798771, 0.0]
['beep', 0.0, 747.7552590078425, 0.0, 0.0, 0.0, 0.0, -3359.2436741880983, 0.0]
['beep', 0.0, 721.8495871841416, 0.0, 0.0, 0.0, 0.0, -2792.3363795681453, 0.0]
['beep', 0.0, 172.64487417279176, 0.0, 0.0, 0.0, 0.0, -700.4142642515021, 0.0]
['beep', 0.0, 270.1878869757518, 0.0, 0.0, 0.0, 0.0, -1080.3492165028115, 0.0]
['beep', 0.0, 703.3646945196026, 0.0, 0.0, 0.0, 0.0, -3103.115034474735, 0.0]
['beep', 0.0, 746.6376717850771, 0.0, 0.0, 0.0, 0.0, -3355.1756566972326, 0.0]
['beep', 0.0, 721.290793572759, 0.0, 0.0, 0.0, 0.0, -2791.665827234486, 0.0]
['beep', 0.0, 173.33777825090627, 0.0, 0.0, 0.0, 0.0, -703.7670259197981, 0.0]
['beep', 0.0, 269.2938171975395, 0.0, 0.0, 0.0, 0.0, -1078.494021713021, 0.0]
['beep', 0.0, 702.5823834636669, 0.0, 0.0, 0.0, 0.0, -3103.3832554081987, 0.0]
['beep', 0.0, 745.6318432845883, 0.0, 0.0, 0.0, 0.0, -3354.750973552582, 0.0]
['beep', 0.0, 722.6542499845326, 0.0, 0.0, 0.0, 0.0, -2795.1974028584245, 0.0]
['beep', 0.0, 175.88587711881127, 0.0, 0.0, 0.0, 0.0, -709.2432033113485, 0.0]
['beep', 0.0, 267.61743636339145, 0.0, 0.0, 0.0, 0.0, -1072.6825681546413, 0.0]
['beep', 0.0, 700.6377816960552, 0.0, 0.0, 0.0, 0.0, -3099.8963832731706, 0.0]
['beep', 0.0, 742.703764760943, 0.0, 0.0, 0.0, 0.0, -3358.28254917652, 0.0]
['beep', 0.0, 723.771837207298, 0.0, 0.0, 0.0, 0.0, -2803.3334378401564, 0.0]
['beep', 0.0, 176.9364091082107, 0.0, 0.0, 0.0, 0.0, -713.9370696469629, 0.0]
['beep', 0.0, 267.23745670765123, 0.0, 0.0, 0.0, 0.0, -1068.726309386052, 0.0]
['beep', 0.0, 702.9847148638625, 0.0, 0.0, 0.0, 0.0, -3096.9012495161596, 0.0]
['beep', 0.0, 745.2965671177587, 0.0, 0.0, 0.0, 0.0, -3352.1805229402216, 0.0]
['beep', 0.0, 726.2975843307477, 0.0, 0.0, 0.0, 0.0, -2801.701760494919, 0.0]
['beep', 0.0, 177.8528306308783, 0.0, 0.0, 0.0, 0.0, -716.1945958369489, 0.0]
['beep', 0.0, 267.3939189188384, 0.0, 0.0, 0.0, 0.0, -1064.7476988730073, 0.0]
['beep', 0.0, 706.5833457211669, 0.0, 0.0, 0.0, 0.0, -3092.5426593473744, 0.0]
['beep', 0.0, 753.0526224437502, 0.0, 0.0, 0.0, 0.0, -3353.2534066740764, 0.0]
['beep', 0.0, 730.4773605438901, 0.0, 0.0, 0.0, 0.0, -2805.0098186743044, 0.0]
['beep', 0.0, 179.28334227601795, 0.0, 0.0, 0.0, 0.0, -719.3238400606919, 0.0]
['beep', 0.0, 265.1140409843971, 0.0, 0.0, 0.0, 0.0, -1060.5679226598647, 0.0]
['beep', 0.0, 701.3977410075356, 0.0, 0.0, 0.0, 0.0, -3091.022740724414, 0.0]
['beep', 0.0, 745.2295118843928, 0.0, 0.0, 0.0, 0.0, -3351.554674095473, 0.0]
['beep', 0.0, 723.9730029073958, 0.0, 0.0, 0.0, 0.0, -2806.082702408159, 0.0]
['beep', 0.0, 179.50685972057101, 0.0, 0.0, 0.0, 0.0, -723.19069185146, 0.0]
['beep', 0.0, 264.3317299284613, 0.0, 0.0, 0.0, 0.0, -1051.470762666555, 0.0]
['beep', 0.0, 703.0517700972283, 0.0, 0.0, 0.0, 0.0, -3083.199630165056, 0.0]
['beep', 0.0, 746.4588578294347, 0.0, 0.0, 0.0, 0.0, -3348.4254298717296, 0.0]
['beep', 0.0, 726.7669709643092, 0.0, 0.0, 0.0, 0.0, -2808.5190425537876, 0.0]
['beep', 0.0, 180.80326089897883, 0.0, 0.0, 0.0, 0.0, -726.8563779421304, 0.0]
['beep', 0.0, 263.3706049168831, 0.0, 0.0, 0.0, 0.0, -1050.5543411438873, 0.0]
['beep', 0.0, 703.2529357973261, 0.0, 0.0, 0.0, 0.0, -3081.6350080531847, 0.0]
['beep', 0.0, 744.8718839731079, 0.0, 0.0, 0.0, 0.0, -3345.318537392442, 0.0]
['beep', 0.0, 727.3928198090578, 0.0, 0.0, 0.0, 0.0, -2808.4519873204217, 0.0]
['beep', 0.0, 182.47964173312687, 0.0, 0.0, 0.0, 0.0, -729.2480145988483, 0.0]
['beep', 0.0, 261.761279316101, 0.0, 0.0, 0.0, 0.0, -1043.7817625739292, 0.0]
['beep', 0.0, 700.1460433180384, 0.0, 0.0, 0.0, 0.0, -3080.204496408045, 0.0]
['beep', 0.0, 744.0001659393508, 0.0, 0.0, 0.0, 0.0, -3348.9842234831126, 0.0]
['beep', 0.0, 727.482226786879, 0.0, 0.0, 0.0, 0.0, -2814.0175716897934, 0.0]
['beep', 0.0, 182.926676622233, 0.0, 0.0, 0.0, 0.0, -733.1148663896164, 0.0]
['beep', 0.0, 260.37547115987195, 0.0, 0.0, 0.0, 0.0, -1036.7633148149628, 0.0]
['beep', 0.0, 702.1353485745608, 0.0, 0.0, 0.0, 0.0, -3077.924618473604, 0.0]
['beep', 0.0, 744.2460351283593, 0.0, 0.0, 0.0, 0.0, -3355.645043330794, 0.0]
['beep', 0.0, 729.6279942545884, 0.0, 0.0, 0.0, 0.0, -2819.5384525702543, 0.0]
['beep', 0.0, 184.31248477846205, 0.0, 0.0, 0.0, 0.0, -736.28881410227, 0.0]
['beep', 0.0, 259.6378635928468, 0.0, 0.0, 0.0, 0.0, -1030.6165850897532, 0.0]
['beep', 0.0, 704.4152265090021, 0.0, 0.0, 0.0, 0.0, -3070.2803218698887, 0.0]
['beep', 0.0, 748.1128869191274, 0.0, 0.0, 0.0, 0.0, -3346.99491822659, 0.0]
['beep', 0.0, 731.3490785776471, 0.0, 0.0, 0.0, 0.0, -2818.5326240697655, 0.0]
['beep', 0.0, 185.4524237456827, 0.0, 0.0, 0.0, 0.0, -738.6580990145325, 0.0]
['beep', 0.0, 257.33563391395023, 0.0, 0.0, 0.0, 0.0, -1027.889672266206, 0.0]
['beep', 0.0, 704.9293166314742, 0.0, 0.0, 0.0, 0.0, -3067.911036957626, 0.0]
['beep', 0.0, 751.8903317320743, 0.0, 0.0, 0.0, 0.0, -3342.3010518909755, 0.0]
['beep', 0.0, 729.739752976865, 0.0, 0.0, 0.0, 0.0, -2816.744484513341, 0.0]
['beep', 0.0, 185.4971272345933, 0.0, 0.0, 0.0, 0.0, -741.6308810270883, 0.0]
['beep', 0.0, 254.0946309679307, 0.0, 0.0, 0.0, 0.0, -1024.8721867647394, 0.0]
['beep', 0.0, 692.8593746256083, 0.0, 0.0, 0.0, 0.0, -3068.3804235911875, 0.0]
['beep', 0.0, 737.7863809807756, 0.0, 0.0, 0.0, 0.0, -3345.1397234367996, 0.0]
['beep', 0.0, 727.9739651648957, 0.0, 0.0, 0.0, 0.0, -2823.092379938648, 0.0]
['beep', 0.0, 186.3911970128056, 0.0, 0.0, 0.0, 0.0, -745.9224159625073, 0.0]
['beep', 0.0, 252.64176757833573, 0.0, 0.0, 0.0, 0.0, -1018.948974484083, 0.0]
['beep', 0.0, 692.7252641588765, 0.0, 0.0, 0.0, 0.0, -3063.328929344288, 0.0]
['beep', 0.0, 736.5346832912784, 0.0, 0.0, 0.0, 0.0, -3346.4361246152075, 0.0]
['beep', 0.0, 724.4200377965019, 0.0, 0.0, 0.0, 0.0, -2828.0991706966365, 0.0]
['beep', 0.0, 186.92763887973297, 0.0, 0.0, 0.0, 0.0, -750.0574886867391, 0.0]
['beep', 0.0, 252.32884315596144, 0.0, 0.0, 0.0, 0.0, -1015.5291575824211, 0.0]
['beep', 0.0, 692.322932758681, 0.0, 0.0, 0.0, 0.0, -3061.6078450212294, 0.0]
['beep', 0.0, 737.898139703052, 0.0, 0.0, 0.0, 0.0, -3347.71017404916, 0.0]
['beep', 0.0, 726.5434535197561, 0.0, 0.0, 0.0, 0.0, -2831.2954701537456, 0.0]
['beep', 0.0, 187.59819121339217, 0.0, 0.0, 0.0, 0.0, -752.8514567436525, 0.0]
['beep', 0.0, 250.3395378994391, 0.0, 0.0, 0.0, 0.0, -1010.9917534579937, 0.0]
['beep', 0.0, 691.3618077471027, 0.0, 0.0, 0.0, 0.0, -3056.9363304300705, 0.0]
['beep', 0.0, 736.0652966577169, 0.0, 0.0, 0.0, 0.0, -3342.8151420134477, 0.0]
['beep', 0.0, 727.9069099315298, 0.0, 0.0, 0.0, 0.0, -2830.7143247979075, 0.0]
['beep', 0.0, 190.01217961456533, 0.0, 0.0, 0.0, 0.0, -757.3888608680799, 0.0]
['beep', 0.0, 249.82544777696705, 0.0, 0.0, 0.0, 0.0, -1006.0296661889156, 0.0]
['beep', 0.0, 692.7029124144212, 0.0, 0.0, 0.0, 0.0, -3055.6622809961177, 0.0]
['beep', 0.0, 740.2450728708593, 0.0, 0.0, 0.0, 0.0, -3350.481790361618, 0.0]
['beep', 0.0, 726.0070116528287, 0.0, 0.0, 0.0, 0.0, -2837.576310345687, 0.0]
['beep', 0.0, 190.1909935702078, 0.0, 0.0, 0.0, 0.0, -760.3169393917251, 0.0]
['beep', 0.0, 248.99843323212068, 0.0, 0.0, 0.0, 0.0, -1001.112282408748, 0.0]
['beep', 0.0, 692.4346914809574, 0.0, 0.0, 0.0, 0.0, -3049.1579233596235, 0.0]
['beep', 0.0, 738.7028025034431, 0.0, 0.0, 0.0, 0.0, -3340.9152437347466, 0.0]
['beep', 0.0, 728.6892209874655, 0.0, 0.0, 0.0, 0.0, -2835.1399702000585, 0.0]
['beep', 0.0, 191.42033951524968, 0.0, 0.0, 0.0, 0.0, -764.3849568825909, 0.0]
['beep', 0.0, 247.99260473163187, 0.0, 0.0, 0.0, 0.0, -999.3241428523235, 0.0]
['beep', 0.0, 693.8652031260972, 0.0, 0.0, 0.0, 0.0, -3053.7176792285063, 0.0]
['beep', 0.0, 735.2159303684152, 0.0, 0.0, 0.0, 0.0, -3341.8540170018696, 0.0]
['beep', 0.0, 728.063372142717, 0.0, 0.0, 0.0, 0.0, -2837.375144645589, 0.0]
['beep', 0.0, 193.23083081612955, 0.0, 0.0, 0.0, 0.0, -769.0341197292948, 0.0]
['beep', 0.0, 247.07618320896427, 0.0, 0.0, 0.0, 0.0, -992.886840449195, 0.0]
['beep', 0.0, 692.3676362475916, 0.0, 0.0, 0.0, 0.0, -3045.715754713506, 0.0]
['beep', 0.0, 735.6182617686108, 0.0, 0.0, 0.0, 0.0, -3343.4633426026517, 0.0]
['beep', 0.0, 731.0585058997281, 0.0, 0.0, 0.0, 0.0, -2843.2760051817904, 0.0]
['beep', 0.0, 194.48252850562676, 0.0, 0.0, 0.0, 0.0, -773.3256546647137, 0.0]
['beep', 0.0, 246.04800296402016, 0.0, 0.0, 0.0, 0.0, -988.2153258580358, 0.0]
['beep', 0.0, 693.3734647480804, 0.0, 0.0, 0.0, 0.0, -3041.446571522543, 0.0]
['beep', 0.0, 737.4734565584013, 0.0, 0.0, 0.0, 0.0, -3339.5294355785177, 0.0]
['beep', 0.0, 731.6172995111108, 0.0, 0.0, 0.0, 0.0, -2844.5500546157427, 0.0]
['beep', 0.0, 195.3095430504731, 0.0, 0.0, 0.0, 0.0, -776.6560645885545, 0.0]
['beep', 0.0, 243.52225584057044, 0.0, 0.0, 0.0, 0.0, -982.3815205552007, 0.0]
['beep', 0.0, 693.70874091491, 0.0, 0.0, 0.0, 0.0, -3037.3562022872215, 0.0]
['beep', 0.0, 737.0040699248398, 0.0, 0.0, 0.0, 0.0, -3335.9755082101237, 0.0]
['beep', 0.0, 733.1148663896164, 0.0, 0.0, 0.0, 0.0, -2843.9689092599046, 0.0]
['beep', 0.0, 196.71770295115746, 0.0, 0.0, 0.0, 0.0, -779.2041634564595, 0.0]
['beep', 0.0, 243.23168316265145, 0.0, 0.0, 0.0, 0.0, -978.8499449312621, 0.0]
['beep', 0.0, 692.2111740364044, 0.0, 0.0, 0.0, 0.0, -3034.338716785755, 0.0]
['beep', 0.0, 735.0371164127728, 0.0, 0.0, 0.0, 0.0, -3336.0872669324003, 0.0]
['beep', 0.0, 730.320898332703, 0.0, 0.0, 0.0, 0.0, -2846.3605459166224, 0.0]
['beep', 0.0, 196.76240644006808, 0.0, 0.0, 0.0, 0.0, -782.2440007023813, 0.0]
['beep', 0.0, 241.64470930632464, 0.0, 0.0, 0.0, 0.0, -974.4913547624773, 0.0]
['beep', 0.0, 690.579496691167, 0.0, 0.0, 0.0, 0.0, -3034.562234230308, 0.0]
['beep', 0.0, 737.4511048139459, 0.0, 0.0, 0.0, 0.0, -3342.122237935333, 0.0]
['beep', 0.0, 732.8019419672421, 0.0, 0.0, 0.0, 0.0, -2852.4402204084663, 0.0]
['beep', 0.0, 198.19291808520774, 0.0, 0.0, 0.0, 0.0, -786.15555598206, 0.0]
['beep', 0.0, 241.71176453969056, 0.0, 0.0, 0.0, 0.0, -968.9481221375612, 0.0]
['beep', 0.0, 693.2170025368932, 0.0, 0.0, 0.0, 0.0, -3027.6778969380734, 0.0]
['beep', 0.0, 738.0322501697839, 0.0, 0.0, 0.0, 0.0, -3337.808351255459, 0.0]
['beep', 0.0, 732.6678315005103, 0.0, 0.0, 0.0, 0.0, -2851.4567436524326, 0.0]
['beep', 0.0, 199.55637449698145, 0.0, 0.0, 0.0, 0.0, -789.0389310167947, 0.0]
['beep', 0.0, 239.67775579425762, 0.0, 0.0, 0.0, 0.0, -964.3660145242233, 0.0]
['beep', 0.0, 690.579496691167, 0.0, 0.0, 0.0, 0.0, -3024.906280625615, 0.0]
['beep', 0.0, 739.0157269258174, 0.0, 0.0, 0.0, 0.0, -3335.9755082101237, 0.0]
['beep', 0.0, 733.7183634899096, 0.0, 0.0, 0.0, 0.0, -2853.893083798061, 0.0]
['beep', 0.0, 199.84694717490044, 0.0, 0.0, 0.0, 0.0, -791.7211403514315, 0.0]
['beep', 0.0, 238.33665112693922, 0.0, 0.0, 0.0, 0.0, -959.2027615550472, 0.0]
['beep', 0.0, 691.2053455359156, 0.0, 0.0, 0.0, 0.0, -3026.247385292934, 0.0]
['beep', 0.0, 737.9204914475074, 0.0, 0.0, 0.0, 0.0, -3340.781133268015, 0.0]
['beep', 0.0, 735.640613513066, 0.0, 0.0, 0.0, 0.0, -2858.497543155854, 0.0]
['beep', 0.0, 202.03741813152055, 0.0, 0.0, 0.0, 0.0, -796.4597101759566, 0.0]
['beep', 0.0, 236.1014766814085, 0.0, 0.0, 0.0, 0.0, -953.3019010188463, 0.0]
['beep', 0.0, 688.2996187567256, 0.0, 0.0, 0.0, 0.0, -3018.759550900406, 0.0]
['beep', 0.0, 735.7747239797978, 0.0, 0.0, 0.0, 0.0, -3335.7966942544813, 0.0]
['beep', 0.0, 733.2713286008035, 0.0, 0.0, 0.0, 0.0, -2856.485886154877, 0.0]
['beep', 0.0, 202.08212162043117, 0.0, 0.0, 0.0, 0.0, -797.9349253100069, 0.0]
['beep', 0.0, 234.4474475917158, 0.0, 0.0, 0.0, 0.0, -949.3456422502569, 0.0]
['beep', 0.0, 689.0819298126614, 0.0, 0.0, 0.0, 0.0, -3017.6196119331853, 0.0]
['beep', 0.0, 736.5570350357336, 0.0, 0.0, 0.0, 0.0, -3334.4779413316182, 0.0]
['beep', 0.0, 734.0312879122839, 0.0, 0.0, 0.0, 0.0, -2860.464496667921, 0.0]
['beep', 0.0, 203.1997088431965, 0.0, 0.0, 0.0, 0.0, -802.1594050120599, 0.0]
['beep', 0.0, 235.117999925375, 0.0, 0.0, 0.0, 0.0, -944.6741276590977, 0.0]
['beep', 0.0, 692.546450203234, 0.0, 0.0, 0.0, 0.0, -3011.9422688415375, 0.0]
['beep', 0.0, 741.2732531158034, 0.0, 0.0, 0.0, 0.0, -3334.0532581869675, 0.0]
['beep', 0.0, 736.6911455024655, 0.0, 0.0, 0.0, 0.0, -2863.012595535826, 0.0]
['beep', 0.0, 205.16666235526353, 0.0, 0.0, 0.0, 0.0, -806.7191608809425, 0.0]
['beep', 0.0, 234.1568749137968, 0.0, 0.0, 0.0, 0.0, -942.2377875134692, 0.0]
['beep', 0.0, 689.0595780682062, 0.0, 0.0, 0.0, 0.0, -3012.3446002417327, 0.0]
['beep', 0.0, 737.5181600473119, 0.0, 0.0, 0.0, 0.0, -3340.8258367569256, 0.0]
['beep', 0.0, 737.0040699248398, 0.0, 0.0, 0.0, 0.0, -2870.165153761525, 0.0]
['beep', 0.0, 206.17249085575236, 0.0, 0.0, 0.0, 0.0, -811.3683237276464, 0.0]
['beep', 0.0, 232.70401152420183, 0.0, 0.0, 0.0, 0.0, -936.9627758220167, 0.0]
['beep', 0.0, 690.5347932022564, 0.0, 0.0, 0.0, 0.0, -3003.2250885039675, 0.0]
['beep', 0.0, 739.0157269258174, 0.0, 0.0, 0.0, 0.0, -3328.5547290509617, 0.0]
['beep', 0.0, 737.4287530694907, 0.0, 0.0, 0.0, 0.0, -2865.337176959178, 0.0]
['beep', 0.0, 207.37948505633892, 0.0, 0.0, 0.0, 0.0, -814.3187539957469, 0.0]
['beep', 0.0, 231.6534795348024, 0.0, 0.0, 0.0, 0.0, -935.5099124324219, 0.0]
['beep', 0.0, 689.5736681906782, 0.0, 0.0, 0.0, 0.0, -3009.9976670739256, 0.0]
['beep', 0.0, 739.127485648094, 0.0, 0.0, 0.0, 0.0, -3338.8812349893137, 0.0]
['beep', 0.0, 737.741677491865, 0.0, 0.0, 0.0, 0.0, -2869.3828427055887, 0.0]
['beep', 0.0, 208.96645891266573, 0.0, 0.0, 0.0, 0.0, -817.9844400864173, 0.0]
['beep', 0.0, 230.4017818453052, 0.0, 0.0, 0.0, 0.0, -930.1678455076034, 0.0]
['beep', 0.0, 687.6514181675218, 0.0, 0.0, 0.0, 0.0, -3005.057931549303, 0.0]
['beep', 0.0, 737.2946426027588, 0.0, 0.0, 0.0, 0.0, -3337.9201099777356, 0.0]
['beep', 0.0, 738.6133955256219, 0.0, 0.0, 0.0, 0.0, -2875.082537541692, 0.0]
['beep', 0.0, 209.5252525240484, 0.0, 0.0, 0.0, 0.0, -820.5548906987776, 0.0]
['beep', 0.0, 231.18409290124094, 0.0, 0.0, 0.0, 0.0, -927.0162495394051, 0.0]
['beep', 0.0, 690.6465519245329, 0.0, 0.0, 0.0, 0.0, -3000.766396613884, 0.0]
['beep', 0.0, 736.6464420135549, 0.0, 0.0, 0.0, 0.0, -3335.0590866874563, 0.0]
['beep', 0.0, 738.9710234369068, 0.0, 0.0, 0.0, 0.0, -2880.4469562109657, 0.0]
['beep', 0.0, 211.17928161374113, 0.0, 0.0, 0.0, 0.0, -827.1039518241826, 0.0]
['beep', 0.0, 229.8429882339225, 0.0, 0.0, 0.0, 0.0, -924.1105227602152, 0.0]
['beep', 0.0, 689.8642408685972, 0.0, 0.0, 0.0, 0.0, -2997.3465797122217, 0.0]
['beep', 0.0, 735.5512065352448, 0.0, 0.0, 0.0, 0.0, -3331.616918041339, 0.0]
['beep', 0.0, 739.7980379817532, 0.0, 0.0, 0.0, 0.0, -2878.7705753768178, 0.0]
['beep', 0.0, 212.18511011422996, 0.0, 0.0, 0.0, 0.0, -829.2273675474368, 0.0]
['beep', 0.0, 229.03832543353147, 0.0, 0.0, 0.0, 0.0, -918.9025663021287, 0.0]
['beep', 0.0, 692.2111740364044, 0.0, 0.0, 0.0, 0.0, -2997.1677657565792, 0.0]
['beep', 0.0, 741.9214537050074, 0.0, 0.0, 0.0, 0.0, -3337.6071855553614, 0.0]
['beep', 0.0, 744.4024973395465, 0.0, 0.0, 0.0, 0.0, -2887.5995144366643, 0.0]
['beep', 0.0, 214.44263630421597, 0.0, 0.0, 0.0, 0.0, -834.7258966834422, 0.0]
['beep', 0.0, 229.66417427828006, 0.0, 0.0, 0.0, 0.0, -915.3709906781901, 0.0]
['beep', 0.0, 698.0673310836949, 0.0, 0.0, 0.0, 0.0, -2987.8694400631716, 0.0]
['beep', 0.0, 747.3976310965576, 0.0, 0.0, 0.0, 0.0, -3323.123255148322, 0.0]
['beep', 0.0, 746.6823752739878, 0.0, 0.0, 0.0, 0.0, -2877.407118965044, 0.0]
['beep', 0.0, 215.31435433797293, 0.0, 0.0, 0.0, 0.0, -834.9494141279953, 0.0]
['beep', 0.0, 227.45135157720466, 0.0, 0.0, 0.0, 0.0, -912.666429599098, 0.0]
['beep', 0.0, 692.2335257808597, 0.0, 0.0, 0.0, 0.0, -2992.697416865518, 0.0]
['beep', 0.0, 743.3743170946022, 0.0, 0.0, 0.0, 0.0, -3327.70536276166, 0.0]
['beep', 0.0, 747.0623549297279, 0.0, 0.0, 0.0, 0.0, -2880.670473655519, 0.0]
['beep', 0.0, 216.29783109400645, 0.0, 0.0, 0.0, 0.0, -839.0397833633165, 0.0]
['beep', 0.0, 227.07137192146445, 0.0, 0.0, 0.0, 0.0, -908.0172667523941, 0.0]
['beep', 0.0, 692.9711333478849, 0.0, 0.0, 0.0, 0.0, -2987.6012191297077, 0.0]
['beep', 0.0, 743.1060961611386, 0.0, 0.0, 0.0, 0.0, -3329.337040106898, 0.0]
['beep', 0.0, 745.4530293289458, 0.0, 0.0, 0.0, 0.0, -2888.113604559136, 0.0]
['beep', 0.0, 217.4154183167718, 0.0, 0.0, 0.0, 0.0, -844.1583328435819, 0.0]
['beep', 0.0, 224.9926596871209, 0.0, 0.0, 0.0, 0.0, -901.4458538825338, 0.0]
['beep', 0.0, 691.8088426362089, 0.0, 0.0, 0.0, 0.0, -2979.8675155481715, 0.0]
['beep', 0.0, 744.2460351283593, 0.0, 0.0, 0.0, 0.0, -3326.118388905333, 0.0]
['beep', 0.0, 748.5375700637783, 0.0, 0.0, 0.0, 0.0, -2887.755976647851, 0.0]
['beep', 0.0, 219.18120612874105, 0.0, 0.0, 0.0, 0.0, -846.9746526449505, 0.0]
['beep', 0.0, 225.28323236503988, 0.0, 0.0, 0.0, 0.0, -900.149452704126, 0.0]
['beep', 0.0, 694.2004792929267, 0.0, 0.0, 0.0, 0.0, -2981.186268471035, 0.0]
['beep', 0.0, 744.2907386172699, 0.0, 0.0, 0.0, 0.0, -3328.778246495515, 0.0]
['beep', 0.0, 748.805790997242, 0.0, 0.0, 0.0, 0.0, -2888.8512121261615, 0.0]
['beep', 0.0, 220.16468288477458, 0.0, 0.0, 0.0, 0.0, -849.3886410461237, 0.0]
['beep', 0.0, 223.8080172309896, 0.0, 0.0, 0.0, 0.0, -896.7743392913746, 0.0]
['beep', 0.0, 693.0381885812508, 0.0, 0.0, 0.0, 0.0, -2980.6721783485627, 0.0]
['beep', 0.0, 746.9505962074514, 0.0, 0.0, 0.0, 0.0, -3330.7228482631267, 0.0]
['beep', 0.0, 752.0244421988061, 0.0, 0.0, 0.0, 0.0, -2893.1427470615804, 0.0]
['beep', 0.0, 221.93047069674384, 0.0, 0.0, 0.0, 0.0, -853.8589899371851, 0.0]
['beep', 0.0, 223.24922361960694, 0.0, 0.0, 0.0, 0.0, -893.4215776230786, 0.0]
['beep', 0.0, 694.0887205706503, 0.0, 0.0, 0.0, 0.0, -2979.331073681244, 0.0]
['beep', 0.0, 745.967119451418, 0.0, 0.0, 0.0, 0.0, -3330.007592440557, 0.0]
['beep', 0.0, 752.2256078989038, 0.0, 0.0, 0.0, 0.0, -2894.1932790509795, 0.0]
['beep', 0.0, 222.98100268614326, 0.0, 0.0, 0.0, 0.0, -857.1223446276599, 0.0]
['beep', 0.0, 221.97517418565445, 0.0, 0.0, 0.0, 0.0, -889.733539787953, 0.0]
['beep', 0.0, 694.9827903488625, 0.0, 0.0, 0.0, 0.0, -2975.4865736349316, 0.0]
['beep', 0.0, 746.8388374851748, 0.0, 0.0, 0.0, 0.0, -3333.5391680644952, 0.0]
['beep', 0.0, 751.6891660319765, 0.0, 0.0, 0.0, 0.0, -2901.2340785544015, 0.0]
['beep', 0.0, 223.9868311866321, 0.0, 0.0, 0.0, 0.0, -861.5926935187214, 0.0]
['beep', 0.0, 221.43873231872706, 0.0, 0.0, 0.0, 0.0, -885.8666879971848, 0.0]
['beep', 0.0, 694.1110723151055, 0.0, 0.0, 0.0, 0.0, -2972.8937712781158, 0.0]
['beep', 0.0, 747.3752793521022, 0.0, 0.0, 0.0, 0.0, -3326.408961583252, 0.0]
['beep', 0.0, 753.8796369885966, 0.0, 0.0, 0.0, 0.0, -2898.440110497488, 0.0]
['beep', 0.0, 225.88672946533316, 0.0, 0.0, 0.0, 0.0, -866.3983185766124, 0.0]
['beep', 0.0, 219.22590961765167, 0.0, 0.0, 0.0, 0.0, -881.3069321283022, 0.0]
['beep', 0.0, 692.9264298589743, 0.0, 0.0, 0.0, 0.0, -2971.083279977236, 0.0]
['beep', 0.0, 747.867017730119, 0.0, 0.0, 0.0, 0.0, -3331.996897697079, 0.0]
['beep', 0.0, 752.963215465929, 0.0, 0.0, 0.0, 0.0, -2907.917250146538, 0.0]
['beep', 0.0, 227.07137192146445, 0.0, 0.0, 0.0, 0.0, -871.9639029459838, 0.0]
['beep', 0.0, 219.18120612874105, 0.0, 0.0, 0.0, 0.0, -876.8365832372408, 0.0]
['beep', 0.0, 693.6640374259994, 0.0, 0.0, 0.0, 0.0, -2966.590579341719, 0.0]
['beep', 0.0, 749.7445642643648, 0.0, 0.0, 0.0, 0.0, -3336.0872669324003, 0.0]
['beep', 0.0, 755.801887011753, 0.0, 0.0, 0.0, 0.0, -2910.219479825435, 0.0]
['beep', 0.0, 228.94891845571024, 0.0, 0.0, 0.0, 0.0, -875.5625338032883, 0.0]
['beep', 0.0, 218.24243286161817, 0.0, 0.0, 0.0, 0.0, -871.6062750346989, 0.0]
['beep', 0.0, 692.9040781145189, 0.0, 0.0, 0.0, 0.0, -2959.3486141382, 0.0]
['beep', 0.0, 746.7270787628984, 0.0, 0.0, 0.0, 0.0, -3327.191272639188, 0.0]
['beep', 0.0, 754.7737067668089, 0.0, 0.0, 0.0, 0.0, -2907.1572908350577, 0.0]
['beep', 0.0, 229.7982847450119, 0.0, 0.0, 0.0, 0.0, -877.7977082488189, 0.0]
['beep', 0.0, 217.7730462280567, 0.0, 0.0, 0.0, 0.0, -869.8851907116402, 0.0]
['beep', 0.0, 692.7699676477871, 0.0, 0.0, 0.0, 0.0, -2960.041518216314, 0.0]
['beep', 0.0, 746.704727018443, 0.0, 0.0, 0.0, 0.0, -3329.9852406961013, 0.0]
['beep', 0.0, 756.7630120233313, 0.0, 0.0, 0.0, 0.0, -2914.600421738675, 0.0]
['beep', 0.0, 231.27349987906217, 0.0, 0.0, 0.0, 0.0, -883.69856878502, 0.0]
['beep', 0.0, 215.94020318272152, 0.0, 0.0, 0.0, 0.0, -866.6218360211654, 0.0]
['beep', 0.0, 692.9264298589743, 0.0, 0.0, 0.0, 0.0, -2959.3486141382, 0.0]
['beep', 0.0, 748.0458316857614, 0.0, 0.0, 0.0, 0.0, -3330.7899034964926, 0.0]
['beep', 0.0, 758.2829306462921, 0.0, 0.0, 0.0, 0.0, -2914.2651455718456, 0.0]
['beep', 0.0, 233.03928769103143, 0.0, 0.0, 0.0, 0.0, -886.9395717310396, 0.0]
['beep', 0.0, 215.5602235269813, 0.0, 0.0, 0.0, 0.0, -861.8162109632744, 0.0]
['beep', 0.0, 693.8204996371866, 0.0, 0.0, 0.0, 0.0, -2956.755811781384, 0.0]
['beep', 0.0, 747.6211485411106, 0.0, 0.0, 0.0, 0.0, -3333.3380023643977, 0.0]
['beep', 0.0, 756.7183085344207, 0.0, 0.0, 0.0, 0.0, -2919.2719363298343, 0.0]
['beep', 0.0, 233.50867432459287, 0.0, 0.0, 0.0, 0.0, -890.4934990994334, 0.0]
['beep', 0.0, 214.15206362629698, 0.0, 0.0, 0.0, 0.0, -855.9377021715287, 0.0]
['beep', 0.0, 692.9040781145189, 0.0, 0.0, 0.0, 0.0, -2948.2621488883674, 0.0]
['beep', 0.0, 747.1741136520045, 0.0, 0.0, 0.0, 0.0, -3327.191272639188, 0.0]
['beep', 0.0, 755.6454248005658, 0.0, 0.0, 0.0, 0.0, -2918.1319973626137, 0.0]
['beep', 0.0, 233.37456385786103, 0.0, 0.0, 0.0, 0.0, -892.572211333777, 0.0]
['beep', 0.0, 212.9674211701657, 0.0, 0.0, 0.0, 0.0, -852.8531614366963, 0.0]
['beep', 0.0, 693.6640374259994, 0.0, 0.0, 0.0, 0.0, -2946.675175032041, 0.0]
['beep', 0.0, 746.0565264292392, 0.0, 0.0, 0.0, 0.0, -3326.028981927512, 0.0]
['beep', 0.0, 752.6726427880101, 0.0, 0.0, 0.0, 0.0, -2918.3331630627113, 0.0]
['beep', 0.0, 233.12869466885266, 0.0, 0.0, 0.0, 0.0, -895.5449933463327, 0.0]
['beep', 0.0, 210.95576416918806, 0.0, 0.0, 0.0, 0.0, -849.8356759352298, 0.0]
['beep', 0.0, 686.5561826892117, 0.0, 0.0, 0.0, 0.0, -2942.3612883521664, 0.0]
['beep', 0.0, 738.1887123809711, 0.0, 0.0, 0.0, 0.0, -3325.8278162274146, 0.0]
['beep', 0.0, 751.3762416096022, 0.0, 0.0, 0.0, 0.0, -2921.5294625198203, 0.0]
['beep', 0.0, 234.00041270260965, 0.0, 0.0, 0.0, 0.0, -897.4001881361232, 0.0]
['beep', 0.0, 209.65936299078024, 0.0, 0.0, 0.0, 0.0, -844.4936090104114, 0.0]
['beep', 0.0, 686.8914588560414, 0.0, 0.0, 0.0, 0.0, -2940.729611006929, 0.0]
['beep', 0.0, 742.0332124272838, 0.0, 0.0, 0.0, 0.0, -3327.1465691502776, 0.0]
['beep', 0.0, 753.834933499686, 0.0, 0.0, 0.0, 0.0, -2920.5012822748763, 0.0]
['beep', 0.0, 235.00624120309845, 0.0, 0.0, 0.0, 0.0, -899.0542172258159, 0.0]
['beep', 0.0, 208.1617961122747, 0.0, 0.0, 0.0, 0.0, -838.5033414963891, 0.0]
['beep', 0.0, 685.1703745329827, 0.0, 0.0, 0.0, 0.0, -2933.979384181426, 0.0]
['beep', 0.0, 741.8543984716414, 0.0, 0.0, 0.0, 0.0, -3321.4692260586294, 0.0]
['beep', 0.0, 755.3325003781915, 0.0, 0.0, 0.0, 0.0, -2920.009543896859, 0.0]
['beep', 0.0, 236.66027029279118, 0.0, 0.0, 0.0, 0.0, -903.1445864611371, 0.0]
['beep', 0.0, 207.87122343435567, 0.0, 0.0, 0.0, 0.0, -836.894015895607, 0.0]
['beep', 0.0, 686.1091478001056, 0.0, 0.0, 0.0, 0.0, -2939.634375528619, 0.0]
['beep', 0.0, 745.0059944398397, 0.0, 0.0, 0.0, 0.0, -3324.062028415445, 0.0]
['beep', 0.0, 756.2489219008592, 0.0, 0.0, 0.0, 0.0, -2920.5236340193314, 0.0]
['beep', 0.0, 237.84491274892247, 0.0, 0.0, 0.0, 0.0, -905.4915196289444, 0.0]
['beep', 0.0, 207.3347815674283, 0.0, 0.0, 0.0, 0.0, -831.4848937374227, 0.0]
['beep', 0.0, 685.9526855889185, 0.0, 0.0, 0.0, 0.0, -2927.542081778298, 0.0]
['beep', 0.0, 739.351003092647, 0.0, 0.0, 0.0, 0.0, -3324.3078976044535, 0.0]
['beep', 0.0, 753.6784712884988, 0.0, 0.0, 0.0, 0.0, -2930.693677746496, 0.0]
['beep', 0.0, 237.956671471199, 0.0, 0.0, 0.0, 0.0, -909.1572057196148, 0.0]
['beep', 0.0, 204.4290547882384, 0.0, 0.0, 0.0, 0.0, -826.6345651906211, 0.0]
['beep', 0.0, 683.9186768434855, 0.0, 0.0, 0.0, 0.0, -2924.546948021287, 0.0]
['beep', 0.0, 743.8213519837084, 0.0, 0.0, 0.0, 0.0, -3319.278755102009, 0.0]
['beep', 0.0, 755.4666108449234, 0.0, 0.0, 0.0, 0.0, -2925.1951486104904, 0.0]
['beep', 0.0, 239.02955520505373, 0.0, 0.0, 0.0, 0.0, -910.7441795759415, 0.0]
['beep', 0.0, 203.62439198784733, 0.0, 0.0, 0.0, 0.0, -822.8347686332189, 0.0]
['beep', 0.0, 685.0586158107062, 0.0, 0.0, 0.0, 0.0, -2927.0503434002812, 0.0]
['beep', 0.0, 745.6318432845883, 0.0, 0.0, 0.0, 0.0, -3327.1465691502776, 0.0]
['beep', 0.0, 756.3606806231357, 0.0, 0.0, 0.0, 0.0, -2930.447808557488, 0.0]
['beep', 0.0, 239.18601741624087, 0.0, 0.0, 0.0, 0.0, -913.2699266993912, 0.0]
['beep', 0.0, 201.81390068696746, 0.0, 0.0, 0.0, 0.0, -813.4023324730794, 0.0]
['beep', 0.0, 686.1538512890162, 0.0, 0.0, 0.0, 0.0, -2919.3389915632, 0.0]
['beep', 0.0, 746.7494305073536, 0.0, 0.0, 0.0, 0.0, -3329.1135226623446, 0.0]
['beep', 0.0, 756.0030527118507, 0.0, 0.0, 0.0, 0.0, -2932.2359481139124, 0.0]
['beep', 0.0, 239.11896218287495, 0.0, 0.0, 0.0, 0.0, -912.6440778546427, 0.0]
['beep', 0.0, 198.4387872742161, 0.0, 0.0, 0.0, 0.0, -803.8581375906632, 0.0]
['beep', 0.0, 682.354054731614, 0.0, 0.0, 0.0, 0.0, -2908.900726902572, 0.0]
['beep', 0.0, 747.1294101630939, 0.0, 0.0, 0.0, 0.0, -3321.8268539699143, 0.0]
['beep', 0.0, 754.6172445556217, 0.0, 0.0, 0.0, 0.0, -2928.77142772334, 0.0]
['beep', 0.0, 237.84491274892247, 0.0, 0.0, 0.0, 0.0, -911.4817871429667, 0.0]
['beep', 0.0, 195.6001157283921, 0.0, 0.0, 0.0, 0.0, -797.2420212318923, 0.0]
['beep', 0.0, 679.51538318579, 0.0, 0.0, 0.0, 0.0, -2909.4595205139544, 0.0]
['beep', 0.0, 747.4870380743788, 0.0, 0.0, 0.0, 0.0, -3329.6052610403613, 0.0]
['beep', 0.0, 753.5667125662223, 0.0, 0.0, 0.0, 0.0, -2933.5323492923203, 0.0]
['beep', 0.0, 238.06843019347554, 0.0, 0.0, 0.0, 0.0, -911.5264906318773, 0.0]
['beep', 0.0, 193.87903140533345, 0.0, 0.0, 0.0, 0.0, -787.3849019271019, 0.0]
['beep', 0.0, 683.2034210209157, 0.0, 0.0, 0.0, 0.0, -2899.512994231343, 0.0]
['beep', 0.0, 753.7455265218648, 0.0, 0.0, 0.0, 0.0, -3322.8550342148587, 0.0]
['beep', 0.0, 756.8747707456077, 0.0, 0.0, 0.0, 0.0, -2926.536253277809, 0.0]
['beep', 0.0, 237.375526115361, 0.0, 0.0, 0.0, 0.0, -908.0396184968495, 0.0]
['beep', 0.0, 190.4815662481268, 0.0, 0.0, 0.0, 0.0, -775.9631605104399, 0.0]
['beep', 0.0, 682.3764064760693, 0.0, 0.0, 0.0, 0.0, -2891.4663662274324, 0.0]
['beep', 0.0, 770.218762185426, 0.0, 0.0, 0.0, 0.0, -3326.386609838797, 0.0]
['beep', 0.0, 766.061337716739, 0.0, 0.0, 0.0, 0.0, -2934.091142903703, 0.0]
['beep', 0.0, 239.72245928316823, 0.0, 0.0, 0.0, 0.0, -913.3146301883019, 0.0]
['beep', 0.0, 189.16281332526367, 0.0, 0.0, 0.0, 0.0, -770.9563697524512, 0.0]
['beep', 0.0, 682.0411303092397, 0.0, 0.0, 0.0, 0.0, -2886.2584097693457, 0.0]
['beep', 0.0, 768.1400499510825, 0.0, 0.0, 0.0, 0.0, -3321.223356869621, 0.0]
['beep', 0.0, 763.2673696598256, 0.0, 0.0, 0.0, 0.0, -2931.9453754359934, 0.0]
['beep', 0.0, 240.10243893890848, 0.0, 0.0, 0.0, 0.0, -917.6061651237209, 0.0]
['beep', 0.0, 188.71577843615754, 0.0, 0.0, 0.0, 0.0, -771.2916459192808, 0.0]
['beep', 0.0, 679.1354035300498, 0.0, 0.0, 0.0, 0.0, -2885.9901888358822, 0.0]
['beep', 0.0, 752.6055875546441, 0.0, 0.0, 0.0, 0.0, -3322.0503714144675, 0.0]
['beep', 0.0, 757.3665091236245, 0.0, 0.0, 0.0, 0.0, -2938.3603260946666, 0.0]
['beep', 0.0, 242.62818606235817, 0.0, 0.0, 0.0, 0.0, -926.2339384834694, 0.0]
['beep', 0.0, 189.09575809189775, 0.0, 0.0, 0.0, 0.0, -771.8057360417529, 0.0]
['beep', 0.0, 678.8895343410414, 0.0, 0.0, 0.0, 0.0, -2886.928962103005, 0.0]
['beep', 0.0, 750.8621514871302, 0.0, 0.0, 0.0, 0.0, -3326.9901069390903, 0.0]
['beep', 0.0, 761.3451196366692, 0.0, 0.0, 0.0, 0.0, -2943.188302897013, 0.0]
['beep', 0.0, 246.33857564193914, 0.0, 0.0, 0.0, 0.0, -933.9676420650056, 0.0]
['beep', 0.0, 189.49808949209327, 0.0, 0.0, 0.0, 0.0, -772.5880470976887, 0.0]
['beep', 0.0, 683.0246070652732, 0.0, 0.0, 0.0, 0.0, -2892.2710290278233, 0.0]
['beep', 0.0, 757.0982881901608, 0.0, 0.0, 0.0, 0.0, -3328.5323773065065, 0.0]
['beep', 0.0, 766.2625034168367, 0.0, 0.0, 0.0, 0.0, -2951.301986134289, 0.0]
['beep', 0.0, 249.9595582436989, 0.0, 0.0, 0.0, 0.0, -944.405906725634, 0.0]
['beep', 0.0, 191.8003191709899, 0.0, 0.0, 0.0, 0.0, -772.9233232645182, 0.0]
['beep', 0.0, 685.1480227885274, 0.0, 0.0, 0.0, 0.0, -2887.800680136762, 0.0]
['beep', 0.0, 750.0798404311944, 0.0, 0.0, 0.0, 0.0, -3325.738409249593, 0.0]
['beep', 0.0, 761.2333609143926, 0.0, 0.0, 0.0, 0.0, -2954.766506524862, 0.0]
['beep', 0.0, 251.23360767765138, 0.0, 0.0, 0.0, 0.0, -952.3184242628128, 0.0]
['beep', 0.0, 190.28040054802904, 0.0, 0.0, 0.0, 0.0, -774.7338145653981, 0.0]
['beep', 0.0, 679.9624180748962, 0.0, 0.0, 0.0, 0.0, -2888.784156892795, 0.0]
['beep', 0.0, 741.0273839267951, 0.0, 0.0, 0.0, 0.0, -3328.0182871840343, 0.0]
['beep', 0.0, 761.3674713811245, 0.0, 0.0, 0.0, 0.0, -2959.460372860476, 0.0]
['beep', 0.0, 253.93816875674355, 0.0, 0.0, 0.0, 0.0, -961.0132528559271, 0.0]
['beep', 0.0, 190.72743543713517, 0.0, 0.0, 0.0, 0.0, -773.638579087088, 0.0]
['beep', 0.0, 680.8117843641978, 0.0, 0.0, 0.0, 0.0, -2886.347816747167, 0.0]
['beep', 0.0, 744.9165874620185, 0.0, 0.0, 0.0, 0.0, -3324.2855458599984, 0.0]
['beep', 0.0, 762.1944859259709, 0.0, 0.0, 0.0, 0.0, -2957.9628059819706, 0.0]
['beep', 0.0, 255.48043912415972, 0.0, 0.0, 0.0, 0.0, -965.9753401250053, 0.0]
['beep', 0.0, 191.06271160396477, 0.0, 0.0, 0.0, 0.0, -774.3091314207472, 0.0]
['beep', 0.0, 681.4599849534018, 0.0, 0.0, 0.0, 0.0, -2888.5829911926976, 0.0]
['beep', 0.0, 742.703764760943, 0.0, 0.0, 0.0, 0.0, -3325.649002271772, 0.0]
['beep', 0.0, 761.836858014686, 0.0, 0.0, 0.0, 0.0, -2966.4341171305323, 0.0]
['beep', 0.0, 258.36381415889434, 0.0, 0.0, 0.0, 0.0, -975.854811174251, 0.0]
['beep', 0.0, 191.1297668373307, 0.0, 0.0, 0.0, 0.0, -775.4043668990573, 0.0]
['beep', 0.0, 681.1917640199381, 0.0, 0.0, 0.0, 0.0, -2886.1690027915247, 0.0]
['beep', 0.0, 743.0390409277727, 0.0, 0.0, 0.0, 0.0, -3324.0843801599003, 0.0]
['beep', 0.0, 764.8319917716971, 0.0, 0.0, 0.0, 0.0, -2967.3505386531997, 0.0]
['beep', 0.0, 261.3142444269949, 0.0, 0.0, 0.0, 0.0, -981.1521746101588, 0.0]
['beep', 0.0, 190.8168424149564, 0.0, 0.0, 0.0, 0.0, -773.415061642535, 0.0]
['beep', 0.0, 683.0916622986391, 0.0, 0.0, 0.0, 0.0, -2886.347816747167, 0.0]
['beep', 0.0, 744.9389392064738, 0.0, 0.0, 0.0, 0.0, -3327.9512319506684, 0.0]
['beep', 0.0, 766.2401516723814, 0.0, 0.0, 0.0, 0.0, -2971.7091288219845, 0.0]
['beep', 0.0, 264.0411572505423, 0.0, 0.0, 0.0, 0.0, -988.5953055137761, 0.0]
['beep', 0.0, 191.1968220706966, 0.0, 0.0, 0.0, 0.0, -772.4986401198674, 0.0]
['beep', 0.0, 683.1810692764603, 0.0, 0.0, 0.0, 0.0, -2882.95035158996, 0.0]
['beep', 0.0, 742.1449711495604, 0.0, 0.0, 0.0, 0.0, -3325.157263893755, 0.0]
['beep', 0.0, 766.3295586502027, 0.0, 0.0, 0.0, 0.0, -2975.9336085240375, 0.0]
['beep', 0.0, 265.60577936241384, 0.0, 0.0, 0.0, 0.0, -994.3173520943346, 0.0]
['beep', 0.0, 190.07923484793127, 0.0, 0.0, 0.0, 0.0, -769.704672062954, 0.0]
['beep', 0.0, 682.2869994982481, 0.0, 0.0, 0.0, 0.0, -2883.732662645896, 0.0]
['beep', 0.0, 742.547302549756, 0.0, 0.0, 0.0, 0.0, -3325.6266505273165, 0.0]
['beep', 0.0, 768.0059394843506, 0.0, 0.0, 0.0, 0.0, -2974.950131768004, 0.0]
['beep', 0.0, 266.92453228527694, 0.0, 0.0, 0.0, 0.0, -998.34066609629, 0.0]
['beep', 0.0, 189.67690344773573, 0.0, 0.0, 0.0, 0.0, -768.318863906725, 0.0]
['beep', 0.0, 683.0469588097285, 0.0, 0.0, 0.0, 0.0, -2883.1291655456025, 0.0]
['beep', 0.0, 743.5531310502447, 0.0, 0.0, 0.0, 0.0, -3324.196138882177, 0.0]
['beep', 0.0, 769.6599685740434, 0.0, 0.0, 0.0, 0.0, -2975.8665532906716, 0.0]
['beep', 0.0, 268.4220991637825, 0.0, 0.0, 0.0, 0.0, -1001.6710760201307, 0.0]
['beep', 0.0, 188.40285401378324, 0.0, 0.0, 0.0, 0.0, -764.1167359491272, 0.0]
['beep', 0.0, 683.0246070652732, 0.0, 0.0, 0.0, 0.0, -2878.5917614211753, 0.0]
['beep', 0.0, 744.8271804841972, 0.0, 0.0, 0.0, 0.0, -3325.872519716325, 0.0]
['beep', 0.0, 769.2352854293925, 0.0, 0.0, 0.0, 0.0, -2980.269846948367, 0.0]
['beep', 0.0, 268.35504393041657, 0.0, 0.0, 0.0, 0.0, -1006.3202388668345, 0.0]
['beep', 0.0, 187.84406040240054, 0.0, 0.0, 0.0, 0.0, -761.5462853367669, 0.0]
['beep', 0.0, 681.0353018087509, 0.0, 0.0, 0.0, 0.0, -2880.4022527220554, 0.0]
['beep', 0.0, 740.513293804323, 0.0, 0.0, 0.0, 0.0, -3330.096999418378, 0.0]
['beep', 0.0, 768.6317883290993, 0.0, 0.0, 0.0, 0.0, -2982.9744080274595, 0.0]
['beep', 0.0, 270.3219974424836, 0.0, 0.0, 0.0, 0.0, -1010.0529801908708, 0.0]
['beep', 0.0, 186.7264731796352, 0.0, 0.0, 0.0, 0.0, -758.1488201795603, 0.0]
['beep', 0.0, 679.3365692301476, 0.0, 0.0, 0.0, 0.0, -2876.311883486734, 0.0]
['beep', 0.0, 740.6027007821442, 0.0, 0.0, 0.0, 0.0, -3330.94636570768, 0.0]
['beep', 0.0, 767.2459801728702, 0.0, 0.0, 0.0, 0.0, -2986.3048179513003, 0.0]
['beep', 0.0, 271.10430849841936, 0.0, 0.0, 0.0, 0.0, -1015.4621023490552, 0.0]
['beep', 0.0, 184.89363013430003, 0.0, 0.0, 0.0, 0.0, -751.7785730097977, 0.0]
['beep', 0.0, 679.3589209746028, 0.0, 0.0, 0.0, 0.0, -2867.4829444268876, 0.0]
