[[-1215.2866977795004, -1173.3101216924335, -1188.554011410953, -1241.3041283254777, -1258.5373233005196, -1218.8629768923495, -1174.4500606596544, -1189.9621713116373, -1238.3760498018326, -1255.2069133766788, -1215.9796018576149, -1173.0419007589699, -1190.0515782894586, -1239.8289131914275, -1255.6986517546954, -1216.069008835436, -1171.3431681803665, -1188.5093079220424, -1237.5937387458966, -1253.4858290536201, -1215.7337326686065, -1174.8747438043051, -1188.4199009442211, -1241.7288114701284, -1259.0067099340808, -1215.3984565017768, -1173.1760112257018, -1187.0340927879922, -1238.3760498018326, -1254.3128435984665, -1218.7735699145283, -1177.4228426722102, -1186.14002300978, -1236.3643928008548, -1250.714212741162, -1212.71624716714, -1171.812554813928, -1184.396586942266, -1237.6384422348074, -1254.9833959321256, -1220.2711367930337, -1175.3441304378666, -1187.9058108217491, -1235.7608957005616, -1254.9833959321256, -1217.1418925692908, -1174.6065228708414, -1186.9223340657156, -1241.2370730921118, -1257.2185703776563, -1218.9970873590812, -1173.9359705371821, -1186.7211683656178, -1241.5723492589414, -1258.783192489528, -1215.1972908016792, -1168.236275701079, -1184.1283660088022, -1235.9620614006594, -1254.134029642824, -1217.1418925692908, -1173.6901013481738, -1185.6259328873077, -1236.9902416456034, -1255.7433552436062, -1221.81340716045, -1174.7406333375734, -1185.1118427648357, -1236.3196893119443, -1256.838590721916, -1222.0592763494583, -1176.394662427266, -1186.654113132252, -1237.1467038567905, -1254.2457883651005, -1219.0864943369024, -1175.8135170714281, -1187.458775932643, -1237.9960701460923, -1255.6315965213296, -1220.494654237587, -1174.9865025265817, -1184.0166072865256, -1237.8843114238157, -1260.5713320459524, -1222.2157385606456, -1175.1653164822242, -1187.1458515102688, -1238.7336777131175, -1255.5421895435084, -1219.712343181651, -1175.9476275381598, -1183.7036828641515, -1236.945538156693, -1255.1845616322234, -1218.6394594477963, -1175.1206129933134, -1182.0049502855481, -1234.0174596330476, -1254.9833959321256, -1220.360543770855, -1175.4111856712325, -1182.3849299412884, -1235.649136978285, -1258.269102367056, -1220.9193373822377, -1174.4947641485649, -1184.553049153453, -1233.6151282328522, -1260.906608212782, -1224.3168025394443, -1177.5793048833973, -1186.2741334765117, -1238.040773635003, -1259.9007797122931, -1220.6958199376845, -1175.0312060154922, -1184.7542148535508, -1235.6267852338297, -1258.2020471336898, -1222.6404217052964, -1182.6755026192072, -1185.4471189316653, -1234.4197910332432, -1256.7715354885502, -1219.6452879482852, -1173.7571565815397, -1183.7707380975173, -1237.6384422348074, -1259.096116911902, -1223.0651048499471, -1177.4004909277548, -1186.6094096433415, -1233.391610788299, -1254.357547087377, -1222.3498490273773, -1175.9699792826152, -1181.4461566741654, -1235.2468055780896, -1257.9785296891368, -1225.0767618509249, -1178.3169124504225, -1178.1828019836905, -1229.9941456310924, -1253.396422075799, -1226.1272938403242, -1179.0545200174477, -1180.753252596051, -1231.6034712318744, -1255.6315965213296, -1222.9533461276706, -1176.528772893998, -1183.6142758863302, -1230.552939242475, -1252.904683697782, -1221.8804623938158, -1175.3888339267771, -1179.3227409509113, -1233.548072999486, -1258.0008814335922, -1223.2215670611342, -1175.5676478824196, -1179.523906651009, -1229.0553723639694, -1254.9833959321256, -1221.5451862269863, -1175.7017583491515, -1181.3791014407996, -1231.938747398704, -1261.1524774017903, -1229.5024072530755, -1181.200287485157, -1179.3897961842772, -1229.4800555086204, -1256.2127418771674, -1224.3391542838997, -1177.691063605674, -1185.1118427648357, -1227.848378163383, -1258.2467506226005, -1227.647212463285, -1178.1828019836905, -1181.4685084186208, -1233.5033695105756, -1256.8832942108268, -1223.8027124169723, -1179.6356653732855, -1185.0000840425591, -1235.358564300366, -1261.040718679514, -1226.9990118740811, -1185.2236014871123, -1184.6648078757296, -1228.9659653861481, -1255.8327622214274, -1225.1214653398354, -1181.1555839962464, -1184.5306974089979, -1236.8561311788717, -1262.5606373024748, -1224.8979478952824, -1178.5404298949754, -1179.456851417643, -1230.5305874980197, -1259.9231314567485, -1231.938747398704, -1183.4131101862324, -1185.4024154427548, -1231.8493404208828, -1187.8611073328386, -1232.00580263207, -1280.0397014665248, -1275.2564281530892, -1228.1836543302124, -1217.2760030360225, -1266.3380821154217, -1311.4439024262313, -1304.2689924560777, -1261.5995122908964, -1247.1155818838577, -1292.1766987057565, -1339.5847486954628, -1335.0473445710356, -1286.611114336385, -1274.362358374877, -1321.3010217310216, -1369.647844987851, -1361.4671065172085, -1307.934678546748, -1287.4157771367761, -1325.8160741109937, -1369.4913827766638, -1355.7674116811052, -1308.2699547135776, -1286.2087829361897, -1327.8500828564268, -1367.8820571758815, -1350.8500279009377, -1301.1397482323348, -1283.3701113903655, -1325.2349287551558, -1369.2678653321107, -1351.1406005788567, -1298.6363528533404, -1282.6995590567064, -1324.9890595661473, -1368.7537752096387, -1351.5205802345968, -1303.2631639555889, -1284.2865329130332, -1326.0172398110915, -1366.9656356532141, -1354.4933622471526, -1303.419626166776, -1286.0523207250026, -1323.1562165208122, -1365.6468827303509, -1354.292196547055, -1304.0901785004353, -1283.4148148792763, -1320.6975246307284, -1366.093917619457, -1355.678004703284, -1313.5226146605748, -1289.6509515823068, -1329.0347253125578, -1375.2804845905882, -1366.228028086189, -1311.4662541706866, -1291.0591114829913, -1326.9336613337591, -1377.4039003138425, -1368.060871131524, -1312.9191175602816, -1290.4109108937873, -1327.939489834248, -1371.480688033186, -1363.5905222404626, -1312.7626553490943, -1291.550849861008, -1327.6042136674182, -1370.8771909328927, -1361.8247344284935, -1313.2543937271112, -1292.7131405726839, -1329.5264636905747, -1375.2804845905882, -1365.6021792414404, -1317.4341699402535, -1293.8977830288152, -1326.5089781891083, -1368.8878856763704, -1360.6847954612726, -1310.3486669479212, -1289.2933236710219, -1325.6372601553512, -1368.9772926541916, -1361.2659408171107, -1312.6061931379072, -1290.4109108937873, -1327.1795305227674, -1373.3135310785212, -1365.870400174904, -1315.0425332835357, -1287.5722393479634, -1325.391390966343, -1370.2736938325995, -1361.8917896618593, -1318.3729432073765, -1297.5411173750304, -1330.3087747465104, -1363.1658390958119, -1350.067716845002, -1296.9599720191923, -1263.5664658029636, -1290.6567800827956, -1322.2621467426, -1309.745169847628, -1254.8045819764832, -1219.5335292260086, -1249.0601836514693, -1288.8909922708265, -1275.5693525754634, -1217.1642443137462, -1186.4082439432436, -1214.325572767922, -1257.5538465444859, -1251.295358097, -1203.1273487958133, -1178.495726406065, -1213.5656134564417, -1257.5314948000307, -1248.7025557401844, -1199.8639941053384, -1177.5122496500314, -1212.1574535557572, -1257.48679131112, -1252.457648808676, -1203.0826453069026, -1174.6065228708414, -1209.7881686434948, -1259.5655035454636, -1253.9999191760921, -1200.1098632943467, -1173.6677496037184, -1209.81052038795, -1258.1573436447793, -1249.2837010960222, -1202.099168550869, -1176.908752549738, -1212.3362675113997, -1254.849285465394, -1249.6413290073071, -1201.0262848170144, -1173.9583222816375, -1207.5753459424193, -1253.6646430092626, -1248.00965166207, -1200.7580638835507, -1177.1322699942912, -1206.4801104641094, -1251.1835993747234, -1246.9814714171257, -1197.1370812817909, -1169.9797117685928, -1209.0282093320143, -1257.48679131112, -1252.256483108578, -1201.2274505171122, -1170.4043949132438, -1205.720151152629, -1256.2797971105335, -1252.8376284644162, -1203.1497005402687, -1173.332473436889, -1201.4733197061205, -1252.0553174084805, -1254.5363610430195, -1205.518985452531, -1172.7289763365957, -1204.71432265214, -1253.7987534759943, -1249.5072185405754, -1200.9145260947378, -1177.4228426722102, -1210.6151831883412, -1254.6928232542066, -1250.0436604075028, -1204.1778807852127, -1176.394662427266, -1205.3848749857993, -1255.363375587866, -1256.1233348993462, -1206.5918691863858, -1175.6123513713303, -1206.0554273194584, -1252.100020897391, -1250.9824336746258, -1202.5462034399752, -1175.746461838062, -1207.3965319867768, -1255.9445209437038, -1254.4693058096536, -1203.3508662403663, -1173.4218804147101, -1208.1117878093467, -1253.3293668424328, -1249.1719423737459, -1202.6803139067072, -1175.522944393509, -1201.6744854062183, -1249.8201429629496, -1253.396422075799, -1204.2896395074893, -1169.6220838573079, -1206.0777790639138, -1253.8658087093602, -1242.131142870324, -1197.5617644264419, -1174.8747438043051, -1206.7036279086624, -1251.6082825193744, -1253.3517185868882, -1205.3178197524333, -1174.070081003914, -1201.2274505171122, -1253.195256375701, -1253.8211052204497, -1202.0544650619586, -1168.4821448900873, -1199.9310493387043, -1250.490695296609, -1254.6257680208407, -1208.4470639761764, -1176.4617176606318, -1203.0602935624474, -1249.5295702850308, -1255.2069133766788, -1204.6696191632295, -1169.331511179389, -1198.2546685045563, -1248.3672795733548, -1254.3128435984665, -1205.7425028970843, -1172.7736798255062, -1202.7920726289838, -1252.39059357531, -1248.3672795733548, -1204.5802121854083, -1175.6794066046962, -1196.2430115035786, -1244.6792417382292, -1251.3847650748212, -1208.0223808315254, -1173.4442321591655, -1199.7075318941513, -1250.7365644856172, -1253.6646430092626, -1204.6249156743188, -1172.9301420366935, -1202.2109272731457, -1247.1602853727682, -1250.6918609967067, -1208.268250020534, -1172.818383314417, -1200.2439737610787, -1252.0106139195698, -1255.162209887768, -1214.1244070678244, -1176.6181798718192, -1203.8649563628385, -1252.614111019863, -1255.7657069880613, -1209.8552238768607, -1171.3431681803665, -1199.5287179385089, -1252.8376284644162, -1254.8045819764832, -1207.776511642517, -1173.0419007589699, -1198.6346481602966, -1247.0932301394023, -1251.3847650748212, -1207.2400697755897, -1174.4053571707436, -1199.327552238411, -1246.8250092059386, -1251.1612476302682, -1205.3401714968886, -1173.7124530926292, -1198.8581656048495, -1244.5451312714972, -1250.4459918076984, -1207.1953662866792, -1173.7124530926292, -1200.4004359722658, -1250.714212741162, -1251.9882621751144, -1204.4684534631317, -1173.8018600704504, -1201.5403749394864, -1249.7977912184945, -1254.5140092985641, -1214.0573518344584, -1174.8300403153946, -1194.231354502601, -1249.3060528404776, -1255.5868930324189, -1209.6987616656736, -1173.332473436889, -1196.913563837238, -1247.6967272396955, -1255.7210034991508, -1205.8095581304501, -1169.8679530463164, -1196.3324184813998, -1249.194294118201, -1258.5596750449747, -1219.9358606262042, -1172.6619211032298, -1189.716302122629, -1241.9970324035924, -1248.7696109735502, -1206.1895377861904, -1170.4267466576991, -1194.7901481139838, -1245.9309394277263, -1253.418773820254, -1209.1623197987462, -1173.108955992336, -1189.202212000157, -1240.7676864585503, -1250.133067385324, -1207.9553255981596, -1169.8008978129503, -1192.3091044794446, -1241.393535303299, -1252.9270354422374, -1212.425674489221, -1170.717319335618, -1190.4539096896542, -1244.4333725492206, -1252.614111019863, -1208.2011947871679, -1170.4043949132438, -1193.940781824682, -1246.7579539725727, -1254.2904918540112, -1208.6035261873635, -1176.975807783104, -1199.4393109606876, -1244.813352204961, -1254.6928232542066, -1210.168148299235, -1172.170182725213, -1193.1808225132015, -1240.6559277362737, -1250.4012883187877, -1209.43054073221, -1168.4821448900873, -1192.174994012713, -1244.299262082489, -1250.8259714634385, -1210.2128517881456, -1173.6006943703526, -1194.3654649693328, -1243.785171960017, -1250.3789365743323, -1206.7706831420282, -1169.1526972237466, -1191.3479794678665, -1245.7074219831732, -1257.263273866567, -1216.292526279989, -1177.489897905576, -1202.9932383290814, -1245.260387094067, -1253.3517185868882, -1207.7094564091512, -1171.5443338804644, -1189.42572944471, -1241.7511632145838, -1251.2059511191787, -1212.492729722587, -1173.2207147146123, -1194.1419475247799, -1247.9872999176146, -1258.716137256162, -1212.4480262336763, -1174.2935984484673, -1193.8960783357713, -1243.6287097488296, -1252.7929249755055, -1209.0282093320143, -1173.3995286702548, -1197.3158952374333, -1248.5907970179078, -1251.0494889079916, -1209.2517267765675, -1176.5734763829084, -1194.946610325171, -1244.1427998713018, -1258.8725994673491, -1217.745389669584, -1171.3431681803665, -1192.622028901819, -1241.5052940255755, -1250.8483232078938, -1212.135101811302, -1174.13713623728, -1188.6881218776848, -1238.4878085241091, -1253.2399598646116, -1214.5714419569306, -1172.460755403132, -1194.164299269235, -1245.0815731384246, -1252.234131364123, -1211.7327704111065, -1171.879610047294, -1189.0904532778804, -1240.7229829696398, -1253.7316982426285, -1212.872709378327, -1168.9515315236488, -1189.3586742113441, -1240.9465004141928, -1253.7540499870838, -1213.9008896232713, -1172.684272847685, -1192.1079387793468, -1241.7064597256733, -1252.5247040420418, -1212.6715436782295, -1173.1983629701572, -1189.202212000157, -1238.9348434132153, -1253.843456964905, -1216.6278024468188, -1174.8300403153946, -1192.9573050686486, -1241.617052747852, -1255.3410238434105, -1216.1807675577127, -1174.8970955487605, -1194.0525405469587, -1246.6238435058408, -1258.3361576004218, -1215.6666774352404, -1172.103127491847, -1182.228467730101, -1232.8551689213716, -1256.168038388257, -1219.332363525911, -1170.6949675911628, -1185.0000840425591, -1241.5276457700309, -1256.1903901327123, -1219.7570466705617, -1178.8980578062603, -1189.2469154890675, -1244.1427998713018, -1261.1524774017903, -1223.8921193947936, -1182.2955229634672, -1195.974790570115, -1248.836666206916, -1266.0028059485921, -1221.9475176271817, -1178.786299083984, -1195.5948109143749, -1243.5169510265532, -1258.4926198116088, -1223.5121397390533, -1169.689139090674, -1179.747424095562, -1232.6092997323633, -1243.293433582, -1203.037941817992, -1158.9826534965819, -1169.7338425795845, -1219.7570466705617, -1237.2808143235225, -1199.3052004939557, -1154.3111389054227, -1165.0846797328807, -1214.4149797457433, -1230.0612008644582, -1196.846508603872, -1154.6017115833417, -1162.6706913317075, -1209.0282093320143, -1225.0767618509249, -1192.1079387793468, -1148.9467202361488, -1160.524923863998, -1216.7619129135505, -1236.0291166340253, -1195.4159969587324, -1148.0302987134814, -1160.748441308551, -1216.5383954689976, -1233.8609974218605, -1195.1701277697239, -1153.3500138938443, -1167.5433716229645, -1217.1865960582013, -1235.8503026783828, -1198.1205580378244, -1151.8300952708835, -1161.0613657309254, -1216.1137123243466, -1237.8843114238157, -1203.7979011294724, -1163.3412436653666, -1174.6288746152968, -1226.90960489626, -1249.037831907014, -1216.650154191274, -1173.108955992336, -1184.843621831372, -1233.972756144137, -1250.2448261076006, -1217.3207065249333, -1174.9194472932159, -1186.6094096433415, -1234.263328822056, -1260.1913523902122, -1227.6919159521958, -1184.2401247310788, -1193.6725608912184, -1245.1933318607012, -1263.6335210363295, -1225.4790932511203, -1183.368406697322, -1193.0467120464698, -1244.9921661606033, -1260.839552979416, -1224.2050438171677, -1176.975807783104, -1187.5034794215537, -1239.7618579580615, -1260.39251809031, -1223.1768635722237, -1180.261514218034, -1188.4869561775872, -1237.0349451345141, -1258.5373233005196, -1225.0097066175588, -1176.171144982713], [-4058.1156680721842, -4087.8881916866535, -4097.186517380062, -4074.18657233555, -4051.253682524405, -4058.786220405844, -4085.3624445632036, -4096.113633646207, -4076.019415380885, -4052.572435447268, -4057.6686331830783, -4086.5694387637905, -4095.6218952681897, -4073.6277787241675, -4053.4665052254804, -4062.2507407964163, -4091.1068428882177, -4099.846374970242, -4079.863915427198, -4055.5005139709133, -4059.903807628609, -4087.99995040893, -4097.566497035801, -4074.9465316470305, -4051.61131043569, -4062.7201274299778, -4091.1068428882177, -4100.00283718143, -4078.5228107598796, -4053.600615692212, -4061.021394851374, -4088.0446538978404, -4100.5392790483575, -4080.355653805215, -4056.171066304573, -4063.4577349970027, -4089.9445521765415, -4101.0086656819185, -4077.5616857483014, -4055.0758308262625, -4063.010700107897, -4092.447947555536, -4102.148604649139, -4077.964017148497, -4054.584092448246, -4059.546179717324, -4087.9328951755638, -4099.935781948064, -4077.449927026025, -4054.539388959335, -4062.653072196612, -4087.8881916866535, -4098.348808091737, -4079.260418326905, -4057.355708760704, -4062.1166303296845, -4090.413938810103, -4102.349770349237, -4078.5004590154244, -4052.4606767249916, -4061.3343192737484, -4089.2292963539717, -4100.5392790483575, -4081.0485578833295, -4056.4392872380363, -4060.417897751081, -4087.195287608539, -4100.360465092715, -4083.261380584405, -4058.4062407501033, -4060.9096361290976, -4089.743386476444, -4104.316723861304, -4083.909581173609, -4057.3333570162486, -4061.580188462757, -4091.5315260328684, -4104.093206416751, -4080.6238747386788, -4055.5899209487347, -4060.5743599622683, -4087.9552469200194, -4100.516927303902, -4082.0096828949077, -4056.2828250268494, -4058.51799947238, -4084.803650951821, -4099.108767403218, -4080.221543338483, -4058.741516916933, -4063.971825119475, -4088.7822614648658, -4102.4168255826025, -4082.255552083916, -4058.160371561095, -4061.9154646295865, -4092.090319644251, -4105.81429073981, -4084.0436916403405, -4056.774563404866, -4061.4013745071147, -4088.4916887869467, -4099.756967992422, -4082.1437933616394, -4060.775525662366, -4063.3012727858154, -4090.995084165941, -4102.774453493887, -4081.0709096277847, -4060.037918095341, -4063.0777553412627, -4089.5869242652566, -4104.093206416751, -4084.9601131630084, -4059.7249936729663, -4063.323624530271, -4088.067005642296, -4102.372122093692, -4084.0436916403405, -4058.18272330555, -4062.7201274299778, -4087.8881916866535, -4103.892040716653, -4085.5859620077567, -4058.3168337722823, -4059.546179717324, -4089.385758565159, -4105.501366317435, -4084.6024852517235, -4057.7580401608993, -4061.1778570625615, -4089.005778909419, -4103.377950594181, -4084.155450362617, -4062.004871607408, -4063.3683280191817, -4089.9445521765415, -4103.243840127449, -4083.9542846625195, -4055.5005139709133, -4056.506342471402, -4088.156412620117, -4105.590773295256, -4087.642322497645, -4062.6307204521563, -4061.714298929489, -4087.0388253973515, -4102.57328779379, -4084.446023040536, -4058.875627383665, -4061.5578367183016, -4090.257476598916, -4103.914392461109, -4084.781299207366, -4059.8591041396985, -4064.2400460529384, -4090.413938810103, -4103.780281994376, -4084.870706185187, -4057.579226205257, -4060.0155663508854, -4088.0446538978404, -4104.473186072491, -4088.670502742589, -4062.384851263148, -4061.3343192737484, -4087.508212030913, -4104.38377909467, -4085.9882934079524, -4061.4684297404806, -4063.0777553412627, -4086.837659697254, -4101.9474389490415, -4085.4294997965694, -4060.149676817617, -4062.764830918888, -4089.8104417098098, -4105.568421550801, -4088.0446538978404, -4060.9766913624635, -4061.066098340285, -4086.792956208343, -4103.6685232721, -4089.1398893761507, -4063.4353832525476, -4063.1671623190837, -4092.2691335998934, -4107.043636684852, -4090.726863232477, -4062.1836855630504, -4060.9543396180084, -4087.6870259865555, -4103.735578505466, -4087.485860286458, -4063.681252441556, -4061.5578367183016, -4088.737557975955, -4104.808462239321, -4087.776432964377, -4060.9543396180084, -4064.061232097296, -4090.7492149769328, -4107.133043662673, -4088.6928544870443, -4063.010700107897, -4062.027223351863, -4089.5645725208014, -4105.836642484265, -4089.2292963539717, -4107.1106919182175, -4096.873592957687, -4069.850333911221, -4058.763868661388, -4078.5228107598796, -4105.434311084069, -4096.8959447021425, -4068.218656565983, -4059.0097378503965, -4079.550991004824, -4105.926049462086, -4097.81236622481, -4070.0067961224076, -4061.1108018291957, -4082.3673108061926, -4106.440139584558, -4100.405168581626, -4070.543237989335, -4059.0767930837624, -4081.0709096277847, -4106.8201192402985, -4100.405168581626, -4073.1807438350615, -4062.2060373075055, -4083.99898815143, -4107.825947740787, -4100.472223814992, -4074.5665519912905, -4064.2176943084833, -4083.9766364069746, -4110.19523265305, -4102.796805238343, -4072.644301968134, -4060.8202291512766, -4083.775470706877, -4108.898831474642, -4102.2380116269605, -4073.9183514020865, -4062.027223351863, -4083.8201741957873, -4110.23993614196, -4107.557726807324, -4079.1039561157177, -4066.3411100317376, -4085.2059823520167, -4107.2895058738595, -4104.42848258358, -4080.199191594028, -4068.8221536662763, -4089.4304620540697, -4112.1621861651165, -4106.149566906639, -4077.8075549373098, -4065.648205953623, -4086.1447556191392, -4112.363351865215, -4107.691837274056, -4078.4557555265137, -4066.4975722429244, -4085.6977207300333, -4111.424578598092, -4107.155395407128, -4078.2098863375054, -4066.229351309461, -4088.804613209321, -4115.514947833413, -4112.318648376304, -4081.3614823057037, -4068.3080635438046, -4089.6539794986224, -4115.380837366681, -4113.302125132337, -4083.0825666287624, -4068.196304821528, -4089.09518588724, -4114.553822821835, -4109.6364390416675, -4083.8201741957873, -4068.6209879661787, -4085.541258518846, -4112.877441987686, -4111.759854764921, -4082.1437933616394, -4064.865894897687, -4084.870706185187, -4114.263250143916, -4110.150529164139, -4082.881400928665, -4070.1409065891394, -4088.6034475092233, -4112.76568326541, -4109.077645430284, -4080.1768398495724, -4066.0728890982737, -4086.167107363595, -4111.469282087002, -4109.681142530578, -4083.5966567512346, -4068.777450177366, -4086.6141422527007, -4113.413883854614, -4110.798729753343, -4079.126307860173, -4060.1720285620727, -4075.8182496807876, -4103.556764549824, -4102.90856396062, -4077.2711130703824, -4062.8318861522544, -4080.4003572941256, -4103.6685232721, -4097.834717969265, -4068.3304152882597, -4052.550083702813, -4073.001929879419, -4098.237049369461, -4091.6209330106894, -4064.5306187308574, -4050.449019724014, -4069.202133322017, -4093.4090725671144, -4085.3177410742933, -4060.5743599622683, -4046.358650488693, -4064.642377453134, -4093.6549417561228, -4090.3692353211923, -4060.5073047289025, -4046.3362987442374, -4065.022357108874, -4092.023264410885, -4091.017435910396, -4065.312929786793, -4048.8843976121425, -4065.5364472313463, -4095.219563867994, -4096.292447601849, -4067.5257524878684, -4052.974766847464, -4069.515057744391, -4093.4761278004803, -4094.705473745522, -4068.285711799349, -4054.204112792506, -4073.2925025573377, -4099.1311191476725, -4100.226354625983, -4072.7113572015, -4057.0874878272402, -4074.2983310578265, -4100.472223814992, -4098.706436003022, -4070.386775778148, -4055.858141882198, -4076.37704329217, -4102.640343027156, -4100.449872070536, -4071.0796798562624, -4058.2050750500057, -4075.2818078138603, -4101.85803197122, -4099.8910784591535, -4072.2419705679386, -4058.4956477279247, -4075.0135868803964, -4101.455700571025, -4098.639380769656, -4072.0855083567512, -4057.780391905355, -4074.2089240800055, -4103.243840127449, -4105.47901457298, -4077.382871792659, -4059.8814558841536, -4076.1088223587067, -4105.590773295256, -4104.674351772589, -4077.449927026025, -4061.356671018204, -4075.9747118919745, -4103.802633738832, -4104.249668627938, -4076.7570229479106, -4061.4684297404806, -4077.651092726123, -4103.579116294279, -4105.590773295256, -4079.4392322825474, -4063.681252441556, -4078.5675142487903, -4105.322552361793, -4104.9425727060525, -4076.086470614251, -4060.2390837954385, -4077.695796215033, -4103.6685232721, -4106.104863417729, -4081.026206138874, -4063.2789210413603, -4078.388700293148, -4106.663657029111, -4104.964924450508, -4076.421746781081, -4061.4684297404806, -4080.0874328717514, -4107.557726807324, -4109.569383808302, -4081.003854394419, -4062.451906496514, -4079.416880538092, -4106.350732606737, -4108.451796585536, -4083.350787562226, -4065.9164268870863, -4081.0709096277847, -4108.161223907617, -4109.010590196918, -4079.3945287936367, -4061.736650673944, -4077.2711130703824, -4108.38474135217, -4108.272982629894, -4082.3002555728267, -4064.7094326865, -4078.5675142487903, -4107.490671573958, -4108.0494651853405, -4081.5626480058013, -4061.580188462757, -4075.8853049141535, -4107.267154129405, -4110.306991375326, -4081.227371838972, -4063.636548952645, -4081.3391305612486, -4109.077645430284, -4110.463453586513, -4084.133098618162, -4063.99417686393, -4078.321645059782, -4105.389607595159, -4108.34003786326, -4082.90375267312, -4065.357633275704, -4079.059252626807, -4104.7637587504105, -4108.518851818902, -4083.4625462845024, -4065.7152611869888, -4079.4392322825474, -4107.960058207519, -4111.245764642449, -4082.7025869730223, -4066.162296076095, -4082.859049184209, -4109.949363464041, -4112.318648376304, -4083.5296015178683, -4064.932950131053, -4080.1097846162065, -4107.177747151583, -4110.798729753343, -4087.642322497645, -4067.23517980995, -4081.2720753278827, -4112.206889654028, -4114.218546655005, -4086.1447556191392, -4067.324586787771, -4078.1651828485947, -4104.361427350214, -4112.139834420662, -4087.6199707531896, -4068.129249588162, -4080.5344677608573, -4108.429444841081, -4114.598526310745, -4089.09518588724, -4067.6822146990557, -4079.61804623819, -4108.854127985732, -4112.206889654028, -4088.7822614648658, -4070.1185548446842, -4083.417842795592, -4112.296296631849, -4112.8103867543205, -4084.9601131630084, -4067.7939734213323, -4078.008720637408, -4105.434311084069, -4112.408055354125, -4086.2788660858714, -4067.7269181879665, -4078.3663485486927, -4106.395436095648, -4110.284639630871, -4081.7861654503545, -4066.318758287282, -4080.869743927687, -4108.608258796723, -4111.178709409083, -4084.490726529447, -4067.27988329886, -4079.99802589393, -4106.484843073469, -4112.497462331947, -4084.200153851528, -4064.7541361754106, -4076.712319459, -4104.920220961598, -4110.821081497798, -4087.217639352994, -4068.1739530770724, -4079.260418326905, -4107.71418901851, -4113.883270488175, -4090.0116074099074, -4065.603502464712, -4079.4839357714577, -4107.1106919182175, -4112.363351865215, -4089.4304620540697, -4069.827982166765, -4077.651092726123, -4107.065988429307, -4114.330305377282, -4087.9552469200194, -4067.034014109852, -4078.321645059782, -4108.027113440885, -4114.106787932728, -4088.37993006467, -4067.1457728321284, -4076.5558572478126, -4106.529546562379, -4114.844395499754, -4089.899848687631, -4068.218656565983, -4077.3381683037483, -4104.7637587504105, -4111.804558253832, -4088.156412620117, -4067.8833803991533, -4081.80851719481, -4107.244802384949, -4110.709322775522, -4087.9552469200194, -4067.99513912143, -4076.578208992268, -4106.887174473664, -4116.788997267366, -4089.765738220899, -4069.872685655676, -4080.6909299720446, -4106.842470984754, -4111.402226853636, -4084.937761418553, -4067.4586972545026, -4080.892095672142, -4107.557726807324, -4113.838566999265, -4090.3021800878264, -4069.738575188944, -4076.8240781812765, -4105.09903491724, -4114.19619491055, -4086.3459213192373, -4065.312929786793, -4078.5675142487903, -4108.004761696429, -4115.403189111136, -4090.928028932575, -4066.1399443316395, -4074.4324415245587, -4104.696703517045, -4115.403189111136, -4092.4926510444466, -4067.838676910243, -4077.606389237212, -4106.8201192402985, -4115.604354811234, -4091.017435910396, -4068.062194354796, -4076.1982293365277, -4105.657828528622, -4116.476072844991, -4089.698682987533, -4067.7269181879665, -4077.382871792659, -4106.596601795745, -4116.3866658671695, -4090.682159743567, -4064.262397797394, -4077.069947370285, -4106.641305284656, -4115.716113533511, -4092.9173341890973, -4070.2973688003267, -4078.299293315327, -4104.920220961598, -4113.637401299167, -4090.123366132184, -4065.6258542091678, -4075.7511944474218, -4107.691837274056, -4114.95615422203, -4088.9834271649634, -4065.4917437424356, -4074.611255480201, -4103.199136638539, -4113.793863510355, -4088.648150998134, -4066.296406542827, -4074.5665519912905, -4101.366293593203, -4111.022247197896, -4087.0388253973515, -4065.9834821204527, -4073.6501304686226, -4100.583982537268, -4111.268116386905, -4087.485860286458, -4062.4966099854246, -4070.967921133986, -4099.175822636584, -4109.614087297212, -4086.0777003857734, -4062.653072196612, -4064.016528608385, -4089.2739998428824, -4098.728787747477, -4073.0242816238742, -4048.8396941232318, -4055.1428860596284, -4082.166145106095, -4087.9328951755638, -4062.3401477742373, -4035.898034083609, -4038.937871329531, -4064.5306187308574, -4072.3984327791254, -4043.3635167316816, -4019.380094931137, -4021.771731587855, -4043.5646824317796, -4050.672537168567, -4028.611365391179, -4004.136205212618, -4008.4500918924923, -4028.521958413358, -4032.3441067152153, -4004.9855715019194, -3975.7271380099223, -3987.3500451266823, -4012.6298681056346, -4012.607516361179, -3980.3763008566266, -3949.262672574839, -3953.487152276892, -3977.5376293108025, -3980.1751351565285, -3950.6037772421573, -3923.647573429057, -3924.5639949517245, -3950.693184219979, -3958.359832568149, -3937.595061969169, -3914.483358202381, -3917.478491959392, -3939.6961259479676, -3947.6980504629673, -3921.8594338726325, -3891.2598957133173, -3901.072311529197, -3933.5046927338476, -3944.769971939322, -3922.5299862062916, -3894.8585265706215, -3897.876012072088, -3927.134445564085, -3937.30448929125, -3913.9245645909987, -3887.840078811655, -3902.0557882852304, -3934.1528933230516, -3942.8924254050767, -3918.8643001156215, -3892.712759102912, -3897.8313085831774, -3925.3463060076606, -3937.5056549913475, -3913.1199017906074, -3894.00916028132, -3902.6145818966133, -3929.839006643177, -3936.9915648688752, -3915.198614024951, -3894.1656224925073, -3900.2452969843507, -3929.839006643177, -3946.133428351096, -3925.6368786855796, -3901.4075876960264, -3912.4269977124927, -3940.7243061929116, -3952.8165999432326, -3931.582442710691, -3912.5387564347693, -3919.9595355939314, -3950.4696667754256, -3966.2499983608723, -3947.9662713964312, -3932.2753467888056, -3944.389992283582, -3978.990492700397, -3997.967123742953, -3982.4326613465146, -3962.718422736934, -3973.156687397562, -4005.36555115766, -4023.582222888735, -4005.7455308134, -3984.6231323031348, -3993.2509056628833, -4021.7270280989446, -4037.194435262017, -4023.6269263776458, -4002.6162865896567, -4006.684304080523, -4035.98744106143, -4053.8241331367653, -4036.1886067615283, -4010.7299698269335, -4015.4014844180924, -4045.2634150103827, -4059.7249936729663, -4040.770714374866, -4018.9777635309415, -4026.0185630343635, -4053.6900226700336]]
[[-1157.4180313847103, -1191.3703312123218, -1239.9183201692488, -1237.7949044459945, -1189.6045434003524, -1155.9428162506601, -1187.1458515102688, -1236.230282334123, -1232.1175613543464, -1181.937895052182, -1156.0545749729365, -1192.778491113006, -1241.393535303299, -1236.945538156693, -1193.1584707687464, -1158.8708947743053, -1191.4820899345982, -1239.1583608577682, -1236.297337567489, -1183.390758441777, -1157.5968453403527, -1191.4820899345982, -1240.521817269542, -1233.324555554933, -1184.3518834533554, -1159.6308540857858, -1190.2527439895564, -1232.9445758991928, -1233.2798520660224, -1184.2177729866235, -1154.557008094431, -1192.3091044794446, -1241.907625425771, -1233.6374799773073, -1182.4966886635648, -1154.6464150722522, -1190.1409852672798, -1237.6607939792627, -1235.8279509339275, -1186.7658718545285, -1156.5463133509534, -1193.0914155353803, -1241.326480069933, -1239.2701195800448, -1187.0787962769027, -1156.7698307955063, -1188.5763631554084, -1236.1855788452124, -1235.7608957005616, -1190.0515782894586, -1157.2615691735232, -1187.2576102325452, -1238.845436435394, -1236.9902416456034, -1185.2683049760228, -1156.7251273065958, -1189.6939503781737, -1236.7667242010505, -1235.5373782560084, -1189.42572944471, -1157.976824996093, -1189.0457497889697, -1236.1855788452124, -1235.9844131451146, -1188.5316596664977, -1158.0662319739142, -1186.7211683656178, -1237.0349451345141, -1240.745334714095, -1188.911639322238, -1156.2557406730343, -1188.1516800107574, -1234.3750875443325, -1235.6267852338297, -1186.4752991766095, -1155.9204645062048, -1190.7444823675733, -1239.9853754026146, -1238.1301806128242, -1191.6162004013302, -1163.3859471542773, -1186.4082439432436, -1229.5694624864416, -1234.2409770776007, -1190.1186335228244, -1157.4180313847103, -1186.2070782431458, -1236.587910245408, -1237.750200957084, -1191.7279591236068, -1158.0885837183696, -1192.3985114572658, -1236.4314480342207, -1233.0786863659248, -1188.0175695440257, -1156.5910168398639, -1187.0117410435369, -1234.6656602222515, -1234.9115294112598, -1191.2138690011345, -1156.300444161945, -1187.7940520994725, -1237.325517812433, -1235.0456398779918, -1189.4033777002546, -1151.427763870688, -1185.5141741650314, -1235.8503026783828, -1237.750200957084, -1190.655075389752, -1156.0322232284814, -1190.4315579451988, -1236.2749858230336, -1233.324555554933, -1190.1409852672798, -1157.105106962336, -1182.228467730101, -1232.4304857767208, -1240.0971341248912, -1191.2138690011345, -1156.9933482400595, -1184.7989183424615, -1233.0563346214694, -1236.8561311788717, -1192.1526422682575, -1158.6920808186628, -1185.3130084649335, -1235.425619533732, -1240.2535963360783, -1194.7901481139838, -1159.5190953635092, -1187.6599416327408, -1239.4042300467765, -1242.645232992796, -1192.622028901819, -1155.6075400838304, -1184.3518834533554, -1233.6374799773073, -1239.1136573688577, -1194.4995754360648, -1156.4122028842214, -1182.4519851746543, -1228.9883171306035, -1234.7327154556174, -1190.7668341120284, -1154.8252290278947, -1181.6026188853525, -1231.0223258760366, -1235.5597300004638, -1193.1137672798357, -1156.9039412622383, -1183.390758441777, -1233.4586660216648, -1241.7958667034945, -1193.2478777465676, -1154.7805255389842, -1184.8883253202828, -1238.19723584619, -1239.5606922579639, -1193.1808225132015, -1158.7367843075735, -1182.228467730101, -1229.9494421421816, -1235.9173579117487, -1194.879555091805, -1155.719298806107, -1178.071043261414, -1230.329421797922, -1240.7229829696398, -1195.5501074254641, -1153.7746970384953, -1181.8261363299057, -1232.6316514768187, -1237.973718401637, -1193.80667135795, -1155.1605051947242, -1178.8757060618052, -1228.2507095635783, -1238.8230846909387, -1193.2702294910227, -1156.3451476508556, -1177.04286301647, -1228.7200961971398, -1240.9017969252823, -1196.5112324370423, -1157.9097697627271, -1182.653150874752, -1227.6695642077405, -1235.9620614006594, -1194.8348516028943, -1158.0885837183696, -1182.2508194745565, -1233.8609974218605, -1236.9008346677822, -1192.2196975016234, -1157.7533075515398, -1180.7085491071402, -1233.972756144137, -1243.2263783486342, -1196.1312527813022, -1160.7707930530064, -1184.1283660088022, -1235.0679916224472, -1242.5111225260644, -1194.6336859027965, -1156.2110371841238, -1182.3402264523777, -1230.7094014536622, -1237.8619596793603, -1200.0875115498916, -1164.9952727550594, -1187.2576102325452, -1235.7608957005616, -1243.8522271933828, -1201.2050987726568, -1161.0837174753806, -1181.781432840995, -1233.5927764883968, -1241.5723492589414, -1201.4509679616651, -1162.8718570318053, -1179.7027206066514, -1230.1729595867348, -1240.7006312251845, -1198.299371993467, -1159.0944122188585, -1179.1215752508135, -1228.0271921190254, -1238.9348434132153, -1196.5112324370423, -1158.490915118565, -1179.5462583954643, -1230.1282560978243, -1241.9970324035924, -1201.2721540060227, -1156.4122028842214, -1175.5676478824196, -1227.5578054854639, -1236.1185236118465, -1196.846508603872, -1159.9214267637046, -1180.8426595738722, -1230.105904353369, -1241.2370730921118, -1198.679351649207, -1155.9651679951153, -1174.1147844928246, -1226.6637357072516, -1237.750200957084, -1194.432520202699, -1156.4122028842214, -1176.5958281273638, -1226.6413839627962, -1241.7511632145838, -1199.104034793858, -1156.4569063731321, -1175.299426948956, -1225.3226310399332, -1237.5266835125308, -1195.751273125562, -1157.2392174290678, -1178.205153728146, -1228.9883171306035, -1241.7064597256733, -1202.456796462154, -1158.84854302985, -1171.3208164359114, -1221.8804623938158, -1237.772552701539, -1200.1098632943467, -1157.395679640255, -1175.5676478824196, -1229.4130002752543, -1240.879445180827, -1198.0535028044585, -1153.2829586604785, -1170.1585257242352, -1222.327497282922, -1237.6831457237179, -1198.366427226833, -1157.5297901069869, -1199.394607471777, -1154.557008094431, -1164.5482378659533, -1216.0019536020702, -1238.0854771239135, -1203.2167557736345, -1155.6075400838304, -1166.5822466113862, -1217.7677414140394, -1236.0514683784806, -1199.3052004939557, -1156.7474790510512, -1164.2800169324896, -1213.8561861343605, -1237.8172561904498, -1203.8649563628385, -1158.4685633741099, -1166.4034326557437, -1217.0301338470142, -1238.711325968662, -1205.5413371969864, -1155.8981127617494, -1160.524923863998, -1215.130235568313, -1238.19723584619, -1203.1273487958133, -1161.3072349199338, -1166.1128599778247, -1218.9970873590812, -1242.8240469484385, -1203.6637906627407, -1157.6415488292635, -1165.1740867107019, -1220.2040815596679, -1240.7006312251845, -1204.71432265214, -1159.9214267637046, -1168.683310590185, -1217.9689071141372, -1240.9688521586481, -1210.7045901661625, -1159.2061709411348, -1165.844639044361, -1222.1263315828244, -1241.393535303299, -1209.2740785210226, -1161.262531431023, -1168.750365823551, -1219.5335292260086, -1241.3488318143884, -1209.4975959655758, -1162.8718570318053, -1166.6940053336627, -1217.588927458397, -1241.7735149590392, -1208.134139553802, -1161.106069219836, -1167.4539646451433, -1216.8066164024613, -1242.9134539262598, -1210.1905000436902, -1163.0506709874478, -1168.0127582565258, -1219.779398415017, -1238.420753290743, -1205.2507645190674, -1162.5142291205204, -1166.425784400199, -1215.2866977795004, -1239.3371748134107, -1208.8046918874613, -1162.6483395872522, -1164.6152930993192, -1207.0612558199473, -1230.4858840091092, -1203.9990668295702, -1160.7260895640957, -1155.4063743837328, -1203.395569729277, -1230.8435119203941, -1200.5345464389977, -1157.2839209179785, -1158.781487796484, -1209.7881686434948, -1235.0232881335364, -1206.7036279086624, -1159.1614674522243, -1160.748441308551, -1210.0787413214136, -1238.264291079556, -1206.5695174419307, -1155.5628365949199, -1156.0545749729365, -1206.4801104641094, -1235.3138608114555, -1205.3401714968886, -1157.1945139401573, -1158.8708947743053, -1214.616145445841, -1236.8337794344163, -1205.876613363816, -1161.9554355091377, -1164.235313443579, -1209.2517267765675, -1235.0903433669023, -1209.0952645653801, -1160.8378482863723, -1162.0224907425036, -1214.817311145939, -1243.9639859156594, -1211.5092529665535, -1162.7377465650734, -1163.3188919209115, -1214.3479245123774, -1238.6666224797516, -1206.1224825528245, -1157.3062726624337, -1154.7581737945288, -1207.038904075492, -1235.3809160448213, -1202.5685551844306, -1150.6007493258417, -1155.3169674059116, -1206.748331397573, -1237.258462579067, -1206.8824418643048, -1157.820362784906, -1157.5744935958974, -1209.587002943397, -1239.650099235785, -1209.3187820099333, -1158.3121011629225, -1159.8096680414283, -1210.7045901661625, -1240.2088928471676, -1209.229375032112, -1162.6036360983417, -1158.3568046518333, -1207.977677342615, -1239.1136573688577, -1210.3693139993327, -1162.4471738871543, -1160.6813860751852, -1212.6044884448634, -1244.3663173158548, -1214.973773357126, -1162.8942087762605, -1162.268359931512, -1213.878537878816, -1245.260387094067, -1220.8969856377823, -1167.6327786007857, -1163.8553337878388, -1213.3867995007993, -1241.6617562367626, -1212.9397646116931, -1167.5210198785092, -1163.1847814541795, -1209.587002943397, -1239.583044002419, -1214.2808692790115, -1166.0011012555483, -1168.5939036123639, -1212.068046577936, -1238.1748841017347, -1210.5928314438859, -1163.5424093654644, -1164.2800169324896, -1208.9164506097377, -1237.772552701539, -1212.068046577936, -1163.6094645988303, -1163.1847814541795, -1209.944630854682, -1238.3760498018326, -1211.0845698219025, -1163.0283192429924, -1159.295577918956, -1203.7308458961065, -1236.0291166340253, -1213.4091512452544, -1165.1740867107019, -1157.395679640255, -1207.8659186203383, -1238.1525323572794, -1212.358619255855, -1163.2965401764561, -1156.7027755621405, -1206.7259796531177, -1241.6617562367626, -1215.6443256907853, -1165.5764181108973, -1157.9544732516376, -1207.4188837312322, -1240.1194858693464, -1214.303221023467, -1163.5647611099198, -1160.0108337415259, -1206.5471656974753, -1239.0466021354916, -1214.1244070678244, -1164.0341477434813, -1158.0662319739142, -1205.3848749857993, -1240.678279480729, -1218.6171077033412, -1166.3587291668332, -1157.7086040626293, -1206.3683517418328, -1239.1583608577682, -1215.2866977795004, -1164.816458799417, -1158.7367843075735, -1207.3518284978663, -1241.3041283254777, -1216.4042850022656, -1164.011795999026, -1155.6298918282857, -1206.033075575003, -1241.326480069933, -1216.3819332578103, -1166.0011012555483, -1157.0156999845149, -1207.0165523310368, -1240.5441690139974, -1218.1477210697797, -1168.7727175680063, -1161.9554355091377, -1212.0233430890255, -1242.9581574151705, -1218.1924245586902, -1167.744537323062, -1157.8874180182718, -1203.6414389182853, -1238.5772155019304, -1213.677372178718, -1164.1012029768472, -1155.6075400838304, -1204.0214185740256, -1241.907625425771, -1218.4606454921538, -1162.4471738871543, -1152.4782958600874, -1199.2828487495005, -1234.3750875443325, -1217.3207065249333, -1166.8951710337606, -1157.4180313847103, -1203.23910751809, -1241.840570192405, -1218.1924245586902, -1166.2246187001012, -1159.3402814078668, -1206.1448342972797, -1243.8522271933828, -1221.2099100601567, -1170.4714501466096, -1161.3519384088443, -1204.4684534631317, -1239.203064346679, -1217.1865960582013, -1166.5822466113862, -1155.495781361554, -1203.3285144959111, -1241.9299771702263, -1218.6394594477963, -1169.1526972237466, -1157.7980110404505, -1198.4111307157434, -1241.4382387922096, -1226.2390525626008, -1173.6453978592633, -1158.0438802294589, -1202.4344447176989, -1244.0310411490252, -1222.8415874053942, -1174.8300403153946, -1163.3188919209115, -1206.323648252922, -1239.4712852801426, -1216.3148780244444, -1168.2809791899895, -1154.9593394946266, -1199.4840144495981, -1237.5937387458966, -1219.198253059179, -1171.589037369375, -1159.9214267637046, -1201.1827470282014, -1239.2924713245002, -1219.1759013147237, -1168.906828034738, -1155.9651679951153, -1200.5568981834529, -1237.906663168271, -1222.5286629830198, -1170.0914704908694, -1154.400545883244, -1199.4169592162323, -1236.744372456595, -1216.4042850022656, -1167.3422059228667, -1155.2722639170008, -1200.9368778391931, -1237.6607939792627, -1219.2206048036344, -1168.0351100009811, -1155.138153450269, -1199.819290616428, -1241.170017858746, -1221.7910554159946, -1174.2488949595565, -1161.0166622420147, -1201.5180231950312, -1239.1136573688577, -1220.1817298152125, -1169.9573600241376, -1155.0487464724479, -1196.1089010368469, -1234.1515700997795, -1217.454816991665, -1168.4150896567214, -1154.691118561163, -1198.6122964158412, -1237.1914073457012, -1221.9028141382712, -1168.9291797791934, -1152.3665371378108, -1196.8912120927826, -1238.6889742242067, -1220.0923228373913, -1170.4267466576991, -1151.651281315241, -1194.5219271805202, -1237.8619596793603, -1220.5840612154082, -1170.13617397978, -1154.2217319276015, -1199.104034793858, -1238.4431050351984, -1219.1088460813578, -1169.5773803683974, -1156.0545749729365, -1198.3887789712883, -1232.519892754542, -1219.8017501594722, -1168.7727175680063, -1154.8028772834393, -1198.4111307157434, -1238.1301806128242, -1223.9591746281594, -1172.7066245921403, -1152.3888888822662, -1196.555935925953, -1241.2147213476565, -1221.1205030823355, -1169.9797117685928, -1150.7572115370288, -1193.0690637909252, -1237.10200036788, -1222.8862908943047, -1169.3538629238442, -1152.2771301599896, -1195.103072536358, -1236.744372456595, -1222.618069960841, -1171.5443338804644, -1154.4899528610651, -1194.5219271805202, -1235.9173579117487, -1224.4732647506314, -1176.0593862604364, -1153.5735313383975, -1195.684217892196, -1239.5159887690531, -1225.5908519733969, -1171.6113891138302, -1152.0536127154367, -1190.4986131785647, -1233.4810177661202, -1222.5733664719305, -1172.7736798255062, -1154.2440836720566, -1196.5335841814976, -1237.4372765347096, -1222.8415874053942, -1171.879610047294, -1153.0147377270148, -1194.1419475247799, -1236.4090962897656, -1222.8415874053942, -1176.0817380048918, -1157.1274587067912, -1191.9514765681597, -1234.5091980110644, -1223.4003810167767, -1177.0875665053804, -1159.8096680414283, -1191.7056073791514, -1236.4090962897656, -1225.3673345288437, -1174.1147844928246, -1155.3169674059116, -1195.1477760252687, -1235.7385439561062, -1225.903776395771, -1174.7629850820285, -1154.6017115833417, -1194.454871947154, -1236.4985032675868, -1225.4790932511203, -1172.2595897030342, -1152.5229993489982, -1196.3100667369447, -1238.8901399243045, -1225.523796740031, -1172.6619211032298, -1150.3995836257438, -1189.8727643338161, -1231.8046369319723, -1219.1311978258132, -1170.1138222353247, -1148.7008510471405, -1185.782395098495, -1230.2400148201007, -1226.328459540422, -1174.2265432151012, -1148.2538161580344, -1189.2469154890675, -1235.805599189472, -1223.1545118277684, -1176.171144982713, -1147.3150428909116, -1183.9942555420705, -1232.3187270544443, -1220.874633893327, -1169.331511179389, -1151.3160051484115, -1189.4704329336207, -1231.6258229763298, -1222.6404217052964, -1171.7902030694727, -1146.4433248571545, -1181.8261363299057, -1228.2730613080337, -1220.4499507486762, -1171.0972989913582, -1147.5832638243753, -1188.106976521847, -1228.3848200303103, -1216.9630786136483, -1173.555990881442, -1149.684327803174, -1184.1060142643469, -1229.7706281865392, -1221.2099100601567, -1171.8572583028388, -1150.3548801368333, -1186.587057898886, -1233.1457415992907, -1224.0262298615253, -1175.366482182322, -1150.9583772371266, -1187.5705346549196, -1230.1953113311902, -1226.2614043070562, -1179.7250723511067, -1149.75138303654, -1185.5141741650314], [-4120.678200802588, -4117.705418790033, -4088.2681713423935, -4071.794935678832, -4090.1680696210947, -4118.375971123693, -4117.906584490131, -4095.6665987571, -4078.545162504335, -4090.413938810103, -4117.86188100122, -4117.616011812212, -4089.7210347319888, -4074.968883391486, -4096.00187492393, -4119.985296724474, -4119.739427535466, -4092.649113255634, -4074.7230142024773, -4090.056310898818, -4118.443026357058, -4119.806482768832, -4092.894982444642, -4078.2769415708713, -4094.4372528120584, -4120.477035102491, -4120.253517657938, -4092.4926510444466, -4075.7511944474218, -4092.515002788902, -4118.24186065696, -4116.431369356081, -4085.80947945231, -4072.5325432458576, -4091.2633050994045, -4119.538261835368, -4120.1417589356615, -4092.962037678008, -4076.667615970089, -4092.1126713887065, -4117.548956578846, -4118.711247290522, -4093.4314243115696, -4073.9183514020865, -4090.123366132184, -4121.594622325257, -4123.24865141495, -4094.5266597898794, -4077.8299066817654, -4093.4537760560247, -4121.169939180606, -4121.86284325872, -4092.6267615111783, -4077.226409581472, -4090.9503806770304, -4120.030000213385, -4121.751084536443, -4094.3031423453267, -4078.053424126318, -4091.956209177519, -4119.448854857547, -4122.131064192184, -4095.0854534012624, -4076.958188648008, -4091.4644707995026, -4117.43719785657, -4122.913375248119, -4096.918296446597, -4078.053424126318, -4094.1690318785945, -4120.544090335857, -4120.588793824768, -4095.4654330570024, -4075.035938624852, -4090.056310898818, -4120.544090335857, -4122.421636870103, -4093.833755711765, -4077.4275752815697, -4091.9785609219743, -4118.666543801612, -4119.873538002198, -4094.57136327879, -4079.8862671716533, -4094.7501772344326, -4120.38762812467, -4120.566442080312, -4093.252610355927, -4077.069947370285, -4092.291485344349, -4118.778302523888, -4120.164110680117, -4096.270095857393, -4079.126307860173, -4092.6267615111783, -4122.712209548022, -4124.030962470885, -4097.052406913329, -4080.1768398495724, -4092.738520233455, -4121.572270580801, -4123.829796770787, -4094.481956300969, -4075.639435725145, -4094.861935956709, -4121.549918836346, -4122.108712447728, -4096.04657841284, -4076.8240781812765, -4090.8609736992094, -4119.180633924083, -4122.041657214362, -4095.4430813125473, -4073.6948339575333, -4090.8386219547538, -4118.890061246164, -4120.365276380215, -4093.252610355927, -4076.4888020144467, -4091.8444504552426, -4120.633497313678, -4122.153415936639, -4095.1078051457175, -4077.2040578370165, -4093.8114039673096, -4118.95711647953, -4120.588793824768, -4099.019360425396, -4079.7968601938323, -4092.6267615111783, -4122.6228025702, -4123.159244437128, -4097.767662735899, -4079.5286392603684, -4090.995084165941, -4118.554785079335, -4121.974601980996, -4096.314799346304, -4078.5228107598796, -4089.3410550762483, -4116.990162967463, -4123.6733345596, -4095.7113022460107, -4076.7793746923658, -4089.005778909419, -4117.101921689739, -4123.941555493064, -4097.879421458176, -4077.7181479594888, -4089.966903920997, -4123.203947926038, -4127.7190003060105, -4100.874555215187, -4082.6802352285667, -4093.833755711765, -4119.985296724474, -4125.997915982952, -4100.114595903707, -4082.6802352285667, -4095.510136545913, -4122.0193054699075, -4126.199081683049, -4102.148604649139, -4080.1321363606617, -4092.582058022268, -4121.2593461584265, -4124.43329387108, -4100.494575559446, -4081.674406728078, -4091.5538777773236, -4121.304049647338, -4126.444950872058, -4097.991180180452, -4077.5169822593907, -4093.8784592006755, -4123.695686304055, -4129.86476777372, -4104.741407005955, -4081.6967584725335, -4091.1962498660387, -4120.901718247142, -4127.517834605913, -4101.343941848748, -4082.0990898727287, -4093.923162689586, -4123.718038048511, -4130.088285218273, -4105.277848872883, -4082.635531739656, -4092.3361888332597, -4121.348753136248, -4129.171863695606, -4100.628686026178, -4079.573342749279, -4092.2020783665275, -4121.0805322027845, -4129.395381140159, -4103.780281994376, -4078.992197393441, -4091.4644707995026, -4118.107750190228, -4125.170901438106, -4104.272020372394, -4084.736595718455, -4093.8784592006755, -4120.342924635759, -4129.194215440061, -4105.546069806346, -4083.350787562226, -4093.5208312893906, -4120.834663013776, -4128.166035195117, -4104.696703517045, -4081.6967584725335, -4093.543183033846, -4122.242822914461, -4128.836587528776, -4103.042674427352, -4079.61804623819, -4091.084491143762, -4120.342924635759, -4126.847282272253, -4104.249668627938, -4082.546124761835, -4094.0125696674077, -4120.857014758231, -4126.512006105424, -4102.640343027156, -4079.8862671716533, -4088.7822614648658, -4118.063046701318, -4126.8919857611645, -4104.562593050313, -4083.261380584405, -4092.067967899796, -4117.839529256765, -4124.522700848902, -4102.752101749433, -4082.4567177840136, -4090.726863232477, -4119.33709613527, -4129.574195095801, -4104.7637587504105, -4080.8473921832315, -4089.899848687631, -4120.812311269321, -4130.915299763119, -4105.613125039712, -4082.7249387174775, -4090.391587065648, -4120.186462424572, -4126.109674705229, -4102.595639538245, -4080.512116016402, -4091.5091742884133, -4122.0193054699075, -4130.021229984907, -4106.373084351192, -4083.7084154735107, -4090.5256975323796, -4116.118444933706, -4126.087322960773, -4106.015456439907, -4085.4965550299357, -4093.4761278004803, -4122.756913036932, -4129.462436373525, -4105.2331453839715, -4081.7414619614437, -4091.710339988511, -4120.879366502687, -4129.574195095801, -4104.182613394572, -4078.4557555265137, -4087.8434881977428, -4122.131064192184, -4129.14951195115, -4106.708360518022, -4083.417842795592, -4090.615104510201, -4119.962944980019, -4087.9105434311086, -4114.19619491055, -4128.188386939572, -4111.0445989423515, -4087.441156797547, -4088.9834271649634, -4116.029037955885, -4129.641250329167, -4109.837604741765, -4082.836697439754, -4084.0883951292512, -4107.9377064630635, -4113.615049554712, -4084.2672090848937, -4054.315871514782, -4050.5607784462904, -4072.353729290215, -4080.959150905508, -4055.545217459824, -4023.7163333554668, -4019.715371097967, -4042.782371375844, -4057.4004122496144, -4034.3110602272823, -4001.3422371557044, -4001.431644133526, -4030.6900776255225, -4043.9446620875196, -4026.353839201193, -4004.2479639348944, -4004.9632197574642, -4034.1769497605505, -4052.930063358553, -4033.4616939379807, -4011.6240396051458, -4017.4354931635257, -4045.643394666123, -4063.3012727858154, -4042.3129847422824, -4018.5754321307463, -4024.677458367045, -4054.740554659433, -4070.766755433888, -4050.8513511242095, -4024.2751269668493, -4028.544310157813, -4055.6346244376455, -4069.738575188944, -4051.94658660252, -4027.94081305752, -4034.4675224384696, -4062.3401477742373, -4076.3099880588043, -4055.813438393288, -4030.1759875030507, -4034.869853838665, -4062.295444285327, -4079.4392322825474, -4061.513133229391, -4036.389772461626, -4039.0496300518075, -4066.4752204984693, -4080.310950316304, -4060.5743599622683, -4036.300365483805, -4036.926214328553, -4062.675423941067, -4083.1719736065834, -4066.8552001542093, -4037.7532288733996, -4037.3061939842937, -4062.2283890519607, -4076.667615970089, -4055.880493626654, -4026.644411879112, -4025.7503421008996, -4050.940758102031, -4065.961130375997, -4051.4548482245027, -4025.4597694229806, -4026.867929323665, -4055.0534790818074, -4073.136040346151, -4054.0700023257737, -4027.3820194461373, -4029.9971735474082, -4055.7463831599216, -4072.443136268036, -4056.215769793483, -4030.108932269685, -4029.5948421472126, -4057.9815576054525, -4074.2536275689163, -4056.9757291049636, -4029.7513043584, -4029.7513043584, -4056.3051767713046, -4075.326511302771, -4058.3168337722823, -4031.8523683371986, -4031.382981703637, -4056.841618638232, -4074.611255480201, -4057.355708760704, -4030.0418770363185, -4030.5559671587907, -4057.6686331830783, -4074.8794764136646, -4055.2769965263606, -4031.762961359377, -4034.7580951163886, -4060.9543396180084, -4075.773546191877, -4057.4004122496144, -4029.9301183140424, -4029.7289526139443, -4057.445115738525, -4073.4042612796143, -4054.0252988368634, -4027.739647357422, -4027.3820194461373, -4055.2993482708157, -4073.739537446444, -4055.813438393288, -4029.4383799360253, -4027.806702590788, -4055.3664035041816, -4073.2030955795167, -4055.4111069930923, -4026.4655979234694, -4024.6551066225898, -4050.9184063575753, -4068.5986362217236, -4054.1817610480502, -4026.3985426901036, -4023.60457463319, -4049.353784245704, -4067.1681245765835, -4049.5102464568913, -4023.291650210816, -4016.3626094296706, -4043.2070545204947, -4063.8600663971984, -4049.577301690257, -4025.571528145257, -4026.5997083902016, -4056.260473282394, -4079.059252626807, -4066.095240842729, -4041.3295079862487, -4043.676441154056, -4077.449927026025, -4101.232183126472, -4088.648150998134, -4060.797877406821, -4061.3343192737484, -4092.671465000089, -4111.312819875815, -4096.448909813036, -4072.5325432458576, -4071.0126246228965, -4098.214697625005, -4116.297258889349, -4102.4168255826025, -4076.935836903553, -4074.052461868818, -4097.901773202631, -4115.827872255787, -4106.395436095648, -4079.573342749279, -4074.8124211802988, -4101.410997082115, -4115.961982722519, -4103.556764549824, -4080.869743927687, -4077.4052235371146, -4105.210793639516, -4124.38859038217, -4109.1670524081055, -4079.2380665824494, -4074.074813613274, -4099.354636592226, -4118.7335990349775, -4105.613125039712, -4081.0485578833295, -4078.388700293148, -4101.790976737854, -4120.298221146849, -4106.037808184363, -4077.896961915131, -4071.213790322994, -4091.5091742884133, -4110.7540262644325, -4096.359502835215, -4069.582112977757, -4064.8211914087765, -4090.8609736992094, -4110.530508819879, -4095.9795231794747, -4069.738575188944, -4065.4693919979804, -4091.4644707995026, -4109.278811130383, -4097.007703424419, -4070.0514996113184, -4065.022357108874, -4090.033959154363, -4114.442064099559, -4103.690875016556, -4076.712319459, -4072.2866740568493, -4099.24287786995, -4118.554785079335, -4101.81332848231, -4073.761889190899, -4071.839639167743, -4098.594677280746, -4118.6218403127, -4103.646171527645, -4078.254589826416, -4075.8629531696984, -4099.511098803413, -4120.499386846946, -4106.775415751388, -4079.4839357714577, -4075.192400836039, -4100.181651137073, -4121.616974069711, -4110.709322775522, -4083.1719736065834, -4077.382871792659, -4103.489709316457, -4125.707343305033, -4111.156357664628, -4084.3119125738044, -4078.5675142487903, -4099.6005057812345, -4120.857014758231, -4109.8152529973095, -4083.350787562226, -4078.343996804237, -4104.361427350214, -4125.9532124940415, -4113.43623559907, -4084.6248369961786, -4078.7910316933435, -4101.410997082115, -4123.449817115047, -4116.543128078357, -4090.615104510201, -4081.383834050159, -4103.3555988497255, -4126.1320264496835, -4115.783168766877, -4086.457680041514, -4080.7356334609553, -4105.434311084069, -4126.199081683049, -4117.727770534489, -4089.8551451987205, -4078.5004590154244, -4103.690875016556, -4125.9532124940415, -4112.8103867543205, -4085.09422362974, -4082.255552083916, -4107.62478204069, -4130.021229984907, -4118.286564145871, -4091.039787654852, -4084.6471887406337, -4109.055293685829, -4132.211700941527, -4118.95711647953, -4089.3410550762483, -4082.859049184209, -4107.267154129405, -4128.277793917393, -4115.202023411039, -4088.089357386751, -4081.0709096277847, -4102.461529071514, -4124.947383993553, -4115.224375155494, -4086.1447556191392, -4078.4557555265137, -4101.366293593203, -4126.847282272253, -4120.924069991597, -4092.8279272112763, -4085.2059823520167, -4110.061122186318, -4132.077590474795, -4120.566442080312, -4092.649113255634, -4084.893057929642, -4106.015456439907, -4129.507139862435, -4119.694724046555, -4089.6539794986224, -4082.18849685055, -4103.310895360815, -4125.126197949195, -4116.543128078357, -4088.2681713423935, -4080.7132817164998, -4106.350732606737, -4128.9483462510525, -4122.220471170005, -4095.3760260791814, -4088.514040531402, -4110.083473930773, -4130.848244529753, -4119.694724046555, -4092.872630700187, -4083.507249773413, -4108.630610541179, -4132.211700941527, -4121.169939180606, -4092.872630700187, -4083.0378631398517, -4103.8249854832875, -4128.747180550955, -4121.415808369614, -4093.4090725671144, -4086.4353282970583, -4108.965886708008, -4130.915299763119, -4119.180633924083, -4090.324531832282, -4083.1049183732175, -4103.8249854832875, -4129.618898584712, -4120.119407191206, -4092.8502789557315, -4085.9435899190416, -4106.1719186510945, -4130.96000325203, -4122.421636870103, -4092.6938167445446, -4085.3177410742933, -4106.1719186510945, -4131.831721285787, -4122.354581636737, -4092.291485344349, -4084.6248369961786, -4106.8201192402985, -4130.624727085201, -4121.236994413972, -4093.2079068670164, -4084.0883951292512, -4105.836642484265, -4127.316668905815, -4119.962944980019, -4094.057273156318, -4082.3002555728267, -4104.2943721168485, -4133.619860842212, -4121.706381047533, -4092.5373545333573, -4082.0767381282735, -4106.551898306835, -4131.451741630047, -4121.058180458329, -4092.582058022268, -4085.0048166519186, -4105.210793639516, -4129.86476777372, -4124.455645615536, -4095.510136545913, -4085.2953893298377, -4105.613125039712, -4129.4177328846135, -4124.410942126625, -4095.197212123539, -4083.641360240145, -4105.367255850703, -4131.898776519153, -4123.315706648315, -4095.7783574793766, -4086.18945910805, -4104.786110494865, -4130.602375340745, -4124.321535148804, -4095.4877848014576, -4085.228334096472, -4108.630610541179, -4132.994011997463, -4124.410942126625, -4097.767662735899, -4087.3070463308154, -4104.9425727060525, -4130.557671851834, -4125.930860749586, -4098.6617325141115, -4086.4353282970583, -4104.9425727060525, -4129.8871195181755, -4124.7238665489995, -4095.1078051457175, -4082.3002555728267, -4106.037808184363, -4132.301107919348, -4126.467302616514, -4099.220526125494, -4089.6316277541673, -4109.614087297212, -4134.871558531709, -4128.680125317589, -4100.561630792812, -4090.1680696210947, -4108.675314030089, -4132.144645708161, -4127.8307590282875, -4098.393511580648, -4086.6141422527007, -4105.322552361793, -4130.200043940549, -4125.327363649293, -4101.902735460131, -4091.1738981215835, -4109.837604741765, -4132.412866641625, -4127.8307590282875, -4099.421691825592, -4084.423671296081, -4106.708360518022, -4135.318593420815, -4131.563500352323, -4102.126252904684, -4085.898886430131, -4104.0037994389295, -4132.725791063999, -4129.618898584712, -4101.343941848748, -4086.3235695747817, -4107.155395407128, -4136.05620098784, -4127.33902065027, -4099.511098803413, -4088.022302153385, -4104.920220961598, -4129.395381140159, -4128.590718339768, -4104.137909905661, -4088.37993006467, -4106.261325628916, -4132.815198041821, -4131.585852096779, -4103.310895360815, -4090.346883576737, -4108.38474135217, -4134.648041087155, -4130.24474742946, -4101.723921504488, -4086.8823631861646, -4106.596601795745, -4134.536282364879, -4130.915299763119, -4101.14277614865, -4088.4916887869467, -4108.183575652072, -4134.603337598245, -4131.474093374502, -4102.640343027156, -4087.418805053092, -4105.836642484265, -4137.15143646615, -4134.20100619805]]
[[-1119.3083070884118, -1173.0419007589699, -1171.365519924822, -1078.561076946387, -1069.8438966088172, -1119.0624378994034, -1170.7620228245287, -1168.3480344233556, -1075.0518530669037, -1067.5416669299207, -1118.3471820768336, -1171.3878716692773, -1168.2586274455343, -1076.9964548345156, -1070.5144489424765, -1121.3646675783, -1170.0467670019589, -1164.1906099546684, -1073.9119140996831, -1068.3463297303117, -1116.0226006534817, -1165.7999355554505, -1165.5093628775314, -1075.5435914449206, -1069.8438966088172, -1121.9234611896827, -1167.1857437116796, -1163.6094645988303, -1077.3540827458005, -1071.4755739540547, -1118.6377547547527, -1167.4539646451433, -1165.777583810995, -1076.3482542453116, -1070.2238762645575, -1117.6989814876297, -1165.107031477336, -1165.911694277727, -1076.7729373899624, -1066.7593558739848, -1113.9885919080486, -1165.9340460221822, -1166.8951710337606, -1074.0460245664149, -1067.6981291411078, -1114.3238680748782, -1163.3859471542773, -1165.2411419440677, -1074.4483559666105, -1068.0557570523927, -1121.945812934138, -1169.197400712657, -1166.6269501002969, -1077.3764344902556, -1067.429908207644, -1113.9885919080486, -1164.3694239103108, -1163.94474076566, -1074.6718734111635, -1067.943998330116, -1121.3423158338446, -1163.4306506431878, -1164.1235547213025, -1077.555248445898, -1066.5805419183423, -1114.592089008342, -1162.7824500539841, -1164.9952727550594, -1077.9352281016384, -1068.4133849636776, -1117.654277998719, -1162.9612640096266, -1162.8271535428946, -1072.526105943454, -1063.4736494390547, -1115.7096762311073, -1164.525886121498, -1167.9680547676153, -1080.528030458454, -1072.950789088105, -1120.0682663998923, -1163.7659268100176, -1166.6940053336627, -1075.4765362115547, -1062.8030971053954, -1116.4472837981325, -1167.2080954561347, -1168.683310590185, -1079.2316292800463, -1068.9051233416944, -1117.6095745098085, -1164.4141273992213, -1168.6162553568192, -1081.3550450033003, -1066.8040593628955, -1112.8710046852834, -1159.1838191966797, -1165.4423076441656, -1076.5494199454095, -1065.1947337621134, -1110.2558505840125, -1160.9496070086489, -1172.0137205140259, -1080.7291961585518, -1066.0217483069598, -1115.3744000642778, -1161.5978075978528, -1166.0458047444588, -1077.6223036792642, -1065.3288442288451, -1110.747588962029, -1162.0001389980482, -1168.3256826789002, -1078.2928560129233, -1064.5465331729094, -1113.1168738742917, -1157.5074383625315, -1168.750365823551, -1078.2258007795574, -1060.2102947485798, -1108.9370976611492, -1159.139115707769, -1167.364557667322, -1077.3540827458005, -1064.6359401507307, -1109.1159116167917, -1156.9486447511488, -1169.6667873462186, -1082.9867223485378, -1065.3958994622112, -1112.2451558405348, -1157.395679640255, -1169.8903047907716, -1078.8740013687614, -1063.853629094795, -1108.6018214943197, -1157.4180313847103, -1171.2761129470007, -1080.4833269695434, -1064.010091305982, -1108.5571180054092, -1157.7756592959952, -1170.2479327020565, -1080.528030458454, -1061.0373092934262, -1108.2888970719455, -1160.5472756084532, -1171.142002480269, -1079.6339606802417, -1062.1548965161917, -1107.305420315912, -1155.4734296170986, -1173.5112873925314, -1080.0586438248927, -1059.562094159376, -1107.0595511269034, -1153.8864557607717, -1168.9962350125593, -1078.2481525240128, -1058.7797831034402, -1105.271411570479, -1155.2722639170008, -1170.9408367801711, -1081.3773967477557, -1062.8478005943061, -1105.1149493592918, -1152.9253307491936, -1170.7396710800733, -1081.913838614683, -1059.2268179925463, -1106.2772400709678, -1157.7980110404505, -1171.2090577136348, -1081.5785624478535, -1063.205428505591, -1105.204356337113, -1155.7416505505623, -1174.8523920598498, -1086.9206293726718, -1061.819620349362, -1106.5007575155207, -1157.7309558070847, -1174.1594879817353, -1085.6465799387192, -1060.299701726401, -1103.0138853804929, -1154.6464150722522, -1174.4947641485649, -1090.3851497632445, -1066.8264111073509, -1109.3617808058002, -1153.238255171568, -1169.7785460684952, -1085.2666002829792, -1060.6349778932308, -1103.8632516697946, -1154.400545883244, -1170.359691424333, -1082.9420188596273, -1058.5562656588872, -1103.5726789918756, -1155.6745953171965, -1173.2877699479784, -1082.3832252482446, -1062.0654895383705, -1109.2947255724341, -1155.2275604280903, -1169.3091594349337, -1085.557172960898, -1062.4678209385659, -1104.9808388925599, -1152.6124063268194, -1169.197400712657, -1082.9420188596273, -1061.3502337158006, -1102.5221470024762, -1151.494819104054, -1169.1079937348359, -1085.2666002829792, -1063.9653878170716, -1103.6397342252415, -1149.03612721397, -1166.3587291668332, -1081.8691351257723, -1058.4445069366107, -1103.5726789918756, -1150.488990603565, -1166.0681564889142, -1083.9254956156608, -1060.076184281848, -1101.203394079613, -1149.527865591987, -1170.337339679878, -1162.7824500539841, -1098.8117574228952, -1050.8896173107169, -1085.4901177275322, -1136.943833463649, -1171.6113891138302, -1101.4045597797108, -1052.498942911499, -1088.9993416070154, -1139.782505009473, -1174.7406333375734, -1104.8690801702835, -1051.917797555661, -1083.0984810708144, -1140.0954294318474, -1174.6065228708414, -1103.88560341425, -1049.0567742653816, -1079.2763327689568, -1132.138208405758, -1171.2537612025453, -1105.0255423814706, -1051.5378178999208, -1080.59508569182, -1132.3393741058558, -1170.2702844465118, -1109.2276703390683, -1054.6670621236638, -1083.0984810708144, -1136.6309090412747, -1172.0584240029364, -1103.7961964364288, -1051.2919487109125, -1082.629094437253, -1135.1333421627692, -1172.8854385477828, -1104.4891005145432, -1052.8789225672392, -1083.0537775819037, -1136.8991299747383, -1169.4209181572103, -1101.5163185019874, -1047.7156695980632, -1079.209277535591, -1129.6348130267636, -1168.392737912266, -1105.4502255261214, -1051.11313475527, -1081.980893848049, -1132.6075950393194, -1170.9408367801711, -1106.232536582057, -1051.3590039442784, -1082.6961496706188, -1133.233443884068, -1168.884476290283, -1106.0537226264146, -1050.8672655662615, -1080.9974170920154, -1135.3792113517775, -1173.108955992336, -1107.9983243940264, -1050.5096376549766, -1080.4162717361776, -1130.595938038342, -1166.6269501002969, -1105.5396325039426, -1052.2530737224906, -1082.0926525703255, -1131.3111938609118, -1170.7620228245287, -1113.1615773632022, -1057.7963063474067, -1079.1198705577697, -1127.3549350923224, -1170.1585257242352, -1108.2441935830348, -1048.3415184428118, -1078.4493182241104, -1130.4841793160654, -1170.5608571244309, -1112.7815977074622, -1048.3191666983566, -1075.789460633929, -1127.2431763700458, -1165.330548921889, -1110.6134784952974, -1052.141315000214, -1079.9245333581607, -1132.8087607394173, -1164.168258210213, -1107.528937760465, -1053.5718266453537, -1078.6728356686635, -1128.4054670817218, -1163.3859471542773, -1108.3559523053113, -1054.9799865460382, -1076.9964548345156, -1128.6736880151855, -1165.6658250887185, -1109.2947255724341, -1049.4591056655772, -1078.6057804352977, -1131.758228750018, -1164.8835140327828, -1107.9312691606606, -1050.1967132326024, -1075.8118123783843, -1127.4443420701436, -1166.0905082333695, -1109.6970569726298, -1052.1636667446694, -1080.97506534756, -1130.3947723382441, -1165.0623279884253, -1111.5969552513309, -1054.912931312672, -1078.1363938017362, -1131.55706304992, -1168.5939036123639, -1111.9545831626158, -1052.498942911499, -1080.6174374362752, -1133.4569613286212, -1168.8397728013722, -1113.0945221298364, -1053.3483092008007, -1076.9741030900602, -1129.813626982406, -1169.2868076904783, -1114.9273651751716, -1053.437716178622, -1079.2316292800463, -1131.9593944501155, -1172.8630868033274, -1118.1683681211912, -1054.465896423566, -1077.2646757679793, -1131.3558973498223, -1174.0253775150034, -1121.8117024674061, -1055.4270214351443, -1076.6164751787753, -1128.852501970828, -1169.3762146682996, -1120.1576733777135, -1056.7681261024627, -1078.7845943909401, -1130.4841793160654, -1172.460755403132, -1117.296650087434, -1052.9012743116946, -1075.8341641228396, -1127.5784525368754, -1170.337339679878, -1119.0177344104927, -1054.7341173570296, -1077.7117106570854, -1127.7125630036073, -1169.9797117685928, -1120.9176326891939, -1052.8565708227839, -1076.2141437785797, -1131.4676560720989, -1170.5832088688862, -1122.1916821231464, -1056.075222024348, -1078.6728356686635, -1127.3549350923224, -1169.1303454792912, -1124.27039435749, -1055.8293528353397, -1074.5377629444317, -1128.5842810373642, -1173.3771769257996, -1125.7679612359955, -1056.365794702267, -1074.6942251556188, -1127.7572664925178, -1167.23044720059, -1123.17515887918, -1054.0412132789152, -1073.3978239772111, -1125.1421123912469, -1166.8728192893052, -1122.3257925898781, -1053.817695834362, -1073.1519547882026, -1129.165426393202, -1167.94570302316, -1119.5765280218754, -1052.8118673338734, -1073.8001553774066, -1126.527920547476, -1168.0127582565258, -1118.525996032476, -1051.0684312663593, -1074.2248385220573, -1125.946775191638, -1165.3752524107997, -1120.0906181443474, -1052.6107016337755, -1070.3803384757446, -1121.2976123449341, -1162.4024703982438, -1122.3928478232442, -1053.7729923454515, -1075.275370511457, -1124.7621327355066, -1162.9612640096266, -1119.9565076776157, -1051.8283905778399, -1069.1956960196133, -1123.3539728348223, -1162.268359931512, -1121.4093710672107, -1053.5494749008983, -1070.3579867312892, -1125.8126647249062, -1164.8611622883275, -1124.7621327355066, -1057.8410098363174, -1072.2578850099903, -1121.8340542118615, -1162.8048017984393, -1123.4210280681882, -1055.9634633020717, -1071.6096844207866, -1121.7669989784956, -1164.3470721658555, -1123.3763245792777, -1053.6388818787195, -1071.9673123320715, -1125.7679612359955, -1166.917522778216, -1124.6503740132302, -1053.460067923077, -1072.2578850099903, -1122.661068756708, -1164.6152930993192, -1125.0527054134257, -1052.9012743116946, -1067.49696344101, -1122.0352199119593, -1158.9826534965819, -1124.2480426130346, -1057.0363470359264, -1071.0508908094039, -1127.4443420701436, -1165.487011133076, -1124.113932146303, -1052.5883498893202, -1069.68743439763, -1122.4822548010654, -1163.2741884320008, -1126.8631967143056, -1053.013033033971, -1067.7428326300185, -1120.3141355889006, -1160.4355168861769, -1127.2208246255905, -1057.1034022692922, -1068.3910332192222, -1119.6659349996967, -1160.1449442082578, -1124.918594946694, -1051.046079521904, -1066.2899692404235, -1123.1528071347245, -1163.363595409822, -1126.3044031029228, -1054.5776551458425, -1071.2744082539568, -1122.1022751453252, -1159.4520401301434, -1128.6960397596408, -1054.465896423566, -1067.943998330116, -1121.0964466448363, -1163.073022731903, -1128.7407432485513, -1056.1199255132587, -1072.6155129212752, -1121.3646675783, -1163.5647611099198, -1133.3899060952551, -1055.695242368608, -1068.2569227524905, -1122.0575716564144, -1162.3801186537885, -1130.6406415272525, -1056.142277257714, -1071.363815231778, -1125.6338507692637, -1162.8271535428946, -1130.0147926825039, -1057.9304168141387, -1071.5873326763312, -1120.1353216332582, -1160.1896476971683, -1126.2820513584675, -1055.628187135242, -1070.1121175422809, -1120.850577455828, -1160.8378482863723, -1128.4278188261771, -1056.2540359799905, -1069.68743439763, -1119.2189001105905, -1158.6920808186628, -1128.4054670817218, -1053.4824196675324, -1065.1500302732027, -1119.17419662168, -1163.1847814541795, -1135.200397396135, -1056.365794702267, -1067.5863704188312, -1120.850577455828, -1160.6366825862744, -1132.2276153835792, -1056.2763877244458, -1066.8487628518062, -1117.9672024210934, -1159.8096680414283, -1136.4073915967217, -1058.2880447254236, -1064.21125700608, -1115.0614756419034, -1161.0837174753806, -1130.7076967606183, -1054.5329516569318, -1068.0334053079373, -1114.301516330423, -1154.713470305618, -1130.104199660325, -1055.6728906241526, -1066.111155284781, -1117.1625396207023, -1157.4850866180761, -1132.786408994962, -1056.20933249108, -1063.4065942056889, -1115.5085105310095, -1157.2839209179785, -1132.6299467837748, -1054.1529720011918, -1065.30649248439, -1116.9837256650599, -1160.815496541917, -1140.0283741984815, -1056.1646290021692, -1058.4892104255212, -1114.949716919627, -1162.9836157540817, -1138.9331387201714, -1058.4445069366107, -1063.2948354834123, -1111.6416587402414, -1157.976824996093, -1138.396696853244, -1054.0188615344598, -1061.082012782337, -1116.782559964962, -1161.5307523644867, -1134.7310107625738, -1055.4270214351443, -1064.4794779395436, -1113.3850948077554, -1157.5074383625315, -1138.4414003421546, -1057.0363470359264, -1061.6855098826302, -1113.1615773632022, -1160.815496541917, -1140.5424643209535, -1058.3774517032448, -1061.7749168604514, -1111.3063825734118, -1160.100240719347, -1140.9671474656043, -1056.4104981911778, -1060.6796813821413, -1112.8710046852834, -1158.2450459295567, -1139.5142840760093, -1056.9245883136498, -1063.2277802500464, -1113.9885919080486, -1157.976824996093, -1141.5929963103529, -1057.7739546029513, -1061.238474993524, -1113.7650744634957, -1158.5356186074757, -1137.3461648638445, -1052.141315000214, -1056.2540359799905, -1110.5687750063867, -1159.6308540857858, -1141.2577201435233, -1058.4892104255212, -1059.9644255595715, -1111.88752792925, -1160.0331854859812, -1145.0128132120149, -1056.8351813358286, -1059.8079633483844, -1109.0265046389704, -1154.3781941387886, -1138.1284759197804, -1055.5387801574207, -1060.8808470822391, -1110.8593476843057, -1152.3218336489003, -1138.2178828976016, -1057.3939749472113, -1063.8759808392504, -1113.7427227190403, -1151.3160051484115, -1135.4015630962328, -1053.9965097900044, -1056.0305185354375, -1109.5182430169873, -1152.2771301599896, -1138.7990282534395, -1056.9245883136498, -1058.0645272808704, -1110.9711064065823, -1153.1264964492914, -1139.201359653635, -1056.879884824739, -1054.0188615344598, -1102.5221470024762, -1150.5783975813863, -1139.3578218648222, -1057.2822162249347, -1059.5844459038312, -1110.3676093062888, -1153.3276621493892, -1142.330603877378, -1058.1539342586916, -1056.9245883136498, -1109.4735395280766, -1150.2431214145568, -1141.9506242216378, -1055.918759813161, -1054.8235243348508, -1107.7077517161074, -1152.1653714377132, -1138.754324764529, -1058.623320892253, -1059.6515011371973, -1110.07703662837, -1156.1216302063026, -1138.7319730200736, -1051.3143004553676, -1050.0626027658705, -1103.751492947518, -1149.393755125255, -1141.883568988272, -1063.9206843281609, -1054.9352830571274, -1103.6397342252415, -1150.690156303663, -1140.6318712987747, -1057.7292511140408, -1056.879884824739, -1106.3889987932444, -1152.2547784155345, -1144.3422608783558, -1058.042175536415, -1054.1529720011918, -1103.9750103920712, -1149.8407900143611, -1143.0905631888586, -1059.11505927027, -1051.2472452220018, -1102.365684791289, -1150.690156303663, -1143.6046533113306, -1056.4552016800883, -1053.5047714119878, -1105.5396325039426, -1152.0312609709813, -1142.822342255395, -1055.6505388796973, -1052.498942911499, -1103.3268098028673, -1146.912711490716, -1142.5094178330205, -1057.4386784361218, -1051.8954458112057, -1104.9361354036494, -1148.9243684916937, -1145.7951242679505, -1062.0654895383705, -1053.7059371120856, -1101.851594668817, -1146.5327318349757, -1143.9846329670709, -1057.237512736024, -1054.6447103792084, -1103.460920269599, -1148.589092324864, -1146.689194046163, -1058.4892104255212, -1052.9683295450604, -1098.9682196340823, -1144.3422608783558, -1145.169275423202, -1059.7632598594737, -1053.3259574563453, -1100.5104900014985, -1144.9010544897383, -1145.3704411232998], [-4226.469007309557, -4197.478794751024, -4197.031759861918, -4222.557452029879, -4241.422324350157, -4224.278536352937, -4194.953047627574, -4195.757710427965, -4224.636164264222, -4245.780914518942, -4226.737228243021, -4197.143518584195, -4195.891820894697, -4220.322277584348, -4239.544777815911, -4229.195920133105, -4200.317466296848, -4198.0375883624065, -4224.412646819669, -4243.054001695395, -4225.0384956644175, -4195.40008251668, -4193.1649080711495, -4222.0433619074065, -4242.629318550744, -4228.011277676974, -4201.412701775158, -4197.478794751024, -4223.272707852449, -4242.897539484208, -4227.586594532322, -4196.78589067291, -4195.511841238957, -4224.524405541945, -4243.724554029054, -4224.83732996432, -4196.897649395186, -4197.121166839739, -4224.569109030856, -4242.785780761931, -4227.430132321136, -4198.819899418342, -4196.607076717267, -4223.228004363537, -4241.198806905604, -4227.474835810046, -4199.423396518636, -4196.025931361429, -4221.618678762756, -4242.092876683817, -4225.731399742532, -4197.8587744067645, -4194.573067971834, -4223.607984019278, -4245.467990096568, -4228.815940477364, -4200.339818041303, -4196.964704628552, -4221.976306674041, -4239.544777815911, -4226.089027653817, -4199.40104477418, -4197.657608706666, -4223.965611930563, -4243.903367984697, -4228.1453881437055, -4199.557506985368, -4195.0424546053955, -4220.8140159623645, -4241.26586213897, -4226.089027653817, -4197.344684284292, -4195.377730772225, -4224.88203345323, -4245.155065674194, -4227.072504409851, -4198.775195929432, -4195.713006939055, -4220.098760139795, -4242.674022039655, -4231.744019001009, -4201.9714953865405, -4198.462271507057, -4222.959783430074, -4242.2940423839145, -4229.106513155283, -4203.223193076038, -4200.2057075745715, -4226.491359054013, -4247.189074419627, -4232.2581091234815, -4200.295114552393, -4194.30484703837, -4222.289231096414, -4244.573920318356, -4231.632260278733, -4201.055073863873, -4196.562373228357, -4219.830539206331, -4241.98111796154, -4227.720704999055, -4198.596381973789, -4196.741187183999, -4222.937431685618, -4243.769257517964, -4229.710010255577, -4200.83155641932, -4194.237791805004, -4219.6964287395995, -4242.964594717574, -4229.55354804439, -4201.435053519614, -4200.049245363384, -4222.8703764522525, -4241.0646964388725, -4230.447617822601, -4199.199879074083, -4192.896687137686, -4217.640068249711, -4244.283347640437, -4229.97823118904, -4199.825727918831, -4192.516707481946, -4220.210518862071, -4244.1715889181605, -4231.833425978831, -4204.810166932365, -4198.909306396164, -4221.976306674041, -4244.283347640437, -4230.291155611415, -4200.608038974767, -4194.327198782826, -4218.131806627727, -4242.025821450451, -4227.988925932518, -4200.943315141597, -4198.238754062504, -4221.819844462853, -4244.9986034630065, -4233.532158557434, -4203.334951798314, -4196.517669739445, -4222.289231096414, -4242.226987150549, -4229.754713744487, -4200.652742463678, -4196.6294284617225, -4223.540928785912, -4245.64680405221, -4233.398048090702, -4201.122129097239, -4193.701349938077, -4217.5953647608, -4242.875187739753, -4231.945184701108, -4203.223193076038, -4196.562373228357, -4220.12111188425, -4240.662365038677, -4230.939356200619, -4201.703274453077, -4195.802413916876, -4221.149292129194, -4242.741077273021, -4231.3193358563585, -4200.429225019125, -4192.784928415409, -4218.869414194753, -4243.054001695395, -4230.872300967253, -4201.904440153175, -4195.02010286094, -4220.925774684641, -4240.260033638481, -4227.988925932518, -4202.418530275647, -4195.40008251668, -4219.539966528412, -4241.288213883426, -4231.989888190018, -4204.676056465632, -4195.35537902777, -4217.103626382784, -4240.952937716596, -4230.402914333691, -4202.798509931387, -4193.790756915898, -4218.7576554724765, -4243.277519139948, -4230.8499492227975, -4204.005504131974, -4197.009408117462, -4220.322277584348, -4245.177417418649, -4233.688620768621, -4201.435053519614, -4193.857812149264, -4219.9870014175185, -4243.389277862225, -4230.2017486335935, -4199.602210474278, -4193.54488772689, -4221.238699107015, -4242.629318550744, -4232.794550990409, -4202.664399464655, -4195.73535868351, -4220.478739795535, -4241.779952261442, -4229.307678855381, -4204.9666291435515, -4194.953047627574, -4217.304792082881, -4245.020955207462, -4235.141484158216, -4203.580820987323, -4196.361207528259, -4218.042399649907, -4243.188112162127, -4235.029725435939, -4204.854870421275, -4196.07063485034, -4218.712951983565, -4243.210463906582, -4234.739152758021, -4203.893745409697, -4192.919038882142, -4219.897594439697, -4247.099667441806, -4235.342649858314, -4205.056036121373, -4196.428262761625, -4152.77530584041, -4161.447782689069, -4181.944332354586, -4176.401099729669, -4143.3875731691805, -4120.7899595248655, -4131.787017796876, -4156.999785542463, -4157.0668407758285, -4126.042619471863, -4107.378912851681, -4125.327363649293, -4153.267044218426, -4154.25052097446, -4128.76953229541, -4114.352657121737, -4133.597509097756, -4166.901608336164, -4170.611997915745, -4141.53237837939, -4123.494520603957, -4143.722849336011, -4174.076518306318, -4178.278646263915, -4152.484733162491, -4135.117427720717, -4148.684936605088, -4173.763593883943, -4177.183410785605, -4152.529436651402, -4139.386610911681, -4155.904550064153, -4184.313617266848, -4183.106623066262, -4158.095021020773, -4140.146570223162, -4152.8423610737755, -4183.35249225527, -4188.068710335339, -4159.190256499083, -4140.794770812366, -4158.854980332253, -4185.140631811694, -4185.766480656443, -4159.190256499083, -4138.894872533664, -4153.91524480763, -4184.559486455856, -4185.2970940228815, -4154.921073308119, -4136.749105065955, -4153.624672129711, -4179.932675353608, -4177.071652063329, -4149.556654638845, -4137.464360888524, -4152.082401762295, -4178.926846853119, -4180.804393387365, -4155.546922152867, -4136.369125410214, -4151.434201173091, -4179.083309064306, -4180.335006753803, -4152.372974440214, -4134.782151553887, -4151.970643040018, -4179.35152999777, -4182.458422477058, -4159.01144254344, -4139.252500444949, -4148.863750560731, -4177.049300318873, -4181.743166654488, -4157.53622740939, -4139.587776611778, -4152.9541197960525, -4178.233942775005, -4184.045396333385, -4157.603282642756, -4138.850169044754, -4149.936634294586, -4179.530343953413, -4182.771346899432, -4156.619805886723, -4137.15143646615, -4149.646061616667, -4178.882143364209, -4185.185335300605, -4158.184427998594, -4137.330250421793, -4149.91428255013, -4179.0162538309405, -4183.218381788538, -4156.1280675087055, -4134.871558531709, -4149.400192427658, -4179.418585231136, -4181.318483509837, -4156.351584953259, -4136.994974254963, -4151.322442450814, -4182.324312010326, -4184.626541689222, -4155.368108197225, -4133.48575037548, -4146.181541226094, -4174.434146217603, -4178.859791619753, -4152.037698273385, -4131.630555585689, -4142.24763420196, -4167.639215903189, -4169.963797326541, -4141.0406400013735, -4121.2593461584265, -4133.642212586667, -4166.745146124977, -4171.371957227225, -4144.81808481432, -4128.076628217295, -4145.15336098115, -4180.312655009348, -4189.968608614041, -4170.768460126932, -4156.530398908902, -4174.814125873342, -4209.92871641263, -4219.383504317225, -4196.6294284617225, -4182.436070732602, -4196.741187183999, -4224.949088686596, -4231.36403934527, -4203.8490419207865, -4179.105660808761, -4194.729530183021, -4226.133731142728, -4232.436923079124, -4206.1959750885935, -4183.35249225527, -4200.652742463678, -4227.944222443607, -4232.50397831249, -4207.917059411652, -4187.576971957323, -4198.663437207155, -4227.608946276778, -4234.515635313468, -4209.101701867784, -4187.599323701778, -4198.372864529236, -4225.9772689315405, -4231.855777723286, -4205.637181477211, -4184.44772773358, -4195.333027283315, -4224.055018908384, -4227.318373598859, -4202.2620680644595, -4178.6362741752, -4187.6887306796, -4218.824710705842, -4226.69252475411, -4199.132823840717, -4175.9093613516525, -4185.744128911988, -4220.210518862071, -4228.3242020993475, -4202.574992486834, -4181.20672478756, -4191.533230725912, -4221.529271784934, -4229.128864899739, -4200.295114552393, -4180.290303264893, -4193.611942960256, -4225.396123575702, -4232.0792951678395, -4206.821823933342, -4182.726643410521, -4193.54488772689, -4222.8703764522525, -4232.280460867937, -4208.744073956499, -4186.504088223468, -4197.076463350829, -4225.887861953719, -4234.269766124459, -4206.8441756777975, -4182.704291666066, -4194.953047627574, -4225.194957875605, -4229.888824211219, -4206.352437299781, -4184.023044588929, -4196.6294284617225, -4226.089027653817, -4233.442751579613, -4208.632315234222, -4186.079405078817, -4194.7518819274765, -4227.40778057668, -4237.868396981764, -4210.375751301736, -4186.191163801094, -4193.500184237979, -4223.496225297002, -4234.917966713663, -4211.470986780047, -4190.058015591862, -4199.289286051904, -4228.3242020993475, -4237.93545221513, -4212.588574002812, -4190.706216181065, -4196.584724972811, -4224.300888097392, -4237.197844648104, -4212.208594347071, -4191.7567481704655, -4199.9151348966525, -4229.531196299934, -4240.371792360758, -4215.539004270912, -4190.97443711453, -4198.059940106862, -4227.184263132127, -4236.057905680884, -4212.387408302714, -4187.576971957323, -4193.991922615996, -4227.005449176485, -4237.331955114836, -4212.901498425186, -4189.365111513747, -4198.596381973789, -4230.425266078147, -4239.254205137992, -4214.488472281512, -4189.16394581365, -4198.752844184976, -4227.8548154657865, -4239.611833049278, -4213.728512970032, -4191.421472003635, -4201.21153607506, -4229.821768977853, -4238.136617915227, -4213.348533314292, -4191.488527237002, -4197.5905534733, -4227.0948561543055, -4240.260033638481, -4216.902460682686, -4192.539059226401, -4200.0939488522945, -4226.781931731932, -4236.393181847713, -4214.130844370227, -4193.567239471346, -4200.540983741401, -4229.9111759556745, -4240.483551083034, -4217.014219404962, -4192.606114459767, -4200.272762807937, -4231.766370745465, -4242.897539484208, -4219.02587640594, -4193.880163893719, -4199.468100007546, -4230.872300967253, -4241.399972605703, -4217.863585694264, -4195.288323794403, -4202.329123297825, -4228.413609077169, -4239.634184793733, -4217.036571149418, -4194.349550527281, -4199.35634128527, -4230.0899899113165, -4242.517559828468, -4218.154158372183, -4191.265009792449, -4198.68578895161, -4230.3805625892355, -4243.143408673216, -4219.07057989485, -4196.45061450608, -4204.899573910186, -4233.420399835158, -4244.305699384892, -4220.188167117616, -4192.494355737491, -4199.35634128527, -4231.006411433985, -4244.104533684795, -4221.708085740577, -4195.578896472322, -4203.491414009502, -4230.045286422406, -4242.450504595102, -4220.434036306624, -4196.651780206177, -4203.267896564948, -4232.50397831249, -4242.919891228663, -4218.802358961387, -4195.511841238957, -4198.9763616295295, -4230.447617822601, -4243.657498795688, -4220.83636770682, -4194.9306958831185, -4201.569163986345, -4234.113303913272, -4244.372754618258, -4221.9316031851295, -4195.73535868351, -4199.512803496457, -4229.508844555479, -4243.590443562322, -4219.450559550591, -4194.617771460745, -4198.68578895161, -4229.240623622015, -4243.925719729152, -4220.948126429096, -4194.215440060549, -4196.651780206177, -4224.233832864026, -4241.467027839069, -4221.864547951764, -4193.991922615996, -4200.496280252491, -4230.559376544878, -4242.1152284282725, -4219.472911295046, -4193.656646449166, -4196.048283105884, -4230.402914333691, -4242.606966806289, -4220.50109153999, -4196.338855783803, -4200.697445952588, -4228.480664310535, -4244.3504028738025, -4222.088065396317, -4192.494355737491, -4200.473928508035, -4227.2066148765825, -4242.852835995297, -4223.943260186107, -4199.1551755851715, -4202.329123297825, -4228.011277676974, -4241.489379583523, -4222.333934585326, -4196.227097061526, -4202.843213420298, -4232.481626568035, -4244.797437762909, -4220.612850262267, -4196.003579616974, -4201.703274453077, -4229.821768977853, -4245.423286607657, -4225.93256544263, -4195.310675538859, -4201.300943052882, -4230.581728289334, -4244.3504028738025, -4224.055018908384, -4196.718835439544, -4202.038550619906, -4230.514673055968, -4246.160894174683, -4223.585632274822, -4196.11533833925, -4199.088120351806, -4228.413609077169, -4244.752734273999, -4222.535100285423, -4197.836422662309, -4201.613867475256, -4231.207577134082, -4246.429115108146, -4225.574937531345, -4195.802413916876, -4198.954009885074, -4227.743056743509, -4245.7585627744875, -4224.345591586303, -4195.333027283315, -4197.814070917853, -4227.608946276778, -4244.596272062811, -4223.384466574725, -4194.461309249557, -4200.295114552393, -4229.128864899739, -4243.501036584501, -4225.105550897783, -4201.636219219711, -4201.815033175353, -4229.0841614108285, -4243.098705184306, -4225.686696253621, -4202.30677155337, -4202.776158186932, -4229.710010255577, -4247.211426164082, -4227.765408487965, -4197.0988150952835, -4200.965666886052, -4227.541891043412, -4241.735248772532, -4224.233832864026, -4199.088120351806, -4201.815033175353, -4230.447617822601, -4245.2891761409255, -4225.731399742532, -4198.30580929587, -4199.870431407742, -4229.441789322113, -4244.1715889181605, -4228.3242020993475, -4202.887916909208, -4201.077425608329, -4228.212443377071, -4244.797437762909, -4227.676001510144, -4200.988018630507, -4202.7314546980215, -4227.050152665395, -4244.909196485186, -4227.765408487965, -4200.943315141597, -4202.440882020102, -4229.821768977853, -4244.015126706973, -4228.83829222182, -4204.07255936534, -4204.49724250999, -4229.754713744487, -4247.591405819822, -4231.766370745465, -4204.296076809893, -4203.111434353761, -4227.184263132127, -4245.7585627744875, -4232.012239934474, -4203.513765753957, -4202.2620680644595, -4229.821768977853, -4246.31735638587, -4227.631298021233, -4201.815033175353, -4201.099777352783, -4228.480664310535, -4245.892673241219, -4226.983097432029, -4201.92679189763, -4201.412701775158, -4228.190091632616, -4244.3504028738025, -4227.005449176485, -4203.893745409697, -4207.090044866806, -4232.548681801401, -4247.658461053188, -4232.392219590213, -4206.732416955521, -4203.826690176331, -4231.006411433985, -4248.17255117566, -4231.498149812001, -4203.446710520591, -4203.893745409697, -4232.749847501498, -4247.613757564278, -4230.671135267155, -4204.0278558764285, -4202.373826786737, -4231.7887224899205, -4247.546702330912, -4230.6487835227, -4206.374789044236, -4204.430187276625, -4231.006411433985, -4251.1006296993055, -4233.576862046345, -4203.714931454055, -4200.049245363384, -4230.917004456163, -4251.838237266331, -4234.247414380004, -4205.793643688398, -4203.066730864851, -4224.904385197686, -4246.898501741708, -4234.739152758021, -4206.531251255423, -4204.609001232267, -4231.766370745465, -4249.670118054166, -4234.6497457802, -4205.525422754935, -4205.391312288202, -4231.274632367448, -4250.944167488118, -4235.342649858314, -4207.313562311359, -4207.470024522546]]
