[[-2704.471672114333, -2703.3764366360233, -2699.5989918230766, -2699.219012167336, -2702.169442435437, -2704.359913392057, -2701.1189104460373, -2697.4532243553667, -2697.7214452888306, -2700.9177447459397, -2703.354084891568, -2701.320076146135, -2698.906087744962, -2698.704922044864, -2701.7894627796964, -2704.762244792252, -2702.3482563910793, -2699.3978261229786, -2699.4648813563444, -2702.0353319687047, -2705.701018059375, -2704.091692458593, -2700.6271720680206, -2699.9566197343615, -2702.0129802242495, -2703.734064547308, -2701.968276735339, -2697.989666222294, -2698.347294133579, -2702.571773835632, -2704.874003514529, -2702.9517534913725, -2698.839032511596, -2698.1014249445707, -2700.9177447459397, -2703.3764366360233, -2702.5941255800876, -2699.0178464672385, -2697.922610988928, -2701.476538357322, -2705.768073292741, -2704.739893047797, -2701.6553523129646, -2700.1130819455484, -2702.907050002462, -2706.4386256264, -2705.9468872483835, -2700.9847999793055, -2698.7272737893195, -2701.6777040574198, -2703.845823269585, -2703.0411604691935, -2699.420177867434, -2698.1684801779365, -2702.482366857811, -2704.784596536708, -2702.5270703467218, -2699.3307708896127, -2698.570811578132, -2702.0353319687047, -2704.9410587478947, -2703.5999540805765, -2699.4872331008, -2698.570811578132, -2701.5659453351436, -2704.5387273476995, -2703.421140124934, -2699.6883988008976, -2698.034369711205, -2700.2695441567357, -2703.421140124934, -2702.3706081355344, -2699.0178464672385, -2698.4367011114005, -2702.3035529021686, -2704.829300025618, -2702.6611808134535, -2699.3084191451576, -2697.7885005221965, -2700.1801371789143, -2702.907050002462, -2702.504718602266, -2699.911916245451, -2698.7496255337746, -2701.4094831239563, -2703.86817501404, -2701.7000558018754, -2698.637866811498, -2697.1402999329925, -2700.4707098568333, -2703.4658436138448, -2702.2812011577134, -2698.637866811498, -2698.3919976224897, -2701.1189104460373, -2703.421140124934, -2702.102387202071, -2699.0849017006044, -2699.1072534450595, -2701.811814524152, -2704.471672114333, -2703.6670093139423, -2700.5601168346548, -2699.3307708896127, -2700.873041257029, -2704.382265136512, -2703.421140124934, -2699.6213435675318, -2698.235535411303, -2701.0295034682163, -2703.5328988472106, -2702.0353319687047, -2697.162651677448, -2697.1850034219033, -2700.1801371789143, -2702.3929598799896, -2701.6330005685095, -2698.928439489417, -2698.0120179667497, -2700.9847999793055, -2704.2481546697804, -2703.9128785029507, -2700.224840667825, -2697.944962733384, -2700.604820323565, -2703.0858639581043, -2702.124738946526, -2698.906087744962, -2697.4308726109116, -2700.291895901191, -2703.15291919147, -2702.817643024641, -2698.704922044864, -2696.8944307439842, -2699.509584845255, -2701.454186612867, -2700.1801371789143, -2696.872078999529, -2696.3356371326017, -2699.7107505453528, -2702.0800354576154, -2701.0071517237607, -2697.944962733384, -2698.0120179667497, -2700.001323223272, -2702.3259046466237, -2701.0071517237607, -2698.034369711205, -2697.4979278442775, -2699.9566197343615, -2702.0800354576154, -2701.834166268607, -2698.0120179667497, -2697.4755760998223, -2699.86721275654, -2702.102387202071, -2700.895393001484, -2697.3414656330906, -2696.223878410325, -2699.0178464672385, -2702.504718602266, -2701.811814524152, -2699.4425296118893, -2698.6825703004088, -2700.58246857911, -2702.415311624445, -2701.834166268607, -2698.4143493669453, -2697.900259244473, -2700.4707098568333, -2703.577602336121, -2703.1752709359257, -2699.509584845255, -2698.5037563447663, -2701.7224075463305, -2704.6504860699756, -2703.577602336121, -2699.219012167336, -2697.5649830776433, -2700.291895901191, -2702.460015113356, -2701.7894627796964, -2700.6718755569314, -2699.420177867434, -2701.0071517237607, -2703.0411604691935, -2701.4988901017773, -2697.5649830776433, -2695.5086225877553, -2700.001323223272, -2702.795291280185, -2702.214145924347, -2699.844861012085, -2698.3919976224897, -2699.934267989906, -2703.9128785029507, -2704.158747691959, -2699.777805778719, -2698.6825703004088, -2700.6271720680206, -2703.778768036219, -2702.6835325579086, -2700.0236749677274, -2698.637866811498, -2700.0683784566377, -2703.354084891568, -2702.415311624445, -2698.7272737893195, -2698.0790732001155, -2790.8835161785505, -2798.7513302268185, -2805.2556878633127, -2804.674542507475, -2804.5627837851985, -2808.1837663869583, -2812.31883911119, -2813.0340949337597, -2810.307182110212, -2808.6531530205198, -2810.933030954961, -2813.123501911581, -2812.184728644458, -2809.3013536097233, -2807.6249727755753, -2809.323705354179, -2813.3023158672236, -2813.883461223061, -2809.0107809318047, -2807.088530908648, -2809.614278032098, -2812.765874000296, -2812.877632722573, -2809.03313267626, -2807.312048353201, -2808.5190425537876, -2811.22360363288, -2811.7600454998073, -2808.295525109235, -2807.6249727755753, -2810.933030954961, -2813.3023158672236, -2812.3411908556454, -2808.966077442894, -2807.8708419645836, -2809.658981521008, -2812.542356555743, -2812.162376900003, -2808.5860977871534, -2807.692028008941, -2809.2119466319023, -2811.536528055254, -2810.955382699416, -2808.340228598145, -2806.1721093859805, -2807.960248942405, -2810.642458277042, -2811.2012518884244, -2807.5355657977543, -2804.607487274109, -2806.730902997363, -2810.4412925769443, -2810.262478621302, -2806.7532547418186, -2805.1439291410366, -2808.0720076646817, -2810.4859960658546, -2809.8824989655614, -2806.686199508453, -2804.2498593628243, -2806.5073855528103, -2809.569574543187, -2809.614278032098, -2805.836833219151, -2804.473376807377, -2807.088530908648, -2810.7095135104078, -2809.189594887447, -2807.1779378864694, -2805.188632629947, -2807.5132140532987, -2810.1954233879355, -2809.860147221106, -2806.954420441916, -2805.3003913522234, -2808.69785650943, -2810.664810021497, -2810.4859960658546, -2807.5355657977543, -2807.312048353201, -2808.31787685369, -2810.910679210506, -2812.162376900003, -2808.630801276064, -2806.1721093859805, -2809.256650120813, -2812.3635426001006, -2812.1400251555474, -2808.988429187349, -2807.5355657977543, -2810.553051299221, -2813.3693711005894, -2812.989391444849, -2808.31787685369, -2806.5967925306313, -2809.4801675653657, -2812.7211705113855, -2812.2070803889133, -2809.547222798732, -2806.4626820638996, -2807.2449931198353, -2812.6764670224748, -2811.6929902664415, -2807.692028008941, -2806.3062198527123, -2808.630801276064, -2812.3858943445557, -2810.6871617659526, -2807.8037867312178, -2806.2391646193464, -2809.636629776553, -2812.1176734110923, -2811.9835629443605, -2808.764911742796, -2807.9155454534944, -2810.016609432293, -2812.4082460890113, -2812.028266433271, -2807.8484902201285, -2806.5073855528103, -2809.7707402432848, -2812.0506181777264, -2811.5588797997093, -2808.3625803426007, -2805.2333361188576, -2807.4238070754777, -2810.865975721595, -2811.313010610701, -2807.8484902201285, -2806.12740589707, -2807.1332343975587, -2810.8212722326844, -2811.380065844067, -2807.379103586567, -2805.9485919414274, -2808.1167111535924, -2811.916507710994, -2812.0059146888157, -2809.0778361651705, -2806.797958230729, -2808.2731733647793, -2811.447121077433, -2811.2012518884244, -2807.893193709039, -2805.8591849636064, -2806.7532547418186, -2810.553051299221, -2811.93885945545, -2809.0778361651705, -2808.027304175771, -2809.636629776553, -2812.0729699221815, -2810.7542169993185, -2808.250821620324, -2806.574440786176, -2808.541394298243, -2811.3353623551566, -2812.0729699221815, -2808.608449531609, -2805.6580192635083, -2806.954420441916, -2811.0894931661483, -2811.536528055254, -2807.4685105643885, -2804.406321574011, -2806.641496019542, -2810.597754788131, -2810.5306995547653, -2807.3344000976563, -2804.898059952028, -2808.049655920226, -2810.642458277042, -2809.7930919877404, -2807.7590832423075, -2804.763949485296, -2806.1050541526147, -2811.2012518884244, -2811.894155966539, -2809.8824989655614, -2809.0107809318047, -2811.7600454998073, -2815.9845252018604, -2816.029228690771, -2813.279964122768, -2810.642458277042, -2812.0953216666367, -2813.0117431893045, -2813.637592034053, -2811.22360363288, -2810.1060164101145, -2811.4024175885224, -2815.537490312754, -2814.3304961121676, -2811.1118449106034, -2809.1672431429915, -2811.894155966539, -2815.470435079388, -2815.8504147351287, -2812.832929233662, -2810.4189408324887, -2811.380065844067, -2813.6822955229636, -2813.1682054004914, -2810.1954233879355, -2809.636629776553, -2810.9777344438717, -2812.3635426001006, -2812.4305978334664, -2809.7930919877404, -2808.1390628980475, -2808.921373953983, -2813.0340949337597, -2813.4587780784104, -2810.8212722326844, -2807.4685105643885, -2808.630801276064, -2811.2683071217907, -2811.290658866246, -2808.0720076646817, -2806.1944611304357, -2808.4296355759666, -2811.156548399514, -2810.642458277042, -2808.094359409137, -2805.389798330045, -2808.831966976162, -2811.4694728218883, -2811.827100733173, -2809.1448913985364, -2807.647324520031, -2809.3684088430896, -2811.827100733173, -2813.1011501671255, -2810.7542169993185, -2807.7590832423075, -2808.921373953983, -2812.4529495779216, -2812.609411789109, -2809.413112332, -2807.1108826531035, -2809.122539654081, -2812.8105774892065, -2813.6152402895978, -2811.9835629443605, -2809.189594887447, -2810.4412925769443, -2813.4140745895, -2814.4646065788993, -2810.4859960658546, -2809.0778361651705, -2811.0447896772375, -2813.0787984226704, -2812.31883911119, -2808.2284698758685, -2805.389798330045, -2806.9097169530055, -2811.313010610701, -2812.7882257447513, -2811.156548399514, -2808.7872634872515, -2810.1060164101145, -2814.1069786676144, -2814.218737389891, -2810.865975721595, -2806.8873652085504, -2809.860147221106, -2812.4976530668323, -2812.7882257447513, -2809.2119466319023, -2806.5297372972655, -2809.5919262876423, -2812.7882257447513, -2811.7823972442625, -2808.8766704650725, -2807.893193709039, -2809.1672431429915, -2812.855280978117, -2814.218737389891, -2810.865975721595, -2809.5025193098213, -2811.871804222084, -2816.6327257910643, -2815.246917634835, -2811.0447896772375, -2809.5248710542764, -2811.894155966539, -2813.6599437785085, -2813.1682054004914, -2810.7765687437736, -2807.960248942405, -2809.5919262876423, -2811.93885945545, -2812.899984467028, -2810.3965890880336, -2807.647324520031, -2808.094359409137, -2811.916507710994, -2811.93885945545, -2808.340228598145, -2806.1944611304357, -2808.8096152317066, -2812.967039700394, -2812.899984467028, -2810.88832746605, -2808.8096152317066, -2811.2012518884244, -2815.179862401469, -2814.799882745729, -2811.0447896772375, -2809.122539654081, -2810.575403043676, -2813.123501911581, -2814.0846269231592, -2811.3353623551566, -2809.2119466319023, -2810.1060164101145, -2812.4976530668323, -2813.347019356134, -2810.4859960658546, -2808.31787685369, -2809.8154437321955, -2812.4305978334664, -2814.50931006781, -2811.804748988718, -2809.1448913985364, -2811.380065844067, -2813.6822955229636, -2813.190557144947, -2812.7882257447513, -2812.0506181777264, -2808.4519873204217, -2801.813519217196, -2797.566687770687, -2789.9223911669724, -2780.64641721802, -2773.7844316702403, -2769.872876390562, -2763.8155536431736, -2753.1761232824474, -2740.7262016208415, -2732.321945705646, -2728.566852637154, -2723.805931068174, -2714.194680952392, -2706.05864597066, -2702.3929598799896, -2703.15291919147, -2701.521241846233, -2697.4308726109116, -2695.1509946764704, -2697.386169122001, -2699.129605189515, -2697.900259244473, -2694.1675179204367, -2691.4853085858, -2691.328846374613, -2696.000360965772, -2698.280238900213, -2694.0781109426157, -2692.513488830744, -2695.039235954194, -2698.235535411303, -2698.1684801779365, -2694.4357388539006, -2692.0217504527272, -2693.005227208761, -2697.29676214418, -2697.922610988928, -2695.419215609934, -2693.5193173312327, -2695.5086225877553, -2697.967314477839, -2698.257887155758, -2694.413387109445, -2692.066453941638, -2693.966352220339, -2697.900259244473, -2698.481404600311, -2696.648561554976, -2693.5863725645986, -2694.1451661759816, -2697.967314477839, -2698.280238900213, -2694.100462687071, -2692.155860919459, -2694.9274772319172, -2697.162651677448, -2697.7214452888306, -2694.681608042909, -2691.418253352434, -2694.05575919816, -2698.0790732001155, -2699.0625499561493, -2696.603858066065, -2693.4299103534117, -2694.7933667651855, -2698.3696458780346, -2698.928439489417, -2696.514451088244, -2694.2345731538026, -2695.9556574768612, -2699.4425296118893, -2700.4036546234674, -2696.939134232895, -2694.4357388539006, -2695.9556574768612, -2699.554288334166, -2699.643695311987, -2696.514451088244, -2693.318151631135, -2694.8827737430065, -2699.4425296118893, -2701.0295034682163, -2697.542631333188, -2694.5698493206323, -2695.910953987951, -2698.0567214556604, -2696.670913299431, -2693.5193173312327, -2692.8264132531185, -2693.8769452425176, -2696.3356371326017, -2697.542631333188, -2693.7875382646967, -2691.0159219522384, -2693.1169859310376, -2696.380340621512, -2697.743797033286, -2693.9216487314284, -2690.9265149744174, -2692.1782126639146, -2693.7875382646967, -2695.3745121210236, -2692.424081852923, -2690.1442039184817, -2692.4017301084677, -2697.0508929551715, -2698.4590528558556, -2695.2180499098363, -2692.9828754643054, -2693.8992969869732, -2696.715616788342, -2697.542631333188, -2694.9274772319172, -2693.6310760535093, -2695.2404016542914, -2698.0567214556604, -2699.844861012085, -2697.319113888635, -2693.8322417536074, -2695.5980295655763, -2699.7331022898084, -2701.521241846233, -2699.1743086784254, -2694.8604219985514, -2696.022712710227, -2698.6602185559536, -2699.219012167336, -2696.0450644546827, -2693.698131286875, -2694.480442342811, -2697.67674179992, -2699.7331022898084, -2696.58150632161, -2693.809890009152, -2694.77101502073, -2697.7214452888306, -2698.1684801779365, -2694.8827737430065, -2691.9099917304507, -2693.2063929088586, -2697.3638173775457, -2698.1237766890263, -2694.2122214093474, -2691.775881263719, -2693.094634186582, -2697.1850034219033, -2697.944962733384, -2694.972180720828, -2693.5193173312327, -2695.1509946764704, -2697.29676214418, -2698.235535411303, -2695.575677821121, -2693.027578953216, -2695.642733054487, -2699.554288334166, -2697.877907500018, -2693.5640208201435, -2692.0217504527272, -2694.1898696648923, -2698.347294133579, -2700.0907302010933, -2697.386169122001, -2695.2180499098363, -2696.357988877057, -2698.0790732001155, -2700.0236749677274, -2697.2744103997243, -2694.5251458317216, -2695.709788287853, -2698.280238900213, -2699.8225092676294, -2697.922610988928, -2695.2404016542914, -2695.285105143202, -2698.1684801779365, -2698.1237766890263, -2695.3745121210236, -2692.58054406411, -2693.5863725645986, -2697.5649830776433, -2698.257887155758, -2696.067416199138, -2693.1393376754927, -2695.195698165381, -2698.034369711205, -2698.7272737893195, -2696.0450644546827, -2692.938171975395, -2695.553326076666, -2698.3919976224897, -2698.3696458780346, -2695.910953987951, -2691.731177774808, -2692.4687853418336, -2696.8050237661632, -2698.1237766890263, -2696.223878410325, -2694.8604219985514, -2696.1121196880486, -2698.347294133579, -2699.6660470564425, -2697.5649830776433, -2693.094634186582, -2694.01105570925, -2697.542631333188, -2699.7107505453528, -2698.4143493669453, -2695.5086225877553, -2696.872078999529], [-2720.363762422057, -2716.6533728424756, -2698.1461284334814, -2690.2112591518476, -2701.9235732464285, -2717.8827187875177, -2715.848710042085, -2697.229706910814, -2689.384244607001, -2701.0518552126714, -2717.502739131777, -2716.4969106312888, -2699.3978261229786, -2690.2783143852134, -2701.4094831239563, -2717.0557042426713, -2715.5581373641658, -2698.1237766890263, -2688.8925062289845, -2701.0295034682163, -2717.413332153956, -2715.1781577084253, -2699.4648813563444, -2690.255962640758, -2701.856518013062, -2717.793311809696, -2716.4298553979224, -2699.7331022898084, -2691.060625441149, -2702.191794179892, -2718.3297536766236, -2715.446378641889, -2699.0849017006044, -2691.328846374613, -2702.795291280185, -2718.732085076819, -2715.4016751529784, -2697.8555557555624, -2690.323017874124, -2703.0411604691935, -2718.8885472880065, -2716.765131564752, -2699.6883988008976, -2691.395901607979, -2702.5270703467218, -2718.6873815879085, -2716.0722274866375, -2698.324942389124, -2690.412424851945, -2704.091692458593, -2720.475521144333, -2717.9721257653387, -2699.7331022898084, -2691.686474285898, -2703.219974424836, -2719.2461751992914, -2717.8827187875177, -2700.6942273013865, -2690.814756252141, -2702.862346513551, -2719.1791199659256, -2717.0110007537605, -2699.6883988008976, -2691.060625441149, -2702.4376633689003, -2720.3414106776013, -2718.575622865632, -2701.1189104460373, -2690.412424851945, -2701.230669168314, -2717.838015298607, -2717.167462964948, -2697.967314477839, -2689.786576007197, -2702.258849413258, -2718.77678856573, -2717.413332153956, -2699.777805778719, -2690.0771486851154, -2702.102387202071, -2718.1732914654367, -2716.96629726485, -2699.286067400702, -2689.1160236735373, -2700.1801371789143, -2717.480387387322, -2716.5863176091098, -2698.9507912338727, -2689.67481728492, -2700.448358112378, -2716.2063379533697, -2715.289916430702, -2698.5931633225878, -2690.77005276323, -2702.6164773245428, -2717.9497740208835, -2715.5581373641658, -2698.034369711205, -2688.937209717895, -2701.454186612867, -2717.6144978540538, -2717.5250908762328, -2700.291895901191, -2689.2054306513587, -2701.0295034682163, -2718.106236232071, -2716.2957449311907, -2699.1519569339703, -2689.384244607001, -2701.0295034682163, -2717.838015298607, -2717.0557042426713, -2699.4648813563444, -2688.870154484529, -2698.8166807671405, -2714.9769920083277, -2714.485253630311, -2698.6602185559536, -2690.6135905520428, -2700.515413345744, -2716.094579231093, -2716.899242031484, -2699.934267989906, -2689.6971690293753, -2701.0742069571265, -2719.4696926438446, -2718.217994954347, -2699.9566197343615, -2690.702997529864, -2700.9847999793055, -2717.6144978540538, -2716.4298553979224, -2698.6825703004088, -2689.6301137960095, -2699.934267989906, -2717.458035642867, -2717.3015734316796, -2700.157785434459, -2689.741872518286, -2700.0907302010933, -2716.9439455203947, -2715.5581373641658, -2698.0120179667497, -2688.5348783176996, -2699.7107505453528, -2716.3404484201014, -2716.9886490093054, -2700.448358112378, -2690.9488667188725, -2700.3813028790123, -2715.7145995753526, -2715.5581373641658, -2698.637866811498, -2690.39007310749, -2702.0353319687047, -2718.732085076819, -2718.575622865632, -2699.3978261229786, -2688.847802740074, -2700.0460267121825, -2718.486215887811, -2718.4415123989, -2700.1130819455484, -2689.9430382183837, -2700.20248892337, -2714.999343752783, -2717.748608320786, -2700.738930790297, -2690.0100934517495, -2699.6883988008976, -2715.6698960864423, -2715.938117019906, -2699.353122634068, -2689.898334729473, -2700.6495238124758, -2715.2675646862467, -2714.865233286051, -2699.6213435675318, -2690.2336108963027, -2699.911916245451, -2717.9497740208835, -2717.770960065241, -2698.928439489417, -2687.81962249513, -2698.5931633225878, -2714.3734949080344, -2712.6971140738865, -2695.3074568876573, -2685.539744560688, -2696.737968532797, -2714.194680952392, -2714.7534745637745, -2697.4755760998223, -2687.216125394836, -2698.3919976224897, -2714.3064396746686, -2713.971163507839, -2697.386169122001, -2686.1432416609814, -2696.1121196880486, -2713.188852451903, -2713.3006111741797, -2696.4697475993335, -2686.5902765500878, -2696.4250441104227, -2712.7865210517075, -2713.635887341009, -2696.8273755106184, -2685.249171882769, -2681.359968347546, -2699.286067400702, -2702.839994769096, -2686.3891108499897, -2674.0732996551155, -2681.8517067255625, -2699.219012167336, -2702.862346513551, -2687.461994583845, -2674.6544450109536, -2680.5106020582443, -2699.1072534450595, -2703.9128785029507, -2689.227782395814, -2676.9119712009397, -2684.91389571594, -2702.7505877912745, -2706.2821634152133, -2691.0829771856042, -2678.320131101624, -2686.2102968943473, -2703.421140124934, -2707.1538814489704, -2690.747701018775, -2678.6330555239983, -2688.445471339878, -2705.5892593370986, -2708.226765182825, -2692.424081852923, -2681.4270235809117, -2689.808927751652, -2706.483329115311, -2710.417236139445, -2695.262753398747, -2681.9187619589284, -2690.3006661296686, -2707.6009163380763, -2711.512471617755, -2698.0120179667497, -2685.2715236272247, -2691.641770796987, -2708.6290965830203, -2712.4735966293333, -2698.7943290226854, -2684.7574335047525, -2692.6252475530205, -2709.2102419388584, -2711.959506506861, -2697.028541210716, -2685.830317238607, -2692.513488830744, -2709.8137390391516, -2714.641715841498, -2699.2413639117917, -2686.322055616624, -2692.647599297476, -2709.701980316875, -2714.5970123525876, -2698.7272737893195, -2684.4445090823783, -2691.8876399859955, -2709.5231663612326, -2712.7865210517075, -2696.290933643691, -2683.930418959906, -2690.1442039184817, -2708.450282627378, -2712.7865210517075, -2697.4532243553667, -2684.57861954911, -2691.2170876523364, -2708.1820616939144, -2712.317134418146, -2697.654390055465, -2684.1539364044593, -2691.708826030353, -2710.193718694892, -2714.0158669967495, -2699.9789714788167, -2687.0373114391937, -2692.5358405751995, -2709.0761314721267, -2713.233555940814, -2697.8108522666516, -2685.249171882769, -2692.133509175004, -2710.908974517462, -2717.0110007537605, -2701.7894627796964, -2687.6631602839425, -2694.5922010650875, -2712.3618379070567, -2716.139282720004, -2700.58246857911, -2687.0596631836493, -2692.8487649975737, -2710.0819599726156, -2715.0440472416935, -2700.3142476456464, -2687.931381217406, -2694.0781109426157, -2710.908974517462, -2715.1111024750594, -2699.844861012085, -2685.8526689830624, -2692.2452678972804, -2711.199547195381, -2716.3180966756463, -2701.543593590688, -2687.6855120283976, -2693.027578953216, -2709.7243320613306, -2716.139282720004, -2702.504718602266, -2688.0431399396825, -2693.407558608956, -2711.959506506861, -2717.390980409501, -2702.571773835632, -2687.81962249513, -2693.9887039647942, -2710.7301605618195, -2713.769997807741, -2699.576640078621, -2685.4950410717775, -2691.9099917304507, -2708.606744838565, -2714.1499774634813, -2699.219012167336, -2684.355102104557, -2691.4629568413447, -2709.7243320613306, -2715.4910821308, -2700.537765090199, -2686.2773521277136, -2691.8652882415404, -2709.098483216582, -2715.3346199196126, -2699.889564500995, -2686.478517827811, -2692.133509175004, -2711.1324919620147, -2717.167462964948, -2700.9177447459397, -2685.316227116135, -2691.5076603302555, -2709.29964891668, -2714.0605704856603, -2698.6602185559536, -2684.846840482574, -2691.060625441149, -2709.2325936833136, -2715.6698960864423, -2698.883736000507, -2683.3045701151577, -2690.3006661296686, -2709.1431867054926, -2713.032390240716, -2697.7661487777414, -2685.0256544382164, -2690.032445196205, -2707.1538814489704, -2714.0382187412047, -2700.291895901191, -2685.740910260786, -2690.2336108963027, -2707.802082038174, -2712.808872796163, -2697.7661487777414, -2682.969293948328, -2688.9595614623504, -2706.706846559864, -2711.557175106666, -2696.737968532797, -2683.550439304166, -2691.10532893006, -2708.8302622831184, -2713.769997807741, -2699.509584845255, -2685.830317238607, -2692.4911370862887, -2709.634925083509, -2716.094579231093, -2702.0129802242495, -2686.4338143389004, -2691.1723841634257, -2709.053779727671, -2713.568832107643, -2699.129605189515, -2685.7632620052414, -2692.0217504527272, -2710.0819599726156, -2717.480387387322, -2704.225802925325, -2690.0771486851154, -2695.0839394431046, -2713.546480363188, -2717.1451112204923, -2701.968276735339, -2689.473651584822, -2695.285105143202, -2712.2724309292357, -2717.5921461095986, -2702.7505877912745, -2688.6466370399758, -2693.8545934980625, -2711.1101402175595, -2715.893413530995, -2700.940096490395, -2686.880849228007, -2690.9488667188725, -2708.2714686717354, -2714.5299571192213, -2700.4707098568333, -2685.7856137496965, -2689.5630585626436, -2707.064474471149, -2713.613535596554, -2699.3978261229786, -2684.57861954911, -2689.6301137960095, -2707.1538814489704, -2714.3287914191237, -2699.129605189515, -2684.8244887381184, -2689.4960033292778, -2707.1762331934256, -2713.7029425743754, -2700.001323223272, -2685.807965494152, -2691.4853085858, -2708.226765182825, -2715.2452129417916, -2701.3647796350456, -2685.249171882769, -2689.6301137960095, -2707.1762331934256, -2713.9488117633837, -2700.850689512574, -2686.7243870168195, -2691.9770469638165, -2708.606744838565, -2715.3793234085233, -2702.2364976688027, -2687.6631602839425, -2692.446433597378, -2708.673800071931, -2714.217032696847, -2701.3424278905904, -2686.836145739096, -2690.747701018775, -2709.2772971722243, -2715.7145995753526, -2700.96244823485, -2685.6515032829648, -2689.898334729473, -2707.287991915702, -2714.4405501414003, -2701.6330005685095, -2686.880849228007, -2691.10532893006, -2709.29964891668, -2716.608669353565, -2701.476538357322, -2685.9867794497945, -2690.0100934517495, -2707.287991915702, -2714.261736185758, -2701.0295034682163, -2685.606799794054, -2688.5348783176996, -2707.936192504906, -2715.6475443419868, -2701.7894627796964, -2686.7020352723644, -2691.3064946301574, -2708.4055791384676, -2715.9157652754507, -2701.878869757518, -2686.545573061177, -2691.9099917304507, -2708.718503560842, -2715.893413530995, -2702.3706081355344, -2687.81962249513, -2692.133509175004, -2709.7913872946965, -2716.161634464459, -2701.6553523129646, -2688.1101951730484, -2691.6194190525316, -2708.159709949459, -2714.6864193304086, -2701.476538357322, -2686.523221316722, -2689.8536312405627, -2707.1538814489704, -2714.7311228193194, -2701.0295034682163, -2685.9197242164287, -2690.0547969406603, -2707.8467855270846, -2715.0216954972384, -2702.460015113356, -2687.707863772853, -2690.9488667188725, -2707.332695404613, -2715.0440472416935, -2700.9847999793055, -2686.545573061177, -2690.814756252141, -2708.8302622831184, -2716.385151909012, -2702.5270703467218, -2685.9197242164287, -2690.412424851945, -2709.7243320613306, -2717.838015298607, -2703.778768036219, -2687.9984364507723, -2693.094634186582, -2710.707808817364, -2717.7262565763303, -2704.9410587478947, -2690.412424851945, -2694.100462687071, -2713.0770937296265, -2720.095541488593, -2707.2656401712466, -2693.2510963977693, -2695.687436543398, -2711.0877884731044, -2719.670858343942, -2705.611611081554, -2690.121852174026, -2693.2734481422244, -2709.5231663612326, -2714.8875850305067, -2700.850689512574, -2683.0139974372387, -2683.841011982085, -2699.7107505453528, -2705.544555848188, -2690.971218463328, -2674.095651399571, -2677.001378178761, -2694.1898696648923, -2701.6330005685095, -2689.0266166957163, -2672.4639740543334, -2676.777860734208, -2695.910953987951, -2703.9799337363165, -2690.2336108963027, -2674.810907222141, -2679.7282910023087, -2697.252058655269, -2704.9857622368054, -2693.2734481422244, -2677.0237299232163, -2680.0859189135936, -2698.6825703004088, -2706.840957026596, -2693.5863725645986, -2677.8283927236075, -2681.4940788142776, -2698.9507912338727, -2706.8856605155065, -2695.3745121210236, -2680.130622402504, -2683.036349181694, -2701.1412621904924, -2709.5231663612326, -2696.670913299431, -2681.1364509029927, -2683.5280875597105, -2699.353122634068, -2707.064474471149, -2694.636904553998, -2680.6000090360653, -2684.5339160601993, -2701.811814524152, -2709.992552994794, -2697.654390055465, -2681.9858171922942, -2683.6621980264426, -2700.3813028790123, -2709.031427983216, -2694.681608042909, -2679.393014835479, -2682.701073014864, -2700.738930790297, -2708.7632070497525, -2695.3745121210236, -2679.907104957951, -2683.0587009261494, -2700.828337768118, -2708.226765182825, -2696.223878410325, -2680.2200293803253, -2681.1588026474483, -2699.219012167336, -2707.2656401712466, -2696.223878410325, -2680.778822991708, -2682.9245904594172, -2701.320076146135, -2709.746683805786, -2698.0790732001155, -2682.991645692783, -2684.511564315744, -2701.476538357322, -2708.673800071931, -2697.8555557555624, -2682.231686381303, -2684.489212571289, -2701.0518552126714, -2710.551346606177, -2699.3084191451576, -2683.036349181694, -2685.0256544382164, -2701.744759290786, -2710.841919284096, -2697.967314477839, -2680.9129334584395, -2683.1704596484255, -2700.604820323565, -2708.7855587942076, -2697.0508929551715, -2681.8517067255625, -2685.2715236272247, -2701.7224075463305, -2710.573698350632, -2698.570811578132, -2683.908067215451, -2685.9197242164287, -2701.6777040574198, -2709.657276827965, -2697.8332040111072, -2682.321093359124, -2684.869192227029, -2700.6495238124758, -2709.009076238761, -2699.1072534450595, -2683.237514881792, -2684.3103986156466, -2701.744759290786, -2710.5289948617215, -2698.77197727823, -2684.0198259377275, -2686.478517827811, -2703.7564162917633, -2712.294782673691, -2699.4425296118893, -2683.4610323263446, -2684.6680265269315, -2701.543593590688, -2710.8642710285512, -2699.263715656247, -2683.237514881792, -2685.6515032829648, -2702.3482563910793, -2711.311305917657, -2699.196660422881, -2683.572791048621, -2685.539744560688, -2702.3035529021686, -2709.9478495058834, -2698.1684801779365, -2682.544610803677, -2685.316227116135, -2703.3987883804784, -2711.914803017951, -2700.7836342792075, -2684.802136993663, -2685.4056340939565, -2702.4376633689003, -2712.451244884878, -2700.537765090199, -2683.7739567487192, -2685.7632620052414, -2702.5941255800876, -2713.3006111741797, -2702.4376633689003, -2685.204468393859, -2685.606799794054, -2702.258849413258, -2712.1383204625035, -2701.0071517237607, -2685.249171882769, -2686.2773521277136, -2702.6388290689983, -2712.4288931404226, -2700.1801371789143, -2683.0810526706045, -2685.807965494152, -2704.2705064142356, -2712.58535535161, -2699.4648813563444, -2682.544610803677, -2684.3774538490125, -2701.834166268607, -2711.601878595576, -2700.604820323565, -2684.288046871191, -2686.2102968943473, -2703.5552505916658, -2713.524128618733, -2701.521241846233, -2684.95859920485, -2686.232648638803, -2702.5941255800876, -2713.233555940814, -2702.102387202071, -2685.249171882769, -2686.7020352723644, -2703.845823269585, -2713.1217972185373, -2701.4318348684114, -2683.550439304166, -2684.869192227029, -2703.130567447015, -2712.294782673691, -2701.253020912769, -2684.57861954911, -2685.539744560688, -2703.0188087247384, -2712.96533500735, -2701.0295034682163, -2684.0421776821827, -2687.4396428393893, -2706.5950878375875, -2715.848710042085, -2703.3764366360233, -2685.606799794054, -2685.7185585163306, -2702.907050002462, -2712.607707096065, -2702.0129802242495, -2684.3998055934676, -2685.3832823495013]]
[[-2694.2122214093474, -2696.5368028326993, -2694.5027940872665, -2690.457128340856, -2692.066453941638, -2696.380340621512, -2700.3365993901016, -2698.347294133579, -2691.798233008174, -2692.5581923196546, -2696.268581899236, -2696.96148597735, -2694.1675179204367, -2690.9488667188725, -2692.289971386191, -2695.910953987951, -2697.7885005221965, -2696.1791749214144, -2692.9605237198502, -2692.4911370862887, -2697.4085208664565, -2699.777805778719, -2696.8497272550735, -2692.804061508663, -2692.871116742029, -2695.9556574768612, -2698.280238900213, -2696.5368028326993, -2692.8264132531185, -2692.3346748751014, -2694.77101502073, -2697.542631333188, -2695.978009221317, -2691.351198119068, -2691.351198119068, -2695.262753398747, -2698.6825703004088, -2697.1179481885374, -2694.0781109426157, -2693.2287446533137, -2696.357988877057, -2697.944962733384, -2695.9556574768612, -2693.4746138423225, -2692.6252475530205, -2694.905125487462, -2698.0790732001155, -2696.380340621512, -2692.5358405751995, -2693.9216487314284, -2696.872078999529, -2698.4590528558556, -2695.3968638654787, -2692.446433597378, -2691.9323434749062, -2694.681608042909, -2696.872078999529, -2695.553326076666, -2692.088805686093, -2692.1782126639146, -2695.3074568876573, -2696.5368028326993, -2696.4250441104227, -2693.1393376754927, -2692.5581923196546, -2696.1344714325037, -2698.6602185559536, -2696.9838377218057, -2695.2180499098363, -2695.7544917767636, -2698.0120179667497, -2700.6942273013865, -2698.906087744962, -2693.4746138423225, -2693.6310760535093, -2696.6932650438866, -2698.704922044864, -2696.4250441104227, -2693.1169859310376, -2691.798233008174, -2695.0839394431046, -2697.877907500018, -2695.665084798942, -2691.5747155636213, -2691.127680674515, -2695.1509946764704, -2697.67674179992, -2697.1179481885374, -2693.1840411644034, -2693.1840411644034, -2695.620381310032, -2695.5086225877553, -2691.2394393967916, -2688.825450995618, -2689.473651584822, -2692.6252475530205, -2695.4639190988446, -2693.698131286875, -2689.875982985018, -2689.6524655404646, -2693.2063929088586, -2695.4415673543895, -2694.8604219985514, -2691.4853085858, -2690.3006661296686, -2693.2063929088586, -2695.2404016542914, -2693.318151631135, -2689.6077620515543, -2689.6524655404646, -2693.29579988668, -2696.1568231769593, -2695.5309743322105, -2692.155860919459, -2691.5076603302555, -2694.3016283871684, -2695.642733054487, -2694.413387109445, -2691.127680674515, -2689.4960033292778, -2691.194735907881, -2693.9440004758835, -2692.424081852923, -2688.8925062289845, -2688.9595614623504, -2692.4687853418336, -2695.0839394431046, -2693.2734481422244, -2690.2336108963027, -2690.814756252141, -2694.5698493206323, -2696.1568231769593, -2693.653427797965, -2689.473651584822, -2688.736044017797, -2690.971218463328, -2692.9605237198502, -2692.938171975395, -2690.2783143852134, -2688.6913405288865, -2691.0159219522384, -2693.2734481422244, -2692.357026619557, -2689.2724858847246, -2688.9595614623504, -2692.044102197183, -2694.5251458317216, -2693.1840411644034, -2691.127680674515, -2690.8818114855067, -2693.1393376754927, -2693.742834775786, -2692.58054406411, -2689.0266166957163, -2688.4678230843333, -2690.5018318297666, -2694.547497576177, -2692.8487649975737, -2689.5630585626436, -2689.4065963514563, -2691.9546952193614, -2695.061587698649, -2693.005227208761, -2689.5630585626436, -2689.5630585626436, -2692.6028958085653, -2694.0781109426157, -2693.8545934980625, -2690.255962640758, -2689.3395411180904, -2692.804061508663, -2694.39103536499, -2693.094634186582, -2689.808927751652, -2686.7243870168195, -2689.6971690293753, -2693.5863725645986, -2691.5300120747106, -2687.707863772853, -2688.289009128691, -2689.4960033292778, -2692.647599297476, -2691.2841428857023, -2687.774919006219, -2687.3278841171127, -2691.2617911412467, -2693.9216487314284, -2693.094634186582, -2689.786576007197, -2689.0266166957163, -2691.395901607979, -2693.809890009152, -2692.647599297476, -2689.2501341402694, -2688.825450995618, -2692.044102197183, -2694.01105570925, -2692.3123231306463, -2689.6077620515543, -2688.5348783176996, -2690.904163229962, -2692.9605237198502, -2692.804061508663, -2690.166555662937, -2689.6524655404646, -2693.1393376754927, -2694.748663276275, -2692.6252475530205, -2688.1772504064147, -2687.841974239585, -2691.3064946301574, -2693.385206864501, -2692.6923027863863, -2690.099500429571, -2688.423119595423, -2691.9099917304507, -2694.3686836205347, -2691.775881263719, -2688.19960215087, -2687.7525672617635, -2690.7253492743193, -2692.8264132531185, -2690.8594597410515, -2687.0373114391937, -2686.098538172071, -2688.937209717895, -2692.088805686093, -2690.099500429571, -2688.0431399396825, -2687.4396428393893, -2688.6242852955206, -2691.9099917304507, -2689.428948095912, -2687.0373114391937, -2686.322055616624, -2688.713692273342, -2691.731177774808, -2690.837107996596, -2687.193773650381, -2685.1150614160374, -2687.3278841171127, -2689.3395411180904, -2688.490174828789, -2685.159764904948, -2683.975122448817, -2686.612628294543, -2691.753529519264, -2690.702997529864, -2687.3278841171127, -2686.9479044613727, -2689.6077620515543, -2691.328846374613, -2691.641770796987, -2689.5630585626436, -2687.797270750674, -2689.4960033292778, -2690.904163229962, -2689.138375417993, -2686.2102968943473, -2686.5902765500878, -2690.2783143852134, -2691.8205847526297, -2690.8594597410515, -2687.573753306121, -2687.3055323726576, -2690.166555662937, -2693.8769452425176, -2692.088805686093, -2687.3278841171127, -2685.8526689830624, -2688.803099251163, -2689.875982985018, -2688.3337126176016, -2686.478517827811, -2687.81962249513, -2692.6252475530205, -2693.9216487314284, -2691.4853085858, -2686.612628294543, -2685.4279858384116, -2696.7603202772525, -2695.8886022434954, -2686.612628294543, -2682.634017781498, -2680.9129334584395, -2680.5106020582443, -2675.3026456001576, -2666.5407617736773, -2659.09763087006, -2654.739040701275, -2651.8333139220854, -2642.959671373328, -2633.817807891108, -2628.207520032826, -2625.0782758090827, -2621.680810651876, -2616.584612916066, -2609.2085372458146, -2603.3076767096136, -2602.257144720214, -2600.357246441513, -2595.8421940615412, -2589.9636852697954, -2587.192068957337, -2587.9296765243625, -2590.6118858589994, -2591.2153829592926, -2587.4155864018903, -2584.7333770672535, -2586.4768131347673, -2591.03656900365, -2589.449595147323, -2586.1415369679376, -2585.627446845466, -2588.13084222446, -2591.193031214837, -2591.170679470382, -2586.1415369679376, -2584.2192869447813, -2587.4155864018903, -2591.9976940152283, -2591.2824381926584, -2587.0579584906054, -2585.627446845466, -2587.594400357533, -2590.790699814642, -2590.231906203259, -2586.7003305793205, -2587.0579584906054, -2588.264952691192, -2589.7625195696974, -2589.516650380689, -2586.0297782456614, -2584.331045667058, -2586.7003305793205, -2590.4107201589013, -2588.2426009467367, -2584.040472989139, -2584.040472989139, -2586.812089301597, -2590.5671823700886, -2589.0249120026724, -2586.7003305793205, -2586.208592201304, -2589.2484294472256, -2591.03656900365, -2589.4048916584125, -2586.3427026680356, -2585.582743356555, -2586.0297782456614, -2587.460289890801, -2585.7615573121975, -2580.8888770209405, -2579.771289798175, -2581.2018014433147, -2583.638141588943, -2582.7887752996417, -2578.765461297686, -2576.3067694076026, -2579.167792697882, -2582.609961343999, -2580.777118298664, -2576.418528129879, -2576.1503071964157, -2579.815993287086, -2582.7664235551865, -2582.073519477072, -2578.4972403642228, -2576.8655630189855, -2579.3019031646136, -2582.1182229659826, -2581.782946799153, -2578.296074664125, -2576.6420455744324, -2580.1512694539156, -2581.9170572658845, -2582.4311473883567, -2579.2348479312477, -2577.9160950083847, -2580.12891770946, -2581.8723537769743, -2581.782946799153, -2578.743109553231, -2577.8937432639295, -2579.5924758425326, -2582.878182277463, -2581.7605950546977, -2577.759632797198, -2576.4408798743343, -2579.8606967759965, -2582.4758508772675, -2581.626484587966, -2578.3184264085803, -2575.9491414963177, -2577.513763608189, -2580.2853799206473, -2579.3019031646136, -2576.3514728965133, -2575.9491414963177, -2578.363129897491, -2582.2076299438036, -2583.1464032109266, -2578.9666269977843, -2577.8937432639295, -2580.6653595763873, -2583.1240514664714, -2582.1852781993484, -2579.3019031646136, -2576.8655630189855, -2579.100737464516, -2582.1629264548933, -2582.4311473883567, -2580.0842142205497, -2579.100737464516, -2581.8500020325187, -2584.8674875339852, -2583.884010777952, -2579.458365375801, -2578.4748886197676, -2580.263028176192, -2582.744071810731, -2582.609961343999, -2580.5759525985663, -2578.765461297686, -2581.268856676681, -2583.7946038001305, -2583.7051968223095, -2578.765461297686, -2577.6255223304656, -2580.3747868984688, -2581.4923741212338, -2581.380615398957, -2580.0842142205497, -2578.363129897491, -2581.2465049322254, -2584.643970089432, -2583.638141588943, -2580.1736211983707, -2578.296074664125, -2580.039510731639, -2582.3417404105357, -2582.1182229659826, -2578.094908964027, -2575.904438007407, -2578.519592108678, -2581.1794496988596, -2580.5983043430215, -2577.6255223304656, -2577.200839185815, -2580.553600854111, -2583.392272399935, -2582.1182229659826, -2579.4807171202565, -2577.3125979080914, -2578.6984060643204, -2582.453499132812, -2582.8334787885524, -2578.9889787422394, -2576.8879147634407, -2579.2124961867926, -2582.609961343999, -2582.65466483291, -2579.100737464516, -2577.871391519474, -2580.8888770209405, -2585.001598000717, -2584.487507878245, -2581.000635743217, -2580.5312491096556, -2583.325217166569, -2585.6945020788316, -2584.4651561337896, -2578.65370257541, -2577.066728719083, -2580.6653595763873, -2582.1629264548933, -2580.8888770209405, -2577.647874074921, -2576.418528129879, -2578.1843159418486, -2581.1570979544044, -2581.1123944654937, -2577.5361153526446, -2577.044376974628, -2580.061862476094, -2581.5370776101445, -2582.0511677326167, -2578.519592108678, -2575.770327540675, -2578.4078333864013, -2582.744071810731, -2582.7664235551865, -2580.1512694539156, -2578.1172607084827, -2579.5477723536223, -2583.4146241443905, -2583.1687549553817, -2578.9666269977843, -2576.3514728965133, -2579.3466066535243, -2581.7605950546977, -2580.643007831932, -2578.4078333864013, -2577.2902461636363, -2579.6371793314433, -2582.7887752996417, -2582.073519477072, -2578.4972403642228, -2575.792679285131, -2577.402004885913, -2581.0900427210386, -2580.777118298664, -2577.9831502417505, -2576.6643973188875, -2578.0278537306613, -2580.710063065298, -2580.4418421318346, -2577.871391519474, -2576.9326182523514, -2578.9219235088735, -2583.4593276333007, -2583.7946038001305, -2579.100737464516, -2576.552638596611, -2580.419490387379, -2583.951066011318, -2581.8276502880635, -2577.737281052742, -2574.7644990401864, -2578.363129897491, -2583.526382866667, -2581.715891565787, -2577.804336286108, -2576.8655630189855, -2579.36895839798, -2582.677016577365, -2581.5370776101445, -2577.9831502417505, -2576.396176385424, -2578.5419438531335, -2580.710063065298, -2581.1123944654937, -2577.759632797198, -2575.5021066072118, -2578.2513711752144, -2581.8947055214294, -2582.095871221527, -2578.6984060643204, -2576.5749903410665, -2578.229019430759, -2581.4700223767786, -2581.5370776101445, -2578.6089990864994, -2577.2678944191807, -2578.877220019963, -2580.486545620745, -2580.419490387379, -2577.2678944191807, -2575.7256240517645, -2577.3796531414573, -2581.4923741212338, -2581.5370776101445, -2578.8325165310525, -2577.044376974628, -2579.8606967759965, -2581.984112499251, -2581.8947055214294, -2578.0502054751164, -2575.9491414963177, -2578.9666269977843, -2583.74990031122, -2582.9899409997392, -2579.9948072427283, -2578.229019430759, -2579.74893805372, -2582.609961343999, -2582.0511677326167, -2578.3184264085803, -2575.7256240517645, -2578.139612452938, -2582.609961343999, -2582.1182229659826, -2578.9219235088735, -2577.737281052742, -2580.687711320843, -2582.5652578550885, -2582.520554366178, -2579.726586309265, -2578.4078333864013, -2581.134746209949, -2583.884010777952, -2583.593438100033, -2580.9335805098513, -2578.765461297686, -2579.9948072427283, -2582.5429061106333, -2582.4087956439016, -2579.681882820354, -2575.479754862756, -2579.1901444423374, -2588.3543596690133, -2593.6070196160103, -2595.059883005605, -2599.552583641122, -2609.4097029459126, -2619.5573949286218, -2627.648726421443, -2631.8955578679515, -2637.3046800261354, -2647.0500406086494, -2656.8177529356185, -2661.2433983377696, -2665.579636762099, -2668.775936219208, -2674.676796755409, -2682.321093359124, -2685.2715236272247, -2683.6621980264426, -2682.634017781498, -2683.036349181694, -2686.2773521277136, -2688.3113608731464, -2686.6573317834536, -2682.969293948328, -2685.584448049599, -2689.0042649512607, -2688.3113608731464, -2685.29387537168, -2683.1481079039704, -2686.4114625944453, -2688.5572300621548, -2686.903200972462, -2683.7963084931744, -2683.8186602376295, -2686.322055616624, -2689.093671929082, -2689.67481728492, -2686.2773521277136, -2685.003302693761, -2686.2102968943473, -2689.183078906903, -2687.9537329618615, -2684.0198259377275, -2681.583485792099, -2684.8244887381184, -2689.0489684401714, -2689.3618928625456, -2685.1374131604925, -2682.5669625481323, -2685.0480061826715, -2688.512526573244, -2688.736044017797, -2684.489212571289, -2682.4328520814006, -2685.807965494152, -2688.19960215087, -2686.9926079502834, -2684.0868811710934, -2680.689416013887, -2682.544610803677, -2686.880849228007, -2688.825450995618, -2686.880849228007, -2686.0761864276155, -2687.417291094934, -2690.188907407392, -2690.5018318297666, -2687.506698072755, -2685.316227116135, -2687.1490701614703, -2690.121852174026, -2688.3337126176016, -2685.5620963051438, -2682.8351834815962, -2684.57861954911, -2688.0207881952274, -2688.490174828789, -2685.606799794054, -2683.8186602376295, -2686.165593405437, -2689.4960033292778, -2690.904163229962, -2687.3278841171127, -2684.489212571289, -2684.8244887381184, -2687.81962249513, -2686.456166083356, -2682.030520681205, -2681.4717270698225, -2684.846840482574, -2689.071320184627, -2690.0100934517495, -2686.456166083356, -2684.7127300158418, -2686.567924805632, -2688.2666573842357, -2688.736044017797, -2686.0538346831604, -2683.5280875597105, -2686.165593405437, -2689.227782395814, -2689.9206864739285, -2686.031482938705, -2683.7516050042636, -2685.4056340939565, -2688.6019335510655, -2690.39007310749, -2687.774919006219, -2684.0421776821827, -2685.249171882769, -2688.6466370399758, -2688.065491684138, -2686.232648638803, -2684.4668608268335, -2685.584448049599, -2688.3337126176016, -2688.490174828789, -2687.6631602839425, -2687.6184567950318, -2689.8536312405627, -2693.072282442127, -2693.2287446533137, -2690.2336108963027, -2688.5572300621548, -2690.2336108963027, -2692.289971386191, -2692.871116742029, -2690.837107996596, -2689.451299840367, -2690.9935702077833, -2694.1898696648923, -2693.2063929088586, -2690.457128340856, -2689.071320184627, -2689.2501341402694, -2693.027578953216, -2693.9216487314284, -2690.39007310749, -2687.573753306121, -2689.7195207738305, -2693.4299103534117, -2693.407558608956, -2689.093671929082, -2686.187945149892, -2690.457128340856, -2694.033407453705, -2692.4911370862887, -2689.9653899628393, -2688.6019335510655, -2690.2336108963027], [-2703.2870296582023, -2716.0498757421824, -2711.6242303400318, -2693.407558608956, -2688.0431399396825, -2703.0858639581043, -2718.0838844876153, -2714.3287914191237, -2696.4697475993335, -2691.641770796987, -2703.935230247406, -2717.3239251761347, -2713.881756530018, -2693.8769452425176, -2688.2666573842357, -2703.3093814026574, -2718.9779542658275, -2714.8205297971404, -2697.162651677448, -2692.669951041931, -2705.6563145704645, -2719.067361243649, -2713.3676664075456, -2695.285105143202, -2689.3395411180904, -2704.136395947504, -2718.77678856573, -2714.485253630311, -2697.162651677448, -2690.747701018775, -2705.2539831702693, -2719.8273205551295, -2713.568832107643, -2695.776843521219, -2689.6077620515543, -2703.421140124934, -2717.480387387322, -2712.8535762850734, -2694.8157185096406, -2688.937209717895, -2703.3093814026574, -2718.843843799096, -2714.4629018858554, -2697.632038311009, -2691.9099917304507, -2706.1480529484816, -2720.5202246332437, -2715.893413530995, -2698.4367011114005, -2691.2394393967916, -2704.717541303342, -2720.5872798666096, -2715.87106178654, -2697.967314477839, -2692.647599297476, -2706.77390179323, -2719.9614310218612, -2714.485253630311, -2697.3414656330906, -2690.121852174026, -2703.130567447015, -2717.860367043062, -2712.875928029529, -2696.2015266658696, -2690.792404507685, -2704.2928581586907, -2719.134416477015, -2715.781654808719, -2697.7885005221965, -2691.5300120747106, -2704.2034511808697, -2718.0168292542494, -2713.524128618733, -2696.9838377218057, -2690.3006661296686, -2702.8846982580067, -2717.838015298607, -2713.524128618733, -2697.028541210716, -2691.4853085858, -2705.6563145704645, -2720.408465910967, -2715.446378641889, -2698.4367011114005, -2692.4687853418336, -2705.768073292741, -2720.2967071886906, -2716.608669353565, -2699.2413639117917, -2692.5358405751995, -2705.902183759473, -2721.4589979003667, -2716.183986208914, -2697.7885005221965, -2691.060625441149, -2704.6504860699756, -2719.067361243649, -2716.608669353565, -2699.7554540342635, -2693.027578953216, -2704.762244792252, -2719.067361243649, -2716.0051722532717, -2698.481404600311, -2691.842936497085, -2705.477500614822, -2720.9002042889842, -2717.100407731582, -2699.129605189515, -2692.066453941638, -2704.2481546697804, -2719.1120647325597, -2716.0051722532717, -2697.319113888635, -2691.731177774808, -2705.745721548286, -2721.1460734779926, -2716.541614120199, -2697.967314477839, -2691.2394393967916, -2705.2539831702693, -2719.134416477015, -2715.87106178654, -2698.347294133579, -2690.5688870631325, -2704.0469889696824, -2719.737913577308, -2716.9886490093054, -2699.7107505453528, -2693.29579988668, -2704.9634104923502, -2719.8943757884954, -2716.9886490093054, -2697.967314477839, -2691.5747155636213, -2704.9410587478947, -2718.709733332364, -2714.9769920083277, -2698.0120179667497, -2692.6252475530205, -2707.1091779600597, -2721.9283845339282, -2717.793311809696, -2699.889564500995, -2691.5747155636213, -2702.6835325579086, -2718.4415123989, -2716.2957449311907, -2697.3638173775457, -2689.451299840367, -2702.6388290689983, -2719.648506599487, -2716.742779820297, -2698.5931633225878, -2690.7253492743193, -2704.1810994364146, -2719.6261548550315, -2716.2063379533697, -2698.1014249445707, -2690.255962640758, -2703.354084891568, -2719.2461751992914, -2715.781654808719, -2698.1237766890263, -2691.1723841634257, -2703.3764366360233, -2718.8214920546407, -2715.87106178654, -2697.4308726109116, -2688.847802740074, -2701.9459249908837, -2718.4638641433557, -2715.1111024750594, -2696.939134232895, -2690.2783143852134, -2702.1470906909813, -2716.6533728424756, -2713.4123698964563, -2695.776843521219, -2687.86432598404, -2699.844861012085, -2715.7593030642633, -2713.233555940814, -2694.0781109426157, -2687.5290498172108, -2699.3754743785234, -2715.0887507306043, -2711.646582084487, -2694.2122214093474, -2688.289009128691, -2700.850689512574, -2716.2957449311907, -2713.0547419851714, -2693.9887039647942, -2686.098538172071, -2697.8332040111072, -2715.0440472416935, -2711.959506506861, -2693.3405033755903, -2686.9926079502834, -2700.895393001484, -2716.7204280758415, -2713.188852451903, -2695.8215470101295, -2686.9255527169175, -2699.934267989906, -2717.905070531973, -2715.893413530995, -2698.1237766890263, -2689.3395411180904, -2701.2753726572246, -2716.9439455203947, -2713.546480363188, -2696.96148597735, -2689.786576007197, -2701.9459249908837, -2718.128587976526, -2716.4075036534673, -2698.77197727823, -2689.518355073733, -2700.537765090199, -2717.033352498216, -2714.77582630823, -2697.67674179992, -2688.4678230843333, -2700.4036546234674, -2716.832186798118, -2715.0887507306043, -2696.648561554976, -2688.803099251163, -2701.3424278905904, -2716.161634464459, -2714.6640675859535, -2696.670913299431, -2688.5348783176996, -2701.185965679403, -2716.519262375744, -2714.7311228193194, -2697.542631333188, -2688.825450995618, -2700.895393001484, -2716.3404484201014, -2714.3287914191237, -2697.8332040111072, -2689.473651584822, -2702.482366857811, -2719.4026374104783, -2716.675724586931, -2699.1743086784254, -2690.3006661296686, -2703.197622680381, -2719.5590996216656, -2716.899242031484, -2699.6660470564425, -2691.328846374613, -2702.9741052358277, -2717.4356838984113, -2714.552308863677, -2697.006189466261, -2688.154898661959, -2699.643695311987, -2716.96629726485, -2716.0722274866375, -2698.347294133579, -2689.786576007197, -2701.476538357322, -2717.5250908762328, -2716.675724586931, -2699.2413639117917, -2689.741872518286, -2700.873041257029, -2716.2733931867356, -2714.2393844413027, -2697.542631333188, -2688.736044017797, -2700.805986023663, -2717.9497740208835, -2717.122759476037, -2699.554288334166, -2691.1500324189706, -2719.134416477015, -2719.000306010283, -2701.6553523129646, -2688.6689887844313, -2698.77197727823, -2714.77582630823, -2712.317134418146, -2694.7263115318196, -2683.1481079039704, -2691.194735907881, -2705.768073292741, -2703.0858639581043, -2684.3774538490125, -2670.8546484535514, -2677.67193051242, -2691.5076603302555, -2691.127680674515, -2671.972235676317, -2658.740002958775, -2667.703052485353, -2683.036349181694, -2680.2200293803253, -2661.9586541603394, -2651.0510028661497, -2661.578674504599, -2677.8954479569734, -2677.8283927236075, -2661.779840204697, -2652.257997066736, -2662.9644826608283, -2678.968331690828, -2678.5212968017217, -2661.9139506714287, -2652.660328466932, -2664.5514565171547, -2682.745776503775, -2683.841011982085, -2667.1666106184257, -2655.9907383907725, -2666.674872240409, -2683.1481079039704, -2683.595142793077, -2667.8371629520852, -2658.1812093473923, -2668.619474008021, -2685.6291515385096, -2686.1208899165263, -2669.222971108314, -2658.203561091848, -2669.222971108314, -2687.10436667256, -2687.216125394836, -2670.452317053356, -2660.1481628594593, -2669.4464885528673, -2686.322055616624, -2687.506698072755, -2670.944055431373, -2658.605892492043, -2668.4406600523785, -2686.3444073610794, -2687.3725876060234, -2671.0781658981045, -2661.422212293412, -2671.3016833426577, -2689.0042649512607, -2688.9819132068055, -2672.128697887504, -2660.550494259655, -2670.1840961198923, -2686.612628294543, -2685.875020727518, -2668.261846096736, -2657.5330087581883, -2666.8760379405066, -2683.4610323263446, -2684.869192227029, -2668.1053838855487, -2657.7565262027415, -2667.635997251987, -2683.706901515353, -2684.7574335047525, -2667.390128062979, -2657.644767480465, -2667.680700740898, -2684.600971293565, -2684.645674782476, -2668.418308307923, -2658.807058192141, -2666.5184100292217, -2683.5280875597105, -2684.3103986156466, -2667.591293763077, -2657.0412703801717, -2666.965444918328, -2683.3716253485236, -2685.4726893273223, -2668.619474008021, -2658.2706163252137, -2668.619474008021, -2684.5339160601993, -2684.7797852492076, -2668.5971222635653, -2658.4270785364006, -2668.1724391189146, -2684.8244887381184, -2686.4114625944453, -2670.5640757756323, -2660.0587558816383, -2668.619474008021, -2686.9479044613727, -2688.5348783176996, -2670.6534827534538, -2659.7011279703534, -2669.8488199530625, -2685.875020727518, -2687.5961050505766, -2670.4076135644455, -2659.7905349481744, -2669.4017850639566, -2686.478517827811, -2688.356064362057, -2672.419270565423, -2661.1763431044037, -2670.228799608803, -2686.813793994641, -2687.3055323726576, -2670.295854842169, -2658.538837258677, -2667.4571832963447, -2684.7797852492076, -2686.7020352723644, -2670.228799608803, -2659.187037847881, -2668.3959565634677, -2684.7127300158418, -2685.7856137496965, -2670.3405583310796, -2658.740002958775, -2667.993625163272, -2685.2715236272247, -2685.7185585163306, -2668.619474008021, -2658.2706163252137, -2667.993625163272, -2685.517392816233, -2688.57958180661, -2672.3969188209676, -2660.483439026289, -2669.1559158749483, -2686.1432416609814, -2687.171421905926, -2670.586427520088, -2659.902293670451, -2668.932398430395, -2686.880849228007, -2687.4396428393893, -2670.944055431373, -2659.768183203719, -2670.2064478643474, -2687.461994583845, -2688.6913405288865, -2672.91100894344, -2660.90812217094, -2669.1112123860376, -2684.936247460395, -2686.7243870168195, -2671.2793315982026, -2660.818715193119, -2669.4911920417776, -2686.5008695722663, -2688.6242852955206, -2673.6486165104648, -2662.9868344052834, -2670.832296709096, -2687.551401561666, -2689.9430382183837, -2672.7321949877974, -2661.3104535711354, -2671.4357938093895, -2688.780747506708, -2690.3453696185793, -2674.743851988775, -2663.5903315055766, -2671.0558141536494, -2689.428948095912, -2690.904163229962, -2675.5261630447108, -2663.322110572113, -2669.960578675339, -2686.3891108499897, -2689.227782395814, -2673.3356920880906, -2660.9751774043057, -2669.222971108314, -2686.3667591055346, -2689.160727162448, -2674.0732996551155, -2660.6622529819315, -2668.418308307923, -2686.3667591055346, -2688.803099251163, -2672.933360687895, -2660.751659959753, -2669.29002634168, -2686.3667591055346, -2689.741872518286, -2674.9897211777834, -2663.2327035942917, -2671.525200787211, -2687.909029472951, -2689.518355073733, -2672.9780641768057, -2661.9810059047945, -2670.8546484535514, -2687.216125394836, -2690.546535318677, -2675.8614392115405, -2662.76331696073, -2669.29002634168, -2686.6349800389985, -2689.4065963514563, -2671.972235676317, -2660.796363448663, -2669.7370612307864, -2686.6573317834536, -2690.166555662937, -2673.9168374439287, -2660.461087281834, -2668.6641774969316, -2685.204468393859, -2687.506698072755, -2672.3298635876017, -2660.461087281834, -2668.2171426078253, -2685.159764904948, -2687.0596631836493, -2671.882828698496, -2660.550494259655, -2667.4348315518896, -2684.1092329155485, -2687.216125394836, -2672.128697887504, -2660.3493285595573, -2667.8148112076296, -2685.0256544382164, -2687.9537329618615, -2672.799250221163, -2660.90812217094, -2668.284197841191, -2684.91389571594, -2687.6631602839425, -2672.7545467322525, -2660.6846047263866, -2668.328901330102, -2684.4221573379227, -2687.6855120283976, -2672.8216019656184, -2659.678776225898, -2667.345424574068, -2684.645674782476, -2686.9926079502834, -2671.167572875926, -2659.388203547979, -2666.71957572932, -2683.8186602376295, -2687.841974239585, -2672.9780641768057, -2659.835238437085, -2666.697223984864, -2684.2433433822803, -2687.4396428393893, -2673.201581621359, -2660.5728460041105, -2666.4960582847666, -2683.282218370702, -2688.154898661959, -2672.9780641768057, -2659.455258781345, -2666.7642792182305, -2683.4610323263446, -2687.171421905926, -2672.173401376415, -2660.3269768151017, -2668.1724391189146, -2684.9809509493057, -2688.6689887844313, -2674.3415205885794, -2661.3104535711354, -2668.7535844747526, -2685.4950410717775, -2688.490174828789, -2673.827430466107, -2661.735136715786, -2668.6641774969316, -2685.4950410717775, -2689.7195207738305, -2675.0791281556044, -2662.1821716048926, -2670.228799608803, -2687.81962249513, -2691.5747155636213, -2675.034424666694, -2661.802191949152, -2670.00528216425, -2686.9926079502834, -2689.9877417072944, -2674.162706632937, -2661.109287871038, -2669.222971108314, -2686.567924805632, -2690.5241835742218, -2673.6709682549204, -2660.170514603915, -2668.485363541289, -2685.3832823495013, -2688.490174828789, -2673.9168374439287, -2661.735136715786, -2667.8148112076296, -2684.645674782476, -2688.780747506708, -2676.800212478663, -2667.1666106184257, -2673.939189188384, -2692.044102197183, -2698.3919976224897, -2684.57861954911, -2671.86047695404, -2681.5611340476435, -2699.777805778719, -2704.1810994364146, -2689.6524655404646, -2677.4037095789563, -2685.606799794054, -2702.9517534913725, -2708.316172160646, -2694.033407453705, -2681.8964102144732, -2689.6971690293753, -2707.645619826987, -2710.037256483705, -2695.9556574768612, -2685.4950410717775, -2692.513488830744, -2709.1878901944033, -2712.96533500735, -2698.324942389124, -2686.031482938705, -2693.452262097867, -2710.1713669504365, -2716.541614120199, -2701.2977244016797, -2687.3725876060234, -2694.413387109445, -2711.3783611510235, -2716.541614120199, -2702.7282360468193, -2690.5241835742218, -2695.8438987545846, -2714.7087710748638, -2720.319058933146, -2705.477500614822, -2692.58054406411, -2698.1237766890263, -2715.200509452881, -2719.9167275329505, -2704.806948281163, -2691.038273696694, -2697.944962733384, -2714.261736185758, -2719.000306010283, -2704.471672114333, -2691.3064946301574, -2697.877907500018, -2715.6475443419868, -2721.9060327894726, -2706.6621430709533, -2692.289971386191, -2699.286067400702, -2715.3122681751574, -2719.5814513661207, -2702.907050002462, -2690.2336108963027, -2699.1072534450595, -2717.3239251761347, -2723.1353787345147, -2706.751550048775, -2691.3064946301574, -2697.654390055465, -2715.15580596397, -2720.006134510772, -2705.2539831702693, -2692.1782126639146, -2698.0567214556604, -2715.7145995753526, -2720.363762422057, -2705.030465725716, -2690.77005276323, -2697.989666222294, -2715.804006553174, -2721.3025356891794, -2707.1091779600597, -2694.2122214093474, -2699.934267989906, -2714.798178052685, -2718.9332507769172, -2704.3152099031463, -2691.0829771856042, -2698.280238900213, -2715.3122681751574, -2720.408465910967, -2705.5222041037327, -2691.731177774808, -2698.257887155758, -2716.1169309755483, -2721.0119630112604, -2705.477500614822, -2691.842936497085, -2696.380340621512, -2712.6524105849758, -2718.799140310185, -2705.768073292741, -2692.9158202309395, -2697.6990935443755, -2715.0440472416935, -2720.9002042889842, -2705.321038403635, -2690.837107996596, -2696.514451088244, -2714.3064396746686, -2721.3695909225453, -2706.1704046929367, -2691.641770796987, -2697.4308726109116, -2715.3569716640677, -2720.9896112668052, -2704.9187070034395, -2690.680645785409, -2697.095596444082, -2713.7029425743754, -2718.508567632266, -2703.9799337363165, -2690.904163229962, -2696.7603202772525, -2714.3287914191237, -2720.2967071886906, -2705.2316314258137, -2691.10532893006, -2697.6990935443755, -2715.446378641889, -2721.414294411456, -2708.606744838565, -2694.7263115318196, -2699.509584845255, -2715.3122681751574, -2720.699038588886, -2706.840957026596, -2694.5698493206323, -2698.1014249445707, -2716.6980763313863, -2723.582413623621, -2708.070302971638, -2693.4969655867776, -2698.4590528558556, -2714.7534745637745, -2721.5931083670985, -2708.0479512271827, -2691.9546952193614, -2697.1179481885374]]
[[-2692.5358405751995, -2695.128642932015, -2693.161689419948, -2689.786576007197, -2690.6135905520428, -2694.1451661759816, -2695.7991952656744, -2693.318151631135, -2689.831279496107, -2690.0100934517495, -2694.1451661759816, -2695.665084798942, -2693.072282442127, -2690.3006661296686, -2691.0159219522384, -2694.547497576177, -2696.5591545771545, -2694.346331876079, -2690.5018318297666, -2690.9265149744174, -2693.8769452425176, -2693.9887039647942, -2691.731177774808, -2687.417291094934, -2687.551401561666, -2689.831279496107, -2692.5358405751995, -2691.4853085858, -2688.8925062289845, -2689.6301137960095, -2693.072282442127, -2693.720483031331, -2691.6641225414423, -2690.188907407392, -2690.5688870631325, -2693.765186520241, -2696.067416199138, -2694.2122214093474, -2690.9265149744174, -2691.8876399859955, -2696.2015266658696, -2698.0120179667497, -2694.614552809543, -2692.4687853418336, -2694.033407453705, -2692.513488830744, -2691.2841428857023, -2690.5688870631325, -2688.713692273342, -2689.428948095912, -2692.871116742029, -2694.346331876079, -2692.289971386191, -2689.9653899628393, -2689.2948376291797, -2691.418253352434, -2693.4299103534117, -2691.5076603302555, -2689.6301137960095, -2689.741872518286, -2691.798233008174, -2693.5193173312327, -2690.1442039184817, -2686.6796835279088, -2688.6019335510655, -2692.5581923196546, -2692.9158202309395, -2691.999398708272, -2689.428948095912, -2688.713692273342, -2691.2170876523364, -2692.5581923196546, -2689.384244607001, -2685.7856137496965, -2686.6573317834536, -2689.764224262741, -2690.904163229962, -2689.6971690293753, -2687.3949393504786, -2689.2054306513587, -2691.775881263719, -2692.647599297476, -2689.831279496107, -2686.7020352723644, -2687.9984364507723, -2691.6194190525316, -2693.0499306976712, -2691.753529519264, -2689.384244607001, -2689.67481728492, -2692.1782126639146, -2694.4580905983557, -2692.5581923196546, -2689.1160236735373, -2689.5630585626436, -2692.379378364012, -2694.5922010650875, -2691.9323434749062, -2688.289009128691, -2688.289009128691, -2690.0771486851154, -2690.6135905520428, -2688.803099251163, -2685.830317238607, -2686.523221316722, -2690.457128340856, -2692.938171975395, -2690.680645785409, -2687.260828883747, -2686.0538346831604, -2687.931381217406, -2689.808927751652, -2689.2948376291797, -2689.160727162448, -2690.6359422964983, -2694.4357388539006, -2695.329808632113, -2691.351198119068, -2687.9537329618615, -2688.289009128691, -2691.842936497085, -2692.714654530842, -2691.440605096889, -2688.9595614623504, -2688.0878434285933, -2690.7253492743193, -2692.781709764208, -2690.747701018775, -2687.10436667256, -2687.171421905926, -2690.255962640758, -2691.9770469638165, -2691.194735907881, -2688.221953895325, -2688.713692273342, -2691.9546952193614, -2693.67577954242, -2691.731177774808, -2688.780747506708, -2688.6913405288865, -2691.10532893006, -2692.8934684864844, -2690.9488667188725, -2687.7302155173084, -2687.551401561666, -2691.038273696694, -2693.5193173312327, -2692.4911370862887, -2689.4065963514563, -2688.847802740074, -2691.9323434749062, -2693.161689419948, -2690.971218463328, -2687.931381217406, -2688.154898661959, -2691.641770796987, -2693.2063929088586, -2690.6582940409535, -2687.81962249513, -2688.713692273342, -2691.127680674515, -2692.4017301084677, -2690.2783143852134, -2687.9984364507723, -2688.132546917504, -2690.5241835742218, -2692.0217504527272, -2690.166555662937, -2686.813793994641, -2686.76909050573, -2689.6524655404646, -2692.9605237198502, -2691.3735498635233, -2687.9984364507723, -2688.2443056397806, -2691.3064946301574, -2693.2510963977693, -2691.753529519264, -2688.356064362057, -2689.227782395814, -2691.731177774808, -2694.2345731538026, -2691.2394393967916, -2687.2831806282024, -2687.0596631836493, -2690.5688870631325, -2691.999398708272, -2689.786576007197, -2687.171421905926, -2686.903200972462, -2690.323017874124, -2692.4017301084677, -2690.255962640758, -2687.6855120283976, -2686.4114625944453, -2690.7253492743193, -2693.072282442127, -2690.4347765964003, -2687.10436667256, -2687.171421905926, -2690.0771486851154, -2691.351198119068, -2689.9877417072944, -2686.9255527169175, -2686.545573061177, -2689.3395411180904, -2692.7593580197527, -2690.5018318297666, -2687.216125394836, -2687.9984364507723, -2691.4629568413447, -2693.720483031331, -2693.653427797965, -2690.457128340856, -2690.255962640758, -2693.072282442127, -2694.480442342811, -2692.7593580197527, -2688.19960215087, -2688.065491684138, -2691.060625441149, -2692.5358405751995, -2690.0100934517495, -2687.707863772853, -2688.490174828789, -2691.060625441149, -2693.809890009152, -2692.804061508663, -2689.473651584822, -2689.451299840367, -2692.871116742029, -2689.6301137960095, -2687.6631602839425, -2691.798233008174, -2693.742834775786, -2692.804061508663, -2691.328846374613, -2690.680645785409, -2688.356064362057, -2686.2773521277136, -2681.1364509029927, -2673.6262647660096, -2669.1335641304927, -2665.4678780398226, -2661.2881018266803, -2654.4037645344456, -2645.4407150078673, -2637.5058457262335, -2634.734229413775, -2632.074371823594, -2624.5641856866105, -2615.9811158157727, -2609.9014413239292, -2606.3698656999904, -2603.9335255543624, -2600.647819119432, -2593.5623161270996, -2589.583705614055, -2592.0871009930493, -2592.8694120489854, -2590.3213131810803, -2587.5720486130776, -2585.850964290019, -2586.968551512784, -2589.6060573585105, -2589.874278291974, -2586.1862404568483, -2585.0239497451726, -2587.7061590798094, -2590.0530922476164, -2589.583705614055, -2586.0297782456614, -2585.627446845466, -2588.3767114134685, -2590.164850969893, -2588.3543596690133, -2584.912191022896, -2584.7333770672535, -2586.4321096458566, -2588.8013945581192, -2588.488470135745, -2585.4486328898233, -2583.4593276333007, -2585.582743356555, -2589.1143189804934, -2589.0919672360383, -2586.521516623678, -2585.6945020788316, -2588.868449791485, -2591.617714359488, -2590.388368414446, -2586.0521299901166, -2585.1580602119043, -2589.136670724949, -2590.835403303552, -2589.6731125918764, -2587.9296765243625, -2586.7226823237756, -2588.6449323469324, -2591.617714359488, -2590.768348070186, -2586.812089301597, -2586.677978834865, -2588.3096561801026, -2588.0861387355494, -2585.4709846342785, -2581.1794496988596, -2578.8325165310525, -2581.93940901034, -2584.912191022896, -2584.3981009004237, -2580.2406764317366, -2579.123089208971, -2581.2241531877703, -2584.1075282225047, -2581.738243310242, -2578.072557219572, -2577.3125979080914, -2579.5254206091668, -2583.0569962331056, -2582.073519477072, -2578.430185130857, -2578.094908964027, -2580.754766554209, -2584.2192869447813, -2584.6663218338877, -2580.3747868984688, -2578.8995717644184, -2582.2076299438036, -2585.962723012295, -2584.5098596227003, -2581.4029671434128, -2580.710063065298, -2583.3699206554797, -2585.649798589921, -2584.7780805561642, -2582.095871221527, -2580.263028176192, -2582.587609599544, -2583.973417755773, -2583.2805136776583, -2579.4360136313458, -2580.017158987184, -2582.744071810731, -2584.331045667058, -2583.973417755773, -2579.9277520093624, -2579.9501037538175, -2582.4087956439016, -2585.1580602119043, -2585.135708467449, -2582.31938866608, -2581.2018014433147, -2582.65466483291, -2584.7333770672535, -2583.347568911024, -2579.2571996757033, -2578.363129897491, -2580.6653595763873, -2582.8558305330075, -2582.7664235551865, -2580.486545620745, -2579.614827586988, -2582.4982026217226, -2583.8393072890412, -2582.65466483291, -2579.681882820354, -2577.647874074921, -2580.1736211983707, -2582.1852781993484, -2560.6605482888876, -2562.873370989963, -2577.9831502417505, -2581.425318887868, -2581.000635743217, -2536.386553810424, -2547.2718533601587, -2579.078385720061, -2582.4311473883567, -2581.358263654502, -2527.557614750578, -2538.2417486002146, -2579.3466066535243, -2583.5040311222115, -2578.9442752533287, -2519.2427658132037, -2528.585794995522, -2577.0890804635383, -2582.609961343999, -2574.65274031791, -2512.8278151545305, -2520.40505652488, -2574.6303885734546, -2582.453499132812, -2571.1435164384266, -2507.8657278854525, -2514.9959343666956, -2572.7081385502984, -2581.984112499251, -2567.9919204702283, -2503.4177307388463, -2508.692742430299, -2568.9306937373512, -2582.1629264548933, -2562.8957227344185, -2500.4449487262905, -2506.9716581072403, -2567.7684030256755, -2582.5429061106333, -2558.201856398804, -2496.332227746514, -2502.21073653826, -2564.8850279909407, -2581.4700223767786, -2557.1289726649493, -2497.2262975247263, -2499.9308586038183, -2561.9793012117507, -2580.8888770209405, -2550.64696677291, -2492.912410844852, -2493.3817974784133, -2554.8267429860525, -2578.385481641946, -2548.0541644160944, -2492.532431189112, -2493.784128878609, -2554.4020598414018, -2581.671188076876, -2546.3330800930357, -2493.49355620069, -2494.4993847011788, -2552.4127545848796, -2580.7324148097537, -2544.6790510033434, -2491.9289340888186, -2493.448852711779, -2549.9317109503404, -2581.5594293545996, -2543.784981225131, -2492.420672466835, -2491.884230599908, -2546.6460045154104, -2579.771289798175, -2542.041545157617, -2492.845355611486, -2491.0348643106063, -2542.555635280089, -2579.2571996757033, -2536.006574154684, -2491.9289340888186, -2490.364311976947, -2540.588681768022, -2578.6313508309545, -2533.145550864405, -2490.3419602324916, -2487.30212298657, -2535.067800887561, -2577.1784874413597, -2532.1173706194604, -2489.470242198735, -2485.983370063707, -2530.5974519965, -2574.9656647402844, -2525.1212746049496, -2488.9561520762627, -2485.916314830341, -2527.9599461507737, -2573.5575048396, -2522.707286203776, -2487.1233090309274, -2482.9211810733295, -2520.3156495470585, -2569.578894326555, -2519.466283257757, -2487.324474731025, -2484.2846374851033, -2519.6003937244886, -2569.064804204083, -2518.0804751015276, -2486.497460186179, -2484.262285740648, -2517.141701834405, -2567.2543129032033, -2516.560556478567, -2487.3915299643913, -2483.1446985178827, -2513.4983674881896, -2563.432164601346, -2510.5255854756338, -2485.5363351746005, -2481.915352572841, -2509.2515360416814, -2560.0794029330496, -2509.2515360416814, -2486.1621840193493, -2482.4964979286788, -2507.7316174187204, -2558.0900976765274, -2506.837547640508, -2484.619913651933, -2481.758890361654, -2504.6470766838884, -2555.8325714865414, -2506.5693267070446, -2486.7433293751874, -2482.7647188621427, -2503.551841205578, -2553.5973970410105, -2504.78118715062, -2486.497460186179, -2483.8376025959974, -2502.300143516081, -2552.1445336514157, -2505.11646331745, -2488.9561520762627, -2484.754024118665, -2499.2156027812484, -2548.4117923273793, -2503.484785972212, -2487.615047408944, -2483.8599543404525, -2498.5897539365, -2545.7742864816532, -2502.21073653826, -2490.9678090772404, -2487.458585197757, -2497.5168702026454, -2542.98031842474, -2502.4342539828126, -2490.2749049991257, -2487.68210264231, -2495.616971923944, -2537.682954988832, -2500.4225969818353, -2490.2525532546706, -2487.68210264231, -2493.3147422450475, -2531.871501430452, -2498.232126025215, -2489.582000921011, -2486.564515419545, -2491.079567799517, -2525.2106815827706, -2495.5499166905784, -2487.9950270646846, -2486.2515909971703, -2490.1184427879384, -2519.8686146579525, -2495.5499166905784, -2489.82787011002, -2487.659750897855, -2489.3137799875476, -2515.1300448334273, -2495.728730646221, -2489.7161113877432, -2487.0562537975616, -2487.3691782199357, -2508.737445919209, -2494.588791679, -2491.0125125661507, -2488.4420619537905, -2487.525640431123, -2505.0047045951733, -2495.371102734936, -2490.7666433771424, -2487.659750897855, -2485.692797385788, -2496.689855657799, -2491.6383614108995, -2489.3584834764583, -2485.938666574796, -2484.4187479518355, -2494.432329467813, -2491.0125125661507, -2489.0679107985393, -2487.5032886866675, -2486.6986258862767, -2492.8677073559415, -2490.9678090772404, -2490.20784976576, -2487.3468264754806, -2484.754024118665, -2486.1174805304386, -2489.9843323212067, -2489.9843323212067, -2487.324474731025, -2485.3128177300478, -2486.3186462305366, -2489.8055183655642, -2490.3866637214023, -2487.0786055420167, -2484.0611200405506, -2485.4022247078688, -2487.615047408944, -2488.39735846488, -2486.0504252970727, -2483.30116072907, -2484.0611200405506, -2486.497460186179, -2487.458585197757, -2485.0669485410394, -2482.8094223510534, -2485.3798729634136, -2488.7773381206202, -2488.844393353986, -2486.0504252970727, -2481.8259455950197, -2484.5752101630223, -2486.3857014639025, -2486.720977630732, -2484.9328380743073, -2483.077643284517, -2484.9328380743073, -2488.0844340425056, -2488.39735846488, -2486.0280735526176, -2483.591733406989, -2485.692797385788, -2489.11261428745, -2490.20784976576, -2488.1291375314163, -2485.1340037744053, -2486.229239252715, -2490.2525532546706, -2489.8949253433857, -2487.30212298657, -2483.658788640355, -2485.4469281967795, -2488.844393353986, -2489.0679107985393, -2486.4304049528128, -2484.552858418567, -2485.938666574796, -2487.9950270646846, -2489.224373009726, -2486.9891985641957, -2484.4410996962906, -2486.653922397366, -2489.626704409922, -2490.6325329104106, -2488.6655793983437, -2485.7822043636093, -2486.586867164, -2489.3137799875476, -2490.364311976947, -2487.3468264754806, -2484.8210793520307, -2485.7598526191537, -2489.470242198735, -2491.437195710802, -2488.0844340425056, -2485.8269078525195, -2486.4751084417235, -2489.559649176556, -2489.8055183655642, -2487.4362334533016, -2484.1281752739164, -2485.0893002854946, -2488.3750067204246, -2490.3196084880365, -2488.240896253693, -2486.005721808162, -2487.7044543867655, -2490.6325329104106, -2490.6101811659555, -2488.39735846488, -2485.201059007771, -2484.7093206297545, -2488.240896253693, -2490.2749049991257, -2487.4362334533016, -2482.630608395411, -2483.032939795606, -2485.8269078525195, -2487.2797712421147, -2485.335169474503, -2482.3176839730363, -2483.591733406989, -2486.8997915863742, -2487.950323575774, -2485.4022247078688, -2483.68114038481, -2484.7093206297545, -2487.6373991533997, -2489.0008555651734, -2487.458585197757, -2484.7316723742097, -2486.631570652911, -2488.3750067204246, -2490.0066840656623, -2487.972675320229, -2483.4129194513466, -2485.1340037744053, -2487.905620086863, -2490.3866637214023, -2487.0339020531064, -2484.172878762827, -2485.983370063707, -2490.140794532394, -2491.2583817551595, -2488.687931142799, -2485.044596796584, -2486.2515909971703, -2489.6937596432876, -2490.2525532546706, -2487.3915299643913, -2484.530506674112, -2485.938666574796, -2490.163146276849, -2492.465375955746, -2489.0455590540837, -2485.3798729634136, -2487.1009572864723, -2490.0513875545726, -2491.9289340888186, -2489.2914282430925, -2484.306989229559, -2486.005721808162, -2490.073739299028, -2491.3030852440697, -2488.844393353986, -2485.938666574796, -2487.168012519838, -2489.8055183655642, -2490.1854980213047, -2488.6655793983437, -2485.625742152422, -2487.4809369422123, -2489.582000921011, -2490.5878294215, -2488.330303231514, -2484.9328380743073, -2486.0951287859834, -2489.425538709824, -2490.20784976576, -2486.653922397366, -2482.9658845622403, -2484.7316723742097, -2488.5091171871563, -2488.8667450984412, -2485.245762496682, -2480.462489183246, -2485.1340037744053, -2494.2535155121705, -2500.199079537282, -2502.814233638553, -2505.2729255286367, -2513.207794810271, -2523.3107833040694], [-2713.188852451903, -2726.1752159804364, -2717.815663554152, -2700.24719241228, -2697.162651677448, -2712.831224540618, -2725.996402024794, -2718.06153274316, -2700.96244823485, -2699.0401982116937, -2714.8875850305067, -2726.1752159804364, -2717.2345181983137, -2700.850689512574, -2699.4425296118893, -2715.3122681751574, -2726.577547380632, -2718.9332507769172, -2701.2977244016797, -2698.637866811498, -2714.4405501414003, -2727.1139892475594, -2720.0508379996822, -2703.3093814026574, -2699.0178464672385, -2713.5017768742773, -2727.3822101810233, -2719.5590996216656, -2701.4318348684114, -2699.1072534450595, -2714.485253630311, -2726.868120058551, -2719.648506599487, -2702.0353319687047, -2699.554288334166, -2714.865233286051, -2727.583375881121, -2718.866195543551, -2702.124738946526, -2699.1072534450595, -2713.1441489629924, -2726.599899125087, -2717.8827187875177, -2698.928439489417, -2696.9167824884394, -2712.451244884878, -2724.543538635199, -2717.6368495985093, -2699.8225092676294, -2696.4473958548783, -2711.6912855733976, -2725.258794457769, -2717.0780559871264, -2699.353122634068, -2696.268581899236, -2711.5348233622103, -2724.990573524305, -2716.3628001645566, -2697.8332040111072, -2694.5251458317216, -2710.2384221838024, -2723.7835793237186, -2717.6592013429645, -2699.9566197343615, -2696.7603202772525, -2711.199547195381, -2724.4094281684675, -2717.5697943651435, -2699.3978261229786, -2697.006189466261, -2712.6524105849758, -2724.1859107239143, -2716.899242031484, -2699.286067400702, -2697.4979278442775, -2713.188852451903, -2725.7281810913305, -2717.9721257653387, -2700.24719241228, -2695.0839394431046, -2710.2384221838024, -2724.320021190646, -2717.838015298607, -2700.6942273013865, -2697.632038311009, -2712.7194658183416, -2725.5940706245983, -2718.575622865632, -2701.253020912769, -2697.5649830776433, -2712.7865210517075, -2725.571718880143, -2717.860367043062, -2701.476538357322, -2698.995494722783, -2713.6805908299198, -2725.2364427133134, -2719.2685269437466, -2702.7505877912745, -2698.0790732001155, -2712.7865210517075, -2727.292803203202, -2720.2967071886906, -2701.7224075463305, -2698.0120179667497, -2713.859404785562, -2725.1470357354924, -2717.0780559871264, -2700.6271720680206, -2696.6932650438866, -2710.5960500950873, -2724.1188554905484, -2718.9332507769172, -2701.3647796350456, -2696.514451088244, -2711.4230646399337, -2726.510492147266, -2720.5872798666096, -2703.15291919147, -2698.3025906446687, -2712.0712652291377, -2725.482311902322, -2717.9944775097943, -2701.096558701582, -2697.7661487777414, -2713.278259429724, -2726.0858090026154, -2718.77678856573, -2700.1801371789143, -2695.5980295655763, -2708.942021005395, -2722.2636607007576, -2716.832186798118, -2700.493061601289, -2696.313285388146, -2710.4619396283556, -2724.96822177985, -2718.77678856573, -2700.5601168346548, -2696.58150632161, -2711.803044295674, -2724.387076424012, -2717.502739131777, -2700.0236749677274, -2696.8273755106184, -2712.317134418146, -2725.7505328357856, -2719.9390792774057, -2700.738930790297, -2696.223878410325, -2711.579526851121, -2725.8846433025174, -2720.073189744138, -2700.828337768118, -2696.4026923659676, -2711.1771954509254, -2725.549367135688, -2719.9167275329505, -2702.102387202071, -2697.587334822099, -2712.4735966293333, -2726.4210851694447, -2719.223823454836, -2701.901221501973, -2698.0567214556604, -2713.255907685269, -2726.4434369139003, -2720.028486255227, -2702.5270703467218, -2696.9838377218057, -2711.1771954509254, -2724.1412072350035, -2718.0391809987045, -2700.515413345744, -2694.5922010650875, -2708.7632070497525, -2722.8895095455064, -2718.352105421079, -2700.738930790297, -2695.933305732406, -2709.67962857242, -2724.4317799129226, -2718.8885472880065, -2699.5319365897103, -2693.8992969869732, -2708.807910538663, -2724.230614212825, -2718.799140310185, -2701.0295034682163, -2694.8827737430065, -2708.8749657720286, -2724.0518002571825, -2717.0110007537605, -2698.1684801779365, -2693.8769452425176, -2709.053779727671, -2722.3977711674897, -2717.2121664538586, -2700.9847999793055, -2695.642733054487, -2708.5620413496545, -2722.643640356498, -2717.8827187875177, -2700.3142476456464, -2695.419215609934, -2708.696151816386, -2722.8224543121405, -2717.7262565763303, -2700.135433690004, -2695.262753398747, -2708.606744838565, -2723.1353787345147, -2718.0391809987045, -2700.537765090199, -2695.195698165381, -2708.606744838565, -2722.688343845409, -2718.4638641433557, -2701.3647796350456, -2694.480442342811, -2708.003247738272, -2722.6212886120425, -2718.2850501877133, -2701.387131379501, -2697.2744103997243, -2711.311305917657, -2725.1693874799475, -2720.5202246332437, -2702.214145924347, -2697.0508929551715, -2710.5289948617215, -2699.844861012085, -2690.0771486851154, -2702.3706081355344, -2719.134416477015, -2717.9497740208835, -2701.0518552126714, -2693.318151631135, -2705.0081139812605, -2719.5814513661207, -2718.150939720981, -2701.0295034682163, -2690.8594597410515, -2699.6883988008976, -2715.0887507306043, -2712.0712652291377, -2691.842936497085, -2680.935285202895, -2691.0159219522384, -2705.388093637001, -2701.5882970795988, -2682.4105003369455, -2672.128697887504, -2682.343445103579, -2696.603858066065, -2693.3405033755903, -2675.324997344613, -2664.5961600060655, -2675.324997344613, -2691.9770469638165, -2689.473651584822, -2671.9498839318617, -2663.5903315055766, -2674.833258966596, -2691.6641225414423, -2692.3123231306463, -2674.810907222141, -2667.5018867852555, -2678.320131101624, -2694.413387109445, -2694.972180720828, -2677.9625031903392, -2667.8595146965404, -2679.348311346568, -2694.9274772319172, -2693.9887039647942, -2676.777860734208, -2667.5689420186213, -2679.5941805355765, -2695.933305732406, -2695.1509946764704, -2678.364834590535, -2669.2453228527693, -2679.057738668649, -2694.9498289763724, -2694.1898696648923, -2677.224895623314, -2667.2113141073364, -2678.677759012909, -2695.575677821121, -2694.614552809543, -2678.2083723793476, -2670.00528216425, -2680.778822991708, -2697.7214452888306, -2696.1568231769593, -2678.2083723793476, -2668.5077152857443, -2679.5941805355765, -2695.039235954194, -2693.698131286875, -2677.224895623314, -2667.4795350408003, -2679.2365526242916, -2694.8380702540962, -2691.6194190525316, -2673.738023488286, -2664.3055873281464, -2673.782726977197, -2690.6582940409535, -2689.67481728492, -2671.7040147428534, -2661.645729737965, -2673.3580438325457, -2689.764224262741, -2690.166555662937, -2673.939189188384, -2663.5903315055766, -2673.2686368547247, -2690.2783143852134, -2690.4347765964003, -2673.0227676657164, -2662.9197791719175, -2673.4698025548223, -2689.808927751652, -2690.255962640758, -2674.4085758219453, -2664.7973257061635, -2674.453279310856, -2691.4629568413447, -2691.798233008174, -2675.4367560668893, -2665.691395484376, -2674.4085758219453, -2691.351198119068, -2690.5241835742218, -2673.536857788188, -2664.394994305968, -2673.7603752327414, -2689.741872518286, -2690.188907407392, -2672.553381032155, -2661.9586541603394, -2671.7934217206744, -2689.428948095912, -2689.160727162448, -2672.2404566097807, -2662.6292064939985, -2671.9945874207724, -2689.384244607001, -2689.786576007197, -2671.189924620381, -2661.198694848859, -2671.3016833426577, -2687.3949393504786, -2687.506698072755, -2672.843953710074, -2662.5621512606326, -2672.3075118431466, -2689.428948095912, -2689.8536312405627, -2673.9615409328394, -2663.3444623165683, -2672.3969188209676, -2689.2724858847246, -2690.6359422964983, -2673.849782210563, -2663.411517549934, -2674.5873897775878, -2691.194735907881, -2692.9158202309395, -2675.548514789166, -2664.484401283789, -2673.3356920880906, -2690.5018318297666, -2691.395901607979, -2674.475631055311, -2665.378471062001, -2676.420232822923, -2693.29579988668, -2694.100462687071, -2677.515468301233, -2666.093726884571, -2676.5766950341103, -2693.027578953216, -2692.9158202309395, -2676.8225642231187, -2666.71957572932, -2675.8837909559957, -2693.698131286875, -2719.290878688202, -2700.895393001484, -2666.943093173873, -2676.129660145004, -2695.4862708432997, -2730.7573235937743, -2708.96437274985, -2666.585465262588, -2674.5873897775878, -2695.978009221317, -2739.005117297783, -2715.2452129417916, -2667.7254042298086, -2675.190886877881, -2696.7826720217076, -2742.3802307105343, -2721.0790182446267, -2668.3736048190126, -2674.9450176888727, -2699.3307708896127, -2747.6328906575313, -2725.34820143559, -2670.944055431373, -2676.353177589557, -2700.001323223272, -2750.583320925632, -2728.4327421704224, -2669.4464885528673, -2673.872133955018, -2701.6777040574198, -2752.1032395485927, -2730.9808410383275, -2670.944055431373, -2671.972235676317, -2702.4376633689003, -2754.9866145833275, -2734.087733517615, -2672.262808354236, -2672.9557124323505, -2703.644657569487, -2755.16542853897, -2736.904053318984, -2674.833258966596, -2672.7545467322525, -2705.321038403635, -2757.0206233287604, -2737.9545853083832, -2676.353177589557, -2672.3745670765124, -2706.706846559864, -2758.9875768408274, -2740.1003527760927, -2679.013035179739, -2673.3580438325457, -2710.05960822816, -2760.3063297636904, -2742.4696376883553, -2681.3376166030907, -2673.0451194101715, -2711.3783611510235, -2760.105164063593, -2741.7320301213304, -2681.002340436261, -2672.1063461430485, -2713.769997807741, -2762.809725142685, -2746.06826854566, -2686.836145739096, -2674.0285961662053, -2714.485253630311, -2762.0050623422935, -2745.822399356651, -2686.7467387612746, -2672.776898476708, -2716.876890287029, -2764.8213821436625, -2747.8564081020845, -2689.518355073733, -2673.201581621359, -2717.6368495985093, -2764.4861059768327, -2746.8505796015957, -2690.479480085311, -2673.2462851102696, -2718.8885472880065, -2763.9273123654502, -2747.2752627462464, -2691.418253352434, -2673.805078721652, -2721.5037013892775, -2765.670748432964, -2749.130457536037, -2694.2345731538026, -2673.849782210563, -2722.330715934124, -2765.156658310492, -2748.035222057727, -2696.313285388146, -2673.3133403436354, -2721.973088022839, -2765.4919344773216, -2750.739783136819, -2699.1743086784254, -2675.257942111247, -2725.34820143559, -2766.7212804223636, -2752.058536059682, -2700.6271720680206, -2674.0732996551155, -2725.482311902322, -2766.408355999989, -2751.8350186151292, -2702.102387202071, -2674.6544450109536, -2726.286974702713, -2765.670748432964, -2750.024527314249, -2702.3706081355344, -2673.514506043733, -2726.3316781916237, -2764.8660856325732, -2749.9127685919725, -2704.806948281163, -2675.459107811345, -2728.96918403735, -2767.905922878495, -2752.662033159975, -2707.422102382434, -2676.9119712009397, -2731.53963464971, -2767.2353705448354, -2752.863198860073, -2711.266602428747, -2679.10244215756, -2734.154788750981, -2769.9846351128385, -2755.1430767945144, -2714.284087930213, -2680.331788102602, -2735.5405969072103, -2770.0740420906595, -2755.16542853897, -2715.826358297629, -2681.4717270698225, -2735.4735416738445, -2769.2693792902687, -2755.54540819471, -2716.0498757421824, -2681.29291311418, -2736.8817015745285, -2768.665882189975, -2754.159600038481, -2718.06153274316, -2681.449375325367, -2736.389963196512, -2768.352957767601, -2752.5279226932435, -2715.848710042085, -2679.907104957951, -2734.5571201511766, -2767.414184500478, -2753.7796203827406, -2719.134416477015, -2682.8575352260514, -2737.999288797294, -2769.962283368383, -2754.7183936498636, -2721.5037013892775, -2684.131584660004, -2739.4074486979785, -2769.1352688235365, -2754.1148965495704, -2720.743742077797, -2683.5057358152553, -2738.4016201974896, -2768.7776409122516, -2753.7572686382855, -2720.5202246332437, -2682.0752241701157, -2736.25585272978, -2768.062385089682, -2754.6513384164978, -2720.073189744138, -2682.7904799926855, -2739.1392277645145, -2768.218847300869, -2752.8184953711625, -2721.3695909225453, -2684.7797852492076, -2740.1450562650034, -2768.3976612565116, -2753.6902134049196, -2723.716524090353, -2684.489212571289, -2738.5580824086765, -2769.2693792902687, -2754.4501727163997, -2722.420122911945, -2685.1374131604925, -2739.519207420255, -2769.247027545813, -2754.874855861051, -2724.4988351462885, -2685.3385788605906, -2738.8486550865955, -2767.8165159006735, -2753.3996407270006, -2724.029448512727, -2685.9197242164287, -2738.8486550865955, -2768.956454867894, -2755.0089663277827, -2725.549367135688, -2686.76909050573, -2740.614442898565, -2768.26355078978, -2752.997309326805, -2722.9565647788722, -2684.6680265269315, -2738.356916708579, -2767.8165159006735, -2754.5619314386763, -2725.2364427133134, -2687.0149596947385, -2740.703849876386, -2769.537600223732, -2754.874855861051, -2726.555195636177, -2688.5572300621548, -2740.189759753914, -2768.1517920675033, -2755.0983733056037, -2727.605727625576, -2687.774919006219, -2739.832131842629, -2767.995329856316, -2753.6902134049196, -2725.5940706245983, -2686.165593405437, -2737.328736463635, -2765.447230988411, -2751.8797221040395, -2724.8788148020285, -2686.0091311942497, -2738.513378919766, -2766.386004255534, -2751.5220941927546, -2724.5658903796543, -2685.6291515385096, -2738.1333992640257, -2767.861219389584, -2754.383117483034, -2727.6280793700316, -2689.518355073733, -2739.16157950897, -2766.676576933453, -2752.3044052486903, -2727.1139892475594, -2687.81962249513, -2738.602785897587, -2767.056556589193, -2753.667861660464, -2727.4269136699336, -2688.9595614623504, -2739.3403934646126, -2766.0730798331597, -2752.8184953711625, -2727.739838092308, -2688.847802740074, -2738.2675097307574, -2766.386004255534, -2754.383117483034, -2729.6173846265538, -2689.6301137960095, -2738.8486550865955, -2766.967149611372, -2754.3384139941236, -2730.422047426945, -2691.351198119068, -2738.4016201974896, -2765.670748432964, -2751.9244255929502, -2727.941003792406, -2689.808927751652, -2738.021640541749, -2765.4025274995006, -2752.5055709487883, -2728.320983448146, -2690.121852174026, -2738.4016201974896, -2765.313120521679, -2751.4773907038443, -2728.186872981414, -2690.904163229962, -2738.1781027529364, -2767.190667055925, -2754.383117483034, -2730.153826493481, -2692.4017301084677, -2738.669841130953, -2766.251893788802, -2752.7514401377966, -2728.522149148244, -2690.792404507685, -2737.8875300750174, -2765.8495623886065, -2752.997309326805, -2729.4385706709113, -2691.038273696694, -2737.7981230971964, -2766.0730798331597, -2752.5279226932435, -2729.1032945040815, -2692.289971386191, -2738.8486550865955, -2766.7436321668188, -2753.667861660464, -2731.070248016149, -2692.2005644083697, -2737.8875300750174, -2766.676576933453, -2754.2043035273914, -2731.2043584828807, -2692.9828754643054, -2736.680535874431, -2764.5531612101986, -2752.349108737601, -2731.6066898830763, -2694.547497576177, -2737.9098818194725, -2767.190667055925, -2753.6231581715538, -2731.3608206940676, -2693.8545934980625, -2737.574605652643, -2767.6824054339418, -2754.7854488832295, -2732.6348701280203, -2695.8662504990402, -2737.9098818194725, -2766.408355999989, -2753.4890477048216, -2732.836035828118, -2695.7321400323085, -2738.4016201974896, -2766.4754112333553, -2753.667861660464, -2732.545463150199, -2696.357988877057, -2739.1392277645145, -2766.989501355827, -2754.584283183132, -2734.646527128998, -2699.7554540342635, -2740.614442898565, -2769.537600223732, -2756.774754139752, -2737.1722742524476, -2704.4046168809673, -2747.7222976353523]]
