['beep', 0.0, 0.0, 0.0, 0.0, 0.0, 0.0, 0.0, 0.0]
['beep', 0.0, 104.4497018396499, 0.0, 0.0, 0.0, 0.0, -2332.471589144658, 0.0]
['beep', 0.0, 103.33211461688455, 0.0, 0.0, 0.0, 0.0, -2335.086743245929, 0.0]
['beep', 0.0, 103.44387333916109, 0.0, 0.0, 0.0, 0.0, -2336.0925717464174, 0.0]
['beep', 0.0, 103.39916985025047, 0.0, 0.0, 0.0, 0.0, -2333.9021007897977, 0.0]
['beep', 0.0, 104.74027451756889, 0.0, 0.0, 0.0, 0.0, -2331.9351472777307, 0.0]
['beep', 0.0, 104.98614370657727, 0.0, 0.0, 0.0, 0.0, -2333.142141478317, 0.0]
['beep', 0.0, 104.20383265064153, 0.0, 0.0, 0.0, 0.0, -2336.472551402158, 0.0]
['beep', 0.0, 102.84037623886779, 0.0, 0.0, 0.0, 0.0, -2336.539606635524, 0.0]
['beep', 0.0, 104.33794311737337, 0.0, 0.0, 0.0, 0.0, -2333.6785833452445, 0.0]
['beep', 0.0, 104.67321928420297, 0.0, 0.0, 0.0, 0.0, -2331.8680920443644, 0.0]
['beep', 0.0, 104.29323962846276, 0.0, 0.0, 0.0, 0.0, -2332.7398100781215, 0.0]
['beep', 0.0, 101.9016029717449, 0.0, 0.0, 0.0, 0.0, -2335.1314467348393, 0.0]
['beep', 0.0, 99.15233840374214, 0.0, 0.0, 0.0, 0.0, -2336.785475824532, 0.0]
['beep', 0.0, 104.51675707301582, 0.0, 0.0, 0.0, 0.0, -2334.818522312465, 0.0]
['beep', 0.0, 112.0045914655437, 0.0, 0.0, 0.0, 0.0, -2331.8457402999093, 0.0]
['beep', 0.0, 113.16688217721966, 0.0, 0.0, 0.0, 0.0, -2330.638746099323, 0.0]
['beep', 0.0, 111.49050134307163, 0.0, 0.0, 0.0, 0.0, -2332.3821821668366, 0.0]
['beep', 0.0, 109.25532689754093, 0.0, 0.0, 0.0, 0.0, -2333.3433071784148, 0.0]
['beep', 0.0, 108.76358851952416, 0.0, 0.0, 0.0, 0.0, -2331.7339815776327, 0.0]
['beep', 0.0, 110.39526586476158, 0.0, 0.0, 0.0, 0.0, -2331.1528362217946, 0.0]
['beep', 0.0, 111.75872227653531, 0.0, 0.0, 0.0, 0.0, -2334.1256182343504, 0.0]
['beep', 0.0, 109.03180945298786, 0.0, 0.0, 0.0, 0.0, -2336.8748828023536, 0.0]
['beep', 0.0, 109.21062340863031, 0.0, 0.0, 0.0, 0.0, -2337.076048502451, 0.0]
['beep', 0.0, 110.1046931868426, 0.0, 0.0, 0.0, 0.0, -2333.4550659006914, 0.0]
['beep', 0.0, 110.95405947614425, 0.0, 0.0, 0.0, 0.0, -2332.493940889113, 0.0]
['beep', 0.0, 111.91518448772246, 0.0, 0.0, 0.0, 0.0, -2333.7009350896997, 0.0]
['beep', 0.0, 109.36708561981746, 0.0, 0.0, 0.0, 0.0, -2337.7466008361102, 0.0]
['beep', 0.0, 108.04833269695435, 0.0, 0.0, 0.0, 0.0, -2338.6406706143225, 0.0]
['beep', 0.0, 106.93074547418898, 0.0, 0.0, 0.0, 0.0, -2335.243205457116, 0.0]
['beep', 0.0, 107.66835304121412, 0.0, 0.0, 0.0, 0.0, -2333.7009350896997, 0.0]
['beep', 0.0, 107.9589257191331, 0.0, 0.0, 0.0, 0.0, -2335.3102606904818, 0.0]
['beep', 0.0, 106.59546930735938, 0.0, 0.0, 0.0, 0.0, -2337.456028158191, 0.0]
['beep', 0.0, 107.33307687438452, 0.0, 0.0, 0.0, 0.0, -2338.5959671254122, 0.0]
['beep', 0.0, 108.38360886378395, 0.0, 0.0, 0.0, 0.0, -2336.561958379979, 0.0]
['beep', 0.0, 111.66931529871408, 0.0, 0.0, 0.0, 0.0, -2335.0196880125627, 0.0]
['beep', 0.0, 111.22228040960795, 0.0, 0.0, 0.0, 0.0, -2336.3607926798813, 0.0]
['beep', 0.0, 111.51285308752693, 0.0, 0.0, 0.0, 0.0, -2338.9759467811523, 0.0]
['beep', 0.0, 111.0434664539655, 0.0, 0.0, 0.0, 0.0, -2338.171283980761, 0.0]
['beep', 0.0, 111.33403913188448, 0.0, 0.0, 0.0, 0.0, -2335.3326124349373, 0.0]
['beep', 0.0, 112.87630949930066, 0.0, 0.0, 0.0, 0.0, -2334.3491356789036, 0.0]
['beep', 0.0, 112.40692286573922, 0.0, 0.0, 0.0, 0.0, -2335.6231851128564, 0.0]
['beep', 0.0, 111.17757692069733, 0.0, 0.0, 0.0, 0.0, -2338.5959671254122, 0.0]
['beep', 0.0, 109.59060306437053, 0.0, 0.0, 0.0, 0.0, -2340.1605892372836, 0.0]
['beep', 0.0, 109.8364722533789, 0.0, 0.0, 0.0, 0.0, -2337.1654554802726, 0.0]
['beep', 0.0, 110.17174842020852, 0.0, 0.0, 0.0, 0.0, -2337.2995659470043, 0.0]
['beep', 0.0, 110.70819028713588, 0.0, 0.0, 0.0, 0.0, -2338.9982985256074, 0.0]
['beep', 0.0, 108.8753472418007, 0.0, 0.0, 0.0, 0.0, -2342.596929382912, 0.0]
['beep', 0.0, 107.48953908557166, 0.0, 0.0, 0.0, 0.0, -2343.4909991611244, 0.0]
['beep', 0.0, 109.43414085318338, 0.0, 0.0, 0.0, 0.0, -2340.697031104211, 0.0]
['beep', 0.0, 110.84230075386772, 0.0, 0.0, 0.0, 0.0, -2338.3277461919483, 0.0]
['beep', 0.0, 112.04929495445431, 0.0, 0.0, 0.0, 0.0, -2339.467685159169, 0.0]
['beep', 0.0, 110.37291412030628, 0.0, 0.0, 0.0, 0.0, -2342.5298741495462, 0.0]
['beep', 0.0, 109.03180945298786, 0.0, 0.0, 0.0, 0.0, -2342.7757433385545, 0.0]
['beep', 0.0, 109.88117574228951, 0.0, 0.0, 0.0, 0.0, -2340.2499962151046, 0.0]
['beep', 0.0, 111.26698389851856, 0.0, 0.0, 0.0, 0.0, -2338.7077258476884, 0.0]
['beep', 0.0, 111.93753623217776, 0.0, 0.0, 0.0, 0.0, -2340.048830515007, 0.0]
['beep', 0.0, 110.70819028713588, 0.0, 0.0, 0.0, 0.0, -2342.5075224050906, 0.0]
['beep', 0.0, 110.50702458703812, 0.0, 0.0, 0.0, 0.0, -2342.373411938359, 0.0]
['beep', 0.0, 113.07747519939844, 0.0, 0.0, 0.0, 0.0, -2340.384106681837, 0.0]
['beep', 0.0, 114.48563510008277, 0.0, 0.0, 0.0, 0.0, -2338.148932236306, 0.0]
['beep', 0.0, 114.44093161117216, 0.0, 0.0, 0.0, 0.0, -2338.4842084031357, 0.0]
['beep', 0.0, 112.85395775484535, 0.0, 0.0, 0.0, 0.0, -2342.1051910048955, 0.0]
['beep', 0.0, 110.86465249832303, 0.0, 0.0, 0.0, 0.0, -2343.89333056132, 0.0]
['beep', 0.0, 110.66348679822526, 0.0, 0.0, 0.0, 0.0, -2340.339403192926, 0.0]
['beep', 0.0, 110.52937633149342, 0.0, 0.0, 0.0, 0.0, -2338.752429336599, 0.0]
['beep', 0.0, 110.66348679822526, 0.0, 0.0, 0.0, 0.0, -2340.8087898264876, 0.0]
['beep', 0.0, 110.73054203159118, 0.0, 0.0, 0.0, 0.0, -2343.8262753279537, 0.0]
['beep', 0.0, 109.8141205089236, 0.0, 0.0, 0.0, 0.0, -2343.960385794686, 0.0]
['beep', 0.0, 110.14939667575321, 0.0, 0.0, 0.0, 0.0, -2340.6523276153002, 0.0]
['beep', 0.0, 111.0658181984208, 0.0, 0.0, 0.0, 0.0, -2338.305394447493, 0.0]
['beep', 0.0, 111.19992866515264, 0.0, 0.0, 0.0, 0.0, -2340.428810170747, 0.0]
['beep', 0.0, 110.26115539802974, 0.0, 0.0, 0.0, 0.0, -2343.334536949937, 0.0]
['beep', 0.0, 109.61295480882583, 0.0, 0.0, 0.0, 0.0, -2343.8486270724093, 0.0]
['beep', 0.0, 111.28933564297387, 0.0, 0.0, 0.0, 0.0, -2341.725211349155, 0.0]
['beep', 0.0, 114.01624846652133, 0.0, 0.0, 0.0, 0.0, -2339.668850859267, 0.0]
['beep', 0.0, 113.83743451087886, 0.0, 0.0, 0.0, 0.0, -2340.2499962151046, 0.0]
['beep', 0.0, 113.88213799978948, 0.0, 0.0, 0.0, 0.0, -2343.2227782276605, 0.0]
['beep', 0.0, 113.97154497761072, 0.0, 0.0, 0.0, 0.0, -2342.5075224050906, 0.0]
['beep', 0.0, 113.56921357741518, 0.0, 0.0, 0.0, 0.0, -2338.6853741032332, 0.0]
['beep', 0.0, 114.86561475582299, 0.0, 0.0, 0.0, 0.0, -2336.0255165130516, 0.0]
['beep', 0.0, 115.8714432563118, 0.0, 0.0, 0.0, 0.0, -2335.466722901669, 0.0]
['beep', 0.0, 114.39622812226155, 0.0, 0.0, 0.0, 0.0, -2338.2383392141273, 0.0]
['beep', 0.0, 115.37970487829506, 0.0, 0.0, 0.0, 0.0, -2338.1265804918507, 0.0]
['beep', 0.0, 114.75385603354646, 0.0, 0.0, 0.0, 0.0, -2335.3326124349373, 0.0]
['beep', 0.0, 113.23393741058558, 0.0, 0.0, 0.0, 0.0, -2332.762161822577, 0.0]
['beep', 0.0, 114.30682114444032, 0.0, 0.0, 0.0, 0.0, -2333.790342067521, 0.0]
['beep', 0.0, 113.2786408994962, 0.0, 0.0, 0.0, 0.0, -2336.9419380357194, 0.0]
['beep', 0.0, 110.30585888694036, 0.0, 0.0, 0.0, 0.0, -2337.2995659470043, 0.0]
['beep', 0.0, 111.15522517624203, 0.0, 0.0, 0.0, 0.0, -2335.6678886017667, 0.0]
['beep', 0.0, 114.53033858899339, 0.0, 0.0, 0.0, 0.0, -2334.215025212172, 0.0]
['beep', 0.0, 113.74802753305764, 0.0, 0.0, 0.0, 0.0, -2336.5843101244345, 0.0]
['beep', 0.0, 112.85395775484535, 0.0, 0.0, 0.0, 0.0, -2339.6241473703562, 0.0]
['beep', 0.0, 112.54103333247106, 0.0, 0.0, 0.0, 0.0, -2339.9370717927304, 0.0]
['beep', 0.0, 114.41857986671685, 0.0, 0.0, 0.0, 0.0, -2337.120751991362, 0.0]
['beep', 0.0, 115.5361670894822, 0.0, 0.0, 0.0, 0.0, -2335.444371157214, 0.0]
['beep', 0.0, 115.31264964492914, 0.0, 0.0, 0.0, 0.0, -2336.6737171022555, 0.0]
['beep', 0.0, 114.28446939998501, 0.0, 0.0, 0.0, 0.0, -2339.422981670258, 0.0]
['beep', 0.0, 114.2174141666191, 0.0, 0.0, 0.0, 0.0, -2339.1994642257055, 0.0]
['beep', 0.0, 113.94919323315541, 0.0, 0.0, 0.0, 0.0, -2335.846702557409, 0.0]
['beep', 0.0, 113.56921357741518, 0.0, 0.0, 0.0, 0.0, -2334.1256182343504, 0.0]
['beep', 0.0, 114.97737347809954, 0.0, 0.0, 0.0, 0.0, -2334.9302810347417, 0.0]
['beep', 0.0, 114.35152463335093, 0.0, 0.0, 0.0, 0.0, -2337.456028158191, 0.0]
['beep', 0.0, 111.78107402099062, 0.0, 0.0, 0.0, 0.0, -2337.411324669281, 0.0]
['beep', 0.0, 112.3622193768286, 0.0, 0.0, 0.0, 0.0, -2334.885577545831, 0.0]
['beep', 0.0, 113.14453043276436, 0.0, 0.0, 0.0, 0.0, -2333.276251945049, 0.0]
['beep', 0.0, 111.11052168733141, 0.0, 0.0, 0.0, 0.0, -2334.4161909122695, 0.0]
['beep', 0.0, 108.49536758606048, 0.0, 0.0, 0.0, 0.0, -2336.9642897801746, 0.0]
['beep', 0.0, 106.48371058508285, 0.0, 0.0, 0.0, 0.0, -2338.528911892046, 0.0]
['beep', 0.0, 106.12608267379794, 0.0, 0.0, 0.0, 0.0, -2336.3607926798813, 0.0]
['beep', 0.0, 107.08720768537614, 0.0, 0.0, 0.0, 0.0, -2332.8739205448533, 0.0]
['beep', 0.0, 105.96962046261078, 0.0, 0.0, 0.0, 0.0, -2334.46089440118, 0.0]
['beep', 0.0, 105.56728906241526, 0.0, 0.0, 0.0, 0.0, -2337.411324669281, 0.0]
['beep', 0.0, 105.41082685122811, 0.0, 0.0, 0.0, 0.0, -2338.5959671254122, 0.0]
['beep', 0.0, 106.46135884062754, 0.0, 0.0, 0.0, 0.0, -2336.114923490873, 0.0]
['beep', 0.0, 108.36125711932864, 0.0, 0.0, 0.0, 0.0, -2333.7679903230655, 0.0]
['beep', 0.0, 108.94240247516662, 0.0, 0.0, 0.0, 0.0, -2335.2879089460266, 0.0]
['beep', 0.0, 111.0434664539655, 0.0, 0.0, 0.0, 0.0, -2338.2159874696717, 0.0]
['beep', 0.0, 111.22228040960795, 0.0, 0.0, 0.0, 0.0, -2337.076048502451, 0.0]
['beep', 0.0, 111.57990832089286, 0.0, 0.0, 0.0, 0.0, -2333.9691560231636, 0.0]
['beep', 0.0, 114.68680080018054, 0.0, 0.0, 0.0, 0.0, -2330.7058013326887, 0.0]
['beep', 0.0, 115.06678045592076, 0.0, 0.0, 0.0, 0.0, -2331.3763536663478, 0.0]
['beep', 0.0, 113.74802753305764, 0.0, 0.0, 0.0, 0.0, -2334.9973362681076, 0.0]
['beep', 0.0, 112.74219903256882, 0.0, 0.0, 0.0, 0.0, -2335.757295579588, 0.0]
['beep', 0.0, 112.74219903256882, 0.0, 0.0, 0.0, 0.0, -2334.304432189993, 0.0]
['beep', 0.0, 114.19506242216379, 0.0, 0.0, 0.0, 0.0, -2332.7398100781215, 0.0]
['beep', 0.0, 113.83743451087886, 0.0, 0.0, 0.0, 0.0, -2334.6173566123675, 0.0]
['beep', 0.0, 111.7140187876247, 0.0, 0.0, 0.0, 0.0, -2337.1878072247277, 0.0]
['beep', 0.0, 111.26698389851856, 0.0, 0.0, 0.0, 0.0, -2337.1654554802726, 0.0]
['beep', 0.0, 110.17174842020852, 0.0, 0.0, 0.0, 0.0, -2336.7407723356214, 0.0]
['beep', 0.0, 111.4010943652504, 0.0, 0.0, 0.0, 0.0, -2334.885577545831, 0.0]
['beep', 0.0, 110.57407982040404, 0.0, 0.0, 0.0, 0.0, -2336.27138570206, 0.0]
['beep', 0.0, 108.04833269695435, 0.0, 0.0, 0.0, 0.0, -2340.764086337577, 0.0]
['beep', 0.0, 106.52841407399346, 0.0, 0.0, 0.0, 0.0, -2341.8816735603423, 0.0]
['beep', 0.0, 107.15426291874206, 0.0, 0.0, 0.0, 0.0, -2337.5454351360127, 0.0]
['beep', 0.0, 108.69653328615824, 0.0, 0.0, 0.0, 0.0, -2335.2208537126608, 0.0]
['beep', 0.0, 109.41178910872807, 0.0, 0.0, 0.0, 0.0, -2336.494903146613, 0.0]
['beep', 0.0, 108.94240247516662, 0.0, 0.0, 0.0, 0.0, -2338.528911892046, 0.0]
['beep', 0.0, 109.45649259763869, 0.0, 0.0, 0.0, 0.0, -2339.4900369036245, 0.0]
['beep', 0.0, 110.37291412030628, 0.0, 0.0, 0.0, 0.0, -2336.763124080077, 0.0]
['beep', 0.0, 112.60808856583698, 0.0, 0.0, 0.0, 0.0, -2334.6844118457334, 0.0]
['beep', 0.0, 113.6362688107811, 0.0, 0.0, 0.0, 0.0, -2334.2820804455378, 0.0]
['beep', 0.0, 112.6974955436582, 0.0, 0.0, 0.0, 0.0, -2336.9642897801746, 0.0]
['beep', 0.0, 111.46814959861632, 0.0, 0.0, 0.0, 0.0, -2337.9030630472976, 0.0]
['beep', 0.0, 112.60808856583698, 0.0, 0.0, 0.0, 0.0, -2334.662060101278, 0.0]
['beep', 0.0, 114.64209731126992, 0.0, 0.0, 0.0, 0.0, -2335.0196880125627, 0.0]
['beep', 0.0, 114.28446939998501, 0.0, 0.0, 0.0, 0.0, -2338.4842084031357, 0.0]
['beep', 0.0, 113.90448974424478, 0.0, 0.0, 0.0, 0.0, -2340.4511619152026, 0.0]
['beep', 0.0, 111.93753623217776, 0.0, 0.0, 0.0, 0.0, -2341.3899351823256, 0.0]
['beep', 0.0, 110.95405947614425, 0.0, 0.0, 0.0, 0.0, -2339.020650270063, 0.0]
['beep', 0.0, 111.55755657643755, 0.0, 0.0, 0.0, 0.0, -2337.858359558387, 0.0]
['beep', 0.0, 111.11052168733141, 0.0, 0.0, 0.0, 0.0, -2338.528911892046, 0.0]
['beep', 0.0, 109.32238213090685, 0.0, 0.0, 0.0, 0.0, -2342.2169497271716, 0.0]
['beep', 0.0, 107.69070478566942, 0.0, 0.0, 0.0, 0.0, -2343.043964272018, 0.0]
['beep', 0.0, 107.53424257448228, 0.0, 0.0, 0.0, 0.0, -2338.7077258476884, 0.0]
['beep', 0.0, 109.05416119744316, 0.0, 0.0, 0.0, 0.0, -2336.427847913247, 0.0]
['beep', 0.0, 108.74123677506886, 0.0, 0.0, 0.0, 0.0, -2337.411324669281, 0.0]
['beep', 0.0, 108.42831235269456, 0.0, 0.0, 0.0, 0.0, -2338.1265804918507, 0.0]
['beep', 0.0, 107.82481525240127, 0.0, 0.0, 0.0, 0.0, -2338.5736153809567, 0.0]
['beep', 0.0, 108.2047949081415, 0.0, 0.0, 0.0, 0.0, -2335.3549641793925, 0.0]
['beep', 0.0, 109.41178910872807, 0.0, 0.0, 0.0, 0.0, -2334.46089440118, 0.0]
['beep', 0.0, 110.73054203159118, 0.0, 0.0, 0.0, 0.0, -2336.114923490873, 0.0]
['beep', 0.0, 111.64696355425878, 0.0, 0.0, 0.0, 0.0, -2337.120751991362, 0.0]
['beep', 0.0, 108.80829200843478, 0.0, 0.0, 0.0, 0.0, -2339.3559264368923, 0.0]
['beep', 0.0, 106.46135884062754, 0.0, 0.0, 0.0, 0.0, -2337.567786880468, 0.0]
['beep', 0.0, 109.43414085318338, 0.0, 0.0, 0.0, 0.0, -2337.0089932690853, 0.0]
['beep', 0.0, 107.78011176349065, 0.0, 0.0, 0.0, 0.0, -2339.2218159701606, 0.0]
['beep', 0.0, 106.349600118351, 0.0, 0.0, 0.0, 0.0, -2342.9322055497414, 0.0]
['beep', 0.0, 106.05902744043202, 0.0, 0.0, 0.0, 0.0, -2344.340365450426, 0.0]
['beep', 0.0, 106.50606232953815, 0.0, 0.0, 0.0, 0.0, -2342.8427985719204, 0.0]
['beep', 0.0, 107.80246350794596, 0.0, 0.0, 0.0, 0.0, -2339.735906092633, 0.0]
['beep', 0.0, 108.42831235269456, 0.0, 0.0, 0.0, 0.0, -2340.5405688930236, 0.0]
['beep', 0.0, 107.10955942983145, 0.0, 0.0, 0.0, 0.0, -2342.9098538052863, 0.0]
['beep', 0.0, 104.74027451756889, 0.0, 0.0, 0.0, 0.0, -2344.27331021706, 0.0]
['beep', 0.0, 105.85786174033424, 0.0, 0.0, 0.0, 0.0, -2342.2616532160823, 0.0]
['beep', 0.0, 107.08720768537614, 0.0, 0.0, 0.0, 0.0, -2338.506560147591, 0.0]
['beep', 0.0, 106.64017279627, 0.0, 0.0, 0.0, 0.0, -2338.6406706143225, 0.0]
['beep', 0.0, 103.10859717233149, 0.0, 0.0, 0.0, 0.0, -2341.0993625044066, 0.0]
['beep', 0.0, 103.4662250836164, 0.0, 0.0, 0.0, 0.0, -2341.5463973935125, 0.0]
['beep', 0.0, 104.00266695054377, 0.0, 0.0, 0.0, 0.0, -2338.528911892046, 0.0]
['beep', 0.0, 104.96379196212196, 0.0, 0.0, 0.0, 0.0, -2333.231548456138, 0.0]
['beep', 0.0, 105.85786174033424, 0.0, 0.0, 0.0, 0.0, -2334.4161909122695, 0.0]
['beep', 0.0, 105.83550999587894, 0.0, 0.0, 0.0, 0.0, -2338.6406706143225, 0.0]
['beep', 0.0, 103.510928572527, 0.0, 0.0, 0.0, 0.0, -2339.2218159701606, 0.0]
['beep', 0.0, 103.93561171717784, 0.0, 0.0, 0.0, 0.0, -2336.338440935426, 0.0]
['beep', 0.0, 105.09790242885381, 0.0, 0.0, 0.0, 0.0, -2335.6231851128564, 0.0]
['beep', 0.0, 105.9919722070661, 0.0, 0.0, 0.0, 0.0, -2337.36662118037, 0.0]
['beep', 0.0, 105.96962046261078, 0.0, 0.0, 0.0, 0.0, -2341.0323072710407, 0.0]
['beep', 0.0, 104.56146056192644, 0.0, 0.0, 0.0, 0.0, -2343.1333712498395, 0.0]
['beep', 0.0, 104.29323962846276, 0.0, 0.0, 0.0, 0.0, -2339.9370717927304, 0.0]
['beep', 0.0, 105.29906812895157, 0.0, 0.0, 0.0, 0.0, -2336.3831444243365, 0.0]
['beep', 0.0, 106.39430360726162, 0.0, 0.0, 0.0, 0.0, -2336.98664152463, 0.0]
['beep', 0.0, 104.71792277311359, 0.0, 0.0, 0.0, 0.0, -2339.8700165593646, 0.0]
['beep', 0.0, 104.7626262620242, 0.0, 0.0, 0.0, 0.0, -2341.1664177377725, 0.0]
['beep', 0.0, 105.43317859568342, 0.0, 0.0, 0.0, 0.0, -2338.6853741032332, 0.0]
['beep', 0.0, 105.88021348478955, 0.0, 0.0, 0.0, 0.0, -2335.3549641793925, 0.0]
['beep', 0.0, 105.56728906241526, 0.0, 0.0, 0.0, 0.0, -2335.600833368401, 0.0]
['beep', 0.0, 103.1756524056974, 0.0, 0.0, 0.0, 0.0, -2339.758257837088, 0.0]
['beep', 0.0, 101.99100994956612, 0.0, 0.0, 0.0, 0.0, -2340.339403192926, 0.0]
['beep', 0.0, 102.61685879431472, 0.0, 0.0, 0.0, 0.0, -2337.5454351360127, 0.0]
['beep', 0.0, 103.801501250446, 0.0, 0.0, 0.0, 0.0, -2337.2325107136385, 0.0]
['beep', 0.0, 105.18730940667504, 0.0, 0.0, 0.0, 0.0, -2338.9088915477864, 0.0]
['beep', 0.0, 103.89090822826722, 0.0, 0.0, 0.0, 0.0, -2340.9429002932193, 0.0]
['beep', 0.0, 102.39334134976166, 0.0, 0.0, 0.0, 0.0, -2342.08283926044, 0.0]
['beep', 0.0, 104.4273500951946, 0.0, 0.0, 0.0, 0.0, -2340.6076241263895, 0.0]
['beep', 0.0, 106.0143239515214, 0.0, 0.0, 0.0, 0.0, -2335.846702557409, 0.0]
['beep', 0.0, 106.23784139607447, 0.0, 0.0, 0.0, 0.0, -2335.6231851128564, 0.0]
['beep', 0.0, 106.19313790716386, 0.0, 0.0, 0.0, 0.0, -2339.758257837088, 0.0]
['beep', 0.0, 105.56728906241526, 0.0, 0.0, 0.0, 0.0, -2339.825313070454, 0.0]
['beep', 0.0, 104.7849780064795, 0.0, 0.0, 0.0, 0.0, -2337.076048502451, 0.0]
['beep', 0.0, 105.92491697370016, 0.0, 0.0, 0.0, 0.0, -2333.879749045342, 0.0]
['beep', 0.0, 105.58964080687056, 0.0, 0.0, 0.0, 0.0, -2333.2539002005938, 0.0]
['beep', 0.0, 104.80732975093481, 0.0, 0.0, 0.0, 0.0, -2334.952632779197, 0.0]
['beep', 0.0, 104.74027451756889, 0.0, 0.0, 0.0, 0.0, -2336.2937374465155, 0.0]
['beep', 0.0, 106.21548965161917, 0.0, 0.0, 0.0, 0.0, -2333.566824622968, 0.0]
['beep', 0.0, 108.49536758606048, 0.0, 0.0, 0.0, 0.0, -2331.219891455161, 0.0]
['beep', 0.0, 109.1659199197197, 0.0, 0.0, 0.0, 0.0, -2331.309298432982, 0.0]
['beep', 0.0, 108.85299549734539, 0.0, 0.0, 0.0, 0.0, -2334.3267839344485, 0.0]
['beep', 0.0, 108.5400710749711, 0.0, 0.0, 0.0, 0.0, -2344.8321038284425, 0.0]
['beep', 0.0, 109.76941702001298, 0.0, 0.0, 0.0, 0.0, -2352.0070137985963, 0.0]
['beep', 0.0, 110.26115539802974, 0.0, 0.0, 0.0, 0.0, -2332.628051355845, 0.0]
['beep', 0.0, 111.66931529871408, 0.0, 0.0, 0.0, 0.0, -2332.4492374002025, 0.0]
['beep', 0.0, 110.93170773168895, 0.0, 0.0, 0.0, 0.0, -2335.533778135035, 0.0]
['beep', 0.0, 108.02598095249904, 0.0, 0.0, 0.0, 0.0, -2355.4938859336244, 0.0]
['beep', 0.0, 108.38360886378395, 0.0, 0.0, 0.0, 0.0, -2364.3228249934705, 0.0]
['beep', 0.0, 109.65765829773645, 0.0, 0.0, 0.0, 0.0, -2332.1363129778283, 0.0]
['beep', 0.0, 108.76358851952416, 0.0, 0.0, 0.0, 0.0, -2331.8680920443644, 0.0]
['beep', 0.0, 107.06485594092084, 0.0, 0.0, 0.0, 0.0, -2333.6115281118787, 0.0]
['beep', 0.0, 105.7013995291471, 0.0, 0.0, 0.0, 0.0, -2359.0254615575627, 0.0]
['beep', 0.0, 104.67321928420297, 0.0, 0.0, 0.0, 0.0, -2369.4860779626465, 0.0]
['beep', 0.0, 106.30489662944039, 0.0, 0.0, 0.0, 0.0, -2332.560996122479, 0.0]
['beep', 0.0, 104.51675707301582, 0.0, 0.0, 0.0, 0.0, -2331.1975397107053, 0.0]
['beep', 0.0, 103.35446636133986, 0.0, 0.0, 0.0, 0.0, -2335.17615022375, 0.0]
['beep', 0.0, 103.04154193896557, 0.0, 0.0, 0.0, 0.0, -2364.792211627032, 0.0]
['beep', 0.0, 101.11929191580916, 0.0, 0.0, 0.0, 0.0, -2374.828144887465, 0.0]
['beep', 0.0, 102.59450704985942, 0.0, 0.0, 0.0, 0.0, -2334.170321723261, 0.0]
['beep', 0.0, 103.77914950599069, 0.0, 0.0, 0.0, 0.0, -2331.9351472777307, 0.0]
['beep', 0.0, 103.801501250446, 0.0, 0.0, 0.0, 0.0, -2335.6231851128564, 0.0]
['beep', 0.0, 108.5400710749711, 0.0, 0.0, 0.0, 0.0, -2369.329615751459, 0.0]
['beep', 0.0, 115.24559441156322, 0.0, 0.0, 0.0, 0.0, -2376.9739123551744, 0.0]
['beep', 0.0, 106.03667569597671, 0.0, 0.0, 0.0, 0.0, -2333.790342067521, 0.0]
['beep', 0.0, 106.19313790716386, 0.0, 0.0, 0.0, 0.0, -2332.2257199556493, 0.0]
['beep', 0.0, 105.18730940667504, 0.0, 0.0, 0.0, 0.0, -2336.696068846711, 0.0]
['beep', 0.0, 120.54295784747099, 0.0, 0.0, 0.0, 0.0, -2372.8388396309424, 0.0]
['beep', 0.0, 134.4904463875826, 0.0, 0.0, 0.0, 0.0, -2381.3548542684143, 0.0]
['beep', 0.0, 104.82968149539012, 0.0, 0.0, 0.0, 0.0, -2335.846702557409, 0.0]
['beep', 0.0, 104.15912916173092, 0.0, 0.0, 0.0, 0.0, -2333.231548456138, 0.0]
['beep', 0.0, 104.58381230638174, 0.0, 0.0, 0.0, 0.0, -2337.076048502451, 0.0]
['beep', 0.0, 128.94721376266645, 0.0, 0.0, 0.0, 0.0, -2374.694034420733, 0.0]
['beep', 0.0, 143.90053080326686, 0.0, 0.0, 0.0, 0.0, -2384.1264705808726, 0.0]
['beep', 0.0, 107.57894606339289, 0.0, 0.0, 0.0, 0.0, -2336.0031647685964, 0.0]
['beep', 0.0, 106.52841407399346, 0.0, 0.0, 0.0, 0.0, -2331.0410774995185, 0.0]
['beep', 0.0, 106.30489662944039, 0.0, 0.0, 0.0, 0.0, -2336.5843101244345, 0.0]
['beep', 0.0, 136.3679929218284, 0.0, 0.0, 0.0, 0.0, -2376.6833396772554, 0.0]
['beep', 0.0, 154.6964233751802, 0.0, 0.0, 0.0, 0.0, -2387.5462874825344, 0.0]
['beep', 0.0, 110.59643156485934, 0.0, 0.0, 0.0, 0.0, -2337.1878072247277, 0.0]
['beep', 0.0, 107.08720768537614, 0.0, 0.0, 0.0, 0.0, -2331.309298432982, 0.0]
['beep', 0.0, 107.19896640765268, 0.0, 0.0, 0.0, 0.0, -2335.2655572015715, 0.0]
['beep', 0.0, 141.35243193536186, 0.0, 0.0, 0.0, 0.0, -2374.336406509448, 0.0]
['beep', 0.0, 156.41750769823884, 0.0, 0.0, 0.0, 0.0, -2382.785365913554, 0.0]
['beep', 0.0, 110.95405947614425, 0.0, 0.0, 0.0, 0.0, -2331.309298432982, 0.0]
['beep', 0.0, 107.48953908557166, 0.0, 0.0, 0.0, 0.0, -2326.1683972082615, 0.0]
['beep', 0.0, 106.75193151854653, 0.0, 0.0, 0.0, 0.0, -2325.2519756855936, 0.0]
['beep', 0.0, 146.4933331600825, 0.0, 0.0, 0.0, 0.0, -2358.1984470127163, 0.0]
['beep', 0.0, 160.7760978670237, 0.0, 0.0, 0.0, 0.0, -2356.27619698956, 0.0]
['beep', 0.0, 109.72471353110237, 0.0, 0.0, 0.0, 0.0, -2289.6903502572004, 0.0]
['beep', 0.0, 106.48371058508285, 0.0, 0.0, 0.0, 0.0, -2265.1928383341838, 0.0]
['beep', 0.0, 107.19896640765268, 0.0, 0.0, 0.0, 0.0, -2248.0043468480526, 0.0]
['beep', 0.0, 147.00742328255456, 0.0, 0.0, 0.0, 0.0, -2261.0801173544073, 0.0]
['beep', 0.0, 163.79358336849015, 0.0, 0.0, 0.0, 0.0, -2236.6943641536673, 0.0]
['beep', 0.0, 106.46135884062754, 0.0, 0.0, 0.0, 0.0, -2158.5526655379135, 0.0]
['beep', 0.0, 97.69947501414717, 0.0, 0.0, 0.0, 0.0, -2124.8015314104, 0.0]
['beep', 0.0, 101.70043727164713, 0.0, 0.0, 0.0, 0.0, -2104.8861271007213, 0.0]
['beep', 0.0, 147.54386514948192, 0.0, 0.0, 0.0, 0.0, -2122.856929642788, 0.0]
['beep', 0.0, 166.20757176966333, 0.0, 0.0, 0.0, 0.0, -2108.0153713244645, 0.0]
['beep', 0.0, 111.95988797663308, 0.0, 0.0, 0.0, 0.0, -2038.836722235289, 0.0]
['beep', 0.0, 105.41082685122811, 0.0, 0.0, 0.0, 0.0, -2018.0719516363088, 0.0]
['beep', 0.0, 105.07555068439851, 0.0, 0.0, 0.0, 0.0, -2015.9485359130547, 0.0]
['beep', 0.0, 149.60022563937017, 0.0, 0.0, 0.0, 0.0, -2056.226379421518, 0.0]
['beep', 0.0, 170.16383053825265, 0.0, 0.0, 0.0, 0.0, -2062.484867869004, 0.0]
['beep', 0.0, 112.60808856583698, 0.0, 0.0, 0.0, 0.0, -2009.7347509544793, 0.0]
['beep', 0.0, 104.69557102865828, 0.0, 0.0, 0.0, 0.0, -2000.5928874722586, 0.0]
['beep', 0.0, 107.37778036329513, 0.0, 0.0, 0.0, 0.0, -2008.907736409633, 0.0]
['beep', 0.0, 154.7187751196355, 0.0, 0.0, 0.0, 0.0, -2060.987300990498, 0.0]
['beep', 0.0, 172.24254277259624, 0.0, 0.0, 0.0, 0.0, -2072.7219668295347, 0.0]
['beep', 0.0, 113.23393741058558, 0.0, 0.0, 0.0, 0.0, -2019.7483324704567, 0.0]
['beep', 0.0, 103.64503903925885, 0.0, 0.0, 0.0, 0.0, -2007.8795561646887, 0.0]
['beep', 0.0, 106.99780070755492, 0.0, 0.0, 0.0, 0.0, -2018.2507655919512, 0.0]
['beep', 0.0, 155.63519664230307, 0.0, 0.0, 0.0, 0.0, -2070.106812728264, 0.0]
['beep', 0.0, 172.62252242833645, 0.0, 0.0, 0.0, 0.0, -2087.340007703305, 0.0]
['beep', 0.0, 113.56921357741518, 0.0, 0.0, 0.0, 0.0, -2041.161303658641, 0.0]
['beep', 0.0, 104.82968149539012, 0.0, 0.0, 0.0, 0.0, -2028.8231407193114, 0.0]
['beep', 0.0, 108.27185014150741, 0.0, 0.0, 0.0, 0.0, -2045.899873483166, 0.0]
['beep', 0.0, 158.33975772139524, 0.0, 0.0, 0.0, 0.0, -2104.327333489339, 0.0]
['beep', 0.0, 180.669150432247, 0.0, 0.0, 0.0, 0.0, -2121.6946389311124, 0.0]
['beep', 0.0, 119.89475725826708, 0.0, 0.0, 0.0, 0.0, -2076.7899843204004, 0.0]
['beep', 0.0, 105.23201289558565, 0.0, 0.0, 0.0, 0.0, -2069.6374260947023, 0.0]
['beep', 0.0, 108.76358851952416, 0.0, 0.0, 0.0, 0.0, -2087.965856548054, 0.0]
['beep', 0.0, 162.49718219008236, 0.0, 0.0, 0.0, 0.0, -2145.052211886908, 0.0]
['beep', 0.0, 178.4339759867163, 0.0, 0.0, 0.0, 0.0, -2164.632340029757, 0.0]
['beep', 0.0, 116.4749403566051, 0.0, 0.0, 0.0, 0.0, -2122.454598242593, 0.0]
['beep', 0.0, 100.78401574897954, 0.0, 0.0, 0.0, 0.0, -2113.2680312714615, 0.0]
['beep', 0.0, 105.79080650696832, 0.0, 0.0, 0.0, 0.0, -2133.4516565146037, 0.0]
['beep', 0.0, 159.61380715534773, 0.0, 0.0, 0.0, 0.0, -2192.3932066432485, 0.0]
['beep', 0.0, 179.4845079761157, 0.0, 0.0, 0.0, 0.0, -2212.018038275008, 0.0]
['beep', 0.0, 117.4360653681833, 0.0, 0.0, 0.0, 0.0, -2168.834467987355, 0.0]
['beep', 0.0, 100.38168434878402, 0.0, 0.0, 0.0, 0.0, -2154.216427113584, 0.0]
['beep', 0.0, 104.85203323984543, 0.0, 0.0, 0.0, 0.0, -2172.634264544757, 0.0]
['beep', 0.0, 163.07832754592033, 0.0, 0.0, 0.0, 0.0, -2233.1404367852733, 0.0]
['beep', 0.0, 182.43493824421626, 0.0, 0.0, 0.0, 0.0, -2248.7866579039883, 0.0]
['beep', 0.0, 120.81117878093467, 0.0, 0.0, 0.0, 0.0, -2205.893660294254, 0.0]
['beep', 0.0, 102.68391402768064, 0.0, 0.0, 0.0, 0.0, -2189.219258930595, 0.0]
['beep', 0.0, 110.95405947614425, 0.0, 0.0, 0.0, 0.0, -2208.5535178844357, 0.0]
['beep', 0.0, 169.89560960478897, 0.0, 0.0, 0.0, 0.0, -2266.668053468234, 0.0]
['beep', 0.0, 192.53792673801505, 0.0, 0.0, 0.0, 0.0, -2281.375501319826, 0.0]
['beep', 0.0, 129.32719341840667, 0.0, 0.0, 0.0, 0.0, -2237.9013583542537, 0.0]
['beep', 0.0, 108.80829200843478, 0.0, 0.0, 0.0, 0.0, -2218.6565063782346, 0.0]
['beep', 0.0, 116.4525886121498, 0.0, 0.0, 0.0, 0.0, -2234.3697827303154, 0.0]
['beep', 0.0, 175.17062129624145, 0.0, 0.0, 0.0, 0.0, -2291.6796555137225, 0.0]
['beep', 0.0, 193.52140349404854, 0.0, 0.0, 0.0, 0.0, -2306.2306411541276, 0.0]
['beep', 0.0, 131.94234751967758, 0.0, 0.0, 0.0, 0.0, -2262.667091210734, 0.0]
['beep', 0.0, 109.92587923120013, 0.0, 0.0, 0.0, 0.0, -2240.024774077508, 0.0]
['beep', 0.0, 117.99485897956599, 0.0, 0.0, 0.0, 0.0, -2257.8838178972983, 0.0]
['beep', 0.0, 177.42814748622746, 0.0, 0.0, 0.0, 0.0, -2315.014876725063, 0.0]
['beep', 0.0, 194.571935483448, 0.0, 0.0, 0.0, 0.0, -2327.1965774532055, 0.0]
['beep', 0.0, 135.92095803272224, 0.0, 0.0, 0.0, 0.0, -2282.426033309225, 0.0]
['beep', 0.0, 109.34473387536215, 0.0, 0.0, 0.0, 0.0, -2258.9119981422423, 0.0]
['beep', 0.0, 115.13383568928668, 0.0, 0.0, 0.0, 0.0, -2276.1004896283735, 0.0]
['beep', 0.0, 174.92475210723308, 0.0, 0.0, 0.0, 0.0, -2332.4268856557474, 0.0]
['beep', 0.0, 191.97913312663235, 0.0, 0.0, 0.0, 0.0, -2343.2898334610263, 0.0]
['beep', 0.0, 132.38938240878375, 0.0, 0.0, 0.0, 0.0, -2299.2568968840715, 0.0]
['beep', 0.0, 105.79080650696832, 0.0, 0.0, 0.0, 0.0, -2271.965416904142, 0.0]
['beep', 0.0, 113.79273102196825, 0.0, 0.0, 0.0, 0.0, -2287.566934533946, 0.0]
['beep', 0.0, 173.4718887176381, 0.0, 0.0, 0.0, 0.0, -2342.1498944938057, 0.0]
['beep', 0.0, 189.6098482143698, 0.0, 0.0, 0.0, 0.0, -2353.2140079991827, 0.0]
['beep', 0.0, 131.3388504193843, 0.0, 0.0, 0.0, 0.0, -2308.9799057221303, 0.0]
['beep', 0.0, 103.77914950599069, 0.0, 0.0, 0.0, 0.0, -2279.274437341027, 0.0]
['beep', 0.0, 113.07747519939844, 0.0, 0.0, 0.0, 0.0, -2295.3900450933033, 0.0]
['beep', 0.0, 174.79064164050124, 0.0, 0.0, 0.0, 0.0, -2351.7164411206772, 0.0]
['beep', 0.0, 192.67203720474689, 0.0, 0.0, 0.0, 0.0, -2360.567731924979, 0.0]
['beep', 0.0, 137.08324874439822, 0.0, 0.0, 0.0, 0.0, -2313.8972895022976, 0.0]
['beep', 0.0, 108.27185014150741, 0.0, 0.0, 0.0, 0.0, -2283.476565298625, 0.0]
['beep', 0.0, 118.3748386353062, 0.0, 0.0, 0.0, 0.0, -2300.687408529211, 0.0]
['beep', 0.0, 181.25029578808497, 0.0, 0.0, 0.0, 0.0, -2354.666871388778, 0.0]
['beep', 0.0, 197.76823494055688, 0.0, 0.0, 0.0, 0.0, -2365.9097988497974, 0.0]
['beep', 0.0, 141.4641906576384, 0.0, 0.0, 0.0, 0.0, -2324.134388462828, 0.0]
['beep', 0.0, 110.37291412030628, 0.0, 0.0, 0.0, 0.0, -2290.5844200354127, 0.0]
['beep', 0.0, 120.23003342509669, 0.0, 0.0, 0.0, 0.0, -2306.8117865099653, 0.0]
['beep', 0.0, 180.55739170997046, 0.0, 0.0, 0.0, 0.0, -2361.8417813589313, 0.0]
['beep', 0.0, 197.5000140070932, 0.0, 0.0, 0.0, 0.0, -2371.341272752437, 0.0]
['beep', 0.0, 143.6993651031691, 0.0, 0.0, 0.0, 0.0, -2329.1411792208173, 0.0]
['beep', 0.0, 107.9365739746778, 0.0, 0.0, 0.0, 0.0, -2294.6077340373677, 0.0]
['beep', 0.0, 120.05121946945424, 0.0, 0.0, 0.0, 0.0, -2312.0644464569627, 0.0]
['beep', 0.0, 181.87614463283356, 0.0, 0.0, 0.0, 0.0, -2366.982682583652, 0.0]
['beep', 0.0, 199.15404309678593, 0.0, 0.0, 0.0, 0.0, -2377.912685622297, 0.0]
['beep', 0.0, 145.82278082642327, 0.0, 0.0, 0.0, 0.0, -2336.472551402158, 0.0]
['beep', 0.0, 111.19992866515264, 0.0, 0.0, 0.0, 0.0, -2300.5085945735686, 0.0]
['beep', 0.0, 122.24169042607433, 0.0, 0.0, 0.0, 0.0, -2317.6523825707895, 0.0]
['beep', 0.0, 185.65358944578045, 0.0, 0.0, 0.0, 0.0, -2371.989473341641, 0.0]
['beep', 0.0, 200.83042393093396, 0.0, 0.0, 0.0, 0.0, -2382.9641798691964, 0.0]
['beep', 0.0, 146.11335350434226, 0.0, 0.0, 0.0, 0.0, -2338.752429336599, 0.0]
['beep', 0.0, 108.94240247516662, 0.0, 0.0, 0.0, 0.0, -2302.922582974742, 0.0]
['beep', 0.0, 120.9005857587559, 0.0, 0.0, 0.0, 0.0, -2323.083856473429, 0.0]
['beep', 0.0, 180.6467986877917, 0.0, 0.0, 0.0, 0.0, -2380.103156578917, 0.0]
['beep', 0.0, 196.09185410640887, 0.0, 0.0, 0.0, 0.0, -2389.9379241392526, 0.0]
['beep', 0.0, 145.42044942622775, 0.0, 0.0, 0.0, 0.0, -2344.854455572898, 0.0]
['beep', 0.0, 107.9589257191331, 0.0, 0.0, 0.0, 0.0, -2306.0741789429403, 0.0]
['beep', 0.0, 119.20185318015257, 0.0, 0.0, 0.0, 0.0, -2325.050809985496, 0.0]
['beep', 0.0, 182.34553126639503, 0.0, 0.0, 0.0, 0.0, -2382.5171449800905, 0.0]
['beep', 0.0, 198.12586285184182, 0.0, 0.0, 0.0, 0.0, -2394.341217796948, 0.0]
['beep', 0.0, 149.22024598362995, 0.0, 0.0, 0.0, 0.0, -2348.922473063764, 0.0]
['beep', 0.0, 109.30003038645154, 0.0, 0.0, 0.0, 0.0, -2309.404588866781, 0.0]
['beep', 0.0, 121.63819332578103, 0.0, 0.0, 0.0, 0.0, -2329.4764553876466, 0.0]
['beep', 0.0, 184.75951966756818, 0.0, 0.0, 0.0, 0.0, -2386.2275345596713, 0.0]
['beep', 0.0, 199.33285705242838, 0.0, 0.0, 0.0, 0.0, -2398.588049243456, 0.0]
['beep', 0.0, 151.45542042916065, 0.0, 0.0, 0.0, 0.0, -2352.5881591544344, 0.0]
['beep', 0.0, 109.36708561981746, 0.0, 0.0, 0.0, 0.0, -2309.8739755003426, 0.0]
['beep', 0.0, 122.55461484844862, 0.0, 0.0, 0.0, 0.0, -2328.627089098345, 0.0]
['beep', 0.0, 187.0617493464648, 0.0, 0.0, 0.0, 0.0, -2387.9933223716407, 0.0]
['beep', 0.0, 201.5903832424144, 0.0, 0.0, 0.0, 0.0, -2400.0632643775066, 0.0]
['beep', 0.0, 152.90828381875562, 0.0, 0.0, 0.0, 0.0, -2351.470571931669, 0.0]
['beep', 0.0, 111.0658181984208, 0.0, 0.0, 0.0, 0.0, -2309.9633824781636, 0.0]
['beep', 0.0, 123.29222241547376, 0.0, 0.0, 0.0, 0.0, -2332.2927751890156, 0.0]
['beep', 0.0, 185.38536851231677, 0.0, 0.0, 0.0, 0.0, -2389.535592739057, 0.0]
['beep', 0.0, 200.9198309087552, 0.0, 0.0, 0.0, 0.0, -2402.6113632454117, 0.0]
['beep', 0.0, 155.41167919775, 0.0, 0.0, 0.0, 0.0, -2355.8738655893644, 0.0]
['beep', 0.0, 110.95405947614425, 0.0, 0.0, 0.0, 0.0, -2312.98086797963, 0.0]
['beep', 0.0, 125.12506546080894, 0.0, 0.0, 0.0, 0.0, -2333.857397300887, 0.0]
['beep', 0.0, 187.93346738022177, 0.0, 0.0, 0.0, 0.0, -2391.726063695677, 0.0]
['beep', 0.0, 201.18805184221887, 0.0, 0.0, 0.0, 0.0, -2405.3159243245036, 0.0]
['beep', 0.0, 156.6633768872472, 0.0, 0.0, 0.0, 0.0, -2360.567731924979, 0.0]
['beep', 0.0, 110.08234144238729, 0.0, 0.0, 0.0, 0.0, -2315.931298247731, 0.0]
['beep', 0.0, 124.58862359388156, 0.0, 0.0, 0.0, 0.0, -2337.2548624580936, 0.0]
['beep', 0.0, 187.41937725774972, 0.0, 0.0, 0.0, 0.0, -2395.078825363973, 0.0]
['beep', 0.0, 200.5845547419256, 0.0, 0.0, 0.0, 0.0, -2407.886374936864, 0.0]
['beep', 0.0, 155.88106583131145, 0.0, 0.0, 0.0, 0.0, -2363.6075691709007, 0.0]
['beep', 0.0, 111.19992866515264, 0.0, 0.0, 0.0, 0.0, -2317.3618098928705, 0.0]
['beep', 0.0, 126.91320501723351, 0.0, 0.0, 0.0, 0.0, -2337.143103735817, 0.0]
['beep', 0.0, 188.73813018061284, 0.0, 0.0, 0.0, 0.0, -2394.2294590746715, 0.0]
['beep', 0.0, 201.70214196469092, 0.0, 0.0, 0.0, 0.0, -2405.919421424797, 0.0]
['beep', 0.0, 158.96560656614383, 0.0, 0.0, 0.0, 0.0, -2362.557037181501, 0.0]
['beep', 0.0, 111.22228040960795, 0.0, 0.0, 0.0, 0.0, -2315.931298247731, 0.0]
['beep', 0.0, 126.80144629495696, 0.0, 0.0, 0.0, 0.0, -2337.0313450135404, 0.0]
['beep', 0.0, 189.9674761256547, 0.0, 0.0, 0.0, 0.0, -2392.463671262702, 0.0]
['beep', 0.0, 201.90330766478868, 0.0, 0.0, 0.0, 0.0, -2405.3159243245036, 0.0]
['beep', 0.0, 162.18425776770803, 0.0, 0.0, 0.0, 0.0, -2365.172191282772, 0.0]
['beep', 0.0, 111.82577750990123, 0.0, 0.0, 0.0, 0.0, -2317.250051170594, 0.0]
['beep', 0.0, 124.81214103843463, 0.0, 0.0, 0.0, 0.0, -2337.2772142025487, 0.0]
['beep', 0.0, 188.604019713881, 0.0, 0.0, 0.0, 0.0, -2391.1002148509283, 0.0]
['beep', 0.0, 202.8420809319116, 0.0, 0.0, 0.0, 0.0, -2405.76295921361, 0.0]
['beep', 0.0, 162.89951359027788, 0.0, 0.0, 0.0, 0.0, -2369.396670984825, 0.0]
['beep', 0.0, 112.6751437992029, 0.0, 0.0, 0.0, 0.0, -2317.2276994261383, 0.0]
['beep', 0.0, 127.98608875108825, 0.0, 0.0, 0.0, 0.0, -2340.764086337577, 0.0]
['beep', 0.0, 190.34745578139496, 0.0, 0.0, 0.0, 0.0, -2389.3120752945038, 0.0]
['beep', 0.0, 204.56316525497024, 0.0, 0.0, 0.0, 0.0, -2407.1264156253833, 0.0]
['beep', 0.0, 165.00057756907674, 0.0, 0.0, 0.0, 0.0, -2374.4481652317245, 0.0]
['beep', 0.0, 112.78690252147943, 0.0, 0.0, 0.0, 0.0, -2321.0274959835406, 0.0]
['beep', 0.0, 128.4331236401944, 0.0, 0.0, 0.0, 0.0, -2342.373411938359, 0.0]
['beep', 0.0, 191.39798777079437, 0.0, 0.0, 0.0, 0.0, -2384.8417264034424, 0.0]
['beep', 0.0, 205.1219588663529, 0.0, 0.0, 0.0, 0.0, -2401.4714242781906, 0.0]
['beep', 0.0, 166.14051653629738, 0.0, 0.0, 0.0, 0.0, -2376.3480635104256, 0.0]
['beep', 0.0, 112.3622193768286, 0.0, 0.0, 0.0, 0.0, -2321.496882617102, 0.0]
['beep', 0.0, 129.23778644058544, 0.0, 0.0, 0.0, 0.0, -2345.4132491842806, 0.0]
['beep', 0.0, 192.98496162712118, 0.0, 0.0, 0.0, 0.0, -2372.503563464113, 0.0]
['beep', 0.0, 206.15013911129705, 0.0, 0.0, 0.0, 0.0, -2373.7776128980654, 0.0]
['beep', 0.0, 166.96753108114376, 0.0, 0.0, 0.0, 0.0, -2376.9292088662637, 0.0]
['beep', 0.0, 115.2008909226526, 0.0, 0.0, 0.0, 0.0, -2322.3462489064036, 0.0]
['beep', 0.0, 132.41173415323905, 0.0, 0.0, 0.0, 0.0, -2345.301490462004, 0.0]
['beep', 0.0, 196.33772329541725, 0.0, 0.0, 0.0, 0.0, -2356.566769667479, 0.0]
['beep', 0.0, 209.5476042685037, 0.0, 0.0, 0.0, 0.0, -2338.6853741032332, 0.0]
['beep', 0.0, 171.77315613903477, 0.0, 0.0, 0.0, 0.0, -2378.8067554005092, 0.0]
['beep', 0.0, 118.3748386353062, 0.0, 0.0, 0.0, 0.0, -2323.463836129169, 0.0]
['beep', 0.0, 136.05506849945408, 0.0, 0.0, 0.0, 0.0, -2346.866112573876, 0.0]
['beep', 0.0, 198.21526982966304, 0.0, 0.0, 0.0, 0.0, -2339.5794438814455, 0.0]
['beep', 0.0, 209.63701124632493, 0.0, 0.0, 0.0, 0.0, -2297.1334811608176, 0.0]
['beep', 0.0, 172.55546719497053, 0.0, 0.0, 0.0, 0.0, -2377.085671077451, 0.0]
['beep', 0.0, 116.29612640096265, 0.0, 0.0, 0.0, 0.0, -2325.5425483635127, 0.0]
['beep', 0.0, 134.08811498738706, 0.0, 0.0, 0.0, 0.0, -2349.481266675147, 0.0]
['beep', 0.0, 197.25414481808482, 0.0, 0.0, 0.0, 0.0, -2319.798150038499, 0.0]
['beep', 0.0, 208.96645891266573, 0.0, 0.0, 0.0, 0.0, -2253.078192839407, 0.0]
['beep', 0.0, 170.2308857716186, 0.0, 0.0, 0.0, 0.0, -2377.3538920109145, 0.0]
['beep', 0.0, 114.30682114444032, 0.0, 0.0, 0.0, 0.0, -2326.056638485985, 0.0]
['beep', 0.0, 133.9093010317446, 0.0, 0.0, 0.0, 0.0, -2349.6153771418785, 0.0]
['beep', 0.0, 197.23179307362952, 0.0, 0.0, 0.0, 0.0, -2296.664094527256, 0.0]
['beep', 0.0, 209.79347345751208, 0.0, 0.0, 0.0, 0.0, -2201.1103869808185, 0.0]
['beep', 0.0, 175.12591780733084, 0.0, 0.0, 0.0, 0.0, -2372.7494326531214, 0.0]
['beep', 0.0, 116.76551303452409, 0.0, 0.0, 0.0, 0.0, -2325.9448797637083, 0.0]
['beep', 0.0, 133.77519056501276, 0.0, 0.0, 0.0, 0.0, -2350.375336453359, 0.0]
['beep', 0.0, 195.5777639839368, 0.0, 0.0, 0.0, 0.0, -2271.630140737312, 0.0]
['beep', 0.0, 209.25703159058472, 0.0, 0.0, 0.0, 0.0, -2149.6566712447016, 0.0]
['beep', 0.0, 174.18714454020795, 0.0, 0.0, 0.0, 0.0, -2369.8660576183865, 0.0]
['beep', 0.0, 115.8714432563118, 0.0, 0.0, 0.0, 0.0, -2327.5095018755796, 0.0]
['beep', 0.0, 133.84224579837868, 0.0, 0.0, 0.0, 0.0, -2350.9341300647416, 0.0]
['beep', 0.0, 196.89651690679992, 0.0, 0.0, 0.0, 0.0, -2247.8478846368653, 0.0]
['beep', 0.0, 210.03934264652048, 0.0, 0.0, 0.0, 0.0, -2096.146595018696, 0.0]
['beep', 0.0, 175.46119397416044, 0.0, 0.0, 0.0, 0.0, -2367.3179587504815, 0.0]
['beep', 0.0, 116.51964384551572, 0.0, 0.0, 0.0, 0.0, -2331.1975397107053, 0.0]
['beep', 0.0, 135.85390279935632, 0.0, 0.0, 0.0, 0.0, -2352.99049055463, 0.0]
['beep', 0.0, 198.23762157411835, 0.0, 0.0, 0.0, 0.0, -2220.3328872123825, 0.0]
['beep', 0.0, 208.92175542375512, 0.0, 0.0, 0.0, 0.0, -2037.7861902458897, 0.0]
['beep', 0.0, 177.539906208504, 0.0, 0.0, 0.0, 0.0, -2360.9924150696297, 0.0]
['beep', 0.0, 118.55365259094866, 0.0, 0.0, 0.0, 0.0, -2329.1635309652725, 0.0]
['beep', 0.0, 136.97149002212169, 0.0, 0.0, 0.0, 0.0, -2351.984662054141, 0.0]
['beep', 0.0, 198.12586285184182, 0.0, 0.0, 0.0, 0.0, -2193.7566630550223, 0.0]
['beep', 0.0, 206.50776702258196, 0.0, 0.0, 0.0, 0.0, -1981.0574628183203, 0.0]
['beep', 0.0, 176.33291200791743, 0.0, 0.0, 0.0, 0.0, -2357.7067086346997, 0.0]
['beep', 0.0, 117.81604502392352, 0.0, 0.0, 0.0, 0.0, -2332.4268856557474, 0.0]
['beep', 0.0, 137.48558014459374, 0.0, 0.0, 0.0, 0.0, -2354.443353944225, 0.0]
['beep', 0.0, 197.63412447382504, 0.0, 0.0, 0.0, 0.0, -2167.6498255312235, 0.0]
['beep', 0.0, 207.6253542453473, 0.0, 0.0, 0.0, 0.0, -1923.8146452682788, 0.0]
['beep', 0.0, 180.44563298769393, 0.0, 0.0, 0.0, 0.0, -2352.342289965426, 0.0]
['beep', 0.0, 118.55365259094866, 0.0, 0.0, 0.0, 0.0, -2332.762161822577, 0.0]
['beep', 0.0, 139.81016156794567, 0.0, 0.0, 0.0, 0.0, -2354.018670799574, 0.0]
['beep', 0.0, 198.1035111073865, 0.0, 0.0, 0.0, 0.0, -2138.190226339129, 0.0]
['beep', 0.0, 206.9771536561434, 0.0, 0.0, 0.0, 0.0, -1864.783688161813, 0.0]
['beep', 0.0, 183.68663593371343, 0.0, 0.0, 0.0, 0.0, -2345.569711395468, 0.0]
['beep', 0.0, 120.5653095919263, 0.0, 0.0, 0.0, 0.0, -2333.0974379894064, 0.0]
['beep', 0.0, 138.73727783409095, 0.0, 0.0, 0.0, 0.0, -2353.795153355021, 0.0]
['beep', 0.0, 195.80128142848986, 0.0, 0.0, 0.0, 0.0, -2112.865699871266, 0.0]
['beep', 0.0, 203.08795012091997, 0.0, 0.0, 0.0, 0.0, -1804.8586612771346, 0.0]
['beep', 0.0, 180.24446728759617, 0.0, 0.0, 0.0, 0.0, -2339.110057247884, 0.0]
['beep', 0.0, 117.48076885709392, 0.0, 0.0, 0.0, 0.0, -2335.6231851128564, 0.0]
['beep', 0.0, 140.2348447125965, 0.0, 0.0, 0.0, 0.0, -2355.5162376780795, 0.0]
['beep', 0.0, 196.38242678432786, 0.0, 0.0, 0.0, 0.0, -2085.12718500223, 0.0]
['beep', 0.0, 203.04324663200936, 0.0, 0.0, 0.0, 0.0, -1746.788829182247, 0.0]
['beep', 0.0, 183.41841500024975, 0.0, 0.0, 0.0, 0.0, -2331.3540019218926, 0.0]
['beep', 0.0, 121.10175145885367, 0.0, 0.0, 0.0, 0.0, -2336.4501996577023, 0.0]
['beep', 0.0, 140.68187960170266, 0.0, 0.0, 0.0, 0.0, -2355.9632725671854, 0.0]
['beep', 0.0, 195.75657793957924, 0.0, 0.0, 0.0, 0.0, -2059.221513178529, 0.0]
['beep', 0.0, 201.2551070755848, 0.0, 0.0, 0.0, 0.0, -1686.372063919552, 0.0]
['beep', 0.0, 184.08896733390895, 0.0, 0.0, 0.0, 0.0, -2323.5532431069905, 0.0]
['beep', 0.0, 121.68289681469165, 0.0, 0.0, 0.0, 0.0, -2338.2606909585825, 0.0]
['beep', 0.0, 142.44766741367192, 0.0, 0.0, 0.0, 0.0, -2356.4550109452025, 0.0]
['beep', 0.0, 196.40477852878317, 0.0, 0.0, 0.0, 0.0, -2030.834797720289, 0.0]
['beep', 0.0, 201.76919719805684, 0.0, 0.0, 0.0, 0.0, -1628.726914969315, 0.0]
['beep', 0.0, 186.57001096844806, 0.0, 0.0, 0.0, 0.0, -2315.7524842920884, 0.0]
['beep', 0.0, 120.94528924766652, 0.0, 0.0, 0.0, 0.0, -2338.2159874696717, 0.0]
['beep', 0.0, 140.59247262388143, 0.0, 0.0, 0.0, 0.0, -2357.527894679057, 0.0]
['beep', 0.0, 192.24735406009606, 0.0, 0.0, 0.0, 0.0, -2005.77849218589, 0.0]
['beep', 0.0, 199.13169135233062, 0.0, 0.0, 0.0, 0.0, -1568.734832851271, 0.0]
['beep', 0.0, 188.84988890288938, 0.0, 0.0, 0.0, 0.0, -2305.180109164728, 0.0]
['beep', 0.0, 125.03565848298771, 0.0, 0.0, 0.0, 0.0, -2339.3559264368923, 0.0]
['beep', 0.0, 145.77807733751266, 0.0, 0.0, 0.0, 0.0, -2354.242188244127, 0.0]
['beep', 0.0, 189.49808949209327, 0.0, 0.0, 0.0, 0.0, -1979.1128610507085, 0.0]
['beep', 0.0, 195.3095430504731, 0.0, 0.0, 0.0, 0.0, -1510.3967798229194, 0.0]
['beep', 0.0, 183.97720861163242, 0.0, 0.0, 0.0, 0.0, -2295.5912107934014, 0.0]
['beep', 0.0, 113.41275136622804, 0.0, 0.0, 0.0, 0.0, -2340.3170514484705, 0.0]
['beep', 0.0, 130.46713238562734, 0.0, 0.0, 0.0, 0.0, -2356.924397578764, 0.0]
['beep', 0.0, 174.120089306842, 0.0, 0.0, 0.0, 0.0, -1953.520113649382, 0.0]
['beep', 0.0, 184.4689469896492, 0.0, 0.0, 0.0, 0.0, -1450.3599942159647, 0.0]
['beep', 0.0, 184.4912987341045, 0.0, 0.0, 0.0, 0.0, -2284.4823937991137, 0.0]
['beep', 0.0, 115.8714432563118, 0.0, 0.0, 0.0, 0.0, -2341.144065993317, 0.0]
['beep', 0.0, 136.12212373282, 0.0, 0.0, 0.0, 0.0, -2356.410307456292, 0.0]
['beep', 0.0, 172.68957766170237, 0.0, 0.0, 0.0, 0.0, -1928.4414563705275, 0.0]
['beep', 0.0, 169.44857471568284, 0.0, 0.0, 0.0, 0.0, -1393.1842318992892, 0.0]
['beep', 0.0, 185.4300720012274, 0.0, 0.0, 0.0, 0.0, -2274.0441291384855, 0.0]
['beep', 0.0, 116.89962350125593, 0.0, 0.0, 0.0, 0.0, -2344.206254983694, 0.0]
['beep', 0.0, 138.08907724488702, 0.0, 0.0, 0.0, 0.0, -2357.013804556585, 0.0]
['beep', 0.0, 166.98988282559907, 0.0, 0.0, 0.0, 0.0, -1903.2733921138517, 0.0]
['beep', 0.0, 139.34077493438423, 0.0, 0.0, 0.0, 0.0, -1337.126056805379, 0.0]
['beep', 0.0, 180.53503996551515, 0.0, 0.0, 0.0, 0.0, -2263.9411406446866, 0.0]
['beep', 0.0, 119.26890841351849, 0.0, 0.0, 0.0, 0.0, -2346.866112573876, 0.0]
['beep', 0.0, 136.85973129984515, 0.0, 0.0, 0.0, 0.0, -2359.1595720242944, 0.0]
['beep', 0.0, 161.35724322286168, 0.0, 0.0, 0.0, 0.0, -1878.909990657567, 0.0]
['beep', 0.0, 123.091056715376, 0.0, 0.0, 0.0, 0.0, -1281.1125852003795, 0.0]
['beep', 0.0, 179.03747308700957, 0.0, 0.0, 0.0, 0.0, -2250.3289282714045, 0.0]
['beep', 0.0, 120.00651598054363, 0.0, 0.0, 0.0, 0.0, -2346.240263729127, 0.0]
['beep', 0.0, 138.08907724488702, 0.0, 0.0, 0.0, 0.0, -2358.176095268261, 0.0]
['beep', 0.0, 158.8538478438673, 0.0, 0.0, 0.0, 0.0, -1857.1840950470084, 0.0]
['beep', 0.0, 113.09982694385374, 0.0, 0.0, 0.0, 0.0, -1227.7589711855617, 0.0]
['beep', 0.0, 176.9364091082107, 0.0, 0.0, 0.0, 0.0, -2239.5553874439465, 0.0]
['beep', 0.0, 120.72177180311344, 0.0, 0.0, 0.0, 0.0, -2348.8107143414873, 0.0]
['beep', 0.0, 138.75962957854625, 0.0, 0.0, 0.0, 0.0, -2359.4054412133028, 0.0]
['beep', 0.0, 153.75765010805728, 0.0, 0.0, 0.0, 0.0, -1833.8935773245785, 0.0]
['beep', 0.0, 106.41665535171693, 0.0, 0.0, 0.0, 0.0, -1173.9583222816375, 0.0]
['beep', 0.0, 178.00929284206543, 0.0, 0.0, 0.0, 0.0, -2226.390209959771, 0.0]
['beep', 0.0, 121.16880669221959, 0.0, 0.0, 0.0, 0.0, -2349.436563186236, 0.0]
['beep', 0.0, 138.22318771161886, 0.0, 0.0, 0.0, 0.0, -2358.1313917793505, 0.0]
['beep', 0.0, 152.863580329845, 0.0, 0.0, 0.0, 0.0, -1813.8887660370788, 0.0]
['beep', 0.0, 100.80636749343485, 0.0, 0.0, 0.0, 0.0, -1125.6562025137189, 0.0]
['beep', 0.0, 177.45049923068277, 0.0, 0.0, 0.0, 0.0, -2212.666238864212, 0.0]
['beep', 0.0, 122.4652078706274, 0.0, 0.0, 0.0, 0.0, -2351.202350998205, 0.0]
['beep', 0.0, 140.68187960170266, 0.0, 0.0, 0.0, 0.0, -2358.1090400348953, 0.0]
['beep', 0.0, 150.38253669530593, 0.0, 0.0, 0.0, 0.0, -1790.7994140147466, 0.0]
['beep', 0.0, 94.52552730149357, 0.0, 0.0, 0.0, 0.0, -1072.6378646657306, 0.0]
['beep', 0.0, 178.09869981988666, 0.0, 0.0, 0.0, 0.0, -2199.5457648689467, 0.0]
['beep', 0.0, 124.20864393814135, 0.0, 0.0, 0.0, 0.0, -2354.018670799574, 0.0]
['beep', 0.0, 140.2124929681412, 0.0, 0.0, 0.0, 0.0, -2360.545380180524, 0.0]
['beep', 0.0, 147.58856863839253, 0.0, 0.0, 0.0, 0.0, -1769.721718993392, 0.0]
['beep', 0.0, 86.79182371995732, 0.0, 0.0, 0.0, 0.0, -1019.1724919286362, 0.0]
['beep', 0.0, 173.29307476199565, 0.0, 0.0, 0.0, 0.0, -2183.698378050134, 0.0]
['beep', 0.0, 122.17463519270841, 0.0, 0.0, 0.0, 0.0, -2353.795153355021, 0.0]
['beep', 0.0, 139.83251331240098, 0.0, 0.0, 0.0, 0.0, -2359.1372202798393, 0.0]
['beep', 0.0, 144.68284185920263, 0.0, 0.0, 0.0, 0.0, -1746.9899948823447, 0.0]
['beep', 0.0, 82.23206785107469, 0.0, 0.0, 0.0, 0.0, -964.8801046466953, 0.0]
['beep', 0.0, 174.6565311737694, 0.0, 0.0, 0.0, 0.0, -2166.532238308458, 0.0]
['beep', 0.0, 124.0298299824989, 0.0, 0.0, 0.0, 0.0, -2353.9292638217526, 0.0]
['beep', 0.0, 141.37478367981717, 0.0, 0.0, 0.0, 0.0, -2355.5162376780795, 0.0]
['beep', 0.0, 143.18527498069705, 0.0, 0.0, 0.0, 0.0, -1725.0182300827778, 0.0]
['beep', 0.0, 77.89582942674511, 0.0, 0.0, 0.0, 0.0, -912.8899470436511, 0.0]
['beep', 0.0, 175.3494352518839, 0.0, 0.0, 0.0, 0.0, -2149.6566712447016, 0.0]
['beep', 0.0, 126.19794919466368, 0.0, 0.0, 0.0, 0.0, -2356.790287112032, 0.0]
['beep', 0.0, 141.55359763545962, 0.0, 0.0, 0.0, 0.0, -2358.0866882904397, 0.0]
['beep', 0.0, 142.1123912468423, 0.0, 0.0, 0.0, 0.0, -1711.6742386429596, 0.0]
['beep', 0.0, 73.80546019142392, 0.0, 0.0, 0.0, 0.0, -874.2214291359699, 0.0]
['beep', 0.0, 175.0141590850543, 0.0, 0.0, 0.0, 0.0, -2137.452618772104, 0.0]
['beep', 0.0, 127.15907420624188, 0.0, 0.0, 0.0, 0.0, -2359.7630691245877, 0.0]
['beep', 0.0, 140.36895517932837, 0.0, 0.0, 0.0, 0.0, -2358.2878539905378, 0.0]
['beep', 0.0, 138.20083596716356, 0.0, 0.0, 0.0, 0.0, -1695.6480378685044, 0.0]
['beep', 0.0, 69.35746304481782, 0.0, 0.0, 0.0, 0.0, -836.4022775175903, 0.0]
['beep', 0.0, 172.39900498378339, 0.0, 0.0, 0.0, 0.0, -2120.8229208973553, 0.0]
['beep', 0.0, 126.53322536149328, 0.0, 0.0, 0.0, 0.0, -2360.1206970358726, 0.0]
['beep', 0.0, 140.39130692378367, 0.0, 0.0, 0.0, 0.0, -2358.265502246082, 0.0]
['beep', 0.0, 137.46322840013843, 0.0, 0.0, 0.0, 0.0, -1678.1689737044542, 0.0]
['beep', 0.0, 67.30110255492957, 0.0, 0.0, 0.0, 0.0, -804.2381172464035, 0.0]
['beep', 0.0, 174.70123466268, 0.0, 0.0, 0.0, 0.0, -2108.261240513473, 0.0]
['beep', 0.0, 129.84128354087872, 0.0, 0.0, 0.0, 0.0, -2361.081822047451, 0.0]
['beep', 0.0, 142.7382400915909, 0.0, 0.0, 0.0, 0.0, -2358.3549092239036, 0.0]
['beep', 0.0, 135.40686791025018, 0.0, 0.0, 0.0, 0.0, -1666.1660869319544, 0.0]
['beep', 0.0, 66.36232928780667, 0.0, 0.0, 0.0, 0.0, -772.6327505865993, 0.0]
['beep', 0.0, 182.9043248777777, 0.0, 0.0, 0.0, 0.0, -2091.586839149814, 0.0]
['beep', 0.0, 140.7712865795239, 0.0, 0.0, 0.0, 0.0, -2360.8136011139873, 0.0]
['beep', 0.0, 154.85288558636734, 0.0, 0.0, 0.0, 0.0, -2354.3539469664033, 0.0]
['beep', 0.0, 143.6770133587138, 0.0, 0.0, 0.0, 0.0, -1650.5869210466053, 0.0]
['beep', 0.0, 64.46243100910557, 0.0, 0.0, 0.0, 0.0, -744.1789798949933, 0.0]
['beep', 0.0, 180.3562260098727, 0.0, 0.0, 0.0, 0.0, -2076.5217633869365, 0.0]
['beep', 0.0, 138.9384435341887, 0.0, 0.0, 0.0, 0.0, -2363.831086615454, 0.0]
['beep', 0.0, 150.74016460659084, 0.0, 0.0, 0.0, 0.0, -2356.5444179230235, 0.0]
['beep', 0.0, 140.8159900684345, 0.0, 0.0, 0.0, 0.0, -1640.7521534862703, 0.0]
['beep', 0.0, 61.221428063086044, 0.0, 0.0, 0.0, 0.0, -721.6484214840439, 0.0]
['beep', 0.0, 177.98694109761013, 0.0, 0.0, 0.0, 0.0, -2064.965911503543, 0.0]
['beep', 0.0, 138.42435341171665, 0.0, 0.0, 0.0, 0.0, -2364.3451767379256, 0.0]
['beep', 0.0, 150.0025570395657, 0.0, 0.0, 0.0, 0.0, -2356.4997144341132, 0.0]
['beep', 0.0, 137.6420423557809, 0.0, 0.0, 0.0, 0.0, -1631.9902696597899, 0.0]
['beep', 0.0, 58.248646050530205, 0.0, 0.0, 0.0, 0.0, -697.8438136391418, 0.0]
['beep', 0.0, 178.00929284206543, 0.0, 0.0, 0.0, 0.0, -2051.3313473858057, 0.0]
['beep', 0.0, 139.36312667883954, 0.0, 0.0, 0.0, 0.0, -2369.307264007004, 0.0]
['beep', 0.0, 149.6896326171914, 0.0, 0.0, 0.0, 0.0, -2360.7688976250765, 0.0]
['beep', 0.0, 137.82085631142334, 0.0, 0.0, 0.0, 0.0, -1623.2507375777648, 0.0]
['beep', 0.0, 56.88518963875647, 0.0, 0.0, 0.0, 0.0, -675.1567930170052, 0.0]
['beep', 0.0, 179.52921146502632, 0.0, 0.0, 0.0, 0.0, -2035.6627745226353, 0.0]
['beep', 0.0, 143.16292323624174, 0.0, 0.0, 0.0, 0.0, -2367.8991041063196, 0.0]
['beep', 0.0, 156.2610454870517, 0.0, 0.0, 0.0, 0.0, -2357.282025490049, 0.0]
['beep', 0.0, 141.30772844645125, 0.0, 0.0, 0.0, 0.0, -1612.8348246615917, 0.0]
['beep', 0.0, 55.29821578242967, 0.0, 0.0, 0.0, 0.0, -654.2132084623825, 0.0]
['beep', 0.0, 179.23863878710733, 0.0, 0.0, 0.0, 0.0, -2022.3187830828172, 0.0]
['beep', 0.0, 144.0122895255434, 0.0, 0.0, 0.0, 0.0, -2369.888409362842, 0.0]
['beep', 0.0, 155.90341757576675, 0.0, 0.0, 0.0, 0.0, -2357.013804556585, 0.0]
['beep', 0.0, 138.37964992280604, 0.0, 0.0, 0.0, 0.0, -1602.597725701061, 0.0]
['beep', 0.0, 51.923102369678304, 0.0, 0.0, 0.0, 0.0, -634.1189901970614, 0.0]
['beep', 0.0, 177.38344399731685, 0.0, 0.0, 0.0, 0.0, -2008.6842189650797, 0.0]
['beep', 0.0, 144.34756569237302, 0.0, 0.0, 0.0, 0.0, -2373.0847088199507, 0.0]
['beep', 0.0, 153.42237394122768, 0.0, 0.0, 0.0, 0.0, -2360.0536418025067, 0.0]
['beep', 0.0, 136.85973129984515, 0.0, 0.0, 0.0, 0.0, -1595.0651878196227, 0.0]
['beep', 0.0, 50.269073279985584, 0.0, 0.0, 0.0, 0.0, -615.2317661323269, 0.0]
['beep', 0.0, 177.40579574177215, 0.0, 0.0, 0.0, 0.0, -1996.7036839370353, 0.0]
['beep', 0.0, 146.64979537126965, 0.0, 0.0, 0.0, 0.0, -2375.789269899043, 0.0]
['beep', 0.0, 156.1045832758645, 0.0, 0.0, 0.0, 0.0, -2359.539551680035, 0.0]
['beep', 0.0, 137.21735921113006, 0.0, 0.0, 0.0, 0.0, -1587.376187726997, 0.0]
['beep', 0.0, 48.30211976791856, 0.0, 0.0, 0.0, 0.0, -596.5010042787795, 0.0]
['beep', 0.0, 178.34456900889506, 0.0, 0.0, 0.0, 0.0, -1979.068157561798, 0.0]
['beep', 0.0, 147.476809916116, 0.0, 0.0, 0.0, 0.0, -2375.0069588431074, 0.0]
['beep', 0.0, 156.21634199814105, 0.0, 0.0, 0.0, 0.0, -2361.1041737919063, 0.0]
['beep', 0.0, 137.3738214223172, 0.0, 0.0, 0.0, 0.0, -1583.5540394251395, 0.0]
['beep', 0.0, 46.40222148921746, 0.0, 0.0, 0.0, 0.0, -581.3912250269921, 0.0]
['beep', 0.0, 177.49520271959338, 0.0, 0.0, 0.0, 0.0, -1966.908808578111, 0.0]
['beep', 0.0, 149.3543564503618, 0.0, 0.0, 0.0, 0.0, -2377.7115199221994, 0.0]
['beep', 0.0, 156.81983909843436, 0.0, 0.0, 0.0, 0.0, -2361.662967403289, 0.0]
['beep', 0.0, 137.84320805587865, 0.0, 0.0, 0.0, 0.0, -1577.3179027221088, 0.0]
['beep', 0.0, 44.65878542170351, 0.0, 0.0, 0.0, 0.0, -567.1084603200508, 0.0]
['beep', 0.0, 174.03068232902078, 0.0, 0.0, 0.0, 0.0, -1956.2023229840188, 0.0]
['beep', 0.0, 144.9734145371216, 0.0, 0.0, 0.0, 0.0, -2383.1206420803837, 0.0]
['beep', 0.0, 153.62353964132544, 0.0, 0.0, 0.0, 0.0, -2364.6133976713895, 0.0]
['beep', 0.0, 133.95400452065522, 0.0, 0.0, 0.0, 0.0, -1573.339292209064, 0.0]
['beep', 0.0, 42.55772144290465, 0.0, 0.0, 0.0, 0.0, -553.7868206246878, 0.0]
['beep', 0.0, 174.47771721812694, 0.0, 0.0, 0.0, 0.0, -1943.2383111999407, 0.0]
['beep', 0.0, 148.77321109452382, 0.0, 0.0, 0.0, 0.0, -2381.5560199685124, 0.0]
['beep', 0.0, 155.23286524210755, 0.0, 0.0, 0.0, 0.0, -2363.629920915356, 0.0]
['beep', 0.0, 134.62455685431445, 0.0, 0.0, 0.0, 0.0, -1570.6794346188826, 0.0]
['beep', 0.0, 40.97074758657784, 0.0, 0.0, 0.0, 0.0, -540.5769396516013, 0.0]
['beep', 0.0, 172.01902532804314, 0.0, 0.0, 0.0, 0.0, -1929.134360448642, 0.0]
['beep', 0.0, 147.94619654967744, 0.0, 0.0, 0.0, 0.0, -2382.271275791082, 0.0]
['beep', 0.0, 156.52926642051537, 0.0, 0.0, 0.0, 0.0, -2364.0099005710963, 0.0]
['beep', 0.0, 133.9093010317446, 0.0, 0.0, 0.0, 0.0, -1569.2265712292876, 0.0]
['beep', 0.0, 39.696698152625345, 0.0, 0.0, 0.0, 0.0, -529.4681226573138, 0.0]
['beep', 0.0, 171.43787997220517, 0.0, 0.0, 0.0, 0.0, -1916.8185492537677, 0.0]
['beep', 0.0, 148.10265876086459, 0.0, 0.0, 0.0, 0.0, -2383.1876973137496, 0.0]
['beep', 0.0, 156.84219084288966, 0.0, 0.0, 0.0, 0.0, -2363.56286568199, 0.0]
['beep', 0.0, 134.445742898672, 0.0, 0.0, 0.0, 0.0, -1566.052623516634, 0.0]
['beep', 0.0, 38.26618650748569, 0.0, 0.0, 0.0, 0.0, -518.8063405521323, 0.0]
['beep', 0.0, 170.2532375160739, 0.0, 0.0, 0.0, 0.0, -1906.2461741264076, 0.0]
['beep', 0.0, 149.51081866154894, 0.0, 0.0, 0.0, 0.0, -2387.143956082339, 0.0]
['beep', 0.0, 155.702251875669, 0.0, 0.0, 0.0, 0.0, -2367.7426418951322, 0.0]
['beep', 0.0, 133.39521090927255, 0.0, 0.0, 0.0, 0.0, -1564.957388038324, 0.0]
['beep', 0.0, 37.193302773630954, 0.0, 0.0, 0.0, 0.0, -508.1222067024955, 0.0]
['beep', 0.0, 171.41552822774986, 0.0, 0.0, 0.0, 0.0, -1893.8856594426227, 0.0]
['beep', 0.0, 151.6118826403478, 0.0, 0.0, 0.0, 0.0, -2389.3120752945038, 0.0]
['beep', 0.0, 156.19399025368574, 0.0, 0.0, 0.0, 0.0, -2370.5589616965012, 0.0]
['beep', 0.0, 133.30580393145132, 0.0, 0.0, 0.0, 0.0, -1565.7173473498044, 0.0]
['beep', 0.0, 35.673384150670074, 0.0, 0.0, 0.0, 0.0, -498.4662530978028, 0.0]
['beep', 0.0, 168.17452528173033, 0.0, 0.0, 0.0, 0.0, -1881.9274761590334, 0.0]
['beep', 0.0, 149.0861355168981, 0.0, 0.0, 0.0, 0.0, -2392.0166363735957, 0.0]
['beep', 0.0, 154.89758907527795, 0.0, 0.0, 0.0, 0.0, -2371.1624587967945, 0.0]
['beep', 0.0, 134.06576324293175, 0.0, 0.0, 0.0, 0.0, -1562.4539926593295, 0.0]
['beep', 0.0, 34.39933471671757, 0.0, 0.0, 0.0, 0.0, -488.69854077083363, 0.0]
['beep', 0.0, 168.77802238202364, 0.0, 0.0, 0.0, 0.0, -1868.8293539082235, 0.0]
['beep', 0.0, 153.8023535969679, 0.0, 0.0, 0.0, 0.0, -2389.490889250146, 0.0]
['beep', 0.0, 157.78096411001255, 0.0, 0.0, 0.0, 0.0, -2368.99433958463, 0.0]
['beep', 0.0, 134.69161208768037, 0.0, 0.0, 0.0, 0.0, -1561.8057920701258, 0.0]
['beep', 0.0, 33.818189360879586, 0.0, 0.0, 0.0, 0.0, -480.2719331111829, 0.0]
['beep', 0.0, 169.2921125044957, 0.0, 0.0, 0.0, 0.0, -1857.1170398136426, 0.0]
['beep', 0.0, 153.64589138578074, 0.0, 0.0, 0.0, 0.0, -2392.6201334738894, 0.0]
['beep', 0.0, 156.70808037615782, 0.0, 0.0, 0.0, 0.0, -2372.8164878864873, 0.0]
['beep', 0.0, 133.08228648689825, 0.0, 0.0, 0.0, 0.0, -1561.7387368367597, 0.0]
['beep', 0.0, 31.895939337723178, 0.0, 0.0, 0.0, 0.0, -471.44299405133654, 0.0]
['beep', 0.0, 165.33585373590634, 0.0, 0.0, 0.0, 0.0, -1847.4834379534052, 0.0]
['beep', 0.0, 150.9413303066886, 0.0, 0.0, 0.0, 0.0, -2396.1517090978277, 0.0]
['beep', 0.0, 153.5341326635042, 0.0, 0.0, 0.0, 0.0, -2376.9068571218086, 0.0]
['beep', 0.0, 131.22709169710777, 0.0, 0.0, 0.0, 0.0, -1562.0293095146787, 0.0]
['beep', 0.0, 30.867759092779053, 0.0, 0.0, 0.0, 0.0, -464.1339736144512, 0.0]
['beep', 0.0, 163.81593511294545, 0.0, 0.0, 0.0, 0.0, -1837.2463389928746, 0.0]
['beep', 0.0, 150.69546111768022, 0.0, 0.0, 0.0, 0.0, -2400.264430077604, 0.0]
['beep', 0.0, 153.98116755261034, 0.0, 0.0, 0.0, 0.0, -2380.2819705345596, 0.0]
['beep', 0.0, 131.85294054185636, 0.0, 0.0, 0.0, 0.0, -1563.6609868599162, 0.0]
['beep', 0.0, 29.23608174754164, 0.0, 0.0, 0.0, 0.0, -456.0202903771747, 0.0]
['beep', 0.0, 161.02196705603208, 0.0, 0.0, 0.0, 0.0, -1824.0811615086989, 0.0]
['beep', 0.0, 151.45542042916065, 0.0, 0.0, 0.0, 0.0, -2403.23721209016, 0.0]
['beep', 0.0, 152.37184195182826, 0.0, 0.0, 0.0, 0.0, -2386.8086799155094, 0.0]
['beep', 0.0, 130.46713238562734, 0.0, 0.0, 0.0, 0.0, -1566.991396783757, 0.0]
['beep', 0.0, 28.721991625069574, 0.0, 0.0, 0.0, 0.0, -451.7958106751217, 0.0]
['beep', 0.0, 161.4242984562276, 0.0, 0.0, 0.0, 0.0, -1815.2075189599418, 0.0]
['beep', 0.0, 152.03656578499863, 0.0, 0.0, 0.0, 0.0, -2402.6784184787775, 0.0]
['beep', 0.0, 154.07057453043157, 0.0, 0.0, 0.0, 0.0, -2386.5181072375904, 0.0]
['beep', 0.0, 132.76936206452396, 0.0, 0.0, 0.0, 0.0, -1568.7795363401815, 0.0]
['beep', 0.0, 28.76669511398019, 0.0, 0.0, 0.0, 0.0, -445.5373222276357, 0.0]
['beep', 0.0, 162.25131300107398, 0.0, 0.0, 0.0, 0.0, -1803.137576954076, 0.0]
['beep', 0.0, 152.46124892964949, 0.0, 0.0, 0.0, 0.0, -2403.3266190679815, 0.0]
['beep', 0.0, 153.8023535969679, 0.0, 0.0, 0.0, 0.0, -2386.9651421266967, 0.0]
['beep', 0.0, 132.5681963644262, 0.0, 0.0, 0.0, 0.0, -1572.244056730754, 0.0]
['beep', 0.0, 27.15736951319808, 0.0, 0.0, 0.0, 0.0, -440.5305314696469, 0.0]
['beep', 0.0, 158.31740597693994, 0.0, 0.0, 0.0, 0.0, -1792.9675332269114, 0.0]
['beep', 0.0, 151.2319029846076, 0.0, 0.0, 0.0, 0.0, -2402.4549010342243, 0.0]
['beep', 0.0, 151.9695105516327, 0.0, 0.0, 0.0, 0.0, -2386.585162470956, 0.0]
['beep', 0.0, 131.2941469304737, 0.0, 0.0, 0.0, 0.0, -1575.440356187863, 0.0]
['beep', 0.0, 26.442113690628254, 0.0, 0.0, 0.0, 0.0, -436.12723781195143, 0.0]
['beep', 0.0, 157.11041177635335, 0.0, 0.0, 0.0, 0.0, -1782.7751377552913, 0.0]
['beep', 0.0, 152.90828381875562, 0.0, 0.0, 0.0, 0.0, -2401.337313811459, 0.0]
['beep', 0.0, 153.1988564966746, 0.0, 0.0, 0.0, 0.0, -2386.719272937688, 0.0]
['beep', 0.0, 133.30580393145132, 0.0, 0.0, 0.0, 0.0, -1578.055510289134, 0.0]
['beep', 0.0, 26.62092764627071, 0.0, 0.0, 0.0, 0.0, -431.7686476431665, 0.0]
['beep', 0.0, 160.79844961147901, 0.0, 0.0, 0.0, 0.0, -1774.0356056732662, 0.0]
['beep', 0.0, 158.04918504347623, 0.0, 0.0, 0.0, 0.0, -2401.851403933931, 0.0]
['beep', 0.0, 157.22217049862988, 0.0, 0.0, 0.0, 0.0, -2385.691092692744, 0.0]
['beep', 0.0, 137.12795223330883, 0.0, 0.0, 0.0, 0.0, -1580.2906847346646, 0.0]
['beep', 0.0, 27.447942191117072, 0.0, 0.0, 0.0, 0.0, -427.65592666339, 0.0]
['beep', 0.0, 162.81010661245665, 0.0, 0.0, 0.0, 0.0, -1763.4185270569953, 0.0]
['beep', 0.0, 159.5020484330712, 0.0, 0.0, 0.0, 0.0, -2399.012732388107, 0.0]
['beep', 0.0, 157.13276352080865, 0.0, 0.0, 0.0, 0.0, -2385.7804996705654, 0.0]
['beep', 0.0, 135.7421440770798, 0.0, 0.0, 0.0, 0.0, -1586.9068010934354, 0.0]
['beep', 0.0, 25.682154379147814, 0.0, 0.0, 0.0, 0.0, -424.7054963952895, 0.0]
['beep', 0.0, 157.51274317654887, 0.0, 0.0, 0.0, 0.0, -1753.5390560077497, 0.0]
['beep', 0.0, 155.50108617557123, 0.0, 0.0, 0.0, 0.0, -2400.555002755523, 0.0]
['beep', 0.0, 149.77903959501262, 0.0, 0.0, 0.0, 0.0, -2386.585162470956, 0.0]
['beep', 0.0, 132.41173415323905, 0.0, 0.0, 0.0, 0.0, -1589.0078650722344, 0.0]
['beep', 0.0, 24.72102936756961, 0.0, 0.0, 0.0, 0.0, -420.5257201821471, 0.0]
['beep', 0.0, 154.31644371943997, 0.0, 0.0, 0.0, 0.0, -1744.5313029922609, 0.0]
['beep', 0.0, 152.5283041630154, 0.0, 0.0, 0.0, 0.0, -2401.4714242781906, 0.0]
['beep', 0.0, 151.45542042916065, 0.0, 0.0, 0.0, 0.0, -2390.0943863504394, 0.0]
['beep', 0.0, 133.10463823135356, 0.0, 0.0, 0.0, 0.0, -1595.3334087530864, 0.0]
['beep', 0.0, 24.49751192301654, 0.0, 0.0, 0.0, 0.0, -416.36829571346, 0.0]
['beep', 0.0, 156.75278386506844, 0.0, 0.0, 0.0, 0.0, -1734.9871081098447, 0.0]
['beep', 0.0, 158.58562691040362, 0.0, 0.0, 0.0, 0.0, -2402.3878458008585, 0.0]
['beep', 0.0, 154.49525767508243, 0.0, 0.0, 0.0, 0.0, -2390.183793328261, 0.0]
['beep', 0.0, 135.7421440770798, 0.0, 0.0, 0.0, 0.0, -1599.6919989218711, 0.0]
['beep', 0.0, 24.49751192301654, 0.0, 0.0, 0.0, 0.0, -413.239051489717, 0.0]
['beep', 0.0, 157.71390887664663, 0.0, 0.0, 0.0, 0.0, -1723.5877184376382, 0.0]
['beep', 0.0, 160.1502490222751, 0.0, 0.0, 0.0, 0.0, -2399.7726916995875, 0.0]
['beep', 0.0, 156.3057489759623, 0.0, 0.0, 0.0, 0.0, -2388.7756334275764, 0.0]
['beep', 0.0, 136.993841766577, 0.0, 0.0, 0.0, 0.0, -1601.3013245226532, 0.0]
['beep', 0.0, 23.89401482272325, 0.0, 0.0, 0.0, 0.0, -409.01457178766395, 0.0]
['beep', 0.0, 154.91994081973326, 0.0, 0.0, 0.0, 0.0, -1714.0211718107669, 0.0]
['beep', 0.0, 158.13859202129746, 0.0, 0.0, 0.0, 0.0, -2400.3761887998808, 0.0]
['beep', 0.0, 152.8859320743003, 0.0, 0.0, 0.0, 0.0, -2389.334427038959, 0.0]
['beep', 0.0, 134.8033708099569, 0.0, 0.0, 0.0, 0.0, -1606.6433914474717, 0.0]
['beep', 0.0, 23.06700027787689, 0.0, 0.0, 0.0, 0.0, -406.3770659419377, 0.0]
['beep', 0.0, 152.41654544073887, 0.0, 0.0, 0.0, 0.0, -1704.566383906172, 0.0]
['beep', 0.0, 157.37863270981703, 0.0, 0.0, 0.0, 0.0, -2399.2138980882046, 0.0]
['beep', 0.0, 153.62353964132544, 0.0, 0.0, 0.0, 0.0, -2389.7367584391545, 0.0]
['beep', 0.0, 135.85390279935632, 0.0, 0.0, 0.0, 0.0, -1610.1079118380442, 0.0]
['beep', 0.0, 23.111703766787503, 0.0, 0.0, 0.0, 0.0, -403.6278013739349, 0.0]
['beep', 0.0, 154.56231290844835, 0.0, 0.0, 0.0, 0.0, -1696.3632936910742, 0.0]
['beep', 0.0, 160.95491182266616, 0.0, 0.0, 0.0, 0.0, -2402.0972731229394, 0.0]
['beep', 0.0, 155.14345826428632, 0.0, 0.0, 0.0, 0.0, -2393.447148018736, 0.0]
['beep', 0.0, 137.41852491122782, 0.0, 0.0, 0.0, 0.0, -1617.5286909972062, 0.0]
['beep', 0.0, 22.66466887768136, 0.0, 0.0, 0.0, 0.0, -401.8396618175104, 0.0]
['beep', 0.0, 152.30478671846234, 0.0, 0.0, 0.0, 0.0, -1687.310837186675, 0.0]
['beep', 0.0, 160.30671123346227, 0.0, 0.0, 0.0, 0.0, -2400.6667614778, 0.0]
['beep', 0.0, 154.2046849971634, 0.0, 0.0, 0.0, 0.0, -2392.195450329238, 0.0]
['beep', 0.0, 135.36216442133957, 0.0, 0.0, 0.0, 0.0, -1621.3508392990636, 0.0]
['beep', 0.0, 21.815302588379694, 0.0, 0.0, 0.0, 0.0, -397.97281002674225, 0.0]
['beep', 0.0, 150.2931297174847, 0.0, 0.0, 0.0, 0.0, -1674.793860291703, 0.0]
['beep', 0.0, 158.69738563268015, 0.0, 0.0, 0.0, 0.0, -2400.7785202000764, 0.0]
['beep', 0.0, 152.8188768409344, 0.0, 0.0, 0.0, 0.0, -2392.754243940621, 0.0]
['beep', 0.0, 136.0997719883647, 0.0, 0.0, 0.0, 0.0, -1625.6200224900274, 0.0]
['beep', 0.0, 21.502378166005393, 0.0, 0.0, 0.0, 0.0, -394.9553245252758, 0.0]
['beep', 0.0, 150.80721983995676, 0.0, 0.0, 0.0, 0.0, -1665.2943688981975, 0.0]
['beep', 0.0, 160.217304255641, 0.0, 0.0, 0.0, 0.0, -2399.8397469329534, 0.0]
['beep', 0.0, 155.14345826428632, 0.0, 0.0, 0.0, 0.0, -2391.815470673498, 0.0]
['beep', 0.0, 138.0443737559764, 0.0, 0.0, 0.0, 0.0, -1626.2905748236865, 0.0]
['beep', 0.0, 21.54708165491601, 0.0, 0.0, 0.0, 0.0, -391.33434192351604, 0.0]
['beep', 0.0, 149.77903959501262, 0.0, 0.0, 0.0, 0.0, -1654.789049004203, 0.0]
['beep', 0.0, 160.88785658930024, 0.0, 0.0, 0.0, 0.0, -2399.593877743945, 0.0]
['beep', 0.0, 154.31644371943997, 0.0, 0.0, 0.0, 0.0, -2394.117700352395, 0.0]
['beep', 0.0, 137.50793188904905, 0.0, 0.0, 0.0, 0.0, -1634.3819063165076, 0.0]
['beep', 0.0, 20.78712234343557, 0.0, 0.0, 0.0, 0.0, -390.01558900065294, 0.0]
['beep', 0.0, 147.38740293829477, 0.0, 0.0, 0.0, 0.0, -1646.0048134332674, 0.0]
['beep', 0.0, 160.01613855554325, 0.0, 0.0, 0.0, 0.0, -2401.3149620670038, 0.0]
['beep', 0.0, 152.97533905212154, 0.0, 0.0, 0.0, 0.0, -2395.4811567641686, 0.0]
['beep', 0.0, 136.43504815519432, 0.0, 0.0, 0.0, 0.0, -1637.3546883290635, 0.0]
['beep', 0.0, 20.362439198784735, 0.0, 0.0, 0.0, 0.0, -386.6851790768122, 0.0]
['beep', 0.0, 148.30382446096237, 0.0, 0.0, 0.0, 0.0, -1634.2701475942313, 0.0]
['beep', 0.0, 163.3018449904734, 0.0, 0.0, 0.0, 0.0, -2397.76103469861, 0.0]
['beep', 0.0, 154.02587104152096, 0.0, 0.0, 0.0, 0.0, -2392.6201334738894, 0.0]
['beep', 0.0, 139.31842318992892, 0.0, 0.0, 0.0, 0.0, -1639.567511030139, 0.0]
['beep', 0.0, 20.809474087890877, 0.0, 0.0, 0.0, 0.0, -384.7182255647452, 0.0]
['beep', 0.0, 149.62257738382547, 0.0, 0.0, 0.0, 0.0, -1625.1282841120105, 0.0]
['beep', 0.0, 164.64294965779183, 0.0, 0.0, 0.0, 0.0, -2396.688150964755, 0.0]
['beep', 0.0, 154.33879546389528, 0.0, 0.0, 0.0, 0.0, -2392.888354407353, 0.0]
['beep', 0.0, 138.960795278644, 0.0, 0.0, 0.0, 0.0, -1645.4460198218846, 0.0]
['beep', 0.0, 19.669535120670215, 0.0, 0.0, 0.0, 0.0, -381.79014704109994, 0.0]
['beep', 0.0, 144.41462092573894, 0.0, 0.0, 0.0, 0.0, -1612.7230659393151, 0.0]
['beep', 0.0, 159.23382749960751, 0.0, 0.0, 0.0, 0.0, -2398.565697499001, 0.0]
['beep', 0.0, 149.3990599392724, 0.0, 0.0, 0.0, 0.0, -2396.5763922424785, 0.0]
['beep', 0.0, 137.7090975891468, 0.0, 0.0, 0.0, 0.0, -1653.246778636787, 0.0]
['beep', 0.0, 19.289555464929997, 0.0, 0.0, 0.0, 0.0, -380.3819871404156, 0.0]
['beep', 0.0, 142.7158883471356, 0.0, 0.0, 0.0, 0.0, -1602.441263489874, 0.0]
['beep', 0.0, 162.6312926568142, 0.0, 0.0, 0.0, 0.0, -2396.7999096870317, 0.0]
['beep', 0.0, 150.74016460659084, 0.0, 0.0, 0.0, 0.0, -2392.9554096407187, 0.0]
['beep', 0.0, 137.57498712241497, 0.0, 0.0, 0.0, 0.0, -1656.308967627164, 0.0]
['beep', 0.0, 19.04368627592162, 0.0, 0.0, 0.0, 0.0, -378.5267923506251, 0.0]
['beep', 0.0, 143.6546616142585, 0.0, 0.0, 0.0, 0.0, -1590.9301150953909, 0.0]
['beep', 0.0, 163.72652813512423, 0.0, 0.0, 0.0, 0.0, -2393.9612381412076, 0.0]
['beep', 0.0, 153.69059487469136, 0.0, 0.0, 0.0, 0.0, -2393.0671683629953, 0.0]
['beep', 0.0, 140.95010053516634, 0.0, 0.0, 0.0, 0.0, -1659.66172929546, 0.0]
['beep', 0.0, 19.311907209385303, 0.0, 0.0, 0.0, 0.0, -376.0681004605413, 0.0]
['beep', 0.0, 143.3417371918842, 0.0, 0.0, 0.0, 0.0, -1580.178926012388, 0.0]
['beep', 0.0, 164.2406182575963, 0.0, 0.0, 0.0, 0.0, -2395.011770130607, 0.0]
['beep', 0.0, 152.19302799618578, 0.0, 0.0, 0.0, 0.0, -2396.531688753568, 0.0]
['beep', 0.0, 138.9384435341887, 0.0, 0.0, 0.0, 0.0, -1664.6238165645382, 0.0]
['beep', 0.0, 18.3507821978071, 0.0, 0.0, 0.0, 0.0, -373.1400219368961, 0.0]
['beep', 0.0, 140.68187960170266, 0.0, 0.0, 0.0, 0.0, -1569.114812507011, 0.0]
['beep', 0.0, 161.089022289398, 0.0, 0.0, 0.0, 0.0, -2391.815470673498, 0.0]
['beep', 0.0, 149.86844657283385, 0.0, 0.0, 0.0, 0.0, -2390.8096421730093, 0.0]
['beep', 0.0, 138.08907724488702, 0.0, 0.0, 0.0, 0.0, -1665.8755142540354, 0.0]
['beep', 0.0, 18.082561264343415, 0.0, 0.0, 0.0, 0.0, -371.9330277363095, 0.0]
['beep', 0.0, 140.5030656460602, 0.0, 0.0, 0.0, 0.0, -1552.5745216100838, 0.0]
['beep', 0.0, 166.02875781402085, 0.0, 0.0, 0.0, 0.0, -2367.0050343281073, 0.0]
['beep', 0.0, 154.31644371943997, 0.0, 0.0, 0.0, 0.0, -2346.7543538515993, 0.0]
['beep', 0.0, 141.35243193536186, 0.0, 0.0, 0.0, 0.0, -1636.1253423840217, 0.0]
['beep', 0.0, 18.596651386815477, 0.0, 0.0, 0.0, 0.0, -363.7075857767565, 0.0]
['beep', 0.0, 141.4641906576384, 0.0, 0.0, 0.0, 0.0, -1482.7923754206151, 0.0]
['beep', 0.0, 168.26393225955158, 0.0, 0.0, 0.0, 0.0, -2240.9188438557203, 0.0]
['beep', 0.0, 155.67990013121369, 0.0, 0.0, 0.0, 0.0, -2209.2687737070055, 0.0]
['beep', 0.0, 142.58177788040376, 0.0, 0.0, 0.0, 0.0, -1551.3675274094974, 0.0]
['beep', 0.0, 18.529596153449553, 0.0, 0.0, 0.0, 0.0, -348.9554344362539, 0.0]
['beep', 0.0, 141.24067321308533, 0.0, 0.0, 0.0, 0.0, -1393.7877289995824, 0.0]
['beep', 0.0, 168.88978110430017, 0.0, 0.0, 0.0, 0.0, -2103.634429411224, 0.0]
['beep', 0.0, 157.84801934337847, 0.0, 0.0, 0.0, 0.0, -2094.447862440093, 0.0]
['beep', 0.0, 146.40392618226127, 0.0, 0.0, 0.0, 0.0, -1499.4220732953636, 0.0]
['beep', 0.0, 19.40131418720653, 0.0, 0.0, 0.0, 0.0, -344.6191960119243, 0.0]
['beep', 0.0, 141.01715576853226, 0.0, 0.0, 0.0, 0.0, -1376.0180921576134, 0.0]
['beep', 0.0, 167.30280724797336, 0.0, 0.0, 0.0, 0.0, -2096.3254089743386, 0.0]
['beep', 0.0, 152.863580329845, 0.0, 0.0, 0.0, 0.0, -2103.8132433668666, 0.0]
['beep', 0.0, 142.84999881386744, 0.0, 0.0, 0.0, 0.0, -1515.5823845365508, 0.0]
['beep', 0.0, 18.306078708896486, 0.0, 0.0, 0.0, 0.0, -346.45203905725947, 0.0]
['beep', 0.0, 138.20083596716356, 0.0, 0.0, 0.0, 0.0, -1389.8761737199038, 0.0]
['beep', 0.0, 164.41943221323876, 0.0, 0.0, 0.0, 0.0, -2138.4360955281372, 0.0]
['beep', 0.0, 150.87427507332268, 0.0, 0.0, 0.0, 0.0, -2151.9365491791427, 0.0]
['beep', 0.0, 142.3359086913954, 0.0, 0.0, 0.0, 0.0, -1549.3558704085196, 0.0]
['beep', 0.0, 17.859043819790344, 0.0, 0.0, 0.0, 0.0, -349.693042003279, 0.0]
['beep', 0.0, 137.46322840013843, 0.0, 0.0, 0.0, 0.0, -1407.3105343950433, 0.0]
['beep', 0.0, 170.0297200715208, 0.0, 0.0, 0.0, 0.0, -2186.313532151405, 0.0]
['beep', 0.0, 152.99769079657685, 0.0, 0.0, 0.0, 0.0, -2197.8470322903436, 0.0]
['beep', 0.0, 142.7382400915909, 0.0, 0.0, 0.0, 0.0, -1583.3975772139522, 0.0]
['beep', 0.0, 17.859043819790344, 0.0, 0.0, 0.0, 0.0, -354.0963356609745, 0.0]
['beep', 0.0, 135.31746093242896, 0.0, 0.0, 0.0, 0.0, -1419.4251798898197, 0.0]
['beep', 0.0, 167.36986248133928, 0.0, 0.0, 0.0, 0.0, -2225.8761198372986, 0.0]
['beep', 0.0, 152.08126927390924, 0.0, 0.0, 0.0, 0.0, -2240.047125821963, 0.0]
['beep', 0.0, 142.98410928059928, 0.0, 0.0, 0.0, 0.0, -1613.863004906536, 0.0]
['beep', 0.0, 17.7249333530585, 0.0, 0.0, 0.0, 0.0, -357.6726147738236, 0.0]
['beep', 0.0, 134.60220510985914, 0.0, 0.0, 0.0, 0.0, -1428.8799677944146, 0.0]
['beep', 0.0, 165.93935083619962, 0.0, 0.0, 0.0, 0.0, -2258.1520388307617, 0.0]
['beep', 0.0, 150.31548146194, 0.0, 0.0, 0.0, 0.0, -2271.250161081572, 0.0]
['beep', 0.0, 144.28051045900708, 0.0, 0.0, 0.0, 0.0, -1638.695792996382, 0.0]
['beep', 0.0, 17.993154286522184, 0.0, 0.0, 0.0, 0.0, -361.49476307568113, 0.0]
['beep', 0.0, 133.30580393145132, 0.0, 0.0, 0.0, 0.0, -1438.0441830210905, 0.0]
['beep', 0.0, 165.71583339164656, 0.0, 0.0, 0.0, 0.0, -2287.8128037229544, 0.0]
['beep', 0.0, 149.26494947254056, 0.0, 0.0, 0.0, 0.0, -2299.368655606348, 0.0]
['beep', 0.0, 143.0511645139652, 0.0, 0.0, 0.0, 0.0, -1662.1651246744543, 0.0]
['beep', 0.0, 17.7249333530585, 0.0, 0.0, 0.0, 0.0, -363.9758067102202, 0.0]
['beep', 0.0, 133.79754230946807, 0.0, 0.0, 0.0, 0.0, -1439.5641016440513, 0.0]
['beep', 0.0, 167.21340027015214, 0.0, 0.0, 0.0, 0.0, -2309.829272011432, 0.0]
['beep', 0.0, 149.6896326171914, 0.0, 0.0, 0.0, 0.0, -2322.9497460066973, 0.0]
['beep', 0.0, 144.25815871455177, 0.0, 0.0, 0.0, 0.0, -1680.4935551278063, 0.0]
['beep', 0.0, 17.680229864147886, 0.0, 0.0, 0.0, 0.0, -365.27220788862803, 0.0]
['beep', 0.0, 132.0317544974988, 0.0, 0.0, 0.0, 0.0, -1438.7147353547498, 0.0]
['beep', 0.0, 167.70513864816888, 0.0, 0.0, 0.0, 0.0, -2326.07899023044, 0.0]
['beep', 0.0, 149.82374308392323, 0.0, 0.0, 0.0, 0.0, -2339.780609581543, 0.0]
['beep', 0.0, 144.12404824781993, 0.0, 0.0, 0.0, 0.0, -1695.2680582127641, 0.0]
['beep', 0.0, 17.456712419594815, 0.0, 0.0, 0.0, 0.0, -365.853353244466, 0.0]
['beep', 0.0, 130.78005680800163, 0.0, 0.0, 0.0, 0.0, -1434.5573108860626, 0.0]
['beep', 0.0, 167.95100783717726, 0.0, 0.0, 0.0, 0.0, -2336.6290136133453, 0.0]
['beep', 0.0, 152.2377314850964, 0.0, 0.0, 0.0, 0.0, -2350.2188742421718, 0.0]
['beep', 0.0, 146.38157443780597, 0.0, 0.0, 0.0, 0.0, -1706.2651164847753, 0.0]
['beep', 0.0, 17.635526375237273, 0.0, 0.0, 0.0, 0.0, -366.92623697832073, 0.0]
['beep', 0.0, 130.60124285235918, 0.0, 0.0, 0.0, 0.0, -1428.1423602273894, 0.0]
['beep', 0.0, 167.99571132608787, 0.0, 0.0, 0.0, 0.0, -2342.7086881051887, 0.0]
['beep', 0.0, 149.10848726135342, 0.0, 0.0, 0.0, 0.0, -2355.7397551226327, 0.0]
['beep', 0.0, 144.74989709256855, 0.0, 0.0, 0.0, 0.0, -1714.9599450778896, 0.0]
['beep', 0.0, 17.523767652960736, 0.0, 0.0, 0.0, 0.0, -367.35092012297156, 0.0]
['beep', 0.0, 130.0648009854318, 0.0, 0.0, 0.0, 0.0, -1420.028676990113, 0.0]
['beep', 0.0, 168.57685668192588, 0.0, 0.0, 0.0, 0.0, -2346.977871296152, 0.0]
['beep', 0.0, 149.60022563937017, 0.0, 0.0, 0.0, 0.0, -2362.7358511371435, 0.0]
['beep', 0.0, 145.01811802603223, 0.0, 0.0, 0.0, 0.0, -1723.9676980933784, 0.0]
['beep', 0.0, 17.233194975041744, 0.0, 0.0, 0.0, 0.0, -367.4403271007928, 0.0]
['beep', 0.0, 129.52835911850443, 0.0, 0.0, 0.0, 0.0, -1411.8926420083812, 0.0]
['beep', 0.0, 169.3591677378616, 0.0, 0.0, 0.0, 0.0, -2349.3024527195043, 0.0]
['beep', 0.0, 151.12014426233105, 0.0, 0.0, 0.0, 0.0, -2365.1274877938617, 0.0]
['beep', 0.0, 147.92384480522213, 0.0, 0.0, 0.0, 0.0, -1727.6780876729595, 0.0]
['beep', 0.0, 17.680229864147886, 0.0, 0.0, 0.0, 0.0, -366.38979511139337, 0.0]
['beep', 0.0, 129.84128354087872, 0.0, 0.0, 0.0, 0.0, -1402.3260953815097, 0.0]
['beep', 0.0, 173.1142608063532, 0.0, 0.0, 0.0, 0.0, -2350.7776678535542, 0.0]
['beep', 0.0, 153.28826347449584, 0.0, 0.0, 0.0, 0.0, -2367.362662239392, 0.0]
['beep', 0.0, 148.61674888333667, 0.0, 0.0, 0.0, 0.0, -1734.696535431926, 0.0]
['beep', 0.0, 17.7249333530585, 0.0, 0.0, 0.0, 0.0, -366.92623697832073, 0.0]
['beep', 0.0, 128.32136491791783, 0.0, 0.0, 0.0, 0.0, -1390.9490574537585, 0.0]
['beep', 0.0, 172.8013363839789, 0.0, 0.0, 0.0, 0.0, -2353.348118465915, 0.0]
['beep', 0.0, 151.36601345133943, 0.0, 0.0, 0.0, 0.0, -2372.4812117196575, 0.0]
['beep', 0.0, 146.89566456027802, 0.0, 0.0, 0.0, 0.0, -1741.8043901687136, 0.0]
['beep', 0.0, 17.233194975041744, 0.0, 0.0, 0.0, 0.0, -366.99329221168665, 0.0]
['beep', 0.0, 127.02496373951004, 0.0, 0.0, 0.0, 0.0, -1382.7236154942054, 0.0]
['beep', 0.0, 171.92961835022192, 0.0, 0.0, 0.0, 0.0, -2353.9739673106633, 0.0]
['beep', 0.0, 152.14832450727516, 0.0, 0.0, 0.0, 0.0, -2374.694034420733, 0.0]
['beep', 0.0, 148.63910062779198, 0.0, 0.0, 0.0, 0.0, -1750.007480383811, 0.0]
['beep', 0.0, 17.50141590850543, 0.0, 0.0, 0.0, 0.0, -368.1779346678179, 0.0]
['beep', 0.0, 125.639155583281, 0.0, 0.0, 0.0, 0.0, -1375.1016706349458, 0.0]
['beep', 0.0, 171.77315613903477, 0.0, 0.0, 0.0, 0.0, -2356.1867900117386, 0.0]
['beep', 0.0, 151.9024553182668, 0.0, 0.0, 0.0, 0.0, -2376.7056914217105, 0.0]
['beep', 0.0, 148.59439713888136, 0.0, 0.0, 0.0, 0.0, -1756.3553758091184, 0.0]
['beep', 0.0, 17.456712419594815, 0.0, 0.0, 0.0, 0.0, -369.2955218905833, 0.0]
['beep', 0.0, 125.99678349456592, 0.0, 0.0, 0.0, 0.0, -1365.2221995857, 0.0]
['beep', 0.0, 175.43884222970513, 0.0, 0.0, 0.0, 0.0, -2356.633824900845, 0.0]
['beep', 0.0, 153.91411231924442, 0.0, 0.0, 0.0, 0.0, -2377.532705966557, 0.0]
['beep', 0.0, 149.82374308392323, 0.0, 0.0, 0.0, 0.0, -1761.2280561003754, 0.0]
['beep', 0.0, 17.50141590850543, 0.0, 0.0, 0.0, 0.0, -369.83196375751066, 0.0]
['beep', 0.0, 124.65567882724748, 0.0, 0.0, 0.0, 0.0, -1355.3427285364544, 0.0]
['beep', 0.0, 173.27072301754035, 0.0, 0.0, 0.0, 0.0, -2355.046851044518, 0.0]
['beep', 0.0, 151.12014426233105, 0.0, 0.0, 0.0, 0.0, -2378.2926652780375, 0.0]
['beep', 0.0, 148.32617620541768, 0.0, 0.0, 0.0, 0.0, -1765.720756735892, 0.0]
['beep', 0.0, 17.166139741675824, 0.0, 0.0, 0.0, 0.0, -370.50251609116987, 0.0]
['beep', 0.0, 123.4486846266609, 0.0, 0.0, 0.0, 0.0, -1346.3349755209656, 0.0]
['beep', 0.0, 174.88004861832246, 0.0, 0.0, 0.0, 0.0, -2352.99049055463, 0.0]
['beep', 0.0, 153.28826347449584, 0.0, 0.0, 0.0, 0.0, -2379.052624589518, 0.0]
['beep', 0.0, 151.81304834044556, 0.0, 0.0, 0.0, 0.0, -1773.5215155507942, 0.0]
['beep', 0.0, 17.970802542066878, 0.0, 0.0, 0.0, 0.0, -371.6424550583905, 0.0]
['beep', 0.0, 123.18046369319723, 0.0, 0.0, 0.0, 0.0, -1336.969594594192, 0.0]
['beep', 0.0, 174.16479279575265, 0.0, 0.0, 0.0, 0.0, -2353.504580677102, 0.0]
['beep', 0.0, 150.13666750629753, 0.0, 0.0, 0.0, 0.0, -2380.416081001292, 0.0]
['beep', 0.0, 149.22024598362995, 0.0, 0.0, 0.0, 0.0, -1778.975341197889, 0.0]
['beep', 0.0, 17.18849148613113, 0.0, 0.0, 0.0, 0.0, -372.62593181442406, 0.0]
['beep', 0.0, 120.5653095919263, 0.0, 0.0, 0.0, 0.0, -1327.9841933231585, 0.0]
['beep', 0.0, 171.95197009467722, 0.0, 0.0, 0.0, 0.0, -2354.7115748776882, 0.0]
['beep', 0.0, 149.60022563937017, 0.0, 0.0, 0.0, 0.0, -2382.6736071912774, 0.0]
['beep', 0.0, 149.62257738382547, 0.0, 0.0, 0.0, 0.0, -1781.5234400657941, 0.0]
['beep', 0.0, 17.03202927494398, 0.0, 0.0, 0.0, 0.0, -370.83779225799947, 0.0]
['beep', 0.0, 119.51477760252686, 0.0, 0.0, 0.0, 0.0, -1316.6071553954073, 0.0]
['beep', 0.0, 176.2211532856409, 0.0, 0.0, 0.0, 0.0, -2353.8845603328423, 0.0]
['beep', 0.0, 152.05891752945394, 0.0, 0.0, 0.0, 0.0, -2382.338331024448, 0.0]
['beep', 0.0, 152.08126927390924, 0.0, 0.0, 0.0, 0.0, -1786.105547679132, 0.0]
['beep', 0.0, 17.747285097513807, 0.0, 0.0, 0.0, 0.0, -372.0000829696754, 0.0]
['beep', 0.0, 121.23586192558551, 0.0, 0.0, 0.0, 0.0, -1308.2028994802117, 0.0]
['beep', 0.0, 178.4339759867163, 0.0, 0.0, 0.0, 0.0, -2352.476400432158, 0.0]
['beep', 0.0, 153.28826347449584, 0.0, 0.0, 0.0, 0.0, -2384.2158775586936, 0.0]
['beep', 0.0, 152.5059524185601, 0.0, 0.0, 0.0, 0.0, -1790.911172737023, 0.0]
['beep', 0.0, 17.523767652960736, 0.0, 0.0, 0.0, 0.0, -371.6424550583905, 0.0]
['beep', 0.0, 120.16297819173077, 0.0, 0.0, 0.0, 0.0, -1297.7869865640387, 0.0]
['beep', 0.0, 179.21628704265203, 0.0, 0.0, 0.0, 0.0, -2352.498752176613, 0.0]
['beep', 0.0, 154.83053384191203, 0.0, 0.0, 0.0, 0.0, -2384.953485125719, 0.0]
['beep', 0.0, 154.3611472083506, 0.0, 0.0, 0.0, 0.0, -1796.7896815287688, 0.0]
['beep', 0.0, 17.859043819790344, 0.0, 0.0, 0.0, 0.0, -373.25178065917265, 0.0]
['beep', 0.0, 118.48659735758274, 0.0, 0.0, 0.0, 0.0, -1287.4381288812315, 0.0]
['beep', 0.0, 177.8975341197889, 0.0, 0.0, 0.0, 0.0, -2351.202350998205, 0.0]
['beep', 0.0, 154.29409197498467, 0.0, 0.0, 0.0, 0.0, -2385.0652438479956, 0.0]
['beep', 0.0, 153.42237394122768, 0.0, 0.0, 0.0, 0.0, -1801.818824031213, 0.0]
['beep', 0.0, 17.747285097513807, 0.0, 0.0, 0.0, 0.0, -373.92233299283185, 0.0]
['beep', 0.0, 116.25142291205204, 0.0, 0.0, 0.0, 0.0, -1277.4468991097092, 0.0]
['beep', 0.0, 177.8975341197889, 0.0, 0.0, 0.0, 0.0, -2349.7047841196995, 0.0]
['beep', 0.0, 153.91411231924442, 0.0, 0.0, 0.0, 0.0, -2385.914610137297, 0.0]
['beep', 0.0, 152.97533905212154, 0.0, 0.0, 0.0, 0.0, -1807.5855741006822, 0.0]
['beep', 0.0, 17.456712419594815, 0.0, 0.0, 0.0, 0.0, -375.50930684915863, 0.0]
['beep', 0.0, 115.93849848967774, 0.0, 0.0, 0.0, 0.0, -1269.2214571501563, 0.0]
['beep', 0.0, 177.78577539751237, 0.0, 0.0, 0.0, 0.0, -2348.9448248082194, 0.0]
['beep', 0.0, 151.76834485153495, 0.0, 0.0, 0.0, 0.0, -2385.691092692744, 0.0]
['beep', 0.0, 152.37184195182826, 0.0, 0.0, 0.0, 0.0, -1811.1395014690759, 0.0]
['beep', 0.0, 17.412008930684202, 0.0, 0.0, 0.0, 0.0, -375.8222312715329, 0.0]
['beep', 0.0, 114.99972522255484, 0.0, 0.0, 0.0, 0.0, -1258.6267302783408, 0.0]
['beep', 0.0, 179.23863878710733, 0.0, 0.0, 0.0, 0.0, -2348.6989556192107, 0.0]
['beep', 0.0, 155.0987547753757, 0.0, 0.0, 0.0, 0.0, -2386.361645026403, 0.0]
['beep', 0.0, 156.6410251427919, 0.0, 0.0, 0.0, 0.0, -1815.78866431578, 0.0]
['beep', 0.0, 18.507244408994246, 0.0, 0.0, 0.0, 0.0, -376.98452198320894, 0.0]
['beep', 0.0, 115.42440836720567, 0.0, 0.0, 0.0, 0.0, -1250.937730185715, 0.0]
['beep', 0.0, 180.44563298769393, 0.0, 0.0, 0.0, 0.0, -2347.89429281882, 0.0]
['beep', 0.0, 156.43985944269414, 0.0, 0.0, 0.0, 0.0, -2388.261543305104, 0.0]
['beep', 0.0, 156.9315978207109, 0.0, 0.0, 0.0, 0.0, -1822.0024492743553, 0.0]
['beep', 0.0, 18.3507821978071, 0.0, 0.0, 0.0, 0.0, -378.72795805072286, 0.0]
['beep', 0.0, 116.02790546749897, 0.0, 0.0, 0.0, 0.0, -1241.9523289146816, 0.0]
['beep', 0.0, 181.3844062548168, 0.0, 0.0, 0.0, 0.0, -2346.866112573876, 0.0]
['beep', 0.0, 154.3834989528059, 0.0, 0.0, 0.0, 0.0, -2388.462709005202, 0.0]
['beep', 0.0, 155.81401059794553, 0.0, 0.0, 0.0, 0.0, -1826.6069086321484, 0.0]
['beep', 0.0, 18.283726964441176, 0.0, 0.0, 0.0, 0.0, -380.7396150517005, 0.0]
['beep', 0.0, 104.56146056192644, 0.0, 0.0, 0.0, 0.0, -1172.5054588920425, 0.0]
['beep', 0.0, 176.2435050300962, 0.0, 0.0, 0.0, 0.0, -2335.489074646124, 0.0]
['beep', 0.0, 146.71685060463557, 0.0, 0.0, 0.0, 0.0, -2388.7085781942105, 0.0]
['beep', 0.0, 152.8412285853897, 0.0, 0.0, 0.0, 0.0, -1868.2929120412962, 0.0]
['beep', 0.0, 18.529596153449553, 0.0, 0.0, 0.0, 0.0, -398.7327693382227, 0.0]
['beep', 0.0, 103.75679776153538, 0.0, 0.0, 0.0, 0.0, -1161.9777872535929, 0.0]
['beep', 0.0, 176.77994689702356, 0.0, 0.0, 0.0, 0.0, -2330.214062954672, 0.0]
['beep', 0.0, 147.1415337492864, 0.0, 0.0, 0.0, 0.0, -2388.954447383219, 0.0]
['beep', 0.0, 154.22703674161872, 0.0, 0.0, 0.0, 0.0, -1873.1879440770083, 0.0]
['beep', 0.0, 19.222500231564073, 0.0, 0.0, 0.0, 0.0, -401.07970250602995, 0.0]
['beep', 0.0, 102.1921756496639, 0.0, 0.0, 0.0, 0.0, -1152.5453510934533, 0.0]
['beep', 0.0, 176.8917056193001, 0.0, 0.0, 0.0, 0.0, -2330.616394354867, 0.0]
['beep', 0.0, 148.03560352749867, 0.0, 0.0, 0.0, 0.0, -2388.8426886609423, 0.0]
['beep', 0.0, 155.0764030309204, 0.0, 0.0, 0.0, 0.0, -1880.3181505582513, 0.0]
['beep', 0.0, 19.356610698295917, 0.0, 0.0, 0.0, 0.0, -404.83479557452154, 0.0]
['beep', 0.0, 101.99100994956612, 0.0, 0.0, 0.0, 0.0, -1145.9962899680484, 0.0]
['beep', 0.0, 176.69053991920234, 0.0, 0.0, 0.0, 0.0, -2330.638746099323, 0.0]
['beep', 0.0, 147.38740293829477, 0.0, 0.0, 0.0, 0.0, -2390.1614415838053, 0.0]
['beep', 0.0, 155.32227221992878, 0.0, 0.0, 0.0, 0.0, -1885.7272727164357, 0.0]
['beep', 0.0, 19.915404309678593, 0.0, 0.0, 0.0, 0.0, -407.4052461868818, 0.0]
['beep', 0.0, 101.00753319353262, 0.0, 0.0, 0.0, 0.0, -1136.9661852081044, 0.0]
['beep', 0.0, 177.13757480830847, 0.0, 0.0, 0.0, 0.0, -2329.0741239874515, 0.0]
['beep', 0.0, 148.84026632788974, 0.0, 0.0, 0.0, 0.0, -2390.9884561286517, 0.0]
['beep', 0.0, 156.48456293160476, 0.0, 0.0, 0.0, 0.0, -1892.6116100086701, 0.0]
['beep', 0.0, 19.915404309678593, 0.0, 0.0, 0.0, 0.0, -410.28862122161644, 0.0]
['beep', 0.0, 100.3146291154181, 0.0, 0.0, 0.0, 0.0, -1125.3879815802552, 0.0]
['beep', 0.0, 180.28917077650678, 0.0, 0.0, 0.0, 0.0, -2328.2024059536943, 0.0]
['beep', 0.0, 150.0472605284763, 0.0, 0.0, 0.0, 0.0, -2391.7707671845874, 0.0]
['beep', 0.0, 155.3669757088394, 0.0, 0.0, 0.0, 0.0, -1897.9313251890333, 0.0]
['beep', 0.0, 19.758942098491442, 0.0, 0.0, 0.0, 0.0, -413.10494102298514, 0.0]
['beep', 0.0, 98.39237909226169, 0.0, 0.0, 0.0, 0.0, -1115.6649727421968, 0.0]
['beep', 0.0, 176.31056026346212, 0.0, 0.0, 0.0, 0.0, -2325.073161729951, 0.0]
['beep', 0.0, 146.20276048216348, 0.0, 0.0, 0.0, 0.0, -2391.502546251124, 0.0]
['beep', 0.0, 153.8023535969679, 0.0, 0.0, 0.0, 0.0, -1905.32975260374, 0.0]
['beep', 0.0, 19.758942098491442, 0.0, 0.0, 0.0, 0.0, -417.3741242139488, 0.0]
['beep', 0.0, 97.92299245870024, 0.0, 0.0, 0.0, 0.0, -1109.8088156949063, 0.0]
['beep', 0.0, 181.6973306771911, 0.0, 0.0, 0.0, 0.0, -2324.3132024184706, 0.0]
['beep', 0.0, 152.5506559074707, 0.0, 0.0, 0.0, 0.0, -2390.3849590283585, 0.0]
['beep', 0.0, 160.79844961147901, 0.0, 0.0, 0.0, 0.0, -1908.973086949955, 0.0]
['beep', 0.0, 21.412971188184166, 0.0, 0.0, 0.0, 0.0, -420.5033684376918, 0.0]
['beep', 0.0, 98.57119304790415, 0.0, 0.0, 0.0, 0.0, -1099.9963998790265, 0.0]
['beep', 0.0, 179.61861844284755, 0.0, 0.0, 0.0, 0.0, -2321.6980483172, 0.0]
['beep', 0.0, 148.92967330571096, 0.0, 0.0, 0.0, 0.0, -2391.94958114023, 0.0]
['beep', 0.0, 158.8761995883226, 0.0, 0.0, 0.0, 0.0, -1916.3491626202062, 0.0]
['beep', 0.0, 21.636488632737237, 0.0, 0.0, 0.0, 0.0, -423.6102609169794, 0.0]
['beep', 0.0, 97.1406814027645, 0.0, 0.0, 0.0, 0.0, -1088.239382295535, 0.0]
['beep', 0.0, 179.35039750938387, 0.0, 0.0, 0.0, 0.0, -2317.942955248708, 0.0]
['beep', 0.0, 150.18137099520814, 0.0, 0.0, 0.0, 0.0, -2391.3237322954815, 0.0]
['beep', 0.0, 160.28435948900696, 0.0, 0.0, 0.0, 0.0, -1918.9643167214772, 0.0]
['beep', 0.0, 22.1505787552093, 0.0, 0.0, 0.0, 0.0, -425.398400473404, 0.0]
['beep', 0.0, 97.4759575695941, 0.0, 0.0, 0.0, 0.0, -1078.5163734574764, 0.0]
['beep', 0.0, 184.55835396747042, 0.0, 0.0, 0.0, 0.0, -2315.5066151030796, 0.0]
['beep', 0.0, 152.39419369628357, 0.0, 0.0, 0.0, 0.0, -2391.0331596175624, 0.0]
['beep', 0.0, 160.53022867801533, 0.0, 0.0, 0.0, 0.0, -1925.3792673801504, 0.0]
['beep', 0.0, 22.44115143312829, 0.0, 0.0, 0.0, 0.0, -429.1534935418956, 0.0]
['beep', 0.0, 96.24661162455222, 0.0, 0.0, 0.0, 0.0, -1068.9274750861496, 0.0]
['beep', 0.0, 182.43493824421626, 0.0, 0.0, 0.0, 0.0, -2315.6183738253562, 0.0]
['beep', 0.0, 151.00838554005452, 0.0, 0.0, 0.0, 0.0, -2392.240153818149, 0.0]
['beep', 0.0, 160.01613855554325, 0.0, 0.0, 0.0, 0.0, -1930.4978168604157, 0.0]
['beep', 0.0, 22.418799688672983, 0.0, 0.0, 0.0, 0.0, -432.4839034657364, 0.0]
['beep', 0.0, 94.23495462357458, 0.0, 0.0, 0.0, 0.0, -1060.8584953377838, 0.0]
['beep', 0.0, 180.89266787680006, 0.0, 0.0, 0.0, 0.0, -2314.2325656691273, 0.0]
['beep', 0.0, 151.9024553182668, 0.0, 0.0, 0.0, 0.0, -2392.240153818149, 0.0]
['beep', 0.0, 161.4242984562276, 0.0, 0.0, 0.0, 0.0, -1935.6387180851364, 0.0]
['beep', 0.0, 22.84348283332382, 0.0, 0.0, 0.0, 0.0, -435.32257501156033, 0.0]
['beep', 0.0, 93.72086450110251, 0.0, 0.0, 0.0, 0.0, -1050.464934166066, 0.0]
['beep', 0.0, 180.6467986877917, 0.0, 0.0, 0.0, 0.0, -2311.706818545678, 0.0]
['beep', 0.0, 149.3767081948171, 0.0, 0.0, 0.0, 0.0, -2393.0001131296294, 0.0]
['beep', 0.0, 159.5020484330712, 0.0, 0.0, 0.0, 0.0, -1940.5561018653038, 0.0]
['beep', 0.0, 22.552910155404827, 0.0, 0.0, 0.0, 0.0, -438.2506535352056, 0.0]
['beep', 0.0, 91.01630342201035, 0.0, 0.0, 0.0, 0.0, -1040.7419253280075, 0.0]
['beep', 0.0, 178.61278994235875, 0.0, 0.0, 0.0, 0.0, -2309.426940611236, 0.0]
['beep', 0.0, 147.67797561621376, 0.0, 0.0, 0.0, 0.0, -2394.341217796948, 0.0]
['beep', 0.0, 158.18329551020807, 0.0, 0.0, 0.0, 0.0, -1946.1440379791306, 0.0]
['beep', 0.0, 22.66466887768136, 0.0, 0.0, 0.0, 0.0, -441.044621592119, 0.0]
['beep', 0.0, 90.72573074409136, 0.0, 0.0, 0.0, 0.0, -1032.0247449904377, 0.0]
['beep', 0.0, 180.46798473214923, 0.0, 0.0, 0.0, 0.0, -2309.449292355692, 0.0]
['beep', 0.0, 146.15805699325287, 0.0, 0.0, 0.0, 0.0, -2395.6823224642662, 0.0]
['beep', 0.0, 157.49039143209356, 0.0, 0.0, 0.0, 0.0, -1951.3743461816725, 0.0]
['beep', 0.0, 22.709372366591975, 0.0, 0.0, 0.0, 0.0, -445.73848792773344, 0.0]
['beep', 0.0, 89.42932956568356, 0.0, 0.0, 0.0, 0.0, -1021.5417768408987, 0.0]
['beep', 0.0, 178.90336262027773, 0.0, 0.0, 0.0, 0.0, -2305.8059580094764, 0.0]
['beep', 0.0, 146.11335350434226, 0.0, 0.0, 0.0, 0.0, -2395.1905840862496, 0.0]
['beep', 0.0, 157.49039143209356, 0.0, 0.0, 0.0, 0.0, -1957.454020673516, 0.0]
['beep', 0.0, 23.06700027787689, 0.0, 0.0, 0.0, 0.0, -449.18065657385074, 0.0]
['beep', 0.0, 88.19998362064167, 0.0, 0.0, 0.0, 0.0, -1011.6176023027424, 0.0]
['beep', 0.0, 179.4845079761157, 0.0, 0.0, 0.0, 0.0, -2304.59896380889, 0.0]
['beep', 0.0, 146.67214711572495, 0.0, 0.0, 0.0, 0.0, -2396.4199300312916, 0.0]
['beep', 0.0, 159.1444205217863, 0.0, 0.0, 0.0, 0.0, -1961.454982931016, 0.0]
['beep', 0.0, 23.782256100446716, 0.0, 0.0, 0.0, 0.0, -451.2817205526496, 0.0]
['beep', 0.0, 87.59648652034838, 0.0, 0.0, 0.0, 0.0, -1003.6380295321977, 0.0]
['beep', 0.0, 178.88101087582243, 0.0, 0.0, 0.0, 0.0, -2301.0897399294067, 0.0]
['beep', 0.0, 146.69449886018026, 0.0, 0.0, 0.0, 0.0, -2394.6764939637774, 0.0]
['beep', 0.0, 159.01031005505445, 0.0, 0.0, 0.0, 0.0, -1965.0312620438651, 0.0]
['beep', 0.0, 23.804607844902023, 0.0, 0.0, 0.0, 0.0, -454.72388919876687, 0.0]
['beep', 0.0, 85.87540219728973, 0.0, 0.0, 0.0, 0.0, -995.0773114058151, 0.0]
['beep', 0.0, 177.8975341197889, 0.0, 0.0, 0.0, 0.0, -2299.9050974732754, 0.0]
['beep', 0.0, 146.15805699325287, 0.0, 0.0, 0.0, 0.0, -2395.2129358307047, 0.0]
['beep', 0.0, 157.9150745767444, 0.0, 0.0, 0.0, 0.0, -1969.9486458240326, 0.0]
['beep', 0.0, 23.715200867080792, 0.0, 0.0, 0.0, 0.0, -457.78607818914395, 0.0]
['beep', 0.0, 86.07656789738749, 0.0, 0.0, 0.0, 0.0, -985.6895787345861, 0.0]
['beep', 0.0, 178.67984517572467, 0.0, 0.0, 0.0, 0.0, -2297.2899433720045, 0.0]
['beep', 0.0, 147.70032736066906, 0.0, 0.0, 0.0, 0.0, -2395.5705637419896, 0.0]
['beep', 0.0, 160.03849029999856, 0.0, 0.0, 0.0, 0.0, -1974.8213261152896, 0.0]
['beep', 0.0, 24.698677623114303, 0.0, 0.0, 0.0, 0.0, -462.3905375469372, 0.0]
['beep', 0.0, 84.40018706323947, 0.0, 0.0, 0.0, 0.0, -974.3348925512902, 0.0]
['beep', 0.0, 179.73037716512408, 0.0, 0.0, 0.0, 0.0, -2293.512498559058, 0.0]
['beep', 0.0, 147.63327212730314, 0.0, 0.0, 0.0, 0.0, -2395.9281916532746, 0.0]
['beep', 0.0, 160.06084204445386, 0.0, 0.0, 0.0, 0.0, -1981.035111073865, 0.0]
['beep', 0.0, 24.855139834301454, 0.0, 0.0, 0.0, 0.0, -467.03970039364106, 0.0]
['beep', 0.0, 83.2378963515635, 0.0, 0.0, 0.0, 0.0, -967.1823343255919, 0.0]
['beep', 0.0, 178.94806610918835, 0.0, 0.0, 0.0, 0.0, -2292.21609738065, 0.0]
['beep', 0.0, 146.04629827097634, 0.0, 0.0, 0.0, 0.0, -2395.2352875751603, 0.0]
['beep', 0.0, 160.30671123346227, 0.0, 0.0, 0.0, 0.0, -1985.930143109577, 0.0]
['beep', 0.0, 26.062134034888036, 0.0, 0.0, 0.0, 0.0, -471.6665114958896, 0.0]
['beep', 0.0, 83.26024809601881, 0.0, 0.0, 0.0, 0.0, -957.8169533988182, 0.0]
['beep', 0.0, 181.13853706580844, 0.0, 0.0, 0.0, 0.0, -2288.3268938454266, 0.0]
['beep', 0.0, 148.7285076056132, 0.0, 0.0, 0.0, 0.0, -2394.9670666416964, 0.0]
['beep', 0.0, 163.52536243502647, 0.0, 0.0, 0.0, 0.0, -1990.5346024673704, 0.0]
['beep', 0.0, 26.777389857457862, 0.0, 0.0, 0.0, 0.0, -475.55571503111304, 0.0]
['beep', 0.0, 83.66257949621433, 0.0, 0.0, 0.0, 0.0, -946.8422468712624, 0.0]
['beep', 0.0, 182.5914004554034, 0.0, 0.0, 0.0, 0.0, -2283.722434487633, 0.0]
['beep', 0.0, 148.1697139942305, 0.0, 0.0, 0.0, 0.0, -2394.050645119029, 0.0]
['beep', 0.0, 160.64198740029187, 0.0, 0.0, 0.0, 0.0, -1994.9155443806108, 0.0]
['beep', 0.0, 26.218596246075183, 0.0, 0.0, 0.0, 0.0, -480.42839532237, 0.0]
['beep', 0.0, 79.66161723871437, 0.0, 0.0, 0.0, 0.0, -936.3145752328129, 0.0]
['beep', 0.0, 177.539906208504, 0.0, 0.0, 0.0, 0.0, -2278.0674431404404, 0.0]
['beep', 0.0, 146.18040873770818, 0.0, 0.0, 0.0, 0.0, -2387.3227700379816, 0.0]
['beep', 0.0, 160.53022867801533, 0.0, 0.0, 0.0, 0.0, -1993.8203089023007, 0.0]
['beep', 0.0, 27.38088695775115, 0.0, 0.0, 0.0, 0.0, -483.3564738460152, 0.0]
['beep', 0.0, 79.84043119435682, 0.0, 0.0, 0.0, 0.0, -921.8082930813185, 0.0]
['beep', 0.0, 181.83144114392294, 0.0, 0.0, 0.0, 0.0, -2244.383364246293, 0.0]
['beep', 0.0, 146.5380366489931, 0.0, 0.0, 0.0, 0.0, -2341.8369700714316, 0.0]
['beep', 0.0, 160.61963565583656, 0.0, 0.0, 0.0, 0.0, -1956.5375991508483, 0.0]
['beep', 0.0, 26.62092764627071, 0.0, 0.0, 0.0, 0.0, -479.04258716614095, 0.0]
['beep', 0.0, 77.96288466011103, 0.0, 0.0, 0.0, 0.0, -885.665522297087, 0.0]
['beep', 0.0, 178.61278994235875, 0.0, 0.0, 0.0, 0.0, -2144.247549086517, 0.0]
['beep', 0.0, 145.97924303761042, 0.0, 0.0, 0.0, 0.0, -2226.032582048486, 0.0]
['beep', 0.0, 158.8761995883226, 0.0, 0.0, 0.0, 0.0, -1865.588350962204, 0.0]
['beep', 0.0, 26.889148579734396, 0.0, 0.0, 0.0, 0.0, -466.68207248235615, 0.0]
['beep', 0.0, 76.577076503882, 0.0, 0.0, 0.0, 0.0, -850.0144898908723, 0.0]
['beep', 0.0, 175.3270835074286, 0.0, 0.0, 0.0, 0.0, -2059.1991614340736, 0.0]
['beep', 0.0, 143.96758603663278, 0.0, 0.0, 0.0, 0.0, -2146.348613065316, 0.0]
['beep', 0.0, 160.50787693356003, 0.0, 0.0, 0.0, 0.0, -1817.9567835279447, 0.0]
['beep', 0.0, 27.8502735913126, 0.0, 0.0, 0.0, 0.0, -462.97168290277517, 0.0]
['beep', 0.0, 76.39826254823954, 0.0, 0.0, 0.0, 0.0, -834.0776960942384, 0.0]
['beep', 0.0, 177.83047888642298, 0.0, 0.0, 0.0, 0.0, -2038.4343908350936, 0.0]
['beep', 0.0, 143.0064610250546, 0.0, 0.0, 0.0, 0.0, -2144.7169357200787, 0.0]
['beep', 0.0, 159.8373245999008, 0.0, 0.0, 0.0, 0.0, -1833.3794872021065, 0.0]
['beep', 0.0, 27.872625335767907, 0.0, 0.0, 0.0, 0.0, -469.7442614727332, 0.0]
['beep', 0.0, 75.68300672566971, 0.0, 0.0, 0.0, 0.0, -837.8327891627299, 0.0]
['beep', 0.0, 177.249333530585, 0.0, 0.0, 0.0, 0.0, -2077.12526048723, 0.0]
['beep', 0.0, 143.47584765861603, 0.0, 0.0, 0.0, 0.0, -2192.214392687606, 0.0]
['beep', 0.0, 161.17842926721923, 0.0, 0.0, 0.0, 0.0, -1872.5620952322597, 0.0]
['beep', 0.0, 28.721991625069574, 0.0, 0.0, 0.0, 0.0, -479.1990493773281, 0.0]
['beep', 0.0, 75.3030270699295, 0.0, 0.0, 0.0, 0.0, -840.5149984973668, 0.0]
['beep', 0.0, 179.66332193175816, 0.0, 0.0, 0.0, 0.0, -2114.475025472048, 0.0]
['beep', 0.0, 144.36991743682833, 0.0, 0.0, 0.0, 0.0, -2234.3250792414046, 0.0]
['beep', 0.0, 160.12789727781978, 0.0, 0.0, 0.0, 0.0, -1908.6378107831254, 0.0]
['beep', 0.0, 28.744343369524884, 0.0, 0.0, 0.0, 0.0, -489.74907276023305, 0.0]
['beep', 0.0, 74.87834392527866, 0.0, 0.0, 0.0, 0.0, -842.5266554983444, 0.0]
['beep', 0.0, 181.40675799927212, 0.0, 0.0, 0.0, 0.0, -2142.2358920855395, 0.0]
['beep', 0.0, 148.7508593500685, 0.0, 0.0, 0.0, 0.0, -2265.863390667843, 0.0]
['beep', 0.0, 164.19591476868567, 0.0, 0.0, 0.0, 0.0, -1936.0186977408766, 0.0]
['beep', 0.0, 30.42072420367291, 0.0, 0.0, 0.0, 0.0, -498.35449437552626, 0.0]
['beep', 0.0, 75.34773055884011, 0.0, 0.0, 0.0, 0.0, -840.1126670971713, 0.0]
['beep', 0.0, 182.34553126639503, 0.0, 0.0, 0.0, 0.0, -2162.933607451154, 0.0]
['beep', 0.0, 148.3932314387836, 0.0, 0.0, 0.0, 0.0, -2292.2831526140158, 0.0]
['beep', 0.0, 166.09581304738677, 0.0, 0.0, 0.0, 0.0, -1962.1031835202198, 0.0]
['beep', 0.0, 31.314793981885195, 0.0, 0.0, 0.0, 0.0, -507.3175439021044, 0.0]
['beep', 0.0, 73.55959100241554, 0.0, 0.0, 0.0, 0.0, -838.3245275407467, 0.0]
['beep', 0.0, 181.20559229917436, 0.0, 0.0, 0.0, 0.0, -2181.0161687154973, 0.0]
['beep', 0.0, 147.65562387175845, 0.0, 0.0, 0.0, 0.0, -2311.8409290124096, 0.0]
['beep', 0.0, 162.9665688236438, 0.0, 0.0, 0.0, 0.0, -1980.8339453737672, 0.0]
['beep', 0.0, 30.577186414860062, 0.0, 0.0, 0.0, 0.0, -514.5148056167133, 0.0]
['beep', 0.0, 72.35259680182897, 0.0, 0.0, 0.0, 0.0, -832.8707018936518, 0.0]
['beep', 0.0, 180.378577754328, 0.0, 0.0, 0.0, 0.0, -2188.5487065969355, 0.0]
['beep', 0.0, 146.35922269335066, 0.0, 0.0, 0.0, 0.0, -2324.179091951739, 0.0]
['beep', 0.0, 162.20660951216334, 0.0, 0.0, 0.0, 0.0, -1993.1497565686414, 0.0]
['beep', 0.0, 30.644241648225982, 0.0, 0.0, 0.0, 0.0, -520.2815556861825, 0.0]
['beep', 0.0, 70.16212584520888, 0.0, 0.0, 0.0, 0.0, -826.3216407682468, 0.0]
['beep', 0.0, 177.71872016414645, 0.0, 0.0, 0.0, 0.0, -2194.449567133137, 0.0]
['beep', 0.0, 144.83930407038977, 0.0, 0.0, 0.0, 0.0, -2333.790342067521, 0.0]
['beep', 0.0, 162.16190602325273, 0.0, 0.0, 0.0, 0.0, -2005.0855881077753, 0.0]
['beep', 0.0, 31.203035259608658, 0.0, 0.0, 0.0, 0.0, -526.8529685560428, 0.0]
['beep', 0.0, 70.05036712293233, 0.0, 0.0, 0.0, 0.0, -822.2536232773809, 0.0]
['beep', 0.0, 179.39510099829448, 0.0, 0.0, 0.0, 0.0, -2201.5127183810137, 0.0]
['beep', 0.0, 146.2698157155294, 0.0, 0.0, 0.0, 0.0, -2341.993432282619, 0.0]
['beep', 0.0, 163.36890022383932, 0.0, 0.0, 0.0, 0.0, -2013.4004370451496, 0.0]
['beep', 0.0, 32.164160271186866, 0.0, 0.0, 0.0, 0.0, -531.9938697807634, 0.0]
['beep', 0.0, 69.69273921164742, 0.0, 0.0, 0.0, 0.0, -814.3634574846575, 0.0]
['beep', 0.0, 181.83144114392294, 0.0, 0.0, 0.0, 0.0, -2201.646828847746, 0.0]
['beep', 0.0, 148.1697139942305, 0.0, 0.0, 0.0, 0.0, -2349.3024527195043, 0.0]
['beep', 0.0, 162.72069963463542, 0.0, 0.0, 0.0, 0.0, -2024.710419739535, 0.0]
['beep', 0.0, 31.851235848812564, 0.0, 0.0, 0.0, 0.0, -538.4758756728024, 0.0]
['beep', 0.0, 68.28457931096308, 0.0, 0.0, 0.0, 0.0, -807.8143963592526, 0.0]
['beep', 0.0, 178.94806610918835, 0.0, 0.0, 0.0, 0.0, -2202.1162154813073, 0.0]
['beep', 0.0, 144.07934475890931, 0.0, 0.0, 0.0, 0.0, -2351.336461464937, 0.0]
['beep', 0.0, 162.2960164899846, 0.0, 0.0, 0.0, 0.0, -2031.482998309493, 0.0]
['beep', 0.0, 32.72295388256954, 0.0, 0.0, 0.0, 0.0, -544.0191082977186, 0.0]
['beep', 0.0, 66.18351533216422, 0.0, 0.0, 0.0, 0.0, -800.4606724334566, 0.0]
['beep', 0.0, 176.5564294524705, 0.0, 0.0, 0.0, 0.0, -2203.0102852595196, 0.0]
['beep', 0.0, 143.90053080326686, 0.0, 0.0, 0.0, 0.0, -2356.4773626896576, 0.0]
['beep', 0.0, 162.89951359027788, 0.0, 0.0, 0.0, 0.0, -2038.2332251349958, 0.0]
['beep', 0.0, 33.48291319404998, 0.0, 0.0, 0.0, 0.0, -550.165838022928, 0.0]
['beep', 0.0, 66.7870124324575, 0.0, 0.0, 0.0, 0.0, -793.3975211855795, 0.0]
['beep', 0.0, 179.68567367621347, 0.0, 0.0, 0.0, 0.0, -2202.0044567590307, 0.0]
['beep', 0.0, 146.2698157155294, 0.0, 0.0, 0.0, 0.0, -2359.0701650464734, 0.0]
['beep', 0.0, 164.218266513141, 0.0, 0.0, 0.0, 0.0, -2044.2681961379287, 0.0]
['beep', 0.0, 33.751134127513666, 0.0, 0.0, 0.0, 0.0, -554.9044078474532, 0.0]
['beep', 0.0, 66.36232928780667, 0.0, 0.0, 0.0, 0.0, -786.5802391267108, 0.0]
['beep', 0.0, 180.89266787680006, 0.0, 0.0, 0.0, 0.0, -2199.5010613800364, 0.0]
['beep', 0.0, 148.7285076056132, 0.0, 0.0, 0.0, 0.0, -2359.89717959132, 0.0]
['beep', 0.0, 166.69931014768008, 0.0, 0.0, 0.0, 0.0, -2051.487809596993, 0.0]
['beep', 0.0, 35.22634926156393, 0.0, 0.0, 0.0, 0.0, -561.5428759506793, 0.0]
['beep', 0.0, 65.58001823187092, 0.0, 0.0, 0.0, 0.0, -779.897067534574, 0.0]
['beep', 0.0, 181.18324055471905, 0.0, 0.0, 0.0, 0.0, -2200.3951311582487, 0.0]
['beep', 0.0, 148.7508593500685, 0.0, 0.0, 0.0, 0.0, -2364.769859882577, 0.0]
['beep', 0.0, 164.35237697987284, 0.0, 0.0, 0.0, 0.0, -2057.2322079220066, 0.0]
['beep', 0.0, 35.1145905392874, 0.0, 0.0, 0.0, 0.0, -566.0802800751067, 0.0]
['beep', 0.0, 63.970692631088816, 0.0, 0.0, 0.0, 0.0, -772.7221575644205, 0.0]
['beep', 0.0, 178.92571436473304, 0.0, 0.0, 0.0, 0.0, -2198.9422677686534, 0.0]
['beep', 0.0, 146.2251122266188, 0.0, 0.0, 0.0, 0.0, -2365.7756883830652, 0.0]
['beep', 0.0, 162.25131300107398, 0.0, 0.0, 0.0, 0.0, -2063.0213097359315, 0.0]
['beep', 0.0, 34.57814867236002, 0.0, 0.0, 0.0, 0.0, -571.8917336334865, 0.0]
['beep', 0.0, 62.674291452681004, 0.0, 0.0, 0.0, 0.0, -765.480192360901, 0.0]
['beep', 0.0, 178.34456900889506, 0.0, 0.0, 0.0, 0.0, -2197.511756123514, 0.0]
['beep', 0.0, 144.41462092573894, 0.0, 0.0, 0.0, 0.0, -2368.748470395621, 0.0]
['beep', 0.0, 162.1172025343421, 0.0, 0.0, 0.0, 0.0, -2068.676301083124, 0.0]
['beep', 0.0, 35.18164577265332, 0.0, 0.0, 0.0, 0.0, -577.4796697473133, 0.0]
['beep', 0.0, 62.16020133020894, 0.0, 0.0, 0.0, 0.0, -758.3723376241134, 0.0]
['beep', 0.0, 179.55156320948163, 0.0, 0.0, 0.0, 0.0, -2195.6565613337234, 0.0]
['beep', 0.0, 147.36505119383946, 0.0, 0.0, 0.0, 0.0, -2369.7095954071997, 0.0]
['beep', 0.0, 165.46996420263818, 0.0, 0.0, 0.0, 0.0, -2072.5431528738923, 0.0]
['beep', 0.0, 36.83567486234604, 0.0, 0.0, 0.0, 0.0, -581.681797704911, 0.0]
['beep', 0.0, 63.188381575153066, 0.0, 0.0, 0.0, 0.0, -751.6221107986106, 0.0]
['beep', 0.0, 183.30665627797322, 0.0, 0.0, 0.0, 0.0, -2194.6507328332345, 0.0]
['beep', 0.0, 151.81304834044556, 0.0, 0.0, 0.0, 0.0, -2371.8777146193643, 0.0]
['beep', 0.0, 168.73331889311302, 0.0, 0.0, 0.0, 0.0, -2077.929923287621, 0.0]
['beep', 0.0, 38.310889996396305, 0.0, 0.0, 0.0, 0.0, -587.4708995188355, 0.0]
['beep', 0.0, 62.62958796377039, 0.0, 0.0, 0.0, 0.0, -744.2013316394487, 0.0]
['beep', 0.0, 185.63123770132515, 0.0, 0.0, 0.0, 0.0, -2193.220221188095, 0.0]
['beep', 0.0, 155.65754838675838, 0.0, 0.0, 0.0, 0.0, -2374.5152204650904, 0.0]
['beep', 0.0, 170.72262414963535, 0.0, 0.0, 0.0, 0.0, -2084.6354466242133, 0.0]
['beep', 0.0, 38.914387096689595, 0.0, 0.0, 0.0, 0.0, -593.0141321437517, 0.0]
['beep', 0.0, 61.86962865228995, 0.0, 0.0, 0.0, 0.0, -734.9030059460409, 0.0]
['beep', 0.0, 184.02191210054303, 0.0, 0.0, 0.0, 0.0, -2191.4544333761255, 0.0]
['beep', 0.0, 152.57300765192602, 0.0, 0.0, 0.0, 0.0, -2377.3091885220038, 0.0]
['beep', 0.0, 168.6215601708365, 0.0, 0.0, 0.0, 0.0, -2090.379844949227, 0.0]
['beep', 0.0, 39.02614581896613, 0.0, 0.0, 0.0, 0.0, -599.8984694359863, 0.0]
['beep', 0.0, 59.88032339576762, 0.0, 0.0, 0.0, 0.0, -727.705744231432, 0.0]
['beep', 0.0, 181.85379288837825, 0.0, 0.0, 0.0, 0.0, -2188.1687269411955, 0.0]
['beep', 0.0, 148.50499016106014, 0.0, 0.0, 0.0, 0.0, -2380.0584530900064, 0.0]
['beep', 0.0, 164.79941186897898, 0.0, 0.0, 0.0, 0.0, -2096.2360019965176, 0.0]
['beep', 0.0, 38.73557314104714, 0.0, 0.0, 0.0, 0.0, -605.6652195054555, 0.0]
['beep', 0.0, 57.86866639478998, 0.0, 0.0, 0.0, 0.0, -720.1061511166276, 0.0]
['beep', 0.0, 178.27751377552914, 0.0, 0.0, 0.0, 0.0, -2184.6818548061674, 0.0]
['beep', 0.0, 148.10265876086459, 0.0, 0.0, 0.0, 0.0, -2379.1867350562497, 0.0]
['beep', 0.0, 165.76053688055717, 0.0, 0.0, 0.0, 0.0, -2101.645124154702, 0.0]
['beep', 0.0, 38.981442330055515, 0.0, 0.0, 0.0, 0.0, -613.4659783203576, 0.0]
['beep', 0.0, 58.248646050530205, 0.0, 0.0, 0.0, 0.0, -714.0041248803288, 0.0]
['beep', 0.0, 180.13270856531963, 0.0, 0.0, 0.0, 0.0, -2184.279523405972, 0.0]
['beep', 0.0, 149.48846691709363, 0.0, 0.0, 0.0, 0.0, -2382.9641798691964, 0.0]
['beep', 0.0, 167.61573167034766, 0.0, 0.0, 0.0, 0.0, -2109.3564759917826, 0.0]
['beep', 0.0, 40.14373304173149, 0.0, 0.0, 0.0, 0.0, -618.8303969896314, 0.0]
['beep', 0.0, 58.69568093963635, 0.0, 0.0, 0.0, 0.0, -705.9798486208736, 0.0]
['beep', 0.0, 181.83144114392294, 0.0, 0.0, 0.0, 0.0, -2181.351444882327, 0.0]
['beep', 0.0, 149.22024598362995, 0.0, 0.0, 0.0, 0.0, -2383.3218077804813, 0.0]
['beep', 0.0, 167.056938058965, 0.0, 0.0, 0.0, 0.0, -2113.8938801162103, 0.0]
['beep', 0.0, 40.99309933103315, 0.0, 0.0, 0.0, 0.0, -625.5582720706788, 0.0]
['beep', 0.0, 57.42163150568384, 0.0, 0.0, 0.0, 0.0, -698.1567380615161, 0.0]
['beep', 0.0, 182.81491789995647, 0.0, 0.0, 0.0, 0.0, -2178.535125080958, 0.0]
['beep', 0.0, 153.66824313023605, 0.0, 0.0, 0.0, 0.0, -2385.646389203833, 0.0]
['beep', 0.0, 170.11912704934204, 0.0, 0.0, 0.0, 0.0, -2119.4371127411264, 0.0]
['beep', 0.0, 41.79776213142421, 0.0, 0.0, 0.0, 0.0, -632.1967401739049, 0.0]
['beep', 0.0, 56.48285823856095, 0.0, 0.0, 0.0, 0.0, -690.3112757577034, 0.0]
['beep', 0.0, 181.74203416610172, 0.0, 0.0, 0.0, 0.0, -2175.6517500462237, 0.0]
['beep', 0.0, 150.5837023954037, 0.0, 0.0, 0.0, 0.0, -2387.211011315705, 0.0]
['beep', 0.0, 166.20757176966333, 0.0, 0.0, 0.0, 0.0, -2124.3992000102044, 0.0]
['beep', 0.0, 41.55189294241583, 0.0, 0.0, 0.0, 0.0, -638.2764146657485, 0.0]
['beep', 0.0, 54.33709077085147, 0.0, 0.0, 0.0, 0.0, -683.3375314876475, 0.0]
['beep', 0.0, 178.97041785364365, 0.0, 0.0, 0.0, 0.0, -2173.863610489799, 0.0]
['beep', 0.0, 147.09683026037578, 0.0, 0.0, 0.0, 0.0, -2388.7756334275764, 0.0]
['beep', 0.0, 163.74887987957953, 0.0, 0.0, 0.0, 0.0, -2128.5789762233467, 0.0]
['beep', 0.0, 41.350727242318065, 0.0, 0.0, 0.0, 0.0, -643.774943801754, 0.0]
['beep', 0.0, 52.25837853650791, 0.0, 0.0, 0.0, 0.0, -675.4026622060135, 0.0]
['beep', 0.0, 177.249333530585, 0.0, 0.0, 0.0, 0.0, -2169.6838342766564, 0.0]
['beep', 0.0, 147.36505119383946, 0.0, 0.0, 0.0, 0.0, -2390.541421239546, 0.0]
['beep', 0.0, 165.71583339164656, 0.0, 0.0, 0.0, 0.0, -2134.9492233931096, 0.0]
['beep', 0.0, 42.803590631913025, 0.0, 0.0, 0.0, 0.0, -650.8604467940863, 0.0]
['beep', 0.0, 53.59948320382634, 0.0, 0.0, 0.0, 0.0, -669.613560392089, 0.0]
['beep', 0.0, 177.2716852750403, 0.0, 0.0, 0.0, 0.0, -2166.0404999304415, 0.0]
['beep', 0.0, 142.55942613594846, 0.0, 0.0, 0.0, 0.0, -2389.334427038959, 0.0]
['beep', 0.0, 159.39028971079466, 0.0, 0.0, 0.0, 0.0, -2136.9161769051766, 0.0]
['beep', 0.0, 40.70252665311416, 0.0, 0.0, 0.0, 0.0, -656.9624730303852, 0.0]
['beep', 0.0, 47.296291267429744, 0.0, 0.0, 0.0, 0.0, -662.0363190217399, 0.0]
['beep', 0.0, 167.48162120361582, 0.0, 0.0, 0.0, 0.0, -2160.989005683542, 0.0]
['beep', 0.0, 138.71492608963564, 0.0, 0.0, 0.0, 0.0, -2389.490889250146, 0.0]
['beep', 0.0, 159.5020484330712, 0.0, 0.0, 0.0, 0.0, -2140.6936217181233, 0.0]
['beep', 0.0, 41.73070689805829, 0.0, 0.0, 0.0, 0.0, -661.7680980882762, 0.0]
['beep', 0.0, 48.65974767920348, 0.0, 0.0, 0.0, 0.0, -655.8672375520752, 0.0]
['beep', 0.0, 171.28141776101802, 0.0, 0.0, 0.0, 0.0, -2160.4525638166147, 0.0]
['beep', 0.0, 142.06768775793168, 0.0, 0.0, 0.0, 0.0, -2392.3295607959703, 0.0]
['beep', 0.0, 161.96074032315497, 0.0, 0.0, 0.0, 0.0, -2146.929758421154, 0.0]
['beep', 0.0, 43.22827377656386, 0.0, 0.0, 0.0, 0.0, -668.9877115473404, 0.0]
['beep', 0.0, 49.64322443523699, 0.0, 0.0, 0.0, 0.0, -649.2064177043936, 0.0]
['beep', 0.0, 175.46119397416044, 0.0, 0.0, 0.0, 0.0, -2156.965691681587, 0.0]
['beep', 0.0, 145.12987674830876, 0.0, 0.0, 0.0, 0.0, -2394.2965143080373, 0.0]
['beep', 0.0, 162.0948507898868, 0.0, 0.0, 0.0, 0.0, -2150.930720678654, 0.0]
['beep', 0.0, 44.055288321410224, 0.0, 0.0, 0.0, 0.0, -675.5591244172007, 0.0]
['beep', 0.0, 47.65391917871466, 0.0, 0.0, 0.0, 0.0, -643.6408333350222, 0.0]
['beep', 0.0, 172.22019102814093, 0.0, 0.0, 0.0, 0.0, -2155.7810492254557, 0.0]
['beep', 0.0, 143.81112382544563, 0.0, 0.0, 0.0, 0.0, -2394.5870869859564, 0.0]
['beep', 0.0, 162.00544381206558, 0.0, 0.0, 0.0, 0.0, -2156.183380625651, 0.0]
['beep', 0.0, 44.21175053259737, 0.0, 0.0, 0.0, 0.0, -681.9964268203291, 0.0]
['beep', 0.0, 47.296291267429744, 0.0, 0.0, 0.0, 0.0, -635.5718535866563, 0.0]
['beep', 0.0, 173.02485382853197, 0.0, 0.0, 0.0, 0.0, -2152.4059358127042, 0.0]
['beep', 0.0, 144.23580697009646, 0.0, 0.0, 0.0, 0.0, -2400.8455754334423, 0.0]
['beep', 0.0, 161.87133334533374, 0.0, 0.0, 0.0, 0.0, -2161.7266132505674, 0.0]
['beep', 0.0, 45.08346856635435, 0.0, 0.0, 0.0, 0.0, -688.2996187567256, 0.0]
['beep', 0.0, 46.40222148921746, 0.0, 0.0, 0.0, 0.0, -630.4309523619357, 0.0]
['beep', 0.0, 172.39900498378339, 0.0, 0.0, 0.0, 0.0, -2150.6848514896456, 0.0]
['beep', 0.0, 143.63230986980318, 0.0, 0.0, 0.0, 0.0, -2403.95246791273, 0.0]
['beep', 0.0, 163.637121157303, 0.0, 0.0, 0.0, 0.0, -2172.2319331445615, 0.0]
['beep', 0.0, 45.8881313667454, 0.0, 0.0, 0.0, 0.0, -695.742749660343, 0.0]
['beep', 0.0, 46.446924978128074, 0.0, 0.0, 0.0, 0.0, -624.4406848479134, 0.0]
['beep', 0.0, 176.15409805227497, 0.0, 0.0, 0.0, 0.0, -2146.5050752765032, 0.0]
['beep', 0.0, 146.67214711572495, 0.0, 0.0, 0.0, 0.0, -2403.304267323526, 0.0]
['beep', 0.0, 164.03945255749852, 0.0, 0.0, 0.0, 0.0, -2176.322302379883, 0.0]
['beep', 0.0, 46.91631161168952, 0.0, 0.0, 0.0, 0.0, -703.90113638653, 0.0]
['beep', 0.0, 45.59755868882641, 0.0, 0.0, 0.0, 0.0, -618.9421557119078, 0.0]
['beep', 0.0, 173.91892360674424, 0.0, 0.0, 0.0, 0.0, -2154.2611306024946, 0.0]
['beep', 0.0, 143.18527498069705, 0.0, 0.0, 0.0, 0.0, -2416.044761663051, 0.0]
['beep', 0.0, 162.3407199788952, 0.0, 0.0, 0.0, 0.0, -2189.599238586335, 0.0]
['beep', 0.0, 46.98336684505544, 0.0, 0.0, 0.0, 0.0, -711.6795434569768, 0.0]
['beep', 0.0, 45.239930777541495, 0.0, 0.0, 0.0, 0.0, -613.0189434312515, 0.0]
['beep', 0.0, 174.1424410512973, 0.0, 0.0, 0.0, 0.0, -2148.3602700662937, 0.0]
['beep', 0.0, 144.83930407038977, 0.0, 0.0, 0.0, 0.0, -2417.1623488858163, 0.0]
['beep', 0.0, 161.67016764523598, 0.0, 0.0, 0.0, 0.0, -2194.2036979441286, 0.0]
['beep', 0.0, 47.25158777851913, 0.0, 0.0, 0.0, 0.0, -719.0779708716835, 0.0]
['beep', 0.0, 44.457619721605745, 0.0, 0.0, 0.0, 0.0, -608.7050567513772, 0.0]
['beep', 0.0, 173.31542650645096, 0.0, 0.0, 0.0, 0.0, -2151.3777555677602, 0.0]
['beep', 0.0, 144.36991743682833, 0.0, 0.0, 0.0, 0.0, -2421.9679739437074, 0.0]
['beep', 0.0, 161.0443188004874, 0.0, 0.0, 0.0, 0.0, -2200.6186486028014, 0.0]
['beep', 0.0, 47.40804998970628, 0.0, 0.0, 0.0, 0.0, -725.0905901301611, 0.0]
['beep', 0.0, 42.7141836540918, 0.0, 0.0, 0.0, 0.0, -602.1783473704276, 0.0]
['beep', 0.0, 170.72262414963535, 0.0, 0.0, 0.0, 0.0, -2151.288348589939, 0.0]
['beep', 0.0, 143.11821974733112, 0.0, 0.0, 0.0, 0.0, -2430.1487124143496, 0.0]
['beep', 0.0, 160.88785658930024, 0.0, 0.0, 0.0, 0.0, -2211.347485941349, 0.0]
['beep', 0.0, 47.58686394534874, 0.0, 0.0, 0.0, 0.0, -733.5619012787225, 0.0]
['beep', 0.0, 41.97657608706666, 0.0, 0.0, 0.0, 0.0, -595.6963414783885, 0.0]
['beep', 0.0, 171.2367142721074, 0.0, 0.0, 0.0, 0.0, -2150.930720678654, 0.0]
['beep', 0.0, 145.3086907039512, 0.0, 0.0, 0.0, 0.0, -2435.468427594713, 0.0]
['beep', 0.0, 163.52536243502647, 0.0, 0.0, 0.0, 0.0, -2215.43785517667, 0.0]
['beep', 0.0, 49.598520946326374, 0.0, 0.0, 0.0, 0.0, -740.2227211264039, 0.0]
['beep', 0.0, 42.84829412082364, 0.0, 0.0, 0.0, 0.0, -588.4320245304137, 0.0]
['beep', 0.0, 173.4718887176381, 0.0, 0.0, 0.0, 0.0, -2145.320432820372, 0.0]
['beep', 0.0, 147.1415337492864, 0.0, 0.0, 0.0, 0.0, -2434.7084682832324, 0.0]
['beep', 0.0, 165.08998454689797, 0.0, 0.0, 0.0, 0.0, -2220.91403256822, 0.0]
['beep', 0.0, 49.91144536870067, 0.0, 0.0, 0.0, 0.0, -746.0118229403286, 0.0]
['beep', 0.0, 41.30602375340745, 0.0, 0.0, 0.0, 0.0, -583.3358267946037, 0.0]
['beep', 0.0, 177.29403701949562, 0.0, 0.0, 0.0, 0.0, -2143.8228659418664, 0.0]
['beep', 0.0, 155.88106583131145, 0.0, 0.0, 0.0, 0.0, -2436.3177938840145, 0.0]
['beep', 0.0, 173.8071648844677, 0.0, 0.0, 0.0, 0.0, -2224.244442492061, 0.0]
['beep', 0.0, 54.1135733262984, 0.0, 0.0, 0.0, 0.0, -752.2703113878144, 0.0]
['beep', 0.0, 43.38473598775101, 0.0, 0.0, 0.0, 0.0, -575.6468267019781, 0.0]
['beep', 0.0, 181.18324055471905, 0.0, 0.0, 0.0, 0.0, -2136.312679804883, 0.0]
['beep', 0.0, 155.54578966448184, 0.0, 0.0, 0.0, 0.0, -2437.882415995886, 0.0]
['beep', 0.0, 170.43205147171636, 0.0, 0.0, 0.0, 0.0, -2229.5194541835135, 0.0]
['beep', 0.0, 53.10774482580958, 0.0, 0.0, 0.0, 0.0, -760.8980847475631, 0.0]
['beep', 0.0, 42.15539004270912, 0.0, 0.0, 0.0, 0.0, -571.5117539777463, 0.0]
['beep', 0.0, 178.4563277311716, 0.0, 0.0, 0.0, 0.0, -2132.6246419697572, 0.0]
['beep', 0.0, 152.08126927390924, 0.0, 0.0, 0.0, 0.0, -2434.239081649671, 0.0]
['beep', 0.0, 167.7274903926242, 0.0, 0.0, 0.0, 0.0, -2229.7206198836116, 0.0]
['beep', 0.0, 53.823000648379406, 0.0, 0.0, 0.0, 0.0, -766.5530760947557, 0.0]
['beep', 0.0, 42.065983064887895, 0.0, 0.0, 0.0, 0.0, -565.3203207636262, 0.0]
['beep', 0.0, 180.088005076409, 0.0, 0.0, 0.0, 0.0, -2129.987136124031, 0.0]
['beep', 0.0, 155.29992047547347, 0.0, 0.0, 0.0, 0.0, -2438.441209607269, 0.0]
['beep', 0.0, 171.41552822774986, 0.0, 0.0, 0.0, 0.0, -2236.2249775201058, 0.0]
['beep', 0.0, 55.65584369371459, 0.0, 0.0, 0.0, 0.0, -774.7561663098534, 0.0]
['beep', 0.0, 42.44596272062811, 0.0, 0.0, 0.0, 0.0, -558.458335215847, 0.0]
['beep', 0.0, 183.2396010446073, 0.0, 0.0, 0.0, 0.0, -2125.13680757723, 0.0]
['beep', 0.0, 157.6468536432807, 0.0, 0.0, 0.0, 0.0, -2439.2905758965703, 0.0]
['beep', 0.0, 174.3883102403057, 0.0, 0.0, 0.0, 0.0, -2241.2988235114603, 0.0]
['beep', 0.0, 57.53339022796038, 0.0, 0.0, 0.0, 0.0, -781.349930924169, 0.0]
['beep', 0.0, 40.76958188648008, 0.0, 0.0, 0.0, 0.0, -552.3786607240035, 0.0]
['beep', 0.0, 180.3338742654174, 0.0, 0.0, 0.0, 0.0, -2122.9686883650647, 0.0]
['beep', 0.0, 156.0375280424986, 0.0, 0.0, 0.0, 0.0, -2442.91155849833, 0.0]
['beep', 0.0, 172.64487417279176, 0.0, 0.0, 0.0, 0.0, -2247.3337945143935, 0.0]
['beep', 0.0, 56.90754138321178, 0.0, 0.0, 0.0, 0.0, -789.0836345057053, 0.0]
['beep', 0.0, 39.36142198579574, 0.0, 0.0, 0.0, 0.0, -547.7071461328443, 0.0]
['beep', 0.0, 178.7916038980012, 0.0, 0.0, 0.0, 0.0, -2121.158197064185, 0.0]
['beep', 0.0, 156.17163850923043, 0.0, 0.0, 0.0, 0.0, -2445.3702503884138, 0.0]
['beep', 0.0, 172.13078405031968, 0.0, 0.0, 0.0, 0.0, -2251.7147364276334, 0.0]
['beep', 0.0, 57.62279720578161, 0.0, 0.0, 0.0, 0.0, -796.6608758760543, 0.0]
['beep', 0.0, 38.19913127411977, 0.0, 0.0, 0.0, 0.0, -542.6333001414896, 0.0]
['beep', 0.0, 177.33874050840623, 0.0, 0.0, 0.0, 0.0, -2117.6936766736126, 0.0]
['beep', 0.0, 155.00934779755448, 0.0, 0.0, 0.0, 0.0, -2448.72301205671, 0.0]
['beep', 0.0, 170.61086542735882, 0.0, 0.0, 0.0, 0.0, -2258.330852786404, 0.0]
['beep', 0.0, 57.55574197241569, 0.0, 0.0, 0.0, 0.0, -804.9533730689733, 0.0]
['beep', 0.0, 37.88620685174547, 0.0, 0.0, 0.0, 0.0, -537.8723785725092, 0.0]
['beep', 0.0, 176.8917056193001, 0.0, 0.0, 0.0, 0.0, -2113.402141738193, 0.0]
['beep', 0.0, 154.3611472083506, 0.0, 0.0, 0.0, 0.0, -2448.879474267897, 0.0]
['beep', 0.0, 168.93448459321078, 0.0, 0.0, 0.0, 0.0, -2262.801201677466, 0.0]
['beep', 0.0, 57.332224527862614, 0.0, 0.0, 0.0, 0.0, -813.3129254952581, 0.0]
['beep', 0.0, 37.260358006996874, 0.0, 0.0, 0.0, 0.0, -531.748000591755, 0.0]
['beep', 0.0, 176.28820851900682, 0.0, 0.0, 0.0, 0.0, -2108.3282957468386, 0.0]
['beep', 0.0, 152.93063556321093, 0.0, 0.0, 0.0, 0.0, -2449.8629510239307, 0.0]
['beep', 0.0, 169.22505727112977, 0.0, 0.0, 0.0, 0.0, -2267.11508835734, 0.0]
['beep', 0.0, 58.76273617300227, 0.0, 0.0, 0.0, 0.0, -819.6161174316546, 0.0]
['beep', 0.0, 37.01448881798849, 0.0, 0.0, 0.0, 0.0, -525.9588987778305, 0.0]
['beep', 0.0, 175.9976358410878, 0.0, 0.0, 0.0, 0.0, -2105.579031178836, 0.0]
['beep', 0.0, 153.1318012633087, 0.0, 0.0, 0.0, 0.0, -2453.752154559154, 0.0]
['beep', 0.0, 170.83438287191188, 0.0, 0.0, 0.0, 0.0, -2274.580571005413, 0.0]
['beep', 0.0, 60.684986196158675, 0.0, 0.0, 0.0, 0.0, -828.7803326583306, 0.0]
['beep', 0.0, 36.67921265115889, 0.0, 0.0, 0.0, 0.0, -520.1697969639059, 0.0]
['beep', 0.0, 178.00929284206543, 0.0, 0.0, 0.0, 0.0, -2099.186432264618, 0.0]
['beep', 0.0, 153.75765010805728, 0.0, 0.0, 0.0, 0.0, -2452.2545876806485, 0.0]
['beep', 0.0, 171.61669392784762, 0.0, 0.0, 0.0, 0.0, -2272.054823881963, 0.0]
['beep', 0.0, 62.56253273040447, 0.0, 0.0, 0.0, 0.0, -834.3012135387914, 0.0]
['beep', 0.0, 38.847331863323674, 0.0, 0.0, 0.0, 0.0, -513.4866253717692, 0.0]
['beep', 0.0, 187.732301680124, 0.0, 0.0, 0.0, 0.0, -2079.1145657437523, 0.0]
['beep', 0.0, 169.44857471568284, 0.0, 0.0, 0.0, 0.0, -2423.9125757113193, 0.0]
['beep', 0.0, 184.8042231564788, 0.0, 0.0, 0.0, 0.0, -2250.530093971502, 0.0]
['beep', 0.0, 67.27875081047426, 0.0, 0.0, 0.0, 0.0, -833.6083094606769, 0.0]
['beep', 0.0, 36.7015643956142, 0.0, 0.0, 0.0, 0.0, -506.3564188905262, 0.0]
['beep', 0.0, 180.87031613234475, 0.0, 0.0, 0.0, 0.0, -2070.8220685508336, 0.0]
['beep', 0.0, 160.1726007667304, 0.0, 0.0, 0.0, 0.0, -2420.1574826428273, 0.0]
['beep', 0.0, 174.70123466268, 0.0, 0.0, 0.0, 0.0, -2253.5922829618794, 0.0]
['beep', 0.0, 63.3001402974296, 0.0, 0.0, 0.0, 0.0, -843.2419113209143, 0.0]
['beep', 0.0, 35.49457019502761, 0.0, 0.0, 0.0, 0.0, -502.44486361084745, 0.0]
['beep', 0.0, 179.93154286522184, 0.0, 0.0, 0.0, 0.0, -2075.2700656974393, 0.0]
['beep', 0.0, 160.06084204445386, 0.0, 0.0, 0.0, 0.0, -2440.0952386969616, 0.0]
['beep', 0.0, 175.41649048524982, 0.0, 0.0, 0.0, 0.0, -2272.5465622599795, 0.0]
['beep', 0.0, 64.12715484227596, 0.0, 0.0, 0.0, 0.0, -852.6296439921432, 0.0]
['beep', 0.0, 35.62868066175946, 0.0, 0.0, 0.0, 0.0, -498.37684611998156, 0.0]
['beep', 0.0, 181.92084812174417, 0.0, 0.0, 0.0, 0.0, -2078.958103532565, 0.0]
['beep', 0.0, 161.69251938969128, 0.0, 0.0, 0.0, 0.0, -2453.81920979252, 0.0]
['beep', 0.0, 177.33874050840623, 0.0, 0.0, 0.0, 0.0, -2286.2034781221723, 0.0]
['beep', 0.0, 66.04940486543236, 0.0, 0.0, 0.0, 0.0, -860.8550859516962, 0.0]
['beep', 0.0, 34.73461088354718, 0.0, 0.0, 0.0, 0.0, -492.87831698397605, 0.0]
['beep', 0.0, 181.96555161065479, 0.0, 0.0, 0.0, 0.0, -2075.672397097635, 0.0]
['beep', 0.0, 163.23478975710748, 0.0, 0.0, 0.0, 0.0, -2456.948454016263, 0.0]
['beep', 0.0, 179.26099053156264, 0.0, 0.0, 0.0, 0.0, -2294.5853822929125, 0.0]
['beep', 0.0, 67.03288162146588, 0.0, 0.0, 0.0, 0.0, -871.1368884011374, 0.0]
['beep', 0.0, 34.488741694538795, 0.0, 0.0, 0.0, 0.0, -488.43031983736995, 0.0]
['beep', 0.0, 182.68080743322463, 0.0, 0.0, 0.0, 0.0, -2077.8852197987103, 0.0]
['beep', 0.0, 163.39125196829463, 0.0, 0.0, 0.0, 0.0, -2464.7045093422544, 0.0]
['beep', 0.0, 177.78577539751237, 0.0, 0.0, 0.0, 0.0, -2298.9663242061524, 0.0]
['beep', 0.0, 67.7481374440357, 0.0, 0.0, 0.0, 0.0, -876.5683623037771, 0.0]
['beep', 0.0, 33.237044005041604, 0.0, 0.0, 0.0, 0.0, -481.90361045642027, 0.0]
['beep', 0.0, 181.9879033551101, 0.0, 0.0, 0.0, 0.0, -2073.4595743965597, 0.0]
['beep', 0.0, 164.8664671023449, 0.0, 0.0, 0.0, 0.0, -2469.4430791667796, 0.0]
['beep', 0.0, 176.73524340811295, 0.0, 0.0, 0.0, 0.0, -2309.851623755887, 0.0]
['beep', 0.0, 67.34580604384018, 0.0, 0.0, 0.0, 0.0, -885.7102257859976, 0.0]
['beep', 0.0, 31.73947712653603, 0.0, 0.0, 0.0, 0.0, -477.1873923763505, 0.0]
['beep', 0.0, 178.5010312200822, 0.0, 0.0, 0.0, 0.0, -2070.6879580841014, 0.0]
['beep', 0.0, 161.80427811196782, 0.0, 0.0, 0.0, 0.0, -2472.0358815235954, 0.0]
['beep', 0.0, 174.90240036277777, 0.0, 0.0, 0.0, 0.0, -2312.60088832389, 0.0]
['beep', 0.0, 67.4128612772061, 0.0, 0.0, 0.0, 0.0, -893.086301456249, 0.0]
['beep', 0.0, 31.58301491534888, 0.0, 0.0, 0.0, 0.0, -472.7393952297444, 0.0]
['beep', 0.0, 179.05982483146488, 0.0, 0.0, 0.0, 0.0, -2068.3410249162944, 0.0]
['beep', 0.0, 162.6536444012695, 0.0, 0.0, 0.0, 0.0, -2473.3546344464585, 0.0]
['beep', 0.0, 176.8917056193001, 0.0, 0.0, 0.0, 0.0, -2316.668905814756, 0.0]
['beep', 0.0, 69.40216653372843, 0.0, 0.0, 0.0, 0.0, -901.8258335382741, 0.0]
['beep', 0.0, 31.247738748519275, 0.0, 0.0, 0.0, 0.0, -466.9055899269092, 0.0]
['beep', 0.0, 178.88101087582243, 0.0, 0.0, 0.0, 0.0, -2058.2380364224955, 0.0]
['beep', 0.0, 162.6759961457248, 0.0, 0.0, 0.0, 0.0, -2469.264265211137, 0.0]
['beep', 0.0, 176.37761549682804, 0.0, 0.0, 0.0, 0.0, -2316.4230366257475, 0.0]
['beep', 0.0, 69.22335257808598, 0.0, 0.0, 0.0, 0.0, -907.7713975633858, 0.0]
['beep', 0.0, 30.778352114957826, 0.0, 0.0, 0.0, 0.0, -461.4964677687249, 0.0]
['beep', 0.0, 179.95389460967715, 0.0, 0.0, 0.0, 0.0, -2054.9523299875655, 0.0]
['beep', 0.0, 164.35237697987284, 0.0, 0.0, 0.0, 0.0, -2474.0922420134834, 0.0]
['beep', 0.0, 179.37274925383917, 0.0, 0.0, 0.0, 0.0, -2325.6543070857892, 0.0]
['beep', 0.0, 71.59263749034852, 0.0, 0.0, 0.0, 0.0, -915.795673822841, 0.0]
['beep', 0.0, 31.337145726340502, 0.0, 0.0, 0.0, 0.0, -457.45080202231435, 0.0]
['beep', 0.0, 183.01608360005423, 0.0, 0.0, 0.0, 0.0, -2050.236111907496, 0.0]
['beep', 0.0, 167.4369177147052, 0.0, 0.0, 0.0, 0.0, -2475.6121606364445, 0.0]
['beep', 0.0, 180.42328124323862, 0.0, 0.0, 0.0, 0.0, -2330.3258216769486, 0.0]
['beep', 0.0, 72.50905901301611, 0.0, 0.0, 0.0, 0.0, -925.9433658055503, 0.0]
['beep', 0.0, 30.19720675911984, 0.0, 0.0, 0.0, 0.0, -453.1369153424401, 0.0]
['beep', 0.0, 181.22794404362966, 0.0, 0.0, 0.0, 0.0, -2044.7822862604007, 0.0]
['beep', 0.0, 168.3309874929175, 0.0, 0.0, 0.0, 0.0, -2475.3886431918913, 0.0]
['beep', 0.0, 180.6467986877917, 0.0, 0.0, 0.0, 0.0, -2330.862263543876, 0.0]
['beep', 0.0, 73.22431483558594, 0.0, 0.0, 0.0, 0.0, -933.7664763649078, 0.0]
['beep', 0.0, 29.52665442546063, 0.0, 0.0, 0.0, 0.0, -448.7783251736552, 0.0]
['beep', 0.0, 179.4845079761157, 0.0, 0.0, 0.0, 0.0, -2041.1389519141856, 0.0]
['beep', 0.0, 164.59824616888122, 0.0, 0.0, 0.0, 0.0, -2477.3555967039583, 0.0]
['beep', 0.0, 176.0423393299984, 0.0, 0.0, 0.0, 0.0, -2335.8690543018647, 0.0]
['beep', 0.0, 72.21848633509713, 0.0, 0.0, 0.0, 0.0, -940.8743311016955, 0.0]
['beep', 0.0, 28.565529413882427, 0.0, 0.0, 0.0, 0.0, -443.2127408042837, 0.0]
['beep', 0.0, 177.71872016414645, 0.0, 0.0, 0.0, 0.0, -2034.8357599777892, 0.0]
['beep', 0.0, 163.16773452374156, 0.0, 0.0, 0.0, 0.0, -2478.517887415634, 0.0]
['beep', 0.0, 175.81882188544535, 0.0, 0.0, 0.0, 0.0, -2336.427847913247, 0.0]
['beep', 0.0, 73.67134972469208, 0.0, 0.0, 0.0, 0.0, -948.0268893273937, 0.0]
['beep', 0.0, 28.632584647248347, 0.0, 0.0, 0.0, 0.0, -441.24578729221673, 0.0]
['beep', 0.0, 179.1492318092861, 0.0, 0.0, 0.0, 0.0, -2032.1759023876075, 0.0]
['beep', 0.0, 165.5370194360041, 0.0, 0.0, 0.0, 0.0, -2478.160259504349, 0.0]
['beep', 0.0, 177.2046300416744, 0.0, 0.0, 0.0, 0.0, -2339.1324089923396, 0.0]
['beep', 0.0, 75.14656485874235, 0.0, 0.0, 0.0, 0.0, -955.5147237199217, 0.0]
['beep', 0.0, 27.55970091339361, 0.0, 0.0, 0.0, 0.0, -435.5460924561134, 0.0]
['beep', 0.0, 178.88101087582243, 0.0, 0.0, 0.0, 0.0, -2024.5539575283478, 0.0]
['beep', 0.0, 167.21340027015214, 0.0, 0.0, 0.0, 0.0, -2478.6072943934555, 0.0]
['beep', 0.0, 178.05399633097605, 0.0, 0.0, 0.0, 0.0, -2343.9380340502303, 0.0]
['beep', 0.0, 75.9512276591334, 0.0, 0.0, 0.0, 0.0, -964.1872005685808, 0.0]
['beep', 0.0, 27.447942191117072, 0.0, 0.0, 0.0, 0.0, -431.7686476431665, 0.0]
['beep', 0.0, 178.54573470899282, 0.0, 0.0, 0.0, 0.0, -2018.9883731589764, 0.0]
['beep', 0.0, 166.54284793649293, 0.0, 0.0, 0.0, 0.0, -2476.238009481193, 0.0]
['beep', 0.0, 177.98694109761013, 0.0, 0.0, 0.0, 0.0, -2344.005089283596, 0.0]
['beep', 0.0, 76.13004161477586, 0.0, 0.0, 0.0, 0.0, -969.8868954046841, 0.0]
['beep', 0.0, 26.55387241290479, 0.0, 0.0, 0.0, 0.0, -426.0466010626079, 0.0]
['beep', 0.0, 177.02581608603194, 0.0, 0.0, 0.0, 0.0, -2011.1876143440743, 0.0]
['beep', 0.0, 163.9500455796773, 0.0, 0.0, 0.0, 0.0, -2474.9639600472406, 0.0]
['beep', 0.0, 177.65166493078053, 0.0, 0.0, 0.0, 0.0, -2346.3967259403144, 0.0]
['beep', 0.0, 77.60525674882612, 0.0, 0.0, 0.0, 0.0, -978.6040757422538, 0.0]
['beep', 0.0, 25.659802634692507, 0.0, 0.0, 0.0, 0.0, -421.97858357174204, 0.0]
['beep', 0.0, 173.53894395100403, 0.0, 0.0, 0.0, 0.0, -2006.9631346420213, 0.0]
['beep', 0.0, 158.16094376575276, 0.0, 0.0, 0.0, 0.0, -2481.915352572841, 0.0]
['beep', 0.0, 167.95100783717726, 0.0, 0.0, 0.0, 0.0, -2357.282025490049, 0.0]
['beep', 0.0, 72.82198343539041, 0.0, 0.0, 0.0, 0.0, -990.2716863479241, 0.0]
['beep', 0.0, 23.29051772242996, 0.0, 0.0, 0.0, 0.0, -420.03398180413035, 0.0]
['beep', 0.0, 167.66043515925827, 0.0, 0.0, 0.0, 0.0, -2014.383913801183, 0.0]
['beep', 0.0, 157.55744666545948, 0.0, 0.0, 0.0, 0.0, -2495.393454479391, 0.0]
['beep', 0.0, 170.5661619384482, 0.0, 0.0, 0.0, 0.0, -2367.5861796839454, 0.0]
['beep', 0.0, 75.50419277002726, 0.0, 0.0, 0.0, 0.0, -999.4582533190553, 0.0]
['beep', 0.0, 23.49168342252772, 0.0, 0.0, 0.0, 0.0, -414.84837709049907, 0.0]
['beep', 0.0, 168.88978110430017, 0.0, 0.0, 0.0, 0.0, -2004.482091007482, 0.0]
['beep', 0.0, 158.09388853238684, 0.0, 0.0, 0.0, 0.0, -2492.2642102556483, 0.0]
['beep', 0.0, 168.57685668192588, 0.0, 0.0, 0.0, 0.0, -2367.7426418951322, 0.0]
['beep', 0.0, 75.12421311428703, 0.0, 0.0, 0.0, 0.0, -1005.8061487443625, 0.0]
['beep', 0.0, 22.642317133226054, 0.0, 0.0, 0.0, 0.0, -410.4897869217142, 0.0]
['beep', 0.0, 168.42039447073873, 0.0, 0.0, 0.0, 0.0, -1996.4354630035716, 0.0]
['beep', 0.0, 158.65268214376954, 0.0, 0.0, 0.0, 0.0, -2488.39735846488, 0.0]
['beep', 0.0, 170.2308857716186, 0.0, 0.0, 0.0, 0.0, -2366.334481994448, 0.0]
['beep', 0.0, 76.68883522615853, 0.0, 0.0, 0.0, 0.0, -1012.7351895255077, 0.0]
['beep', 0.0, 22.709372366591975, 0.0, 0.0, 0.0, 0.0, -405.55005139709135, 0.0]
['beep', 0.0, 168.1074700483644, 0.0, 0.0, 0.0, 0.0, -1986.6230471876918, 0.0]
