['beep', 0.0, -1389.3620835974318, 0.0, 0.0, 0.0, 0.0, -7632.159606475784, 0.0]
['beep', 0.0, -1336.969594594192, 0.0, 0.0, 0.0, 0.0, -7578.873047694332, 0.0]
['beep', 0.0, -1332.3651352363986, 0.0, 0.0, 0.0, 0.0, -7279.672596415591, 0.0]
['beep', 0.0, -1335.8296556269713, 0.0, 0.0, 0.0, 0.0, -7449.434095553648, 0.0]
['beep', 0.0, -1357.8014204265382, 0.0, 0.0, 0.0, 0.0, -7642.7543333476, 0.0]
['beep', 0.0, -1389.384435341887, 0.0, 0.0, 0.0, 0.0, -7633.411304165281, 0.0]
['beep', 0.0, -1336.8578358719153, 0.0, 0.0, 0.0, 0.0, -7569.552370256469, 0.0]
['beep', 0.0, -1328.0288968120692, 0.0, 0.0, 0.0, 0.0, -7250.6600321126025, 0.0]
['beep', 0.0, -1331.6722311582841, 0.0, 0.0, 0.0, 0.0, -7426.590612720324, 0.0]
['beep', 0.0, -1357.3543855374319, 0.0, 0.0, 0.0, 0.0, -7639.647440868312, 0.0]
['beep', 0.0, -1386.0093219291357, 0.0, 0.0, 0.0, 0.0, -7632.0254960090515, 0.0]
['beep', 0.0, -1328.8335596124602, 0.0, 0.0, 0.0, 0.0, -7565.685518465701, 0.0]
['beep', 0.0, -1323.6926583877396, 0.0, 0.0, 0.0, 0.0, -7224.352028888707, 0.0]
['beep', 0.0, -1330.9793270801697, 0.0, 0.0, 0.0, 0.0, -7401.355493230283, 0.0]
['beep', 0.0, -1348.6372051998621, 0.0, 0.0, 0.0, 0.0, -7635.244147210616, 0.0]
['beep', 0.0, -1375.1463741238565, 0.0, 0.0, 0.0, 0.0, -7637.456969911692, 0.0]
['beep', 0.0, -1329.1688357792898, 0.0, 0.0, 0.0, 0.0, -7557.527131739514, 0.0]
['beep', 0.0, -1326.0619433000022, 0.0, 0.0, 0.0, 0.0, -7191.338502328218, 0.0]
['beep', 0.0, -1329.258242757111, 0.0, 0.0, 0.0, 0.0, -7371.381803915716, 0.0]
['beep', 0.0, -1343.3621935084097, 0.0, 0.0, 0.0, 0.0, -7636.786417578032, 0.0]
['beep', 0.0, -1374.4981735346526, 0.0, 0.0, 0.0, 0.0, -7638.08281875644, 0.0]
['beep', 0.0, -1333.7285916481724, 0.0, 0.0, 0.0, 0.0, -7549.122875824318, 0.0]
['beep', 0.0, -1328.2524142566222, 0.0, 0.0, 0.0, 0.0, -7161.476571735928, 0.0]
['beep', 0.0, -1332.83452186996, 0.0, 0.0, 0.0, 0.0, -7345.431428603105, 0.0]
['beep', 0.0, -1343.7645249086054, 0.0, 0.0, 0.0, 0.0, -7637.1887489782275, 0.0]
['beep', 0.0, -1363.478763518186, 0.0, 0.0, 0.0, 0.0, -7645.034211282041, 0.0]
['beep', 0.0, -1323.73736187665, 0.0, 0.0, 0.0, 0.0, -7546.328907767404, 0.0]
['beep', 0.0, -1331.1357892913568, 0.0, 0.0, 0.0, 0.0, -7137.560205168749, 0.0]
['beep', 0.0, -1330.9793270801697, 0.0, 0.0, 0.0, 0.0, -7322.8561667032445, 0.0]
['beep', 0.0, -1339.2941760175438, 0.0, 0.0, 0.0, 0.0, -7630.974964019652, 0.0]
['beep', 0.0, -1361.4000512838427, 0.0, 0.0, 0.0, 0.0, -7633.970097776663, 0.0]
['beep', 0.0, -1328.1183037898904, 0.0, 0.0, 0.0, 0.0, -7540.316288508927, 0.0]
['beep', 0.0, -1328.1183037898904, 0.0, 0.0, 0.0, 0.0, -7117.93537353699, 0.0]
['beep', 0.0, -1329.0794288014686, 0.0, 0.0, 0.0, 0.0, -7304.415977527617, 0.0]
['beep', 0.0, -1335.7178969046947, 0.0, 0.0, 0.0, 0.0, -7636.764065833577, 0.0]
['beep', 0.0, -1351.3194145344992, 0.0, 0.0, 0.0, 0.0, -7641.815560080477, 0.0]
['beep', 0.0, -1333.0580393145133, 0.0, 0.0, 0.0, 0.0, -7531.800273871455, 0.0]
['beep', 0.0, -1327.3359927339545, 0.0, 0.0, 0.0, 0.0, -7099.78575703928, 0.0]
['beep', 0.0, -1329.9734985796808, 0.0, 0.0, 0.0, 0.0, -7285.752270907435, 0.0]
['beep', 0.0, -1332.9239288477813, 0.0, 0.0, 0.0, 0.0, -7628.918603529764, 0.0]
['beep', 0.0, -1345.2620917871109, 0.0, 0.0, 0.0, 0.0, -7637.635783867334, 0.0]
['beep', 0.0, -1322.2397949981446, 0.0, 0.0, 0.0, 0.0, -7529.721561637111, 0.0]
['beep', 0.0, -1324.9667078216921, 0.0, 0.0, 0.0, 0.0, -7086.30765513273, 0.0]
['beep', 0.0, -1329.3252979904769, 0.0, 0.0, 0.0, 0.0, -7271.156581778119, 0.0]
['beep', 0.0, -1333.54977769253, 0.0, 0.0, 0.0, 0.0, -7627.644554095812, 0.0]
['beep', 0.0, -1343.6304144418734, 0.0, 0.0, 0.0, 0.0, -7637.121693744862, 0.0]
['beep', 0.0, -1323.0221060540803, 0.0, 0.0, 0.0, 0.0, -7528.000477314053, 0.0]
['beep', 0.0, -1326.8219026114825, 0.0, 0.0, 0.0, 0.0, -7075.690576516459, 0.0]
['beep', 0.0, -1331.806341625016, 0.0, 0.0, 0.0, 0.0, -7257.633776382659, 0.0]
['beep', 0.0, -1334.2203300261892, 0.0, 0.0, 0.0, 0.0, -7626.906946528787, 0.0]
['beep', 0.0, -1341.4175917407981, 0.0, 0.0, 0.0, 0.0, -7637.233452467139, 0.0]
['beep', 0.0, -1320.6304693973625, 0.0, 0.0, 0.0, 0.0, -7523.396017956259, 0.0]
['beep', 0.0, -1327.0677718004908, 0.0, 0.0, 0.0, 0.0, -7070.549675291739, 0.0]
['beep', 0.0, -1329.5264636905747, 0.0, 0.0, 0.0, 0.0, -7249.296575700829, 0.0]
['beep', 0.0, -1332.096914302935, 0.0, 0.0, 0.0, 0.0, -7623.6882953272225, 0.0]
['beep', 0.0, -1348.3689842663985, 0.0, 0.0, 0.0, 0.0, -7638.216929223172, 0.0]
['beep', 0.0, -1326.0619433000022, 0.0, 0.0, 0.0, 0.0, -7524.87123309031, 0.0]
['beep', 0.0, -1325.2125770107004, 0.0, 0.0, 0.0, 0.0, -7067.711003745914, 0.0]
['beep', 0.0, -1327.6265654118736, 0.0, 0.0, 0.0, 0.0, -7244.043915753832, 0.0]
['beep', 0.0, -1330.2417195131445, 0.0, 0.0, 0.0, 0.0, -7620.179071447739, 0.0]
['beep', 0.0, -1337.1037050609239, 0.0, 0.0, 0.0, 0.0, -7634.618298365867, 0.0]
['beep', 0.0, -1331.1357892913568, 0.0, 0.0, 0.0, 0.0, -7522.792520855966, 0.0]
['beep', 0.0, -1326.8889578448484, 0.0, 0.0, 0.0, 0.0, -7063.754744977325, 0.0]
['beep', 0.0, -1329.7946846240384, 0.0, 0.0, 0.0, 0.0, -7237.271337183874, 0.0]
['beep', 0.0, -1332.1416177918456, 0.0, 0.0, 0.0, 0.0, -7622.861280782376, 0.0]
['beep', 0.0, -1339.5847486954628, 0.0, 0.0, 0.0, 0.0, -7637.926356545253, 0.0]
['beep', 0.0, -1321.5692426644855, 0.0, 0.0, 0.0, 0.0, -7527.553442424946, 0.0]
['beep', 0.0, -1330.7334578911614, 0.0, 0.0, 0.0, 0.0, -7065.028794411278, 0.0]
['beep', 0.0, -1329.0570770570132, 0.0, 0.0, 0.0, 0.0, -7233.426837137561, 0.0]
['beep', 0.0, -1324.2514519991223, 0.0, 0.0, 0.0, 0.0, -7622.436597637725, 0.0]
['beep', 0.0, -1333.5721294369853, 0.0, 0.0, 0.0, 0.0, -7640.072124012962, 0.0]
['beep', 0.0, -1319.9599170637032, 0.0, 0.0, 0.0, 0.0, -7526.167634268718, 0.0]
['beep', 0.0, -1328.5653386789966, 0.0, 0.0, 0.0, 0.0, -7068.090983401655, 0.0]
['beep', 0.0, -1330.3087747465104, 0.0, 0.0, 0.0, 0.0, -7233.2256714374635, 0.0]
['beep', 0.0, -1333.035687570058, 0.0, 0.0, 0.0, 0.0, -7619.486167369625, 0.0]
['beep', 0.0, -1340.9482051072366, 0.0, 0.0, 0.0, 0.0, -7634.104208243395, 0.0]
['beep', 0.0, -1323.066809542991, 0.0, 0.0, 0.0, 0.0, -7527.665201147223, 0.0]
['beep', 0.0, -1325.7713706220832, 0.0, 0.0, 0.0, 0.0, -7072.293111359252, 0.0]
['beep', 0.0, -1327.6042136674182, 0.0, 0.0, 0.0, 0.0, -7231.415180136583, 0.0]
['beep', 0.0, -1331.6722311582841, 0.0, 0.0, 0.0, 0.0, -7622.257783682083, 0.0]
['beep', 0.0, -1332.8792253588708, 0.0, 0.0, 0.0, 0.0, -7646.218853738172, 0.0]
['beep', 0.0, -1322.8656438428932, 0.0, 0.0, 0.0, 0.0, -7530.548576181958, 0.0]
['beep', 0.0, -1323.424437454276, 0.0, 0.0, 0.0, 0.0, -7074.885913716068, 0.0]
['beep', 0.0, -1333.9521090927255, 0.0, 0.0, 0.0, 0.0, -7231.839863281234, 0.0]
['beep', 0.0, -1335.1143998044015, 0.0, 0.0, 0.0, 0.0, -7620.313181914471, 0.0]
['beep', 0.0, -1340.5905771959517, 0.0, 0.0, 0.0, 0.0, -7641.972022291663, 0.0]
['beep', 0.0, -1325.4584461997088, 0.0, 0.0, 0.0, 0.0, -7540.450398975659, 0.0]
['beep', 0.0, -1323.6703066432842, 0.0, 0.0, 0.0, 0.0, -7083.3125213757185, 0.0]
['beep', 0.0, -1324.9220043327814, 0.0, 0.0, 0.0, 0.0, -7231.86221502569, 0.0]
['beep', 0.0, -1337.4613329722088, 0.0, 0.0, 0.0, 0.0, -7617.608620835379, 0.0]
['beep', 0.0, -1343.2504347861332, 0.0, 0.0, 0.0, 0.0, -7637.613432122878, 0.0]
['beep', 0.0, -1331.6498794138288, 0.0, 0.0, 0.0, 0.0, -7536.717657651622, 0.0]
['beep', 0.0, -1326.9336613337591, 0.0, 0.0, 0.0, 0.0, -7087.246428399852, 0.0]
['beep', 0.0, -1320.4963589306305, 0.0, 0.0, 0.0, 0.0, -7235.505549371905, 0.0]
['beep', 0.0, -1331.7839898805607, 0.0, 0.0, 0.0, 0.0, -7618.636801080323, 0.0]
['beep', 0.0, -1343.4963039751417, 0.0, 0.0, 0.0, 0.0, -7639.088647256929, 0.0]
['beep', 0.0, -1325.8160741109937, 0.0, 0.0, 0.0, 0.0, -7538.304631507949, 0.0]
['beep', 0.0, -1323.8938240878374, 0.0, 0.0, 0.0, 0.0, -7092.677902302493, 0.0]
['beep', 0.0, -1328.4312282122646, 0.0, 0.0, 0.0, 0.0, -7235.14792146062, 0.0]
['beep', 0.0, -1328.2747660010775, 0.0, 0.0, 0.0, 0.0, -7618.1674144467615, 0.0]
['beep', 0.0, -1336.8578358719153, 0.0, 0.0, 0.0, 0.0, -7636.361734433382, 0.0]
['beep', 0.0, -1325.9278328332703, 0.0, 0.0, 0.0, 0.0, -7540.070419319919, 0.0]
['beep', 0.0, -1334.5556061930188, 0.0, 0.0, 0.0, 0.0, -7098.5117076053275, 0.0]
['beep', 0.0, -1335.5390829490523, 0.0, 0.0, 0.0, 0.0, -7237.00311625041, 0.0]
['beep', 0.0, -1330.2864230020552, 0.0, 0.0, 0.0, 0.0, -7623.017742993563, 0.0]
['beep', 0.0, -1342.2446062856445, 0.0, 0.0, 0.0, 0.0, -7641.32382170246, 0.0]
['beep', 0.0, -1319.870510085882, 0.0, 0.0, 0.0, 0.0, -7544.272547277516, 0.0]
['beep', 0.0, -1329.6829259017618, 0.0, 0.0, 0.0, 0.0, -7106.714797820426, 0.0]
['beep', 0.0, -1328.1183037898904, 0.0, 0.0, 0.0, 0.0, -7242.412238408594, 0.0]
['beep', 0.0, -1329.101780545924, 0.0, 0.0, 0.0, 0.0, -7622.727170315644, 0.0]
['beep', 0.0, -1342.3116615190104, 0.0, 0.0, 0.0, 0.0, -7641.189711235727, 0.0]
['beep', 0.0, -1323.1338647763569, 0.0, 0.0, 0.0, 0.0, -7552.520340981525, 0.0]
['beep', 0.0, -1321.8598153424043, 0.0, 0.0, 0.0, 0.0, -7122.070446261221, 0.0]
['beep', 0.0, -1332.0745625584798, 0.0, 0.0, 0.0, 0.0, -7248.3130989447955, 0.0]
['beep', 0.0, -1331.1804927802675, 0.0, 0.0, 0.0, 0.0, -7617.116882457362, 0.0]
['beep', 0.0, -1347.385507510365, 0.0, 0.0, 0.0, 0.0, -7636.0711617554625, 0.0]
['beep', 0.0, -1329.481760201664, 0.0, 0.0, 0.0, 0.0, -7559.561140484946, 0.0]
['beep', 0.0, -1326.0842950444573, 0.0, 0.0, 0.0, 0.0, -7134.02862954481, 0.0]
['beep', 0.0, -1322.3292019759658, 0.0, 0.0, 0.0, 0.0, -7255.510360659405, 0.0]
['beep', 0.0, -1332.9909840811472, 0.0, 0.0, 0.0, 0.0, -7622.771873804555, 0.0]
['beep', 0.0, -1358.3378622934656, 0.0, 0.0, 0.0, 0.0, -7642.575519391957, 0.0]
['beep', 0.0, -1328.1853590232563, 0.0, 0.0, 0.0, 0.0, -7557.460076506148, 0.0]
['beep', 0.0, -1318.0153152960916, 0.0, 0.0, 0.0, 0.0, -7145.740943639392, 0.0]
['beep', 0.0, -1326.128998533368, 0.0, 0.0, 0.0, 0.0, -7266.149791020131, 0.0]
['beep', 0.0, -1328.7665043790942, 0.0, 0.0, 0.0, 0.0, -7626.236394195127, 0.0]
['beep', 0.0, -1357.868475659904, 0.0, 0.0, 0.0, 0.0, -7636.160568733284, 0.0]
['beep', 0.0, -1324.2514519991223, 0.0, 0.0, 0.0, 0.0, -7563.070364364429, 0.0]
['beep', 0.0, -1321.479835686664, 0.0, 0.0, 0.0, 0.0, -7161.588330458204, 0.0]
['beep', 0.0, -1323.5361961765525, 0.0, 0.0, 0.0, 0.0, -7273.190590523553, 0.0]
['beep', 0.0, -1330.2864230020552, 0.0, 0.0, 0.0, 0.0, -7620.849623781398, 0.0]
['beep', 0.0, -1366.9432839087588, 0.0, 0.0, 0.0, 0.0, -7634.238318710127, 0.0]
['beep', 0.0, -1336.4331527272645, 0.0, 0.0, 0.0, 0.0, -7564.009137631552, 0.0]
['beep', 0.0, -1322.3068502315105, 0.0, 0.0, 0.0, 0.0, -7168.785592172813, 0.0]
['beep', 0.0, -1332.3651352363986, 0.0, 0.0, 0.0, 0.0, -7277.750346392435, 0.0]
['beep', 0.0, -1332.4768939586752, 0.0, 0.0, 0.0, 0.0, -7624.403551149792, 0.0]
['beep', 0.0, -1366.1162693639124, 0.0, 0.0, 0.0, 0.0, -7638.08281875644, 0.0]
['beep', 0.0, -1326.9783648226696, 0.0, 0.0, 0.0, 0.0, -7570.513495268046, 0.0]
['beep', 0.0, -1325.5255014330749, 0.0, 0.0, 0.0, 0.0, -7176.541647498804, 0.0]
['beep', 0.0, -1325.7043153887173, 0.0, 0.0, 0.0, 0.0, -7280.209038282519, 0.0]
['beep', 0.0, -1331.4263619692758, 0.0, 0.0, 0.0, 0.0, -7625.588193605923, 0.0]
['beep', 0.0, -1365.3786617968872, 0.0, 0.0, 0.0, 0.0, -7635.668830355267, 0.0]
['beep', 0.0, -1326.777199122572, 0.0, 0.0, 0.0, 0.0, -7572.279283080016, 0.0]
['beep', 0.0, -1323.3126787319993, 0.0, 0.0, 0.0, 0.0, -7187.046967392799, 0.0]
['beep', 0.0, -1335.4720277156864, 0.0, 0.0, 0.0, 0.0, -7283.651206928636, 0.0]
['beep', 0.0, -1338.6683271727952, 0.0, 0.0, 0.0, 0.0, -7625.163510461272, 0.0]
['beep', 0.0, -1369.0890513764682, 0.0, 0.0, 0.0, 0.0, -7634.685353599233, 0.0]
['beep', 0.0, -1328.8335596124602, 0.0, 0.0, 0.0, 0.0, -7573.9109604252535, 0.0]
['beep', 0.0, -1330.4428852132423, 0.0, 0.0, 0.0, 0.0, -7192.657255251081, 0.0]
['beep', 0.0, -1331.2475480136334, 0.0, 0.0, 0.0, 0.0, -7286.936913363566, 0.0]
['beep', 0.0, -1335.7178969046947, 0.0, 0.0, 0.0, 0.0, -7623.956516260686, 0.0]
['beep', 0.0, -1363.970501896203, 0.0, 0.0, 0.0, 0.0, -7632.696048342711, 0.0]
['beep', 0.0, -1329.7946846240384, 0.0, 0.0, 0.0, 0.0, -7577.420184304737, 0.0]
['beep', 0.0, -1326.1066467889127, 0.0, 0.0, 0.0, 0.0, -7198.178136131542, 0.0]
['beep', 0.0, -1322.5080159316083, 0.0, 0.0, 0.0, 0.0, -7288.501535475438, 0.0]
['beep', 0.0, -1346.5361412210634, 0.0, 0.0, 0.0, 0.0, -7625.163510461272, 0.0]
['beep', 0.0, -1372.4418130447643, 0.0, 0.0, 0.0, 0.0, -7630.550280875002, 0.0]
['beep', 0.0, -1332.7674666365942, 0.0, 0.0, 0.0, 0.0, -7576.7272802266225, 0.0]
['beep', 0.0, -1327.6265654118736, 0.0, 0.0, 0.0, 0.0, -7201.5308977998375, 0.0]
['beep', 0.0, -1331.7839898805607, 0.0, 0.0, 0.0, 0.0, -7285.931084863078, 0.0]
['beep', 0.0, -1338.6683271727952, 0.0, 0.0, 0.0, 0.0, -7622.03426623753, 0.0]
['beep', 0.0, -1365.713937963717, 0.0, 0.0, 0.0, 0.0, -7633.277193698549, 0.0]
['beep', 0.0, -1332.029859069569, 0.0, 0.0, 0.0, 0.0, -7578.180143616217, 0.0]
['beep', 0.0, -1329.0123735681027, 0.0, 0.0, 0.0, 0.0, -7201.977932688944, 0.0]
['beep', 0.0, -1324.7878938660497, 0.0, 0.0, 0.0, 0.0, -7282.935951106067, 0.0]
['beep', 0.0, -1337.8189608834937, 0.0, 0.0, 0.0, 0.0, -7621.430769137236, 0.0]
['beep', 0.0, -1366.7644699531163, 0.0, 0.0, 0.0, 0.0, -7632.3160686869705, 0.0]
['beep', 0.0, -1328.7218008901837, 0.0, 0.0, 0.0, 0.0, -7576.056727892963, 0.0]
['beep', 0.0, -1331.4263619692758, 0.0, 0.0, 0.0, 0.0, -7202.492022811416, 0.0]
['beep', 0.0, -1334.6673649152954, 0.0, 0.0, 0.0, 0.0, -7280.544314449348, 0.0]
['beep', 0.0, -1343.74217316415, 0.0, 0.0, 0.0, 0.0, -7626.303449428493, 0.0]
['beep', 0.0, -1379.5273160370966, 0.0, 0.0, 0.0, 0.0, -7636.026458266552, 0.0]
['beep', 0.0, -1348.4583912442197, 0.0, 0.0, 0.0, 0.0, -7581.331739584415, 0.0]
['beep', 0.0, -1346.7820104100717, 0.0, 0.0, 0.0, 0.0, -7206.783557746835, 0.0]
['beep', 0.0, -1352.0123186126136, 0.0, 0.0, 0.0, 0.0, -7280.745480149446, 0.0]
['beep', 0.0, -1364.3951850408537, 0.0, 0.0, 0.0, 0.0, -7630.863205297376, 0.0]
['beep', 0.0, -1393.966542955225, 0.0, 0.0, 0.0, 0.0, -7641.815560080477, 0.0]
['beep', 0.0, -1361.7800309395827, 0.0, 0.0, 0.0, 0.0, -7592.21703913415, 0.0]
['beep', 0.0, -1357.3543855374319, 0.0, 0.0, 0.0, 0.0, -7208.415235092072, 0.0]
['beep', 0.0, -1358.2931588045549, 0.0, 0.0, 0.0, 0.0, -7276.096317302742, 0.0]
['beep', 0.0, -1367.5914844979627, 0.0, 0.0, 0.0, 0.0, -7632.98662102063, 0.0]
['beep', 0.0, -1394.771205755616, 0.0, 0.0, 0.0, 0.0, -7649.169284006272, 0.0]
['beep', 0.0, -1362.964673395714, 0.0, 0.0, 0.0, 0.0, -7592.976998445631, 0.0]
['beep', 0.0, -1359.678966960784, 0.0, 0.0, 0.0, 0.0, -7206.202412390997, 0.0]
['beep', 0.0, -1359.5225047495967, 0.0, 0.0, 0.0, 0.0, -7270.575436422281, 0.0]
['beep', 0.0, -1363.5011152626414, 0.0, 0.0, 0.0, 0.0, -7635.422961166259, 0.0]
['beep', 0.0, -1390.5020225646524, 0.0, 0.0, 0.0, 0.0, -7650.018650295574, 0.0]
['beep', 0.0, -1362.2047140842337, 0.0, 0.0, 0.0, 0.0, -7591.546486800491, 0.0]
['beep', 0.0, -1356.7955919260494, 0.0, 0.0, 0.0, 0.0, -7203.542554800815, 0.0]
['beep', 0.0, -1360.6624437168175, 0.0, 0.0, 0.0, 0.0, -7265.188666008552, 0.0]
['beep', 0.0, -1366.7868216975717, 0.0, 0.0, 0.0, 0.0, -7633.008972765086, 0.0]
['beep', 0.0, -1390.189098142278, 0.0, 0.0, 0.0, 0.0, -7647.068220027473, 0.0]
['beep', 0.0, -1360.193057083256, 0.0, 0.0, 0.0, 0.0, -7592.485260067614, 0.0]
['beep', 0.0, -1357.130868092879, 0.0, 0.0, 0.0, 0.0, -7204.704845512491, 0.0]
['beep', 0.0, -1358.0249378710912, 0.0, 0.0, 0.0, 0.0, -7261.567683406793, 0.0]
['beep', 0.0, -1363.836391429471, 0.0, 0.0, 0.0, 0.0, -7630.840853552921, 0.0]
['beep', 0.0, -1390.479670820197, 0.0, 0.0, 0.0, 0.0, -7645.391839193326, 0.0]
['beep', 0.0, -1361.511810006119, 0.0, 0.0, 0.0, 0.0, -7592.865239723354, 0.0]
['beep', 0.0, -1356.8402954149599, 0.0, 0.0, 0.0, 0.0, -7205.487156568427, 0.0]
['beep', 0.0, -1357.8014204265382, 0.0, 0.0, 0.0, 0.0, -7256.247968226429, 0.0]
['beep', 0.0, -1363.7469844516497, 0.0, 0.0, 0.0, 0.0, -7623.822405793954, 0.0]
['beep', 0.0, -1387.1045574074458, 0.0, 0.0, 0.0, 0.0, -7642.195539736216, 0.0]
['beep', 0.0, -1359.902484405337, 0.0, 0.0, 0.0, 0.0, -7590.585361788912, 0.0]
['beep', 0.0, -1357.130868092879, 0.0, 0.0, 0.0, 0.0, -7203.766072245368, 0.0]
['beep', 0.0, -1358.6731384602951, 0.0, 0.0, 0.0, 0.0, -7249.922424545578, 0.0]
['beep', 0.0, -1363.5458187515521, 0.0, 0.0, 0.0, 0.0, -7619.061484224973, 0.0]
['beep', 0.0, -1388.6468277748618, 0.0, 0.0, 0.0, 0.0, -7633.7242285876555, 0.0]
['beep', 0.0, -1360.2601123166219, 0.0, 0.0, 0.0, 0.0, -7580.392966317292, 0.0]
['beep', 0.0, -1355.6556529588286, 0.0, 0.0, 0.0, 0.0, -7198.871040209657, 0.0]
['beep', 0.0, -1360.036594872069, 0.0, 0.0, 0.0, 0.0, -7242.389886664139, 0.0]
['beep', 0.0, -1362.2717693175996, 0.0, 0.0, 0.0, 0.0, -7601.64947529429, 0.0]
['beep', 0.0, -1385.4058248288425, 0.0, 0.0, 0.0, 0.0, -7609.785510276021, 0.0]
['beep', 0.0, -1357.9802343821807, 0.0, 0.0, 0.0, 0.0, -7559.44938176267, 0.0]
['beep', 0.0, -1354.7392314361612, 0.0, 0.0, 0.0, 0.0, -7191.271447094852, 0.0]
['beep', 0.0, -1351.453525001231, 0.0, 0.0, 0.0, 0.0, -7223.569717832771, 0.0]
['beep', 0.0, -1355.7450599366498, 0.0, 0.0, 0.0, 0.0, -7553.369707270826, 0.0]
['beep', 0.0, -1380.9131241933255, 0.0, 0.0, 0.0, 0.0, -7551.872140392321, 0.0]
['beep', 0.0, -1349.1065918334236, 0.0, 0.0, 0.0, 0.0, -7505.805195069933, 0.0]
['beep', 0.0, -1336.321394004988, 0.0, 0.0, 0.0, 0.0, -7170.193752073497, 0.0]
['beep', 0.0, -1335.1367515488569, 0.0, 0.0, 0.0, 0.0, -7199.362778587673, 0.0]
['beep', 0.0, -1336.9248911052814, 0.0, 0.0, 0.0, 0.0, -7494.562267608913, 0.0]
['beep', 0.0, -1367.323263564499, 0.0, 0.0, 0.0, 0.0, -7482.939360492153, 0.0]
['beep', 0.0, -1334.1756265372785, 0.0, 0.0, 0.0, 0.0, -7447.914176930688, 0.0]
['beep', 0.0, -1322.709181631706, 0.0, 0.0, 0.0, 0.0, -7150.41245823055, 0.0]
['beep', 0.0, -1323.1115130319015, 0.0, 0.0, 0.0, 0.0, -7180.609664989671, 0.0]
['beep', 0.0, -1336.2766905160775, 0.0, 0.0, 0.0, 0.0, -7450.9987176655195, 0.0]
['beep', 0.0, -1369.960769410225, 0.0, 0.0, 0.0, 0.0, -7443.175607106163, 0.0]
['beep', 0.0, -1332.4321904697647, 0.0, 0.0, 0.0, 0.0, -7424.623659208258, 0.0]
['beep', 0.0, -1322.4633124426978, 0.0, 0.0, 0.0, 0.0, -7140.980022070411, 0.0]
['beep', 0.0, -1328.7888561235495, 0.0, 0.0, 0.0, 0.0, -7173.144182341598, 0.0]
['beep', 0.0, -1339.7635626511053, 0.0, 0.0, 0.0, 0.0, -7456.966633435087, 0.0]
['beep', 0.0, -1365.065737374513, 0.0, 0.0, 0.0, 0.0, -7462.4428108266375, 0.0]
['beep', 0.0, -1332.2757282585774, 0.0, 0.0, 0.0, 0.0, -7439.241700082029, 0.0]
['beep', 0.0, -1331.1357892913568, 0.0, 0.0, 0.0, 0.0, -7146.724420395425, 0.0]
['beep', 0.0, -1340.8140946405047, 0.0, 0.0, 0.0, 0.0, -7181.593141745704, 0.0]
['beep', 0.0, -1343.3621935084097, 0.0, 0.0, 0.0, 0.0, -7485.91214250471, 0.0]
['beep', 0.0, -1367.0773943754905, 0.0, 0.0, 0.0, 0.0, -7495.702206576134, 0.0]
['beep', 0.0, -1332.6557079143176, 0.0, 0.0, 0.0, 0.0, -7473.90925573221, 0.0]
['beep', 0.0, -1331.001678824625, 0.0, 0.0, 0.0, 0.0, -7166.237493304908, 0.0]
['beep', 0.0, -1331.3146032469992, 0.0, 0.0, 0.0, 0.0, -7194.244229107408, 0.0]
['beep', 0.0, -1338.5118649616081, 0.0, 0.0, 0.0, 0.0, -7509.716750349611, 0.0]
['beep', 0.0, -1372.4865165336748, 0.0, 0.0, 0.0, 0.0, -7524.066570289919, 0.0]
['beep', 0.0, -1340.5011702181305, 0.0, 0.0, 0.0, 0.0, -7500.7760525674885, 0.0]
['beep', 0.0, -1324.385562465854, 0.0, 0.0, 0.0, 0.0, -7182.666025479559, 0.0]
['beep', 0.0, -1329.5264636905747, 0.0, 0.0, 0.0, 0.0, -7207.744682758414, 0.0]
['beep', 0.0, -1338.1095335614127, 0.0, 0.0, 0.0, 0.0, -7534.214262272628, 0.0]
['beep', 0.0, -1367.0997461199458, 0.0, 0.0, 0.0, 0.0, -7547.088867078885, 0.0]
['beep', 0.0, -1334.7567718931166, 0.0, 0.0, 0.0, 0.0, -7522.032561544485, 0.0]
['beep', 0.0, -1325.54785317753, 0.0, 0.0, 0.0, 0.0, -7197.239362864419, 0.0]
['beep', 0.0, -1331.4263619692758, 0.0, 0.0, 0.0, 0.0, -7215.634848551136, 0.0]
['beep', 0.0, -1333.1474462923345, 0.0, 0.0, 0.0, 0.0, -7557.750649184067, 0.0]
['beep', 0.0, -1363.0540803735353, 0.0, 0.0, 0.0, 0.0, -7572.346338313382, 0.0]
['beep', 0.0, -1339.7859143955607, 0.0, 0.0, 0.0, 0.0, -7540.49510246457, 0.0]
['beep', 0.0, -1326.1513502778234, 0.0, 0.0, 0.0, 0.0, -7207.498813569405, 0.0]
['beep', 0.0, -1343.4963039751417, 0.0, 0.0, 0.0, 0.0, -7221.915688743078, 0.0]
['beep', 0.0, -1335.6284899268735, 0.0, 0.0, 0.0, 0.0, -7569.731184212111, 0.0]
['beep', 0.0, -1366.2727315750994, 0.0, 0.0, 0.0, 0.0, -7588.685463510212, 0.0]
['beep', 0.0, -1360.416574527809, 0.0, 0.0, 0.0, 0.0, -7620.961382503675, 0.0]
['beep', 0.0, -1341.3058330185215, 0.0, 0.0, 0.0, 0.0, -7598.117899670351, 0.0]
['beep', 0.0, -1314.4166844387871, 0.0, 0.0, 0.0, 0.0, -7286.378119752183, 0.0]
['beep', 0.0, -1325.0784665439685, 0.0, 0.0, 0.0, 0.0, -7248.424857667072, 0.0]
['beep', 0.0, -1325.8831293443598, 0.0, 0.0, 0.0, 0.0, -7599.7942805044995, 0.0]
['beep', 0.0, -1382.4106910718313, 0.0, 0.0, 0.0, 0.0, -7617.854490024387, 0.0]
['beep', 0.0, -1346.513789476608, 0.0, 0.0, 0.0, 0.0, -7601.247143894094, 0.0]
['beep', 0.0, -1314.6402018833403, 0.0, 0.0, 0.0, 0.0, -7294.894134389656, 0.0]
['beep', 0.0, -1352.8169814130047, 0.0, 0.0, 0.0, 0.0, -7251.218825723985, 0.0]
['beep', 0.0, -1331.4934172026417, 0.0, 0.0, 0.0, 0.0, -7597.961437459164, 0.0]
['beep', 0.0, -1351.252359301133, 0.0, 0.0, 0.0, 0.0, -7616.178109190239, 0.0]
['beep', 0.0, -1327.8500828564268, 0.0, 0.0, 0.0, 0.0, -7604.778719518033, 0.0]
['beep', 0.0, -1326.3972194668318, 0.0, 0.0, 0.0, 0.0, -7302.739596693468, 0.0]
['beep', 0.0, -1327.3806962228653, 0.0, 0.0, 0.0, 0.0, -7263.266415985396, 0.0]
['beep', 0.0, -1335.6284899268735, 0.0, 0.0, 0.0, 0.0, -7610.992504476608, 0.0]
['beep', 0.0, -1373.3358828229766, 0.0, 0.0, 0.0, 0.0, -7616.111053956874, 0.0]
['beep', 0.0, -1339.808266140016, 0.0, 0.0, 0.0, 0.0, -7600.017797949052, 0.0]
['beep', 0.0, -1324.7655421215943, 0.0, 0.0, 0.0, 0.0, -7316.150643366653, 0.0]
['beep', 0.0, -1329.2358910126557, 0.0, 0.0, 0.0, 0.0, -7273.190590523553, 0.0]
['beep', 0.0, -1335.9861178381584, 0.0, 0.0, 0.0, 0.0, -7603.392911361803, 0.0]
['beep', 0.0, -1393.6983220217612, 0.0, 0.0, 0.0, 0.0, -7619.955554003186, 0.0]
['beep', 0.0, -1338.1318853058679, 0.0, 0.0, 0.0, 0.0, -7603.348207872893, 0.0]
['beep', 0.0, -1316.897728073326, 0.0, 0.0, 0.0, 0.0, -7331.4839400629935, 0.0]
['beep', 0.0, -1307.9570302912034, 0.0, 0.0, 0.0, 0.0, -7285.5287534628815, 0.0]
['beep', 0.0, -1340.7470394071388, 0.0, 0.0, 0.0, 0.0, -7600.531888071524, 0.0]
['beep', 0.0, -1382.0977666494568, 0.0, 0.0, 0.0, 0.0, -7608.176184675239, 0.0]
['beep', 0.0, -1343.2727865305885, 0.0, 0.0, 0.0, 0.0, -7602.923524728242, 0.0]
['beep', 0.0, -1316.8306728399602, 0.0, 0.0, 0.0, 0.0, -7334.568480797825, 0.0]
['beep', 0.0, -1329.906443346315, 0.0, 0.0, 0.0, 0.0, -7285.618160440703, 0.0]
['beep', 0.0, -1341.1493708073344, 0.0, 0.0, 0.0, 0.0, -7598.922562470742, 0.0]
['beep', 0.0, -1377.1356793803786, 0.0, 0.0, 0.0, 0.0, -7620.670809825756, 0.0]
['beep', 0.0, -1332.4545422142198, 0.0, 0.0, 0.0, 0.0, -7608.958495731175, 0.0]
['beep', 0.0, -1341.194074296245, 0.0, 0.0, 0.0, 0.0, -7339.128236666708, 0.0]
['beep', 0.0, -1321.904518831315, 0.0, 0.0, 0.0, 0.0, -7294.312989033818, 0.0]
['beep', 0.0, -1357.5331994930746, 0.0, 0.0, 0.0, 0.0, -7605.158699173773, 0.0]
['beep', 0.0, -1384.444699817264, 0.0, 0.0, 0.0, 0.0, -7611.797167276999, 0.0]
['beep', 0.0, -1341.2164260407003, 0.0, 0.0, 0.0, 0.0, -7611.417187621259, 0.0]
['beep', 0.0, -1316.8306728399602, 0.0, 0.0, 0.0, 0.0, -7350.102943194264, 0.0]
['beep', 0.0, -1326.2407572556447, 0.0, 0.0, 0.0, 0.0, -7298.291599546862, 0.0]
['beep', 0.0, -1341.350536507432, 0.0, 0.0, 0.0, 0.0, -7604.1975741621945, 0.0]
['beep', 0.0, -1382.2765806050993, 0.0, 0.0, 0.0, 0.0, -7620.290830170015, 0.0]
['beep', 0.0, -1355.6556529588286, 0.0, 0.0, 0.0, 0.0, -7606.41039686327, 0.0]
['beep', 0.0, -1320.742228119639, 0.0, 0.0, 0.0, 0.0, -7352.695745551079, 0.0]
['beep', 0.0, -1335.3602689934098, 0.0, 0.0, 0.0, 0.0, -7297.486936746471, 0.0]
['beep', 0.0, -1364.484592018675, 0.0, 0.0, 0.0, 0.0, -7604.1975741621945, 0.0]
['beep', 0.0, -1372.9782549116917, 0.0, 0.0, 0.0, 0.0, -7616.379274890337, 0.0]
['beep', 0.0, -1350.1794755672784, 0.0, 0.0, 0.0, 0.0, -7608.690274797711, 0.0]
['beep', 0.0, -1324.519672932586, 0.0, 0.0, 0.0, 0.0, -7358.730716554012, 0.0]
['beep', 0.0, -1339.0706585729909, 0.0, 0.0, 0.0, 0.0, -7297.598695468748, 0.0]
['beep', 0.0, -1343.0045655971248, 0.0, 0.0, 0.0, 0.0, -7601.403606105281, 0.0]
['beep', 0.0, -1380.1531648818452, 0.0, 0.0, 0.0, 0.0, -7613.384141133326, 0.0]
['beep', 0.0, -1356.1026878479347, 0.0, 0.0, 0.0, 0.0, -7610.41135912077, 0.0]
['beep', 0.0, -1326.3972194668318, 0.0, 0.0, 0.0, 0.0, -7362.776382300423, 0.0]
['beep', 0.0, -1331.1357892913568, 0.0, 0.0, 0.0, 0.0, -7301.8455269152555, 0.0]
['beep', 0.0, -1343.8762836308817, 0.0, 0.0, 0.0, 0.0, -7603.705835784178, 0.0]
['beep', 0.0, -1396.000551700658, 0.0, 0.0, 0.0, 0.0, -7614.255859167083, 0.0]
['beep', 0.0, -1355.1192110919012, 0.0, 0.0, 0.0, 0.0, -7607.036245708018, 0.0]
['beep', 0.0, -1320.2728414860776, 0.0, 0.0, 0.0, 0.0, -7367.9396352695985, 0.0]
['beep', 0.0, -1331.6275276693736, 0.0, 0.0, 0.0, 0.0, -7305.466509517016, 0.0]
['beep', 0.0, -1337.0142980831026, 0.0, 0.0, 0.0, 0.0, -7608.824385264443, 0.0]
['beep', 0.0, -1386.2775428625994, 0.0, 0.0, 0.0, 0.0, -7615.731074301133, 0.0]
['beep', 0.0, -1361.8247344284935, 0.0, 0.0, 0.0, 0.0, -7610.344303887404, 0.0]
['beep', 0.0, -1317.8812048293598, 0.0, 0.0, 0.0, 0.0, -7372.946426027588, 0.0]
['beep', 0.0, -1320.295193230533, 0.0, 0.0, 0.0, 0.0, -7307.4781665179935, 0.0]
['beep', 0.0, -1351.967615123703, 0.0, 0.0, 0.0, 0.0, -7607.818556763954, 0.0]
['beep', 0.0, -1383.2824091055882, 0.0, 0.0, 0.0, 0.0, -7618.525042358046, 0.0]
['beep', 0.0, -1350.8500279009377, 0.0, 0.0, 0.0, 0.0, -7611.484242854624, 0.0]
['beep', 0.0, -1336.611966682907, 0.0, 0.0, 0.0, 0.0, -7375.159248728663, 0.0]
['beep', 0.0, -1330.3087747465104, 0.0, 0.0, 0.0, 0.0, -7310.562707252826, 0.0]
['beep', 0.0, -1337.416629483298, 0.0, 0.0, 0.0, 0.0, -7602.901172983787, 0.0]
['beep', 0.0, -1389.1385661528786, 0.0, 0.0, 0.0, 0.0, -7614.702894056189, 0.0]
['beep', 0.0, -1340.679984173773, 0.0, 0.0, 0.0, 0.0, -7612.93710624422, 0.0]
['beep', 0.0, -1331.1357892913568, 0.0, 0.0, 0.0, 0.0, -7382.825897076834, 0.0]
['beep', 0.0, -1326.6654404002954, 0.0, 0.0, 0.0, 0.0, -7319.503405034949, 0.0]
['beep', 0.0, -1333.0133358256026, 0.0, 0.0, 0.0, 0.0, -7607.148004430295, 0.0]
['beep', 0.0, -1391.8431272319708, 0.0, 0.0, 0.0, 0.0, -7612.288905655016, 0.0]
['beep', 0.0, -1354.7839349250717, 0.0, 0.0, 0.0, 0.0, -7611.685408554722, 0.0]
['beep', 0.0, -1332.1416177918456, 0.0, 0.0, 0.0, 0.0, -7393.934714071121, 0.0]
['beep', 0.0, -1322.418608953787, 0.0, 0.0, 0.0, 0.0, -7328.488806305982, 0.0]
['beep', 0.0, -1347.519617977097, 0.0, 0.0, 0.0, 0.0, -7602.632952050323, 0.0]
['beep', 0.0, -1388.5574207970405, 0.0, 0.0, 0.0, 0.0, -7610.344303887404, 0.0]
['beep', 0.0, -1351.5429319790521, 0.0, 0.0, 0.0, 0.0, -7608.869088753354, 0.0]
['beep', 0.0, -1313.8802425718598, 0.0, 0.0, 0.0, 0.0, -7403.143632786708, 0.0]
['beep', 0.0, -1323.4691409431864, 0.0, 0.0, 0.0, 0.0, -7332.400361585661, 0.0]
['beep', 0.0, -1338.578920194974, 0.0, 0.0, 0.0, 0.0, -7601.358902616371, 0.0]
['beep', 0.0, -1381.7624904826273, 0.0, 0.0, 0.0, 0.0, -7610.500766098591, 0.0]
['beep', 0.0, -1361.802382684038, 0.0, 0.0, 0.0, 0.0, -7609.740806787111, 0.0]
['beep', 0.0, -1325.838425855449, 0.0, 0.0, 0.0, 0.0, -7405.289400254417, 0.0]
['beep', 0.0, -1325.3690392218875, 0.0, 0.0, 0.0, 0.0, -7339.485864577993, 0.0]
['beep', 0.0, -1337.8860161168595, 0.0, 0.0, 0.0, 0.0, -7603.661132295268, 0.0]
['beep', 0.0, -1383.707092250239, 0.0, 0.0, 0.0, 0.0, -7608.109129441873, 0.0]
['beep', 0.0, -1348.5701499664963, 0.0, 0.0, 0.0, 0.0, -7612.802995777488, 0.0]
['beep', 0.0, -1318.1270740183681, 0.0, 0.0, 0.0, 0.0, -7418.141653316218, 0.0]
['beep', 0.0, -1325.1231700328792, 0.0, 0.0, 0.0, 0.0, -7347.398382115171, 0.0]
['beep', 0.0, -1333.773295137083, 0.0, 0.0, 0.0, 0.0, -7609.7184550426555, 0.0]
['beep', 0.0, -1396.4699383342193, 0.0, 0.0, 0.0, 0.0, -7609.740806787111, 0.0]
['beep', 0.0, -1350.4923999896528, 0.0, 0.0, 0.0, 0.0, -7610.232545165128, 0.0]
['beep', 0.0, -1318.3058879740106, 0.0, 0.0, 0.0, 0.0, -7421.4720632400595, 0.0]
['beep', 0.0, -1329.7499811351279, 0.0, 0.0, 0.0, 0.0, -7353.813332773845, 0.0]
['beep', 0.0, -1341.1046673184237, 0.0, 0.0, 0.0, 0.0, -7604.577553817935, 0.0]
['beep', 0.0, -1403.7119035377389, 0.0, 0.0, 0.0, 0.0, -7608.93614398672, 0.0]
['beep', 0.0, -1348.614853455407, 0.0, 0.0, 0.0, 0.0, -7615.038170223019, 0.0]
['beep', 0.0, -1319.4234751967758, 0.0, 0.0, 0.0, 0.0, -7429.094008099319, 0.0]
['beep', 0.0, -1322.8209403539827, 0.0, 0.0, 0.0, 0.0, -7361.792905544389, 0.0]
['beep', 0.0, -1340.679984173773, 0.0, 0.0, 0.0, 0.0, -7605.002236962586, 0.0]
['beep', 0.0, -1406.4388163612864, 0.0, 0.0, 0.0, 0.0, -7605.873954996343, 0.0]
['beep', 0.0, -1357.0191093706023, 0.0, 0.0, 0.0, 0.0, -7613.31708589996, 0.0]
['beep', 0.0, -1320.45165544172, 0.0, 0.0, 0.0, 0.0, -7439.264051826483, 0.0]
['beep', 0.0, -1330.8452166134377, 0.0, 0.0, 0.0, 0.0, -7373.013481260954, 0.0]
['beep', 0.0, -1338.7577341506164, 0.0, 0.0, 0.0, 0.0, -7606.142175929806, 0.0]
['beep', 0.0, -1400.1356244248898, 0.0, 0.0, 0.0, 0.0, -7604.778719518033, 0.0]
['beep', 0.0, -1357.3990890263426, 0.0, 0.0, 0.0, 0.0, -7613.182975433228, 0.0]
['beep', 0.0, -1323.3797339653652, 0.0, 0.0, 0.0, 0.0, -7456.340784590338, 0.0]
['beep', 0.0, -1326.196053766734, 0.0, 0.0, 0.0, 0.0, -7395.7005018830905, 0.0]
['beep', 0.0, -1341.9093301188148, 0.0, 0.0, 0.0, 0.0, -7609.204364920183, 0.0]
['beep', 0.0, -1404.0918831934791, 0.0, 0.0, 0.0, 0.0, -7608.511460842069, 0.0]
['beep', 0.0, -1356.5273709925857, 0.0, 0.0, 0.0, 0.0, -7612.870051010854, 0.0]
['beep', 0.0, -1319.8258065969715, 0.0, 0.0, 0.0, 0.0, -7473.238703398551, 0.0]
['beep', 0.0, -1327.805379367516, 0.0, 0.0, 0.0, 0.0, -7409.200955534096, 0.0]
['beep', 0.0, -1338.5565684505189, 0.0, 0.0, 0.0, 0.0, -7612.668885310756, 0.0]
['beep', 0.0, -1399.4874238356858, 0.0, 0.0, 0.0, 0.0, -7604.532850329024, 0.0]
['beep', 0.0, -1365.065737374513, 0.0, 0.0, 0.0, 0.0, -7614.725245800644, 0.0]
['beep', 0.0, -1330.554643935519, 0.0, 0.0, 0.0, 0.0, -7475.675043544179, 0.0]
['beep', 0.0, -1330.420533468787, 0.0, 0.0, 0.0, 0.0, -7412.553717202391, 0.0]
['beep', 0.0, -1347.0949348324461, 0.0, 0.0, 0.0, 0.0, -7613.36178938887, 0.0]
['beep', 0.0, -1396.9169732233254, 0.0, 0.0, 0.0, 0.0, -7606.097472440895, 0.0]
['beep', 0.0, -1361.869437917404, 0.0, 0.0, 0.0, 0.0, -7615.149928945295, 0.0]
['beep', 0.0, -1323.715010132195, 0.0, 0.0, 0.0, 0.0, -7474.110421432308, 0.0]
['beep', 0.0, -1328.5653386789966, 0.0, 0.0, 0.0, 0.0, -7409.692693912112, 0.0]
['beep', 0.0, -1338.8918446173484, 0.0, 0.0, 0.0, 0.0, -7611.7748155325435, 0.0]
['beep', 0.0, -1400.739121525183, 0.0, 0.0, 0.0, 0.0, -7604.59990556239, 0.0]
['beep', 0.0, -1364.708109463228, 0.0, 0.0, 0.0, 0.0, -7611.797167276999, 0.0]
['beep', 0.0, -1325.54785317753, 0.0, 0.0, 0.0, 0.0, -7471.227046397573, 0.0]
['beep', 0.0, -1323.4914926876418, 0.0, 0.0, 0.0, 0.0, -7401.713121141568, 0.0]
['beep', 0.0, -1344.099801075435, 0.0, 0.0, 0.0, 0.0, -7611.5960015769015, 0.0]
['beep', 0.0, -1402.2143366592334, 0.0, 0.0, 0.0, 0.0, -7608.511460842069, 0.0]
['beep', 0.0, -1358.1814000822783, 0.0, 0.0, 0.0, 0.0, -7610.366655631859, 0.0]
['beep', 0.0, -1323.5585479210076, 0.0, 0.0, 0.0, 0.0, -7460.900540459221, 0.0]
['beep', 0.0, -1325.0561147995134, 0.0, 0.0, 0.0, 0.0, -7387.631522134724, 0.0]
['beep', 0.0, -1344.6362429423623, 0.0, 0.0, 0.0, 0.0, -7607.773853275044, 0.0]
['beep', 0.0, -1392.960714454736, 0.0, 0.0, 0.0, 0.0, -7605.896306740798, 0.0]
['beep', 0.0, -1361.0200716281024, 0.0, 0.0, 0.0, 0.0, -7614.1217487003505, 0.0]
['beep', 0.0, -1315.3107542169994, 0.0, 0.0, 0.0, 0.0, -7455.111438645296, 0.0]
['beep', 0.0, -1323.6703066432842, 0.0, 0.0, 0.0, 0.0, -7369.213684703552, 0.0]
['beep', 0.0, -1338.6906789172506, 0.0, 0.0, 0.0, 0.0, -7610.232545165128, 0.0]
['beep', 0.0, -1394.0112464441356, 0.0, 0.0, 0.0, 0.0, -7611.260725410071, 0.0]
['beep', 0.0, -1357.644958215351, 0.0, 0.0, 0.0, 0.0, -7614.03234172253, 0.0]
['beep', 0.0, -1322.3068502315105, 0.0, 0.0, 0.0, 0.0, -7443.734400717545, 0.0]
['beep', 0.0, -1326.2631090000998, 0.0, 0.0, 0.0, 0.0, -7350.16999842763, 0.0]
['beep', 0.0, -1342.9151586193036, 0.0, 0.0, 0.0, 0.0, -7601.537716572013, 0.0]
['beep', 0.0, -1385.8305079734932, 0.0, 0.0, 0.0, 0.0, -7612.355960888382, 0.0]
['beep', 0.0, -1351.2970627900438, 0.0, 0.0, 0.0, 0.0, -7615.641667323312, 0.0]
['beep', 0.0, -1316.8306728399602, 0.0, 0.0, 0.0, 0.0, -7436.760656447489, 0.0]
['beep', 0.0, -1335.7849521380606, 0.0, 0.0, 0.0, 0.0, -7331.97567844101, 0.0]
['beep', 0.0, -1336.8354841274602, 0.0, 0.0, 0.0, 0.0, -7597.469699081147, 0.0]
['beep', 0.0, -1379.9519991817474, 0.0, 0.0, 0.0, 0.0, -7611.864222510365, 0.0]
['beep', 0.0, -1355.2533215586332, 0.0, 0.0, 0.0, 0.0, -7611.014856221063, 0.0]
['beep', 0.0, -1328.9453183347366, 0.0, 0.0, 0.0, 0.0, -7426.903537142699, 0.0]
['beep', 0.0, -1328.4088764678093, 0.0, 0.0, 0.0, 0.0, -7319.369294568217, 0.0]
['beep', 0.0, -1341.8199231409935, 0.0, 0.0, 0.0, 0.0, -7599.235486893116, 0.0]
['beep', 0.0, -1381.2484003601553, 0.0, 0.0, 0.0, 0.0, -7609.383178875826, 0.0]
['beep', 0.0, -1356.8402954149599, 0.0, 0.0, 0.0, 0.0, -7613.585306833424, 0.0]
['beep', 0.0, -1313.2543937271112, 0.0, 0.0, 0.0, 0.0, -7418.298115527406, 0.0]
['beep', 0.0, -1319.9152135747927, 0.0, 0.0, 0.0, 0.0, -7298.783337924879, 0.0]
['beep', 0.0, -1335.7849521380606, 0.0, 0.0, 0.0, 0.0, -7589.132498399317, 0.0]
['beep', 0.0, -1386.903391707348, 0.0, 0.0, 0.0, 0.0, -7611.081911454429, 0.0]
['beep', 0.0, -1342.8257516414824, 0.0, 0.0, 0.0, 0.0, -7608.287943397516, 0.0]
['beep', 0.0, -1324.4079142103094, 0.0, 0.0, 0.0, 0.0, -7405.535269443425, 0.0]
['beep', 0.0, -1336.9472428497365, 0.0, 0.0, 0.0, 0.0, -7277.325663247784, 0.0]
['beep', 0.0, -1323.715010132195, 0.0, 0.0, 0.0, 0.0, -7584.97507393063, 0.0]
['beep', 0.0, -1390.3008568645546, 0.0, 0.0, 0.0, 0.0, -7612.624181821845, 0.0]
['beep', 0.0, -1361.4447547727532, 0.0, 0.0, 0.0, 0.0, -7613.875879511343, 0.0]
['beep', 0.0, -1338.4448097282423, 0.0, 0.0, 0.0, 0.0, -7397.153365272685, 0.0]
['beep', 0.0, -1320.9210420752815, 0.0, 0.0, 0.0, 0.0, -7253.096372258231, 0.0]
['beep', 0.0, -1314.3719809498766, 0.0, 0.0, 0.0, 0.0, -7586.047957664485, 0.0]
['beep', 0.0, -1377.1356793803786, 0.0, 0.0, 0.0, 0.0, -7606.320989885448, 0.0]
['beep', 0.0, -1368.84318218746, 0.0, 0.0, 0.0, 0.0, -7605.896306740798, 0.0]
['beep', 0.0, -1311.2427367261334, 0.0, 0.0, 0.0, 0.0, -7382.334158698816, 0.0]
['beep', 0.0, -1331.515768947097, 0.0, 0.0, 0.0, 0.0, -7231.169310947575, 0.0]
['beep', 0.0, -1322.485664187153, 0.0, 0.0, 0.0, 0.0, -7583.745727985589, 0.0]
['beep', 0.0, -1369.1784583542894, 0.0, 0.0, 0.0, 0.0, -7618.726208058144, 0.0]
['beep', 0.0, -1349.9112546338147, 0.0, 0.0, 0.0, 0.0, -7612.445367866203, 0.0]
['beep', 0.0, -1325.1455217773346, 0.0, 0.0, 0.0, 0.0, -7367.783173058412, 0.0]
['beep', 0.0, -1317.1435972623347, 0.0, 0.0, 0.0, 0.0, -7209.421063592561, 0.0]
['beep', 0.0, -1330.7781613800719, 0.0, 0.0, 0.0, 0.0, -7573.151001113773, 0.0]
['beep', 0.0, -1384.7352724951832, 0.0, 0.0, 0.0, 0.0, -7617.072178968451, 0.0]
['beep', 0.0, -1347.832542399471, 0.0, 0.0, 0.0, 0.0, -7617.094530712907, 0.0]
['beep', 0.0, -1320.295193230533, 0.0, 0.0, 0.0, 0.0, -7361.122353210731, 0.0]
['beep', 0.0, -1316.45069318422, 0.0, 0.0, 0.0, 0.0, -7194.557153529782, 0.0]
['beep', 0.0, -1341.998737096636, 0.0, 0.0, 0.0, 0.0, -7567.741878955589, 0.0]
['beep', 0.0, -1368.351443809443, 0.0, 0.0, 0.0, 0.0, -7618.145062702306, 0.0]
['beep', 0.0, -1334.488550959653, 0.0, 0.0, 0.0, 0.0, -7618.614449335868, 0.0]
['beep', 0.0, -1347.3631557659098, 0.0, 0.0, 0.0, 0.0, -7357.903702009166, 0.0]
['beep', 0.0, -1315.4895681726418, 0.0, 0.0, 0.0, 0.0, -7180.4532027784835, 0.0]
['beep', 0.0, -1312.7626553490943, 0.0, 0.0, 0.0, 0.0, -7563.718564953633, 0.0]
['beep', 0.0, -1384.1094236504346, 0.0, 0.0, 0.0, 0.0, -7618.7485598026, 0.0]
['beep', 0.0, -1352.6381674573622, 0.0, 0.0, 0.0, 0.0, -7612.087739954918, 0.0]
['beep', 0.0, -1331.6051759249183, 0.0, 0.0, 0.0, 0.0, -7352.136951939697, 0.0]
['beep', 0.0, -1332.521597447586, 0.0, 0.0, 0.0, 0.0, -7167.288025294308, 0.0]
['beep', 0.0, -1331.1357892913568, 0.0, 0.0, 0.0, 0.0, -7561.617500974835, 0.0]
['beep', 0.0, -1350.8276761564823, 0.0, 0.0, 0.0, 0.0, -7624.001219749596, 0.0]
['beep', 0.0, -1354.0910308469572, 0.0, 0.0, 0.0, 0.0, -7613.965286489164, 0.0]
['beep', 0.0, -1312.6956001157284, 0.0, 0.0, 0.0, 0.0, -7343.4644750910375, 0.0]
['beep', 0.0, -1325.190225266245, 0.0, 0.0, 0.0, 0.0, -7154.480475721416, 0.0]
['beep', 0.0, -1348.972481366692, 0.0, 0.0, 0.0, 0.0, -7556.700117194667, 0.0]
['beep', 0.0, -1356.5273709925857, 0.0, 0.0, 0.0, 0.0, -7629.119769229862, 0.0]
['beep', 0.0, -1339.1377138063567, 0.0, 0.0, 0.0, 0.0, -7612.467719610659, 0.0]
['beep', 0.0, -1324.6984868882284, 0.0, 0.0, 0.0, 0.0, -7335.529605809404, 0.0]
['beep', 0.0, -1344.2786150310774, 0.0, 0.0, 0.0, 0.0, -7144.265728505341, 0.0]
['beep', 0.0, -1336.5672631939965, 0.0, 0.0, 0.0, 0.0, -7548.452323490659, 0.0]
['beep', 0.0, -1355.9909291256583, 0.0, 0.0, 0.0, 0.0, -7623.643591838311, 0.0]
['beep', 0.0, -1346.9608243657142, 0.0, 0.0, 0.0, 0.0, -7614.948763245197, 0.0]
['beep', 0.0, -1309.4993006586196, 0.0, 0.0, 0.0, 0.0, -7338.614146544236, 0.0]
['beep', 0.0, -1323.9608793212033, 0.0, 0.0, 0.0, 0.0, -7137.113170279643, 0.0]
['beep', 0.0, -1341.6858126742618, 0.0, 0.0, 0.0, 0.0, -7546.842997889877, 0.0]
['beep', 0.0, -1357.3543855374319, 0.0, 0.0, 0.0, 0.0, -7627.13046397334, 0.0]
['beep', 0.0, -1333.0580393145133, 0.0, 0.0, 0.0, 0.0, -7618.390931891315, 0.0]
['beep', 0.0, -1345.7985336540382, 0.0, 0.0, 0.0, 0.0, -7338.234166888496, 0.0]
['beep', 0.0, -1324.2067485102116, 0.0, 0.0, 0.0, 0.0, -7131.905213821557, 0.0]
['beep', 0.0, -1313.030876282558, 0.0, 0.0, 0.0, 0.0, -7544.7419339110775, 0.0]
['beep', 0.0, -1370.1172316214124, 0.0, 0.0, 0.0, 0.0, -7620.424940636747, 0.0]
['beep', 0.0, -1337.6624986723066, 0.0, 0.0, 0.0, 0.0, -7612.445367866203, 0.0]
['beep', 0.0, -1313.4779111716641, 0.0, 0.0, 0.0, 0.0, -7334.523777308915, 0.0]
['beep', 0.0, -1314.8637193278933, 0.0, 0.0, 0.0, 0.0, -7121.019914271822, 0.0]
['beep', 0.0, -1330.1076090464128, 0.0, 0.0, 0.0, 0.0, -7537.879948363298, 0.0]
['beep', 0.0, -1345.5973679539404, 0.0, 0.0, 0.0, 0.0, -7624.492958127614, 0.0]
['beep', 0.0, -1338.6236236838847, 0.0, 0.0, 0.0, 0.0, -7616.200460934694, 0.0]
['beep', 0.0, -1328.5206351900858, 0.0, 0.0, 0.0, 0.0, -7334.4790738200045, 0.0]
['beep', 0.0, -1329.1911875237452, 0.0, 0.0, 0.0, 0.0, -7118.896498548567, 0.0]
['beep', 0.0, -1331.001678824625, 0.0, 0.0, 0.0, 0.0, -7537.25409951855, 0.0]
['beep', 0.0, -1350.5371034785633, 0.0, 0.0, 0.0, 0.0, -7623.397722649303, 0.0]
['beep', 0.0, -1362.003548384136, 0.0, 0.0, 0.0, 0.0, -7617.496862113102, 0.0]
['beep', 0.0, -1310.840405325938, 0.0, 0.0, 0.0, 0.0, -7334.12144590872, 0.0]
['beep', 0.0, -1301.0726929989687, 0.0, 0.0, 0.0, 0.0, -7113.152100223554, 0.0]
['beep', 0.0, -1335.9861178381584, 0.0, 0.0, 0.0, 0.0, -7524.580660412391, 0.0]
['beep', 0.0, -1377.806231714038, 0.0, 0.0, 0.0, 0.0, -7622.436597637725, 0.0]
['beep', 0.0, -1328.0512485565243, 0.0, 0.0, 0.0, 0.0, -7614.300562655993, 0.0]
['beep', 0.0, -1307.5323471465526, 0.0, 0.0, 0.0, 0.0, -7338.725905266512, 0.0]
['beep', 0.0, -1327.7383241341502, 0.0, 0.0, 0.0, 0.0, -7115.387274669084, 0.0]
['beep', 0.0, -1316.875376328871, 0.0, 0.0, 0.0, 0.0, -7533.074323305407, 0.0]
['beep', 0.0, -1342.289309774555, 0.0, 0.0, 0.0, 0.0, -7622.123673215351, 0.0]
['beep', 0.0, -1340.5011702181305, 0.0, 0.0, 0.0, 0.0, -7613.272382411049, 0.0]
['beep', 0.0, -1318.551757163019, 0.0, 0.0, 0.0, 0.0, -7337.161283154641, 0.0]
['beep', 0.0, -1339.3388795064545, 0.0, 0.0, 0.0, 0.0, -7108.324123421207, 0.0]
['beep', 0.0, -1305.16306223429, 0.0, 0.0, 0.0, 0.0, -7523.127797022796, 0.0]
['beep', 0.0, -1340.7693911515942, 0.0, 0.0, 0.0, 0.0, -7627.666905840267, 0.0]
['beep', 0.0, -1352.0123186126136, 0.0, 0.0, 0.0, 0.0, -7613.6523620667895, 0.0]
['beep', 0.0, -1327.7830276230607, 0.0, 0.0, 0.0, 0.0, -7331.841567974278, 0.0]
['beep', 0.0, -1319.065847285491, 0.0, 0.0, 0.0, 0.0, -7093.907248247534, 0.0]
['beep', 0.0, -1320.1163792748905, 0.0, 0.0, 0.0, 0.0, -7523.261907489527, 0.0]
['beep', 0.0, -1343.9433388642478, 0.0, 0.0, 0.0, 0.0, -7628.180995962739, 0.0]
['beep', 0.0, -1349.8665511449042, 0.0, 0.0, 0.0, 0.0, -7612.311257399471, 0.0]
['beep', 0.0, -1324.4973211881306, 0.0, 0.0, 0.0, 0.0, -7331.998030185465, 0.0]
['beep', 0.0, -1319.3787717078653, 0.0, 0.0, 0.0, 0.0, -7087.112317933121, 0.0]
['beep', 0.0, -1326.6654404002954, 0.0, 0.0, 0.0, 0.0, -7517.383398697782, 0.0]
['beep', 0.0, -1351.2076558122226, 0.0, 0.0, 0.0, 0.0, -7621.251955181594, 0.0]
['beep', 0.0, -1335.9861178381584, 0.0, 0.0, 0.0, 0.0, -7612.132443443828, 0.0]
['beep', 0.0, -1315.131940261357, 0.0, 0.0, 0.0, 0.0, -7328.533509794893, 0.0]
['beep', 0.0, -1320.6304693973625, 0.0, 0.0, 0.0, 0.0, -7081.2561608858305, 0.0]
['beep', 0.0, -1326.9336613337591, 0.0, 0.0, 0.0, 0.0, -7513.404788184737, 0.0]
['beep', 0.0, -1344.83740864246, 0.0, 0.0, 0.0, 0.0, -7627.957478518186, 0.0]
['beep', 0.0, -1331.73928639165, 0.0, 0.0, 0.0, 0.0, -7615.149928945295, 0.0]
['beep', 0.0, -1316.0483617840246, 0.0, 0.0, 0.0, 0.0, -7327.997067927965, 0.0]
['beep', 0.0, -1326.0842950444573, 0.0, 0.0, 0.0, 0.0, -7076.361128850118, 0.0]
['beep', 0.0, -1313.9249460607705, 0.0, 0.0, 0.0, 0.0, -7515.282334718983, 0.0]
['beep', 0.0, -1339.8529696289265, 0.0, 0.0, 0.0, 0.0, -7630.483225641636, 0.0]
['beep', 0.0, -1318.350591462921, 0.0, 0.0, 0.0, 0.0, -7615.976943490142, 0.0]
['beep', 0.0, -1327.648917156329, 0.0, 0.0, 0.0, 0.0, -7324.756064981946, 0.0]
['beep', 0.0, -1319.6246408968736, 0.0, 0.0, 0.0, 0.0, -7072.4495735704395, 0.0]
['beep', 0.0, -1328.163007278801, 0.0, 0.0, 0.0, 0.0, -7508.040369515464, 0.0]
['beep', 0.0, -1340.545873707041, 0.0, 0.0, 0.0, 0.0, -7626.45991163968, 0.0]
['beep', 0.0, -1337.2154637832002, 0.0, 0.0, 0.0, 0.0, -7610.813690520966, 0.0]
['beep', 0.0, -1316.07071352848, 0.0, 0.0, 0.0, 0.0, -7329.3158208508285, 0.0]
['beep', 0.0, -1313.321448960477, 0.0, 0.0, 0.0, 0.0, -7068.49331480185, 0.0]
['beep', 0.0, -1328.1183037898904, 0.0, 0.0, 0.0, 0.0, -7503.190040968662, 0.0]
['beep', 0.0, -1345.2844435315662, 0.0, 0.0, 0.0, 0.0, -7625.31997267246, 0.0]
['beep', 0.0, -1333.4380189702533, 0.0, 0.0, 0.0, 0.0, -7615.038170223019, 0.0]
['beep', 0.0, -1316.3612862063987, 0.0, 0.0, 0.0, 0.0, -7330.12048365122, 0.0]
['beep', 0.0, -1315.578975150463, 0.0, 0.0, 0.0, 0.0, -7067.979224679378, 0.0]
['beep', 0.0, -1322.195091509234, 0.0, 0.0, 0.0, 0.0, -7503.905296791232, 0.0]
['beep', 0.0, -1340.3670597513985, 0.0, 0.0, 0.0, 0.0, -7623.576536604945, 0.0]
['beep', 0.0, -1336.768428894094, 0.0, 0.0, 0.0, 0.0, -7614.993466734108, 0.0]
['beep', 0.0, -1322.5303676760636, 0.0, 0.0, 0.0, 0.0, -7334.613184286736, 0.0]
['beep', 0.0, -1316.897728073326, 0.0, 0.0, 0.0, 0.0, -7069.879122958079, 0.0]
['beep', 0.0, -1321.904518831315, 0.0, 0.0, 0.0, 0.0, -7504.195869469151, 0.0]
['beep', 0.0, -1344.5915394534516, 0.0, 0.0, 0.0, 0.0, -7622.503652871091, 0.0]
['beep', 0.0, -1324.8325973549602, 0.0, 0.0, 0.0, 0.0, -7614.278210911538, 0.0]
['beep', 0.0, -1309.8569285699045, 0.0, 0.0, 0.0, 0.0, -7337.720076766023, 0.0]
['beep', 0.0, -1319.490530430142, 0.0, 0.0, 0.0, 0.0, -7071.287282858763, 0.0]
['beep', 0.0, -1319.7587513636056, 0.0, 0.0, 0.0, 0.0, -7500.329017678383, 0.0]
['beep', 0.0, -1346.7596586656164, 0.0, 0.0, 0.0, 0.0, -7622.771873804555, 0.0]
['beep', 0.0, -1342.6022341969294, 0.0, 0.0, 0.0, 0.0, -7614.546431845001, 0.0]
['beep', 0.0, -1322.3962572093317, 0.0, 0.0, 0.0, 0.0, -7340.424637845116, 0.0]
['beep', 0.0, -1313.969649549681, 0.0, 0.0, 0.0, 0.0, -7070.549675291739, 0.0]
['beep', 0.0, -1314.0590565275022, 0.0, 0.0, 0.0, 0.0, -7500.038445000464, 0.0]
['beep', 0.0, -1338.713030661706, 0.0, 0.0, 0.0, 0.0, -7624.224737194149, 0.0]
['beep', 0.0, -1334.6897166597507, 0.0, 0.0, 0.0, 0.0, -7615.686370812223, 0.0]
['beep', 0.0, -1317.54592866253, 0.0, 0.0, 0.0, 0.0, -7343.687992535591, 0.0]
['beep', 0.0, -1318.1270740183681, 0.0, 0.0, 0.0, 0.0, -7067.845114212646, 0.0]
['beep', 0.0, -1316.2495274841224, 0.0, 0.0, 0.0, 0.0, -7497.378587410282, 0.0]
['beep', 0.0, -1335.0473445710356, 0.0, 0.0, 0.0, 0.0, -7625.31997267246, 0.0]
['beep', 0.0, -1333.9297573482702, 0.0, 0.0, 0.0, 0.0, -7614.389969633815, 0.0]
['beep', 0.0, -1312.874414071371, 0.0, 0.0, 0.0, 0.0, -7347.599547815269, 0.0]
['beep', 0.0, -1322.0833327869575, 0.0, 0.0, 0.0, 0.0, -7073.410698582018, 0.0]
['beep', 0.0, -1319.4681786856866, 0.0, 0.0, 0.0, 0.0, -7496.372758909793, 0.0]
['beep', 0.0, -1342.6022341969294, 0.0, 0.0, 0.0, 0.0, -7623.12950171584, 0.0]
['beep', 0.0, -1325.7266671331724, 0.0, 0.0, 0.0, 0.0, -7613.853527766887, 0.0]
['beep', 0.0, -1312.2709169710777, 0.0, 0.0, 0.0, 0.0, -7348.471265849026, 0.0]
['beep', 0.0, -1317.5682804069854, 0.0, 0.0, 0.0, 0.0, -7069.476791557884, 0.0]
['beep', 0.0, -1317.6129838958961, 0.0, 0.0, 0.0, 0.0, -7492.997645497042, 0.0]
['beep', 0.0, -1338.3106992615103, 0.0, 0.0, 0.0, 0.0, -7623.151853460295, 0.0]
['beep', 0.0, -1328.7665043790942, 0.0, 0.0, 0.0, 0.0, -7614.702894056189, 0.0]
['beep', 0.0, -1315.3331059614547, 0.0, 0.0, 0.0, 0.0, -7347.711306537546, 0.0]
['beep', 0.0, -1312.7626553490943, 0.0, 0.0, 0.0, 0.0, -7064.671166499993, 0.0]
['beep', 0.0, -1317.8812048293598, 0.0, 0.0, 0.0, 0.0, -7489.846049528844, 0.0]
['beep', 0.0, -1341.0152603406025, 0.0, 0.0, 0.0, 0.0, -7626.236394195127, 0.0]
['beep', 0.0, -1326.8889578448484, 0.0, 0.0, 0.0, 0.0, -7617.496862113102, 0.0]
['beep', 0.0, -1319.289364730044, 0.0, 0.0, 0.0, 0.0, -7349.410039116149, 0.0]
['beep', 0.0, -1318.0153152960916, 0.0, 0.0, 0.0, 0.0, -7058.457381541417, 0.0]
['beep', 0.0, -1322.7315333761615, 0.0, 0.0, 0.0, 0.0, -7486.426232627182, 0.0]
['beep', 0.0, -1333.54977769253, 0.0, 0.0, 0.0, 0.0, -7620.491995870113, 0.0]
['beep', 0.0, -1328.967670079192, 0.0, 0.0, 0.0, 0.0, -7611.014856221063, 0.0]
['beep', 0.0, -1320.6975246307284, 0.0, 0.0, 0.0, 0.0, -7349.655908305158, 0.0]
['beep', 0.0, -1326.5089781891083, 0.0, 0.0, 0.0, 0.0, -7053.517646016794, 0.0]
['beep', 0.0, -1320.8986903308262, 0.0, 0.0, 0.0, 0.0, -7478.9383982346535, 0.0]
['beep', 0.0, -1331.6498794138288, 0.0, 0.0, 0.0, 0.0, -7626.772836062055, 0.0]
['beep', 0.0, -1325.9501845777256, 0.0, 0.0, 0.0, 0.0, -7615.172280689751, 0.0]
['beep', 0.0, -1313.4779111716641, 0.0, 0.0, 0.0, 0.0, -7340.067009933831, 0.0]
['beep', 0.0, -1315.2436989836335, 0.0, 0.0, 0.0, 0.0, -7043.3923057785405, 0.0]
['beep', 0.0, -1314.3719809498766, 0.0, 0.0, 0.0, 0.0, -7477.5302383339695, 0.0]
['beep', 0.0, -1326.5983851669296, 0.0, 0.0, 0.0, 0.0, -7627.6222023513565, 0.0]
['beep', 0.0, -1330.3087747465104, 0.0, 0.0, 0.0, 0.0, -7613.071216710951, 0.0]
['beep', 0.0, -1315.1989954947228, 0.0, 0.0, 0.0, 0.0, -7342.413943101638, 0.0]
['beep', 0.0, -1318.551757163019, 0.0, 0.0, 0.0, 0.0, -7034.541014974238, 0.0]
['beep', 0.0, -1318.6411641408401, 0.0, 0.0, 0.0, 0.0, -7468.321319618383, 0.0]
['beep', 0.0, -1328.2524142566222, 0.0, 0.0, 0.0, 0.0, -7626.45991163968, 0.0]
['beep', 0.0, -1325.7713706220832, 0.0, 0.0, 0.0, 0.0, -7613.585306833424, 0.0]
['beep', 0.0, -1316.093065272935, 0.0, 0.0, 0.0, 0.0, -7337.161283154641, 0.0]
['beep', 0.0, -1319.9152135747927, 0.0, 0.0, 0.0, 0.0, -7022.783997390748, 0.0]
['beep', 0.0, -1318.2388327406447, 0.0, 0.0, 0.0, 0.0, -7459.134752647252, 0.0]
['beep', 0.0, -1326.4419229557423, 0.0, 0.0, 0.0, 0.0, -7623.710647071678, 0.0]
['beep', 0.0, -1322.8656438428932, 0.0, 0.0, 0.0, 0.0, -7612.132443443828, 0.0]
['beep', 0.0, -1312.360323948899, 0.0, 0.0, 0.0, 0.0, -7329.919317951121, 0.0]
['beep', 0.0, -1318.0600187850023, 0.0, 0.0, 0.0, 0.0, -7008.210660005887, 0.0]
['beep', 0.0, -1320.4069519528093, 0.0, 0.0, 0.0, 0.0, -7451.423400810171, 0.0]
['beep', 0.0, -1324.385562465854, 0.0, 0.0, 0.0, 0.0, -7624.425902894248, 0.0]
['beep', 0.0, -1317.9929635516362, 0.0, 0.0, 0.0, 0.0, -7612.93710624422, 0.0]
['beep', 0.0, -1312.3156204599882, 0.0, 0.0, 0.0, 0.0, -7324.823120215312, 0.0]
['beep', 0.0, -1317.1659490067898, 0.0, 0.0, 0.0, 0.0, -6991.759776086781, 0.0]
['beep', 0.0, -1319.3340682189546, 0.0, 0.0, 0.0, 0.0, -7442.437999539137, 0.0]
['beep', 0.0, -1324.6090799104072, 0.0, 0.0, 0.0, 0.0, -7629.298583185504, 0.0]
['beep', 0.0, -1320.45165544172, 0.0, 0.0, 0.0, 0.0, -7614.345266144904, 0.0]
['beep', 0.0, -1315.6013268949184, 0.0, 0.0, 0.0, 0.0, -7313.982524154488, 0.0]
['beep', 0.0, -1319.4681786856866, 0.0, 0.0, 0.0, 0.0, -6971.173819443443, 0.0]
['beep', 0.0, -1319.1105507744016, 0.0, 0.0, 0.0, 0.0, -7430.971554633565, 0.0]
['beep', 0.0, -1316.1824722507563, 0.0, 0.0, 0.0, 0.0, -7627.488091884625, 0.0]
['beep', 0.0, -1313.2767454715665, 0.0, 0.0, 0.0, 0.0, -7611.148966687795, 0.0]
['beep', 0.0, -1314.6402018833403, 0.0, 0.0, 0.0, 0.0, -7304.170108338608, 0.0]
['beep', 0.0, -1319.9822688081586, 0.0, 0.0, 0.0, 0.0, -6952.085429678611, 0.0]
['beep', 0.0, -1318.0153152960916, 0.0, 0.0, 0.0, 0.0, -7416.018237592964, 0.0]
['beep', 0.0, -1314.327277460966, 0.0, 0.0, 0.0, 0.0, -7625.0964552279065, 0.0]
['beep', 0.0, -1313.321448960477, 0.0, 0.0, 0.0, 0.0, -7611.037207965519, 0.0]
['beep', 0.0, -1316.8306728399602, 0.0, 0.0, 0.0, 0.0, -7295.162355323119, 0.0]
['beep', 0.0, -1319.2446612411334, 0.0, 0.0, 0.0, 0.0, -6933.198205613877, 0.0]
['beep', 0.0, -1317.6353356403513, 0.0, 0.0, 0.0, 0.0, -7406.22817352154, 0.0]
['beep', 0.0, -1311.8015303375162, 0.0, 0.0, 0.0, 0.0, -7627.041056995518, 0.0]
['beep', 0.0, -1309.387541936343, 0.0, 0.0, 0.0, 0.0, -7612.646533566301, 0.0]
['beep', 0.0, -1312.7626553490943, 0.0, 0.0, 0.0, 0.0, -7299.677407703091, 0.0]
['beep', 0.0, -1317.9259083182703, 0.0, 0.0, 0.0, 0.0, -6937.377981827019, 0.0]
['beep', 0.0, -1317.255355984611, 0.0, 0.0, 0.0, 0.0, -7407.546926444403, 0.0]
['beep', 0.0, -1313.7908355940385, 0.0, 0.0, 0.0, 0.0, -7625.5658418614685, 0.0]
['beep', 0.0, -1310.7286466036614, 0.0, 0.0, 0.0, 0.0, -7611.55129808799, 0.0]
['beep', 0.0, -1314.3049257165105, 0.0, 0.0, 0.0, 0.0, -7310.897983419655, 0.0]
['beep', 0.0, -1318.998792052125, 0.0, 0.0, 0.0, 0.0, -6949.067944177144, 0.0]
['beep', 0.0, -1320.6975246307284, 0.0, 0.0, 0.0, 0.0, -7409.6703421676575, 0.0]
['beep', 0.0, -1318.2835362295552, 0.0, 0.0, 0.0, 0.0, -7624.716475572166, 0.0]
['beep', 0.0, -1316.093065272935, 0.0, 0.0, 0.0, 0.0, -7612.802995777488, 0.0]
['beep', 0.0, -1314.7072571167062, 0.0, 0.0, 0.0, 0.0, -7315.033056143887, 0.0]
['beep', 0.0, -1320.9433938197367, 0.0, 0.0, 0.0, 0.0, -6950.744325011293, 0.0]
['beep', 0.0, -1320.4293036972647, 0.0, 0.0, 0.0, 0.0, -7407.837499122322, 0.0]
['beep', 0.0, -1320.4069519528093, 0.0, 0.0, 0.0, 0.0, -7623.487129627125, 0.0]
['beep', 0.0, -1309.9463355477258, 0.0, 0.0, 0.0, 0.0, -7611.573649832446, 0.0]
['beep', 0.0, -1311.130978003857, 0.0, 0.0, 0.0, 0.0, -7317.871727689711, 0.0]
['beep', 0.0, -1317.8812048293598, 0.0, 0.0, 0.0, 0.0, -6951.638394789505, 0.0]
['beep', 0.0, -1317.7247426181725, 0.0, 0.0, 0.0, 0.0, -7405.781138632434, 0.0]
['beep', 0.0, -1318.1270740183681, 0.0, 0.0, 0.0, 0.0, -7624.336495916426, 0.0]
['beep', 0.0, -1317.4565216847088, 0.0, 0.0, 0.0, 0.0, -7613.026513222041, 0.0]
['beep', 0.0, -1315.8918995728375, 0.0, 0.0, 0.0, 0.0, -7322.655001003147, 0.0]
['beep', 0.0, -1322.0833327869575, 0.0, 0.0, 0.0, 0.0, -6954.611176802061, 0.0]
['beep', 0.0, -1319.289364730044, 0.0, 0.0, 0.0, 0.0, -7405.155289787685, 0.0]
['beep', 0.0, -1316.5624519064966, 0.0, 0.0, 0.0, 0.0, -7624.939993016719, 0.0]
['beep', 0.0, -1315.1095885169016, 0.0, 0.0, 0.0, 0.0, -7612.154795188284, 0.0]
['beep', 0.0, -1315.1095885169016, 0.0, 0.0, 0.0, 0.0, -7323.750236481457, 0.0]
['beep', 0.0, -1316.383637950854, 0.0, 0.0, 0.0, 0.0, -6954.454714590874, 0.0]
['beep', 0.0, -1315.1095885169016, 0.0, 0.0, 0.0, 0.0, -7404.708254898579, 0.0]
['beep', 0.0, -1314.6625536277954, 0.0, 0.0, 0.0, 0.0, -7624.783530805533, 0.0]
['beep', 0.0, -1312.673248371273, 0.0, 0.0, 0.0, 0.0, -7611.372484132348, 0.0]
['beep', 0.0, -1310.5051291591085, 0.0, 0.0, 0.0, 0.0, -7324.778416726401, 0.0]
['beep', 0.0, -1313.8578908274044, 0.0, 0.0, 0.0, 0.0, -6954.722935524337, 0.0]
['beep', 0.0, -1313.9920012941363, 0.0, 0.0, 0.0, 0.0, -7400.640237407713, 0.0]
['beep', 0.0, -1313.1426350048346, 0.0, 0.0, 0.0, 0.0, -7621.006085992585, 0.0]
['beep', 0.0, -1317.389466451343, 0.0, 0.0, 0.0, 0.0, -7609.6961032982, 0.0]
['beep', 0.0, -1311.846233826427, 0.0, 0.0, 0.0, 0.0, -7332.623879030214, 0.0]
['beep', 0.0, -1313.030876282558, 0.0, 0.0, 0.0, 0.0, -6961.47316234984, 0.0]
['beep', 0.0, -1314.7072571167062, 0.0, 0.0, 0.0, 0.0, -7402.786004875423, 0.0]
['beep', 0.0, -1317.5906321514408, 0.0, 0.0, 0.0, 0.0, -7621.721341815155, 0.0]
['beep', 0.0, -1314.4390361832425, 0.0, 0.0, 0.0, 0.0, -7612.311257399471, 0.0]
['beep', 0.0, -1311.2650884705888, 0.0, 0.0, 0.0, 0.0, -7341.519873323426, 0.0]
['beep', 0.0, -1314.774312350072, 0.0, 0.0, 0.0, 0.0, -6973.230179933332, 0.0]
['beep', 0.0, -1315.869547828382, 0.0, 0.0, 0.0, 0.0, -7406.3846357327275, 0.0]
['beep', 0.0, -1317.2330042401559, 0.0, 0.0, 0.0, 0.0, -7620.916679014765, 0.0]
['beep', 0.0, -1315.9813065506587, 0.0, 0.0, 0.0, 0.0, -7613.071216710951, 0.0]
['beep', 0.0, -1309.096969258424, 0.0, 0.0, 0.0, 0.0, -7350.527626338915, 0.0]
['beep', 0.0, -1311.9132890597928, 0.0, 0.0, 0.0, 0.0, -6985.009549261278, 0.0]
['beep', 0.0, -1315.9589548062033, 0.0, 0.0, 0.0, 0.0, -7411.927868357643, 0.0]
['beep', 0.0, -1321.9268705757704, 0.0, 0.0, 0.0, 0.0, -7622.816577293465, 0.0]
['beep', 0.0, -1320.6528211418179, 0.0, 0.0, 0.0, 0.0, -7614.948763245197, 0.0]
['beep', 0.0, -1310.9745157926698, 0.0, 0.0, 0.0, 0.0, -7368.207856203063, 0.0]
['beep', 0.0, -1316.1154170173904, 0.0, 0.0, 0.0, 0.0, -7013.038636808234, 0.0]
['beep', 0.0, -1317.6576873848066, 0.0, 0.0, 0.0, 0.0, -7425.025990608453, 0.0]
['beep', 0.0, -1327.4701032006865, 0.0, 0.0, 0.0, 0.0, -7620.536699359024, 0.0]
['beep', 0.0, -1326.9336613337591, 0.0, 0.0, 0.0, 0.0, -7612.423016121747, 0.0]
['beep', 0.0, -1311.2874402150442, 0.0, 0.0, 0.0, 0.0, -7383.854077321777, 0.0]
['beep', 0.0, -1315.2213472391782, 0.0, 0.0, 0.0, 0.0, -7039.1678260764875, 0.0]
['beep', 0.0, -1317.3447629624322, 0.0, 0.0, 0.0, 0.0, -7438.571147748369, 0.0]
['beep', 0.0, -1332.4768939586752, 0.0, 0.0, 0.0, 0.0, -7619.419112136258, 0.0]
['beep', 0.0, -1330.9793270801697, 0.0, 0.0, 0.0, 0.0, -7612.646533566301, 0.0]
['beep', 0.0, -1310.7957018370273, 0.0, 0.0, 0.0, 0.0, -7398.293304239906, 0.0]
['beep', 0.0, -1312.4720826711755, 0.0, 0.0, 0.0, 0.0, -7063.151247877032, 0.0]
['beep', 0.0, -1313.5896698939407, 0.0, 0.0, 0.0, 0.0, -7444.114380373286, 0.0]
['beep', 0.0, -1336.2096352827116, 0.0, 0.0, 0.0, 0.0, -7614.7475975451, 0.0]
['beep', 0.0, -1338.0871818169574, 0.0, 0.0, 0.0, 0.0, -7610.321952142948, 0.0]
['beep', 0.0, -1308.4711204136754, 0.0, 0.0, 0.0, 0.0, -7405.468214210059, 0.0]
['beep', 0.0, -1314.1931669942342, 0.0, 0.0, 0.0, 0.0, -7079.602131796138, 0.0]
['beep', 0.0, -1311.6674198707844, 0.0, 0.0, 0.0, 0.0, -7444.740229218034, 0.0]
['beep', 0.0, -1335.1367515488569, 0.0, 0.0, 0.0, 0.0, -7590.250085622083, 0.0]
['beep', 0.0, -1337.4389812277534, 0.0, 0.0, 0.0, 0.0, -7572.905131924765, 0.0]
['beep', 0.0, -1307.8899750578375, 0.0, 0.0, 0.0, 0.0, -7395.521687927448, 0.0]
['beep', 0.0, -1309.87928031436, 0.0, 0.0, 0.0, 0.0, -7087.604056311137, 0.0]
['beep', 0.0, -1310.4604256701978, 0.0, 0.0, 0.0, 0.0, -7419.750978917001, 0.0]
['beep', 0.0, -1339.1377138063567, 0.0, 0.0, 0.0, 0.0, -7536.6953059071675, 0.0]
['beep', 0.0, -1337.7966091390383, 0.0, 0.0, 0.0, 0.0, -7526.458206946637, 0.0]
['beep', 0.0, -1303.844309311427, 0.0, 0.0, 0.0, 0.0, -7371.605321360269, 0.0]
['beep', 0.0, -1307.1076640019016, 0.0, 0.0, 0.0, 0.0, -7087.559352822227, 0.0]
['beep', 0.0, -1307.1970709797229, 0.0, 0.0, 0.0, 0.0, -7389.084385524319, 0.0]
['beep', 0.0, -1337.4613329722088, 0.0, 0.0, 0.0, 0.0, -7483.900485503732, 0.0]
['beep', 0.0, -1339.0259550840801, 0.0, 0.0, 0.0, 0.0, -7478.334901134361, 0.0]
['beep', 0.0, -1307.5770506354631, 0.0, 0.0, 0.0, 0.0, -7353.411001373649, 0.0]
['beep', 0.0, -1308.4040651803095, 0.0, 0.0, 0.0, 0.0, -7096.075367459699, 0.0]
['beep', 0.0, -1309.8122250809938, 0.0, 0.0, 0.0, 0.0, -7387.519763412448, 0.0]
['beep', 0.0, -1338.4001062393315, 0.0, 0.0, 0.0, 0.0, -7486.381529138271, 0.0]
['beep', 0.0, -1338.1318853058679, 0.0, 0.0, 0.0, 0.0, -7492.4388518856595, 0.0]
['beep', 0.0, -1301.5420796325302, 0.0, 0.0, 0.0, 0.0, -7368.207856203063, 0.0]
['beep', 0.0, -1304.0231232670694, 0.0, 0.0, 0.0, 0.0, -7103.8537745301455, 0.0]
['beep', 0.0, -1305.6995041012174, 0.0, 0.0, 0.0, 0.0, -7401.757824630478, 0.0]
['beep', 0.0, -1339.8529696289265, 0.0, 0.0, 0.0, 0.0, -7512.018980028508, 0.0]
['beep', 0.0, -1342.7586964081165, 0.0, 0.0, 0.0, 0.0, -7518.568041153913, 0.0]
['beep', 0.0, -1307.1970709797229, 0.0, 0.0, 0.0, 0.0, -7398.136842028719, 0.0]
['beep', 0.0, -1308.7169896026837, 0.0, 0.0, 0.0, 0.0, -7143.662231405048, 0.0]
['beep', 0.0, -1311.5780128929632, 0.0, 0.0, 0.0, 0.0, -7437.297098314417, 0.0]
['beep', 0.0, -1349.1736470667895, 0.0, 0.0, 0.0, 0.0, -7537.768189641022, 0.0]
['beep', 0.0, -1350.5371034785633, 0.0, 0.0, 0.0, 0.0, -7542.39500074327, 0.0]
['beep', 0.0, -1306.8841465573487, 0.0, 0.0, 0.0, 0.0, -7434.436075024138, 0.0]
['beep', 0.0, -1308.7169896026837, 0.0, 0.0, 0.0, 0.0, -7193.931304685034, 0.0]
['beep', 0.0, -1309.7228181031726, 0.0, 0.0, 0.0, 0.0, -7466.689642273145, 0.0]
['beep', 0.0, -1352.4817052461751, 0.0, 0.0, 0.0, 0.0, -7554.531997982503, 0.0]
['beep', 0.0, -1355.9462256367476, 0.0, 0.0, 0.0, 0.0, -7559.561140484946, 0.0]
['beep', 0.0, -1308.4711204136754, 0.0, 0.0, 0.0, 0.0, -7465.974386450575, 0.0]
['beep', 0.0, -1309.0746175139686, 0.0, 0.0, 0.0, 0.0, -7237.070171483776, 0.0]
['beep', 0.0, -1314.8637193278933, 0.0, 0.0, 0.0, 0.0, -7494.875192031288, 0.0]
['beep', 0.0, -1358.516676249108, 0.0, 0.0, 0.0, 0.0, -7571.362861557349, 0.0]
['beep', 0.0, -1360.1260018498901, 0.0, 0.0, 0.0, 0.0, -7577.509591282558, 0.0]
['beep', 0.0, -1310.3710186923765, 0.0, 0.0, 0.0, 0.0, -7488.415537883704, 0.0]
['beep', 0.0, -1309.7898733365387, 0.0, 0.0, 0.0, 0.0, -7260.830075839767, 0.0]
['beep', 0.0, -1314.4613879276978, 0.0, 0.0, 0.0, 0.0, -7510.990799783564, 0.0]
['beep', 0.0, -1357.9131791488146, 0.0, 0.0, 0.0, 0.0, -7585.600922775379, 0.0]
['beep', 0.0, -1361.3106443060212, 0.0, 0.0, 0.0, 0.0, -7588.730166999122, 0.0]
['beep', 0.0, -1311.6227163818737, 0.0, 0.0, 0.0, 0.0, -7495.344578664849, 0.0]
['beep', 0.0, -1309.9463355477258, 0.0, 0.0, 0.0, 0.0, -7262.5735119072815, 0.0]
['beep', 0.0, -1313.9249460607705, 0.0, 0.0, 0.0, 0.0, -7514.969410296609, 0.0]
['beep', 0.0, -1357.5108477486192, 0.0, 0.0, 0.0, 0.0, -7593.647550779289, 0.0]
['beep', 0.0, -1359.321339049499, 0.0, 0.0, 0.0, 0.0, -7593.759309501566, 0.0]
['beep', 0.0, -1307.5323471465526, 0.0, 0.0, 0.0, 0.0, -7499.524354877992, 0.0]
['beep', 0.0, -1305.677152356762, 0.0, 0.0, 0.0, 0.0, -7260.718317117491, 0.0]
['beep', 0.0, -1312.7850070935497, 0.0, 0.0, 0.0, 0.0, -7516.15405275274, 0.0]
['beep', 0.0, -1354.4486587582421, 0.0, 0.0, 0.0, 0.0, -7601.872992738842, 0.0]
['beep', 0.0, -1357.5108477486192, 0.0, 0.0, 0.0, 0.0, -7601.8506409943875, 0.0]
['beep', 0.0, -1306.4371116682426, 0.0, 0.0, 0.0, 0.0, -7507.079244503885, 0.0]
['beep', 0.0, -1308.292306458033, 0.0, 0.0, 0.0, 0.0, -7264.965148564, 0.0]
['beep', 0.0, -1313.030876282558, 0.0, 0.0, 0.0, 0.0, -7516.131701008285, 0.0]
['beep', 0.0, -1356.9073506483257, 0.0, 0.0, 0.0, 0.0, -7601.627123549834, 0.0]
['beep', 0.0, -1362.2494175731442, 0.0, 0.0, 0.0, 0.0, -7604.711664284667, 0.0]
['beep', 0.0, -1309.9463355477258, 0.0, 0.0, 0.0, 0.0, -7511.884869561776, 0.0]
['beep', 0.0, -1307.5323471465526, 0.0, 0.0, 0.0, 0.0, -7274.174067279586, 0.0]
['beep', 0.0, -1312.7403036046392, 0.0, 0.0, 0.0, 0.0, -7522.0772650333965, 0.0]
['beep', 0.0, -1355.7450599366498, 0.0, 0.0, 0.0, 0.0, -7605.561030573968, 0.0]
['beep', 0.0, -1358.896655904848, 0.0, 0.0, 0.0, 0.0, -7605.583382318424, 0.0]
['beep', 0.0, -1308.8511000694157, 0.0, 0.0, 0.0, 0.0, -7514.455320174136, 0.0]
['beep', 0.0, -1303.9337162892482, 0.0, 0.0, 0.0, 0.0, -7278.331491748273, 0.0]
['beep', 0.0, -1306.9288500462592, 0.0, 0.0, 0.0, 0.0, -7522.859576089332, 0.0]
['beep', 0.0, -1353.2640163021108, 0.0, 0.0, 0.0, 0.0, -7604.868126495854, 0.0]
['beep', 0.0, -1360.9083129058258, 0.0, 0.0, 0.0, 0.0, -7602.700007283689, 0.0]
['beep', 0.0, -1306.5265186460638, 0.0, 0.0, 0.0, 0.0, -7517.226936486595, 0.0]
['beep', 0.0, -1305.520690145575, 0.0, 0.0, 0.0, 0.0, -7281.43838422756, 0.0]
['beep', 0.0, -1306.1465389903235, 0.0, 0.0, 0.0, 0.0, -7523.977163312097, 0.0]
['beep', 0.0, -1351.5876354679629, 0.0, 0.0, 0.0, 0.0, -7606.0751206964405, 0.0]
['beep', 0.0, -1363.322301306999, 0.0, 0.0, 0.0, 0.0, -7606.432748607725, 0.0]
['beep', 0.0, -1307.5099954020973, 0.0, 0.0, 0.0, 0.0, -7522.7254656226005, 0.0]
['beep', 0.0, -1307.1076640019016, 0.0, 0.0, 0.0, 0.0, -7290.244971542951, 0.0]
['beep', 0.0, -1311.35449544841, 0.0, 0.0, 0.0, 0.0, -7527.5981459138575, 0.0]
['beep', 0.0, -1356.6838332037728, 0.0, 0.0, 0.0, 0.0, -7606.477452096636, 0.0]
['beep', 0.0, -1362.9870251401694, 0.0, 0.0, 0.0, 0.0, -7607.907963741775, 0.0]
['beep', 0.0, -1309.3204867029772, 0.0, 0.0, 0.0, 0.0, -7527.06170404693, 0.0]
['beep', 0.0, -1309.901632058815, 0.0, 0.0, 0.0, 0.0, -7296.056425101331, 0.0]
['beep', 0.0, -1311.130978003857, 0.0, 0.0, 0.0, 0.0, -7530.615631415324, 0.0]
['beep', 0.0, -1356.5720744814962, 0.0, 0.0, 0.0, 0.0, -7609.6961032982, 0.0]
['beep', 0.0, -1364.7304612076832, 0.0, 0.0, 0.0, 0.0, -7608.869088753354, 0.0]
['beep', 0.0, -1309.5663558919855, 0.0, 0.0, 0.0, 0.0, -7529.051009303452, 0.0]
['beep', 0.0, -1308.4934721581308, 0.0, 0.0, 0.0, 0.0, -7300.370311781206, 0.0]
['beep', 0.0, -1311.2874402150442, 0.0, 0.0, 0.0, 0.0, -7532.0014395715525, 0.0]
['beep', 0.0, -1355.5662459810073, 0.0, 0.0, 0.0, 0.0, -7610.41135912077, 0.0]
['beep', 0.0, -1364.6187024854069, 0.0, 0.0, 0.0, 0.0, -7609.629048064834, 0.0]
['beep', 0.0, -1310.035742525547, 0.0, 0.0, 0.0, 0.0, -7533.63311691679, 0.0]
['beep', 0.0, -1306.1241872458681, 0.0, 0.0, 0.0, 0.0, -7304.371274038705, 0.0]
['beep', 0.0, -1310.0133907810916, 0.0, 0.0, 0.0, 0.0, -7530.503872693047, 0.0]
['beep', 0.0, -1355.7674116811052, 0.0, 0.0, 0.0, 0.0, -7610.143138187306, 0.0]
['beep', 0.0, -1364.283426318577, 0.0, 0.0, 0.0, 0.0, -7608.667923053256, 0.0]
['beep', 0.0, -1310.0804460144575, 0.0, 0.0, 0.0, 0.0, -7534.370724483815, 0.0]
['beep', 0.0, -1306.9959052796253, 0.0, 0.0, 0.0, 0.0, -7305.39945428365, 0.0]
['beep', 0.0, -1311.6227163818737, 0.0, 0.0, 0.0, 0.0, -7531.308535493438, 0.0]
['beep', 0.0, -1355.610949469918, 0.0, 0.0, 0.0, 0.0, -7609.785510276021, 0.0]
['beep', 0.0, -1363.612873984918, 0.0, 0.0, 0.0, 0.0, -7607.907963741775, 0.0]
['beep', 0.0, -1309.5216524030748, 0.0, 0.0, 0.0, 0.0, -7537.276451263006, 0.0]
['beep', 0.0, -1310.0804460144575, 0.0, 0.0, 0.0, 0.0, -7307.701683962547, 0.0]
['beep', 0.0, -1315.1989954947228, 0.0, 0.0, 0.0, 0.0, -7531.308535493438, 0.0]
['beep', 0.0, -1358.1590483378232, 0.0, 0.0, 0.0, 0.0, -7611.573649832446, 0.0]
['beep', 0.0, -1366.5633042530185, 0.0, 0.0, 0.0, 0.0, -7611.372484132348, 0.0]
['beep', 0.0, -1313.030876282558, 0.0, 0.0, 0.0, 0.0, -7538.774018141511, 0.0]
['beep', 0.0, -1311.9356408042481, 0.0, 0.0, 0.0, 0.0, -7306.427634528593, 0.0]
['beep', 0.0, -1315.869547828382, 0.0, 0.0, 0.0, 0.0, -7529.296878492461, 0.0]
['beep', 0.0, -1359.6342634718733, 0.0, 0.0, 0.0, 0.0, -7613.227678922139, 0.0]
['beep', 0.0, -1369.5584380100297, 0.0, 0.0, 0.0, 0.0, -7612.7135887996665, 0.0]
['beep', 0.0, -1314.8860710723486, 0.0, 0.0, 0.0, 0.0, -7539.422218730715, 0.0]
['beep', 0.0, -1310.2816117145553, 0.0, 0.0, 0.0, 0.0, -7307.053483373343, 0.0]
['beep', 0.0, -1312.4720826711755, 0.0, 0.0, 0.0, 0.0, -7529.162768025729, 0.0]
['beep', 0.0, -1358.091993104457, 0.0, 0.0, 0.0, 0.0, -7612.154795188284, 0.0]
['beep', 0.0, -1368.2396850871664, 0.0, 0.0, 0.0, 0.0, -7611.037207965519, 0.0]
['beep', 0.0, -1313.1873384937453, 0.0, 0.0, 0.0, 0.0, -7540.048067575463, 0.0]
['beep', 0.0, -1308.8958035583262, 0.0, 0.0, 0.0, 0.0, -7305.354750794739, 0.0]
['beep', 0.0, -1310.1475012478236, 0.0, 0.0, 0.0, 0.0, -7528.223994758606, 0.0]
['beep', 0.0, -1355.5885977254627, 0.0, 0.0, 0.0, 0.0, -7613.093568455407, 0.0]
['beep', 0.0, -1366.5409525085631, 0.0, 0.0, 0.0, 0.0, -7609.763158531566, 0.0]
['beep', 0.0, -1310.5945361369297, 0.0, 0.0, 0.0, 0.0, -7539.556329197447, 0.0]
['beep', 0.0, -1306.481815157153, 0.0, 0.0, 0.0, 0.0, -7301.06321585932, 0.0]
['beep', 0.0, -1310.840405325938, 0.0, 0.0, 0.0, 0.0, -7523.910108078731, 0.0]
['beep', 0.0, -1355.8791704033817, 0.0, 0.0, 0.0, 0.0, -7615.038170223019, 0.0]
['beep', 0.0, -1368.485554276175, 0.0, 0.0, 0.0, 0.0, -7612.244202166105, 0.0]
['beep', 0.0, -1314.0814082719576, 0.0, 0.0, 0.0, 0.0, -7540.8080268869435, 0.0]
['beep', 0.0, -1313.8802425718598, 0.0, 0.0, 0.0, 0.0, -7299.722111192002, 0.0]
['beep', 0.0, -1316.6295071398624, 0.0, 0.0, 0.0, 0.0, -7520.713808621623, 0.0]
['beep', 0.0, -1358.896655904848, 0.0, 0.0, 0.0, 0.0, -7612.914754499764, 0.0]
['beep', 0.0, -1371.0336531440798, 0.0, 0.0, 0.0, 0.0, -7613.630010322334, 0.0]
['beep', 0.0, -1314.908422816804, 0.0, 0.0, 0.0, 0.0, -7540.115122808829, 0.0]
['beep', 0.0, -1311.3321437039547, 0.0, 0.0, 0.0, 0.0, -7293.262457044418, 0.0]
['beep', 0.0, -1314.8860710723486, 0.0, 0.0, 0.0, 0.0, -7516.645791130757, 0.0]
['beep', 0.0, -1356.5720744814962, 0.0, 0.0, 0.0, 0.0, -7614.278210911538, 0.0]
['beep', 0.0, -1368.4408507872643, 0.0, 0.0, 0.0, 0.0, -7613.205327177683, 0.0]
['beep', 0.0, -1313.6567251273068, 0.0, 0.0, 0.0, 0.0, -7539.288108263983, 0.0]
['beep', 0.0, -1309.678114614262, 0.0, 0.0, 0.0, 0.0, -7288.434480242072, 0.0]
['beep', 0.0, -1311.5333094040525, 0.0, 0.0, 0.0, 0.0, -7512.734235851078, 0.0]
['beep', 0.0, -1353.3757750243874, 0.0, 0.0, 0.0, 0.0, -7614.07704521144, 0.0]
['beep', 0.0, -1366.0268623860911, 0.0, 0.0, 0.0, 0.0, -7612.154795188284, 0.0]
['beep', 0.0, -1312.0250477820694, 0.0, 0.0, 0.0, 0.0, -7537.20939602964, 0.0]
['beep', 0.0, -1310.2816117145553, 0.0, 0.0, 0.0, 0.0, -7278.82323012629, 0.0]
['beep', 0.0, -1312.0697512709799, 0.0, 0.0, 0.0, 0.0, -7507.369817181804, 0.0]
['beep', 0.0, -1351.9229116347924, 0.0, 0.0, 0.0, 0.0, -7616.558088845979, 0.0]
['beep', 0.0, -1366.6080077419292, 0.0, 0.0, 0.0, 0.0, -7614.054693466985, 0.0]
['beep', 0.0, -1313.0085245381028, 0.0, 0.0, 0.0, 0.0, -7537.991707085575, 0.0]
['beep', 0.0, -1308.7169896026837, 0.0, 0.0, 0.0, 0.0, -7276.185724280564, 0.0]
['beep', 0.0, -1311.8015303375162, 0.0, 0.0, 0.0, 0.0, -7504.195869469151, 0.0]
['beep', 0.0, -1353.867513402404, 0.0, 0.0, 0.0, 0.0, -7616.401626634793, 0.0]
['beep', 0.0, -1365.423365285798, 0.0, 0.0, 0.0, 0.0, -7613.272382411049, 0.0]
['beep', 0.0, -1310.4604256701978, 0.0, 0.0, 0.0, 0.0, -7536.069457062418, 0.0]
['beep', 0.0, -1308.8511000694157, 0.0, 0.0, 0.0, 0.0, -7271.111878289209, 0.0]
['beep', 0.0, -1312.8967658158263, 0.0, 0.0, 0.0, 0.0, -7499.613761855813, 0.0]
['beep', 0.0, -1350.000661611636, 0.0, 0.0, 0.0, 0.0, -7617.183937690728, 0.0]
['beep', 0.0, -1365.5574757525296, 0.0, 0.0, 0.0, 0.0, -7616.960420246175, 0.0]
['beep', 0.0, -1310.6615913702956, 0.0, 0.0, 0.0, 0.0, -7537.835244874388, 0.0]
['beep', 0.0, -1306.8170913239828, 0.0, 0.0, 0.0, 0.0, -7265.345128219739, 0.0]
['beep', 0.0, -1309.2757832140665, 0.0, 0.0, 0.0, 0.0, -7493.109404219318, 0.0]
['beep', 0.0, -1348.8830743888707, 0.0, 0.0, 0.0, 0.0, -7613.920583000253, 0.0]
['beep', 0.0, -1364.8869234188705, 0.0, 0.0, 0.0, 0.0, -7611.975981232641, 0.0]
['beep', 0.0, -1309.87928031436, 0.0, 0.0, 0.0, 0.0, -7534.594241928368, 0.0]
['beep', 0.0, -1305.4983384011196, 0.0, 0.0, 0.0, 0.0, -7263.0428985408425, 0.0]
['beep', 0.0, -1309.2757832140665, 0.0, 0.0, 0.0, 0.0, -7491.5000786185365, 0.0]
['beep', 0.0, -1348.6372051998621, 0.0, 0.0, 0.0, 0.0, -7614.971114989653, 0.0]
['beep', 0.0, -1363.903446662837, 0.0, 0.0, 0.0, 0.0, -7610.366655631859, 0.0]
['beep', 0.0, -1309.745169847628, 0.0, 0.0, 0.0, 0.0, -7532.783750627488, 0.0]
['beep', 0.0, -1308.739341347139, 0.0, 0.0, 0.0, 0.0, -7256.784410093357, 0.0]
['beep', 0.0, -1311.130978003857, 0.0, 0.0, 0.0, 0.0, -7485.889790760254, 0.0]
['beep', 0.0, -1343.6304144418734, 0.0, 0.0, 0.0, 0.0, -7615.149928945295, 0.0]
['beep', 0.0, -1358.9190076493035, 0.0, 0.0, 0.0, 0.0, -7614.83700452292, 0.0]
['beep', 0.0, -1307.1747192352677, 0.0, 0.0, 0.0, 0.0, -7536.561195440436, 0.0]
['beep', 0.0, -1304.9842482786476, 0.0, 0.0, 0.0, 0.0, -7252.179950735564, 0.0]
['beep', 0.0, -1307.7335128466502, 0.0, 0.0, 0.0, 0.0, -7479.34072963485, 0.0]
['beep', 0.0, -1347.2737487880886, 0.0, 0.0, 0.0, 0.0, -7617.787434791021, 0.0]
['beep', 0.0, -1360.416574527809, 0.0, 0.0, 0.0, 0.0, -7618.189766191217, 0.0]
['beep', 0.0, -1308.2028994802117, 0.0, 0.0, 0.0, 0.0, -7535.354201239848, 0.0]
['beep', 0.0, -1307.5546988910078, 0.0, 0.0, 0.0, 0.0, -7241.71933433048, 0.0]
['beep', 0.0, -1310.7733500925722, 0.0, 0.0, 0.0, 0.0, -7473.462220843104, 0.0]
['beep', 0.0, -1342.3340132634657, 0.0, 0.0, 0.0, 0.0, -7618.703856313688, 0.0]
['beep', 0.0, -1362.1376588508676, 0.0, 0.0, 0.0, 0.0, -7616.111053956874, 0.0]
['beep', 0.0, -1311.0862745149464, 0.0, 0.0, 0.0, 0.0, -7532.694343649668, 0.0]
['beep', 0.0, -1306.481815157153, 0.0, 0.0, 0.0, 0.0, -7232.845691781723, 0.0]
['beep', 0.0, -1307.8676233133822, 0.0, 0.0, 0.0, 0.0, -7466.913159717698, 0.0]
['beep', 0.0, -1341.1493708073344, 0.0, 0.0, 0.0, 0.0, -7620.201423192195, 0.0]
['beep', 0.0, -1360.1483535943453, 0.0, 0.0, 0.0, 0.0, -7614.948763245197, 0.0]
['beep', 0.0, -1312.0250477820694, 0.0, 0.0, 0.0, 0.0, -7528.15693952524, 0.0]
['beep', 0.0, -1307.6888093577397, 0.0, 0.0, 0.0, 0.0, -7221.289839898329, 0.0]
['beep', 0.0, -1309.1640244917899, 0.0, 0.0, 0.0, 0.0, -7456.005508423509, 0.0]
['beep', 0.0, -1342.0210888410913, 0.0, 0.0, 0.0, 0.0, -7616.558088845979, 0.0]
['beep', 0.0, -1360.1260018498901, 0.0, 0.0, 0.0, 0.0, -7614.389969633815, 0.0]
['beep', 0.0, -1310.7957018370273, 0.0, 0.0, 0.0, 0.0, -7520.91497432172, 0.0]
['beep', 0.0, -1307.1523674908124, 0.0, 0.0, 0.0, 0.0, -7196.524107041849, 0.0]
['beep', 0.0, -1308.806396580505, 0.0, 0.0, 0.0, 0.0, -7437.118284358774, 0.0]
['beep', 0.0, -1336.902539360826, 0.0, 0.0, 0.0, 0.0, -7616.893365012809, 0.0]
['beep', 0.0, -1354.359251780421, 0.0, 0.0, 0.0, 0.0, -7612.735940544122, 0.0]
['beep', 0.0, -1307.420588424276, 0.0, 0.0, 0.0, 0.0, -7512.354256195338, 0.0]
['beep', 0.0, -1309.2757832140665, 0.0, 0.0, 0.0, 0.0, -7168.629129961626, 0.0]
['beep', 0.0, -1310.8851088148485, 0.0, 0.0, 0.0, 0.0, -7417.404045749194, 0.0]
['beep', 0.0, -1332.4545422142198, 0.0, 0.0, 0.0, 0.0, -7618.368580146859, 0.0]
['beep', 0.0, -1349.6206819558959, 0.0, 0.0, 0.0, 0.0, -7615.306391156482, 0.0]
['beep', 0.0, -1305.2301174676559, 0.0, 0.0, 0.0, 0.0, -7502.743006079556, 0.0]
['beep', 0.0, -1305.0513035120134, 0.0, 0.0, 0.0, 0.0, -7139.08012379171, 0.0]
['beep', 0.0, -1307.5994023799185, 0.0, 0.0, 0.0, 0.0, -7396.6392751502135, 0.0]
['beep', 0.0, -1328.297117745533, 0.0, 0.0, 0.0, 0.0, -7616.26751616806, 0.0]
['beep', 0.0, -1345.1503330648343, 0.0, 0.0, 0.0, 0.0, -7615.284039412027, 0.0]
['beep', 0.0, -1303.1737569777677, 0.0, 0.0, 0.0, 0.0, -7501.558363623424, 0.0]
['beep', 0.0, -1303.6654953557845, 0.0, 0.0, 0.0, 0.0, -7132.396952199573, 0.0]
['beep', 0.0, -1305.9900767791364, 0.0, 0.0, 0.0, 0.0, -7388.860868079766, 0.0]
['beep', 0.0, -1325.0561147995134, 0.0, 0.0, 0.0, 0.0, -7618.0556557244845, 0.0]
['beep', 0.0, -1343.585710952963, 0.0, 0.0, 0.0, 0.0, -7616.893365012809, 0.0]
['beep', 0.0, -1302.1902802217342, 0.0, 0.0, 0.0, 0.0, -7502.966523524109, 0.0]
['beep', 0.0, -1303.5984401224184, 0.0, 0.0, 0.0, 0.0, -7127.345457952673, 0.0]
['beep', 0.0, -1304.6936756007285, 0.0, 0.0, 0.0, 0.0, -7382.535324398915, 0.0]
['beep', 0.0, -1325.681963644262, 0.0, 0.0, 0.0, 0.0, -7617.675676068745, 0.0]
['beep', 0.0, -1343.1386760638568, 0.0, 0.0, 0.0, 0.0, -7617.2286411796385, 0.0]
['beep', 0.0, -1302.1455767328237, 0.0, 0.0, 0.0, 0.0, -7499.278485688983, 0.0]
['beep', 0.0, -1302.9949430221252, 0.0, 0.0, 0.0, 0.0, -7118.605925870648, 0.0]
['beep', 0.0, -1304.2689924560777, 0.0, 0.0, 0.0, 0.0, -7375.516876639948, 0.0]
['beep', 0.0, -1321.2339664976557, 0.0, 0.0, 0.0, 0.0, -7619.12853945834, 0.0]
['beep', 0.0, -1339.36123125091, 0.0, 0.0, 0.0, 0.0, -7617.720379557655, 0.0]
['beep', 0.0, -1302.547908133019, 0.0, 0.0, 0.0, 0.0, -7496.372758909793, 0.0]
['beep', 0.0, -1303.1514052333123, 0.0, 0.0, 0.0, 0.0, -7110.671056589014, 0.0]
['beep', 0.0, -1303.9784197781587, 0.0, 0.0, 0.0, 0.0, -7367.26908293594, 0.0]
['beep', 0.0, -1323.35738222091, 0.0, 0.0, 0.0, 0.0, -7618.525042358046, 0.0]
['beep', 0.0, -1339.7635626511053, 0.0, 0.0, 0.0, 0.0, -7616.714551057166, 0.0]
['beep', 0.0, -1303.35257093341, 0.0, 0.0, 0.0, 0.0, -7499.524354877992, 0.0]
['beep', 0.0, -1305.8336145679493, 0.0, 0.0, 0.0, 0.0, -7113.912059535034, 0.0]
['beep', 0.0, -1307.0629605129911, 0.0, 0.0, 0.0, 0.0, -7367.090268980297, 0.0]
['beep', 0.0, -1326.5536816780188, 0.0, 0.0, 0.0, 0.0, -7619.910850514276, 0.0]
['beep', 0.0, -1344.3680220088986, 0.0, 0.0, 0.0, 0.0, -7617.653324324289, 0.0]
['beep', 0.0, -1303.1290534888572, 0.0, 0.0, 0.0, 0.0, -7503.525317135492, 0.0]
['beep', 0.0, -1304.9842482786476, 0.0, 0.0, 0.0, 0.0, -7124.372675940118, 0.0]
['beep', 0.0, -1305.5877453789408, 0.0, 0.0, 0.0, 0.0, -7371.806487060367, 0.0]
['beep', 0.0, -1323.0891612874464, 0.0, 0.0, 0.0, 0.0, -7616.580440590435, 0.0]
['beep', 0.0, -1343.2727865305885, 0.0, 0.0, 0.0, 0.0, -7615.88753651232, 0.0]
['beep', 0.0, -1303.9113645447928, 0.0, 0.0, 0.0, 0.0, -7509.157956738229, 0.0]
['beep', 0.0, -1303.710198844695, 0.0, 0.0, 0.0, 0.0, -7129.670039376026, 0.0]
['beep', 0.0, -1305.8336145679493, 0.0, 0.0, 0.0, 0.0, -7371.739431827001, 0.0]
['beep', 0.0, -1324.162045021301, 0.0, 0.0, 0.0, 0.0, -7617.720379557655, 0.0]
['beep', 0.0, -1343.9880423531583, 0.0, 0.0, 0.0, 0.0, -7616.513385357069, 0.0]
['beep', 0.0, -1304.3136959449882, 0.0, 0.0, 0.0, 0.0, -7509.8732125607985, 0.0]
['beep', 0.0, -1304.581916878452, 0.0, 0.0, 0.0, 0.0, -7131.189957998987, 0.0]
['beep', 0.0, -1304.1572337338011, 0.0, 0.0, 0.0, 0.0, -7368.900760281177, 0.0]
['beep', 0.0, -1322.8656438428932, 0.0, 0.0, 0.0, 0.0, -7616.111053956874, 0.0]
['beep', 0.0, -1344.390373753354, 0.0, 0.0, 0.0, 0.0, -7616.178109190239, 0.0]
['beep', 0.0, -1303.35257093341, 0.0, 0.0, 0.0, 0.0, -7511.683703861679, 0.0]
['beep', 0.0, -1302.324390688466, 0.0, 0.0, 0.0, 0.0, -7132.061676032744, 0.0]
['beep', 0.0, -1304.648972111818, 0.0, 0.0, 0.0, 0.0, -7368.274911436429, 0.0]
['beep', 0.0, -1323.1562165208122, 0.0, 0.0, 0.0, 0.0, -7617.608620835379, 0.0]
['beep', 0.0, -1344.5915394534516, 0.0, 0.0, 0.0, 0.0, -7616.26751616806, 0.0]
['beep', 0.0, -1303.6431436113292, 0.0, 0.0, 0.0, 0.0, -7513.024808528997, 0.0]
['beep', 0.0, -1302.7714255775722, 0.0, 0.0, 0.0, 0.0, -7139.974193569922, 0.0]
['beep', 0.0, -1304.358399433899, 0.0, 0.0, 0.0, 0.0, -7370.867713793245, 0.0]
['beep', 0.0, -1325.4807979441641, 0.0, 0.0, 0.0, 0.0, -7617.385103390826, 0.0]
['beep', 0.0, -1346.7373069211612, 0.0, 0.0, 0.0, 0.0, -7615.0605219674735, 0.0]
['beep', 0.0, -1303.2408122111335, 0.0, 0.0, 0.0, 0.0, -7518.366875453816, 0.0]
['beep', 0.0, -1303.4643296556867, 0.0, 0.0, 0.0, 0.0, -7152.602929187171, 0.0]
['beep', 0.0, -1304.4031029228095, 0.0, 0.0, 0.0, 0.0, -7377.6849958521125, 0.0]
['beep', 0.0, -1325.2125770107004, 0.0, 0.0, 0.0, 0.0, -7617.161585946273, 0.0]
['beep', 0.0, -1349.6206819558959, 0.0, 0.0, 0.0, 0.0, -7614.278210911538, 0.0]
['beep', 0.0, -1305.677152356762, 0.0, 0.0, 0.0, 0.0, -7529.051009303452, 0.0]
['beep', 0.0, -1302.7043703442062, 0.0, 0.0, 0.0, 0.0, -7184.90119992509, 0.0]
['beep', 0.0, -1303.3972744223208, 0.0, 0.0, 0.0, 0.0, -7397.689807139613, 0.0]
['beep', 0.0, -1329.8617398574042, 0.0, 0.0, 0.0, 0.0, -7616.178109190239, 0.0]
['beep', 0.0, -1356.5050192481303, 0.0, 0.0, 0.0, 0.0, -7613.473548111147, 0.0]
['beep', 0.0, -1304.224288967167, 0.0, 0.0, 0.0, 0.0, -7545.747762411566, 0.0]
['beep', 0.0, -1301.0503412545136, 0.0, 0.0, 0.0, 0.0, -7236.421970894572, 0.0]
['beep', 0.0, -1303.6431436113292, 0.0, 0.0, 0.0, 0.0, -7430.770388933467, 0.0]
['beep', 0.0, -1333.8627021149043, 0.0, 0.0, 0.0, 0.0, -7612.26655391056, 0.0]
['beep', 0.0, -1361.064775117013, 0.0, 0.0, 0.0, 0.0, -7608.712626542167, 0.0]
['beep', 0.0, -1305.6995041012174, 0.0, 0.0, 0.0, 0.0, -7556.9459863836755, 0.0]
['beep', 0.0, -1301.16209997679, 0.0, 0.0, 0.0, 0.0, -7282.064233072309, 0.0]
['beep', 0.0, -1303.9337162892482, 0.0, 0.0, 0.0, 0.0, -7459.537084047447, 0.0]
['beep', 0.0, -1336.6790219162729, 0.0, 0.0, 0.0, 0.0, -7613.272382411049, 0.0]
['beep', 0.0, -1365.1551443523342, 0.0, 0.0, 0.0, 0.0, -7608.064425952963, 0.0]
['beep', 0.0, -1307.5546988910078, 0.0, 0.0, 0.0, 0.0, -7573.240408091594, 0.0]
['beep', 0.0, -1301.3409139324324, 0.0, 0.0, 0.0, 0.0, -7333.853224975255, 0.0]
['beep', 0.0, -1303.419626166776, 0.0, 0.0, 0.0, 0.0, -7491.455375129626, 0.0]
['beep', 0.0, -1339.4729899731863, 0.0, 0.0, 0.0, 0.0, -7611.573649832446, 0.0]
['beep', 0.0, -1372.933551422781, 0.0, 0.0, 0.0, 0.0, -7605.605734062879, 0.0]
['beep', 0.0, -1312.7850070935497, 0.0, 0.0, 0.0, 0.0, -7583.321044840938, 0.0]
['beep', 0.0, -1300.3350854319438, 0.0, 0.0, 0.0, 0.0, -7389.352606457783, 0.0]
['beep', 0.0, -1303.5313848890526, 0.0, 0.0, 0.0, 0.0, -7525.027695301497, 0.0]
['beep', 0.0, -1346.6702516877951, 0.0, 0.0, 0.0, 0.0, -7611.148966687795, 0.0]
['beep', 0.0, -1376.6886444912725, 0.0, 0.0, 0.0, 0.0, -7602.230620650127, 0.0]
['beep', 0.0, -1316.6518588843178, 0.0, 0.0, 0.0, 0.0, -7591.188858889206, 0.0]
['beep', 0.0, -1301.0056377656028, 0.0, 0.0, 0.0, 0.0, -7424.511900485981, 0.0]
['beep', 0.0, -1305.4089314232983, 0.0, 0.0, 0.0, 0.0, -7543.870215877321, 0.0]
['beep', 0.0, -1333.8627021149043, 0.0, 0.0, 0.0, 0.0, -7614.188803933716, 0.0]
['beep', 0.0, -1369.3796240543872, 0.0, 0.0, 0.0, 0.0, -7606.0751206964405, 0.0]
['beep', 0.0, -1311.3097919594995, 0.0, 0.0, 0.0, 0.0, -7572.122820868829, 0.0]
['beep', 0.0, -1300.6256581098626, 0.0, 0.0, 0.0, 0.0, -7307.321704306806, 0.0]
['beep', 0.0, -1301.8550040549046, 0.0, 0.0, 0.0, 0.0, -7444.404953051205, 0.0]
['beep', 0.0, -1331.3146032469992, 0.0, 0.0, 0.0, 0.0, -7615.172280689751, 0.0]
['beep', 0.0, -1366.3397868084655, 0.0, 0.0, 0.0, 0.0, -7606.45510035218, 0.0]
['beep', 0.0, -1309.0746175139686, 0.0, 0.0, 0.0, 0.0, -7563.539750997991, 0.0]
['beep', 0.0, -1299.999809265114, 0.0, 0.0, 0.0, 0.0, -7270.374270722184, 0.0]
['beep', 0.0, -1304.4925099006307, 0.0, 0.0, 0.0, 0.0, -7410.363246245772, 0.0]
['beep', 0.0, -1329.3923532238427, 0.0, 0.0, 0.0, 0.0, -7612.8253475219435, 0.0]
['beep', 0.0, -1361.802382684038, 0.0, 0.0, 0.0, 0.0, -7608.7796817755325, 0.0]
['beep', 0.0, -1306.325352945966, 0.0, 0.0, 0.0, 0.0, -7557.214207317139, 0.0]
['beep', 0.0, -1300.1115679873906, 0.0, 0.0, 0.0, 0.0, -7239.551215118315, 0.0]
['beep', 0.0, -1302.3020389440107, 0.0, 0.0, 0.0, 0.0, -7385.9551413005765, 0.0]
['beep', 0.0, -1324.2514519991223, 0.0, 0.0, 0.0, 0.0, -7613.048864966496, 0.0]
['beep', 0.0, -1356.12503959239, 0.0, 0.0, 0.0, 0.0, -7609.472585853647, 0.0]
['beep', 0.0, -1304.5372133895414, 0.0, 0.0, 0.0, 0.0, -7553.794390415477, 0.0]
['beep', 0.0, -1300.0445127540247, 0.0, 0.0, 0.0, 0.0, -7216.908897985089, 0.0]
['beep', 0.0, -1301.8550040549046, 0.0, 0.0, 0.0, 0.0, -7366.17384745763, 0.0]
['beep', 0.0, -1318.9093850743038, 0.0, 0.0, 0.0, 0.0, -7613.808824277977, 0.0]
['beep', 0.0, -1352.1464290793454, 0.0, 0.0, 0.0, 0.0, -7608.667923053256, 0.0]
['beep', 0.0, -1305.0960070009241, 0.0, 0.0, 0.0, 0.0, -7549.480503735603, 0.0]
['beep', 0.0, -1301.4750243991643, 0.0, 0.0, 0.0, 0.0, -7203.922534456556, 0.0]
['beep', 0.0, -1304.0231232670694, 0.0, 0.0, 0.0, 0.0, -7352.74044903999, 0.0]
['beep', 0.0, -1320.5634141639966, 0.0, 0.0, 0.0, 0.0, -7611.7748155325435, 0.0]
['beep', 0.0, -1353.9345686357701, 0.0, 0.0, 0.0, 0.0, -7610.6572283097785, 0.0]
['beep', 0.0, -1306.2582977126, 0.0, 0.0, 0.0, 0.0, -7554.688460193689, 0.0]
['beep', 0.0, -1300.5138993875862, 0.0, 0.0, 0.0, 0.0, -7211.902107227101, 0.0]
['beep', 0.0, -1302.2349837106449, 0.0, 0.0, 0.0, 0.0, -7355.959100241555, 0.0]
['beep', 0.0, -1322.5303676760636, 0.0, 0.0, 0.0, 0.0, -7611.305428898982, 0.0]
['beep', 0.0, -1355.901522147837, 0.0, 0.0, 0.0, 0.0, -7610.6572283097785, 0.0]
['beep', 0.0, -1304.6713238562731, 0.0, 0.0, 0.0, 0.0, -7553.906149137753, 0.0]
['beep', 0.0, -1300.06686449848, 0.0, 0.0, 0.0, 0.0, -7224.150863188608, 0.0]
['beep', 0.0, -1301.586783121441, 0.0, 0.0, 0.0, 0.0, -7364.296300923384, 0.0]
['beep', 0.0, -1322.552719420519, 0.0, 0.0, 0.0, 0.0, -7609.763158531566, 0.0]
['beep', 0.0, -1356.7285366926833, 0.0, 0.0, 0.0, 0.0, -7605.359864873871, 0.0]
['beep', 0.0, -1305.5877453789408, 0.0, 0.0, 0.0, 0.0, -7555.49312299408, 0.0]
['beep', 0.0, -1299.128091231357, 0.0, 0.0, 0.0, 0.0, -7238.143055217631, 0.0]
['beep', 0.0, -1300.2456784541225, 0.0, 0.0, 0.0, 0.0, -7366.956158513565, 0.0]
['beep', 0.0, -1322.3068502315105, 0.0, 0.0, 0.0, 0.0, -7599.011969448563, 0.0]
['beep', 0.0, -1354.7615831806163, 0.0, 0.0, 0.0, 0.0, -7592.865239723354, 0.0]
['beep', 0.0, -1293.4730998841644, 0.0, 0.0, 0.0, 0.0, -7543.758457155044, 0.0]
['beep', 0.0, -1284.197125935212, 0.0, 0.0, 0.0, 0.0, -7238.6794970845585, 0.0]
['beep', 0.0, -1282.4313381232428, 0.0, 0.0, 0.0, 0.0, -7351.868731006233, 0.0]
['beep', 0.0, -1301.2962104435219, 0.0, 0.0, 0.0, 0.0, -7533.119026794318, 0.0]
['beep', 0.0, -1341.7305161631723, 0.0, 0.0, 0.0, 0.0, -7511.840166072866, 0.0]
['beep', 0.0, -1282.2078206786896, 0.0, 0.0, 0.0, 0.0, -7467.38254635126, 0.0]
['beep', 0.0, -1273.8035647634943, 0.0, 0.0, 0.0, 0.0, -7201.754415244391, 0.0]
['beep', 0.0, -1276.77634677605, 0.0, 0.0, 0.0, 0.0, -7287.763927908412, 0.0]
['beep', 0.0, -1297.16113771929, 0.0, 0.0, 0.0, 0.0, -7424.221327808062, 0.0]
['beep', 0.0, -1328.8782631013707, 0.0, 0.0, 0.0, 0.0, -7396.393405961205, 0.0]
['beep', 0.0, -1274.9211519862595, 0.0, 0.0, 0.0, 0.0, -7369.88423703721, 0.0]
['beep', 0.0, -1263.6111692918741, 0.0, 0.0, 0.0, 0.0, -7153.251129776375, 0.0]
['beep', 0.0, -1265.9581024596814, 0.0, 0.0, 0.0, 0.0, -7238.210110450997, 0.0]
['beep', 0.0, -1285.1135474578796, 0.0, 0.0, 0.0, 0.0, -7366.151495713174, 0.0]
['beep', 0.0, -1318.9317368187592, 0.0, 0.0, 0.0, 0.0, -7349.700611794068, 0.0]
['beep', 0.0, -1267.7238902716506, 0.0, 0.0, 0.0, 0.0, -7328.980544683999, 0.0]
['beep', 0.0, -1262.3147681134665, 0.0, 0.0, 0.0, 0.0, -7105.664265831026, 0.0]
['beep', 0.0, -1265.1534396592904, 0.0, 0.0, 0.0, 0.0, -7200.5921245327145, 0.0]
['beep', 0.0, -1280.5314398445416, 0.0, 0.0, 0.0, 0.0, -7351.041716461386, 0.0]
['beep', 0.0, -1314.1484635053234, 0.0, 0.0, 0.0, 0.0, -7339.798789000367, 0.0]
['beep', 0.0, -1264.2146663921674, 0.0, 0.0, 0.0, 0.0, -7315.547146266359, 0.0]
['beep', 0.0, -1259.6549105232848, 0.0, 0.0, 0.0, 0.0, -7073.6789195154815, 0.0]
['beep', 0.0, -1259.9007797122931, 0.0, 0.0, 0.0, 0.0, -7168.450316005983, 0.0]
['beep', 0.0, -1274.742338030617, 0.0, 0.0, 0.0, 0.0, -7338.100056421764, 0.0]
['beep', 0.0, -1307.778216335561, 0.0, 0.0, 0.0, 0.0, -7331.729809252001, 0.0]
['beep', 0.0, -1267.2098001491786, 0.0, 0.0, 0.0, 0.0, -7308.819271185312, 0.0]
['beep', 0.0, -1265.7569367595836, 0.0, 0.0, 0.0, 0.0, -7046.521550002283, 0.0]
['beep', 0.0, -1268.7297187721394, 0.0, 0.0, 0.0, 0.0, -7146.992641328889, 0.0]
['beep', 0.0, -1281.4702131116644, 0.0, 0.0, 0.0, 0.0, -7341.6986872790685, 0.0]
['beep', 0.0, -1312.1368065043457, 0.0, 0.0, 0.0, 0.0, -7336.222509887518, 0.0]
['beep', 0.0, -1277.4692508541646, 0.0, 0.0, 0.0, 0.0, -7312.060274131331, 0.0]
['beep', 0.0, -1277.3127886429775, 0.0, 0.0, 0.0, 0.0, -7049.58373899266, 0.0]
['beep', 0.0, -1280.77730903355, 0.0, 0.0, 0.0, 0.0, -7151.46299021995, 0.0]
['beep', 0.0, -1293.0931202284241, 0.0, 0.0, 0.0, 0.0, -7358.037812475898, 0.0]
['beep', 0.0, -1326.710143889206, 0.0, 0.0, 0.0, 0.0, -7358.6636613206465, 0.0]
['beep', 0.0, -1290.2768004270556, 0.0, 0.0, 0.0, 0.0, -7340.7599140119455, 0.0]
['beep', 0.0, -1290.9250010162593, 0.0, 0.0, 0.0, 0.0, -7087.268780144308, 0.0]
['beep', 0.0, -1296.9823237636476, 0.0, 0.0, 0.0, 0.0, -7189.975045916444, 0.0]
['beep', 0.0, -1310.6168878813849, 0.0, 0.0, 0.0, 0.0, -7393.219458248551, 0.0]
['beep', 0.0, -1347.2290452991779, 0.0, 0.0, 0.0, 0.0, -7394.672321638146, 0.0]
['beep', 0.0, -1304.5372133895414, 0.0, 0.0, 0.0, 0.0, -7380.233094720018, 0.0]
['beep', 0.0, -1300.06686449848, 0.0, 0.0, 0.0, 0.0, -7145.249205261374, 0.0]
['beep', 0.0, -1301.452672654709, 0.0, 0.0, 0.0, 0.0, -7244.535654131849, 0.0]
['beep', 0.0, -1319.5799374079631, 0.0, 0.0, 0.0, 0.0, -7426.411798764682, 0.0]
['beep', 0.0, -1359.3660425384096, 0.0, 0.0, 0.0, 0.0, -7422.723760929556, 0.0]
['beep', 0.0, -1308.3817134358542, 0.0, 0.0, 0.0, 0.0, -7417.806377149389, 0.0]
['beep', 0.0, -1299.999809265114, 0.0, 0.0, 0.0, 0.0, -7211.879755482645, 0.0]
['beep', 0.0, -1303.486681400142, 0.0, 0.0, 0.0, 0.0, -7304.237163571974, 0.0]
['beep', 0.0, -1325.7713706220832, 0.0, 0.0, 0.0, 0.0, -7460.140581147741, 0.0]
['beep', 0.0, -1366.1162693639124, 0.0, 0.0, 0.0, 0.0, -7453.055078155408, 0.0]
['beep', 0.0, -1311.6897716152396, 0.0, 0.0, 0.0, 0.0, -7451.423400810171, 0.0]
['beep', 0.0, -1300.9609342766923, 0.0, 0.0, 0.0, 0.0, -7263.266415985396, 0.0]
['beep', 0.0, -1304.1348819893458, 0.0, 0.0, 0.0, 0.0, -7345.051448947364, 0.0]
['beep', 0.0, -1328.5653386789966, 0.0, 0.0, 0.0, 0.0, -7485.91214250471, 0.0]
['beep', 0.0, -1368.7984786985492, 0.0, 0.0, 0.0, 0.0, -7478.580770323369, 0.0]
['beep', 0.0, -1313.321448960477, 0.0, 0.0, 0.0, 0.0, -7477.306720889416, 0.0]
['beep', 0.0, -1298.815166808983, 0.0, 0.0, 0.0, 0.0, -7294.469451245004, 0.0]
['beep', 0.0, -1300.6256581098626, 0.0, 0.0, 0.0, 0.0, -7373.236998705506, 0.0]
['beep', 0.0, -1326.0395915555468, 0.0, 0.0, 0.0, 0.0, -7509.20266022714, 0.0]
['beep', 0.0, -1370.0725281325017, 0.0, 0.0, 0.0, 0.0, -7504.978180525087, 0.0]
['beep', 0.0, -1315.7577891061055, 0.0, 0.0, 0.0, 0.0, -7506.252229959039, 0.0]
['beep', 0.0, -1299.1727947202678, 0.0, 0.0, 0.0, 0.0, -7323.616126014725, 0.0]
['beep', 0.0, -1301.743245332628, 0.0, 0.0, 0.0, 0.0, -7402.026045563942, 0.0]
['beep', 0.0, -1327.4030479673206, 0.0, 0.0, 0.0, 0.0, -7541.21035828714, 0.0]
['beep', 0.0, -1371.3465775664542, 0.0, 0.0, 0.0, 0.0, -7533.923689594709, 0.0]
['beep', 0.0, -1314.6402018833403, 0.0, 0.0, 0.0, 0.0, -7533.29784074996, 0.0]
['beep', 0.0, -1296.714102830184, 0.0, 0.0, 0.0, 0.0, -7341.475169834515, 0.0]
['beep', 0.0, -1300.2009749652118, 0.0, 0.0, 0.0, 0.0, -7415.839423637322, 0.0]
['beep', 0.0, -1328.7888561235495, 0.0, 0.0, 0.0, 0.0, -7564.769096943033, 0.0]
['beep', 0.0, -1372.8217927005044, 0.0, 0.0, 0.0, 0.0, -7557.236559061595, 0.0]
['beep', 0.0, -1316.8306728399602, 0.0, 0.0, 0.0, 0.0, -7553.123838081818, 0.0]
['beep', 0.0, -1299.2845534425442, 0.0, 0.0, 0.0, 0.0, -7346.705478037057, 0.0]
['beep', 0.0, -1300.290381943033, 0.0, 0.0, 0.0, 0.0, -7418.0075428494865, 0.0]
['beep', 0.0, -1325.2125770107004, 0.0, 0.0, 0.0, 0.0, -7581.175277373229, 0.0]
['beep', 0.0, -1371.2124670997223, 0.0, 0.0, 0.0, 0.0, -7573.978015658619, 0.0]
['beep', 0.0, -1315.713085617195, 0.0, 0.0, 0.0, 0.0, -7564.053841120463, 0.0]
['beep', 0.0, -1297.0940824859242, 0.0, 0.0, 0.0, 0.0, -7343.531530324403, 0.0]
['beep', 0.0, -1299.5080708870973, 0.0, 0.0, 0.0, 0.0, -7412.710179413579, 0.0]
['beep', 0.0, -1324.676135143773, 0.0, 0.0, 0.0, 0.0, -7588.573704787935, 0.0]
['beep', 0.0, -1369.7819554545827, 0.0, 0.0, 0.0, 0.0, -7583.11987914084, 0.0]
['beep', 0.0, -1314.4613879276978, 0.0, 0.0, 0.0, 0.0, -7569.909998167754, 0.0]
['beep', 0.0, -1297.0717307414689, 0.0, 0.0, 0.0, 0.0, -7334.188501142085, 0.0]
['beep', 0.0, -1299.999809265114, 0.0, 0.0, 0.0, 0.0, -7399.254429251484, 0.0]
['beep', 0.0, -1324.162045021301, 0.0, 0.0, 0.0, 0.0, -7593.088757167907, 0.0]
['beep', 0.0, -1368.7314234651833, 0.0, 0.0, 0.0, 0.0, -7585.578571030924, 0.0]
['beep', 0.0, -1313.7684838495832, 0.0, 0.0, 0.0, 0.0, -7569.082983622907, 0.0]
['beep', 0.0, -1298.7481115756168, 0.0, 0.0, 0.0, 0.0, -7318.698742234557, 0.0]
['beep', 0.0, -1301.0279895100582, 0.0, 0.0, 0.0, 0.0, -7384.010539532965, 0.0]
['beep', 0.0, -1323.2679752430888, 0.0, 0.0, 0.0, 0.0, -7596.888553725309, 0.0]
['beep', 0.0, -1365.3786617968872, 0.0, 0.0, 0.0, 0.0, -7590.339492599905, 0.0]
['beep', 0.0, -1312.5838413934518, 0.0, 0.0, 0.0, 0.0, -7571.474620279625, 0.0]
['beep', 0.0, -1299.3516086759103, 0.0, 0.0, 0.0, 0.0, -7303.141928093663, 0.0]
['beep', 0.0, -1301.5644313769856, 0.0, 0.0, 0.0, 0.0, -7366.509123624459, 0.0]
['beep', 0.0, -1320.3622484638988, 0.0, 0.0, 0.0, 0.0, -7597.849678736888, 0.0]
['beep', 0.0, -1362.2047140842337, 0.0, 0.0, 0.0, 0.0, -7593.088757167907, 0.0]
['beep', 0.0, -1309.7898733365387, 0.0, 0.0, 0.0, 0.0, -7570.491143523592, 0.0]
['beep', 0.0, -1298.7928150645275, 0.0, 0.0, 0.0, 0.0, -7287.24983778594, 0.0]
['beep', 0.0, -1300.580954620952, 0.0, 0.0, 0.0, 0.0, -7346.839588503789, 0.0]
['beep', 0.0, -1317.4118181957983, 0.0, 0.0, 0.0, 0.0, -7598.40847234827, 0.0]
['beep', 0.0, -1359.2095803272225, 0.0, 0.0, 0.0, 0.0, -7596.933257214219, 0.0]
['beep', 0.0, -1308.225251224667, 0.0, 0.0, 0.0, 0.0, -7567.987748144597, 0.0]
['beep', 0.0, -1298.5692976199743, 0.0, 0.0, 0.0, 0.0, -7267.289729987351, 0.0]
['beep', 0.0, -1300.133919731846, 0.0, 0.0, 0.0, 0.0, -7321.9173934361215, 0.0]
['beep', 0.0, -1312.4720826711755, 0.0, 0.0, 0.0, 0.0, -7592.038225178508, 0.0]
['beep', 0.0, -1354.5604174805187, 0.0, 0.0, 0.0, 0.0, -7592.6417222788, 0.0]
['beep', 0.0, -1306.9959052796253, 0.0, 0.0, 0.0, 0.0, -7560.969300385631, 0.0]
['beep', 0.0, -1296.5352888745415, 0.0, 0.0, 0.0, 0.0, -7245.7873518213455, 0.0]
['beep', 0.0, -1298.166966219779, 0.0, 0.0, 0.0, 0.0, -7298.068082102309, 0.0]
['beep', 0.0, -1310.8851088148485, 0.0, 0.0, 0.0, 0.0, -7589.959512944164, 0.0]
['beep', 0.0, -1351.095897089946, 0.0, 0.0, 0.0, 0.0, -7594.40751009077, 0.0]
['beep', 0.0, -1305.6995041012174, 0.0, 0.0, 0.0, 0.0, -7557.7730009285215, 0.0]
['beep', 0.0, -1296.3341231744437, 0.0, 0.0, 0.0, 0.0, -7220.820453264768, 0.0]
['beep', 0.0, -1300.133919731846, 0.0, 0.0, 0.0, 0.0, -7272.29652074534, 0.0]
['beep', 0.0, -1309.8569285699045, 0.0, 0.0, 0.0, 0.0, -7591.144155400295, 0.0]
['beep', 0.0, -1345.9326441207702, 0.0, 0.0, 0.0, 0.0, -7596.732091514122, 0.0]
['beep', 0.0, -1303.6207918668738, 0.0, 0.0, 0.0, 0.0, -7553.436762504192, 0.0]
['beep', 0.0, -1295.8200330519717, 0.0, 0.0, 0.0, 0.0, -7194.780670974335, 0.0]
['beep', 0.0, -1298.4798906421531, 0.0, 0.0, 0.0, 0.0, -7240.937023274544, 0.0]
['beep', 0.0, -1306.1241872458681, 0.0, 0.0, 0.0, 0.0, -7587.746690243089, 0.0]
['beep', 0.0, -1337.4389812277534, 0.0, 0.0, 0.0, 0.0, -7599.481356082125, 0.0]
['beep', 0.0, -1301.0726929989687, 0.0, 0.0, 0.0, 0.0, -7550.6651461917345, 0.0]
['beep', 0.0, -1295.417701651776, 0.0, 0.0, 0.0, 0.0, -7169.232627061919, 0.0]
['beep', 0.0, -1298.7928150645275, 0.0, 0.0, 0.0, 0.0, -7211.008037448888, 0.0]
['beep', 0.0, -1303.710198844695, 0.0, 0.0, 0.0, 0.0, -7584.706852997167, 0.0]
['beep', 0.0, -1327.6712689007843, 0.0, 0.0, 0.0, 0.0, -7602.856469494876, 0.0]
['beep', 0.0, -1299.262201698089, 0.0, 0.0, 0.0, 0.0, -7547.871178134821, 0.0]
['beep', 0.0, -1296.647047596818, 0.0, 0.0, 0.0, 0.0, -7147.394972729084, 0.0]
['beep', 0.0, -1299.6868848427398, 0.0, 0.0, 0.0, 0.0, -7184.722385969447, 0.0]
['beep', 0.0, -1302.3690941773766, 0.0, 0.0, 0.0, 0.0, -7578.716585483145, 0.0]
['beep', 0.0, -1321.099856030924, 0.0, 0.0, 0.0, 0.0, -7602.074158438941, 0.0]
['beep', 0.0, -1297.228192952656, 0.0, 0.0, 0.0, 0.0, -7543.7808088995, 0.0]
['beep', 0.0, -1295.4847568851421, 0.0, 0.0, 0.0, 0.0, -7131.547585910272, 0.0]
['beep', 0.0, -1298.7034080867063, 0.0, 0.0, 0.0, 0.0, -7166.908045638567, 0.0]
['beep', 0.0, -1300.4021406653096, 0.0, 0.0, 0.0, 0.0, -7577.487239538103, 0.0]
['beep', 0.0, -1313.7014286162173, 0.0, 0.0, 0.0, 0.0, -7604.0187602065525, 0.0]
['beep', 0.0, -1296.937620274737, 0.0, 0.0, 0.0, 0.0, -7542.35029725436, 0.0]
['beep', 0.0, -1296.8258615524605, 0.0, 0.0, 0.0, 0.0, -7123.366847439629, 0.0]
['beep', 0.0, -1297.7199313306728, 0.0, 0.0, 0.0, 0.0, -7151.217121030942, 0.0]
['beep', 0.0, -1300.3127336874884, 0.0, 0.0, 0.0, 0.0, -7573.821553447432, 0.0]
['beep', 0.0, -1313.0532280270133, 0.0, 0.0, 0.0, 0.0, -7603.415263106259, 0.0]
['beep', 0.0, -1296.6693993412732, 0.0, 0.0, 0.0, 0.0, -7540.740971653578, 0.0]
['beep', 0.0, -1295.2165359516785, 0.0, 0.0, 0.0, 0.0, -7116.191937469475, 0.0]
['beep', 0.0, -1298.681056342251, 0.0, 0.0, 0.0, 0.0, -7143.058734304755, 0.0]
['beep', 0.0, -1299.262201698089, 0.0, 0.0, 0.0, 0.0, -7572.413393546748, 0.0]
['beep', 0.0, -1313.8578908274044, 0.0, 0.0, 0.0, 0.0, -7605.069292195952, 0.0]
['beep', 0.0, -1297.9434487752258, 0.0, 0.0, 0.0, 0.0, -7544.518416466524, 0.0]
['beep', 0.0, -1296.5352888745415, 0.0, 0.0, 0.0, 0.0, -7127.45721667495, 0.0]
['beep', 0.0, -1299.262201698089, 0.0, 0.0, 0.0, 0.0, -7149.786609385802, 0.0]
['beep', 0.0, -1302.6596668552957, 0.0, 0.0, 0.0, 0.0, -7573.151001113773, 0.0]
['beep', 0.0, -1318.3058879740106, 0.0, 0.0, 0.0, 0.0, -7605.225754407139, 0.0]
['beep', 0.0, -1297.87639354186, 0.0, 0.0, 0.0, 0.0, -7548.049992090463, 0.0]
['beep', 0.0, -1295.5965156074185, 0.0, 0.0, 0.0, 0.0, -7141.896443593078, 0.0]
['beep', 0.0, -1300.424492409765, 0.0, 0.0, 0.0, 0.0, -7159.241397290397, 0.0]
['beep', 0.0, -1304.224288967167, 0.0, 0.0, 0.0, 0.0, -7573.419222047237, 0.0]
['beep', 0.0, -1322.6421263983402, 0.0, 0.0, 0.0, 0.0, -7606.41039686327, 0.0]
['beep', 0.0, -1299.776291820561, 0.0, 0.0, 0.0, 0.0, -7549.771076413522, 0.0]
['beep', 0.0, -1297.8987452863153, 0.0, 0.0, 0.0, 0.0, -7145.4727227059275, 0.0]
['beep', 0.0, -1302.3690941773766, 0.0, 0.0, 0.0, 0.0, -7159.755487412869, 0.0]
['beep', 0.0, -1302.4137976662873, 0.0, 0.0, 0.0, 0.0, -7573.30746332496, 0.0]
['beep', 0.0, -1321.4351321977535, 0.0, 0.0, 0.0, 0.0, -7603.862297995365, 0.0]
['beep', 0.0, -1301.2515069546112, 0.0, 0.0, 0.0, 0.0, -7549.100524079862, 0.0]
['beep', 0.0, -1298.5469458755192, 0.0, 0.0, 0.0, 0.0, -7139.1918825139865, 0.0]
['beep', 0.0, -1301.586783121441, 0.0, 0.0, 0.0, 0.0, -7144.980984327911, 0.0]
['beep', 0.0, -1303.844309311427, 0.0, 0.0, 0.0, 0.0, -7570.02175689003, 0.0]
['beep', 0.0, -1314.103760016413, 0.0, 0.0, 0.0, 0.0, -7604.443443351203, 0.0]
['beep', 0.0, -1300.5138993875862, 0.0, 0.0, 0.0, 0.0, -7546.328907767404, 0.0]
['beep', 0.0, -1299.5527743760078, 0.0, 0.0, 0.0, 0.0, -7124.88676606259, 0.0]
['beep', 0.0, -1301.8550040549046, 0.0, 0.0, 0.0, 0.0, -7123.322143950719, 0.0]
['beep', 0.0, -1302.1902802217342, 0.0, 0.0, 0.0, 0.0, -7566.02079463253, 0.0]
['beep', 0.0, -1311.645068126329, 0.0, 0.0, 0.0, 0.0, -7605.1363474293175, 0.0]
['beep', 0.0, -1299.0833877424466, 0.0, 0.0, 0.0, 0.0, -7542.573814698913, 0.0]
['beep', 0.0, -1298.3457801754214, 0.0, 0.0, 0.0, 0.0, -7108.16766121002, 0.0]
['beep', 0.0, -1299.2398499536337, 0.0, 0.0, 0.0, 0.0, -7100.612771584127, 0.0]
['beep', 0.0, -1298.4798906421531, 0.0, 0.0, 0.0, 0.0, -7559.248216062572, 0.0]
['beep', 0.0, -1305.453634912209, 0.0, 0.0, 0.0, 0.0, -7608.444405608703, 0.0]
['beep', 0.0, -1297.9881522641365, 0.0, 0.0, 0.0, 0.0, -7541.836207131888, 0.0]
['beep', 0.0, -1297.1834894637454, 0.0, 0.0, 0.0, 0.0, -7096.120070948609, 0.0]
['beep', 0.0, -1300.7374168321392, 0.0, 0.0, 0.0, 0.0, -7083.871314987102, 0.0]
['beep', 0.0, -1299.999809265114, 0.0, 0.0, 0.0, 0.0, -7556.811875916944, 0.0]
['beep', 0.0, -1302.2126319661895, 0.0, 0.0, 0.0, 0.0, -7608.26559165306, 0.0]
['beep', 0.0, -1296.3341231744437, 0.0, 0.0, 0.0, 0.0, -7540.338640253382, 0.0]
['beep', 0.0, -1297.5411173750304, 0.0, 0.0, 0.0, 0.0, -7088.274608644797, 0.0]
['beep', 0.0, -1300.4021406653096, 0.0, 0.0, 0.0, 0.0, -7070.437916569462, 0.0]
['beep', 0.0, -1300.2680301985777, 0.0, 0.0, 0.0, 0.0, -7552.87796889281, 0.0]
['beep', 0.0, -1299.5080708870973, 0.0, 0.0, 0.0, 0.0, -7606.320989885448, 0.0]
['beep', 0.0, -1296.4458818967203, 0.0, 0.0, 0.0, 0.0, -7534.594241928368, 0.0]
['beep', 0.0, -1298.837518553438, 0.0, 0.0, 0.0, 0.0, -7075.332948605174, 0.0]
['beep', 0.0, -1299.485719142642, 0.0, 0.0, 0.0, 0.0, -7052.0647826272, 0.0]
['beep', 0.0, -1295.8870882853375, 0.0, 0.0, 0.0, 0.0, -7548.452323490659, 0.0]
['beep', 0.0, -1293.6519138398069, 0.0, 0.0, 0.0, 0.0, -7609.517289342558, 0.0]
['beep', 0.0, -1293.5401551175303, 0.0, 0.0, 0.0, 0.0, -7536.49414020707, 0.0]
['beep', 0.0, -1296.5576406189969, 0.0, 0.0, 0.0, 0.0, -7072.293111359252, 0.0]
['beep', 0.0, -1298.7257598311617, 0.0, 0.0, 0.0, 0.0, -7047.996765136334, 0.0]
['beep', 0.0, -1297.4070069082984, 0.0, 0.0, 0.0, 0.0, -7545.725410667112, 0.0]
['beep', 0.0, -1297.0717307414689, 0.0, 0.0, 0.0, 0.0, -7608.109129441873, 0.0]
['beep', 0.0, -1295.9764952631588, 0.0, 0.0, 0.0, 0.0, -7541.880910620798, 0.0]
['beep', 0.0, -1297.6305243528516, 0.0, 0.0, 0.0, 0.0, -7092.253219157841, 0.0]
['beep', 0.0, -1301.6314866103514, 0.0, 0.0, 0.0, 0.0, -7065.811105467214, 0.0]
['beep', 0.0, -1298.4128354087873, 0.0, 0.0, 0.0, 0.0, -7550.821608402921, 0.0]
['beep', 0.0, -1302.3467424329212, 0.0, 0.0, 0.0, 0.0, -7608.757330031077, 0.0]
['beep', 0.0, -1294.680094084751, 0.0, 0.0, 0.0, 0.0, -7548.452323490659, 0.0]
['beep', 0.0, -1296.0435504965246, 0.0, 0.0, 0.0, 0.0, -7115.811957813735, 0.0]
['beep', 0.0, -1299.485719142642, 0.0, 0.0, 0.0, 0.0, -7087.492297588861, 0.0]
['beep', 0.0, -1298.7704633200722, 0.0, 0.0, 0.0, 0.0, -7554.286128793494, 0.0]
['beep', 0.0, -1305.8783180568598, 0.0, 0.0, 0.0, 0.0, -7603.929353228731, 0.0]
['beep', 0.0, -1295.9764952631588, 0.0, 0.0, 0.0, 0.0, -7550.553387469457, 0.0]
['beep', 0.0, -1300.1786232207564, 0.0, 0.0, 0.0, 0.0, -7137.940184824489, 0.0]
['beep', 0.0, -1306.5041669016084, 0.0, 0.0, 0.0, 0.0, -7106.893611776068, 0.0]
['beep', 0.0, -1310.8627570703934, 0.0, 0.0, 0.0, 0.0, -7564.366765542837, 0.0]
['beep', 0.0, -1322.910347331804, 0.0, 0.0, 0.0, 0.0, -7616.558088845979, 0.0]
['beep', 0.0, -1311.5780128929632, 0.0, 0.0, 0.0, 0.0, -7569.440611534192, 0.0]
['beep', 0.0, -1315.1542920058123, 0.0, 0.0, 0.0, 0.0, -7163.220007803441, 0.0]
['beep', 0.0, -1320.5634141639966, 0.0, 0.0, 0.0, 0.0, -7128.239527730886, 0.0]
['beep', 0.0, -1319.803454852516, 0.0, 0.0, 0.0, 0.0, -7582.851658207376, 0.0]
['beep', 0.0, -1330.3087747465104, 0.0, 0.0, 0.0, 0.0, -7633.2548419540935, 0.0]
['beep', 0.0, -1317.6353356403513, 0.0, 0.0, 0.0, 0.0, -7587.45611756517, 0.0]
['beep', 0.0, -1315.0425332835357, 0.0, 0.0, 0.0, 0.0, -7187.114022626165, 0.0]
['beep', 0.0, -1317.2777077290664, 0.0, 0.0, 0.0, 0.0, -7148.177283785019, 0.0]
['beep', 0.0, -1319.35641996341, 0.0, 0.0, 0.0, 0.0, -7590.473603066636, 0.0]
['beep', 0.0, -1335.3602689934098, 0.0, 0.0, 0.0, 0.0, -7635.847644310909, 0.0]
['beep', 0.0, -1318.3952949518318, 0.0, 0.0, 0.0, 0.0, -7591.770004245044, 0.0]
['beep', 0.0, -1315.1095885169016, 0.0, 0.0, 0.0, 0.0, -7198.669874509558, 0.0]
['beep', 0.0, -1316.9871350511473, 0.0, 0.0, 0.0, 0.0, -7154.838103632701, 0.0]
['beep', 0.0, -1318.8870333298485, 0.0, 0.0, 0.0, 0.0, -7590.9876931891085, 0.0]
['beep', 0.0, -1339.8306178844712, 0.0, 0.0, 0.0, 0.0, -7634.350077432404, 0.0]
['beep', 0.0, -1319.490530430142, 0.0, 0.0, 0.0, 0.0, -7591.702949011678, 0.0]
['beep', 0.0, -1314.5731466499742, 0.0, 0.0, 0.0, 0.0, -7206.962371702478, 0.0]
['beep', 0.0, -1317.903556573815, 0.0, 0.0, 0.0, 0.0, -7161.141295569098, 0.0]
['beep', 0.0, -1320.3846002083542, 0.0, 0.0, 0.0, 0.0, -7593.9828269461195, 0.0]
['beep', 0.0, -1341.998737096636, 0.0, 0.0, 0.0, 0.0, -7636.607603622389, 0.0]
['beep', 0.0, -1321.8598153424043, 0.0, 0.0, 0.0, 0.0, -7595.636856035812, 0.0]
['beep', 0.0, -1317.4788734291642, 0.0, 0.0, 0.0, 0.0, -7214.629020050647, 0.0]
['beep', 0.0, -1320.5634141639966, 0.0, 0.0, 0.0, 0.0, -7165.164609571053, 0.0]
['beep', 0.0, -1322.9774025651698, 0.0, 0.0, 0.0, 0.0, -7592.6417222788, 0.0]
['beep', 0.0, -1346.871417387893, 0.0, 0.0, 0.0, 0.0, -7637.300507700505, 0.0]
['beep', 0.0, -1321.9268705757704, 0.0, 0.0, 0.0, 0.0, -7601.381254360826, 0.0]
['beep', 0.0, -1315.1095885169016, 0.0, 0.0, 0.0, 0.0, -7220.105197442198, 0.0]
['beep', 0.0, -1319.512882174597, 0.0, 0.0, 0.0, 0.0, -7164.047022348288, 0.0]
['beep', 0.0, -1322.709181631706, 0.0, 0.0, 0.0, 0.0, -7591.010044933563, 0.0]
['beep', 0.0, -1346.9384726212588, 0.0, 0.0, 0.0, 0.0, -7634.171263476761, 0.0]
['beep', 0.0, -1325.2796322440663, 0.0, 0.0, 0.0, 0.0, -7598.45317583718, 0.0]
['beep', 0.0, -1318.1270740183681, 0.0, 0.0, 0.0, 0.0, -7224.530842844349, 0.0]
['beep', 0.0, -1320.0716757859798, 0.0, 0.0, 0.0, 0.0, -7166.550417727282, 0.0]
['beep', 0.0, -1323.0221060540803, 0.0, 0.0, 0.0, 0.0, -7593.535792057013, 0.0]
['beep', 0.0, -1349.0171848556024, 0.0, 0.0, 0.0, 0.0, -7637.054638511496, 0.0]
['beep', 0.0, -1323.1338647763569, 0.0, 0.0, 0.0, 0.0, -7597.179126403228, 0.0]
['beep', 0.0, -1315.35545770591, 0.0, 0.0, 0.0, 0.0, -7227.369514390173, 0.0]
['beep', 0.0, -1319.3787717078653, 0.0, 0.0, 0.0, 0.0, -7164.89638863759, 0.0]
['beep', 0.0, -1323.715010132195, 0.0, 0.0, 0.0, 0.0, -7591.032396678019, 0.0]
['beep', 0.0, -1346.8490656434376, 0.0, 0.0, 0.0, 0.0, -7634.551243132501, 0.0]
['beep', 0.0, -1317.255355984611, 0.0, 0.0, 0.0, 0.0, -7594.094585668396, 0.0]
['beep', 0.0, -1311.4439024262313, 0.0, 0.0, 0.0, 0.0, -7229.247060924418, 0.0]
['beep', 0.0, -1312.5838413934518, 0.0, 0.0, 0.0, 0.0, -7161.968310113944, 0.0]
['beep', 0.0, -1312.4944344156306, 0.0, 0.0, 0.0, 0.0, -7571.362861557349, 0.0]
['beep', 0.0, -1339.808266140016, 0.0, 0.0, 0.0, 0.0, -7607.170356174751, 0.0]
['beep', 0.0, -1310.9745157926698, 0.0, 0.0, 0.0, 0.0, -7574.805030203465, 0.0]
['beep', 0.0, -1301.8103005659939, 0.0, 0.0, 0.0, 0.0, -7221.155729431597, 0.0]
['beep', 0.0, -1306.2135942236894, 0.0, 0.0, 0.0, 0.0, -7152.714687909447, 0.0]
['beep', 0.0, -1307.8005680800163, 0.0, 0.0, 0.0, 0.0, -7561.572797485924, 0.0]
['beep', 0.0, -1335.5390829490523, 0.0, 0.0, 0.0, 0.0, -7600.196611904695, 0.0]
['beep', 0.0, -1310.4157221812873, 0.0, 0.0, 0.0, 0.0, -7571.362861557349, 0.0]
['beep', 0.0, -1301.8326523104492, 0.0, 0.0, 0.0, 0.0, -7222.697999799014, 0.0]
['beep', 0.0, -1303.4419779112313, 0.0, 0.0, 0.0, 0.0, -7152.133542553609, 0.0]
['beep', 0.0, -1305.1407104898346, 0.0, 0.0, 0.0, 0.0, -7563.629157975813, 0.0]
['beep', 0.0, -1334.935585848759, 0.0, 0.0, 0.0, 0.0, -7603.705835784178, 0.0]
['beep', 0.0, -1308.4040651803095, 0.0, 0.0, 0.0, 0.0, -7574.045070891985, 0.0]
['beep', 0.0, -1300.424492409765, 0.0, 0.0, 0.0, 0.0, -7224.217918421975, 0.0]
['beep', 0.0, -1303.6654953557845, 0.0, 0.0, 0.0, 0.0, -7147.618490173637, 0.0]
['beep', 0.0, -1306.6382773683404, 0.0, 0.0, 0.0, 0.0, -7562.802143430966, 0.0]
['beep', 0.0, -1335.6061381824181, 0.0, 0.0, 0.0, 0.0, -7605.896306740798, 0.0]
['beep', 0.0, -1308.9628587916923, 0.0, 0.0, 0.0, 0.0, -7575.9673209151415, 0.0]
['beep', 0.0, -1300.6703615987733, 0.0, 0.0, 0.0, 0.0, -7221.468653853972, 0.0]
['beep', 0.0, -1304.872489556371, 0.0, 0.0, 0.0, 0.0, -7139.616565658637, 0.0]
['beep', 0.0, -1305.0513035120134, 0.0, 0.0, 0.0, 0.0, -7560.008175374052, 0.0]
['beep', 0.0, -1332.7451148921389, 0.0, 0.0, 0.0, 0.0, -7604.756367773577, 0.0]
['beep', 0.0, -1310.0804460144575, 0.0, 0.0, 0.0, 0.0, -7575.654396492768, 0.0]
['beep', 0.0, -1300.8491755544158, 0.0, 0.0, 0.0, 0.0, -7221.245136409419, 0.0]
['beep', 0.0, -1305.0513035120134, 0.0, 0.0, 0.0, 0.0, -7137.202577257464, 0.0]
['beep', 0.0, -1306.9512017907145, 0.0, 0.0, 0.0, 0.0, -7560.231692818606, 0.0]
['beep', 0.0, -1333.54977769253, 0.0, 0.0, 0.0, 0.0, -7606.969190474652, 0.0]
['beep', 0.0, -1309.7004663587174, 0.0, 0.0, 0.0, 0.0, -7576.97314941563, 0.0]
['beep', 0.0, -1301.3185621879772, 0.0, 0.0, 0.0, 0.0, -7222.608592821192, 0.0]
['beep', 0.0, -1306.034780268047, 0.0, 0.0, 0.0, 0.0, -7133.4921876778835, 0.0]
['beep', 0.0, -1307.8452715689268, 0.0, 0.0, 0.0, 0.0, -7559.047050362475, 0.0]
['beep', 0.0, -1332.5886526809518, 0.0, 0.0, 0.0, 0.0, -7608.489109097613, 0.0]
['beep', 0.0, -1309.8345768254492, 0.0, 0.0, 0.0, 0.0, -7582.449326807181, 0.0]
['beep', 0.0, -1300.9162307877816, 0.0, 0.0, 0.0, 0.0, -7236.153749961109, 0.0]
['beep', 0.0, -1304.4925099006307, 0.0, 0.0, 0.0, 0.0, -7144.578652927716, 0.0]
['beep', 0.0, -1307.3758849353653, 0.0, 0.0, 0.0, 0.0, -7565.372594043326, 0.0]
['beep', 0.0, -1337.7295539056724, 0.0, 0.0, 0.0, 0.0, -7610.9478009876975, 0.0]
['beep', 0.0, -1311.1086262594017, 0.0, 0.0, 0.0, 0.0, -7583.253989607572, 0.0]
['beep', 0.0, -1299.195146464723, 0.0, 0.0, 0.0, 0.0, -7247.329622188762, 0.0]
['beep', 0.0, -1301.9891145216363, 0.0, 0.0, 0.0, 0.0, -7152.245301275886, 0.0]
['beep', 0.0, -1303.5090331445972, 0.0, 0.0, 0.0, 0.0, -7563.472695764625, 0.0]
['beep', 0.0, -1335.8296556269713, 0.0, 0.0, 0.0, 0.0, -7608.712626542167, 0.0]
['beep', 0.0, -1309.901632058815, 0.0, 0.0, 0.0, 0.0, -7584.93037044172, 0.0]
['beep', 0.0, -1299.329256931455, 0.0, 0.0, 0.0, 0.0, -7251.397639679628, 0.0]
['beep', 0.0, -1303.9113645447928, 0.0, 0.0, 0.0, 0.0, -7153.429943732017, 0.0]
['beep', 0.0, -1305.8783180568598, 0.0, 0.0, 0.0, 0.0, -7563.070364364429, 0.0]
['beep', 0.0, -1337.126056805379, 0.0, 0.0, 0.0, 0.0, -7607.773853275044, 0.0]
['beep', 0.0, -1309.8345768254492, 0.0, 0.0, 0.0, 0.0, -7584.192762874694, 0.0]
['beep', 0.0, -1298.2563731976002, 0.0, 0.0, 0.0, 0.0, -7254.392773436639, 0.0]
['beep', 0.0, -1301.1173964878794, 0.0, 0.0, 0.0, 0.0, -7151.194769286486, 0.0]
['beep', 0.0, -1304.648972111818, 0.0, 0.0, 0.0, 0.0, -7559.0023468735635, 0.0]
['beep', 0.0, -1338.6236236838847, 0.0, 0.0, 0.0, 0.0, -7605.225754407139, 0.0]
['beep', 0.0, -1313.2320419826558, 0.0, 0.0, 0.0, 0.0, -7584.818611719444, 0.0]
['beep', 0.0, -1297.9881522641365, 0.0, 0.0, 0.0, 0.0, -7255.577415892771, 0.0]
['beep', 0.0, -1300.290381943033, 0.0, 0.0, 0.0, 0.0, -7147.886711107101, 0.0]
['beep', 0.0, -1302.547908133019, 0.0, 0.0, 0.0, 0.0, -7559.270567807027, 0.0]
['beep', 0.0, -1336.097876560435, 0.0, 0.0, 0.0, 0.0, -7607.997370719597, 0.0]
['beep', 0.0, -1310.683943114751, 0.0, 0.0, 0.0, 0.0, -7586.047957664485, 0.0]
['beep', 0.0, -1298.3010766865107, 0.0, 0.0, 0.0, 0.0, -7257.7008316160245, 0.0]
['beep', 0.0, -1300.3350854319438, 0.0, 0.0, 0.0, 0.0, -7144.846873861179, 0.0]
['beep', 0.0, -1304.2689924560777, 0.0, 0.0, 0.0, 0.0, -7558.398849773271, 0.0]
['beep', 0.0, -1337.7966091390383, 0.0, 0.0, 0.0, 0.0, -7606.477452096636, 0.0]
['beep', 0.0, -1309.4993006586196, 0.0, 0.0, 0.0, 0.0, -7584.304521596971, 0.0]
['beep', 0.0, -1296.2447161966224, 0.0, 0.0, 0.0, 0.0, -7258.036107782854, 0.0]
['beep', 0.0, -1298.7928150645275, 0.0, 0.0, 0.0, 0.0, -7144.60100467217, 0.0]
['beep', 0.0, -1302.1679284772788, 0.0, 0.0, 0.0, 0.0, -7557.616538717335, 0.0]
['beep', 0.0, -1334.5556061930188, 0.0, 0.0, 0.0, 0.0, -7608.667923053256, 0.0]
['beep', 0.0, -1308.0240855245693, 0.0, 0.0, 0.0, 0.0, -7588.439594321203, 0.0]
['beep', 0.0, -1295.417701651776, 0.0, 0.0, 0.0, 0.0, -7266.216846253496, 0.0]
['beep', 0.0, -1297.9881522641365, 0.0, 0.0, 0.0, 0.0, -7147.104400051165, 0.0]
['beep', 0.0, -1302.2573354551, 0.0, 0.0, 0.0, 0.0, -7558.220035817628, 0.0]
['beep', 0.0, -1337.126056805379, 0.0, 0.0, 0.0, 0.0, -7607.326818385937, 0.0]
['beep', 0.0, -1310.7286466036614, 0.0, 0.0, 0.0, 0.0, -7586.830268720421, 0.0]
['beep', 0.0, -1296.647047596818, 0.0, 0.0, 0.0, 0.0, -7272.855314356722, 0.0]
['beep', 0.0, -1298.7704633200722, 0.0, 0.0, 0.0, 0.0, -7154.726344910425, 0.0]
['beep', 0.0, -1301.7879488215387, 0.0, 0.0, 0.0, 0.0, -7556.990689872586, 0.0]
['beep', 0.0, -1338.1542370503232, 0.0, 0.0, 0.0, 0.0, -7604.309332884471, 0.0]
['beep', 0.0, -1309.8569285699045, 0.0, 0.0, 0.0, 0.0, -7586.383233831315, 0.0]
['beep', 0.0, -1295.0600737404911, 0.0, 0.0, 0.0, 0.0, -7280.454907471527, 0.0]
['beep', 0.0, -1298.614001108885, 0.0, 0.0, 0.0, 0.0, -7161.364813013651, 0.0]
['beep', 0.0, -1303.3302191889547, 0.0, 0.0, 0.0, 0.0, -7557.348317783871, 0.0]
['beep', 0.0, -1343.0269173415802, 0.0, 0.0, 0.0, 0.0, -7603.527021828535, 0.0]
['beep', 0.0, -1313.813187338494, 0.0, 0.0, 0.0, 0.0, -7587.83609722091, 0.0]
['beep', 0.0, -1295.1718324627677, 0.0, 0.0, 0.0, 0.0, -7295.028244856388, 0.0]
['beep', 0.0, -1298.4351871532426, 0.0, 0.0, 0.0, 0.0, -7179.357967300173, 0.0]
['beep', 0.0, -1303.5760883779633, 0.0, 0.0, 0.0, 0.0, -7560.5893207298905, 0.0]
['beep', 0.0, -1346.3796790098763, 0.0, 0.0, 0.0, 0.0, -7602.275324139038, 0.0]
['beep', 0.0, -1313.2767454715665, 0.0, 0.0, 0.0, 0.0, -7592.015873434052, 0.0]
['beep', 0.0, -1295.1047772294019, 0.0, 0.0, 0.0, 0.0, -7322.073855647309, 0.0]
['beep', 0.0, -1298.0775592419577, 0.0, 0.0, 0.0, 0.0, -7209.421063592561, 0.0]
['beep', 0.0, -1304.9618965341922, 0.0, 0.0, 0.0, 0.0, -7568.993576645086, 0.0]
['beep', 0.0, -1351.1629523233119, 0.0, 0.0, 0.0, 0.0, -7601.470661338647, 0.0]
['beep', 0.0, -1318.5964606519296, 0.0, 0.0, 0.0, 0.0, -7594.318103112949, 0.0]
['beep', 0.0, -1296.4458818967203, 0.0, 0.0, 0.0, 0.0, -7342.749219268468, 0.0]
['beep', 0.0, -1299.9104022872928, 0.0, 0.0, 0.0, 0.0, -7233.33743015974, 0.0]
['beep', 0.0, -1304.8501378119156, 0.0, 0.0, 0.0, 0.0, -7572.413393546748, 0.0]
['beep', 0.0, -1352.772277924094, 0.0, 0.0, 0.0, 0.0, -7600.9118677272645, 0.0]
['beep', 0.0, -1321.2786699865665, 0.0, 0.0, 0.0, 0.0, -7595.435690335714, 0.0]
['beep', 0.0, -1296.3788266633544, 0.0, 0.0, 0.0, 0.0, -7355.8473415192775, 0.0]
['beep', 0.0, -1299.2398499536337, 0.0, 0.0, 0.0, 0.0, -7248.357802433706, 0.0]
['beep', 0.0, -1307.0853122574465, 0.0, 0.0, 0.0, 0.0, -7573.575684258424, 0.0]
['beep', 0.0, -1355.7897634255605, 0.0, 0.0, 0.0, 0.0, -7598.45317583718, 0.0]
['beep', 0.0, -1321.2786699865665, 0.0, 0.0, 0.0, 0.0, -7595.435690335714, 0.0]
['beep', 0.0, -1295.6412190963292, 0.0, 0.0, 0.0, 0.0, -7369.3477951702835, 0.0]
['beep', 0.0, -1299.3069051869995, 0.0, 0.0, 0.0, 0.0, -7262.953491563022, 0.0]
['beep', 0.0, -1309.1863762362452, 0.0, 0.0, 0.0, 0.0, -7572.703966224667, 0.0]
['beep', 0.0, -1359.4554495162308, 0.0, 0.0, 0.0, 0.0, -7589.244257121594, 0.0]
['beep', 0.0, -1322.709181631706, 0.0, 0.0, 0.0, 0.0, -7594.094585668396, 0.0]
['beep', 0.0, -1295.0824254849465, 0.0, 0.0, 0.0, 0.0, -7371.113582982252, 0.0]
['beep', 0.0, -1299.4410156537315, 0.0, 0.0, 0.0, 0.0, -7260.047764783832, 0.0]
['beep', 0.0, -1306.3924081793318, 0.0, 0.0, 0.0, 0.0, -7561.237521319094, 0.0]
['beep', 0.0, -1352.7275744351834, 0.0, 0.0, 0.0, 0.0, -7577.598998260379, 0.0]
['beep', 0.0, -1320.965745564192, 0.0, 0.0, 0.0, 0.0, -7569.373556300826, 0.0]
['beep', 0.0, -1290.4109108937873, 0.0, 0.0, 0.0, 0.0, -7353.165132184641, 0.0]
['beep', 0.0, -1290.5003178716086, 0.0, 0.0, 0.0, 0.0, -7244.356840176206, 0.0]
['beep', 0.0, -1297.3175999304772, 0.0, 0.0, 0.0, 0.0, -7517.137529508774, 0.0]
['beep', 0.0, -1343.8762836308817, 0.0, 0.0, 0.0, 0.0, -7515.081169018886, 0.0]
['beep', 0.0, -1308.4040651803095, 0.0, 0.0, 0.0, 0.0, -7503.659427602223, 0.0]
['beep', 0.0, -1279.257390410589, 0.0, 0.0, 0.0, 0.0, -7313.021399142909, 0.0]
['beep', 0.0, -1282.744262545617, 0.0, 0.0, 0.0, 0.0, -7208.415235092072, 0.0]
['beep', 0.0, -1290.388559149332, 0.0, 0.0, 0.0, 0.0, -7427.7529034320005, 0.0]
['beep', 0.0, -1341.0599638295132, 0.0, 0.0, 0.0, 0.0, -7411.883164868733, 0.0]
['beep', 0.0, -1304.4701581561756, 0.0, 0.0, 0.0, 0.0, -7406.675208410646, 0.0]
['beep', 0.0, -1277.7598235320836, 0.0, 0.0, 0.0, 0.0, -7258.572549649782, 0.0]
['beep', 0.0, -1282.6325038233406, 0.0, 0.0, 0.0, 0.0, -7178.061566121765, 0.0]
['beep', 0.0, -1288.6227713373628, 0.0, 0.0, 0.0, 0.0, -7375.31571093985, 0.0]
['beep', 0.0, -1339.74121090665, 0.0, 0.0, 0.0, 0.0, -7363.98337650101, 0.0]
['beep', 0.0, -1306.034780268047, 0.0, 0.0, 0.0, 0.0, -7364.408059645661, 0.0]
['beep', 0.0, -1278.8550590103937, 0.0, 0.0, 0.0, 0.0, -7233.449188882017, 0.0]
['beep', 0.0, -1283.2360009236338, 0.0, 0.0, 0.0, 0.0, -7158.5037897233715, 0.0]
['beep', 0.0, -1288.555716103997, 0.0, 0.0, 0.0, 0.0, -7347.331326881806, 0.0]
['beep', 0.0, -1336.7237254051836, 0.0, 0.0, 0.0, 0.0, -7339.888195978188, 0.0]
['beep', 0.0, -1307.8229198244715, 0.0, 0.0, 0.0, 0.0, -7350.371164127728, 0.0]
['beep', 0.0, -1281.0008264781031, 0.0, 0.0, 0.0, 0.0, -7221.446302109516, 0.0]
['beep', 0.0, -1282.9007247568043, 0.0, 0.0, 0.0, 0.0, -7145.338612239196, 0.0]
['beep', 0.0, -1289.7850620490387, 0.0, 0.0, 0.0, 0.0, -7345.163207669641, 0.0]
['beep', 0.0, -1340.3447080069434, 0.0, 0.0, 0.0, 0.0, -7342.883329735199, 0.0]
['beep', 0.0, -1312.5391379045413, 0.0, 0.0, 0.0, 0.0, -7355.422658374627, 0.0]
['beep', 0.0, -1289.9638760046812, 0.0, 0.0, 0.0, 0.0, -7223.9496974885105, 0.0]
['beep', 0.0, -1293.517803373075, 0.0, 0.0, 0.0, 0.0, -7142.321126737729, 0.0]
['beep', 0.0, -1300.6256581098626, 0.0, 0.0, 0.0, 0.0, -7370.7559550709675, 0.0]
['beep', 0.0, -1348.1678185663009, 0.0, 0.0, 0.0, 0.0, -7378.020272018943, 0.0]
['beep', 0.0, -1320.317544974988, 0.0, 0.0, 0.0, 0.0, -7393.5323826709255, 0.0]
['beep', 0.0, -1296.6246958523627, 0.0, 0.0, 0.0, 0.0, -7243.149845975619, 0.0]
['beep', 0.0, -1300.133919731846, 0.0, 0.0, 0.0, 0.0, -7145.31626049474, 0.0]
['beep', 0.0, -1306.4371116682426, 0.0, 0.0, 0.0, 0.0, -7403.8588886092775, 0.0]
['beep', 0.0, -1349.5759784669851, 0.0, 0.0, 0.0, 0.0, -7420.130958572741, 0.0]
['beep', 0.0, -1323.8938240878374, 0.0, 0.0, 0.0, 0.0, -7431.217423822573, 0.0]
['beep', 0.0, -1302.5702598774744, 0.0, 0.0, 0.0, 0.0, -7260.047764783832, 0.0]
['beep', 0.0, -1303.8219575669716, 0.0, 0.0, 0.0, 0.0, -7148.020821573833, 0.0]
['beep', 0.0, -1306.9959052796253, 0.0, 0.0, 0.0, 0.0, -7433.385543034738, 0.0]
['beep', 0.0, -1347.2961005325437, 0.0, 0.0, 0.0, 0.0, -7455.290252600939, 0.0]
['beep', 0.0, -1326.0395915555468, 0.0, 0.0, 0.0, 0.0, -7463.5603980494025, 0.0]
['beep', 0.0, -1301.3632656768877, 0.0, 0.0, 0.0, 0.0, -7270.173105022086, 0.0]
['beep', 0.0, -1302.1232249883683, 0.0, 0.0, 0.0, 0.0, -7137.537853424294, 0.0]
['beep', 0.0, -1305.811262823494, 0.0, 0.0, 0.0, 0.0, -7453.211540366596, 0.0]
['beep', 0.0, -1345.485609231664, 0.0, 0.0, 0.0, 0.0, -7488.393186139248, 0.0]
['beep', 0.0, -1321.2339664976557, 0.0, 0.0, 0.0, 0.0, -7493.690549575156, 0.0]
['beep', 0.0, -1298.6587045977956, 0.0, 0.0, 0.0, 0.0, -7271.514209689404, 0.0]
['beep', 0.0, -1300.7597685765945, 0.0, 0.0, 0.0, 0.0, -7122.740998594881, 0.0]
['beep', 0.0, -1303.039646511036, 0.0, 0.0, 0.0, 0.0, -7471.875246986777, 0.0]
['beep', 0.0, -1341.5293504630747, 0.0, 0.0, 0.0, 0.0, -7519.81973884341, 0.0]
['beep', 0.0, -1316.875376328871, 0.0, 0.0, 0.0, 0.0, -7520.6691051327125, 0.0]
['beep', 0.0, -1296.647047596818, 0.0, 0.0, 0.0, 0.0, -7282.600674939236, 0.0]
['beep', 0.0, -1301.586783121441, 0.0, 0.0, 0.0, 0.0, -7119.164719482032, 0.0]
['beep', 0.0, -1303.1067017444018, 0.0, 0.0, 0.0, 0.0, -7489.399014639737, 0.0]
['beep', 0.0, -1338.0201265835915, 0.0, 0.0, 0.0, 0.0, -7547.580605456902, 0.0]
['beep', 0.0, -1316.7859693510497, 0.0, 0.0, 0.0, 0.0, -7545.054858333452, 0.0]
['beep', 0.0, -1299.1057394869017, 0.0, 0.0, 0.0, 0.0, -7293.307160533329, 0.0]
['beep', 0.0, -1301.2515069546112, 0.0, 0.0, 0.0, 0.0, -7118.516518892828, 0.0]
['beep', 0.0, -1302.547908133019, 0.0, 0.0, 0.0, 0.0, -7505.827546814388, 0.0]
['beep', 0.0, -1337.2154637832002, 0.0, 0.0, 0.0, 0.0, -7567.473658022125, 0.0]
['beep', 0.0, -1316.7189141176837, 0.0, 0.0, 0.0, 0.0, -7561.9974806305745, 0.0]
['beep', 0.0, -1298.9492772757146, 0.0, 0.0, 0.0, 0.0, -7303.566611238314, 0.0]
['beep', 0.0, -1304.2689924560777, 0.0, 0.0, 0.0, 0.0, -7119.74586483787, 0.0]
['beep', 0.0, -1304.8277860674605, 0.0, 0.0, 0.0, 0.0, -7510.454357916637, 0.0]
['beep', 0.0, -1337.2154637832002, 0.0, 0.0, 0.0, 0.0, -7579.968283172641, 0.0]
['beep', 0.0, -1320.4963589306305, 0.0, 0.0, 0.0, 0.0, -7572.480448780114, 0.0]
['beep', 0.0, -1299.5527743760078, 0.0, 0.0, 0.0, 0.0, -7308.774567696401, 0.0]
['beep', 0.0, -1304.06782675598, 0.0, 0.0, 0.0, 0.0, -7121.623411372115, 0.0]
['beep', 0.0, -1305.2077657232005, 0.0, 0.0, 0.0, 0.0, -7516.735198108578, 0.0]
['beep', 0.0, -1338.8918446173484, 0.0, 0.0, 0.0, 0.0, -7586.360882086859, 0.0]
['beep', 0.0, -1319.646992641329, 0.0, 0.0, 0.0, 0.0, -7576.168486615239, 0.0]
['beep', 0.0, -1300.78212032105, 0.0, 0.0, 0.0, 0.0, -7277.593884181248, 0.0]
['beep', 0.0, -1302.4808528996532, 0.0, 0.0, 0.0, 0.0, -7058.5914920081495, 0.0]
['beep', 0.0, -1303.2184604666784, 0.0, 0.0, 0.0, 0.0, -7498.33971242186, 0.0]
['beep', 0.0, -1317.7917978515386, 0.0, 0.0, 0.0, 0.0, -7596.955608958675, 0.0]
['beep', 0.0, -1309.8569285699045, 0.0, 0.0, 0.0, 0.0, -7580.504725039569, 0.0]
['beep', 0.0, -1302.7714255775722, 0.0, 0.0, 0.0, 0.0, -7269.971939321988, 0.0]
['beep', 0.0, -1306.2135942236894, 0.0, 0.0, 0.0, 0.0, -7048.130875603066, 0.0]
['beep', 0.0, -1305.9900767791364, 0.0, 0.0, 0.0, 0.0, -7495.456337387126, 0.0]
['beep', 0.0, -1317.8812048293598, 0.0, 0.0, 0.0, 0.0, -7599.727225271133, 0.0]
['beep', 0.0, -1310.0133907810916, 0.0, 0.0, 0.0, 0.0, -7583.969245430142, 0.0]
['beep', 0.0, -1301.5197278880748, 0.0, 0.0, 0.0, 0.0, -7279.136154548664, 0.0]
['beep', 0.0, -1305.2524692121112, 0.0, 0.0, 0.0, 0.0, -7057.9656431634, 0.0]
['beep', 0.0, -1304.9171930452817, 0.0, 0.0, 0.0, 0.0, -7498.853802544332, 0.0]
['beep', 0.0, -1324.743190377139, 0.0, 0.0, 0.0, 0.0, -7600.330722371426, 0.0]
['beep', 0.0, -1312.807358838005, 0.0, 0.0, 0.0, 0.0, -7585.802088475477, 0.0]
['beep', 0.0, -1302.0561697550024, 0.0, 0.0, 0.0, 0.0, -7287.361596508217, 0.0]
['beep', 0.0, -1306.3700564348767, 0.0, 0.0, 0.0, 0.0, -7064.849980455635, 0.0]
['beep', 0.0, -1304.8501378119156, 0.0, 0.0, 0.0, 0.0, -7501.021921756497, 0.0]
['beep', 0.0, -1328.2747660010775, 0.0, 0.0, 0.0, 0.0, -7599.280190382027, 0.0]
['beep', 0.0, -1318.0600187850023, 0.0, 0.0, 0.0, 0.0, -7585.757384986567, 0.0]
['beep', 0.0, -1303.9113645447928, 0.0, 0.0, 0.0, 0.0, -7298.001026868943, 0.0]
['beep', 0.0, -1307.1076640019016, 0.0, 0.0, 0.0, 0.0, -7076.539942805761, 0.0]
['beep', 0.0, -1305.6548006123069, 0.0, 0.0, 0.0, 0.0, -7501.088976989863, 0.0]
['beep', 0.0, -1329.4594084572088, 0.0, 0.0, 0.0, 0.0, -7594.273399624039, 0.0]
['beep', 0.0, -1317.255355984611, 0.0, 0.0, 0.0, 0.0, -7579.767117472544, 0.0]
['beep', 0.0, -1301.6314866103514, 0.0, 0.0, 0.0, 0.0, -7303.186631582575, 0.0]
['beep', 0.0, -1305.1407104898346, 0.0, 0.0, 0.0, 0.0, -7083.737204520369, 0.0]
['beep', 0.0, -1307.3088297019995, 0.0, 0.0, 0.0, 0.0, -7498.183250210674, 0.0]
['beep', 0.0, -1332.5886526809518, 0.0, 0.0, 0.0, 0.0, -7589.713643755155, 0.0]
['beep', 0.0, -1317.7470943626279, 0.0, 0.0, 0.0, 0.0, -7581.532905284514, 0.0]
['beep', 0.0, -1300.7597685765945, 0.0, 0.0, 0.0, 0.0, -7311.836756686778, 0.0]
['beep', 0.0, -1305.7665593345832, 0.0, 0.0, 0.0, 0.0, -7090.286265645775, 0.0]
['beep', 0.0, -1306.5041669016084, 0.0, 0.0, 0.0, 0.0, -7501.290142689961, 0.0]
['beep', 0.0, -1334.8685306153932, 0.0, 0.0, 0.0, 0.0, -7591.948818200686, 0.0]
['beep', 0.0, -1322.8656438428932, 0.0, 0.0, 0.0, 0.0, -7581.465850051147, 0.0]
['beep', 0.0, -1299.8209953094715, 0.0, 0.0, 0.0, 0.0, -7320.173957368607, 0.0]
['beep', 0.0, -1304.2019372227119, 0.0, 0.0, 0.0, 0.0, -7100.411605884029, 0.0]
['beep', 0.0, -1307.0853122574465, 0.0, 0.0, 0.0, 0.0, -7507.034541014975, 0.0]
['beep', 0.0, -1334.5332544485634, 0.0, 0.0, 0.0, 0.0, -7595.547449057991, 0.0]
['beep', 0.0, -1320.2057862527117, 0.0, 0.0, 0.0, 0.0, -7585.64562626429, 0.0]
['beep', 0.0, -1299.195146464723, 0.0, 0.0, 0.0, 0.0, -7328.935841195088, 0.0]
['beep', 0.0, -1304.581916878452, 0.0, 0.0, 0.0, 0.0, -7106.915963520523, 0.0]
['beep', 0.0, -1306.9959052796253, 0.0, 0.0, 0.0, 0.0, -7506.095767747852, 0.0]
['beep', 0.0, -1337.4613329722088, 0.0, 0.0, 0.0, 0.0, -7593.558143801469, 0.0]
['beep', 0.0, -1322.3515537204212, 0.0, 0.0, 0.0, 0.0, -7586.763213487055, 0.0]
['beep', 0.0, -1300.0892162429352, 0.0, 0.0, 0.0, 0.0, -7334.970812198021, 0.0]
['beep', 0.0, -1305.520690145575, 0.0, 0.0, 0.0, 0.0, -7111.006332755845, 0.0]
['beep', 0.0, -1307.286477957544, 0.0, 0.0, 0.0, 0.0, -7508.040369515464, 0.0]
['beep', 0.0, -1338.6236236838847, 0.0, 0.0, 0.0, 0.0, -7595.83802173591, 0.0]
['beep', 0.0, -1323.2009200097227, 0.0, 0.0, 0.0, 0.0, -7589.288960610505, 0.0]
['beep', 0.0, -1303.6654953557845, 0.0, 0.0, 0.0, 0.0, -7342.078666934809, 0.0]
