[[1531.2733091441762, 1532.7261725337712, 1533.9778702232684, 1535.1401609349443, 1533.5084835897069, 1533.0167452116902, 1535.408381868408, 1535.6095475685058, 1538.023535969679, 1534.022573712179, 1530.2674806436873, 1530.8486259995254, 1535.9671754797907, 1538.0458877141343, 1535.8777685019695, 1531.2509573997208, 1530.7145155327935, 1537.0400592136455, 1538.2694051586873, 1535.8777685019695, 1532.5250068336734, 1532.8826347449583, 1535.5201405906846, 1537.2635766581986, 1534.4025533679192, 1531.9438614778355, 1532.793227767137, 1539.7222685482823, 1539.9457859928355, 1536.1906929243437, 1533.3520213785198, 1536.704783046816, 1539.5658063370952, 1543.3208994055867, 1537.665908058394, 1529.7086870323049, 1530.1780736658661, 1537.8670737584919, 1540.8175040265924, 1538.2247016697768, 1535.1401609349443, 1536.3248033910756, 1540.3481173930309, 1542.5609400941064, 1539.6775650593718, 1534.0672772010896, 1533.799056267626, 1537.442390613841, 1540.0798964595672, 1535.698954546327, 1531.2956608886316, 1534.1343324344555, 1540.9963179822348, 1542.8068092831147, 1534.8048847681148, 1527.6523265424164, 1530.82627425507, 1538.82819877007, 1538.470570858785, 1532.7485242782266, 1530.893329488436, 1532.4132481113968, 1537.6435563139387, 1538.7164400477934, 1536.995355724735, 1533.6425940564388, 1534.6260708124723, 1539.2305301702656, 1540.7728005376819, 1536.8835970024584, 1533.8884632454472, 1537.1071144470113, 1541.5551115936175, 1539.632861570461, 1536.5930243245393, 1534.3354981345533, 1536.7494865357264, 1541.219835426788, 1543.7902860391482, 1540.6163383264945, 1536.1906929243437, 1534.6931260458382, 1538.6270330699722, 1541.577463338073, 1537.4200388693857, 1534.737829534749, 1535.5201405906846, 1541.0186697266902, 1544.3267279060756, 1538.4035156254192, 1533.5084835897069, 1533.5531870786176, 1537.73296329176, 1538.314108647598, 1537.218873169288, 1534.1790359233662, 1536.0118789687012, 1541.1304284489668, 1541.443352871341, 1538.8729022589807, 1534.9613469793019, 1534.1790359233662, 1539.5434545926398, 1540.3928208819416, 1537.0847627025562, 1532.6144138114946, 1532.279137644665, 1537.4870941027516, 1539.6105098260057, 1536.2577481577098, 1531.5862335665506, 1534.1343324344555, 1540.1693034373884, 1541.443352871341, 1538.984660981257, 1536.0342307131566, 1536.4365621133522, 1540.571634837584, 1541.0633732156007, 1536.4365621133522, 1535.251919657221, 1534.9166434903914, 1539.4316958703632, 1543.8126377836036, 1541.3986493824304, 1534.6260708124723, 1533.8214080120813, 1539.8116755261035, 1541.6668703158941, 1538.6493848144275, 1535.3189748905868, 1537.5317975916623, 1541.1751319378773, 1542.8738645164806, 1539.4987511037293, 1535.7883615241483, 1533.8437597565367, 1539.632861570461, 1545.8466465290364, 1538.2694051586873, 1535.117809190489, 1536.8165417690925, 1540.4151726263967, 1544.8184662840924, 1543.2985476611314, 1538.9399574923466, 1535.0060504682126, 1536.570672580084, 1539.409344125908, 1538.0458877141343, 1534.0002219677237, 1532.0779719445673, 1534.246091156732, 1537.5541493361175, 1536.7494865357264, 1533.0614487006007, 1532.5250068336734, 1533.6649458008942, 1536.3024516466203, 1536.1012859465225, 1531.6756405443718, 1532.4579516003075, 1537.9341289918577, 1541.1751319378773, 1538.5599778366063, 1534.2237394122767, 1532.9720417227795, 1538.0011842252236, 1540.862207515503, 1537.665908058394, 1534.2013876678216, 1534.2907946456428, 1538.314108647598, 1541.1080767045114, 1538.671736558883, 1531.1615504218996, 1533.1955591673327, 1537.1071144470113, 1540.8845592599582, 1536.8835970024584, 1532.6144138114946, 1531.4968265887294, 1535.3636783794975, 1538.2023499253214, 1535.408381868408, 1531.4968265887294, 1533.6649458008942, 1540.3928208819416, 1543.6114720835058, 1538.5823295810617, 1536.1236376909778, 1536.7271347912713, 1538.4929226032405, 1541.3986493824304, 1537.4870941027516, 1531.9438614778355, 1533.1732074228773, 1542.7397540497489, 1545.0866872175561, 1538.6493848144275, 1532.9720417227795, 1533.73200103426, 1536.213044668799, 1538.179998180866, 1537.7553150362153, 1534.894291745936, 1534.1790359233662, 1537.665908058394, 1538.5152743476958, 1533.955518478813, 1535.54249233514, 1538.7164400477934, 1540.2587104152096, 1539.4316958703632, 1534.8048847681148, 1536.1906929243437, 1534.9836987237572, 1536.3248033910756, 1537.665908058394, 1532.3908963669417, 1530.155721921411, 1532.1450271779331, 1535.92247199088, 1536.7941900246371, 1532.502655089218, 1530.1110184325003, 1533.9331667343579, 1539.0517162146232, 1537.3082801471091, 1534.022573712179, 1531.027439955168, 1533.7096492898047, 1536.5259690911735, 1534.737829534749, 1526.087704430545, 1525.3277451190645, 1535.050753957123, 1541.957442993813, 1535.408381868408, 1532.3238411335756, 1531.9662132222907, 1535.6766028018717, 1537.8670737584919, 1534.3354981345533, 1534.737829534749, 1536.861245258003, 1537.5541493361175, 1539.6105098260057, 1540.1022482040225, 1536.213044668799, 1532.9943934672349, 1537.1294661914667, 1541.957442993813, 1536.995355724735, 1534.8719400014807, 1536.5930243245393, 1537.3529836360199, 1539.766972037193, 1542.2703674161874, 1536.8835970024584, 1530.6027568105171, 1535.2966231461314, 1541.0633732156007, 1538.604681325517, 1536.9283004913689, 1539.8340272705589, 1539.6552133149164, 1541.8009807826259, 1542.0692017160895, 1538.1129429475002, 1535.7883615241483, 1533.3520213785198, 1535.2742714016763, 1540.9516144933243, 1543.92439650588, 1551.702803576327, 1557.0448705011454, 1564.242132215754, 1570.9923590412568, 1577.3849579554746, 1584.8727923480026, 1595.3781122419969, 1606.3975222584634, 1612.4324932613963, 1615.6064409740497, 1623.8989381669687, 1635.0971621390775, 1646.3847930890076, 1650.2292931353204, 1655.0572699376667, 1656.6442437939936, 1657.85123799458, 1665.115554942555, 1665.9649212318566, 1661.628682807527, 1659.2593978952646, 1661.0251857072337, 1665.8978659984907, 1667.887171255013, 1664.2661886532533, 1658.8347147506136, 1662.6568630524712, 1667.2389706658091, 1665.2273136648314, 1656.5548368161724, 1658.1641624169545, 1663.595636319594, 1666.6801770544264, 1667.1942671768984, 1662.9250839859349, 1659.2593978952646, 1660.0640606956556, 1664.690871797904, 1666.3896043765074, 1662.2545316522755, 1659.5276188287282, 1661.405165362974, 1665.85316250958, 1666.0543282096778, 1660.7793165182254, 1658.3653281170523, 1662.6121595635605, 1666.7248805433371, 1667.66365381046, 1660.9134269849571, 1661.1369444295103, 1666.7248805433371, 1664.1097264420662, 1666.6801770544264, 1664.9590927313677, 1659.9299502289236, 1662.9697874748454, 1665.2720171537421, 1665.5178863427504, 1668.088336955111, 1672.111650957066, 1673.3186451576526, 1679.9347615164236, 1684.0027790072895, 1683.1534127179877, 1682.2816946842308, 1682.438156895418, 1683.6675028404597, 1683.4439853959068, 1680.8735347835463, 1678.7054155713815, 1683.0640057401665, 1686.014436008267, 1683.2875231847195, 1682.885191784524, 1681.7005493283928, 1682.95224701789, 1688.0484447537, 1687.7131685868703, 1680.8288312946358, 1680.1359272165214, 1681.432328394929, 1685.5674011191609, 1685.2991801856972, 1681.499383628295, 1682.1699359619543, 1683.6227993515492, 1684.986255763323, 1684.4721656408508, 1681.0523487391888, 1680.0688719831553, 1681.0523487391888, 1683.891020285013, 1685.1874214634206, 1681.6781975839374, 1676.1573167034767, 1680.180630705432, 1684.695683085404, 1683.7345580738256, 1681.9017150284906, 1680.0912237276107, 1680.4935551278063, 1684.852145296591, 1684.2709999407532, 1682.885191784524, 1680.1359272165214, 1679.979465005334, 1682.751081317792, 1681.0299969947337, 1676.112613214566, 1676.6490550814933, 1685.0086075077782, 1687.6461133535045, 1689.277790698742, 1685.0086075077782, 1682.1028807285884, 1684.9415522744123, 1688.5178313872614, 1687.7802238202364, 1683.9804272628342, 1684.2933516852083, 1686.3273604306414, 1686.662636597471, 1686.6402848530156, 1686.9085057864793, 1685.2768284412418, 1684.8968487855018, 1687.981389520334, 1687.4225959089513, 1685.1650697189655, 1685.1650697189655, 1683.6227993515492, 1687.5120028867725, 1689.1883837209207, 1683.9580755183788, 1682.5275638732392, 1686.2156017083648, 1691.8929448000129, 1687.2884854422196, 1685.6791598414375, 1684.3604069185744, 1685.790918563714, 1689.6577703544822, 1688.4284244094401, 1681.5440871172057, 1682.95224701789, 1687.9590377758789, 1690.1271569880435, 1688.5401831317167, 1689.7024738433927, 1686.1261947305436, 1683.7345580738256, 1686.6179331085602, 1688.8084040651804, 1686.1932499639095, 1679.2195056938538, 1681.6111423505715, 1689.5013081432949, 1689.8142325656693, 1686.7073400863815, 1682.4158051509626, 1683.9357237739234, 1689.1213284875548, 1690.7753575772474, 1685.5897528636162, 1679.0406917382113, 1682.4828603843284, 1690.9765232773452, 1690.7083023438815, 1683.1981162068982, 1679.8677062830577, 1682.728729573337, 1687.310837186675, 1687.4225959089513, 1681.924066772946, 1680.0465202387002, 1681.275866183742, 1689.8142325656693, 1690.305970943686, 1689.4566046543844, 1690.8200610661581, 1688.6966453429038, 1677.4090143929739, 1668.8482962665912, 1658.5217903282394, 1649.536389057206, 1641.9144441979463, 1634.56072027215, 1622.9154614109352, 1614.086522351089, 1604.0282373462007, 1596.607458187039, 1587.666760404916, 1576.6697021329048, 1568.5560188956285, 1554.5414751221508, 1545.4219633843857, 1547.7241930632822, 1539.6552133149164, 1528.3899341094416, 1525.9982974527238, 1529.1945969098326, 1533.9778702232684, 1533.9778702232684, 1531.5638818220953, 1529.73103877676, 1526.4229805973746, 1529.4851695877517, 1532.5920620670395, 1529.373410865475, 1523.1149224179892, 1529.2616521431987, 1531.9662132222907, 1531.8544545000143, 1528.412285853897, 1527.0264776976678, 1528.926375976369, 1531.6756405443718, 1532.4132481113968, 1530.0439631991344, 1523.181977651355, 1528.1440649204333, 1531.4074196109082, 1533.4190766118857, 1528.8369689985477, 1526.9817742087573, 1527.9876027092462, 1527.607623053506, 1528.4793410872628, 1528.926375976369, 1527.406457353408, 1528.278175387165, 1533.1061521895115, 1532.3908963669417, 1524.2548613852098, 1522.377314850964, 1528.5240445761735, 1538.604681325517, 1541.7786290381705, 1538.1129429475002, 1531.2956608886316, 1533.083800445056, 1539.4540476148186, 1540.6163383264945, 1536.8835970024584, 1534.8495882570253, 1532.279137644665, 1537.5317975916623, 1540.1022482040225, 1536.4365621133522, 1536.704783046816, 1536.5930243245393, 1540.3928208819416, 1541.7786290381705, 1537.4870941027516, 1533.0167452116902, 1536.1906929243437, 1540.862207515503, 1539.4316958703632, 1534.7154777902936, 1534.8719400014807, 1536.4812656022627, 1539.2975854036315, 1536.9730039802796, 1537.8223702695811, 1537.5988528250282, 1537.9788324807685, 1538.82819877007, 1539.409344125908, 1536.5259690911735, 1535.8554167575141, 1538.671736558883, 1542.2033121828215, 1542.82916102757, 1538.5823295810617, 1534.2907946456428, 1537.73296329176, 1541.7562772937154, 1540.8845592599582, 1539.990489481746, 1535.5201405906846, 1534.1566841789108, 1539.8340272705589, 1540.9963179822348, 1537.3976871249304, 1536.1459894354332, 1534.5813673235616, 1539.6552133149164, 1542.5162366051957, 1536.995355724735, 1532.793227767137, 1537.4870941027516, 1540.7728005376819, 1541.152780193422, 1538.2023499253214, 1533.0390969561456, 1535.54249233514, 1542.82916102757, 1539.9681377372906, 1538.0458877141343, 1533.7543527787154, 1535.0284022126677, 1542.4268296273744, 1541.3986493824304, 1533.7543527787154, 1535.3189748905868, 1540.3481173930309, 1540.5045796042182, 1538.7164400477934, 1533.8661115009918, 1532.63676555595, 1534.7825330236594, 1539.4540476148186, 1542.6950505608381, 1537.4200388693857, 1532.3908963669417, 1537.9117772474024, 1540.3928208819416, 1539.699916803827, 1537.2635766581986, 1533.1732074228773, 1534.4696086012852, 1538.3364603920534, 1539.8787307594694, 1538.314108647598, 1534.246091156732, 1535.54249233514, 1538.8729022589807, 1539.8787307594694, 1536.1459894354332, 1533.8884632454472, 1530.9380329773467, 1535.54249233514, 1537.1071144470113, 1531.9215097333802, 1528.4346375983523, 1533.1285039339668, 1537.2635766581986, 1537.375335380475, 1534.022573712179, 1530.4015911104193, 1532.0779719445673, 1536.995355724735, 1538.4035156254192, 1534.1566841789108, 1528.546396320629, 1531.4521230998187, 1538.82819877007, 1537.8223702695811, 1533.3967248674305, 1529.3063556321092, 1531.4968265887294, 1538.604681325517, 1538.9399574923466, 1534.313146390098, 1531.0721434440784, 1530.3568876215086, 1536.1906929243437, 1538.314108647598, 1537.375335380475, 1532.793227767137, 1531.8991579889248, 1538.4482191143297, 1541.5104081047068, 1535.3636783794975, 1529.9322044768578, 1538.157646436411, 1537.375335380475, 1540.2363586707543, 1536.3918586244415, 1531.7873992666482, 1535.6095475685058, 1537.2635766581986, 1535.564844079595, 1533.1955591673327, 1530.5580533216064, 1531.832102755559, 1535.8777685019695, 1538.023535969679, 1536.2577481577098, 1534.3354981345533, 1534.1566841789108, 1538.0905912030448, 1538.6493848144275, 1535.989527224246, 1535.2295679127656, 1531.9438614778355, 1536.6153760689947, 1540.1916551818438, 1536.4589138578074, 1531.4968265887294, 1533.3520213785198, 1537.8894255029472, 1536.6153760689947, 1533.2402626562432, 1529.7757422656707, 1529.7533905212154, 1538.9176057478912, 1541.5551115936175, 1535.6542510574163, 1533.3520213785198, 1532.9496899783244, 1534.6484225569277, 1536.861245258003, 1533.0167452116902, 1531.027439955168, 1529.3063556321092, 1536.3248033910756, 1539.632861570461, 1533.8661115009918, 1531.1615504218996, 1533.0390969561456, 1533.4861318452517, 1535.7213062907824, 1533.8661115009918, 1529.373410865475, 1531.6085853110058, 1536.1012859465225, 1535.8554167575141, 1532.5697103225841, 1531.832102755559, 1527.5852713090505, 1531.9662132222907, 1534.5813673235616, 1531.5191783331845, 1528.4569893428074, 1531.0721434440784, 1536.213044668799, 1537.956480736313, 1534.380201623464, 1530.4239428548747, 1531.2956608886316, 1537.4200388693857, 1539.5658063370952, 1533.3073178896093, 1529.4181143543858, 1532.1003236890226, 1535.6095475685058, 1536.63772781345, 1532.502655089218, 1530.9827364662572, 1533.2402626562432, 1536.3024516466203, 1536.3695068799861, 1533.217910911788, 1530.312184132598, 1532.7485242782266, 1537.1071144470113, 1536.5259690911735, 1534.2907946456428, 1529.73103877676, 1532.4355998558522, 1540.6163383264945, 1537.3976871249304, 1532.9720417227795, 1530.0663149435898, 1530.669812043883, 1533.0390969561456, 1535.8107132686036, 1533.6872975453493, 1529.5298730766624, 1531.340364377542, 1535.3189748905868, 1538.5599778366063, 1531.8544545000143, 1529.6192800544836, 1531.6309370554611, 1532.927338233869, 1535.4977888462292, 1532.793227767137, 1528.054657942612, 1528.1440649204333, 1534.536663834651, 1538.0905912030448, 1533.575538823073], [-5350.58293945586, -5347.923081865679, -5352.706355179114, -5356.997890114533, -5356.506151736517, -5351.67817493417, -5348.615985943793, -5352.527541223471, -5357.936663381656, -5357.757849426013, -5353.242797046041, -5349.286538277453, -5352.035802845455, -5357.288462792452, -5357.355518025818, -5351.789933656447, -5348.146599310231, -5351.320547022885, -5357.914311637201, -5356.796724414436, -5351.745230167536, -5348.101895821321, -5350.828808644868, -5355.522674980482, -5354.405087757717, -5349.666517933192, -5347.476046976572, -5350.9629191116, -5356.416744758695, -5356.327337780874, -5352.39343075674, -5348.839503388346, -5350.1135528222985, -5354.5168464799945, -5355.768544169491, -5349.353593510818, -5346.067887075888, -5350.158256311209, -5356.461448247605, -5357.064945347899, -5351.007622600511, -5348.124247565776, -5351.834637145357, -5355.321509280385, -5354.226273802075, -5350.381773755762, -5346.514921964994, -5351.454657489617, -5356.148523825232, -5356.2155790585975, -5351.387602256251, -5348.526578965972, -5353.019279601488, -5358.182532570664, -5357.847256403835, -5352.147561567732, -5349.353593510818, -5352.102858078821, -5355.947358125134, -5356.304986036419, -5352.080506334366, -5348.012488843499, -5350.538235966949, -5356.975538370078, -5356.617910458793, -5350.91821562269, -5348.794799899435, -5351.834637145357, -5355.567378469394, -5356.148523825232, -5351.499360978528, -5347.811323143402, -5351.722878423081, -5356.81907615889, -5357.087297092355, -5352.751058668025, -5349.86768363329, -5352.549892967927, -5357.221407559086, -5356.461448247605, -5351.655823189714, -5349.711221422103, -5351.63347144526, -5357.087297092355, -5359.367175026796, -5354.114515079798, -5349.755924911014, -5352.371079012284, -5357.847256403835, -5357.8025529149245, -5351.544064467438, -5347.72191616558, -5351.454657489617, -5358.62956745977, -5358.62956745977, -5352.974576112578, -5350.426477244673, -5352.728706923569, -5358.24958780403, -5356.975538370078, -5352.840465645846, -5349.912387122201, -5351.834637145357, -5356.0144133585, -5356.886131392256, -5351.499360978528, -5349.241834788541, -5352.840465645846, -5361.557645983416, -5365.402146029728, -5361.021204116489, -5356.752020925524, -5360.417707016195, -5366.050346618932, -5365.759773941013, -5360.1494860827315, -5356.05911684741, -5358.62956745977, -5364.575131484882, -5364.821000673891, -5359.076602348877, -5356.170875569686, -5359.009547115511, -5364.172800084687, -5364.172800084687, -5358.428401759673, -5355.545026724938, -5357.243759303541, -5362.228198317075, -5362.541122739449, -5358.696622693136, -5355.746192425036, -5358.137829081754, -5362.831695417368, -5363.859875662312, -5359.8589134048125, -5354.941529624645, -5357.064945347899, -5361.49059075005, -5362.6752332061815, -5359.2107128156085, -5355.67913719167, -5358.942491882145, -5364.329262295873, -5363.837523917857, -5358.9201401376895, -5353.980404613067, -5356.237930803052, -5362.608177972816, -5363.077564606377, -5358.428401759673, -5355.612081958304, -5357.914311637201, -5362.116439594798, -5362.943454139645, -5359.098954093332, -5355.388564513751, -5358.0931255928435, -5362.608177972816, -5363.323433795385, -5358.517808737494, -5356.439096503151, -5358.7413261820475, -5362.697584950636, -5362.183494828164, -5358.696622693136, -5354.382736013262, -5357.199055814631, -5362.831695417368, -5363.390489028751, -5358.182532570664, -5354.382736013262, -5356.77437266998, -5362.049384361432, -5362.742288439547, -5358.517808737494, -5354.382736013262, -5355.969709869589, -5362.2058465726195, -5363.457544262117, -5357.847256403835, -5354.673308691181, -5357.221407559086, -5362.429364017173, -5363.055212861921, -5357.44492500364, -5354.0474598464325, -5357.310814536907, -5362.183494828164, -5362.541122739449, -5358.674270948681, -5356.930834881167, -5358.540160481949, -5362.272901805985, -5363.725765195581, -5360.3283000383735, -5355.2768057914745, -5357.199055814631, -5362.831695417368, -5364.0163378735, -5360.373003527285, -5356.304986036419, -5357.400221514728, -5362.764640184002, -5364.7315936960695, -5360.82003841639, -5355.835599402857, -5358.137829081754, -5363.435192517662, -5352.8181139013905, -5347.2972330209295, -5349.353593510818, -5354.606253457815, -5357.064945347899, -5353.712183679603, -5349.130076066265, -5349.48770397755, -5354.0474598464325, -5356.662613947704, -5353.48866623505, -5349.86768363329, -5350.828808644868, -5356.81907615889, -5359.255416304519, -5355.232102302564, -5350.135904566754, -5350.091201077843, -5355.857951147313, -5359.30011979343, -5354.405087757717, -5349.420648744184, -5349.018317343988, -5356.126172080776, -5357.668442448192, -5352.304023778918, -5348.973613855078, -5350.314718522396, -5355.567378469394, -5358.495456993039, -5354.002756357522, -5348.906558621712, -5349.979442355567, -5355.097991835832, -5358.696622693136, -5354.673308691181, -5349.957090611111, -5348.817151643891, -5353.935701124156, -5356.77437266998, -5354.6956604356365, -5348.481875477061, -5348.548930710427, -5354.874474391279, -5358.62956745977, -5355.522674980482, -5349.420648744184, -5348.615985943793, -5354.025108101977, -5358.026070359478, -5355.656785447215, -5351.499360978528, -5352.102858078821, -5356.506151736517, -5358.58486397086, -5354.226273802075, -5349.800628399924, -5351.8793406342675, -5356.081468591866, -5358.9648436266, -5355.835599402857, -5351.588767956348, -5353.063983090399, -5356.908483136712, -5358.696622693136, -5354.896826135734, -5350.091201077843, -5348.459523732606, -5352.236968545552, -5354.561549968905, -5349.510055722005, -5342.9609945966, -5344.056230074911, -5347.833674887857, -5350.7617534115025, -5348.0571923324105, -5342.335145751852, -5343.29627076343, -5349.755924911014, -5352.460485990106, -5349.085372577354, -5343.564491696893, -5344.704430664115, -5352.259320290008, -5355.67913719167, -5352.415782501195, -5348.079544076865, -5349.040669088444, -5354.405087757717, -5357.53433198146, -5355.723840680581, -5350.851160389324, -5350.404125500218, -5356.3943930142395, -5360.596520971838, -5357.400221514728, -5351.611119700804, -5351.7005266786255, -5358.115477337298, -5362.429364017173, -5358.517808737494, -5353.332204023863, -5353.823942401879, -5359.478933749072, -5362.474067506083, -5357.847256403835, -5353.823942401879, -5354.449791246628, -5358.62956745977, -5361.200018072131, -5357.86960814829, -5354.807419157913, -5355.142695324743, -5360.373003527285, -5363.032861117466, -5358.763677926502, -5353.220445301587, -5354.092163335343, -5360.529465738472, -5362.876398906279, -5359.322471537885, -5354.561549968905, -5355.433268002662, -5360.0377273604545, -5363.7928204289465, -5359.322471537885, -5351.856988889813, -5352.482837734561, -5355.9250063806785, -5356.327337780874, -5352.684003434659, -5348.414820243695, -5349.6441661887375, -5354.24862554653, -5356.908483136712, -5354.9862331135555, -5348.973613855078, -5347.923081865679, -5353.734535424058, -5357.53433198146, -5353.667480190692, -5350.471180733583, -5350.605291200315, -5355.433268002662, -5358.696622693136, -5356.081468591866, -5351.141733067243, -5350.605291200315, -5355.410916258206, -5357.288462792452, -5354.449791246628, -5349.8229801443795, -5350.471180733583, -5355.947358125134, -5359.233064560064, -5356.036765102955, -5350.404125500218, -5350.381773755762, -5355.2768057914745, -5358.651919204226, -5355.790895913947, -5351.544064467438, -5350.985270856056, -5356.05911684741, -5359.903616893723, -5356.260282547508, -5351.901692378723, -5351.164084811698, -5355.522674980482, -5360.641224460748, -5358.2719395484855, -5353.041631345944, -5352.39343075674, -5358.473105248583, -5361.445887261139, -5358.182532570664, -5353.443962746139, -5352.348727267829, -5355.187398813653, -5359.411878515706, -5358.227236059575, -5353.48866623505, -5352.706355179114, -5358.0931255928435, -5361.445887261139, -5358.7413261820475, -5353.890997635245, -5353.622776701782, -5359.478933749072, -5362.764640184002, -5359.747154682535, -5353.712183679603, -5354.6956604356365, -5359.2107128156085, -5363.68106170667, -5361.401183772228, -5354.6956604356365, -5354.874474391279, -5359.747154682535, -5362.608177972816, -5360.373003527285, -5354.449791246628, -5353.600424957326, -5357.355518025818, -5360.238893060553, -5359.30011979343, -5354.9638813691, -5354.852122646824, -5359.970672127089, -5362.719936695092, -5357.757849426013, -5353.48866623505, -5352.035802845455, -5357.735497681559, -5361.714108194603, -5359.367175026796, -5353.421611001684, -5351.097029578332, -5356.796724414436, -5360.596520971838, -5358.808381415413, -5353.779238912969, -5350.9405673671445, -5357.1543523257205, -5362.742288439547, -5360.462410505105, -5355.656785447215, -5354.650956946726, -5358.808381415413, -5361.982329128066, -5358.696622693136, -5354.092163335343, -5353.958052868611, -5358.853084904324, -5363.569302984393, -5361.445887261139, -5356.483799992061, -5354.628605202271, -5358.696622693136, -5362.541122739449, -5361.647052961237, -5356.237930803052, -5354.15921856871, -5358.696622693136, -5363.010509373011, -5360.395355271739, -5352.661651690203, -5349.6441661887375, -5355.433268002662, -5359.68009944917, -5356.528503480971, -5351.164084811698, -5350.314718522396, -5354.606253457815, -5358.160180826209, -5355.053288346921, -5350.91821562269, -5352.080506334366, -5355.768544169491, -5359.747154682535, -5356.841427903346, -5351.253491789519, -5353.220445301587, -5357.243759303541, -5359.233064560064, -5358.182532570664, -5353.1086865793095, -5352.281672034464, -5357.48962849255, -5360.77533492748, -5358.942491882145, -5353.622776701782, -5354.092163335343, -5359.970672127089, -5363.949282640134, -5360.887093649757, -5355.790895913947, -5355.4556197471165, -5359.2107128156085, -5363.502247751027, -5361.982329128066, -5357.914311637201, -5355.857951147313, -5360.373003527285, -5364.150448340231, -5362.764640184002, -5359.2107128156085, -5358.026070359478, -5361.401183772228, -5365.11157335181, -5363.256378562019, -5358.808381415413, -5358.294291292941, -5363.077564606377, -5366.519733252494, -5364.642186718248, -5359.590692471349, -5358.9648436266, -5362.809343672913, -5366.072698363388, -5364.7315936960695, -5361.781163427969, -5361.334128538862, -5363.68106170667, -5364.9104076517115, -5363.703413451125, -5359.613044215804, -5356.975538370078, -5362.071736105888, -5366.63149197477, -5365.178628585176, -5360.3283000383735, -5360.3283000383735, -5364.105744851321, -5367.30204430843, -5364.686890207158, -5358.853084904324, -5358.003718615022, -5362.541122739449, -5367.011471630511, -5365.9162361522, -5360.596520971838, -5359.233064560064, -5363.30108205093, -5366.407974530217, -5364.284558806963, -5358.540160481949, -5356.841427903346, -5361.289425049952, -5366.1397535967535, -5366.7879541859575, -5360.864741905301, -5358.808381415413, -5362.6752332061815, -5367.033823374966, -5364.843352418346, -5359.523637237983, -5357.601387214826, -5362.697584950636, -5367.883189664268, -5365.782125685469, -5360.596520971838, -5357.377869770274, -5361.557645983416, -5368.263169320008, -5366.743250697047, -5361.065907605399, -5360.529465738472, -5365.178628585176, -5368.710204209114, -5365.357442540818, -5359.769506426991, -5358.696622693136, -5362.764640184002, -5367.570265241893, -5366.027994874477, -5361.15531458322, -5358.62956745977, -5362.786991928458, -5367.30204430843, -5366.452678019128, -5360.641224460748, -5358.294291292941, -5361.937625639156, -5367.145582097242, -5367.257340819519, -5363.166971584198, -5361.0882593498545, -5364.195151829142, -5368.129058853276, -5366.340919296851, -5361.445887261139, -5358.20488431512, -5362.094087850343, -5368.933721653667, -5365.737422196558, -5361.557645983416, -5360.484762249561, -5364.597483229338, -5368.44198327565, -5366.184457085665, -5360.350651782829, -5359.434230260162, -5365.402146029728, -5369.783087942968, -5367.279692563974, -5361.378832027774, -5359.143657582243, -5363.189323328653, -5368.799611186935, -5367.436154775161, -5361.200018072131, -5360.350651782829, -5364.686890207158, -5369.4254600316835, -5369.581922242871, -5363.077564606377, -5361.892922150246, -5365.268035562996, -5368.978425142578, -5366.922064652689, -5361.892922150246, -5358.987195371055, -5363.390489028751, -5367.458506519617, -5365.044518118443, -5360.507113994016, -5358.540160481949, -5362.831695417368, -5367.234989075064, -5365.715070452103, -5362.608177972816, -5359.925968638178, -5363.614006473304, -5368.978425142578, -5368.821962931391, -5362.652881461726, -5359.881265149268, -5361.848218661335, -5367.369099541796, -5368.039651875455, -5361.959977383612, -5359.166009326698, -5364.239855318053, -5367.972596642089, -5366.385622785762, -5361.512942494505, -5358.674270948681, -5361.758811683513, -5366.340919296851, -5364.843352418346, -5359.724802938081, -5358.160180826209, -5363.032861117466, -5368.866666420301, -5367.033823374966, -5362.071736105888, -5358.473105248583, -5361.781163427969, -5365.9162361522, -5365.089221607354, -5360.9765006275775, -5360.171837827187, -5363.614006473304, -5367.905541408723, -5367.614968730804, -5362.764640184002, -5360.551817482927, -5362.831695417368, -5366.7879541859575, -5364.77629718498, -5358.137829081754, -5359.635395960259, -5364.128096595776, -5367.458506519617, -5367.614968730804, -5361.445887261139, -5359.233064560064, -5363.904579151223, -5369.358404798318, -5369.358404798318, -5363.34578553984, -5359.523637237983, -5364.239855318053, -5368.263169320008, -5367.68202396417, -5361.892922150246, -5359.2107128156085, -5364.172800084687, -5368.218465831097, -5367.883189664268, -5363.993986129044, -5361.200018072131, -5363.614006473304, -5367.570265241893, -5367.771430941991, -5362.63052971727, -5360.663576205204, -5364.753945440525, -5369.2466460760415, -5368.1961140866415, -5362.6752332061815, -5360.440058760651, -5364.508076251516, -5368.598445486838, -5367.30204430843, -5362.116439594798, -5359.545988982438, -5363.390489028751, -5369.537218753961, -5368.039651875455, -5363.278730306474, -5361.200018072131, -5363.569302984393, -5367.637320475259, -5367.279692563974, -5362.988157628555, -5361.2670733054965, -5363.837523917857, -5368.285521064463, -5366.430326274673, -5360.77533492748, -5357.579035470371, -5361.043555860943, -5366.922064652689, -5365.893884407746, -5359.993023871544, -5357.422573259184, -5360.216541316097, -5365.0221663739885, -5365.580959985371, -5360.3283000383735, -5356.3943930142395, -5360.10478259382, -5366.519733252494, -5366.54208499695, -5361.334128538862, -5358.62956745977, -5362.317605294897, -5366.407974530217, -5365.603311729827, -5359.2107128156085, -5356.72966918107, -5361.87057040579, -5366.8997129082345, -5365.0221663739885, -5360.0377273604545, -5357.914311637201, -5362.0270326169775, -5367.793782686446, -5366.296215807941, -5360.887093649757, -5357.847256403835, -5360.708279694114, -5365.8491809188345, -5365.782125685469, -5360.529465738472, -5356.796724414436, -5360.663576205204, -5364.999814629533, -5365.178628585176]]
[[1544.214969183799, 1541.4657046157963, 1545.1313907064666, 1550.9428442648464, 1549.1547047084218, 1544.4608383728075, 1544.4831901172627, 1548.2606349302096, 1549.378222152975, 1548.506504119218, 1545.2655011731986, 1544.4831901172627, 1549.4899808752516, 1552.4627628878075, 1550.2946436756426, 1547.2548064297207, 1544.0138034837012, 1547.8359517855588, 1551.9710245097906, 1551.2557686872208, 1547.5900825965505, 1545.4219633843857, 1549.4899808752516, 1549.2888151751538, 1547.1877511963548, 1544.863169773003, 1544.796114539637, 1545.9137017624023, 1548.506504119218, 1551.1216582204888, 1546.7183645627933, 1542.1809604383661, 1547.053640729623, 1549.6911465753492, 1548.4841523747627, 1543.6114720835058, 1543.2314924277655, 1547.7018413188268, 1550.8981407759359, 1549.9593675088129, 1545.1984459398325, 1544.349079650531, 1545.7348878067598, 1548.3723936524862, 1547.9924139967459, 1547.1653994518995, 1544.2373209282543, 1547.8806552744693, 1548.2606349302096, 1552.3286524210755, 1546.9418820073465, 1542.8515127720252, 1547.6124343410056, 1552.7756873101816, 1549.9146640199024, 1546.1595709514108, 1545.958405251313, 1547.9924139967459, 1551.993376254246, 1551.4569343873186, 1546.3830883959638, 1544.5278936061734, 1548.9982424972347, 1552.0604314876118, 1549.221759941788, 1543.2314924277655, 1544.796114539637, 1548.3276901635754, 1548.2606349302096, 1548.1712279523883, 1544.5278936061734, 1542.2256639272766, 1545.6007773400281, 1550.9651960093017, 1549.9593675088129, 1545.377259895475, 1544.4161348838968, 1546.7854197961594, 1551.635748342961, 1548.2606349302096, 1543.5220651056845, 1541.0186697266902, 1545.7572395512152, 1550.4287541423744, 1552.0604314876118, 1547.0089372407124, 1544.7290593062712, 1545.6901843178493, 1548.3947453969415, 1551.568693109595, 1547.1653994518995, 1546.986585496257, 1547.768896552193, 1551.6804518318716, 1551.7475070652374, 1546.763068051704, 1541.6221668269834, 1545.1984459398325, 1554.3850129109637, 1553.6474053439385, 1547.0983442185336, 1544.1926174393436, 1548.730021563771, 1554.0720884885895, 1551.0993064760337, 1546.7854197961594, 1545.824294784581, 1547.8136000411034, 1552.5745216100838, 1551.3898791539525, 1546.1148674625001, 1545.824294784581, 1551.2557686872208, 1552.7309838212711, 1552.4180593988967, 1550.5852163535615, 1549.5123326197067, 1547.8806552744693, 1548.9311872638689, 1547.8136000411034, 1543.2314924277655, 1546.9195302628912, 1551.3004721761313, 1553.8709227884917, 1553.2674256881985, 1547.0759924740782, 1545.801943040126, 1551.4345826428632, 1551.635748342961, 1546.5619023516062, 1544.863169773003, 1544.4608383728075, 1546.6513093294275, 1550.696975075838, 1551.1216582204888, 1546.248977929232, 1545.0866872175561, 1549.8252570420811, 1551.993376254246, 1550.2722919311873, 1546.025460484679, 1546.025460484679, 1547.8136000411034, 1550.7416785647488, 1550.473457631285, 1549.1770564528772, 1548.6629663304052, 1545.5784255955728, 1547.277158174176, 1546.5171988626957, 1542.0021464827237, 1539.342288892542, 1544.1702656948885, 1545.9137017624023, 1544.572597095084, 1542.0021464827237, 1541.890387760447, 1544.0138034837012, 1547.7241930632822, 1546.8077715406146, 1542.404477882919, 1539.5211028481845, 1542.6950505608381, 1548.5959110970393, 1551.635748342961, 1548.439448885852, 1546.8748267739807, 1547.344213407542, 1547.344213407542, 1544.4831901172627, 1541.890387760447, 1537.7106115473048, 1540.9516144933243, 1547.053640729623, 1547.6571378299163, 1544.3043761616202, 1540.6833935598606, 1542.9185680053913, 1545.9137017624023, 1546.1372192069555, 1544.8184662840924, 1543.5220651056845, 1547.0312889851677, 1549.1770564528772, 1546.83012328507, 1543.6114720835058, 1541.443352871341, 1543.3879546389526, 1547.92535876338, 1548.2382831857542, 1542.5609400941064, 1540.7504487932265, 1544.5278936061734, 1548.6182628414945, 1548.7076698193157, 1542.5162366051957, 1540.0575447151118, 1544.9749284952795, 1550.8981407759359, 1549.1323529639667, 1543.1420854499443, 1536.1459894354332, 1539.5881580815505, 1548.1041727190225, 1546.9195302628912, 1543.2538441722209, 1545.9807569957684, 1550.1605332089107, 1546.0031087402235, 1547.2101029408102, 1544.5949488395393, 1539.6552133149164, 1542.404477882919, 1548.9311872638689, 1550.5628646091063, 1547.7241930632822, 1541.6445185714388, 1544.572597095084, 1549.221759941788, 1549.8476087865365, 1545.8689982734918, 1540.7057453043158, 1546.9418820073465, 1551.2781204316761, 1550.9428442648464, 1546.6960128183382, 1545.5560738511174, 1547.1877511963548, 1549.4452773863409, 1550.6299198424722, 1546.4277918848745, 1542.82916102757, 1543.6561755724163, 1548.9982424972347, 1552.0380797431565, 1549.6911465753492, 1541.2645389156985, 1542.538588349651, 1548.6182628414945, 1548.1712279523883, 1543.5220651056845, 1543.6785273168716, 1544.6843558173605, 1549.668794830894, 1550.1158297200002, 1545.4666668732962, 1541.8680360159917, 1544.3043761616202, 1549.02059424169, 1550.1158297200002, 1544.5949488395393, 1545.2655011731986, 1551.7251553207823, 1551.6133965985057, 1548.081820974567, 1543.5891203390504, 1542.4491813718298, 1543.6114720835058, 1548.6182628414945, 1549.5570361086175, 1544.6173005839946, 1542.5162366051957, 1545.2655011731986, 1550.8981407759359, 1550.9651960093017, 1548.9311872638689, 1546.7183645627933, 1544.2373209282543, 1546.986585496257, 1548.081820974567, 1543.9020447614248, 1543.566768594595, 1547.0759924740782, 1552.1274867209777, 1553.8038675551259, 1541.2421871712431, 1533.8661115009918, 1536.2353964132544, 1542.0021464827237, 1547.6124343410056, 1548.3053384191203, 1552.1945419543435, 1546.6736610738828, 1544.7290593062712, 1547.6571378299163, 1547.2548064297207, 1549.5570361086175, 1551.1216582204888, 1548.0371174856566, 1542.8068092831147, 1546.1595709514108, 1546.3607366515084, 1544.2596726727097, 1540.6833935598606, 1541.8680360159917, 1546.2042744403213, 1547.9477105078354, 1545.2655011731986, 1547.768896552193, 1550.048774486634, 1548.5288558636732, 1550.2275884422766, 1546.1595709514108, 1541.599815082528, 1542.3374226495532, 1549.1547047084218, 1550.6746233313827, 1546.316033162598, 1541.9127395049024, 1543.4326581278633, 1550.406402397919, 1553.8485710440364, 1548.730021563771, 1544.2373209282543, 1546.4501436293297, 1549.2888151751538, 1551.7475070652374, 1548.6182628414945, 1544.371431394986, 1547.9700622522905, 1549.221759941788, 1549.7805535531704, 1546.5171988626957, 1545.0643354731008, 1543.2314924277655, 1547.4783238742739, 1552.954501265824, 1547.791248296648, 1545.2431494287432, 1545.5784255955728, 1548.282986674665, 1551.9263210208799, 1549.4005738974304, 1546.8077715406146, 1547.6794895743717, 1550.406402397919, 1552.4851146322626, 1551.2781204316761, 1547.6571378299163, 1543.6338238279611, 1547.1430477074443, 1551.9486727653352, 1551.0769547315783, 1544.7067075618158, 1542.7844575386594, 1548.730021563771, 1552.216893698799, 1546.7183645627933, 1544.5278936061734, 1547.2548064297207, 1550.2722919311873, 1551.9039692764247, 1551.054602987123, 1547.4336203853632, 1547.4336203853632, 1549.3335186640643, 1550.3840506534639, 1546.606605840517, 1543.4550098723187, 1544.1032104615224, 1550.540512864651, 1550.6075680980168, 1545.801943040126, 1549.244111686243, 1548.282986674665, 1548.0147657412012, 1550.3840506534639, 1546.8077715406146, 1543.2538441722209, 1541.1751319378773, 1544.0138034837012, 1556.0613937451117, 1557.380146667975, 1559.4588589023185, 1568.3995566844412, 1579.731891123282, 1590.8407081175696, 1599.5578884551394, 1603.8047199016476, 1615.3605717850414, 1630.0233161477229, 1636.661784250949, 1642.6744035094266, 1651.7492117582813, 1661.2039996628762, 1670.8152497786582, 1676.7384620593145, 1678.5936568491052, 1678.727767315837, 1685.2321249523313, 1693.949305289901, 1698.4643576698732, 1693.3905116785184, 1687.981389520334, 1690.2165639658647, 1694.172822734454, 1694.7092646013814, 1691.6694273554597, 1686.372063919552, 1688.2272587093425, 1695.1339477460324, 1695.625686124049, 1692.1164622445658, 1688.8531075540911, 1689.7471773323034, 1692.0717587556553, 1694.6869128569263, 1689.3895494210185, 1685.9473807749011, 1690.1495087324988, 1693.9716570343564, 1694.597505879105, 1692.8317180671356, 1690.730654088337, 1690.6859505994262, 1693.435215167429, 1695.916258801968, 1691.535316888728, 1688.5401831317167, 1688.9872180208229, 1694.1281192455435, 1695.469223912862, 1691.0659302551664, 1685.9026772859904, 1687.623761609049, 1694.2845814567306, 1696.2068314798871, 1692.3623314335744, 1687.5343546312279, 1690.753005832792, 1699.179613492443, 1703.7840728502363, 1703.1358722610323, 1698.2631919697753, 1696.6762181134486, 1699.8054623371916, 1700.0289797817445, 1697.235011724831, 1695.9386105464234, 1699.3137239591747, 1700.140738504021, 1699.850165826102, 1698.9337443034344, 1695.8939070575127, 1694.2622297122753, 1695.7821483352363, 1699.984276292834, 1699.1572617479876, 1694.6198576235602, 1695.469223912862, 1700.788939093225, 1701.7724158492586, 1698.1961367364095, 1693.5693256341608, 1693.211697722876, 1696.2515349687976, 1700.1854419929318, 1696.7432733468145, 1694.463395412373, 1695.8268518241468, 1697.8608605695797, 1701.4818431713395, 1699.4478344259066, 1696.273886713253, 1695.1562994904875, 1698.5761163921495, 1702.5323751607389, 1701.1912704934205, 1696.117424502066, 1698.2184884808646, 1699.1349100035322, 1701.4594914268841, 1701.6830088714373, 1694.664561112471, 1696.0727210131552, 1700.9230495599568, 1701.6383053825266, 1697.2797152137418, 1694.6869128569263, 1696.564459391172, 1699.9395728039233, 1702.6888373719262, 1700.5654216486719, 1695.3798169350407, 1694.7986715792026, 1698.9337443034344, 1702.3759129495518, 1700.140738504021, 1696.0727210131552, 1695.4468721684066, 1701.9959332938115, 1701.7277123603478, 1702.8900030720238, 1699.7607588482808, 1693.4128634229737, 1698.754930347792, 1700.7218838598592, 1699.827814081647, 1697.5702878916609, 1697.6373431250267, 1701.4818431713395, 1705.3039914731971, 1700.274848970753, 1694.7316163458368, 1692.0047035222894, 1696.2962384577083, 1699.0902065146217, 1697.9279158029458, 1692.5858488781273, 1691.6470756110043, 1697.883212314035, 1702.3982646940071, 1699.559593148183, 1693.8822500565352, 1691.758834333281, 1697.1232530025547, 1700.9454013044121, 1697.7043983583926, 1695.4468721684066, 1694.8880785570238, 1697.6373431250267, 1699.7831105927362, 1697.8608605695797, 1693.9046018009903, 1695.9386105464234, 1700.3195524596636, 1705.0581222841886, 1700.207793737387, 1695.8939070575127, 1696.922087302457, 1699.6042966370937, 1700.207793737387, 1698.8666890700686, 1697.7491018473033, 1698.4643576698732, 1701.5041949157949, 1702.1970989939093, 1698.7996338367027, 1694.5080989012838, 1693.7481395898033, 1698.4867094143283, 1702.4206164384625, 1698.2855437142307, 1700.9230495599568, 1706.8686135850685, 1701.14656700451, 1691.8929448000129, 1684.0474824962, 1674.2127149358648, 1664.4002991199852, 1658.208865905865, 1650.050479179678, 1639.925138941424, 1628.7716184582257, 1618.4451125198739, 1612.3654380280302, 1606.2857635361868, 1596.8309756315919, 1584.2245917587986, 1577.4296614443854, 1575.2615422322206, 1572.4452224308518, 1566.2314374722764, 1561.0681845031006, 1560.6435013584498, 1565.8738095609915, 1565.2032572273324, 1562.9904345262569, 1561.0011292697347, 1559.9505972803352, 1562.7445653372486, 1564.9126845494134, 1563.2363037152654, 1558.9447687798463, 1558.855361802025, 1562.7892688261593, 1563.4151176709079, 1564.7115188493156, 1558.9224170353912, 1557.603664112528, 1563.9739112822904, 1563.3257106930866, 1559.4141554134078, 1557.4024984124303, 1556.8213530565922, 1560.4199839138967, 1559.570617624595, 1560.017652513701, 1557.5589606236174, 1556.8213530565922, 1561.470515903296, 1564.5997601270392, 1562.275178703687, 1559.3023966911312, 1558.5647891241063, 1561.4928676477514, 1564.1974287268436, 1569.8077165851257, 1564.7562223382263, 1550.8981407759359, 1554.474419888785, 1556.2625594452095, 1554.608530355517, 1551.054602987123, 1550.2946436756426, 1556.5978356120393, 1557.7154228348045, 1552.3957076544414, 1549.4005738974304, 1553.312129177109, 1557.2013327123325, 1559.3023966911312, 1553.468591388296, 1548.9311872638689, 1549.7805535531704, 1553.8038675551259, 1553.8709227884917, 1551.9039692764247, 1549.5123326197067, 1548.9535390083242, 1551.6133965985057, 1556.9107600344134, 1553.088611732556, 1545.4219633843857, 1544.9525767508242, 1550.1381814644553, 1552.1051349765223, 1550.0040709977236, 1547.5453791076397, 1544.2820244171648, 1549.5570361086175, 1553.6474053439385, 1550.7193268202934, 1547.9030070189247, 1546.8971785184358, 1546.8524750295253, 1549.7582018087153, 1550.048774486634, 1548.5512076081286, 1548.0594692301117, 1551.21106519831, 1556.6648908454051, 1553.9379780218576, 1547.0312889851677, 1549.1547047084218, 1555.8155245561034, 1554.921454777891, 1552.7756873101816, 1549.892312275447, 1548.5959110970393, 1553.5132948772068, 1554.8991030334357, 1553.2227221992878, 1549.8476087865365, 1546.4277918848745, 1549.378222152975, 1555.1002687335335, 1555.0108617557123, 1548.8417802860477, 1548.8417802860477, 1552.6192250989945, 1553.02155649919, 1549.8252570420811, 1548.1041727190225, 1545.5337221066623, 1547.8583035300142, 1551.501637876229, 1551.0098994982125, 1546.4277918848745, 1546.8971785184358, 1551.054602987123, 1553.0662599881007, 1550.4511058868297, 1545.9137017624023, 1548.0147657412012, 1553.669757088394, 1555.92728327838, 1551.5239896206845, 1548.6406145859498, 1547.411268640908, 1551.7251553207823, 1554.6979373333381, 1552.9097977769136, 1547.277158174176, 1546.7183645627933, 1553.0662599881007, 1555.0332135001677, 1550.7193268202934, 1548.0594692301117, 1546.5395506071509, 1549.221759941788, 1554.4967716332403, 1550.8534372870251, 1545.6901843178493, 1545.0866872175561, 1547.120695962989, 1549.668794830894, 1549.73585006426, 1544.5278936061734, 1544.796114539637, 1549.5570361086175, 1552.9768530102795, 1551.8145622986035, 1550.8087337981146, 1547.2101029408102, 1546.0925157180448, 1553.5803501105727, 1552.5521698656287, 1547.344213407542, 1547.0983442185336, 1552.1721902098884, 1553.1109634770112, 1554.608530355517, 1552.9097977769136, 1552.1274867209777, 1553.468591388296, 1553.0439082436453, 1551.8369140430586, 1547.2101029408102, 1546.2042744403213, 1550.4287541423744, 1553.826219299581, 1550.7193268202934, 1547.6794895743717, 1548.6629663304052, 1553.602701855028, 1552.4180593988967, 1550.2722919311873, 1549.2664634306984, 1549.892312275447, 1552.5298181211733, 1554.5638268666062, 1551.7698588096928, 1550.4511058868297, 1546.986585496257, 1549.9593675088129, 1554.7426408222486, 1553.0439082436453, 1548.1041727190225, 1547.6124343410056, 1550.0711262310895, 1552.8427425435475, 1551.3675274094974, 1546.606605840517, 1548.4170971413967, 1550.1381814644553, 1553.3791844104749, 1551.0769547315783, 1547.8806552744693, 1546.6960128183382], [-5359.881265149268, -5354.5168464799945, -5353.600424957326, -5360.194189571642, -5364.373965784785, -5360.596520971838, -5355.34386102484, -5354.807419157913, -5359.769506426991, -5363.748116940036, -5360.864741905301, -5355.612081958304, -5355.500323236028, -5360.931797138667, -5364.239855318053, -5359.657747704715, -5355.67913719167, -5355.545026724938, -5360.752983183024, -5365.178628585176, -5360.663576205204, -5355.969709869589, -5356.349689525329, -5361.334128538862, -5364.284558806963, -5360.998852372033, -5355.34386102484, -5356.416744758695, -5361.982329128066, -5364.284558806963, -5361.0882593498545, -5354.539198224449, -5354.181570313164, -5360.305948293919, -5364.0833931068655, -5361.334128538862, -5355.880302891767, -5355.142695324743, -5360.9765006275775, -5363.993986129044, -5359.434230260162, -5354.785067413458, -5355.232102302564, -5359.076602348877, -5363.032861117466, -5360.283596549463, -5354.606253457815, -5353.511017979506, -5360.0377273604545, -5364.105744851321, -5361.602349472327, -5355.097991835832, -5354.114515079798, -5358.987195371055, -5361.200018072131, -5360.417707016195, -5356.170875569686, -5356.461448247605, -5359.456582004617, -5362.272901805985, -5360.708279694114, -5354.9638813691, -5353.7568871685135, -5359.143657582243, -5363.278730306474, -5360.708279694114, -5355.321509280385, -5356.975538370078, -5363.323433795385, -5366.296215807941, -5361.758811683513, -5356.930834881167, -5355.1650470691975, -5359.031898859966, -5362.407012272717, -5360.663576205204, -5356.126172080776, -5353.667480190692, -5359.255416304519, -5363.614006473304, -5361.758811683513, -5357.310814536907, -5358.517808737494, -5361.959977383612, -5365.2009803296305, -5361.289425049952, -5355.567378469394, -5357.623738959282, -5360.909445394212, -5364.843352418346, -5362.0270326169775, -5355.120343580287, -5356.349689525329, -5363.189323328653, -5365.066869862899, -5362.295253550441, -5359.143657582243, -5357.914311637201, -5363.34578553984, -5366.9667681416, -5364.217503573597, -5358.58486397086, -5358.048422103932, -5362.9658058841005, -5368.9560733981225, -5364.77629718498, -5356.953186625622, -5356.640262203248, -5361.647052961237, -5365.983291385566, -5362.652881461726, -5357.467276748094, -5357.511980237005, -5361.825866916879, -5366.6091402303155, -5363.502247751027, -5357.400221514728, -5356.3943930142395, -5362.071736105888, -5364.351614040329, -5361.222369816586, -5356.908483136712, -5355.768544169491, -5360.596520971838, -5364.284558806963, -5362.250550061531, -5357.601387214826, -5357.064945347899, -5362.094087850343, -5364.373965784785, -5361.378832027774, -5357.0425936034435, -5357.511980237005, -5362.295253550441, -5365.625663474281, -5362.831695417368, -5356.416744758695, -5354.829770902368, -5360.551817482927, -5365.11157335181, -5362.831695417368, -5355.522674980482, -5355.4556197471165, -5361.043555860943, -5364.39631752924, -5360.954148883123, -5356.237930803052, -5355.612081958304, -5361.043555860943, -5364.7315936960695, -5362.719936695092, -5358.115477337298, -5357.087297092355, -5360.77533492748, -5364.351614040329, -5361.937625639156, -5356.461448247605, -5355.366212769296, -5360.663576205204, -5364.888055907257, -5363.703413451125, -5359.791858171447, -5358.62956745977, -5361.468239005594, -5363.1446198397425, -5359.322471537885, -5354.494494735539, -5354.181570313164, -5360.529465738472, -5365.536256496461, -5362.608177972816, -5356.8637796478015, -5356.126172080776, -5360.641224460748, -5364.575131484882, -5362.161143083709, -5357.422573259184, -5355.254454047019, -5360.752983183024, -5364.955111140623, -5362.317605294897, -5356.193227314142, -5356.304986036419, -5361.065907605399, -5363.904579151223, -5359.545988982438, -5355.567378469394, -5355.34386102484, -5360.641224460748, -5363.949282640134, -5360.261244805008, -5354.829770902368, -5353.511017979506, -5357.3331662813625, -5361.021204116489, -5360.305948293919, -5355.2768057914745, -5353.220445301587, -5357.132000581265, -5361.110611094309, -5358.428401759673, -5353.5780732128715, -5353.823942401879, -5358.808381415413, -5361.177666327675, -5359.009547115511, -5354.24862554653, -5353.220445301587, -5358.294291292941, -5360.82003841639, -5357.646090703737, -5354.539198224449, -5354.315680779896, -5359.054250604421, -5362.764640184002, -5360.3283000383735, -5352.706355179114, -5351.968747612089, -5357.310814536907, -5361.401183772228, -5359.30011979343, -5352.77341041248, -5351.499360978528, -5356.684965692159, -5359.814209915902, -5358.763677926502, -5353.332204023863, -5351.588767956348, -5356.05911684741, -5361.200018072131, -5359.747154682535, -5354.718012180092, -5352.549892967927, -5356.640262203248, -5360.507113994016, -5356.550855225427, -5352.885169134756, -5354.494494735539, -5359.657747704715, -5363.055212861921, -5360.417707016195, -5355.075640091377, -5353.063983090399, -5358.58486397086, -5362.183494828164, -5359.031898859966, -5356.193227314142, -5356.8637796478015, -5359.8589134048125, -5362.876398906279, -5359.8589134048125, -5355.612081958304, -5353.980404613067, -5355.656785447215, -5361.557645983416, -5360.596520971838, -5355.589730213849, -5354.226273802075, -5357.891959892745, -5361.892922150246, -5358.808381415413, -5351.834637145357, -5349.912387122201, -5357.579035470371, -5361.110611094309, -5358.115477337298, -5353.1086865793095, -5351.499360978528, -5357.243759303541, -5361.714108194603, -5359.881265149268, -5354.785067413458, -5353.823942401879, -5357.310814536907, -5361.512942494505, -5360.373003527285, -5352.728706923569, -5350.515884222494, -5355.947358125134, -5359.2107128156085, -5351.812285400902, -5357.735497681559, -5357.44492500364, -5352.684003434659, -5350.24766328903, -5353.019279601488, -5356.617910458793, -5355.097991835832, -5349.353593510818, -5348.8842068772565, -5353.131038323765, -5356.126172080776, -5355.612081958304, -5349.688869677648, -5347.587805698849, -5351.275843533975, -5356.036765102955, -5354.293329035441, -5349.688869677648, -5349.130076066265, -5352.147561567732, -5355.4556197471165, -5354.561549968905, -5348.638337688249, -5346.20199754262, -5350.337070266852, -5354.9862331135555, -5354.293329035441, -5349.085372577354, -5346.783142898458, -5350.985270856056, -5354.785067413458, -5354.0474598464325, -5349.711221422103, -5346.023183586977, -5349.912387122201, -5355.656785447215, -5353.890997635245, -5348.928910366168, -5347.1184190652875, -5350.20295980012, -5354.449791246628, -5354.002756357522, -5349.912387122201, -5347.699564421126, -5350.24766328903, -5354.650956946726, -5354.561549968905, -5350.337070266852, -5348.638337688249, -5351.834637145357, -5357.355518025818, -5356.126172080776, -5351.409954000706, -5349.130076066265, -5351.387602256251, -5357.1543523257205, -5356.573206969882, -5350.471180733583, -5349.554759210916, -5353.220445301587, -5356.439096503151, -5356.126172080776, -5351.0523260894215, -5348.906558621712, -5352.125209823276, -5356.752020925524, -5354.561549968905, -5349.040669088444, -5347.364288254295, -5350.605291200315, -5355.34386102484, -5354.002756357522, -5348.459523732606, -5346.91725336519, -5351.588767956348, -5356.170875569686, -5355.34386102484, -5351.477009234072, -5349.15242781072, -5351.588767956348, -5355.790895913947, -5353.667480190692, -5347.431343487661, -5346.626680687271, -5351.186436556153, -5355.142695324743, -5356.05911684741, -5349.800628399924, -5346.403163242718, -5351.566416211894, -5356.193227314142, -5354.829770902368, -5348.817151643891, -5345.576148697871, -5349.308890021907, -5354.114515079798, -5352.706355179114, -5347.654860932214, -5346.470218476084, -5348.973613855078, -5354.9862331135555, -5354.025108101977, -5348.750096410525, -5347.699564421126, -5352.77341041248, -5360.931797138667, -5361.021204116489, -5356.528503480971, -5354.0474598464325, -5360.1494860827315, -5368.643148975748, -5368.0173001309995, -5363.546951239938, -5361.825866916879, -5365.893884407746, -5372.06296587741, -5373.001739144533, -5368.486686764561, -5366.430326274673, -5370.498343765538, -5375.415727545706, -5375.371024056795, -5370.431288532172, -5368.77725944248, -5372.264131577508, -5376.957997913122, -5376.846239190846, -5371.034785632466, -5368.307872808919, -5373.001739144533, -5377.047404890944, -5376.019224645999, -5372.912332166712, -5368.799611186935, -5372.2417798330525, -5377.203867102131, -5376.041576390455, -5369.648977476237, -5366.8997129082345, -5370.230122832075, -5373.761698456014, -5373.895808922745, -5368.754907698025, -5365.446849518639, -5368.821962931391, -5372.778221699979, -5371.9512071551335, -5368.106707108821, -5364.463372762606, -5366.452678019128, -5370.1854193431645, -5369.716032709603, -5364.77629718498, -5362.8540471618235, -5367.436154775161, -5374.164029856209, -5373.627587989282, -5367.167933841698, -5363.725765195581, -5367.056175119421, -5372.353538555329, -5372.510000766516, -5366.743250697047, -5362.876398906279, -5365.245683818542, -5369.760736198514, -5370.610102487815, -5365.223332074086, -5363.368137284296, -5367.816134430902, -5372.510000766516, -5372.353538555329, -5366.475029763584, -5362.295253550441, -5365.983291385566, -5371.370061799295, -5371.884151921768, -5366.296215807941, -5361.803515172424, -5364.351614040329, -5369.648977476237, -5371.057137376922, -5366.050346618932, -5361.311776794408, -5364.485724507061, -5369.537218753961, -5369.760736198514, -5364.999814629533, -5362.2058465726195, -5365.893884407746, -5369.9171984097, -5367.950244897634, -5364.686890207158, -5361.602349472327, -5363.725765195581, -5368.0173001309995, -5368.978425142578, -5363.68106170667, -5361.445887261139, -5362.742288439547, -5366.989119886055, -5368.0173001309995, -5362.8540471618235, -5361.557645983416, -5364.463372762606, -5370.096012365343, -5371.0124338880105, -5364.351614040329, -5360.507113994016, -5364.128096595776, -5370.408936787718, -5370.297178065441, -5365.245683818542, -5362.474067506083, -5363.658709962215, -5367.860837919812, -5368.240817575553, -5363.055212861921, -5359.411878515706, -5361.334128538862, -5364.798648929435, -5367.145582097242, -5363.1446198397425, -5359.724802938081, -5360.529465738472, -5365.893884407746, -5367.458506519617, -5363.614006473304, -5358.763677926502, -5359.031898859966, -5363.68106170667, -5364.77629718498, -5362.339957039351, -5359.076602348877, -5360.931797138667, -5365.580959985371, -5365.469201263095, -5361.0882593498545, -5357.0425936034435, -5359.523637237983, -5365.782125685469, -5367.369099541796, -5362.898750650734, -5358.450753504128, -5359.568340726893, -5364.284558806963, -5366.363271041307, -5361.2670733054965, -5356.506151736517, -5359.747154682535, -5366.005643130022, -5365.8491809188345, -5360.887093649757, -5356.081468591866, -5358.58486397086, -5363.122268095287, -5364.575131484882, -5360.395355271739, -5355.321509280385, -5358.473105248583, -5364.06104136241, -5364.865704162801, -5358.383698270763, -5352.371079012284, -5357.176704070175, -5363.278730306474, -5360.440058760651, -5354.15921856871, -5350.7617534115025, -5352.616948201293, -5355.477971491572, -5354.494494735539, -5350.806456900413, -5347.63250918776, -5349.979442355567, -5354.740363924547, -5355.053288346921, -5349.375945255273, -5345.285576019952, -5349.8229801443795, -5354.539198224449, -5353.48866623505, -5350.471180733583, -5347.230177787564, -5349.8229801443795, -5354.628605202271, -5354.852122646824, -5351.812285400902, -5349.018317343988, -5350.873512133779, -5356.260282547508, -5355.857951147313, -5350.649994689226, -5347.051363831922, -5349.599462699826, -5356.170875569686, -5358.808381415413, -5354.5168464799945, -5350.091201077843, -5352.684003434659, -5357.355518025818, -5357.735497681559, -5353.063983090399, -5350.381773755762, -5352.6392999457485, -5356.886131392256, -5357.936663381656, -5353.801590657424, -5349.219483044086, -5352.371079012284, -5356.707317436614, -5357.087297092355, -5351.588767956348, -5347.967785354589, -5351.409954000706, -5355.835599402857, -5355.790895913947, -5352.885169134756, -5349.599462699826, -5349.86768363329, -5355.388564513751, -5356.930834881167, -5352.281672034464, -5347.252529532019, -5349.510055722005, -5355.857951147313, -5357.735497681559, -5353.019279601488, -5349.130076066265, -5350.24766328903, -5356.081468591866, -5359.255416304519, -5354.293329035441, -5348.906558621712, -5350.873512133779, -5356.8637796478015, -5359.434230260162, -5354.315680779896, -5349.688869677648, -5351.924044123179, -5356.796724414436, -5358.696622693136, -5354.941529624645, -5350.7617534115025, -5352.482837734561, -5355.723840680581, -5358.026070359478, -5353.555721468416, -5348.660689432703, -5350.828808644868, -5356.126172080776, -5357.48962849255, -5354.181570313164, -5348.839503388346, -5350.471180733583, -5356.237930803052, -5357.690794192647, -5352.862817390302, -5346.939605109645, -5349.800628399924, -5355.857951147313, -5355.053288346921, -5351.320547022885, -5347.476046976572, -5348.258358032508, -5353.5780732128715, -5354.718012180092, -5351.9910993565445, -5347.900730121223, -5349.241834788541, -5353.48866623505, -5355.410916258206, -5352.214616801098, -5347.654860932214, -5351.141733067243, -5355.723840680581, -5355.813247658401, -5351.8793406342675, -5348.280709776964, -5349.8229801443795, -5353.5780732128715, -5355.187398813653, -5350.672346433681, -5348.124247565776, -5349.063020832899, -5353.511017979506, -5355.567378469394, -5350.91821562269, -5346.045535331433, -5349.018317343988, -5354.092163335343, -5355.500323236028, -5351.454657489617, -5348.079544076865, -5350.046497588933, -5354.539198224449, -5356.707317436614, -5352.549892967927, -5346.783142898458, -5347.7666196544915, -5354.069811590888, -5357.310814536907, -5352.885169134756, -5347.63250918776, -5349.688869677648, -5355.097991835832, -5356.595558714337, -5352.572244712383, -5349.040669088444, -5350.381773755762, -5354.449791246628, -5358.361346526307, -5354.718012180092, -5350.20295980012, -5350.538235966949, -5355.500323236028, -5357.86960814829, -5353.712183679603, -5348.861855132801, -5350.270015033486, -5354.829770902368, -5356.707317436614, -5352.05815458991, -5347.230177787564, -5348.526578965972, -5354.382736013262, -5356.930834881167, -5352.751058668025, -5347.699564421126, -5349.398296999729, -5354.941529624645, -5358.0931255928435, -5353.913349379701, -5348.7053929216145, -5348.683041177159, -5353.958052868611, -5356.170875569686, -5352.77341041248, -5348.683041177159, -5350.314718522396, -5355.522674980482, -5356.752020925524, -5352.594596456837, -5348.414820243695, -5349.957090611111, -5353.712183679603, -5354.91917788019, -5352.460485990106, -5347.185474298653, -5346.984308598556, -5351.9910993565445, -5354.561549968905, -5350.381773755762, -5344.883244619757, -5347.856026632313, -5354.650956946726, -5356.05911684741, -5351.141733067243, -5346.224349287075, -5348.191302799142, -5352.840465645846, -5355.187398813653, -5350.426477244673, -5346.000831842522, -5347.274881276475, -5352.415782501195, -5354.114515079798, -5351.029974344966, -5347.744267910036]]
[[1545.4890186177515, 1549.1770564528772, 1547.0983442185336, 1544.5502453506288, 1541.7786290381705, 1542.024498227179, 1547.3218616630868, 1552.015727998701, 1547.3665651519973, 1544.4161348838968, 1547.8359517855588, 1551.568693109595, 1549.5570361086175, 1549.1770564528772, 1543.410306383408, 1538.604681325517, 1541.1304284489668, 1546.4277918848745, 1546.025460484679, 1544.1479139504331, 1544.7737627951817, 1548.1935796968437, 1545.6901843178493, 1542.5832918385615, 1543.8349895280587, 1544.4608383728075, 1548.148876207933, 1550.1605332089107, 1545.9360535068577, 1543.119733705489, 1542.7844575386594, 1544.9078732619137, 1548.7076698193157, 1548.3053384191203, 1544.2596726727097, 1544.2373209282543, 1548.5512076081286, 1547.9700622522905, 1545.9137017624023, 1540.2363586707543, 1544.3267279060756, 1550.6746233313827, 1551.21106519831, 1546.1595709514108, 1541.957442993813, 1543.9467482503353, 1546.763068051704, 1548.506504119218, 1543.92439650588, 1540.1022482040225, 1543.2538441722209, 1550.3393471645531, 1550.2722919311873, 1542.3597743940086, 1540.9739662377795, 1547.1877511963548, 1553.2674256881985, 1552.9097977769136, 1549.7134983198046, 1543.9467482503353, 1546.3830883959638, 1551.0098994982125, 1552.3957076544414, 1548.1265244634778, 1544.1926174393436, 1546.9418820073465, 1552.5521698656287, 1553.8485710440364, 1549.2888151751538, 1545.2655011731986, 1544.371431394986, 1549.668794830894, 1552.7309838212711, 1549.892312275447, 1546.1148674625001, 1544.6843558173605, 1551.345175665042, 1554.8767512889806, 1548.8864837749582, 1542.0021464827237, 1544.5949488395393, 1550.83108554257, 1550.9651960093017, 1546.5842540960616, 1542.6726988163828, 1544.7067075618158, 1552.1274867209777, 1552.8427425435475, 1550.8757890314805, 1548.7076698193157, 1547.6124343410056, 1552.64157684345, 1553.8485710440364, 1547.7465448077376, 1542.8738645164806, 1546.2042744403213, 1550.0040709977236, 1550.9204925203912, 1548.2606349302096, 1543.8126377836036, 1545.9360535068577, 1548.8864837749582, 1551.4569343873186, 1547.5900825965505, 1542.5832918385615, 1544.63965232845, 1551.4122308984079, 1552.3286524210755, 1546.9195302628912, 1542.8068092831147, 1542.9185680053913, 1548.1041727190225, 1551.4569343873186, 1550.406402397919, 1547.1877511963548, 1545.8466465290364, 1549.8252570420811, 1551.4569343873186, 1548.0371174856566, 1541.8680360159917, 1544.5278936061734, 1550.9428442648464, 1553.7368123217598, 1548.439448885852, 1544.7514110507263, 1546.0031087402235, 1551.3004721761313, 1551.3004721761313, 1546.5842540960616, 1546.1595709514108, 1545.8689982734918, 1548.5512076081286, 1550.8981407759359, 1549.1770564528772, 1544.1255622059778, 1544.349079650531, 1546.763068051704, 1548.4841523747627, 1547.2101029408102, 1541.443352871341, 1544.2596726727097, 1548.864132030503, 1549.1100012195113, 1547.3889168964527, 1545.0866872175561, 1546.3830883959638, 1550.4511058868297, 1550.9428442648464, 1548.081820974567, 1547.411268640908, 1547.3218616630868, 1550.8534372870251, 1549.8252570420811, 1547.0983442185336, 1544.9749284952795, 1547.1430477074443, 1552.1721902098884, 1553.468591388296, 1547.8359517855588, 1544.997280239735, 1546.248977929232, 1550.696975075838, 1551.568693109595, 1548.573559352584, 1542.6279953274723, 1544.4384866283522, 1550.5628646091063, 1552.1274867209777, 1546.986585496257, 1543.8126377836036, 1544.4831901172627, 1548.797076797137, 1552.7533355657263, 1550.9428442648464, 1547.5006756187292, 1547.5006756187292, 1549.3335186640643, 1551.568693109595, 1548.9535390083242, 1547.4783238742739, 1548.730021563771, 1552.507466376718, 1554.3626611665084, 1549.601739597528, 1545.667832573394, 1544.0361552281565, 1547.7241930632822, 1550.3840506534639, 1547.3218616630868, 1542.6503470719276, 1545.01963198419, 1548.8864837749582, 1548.6629663304052, 1545.8689982734918, 1545.2431494287432, 1546.0478122291343, 1548.5512076081286, 1549.9593675088129, 1546.986585496257, 1544.9525767508242, 1546.3607366515084, 1548.9758907527794, 1551.6581000874162, 1546.5619023516062, 1541.890387760447, 1543.857341272514, 1547.4783238742739, 1549.378222152975, 1547.92535876338, 1545.0866872175561, 1544.6173005839946, 1547.791248296648, 1551.5910448540503, 1548.9982424972347, 1545.2655011731986, 1545.6007773400281, 1546.3383849070533, 1547.1430477074443, 1548.5512076081286, 1543.6785273168716, 1544.1926174393436, 1547.3218616630868, 1546.763068051704, 1545.9137017624023, 1541.6221668269834, 1540.0351929706567, 1543.4997133612292, 1548.3053384191203, 1548.4170971413967, 1540.3034139041204, 1539.2528819147208, 1545.0419837286454, 1544.4161348838968, 1547.4783238742739, 1549.087649475056, 1549.1994081973326, 1545.7795912956706, 1544.058506972612, 1546.7183645627933, 1548.8417802860477, 1547.768896552193, 1545.9807569957684, 1546.9418820073465, 1547.0983442185336, 1549.0429459861455, 1549.4005738974304, 1546.248977929232, 1542.3597743940086, 1550.473457631285, 1551.9486727653352, 1550.1158297200002, 1546.7183645627933, 1547.4783238742739, 1549.9817192532682, 1550.5628646091063, 1547.768896552193, 1543.5891203390504, 1541.2645389156985, 1544.8184662840924, 1550.5628646091063, 1548.0371174856566, 1545.377259895475, 1545.310204662109, 1547.9924139967459, 1551.345175665042, 1549.8699605309916, 1544.1255622059778, 1541.5551115936175, 1545.8689982734918, 1549.4005738974304, 1550.5181611201956, 1552.2839489321648, 1545.9807569957684, 1542.8068092831147, 1538.9176057478912, 1531.027439955168, 1520.6115270389948, 1510.7767594786596, 1506.1946518653217, 1500.673770984861, 1491.8224801805593, 1481.8983056424029, 1472.8905526269143, 1468.5543142025847, 1462.6758054108388, 1456.1490960298893, 1445.800238347082, 1435.6301946199173, 1435.8313603200152, 1431.5621771290514, 1421.705057824261, 1413.0325809756018, 1408.5175285956298, 1408.9198599958254, 1410.7974065300712, 1407.735217539694, 1401.8567087479485, 1403.9130692378367, 1407.4669966062304, 1409.6127640739398, 1410.3727233854204, 1404.8965459938702, 1401.096749436468, 1405.8800227499037, 1411.669124563828, 1410.8868135078924, 1405.8576710054483, 1400.9849907141913, 1402.8848889928925, 1407.9810867287024, 1410.1492059408672, 1405.7235605387166, 1402.6390198038841, 1404.673028549317, 1407.6905140507836, 1407.221127417222, 1404.9859529716914, 1402.5943163149734, 1402.1025779369568, 1402.549612826063, 1397.162842412334, 1388.4009585858535, 1385.584638784485, 1390.8149469870266, 1394.4359295887864, 1393.8100807440378, 1389.7197115087167, 1387.6857027632836, 1389.8761737199038, 1394.033598188591, 1395.352351111454, 1390.4126155868312, 1388.579772541496, 1390.6808365202949, 1391.6643132763284, 1391.1502231538564, 1386.5010603071523, 1387.998627185658, 1392.0889964209791, 1396.4028831008534, 1395.1064819224457, 1390.7478917536607, 1388.3339033524876, 1392.5583830545406, 1394.9500197112584, 1391.5302028095964, 1386.8810399628926, 1389.3397318529765, 1394.8829644778925, 1398.0569121905462, 1394.771205755616, 1388.579772541496, 1386.1657841403228, 1391.0831679204903, 1395.0394266890796, 1392.6477900323619, 1387.551592296552, 1388.6691795193171, 1391.7537202541496, 1394.9500197112584, 1392.7148452657277, 1387.41748182982, 1385.8305079734932, 1387.1716126408116, 1388.4903655636747, 1390.3679120979205, 1390.0102841866355, 1393.675970277306, 1398.7051127797502, 1398.7274645242053, 1393.2736388771104, 1389.9208772088143, 1392.4242725878087, 1396.3358278674875, 1397.7439877681718, 1395.061778433535, 1392.4019208433535, 1390.2338016311887, 1393.094824921468, 1395.709979022739, 1394.9276679668033, 1392.0442929320686, 1391.0831679204903, 1394.70415052225, 1396.8499179899595, 1397.475766834708, 1392.4242725878087, 1390.1443946533675, 1393.6536185328507, 1397.5204703236188, 1394.547688311063, 1390.0996911644568, 1391.3066853650434, 1392.2678103766216, 1396.4028831008534, 1397.1851941567893, 1391.41844408732, 1388.1997928857556, 1391.5972580429625, 1395.642923789373, 1392.6924935212724, 1389.1832696417891, 1387.8421649744707, 1389.4067870863423, 1393.9441912107698, 1395.2629441336328, 1390.7925952425715, 1388.579772541496, 1392.2454586321662, 1395.061778433535, 1394.5029848221523, 1390.9043539648478, 1388.4456620747642, 1392.580734798996, 1398.8615749909372, 1396.7158075232278, 1391.9101824653367, 1389.8761737199038, 1394.1006534219568, 1396.8946214788702, 1395.8887929783814, 1394.1677086553227, 1391.5525545540518, 1391.776071998605, 1393.9441912107698, 1394.9723714557138, 1390.256153375644, 1390.2338016311887, 1393.7877289995824, 1393.251287132655, 1392.580734798996, 1389.4067870863423, 1387.864516718926, 1392.6030865434511, 1396.3134761230322, 1397.7663395126272, 1391.3290371094988, 1391.485499320686, 1392.9830661991914, 1394.3688743554205, 1394.2794673775993, 1392.938362710281, 1391.1949266427669, 1393.251287132655, 1395.6876272782836, 1396.738159267683, 1392.51367956563, 1389.9879324421804, 1395.5311650670965, 1398.2357261461887, 1397.1851941567893, 1393.3630458549317, 1391.0384644315798, 1393.60891504394, 1396.6264005454066, 1398.123967423912, 1392.3795690988982, 1390.3902638423758, 1393.8324324884932, 1398.615705801929, 1398.5710023130182, 1392.6701417768172, 1390.4573190757417, 1392.5583830545406, 1395.2629441336328, 1391.2619818761327, 1380.1084613929345, 1384.3105893505324, 1403.6001448154623, 1414.8430722764817, 1421.414485146342, 1425.348392170476, 1433.28326145211, 1446.5825494030178, 1458.0042908196797, 1469.9401223588136, 1475.930389872836, 1487.5309452451404, 1500.1596808623888, 1509.9050414449027, 1513.123692646467, 1514.9118322028914, 1520.991506694735, 1528.0993614315225, 1536.5930243245393, 1536.9059487469137, 1536.0342307131566, 1533.083800445056, 1537.3306318915645, 1542.1362569494554, 1542.0021464827237, 1536.9506522358242, 1533.2626144006986, 1536.9506522358242, 1539.4987511037293, 1536.0342307131566, 1534.089628945545, 1537.7106115473048, 1539.0517162146232, 1541.8233325270812, 1540.0575447151118, 1536.4812656022627, 1536.1459894354332, 1536.63772781345, 1540.9516144933243, 1542.248015671732, 1537.5317975916623, 1534.5813673235616, 1538.7834952811595, 1543.119733705489, 1541.1080767045114, 1537.800018525126, 1535.989527224246, 1540.6610418154053, 1545.8913500179472, 1545.6901843178493, 1534.2013876678216, 1528.7699137651819, 1536.2577481577098, 1547.4336203853632, 1548.9758907527794, 1540.2363586707543, 1539.8787307594694, 1545.01963198419, 1551.6804518318716, 1546.3607366515084, 1540.9069110044136, 1541.2868906601539, 1544.505541861718, 1548.1041727190225, 1549.5793878530728, 1545.667832573394, 1542.5832918385615, 1545.0419837286454, 1548.0371174856566, 1547.277158174176, 1542.6279953274723, 1541.3539458935197, 1545.310204662109, 1549.5123326197067, 1548.573559352584, 1545.0866872175561, 1541.5551115936175, 1543.7679342946929, 1547.4559721298185, 1546.3383849070533, 1542.5162366051957, 1544.5278936061734, 1546.5171988626957, 1550.1381814644553, 1549.8252570420811, 1547.0312889851677, 1543.3656028944974, 1545.4666668732962, 1548.148876207933, 1545.9360535068577, 1544.0138034837012, 1539.4987511037293, 1542.2927191606427, 1547.411268640908, 1545.1313907064666, 1543.0303267276677, 1540.6833935598606, 1541.4880563602517, 1546.5842540960616, 1545.6901843178493, 1538.9176057478912, 1537.2859284026538, 1543.6785273168716, 1546.3830883959638, 1546.9195302628912, 1542.404477882919, 1538.2694051586873, 1542.3374226495532, 1546.5395506071509, 1544.3267279060756, 1537.73296329176, 1540.9739662377795, 1546.0478122291343, 1548.730021563771, 1547.7465448077376, 1543.92439650588, 1540.281062159665, 1544.0808587170673, 1550.182884953366, 1548.2606349302096, 1542.382126138464, 1538.1129429475002, 1544.6843558173605, 1548.506504119218, 1546.8971785184358, 1542.6726988163828, 1541.7786290381705, 1544.2820244171648, 1549.0429459861455, 1548.6182628414945, 1542.2256639272766, 1541.1974836823326, 1545.8689982734918, 1549.2888151751538, 1550.9651960093017, 1544.796114539637, 1540.5492830931287, 1542.382126138464, 1548.5512076081286, 1549.4452773863409, 1544.349079650531, 1543.6338238279611, 1547.9030070189247, 1549.378222152975, 1545.9807569957684, 1543.4997133612292, 1542.5609400941064, 1545.377259895475, 1550.4287541423744, 1548.6629663304052, 1540.124599948478, 1540.3481173930309, 1543.6785273168716, 1547.92535876338, 1546.8524750295253, 1541.3539458935197, 1541.8009807826259, 1544.4831901172627, 1546.4501436293297, 1547.0312889851677, 1544.7067075618158, 1541.152780193422, 1543.2091406833101, 1548.6182628414945, 1548.3053384191203, 1544.572597095084, 1542.6726988163828, 1542.9409197498464, 1546.025460484679, 1547.2995099186314, 1544.1702656948885, 1540.8398557710477, 1542.091553460545, 1546.6513093294275, 1547.3665651519973, 1544.2596726727097, 1541.1080767045114, 1542.6950505608381, 1547.0759924740782, 1547.3665651519973, 1542.6279953274723, 1541.1751319378773, 1543.2091406833101, 1548.6182628414945, 1548.1041727190225, 1543.566768594595, 1541.6445185714388, 1544.63965232845, 1547.92535876338, 1544.505541861718, 1538.4482191143297, 1538.82819877007, 1542.404477882919, 1544.1479139504331, 1544.4161348838968, 1539.6775650593718, 1540.6610418154053, 1545.01963198419, 1546.83012328507, 1544.4161348838968, 1541.7562772937154, 1540.4598761153075, 1542.0021464827237, 1547.8136000411034, 1548.3053384191203, 1544.2820244171648, 1544.1926174393436, 1549.1100012195113, 1550.3616989090085, 1546.248977929232, 1540.7504487932265, 1537.5317975916623, 1539.990489481746, 1543.6338238279611, 1544.2820244171648, 1541.2421871712431, 1540.0575447151118, 1542.5832918385615, 1545.310204662109, 1546.6513093294275, 1543.4550098723187, 1539.3199371480869, 1539.185826681355, 1543.700879061327, 1547.5453791076397, 1542.5162366051957, 1538.671736558883, 1542.3597743940086, 1547.7018413188268, 1546.2042744403213, 1541.890387760447, 1538.984660981257, 1538.7834952811595, 1544.1032104615224, 1548.7747250526818, 1545.801943040126, 1541.5551115936175, 1544.7290593062712, 1550.696975075838, 1547.1430477074443, 1542.6950505608381, 1542.2033121828215, 1545.1760941953773, 1550.0711262310895, 1549.2664634306984, 1543.7902860391482, 1541.890387760447, 1542.3150709050979, 1545.8689982734918, 1546.9418820073465, 1546.1372192069555, 1544.2373209282543, 1545.377259895475, 1547.6571378299163, 1547.0312889851677, 1542.1809604383661, 1540.4598761153075, 1541.7115738048046, 1546.4277918848745, 1548.215931441299, 1546.248977929232, 1543.9020447614248, 1545.824294784581, 1549.8252570420811, 1548.3500419080308, 1542.8068092831147, 1540.0575447151118, 1546.986585496257, 1549.4229256418855, 1548.3723936524862, 1543.8126377836036, 1541.7562772937154, 1544.4161348838968, 1546.9418820073465, 1547.4783238742739, 1545.01963198419, 1541.5327598491622, 1542.7174023052935, 1548.864132030503, 1548.7747250526818, 1544.6843558173605, 1543.0079749832125, 1542.7844575386594, 1547.411268640908], [-5360.194189571642, -5363.636358217759, -5369.11253560931, -5368.576093742382, -5361.311776794408, -5357.959015126111, -5360.954148883123, -5366.6091402303155, -5365.737422196558, -5359.68009944917, -5357.355518025818, -5361.445887261139, -5367.570265241893, -5363.569302984393, -5357.601387214826, -5357.243759303541, -5360.3283000383735, -5363.614006473304, -5361.356480283318, -5356.461448247605, -5353.958052868611, -5357.936663381656, -5362.295253550441, -5360.909445394212, -5356.550855225427, -5354.181570313164, -5358.853084904324, -5363.949282640134, -5361.200018072131, -5356.081468591866, -5354.427439502173, -5356.506151736517, -5362.407012272717, -5361.512942494505, -5356.528503480971, -5354.405087757717, -5359.143657582243, -5363.502247751027, -5361.87057040579, -5355.67913719167, -5353.935701124156, -5359.054250604421, -5364.351614040329, -5362.742288439547, -5358.2719395484855, -5355.34386102484, -5361.445887261139, -5365.715070452103, -5361.691756450147, -5356.617910458793, -5355.723840680581, -5359.188361071153, -5363.166971584198, -5364.39631752924, -5360.216541316097, -5354.9638813691, -5355.746192425036, -5361.445887261139, -5362.563474483904, -5357.087297092355, -5355.433268002662, -5360.305948293919, -5363.658709962215, -5362.764640184002, -5357.9813668705665, -5356.0144133585, -5360.596520971838, -5364.865704162801, -5364.128096595776, -5358.316643037396, -5354.293329035441, -5357.646090703737, -5362.049384361432, -5363.077564606377, -5358.338994781851, -5356.506151736517, -5360.350651782829, -5364.888055907257, -5363.010509373011, -5357.86960814829, -5357.176704070175, -5361.222369816586, -5365.603311729827, -5366.229160574575, -5360.9765006275775, -5355.634433702759, -5358.763677926502, -5363.502247751027, -5363.234026817564, -5356.908483136712, -5353.153390068221, -5357.020241858989, -5362.049384361432, -5361.624701216781, -5356.05911684741, -5354.449791246628, -5359.098954093332, -5365.402146029728, -5363.703413451125, -5358.026070359478, -5355.947358125134, -5360.082430849366, -5364.44102101815, -5363.166971584198, -5357.53433198146, -5356.3943930142395, -5358.9201401376895, -5364.508076251516, -5363.457544262117, -5359.009547115511, -5355.388564513751, -5358.540160481949, -5364.463372762606, -5363.591654728849, -5358.160180826209, -5356.550855225427, -5359.881265149268, -5363.636358217759, -5363.546951239938, -5359.501285493528, -5356.573206969882, -5360.574169227382, -5364.932759396167, -5364.06104136241, -5358.9201401376895, -5356.573206969882, -5359.523637237983, -5363.882227406768, -5362.474067506083, -5356.953186625622, -5353.7568871685135, -5357.400221514728, -5361.200018072131, -5360.663576205204, -5358.58486397086, -5355.612081958304, -5356.126172080776, -5359.657747704715, -5358.9201401376895, -5355.902654636223, -5354.114515079798, -5358.294291292941, -5363.569302984393, -5363.278730306474, -5357.780201170469, -5355.410916258206, -5358.338994781851, -5363.770468684491, -5363.748116940036, -5357.288462792452, -5354.270977290986, -5356.752020925524, -5361.356480283318, -5360.752983183024, -5356.304986036419, -5353.48866623505, -5356.796724414436, -5362.742288439547, -5362.518770994994, -5358.003718615022, -5354.315680779896, -5357.467276748094, -5362.094087850343, -5364.306910551419, -5358.450753504128, -5355.969709869589, -5359.590692471349, -5363.882227406768, -5362.496419250539, -5358.182532570664, -5354.24862554653, -5357.310814536907, -5361.132962838765, -5360.998852372033, -5357.735497681559, -5355.097991835832, -5356.752020925524, -5364.150448340231, -5363.457544262117, -5357.064945347899, -5353.980404613067, -5359.881265149268, -5363.658709962215, -5361.222369816586, -5355.522674980482, -5354.270977290986, -5359.143657582243, -5364.373965784785, -5363.770468684491, -5359.233064560064, -5357.556683725916, -5360.417707016195, -5365.133925096265, -5366.497381508038, -5361.311776794408, -5356.662613947704, -5359.255416304519, -5364.06104136241, -5363.546951239938, -5358.137829081754, -5355.410916258206, -5358.540160481949, -5363.882227406768, -5363.658709962215, -5357.579035470371, -5355.1650470691975, -5358.294291292941, -5364.306910551419, -5364.217503573597, -5359.031898859966, -5356.72966918107, -5359.702451193625, -5363.457544262117, -5364.351614040329, -5361.2670733054965, -5356.77437266998, -5358.651919204226, -5363.166971584198, -5363.435192517662, -5359.568340726893, -5357.668442448192, -5360.305948293919, -5363.949282640134, -5364.508076251516, -5360.529465738472, -5357.53433198146, -5360.0377273604545, -5364.77629718498, -5365.089221607354, -5359.8589134048125, -5357.132000581265, -5358.026070359478, -5354.092163335343, -5354.785067413458, -5358.62956745977, -5359.747154682535, -5355.120343580287, -5353.5780732128715, -5354.6956604356365, -5359.791858171447, -5362.094087850343, -5357.53433198146, -5351.499360978528, -5352.952224368122, -5358.808381415413, -5360.3283000383735, -5354.539198224449, -5349.86768363329, -5352.77341041248, -5357.400221514728, -5359.255416304519, -5356.461448247605, -5350.649994689226, -5351.544064467438, -5358.7413261820475, -5359.411878515706, -5355.187398813653, -5351.655823189714, -5352.281672034464, -5357.132000581265, -5359.657747704715, -5356.036765102955, -5350.672346433681, -5351.164084811698, -5356.796724414436, -5359.635395960259, -5357.310814536907, -5352.549892967927, -5352.39343075674, -5356.3943930142395, -5359.30011979343, -5352.996927857033, -5346.91725336519, -5348.526578965972, -5351.611119700804, -5352.728706923569, -5345.576148697871, -5338.803570127913, -5339.228253272564, -5339.764695139492, -5341.10579980681, -5337.395410227229, -5331.807474113402, -5331.852177602313, -5336.523692193472, -5337.194244527131, -5332.902709591712, -5327.918270578179, -5329.192320012131, -5334.668497403682, -5336.568395682382, -5332.433322958151, -5328.141788022732, -5330.868700846279, -5336.255471260009, -5339.742343395036, -5337.060134060399, -5332.545081680427, -5334.422628214673, -5339.272956761474, -5341.9551660961115, -5339.094142805832, -5334.713200892592, -5336.166064282187, -5341.82105562938, -5343.67625041917, -5339.541177694939, -5334.847311359324, -5336.6130991712935, -5342.58101494086, -5343.855064374812, -5340.234081773053, -5336.970727082578, -5338.244776516531, -5342.670421918681, -5344.458561475106, -5340.256433517508, -5336.367229982285, -5336.233119515553, -5339.585881183849, -5341.374020740273, -5337.373058482774, -5332.701543891614, -5335.361401481796, -5339.876453861768, -5342.58101494086, -5339.25060501702, -5334.601442170316, -5335.093180548332, -5341.530482951461, -5345.754962653514, -5343.028049829966, -5338.133017794254, -5336.76956138248, -5343.318622507885, -5346.693735920637, -5344.1232853082765, -5339.071791061377, -5338.244776516531, -5343.877416119268, -5348.414820243695, -5344.235044030553, -5337.842445116335, -5338.110666049799, -5344.905596364212, -5347.498398721028, -5342.871587618779, -5338.468293961084, -5340.122323050777, -5345.017355086488, -5347.408991743207, -5345.397334742229, -5340.502302706516, -5340.882282362257, -5345.732610909058, -5348.7053929216145, -5345.754962653514, -5339.809398628402, -5339.161198039198, -5346.514921964994, -5348.951262110622, -5346.514921964994, -5340.032916072955, -5340.05526781741, -5346.067887075888, -5348.928910366168, -5344.1232853082765, -5338.691811405637, -5341.642241673737, -5347.431343487661, -5349.353593510818, -5345.620852186782, -5339.407067228207, -5341.441075973639, -5346.783142898458, -5349.800628399924, -5346.403163242718, -5342.91629110769, -5343.72095390808, -5348.079544076865, -5350.717049922592, -5347.453695232117, -5341.3069655069075, -5341.642241673737, -5347.587805698849, -5350.806456900413, -5346.470218476084, -5341.776352140469, -5343.229215530064, -5349.353593510818, -5350.828808644868, -5346.403163242718, -5343.1845120411535, -5343.0727533188765, -5347.520750465483, -5351.029974344966, -5346.91725336519, -5341.15050329572, -5343.273919018975, -5349.8229801443795, -5351.566416211894, -5347.63250918776, -5342.715125407592, -5343.206863785608, -5349.018317343988, -5351.186436556153, -5347.029012087466, -5341.664593418192, -5342.379849240762, -5348.39246849924, -5351.2311400450635, -5347.073715576376, -5341.776352140469, -5341.798703884924, -5346.604328942815, -5349.6441661887375, -5347.029012087466, -5341.86575911829, -5342.156331796209, -5347.230177787564, -5349.599462699826, -5345.777314397969, -5339.921157350678, -5342.20103528512, -5348.079544076865, -5349.577110955371, -5346.112590564799, -5342.089276562843, -5342.938642852145, -5347.029012087466, -5349.085372577354, -5346.313756264896, -5341.329317251363, -5340.591709684338, -5345.263224275497, -5349.420648744184, -5345.620852186782, -5340.748171895525, -5342.826884129869, -5348.861855132801, -5350.20295980012, -5346.514921964994, -5340.926985851167, -5339.988212584044, -5345.397334742229, -5347.2972330209295, -5344.816189386391, -5340.39054398424, -5338.62475617227, -5344.413857986196, -5348.414820243695, -5344.413857986196, -5339.29530850593, -5338.468293961084, -5342.804532385413, -5347.967785354589, -5346.403163242718, -5340.412895728695, -5340.144674795231, -5344.145637052731, -5346.58197719836, -5344.458561475106, -5339.183549783654, -5339.809398628402, -5345.352631253318, -5349.711221422103, -5347.610157443304, -5342.446904474128, -5342.715125407592, -5347.453695232117, -5348.303061521418, -5344.659727175203, -5340.658764917704, -5341.4857794625495, -5347.341936509841, -5348.258358032508, -5347.453695232117, -5343.63154693026, -5343.743305652536, -5350.225311544575, -5354.270977290986, -5350.873512133779, -5346.380811498262, -5347.699564421126, -5355.321509280385, -5359.434230260162, -5356.550855225427, -5351.834637145357, -5352.371079012284, -5358.473105248583, -5361.512942494505, -5359.143657582243, -5355.075640091377, -5355.857951147313, -5360.887093649757, -5365.2009803296305, -5362.339957039351, -5357.467276748094, -5357.400221514728, -5362.250550061531, -5365.9609396411115, -5363.68106170667, -5358.316643037396, -5358.406050015217, -5363.412840773206, -5368.1961140866415, -5364.999814629533, -5358.9201401376895, -5357.53433198146, -5363.435192517662, -5367.033823374966, -5363.30108205093, -5357.757849426013, -5357.020241858989, -5361.937625639156, -5365.513904752005, -5363.7928204289465, -5359.2107128156085, -5358.830733159868, -5361.043555860943, -5362.786991928458, -5359.568340726893, -5354.628605202271, -5350.739401667047, -5357.087297092355, -5363.278730306474, -5361.0882593498545, -5355.567378469394, -5354.91917788019, -5359.233064560064, -5362.004680872522, -5359.747154682535, -5354.360384268807, -5353.555721468416, -5358.696622693136, -5363.166971584198, -5360.417707016195, -5354.293329035441, -5353.309852279407, -5359.724802938081, -5362.608177972816, -5358.763677926502, -5354.15921856871, -5354.472142991083, -5358.361346526307, -5360.931797138667, -5358.62956745977, -5352.974576112578, -5353.555721468416, -5357.959015126111, -5361.758811683513, -5359.098954093332, -5354.896826135734, -5356.304986036419, -5360.618872716293, -5362.831695417368, -5361.15531458322, -5353.958052868611, -5354.226273802075, -5359.098954093332, -5362.049384361432, -5360.395355271739, -5355.589730213849, -5354.449791246628, -5359.143657582243, -5363.725765195581, -5361.110611094309, -5354.628605202271, -5353.466314490594, -5358.987195371055, -5362.228198317075, -5360.82003841639, -5358.62956745977, -5359.143657582243, -5364.575131484882, -5366.6091402303155, -5363.010509373011, -5357.690794192647, -5357.0425936034435, -5362.831695417368, -5366.63149197477, -5364.798648929435, -5360.082430849366, -5358.808381415413, -5362.988157628555, -5365.692718707647, -5362.116439594798, -5357.891959892745, -5357.914311637201, -5360.931797138667, -5364.709241951614, -5363.993986129044, -5358.58486397086, -5357.646090703737, -5363.122268095287, -5366.407974530217, -5364.329262295873, -5359.277768048974, -5360.0377273604545, -5365.357442540818, -5368.263169320008, -5364.463372762606, -5359.434230260162, -5358.070773848388, -5362.2058465726195, -5364.865704162801, -5361.065907605399, -5355.008584858011, -5356.506151736517, -5360.663576205204, -5364.329262295873, -5362.317605294897, -5356.349689525329, -5355.947358125134, -5362.6752332061815, -5366.7879541859575, -5364.105744851321, -5356.908483136712, -5355.2768057914745, -5360.171837827187, -5363.166971584198, -5361.892922150246, -5358.2719395484855, -5356.72966918107, -5361.2670733054965, -5363.614006473304, -5362.652881461726, -5358.383698270763, -5357.243759303541, -5360.641224460748, -5365.379794285273, -5364.39631752924, -5359.098954093332, -5356.0144133585, -5360.194189571642, -5364.888055907257, -5362.116439594798, -5355.723840680581, -5356.953186625622, -5361.557645983416, -5363.524599495483, -5361.356480283318, -5357.288462792452, -5354.852122646824, -5360.10478259382, -5363.837523917857, -5362.049384361432, -5357.064945347899, -5354.539198224449, -5357.467276748094, -5361.423535516684, -5360.998852372033, -5356.416744758695, -5354.494494735539, -5358.070773848388, -5361.602349472327, -5358.361346526307, -5352.102858078821, -5351.320547022885, -5357.199055814631, -5361.892922150246, -5359.367175026796, -5354.0474598464325, -5352.102858078821, -5355.656785447215, -5360.663576205204, -5358.942491882145, -5353.48866623505, -5353.175741812675, -5357.735497681559, -5361.065907605399, -5357.824904659379, -5352.147561567732, -5350.180608055664, -5355.567378469394, -5360.283596549463, -5358.9648436266, -5352.236968545552, -5352.415782501195, -5357.064945347899, -5360.596520971838, -5359.121305837787, -5353.063983090399, -5351.946395867633, -5359.68009944917, -5363.658709962215, -5360.305948293919, -5354.941529624645, -5353.175741812675, -5357.221407559086, -5361.959977383612, -5360.305948293919, -5353.712183679603, -5352.482837734561, -5355.790895913947, -5360.529465738472, -5359.098954093332, -5353.555721468416, -5353.890997635245, -5359.031898859966, -5362.518770994994, -5358.137829081754, -5352.415782501195, -5352.460485990106, -5357.847256403835, -5362.094087850343, -5357.891959892745, -5352.77341041248, -5352.214616801098, -5357.087297092355, -5361.691756450147, -5359.702451193625, -5354.0474598464325, -5353.175741812675, -5357.310814536907, -5360.194189571642, -5359.031898859966, -5355.008584858011, -5354.561549968905, -5358.428401759673, -5362.116439594798, -5359.993023871544, -5353.846294146335, -5351.544064467438, -5357.579035470371, -5362.496419250539, -5360.596520971838, -5355.790895913947, -5354.606253457815, -5359.277768048974, -5363.546951239938, -5361.200018072131, -5354.20392205762, -5352.39343075674, -5356.349689525329, -5361.87057040579, -5359.322471537885, -5354.561549968905, -5349.9347388666565, -5353.287500534952, -5359.478933749072, -5358.294291292941, -5351.477009234072, -5348.7053929216145, -5354.338032524352, -5358.9648436266, -5356.05911684741, -5350.314718522396, -5349.510055722005, -5352.840465645846]]
[[1542.4715331162852, 1541.577463338073, 1538.1129429475002, 1536.4812656022627, 1537.3306318915645, 1540.4822278597628, 1541.2868906601539, 1542.6950505608381, 1542.5832918385615, 1542.6279953274723, 1546.3830883959638, 1544.8184662840924, 1541.2645389156985, 1543.0303267276677, 1547.2995099186314, 1546.5842540960616, 1544.8855215174583, 1540.9739662377795, 1535.989527224246, 1540.2140069262991, 1542.3597743940086, 1539.6775650593718, 1533.3520213785198, 1534.2013876678216, 1540.6833935598606, 1543.92439650588, 1542.5162366051957, 1538.82819877007, 1536.5259690911735, 1542.8738645164806, 1544.863169773003, 1541.8680360159917, 1539.2528819147208, 1537.1071144470113, 1540.7280970487711, 1545.01963198419, 1542.024498227179, 1536.1459894354332, 1536.0789342020673, 1543.4326581278633, 1546.1372192069555, 1542.1362569494554, 1538.4929226032405, 1537.5765010805728, 1540.0128412262013, 1544.3043761616202, 1541.6668703158941, 1536.6824313023606, 1535.92247199088, 1539.6775650593718, 1541.443352871341, 1540.1693034373884, 1536.7494865357264, 1535.0954574460338, 1538.671736558883, 1543.9467482503353, 1539.92343424838, 1536.4589138578074, 1536.213044668799, 1539.4316958703632, 1541.8456842715366, 1540.8398557710477, 1537.442390613841, 1534.8272365125702, 1538.6493848144275, 1542.7844575386594, 1539.6105098260057, 1537.8670737584919, 1538.2917569031426, 1543.186788938855, 1546.248977929232, 1542.2927191606427, 1536.6600795579052, 1535.184864423855, 1537.6882598028494, 1544.8855215174583, 1543.9690999947907, 1539.3869923814527, 1536.3695068799861, 1539.3199371480869, 1542.4715331162852, 1541.890387760447, 1537.8894255029472, 1537.5541493361175, 1539.5658063370952, 1540.7728005376819, 1539.342288892542, 1536.1906929243437, 1536.5259690911735, 1539.3869923814527, 1542.1362569494554, 1538.4929226032405, 1532.6144138114946, 1533.0167452116902, 1537.151817935922, 1540.7728005376819, 1541.957442993813, 1534.6931260458382, 1533.799056267626, 1536.7718382801818, 1538.4929226032405, 1535.3189748905868, 1534.2237394122767, 1533.8661115009918, 1537.3082801471091, 1538.6270330699722, 1538.0011842252236, 1535.9671754797907, 1534.2684429011874, 1534.9613469793019, 1541.1080767045114, 1538.537626092151, 1533.1955591673327, 1535.9671754797907, 1539.2305301702656, 1540.1916551818438, 1540.1022482040225, 1537.1071144470113, 1535.4977888462292, 1536.5483208356288, 1540.5492830931287, 1541.1974836823326, 1535.2966231461314, 1533.217910911788, 1537.8223702695811, 1541.0410214711455, 1542.1362569494554, 1539.3646406369974, 1535.408381868408, 1538.0905912030448, 1540.9069110044136, 1540.7728005376819, 1535.251919657221, 1532.3908963669417, 1537.7106115473048, 1541.7786290381705, 1538.8952540034359, 1535.2742714016763, 1533.284966145154, 1535.4977888462292, 1539.2081784258103, 1537.8894255029472, 1535.0954574460338, 1533.7767045231706, 1535.5201405906846, 1540.2363586707543, 1539.2081784258103, 1534.0002219677237, 1532.6814690448607, 1536.7271347912713, 1540.2587104152096, 1539.8563790150142, 1535.0060504682126, 1533.4190766118857, 1537.7553150362153, 1541.3986493824304, 1537.7106115473048, 1535.251919657221, 1534.3354981345533, 1536.861245258003, 1539.1634749368995, 1538.9176057478912, 1537.3306318915645, 1536.4365621133522, 1540.0575447151118, 1542.8068092831147, 1539.990489481746, 1534.4472568568299, 1533.9778702232684, 1538.3364603920534, 1540.4598761153075, 1542.4491813718298, 1536.995355724735, 1535.5201405906846, 1537.4870941027516, 1542.1809604383661, 1540.8398557710477, 1536.4142103688969, 1535.6318993129612, 1540.1693034373884, 1541.73392554926, 1538.0458877141343, 1537.3306318915645, 1537.5317975916623, 1543.4326581278633, 1543.8349895280587, 1540.7728005376819, 1537.5541493361175, 1539.3199371480869, 1544.6173005839946, 1543.343251150042, 1538.8058470256146, 1536.7718382801818, 1539.118771447989, 1541.1751319378773, 1542.0021464827237, 1535.1401609349443, 1533.73200103426, 1537.5541493361175, 1541.7786290381705, 1541.1304284489668, 1536.5483208356288, 1535.6318993129612, 1538.671736558883, 1542.091553460545, 1538.0905912030448, 1538.4258673698746, 1539.5658063370952, 1541.1304284489668, 1543.2985476611314, 1540.9069110044136, 1535.2966231461314, 1534.6260708124723, 1537.0847627025562, 1536.4365621133522, 1531.7426957777377, 1525.931242219358, 1532.1897306668438, 1538.8729022589807, 1539.9010825039247, 1541.3539458935197, 1538.8505505145254, 1531.697992288827, 1528.3675823649862, 1537.0400592136455, 1542.9409197498464, 1541.890387760447, 1534.3578498790087, 1533.0390969561456, 1544.7290593062712, 1545.0866872175561, 1537.2412249137433, 1533.5531870786176, 1536.1012859465225, 1541.3986493824304, 1541.5104081047068, 1538.179998180866, 1533.2402626562432, 1535.2742714016763, 1542.024498227179, 1541.9127395049024, 1535.0731057015785, 1537.218873169288, 1539.7893237816481, 1544.8408180285476, 1544.0361552281565, 1537.7106115473048, 1535.2072161683102, 1537.3529836360199, 1540.3034139041204, 1547.7018413188268, 1593.7464348967594, 1558.7212513352933, 1537.442390613841, 1540.3928208819416, 1552.7309838212711, 1603.3576850125414, 1558.7212513352933, 1534.0449254566342, 1538.5152743476958, 1559.6600246024161, 1613.4159700174298, 1564.1527252379328, 1537.151817935922, 1537.7106115473048, 1561.7163850923046, 1618.9144991534351, 1571.506449163729, 1533.441428356341, 1539.5658063370952, 1570.1653444964106, 1621.7084672103485, 1572.1993532418435, 1535.2966231461314, 1541.2868906601539, 1573.2275334867877, 1624.5471387561727, 1579.016635300712, 1535.4530853573187, 1539.2975854036315, 1572.6240363864943, 1623.116627111033, 1585.543344681662, 1538.8058470256146, 1540.862207515503, 1575.9767980547904, 1624.0554003781558, 1592.2041645293432, 1543.7232308057824, 1542.1139052050003, 1580.8047748571366, 1627.922252168924, 1594.0593593191338, 1539.4987511037293, 1542.9185680053913, 1587.152670282444, 1630.8726824370244, 1598.7755773992035, 1543.8796930169694, 1543.343251150042, 1589.6784174058937, 1633.4207813049295, 1605.212879802332, 1545.511370362207, 1546.2936814181426, 1593.0088273297345, 1632.3031940821643, 1608.69975193736, 1548.1041727190225, 1544.5949488395393, 1594.372283741508, 1633.5101882827507, 1611.7395891832816, 1549.9593675088129, 1544.0361552281565, 1596.249830275754, 1636.8405982065915, 1615.114702596033, 1551.6804518318716, 1545.4219633843857, 1598.7755773992035, 1636.0359354062005, 1616.5452142411727, 1554.6979373333381, 1549.1547047084218, 1598.6191151880164, 1636.6841359954044, 1617.5733944861167, 1554.183847210866, 1546.9195302628912, 1604.0058856017454, 1637.9358336849016, 1619.115664853533, 1555.9943385117458, 1550.249940186732, 1608.051551348156, 1637.019412162234, 1621.6414119769827, 1562.9010275484356, 1552.9768530102795, 1611.5384234831838, 1637.4887987957954, 1621.1943770878765, 1561.828143814581, 1555.4578966448184, 1613.7735979287147, 1636.661784250949, 1622.9378131553906, 1563.3927659264525, 1555.5249518781843, 1616.3887520299857, 1638.695792996382, 1626.2682230792313, 1567.639597372961, 1554.9661582668018, 1614.6453159624716, 1638.2264063628206, 1627.7434382132815, 1569.1595159959218, 1557.380146667975, 1618.9592026423459, 1638.9640139298456, 1627.5869760020944, 1568.7124811068156, 1557.894236790447, 1619.8756241650135, 1637.7123162403484, 1626.7376097127926, 1569.606550885028, 1554.988510011257, 1618.4451125198739, 1640.6850982529043, 1630.8950341814798, 1573.473402675796, 1558.1624577239106, 1623.3848480444967, 1644.37313608803, 1625.2623945787425, 1562.9457310373464, 1552.216893698799, 1616.9475456413682, 1629.017487647234, 1618.0204293752229, 1563.437469415363, 1550.249940186732, 1615.8076066741476, 1637.5558540291613, 1631.9008626819686, 1574.8145073431144, 1553.6921088328493, 1619.3391822980861, 1636.952356928868, 1631.7667522152367, 1579.8212981011031, 1560.017652513701, 1619.8979759094686, 1639.6792697524154, 1634.18074061641, 1579.4413184453629, 1560.1070594915223, 1623.7201242113263, 1640.148656385977, 1632.3926010599855, 1578.6143039005167, 1558.5200856351955, 1624.8824149230022, 1639.3886970744966, 1632.7725807157256, 1582.0564725466338, 1561.1799432253772, 1627.1399411129883, 1644.440191321396, 1635.9465284283792, 1584.090481292067, 1558.698899590838, 1623.921289911424, 1637.46644705134, 1631.1856068593988, 1582.928190580391, 1557.9389402793577, 1622.8484061775694, 1637.8017232181696, 1631.2303103483093, 1582.0117690577233, 1561.0011292697347, 1627.408162046452, 1640.2380633637981, 1634.0019266607676, 1585.9456760818573, 1557.2236844567879, 1627.9669556578347, 1646.787124489203, 1641.6238715200273, 1594.2381732747763, 1565.471478160796, 1628.9504324138682, 1642.205016875865, 1638.5840342741055, 1592.8523651185471, 1566.1643822389105, 1630.5821097591056, 1642.18266513141, 1640.8192087196362, 1594.8416703750695, 1567.1031555060335, 1632.7725807157256, 1644.0602116656557, 1639.0757726521222, 1594.1040628080443, 1562.3422339370532, 1629.0621911361447, 1641.825037220125, 1637.3770400735189, 1598.1050250655444, 1568.958350295824, 1630.9620894148457, 1642.3838308315076, 1639.5228075412283, 1600.0049233442455, 1574.635693387472, 1637.46644705134, 1643.5461215431835, 1639.4781040523178, 1604.922307124413, 1574.7698038542037, 1635.27597609472, 1643.0767349096222, 1639.2992900966753, 1606.9563158698459, 1575.306245721131, 1632.8172842046363, 1645.0436884216892, 1642.696755253882, 1604.6540861909493, 1573.696920120349, 1634.7171824833374, 1642.1379616424992, 1642.205016875865, 1607.470405992318, 1575.9767980547904, 1636.438266806396, 1644.820170977136, 1641.8473889645802, 1611.2254990608096, 1576.9379230663685, 1632.079676637611, 1641.534464542206, 1637.533502284706, 1610.4208362604186, 1578.569600411606, 1637.3770400735189, 1645.624833777527, 1641.757981986759, 1614.690019451382, 1580.6930161348603, 1636.1700458729324, 1643.2555488652647, 1640.729801741815, 1616.6569729634493, 1584.0234260587008, 1637.3323365846084, 1645.0436884216892, 1641.8026854756697, 1623.98834514479, 1590.4607284618294, 1639.8580837080578, 1644.4625430658512, 1642.9426244428903, 1628.8386736915916, 1596.5627546981282, 1641.6238715200273, 1645.2672058662422, 1641.020374419734, 1629.7327434698038, 1598.149728554455, 1639.9698424303344, 1646.9882901893009, 1645.177798888421, 1627.9446039133793, 1594.8863738639802, 1642.2497203647758, 1646.4518483223735, 1642.56264478715, 1625.664725978938, 1592.2041645293432, 1642.2720721092312, 1648.083525667611, 1645.5130750552507, 1626.916423668435, 1588.8961063499578, 1639.3439935855858, 1648.016470434245, 1644.37313608803, 1623.98834514479, 1588.180850527388, 1642.0262029202227, 1647.7035460118707, 1642.7638104872478, 1624.9941736452788, 1588.1584987829326, 1639.791028474692, 1647.9941186897897, 1642.339127342597, 1625.888243423491, 1589.1866790278768, 1636.8405982065915, 1643.367307587541, 1642.2720721092312, 1626.2011678458653, 1589.924286594902, 1640.595691275083, 1650.3187001131416, 1643.2331971208093, 1622.7813509442033, 1586.3256557375976, 1633.2196156048317, 1644.2837291102087, 1640.8192087196362, 1634.4489615498737, 1606.0398943471785, 1638.0475924071782, 1641.9591476868568, 1638.0252406627228, 1640.1263046415218, 1643.859045965558, 1643.5237697987284, 1640.8192087196362, 1640.3274703416193, 1632.571415015628, 1605.9281356249019, 1639.5898627745942, 1642.5179412982395, 1637.533502284706, 1633.3537260715636, 1610.152615326955, 1637.019412162234, 1639.925138941424, 1636.795894717681, 1637.6452610069825, 1647.3012146116753, 1653.626758292527, 1648.6423192789937, 1641.6462232644826, 1639.500455796773, 1645.602482033072, 1645.5130750552507, 1641.4227058199294, 1638.7851999742031, 1638.8522552075692, 1644.9989849327785, 1647.7482495007814, 1644.7754674882256, 1639.1875313743988, 1640.953319186368, 1647.9270634564239, 1647.6364907785048, 1643.0543831651669, 1639.6569180079603, 1640.573339530628, 1645.982461688812, 1649.8716652240355, 1645.4907233107954, 1641.9591476868568, 1646.1612756444545, 1651.5703978026388, 1650.6539762799712, 1648.6870227679042, 1644.4625430658512, 1642.987327931801, 1646.8094762336584, 1646.8094762336584, 1644.2613773657536, 1641.4450575643848, 1642.0262029202227, 1645.46837156634, 1644.820170977136, 1645.3789645885188, 1643.501418054273, 1635.6559557504602, 1603.1341675679885, 1638.472275551829, 1645.9154064554461, 1642.2944238536863, 1633.6442987494827, 1599.3343710105862, 1638.1593511294545, 1645.758944244259, 1643.8143424766472, 1636.438266806396, 1600.183737299888, 1639.5898627745942, 1647.591787289594, 1642.6744035094266, 1633.4207813049295, 1597.9485628543573, 1635.5889005170943, 1644.2613773657536, 1644.1719703879323, 1632.2361388487982, 1594.7522633972483, 1637.7793714737145, 1644.596653532583, 1641.825037220125, 1631.2526620927647, 1593.4335104743852, 1636.7064877398598, 1643.9484529433792, 1640.573339530628, 1642.8755692095244, 1644.4625430658512, 1646.0942204110886, 1644.6190052770385, 1641.5121127977507, 1641.892092453491, 1648.7540780012703, 1650.497514068784, 1647.27886286722, 1643.859045965558, 1644.5072465547619, 1644.082563410111, 1645.311909355153, 1646.340089600097, 1642.4732378093288, 1646.3847930890076, 1651.3245286136305, 1651.369232102541, 1648.4635053233512, 1642.853217465069, 1641.9814994313122, 1647.5247320562282, 1648.4411535788959, 1648.1282291565217, 1645.8930547109908, 1642.0709064091334, 1613.438321761885, 1639.7686767302366, 1648.530560556717, 1643.5684732876389, 1645.8930547109908, 1651.2574733802646, 1652.2633018807535, 1646.764772744748, 1643.9708046878345, 1646.4965518112842, 1649.4246303349294, 1650.6763280244265, 1646.0718686666332, 1643.6131767765496, 1639.2992900966753, 1611.98545837229, 1639.3439935855858, 1646.9882901893009, 1643.210845376354, 1643.8143424766472, 1646.7424210002926, 1649.3128716126528, 1647.0329936782116, 1643.5908250320942, 1645.0660401661446, 1650.206941390865, 1651.011604191256, 1645.6695372664378, 1643.1661418874435, 1645.2001506328763, 1650.4081070909629, 1652.2185983918428, 1646.0718686666332, 1644.3954878324853, 1644.1272668990216, 1646.2953861111864, 1647.9717669453344, 1645.7365924998037, 1641.378002331019, 1636.37121157303, 1602.5083187232399, 1635.4547900503624, 1642.5179412982395, 1641.4674093088402, 1633.9572231718569, 1592.8076616296366, 1633.376077816019, 1644.5519500436724, 1640.4839325528067, 1629.375115558519, 1589.119623794511, 1632.3478975710748, 1644.0378599212004, 1640.3498220860747, 1632.9737464158234, 1591.4218534734075, 1632.3031940821643, 1644.0378599212004, 1639.500455796773, 1630.7162202258373, 1588.829051116592, 1631.9679179153345, 1647.3459181005858, 1641.6462232644826, 1632.4820080378067, 1591.8241848736031, 1632.079676637611, 1643.9261011989238, 1640.8192087196362, 1635.1642173724435, 1601.4130832449298, 1635.499493539273, 1645.4013163329741, 1642.6073482760607, 1643.9261011989238, 1647.6811942674153], [-5358.0931255928435, -5358.987195371055, -5353.48866623505, -5348.593634199337, -5350.895863878234, -5358.495456993039, -5358.294291292941, -5351.834637145357, -5347.453695232117, -5349.733573166558, -5354.226273802075, -5357.735497681559, -5354.539198224449, -5348.750096410525, -5350.091201077843, -5356.170875569686, -5356.930834881167, -5353.399259257229, -5349.845331888835, -5351.208788300609, -5355.880302891767, -5358.003718615022, -5354.561549968905, -5350.381773755762, -5351.119381322787, -5356.282634291963, -5357.556683725916, -5353.846294146335, -5350.337070266852, -5351.365250511796, -5356.2155790585975, -5357.310814536907, -5352.862817390302, -5349.375945255273, -5353.041631345944, -5356.684965692159, -5358.294291292941, -5353.846294146335, -5349.577110955371, -5352.9298726236675, -5359.143657582243, -5360.864741905301, -5356.461448247605, -5352.035802845455, -5352.952224368122, -5359.255416304519, -5359.434230260162, -5354.293329035441, -5352.706355179114, -5355.075640091377, -5358.853084904324, -5358.808381415413, -5354.762715669002, -5350.9405673671445, -5353.265148790497, -5358.808381415413, -5361.378832027774, -5357.400221514728, -5350.337070266852, -5352.996927857033, -5357.422573259184, -5358.987195371055, -5354.785067413458, -5350.515884222494, -5351.029974344966, -5357.556683725916, -5360.238893060553, -5356.170875569686, -5351.454657489617, -5352.795762156936, -5358.294291292941, -5360.1494860827315, -5356.05911684741, -5351.655823189714, -5353.443962746139, -5360.082430849366, -5360.305948293919, -5355.321509280385, -5351.409954000706, -5353.332204023863, -5358.987195371055, -5358.763677926502, -5355.522674980482, -5351.544064467438, -5351.901692378723, -5356.684965692159, -5359.881265149268, -5354.449791246628, -5351.387602256251, -5353.555721468416, -5358.897788393234, -5360.194189571642, -5355.522674980482, -5352.616948201293, -5352.996927857033, -5358.160180826209, -5360.998852372033, -5356.8637796478015, -5352.1699133121865, -5352.594596456837, -5357.9813668705665, -5360.462410505105, -5354.539198224449, -5350.828808644868, -5353.466314490594, -5360.305948293919, -5362.004680872522, -5357.020241858989, -5351.901692378723, -5353.667480190692, -5358.897788393234, -5359.568340726893, -5356.170875569686, -5351.655823189714, -5352.05815458991, -5358.361346526307, -5360.529465738472, -5356.640262203248, -5351.588767956348, -5354.069811590888, -5359.545988982438, -5362.049384361432, -5357.132000581265, -5351.7005266786255, -5352.147561567732, -5357.646090703737, -5361.512942494505, -5355.723840680581, -5349.9347388666565, -5353.220445301587, -5358.495456993039, -5360.082430849366, -5357.377869770274, -5352.371079012284, -5353.48866623505, -5357.243759303541, -5358.473105248583, -5355.4556197471165, -5351.521712722983, -5351.655823189714, -5357.1543523257205, -5360.395355271739, -5355.835599402857, -5352.572244712383, -5352.482837734561, -5357.646090703737, -5360.9765006275775, -5356.461448247605, -5351.342898767341, -5352.05815458991, -5357.713145937103, -5361.200018072131, -5357.959015126111, -5352.840465645846, -5354.718012180092, -5359.702451193625, -5361.0882593498545, -5357.310814536907, -5352.102858078821, -5352.885169134756, -5358.495456993039, -5362.094087850343, -5358.674270948681, -5352.39343075674, -5355.008584858011, -5361.87057040579, -5362.988157628555, -5357.310814536907, -5353.354555768318, -5354.650956946726, -5359.054250604421, -5360.194189571642, -5356.707317436614, -5351.8793406342675, -5351.611119700804, -5358.7413261820475, -5361.244721561042, -5357.48962849255, -5351.365250511796, -5351.186436556153, -5357.53433198146, -5432.524434629016, -5408.630419806293, -5359.993023871544, -5364.9104076517115, -5417.816986777424, -5432.524434629016, -5415.492405354072, -5364.172800084687, -5369.87249492079, -5424.3660479028285, -5433.999649763066, -5420.342733900873, -5370.990082143555, -5375.616893245804, -5426.64592583727, -5432.524434629016, -5424.701324069658, -5381.473050293094, -5382.389471815762, -5428.724638071613, -5428.7693415605245, -5423.226108935608, -5391.2631143645185, -5390.860782964323, -5431.049219494966, -5430.333963672396, -5424.656620580748, -5410.776187274002, -5407.73635002808, -5437.911205042745, -5436.525396886515, -5430.8257020504125, -5432.45737939565, -5443.320327200929, -5451.523417416027, -5451.322251715929, -5448.148304003275, -5451.143437760286, -5458.139533774797, -5464.912112344756, -5466.052051311976, -5464.532132689015, -5468.51074320206, -5476.490315972605, -5484.581647465426, -5487.330912033429, -5487.286208544518, -5491.2871708020175, -5499.177336594741, -5504.273534330551, -5504.51940351956, -5498.75265345009, -5496.1598510932745, -5501.926601162744, -5505.704045975691, -5504.072368630454, -5499.043226128009, -5498.283266816529, -5502.463043029671, -5505.636990742325, -5504.51940351956, -5500.831365684434, -5499.9149441617665, -5503.915906419266, -5507.916868676766, -5506.843984942911, -5501.457214529182, -5500.227868584141, -5505.0781971309425, -5507.46983378766, -5504.742920964113, -5499.847888928401, -5499.981999395132, -5506.553412264992, -5510.532022778038, -5507.514537276571, -5502.641856985314, -5503.066540129965, -5507.648647743303, -5511.202575111696, -5509.168566366264, -5503.044188385509, -5501.568973251459, -5507.335723320928, -5512.700141990202, -5511.04611290051, -5505.458176786683, -5503.111243618875, -5508.743883221613, -5511.962534423177, -5510.084987888931, -5504.541755264015, -5502.843022685412, -5507.067502387465, -5511.448444300705, -5509.3026768329955, -5504.944086664211, -5504.944086664211, -5507.8945169323115, -5511.470796045161, -5509.816766955468, -5503.938258163722, -5503.133595363331, -5507.603944254392, -5510.2414501001185, -5507.693351232213, -5500.8984209178, -5501.300752317996, -5508.386255310328, -5511.13551987833, -5510.196746611207, -5505.167604108764, -5503.737092463624, -5507.045150643009, -5511.1802233672415, -5511.0684646449645, -5504.765272708568, -5501.211345340174, -5506.821633198457, -5511.269630345062, -5510.912002433777, -5505.9499151647, -5502.239525585119, -5506.911040176277, -5510.666133244769, -5509.392083810817, -5504.452348286194, -5504.027665141543, -5507.335723320928, -5511.202575111696, -5510.621429755858, -5504.720569219658, -5504.452348286194, -5509.4814907886375, -5513.437749557227, -5513.191880368219, -5506.642819242814, -5504.273534330551, -5508.810938454979, -5513.504804790593, -5511.962534423177, -5507.492185532115, -5504.631162241836, -5508.274496588051, -5515.0023716690985, -5514.398874568806, -5507.402778554294, -5506.1957843537075, -5512.52132803456, -5516.611697269881, -5514.711798991179, -5508.877993688345, -5506.732226220635, -5509.99558091111, -5515.717627491668, -5514.980019924644, -5509.28032508854, -5506.776929709546, -5511.224926856152, -5518.042208915021, -5516.835214714434, -5510.822595455957, -5506.732226220635, -5509.1909181107185, -5514.957668180188, -5515.896441447311, -5509.414435555272, -5505.32406631995, -5510.666133244769, -5515.225889113652, -5514.801205969001, -5507.961572165677, -5503.826499441445, -5508.341551821417, -5514.085950146431, -5514.600040268903, -5506.620467498358, -5503.379464552339, -5509.056807643987, -5514.890612946822, -5514.085950146431, -5507.402778554294, -5504.698217475202, -5507.782758210034, -5513.705970490691, -5514.443578057716, -5508.632124499336, -5505.748749464602, -5509.66030474428, -5515.449406558205, -5515.538813536026, -5510.33085707794, -5505.726397720146, -5508.408607054783, -5510.755540222591, -5511.8507757009, -5501.27840057354, -5492.203592324686, -5488.381444022828, -5484.760461421069, -5475.0821560719205, -5459.74885937558, -5448.863559825845, -5441.398077177772, -5436.12306548632, -5427.450588637661, -5416.565289087926, -5407.132852927787, -5403.578925559393, -5407.266963394519, -5403.556573814938, -5397.096919667354, -5396.001684189044, -5402.997780203555, -5410.127986684798, -5413.123120441809, -5409.390379117773, -5407.7587017725355, -5413.1007686973535, -5420.521547856516, -5423.114350213332, -5418.196966433164, -5416.028847220999, -5421.348562401362, -5428.590527604882, -5428.2999549269625, -5421.639135079281, -5420.11921645632, -5426.1318357147975, -5431.898585784267, -5433.262042196041, -5427.629402593303, -5423.449626380161, -5427.271774682018, -5433.6420218517815, -5434.647850352269, -5427.718809571124, -5424.276640925007, -5428.545824115971, -5433.977298018611, -5435.02783000801, -5428.50112062706, -5425.148358958764, -5429.462245638639, -5435.474864897116, -5438.179425976208, -5431.630364850804, -5426.780036304001, -5431.2950886839735, -5434.692553841181, -5433.329097429407, -5426.31064967044, -5422.287335668485, -5425.9530217591555, -5432.166806717731, -5432.83735905139, -5426.042428736977, -5422.6673153242255, -5427.8305682934015, -5434.178463718708, -5434.603146863359, -5427.092960726376, -5424.50015836956, -5429.618707849826, -5435.094885241376, -5436.100713741865, -5428.1211409713205, -5423.807254291446, -5428.165844460231, -5434.200815463164, -5436.12306548632, -5428.054085737955, -5422.935536257689, -5427.875271782312, -5433.753780574058, -5436.480693397605, -5429.9316322722, -5424.298992669463, -5427.294126426474, -5433.016173007032, -5435.720734086124, -5429.283431682996, -5424.12017871382, -5429.037562493988, -5434.9831265191, -5437.620632364826, -5430.378667161306, -5424.701324069658, -5426.936498515189, -5433.284393940496, -5434.133760229798, -5426.601222348359, -5423.516681613527, -5427.651754337759, -5434.424332907717, -5436.704210842158, -5429.842225294379, -5424.902489769756, -5428.143492715775, -5434.401981163262, -5437.710039342647, -5430.780998561501, -5424.343696158373, -5429.439893894183, -5437.486521898094, -5438.715867843136, -5430.602184605859, -5425.684800825692, -5428.031733993499, -5434.200815463164, -5437.799446320468, -5431.183329961697, -5427.428236893205, -5430.892757283778, -5436.056010252954, -5439.766399832535, -5434.558443374449, -5427.1823677041975, -5428.7693415605245, -5435.273699197019, -5439.36406843234, -5430.892757283778, -5426.712981070636, -5431.406847406251, -5437.419466664728, -5440.951042288666, -5433.351449173862, -5426.333001414896, -5429.059914238443, -5436.972431775622, -5442.180388233708, -5434.022001507521, -5427.160015959742, -5430.490425883583, -5436.614803864337, -5442.493312656083, -5435.40780966375, -5427.204719448652, -5429.730466572102, -5437.240652709085, -5442.247443467074, -5434.446684652172, -5428.858748538345, -5431.652716595258, -5436.078361997409, -5440.951042288666, -5433.865539296334, -5426.355353159351, -5431.339792172885, -5437.642984109281, -5442.023926022521, -5434.491388141083, -5428.076437482409, -5430.378667161306, -5437.8665015538345, -5441.442780666684, -5432.412675906739, -5426.64592583727, -5428.657582838247, -5436.301879441962, -5440.1016759993645, -5434.2902224409845, -5428.45641713815, -5430.892757283778, -5437.374763175817, -5441.353373688862, -5434.804312563457, -5428.054085737955, -5429.9316322722, -5436.592452119881, -5441.889815555789, -5434.334925929896, -5425.528338614505, -5428.679934582703, -5435.02783000801, -5439.386420176795, -5433.306745684951, -5425.3048211699515, -5429.104617727354, -5436.860673053346, -5442.31449870044, -5433.239690451585, -5424.343696158373, -5425.975373503611, -5431.719771828624, -5438.581757376404, -5433.083228240398, -5425.058951980943, -5427.74116131558, -5432.971469518122, -5438.31353644294, -5431.518606128527, -5422.913184513233, -5425.3048211699515, -5430.915109028234, -5438.224129465119, -5430.602184605859, -5423.449626380161, -5425.684800825692, -5432.859710795845, -5438.626460865315, -5431.339792172885, -5425.751856059058, -5428.344658415873, -5434.781960819002, -5440.3922486772835, -5431.652716595258, -5423.270812424518, -5426.64592583727, -5432.278565440008, -5439.386420176795, -5434.960774774644, -5424.701324069658, -5427.383533404295, -5434.424332907717, -5438.447646909672, -5431.876234039812, -5424.924841514211, -5428.277603182507, -5433.686725340692, -5439.721696343625, -5431.853882295356, -5423.449626380161, -5426.31064967044, -5435.608975363848, -5440.973394033122, -5432.747952073569, -5423.628440335803, -5426.31064967044, -5432.904414284756, -5438.671164354225, -5432.211510206641, -5423.919013013722, -5427.048257237466, -5434.513739885538, -5437.285356197996, -5432.166806717731, -5426.467111881628, -5427.137664215286, -5432.658545095747, -5438.626460865315, -5432.45737939565, -5424.433103136194, -5426.712981070636, -5432.569138117926, -5438.469998654127, -5432.12210322882, -5424.813082791935, -5428.031733993499, -5433.619670107326, -5437.50887364255, -5430.758646817047, -5424.12017871382, -5426.601222348359, -5432.166806717731, -5437.55357713146, -5429.9316322722, -5422.309687412941, -5428.143492715775, -5433.463207896139, -5438.0453155094765, -5431.518606128527, -5424.254289180552, -5425.751856059058, -5432.12210322882, -5437.59828062037, -5430.9821642616, -5423.36021940234, -5425.1930624476745, -5431.898585784267, -5438.917033543234, -5432.2338619510965, -5423.8966612692675, -5425.818911292424, -5431.2950886839735, -5438.671164354225, -5432.524434629016, -5423.226108935608, -5426.020076992521, -5433.6420218517815, -5439.9228620437225, -5433.686725340692, -5423.941364758178, -5424.634268836292, -5429.9316322722, -5435.608975363848, -5430.0657427389315, -5423.002591491055, -5425.55069035896, -5431.74212357308, -5439.229957965607, -5432.83735905139, -5425.4836351255935, -5427.607050848848, -5433.016173007032, -5438.827626565412, -5433.083228240398, -5423.539033357983, -5425.327172914407, -5432.613841606837, -5439.386420176795, -5434.31257418544, -5425.081303725398, -5426.1318357147975, -5431.920937528723, -5438.447646909672, -5431.965641017633, -5422.622611835314, -5425.036600236488, -5433.239690451585, -5439.565234132438, -5431.74212357308, -5422.354390901851, -5425.684800825692, -5432.077399739909, -5436.771266075524, -5430.870405539323, -5422.555556601948, -5425.260117681041, -5430.624536350315, -5438.917033543234, -5433.21733870713, -5423.226108935608, -5425.438931636683, -5431.987992762089, -5438.157074231753, -5432.077399739909, -5422.9578880021445, -5425.528338614505, -5432.546786373471, -5437.59828062037, -5430.713943328135, -5422.086169968387, -5424.634268836292, -5431.205681706153, -5436.45834165315, -5430.3563154168505, -5421.616783334825, -5426.355353159351, -5434.31257418544, -5439.431123665706, -5433.373800918317, -5425.036600236488, -5428.2999549269625, -5434.737257330091, -5440.2134347216415, -5433.977298018611, -5423.069646724421, -5425.126007214309, -5433.843187551879, -5439.051144009965, -5432.45737939565, -5425.148358958764, -5426.601222348359, -5431.831530550901, -5437.151245731264, -5432.524434629016, -5425.260117681041, -5427.048257237466, -5432.12210322882, -5437.777094576013, -5434.580795118904, -5427.69645782667, -5429.618707849826, -5434.580795118904, -5440.705173099658, -5434.960774774644, -5425.4836351255935, -5425.461283381139]]
