['beep', 0.0, -1056.0305185354375, 0.0, 0.0, 0.0, 0.0, -3030.8294929062718, 0.0]
['beep', 0.0, -1053.147143500703, 0.0, 0.0, 0.0, 0.0, -3090.7768715354055, 0.0]
['beep', 0.0, -1066.7370041295296, 0.0, 0.0, 0.0, 0.0, -3071.3532056037434, 0.0]
['beep', 0.0, -1098.9682196340823, 0.0, 0.0, 0.0, 0.0, -3008.5224519398753, 0.0]
['beep', 0.0, -1091.9274201306607, 0.0, 0.0, 0.0, 0.0, -2985.164878984079, 0.0]
['beep', 0.0, -1055.2482074795018, 0.0, 0.0, 0.0, 0.0, -3031.723562684484, 0.0]
['beep', 0.0, -1051.5154661554654, 0.0, 0.0, 0.0, 0.0, -3089.2569529124444, 0.0]
['beep', 0.0, -1065.8876378402279, 0.0, 0.0, 0.0, 0.0, -3070.0344526808803, 0.0]
['beep', 0.0, -1098.4988330005208, 0.0, 0.0, 0.0, 0.0, -3007.4495682060206, 0.0]
['beep', 0.0, -1092.5979724643198, 0.0, 0.0, 0.0, 0.0, -2983.890829550127, 0.0]
['beep', 0.0, -1055.3599662017782, 0.0, 0.0, 0.0, 0.0, -3030.3601062727103, 0.0]
['beep', 0.0, -1052.0742597668482, 0.0, 0.0, 0.0, 0.0, -3092.274438413911, 0.0]
['beep', 0.0, -1065.7982308624066, 0.0, 0.0, 0.0, 0.0, -3072.56019980433, 0.0]
['beep', 0.0, -1095.3248852878673, 0.0, 0.0, 0.0, 0.0, -3006.5778501722634, 0.0]
['beep', 0.0, -1089.5134317294874, 0.0, 0.0, 0.0, 0.0, -2982.192096971524, 0.0]
['beep', 0.0, -1056.3210912133566, 0.0, 0.0, 0.0, 0.0, -3028.50491148292, 0.0]
['beep', 0.0, -1053.080088267337, 0.0, 0.0, 0.0, 0.0, -3089.4134151236317, 0.0]
['beep', 0.0, -1066.7593558739848, 0.0, 0.0, 0.0, 0.0, -3071.733185259484, 0.0]
['beep', 0.0, -1093.4696904980767, 0.0, 0.0, 0.0, 0.0, -3008.1648240285904, 0.0]
['beep', 0.0, -1088.7758241624624, 0.0, 0.0, 0.0, 0.0, -2982.3709109271663, 0.0]
['beep', 0.0, -1058.109230769781, 0.0, 0.0, 0.0, 0.0, -3027.521434726886, 0.0]
['beep', 0.0, -1054.8682278237616, 0.0, 0.0, 0.0, 0.0, -3089.2569529124444, 0.0]
['beep', 0.0, -1067.7428326300185, 0.0, 0.0, 0.0, 0.0, -3072.7390137599723, 0.0]
['beep', 0.0, -1094.6990364431188, 0.0, 0.0, 0.0, 0.0, -3008.4777484509646, 0.0]
['beep', 0.0, -1089.8040044074064, 0.0, 0.0, 0.0, 0.0, -2984.3155126947777, 0.0]
['beep', 0.0, -1058.3103964698787, 0.0, 0.0, 0.0, 0.0, -3029.9130713836043, 0.0]
['beep', 0.0, -1055.4493731795994, 0.0, 0.0, 0.0, 0.0, -3088.94402849007, 0.0]
['beep', 0.0, -1067.8322396078397, 0.0, 0.0, 0.0, 0.0, -3073.364862604721, 0.0]
['beep', 0.0, -1094.3861120207443, 0.0, 0.0, 0.0, 0.0, -3009.4165217180876, 0.0]
['beep', 0.0, -1090.0051701075042, 0.0, 0.0, 0.0, 0.0, -2981.253323704401, 0.0]
['beep', 0.0, -1057.9974720475045, 0.0, 0.0, 0.0, 0.0, -3025.912109126104, 0.0]
['beep', 0.0, -1055.1364487572253, 0.0, 0.0, 0.0, 0.0, -3088.6087523232404, 0.0]
['beep', 0.0, -1068.3463297303117, 0.0, 0.0, 0.0, 0.0, -3072.3813858486874, 0.0]
['beep', 0.0, -1096.5542312329092, 0.0, 0.0, 0.0, 0.0, -3009.6847426515515, 0.0]
['beep', 0.0, -1091.1451090747248, 0.0, 0.0, 0.0, 0.0, -2984.2261057169567, 0.0]
['beep', 0.0, -1057.5504371583984, 0.0, 0.0, 0.0, 0.0, -3028.8625393942048, 0.0]
['beep', 0.0, -1054.2200272345576, 0.0, 0.0, 0.0, 0.0, -3089.726339546006, 0.0]
['beep', 0.0, -1067.8322396078397, 0.0, 0.0, 0.0, 0.0, -3070.816763736816, 0.0]
['beep', 0.0, -1097.560059733398, 0.0, 0.0, 0.0, 0.0, -3007.0919402947357, 0.0]
['beep', 0.0, -1093.6485044537192, 0.0, 0.0, 0.0, 0.0, -2983.175573727557, 0.0]
['beep', 0.0, -1058.5339139144319, 0.0, 0.0, 0.0, 0.0, -3027.6778969380734, 0.0]
['beep', 0.0, -1054.9352830571274, 0.0, 0.0, 0.0, 0.0, -3089.2569529124444, 0.0]
['beep', 0.0, -1067.8769430967502, 0.0, 0.0, 0.0, 0.0, -3071.9343509595815, 0.0]
['beep', 0.0, -1094.8107951653953, 0.0, 0.0, 0.0, 0.0, -3007.963658328493, 0.0]
['beep', 0.0, -1091.5474404749204, 0.0, 0.0, 0.0, 0.0, -2983.6449603611186, 0.0]
['beep', 0.0, -1058.8021348478956, 0.0, 0.0, 0.0, 0.0, -3028.6837254385623, 0.0]
['beep', 0.0, -1052.2307219780353, 0.0, 0.0, 0.0, 0.0, -3090.4415953685757, 0.0]
['beep', 0.0, -1068.9274750861496, 0.0, 0.0, 0.0, 0.0, -3073.2307521379894, 0.0]
['beep', 0.0, -1101.2928010574342, 0.0, 0.0, 0.0, 0.0, -3007.4942716949313, 0.0]
['beep', 0.0, -1099.3481992898226, 0.0, 0.0, 0.0, 0.0, -2980.247495203912, 0.0]
['beep', 0.0, -1072.9284373436496, 0.0, 0.0, 0.0, 0.0, -3024.571004458786, 0.0]
['beep', 0.0, -1066.6699488961635, 0.0, 0.0, 0.0, 0.0, -3083.8031272653493, 0.0]
['beep', 0.0, -1081.757376403496, 0.0, 0.0, 0.0, 0.0, -3067.46400206852, 0.0]
['beep', 0.0, -1105.718446459585, 0.0, 0.0, 0.0, 0.0, -3004.566193171286, 0.0]
['beep', 0.0, -1100.97987663506, 0.0, 0.0, 0.0, 0.0, -2978.4146521585767, 0.0]
['beep', 0.0, -1072.7049198990965, 0.0, 0.0, 0.0, 0.0, -3022.179367802068, 0.0]
['beep', 0.0, -1068.8604198527837, 0.0, 0.0, 0.0, 0.0, -3083.2219819095117, 0.0]
['beep', 0.0, -1081.2879897699345, 0.0, 0.0, 0.0, 0.0, -3066.36876659021, 0.0]
['beep', 0.0, -1105.6066877373084, 0.0, 0.0, 0.0, 0.0, -3003.336847226244, 0.0]
['beep', 0.0, -1101.8292429243616, 0.0, 0.0, 0.0, 0.0, -2977.1406027246244, 0.0]
['beep', 0.0, -1070.983835576038, 0.0, 0.0, 0.0, 0.0, -3021.1511875571236, 0.0]
['beep', 0.0, -1066.8264111073509, 0.0, 0.0, 0.0, 0.0, -3084.2501621544557, 0.0]
['beep', 0.0, -1080.5727339473647, 0.0, 0.0, 0.0, 0.0, -3067.531057301886, 0.0]
['beep', 0.0, -1106.590164493342, 0.0, 0.0, 0.0, 0.0, -3003.985047815448, 0.0]
['beep', 0.0, -1103.5503272474202, 0.0, 0.0, 0.0, 0.0, -2979.7781085703505, 0.0]
['beep', 0.0, -1070.5815041758424, 0.0, 0.0, 0.0, 0.0, -3023.185196302557, 0.0]
['beep', 0.0, -1067.5416669299207, 0.0, 0.0, 0.0, 0.0, -3085.747729032961, 0.0]
['beep', 0.0, -1081.2432862810238, 0.0, 0.0, 0.0, 0.0, -3071.733185259484, 0.0]
['beep', 0.0, -1107.461882527099, 0.0, 0.0, 0.0, 0.0, -3005.7731873718726, 0.0]
['beep', 0.0, -1105.1820045926577, 0.0, 0.0, 0.0, 0.0, -2977.2076579579902, 0.0]
['beep', 0.0, -1072.302588498901, 0.0, 0.0, 0.0, 0.0, -3020.0336003343587, 0.0]
['beep', 0.0, -1068.2345710080351, 0.0, 0.0, 0.0, 0.0, -3083.400795865154, 0.0]
['beep', 0.0, -1081.0868240698367, 0.0, 0.0, 0.0, 0.0, -3069.0062724359364, 0.0]
['beep', 0.0, -1111.3063825734118, 0.0, 0.0, 0.0, 0.0, -3005.1249867826687, 0.0]
['beep', 0.0, -1108.2888970719455, 0.0, 0.0, 0.0, 0.0, -2978.63816960313, 0.0]
['beep', 0.0, -1071.6320361652417, 0.0, 0.0, 0.0, 0.0, -3020.592393945741, 0.0]
['beep', 0.0, -1066.7593558739848, 0.0, 0.0, 0.0, 0.0, -3082.439670853576, 0.0]
['beep', 0.0, -1079.9021816137054, 0.0, 0.0, 0.0, 0.0, -3068.134554402179, 0.0]
['beep', 0.0, -1109.786463950451, 0.0, 0.0, 0.0, 0.0, -3004.6779518935623, 0.0]
['beep', 0.0, -1107.0819028713588, 0.0, 0.0, 0.0, 0.0, -2979.308721936789, 0.0]
['beep', 0.0, -1069.910951842183, 0.0, 0.0, 0.0, 0.0, -3021.8664433796935, 0.0]
['beep', 0.0, -1065.4182512066664, 0.0, 0.0, 0.0, 0.0, -3082.9761127205034, 0.0]
['beep', 0.0, -1078.695187413119, 0.0, 0.0, 0.0, 0.0, -3066.145249145657, 0.0]
['beep', 0.0, -1109.0041528945153, 0.0, 0.0, 0.0, 0.0, -3002.8451088482275, 0.0]
['beep', 0.0, -1107.685399971652, 0.0, 0.0, 0.0, 0.0, -2976.4924021354204, 0.0]
['beep', 0.0, -1071.2967599984122, 0.0, 0.0, 0.0, 0.0, -3019.40775148961, 0.0]
['beep', 0.0, -1066.8487628518062, 0.0, 0.0, 0.0, 0.0, -3082.2832086423887, 0.0]
['beep', 0.0, -1079.6116089357865, 0.0, 0.0, 0.0, 0.0, -3068.4251270800983, 0.0]
['beep', 0.0, -1110.009981395004, 0.0, 0.0, 0.0, 0.0, -3004.275620493367, 0.0]
['beep', 0.0, -1107.8642139272945, 0.0, 0.0, 0.0, 0.0, -2977.721748080462, 0.0]
['beep', 0.0, -1071.855553609795, 0.0, 0.0, 0.0, 0.0, -3019.40775148961, 0.0]
['beep', 0.0, -1066.6699488961635, 0.0, 0.0, 0.0, 0.0, -3081.2773801419, 0.0]
['beep', 0.0, -1079.656312424697, 0.0, 0.0, 0.0, 0.0, -3068.201609635545, 0.0]
['beep', 0.0, -1112.3792663072666, 0.0, 0.0, 0.0, 0.0, -3004.566193171286, 0.0]
['beep', 0.0, -1110.2558505840125, 0.0, 0.0, 0.0, 0.0, -2976.9394370245263, 0.0]
['beep', 0.0, -1071.8779053542503, 0.0, 0.0, 0.0, 0.0, -3018.8042543893166, 0.0]
['beep', 0.0, -1066.6028936627977, 0.0, 0.0, 0.0, 0.0, -3082.104394686746, 0.0]
['beep', 0.0, -1079.6116089357865, 0.0, 0.0, 0.0, 0.0, -3068.4251270800983, 0.0]
['beep', 0.0, -1112.26750758499, 0.0, 0.0, 0.0, 0.0, -3005.1920420160345, 0.0]
['beep', 0.0, -1111.395789551233, 0.0, 0.0, 0.0, 0.0, -2979.4204806590656, 0.0]
['beep', 0.0, -1071.8108501208842, 0.0, 0.0, 0.0, 0.0, -3019.318344511789, 0.0]
['beep', 0.0, -1067.564018674376, 0.0, 0.0, 0.0, 0.0, -3081.210324908534, 0.0]
['beep', 0.0, -1081.0197688364708, 0.0, 0.0, 0.0, 0.0, -3068.8945137136598, 0.0]
['beep', 0.0, -1113.8321296968616, 0.0, 0.0, 0.0, 0.0, -3005.996704816426, 0.0]
['beep', 0.0, -1112.9380599186493, 0.0, 0.0, 0.0, 0.0, -2977.609989358186, 0.0]
['beep', 0.0, -1073.0625478103814, 0.0, 0.0, 0.0, 0.0, -3019.7430276564396, 0.0]
['beep', 0.0, -1068.5698471748647, 0.0, 0.0, 0.0, 0.0, -3082.216153409023, 0.0]
['beep', 0.0, -1081.0197688364708, 0.0, 0.0, 0.0, 0.0, -3068.469830569009, 0.0]
['beep', 0.0, -1112.7592459630068, 0.0, 0.0, 0.0, 0.0, -3006.0637600497917, 0.0]
['beep', 0.0, -1110.9264029176716, 0.0, 0.0, 0.0, 0.0, -2978.1911347140235, 0.0]
['beep', 0.0, -1071.4085187206888, 0.0, 0.0, 0.0, 0.0, -3019.5865654452523, 0.0]
['beep', 0.0, -1067.1840390186358, 0.0, 0.0, 0.0, 0.0, -3081.187973164079, 0.0]
['beep', 0.0, -1079.946885102616, 0.0, 0.0, 0.0, 0.0, -3069.2744933694, 0.0]
['beep', 0.0, -1111.395789551233, 0.0, 0.0, 0.0, 0.0, -3005.2590972494004, 0.0]
['beep', 0.0, -1110.300554072923, 0.0, 0.0, 0.0, 0.0, -2977.364120169177, 0.0]
['beep', 0.0, -1071.341463487323, 0.0, 0.0, 0.0, 0.0, -3020.7712079013836, 0.0]
['beep', 0.0, -1066.8934663407167, 0.0, 0.0, 0.0, 0.0, -3080.0480341968578, 0.0]
['beep', 0.0, -1079.2986845134121, 0.0, 0.0, 0.0, 0.0, -3068.6486445246514, 0.0]
['beep', 0.0, -1108.914745916694, 0.0, 0.0, 0.0, 0.0, -3006.287277494345, 0.0]
['beep', 0.0, -1108.5571180054092, 0.0, 0.0, 0.0, 0.0, -2976.7829748133395, 0.0]
['beep', 0.0, -1071.140297787225, 0.0, 0.0, 0.0, 0.0, -3020.145359056635, 0.0]
['beep', 0.0, -1065.664120395675, 0.0, 0.0, 0.0, 0.0, -3083.6690167986176, 0.0]
['beep', 0.0, -1078.337559501834, 0.0, 0.0, 0.0, 0.0, -3068.827458480294, 0.0]
['beep', 0.0, -1105.9866673930487, 0.0, 0.0, 0.0, 0.0, -3005.639076905141, 0.0]
['beep', 0.0, -1105.9419639041382, 0.0, 0.0, 0.0, 0.0, -2978.4146521585767, 0.0]
['beep', 0.0, -1070.2909314979233, 0.0, 0.0, 0.0, 0.0, -3020.368876501188, 0.0]
['beep', 0.0, -1065.6417686512195, 0.0, 0.0, 0.0, 0.0, -3083.691368543073, 0.0]
['beep', 0.0, -1078.0916903128254, 0.0, 0.0, 0.0, 0.0, -3071.107336414735, 0.0]
['beep', 0.0, -1106.7913301934398, 0.0, 0.0, 0.0, 0.0, -3007.3601612281996, 0.0]
['beep', 0.0, -1107.1042546158142, 0.0, 0.0, 0.0, 0.0, -2979.241666703423, 0.0]
['beep', 0.0, -1069.68743439763, 0.0, 0.0, 0.0, 0.0, -3020.0336003343587, 0.0]
['beep', 0.0, -1064.367719217267, 0.0, 0.0, 0.0, 0.0, -3083.2890371428775, 0.0]
['beep', 0.0, -1077.398786234711, 0.0, 0.0, 0.0, 0.0, -3072.5154963154196, 0.0]
['beep', 0.0, -1107.2160133380908, 0.0, 0.0, 0.0, 0.0, -3010.0870740517466, 0.0]
['beep', 0.0, -1107.685399971652, 0.0, 0.0, 0.0, 0.0, -2978.995797514415, 0.0]
['beep', 0.0, -1070.5815041758424, 0.0, 0.0, 0.0, 0.0, -3019.2289375339674, 0.0]
['beep', 0.0, -1066.491134940521, 0.0, 0.0, 0.0, 0.0, -3083.0655196983244, 0.0]
['beep', 0.0, -1078.717539157574, 0.0, 0.0, 0.0, 0.0, -3070.6155980367184, 0.0]
['beep', 0.0, -1105.5843359928533, 0.0, 0.0, 0.0, 0.0, -3008.4106932175987, 0.0]
['beep', 0.0, -1106.9254406601717, 0.0, 0.0, 0.0, 0.0, -2976.961788768982, 0.0]
['beep', 0.0, -1068.2792744969458, 0.0, 0.0, 0.0, 0.0, -3018.379571244666, 0.0]
['beep', 0.0, -1058.690376125619, 0.0, 0.0, 0.0, 0.0, -3080.271551641411, 0.0]
['beep', 0.0, -1071.1850012761356, 0.0, 0.0, 0.0, 0.0, -3065.787621234372, 0.0]
['beep', 0.0, -1101.5833737353532, 0.0, 0.0, 0.0, 0.0, -3002.599239659219, 0.0]
['beep', 0.0, -1104.0867691143476, 0.0, 0.0, 0.0, 0.0, -2971.3515009106995, 0.0]
['beep', 0.0, -1067.8098878633843, 0.0, 0.0, 0.0, 0.0, -3011.629344419163, 0.0]
['beep', 0.0, -1063.5407046724206, 0.0, 0.0, 0.0, 0.0, -3075.957664961537, 0.0]
['beep', 0.0, -1076.5717716898646, 0.0, 0.0, 0.0, 0.0, -3064.7147375005175, 0.0]
['beep', 0.0, -1103.103292358314, 0.0, 0.0, 0.0, 0.0, -3003.4486059485207, 0.0]
['beep', 0.0, -1103.460920269599, 0.0, 0.0, 0.0, 0.0, -2973.7431375674178, 0.0]
['beep', 0.0, -1068.4133849636776, 0.0, 0.0, 0.0, 0.0, -3013.797463631328, 0.0]
['beep', 0.0, -1063.1830767611357, 0.0, 0.0, 0.0, 0.0, -3076.024720194903, 0.0]
['beep', 0.0, -1075.3424257448228, 0.0, 0.0, 0.0, 0.0, -3065.7205660010063, 0.0]
['beep', 0.0, -1101.270449312979, 0.0, 0.0, 0.0, 0.0, -3003.0015710594143, 0.0]
['beep', 0.0, -1102.2092225801018, 0.0, 0.0, 0.0, 0.0, -2970.7033003214956, 0.0]
['beep', 0.0, -1067.0946320408145, 0.0, 0.0, 0.0, 0.0, -3012.4116554750985, 0.0]
['beep', 0.0, -1062.6689866386637, 0.0, 0.0, 0.0, 0.0, -3076.851734739749, 0.0]
['beep', 0.0, -1074.8059838778954, 0.0, 0.0, 0.0, 0.0, -3065.787621234372, 0.0]
['beep', 0.0, -1099.8399376678394, 0.0, 0.0, 0.0, 0.0, -3002.3086669813, 0.0]
['beep', 0.0, -1100.2869725569456, 0.0, 0.0, 0.0, 0.0, -2972.089108477725, 0.0]
['beep', 0.0, -1067.139335529725, 0.0, 0.0, 0.0, 0.0, -3013.6186496756854, 0.0]
['beep', 0.0, -1062.0878412828256, 0.0, 0.0, 0.0, 0.0, -3076.628217295196, 0.0]
['beep', 0.0, -1075.3200740003674, 0.0, 0.0, 0.0, 0.0, -3066.145249145657, 0.0]
['beep', 0.0, -1100.1975655791243, 0.0, 0.0, 0.0, 0.0, -3003.5827164152524, 0.0]
['beep', 0.0, -1099.683475456652, 0.0, 0.0, 0.0, 0.0, -2973.8101928007836, 0.0]
['beep', 0.0, -1067.5416669299207, 0.0, 0.0, 0.0, 0.0, -3014.9597543430036, 0.0]
['beep', 0.0, -1061.3502337158006, 0.0, 0.0, 0.0, 0.0, -3076.8740864842043, 0.0]
['beep', 0.0, -1075.3871292337335, 0.0, 0.0, 0.0, 0.0, -3066.6146357792186, 0.0]
['beep', 0.0, -1099.3481992898226, 0.0, 0.0, 0.0, 0.0, -3004.655600149107, 0.0]
['beep', 0.0, -1099.1917370786355, 0.0, 0.0, 0.0, 0.0, -2973.5866753562304, 0.0]
['beep', 0.0, -1067.7204808855631, 0.0, 0.0, 0.0, 0.0, -3012.6351729196517, 0.0]
['beep', 0.0, -1063.0936697833145, 0.0, 0.0, 0.0, 0.0, -3077.7458045179615, 0.0]
['beep', 0.0, -1075.6777019116523, 0.0, 0.0, 0.0, 0.0, -3067.7992782353494, 0.0]
['beep', 0.0, -1098.3423707893337, 0.0, 0.0, 0.0, 0.0, -3004.5438414268306, 0.0]
['beep', 0.0, -1097.6271149667639, 0.0, 0.0, 0.0, 0.0, -2975.2183527014677, 0.0]
['beep', 0.0, -1067.8992948412056, 0.0, 0.0, 0.0, 0.0, -3013.886870609149, 0.0]
['beep', 0.0, -1061.238474993524, 0.0, 0.0, 0.0, 0.0, -3077.5222870734083, 0.0]
['beep', 0.0, -1073.8895623552278, 0.0, 0.0, 0.0, 0.0, -3068.6709962691066, 0.0]
['beep', 0.0, -1098.1635568336912, 0.0, 0.0, 0.0, 0.0, -3006.0637600497917, 0.0]
['beep', 0.0, -1097.850632411317, 0.0, 0.0, 0.0, 0.0, -2976.0677189907697, 0.0]
['beep', 0.0, -1067.2287425075463, 0.0, 0.0, 0.0, 0.0, -3015.0044578319144, 0.0]
['beep', 0.0, -1061.6184546492643, 0.0, 0.0, 0.0, 0.0, -3080.785641763883, 0.0]
['beep', 0.0, -1073.9566175885936, 0.0, 0.0, 0.0, 0.0, -3069.9003422141486, 0.0]
['beep', 0.0, -1098.0070946225042, 0.0, 0.0, 0.0, 0.0, -3007.3825129726547, 0.0]
['beep', 0.0, -1097.8953359002276, 0.0, 0.0, 0.0, 0.0, -2975.151297468102, 0.0]
['beep', 0.0, -1066.5358384294318, 0.0, 0.0, 0.0, 0.0, -3014.6691816650846, 0.0]
['beep', 0.0, -1062.0654895383705, 0.0, 0.0, 0.0, 0.0, -3081.1209179307125, 0.0]
['beep', 0.0, -1074.0907280553256, 0.0, 0.0, 0.0, 0.0, -3071.040281181369, 0.0]
['beep', 0.0, -1098.1859085781466, 0.0, 0.0, 0.0, 0.0, -3007.8742513506713, 0.0]
['beep', 0.0, -1099.012923122993, 0.0, 0.0, 0.0, 0.0, -2977.2523614469005, 0.0]
['beep', 0.0, -1066.2005622626023, 0.0, 0.0, 0.0, 0.0, -3016.367914243688, 0.0]
['beep', 0.0, -1061.3502337158006, 0.0, 0.0, 0.0, 0.0, -3083.5125545874307, 0.0]
['beep', 0.0, -1074.2024867776022, 0.0, 0.0, 0.0, 0.0, -3072.5825515487854, 0.0]
['beep', 0.0, -1097.4930045000322, 0.0, 0.0, 0.0, 0.0, -3006.1308152831575, 0.0]
['beep', 0.0, -1097.2247835665685, 0.0, 0.0, 0.0, 0.0, -2975.374814912655, 0.0]
['beep', 0.0, -1066.6699488961635, 0.0, 0.0, 0.0, 0.0, -3015.2503270209227, 0.0]
['beep', 0.0, -1060.947902315605, 0.0, 0.0, 0.0, 0.0, -3079.4892405854753, 0.0]
['beep', 0.0, -1073.3531204883004, 0.0, 0.0, 0.0, 0.0, -3069.5874177917744, 0.0]
['beep', 0.0, -1096.464824255088, 0.0, 0.0, 0.0, 0.0, -3007.114292039191, 0.0]
['beep', 0.0, -1096.2189550660796, 0.0, 0.0, 0.0, 0.0, -2975.2183527014677, 0.0]
['beep', 0.0, -1065.6194169067642, 0.0, 0.0, 0.0, 0.0, -3012.7022281530176, 0.0]
['beep', 0.0, -1057.6174923917642, 0.0, 0.0, 0.0, 0.0, -3078.595170807263, 0.0]
['beep', 0.0, -1071.0732425538592, 0.0, 0.0, 0.0, 0.0, -3068.2239613800007, 0.0]
['beep', 0.0, -1103.1926993361353, 0.0, 0.0, 0.0, 0.0, -3006.1084635387024, 0.0]
['beep', 0.0, -1111.2616790845013, 0.0, 0.0, 0.0, 0.0, -2971.820887544261, 0.0]
['beep', 0.0, -1088.59701020682, 0.0, 0.0, 0.0, 0.0, -3007.2036990170122, 0.0]
['beep', 0.0, -1093.559097475898, 0.0, 0.0, 0.0, 0.0, -3070.7050050145394, 0.0]
['beep', 0.0, -1115.2179378530907, 0.0, 0.0, 0.0, 0.0, -3060.087926398269, 0.0]
['beep', 0.0, -1146.8233045128948, 0.0, 0.0, 0.0, 0.0, -2998.7100361239955, 0.0]
['beep', 0.0, -1154.3334906498778, 0.0, 0.0, 0.0, 0.0, -2965.830620030239, 0.0]
['beep', 0.0, -1137.457923586121, 0.0, 0.0, 0.0, 0.0, -3002.68864663704, 0.0]
['beep', 0.0, -1138.620214297797, 0.0, 0.0, 0.0, 0.0, -3068.55923754683, 0.0]
['beep', 0.0, -1155.495781361554, 0.0, 0.0, 0.0, 0.0, -3060.333795587277, 0.0]
['beep', 0.0, -1176.8416973163721, 0.0, 0.0, 0.0, 0.0, -2999.3582367131994, 0.0]
['beep', 0.0, -1175.6570548602408, 0.0, 0.0, 0.0, 0.0, -2968.177553198046, 0.0]
['beep', 0.0, -1152.0983162043472, 0.0, 0.0, 0.0, 0.0, -3008.924783340071, 0.0]
['beep', 0.0, -1146.5103800905206, 0.0, 0.0, 0.0, 0.0, -3074.303635871844, 0.0]
['beep', 0.0, -1158.4015081407438, 0.0, 0.0, 0.0, 0.0, -3067.8663334687158, 0.0]
['beep', 0.0, -1176.0817380048918, 0.0, 0.0, 0.0, 0.0, -3005.683780394051, 0.0]
['beep', 0.0, -1175.1876682266795, 0.0, 0.0, 0.0, 0.0, -2972.5137916223757, 0.0]
['beep', 0.0, -1152.455944115632, 0.0, 0.0, 0.0, 0.0, -3011.1599577856014, 0.0]
['beep', 0.0, -1145.593958567853, 0.0, 0.0, 0.0, 0.0, -3075.4212230946096, 0.0]
['beep', 0.0, -1158.13328720728, 0.0, 0.0, 0.0, 0.0, -3066.7487462459503, 0.0]
['beep', 0.0, -1176.0593862604364, 0.0, 0.0, 0.0, 0.0, -3005.8402426052385, 0.0]
['beep', 0.0, -1175.1653164822242, 0.0, 0.0, 0.0, 0.0, -2973.765489311873, 0.0]
['beep', 0.0, -1151.9865574820708, 0.0, 0.0, 0.0, 0.0, -3011.6740479080736, 0.0]
['beep', 0.0, -1145.0128132120149, 0.0, 0.0, 0.0, 0.0, -3075.980016705992, 0.0]
['beep', 0.0, -1157.395679640255, 0.0, 0.0, 0.0, 0.0, -3069.207438136034, 0.0]
['beep', 0.0, -1176.6405316162743, 0.0, 0.0, 0.0, 0.0, -3007.1366437836464, 0.0]
['beep', 0.0, -1176.2158484716235, 0.0, 0.0, 0.0, 0.0, -2974.4583933899876, 0.0]
['beep', 0.0, -1151.3160051484115, 0.0, 0.0, 0.0, 0.0, -3011.249364763423, 0.0]
['beep', 0.0, -1144.6998887896407, 0.0, 0.0, 0.0, 0.0, -3076.8964382286595, 0.0]
['beep', 0.0, -1156.4569063731321, 0.0, 0.0, 0.0, 0.0, -3070.0568044253355, 0.0]
['beep', 0.0, -1176.4840694050872, 0.0, 0.0, 0.0, 0.0, -3008.0754170507694, 0.0]
['beep', 0.0, -1175.746461838062, 0.0, 0.0, 0.0, 0.0, -2976.5594573687863, 0.0]
['beep', 0.0, -1151.3160051484115, 0.0, 0.0, 0.0, 0.0, -3014.5574229428084, 0.0]
['beep', 0.0, -1145.236330656568, 0.0, 0.0, 0.0, 0.0, -3078.908095229637, 0.0]
['beep', 0.0, -1158.4238598851991, 0.0, 0.0, 0.0, 0.0, -3070.9508742035478, 0.0]
['beep', 0.0, -1179.4121479287326, 0.0, 0.0, 0.0, 0.0, -3009.59533567373, 0.0]
['beep', 0.0, -1179.0768717619028, 0.0, 0.0, 0.0, 0.0, -2976.4253469020546, 0.0]
['beep', 0.0, -1151.137191192769, 0.0, 0.0, 0.0, 0.0, -3013.529242697864, 0.0]
['beep', 0.0, -1144.2528539005345, 0.0, 0.0, 0.0, 0.0, -3078.818688251816, 0.0]
['beep', 0.0, -1155.495781361554, 0.0, 0.0, 0.0, 0.0, -3072.9178277156147, 0.0]
['beep', 0.0, -1177.7357670945844, 0.0, 0.0, 0.0, 0.0, -3012.568117686286, 0.0]
['beep', 0.0, -1180.0379967734812, 0.0, 0.0, 0.0, 0.0, -2975.2407044459233, 0.0]
['beep', 0.0, -1151.137191192769, 0.0, 0.0, 0.0, 0.0, -3012.0987310527244, 0.0]
['beep', 0.0, -1145.236330656568, 0.0, 0.0, 0.0, 0.0, -3078.215191151523, 0.0]
['beep', 0.0, -1156.2780924174897, 0.0, 0.0, 0.0, 0.0, -3073.1860486490787, 0.0]
['beep', 0.0, -1178.205153728146, 0.0, 0.0, 0.0, 0.0, -3011.472882207976, 0.0]
['beep', 0.0, -1179.4792031620984, 0.0, 0.0, 0.0, 0.0, -2978.504059136398, 0.0]
['beep', 0.0, -1150.1090109478248, 0.0, 0.0, 0.0, 0.0, -3012.724579897473, 0.0]
['beep', 0.0, -1143.9399294781601, 0.0, 0.0, 0.0, 0.0, -3077.3211213733107, 0.0]
['beep', 0.0, -1156.0992784618472, 0.0, 0.0, 0.0, 0.0, -3073.6107317937294, 0.0]
['beep', 0.0, -1178.8533543173498, 0.0, 0.0, 0.0, 0.0, -3011.6516961636185, 0.0]
['beep', 0.0, -1181.6473223742632, 0.0, 0.0, 0.0, 0.0, -2977.6770445915517, 0.0]
['beep', 0.0, -1151.3830603817773, 0.0, 0.0, 0.0, 0.0, -3015.1609200431017, 0.0]
['beep', 0.0, -1055.695242368608, 0.0, 0.0, 0.0, 0.0, -3100.5445838623746, 0.0]
['beep', 0.0, -1066.7817076184401, 0.0, 0.0, 0.0, 0.0, -3102.2209646965225, 0.0]
['beep', 0.0, -1093.8273184093616, 0.0, 0.0, 0.0, 0.0, -3041.446571522543, 0.0]
['beep', 0.0, -1105.0031906370152, 0.0, 0.0, 0.0, 0.0, -3002.822757103772, 0.0]
['beep', 0.0, -1063.6301116502418, 0.0, 0.0, 0.0, 0.0, -3032.4835219959646, 0.0]
['beep', 0.0, -1054.5329516569318, 0.0, 0.0, 0.0, 0.0, -3099.2928861728774, 0.0]
['beep', 0.0, -1065.530009928943, 0.0, 0.0, 0.0, 0.0, -3100.9916187514805, 0.0]
['beep', 0.0, -1092.9108968866942, 0.0, 0.0, 0.0, 0.0, -3039.7701906883945, 0.0]
['beep', 0.0, -1104.4667487700879, 0.0, 0.0, 0.0, 0.0, -3001.5487076698196, 0.0]
['beep', 0.0, -1063.0266145499486, 0.0, 0.0, 0.0, 0.0, -3033.60110921873, 0.0]
['beep', 0.0, -1053.1024400117922, 0.0, 0.0, 0.0, 0.0, -3101.013970495936, 0.0]
['beep', 0.0, -1063.9877395615267, 0.0, 0.0, 0.0, 0.0, -3102.176261207612, 0.0]
['beep', 0.0, -1092.5085654864986, 0.0, 0.0, 0.0, 0.0, -3041.9383099005595, 0.0]
['beep', 0.0, -1105.8972604152275, 0.0, 0.0, 0.0, 0.0, -3001.347541969722, 0.0]
['beep', 0.0, -1062.5125244274766, 0.0, 0.0, 0.0, 0.0, -3033.0646673518027, 0.0]
['beep', 0.0, -1053.147143500703, 0.0, 0.0, 0.0, 0.0, -3100.119900717724, 0.0]
['beep', 0.0, -1063.9877395615267, 0.0, 0.0, 0.0, 0.0, -3100.9245635181146, 0.0]
['beep', 0.0, -1090.586315463342, 0.0, 0.0, 0.0, 0.0, -3042.273586067389, 0.0]
['beep', 0.0, -1101.3598562908003, 0.0, 0.0, 0.0, 0.0, -3002.375722214666, 0.0]
['beep', 0.0, -1061.752565115996, 0.0, 0.0, 0.0, 0.0, -3032.2376528069562, 0.0]
['beep', 0.0, -1052.431887678133, 0.0, 0.0, 0.0, 0.0, -3100.209307695545, 0.0]
['beep', 0.0, -1063.6524633946972, 0.0, 0.0, 0.0, 0.0, -3100.790453051383, 0.0]
['beep', 0.0, -1090.3180945298784, 0.0, 0.0, 0.0, 0.0, -3040.7089639555174, 0.0]
['beep', 0.0, -1102.6339057247528, 0.0, 0.0, 0.0, 0.0, -3000.3864169581434, 0.0]
['beep', 0.0, -1060.657329637686, 0.0, 0.0, 0.0, 0.0, -3031.6788591955733, 0.0]
['beep', 0.0, -1050.9566725440827, 0.0, 0.0, 0.0, 0.0, -3098.6670373281286, 0.0]
['beep', 0.0, -1061.7302133715407, 0.0, 0.0, 0.0, 0.0, -3100.5445838623746, 0.0]
['beep', 0.0, -1089.625190451764, 0.0, 0.0, 0.0, 0.0, -3039.859597666216, 0.0]
['beep', 0.0, -1104.1985278366242, 0.0, 0.0, 0.0, 0.0, -2999.2911814798335, 0.0]
['beep', 0.0, -1062.5125244274766, 0.0, 0.0, 0.0, 0.0, -3031.142417328646, 0.0]
['beep', 0.0, -1052.5883498893202, 0.0, 0.0, 0.0, 0.0, -3099.6058105952516, 0.0]
['beep', 0.0, -1063.5407046724206, 0.0, 0.0, 0.0, 0.0, -3103.629124597207, 0.0]
['beep', 0.0, -1092.5756207198644, 0.0, 0.0, 0.0, 0.0, -3042.9664901455035, 0.0]
['beep', 0.0, -1106.3889987932444, 0.0, 0.0, 0.0, 0.0, -3001.079321036258, 0.0]
['beep', 0.0, -1061.6184546492643, 0.0, 0.0, 0.0, 0.0, -3032.4164667625987, 0.0]
['beep', 0.0, -1051.7613353444738, 0.0, 0.0, 0.0, 0.0, -3105.5066711314525, 0.0]
['beep', 0.0, -1063.4736494390547, 0.0, 0.0, 0.0, 0.0, -3107.875956043715, 0.0]
['beep', 0.0, -1091.4133300081885, 0.0, 0.0, 0.0, 0.0, -3047.638004736663, 0.0]
['beep', 0.0, -1106.1878330931465, 0.0, 0.0, 0.0, 0.0, -3007.7177891394845, 0.0]
['beep', 0.0, -1062.758393616485, 0.0, 0.0, 0.0, 0.0, -3037.22209182049, 0.0]
['beep', 0.0, -1052.6777568671414, 0.0, 0.0, 0.0, 0.0, -3105.7078368315506, 0.0]
['beep', 0.0, -1064.7924023619178, 0.0, 0.0, 0.0, 0.0, -3107.8089008103493, 0.0]
['beep', 0.0, -1092.3073997864008, 0.0, 0.0, 0.0, 0.0, -3048.040336136858, 0.0]
['beep', 0.0, -1107.5512895049203, 0.0, 0.0, 0.0, 0.0, -3008.254231006412, 0.0]
['beep', 0.0, -1064.501829683999, 0.0, 0.0, 0.0, 0.0, -3038.1608650876124, 0.0]
['beep', 0.0, -1054.4882481680213, 0.0, 0.0, 0.0, 0.0, -3107.004238009958, 0.0]
['beep', 0.0, -1064.8594575952839, 0.0, 0.0, 0.0, 0.0, -3110.7369793339944, 0.0]
['beep', 0.0, -1092.240344553035, 0.0, 0.0, 0.0, 0.0, -3048.621481492696, 0.0]
['beep', 0.0, -1107.461882527099, 0.0, 0.0, 0.0, 0.0, -3009.304762995811, 0.0]
['beep', 0.0, -1064.524181428454, 0.0, 0.0, 0.0, 0.0, -3039.524321499386, 0.0]
['beep', 0.0, -1054.7117656125743, 0.0, 0.0, 0.0, 0.0, -3107.250107198967, 0.0]
['beep', 0.0, -1064.8594575952839, 0.0, 0.0, 0.0, 0.0, -3111.184014223101, 0.0]
['beep', 0.0, -1094.8778503987612, 0.0, 0.0, 0.0, 0.0, -3051.236635593967, 0.0]
['beep', 0.0, -1112.4686732850878, 0.0, 0.0, 0.0, 0.0, -3009.7741496293725, 0.0]
['beep', 0.0, -1065.5523616733983, 0.0, 0.0, 0.0, 0.0, -3039.189045332557, 0.0]
['beep', 0.0, -1055.6505388796973, 0.0, 0.0, 0.0, 0.0, -3106.1995752095672, 0.0]
['beep', 0.0, -1066.5581901738872, 0.0, 0.0, 0.0, 0.0, -3110.6699241006286, 0.0]
['beep', 0.0, -1096.0177893659818, 0.0, 0.0, 0.0, 0.0, -3051.1025251272354, 0.0]
['beep', 0.0, -1113.1615773632022, 0.0, 0.0, 0.0, 0.0, -3010.757626385406, 0.0]
['beep', 0.0, -1065.7535273734961, 0.0, 0.0, 0.0, 0.0, -3040.0384116218584, 0.0]
['beep', 0.0, -1055.0246900349487, 0.0, 0.0, 0.0, 0.0, -3106.557203120852, 0.0]
['beep', 0.0, -1065.2170855065688, 0.0, 0.0, 0.0, 0.0, -3111.51929038993, 0.0]
['beep', 0.0, -1094.4084637651997, 0.0, 0.0, 0.0, 0.0, -3051.571911760797, 0.0]
['beep', 0.0, -1112.334562818356, 0.0, 0.0, 0.0, 0.0, -3008.9694868289816, 0.0]
['beep', 0.0, -1065.172382017658, 0.0, 0.0, 0.0, 0.0, -3038.205568576523, 0.0]
['beep', 0.0, -1054.0188615344598, 0.0, 0.0, 0.0, 0.0, -3106.6689618431287, 0.0]
['beep', 0.0, -1064.5465331729094, 0.0, 0.0, 0.0, 0.0, -3110.6028688672627, 0.0]
['beep', 0.0, -1094.2296498095573, 0.0, 0.0, 0.0, 0.0, -3050.879007682682, 0.0]
['beep', 0.0, -1112.3792663072666, 0.0, 0.0, 0.0, 0.0, -3009.93061184056, 0.0]
['beep', 0.0, -1065.3958994622112, 0.0, 0.0, 0.0, 0.0, -3037.959699387515, 0.0]
['beep', 0.0, -1053.7282888565408, 0.0, 0.0, 0.0, 0.0, -3105.238450197989, 0.0]
['beep', 0.0, -1064.9041610841944, 0.0, 0.0, 0.0, 0.0, -3109.217060711034, 0.0]
['beep', 0.0, -1093.8049666649065, 0.0, 0.0, 0.0, 0.0, -3051.214283849512, 0.0]
['beep', 0.0, -1114.6814959861633, 0.0, 0.0, 0.0, 0.0, -3009.952963585015, 0.0]
['beep', 0.0, -1065.9993965625044, 0.0, 0.0, 0.0, 0.0, -3037.7361819429616, 0.0]
['beep', 0.0, -1053.5718266453537, 0.0, 0.0, 0.0, 0.0, -3106.1325199762014, 0.0]
['beep', 0.0, -1065.2841407399346, 0.0, 0.0, 0.0, 0.0, -3109.9323165336036, 0.0]
['beep', 0.0, -1094.7660916764846, 0.0, 0.0, 0.0, 0.0, -3050.0966966267465, 0.0]
['beep', 0.0, -1114.815606452895, 0.0, 0.0, 0.0, 0.0, -3009.014190317892, 0.0]
['beep', 0.0, -1067.0499285519038, 0.0, 0.0, 0.0, 0.0, -3038.630251721174, 0.0]
['beep', 0.0, -1054.3541377012893, 0.0, 0.0, 0.0, 0.0, -3105.529022875908, 0.0]
['beep', 0.0, -1065.2170855065688, 0.0, 0.0, 0.0, 0.0, -3108.300639188366, 0.0]
['beep', 0.0, -1094.4755189985656, 0.0, 0.0, 0.0, 0.0, -3049.7837722043723, 0.0]
['beep', 0.0, -1114.7038477306185, 0.0, 0.0, 0.0, 0.0, -3008.1201205396796, 0.0]
['beep', 0.0, -1066.044100051415, 0.0, 0.0, 0.0, 0.0, -3036.909167398115, 0.0]
['beep', 0.0, -1052.9012743116946, 0.0, 0.0, 0.0, 0.0, -3104.2549734419554, 0.0]
['beep', 0.0, -1063.4736494390547, 0.0, 0.0, 0.0, 0.0, -3109.9993717669695, 0.0]
['beep', 0.0, -1093.0003038645154, 0.0, 0.0, 0.0, 0.0, -3051.2589873384222, 0.0]
['beep', 0.0, -1113.7427227190403, 0.0, 0.0, 0.0, 0.0, -3008.365989728688, 0.0]
['beep', 0.0, -1064.1218500282587, 0.0, 0.0, 0.0, 0.0, -3036.6409464646517, 0.0]
['beep', 0.0, -1051.8954458112057, 0.0, 0.0, 0.0, 0.0, -3105.8419472982823, 0.0]
['beep', 0.0, -1063.6748151391525, 0.0, 0.0, 0.0, 0.0, -3110.6028688672627, 0.0]
['beep', 0.0, -1092.821489908873, 0.0, 0.0, 0.0, 0.0, -3051.3930978051544, 0.0]
['beep', 0.0, -1116.0673041423922, 0.0, 0.0, 0.0, 0.0, -3009.0365420623475, 0.0]
['beep', 0.0, -1065.7758791179513, 0.0, 0.0, 0.0, 0.0, -3037.624423220685, 0.0]
['beep', 0.0, -1053.30360571189, 0.0, 0.0, 0.0, 0.0, -3105.596078109274, 0.0]
['beep', 0.0, -1063.9877395615267, 0.0, 0.0, 0.0, 0.0, -3109.150005477668, 0.0]
['beep', 0.0, -1093.1567660757025, 0.0, 0.0, 0.0, 0.0, -3051.303690827333, 0.0]
['beep', 0.0, -1116.4472837981325, 0.0, 0.0, 0.0, 0.0, -3008.1871757730455, 0.0]
['beep', 0.0, -1065.2170855065688, 0.0, 0.0, 0.0, 0.0, -3035.1880830750565, 0.0]
['beep', 0.0, -1052.5212946559543, 0.0, 0.0, 0.0, 0.0, -3103.8079385528495, 0.0]
['beep', 0.0, -1062.4454691941105, 0.0, 0.0, 0.0, 0.0, -3109.887613044693, 0.0]
['beep', 0.0, -1093.4696904980767, 0.0, 0.0, 0.0, 0.0, -3051.862484438716, 0.0]
['beep', 0.0, -1119.17419662168, 0.0, 0.0, 0.0, 0.0, -3008.634210662152, 0.0]
['beep', 0.0, -1065.5523616733983, 0.0, 0.0, 0.0, 0.0, -3036.8421121647493, 0.0]
['beep', 0.0, -1052.2977772114011, 0.0, 0.0, 0.0, 0.0, -3103.6067728527514, 0.0]
['beep', 0.0, -1063.1383732722252, 0.0, 0.0, 0.0, 0.0, -3109.6864473445953, 0.0]
['beep', 0.0, -1094.3861120207443, 0.0, 0.0, 0.0, 0.0, -3052.018946649903, 0.0]
['beep', 0.0, -1119.5765280218754, 0.0, 0.0, 0.0, 0.0, -3008.6118589176967, 0.0]
['beep', 0.0, -1066.1558587736915, 0.0, 0.0, 0.0, 0.0, -3037.758533687417, 0.0]
['beep', 0.0, -1053.1247917562475, 0.0, 0.0, 0.0, 0.0, -3103.919697275126, 0.0]
['beep', 0.0, -1063.7865738614291, 0.0, 0.0, 0.0, 0.0, -3110.9381450340925, 0.0]
['beep', 0.0, -1094.3414085318338, 0.0, 0.0, 0.0, 0.0, -3053.0918303837575, 0.0]
['beep', 0.0, -1117.721333232085, 0.0, 0.0, 0.0, 0.0, -3008.0754170507694, 0.0]
['beep', 0.0, -1065.9323413291386, 0.0, 0.0, 0.0, 0.0, -3036.5515394868303, 0.0]
['beep', 0.0, -1053.5718266453537, 0.0, 0.0, 0.0, 0.0, -3102.8244617968157, 0.0]
['beep', 0.0, -1064.0994982838033, 0.0, 0.0, 0.0, 0.0, -3110.9381450340925, 0.0]
['beep', 0.0, -1096.8448039108282, 0.0, 0.0, 0.0, 0.0, -3054.231769350978, 0.0]
['beep', 0.0, -1121.9905164230486, 0.0, 0.0, 0.0, 0.0, -3009.1706525290792, 0.0]
['beep', 0.0, -1068.949826830605, 0.0, 0.0, 0.0, 0.0, -3036.372725531188, 0.0]
['beep', 0.0, -1056.142277257714, 0.0, 0.0, 0.0, 0.0, -3103.360903663743, 0.0]
['beep', 0.0, -1065.5747134178537, 0.0, 0.0, 0.0, 0.0, -3111.6086973677516, 0.0]
['beep', 0.0, -1095.4813474990544, 0.0, 0.0, 0.0, 0.0, -3053.829437950783, 0.0]
['beep', 0.0, -1120.4705978000877, 0.0, 0.0, 0.0, 0.0, -3009.4612252069983, 0.0]
['beep', 0.0, -1068.301626241401, 0.0, 0.0, 0.0, 0.0, -3039.0325831213695, 0.0]
['beep', 0.0, -1054.600006890298, 0.0, 0.0, 0.0, 0.0, -3104.143214719679, 0.0]
['beep', 0.0, -1065.2170855065688, 0.0, 0.0, 0.0, 0.0, -3109.820557811327, 0.0]
['beep', 0.0, -1095.2354783100461, 0.0, 0.0, 0.0, 0.0, -3053.6953274840507, 0.0]
['beep', 0.0, -1120.5153012889984, 0.0, 0.0, 0.0, 0.0, -3010.0647223072915, 0.0]
['beep', 0.0, -1068.5474954304095, 0.0, 0.0, 0.0, 0.0, -3036.618594720196, 0.0]
['beep', 0.0, -1055.2258557350465, 0.0, 0.0, 0.0, 0.0, -3105.014932753436, 0.0]
['beep', 0.0, -1065.3288442288451, 0.0, 0.0, 0.0, 0.0, -3112.9050985461595, 0.0]
['beep', 0.0, -1095.0343126099483, 0.0, 0.0, 0.0, 0.0, -3055.2823013403777, 0.0]
['beep', 0.0, -1119.531824532965, 0.0, 0.0, 0.0, 0.0, -3011.7187513969843, 0.0]
['beep', 0.0, -1068.5027919414988, 0.0, 0.0, 0.0, 0.0, -3037.2891470538557, 0.0]
['beep', 0.0, -1054.6447103792084, 0.0, 0.0, 0.0, 0.0, -3104.4114356531427, 0.0]
['beep', 0.0, -1064.3230157283565, 0.0, 0.0, 0.0, 0.0, -3113.128615990712, 0.0]
['beep', 0.0, -1094.4084637651997, 0.0, 0.0, 0.0, 0.0, -3056.9363304300705, 0.0]
['beep', 0.0, -1119.4647692995989, 0.0, 0.0, 0.0, 0.0, -3011.7411031414395, 0.0]
['beep', 0.0, -1068.0110535634822, 0.0, 0.0, 0.0, 0.0, -3036.618594720196, 0.0]
['beep', 0.0, -1054.5553034013872, 0.0, 0.0, 0.0, 0.0, -3104.366732164232, 0.0]
['beep', 0.0, -1065.0829750398368, 0.0, 0.0, 0.0, 0.0, -3112.145139234679, 0.0]
['beep', 0.0, -1093.2238213090684, 0.0, 0.0, 0.0, 0.0, -3055.7069844850284, 0.0]
['beep', 0.0, -1118.302478587923, 0.0, 0.0, 0.0, 0.0, -3010.6682194075847, 0.0]
['beep', 0.0, -1068.4580884525883, 0.0, 0.0, 0.0, 0.0, -3035.053972608325, 0.0]
['beep', 0.0, -1052.9012743116946, 0.0, 0.0, 0.0, 0.0, -3104.5008426309637, 0.0]
['beep', 0.0, -1064.0324430504375, 0.0, 0.0, 0.0, 0.0, -3110.9604967785476, 0.0]
['beep', 0.0, -1092.530917230954, 0.0, 0.0, 0.0, 0.0, -3053.0024234059365, 0.0]
['beep', 0.0, -1117.1625396207023, 0.0, 0.0, 0.0, 0.0, -3007.606030417208, 0.0]
['beep', 0.0, -1067.429908207644, 0.0, 0.0, 0.0, 0.0, -3031.947080129037, 0.0]
['beep', 0.0, -1052.9906812895158, 0.0, 0.0, 0.0, 0.0, -3097.884726272193, 0.0]
['beep', 0.0, -1063.49600118351, 0.0, 0.0, 0.0, 0.0, -3107.563031621341, 0.0]
['beep', 0.0, -1092.1509375752137, 0.0, 0.0, 0.0, 0.0, -3050.0296413933806, 0.0]
['beep', 0.0, -1115.7320279755627, 0.0, 0.0, 0.0, 0.0, -3005.2367455049452, 0.0]
['beep', 0.0, -1066.8934663407167, 0.0, 0.0, 0.0, 0.0, -3031.053010350825, 0.0]
['beep', 0.0, -1052.3648324447672, 0.0, 0.0, 0.0, 0.0, -3097.795319294372, 0.0]
['beep', 0.0, -1062.3560622162893, 0.0, 0.0, 0.0, 0.0, -3107.585383365796, 0.0]
['beep', 0.0, -1090.6310189522528, 0.0, 0.0, 0.0, 0.0, -3050.0296413933806, 0.0]
['beep', 0.0, -1115.0614756419034, 0.0, 0.0, 0.0, 0.0, -3003.314495481789, 0.0]
['beep', 0.0, -1066.0217483069598, 0.0, 0.0, 0.0, 0.0, -3028.88489113866, 0.0]
['beep', 0.0, -1053.2589022229795, 0.0, 0.0, 0.0, 0.0, -3095.3589791487434, 0.0]
['beep', 0.0, -1063.3618907167781, 0.0, 0.0, 0.0, 0.0, -3104.053807741858, 0.0]
['beep', 0.0, -1090.9662951190824, 0.0, 0.0, 0.0, 0.0, -3048.2638535814112, 0.0]
['beep', 0.0, -1114.7261994750738, 0.0, 0.0, 0.0, 0.0, -3002.152204770113, 0.0]
['beep', 0.0, -1067.6534256521973, 0.0, 0.0, 0.0, 0.0, -3027.2979172823334, 0.0]
['beep', 0.0, -1053.6835853676303, 0.0, 0.0, 0.0, 0.0, -3095.2919239153775, 0.0]
['beep', 0.0, -1063.7418703725184, 0.0, 0.0, 0.0, 0.0, -3107.6077351102517, 0.0]
['beep', 0.0, -1090.8768881412611, 0.0, 0.0, 0.0, 0.0, -3051.1248768716905, 0.0]
['beep', 0.0, -1115.3520483198224, 0.0, 0.0, 0.0, 0.0, -3008.1424722841352, 0.0]
['beep', 0.0, -1069.68743439763, 0.0, 0.0, 0.0, 0.0, -3034.718696441495, 0.0]
['beep', 0.0, -1048.20740797608, 0.0, 0.0, 0.0, 0.0, -3105.081987986802, 0.0]
['beep', 0.0, -1052.2977772114011, 0.0, 0.0, 0.0, 0.0, -3127.165511508645, 0.0]
['beep', 0.0, -1078.4493182241104, 0.0, 0.0, 0.0, 0.0, -3084.8983627436596, 0.0]
['beep', 0.0, -1097.1353765887472, 0.0, 0.0, 0.0, 0.0, -3050.1414001156572, 0.0]
['beep', 0.0, -1041.434829406122, 0.0, 0.0, 0.0, 0.0, -3086.6417988111734, 0.0]
['beep', 0.0, -1032.8070560463734, 0.0, 0.0, 0.0, 0.0, -3167.0857271058235, 0.0]
['beep', 0.0, -1046.888655053217, 0.0, 0.0, 0.0, 0.0, -3188.141070382723, 0.0]
['beep', 0.0, -1074.78363213344, 0.0, 0.0, 0.0, 0.0, -3143.14700879419, 0.0]
['beep', 0.0, -1101.6057254798086, 0.0, 0.0, 0.0, 0.0, -3107.920659532626, 0.0]
['beep', 0.0, -1054.5776551458425, 0.0, 0.0, 0.0, 0.0, -3142.655270416173, 0.0]
['beep', 0.0, -1040.5184078834543, 0.0, 0.0, 0.0, 0.0, -3222.138073699245, 0.0]
['beep', 0.0, -1051.7166318555633, 0.0, 0.0, 0.0, 0.0, -3239.7959518189373, 0.0]
['beep', 0.0, -1074.8506873668061, 0.0, 0.0, 0.0, 0.0, -3186.375282570754, 0.0]
['beep', 0.0, -1098.2976673004232, 0.0, 0.0, 0.0, 0.0, -3144.711630906061, 0.0]
['beep', 0.0, -1050.3084719548788, 0.0, 0.0, 0.0, 0.0, -3172.0254626304463, 0.0]
['beep', 0.0, -1035.981003759027, 0.0, 0.0, 0.0, 0.0, -3242.9028442982253, 0.0]
['beep', 0.0, -1046.1957509751023, 0.0, 0.0, 0.0, 0.0, -3250.1448095017445, 0.0]
['beep', 0.0, -1076.236495523035, 0.0, 0.0, 0.0, 0.0, -3189.0574919053906, 0.0]
['beep', 0.0, -1102.8127196803953, 0.0, 0.0, 0.0, 0.0, -3144.465761717053, 0.0]
['beep', 0.0, -1055.11409701277, 0.0, 0.0, 0.0, 0.0, -3169.2538463179885, 0.0]
['beep', 0.0, -1040.2948904389013, 0.0, 0.0, 0.0, 0.0, -3237.6278326067727, 0.0]
['beep', 0.0, -1049.8614370657726, 0.0, 0.0, 0.0, 0.0, -3248.3119664564097, 0.0]
['beep', 0.0, -1076.3929577342221, 0.0, 0.0, 0.0, 0.0, -3190.8009279729044, 0.0]
['beep', 0.0, -1098.5658882338869, 0.0, 0.0, 0.0, 0.0, -3143.772857638938, 0.0]
['beep', 0.0, -1052.9683295450604, 0.0, 0.0, 0.0, 0.0, -3169.0526806178905, 0.0]
['beep', 0.0, -1040.5407596279097, 0.0, 0.0, 0.0, 0.0, -3238.6560128517167, 0.0]
['beep', 0.0, -1049.4591056655772, 0.0, 0.0, 0.0, 0.0, -3248.580187389873, 0.0]
['beep', 0.0, -1073.9342658441385, 0.0, 0.0, 0.0, 0.0, -3189.7056924945946, 0.0]
['beep', 0.0, -1098.7670539339847, 0.0, 0.0, 0.0, 0.0, -3144.085782061313, 0.0]
['beep', 0.0, -1053.7282888565408, 0.0, 0.0, 0.0, 0.0, -3169.2538463179885, 0.0]
['beep', 0.0, -1039.3337654273232, 0.0, 0.0, 0.0, 0.0, -3238.186626218155, 0.0]
['beep', 0.0, -1048.788553331918, 0.0, 0.0, 0.0, 0.0, -3249.362498445809, 0.0]
['beep', 0.0, -1076.1917920341245, 0.0, 0.0, 0.0, 0.0, -3191.0244454174576, 0.0]
['beep', 0.0, -1101.0916353573366, 0.0, 0.0, 0.0, 0.0, -3143.4152297276532, 0.0]
['beep', 0.0, -1053.3706609452558, 0.0, 0.0, 0.0, 0.0, -3167.9797968840357, 0.0]
['beep', 0.0, -1039.2667101939571, 0.0, 0.0, 0.0, 0.0, -3239.8630070523036, 0.0]
['beep', 0.0, -1049.079126009837, 0.0, 0.0, 0.0, 0.0, -3247.8649315673033, 0.0]
['beep', 0.0, -1074.4260042221551, 0.0, 0.0, 0.0, 0.0, -3190.242134361522, 0.0]
['beep', 0.0, -1099.7952341789287, 0.0, 0.0, 0.0, 0.0, -3144.689279161606, 0.0]
['beep', 0.0, -1053.2589022229795, 0.0, 0.0, 0.0, 0.0, -3165.7669741829604, 0.0]
['beep', 0.0, -1038.0373642489153, 0.0, 0.0, 0.0, 0.0, -3236.331431428365, 0.0]
['beep', 0.0, -1048.3862219317225, 0.0, 0.0, 0.0, 0.0, -3248.6025391343287, 0.0]
['beep', 0.0, -1074.3142454998786, 0.0, 0.0, 0.0, 0.0, -3192.1867361291334, 0.0]
['beep', 0.0, -1101.3822080352554, 0.0, 0.0, 0.0, 0.0, -3143.9963750834913, 0.0]
['beep', 0.0, -1054.756469101485, 0.0, 0.0, 0.0, 0.0, -3165.074070104846, 0.0]
['beep', 0.0, -1038.7302683270298, 0.0, 0.0, 0.0, 0.0, -3235.236195950055, 0.0]
['beep', 0.0, -1048.0956492538035, 0.0, 0.0, 0.0, 0.0, -3247.686117611661, 0.0]
['beep', 0.0, -1072.369643732267, 0.0, 0.0, 0.0, 0.0, -3188.968084927569, 0.0]
['beep', 0.0, -1096.8895073997387, 0.0, 0.0, 0.0, 0.0, -3139.749543636983, 0.0]
['beep', 0.0, -1053.30360571189, 0.0, 0.0, 0.0, 0.0, -3163.7329654375276, 0.0]
['beep', 0.0, -1038.663213093664, 0.0, 0.0, 0.0, 0.0, -3234.811512805404, 0.0]
['beep', 0.0, -1051.5154661554654, 0.0, 0.0, 0.0, 0.0, -3250.256568224021, 0.0]
['beep', 0.0, -1075.6106466782865, 0.0, 0.0, 0.0, 0.0, -3196.880602464748, 0.0]
['beep', 0.0, -1091.0333503524485, 0.0, 0.0, 0.0, 0.0, -3152.266520531955, 0.0]
['beep', 0.0, -1041.7701055729515, 0.0, 0.0, 0.0, 0.0, -3186.129413381745, 0.0]
['beep', 0.0, -1026.660326321164, 0.0, 0.0, 0.0, 0.0, -3269.9484550891466, 0.0]
['beep', 0.0, -1033.209387446569, 0.0, 0.0, 0.0, 0.0, -3291.003798366046, 0.0]
['beep', 0.0, -1055.7175941130631, 0.0, 0.0, 0.0, 0.0, -3237.873701795781, 0.0]
['beep', 0.0, -1077.1529170457027, 0.0, 0.0, 0.0, 0.0, -3193.818413474371, 0.0]
['beep', 0.0, -1030.6836403231193, 0.0, 0.0, 0.0, 0.0, -3222.3839428882534, 0.0]
['beep', 0.0, -1017.2725936499351, 0.0, 0.0, 0.0, 0.0, -3297.3740455358084, 0.0]
['beep', 0.0, -1027.755561799474, 0.0, 0.0, 0.0, 0.0, -3310.9639061646353, 0.0]
['beep', 0.0, -1052.1189632557587, 0.0, 0.0, 0.0, 0.0, -3251.4412106801524, 0.0]
['beep', 0.0, -1076.750585645507, 0.0, 0.0, 0.0, 0.0, -3201.8203379893707, 0.0]
['beep', 0.0, -1032.2259106905356, 0.0, 0.0, 0.0, 0.0, -3222.3839428882534, 0.0]
['beep', 0.0, -1017.6525733056752, 0.0, 0.0, 0.0, 0.0, -3294.0436356119676, 0.0]
['beep', 0.0, -1025.9897739875048, 0.0, 0.0, 0.0, 0.0, -3307.4323305406965, 0.0]
['beep', 0.0, -1050.7108033550744, 0.0, 0.0, 0.0, 0.0, -3248.6919461121497, 0.0]
['beep', 0.0, -1075.3200740003674, 0.0, 0.0, 0.0, 0.0, -3198.8922594657256, 0.0]
['beep', 0.0, -1031.7341723125187, 0.0, 0.0, 0.0, 0.0, -3219.657030064706, 0.0]
['beep', 0.0, -1017.1608349276585, 0.0, 0.0, 0.0, 0.0, -3292.456661755641, 0.0]
['beep', 0.0, -1027.017954232449, 0.0, 0.0, 0.0, 0.0, -3306.6276677403057, 0.0]
['beep', 0.0, -1051.850742322295, 0.0, 0.0, 0.0, 0.0, -3247.1273240002783, 0.0]
['beep', 0.0, -1074.7165769000742, 0.0, 0.0, 0.0, 0.0, -3198.5122798099856, 0.0]
['beep', 0.0, -1032.114151968259, 0.0, 0.0, 0.0, 0.0, -3220.037009720446, 0.0]
['beep', 0.0, -1017.7419802834964, 0.0, 0.0, 0.0, 0.0, -3290.7579291770376, 0.0]
['beep', 0.0, -1027.241471677002, 0.0, 0.0, 0.0, 0.0, -3304.7724729505153, 0.0]
['beep', 0.0, -1051.627224877742, 0.0, 0.0, 0.0, 0.0, -3246.5685303888954, 0.0]
['beep', 0.0, -1075.722405400563, 0.0, 0.0, 0.0, 0.0, -3198.6463902767173, 0.0]
['beep', 0.0, -1033.1870357021137, 0.0, 0.0, 0.0, 0.0, -3218.8076637754043, 0.0]
['beep', 0.0, -1019.0383814619044, 0.0, 0.0, 0.0, 0.0, -3289.193307065166, 0.0]
['beep', 0.0, -1028.7390385555075, 0.0, 0.0, 0.0, 0.0, -3303.9901618945796, 0.0]
['beep', 0.0, -1053.460067923077, 0.0, 0.0, 0.0, 0.0, -3244.6015768768284, 0.0]
['beep', 0.0, -1076.1023850563033, 0.0, 0.0, 0.0, 0.0, -3195.2489251195107, 0.0]
['beep', 0.0, -1035.0869339808148, 0.0, 0.0, 0.0, 0.0, -3215.656067807206, 0.0]
['beep', 0.0, -1019.0383814619044, 0.0, 0.0, 0.0, 0.0, -3283.8288883958926, 0.0]
['beep', 0.0, -1029.0966664667924, 0.0, 0.0, 0.0, 0.0, -3302.5596502494395, 0.0]
['beep', 0.0, -1057.9304168141387, 0.0, 0.0, 0.0, 0.0, -3242.9475477871356, 0.0]
['beep', 0.0, -1081.2879897699345, 0.0, 0.0, 0.0, 0.0, -3180.139145867723, 0.0]
['beep', 0.0, -1044.1840939741248, 0.0, 0.0, 0.0, 0.0, -3193.214916374078, 0.0]
['beep', 0.0, -1031.6671170791528, 0.0, 0.0, 0.0, 0.0, -3259.9572253176243, 0.0]
['beep', 0.0, -1043.0218032624489, 0.0, 0.0, 0.0, 0.0, -3271.378966734286, 0.0]
['beep', 0.0, -1065.8429343513174, 0.0, 0.0, 0.0, 0.0, -3210.224593904566, 0.0]
['beep', 0.0, -1088.4852514845434, 0.0, 0.0, 0.0, 0.0, -3154.1217153217453, 0.0]
['beep', 0.0, -1049.235588221024, 0.0, 0.0, 0.0, 0.0, -3173.813602186871, 0.0]
['beep', 0.0, -1034.1481607136918, 0.0, 0.0, 0.0, 0.0, -3244.7356873435606, 0.0]
['beep', 0.0, -1043.4241346626443, 0.0, 0.0, 0.0, 0.0, -3261.812420107415, 0.0]
['beep', 0.0, -1066.6699488961635, 0.0, 0.0, 0.0, 0.0, -3205.6648380356837, 0.0]
['beep', 0.0, -1090.1169288297808, 0.0, 0.0, 0.0, 0.0, -3154.456991488575, 0.0]
['beep', 0.0, -1049.1685329876582, 0.0, 0.0, 0.0, 0.0, -3176.316997565865, 0.0]
['beep', 0.0, -1034.4387333916109, 0.0, 0.0, 0.0, 0.0, -3247.1720274891886, 0.0]
['beep', 0.0, -1042.686527095619, 0.0, 0.0, 0.0, 0.0, -3263.4440974526524, 0.0]
['beep', 0.0, -1065.4406029511217, 0.0, 0.0, 0.0, 0.0, -3207.229460147555, 0.0]
['beep', 0.0, -1089.1781555626578, 0.0, 0.0, 0.0, 0.0, -3155.9322066226255, 0.0]
['beep', 0.0, -1047.7380213425186, 0.0, 0.0, 0.0, 0.0, -3175.780555698938, 0.0]
['beep', 0.0, -1032.784704301918, 0.0, 0.0, 0.0, 0.0, -3245.6074053773173, 0.0]
['beep', 0.0, -1041.568939872854, 0.0, 0.0, 0.0, 0.0, -3261.946530574147, 0.0]
['beep', 0.0, -1064.658291895186, 0.0, 0.0, 0.0, 0.0, -3205.7318932690496, 0.0]
['beep', 0.0, -1088.462899740088, 0.0, 0.0, 0.0, 0.0, -3155.172247311145, 0.0]
['beep', 0.0, -1046.6651376086638, 0.0, 0.0, 0.0, 0.0, -3176.6075702437843, 0.0]
['beep', 0.0, -1031.7788758014294, 0.0, 0.0, 0.0, 0.0, -3248.557835645418, 0.0]
['beep', 0.0, -1041.1219049837478, 0.0, 0.0, 0.0, 0.0, -3262.5053241855294, 0.0]
['beep', 0.0, -1065.1500302732027, 0.0, 0.0, 0.0, 0.0, -3205.262506635488, 0.0]
['beep', 0.0, -1089.6475421962193, 0.0, 0.0, 0.0, 0.0, -3153.786439154916, 0.0]
['beep', 0.0, -1049.0344225209265, 0.0, 0.0, 0.0, 0.0, -3174.081823120335, 0.0]
['beep', 0.0, -1033.8575880357728, 0.0, 0.0, 0.0, 0.0, -3246.523826899985, 0.0]
['beep', 0.0, -1042.7088788400745, 0.0, 0.0, 0.0, 0.0, -3263.488800941563, 0.0]
['beep', 0.0, -1064.5912366618202, 0.0, 0.0, 0.0, 0.0, -3206.1565764137003, 0.0]
['beep', 0.0, -1087.144146817225, 0.0, 0.0, 0.0, 0.0, -3154.8593228887707, 0.0]
['beep', 0.0, -1049.012070776471, 0.0, 0.0, 0.0, 0.0, -3174.8864859207256, 0.0]
['beep', 0.0, -1033.8352362913176, 0.0, 0.0, 0.0, 0.0, -3246.300309455432, 0.0]
['beep', 0.0, -1041.568939872854, 0.0, 0.0, 0.0, 0.0, -3262.281806740976, 0.0]
['beep', 0.0, -1064.4794779395436, 0.0, 0.0, 0.0, 0.0, -3206.782425258449, 0.0]
['beep', 0.0, -1086.9429811171271, 0.0, 0.0, 0.0, 0.0, -3154.81461939986, 0.0]
['beep', 0.0, -1048.2968149539013, 0.0, 0.0, 0.0, 0.0, -3174.2606370759772, 0.0]
['beep', 0.0, -1032.2259106905356, 0.0, 0.0, 0.0, 0.0, -3246.1661989887, 0.0]
['beep', 0.0, -1040.9430910281053, 0.0, 0.0, 0.0, 0.0, -3263.3993939637417, 0.0]
['beep', 0.0, -1063.9206843281609, 0.0, 0.0, 0.0, 0.0, -3208.458806092597, 0.0]
['beep', 0.0, -1087.1664985616803, 0.0, 0.0, 0.0, 0.0, -3158.81558165736, 0.0]
['beep', 0.0, -1044.273500951946, 0.0, 0.0, 0.0, 0.0, -3178.261599333477, 0.0]
['beep', 0.0, -1031.2871374234126, 0.0, 0.0, 0.0, 0.0, -3248.9601670456136, 0.0]
['beep', 0.0, -1048.9003120541945, 0.0, 0.0, 0.0, 0.0, -3268.115612043812, 0.0]
['beep', 0.0, -1074.493059455521, 0.0, 0.0, 0.0, 0.0, -3213.040913705935, 0.0]
['beep', 0.0, -1097.917687644683, 0.0, 0.0, 0.0, 0.0, -3164.3811660267315, 0.0]
['beep', 0.0, -1058.6456726367085, 0.0, 0.0, 0.0, 0.0, -3183.6036662582956, 0.0]
['beep', 0.0, -1042.8429893068062, 0.0, 0.0, 0.0, 0.0, -3253.6093298923174, 0.0]
['beep', 0.0, -1051.7389836000186, 0.0, 0.0, 0.0, 0.0, -3270.686062656172, 0.0]
['beep', 0.0, -1074.8059838778954, 0.0, 0.0, 0.0, 0.0, -3213.6444108062283, 0.0]
['beep', 0.0, -1099.303495800912, 0.0, 0.0, 0.0, 0.0, -3163.7776689264383, 0.0]
['beep', 0.0, -1059.11505927027, 0.0, 0.0, 0.0, 0.0, -3182.3519685687984, 0.0]
['beep', 0.0, -1042.530064884432, 0.0, 0.0, 0.0, 0.0, -3252.9611293031135, 0.0]
['beep', 0.0, -1050.8002103328956, 0.0, 0.0, 0.0, 0.0, -3270.8648766118145, 0.0]
['beep', 0.0, -1072.7496233880072, 0.0, 0.0, 0.0, 0.0, -3215.9913439740353, 0.0]
['beep', 0.0, -1098.2976673004232, 0.0, 0.0, 0.0, 0.0, -3167.041023616913, 0.0]
['beep', 0.0, -1059.4726871815549, 0.0, 0.0, 0.0, 0.0, -3183.782480213938, 0.0]
['beep', 0.0, -1043.334727684823, 0.0, 0.0, 0.0, 0.0, -3253.005832792024, 0.0]
['beep', 0.0, -1052.0742597668482, 0.0, 0.0, 0.0, 0.0, -3271.714242901116, 0.0]
['beep', 0.0, -1074.2024867776022, 0.0, 0.0, 0.0, 0.0, -3215.8795852517587, 0.0]
['beep', 0.0, -1098.6329434672527, 0.0, 0.0, 0.0, 0.0, -3162.883599148226, 0.0]
['beep', 0.0, -1058.9362453146275, 0.0, 0.0, 0.0, 0.0, -3181.6143610017734, 0.0]
['beep', 0.0, -1044.2958526964012, 0.0, 0.0, 0.0, 0.0, -3252.6035013918286, 0.0]
['beep', 0.0, -1051.984852789027, 0.0, 0.0, 0.0, 0.0, -3271.781298134482, 0.0]
['beep', 0.0, -1074.269542010968, 0.0, 0.0, 0.0, 0.0, -3216.6395445632393, 0.0]
['beep', 0.0, -1098.431777767155, 0.0, 0.0, 0.0, 0.0, -3164.6046834712847, 0.0]
['beep', 0.0, -1058.5562656588872, 0.0, 0.0, 0.0, 0.0, -3183.2460383470107, 0.0]
['beep', 0.0, -1042.7982858178957, 0.0, 0.0, 0.0, 0.0, -3255.464524682108, 0.0]
['beep', 0.0, -1051.2919487109125, 0.0, 0.0, 0.0, 0.0, -3274.329397002387, 0.0]
['beep', 0.0, -1073.4201757216663, 0.0, 0.0, 0.0, 0.0, -3217.06422770789, 0.0]
['beep', 0.0, -1100.041103367937, 0.0, 0.0, 0.0, 0.0, -3164.4705730045525, 0.0]
['beep', 0.0, -1059.0033005479934, 0.0, 0.0, 0.0, 0.0, -3184.810660458882, 0.0]
['beep', 0.0, -1042.2618439509683, 0.0, 0.0, 0.0, 0.0, -3255.5986351488395, 0.0]
['beep', 0.0, -1050.2861202104236, 0.0, 0.0, 0.0, 0.0, -3273.5023824575405, 0.0]
['beep', 0.0, -1074.135431544236, 0.0, 0.0, 0.0, 0.0, -3218.070056208379, 0.0]
['beep', 0.0, -1101.493966757532, 0.0, 0.0, 0.0, 0.0, -3165.8340294163263, 0.0]
['beep', 0.0, -1059.8303150928398, 0.0, 0.0, 0.0, 0.0, -3183.5366110249297, 0.0]
['beep', 0.0, -1042.3512509287896, 0.0, 0.0, 0.0, 0.0, -3253.363460703309, 0.0]
['beep', 0.0, -1050.8896173107169, 0.0, 0.0, 0.0, 0.0, -3273.8153068799147, 0.0]
['beep', 0.0, -1072.9954925770155, 0.0, 0.0, 0.0, 0.0, -3220.1040649538118, 0.0]
['beep', 0.0, -1098.5211847449762, 0.0, 0.0, 0.0, 0.0, -3167.2868928059215, 0.0]
['beep', 0.0, -1058.6009691477977, 0.0, 0.0, 0.0, 0.0, -3184.430680803142, 0.0]
['beep', 0.0, -1041.948919528594, 0.0, 0.0, 0.0, 0.0, -3253.810495592415, 0.0]
['beep', 0.0, -1051.2472452220018, 0.0, 0.0, 0.0, 0.0, -3274.0164725800128, 0.0]
['beep', 0.0, -1073.0401960659262, 0.0, 0.0, 0.0, 0.0, -3219.6346783202507, 0.0]
['beep', 0.0, -1100.8681179127834, 0.0, 0.0, 0.0, 0.0, -3166.7057474500834, 0.0]
['beep', 0.0, -1060.1879430041247, 0.0, 0.0, 0.0, 0.0, -3184.095404636312, 0.0]
['beep', 0.0, -1042.1947887176025, 0.0, 0.0, 0.0, 0.0, -3253.877550825781, 0.0]
['beep', 0.0, -1051.0237277774488, 0.0, 0.0, 0.0, 0.0, -3274.5305627024845, 0.0]
['beep', 0.0, -1074.493059455521, 0.0, 0.0, 0.0, 0.0, -3220.171120187178, 0.0]
['beep', 0.0, -1101.628077224264, 0.0, 0.0, 0.0, 0.0, -3165.878732905237, 0.0]
['beep', 0.0, -1060.299701726401, 0.0, 0.0, 0.0, 0.0, -3182.195506357611, 0.0]
['beep', 0.0, -1045.1899224746135, 0.0, 0.0, 0.0, 0.0, -3252.8270188363817, 0.0]
['beep', 0.0, -1053.0577365228817, 0.0, 0.0, 0.0, 0.0, -3273.1447545462556, 0.0]
['beep', 0.0, -1074.8506873668061, 0.0, 0.0, 0.0, 0.0, -3218.5170910974853, 0.0]
['beep', 0.0, -1101.4269115241661, 0.0, 0.0, 0.0, 0.0, -3165.208180571578, 0.0]
['beep', 0.0, -1061.1714197601582, 0.0, 0.0, 0.0, 0.0, -3181.904933679692, 0.0]
['beep', 0.0, -1043.7594108294738, 0.0, 0.0, 0.0, 0.0, -3252.0223560359905, 0.0]
['beep', 0.0, -1051.6495766221974, 0.0, 0.0, 0.0, 0.0, -3273.7706033910044, 0.0]
['beep', 0.0, -1073.464879210577, 0.0, 0.0, 0.0, 0.0, -3219.7911405314376, 0.0]
['beep', 0.0, -1098.4988330005208, 0.0, 0.0, 0.0, 0.0, -3166.303416049888, 0.0]
['beep', 0.0, -1060.6796813821413, 0.0, 0.0, 0.0, 0.0, -3181.7037679795944, 0.0]
['beep', 0.0, -1044.3182044408566, 0.0, 0.0, 0.0, 0.0, -3251.776486846982, 0.0]
['beep', 0.0, -1052.4095359336777, 0.0, 0.0, 0.0, 0.0, -3273.45767896863, 0.0]
['beep', 0.0, -1073.9566175885936, 0.0, 0.0, 0.0, 0.0, -3220.819320776382, 0.0]
['beep', 0.0, -1099.7952341789287, 0.0, 0.0, 0.0, 0.0, -3167.175134083645, 0.0]
['beep', 0.0, -1062.8701523387615, 0.0, 0.0, 0.0, 0.0, -3179.558000511885, 0.0]
['beep', 0.0, -1046.0392887639152, 0.0, 0.0, 0.0, 0.0, -3249.3848501902644, 0.0]
['beep', 0.0, -1053.147143500703, 0.0, 0.0, 0.0, 0.0, -3273.323568501898, 0.0]
['beep', 0.0, -1074.2471902665127, 0.0, 0.0, 0.0, 0.0, -3218.7629602864936, 0.0]
['beep', 0.0, -1097.5377079889427, 0.0, 0.0, 0.0, 0.0, -3165.00701487148, 0.0]
['beep', 0.0, -1061.6184546492643, 0.0, 0.0, 0.0, 0.0, -3180.854401690293, 0.0]
['beep', 0.0, -1044.8769980522393, 0.0, 0.0, 0.0, 0.0, -3249.206036234622, 0.0]
['beep', 0.0, -1052.4095359336777, 0.0, 0.0, 0.0, 0.0, -3271.781298134482, 0.0]
['beep', 0.0, -1073.5989896773087, 0.0, 0.0, 0.0, 0.0, -3218.1594631862004, 0.0]
['beep', 0.0, -1097.6271149667639, 0.0, 0.0, 0.0, 0.0, -3164.7387939380164, 0.0]
['beep', 0.0, -1060.947902315605, 0.0, 0.0, 0.0, 0.0, -3179.133317367234, 0.0]
['beep', 0.0, -1042.3959544177, 0.0, 0.0, 0.0, 0.0, -3246.948510044636, 0.0]
['beep', 0.0, -1050.3531754437895, 0.0, 0.0, 0.0, 0.0, -3271.066042311912, 0.0]
['beep', 0.0, -1071.6320361652417, 0.0, 0.0, 0.0, 0.0, -3217.4442073636305, 0.0]
['beep', 0.0, -1094.0284841094594, 0.0, 0.0, 0.0, 0.0, -3163.040061359413, 0.0]
['beep', 0.0, -1058.8691900812614, 0.0, 0.0, 0.0, 0.0, -3177.7475092110053, 0.0]
['beep', 0.0, -1042.9323962846277, 0.0, 0.0, 0.0, 0.0, -3248.244911223044, 0.0]
['beep', 0.0, -1051.1354864997252, 0.0, 0.0, 0.0, 0.0, -3270.060213811423, 0.0]
['beep', 0.0, -1072.2578850099903, 0.0, 0.0, 0.0, 0.0, -3216.997172474524, 0.0]
['beep', 0.0, -1095.3472370323227, 0.0, 0.0, 0.0, 0.0, -3161.7436601810055, 0.0]
['beep', 0.0, -1060.1879430041247, 0.0, 0.0, 0.0, 0.0, -3176.29464582141, 0.0]
['beep', 0.0, -1043.2900241959126, 0.0, 0.0, 0.0, 0.0, -3246.7249926000827, 0.0]
['beep', 0.0, -1051.336652199823, 0.0, 0.0, 0.0, 0.0, -3271.9824638345794, 0.0]
['beep', 0.0, -1069.9556553310938, 0.0, 0.0, 0.0, 0.0, -3219.0758847088678, 0.0]
['beep', 0.0, -1085.7806904054512, 0.0, 0.0, 0.0, 0.0, -3165.163477082667, 0.0]
['beep', 0.0, -1060.5455709154096, 0.0, 0.0, 0.0, 0.0, -3180.161497612178, 0.0]
['beep', 0.0, -1046.754544586485, 0.0, 0.0, 0.0, 0.0, -3251.7541351025266, 0.0]
['beep', 0.0, -1054.1976754901023, 0.0, 0.0, 0.0, 0.0, -3277.4139377372194, 0.0]
['beep', 0.0, -1071.363815231778, 0.0, 0.0, 0.0, 0.0, -3220.7299137985606, 0.0]
['beep', 0.0, -1083.7690334044735, 0.0, 0.0, 0.0, 0.0, -3164.0235381154466, 0.0]
['beep', 0.0, -1060.791440104418, 0.0, 0.0, 0.0, 0.0, -3177.9933784000136, 0.0]
['beep', 0.0, -1047.7380213425186, 0.0, 0.0, 0.0, 0.0, -3251.6423763802504, 0.0]
['beep', 0.0, -1056.2763877244458, 0.0, 0.0, 0.0, 0.0, -3277.168068548211, 0.0]
['beep', 0.0, -1075.7447571450184, 0.0, 0.0, 0.0, 0.0, -3227.390733646242, 0.0]
['beep', 0.0, -1086.5182979724764, 0.0, 0.0, 0.0, 0.0, -3187.269352348966, 0.0]
['beep', 0.0, -1068.7933646194178, 0.0, 0.0, 0.0, 0.0, -3211.1186636827783, 0.0]
['beep', 0.0, -1054.2200272345576, 0.0, 0.0, 0.0, 0.0, -3290.22148731011, 0.0]
['beep', 0.0, -1062.3113587273788, 0.0, 0.0, 0.0, 0.0, -3318.9881824240906, 0.0]
['beep', 0.0, -1081.5115072144874, 0.0, 0.0, 0.0, 0.0, -3267.713280643616, 0.0]
['beep', 0.0, -1098.1635568336912, 0.0, 0.0, 0.0, 0.0, -3212.7056375391053, 0.0]
['beep', 0.0, -1073.822507121862, 0.0, 0.0, 0.0, 0.0, -3220.3499341428205, 0.0]
['beep', 0.0, -1057.4386784361218, 0.0, 0.0, 0.0, 0.0, -3283.784184906982, 0.0]
['beep', 0.0, -1056.365794702267, 0.0, 0.0, 0.0, 0.0, -3305.3983217952637, 0.0]
['beep', 0.0, -1071.721443143063, 0.0, 0.0, 0.0, 0.0, -3250.0330507794683, 0.0]
['beep', 0.0, -1110.5464232619313, 0.0, 0.0, 0.0, 0.0, -3193.818413474371, 0.0]
['beep', 0.0, -1062.266655238468, 0.0, 0.0, 0.0, 0.0, -3210.1575386712, 0.0]
['beep', 0.0, -1038.7302683270298, 0.0, 0.0, 0.0, 0.0, -3285.46056574113, 0.0]
['beep', 0.0, -1047.1568759866807, 0.0, 0.0, 0.0, 0.0, -3322.966792937135, 0.0]
['beep', 0.0, -1072.660216410186, 0.0, 0.0, 0.0, 0.0, -3291.897868144258, 0.0]
['beep', 0.0, -1111.909879673705, 0.0, 0.0, 0.0, 0.0, -3246.903806555725, 0.0]
['beep', 0.0, -1075.4541844670994, 0.0, 0.0, 0.0, 0.0, -3257.1856090051665, 0.0]
['beep', 0.0, -1058.7797831034402, 0.0, 0.0, 0.0, 0.0, -3321.9609644366465, 0.0]
['beep', 0.0, -1068.4580884525883, 0.0, 0.0, 0.0, 0.0, -3338.165979166744, 0.0]
['beep', 0.0, -1093.335580031345, 0.0, 0.0, 0.0, 0.0, -3284.387682007275, 0.0]
['beep', 0.0, -1122.9963449235374, 0.0, 0.0, 0.0, 0.0, -3253.721088614594, 0.0]
['beep', 0.0, -1073.621341421764, 0.0, 0.0, 0.0, 0.0, -3307.32057181842, 0.0]
['beep', 0.0, -1046.3745649307448, 0.0, 0.0, 0.0, 0.0, -3405.6682474217714, 0.0]
['beep', 0.0, -1051.5601696443762, 0.0, 0.0, 0.0, 0.0, -3444.3367653294526, 0.0]
['beep', 0.0, -1074.3813007332446, 0.0, 0.0, 0.0, 0.0, -3399.5215176965617, 0.0]
['beep', 0.0, -1106.009019137504, 0.0, 0.0, 0.0, 0.0, -3355.5332846085175, 0.0]
['beep', 0.0, -1053.8623993232727, 0.0, 0.0, 0.0, 0.0, -3384.679959378238, 0.0]
['beep', 0.0, -1025.1851111871138, 0.0, 0.0, 0.0, 0.0, -3481.1724401917986, 0.0]
['beep', 0.0, -1026.3250501543343, 0.0, 0.0, 0.0, 0.0, -3534.2354815286976, 0.0]
['beep', 0.0, -1038.819675304851, 0.0, 0.0, 0.0, 0.0, -3477.3949953788515, 0.0]
['beep', 0.0, -1040.4513526500884, 0.0, 0.0, 0.0, 0.0, -3414.005448103601, 0.0]
['beep', 0.0, -1023.8663582642506, 0.0, 0.0, 0.0, 0.0, -3329.8287784849144, 0.0]
['beep', 0.0, -1016.1997099160803, 0.0, 0.0, 0.0, 0.0, -2359.8301243579535, 0.0]
['beep', 0.0, -1031.7341723125187, 0.0, 0.0, 0.0, 0.0, -1784.6079808006266, 0.0]
['beep', 0.0, -1038.5738061158427, 0.0, 0.0, 0.0, 0.0, -2811.313010610701, 0.0]
['beep', 0.0, -1037.2997566818901, 0.0, 0.0, 0.0, 0.0, -3388.8820873358354, 0.0]
['beep', 0.0, -1000.7770062419185, 0.0, 0.0, 0.0, 0.0, -2817.124464169081, 0.0]
['beep', 0.0, -566.2590940307491, 0.0, 0.0, 0.0, 0.0, -906.8326242962628, 0.0]
['beep', 0.0, -393.88244079142106, 0.0, 0.0, 0.0, 0.0, -381.0525394740748, 0.0]
['beep', 0.0, -954.2406742859691, 0.0, 0.0, 0.0, 0.0, -1842.36488847314, 0.0]
['beep', 0.0, -1053.2589022229795, 0.0, 0.0, 0.0, 0.0, -3080.7632900194276, 0.0]
['beep', 0.0, -954.3300812637904, 0.0, 0.0, 0.0, 0.0, -2240.762381644533, 0.0]
['beep', 0.0, -324.2344050686842, 0.0, 0.0, 0.0, 0.0, -471.6665114958896, 0.0]
['beep', 0.0, -124.54392010497095, 0.0, 0.0, 0.0, 0.0, -126.8908532727782, 0.0]
['beep', 0.0, -789.1730414835265, 0.0, 0.0, 0.0, 0.0, -1375.995740413158, 0.0]
['beep', 0.0, -1062.4678209385659, 0.0, 0.0, 0.0, 0.0, -2731.450227671889, 0.0]
['beep', 0.0, -937.1639415221146, 0.0, 0.0, 0.0, 0.0, -1981.4597942185158, 0.0]
['beep', 0.0, -279.95559930272094, 0.0, 0.0, 0.0, 0.0, -382.9747894972312, 0.0]
['beep', 0.0, -107.66835304121412, 0.0, 0.0, 0.0, 0.0, -110.81994900941241, 0.0]
['beep', 0.0, -763.6249975711105, 0.0, 0.0, 0.0, 0.0, -1316.2942309730329, 0.0]
['beep', 0.0, -1062.9372075721274, 0.0, 0.0, 0.0, 0.0, -2703.9575819918614, 0.0]
['beep', 0.0, -946.5516741933435, 0.0, 0.0, 0.0, 0.0, -2004.8173671743116, 0.0]
['beep', 0.0, -296.8088146220225, 0.0, 0.0, 0.0, 0.0, -405.14771999689583, 0.0]
['beep', 0.0, -131.0482777414653, 0.0, 0.0, 0.0, 0.0, -133.10463823135356, 0.0]
['beep', 0.0, -802.0029428008727, 0.0, 0.0, 0.0, 0.0, -1438.0888865100012, 0.0]
['beep', 0.0, -1061.2608267379794, 0.0, 0.0, 0.0, 0.0, -2885.47609871341, 0.0]
['beep', 0.0, -975.1172036072259, 0.0, 0.0, 0.0, 0.0, -2225.429084948192, 0.0]
['beep', 0.0, -365.36161486644926, 0.0, 0.0, 0.0, 0.0, -514.5818608500792, 0.0]
['beep', 0.0, -232.16756965727447, 0.0, 0.0, 0.0, 0.0, -230.26767137857337, 0.0]
['beep', 0.0, -905.3350574177573, 0.0, 0.0, 0.0, 0.0, -1735.4341429989508, 0.0]
['beep', 0.0, -1062.266655238468, 0.0, 0.0, 0.0, 0.0, -3076.8293829952936, 0.0]
['beep', 0.0, -1021.3853146297115, 0.0, 0.0, 0.0, 0.0, -2582.6323130884543, 0.0]
['beep', 0.0, -620.8867574795196, 0.0, 0.0, 0.0, 0.0, -865.280731353847, 0.0]
['beep', 0.0, -605.0840741496175, 0.0, 0.0, 0.0, 0.0, -611.3425625971034, 0.0]
['beep', 0.0, -1043.8041143183846, 0.0, 0.0, 0.0, 0.0, -2179.093918692341, 0.0]
['beep', 0.0, -1065.3958994622112, 0.0, 0.0, 0.0, 0.0, -3164.7387939380164, 0.0]
['beep', 0.0, -1051.5378178999208, 0.0, 0.0, 0.0, 0.0, -2885.409043480044, 0.0]
['beep', 0.0, -990.9422386815833, 0.0, 0.0, 0.0, 0.0, -1504.8535471980033, 0.0]
['beep', 0.0, -1035.8915967812059, 0.0, 0.0, 0.0, 0.0, -1284.9347335022371, 0.0]
['beep', 0.0, -1076.370605989767, 0.0, 0.0, 0.0, 0.0, -2607.263935478203, 0.0]
['beep', 0.0, -1069.6650826531747, 0.0, 0.0, 0.0, 0.0, -3180.809698201382, 0.0]
['beep', 0.0, -1058.3103964698787, 0.0, 0.0, 0.0, 0.0, -3060.713775243017, 0.0]
['beep', 0.0, -1056.9245883136498, 0.0, 0.0, 0.0, 0.0, -2169.795592998933, 0.0]
['beep', 0.0, -1067.3405012298228, 0.0, 0.0, 0.0, 0.0, -2040.8930827251772, 0.0]
['beep', 0.0, -1072.59316117682, 0.0, 0.0, 0.0, 0.0, -2973.92195152306, 0.0]
['beep', 0.0, -1073.8672106107724, 0.0, 0.0, 0.0, 0.0, -3176.562866754874, 0.0]
['beep', 0.0, -1060.59027440432, 0.0, 0.0, 0.0, 0.0, -3160.6037212137844, 0.0]
['beep', 0.0, -1050.174361488147, 0.0, 0.0, 0.0, 0.0, -2878.345892232167, 0.0]
['beep', 0.0, -1058.0198237919599, 0.0, 0.0, 0.0, 0.0, -2915.539195005798, 0.0]
['beep', 0.0, -1072.3472919878116, 0.0, 0.0, 0.0, 0.0, -3223.814454533393, 0.0]
['beep', 0.0, -1076.4153094786775, 0.0, 0.0, 0.0, 0.0, -3168.203314328589, 0.0]
['beep', 0.0, -1061.5066959269877, 0.0, 0.0, 0.0, 0.0, -3177.3898812997204, 0.0]
['beep', 0.0, -1047.6709661091527, 0.0, 0.0, 0.0, 0.0, -3243.2157687205995, 0.0]
['beep', 0.0, -1055.0246900349487, 0.0, 0.0, 0.0, 0.0, -3279.894981371758, 0.0]
['beep', 0.0, -1071.855553609795, 0.0, 0.0, 0.0, 0.0, -3228.5083208690075, 0.0]
['beep', 0.0, -1076.6835304121412, 0.0, 0.0, 0.0, 0.0, -3166.906913150181, 0.0]
['beep', 0.0, -1063.9877395615267, 0.0, 0.0, 0.0, 0.0, -3175.6687969766617, 0.0]
['beep', 0.0, -1049.0567742653816, 0.0, 0.0, 0.0, 0.0, -3242.388754175753, 0.0]
['beep', 0.0, -1055.4717249240548, 0.0, 0.0, 0.0, 0.0, -3274.4635074691187, 0.0]
['beep', 0.0, -1073.4872309550324, 0.0, 0.0, 0.0, 0.0, -3226.9436987571357, 0.0]
['beep', 0.0, -1093.8273184093616, 0.0, 0.0, 0.0, 0.0, -3173.6124364867733, 0.0]
['beep', 0.0, -1068.145164030214, 0.0, 0.0, 0.0, 0.0, -3182.3743203132535, 0.0]
['beep', 0.0, -1048.788553331918, 0.0, 0.0, 0.0, 0.0, -3241.740553586549, 0.0]
['beep', 0.0, -1055.1364487572253, 0.0, 0.0, 0.0, 0.0, -3270.842524867359, 0.0]
['beep', 0.0, -1086.2277252945573, 0.0, 0.0, 0.0, 0.0, -3232.553986615418, 0.0]
['beep', 0.0, -1151.271301659501, 0.0, 0.0, 0.0, 0.0, -3179.490945278519, 0.0]
['beep', 0.0, -1104.0867691143476, 0.0, 0.0, 0.0, 0.0, -3187.2022971156, 0.0]
['beep', 0.0, -1051.046079521904, 0.0, 0.0, 0.0, 0.0, -3243.618100120795, 0.0]
['beep', 0.0, -1056.9916435470157, 0.0, 0.0, 0.0, 0.0, -3270.7307661450823, 0.0]
['beep', 0.0, -1100.2199173235795, 0.0, 0.0, 0.0, 0.0, -3232.4869313820523, 0.0]
['beep', 0.0, -1167.23044720059, 0.0, 0.0, 0.0, 0.0, -3178.194544100111, 0.0]
['beep', 0.0, -1136.206225896624, 0.0, 0.0, 0.0, 0.0, -3182.687244735628, 0.0]
['beep', 0.0, -1061.1714197601582, 0.0, 0.0, 0.0, 0.0, -3233.6715738381836, 0.0]
['beep', 0.0, -1060.4785156820435, 0.0, 0.0, 0.0, 0.0, -3259.9572253176243, 0.0]
['beep', 0.0, -1120.4258943111772, 0.0, 0.0, 0.0, 0.0, -3220.7075620541054, 0.0]
['beep', 0.0, -1176.394662427266, 0.0, 0.0, 0.0, 0.0, -3167.3092445503767, 0.0]
['beep', 0.0, -1157.1274587067912, 0.0, 0.0, 0.0, 0.0, -3172.3160353083654, 0.0]
['beep', 0.0, -1081.8691351257723, 0.0, 0.0, 0.0, 0.0, -3224.261489422499, 0.0]
['beep', 0.0, -1070.1791727756467, 0.0, 0.0, 0.0, 0.0, -3249.8318850793703, 0.0]
['beep', 0.0, -1145.1245719342915, 0.0, 0.0, 0.0, 0.0, -3192.812584973882, 0.0]
['beep', 0.0, -1181.5132119075313, 0.0, 0.0, 0.0, 0.0, -3091.7379965469836, 0.0]
['beep', 0.0, -1165.844639044361, 0.0, 0.0, 0.0, 0.0, -3107.943011277081, 0.0]
['beep', 0.0, -1106.366647048789, 0.0, 0.0, 0.0, 0.0, -3210.1575386712, 0.0]
['beep', 0.0, -1097.0683213553812, 0.0, 0.0, 0.0, 0.0, -3247.0155652780018, 0.0]
['beep', 0.0, -1168.4821448900873, 0.0, 0.0, 0.0, 0.0, -3184.8330122033376, 0.0]
['beep', 0.0, -1180.6414938737744, 0.0, 0.0, 0.0, 0.0, -3090.1733744351122, 0.0]
['beep', 0.0, -1168.0574617454365, 0.0, 0.0, 0.0, 0.0, -3108.7700258219274, 0.0]
['beep', 0.0, -1122.5046065455206, 0.0, 0.0, 0.0, 0.0, -3217.4889108525413, 0.0]
['beep', 0.0, -1116.3131733314005, 0.0, 0.0, 0.0, 0.0, -3253.877550825781, 0.0]
['beep', 0.0, -1173.9359705371821, 0.0, 0.0, 0.0, 0.0, -3187.269352348966, 0.0]
['beep', 0.0, -1181.2896944629783, 0.0, 0.0, 0.0, 0.0, -3095.582496593296, 0.0]
['beep', 0.0, -1167.297502433956, 0.0, 0.0, 0.0, 0.0, -3116.079046258813, 0.0]
['beep', 0.0, -1116.559042520409, 0.0, 0.0, 0.0, 0.0, -3219.902899253714, 0.0]
['beep', 0.0, -1106.7913301934398, 0.0, 0.0, 0.0, 0.0, -3259.130210772778, 0.0]
['beep', 0.0, -1172.6395693587745, 0.0, 0.0, 0.0, 0.0, -3197.5735065428626, 0.0]
['beep', 0.0, -1181.3791014407996, 0.0, 0.0, 0.0, 0.0, -3102.8021100523606, 0.0]
['beep', 0.0, -1166.8728192893052, 0.0, 0.0, 0.0, 0.0, -3121.555223650363, 0.0]
['beep', 0.0, -1111.5969552513309, 0.0, 0.0, 0.0, 0.0, -3223.814454533393, 0.0]
['beep', 0.0, -1096.7777486774623, 0.0, 0.0, 0.0, 0.0, -3261.7900683629596, 0.0]
['beep', 0.0, -1170.0914704908694, 0.0, 0.0, 0.0, 0.0, -3201.9320967116473, 0.0]
['beep', 0.0, -1182.5413921524755, 0.0, 0.0, 0.0, 0.0, -3105.7972438093716, 0.0]
['beep', 0.0, -1168.7727175680063, 0.0, 0.0, 0.0, 0.0, -3122.5163486619413, 0.0]
['beep', 0.0, -1108.3783040497667, 0.0, 0.0, 0.0, 0.0, -3225.2226144340775, 0.0]
['beep', 0.0, -1084.1043095713032, 0.0, 0.0, 0.0, 0.0, -3261.387736962764, 0.0]
['beep', 0.0, -1163.4530023876432, 0.0, 0.0, 0.0, 0.0, -3205.173099657667, 0.0]
['beep', 0.0, -1183.6142758863302, 0.0, 0.0, 0.0, 0.0, -3105.4172641536315, 0.0]
['beep', 0.0, -1165.978749511093, 0.0, 0.0, 0.0, 0.0, -3125.176206252123, 0.0]
['beep', 0.0, -1099.7728824344733, 0.0, 0.0, 0.0, 0.0, -3226.5637191013957, 0.0]
['beep', 0.0, -1072.7272716435518, 0.0, 0.0, 0.0, 0.0, -3261.968882318602, 0.0]
['beep', 0.0, -1149.8631417588165, 0.0, 0.0, 0.0, 0.0, -3209.464634593086, 0.0]
['beep', 0.0, -1179.9932932845704, 0.0, 0.0, 0.0, 0.0, -3108.524156632919, 0.0]
['beep', 0.0, -1163.3412436653666, 0.0, 0.0, 0.0, 0.0, -3127.2549184864665, 0.0]
['beep', 0.0, -1094.6096294652975, 0.0, 0.0, 0.0, 0.0, -3225.0885039673453, 0.0]
['beep', 0.0, -1071.3191117428676, 0.0, 0.0, 0.0, 0.0, -3257.07385028289, 0.0]
['beep', 0.0, -1148.6337958137747, 0.0, 0.0, 0.0, 0.0, -3204.4354920906417, 0.0]
['beep', 0.0, -1180.9544182961486, 0.0, 0.0, 0.0, 0.0, -3103.8079385528495, 0.0]
['beep', 0.0, -1163.8329820433835, 0.0, 0.0, 0.0, 0.0, -3124.528005662919, 0.0]
['beep', 0.0, -1094.5425742319314, 0.0, 0.0, 0.0, 0.0, -3223.233309177555, 0.0]
['beep', 0.0, -1069.5756756753535, 0.0, 0.0, 0.0, 0.0, -3256.6268153937835, 0.0]
['beep', 0.0, -1142.6435282997525, 0.0, 0.0, 0.0, 0.0, -3208.7270270260606, 0.0]
['beep', 0.0, -1181.4685084186208, 0.0, 0.0, 0.0, 0.0, -3110.2228892115227, 0.0]
['beep', 0.0, -1160.591979097364, 0.0, 0.0, 0.0, 0.0, -3137.6484796581844, 0.0]
['beep', 0.0, -1085.7136351720853, 0.0, 0.0, 0.0, 0.0, -3227.726009813072, 0.0]
['beep', 0.0, -1065.7088238845854, 0.0, 0.0, 0.0, 0.0, -3260.337204973365, 0.0]
['beep', 0.0, -1133.0993334173363, 0.0, 0.0, 0.0, 0.0, -3218.7406085420384, 0.0]
['beep', 0.0, -1177.556953138942, 0.0, 0.0, 0.0, 0.0, -3123.9692120515365, 0.0]
['beep', 0.0, -1155.8310575283836, 0.0, 0.0, 0.0, 0.0, -3153.7640874104604, 0.0]
['beep', 0.0, -1078.0246350794596, 0.0, 0.0, 0.0, 0.0, -3232.4422278931415, 0.0]
['beep', 0.0, -1060.657329637686, 0.0, 0.0, 0.0, 0.0, -3261.2089230071215, 0.0]
['beep', 0.0, -1124.0468769129368, 0.0, 0.0, 0.0, 0.0, -3226.2507946790215, 0.0]
['beep', 0.0, -1174.4947641485649, 0.0, 0.0, 0.0, 0.0, -3175.0876516208236, 0.0]
['beep', 0.0, -1149.75138303654, 0.0, 0.0, 0.0, 0.0, -3181.8602301907817, 0.0]
['beep', 0.0, -1070.4473937091104, 0.0, 0.0, 0.0, 0.0, -3236.0185070059906, 0.0]
['beep', 0.0, -1056.656367380186, 0.0, 0.0, 0.0, 0.0, -3265.7686788760043, 0.0]
['beep', 0.0, -1110.009981395004, 0.0, 0.0, 0.0, 0.0, -3232.263413937499, 0.0]
['beep', 0.0, -1168.3703861678107, 0.0, 0.0, 0.0, 0.0, -3183.469555791564, 0.0]
['beep', 0.0, -1137.4132200972106, 0.0, 0.0, 0.0, 0.0, -3191.292666350921, 0.0]
['beep', 0.0, -1059.0256522924487, 0.0, 0.0, 0.0, 0.0, -3245.875626310781, 0.0]
['beep', 0.0, -1051.336652199823, 0.0, 0.0, 0.0, 0.0, -3277.0116063370237, 0.0]
['beep', 0.0, -1092.0838823418478, 0.0, 0.0, 0.0, 0.0, -3243.327527442876, 0.0]
['beep', 0.0, -1156.7474790510512, 0.0, 0.0, 0.0, 0.0, -3192.29849485141, 0.0]
['beep', 0.0, -1113.3403913188447, 0.0, 0.0, 0.0, 0.0, -3198.2887623654324, 0.0]
['beep', 0.0, -1047.0898207533146, 0.0, 0.0, 0.0, 0.0, -3252.0000042915353, 0.0]
['beep', 0.0, -1048.0062422759822, 0.0, 0.0, 0.0, 0.0, -3282.6889494286715, 0.0]
['beep', 0.0, -1076.9517513456049, 0.0, 0.0, 0.0, 0.0, -3246.7696960889934, 0.0]
['beep', 0.0, -1140.8553887433277, 0.0, 0.0, 0.0, 0.0, -3191.4714803065635, 0.0]
['beep', 0.0, -1093.045007353426, 0.0, 0.0, 0.0, 0.0, -3196.1206431532673, 0.0]
['beep', 0.0, -1046.106343997281, 0.0, 0.0, 0.0, 0.0, -3249.809533334915, 0.0]
['beep', 0.0, -1049.9061405546834, 0.0, 0.0, 0.0, 0.0, -3278.7550424045376, 0.0]
['beep', 0.0, -1077.7787658904513, 0.0, 0.0, 0.0, 0.0, -3241.6958500976384, 0.0]
['beep', 0.0, -1140.8553887433277, 0.0, 0.0, 0.0, 0.0, -3187.6716837491613, 0.0]
['beep', 0.0, -1093.492042242532, 0.0, 0.0, 0.0, 0.0, -3189.973913428058, 0.0]
['beep', 0.0, -1047.4250969201444, 0.0, 0.0, 0.0, 0.0, -3244.333355943365, 0.0]
['beep', 0.0, -1051.11313475527, 0.0, 0.0, 0.0, 0.0, -3276.0728330699008, 0.0]
['beep', 0.0, -1077.1529170457027, 0.0, 0.0, 0.0, 0.0, -3239.460675652108, 0.0]
['beep', 0.0, -1130.7971037384395, 0.0, 0.0, 0.0, 0.0, -3185.3247505813542, 0.0]
['beep', 0.0, -1083.7690334044735, 0.0, 0.0, 0.0, 0.0, -3190.5774105283513, 0.0]
['beep', 0.0, -1048.274463209446, 0.0, 0.0, 0.0, 0.0, -3246.322661199887, 0.0]
['beep', 0.0, -1052.1860184891248, 0.0, 0.0, 0.0, 0.0, -3279.067966826912, 0.0]
['beep', 0.0, -1073.978969333049, 0.0, 0.0, 0.0, 0.0, -3242.075829753379, 0.0]
['beep', 0.0, -1111.7981209514287, 0.0, 0.0, 0.0, 0.0, -3186.129413381745, 0.0]
['beep', 0.0, -1076.2588472674904, 0.0, 0.0, 0.0, 0.0, -3190.912686695181, 0.0]
['beep', 0.0, -1051.8954458112057, 0.0, 0.0, 0.0, 0.0, -3248.6919461121497, 0.0]
['beep', 0.0, -1055.7622976019738, 0.0, 0.0, 0.0, 0.0, -3283.493612229063, 0.0]
['beep', 0.0, -1074.5154111999764, 0.0, 0.0, 0.0, 0.0, -3245.4062396772197, 0.0]
['beep', 0.0, -1095.88367889925, 0.0, 0.0, 0.0, 0.0, -3188.9233814386585, 0.0]
['beep', 0.0, -1073.68839665513, 0.0, 0.0, 0.0, 0.0, -3191.851459962304, 0.0]
['beep', 0.0, -1055.1364487572253, 0.0, 0.0, 0.0, 0.0, -3248.714297856605, 0.0]
['beep', 0.0, -1057.7739546029513, 0.0, 0.0, 0.0, 0.0, -3281.4372517391744, 0.0]
['beep', 0.0, -1078.717539157574, 0.0, 0.0, 0.0, 0.0, -3242.5899198758507, 0.0]
['beep', 0.0, -1116.0673041423922, 0.0, 0.0, 0.0, 0.0, -3185.39180581472, 0.0]
['beep', 0.0, -1081.0421205809262, 0.0, 0.0, 0.0, 0.0, -3188.2751808494545, 0.0]
['beep', 0.0, -1056.4775534245437, 0.0, 0.0, 0.0, 0.0, -3243.3051756984205, 0.0]
['beep', 0.0, -1060.1879430041247, 0.0, 0.0, 0.0, 0.0, -3276.1845917921773, 0.0]
['beep', 0.0, -1083.433757237644, 0.0, 0.0, 0.0, 0.0, -3238.6560128517167, 0.0]
['beep', 0.0, -1134.5074933180206, 0.0, 0.0, 0.0, 0.0, -3182.6425412467174, 0.0]
['beep', 0.0, -1092.0615305973924, 0.0, 0.0, 0.0, 0.0, -3184.140108125223, 0.0]
['beep', 0.0, -1058.8021348478956, 0.0, 0.0, 0.0, 0.0, -3241.159408230711, 0.0]
['beep', 0.0, -1061.3502337158006, 0.0, 0.0, 0.0, 0.0, -3273.234161524077, 0.0]
['beep', 0.0, -1084.1937165491245, 0.0, 0.0, 0.0, 0.0, -3235.7502860725267, 0.0]
['beep', 0.0, -1136.7426677635513, 0.0, 0.0, 0.0, 0.0, -3180.29560807891, 0.0]
['beep', 0.0, -1091.7039026861075, 0.0, 0.0, 0.0, 0.0, -3182.2849133354325, 0.0]
['beep', 0.0, -1057.3269197138452, 0.0, 0.0, 0.0, 0.0, -3237.0243355064795, 0.0]
['beep', 0.0, -1061.4172889491665, 0.0, 0.0, 0.0, 0.0, -3271.6024841788394, 0.0]
['beep', 0.0, -1083.0984810708144, 0.0, 0.0, 0.0, 0.0, -3234.5432918719403, 0.0]
['beep', 0.0, -1126.751437992029, 0.0, 0.0, 0.0, 0.0, -3178.194544100111, 0.0]
['beep', 0.0, -1088.3958445067221, 0.0, 0.0, 0.0, 0.0, -3182.039044146424, 0.0]
['beep', 0.0, -1059.2491697370017, 0.0, 0.0, 0.0, 0.0, -3239.125399485278, 0.0]
['beep', 0.0, -1062.5125244274766, 0.0, 0.0, 0.0, 0.0, -3273.994120835557, 0.0]
['beep', 0.0, -1080.3939199917222, 0.0, 0.0, 0.0, 0.0, -3237.0243355064795, 0.0]
['beep', 0.0, -1094.3861120207443, 0.0, 0.0, 0.0, 0.0, -3181.457898790586, 0.0]
['beep', 0.0, -1077.041158323426, 0.0, 0.0, 0.0, 0.0, -3183.0895761358233, 0.0]
['beep', 0.0, -1059.6515011371973, 0.0, 0.0, 0.0, 0.0, -3242.6122716203063, 0.0]
['beep', 0.0, -1062.8701523387615, 0.0, 0.0, 0.0, 0.0, -3278.643283682261, 0.0]
['beep', 0.0, -1078.5163734574764, 0.0, 0.0, 0.0, 0.0, -3239.460675652108, 0.0]
['beep', 0.0, -1085.2666002829792, 0.0, 0.0, 0.0, 0.0, -3183.469555791564, 0.0]
['beep', 0.0, -1073.68839665513, 0.0, 0.0, 0.0, 0.0, -3185.145936625712, 0.0]
['beep', 0.0, -1059.3832802037336, 0.0, 0.0, 0.0, 0.0, -3246.456771666619, 0.0]
['beep', 0.0, -1063.4736494390547, 0.0, 0.0, 0.0, 0.0, -3285.348807018853, 0.0]
['beep', 0.0, -1078.0916903128254, 0.0, 0.0, 0.0, 0.0, -3241.78525707546, 0.0]
['beep', 0.0, -1084.5960479493199, 0.0, 0.0, 0.0, 0.0, -3184.2742185919547, 0.0]
['beep', 0.0, -1073.7107483995853, 0.0, 0.0, 0.0, 0.0, -3186.10706163729, 0.0]
['beep', 0.0, -1058.824486592351, 0.0, 0.0, 0.0, 0.0, -3249.4072019347195, 0.0]
['beep', 0.0, -1064.0547947948928, 0.0, 0.0, 0.0, 0.0, -3290.4450047546634, 0.0]
['beep', 0.0, -1081.2209345365686, 0.0, 0.0, 0.0, 0.0, -3245.383887932764, 0.0]
['beep', 0.0, -1087.948809617616, 0.0, 0.0, 0.0, 0.0, -3187.4481663046085, 0.0]
['beep', 0.0, -1074.5377629444317, 0.0, 0.0, 0.0, 0.0, -3190.689169250628, 0.0]
['beep', 0.0, -1059.0033005479934, 0.0, 0.0, 0.0, 0.0, -3254.682213626172, 0.0]
['beep', 0.0, -1061.6408063937195, 0.0, 0.0, 0.0, 0.0, -3296.815251924426, 0.0]
['beep', 0.0, -1076.1694402896692, 0.0, 0.0, 0.0, 0.0, -3248.781353089971, 0.0]
['beep', 0.0, -1081.6456176812194, 0.0, 0.0, 0.0, 0.0, -3184.6318465032396, 0.0]
['beep', 0.0, -1069.0615855528815, 0.0, 0.0, 0.0, 0.0, -3183.8942389362146, 0.0]
['beep', 0.0, -1054.8682278237616, 0.0, 0.0, 0.0, 0.0, -3251.530617657974, 0.0]
['beep', 0.0, -1061.886675582728, 0.0, 0.0, 0.0, 0.0, -3288.8356791538813, 0.0]
['beep', 0.0, -1078.270504268468, 0.0, 0.0, 0.0, 0.0, -3228.843597035837, 0.0]
['beep', 0.0, -1089.5134317294874, 0.0, 0.0, 0.0, 0.0, -3149.4502007305864, 0.0]
['beep', 0.0, -1084.4395857381328, 0.0, 0.0, 0.0, 0.0, -3139.883654103715, 0.0]
['beep', 0.0, -1073.5542861883982, 0.0, 0.0, 0.0, 0.0, -3187.1799453711446, 0.0]
['beep', 0.0, -1077.7787658904513, 0.0, 0.0, 0.0, 0.0, -3210.6045735603066, 0.0]
['beep', 0.0, -1095.7048649436076, 0.0, 0.0, 0.0, 0.0, -3150.970119353547, 0.0]
['beep', 0.0, -1104.9361354036494, 0.0, 0.0, 0.0, 0.0, -3059.1268013866907, 0.0]
['beep', 0.0, -1094.8331469098505, 0.0, 0.0, 0.0, 0.0, -3035.858635408716, 0.0]
['beep', 0.0, -1081.2432862810238, 0.0, 0.0, 0.0, 0.0, -3040.3736877886877, 0.0]
['beep', 0.0, -1087.2335537950462, 0.0, 0.0, 0.0, 0.0, -3058.143324630657, 0.0]
['beep', 0.0, -1104.26558306999, 0.0, 0.0, 0.0, 0.0, -3050.4319727935763, 0.0]
['beep', 0.0, -1109.6076499948085, 0.0, 0.0, 0.0, 0.0, -2952.978366968437, 0.0]
['beep', 0.0, -1099.6164202232862, 0.0, 0.0, 0.0, 0.0, -2922.535291020309, 0.0]
['beep', 0.0, -1091.3015712859121, 0.0, 0.0, 0.0, 0.0, -2623.357191486024, 0.0]
['beep', 0.0, -1102.4774435135655, 0.0, 0.0, 0.0, 0.0, -2302.542603319002, 0.0]
['beep', 0.0, -1113.429798296666, 0.0, 0.0, 0.0, 0.0, -2780.31114105119, 0.0]
['beep', 0.0, -1118.749513477029, 0.0, 0.0, 0.0, 0.0, -2880.8045841222506, 0.0]
['beep', 0.0, -1105.4502255261214, 0.0, 0.0, 0.0, 0.0, -2782.7251294523635, 0.0]
['beep', 0.0, -1057.9751203030492, 0.0, 0.0, 0.0, 0.0, -1780.8752394765902, 0.0]
['beep', 0.0, -1040.4960561389992, 0.0, 0.0, 0.0, 0.0, -1026.369753643245, 0.0]
['beep', 0.0, -1136.9661852081044, 0.0, 0.0, 0.0, 0.0, -1966.4617736890048, 0.0]
['beep', 0.0, -1128.0701909148922, 0.0, 0.0, 0.0, 0.0, -2817.124464169081, 0.0]
['beep', 0.0, -1071.855553609795, 0.0, 0.0, 0.0, 0.0, -2377.823278644476, 0.0]
['beep', 0.0, -475.4216045643812, 0.0, 0.0, 0.0, 0.0, -687.0702728116838, 0.0]
['beep', 0.0, -58.00277686152183, 0.0, 0.0, 0.0, 0.0, -54.58295995985985, 0.0]
['beep', 0.0, -573.9033906344641, 0.0, 0.0, 0.0, 0.0, -661.2540079658041, 0.0]
['beep', 0.0, -1129.7912752379507, 0.0, 0.0, 0.0, 0.0, -1759.1493438660318, 0.0]
['beep', 0.0, -888.3700833761792, 0.0, 0.0, 0.0, 0.0, -1164.011795999026, 0.0]
['beep', 0.0, -169.023891571032, 0.0, 0.0, 0.0, 0.0, -166.54284793649293, 0.0]
['beep', 0.0, -23.335221211340574, 0.0, 0.0, 0.0, 0.0, -28.67728813615896, 0.0]
['beep', 0.0, -117.34665839036208, 0.0, 0.0, 0.0, 0.0, -91.35157958883997, 0.0]
['beep', 0.0, -498.60036356453463, 0.0, 0.0, 0.0, 0.0, -377.69977780577875, 0.0]
['beep', 0.0, -220.70112475170194, 0.0, 0.0, 0.0, 0.0, -162.3407199788952, 0.0]
['beep', 0.0, -26.79974160191317, 0.0, 0.0, 0.0, 0.0, -29.951337570111463, 0.0]
['beep', 0.0, -23.402276444706494, 0.0, 0.0, 0.0, 0.0, -28.409067202695276, 0.0]
['beep', 0.0, -23.402276444706494, 0.0, 0.0, 0.0, 0.0, -28.744343369524884, 0.0]
['beep', 0.0, -23.469331678072415, 0.0, 0.0, 0.0, 0.0, -29.30313698090756, 0.0]
['beep', 0.0, -23.446979933617108, 0.0, 0.0, 0.0, 0.0, -28.96786081407795, 0.0]
['beep', 0.0, -23.558738655893645, 0.0, 0.0, 0.0, 0.0, -28.476122436061196, 0.0]
['beep', 0.0, -23.648145633714872, 0.0, 0.0, 0.0, 0.0, -28.409067202695276, 0.0]
['beep', 0.0, -23.469331678072415, 0.0, 0.0, 0.0, 0.0, -28.520825924971813, 0.0]
['beep', 0.0, -23.4246281891618, 0.0, 0.0, 0.0, 0.0, -28.76669511398019, 0.0]
['beep', 0.0, -23.446979933617108, 0.0, 0.0, 0.0, 0.0, -28.587881158337733, 0.0]
['beep', 0.0, -23.692849122625486, 0.0, 0.0, 0.0, 0.0, -28.431418947150583, 0.0]
['beep', 0.0, -23.804607844902023, 0.0, 0.0, 0.0, 0.0, -28.364363713784662, 0.0]
['beep', 0.0, -23.625793889259565, 0.0, 0.0, 0.0, 0.0, -28.364363713784662, 0.0]
['beep', 0.0, -23.402276444706494, 0.0, 0.0, 0.0, 0.0, -28.45377069160589, 0.0]
['beep', 0.0, -23.51403516698303, 0.0, 0.0, 0.0, 0.0, -28.364363713784662, 0.0]
['beep', 0.0, -23.782256100446716, 0.0, 0.0, 0.0, 0.0, -28.31966022487405, 0.0]
['beep', 0.0, -23.804607844902023, 0.0, 0.0, 0.0, 0.0, -28.342011969329356, 0.0]
['beep', 0.0, -23.7375526115361, 0.0, 0.0, 0.0, 0.0, -28.364363713784662, 0.0]
['beep', 0.0, -23.446979933617108, 0.0, 0.0, 0.0, 0.0, -28.38671545823997, 0.0]
['beep', 0.0, -23.558738655893645, 0.0, 0.0, 0.0, 0.0, -28.364363713784662, 0.0]
['beep', 0.0, -23.782256100446716, 0.0, 0.0, 0.0, 0.0, -28.31966022487405, 0.0]
['beep', 0.0, -23.782256100446716, 0.0, 0.0, 0.0, 0.0, -28.342011969329356, 0.0]
['beep', 0.0, -23.782256100446716, 0.0, 0.0, 0.0, 0.0, -28.297308480418742, 0.0]
['beep', 0.0, -23.60344214480426, 0.0, 0.0, 0.0, 0.0, -28.342011969329356, 0.0]
['beep', 0.0, -23.625793889259565, 0.0, 0.0, 0.0, 0.0, -28.364363713784662, 0.0]
['beep', 0.0, -23.804607844902023, 0.0, 0.0, 0.0, 0.0, -28.38671545823997, 0.0]
['beep', 0.0, -23.849311333812636, 0.0, 0.0, 0.0, 0.0, -28.409067202695276, 0.0]
['beep', 0.0, -23.849311333812636, 0.0, 0.0, 0.0, 0.0, -28.409067202695276, 0.0]
['beep', 0.0, -23.715200867080792, 0.0, 0.0, 0.0, 0.0, -28.364363713784662, 0.0]
['beep', 0.0, -23.7375526115361, 0.0, 0.0, 0.0, 0.0, -28.342011969329356, 0.0]
['beep', 0.0, -23.82695958935733, 0.0, 0.0, 0.0, 0.0, -28.31966022487405, 0.0]
['beep', 0.0, -23.871663078267943, 0.0, 0.0, 0.0, 0.0, -28.364363713784662, 0.0]
['beep', 0.0, -23.849311333812636, 0.0, 0.0, 0.0, 0.0, -28.364363713784662, 0.0]
['beep', 0.0, -23.782256100446716, 0.0, 0.0, 0.0, 0.0, -28.342011969329356, 0.0]
['beep', 0.0, -23.82695958935733, 0.0, 0.0, 0.0, 0.0, -28.342011969329356, 0.0]
['beep', 0.0, -23.849311333812636, 0.0, 0.0, 0.0, 0.0, -28.31966022487405, 0.0]
['beep', 0.0, -23.871663078267943, 0.0, 0.0, 0.0, 0.0, -28.342011969329356, 0.0]
['beep', 0.0, -23.82695958935733, 0.0, 0.0, 0.0, 0.0, -28.409067202695276, 0.0]
['beep', 0.0, -23.75990435599141, 0.0, 0.0, 0.0, 0.0, -28.364363713784662, 0.0]
['beep', 0.0, -23.82695958935733, 0.0, 0.0, 0.0, 0.0, -28.31966022487405, 0.0]
['beep', 0.0, -23.804607844902023, 0.0, 0.0, 0.0, 0.0, -28.342011969329356, 0.0]
['beep', 0.0, -23.849311333812636, 0.0, 0.0, 0.0, 0.0, -28.364363713784662, 0.0]
['beep', 0.0, -23.82695958935733, 0.0, 0.0, 0.0, 0.0, -28.342011969329356, 0.0]
['beep', 0.0, -23.804607844902023, 0.0, 0.0, 0.0, 0.0, -28.31966022487405, 0.0]
['beep', 0.0, -23.804607844902023, 0.0, 0.0, 0.0, 0.0, -28.31966022487405, 0.0]
['beep', 0.0, -1103.6173824807863, 0.0, 0.0, 0.0, 0.0, -2582.2523334327143, 0.0]
['beep', 0.0, -720.5755377501891, 0.0, 0.0, 0.0, 0.0, -1192.174994012713, 0.0]
['beep', 0.0, -92.84914646734553, 0.0, 0.0, 0.0, 0.0, -101.02988493798793, 0.0]
['beep', 0.0, -323.8767771573993, 0.0, 0.0, 0.0, 0.0, -383.9582662532647, 0.0]
['beep', 0.0, -1028.7390385555075, 0.0, 0.0, 0.0, 0.0, -2065.8823330262107, 0.0]
['beep', 0.0, -1102.8574231693058, 0.0, 0.0, 0.0, 0.0, -2617.4116274609123, 0.0]
['beep', 0.0, -728.6445174985549, 0.0, 0.0, 0.0, 0.0, -1219.8688053928383, 0.0]
['beep', 0.0, -96.58188779138182, 0.0, 0.0, 0.0, 0.0, -105.27671638449627, 0.0]
['beep', 0.0, -330.6717074718127, 0.0, 0.0, 0.0, 0.0, -392.6977983352898, 0.0]
['beep', 0.0, -1031.2200821900467, 0.0, 0.0, 0.0, 0.0, -2090.1339757602186, 0.0]
['beep', 0.0, -1103.4162167806885, 0.0, 0.0, 0.0, 0.0, -2646.0218603637054, 0.0]
['beep', 0.0, -739.1498373925492, 0.0, 0.0, 0.0, 0.0, -1246.5120847835642, 0.0]
['beep', 0.0, -100.76166400452423, 0.0, 0.0, 0.0, 0.0, -109.90352748674482, 0.0]
['beep', 0.0, -337.3772308084048, 0.0, 0.0, 0.0, 0.0, -400.47620540573666, 0.0]
['beep', 0.0, -1033.2317391910242, 0.0, 0.0, 0.0, 0.0, -2109.7588073919783, 0.0]
['beep', 0.0, -1104.243231325535, 0.0, 0.0, 0.0, 0.0, -2674.3638723330346, 0.0]
['beep', 0.0, -747.3305758631916, 0.0, 0.0, 0.0, 0.0, -1271.4789833401423, 0.0]
['beep', 0.0, -104.47205358410521, 0.0, 0.0, 0.0, 0.0, -114.10565544434256, 0.0]
['beep', 0.0, -343.61336751143546, 0.0, 0.0, 0.0, 0.0, -408.7463508542003, 0.0]
['beep', 0.0, -1036.5845008593203, 0.0, 0.0, 0.0, 0.0, -2133.18343558114, 0.0]
['beep', 0.0, -1105.6513912262192, 0.0, 0.0, 0.0, 0.0, -2706.8186052821407, 0.0]
['beep', 0.0, -758.1935236684709, 0.0, 0.0, 0.0, 0.0, -1302.9949430221252, 0.0]
['beep', 0.0, -109.79176876446829, 0.0, 0.0, 0.0, 0.0, -119.89475725826708, 0.0]
['beep', 0.0, -355.63860602839065, 0.0, 0.0, 0.0, 0.0, -422.8726533499543, 0.0]
['beep', 0.0, -1040.5407596279097, 0.0, 0.0, 0.0, 0.0, -2162.575979539869, 0.0]
['beep', 0.0, -1105.1149493592918, 0.0, 0.0, 0.0, 0.0, -2739.0721725311487, 0.0]
['beep', 0.0, -768.1400499510825, 0.0, 0.0, 0.0, 0.0, -1338.064830072502, 0.0]
['beep', 0.0, -115.2008909226526, 0.0, 0.0, 0.0, 0.0, -126.04148698347653, 0.0]
['beep', 0.0, -364.19932415477325, 0.0, 0.0, 0.0, 0.0, -433.42267673285926, 0.0]
['beep', 0.0, -1043.4464864070997, 0.0, 0.0, 0.0, 0.0, -2183.474860605581, 0.0]
['beep', 0.0, -1105.2937633149343, 0.0, 0.0, 0.0, 0.0, -2761.468620475366, 0.0]
['beep', 0.0, -777.639541344588, 0.0, 0.0, 0.0, 0.0, -1367.0773943754905, 0.0]
['beep', 0.0, -120.45355086964976, 0.0, 0.0, 0.0, 0.0, -131.80823705294574, 0.0]
['beep', 0.0, -372.87180100343244, 0.0, 0.0, 0.0, 0.0, -443.23509254873903, 0.0]
['beep', 0.0, -1046.0616405083706, 0.0, 0.0, 0.0, 0.0, -2203.1220439817957, 0.0]
['beep', 0.0, -1105.204356337113, 0.0, 0.0, 0.0, 0.0, -2784.669731219975, 0.0]
['beep', 0.0, -786.0885007486941, 0.0, 0.0, 0.0, 0.0, -1395.933496467292, 0.0]
['beep', 0.0, -125.77326605001284, 0.0, 0.0, 0.0, 0.0, -137.75380107805742, 0.0]
['beep', 0.0, -382.48305111921445, 0.0, 0.0, 0.0, 0.0, -455.03681362114116, 0.0]
['beep', 0.0, -1048.5873876318203, 0.0, 0.0, 0.0, 0.0, -2222.0316197909856, 0.0]
['beep', 0.0, -1105.0925976148364, 0.0, 0.0, 0.0, 0.0, -2797.767853470785, 0.0]
['beep', 0.0, -795.6103438866548, 0.0, 0.0, 0.0, 0.0, -1421.8615200354482, 0.0]
['beep', 0.0, -131.2941469304737, 0.0, 0.0, 0.0, 0.0, -143.92288254772217, 0.0]
['beep', 0.0, -390.9767140122311, 0.0, 0.0, 0.0, 0.0, -464.2904358256383, 0.0]
['beep', 0.0, -1056.499905168999, 0.0, 0.0, 0.0, 0.0, -2229.608861161335, 0.0]
['beep', 0.0, -1110.9040511732164, 0.0, 0.0, 0.0, 0.0, -2794.4374435469445, 0.0]
['beep', 0.0, -805.4898149359007, 0.0, 0.0, 0.0, 0.0, -1441.8439795784927, 0.0]
['beep', 0.0, -137.44087665568313, 0.0, 0.0, 0.0, 0.0, -148.52734190551544, 0.0]
['beep', 0.0, -402.80078682908857, 0.0, 0.0, 0.0, 0.0, -468.6266742499679, 0.0]
['beep', 0.0, -1061.238474993524, 0.0, 0.0, 0.0, 0.0, -2201.9150497812093, 0.0]
['beep', 0.0, -1110.591126750842, 0.0, 0.0, 0.0, 0.0, -2734.802989340185, 0.0]
['beep', 0.0, -816.0174865743503, 0.0, 0.0, 0.0, 0.0, -1451.0081948051686, 0.0]
['beep', 0.0, -144.48167615910486, 0.0, 0.0, 0.0, 0.0, -152.5059524185601, 0.0]
['beep', 0.0, -413.50727242318067, 0.0, 0.0, 0.0, 0.0, -470.5712760175796, 0.0]
['beep', 0.0, -1063.9877395615267, 0.0, 0.0, 0.0, 0.0, -2164.274712118472, 0.0]
['beep', 0.0, -1112.8039494519173, 0.0, 0.0, 0.0, 0.0, -2667.4795350408003, 0.0]
['beep', 0.0, -824.8017221452859, 0.0, 0.0, 0.0, 0.0, -1451.0081948051686, 0.0]
['beep', 0.0, -149.28730121699587, 0.0, 0.0, 0.0, 0.0, -155.00934779755448, 0.0]
['beep', 0.0, -418.58111841453535, 0.0, 0.0, 0.0, 0.0, -470.10188938401814, 0.0]
['beep', 0.0, -1065.8652860957725, 0.0, 0.0, 0.0, 0.0, -2143.5993484973133, 0.0]
['beep', 0.0, -1113.1168738742917, 0.0, 0.0, 0.0, 0.0, -2635.874168380996, 0.0]
['beep', 0.0, -831.9542803709842, 0.0, 0.0, 0.0, 0.0, -1460.1053547984786, 0.0]
['beep', 0.0, -155.0764030309204, 0.0, 0.0, 0.0, 0.0, -159.8373245999008, 0.0]
['beep', 0.0, -429.7346388977336, 0.0, 0.0, 0.0, 0.0, -479.64608426643423, 0.0]
['beep', 0.0, -1076.5047164564987, 0.0, 0.0, 0.0, 0.0, -2153.1658951241848, 0.0]
['beep', 0.0, -1124.0915804018475, 0.0, 0.0, 0.0, 0.0, -2647.0500406086494, 0.0]
['beep', 0.0, -847.2428735784142, 0.0, 0.0, 0.0, 0.0, -1487.6427039674168, 0.0]
['beep', 0.0, -163.3018449904734, 0.0, 0.0, 0.0, 0.0, -167.83924911490072, 0.0]
['beep', 0.0, -443.1680373153731, 0.0, 0.0, 0.0, 0.0, -495.56052631861286, 0.0]
['beep', 0.0, -1080.528030458454, 0.0, 0.0, 0.0, 0.0, -2182.960770483109, 0.0]
['beep', 0.0, -1122.303440845423, 0.0, 0.0, 0.0, 0.0, -2685.67385502742, 0.0]
['beep', 0.0, -852.0932021252158, 0.0, 0.0, 0.0, 0.0, -1517.1023031595116, 0.0]
['beep', 0.0, -168.3086357484622, 0.0, 0.0, 0.0, 0.0, -174.6565311737694, 0.0]
['beep', 0.0, -448.86773215147645, 0.0, 0.0, 0.0, 0.0, -506.93756424636416, 0.0]
['beep', 0.0, -1078.7845943909401, 0.0, 0.0, 0.0, 0.0, -2213.381494686782, 0.0]
['beep', 0.0, -1119.1294931327693, 0.0, 0.0, 0.0, 0.0, -2727.53867239221, 0.0]
['beep', 0.0, -857.569379516766, 0.0, 0.0, 0.0, 0.0, -1551.7922105541481, 0.0]
['beep', 0.0, -175.0141590850543, 0.0, 0.0, 0.0, 0.0, -183.68663593371343, 0.0]
['beep', 0.0, -456.2438078217278, 0.0, 0.0, 0.0, 0.0, -519.6110033525233, 0.0]
['beep', 0.0, -1077.3764344902556, 0.0, 0.0, 0.0, 0.0, -2241.365878744826, 0.0]
['beep', 0.0, -1115.5979175088307, 0.0, 0.0, 0.0, 0.0, -2761.2451030308134, 0.0]
['beep', 0.0, -860.6092167626879, 0.0, 0.0, 0.0, 0.0, -1577.40730969993, 0.0]
['beep', 0.0, -180.87031613234475, 0.0, 0.0, 0.0, 0.0, -191.01800811505416, 0.0]
['beep', 0.0, -465.96681665978633, 0.0, 0.0, 0.0, 0.0, -533.0667535146181, 0.0]
['beep', 0.0, -1078.046986823915, 0.0, 0.0, 0.0, 0.0, -2263.471754011125, 0.0]
['beep', 0.0, -1113.7650744634957, 0.0, 0.0, 0.0, 0.0, -2788.089548121637, 0.0]
['beep', 0.0, -867.4488505660117, 0.0, 0.0, 0.0, 0.0, -1606.7775019142034, 0.0]
['beep', 0.0, -187.95581912467708, 0.0, 0.0, 0.0, 0.0, -199.28815356351777, 0.0]
['beep', 0.0, -475.9580464313086, 0.0, 0.0, 0.0, 0.0, -545.360212965037, 0.0]
['beep', 0.0, -1080.0362920804373, 0.0, 0.0, 0.0, 0.0, -2282.426033309225, 0.0]
['beep', 0.0, -1114.9050134307163, 0.0, 0.0, 0.0, 0.0, -2810.307182110212, 0.0]
['beep', 0.0, -873.6402837801319, 0.0, 0.0, 0.0, 0.0, -1632.4596562933514, 0.0]
['beep', 0.0, -194.5942872279033, 0.0, 0.0, 0.0, 0.0, -207.22302284515177, 0.0]
['beep', 0.0, -482.976494190275, 0.0, 0.0, 0.0, 0.0, -554.5467799361683, 0.0]
['beep', 0.0, -1080.8409548808283, 0.0, 0.0, 0.0, 0.0, -2291.9925799360967, 0.0]
['beep', 0.0, -1113.2509843410235, 0.0, 0.0, 0.0, 0.0, -2821.5277578267765, 0.0]
['beep', 0.0, -880.5916763057323, 0.0, 0.0, 0.0, 0.0, -1659.1252874285326, 0.0]
['beep', 0.0, -203.33381930992834, 0.0, 0.0, 0.0, 0.0, -216.38723807182768, 0.0]
['beep', 0.0, -490.48668032725817, 0.0, 0.0, 0.0, 0.0, -562.0569660731514, 0.0]
['beep', 0.0, -1080.3268647583564, 0.0, 0.0, 0.0, 0.0, -2303.4590248416694, 0.0]
['beep', 0.0, -1110.747588962029, 0.0, 0.0, 0.0, 0.0, -2832.6589265655193, 0.0]
['beep', 0.0, -883.631513551654, 0.0, 0.0, 0.0, 0.0, -1676.8278690371358, 0.0]
['beep', 0.0, -209.8828804353333, 0.0, 0.0, 0.0, 0.0, -223.60685153089184, 0.0]
['beep', 0.0, -500.9472967323419, 0.0, 0.0, 0.0, 0.0, -576.1609168244502, 0.0]
['beep', 0.0, -1080.1033473138032, 0.0, 0.0, 0.0, 0.0, -2314.567841835957, 0.0]
['beep', 0.0, -1109.0265046389704, 0.0, 0.0, 0.0, 0.0, -2840.4596853804214, 0.0]
['beep', 0.0, -891.7451967889306, 0.0, 0.0, 0.0, 0.0, -1705.5051571732947, 0.0]
['beep', 0.0, -219.6729445067578, 0.0, 0.0, 0.0, 0.0, -234.42509584726048, 0.0]
['beep', 0.0, -512.0114102377189, 0.0, 0.0, 0.0, 0.0, -586.8897541629975, 0.0]
['beep', 0.0, -1084.0372543379372, 0.0, 0.0, 0.0, 0.0, -2322.2791936730378, 0.0]
['beep', 0.0, -1112.0216383959817, 0.0, 0.0, 0.0, 0.0, -2844.728868571385, 0.0]
['beep', 0.0, -898.0260369808718, 0.0, 0.0, 0.0, 0.0, -1717.8433201126243, 0.0]
['beep', 0.0, -226.9149097102773, 0.0, 0.0, 0.0, 0.0, -240.66123255029115, 0.0]
['beep', 0.0, -522.0249917536964, 0.0, 0.0, 0.0, 0.0, -596.1433763674946, 0.0]
['beep', 0.0, -1086.8982776282166, 0.0, 0.0, 0.0, 0.0, -2324.670830329756, 0.0]
['beep', 0.0, -1113.0945221298364, 0.0, 0.0, 0.0, 0.0, -2844.281833682279, 0.0]
['beep', 0.0, -903.8374905392517, 0.0, 0.0, 0.0, 0.0, -1738.0940005891325, 0.0]
['beep', 0.0, -235.56503481448112, 0.0, 0.0, 0.0, 0.0, -249.19959893221844, 0.0]
['beep', 0.0, -532.9326430478862, 0.0, 0.0, 0.0, 0.0, -604.7487979827879, 0.0]
['beep', 0.0, -1086.5630014613869, 0.0, 0.0, 0.0, 0.0, -2309.0022574665854, 0.0]
['beep', 0.0, -1109.8535191838168, 0.0, 0.0, 0.0, 0.0, -2803.4004930735223, 0.0]
['beep', 0.0, -907.860804541207, 0.0, 0.0, 0.0, 0.0, -1741.0220791127776, 0.0]
['beep', 0.0, -245.75743028610114, 0.0, 0.0, 0.0, 0.0, -256.7321368136569, 0.0]
['beep', 0.0, -545.293157731671, 0.0, 0.0, 0.0, 0.0, -613.7565509982767, 0.0]
['beep', 0.0, -1087.2112020505908, 0.0, 0.0, 0.0, 0.0, -2296.6864462717112, 0.0]
['beep', 0.0, -1106.366647048789, 0.0, 0.0, 0.0, 0.0, -2779.7523474398076, 0.0]
['beep', 0.0, -912.957002277017, 0.0, 0.0, 0.0, 0.0, -1752.8014484407245, 0.0]
['beep', 0.0, -257.1344682138525, 0.0, 0.0, 0.0, 0.0, -266.4774973961708, 0.0]
['beep', 0.0, -557.9889485822855, 0.0, 0.0, 0.0, 0.0, -627.033487204729, 0.0]
['beep', 0.0, -1088.0605683398926, 0.0, 0.0, 0.0, 0.0, -2315.014876725063, 0.0]
['beep', 0.0, -1104.9808388925599, 0.0, 0.0, 0.0, 0.0, -2805.9485919414274, 0.0]
['beep', 0.0, -920.8695198141957, 0.0, 0.0, 0.0, 0.0, -1786.4855273348724, 0.0]
['beep', 0.0, -271.5960468764361, 0.0, 0.0, 0.0, 0.0, -282.3472359594388, 0.0]
['beep', 0.0, -573.456355745358, 0.0, 0.0, 0.0, 0.0, -646.9935950033182, 0.0]
['beep', 0.0, -1090.273391040968, 0.0, 0.0, 0.0, 0.0, -2334.08091474544, 0.0]
['beep', 0.0, -1105.0031906370152, 0.0, 0.0, 0.0, 0.0, -2818.644382792042, 0.0]
['beep', 0.0, -925.630441383176, 0.0, 0.0, 0.0, 0.0, -1809.5972311016599, 0.0]
['beep', 0.0, -282.45899468171535, 0.0, 0.0, 0.0, 0.0, -293.4113494648158, 0.0]
['beep', 0.0, -585.6604082179557, 0.0, 0.0, 0.0, 0.0, -661.8798568105527, 0.0]
['beep', 0.0, -1092.016827108482, 0.0, 0.0, 0.0, 0.0, -2346.888464318331, 0.0]
['beep', 0.0, -1105.5396325039426, 0.0, 0.0, 0.0, 0.0, -2828.546205585743, 0.0]
['beep', 0.0, -933.4535519425335, 0.0, 0.0, 0.0, 0.0, -1835.011164547344, 0.0]
['beep', 0.0, -298.1052158004303, 0.0, 0.0, 0.0, 0.0, -308.43172173878213, 0.0]
['beep', 0.0, -601.2172223588494, 0.0, 0.0, 0.0, 0.0, -678.3977959630247, 0.0]
['beep', 0.0, -1094.140242831736, 0.0, 0.0, 0.0, 0.0, -2357.572598167968, 0.0]
['beep', 0.0, -1104.9584871481047, 0.0, 0.0, 0.0, 0.0, -2836.2352056783684, 0.0]
['beep', 0.0, -939.0861915452709, 0.0, 0.0, 0.0, 0.0, -1856.9158741135448, 0.0]
['beep', 0.0, -311.4268554957933, 0.0, 0.0, 0.0, 0.0, -321.1275125893966, 0.0]
['beep', 0.0, -611.9013562084862, 0.0, 0.0, 0.0, 0.0, -690.4677379688904, 0.0]
['beep', 0.0, -1095.593106221331, 0.0, 0.0, 0.0, 0.0, -2365.3510052384145, 0.0]
['beep', 0.0, -1104.556155747909, 0.0, 0.0, 0.0, 0.0, -2840.213816191413, 0.0]
['beep', 0.0, -944.3388514922681, 0.0, 0.0, 0.0, 0.0, -1875.1772493335307, 0.0]
['beep', 0.0, -323.5191492461144, 0.0, 0.0, 0.0, 0.0, -332.6163092394244, 0.0]
['beep', 0.0, -623.5019115807905, 0.0, 0.0, 0.0, 0.0, -702.7611974193094, 0.0]
['beep', 0.0, -1097.6271149667639, 0.0, 0.0, 0.0, 0.0, -2372.4588599752024, 0.0]
['beep', 0.0, -1105.2267080815684, 0.0, 0.0, 0.0, 0.0, -2845.6899935829633, 0.0]
['beep', 0.0, -950.4855812174775, 0.0, 0.0, 0.0, 0.0, -1894.2209356094522, 0.0]
['beep', 0.0, -339.5453500205696, 0.0, 0.0, 0.0, 0.0, -346.2061698682511, 0.0]
['beep', 0.0, -638.2317111768378, 0.0, 0.0, 0.0, 0.0, -716.9545551484293, 0.0]
['beep', 0.0, -1099.3929027787333, 0.0, 0.0, 0.0, 0.0, -2379.0973280784283, 0.0]
['beep', 0.0, -1104.3549900478113, 0.0, 0.0, 0.0, 0.0, -2849.355679673634, 0.0]
['beep', 0.0, -954.8441713862624, 0.0, 0.0, 0.0, 0.0, -1912.2811451293405, 0.0]
['beep', 0.0, -355.4821438172035, 0.0, 0.0, 0.0, 0.0, -360.24306538618396, 0.0]
['beep', 0.0, -650.6816328384439, 0.0, 0.0, 0.0, 0.0, -731.8408169556639, 0.0]
['beep', 0.0, -1098.6105917227974, 0.0, 0.0, 0.0, 0.0, -2385.624037459378, 0.0]
['beep', 0.0, -1102.9021266582165, 0.0, 0.0, 0.0, 0.0, -2850.2050459629354, 0.0]
['beep', 0.0, -963.404889512645, 0.0, 0.0, 0.0, 0.0, -1933.6270610841586, 0.0]
['beep', 0.0, -379.9349522513094, 0.0, 0.0, 0.0, 0.0, -378.66090281735694, 0.0]
['beep', 0.0, -673.838040094142, 0.0, 0.0, 0.0, 0.0, -750.772744509309, 0.0]
['beep', 0.0, -1108.0877313718477, 0.0, 0.0, 0.0, 0.0, -2383.4559182472135, 0.0]
['beep', 0.0, -1109.8088156949063, 0.0, 0.0, 0.0, 0.0, -2837.1516272010363, 0.0]
['beep', 0.0, -972.2338285724913, 0.0, 0.0, 0.0, 0.0, -1948.0215845133764, 0.0]
['beep', 0.0, -400.49855715019197, 0.0, 0.0, 0.0, 0.0, -395.20119371428416, 0.0]
['beep', 0.0, -689.5289647017676, 0.0, 0.0, 0.0, 0.0, -767.4247941285126, 0.0]
['beep', 0.0, -1109.8311674393615, 0.0, 0.0, 0.0, 0.0, -2391.301380551026, 0.0]
['beep', 0.0, -1109.7417604615403, 0.0, 0.0, 0.0, 0.0, -2836.8163510342065, 0.0]
['beep', 0.0, -979.6322559871979, 0.0, 0.0, 0.0, 0.0, -1970.7309568799685, 0.0]
['beep', 0.0, -426.13600804042915, 0.0, 0.0, 0.0, 0.0, -418.24584224770575, 0.0]
['beep', 0.0, -706.158662576516, 0.0, 0.0, 0.0, 0.0, -786.8708118046299, 0.0]
['beep', 0.0, -1110.7028854731186, 0.0, 0.0, 0.0, 0.0, -2404.0865783794616, 0.0]
['beep', 0.0, -1110.2334988395571, 0.0, 0.0, 0.0, 0.0, -2845.064144738215, 0.0]
['beep', 0.0, -989.0646921473375, 0.0, 0.0, 0.0, 0.0, -1998.5365269823703, 0.0]
['beep', 0.0, -454.05333686510767, 0.0, 0.0, 0.0, 0.0, -447.1913513173284, 0.0]
['beep', 0.0, -730.6338227550773, 0.0, 0.0, 0.0, 0.0, -815.8386726187077, 0.0]
['beep', 0.0, -1113.3627430633, 0.0, 0.0, 0.0, 0.0, -2415.6424302628557, 0.0]
['beep', 0.0, -1110.0323331394593, 0.0, 0.0, 0.0, 0.0, -2849.646252351553, 0.0]
['beep', 0.0, -996.1278433952145, 0.0, 0.0, 0.0, 0.0, -2024.0398674058758, 0.0]
['beep', 0.0, -484.4964128132359, 0.0, 0.0, 0.0, 0.0, -481.2777616116717, 0.0]
['beep', 0.0, -753.9019887330519, 0.0, 0.0, 0.0, 0.0, -846.9746526449505, 0.0]
['beep', 0.0, -1116.1790628646688, 0.0, 0.0, 0.0, 0.0, -2432.942680471263, 0.0]
['beep', 0.0, -1110.1217401172805, 0.0, 0.0, 0.0, 0.0, -2856.798810577251, 0.0]
['beep', 0.0, -1002.0957591647815, 0.0, 0.0, 0.0, 0.0, -2047.3974403616717, 0.0]
['beep', 0.0, -507.8092822801212, 0.0, 0.0, 0.0, 0.0, -509.2174421808055, 0.0]
['beep', 0.0, -770.8222592857194, 0.0, 0.0, 0.0, 0.0, -870.0416529228274, 0.0]
['beep', 0.0, -1116.3578768203113, 0.0, 0.0, 0.0, 0.0, -2441.749267786654, 0.0]
['beep', 0.0, -1109.3841325502553, 0.0, 0.0, 0.0, 0.0, -2856.195313476958, 0.0]
['beep', 0.0, -1006.7449220114854, 0.0, 0.0, 0.0, 0.0, -2065.6588155816576, 0.0]
['beep', 0.0, -527.523520889702, 0.0, 0.0, 0.0, 0.0, -534.1396372484729, 0.0]
['beep', 0.0, -786.0885007486941, 0.0, 0.0, 0.0, 0.0, -888.571249076277, 0.0]
['beep', 0.0, -1117.5648710208977, 0.0, 0.0, 0.0, 0.0, -2448.6783085677994, 0.0]
['beep', 0.0, -1109.8088156949063, 0.0, 0.0, 0.0, 0.0, -2858.497543155854, 0.0]
['beep', 0.0, -1011.6846575361083, 0.0, 0.0, 0.0, 0.0, -2080.9697605335427, 0.0]
['beep', 0.0, -542.3427274635706, 0.0, 0.0, 0.0, 0.0, -552.4010124684587, 0.0]
['beep', 0.0, -795.2974194642806, 0.0, 0.0, 0.0, 0.0, -900.6411910821428, 0.0]
['beep', 0.0, -1117.5648710208977, 0.0, 0.0, 0.0, 0.0, -2451.718145813721, 0.0]
['beep', 0.0, -1110.144091861736, 0.0, 0.0, 0.0, 0.0, -2858.251673966846, 0.0]
['beep', 0.0, -1015.5068058379658, 0.0, 0.0, 0.0, 0.0, -2095.3642839627605, 0.0]
['beep', 0.0, -556.2455125147716, 0.0, 0.0, 0.0, 0.0, -571.4446987443804, 0.0]
['beep', 0.0, -801.1982800004816, 0.0, 0.0, 0.0, 0.0, -909.9395167755505, 0.0]
['beep', 0.0, -1110.8146441953952, 0.0, 0.0, 0.0, 0.0, -2465.2185994647266, 0.0]
['beep', 0.0, -1099.3929027787333, 0.0, 0.0, 0.0, 0.0, -2888.8065086372508, 0.0]
['beep', 0.0, -1014.2327564040132, 0.0, 0.0, 0.0, 0.0, -2128.9366041346316, 0.0]
['beep', 0.0, -569.7906696546877, 0.0, 0.0, 0.0, 0.0, -595.6739897339332, 0.0]
['beep', 0.0, -808.0155620593503, 0.0, 0.0, 0.0, 0.0, -932.2242059974917, 0.0]
['beep', 0.0, -1104.8243766813728, 0.0, 0.0, 0.0, 0.0, -2517.0969983454943, 0.0]
['beep', 0.0, -1095.1013678433142, 0.0, 0.0, 0.0, 0.0, -2966.6129310861747, 0.0]
['beep', 0.0, -1008.8012825013736, 0.0, 0.0, 0.0, 0.0, -2181.6643693047013, 0.0]
['beep', 0.0, -583.1793645834166, 0.0, 0.0, 0.0, 0.0, -626.1394174265167, 0.0]
['beep', 0.0, -819.8843383651183, 0.0, 0.0, 0.0, 0.0, -961.9073226341394, 0.0]
['beep', 0.0, -1100.3540277903114, 0.0, 0.0, 0.0, 0.0, -2565.3097111355914, 0.0]
['beep', 0.0, -1094.5649259763868, 0.0, 0.0, 0.0, 0.0, -3029.3319260277663, 0.0]
['beep', 0.0, -1016.5796895718205, 0.0, 0.0, 0.0, 0.0, -2231.307593739938, 0.0]
['beep', 0.0, -608.7944637291985, 0.0, 0.0, 0.0, 0.0, -663.7574033447985, 0.0]
['beep', 0.0, -838.7268589409422, 0.0, 0.0, 0.0, 0.0, -988.2600293469465, 0.0]
['beep', 0.0, -1110.4123127951996, 0.0, 0.0, 0.0, 0.0, -2592.2882666931473, 0.0]
['beep', 0.0, -1100.5104900014985, 0.0, 0.0, 0.0, 0.0, -3060.311443842822, 0.0]
['beep', 0.0, -1024.1569309421695, 0.0, 0.0, 0.0, 0.0, -2258.1743905752173, 0.0]
['beep', 0.0, -621.5796615576342, 0.0, 0.0, 0.0, 0.0, -681.1023570421169, 0.0]
['beep', 0.0, -849.0980683682047, 0.0, 0.0, 0.0, 0.0, -1002.565145798343, 0.0]
['beep', 0.0, -1114.5473855194314, 0.0, 0.0, 0.0, 0.0, -2599.2173074742923, 0.0]
['beep', 0.0, -1103.8408999253393, 0.0, 0.0, 0.0, 0.0, -3058.411545564121, 0.0]
['beep', 0.0, -1029.1190182112477, 0.0, 0.0, 0.0, 0.0, -2272.1442308597843, 0.0]
['beep', 0.0, -638.6340425770334, 0.0, 0.0, 0.0, 0.0, -703.5211567307898, 0.0]
['beep', 0.0, -859.536333028833, 0.0, 0.0, 0.0, 0.0, -1016.3785238717228, 0.0]
['beep', 0.0, -1114.2121093526018, 0.0, 0.0, 0.0, 0.0, -2606.034589533161, 0.0]
['beep', 0.0, -1103.304458058412, 0.0, 0.0, 0.0, 0.0, -3062.345452588255, 0.0]
['beep', 0.0, -1032.404724646178, 0.0, 0.0, 0.0, 0.0, -2287.321065344938, 0.0]
['beep', 0.0, -655.9119410409858, 0.0, 0.0, 0.0, 0.0, -725.2917558302589, 0.0]
['beep', 0.0, -872.9920831909279, 0.0, 0.0, 0.0, 0.0, -1034.528140369432, 0.0]
['beep', 0.0, -1114.368571563789, 0.0, 0.0, 0.0, 0.0, -2610.7955111021415, 0.0]
['beep', 0.0, -1101.650428968719, 0.0, 0.0, 0.0, 0.0, -3064.7147375005175, 0.0]
['beep', 0.0, -1035.3551549142785, 0.0, 0.0, 0.0, 0.0, -2307.795263265999, 0.0]
['beep', 0.0, -673.8827435830526, 0.0, 0.0, 0.0, 0.0, -750.9068549760408, 0.0]
['beep', 0.0, -882.6927402845312, 0.0, 0.0, 0.0, 0.0, -1050.5766928883424, 0.0]
['beep', 0.0, -1113.206280852113, 0.0, 0.0, 0.0, 0.0, -2616.428150704879, 0.0]
['beep', 0.0, -1102.0304086244594, 0.0, 0.0, 0.0, 0.0, -3064.17829563359, 0.0]
['beep', 0.0, -1039.4455241495996, 0.0, 0.0, 0.0, 0.0, -2324.044981485007, 0.0]
['beep', 0.0, -691.2500490248262, 0.0, 0.0, 0.0, 0.0, -774.1079657206495, 0.0]
['beep', 0.0, -896.6178770801876, 0.0, 0.0, 0.0, 0.0, -1068.9051233416944, 0.0]
['beep', 0.0, -1114.4132750526994, 0.0, 0.0, 0.0, 0.0, -2624.4077234754236, 0.0]
['beep', 0.0, -1101.0022283795154, 0.0, 0.0, 0.0, 0.0, -3069.721528258506, 0.0]
['beep', 0.0, -1041.7924573174068, 0.0, 0.0, 0.0, 0.0, -2345.659118373289, 0.0]
['beep', 0.0, -710.1372730895607, 0.0, 0.0, 0.0, 0.0, -800.7735968558309, 0.0]
['beep', 0.0, -908.4195981525896, 0.0, 0.0, 0.0, 0.0, -1089.111100329292, 0.0]
['beep', 0.0, -1114.1897576081465, 0.0, 0.0, 0.0, 0.0, -2632.7225724127975, 0.0]
['beep', 0.0, -1101.8068911799064, 0.0, 0.0, 0.0, 0.0, -3071.107336414735, 0.0]
['beep', 0.0, -1046.4863236530214, 0.0, 0.0, 0.0, 0.0, -2364.3451767379256, 0.0]
['beep', 0.0, -732.6678315005103, 0.0, 0.0, 0.0, 0.0, -830.702582681487, 0.0]
['beep', 0.0, -924.3787436936789, 0.0, 0.0, 0.0, 0.0, -1112.5357285184537, 0.0]
['beep', 0.0, -1114.4579785416101, 0.0, 0.0, 0.0, 0.0, -2641.685621939376, 0.0]
['beep', 0.0, -1101.3598562908003, 0.0, 0.0, 0.0, 0.0, -3072.1578684041347, 0.0]
['beep', 0.0, -1049.8390853213175, 0.0, 0.0, 0.0, 0.0, -2382.047758346529, 0.0]
['beep', 0.0, -749.6328055420882, 0.0, 0.0, 0.0, 0.0, -855.2895015823248, 0.0]
['beep', 0.0, -934.504083931933, 0.0, 0.0, 0.0, 0.0, -1128.2266531260793, 0.0]
['beep', 0.0, -1116.849615198328, 0.0, 0.0, 0.0, 0.0, -2648.100572598049, 0.0]
['beep', 0.0, -1102.9915336360377, 0.0, 0.0, 0.0, 0.0, -3074.6389120386734, 0.0]
['beep', 0.0, -1053.3483092008007, 0.0, 0.0, 0.0, 0.0, -2398.1186626098947, 0.0]
['beep', 0.0, -767.0001109838619, 0.0, 0.0, 0.0, 0.0, -878.1776879045592, 0.0]
['beep', 0.0, -945.7470113929525, 0.0, 0.0, 0.0, 0.0, -1144.4540196006321, 0.0]
['beep', 0.0, -1117.1178361317916, 0.0, 0.0, 0.0, 0.0, -2653.710860456331, 0.0]
['beep', 0.0, -1104.6455627257303, 0.0, 0.0, 0.0, 0.0, -3075.5106300724306, 0.0]
['beep', 0.0, -1058.0645272808704, 0.0, 0.0, 0.0, 0.0, -2415.910651196319, 0.0]
['beep', 0.0, -786.0885007486941, 0.0, 0.0, 0.0, 0.0, -905.3127056733019, 0.0]
['beep', 0.0, -958.599264454754, 0.0, 0.0, 0.0, 0.0, -1167.23044720059, 0.0]
['beep', 0.0, -1117.944850676638, 0.0, 0.0, 0.0, 0.0, -2665.356119317546, 0.0]
['beep', 0.0, -1103.751492947518, 0.0, 0.0, 0.0, 0.0, -3080.651531297151, 0.0]
['beep', 0.0, -1060.3891087042223, 0.0, 0.0, 0.0, 0.0, -2433.590881060467, 0.0]
['beep', 0.0, -804.8416143466967, 0.0, 0.0, 0.0, 0.0, -932.5594821643213, 0.0]
['beep', 0.0, -970.2221715715136, 0.0, 0.0, 0.0, 0.0, -1185.5588776539419, 0.0]
['beep', 0.0, -1117.073132642881, 0.0, 0.0, 0.0, 0.0, -2669.1335641304927, 0.0]
['beep', 0.0, -1103.9750103920712, 0.0, 0.0, 0.0, 0.0, -3077.7011010290507, 0.0]
['beep', 0.0, -1062.4007657052, 0.0, 0.0, 0.0, 0.0, -2449.10299171245, 0.0]
['beep', 0.0, -819.9737453429395, 0.0, 0.0, 0.0, 0.0, -955.9617586090278, 0.0]
['beep', 0.0, -979.5428490093767, 0.0, 0.0, 0.0, 0.0, -1205.3848749857993, 0.0]
['beep', 0.0, -1115.1508826197246, 0.0, 0.0, 0.0, 0.0, -2677.9625031903392, 0.0]
['beep', 0.0, -1101.8962981577276, 0.0, 0.0, 0.0, 0.0, -3078.5504673183523, 0.0]
['beep', 0.0, -1063.3171872278676, 0.0, 0.0, 0.0, 0.0, -2464.749212831165, 0.0]
['beep', 0.0, -835.3070420392802, 0.0, 0.0, 0.0, 0.0, -979.7440147094745, 0.0]
['beep', 0.0, -989.6011340142649, 0.0, 0.0, 0.0, 0.0, -1221.8804623938158, 0.0]
['beep', 0.0, -1114.6144407527972, 0.0, 0.0, 0.0, 0.0, -2683.572791048621, 0.0]
['beep', 0.0, -1102.5221470024762, 0.0, 0.0, 0.0, 0.0, -3079.891571985671, 0.0]
['beep', 0.0, -1066.044100051415, 0.0, 0.0, 0.0, 0.0, -2477.9814455487067, 0.0]
['beep', 0.0, -848.9639579014729, 0.0, 0.0, 0.0, 0.0, -1000.3970265861782, 0.0]
['beep', 0.0, -996.1278433952145, 0.0, 0.0, 0.0, 0.0, -1233.0563346214694, 0.0]
['beep', 0.0, -1114.2121093526018, 0.0, 0.0, 0.0, 0.0, -2685.7185585163306, 0.0]
['beep', 0.0, -1102.0304086244594, 0.0, 0.0, 0.0, 0.0, -3082.7302435314946, 0.0]
['beep', 0.0, -1067.1616872741804, 0.0, 0.0, 0.0, 0.0, -2497.271001013637, 0.0]
['beep', 0.0, -867.1135743991822, 0.0, 0.0, 0.0, 0.0, -1028.2473001774908, 0.0]
['beep', 0.0, -1011.3270296248234, 0.0, 0.0, 0.0, 0.0, -1262.3818233468323, 0.0]
['beep', 0.0, -1116.1790628646688, 0.0, 0.0, 0.0, 0.0, -2697.3414656330906, 0.0]
['beep', 0.0, -1103.0362371249482, 0.0, 0.0, 0.0, 0.0, -3080.271551641411, 0.0]
['beep', 0.0, -1070.7379663870295, 0.0, 0.0, 0.0, 0.0, -2512.1572628208714, 0.0]
['beep', 0.0, -887.0736821977714, 0.0, 0.0, 0.0, 0.0, -1059.7632598594737, 0.0]
['beep', 0.0, -1022.2123291745579, 0.0, 0.0, 0.0, 0.0, -1282.878373012349, 0.0]
['beep', 0.0, -1115.9555454201156, 0.0, 0.0, 0.0, 0.0, -2703.130567447015, 0.0]
['beep', 0.0, -1103.2150510805907, 0.0, 0.0, 0.0, 0.0, -3082.506726086942, 0.0]
['beep', 0.0, -1073.2413617660238, 0.0, 0.0, 0.0, 0.0, -2530.619803740955, 0.0]
['beep', 0.0, -902.764606805397, 0.0, 0.0, 0.0, 0.0, -1085.847745638817, 0.0]
['beep', 0.0, -1030.884806023217, 0.0, 0.0, 0.0, 0.0, -1299.6645330982844, 0.0]
['beep', 0.0, -1115.687324486652, 0.0, 0.0, 0.0, 0.0, -2710.037256483705, 0.0]
['beep', 0.0, -1103.1256441027695, 0.0, 0.0, 0.0, 0.0, -3084.272513898911, 0.0]
['beep', 0.0, -1073.4425274661216, 0.0, 0.0, 0.0, 0.0, -2542.488580046723, 0.0]
['beep', 0.0, -911.6606010986092, 0.0, 0.0, 0.0, 0.0, -1103.818548180884, 0.0]
['beep', 0.0, -1034.3940299027001, 0.0, 0.0, 0.0, 0.0, -1309.8345768254492, 0.0]
['beep', 0.0, -1115.2179378530907, 0.0, 0.0, 0.0, 0.0, -2715.0216954972384, 0.0]
['beep', 0.0, -1103.1479958472248, 0.0, 0.0, 0.0, 0.0, -3083.7360720319834, 0.0]
['beep', 0.0, -1075.945922845116, 0.0, 0.0, 0.0, 0.0, -2554.2232458857593, 0.0]
['beep', 0.0, -926.3009937168353, 0.0, 0.0, 0.0, 0.0, -1128.2490048705347, 0.0]
['beep', 0.0, -1044.854646307784, 0.0, 0.0, 0.0, 0.0, -1331.7616381361054, 0.0]
['beep', 0.0, -1116.1567111202135, 0.0, 0.0, 0.0, 0.0, -2721.0790182446267, 0.0]
['beep', 0.0, -1103.88560341425, 0.0, 0.0, 0.0, 0.0, -3083.624313309707, 0.0]
['beep', 0.0, -1077.6670071681747, 0.0, 0.0, 0.0, 0.0, -2568.975397226262, 0.0]
['beep', 0.0, -938.5497496783436, 0.0, 0.0, 0.0, 0.0, -1152.1430196932579, 0.0]
['beep', 0.0, -1050.0849545103258, 0.0, 0.0, 0.0, 0.0, -1343.6304144418734, 0.0]
['beep', 0.0, -1113.1615773632022, 0.0, 0.0, 0.0, 0.0, -2719.134416477015, 0.0]
['beep', 0.0, -1101.9410016466381, 0.0, 0.0, 0.0, 0.0, -3073.5883800492743, 0.0]
['beep', 0.0, -1077.9575798460937, 0.0, 0.0, 0.0, 0.0, -2573.490449606234, 0.0]
['beep', 0.0, -949.3679939947122, 0.0, 0.0, 0.0, 0.0, -1169.7338425795845, 0.0]
['beep', 0.0, -1056.5893121468202, 0.0, 0.0, 0.0, 0.0, -1355.163914580812, 0.0]
['beep', 0.0, -1116.3802285647666, 0.0, 0.0, 0.0, 0.0, -2720.5649281221545, 0.0]
['beep', 0.0, -1106.009019137504, 0.0, 0.0, 0.0, 0.0, -3072.6496067821513, 0.0]
['beep', 0.0, -1083.657274682197, 0.0, 0.0, 0.0, 0.0, -2585.2474671897253, 0.0]
['beep', 0.0, -962.0861365897819, 0.0, 0.0, 0.0, 0.0, -1189.8727643338161, 0.0]
['beep', 0.0, -1066.1335070292362, 0.0, 0.0, 0.0, 0.0, -1368.865533931915, 0.0]
['beep', 0.0, -1118.6824582436632, 0.0, 0.0, 0.0, 0.0, -2726.06345725816, 0.0]
['beep', 0.0, -1105.718446459585, 0.0, 0.0, 0.0, 0.0, -3073.9683597050143, 0.0]
['beep', 0.0, -1084.7078066715965, 0.0, 0.0, 0.0, 0.0, -2596.579801628566, 0.0]
['beep', 0.0, -971.2056483275471, 0.0, 0.0, 0.0, 0.0, -1208.3129535094445, 0.0]
['beep', 0.0, -1070.0674140533704, 0.0, 0.0, 0.0, 0.0, -1382.030711416091, 0.0]
['beep', 0.0, -1117.5648710208977, 0.0, 0.0, 0.0, 0.0, -2730.4667509158553, 0.0]
['beep', 0.0, -1106.8583854268059, 0.0, 0.0, 0.0, 0.0, -3076.2929411283662, 0.0]
['beep', 0.0, -1085.9371526166383, 0.0, 0.0, 0.0, 0.0, -2606.4369209333568, 0.0]
['beep', 0.0, -978.693482720075, 0.0, 0.0, 0.0, 0.0, -1222.8192356609388, 0.0]
['beep', 0.0, -1073.330768743845, 0.0, 0.0, 0.0, 0.0, -1388.4233103303088, 0.0]
['beep', 0.0, -1117.8554436988168, 0.0, 0.0, 0.0, 0.0, -2730.0197160267494, 0.0]
['beep', 0.0, -1106.9701441490822, 0.0, 0.0, 0.0, 0.0, -3072.9625312045255, 0.0]
['beep', 0.0, -1085.2666002829792, 0.0, 0.0, 0.0, 0.0, -2611.331952969069, 0.0]
['beep', 0.0, -981.2862850768906, 0.0, 0.0, 0.0, 0.0, -1230.8211601759388, 0.0]
['beep', 0.0, -1074.6942251556188, 0.0, 0.0, 0.0, 0.0, -1391.1725748983115, 0.0]
['beep', 0.0, -1116.3578768203113, 0.0, 0.0, 0.0, 0.0, -2730.82437882714, 0.0]
['beep', 0.0, -1106.1654813486912, 0.0, 0.0, 0.0, 0.0, -3073.6777870270953, 0.0]
['beep', 0.0, -1086.2724287834678, 0.0, 0.0, 0.0, 0.0, -2621.0549618071273, 0.0]
['beep', 0.0, -989.7799479699073, 0.0, 0.0, 0.0, 0.0, -1248.5460935289973, 0.0]
['beep', 0.0, -1078.0916903128254, 0.0, 0.0, 0.0, 0.0, -1403.6672000488281, 0.0]
['beep', 0.0, -1117.8107402099063, 0.0, 0.0, 0.0, 0.0, -2733.774809095241, 0.0]
['beep', 0.0, -1106.1654813486912, 0.0, 0.0, 0.0, 0.0, -3073.8566009827377, 0.0]
['beep', 0.0, -1086.0489113389149, 0.0, 0.0, 0.0, 0.0, -2629.258052022225, 0.0]
['beep', 0.0, -995.6808085061084, 0.0, 0.0, 0.0, 0.0, -1263.454707080687, 0.0]
['beep', 0.0, -1081.109175814292, 0.0, 0.0, 0.0, 0.0, -1410.8197582745265, 0.0]
['beep', 0.0, -1116.26846984249, 0.0, 0.0, 0.0, 0.0, -2735.317079462657, 0.0]
['beep', 0.0, -1104.4667487700879, 0.0, 0.0, 0.0, 0.0, -3077.298769628855, 0.0]
['beep', 0.0, -1086.5853532058422, 0.0, 0.0, 0.0, 0.0, -2640.0539445941386, 0.0]
['beep', 0.0, -1002.7886632428961, 0.0, 0.0, 0.0, 0.0, -1279.458556110687, 0.0]
['beep', 0.0, -1083.5455159599205, 0.0, 0.0, 0.0, 0.0, -1420.4086566458532, 0.0]
['beep', 0.0, -1115.620269253286, 0.0, 0.0, 0.0, 0.0, -2737.35108820809, 0.0]
['beep', 0.0, -1104.7796731924623, 0.0, 0.0, 0.0, 0.0, -3077.566990562319, 0.0]
['beep', 0.0, -1086.78651890594, 0.0, 0.0, 0.0, 0.0, -2651.3415755440683, 0.0]
['beep', 0.0, -1010.9694017135384, 0.0, 0.0, 0.0, 0.0, -1299.128091231357, 0.0]
['beep', 0.0, -1089.3793212627556, 0.0, 0.0, 0.0, 0.0, -1434.1102759969565, 0.0]
['beep', 0.0, -1115.9555454201156, 0.0, 0.0, 0.0, 0.0, -2744.3248324781457, 0.0]
['beep', 0.0, -1106.9030889157164, 0.0, 0.0, 0.0, 0.0, -3078.7739847629055, 0.0]
['beep', 0.0, -1089.2228590515685, 0.0, 0.0, 0.0, 0.0, -2660.3493285595573, 0.0]
['beep', 0.0, -1018.3454773837898, 0.0, 0.0, 0.0, 0.0, -1317.0541902845134, 0.0]
['beep', 0.0, -1093.9167253871829, 0.0, 0.0, 0.0, 0.0, -1445.1296860134228, 0.0]
['beep', 0.0, -1115.2626413420012, 0.0, 0.0, 0.0, 0.0, -2747.4317249574337, 0.0]
['beep', 0.0, -1105.271411570479, 0.0, 0.0, 0.0, 0.0, -3079.1092609297352, 0.0]
['beep', 0.0, -1089.334617773845, 0.0, 0.0, 0.0, 0.0, -2668.932398430395, 0.0]
['beep', 0.0, -1024.8721867647394, 0.0, 0.0, 0.0, 0.0, -1334.3320887484658, 0.0]
['beep', 0.0, -1095.2578300545015, 0.0, 0.0, 0.0, 0.0, -1456.4620204522635, 0.0]
['beep', 0.0, -1113.496853530032, 0.0, 0.0, 0.0, 0.0, -2749.3986784695007, 0.0]
['beep', 0.0, -1104.6008592368198, 0.0, 0.0, 0.0, 0.0, -3077.0305486953916, 0.0]
['beep', 0.0, -1087.5017747285099, 0.0, 0.0, 0.0, 0.0, -2679.6612357689423, 0.0]
['beep', 0.0, -1032.3600211572673, 0.0, 0.0, 0.0, 0.0, -1355.9238738922922, 0.0]
['beep', 0.0, -1097.3812457777556, 0.0, 0.0, 0.0, 0.0, -1471.7729654041489, 0.0]
['beep', 0.0, -1111.5522517624202, 0.0, 0.0, 0.0, 0.0, -2752.930254093439, 0.0]
['beep', 0.0, -1103.2597545695014, 0.0, 0.0, 0.0, 0.0, -3075.08594692778, 0.0]
['beep', 0.0, -1086.6971119281188, 0.0, 0.0, 0.0, 0.0, -2688.0431399396825, 0.0]
['beep', 0.0, -1038.5067508824768, 0.0, 0.0, 0.0, 0.0, -1374.967560168214, 0.0]
['beep', 0.0, -1100.465786512588, 0.0, 0.0, 0.0, 0.0, -1487.374483033953, 0.0]
['beep', 0.0, -1112.1557488627136, 0.0, 0.0, 0.0, 0.0, -2757.1770855399473, 0.0]
['beep', 0.0, -1103.2821063139565, 0.0, 0.0, 0.0, 0.0, -3074.1248219162017, 0.0]
['beep', 0.0, -1088.2170305510797, 0.0, 0.0, 0.0, 0.0, -2700.20248892337, 0.0]
['beep', 0.0, -1048.1850562316247, 0.0, 0.0, 0.0, 0.0, -1397.6322290458954, 0.0]
['beep', 0.0, -1107.2160133380908, 0.0, 0.0, 0.0, 0.0, -1499.1091488729894, 0.0]
['beep', 0.0, -1109.2500220835236, 0.0, 0.0, 0.0, 0.0, -2757.3111960066794, 0.0]
['beep', 0.0, -1099.1917370786355, 0.0, 0.0, 0.0, 0.0, -3072.8284207377937, 0.0]
['beep', 0.0, -1086.8759258837613, 0.0, 0.0, 0.0, 0.0, -2705.2986866591796, 0.0]
['beep', 0.0, -1049.4367539211219, 0.0, 0.0, 0.0, 0.0, -1410.506833852152, 0.0]
['beep', 0.0, -1105.5172807594872, 0.0, 0.0, 0.0, 0.0, -1510.8885182009362, 0.0]
['beep', 0.0, -1110.1664436061913, 0.0, 0.0, 0.0, 0.0, -2761.9380071089276, 0.0]
['beep', 0.0, -1101.0245801239705, 0.0, 0.0, 0.0, 0.0, -3072.1578684041347, 0.0]
['beep', 0.0, -1087.3229607728674, 0.0, 0.0, 0.0, 0.0, -2712.96533500735, 0.0]
['beep', 0.0, -1054.108268512281, 0.0, 0.0, 0.0, 0.0, -1425.2813369371102, 0.0]
['beep', 0.0, -1106.8360336823505, 0.0, 0.0, 0.0, 0.0, -1516.5211578036735, 0.0]
['beep', 0.0, -1111.1275686177694, 0.0, 0.0, 0.0, 0.0, -2760.999233841805, 0.0]
['beep', 0.0, -1102.6115539802975, 0.0, 0.0, 0.0, 0.0, -3070.9955776924585, 0.0]
['beep', 0.0, -1088.0158648509819, 0.0, 0.0, 0.0, 0.0, -2719.0226577547382, 0.0]
['beep', 0.0, -1057.2598644804793, 0.0, 0.0, 0.0, 0.0, -1439.9440812997916, 0.0]
['beep', 0.0, -1107.238365082546, 0.0, 0.0, 0.0, 0.0, -1524.925413718869, 0.0]
['beep', 0.0, -1108.9594494056046, 0.0, 0.0, 0.0, 0.0, -2763.614387943076, 0.0]
['beep', 0.0, -1101.0916353573366, 0.0, 0.0, 0.0, 0.0, -3071.12968815919, 0.0]
['beep', 0.0, -1087.2112020505908, 0.0, 0.0, 0.0, 0.0, -2727.6951346033975, 0.0]
['beep', 0.0, -1059.338576714823, 0.0, 0.0, 0.0, 0.0, -1454.092735540001, 0.0]
['beep', 0.0, -1107.8418621828393, 0.0, 0.0, 0.0, 0.0, -1533.73200103426, 0.0]
['beep', 0.0, -1109.9652779060934, 0.0, 0.0, 0.0, 0.0, -2766.944797866917, 0.0]
['beep', 0.0, -1101.8739464132723, 0.0, 0.0, 0.0, 0.0, -3069.9897491919696, 0.0]
['beep', 0.0, -1087.792347406429, 0.0, 0.0, 0.0, 0.0, -2736.389963196512, 0.0]
['beep', 0.0, -1064.5688849173648, 0.0, 0.0, 0.0, 0.0, -1478.925523629847, 0.0]
['beep', 0.0, -1108.624173238775, 0.0, 0.0, 0.0, 0.0, -1556.1060972340224, 0.0]
['beep', 0.0, -1109.6747052281744, 0.0, 0.0, 0.0, 0.0, -2773.7844316702403, 0.0]
['beep', 0.0, -1101.337504546345, 0.0, 0.0, 0.0, 0.0, -3069.8332869807828, 0.0]
['beep', 0.0, -1088.5523067179092, 0.0, 0.0, 0.0, 0.0, -2747.185855768425, 0.0]
['beep', 0.0, -1067.7204808855631, 0.0, 0.0, 0.0, 0.0, -1501.5231372741625, 0.0]
['beep', 0.0, -1105.204356337113, 0.0, 0.0, 0.0, 0.0, -1571.2382282302653, 0.0]
['beep', 0.0, -1107.7301034605628, 0.0, 0.0, 0.0, 0.0, -2777.7853939277406, 0.0]
['beep', 0.0, -1101.136338846247, 0.0, 0.0, 0.0, 0.0, -3070.2579701254335, 0.0]
['beep', 0.0, -1088.6640654401858, 0.0, 0.0, 0.0, 0.0, -2755.523056450255, 0.0]
['beep', 0.0, -1070.0003588200043, 0.0, 0.0, 0.0, 0.0, -1520.6115270389948, 0.0]
['beep', 0.0, -1103.6397342252415, 0.0, 0.0, 0.0, 0.0, -1584.0457778031562, 0.0]
['beep', 0.0, -1107.461882527099, 0.0, 0.0, 0.0, 0.0, -2782.6804259634528, 0.0]
['beep', 0.0, -1101.0469318684259, 0.0, 0.0, 0.0, 0.0, -3070.8391154812716, 0.0]
['beep', 0.0, -1087.658236939697, 0.0, 0.0, 0.0, 0.0, -2766.1624868109807, 0.0]
['beep', 0.0, -1070.8944285982168, 0.0, 0.0, 0.0, 0.0, -1541.3986493824304, 0.0]
['beep', 0.0, -1101.0916353573366, 0.0, 0.0, 0.0, 0.0, -1599.7814058996923, 0.0]
['beep', 0.0, -1106.1654813486912, 0.0, 0.0, 0.0, 0.0, -2786.0108358872935, 0.0]
['beep', 0.0, -1099.7952341789287, 0.0, 0.0, 0.0, 0.0, -3069.721528258506, 0.0]
['beep', 0.0, -1086.0936148278254, 0.0, 0.0, 0.0, 0.0, -2772.3092165361904, 0.0]
['beep', 0.0, -1073.4201757216663, 0.0, 0.0, 0.0, 0.0, -1559.4588589023185, 0.0]
['beep', 0.0, -1100.0634551123924, 0.0, 0.0, 0.0, 0.0, -1611.4937199942733, 0.0]
['beep', 0.0, -1105.1149493592918, 0.0, 0.0, 0.0, 0.0, -2789.8553359336065, 0.0]
['beep', 0.0, -1098.4764812560657, 0.0, 0.0, 0.0, 0.0, -3070.6155980367184, 0.0]
['beep', 0.0, -1086.0042078500041, 0.0, 0.0, 0.0, 0.0, -2778.83592591714, 0.0]
['beep', 0.0, -1073.8001553774066, 0.0, 0.0, 0.0, 0.0, -1574.6133416430166, 0.0]
['beep', 0.0, -1098.0070946225042, 0.0, 0.0, 0.0, 0.0, -1622.7813509442033, 0.0]
['beep', 0.0, -1104.5114522589986, 0.0, 0.0, 0.0, 0.0, -2793.1633941129917, 0.0]
['beep', 0.0, -1098.3870742782444, 0.0, 0.0, 0.0, 0.0, -3070.0344526808803, 0.0]
['beep', 0.0, -1085.4901177275322, 0.0, 0.0, 0.0, 0.0, -2786.6813882209526, 0.0]
['beep', 0.0, -1074.0013210775044, 0.0, 0.0, 0.0, 0.0, -1593.9252488524019, 0.0]
['beep', 0.0, -1096.5095277439987, 0.0, 0.0, 0.0, 0.0, -1635.2983278391753, 0.0]
['beep', 0.0, -1103.304458058412, 0.0, 0.0, 0.0, 0.0, -2796.31499008119, 0.0]
['beep', 0.0, -1097.7388736890405, 0.0, 0.0, 0.0, 0.0, -3071.2861503703775, 0.0]
['beep', 0.0, -1085.981856105549, 0.0, 0.0, 0.0, 0.0, -2794.415091802489, 0.0]
['beep', 0.0, -1074.560114688887, 0.0, 0.0, 0.0, 0.0, -1608.051551348156, 0.0]
['beep', 0.0, -1096.1295480882584, 0.0, 0.0, 0.0, 0.0, -1641.6685750089378, 0.0]
['beep', 0.0, -1103.6620859696968, 0.0, 0.0, 0.0, 0.0, -2797.6560947485086, 0.0]
['beep', 0.0, -1098.1635568336912, 0.0, 0.0, 0.0, 0.0, -3070.526191058897, 0.0]
['beep', 0.0, -1086.4512427391103, 0.0, 0.0, 0.0, 0.0, -2805.5686122856873, 0.0]
['beep', 0.0, -1077.555248445898, 0.0, 0.0, 0.0, 0.0, -1634.5160167832396, 0.0]
['beep', 0.0, -1096.7777486774623, 0.0, 0.0, 0.0, 0.0, -1661.2039996628762, 0.0]
['beep', 0.0, -1104.042065625437, 0.0, 0.0, 0.0, 0.0, -2802.282905850757, 0.0]
['beep', 0.0, -1098.1635568336912, 0.0, 0.0, 0.0, 0.0, -3071.017929436914, 0.0]
['beep', 0.0, -1086.2724287834678, 0.0, 0.0, 0.0, 0.0, -2810.3965890880336, 0.0]
['beep', 0.0, -1077.9575798460937, 0.0, 0.0, 0.0, 0.0, -1647.6364907785048, 0.0]
['beep', 0.0, -1097.6494667112192, 0.0, 0.0, 0.0, 0.0, -1671.4858021123175, 0.0]
['beep', 0.0, -1105.2490598260235, 0.0, 0.0, 0.0, 0.0, -2805.9485919414274, 0.0]
['beep', 0.0, -1099.1246818452696, 0.0, 0.0, 0.0, 0.0, -3069.9450457030593, 0.0]
['beep', 0.0, -1088.9546381181049, 0.0, 0.0, 0.0, 0.0, -2817.0127054468044, 0.0]
['beep', 0.0, -1080.1927542916244, 0.0, 0.0, 0.0, 0.0, -1668.0659852106555, 0.0]
['beep', 0.0, -1095.660161454697, 0.0, 0.0, 0.0, 0.0, -1684.5168691297615, 0.0]
['beep', 0.0, -1103.4162167806885, 0.0, 0.0, 0.0, 0.0, -2803.758120984807, 0.0]
['beep', 0.0, -1099.5046615010097, 0.0, 0.0, 0.0, 0.0, -3061.429031065587, 0.0]
['beep', 0.0, -1088.5523067179092, 0.0, 0.0, 0.0, 0.0, -2819.381990359067, 0.0]
['beep', 0.0, -1082.4726322260658, 0.0, 0.0, 0.0, 0.0, -1687.5343546312279, 0.0]
['beep', 0.0, -1097.7388736890405, 0.0, 0.0, 0.0, 0.0, -1699.045503025711, 0.0]
['beep', 0.0, -1104.1985278366242, 0.0, 0.0, 0.0, 0.0, -2806.082702408159, 0.0]
['beep', 0.0, -1098.856460911806, 0.0, 0.0, 0.0, 0.0, -3059.9314641870815, 0.0]
['beep', 0.0, -1087.1888503061355, 0.0, 0.0, 0.0, 0.0, -2825.640478806553, 0.0]
['beep', 0.0, -1081.5115072144874, 0.0, 0.0, 0.0, 0.0, -1708.500290930306, 0.0]
['beep', 0.0, -1097.202431822113, 0.0, 0.0, 0.0, 0.0, -1716.7704363787695, 0.0]
['beep', 0.0, -1104.042065625437, 0.0, 0.0, 0.0, 0.0, -2813.5258333117763, 0.0]
['beep', 0.0, -1099.5717167343757, 0.0, 0.0, 0.0, 0.0, -3059.819705464805, 0.0]
['beep', 0.0, -1086.495946228021, 0.0, 0.0, 0.0, 0.0, -2834.022382977293, 0.0]
['beep', 0.0, -1081.69032117013, 0.0, 0.0, 0.0, 0.0, -1730.9637941078895, 0.0]
['beep', 0.0, -1097.403597522211, 0.0, 0.0, 0.0, 0.0, -1736.596433710627, 0.0]
['beep', 0.0, -1102.4774435135655, 0.0, 0.0, 0.0, 0.0, -2820.723095026385, 0.0]
['beep', 0.0, -1098.3870742782444, 0.0, 0.0, 0.0, 0.0, -3060.087926398269, 0.0]
['beep', 0.0, -1085.0877863273367, 0.0, 0.0, 0.0, 0.0, -2841.286699925268, 0.0]
['beep', 0.0, -1080.7962513919176, 0.0, 0.0, 0.0, 0.0, -1752.5332275072608, 0.0]
['beep', 0.0, -1096.9565626331048, 0.0, 0.0, 0.0, 0.0, -1751.0803641176658, 0.0]
['beep', 0.0, -1101.7174842020852, 0.0, 0.0, 0.0, 0.0, -2823.1817869164693, 0.0]
['beep', 0.0, -1097.3365422888448, 0.0, 0.0, 0.0, 0.0, -3058.143324630657, 0.0]
['beep', 0.0, -1085.981856105549, 0.0, 0.0, 0.0, 0.0, -2848.6180721066085, 0.0]
['beep', 0.0, -1081.8691351257723, 0.0, 0.0, 0.0, 0.0, -1773.9909021843557, 0.0]
['beep', 0.0, -1097.5377079889427, 0.0, 0.0, 0.0, 0.0, -1767.464192803406, 0.0]
['beep', 0.0, -1101.5833737353532, 0.0, 0.0, 0.0, 0.0, -2828.412095119011, 0.0]
['beep', 0.0, -1097.4706527555768, 0.0, 0.0, 0.0, 0.0, -3057.3610135747213, 0.0]
['beep', 0.0, -1086.3171322723786, 0.0, 0.0, 0.0, 0.0, -2853.222531464402, 0.0]
['beep', 0.0, -1082.7632049039848, 0.0, 0.0, 0.0, 0.0, -1793.3251611381963, 0.0]
['beep', 0.0, -1097.8729841557722, 0.0, 0.0, 0.0, 0.0, -1782.104585421632, 0.0]
['beep', 0.0, -1102.3209813023784, 0.0, 0.0, 0.0, 0.0, -2831.384877131567, 0.0]
['beep', 0.0, -1097.560059733398, 0.0, 0.0, 0.0, 0.0, -3054.7682112179054, 0.0]
['beep', 0.0, -1085.6689316831746, 0.0, 0.0, 0.0, 0.0, -2859.3245577007006, 0.0]
['beep', 0.0, -1083.0314258374485, 0.0, 0.0, 0.0, 0.0, -1817.5321003832937, 0.0]
['beep', 0.0, -1097.6494667112192, 0.0, 0.0, 0.0, 0.0, -1800.3212571527074, 0.0]
['beep', 0.0, -1101.5163185019874, 0.0, 0.0, 0.0, 0.0, -2834.603528333131, 0.0]
['beep', 0.0, -1097.1577283332024, 0.0, 0.0, 0.0, 0.0, -3055.215246107012, 0.0]
['beep', 0.0, -1085.4901177275322, 0.0, 0.0, 0.0, 0.0, -2867.6170548936198, 0.0]
['beep', 0.0, -1083.2549432820015, 0.0, 0.0, 0.0, 0.0, -1839.1909407604865, 0.0]
['beep', 0.0, -1097.045969610926, 0.0, 0.0, 0.0, 0.0, -1818.4708736504167, 0.0]
['beep', 0.0, -1101.2928010574342, 0.0, 0.0, 0.0, 0.0, -2844.818275549206, 0.0]
['beep', 0.0, -1098.0070946225042, 0.0, 0.0, 0.0, 0.0, -3055.2823013403777, 0.0]
['beep', 0.0, -1086.1159665722807, 0.0, 0.0, 0.0, 0.0, -2873.3391014741783, 0.0]
['beep', 0.0, -1083.7913851489288, 0.0, 0.0, 0.0, 0.0, -1861.3191677712402, 0.0]
['beep', 0.0, -1098.07414985587, 0.0, 0.0, 0.0, 0.0, -1835.6593651365479, 0.0]
['beep', 0.0, -1102.07511211337, 0.0, 0.0, 0.0, 0.0, -2845.064144738215, 0.0]
['beep', 0.0, -1096.0401411104372, 0.0, 0.0, 0.0, 0.0, -3055.0587838958245, 0.0]
['beep', 0.0, -1086.7194636725742, 0.0, 0.0, 0.0, 0.0, -2881.6763021560078, 0.0]
['beep', 0.0, -1088.6640654401858, 0.0, 0.0, 0.0, 0.0, -1882.9556564039776, 0.0]
['beep', 0.0, -1102.0304086244594, 0.0, 0.0, 0.0, 0.0, -1853.071374067232, 0.0]
['beep', 0.0, -1104.4891005145432, 0.0, 0.0, 0.0, 0.0, -2852.730793086385, 0.0]
['beep', 0.0, -1100.2869725569456, 0.0, 0.0, 0.0, 0.0, -3057.98686241947, 0.0]
