['beep', 0.0, -762.2615411593367, 0.0, 0.0, 0.0, 0.0, -5090.632151440639, 0.0]
['beep', 0.0, -745.6318432845883, 0.0, 0.0, 0.0, 0.0, -5115.487291274941, 0.0]
['beep', 0.0, -754.9525207224514, 0.0, 0.0, 0.0, 0.0, -5122.259869844898, 0.0]
['beep', 0.0, -776.1643262105378, 0.0, 0.0, 0.0, 0.0, -5099.572849222762, 0.0]
['beep', 0.0, -779.606494856655, 0.0, 0.0, 0.0, 0.0, -5080.707976902482, 0.0]
['beep', 0.0, -763.1779626820044, 0.0, 0.0, 0.0, 0.0, -5087.346445005709, 0.0]
['beep', 0.0, -748.6716805305101, 0.0, 0.0, 0.0, 0.0, -5109.027637127357, 0.0]
['beep', 0.0, -756.5394945787782, 0.0, 0.0, 0.0, 0.0, -5115.688456975038, 0.0]
['beep', 0.0, -775.2926081767807, 0.0, 0.0, 0.0, 0.0, -5092.710863674983, 0.0]
['beep', 0.0, -779.4276809010125, 0.0, 0.0, 0.0, 0.0, -5069.0627180412675, 0.0]
['beep', 0.0, -765.3013784052586, 0.0, 0.0, 0.0, 0.0, -5075.678834400039, 0.0]
['beep', 0.0, -748.0458316857614, 0.0, 0.0, 0.0, 0.0, -5091.995607852413, 0.0]
['beep', 0.0, -755.9807009673955, 0.0, 0.0, 0.0, 0.0, -5095.9518666210015, 0.0]
['beep', 0.0, -776.477250632912, 0.0, 0.0, 0.0, 0.0, -5078.562209434773, 0.0]
['beep', 0.0, -781.349930924169, 0.0, 0.0, 0.0, 0.0, -5052.120095744145, 0.0]
['beep', 0.0, -763.9379219934848, 0.0, 0.0, 0.0, 0.0, -5053.774124833837, 0.0]
['beep', 0.0, -748.8951979750632, 0.0, 0.0, 0.0, 0.0, -5071.364947720164, 0.0]
['beep', 0.0, -753.611416055133, 0.0, 0.0, 0.0, 0.0, -5073.980101821435, 0.0]
['beep', 0.0, -773.4597651314456, 0.0, 0.0, 0.0, 0.0, -5048.230892208921, 0.0]
['beep', 0.0, -779.9864745123953, 0.0, 0.0, 0.0, 0.0, -5022.682848296506, 0.0]
['beep', 0.0, -765.7037098054541, 0.0, 0.0, 0.0, 0.0, -5027.399066376575, 0.0]
['beep', 0.0, -749.2528258863481, 0.0, 0.0, 0.0, 0.0, -5049.23672070941, 0.0]
['beep', 0.0, -754.8184102557195, 0.0, 0.0, 0.0, 0.0, -5053.818828322748, 0.0]
['beep', 0.0, -777.9077622780517, 0.0, 0.0, 0.0, 0.0, -5029.276612910821, 0.0]
['beep', 0.0, -783.5627536252443, 0.0, 0.0, 0.0, 0.0, -5006.65664752205, 0.0]
['beep', 0.0, -763.8932185045742, 0.0, 0.0, 0.0, 0.0, -5011.082292924201, 0.0]
['beep', 0.0, -746.6376717850771, 0.0, 0.0, 0.0, 0.0, -5034.171644946533, 0.0]
['beep', 0.0, -757.8135440127306, 0.0, 0.0, 0.0, 0.0, -5040.072505482734, 0.0]
['beep', 0.0, -777.6618930890434, 0.0, 0.0, 0.0, 0.0, -5018.212499405444, 0.0]
['beep', 0.0, -782.0204832578282, 0.0, 0.0, 0.0, 0.0, -4998.162984629033, 0.0]
['beep', 0.0, -766.2177999279261, 0.0, 0.0, 0.0, 0.0, -5003.75092074286, 0.0]
['beep', 0.0, -749.543398564267, 0.0, 0.0, 0.0, 0.0, -5027.108493698656, 0.0]
['beep', 0.0, -756.3606806231357, 0.0, 0.0, 0.0, 0.0, -5034.752790302371, 0.0]
['beep', 0.0, -778.1983349559707, 0.0, 0.0, 0.0, 0.0, -5014.5915168036845, 0.0]
['beep', 0.0, -785.932038537507, 0.0, 0.0, 0.0, 0.0, -4994.184374115989, 0.0]
['beep', 0.0, -767.6036080841551, 0.0, 0.0, 0.0, 0.0, -5003.817975976226, 0.0]
['beep', 0.0, -751.286834631781, 0.0, 0.0, 0.0, 0.0, -5027.734342543405, 0.0]
['beep', 0.0, -760.0487184582613, 0.0, 0.0, 0.0, 0.0, -5034.99865949138, 0.0]
['beep', 0.0, -780.0982332346717, 0.0, 0.0, 0.0, 0.0, -5016.625525549117, 0.0]
['beep', 0.0, -782.5345733803002, 0.0, 0.0, 0.0, 0.0, -4998.945295684969, 0.0]
['beep', 0.0, -766.1954481834708, 0.0, 0.0, 0.0, 0.0, -5006.500185310863, 0.0]
['beep', 0.0, -749.2081223974375, 0.0, 0.0, 0.0, 0.0, -5032.51761585684, 0.0]
['beep', 0.0, -755.6454248005658, 0.0, 0.0, 0.0, 0.0, -5046.219235207944, 0.0]
['beep', 0.0, -777.930114022507, 0.0, 0.0, 0.0, 0.0, -5029.298964655276, 0.0]
['beep', 0.0, -784.3450646811801, 0.0, 0.0, 0.0, 0.0, -5013.049246436268, 0.0]
['beep', 0.0, -768.3859191400909, 0.0, 0.0, 0.0, 0.0, -5022.146406429578, 0.0]
['beep', 0.0, -751.2644828873257, 0.0, 0.0, 0.0, 0.0, -5046.889787541603, 0.0]
['beep', 0.0, -759.1322969355938, 0.0, 0.0, 0.0, 0.0, -5055.271691712343, 0.0]
['beep', 0.0, -780.3441024236802, 0.0, 0.0, 0.0, 0.0, -5036.116246714145, 0.0]
['beep', 0.0, -784.3003611922695, 0.0, 0.0, 0.0, 0.0, -5019.307734883754, 0.0]
['beep', 0.0, -764.6308260715994, 0.0, 0.0, 0.0, 0.0, -5029.187205933, 0.0]
['beep', 0.0, -749.2081223974375, 0.0, 0.0, 0.0, 0.0, -5055.897540557092, 0.0]
['beep', 0.0, -756.964177723429, 0.0, 0.0, 0.0, 0.0, -5067.185171507022, 0.0]
['beep', 0.0, -778.2653901893366, 0.0, 0.0, 0.0, 0.0, -5047.649746853083, 0.0]
['beep', 0.0, -785.0156170148393, 0.0, 0.0, 0.0, 0.0, -5028.874281510625, 0.0]
['beep', 0.0, -769.704672062954, 0.0, 0.0, 0.0, 0.0, -5038.060848481757, 0.0]
['beep', 0.0, -752.4938288323676, 0.0, 0.0, 0.0, 0.0, -5065.218217994955, 0.0]
['beep', 0.0, -757.9700062239178, 0.0, 0.0, 0.0, 0.0, -5075.164744277567, 0.0]
['beep', 0.0, -776.9019337775629, 0.0, 0.0, 0.0, 0.0, -5058.825619080737, 0.0]
['beep', 0.0, -783.9427332809846, 0.0, 0.0, 0.0, 0.0, -5040.251319438376, 0.0]
['beep', 0.0, -769.0341197292948, 0.0, 0.0, 0.0, 0.0, -5046.889787541603, 0.0]
['beep', 0.0, -750.0351369422838, 0.0, 0.0, 0.0, 0.0, -5073.220142509955, 0.0]
['beep', 0.0, -756.8077155122419, 0.0, 0.0, 0.0, 0.0, -5083.658407170583, 0.0]
['beep', 0.0, -778.511259378345, 0.0, 0.0, 0.0, 0.0, -5064.86059008367, 0.0]
['beep', 0.0, -781.9087245355516, 0.0, 0.0, 0.0, 0.0, -5044.229929951422, 0.0]
['beep', 0.0, -766.9777592394065, 0.0, 0.0, 0.0, 0.0, -5051.203674221477, 0.0]
['beep', 0.0, -749.3645846086246, 0.0, 0.0, 0.0, 0.0, -5077.019939067357, 0.0]
['beep', 0.0, -753.8572852441413, 0.0, 0.0, 0.0, 0.0, -5088.307570017287, 0.0]
['beep', 0.0, -775.7172913214316, 0.0, 0.0, 0.0, 0.0, -5069.57680816374, 0.0]
['beep', 0.0, -784.5238786368226, 0.0, 0.0, 0.0, 0.0, -5050.3990114210865, 0.0]
['beep', 0.0, -767.8271255287082, 0.0, 0.0, 0.0, 0.0, -5056.433982424019, 0.0]
['beep', 0.0, -747.4646863299234, 0.0, 0.0, 0.0, 0.0, -5082.563171692273, 0.0]
['beep', 0.0, -750.996261953862, 0.0, 0.0, 0.0, 0.0, -5092.554401463795, 0.0]
['beep', 0.0, -771.6045703416551, 0.0, 0.0, 0.0, 0.0, -5074.516543688363, 0.0]
['beep', 0.0, -779.4500326454679, 0.0, 0.0, 0.0, 0.0, -5053.036517266813, 0.0]
['beep', 0.0, -762.6191690706216, 0.0, 0.0, 0.0, 0.0, -5061.530180159829, 0.0]
['beep', 0.0, -745.0506979287503, 0.0, 0.0, 0.0, 0.0, -5088.57579095075, 0.0]
['beep', 0.0, -752.158552665538, 0.0, 0.0, 0.0, 0.0, -5097.337674777231, 0.0]
['beep', 0.0, -774.86792503213, 0.0, 0.0, 0.0, 0.0, -5077.265808256365, 0.0]
['beep', 0.0, -780.768785568331, 0.0, 0.0, 0.0, 0.0, -5058.803267336281, 0.0]
['beep', 0.0, -764.899047005063, 0.0, 0.0, 0.0, 0.0, -5066.738136617915, 0.0]
['beep', 0.0, -747.7999624967531, 0.0, 0.0, 0.0, 0.0, -5091.928552619047, 0.0]
['beep', 0.0, -750.8621514871302, 0.0, 0.0, 0.0, 0.0, -5101.539802734828, 0.0]
['beep', 0.0, -771.4928116193786, 0.0, 0.0, 0.0, 0.0, -5084.418366482064, 0.0]
['beep', 0.0, -779.4053291565573, 0.0, 0.0, 0.0, 0.0, -5062.424249938042, 0.0]
['beep', 0.0, -763.8932185045742, 0.0, 0.0, 0.0, 0.0, -5066.268749984354, 0.0]
['beep', 0.0, -747.7552590078425, 0.0, 0.0, 0.0, 0.0, -5091.325055518753, 0.0]
['beep', 0.0, -753.1867329104821, 0.0, 0.0, 0.0, 0.0, -5104.467881258474, 0.0]
['beep', 0.0, -774.0409104872836, 0.0, 0.0, 0.0, 0.0, -5084.977160093446, 0.0]
['beep', 0.0, -781.4616896464455, 0.0, 0.0, 0.0, 0.0, -5063.631244138628, 0.0]
['beep', 0.0, -765.1672679385267, 0.0, 0.0, 0.0, 0.0, -5069.62151165265, 0.0]
['beep', 0.0, -748.2022938969486, 0.0, 0.0, 0.0, 0.0, -5096.2424392989205, 0.0]
['beep', 0.0, -754.8631137446301, 0.0, 0.0, 0.0, 0.0, -5106.948924893013, 0.0]
['beep', 0.0, -773.4821168759009, 0.0, 0.0, 0.0, 0.0, -5087.525258961351, 0.0]
['beep', 0.0, -780.2770471903143, 0.0, 0.0, 0.0, 0.0, -5065.195866250499, 0.0]
['beep', 0.0, -764.9437504939737, 0.0, 0.0, 0.0, 0.0, -5070.090898286212, 0.0]
['beep', 0.0, -746.4588578294347, 0.0, 0.0, 0.0, 0.0, -5095.4824799874405, 0.0]
['beep', 0.0, -751.4880003318788, 0.0, 0.0, 0.0, 0.0, -5105.741930692427, 0.0]
['beep', 0.0, -769.7270238074093, 0.0, 0.0, 0.0, 0.0, -5087.81583163927, 0.0]
['beep', 0.0, -776.9913407553842, 0.0, 0.0, 0.0, 0.0, -5069.599159908194, 0.0]
['beep', 0.0, -760.6522155585546, 0.0, 0.0, 0.0, 0.0, -5073.510715187874, 0.0]
['beep', 0.0, -744.4472008284571, 0.0, 0.0, 0.0, 0.0, -5096.801232910304, 0.0]
['beep', 0.0, -749.6328055420882, 0.0, 0.0, 0.0, 0.0, -5106.591296981728, 0.0]
['beep', 0.0, -771.2916459192808, 0.0, 0.0, 0.0, 0.0, -5088.061700828279, 0.0]
['beep', 0.0, -777.1925064554819, 0.0, 0.0, 0.0, 0.0, -5068.928607574536, 0.0]
['beep', 0.0, -761.5239335923117, 0.0, 0.0, 0.0, 0.0, -5073.443659954508, 0.0]
['beep', 0.0, -746.0118229403286, 0.0, 0.0, 0.0, 0.0, -5099.304628289298, 0.0]
['beep', 0.0, -753.0079189548396, 0.0, 0.0, 0.0, 0.0, -5110.167576094577, 0.0]
['beep', 0.0, -772.0069017418506, 0.0, 0.0, 0.0, 0.0, -5090.363930507175, 0.0]
['beep', 0.0, -778.8241838007193, 0.0, 0.0, 0.0, 0.0, -5068.123944774145, 0.0]
['beep', 0.0, -764.5637708382334, 0.0, 0.0, 0.0, 0.0, -5073.890694843614, 0.0]
['beep', 0.0, -747.8893694745743, 0.0, 0.0, 0.0, 0.0, -5097.248267799409, 0.0]
['beep', 0.0, -752.6949945324653, 0.0, 0.0, 0.0, 0.0, -5107.597125482217, 0.0]
['beep', 0.0, -773.3703581536244, 0.0, 0.0, 0.0, 0.0, -5089.447508984507, 0.0]
['beep', 0.0, -780.3888059125908, 0.0, 0.0, 0.0, 0.0, -5069.867380841659, 0.0]
['beep', 0.0, -765.9048755055518, 0.0, 0.0, 0.0, 0.0, -5076.10351754469, 0.0]
['beep', 0.0, -746.771782251809, 0.0, 0.0, 0.0, 0.0, -5099.952828878502, 0.0]
['beep', 0.0, -751.2197793984151, 0.0, 0.0, 0.0, 0.0, -5110.927535406057, 0.0]
['beep', 0.0, -772.900971520063, 0.0, 0.0, 0.0, 0.0, -5092.599104952706, 0.0]
['beep', 0.0, -779.2041634564595, 0.0, 0.0, 0.0, 0.0, -5069.018014552357, 0.0]
['beep', 0.0, -764.899047005063, 0.0, 0.0, 0.0, 0.0, -5072.303720987287, 0.0]
['beep', 0.0, -748.4258113415017, 0.0, 0.0, 0.0, 0.0, -5098.321151533264, 0.0]
['beep', 0.0, -753.1643811660268, 0.0, 0.0, 0.0, 0.0, -5109.049988871812, 0.0]
['beep', 0.0, -773.5715238537222, 0.0, 0.0, 0.0, 0.0, -5093.8955061311135, 0.0]
['beep', 0.0, -783.0710152472276, 0.0, 0.0, 0.0, 0.0, -5073.398956465597, 0.0]
['beep', 0.0, -767.8047737842529, 0.0, 0.0, 0.0, 0.0, -5076.014110566868, 0.0]
['beep', 0.0, -747.6658520300213, 0.0, 0.0, 0.0, 0.0, -5099.81871841177, 0.0]
['beep', 0.0, -748.9846049528844, 0.0, 0.0, 0.0, 0.0, -5112.469805773474, 0.0]
['beep', 0.0, -770.218762185426, 0.0, 0.0, 0.0, 0.0, -5094.320189275764, 0.0]
['beep', 0.0, -778.3100936782472, 0.0, 0.0, 0.0, 0.0, -5072.303720987287, 0.0]
['beep', 0.0, -765.413137127535, 0.0, 0.0, 0.0, 0.0, -5076.885828600625, 0.0]
['beep', 0.0, -746.7494305073536, 0.0, 0.0, 0.0, 0.0, -5101.830375412747, 0.0]
['beep', 0.0, -751.2644828873257, 0.0, 0.0, 0.0, 0.0, -5115.286125574842, 0.0]
['beep', 0.0, -773.638579087088, 0.0, 0.0, 0.0, 0.0, -5098.187041066532, 0.0]
['beep', 0.0, -780.2323437014037, 0.0, 0.0, 0.0, 0.0, -5075.9917588224125, 0.0]
['beep', 0.0, -764.0720324602166, 0.0, 0.0, 0.0, 0.0, -5078.71867164596, 0.0]
['beep', 0.0, -745.4977328178564, 0.0, 0.0, 0.0, 0.0, -5103.663218458083, 0.0]
['beep', 0.0, -751.2197793984151, 0.0, 0.0, 0.0, 0.0, -5115.86727093068, 0.0]
['beep', 0.0, -772.0739569752166, 0.0, 0.0, 0.0, 0.0, -5096.756529421393, 0.0]
['beep', 0.0, -781.4169861575349, 0.0, 0.0, 0.0, 0.0, -5074.8741715996475, 0.0]
['beep', 0.0, -767.3353871506914, 0.0, 0.0, 0.0, 0.0, -5079.657444913083, 0.0]
['beep', 0.0, -745.7212502624095, 0.0, 0.0, 0.0, 0.0, -5104.19966032501, 0.0]
['beep', 0.0, -750.415116598024, 0.0, 0.0, 0.0, 0.0, -5114.01207614089, 0.0]
['beep', 0.0, -774.5326488653003, 0.0, 0.0, 0.0, 0.0, -5095.504831731896, 0.0]
['beep', 0.0, -781.6628553465433, 0.0, 0.0, 0.0, 0.0, -5073.466011698963, 0.0]
['beep', 0.0, -765.0331574717949, 0.0, 0.0, 0.0, 0.0, -5078.092822801212, 0.0]
['beep', 0.0, -744.3577938506357, 0.0, 0.0, 0.0, 0.0, -5102.612686468683, 0.0]
['beep', 0.0, -747.8893694745743, 0.0, 0.0, 0.0, 0.0, -5116.224898841965, 0.0]
['beep', 0.0, -770.1740586965154, 0.0, 0.0, 0.0, 0.0, -5096.91299163258, 0.0]
['beep', 0.0, -777.9524657669623, 0.0, 0.0, 0.0, 0.0, -5070.962616319968, 0.0]
['beep', 0.0, -763.5802940821999, 0.0, 0.0, 0.0, 0.0, -5077.176401278544, 0.0]
['beep', 0.0, -746.5706165517112, 0.0, 0.0, 0.0, 0.0, -5100.91395389008, 0.0]
['beep', 0.0, -748.2693491303145, 0.0, 0.0, 0.0, 0.0, -5113.140358107133, 0.0]
['beep', 0.0, -770.1070034631496, 0.0, 0.0, 0.0, 0.0, -5096.778881165848, 0.0]
['beep', 0.0, -779.1594599675489, 0.0, 0.0, 0.0, 0.0, -5073.510715187874, 0.0]
['beep', 0.0, -767.8047737842529, 0.0, 0.0, 0.0, 0.0, -5077.511677445374, 0.0]
['beep', 0.0, -749.3869363530799, 0.0, 0.0, 0.0, 0.0, -5100.533974234339, 0.0]
['beep', 0.0, -751.0409654427726, 0.0, 0.0, 0.0, 0.0, -5112.782730195848, 0.0]
['beep', 0.0, -771.1351837080937, 0.0, 0.0, 0.0, 0.0, -5096.309494532286, 0.0]
['beep', 0.0, -779.5617913677444, 0.0, 0.0, 0.0, 0.0, -5074.315377988265, 0.0]
['beep', 0.0, -765.5248958498116, 0.0, 0.0, 0.0, 0.0, -5076.237628011421, 0.0]
['beep', 0.0, -746.3023956182475, 0.0, 0.0, 0.0, 0.0, -5100.578677723251, 0.0]
['beep', 0.0, -749.6775090309989, 0.0, 0.0, 0.0, 0.0, -5113.810910440792, 0.0]
['beep', 0.0, -770.7552040523534, 0.0, 0.0, 0.0, 0.0, -5096.220087554466, 0.0]
['beep', 0.0, -781.5958001131773, 0.0, 0.0, 0.0, 0.0, -5074.740061132916, 0.0]
['beep', 0.0, -766.0836894611942, 0.0, 0.0, 0.0, 0.0, -5077.3999187230975, 0.0]
['beep', 0.0, -747.4646863299234, 0.0, 0.0, 0.0, 0.0, -5102.545631235317, 0.0]
['beep', 0.0, -748.8728462306078, 0.0, 0.0, 0.0, 0.0, -5116.4931197754295, 0.0]
['beep', 0.0, -768.8553057736524, 0.0, 0.0, 0.0, 0.0, -5099.48344224494, 0.0]
['beep', 0.0, -778.444204144979, 0.0, 0.0, 0.0, 0.0, -5077.019939067357, 0.0]
['beep', 0.0, -769.4588028739456, 0.0, 0.0, 0.0, 0.0, -5076.10351754469, 0.0]
['beep', 0.0, -747.4646863299234, 0.0, 0.0, 0.0, 0.0, -5102.970314379968, 0.0]
['beep', 0.0, -749.2975293752587, 0.0, 0.0, 0.0, 0.0, -5115.911974419591, 0.0]
['beep', 0.0, -769.481154618401, 0.0, 0.0, 0.0, 0.0, -5095.974218365457, 0.0]
['beep', 0.0, -777.639541344588, 0.0, 0.0, 0.0, 0.0, -5073.9353983325245, 0.0]
['beep', 0.0, -766.8436487726747, 0.0, 0.0, 0.0, 0.0, -5079.657444913083, 0.0]
['beep', 0.0, -748.6493287860548, 0.0, 0.0, 0.0, 0.0, -5101.718616690471, 0.0]
['beep', 0.0, -750.9739102094067, 0.0, 0.0, 0.0, 0.0, -5113.654448229605, 0.0]
['beep', 0.0, -774.3091314207472, 0.0, 0.0, 0.0, 0.0, -5098.365855022175, 0.0]
['beep', 0.0, -784.6356373590992, 0.0, 0.0, 0.0, 0.0, -5073.421308210052, 0.0]
['beep', 0.0, -767.3577388951468, 0.0, 0.0, 0.0, 0.0, -5075.857648355681, 0.0]
['beep', 0.0, -748.5152183193229, 0.0, 0.0, 0.0, 0.0, -5098.902296889102, 0.0]
['beep', 0.0, -752.3373666211804, 0.0, 0.0, 0.0, 0.0, -5110.569907494772, 0.0]
['beep', 0.0, -773.1691924535266, 0.0, 0.0, 0.0, 0.0, -5092.86732588617, 0.0]
['beep', 0.0, -783.4733466474231, 0.0, 0.0, 0.0, 0.0, -5070.023843052846, 0.0]
['beep', 0.0, -769.6152650851328, 0.0, 0.0, 0.0, 0.0, -5072.1472587761, 0.0]
['beep', 0.0, -750.772744509309, 0.0, 0.0, 0.0, 0.0, -5092.800270652803, 0.0]
['beep', 0.0, -752.2032561544486, 0.0, 0.0, 0.0, 0.0, -5107.910049904591, 0.0]
['beep', 0.0, -772.5209918643227, 0.0, 0.0, 0.0, 0.0, -5094.744872420415, 0.0]
['beep', 0.0, -782.9369047804958, 0.0, 0.0, 0.0, 0.0, -5070.627340153139, 0.0]
['beep', 0.0, -770.9563697524512, 0.0, 0.0, 0.0, 0.0, -5071.05202329779, 0.0]
['beep', 0.0, -748.0011281968508, 0.0, 0.0, 0.0, 0.0, -5095.258962542887, 0.0]
['beep', 0.0, -750.1468956645604, 0.0, 0.0, 0.0, 0.0, -5108.91587840508, 0.0]
['beep', 0.0, -771.2245906859149, 0.0, 0.0, 0.0, 0.0, -5093.873154386658, 0.0]
['beep', 0.0, -780.3888059125908, 0.0, 0.0, 0.0, 0.0, -5070.269712241854, 0.0]
['beep', 0.0, -767.2459801728702, 0.0, 0.0, 0.0, 0.0, -5071.655520398083, 0.0]
['beep', 0.0, -749.0740119307056, 0.0, 0.0, 0.0, 0.0, -5097.404730010597, 0.0]
['beep', 0.0, -751.286834631781, 0.0, 0.0, 0.0, 0.0, -5110.748721450415, 0.0]
['beep', 0.0, -772.4986401198674, 0.0, 0.0, 0.0, 0.0, -5093.940209620025, 0.0]
['beep', 0.0, -780.7911373127863, 0.0, 0.0, 0.0, 0.0, -5073.063680298767, 0.0]
['beep', 0.0, -765.7260615499093, 0.0, 0.0, 0.0, 0.0, -5075.343558233209, 0.0]
['beep', 0.0, -747.4199828410128, 0.0, 0.0, 0.0, 0.0, -5100.779843423348, 0.0]
['beep', 0.0, -751.6891660319765, 0.0, 0.0, 0.0, 0.0, -5113.945020907524, 0.0]
['beep', 0.0, -770.6210935856216, 0.0, 0.0, 0.0, 0.0, -5098.097634088711, 0.0]
['beep', 0.0, -781.1040617351606, 0.0, 0.0, 0.0, 0.0, -5074.225971010444, 0.0]
['beep', 0.0, -767.5812563396998, 0.0, 0.0, 0.0, 0.0, -5075.164744277567, 0.0]
['beep', 0.0, -749.0516601862503, 0.0, 0.0, 0.0, 0.0, -5097.963523621979, 0.0]
['beep', 0.0, -751.3315381206916, 0.0, 0.0, 0.0, 0.0, -5111.82160518427, 0.0]
['beep', 0.0, -772.9456750089736, 0.0, 0.0, 0.0, 0.0, -5096.823584654759, 0.0]
['beep', 0.0, -783.4062914140573, 0.0, 0.0, 0.0, 0.0, -5074.360081477175, 0.0]
['beep', 0.0, -770.6210935856216, 0.0, 0.0, 0.0, 0.0, -5076.304683244787, 0.0]
['beep', 0.0, -750.0127851978285, 0.0, 0.0, 0.0, 0.0, -5101.696264946016, 0.0]
['beep', 0.0, -749.4986950753564, 0.0, 0.0, 0.0, 0.0, -5115.800215697314, 0.0]
['beep', 0.0, -771.0010732413618, 0.0, 0.0, 0.0, 0.0, -5099.371683522664, 0.0]
['beep', 0.0, -782.6910355914874, 0.0, 0.0, 0.0, 0.0, -5073.980101821435, 0.0]
['beep', 0.0, -770.7775557968088, 0.0, 0.0, 0.0, 0.0, -5074.270674499354, 0.0]
['beep', 0.0, -748.3364043636805, 0.0, 0.0, 0.0, 0.0, -5099.863421900681, 0.0]
['beep', 0.0, -748.7163840194207, 0.0, 0.0, 0.0, 0.0, -5115.017904641379, 0.0]
['beep', 0.0, -769.4588028739456, 0.0, 0.0, 0.0, 0.0, -5101.204526567999, 0.0]
['beep', 0.0, -782.6016286136662, 0.0, 0.0, 0.0, 0.0, -5077.891657101114, 0.0]
['beep', 0.0, -770.7328523078982, 0.0, 0.0, 0.0, 0.0, -5076.90818034508, 0.0]
['beep', 0.0, -748.805790997242, 0.0, 0.0, 0.0, 0.0, -5101.360988779186, 0.0]
['beep', 0.0, -748.6940322749654, 0.0, 0.0, 0.0, 0.0, -5116.381361053152, 0.0]
['beep', 0.0, -769.6599685740434, 0.0, 0.0, 0.0, 0.0, -5099.192869567021, 0.0]
['beep', 0.0, -782.9816082694064, 0.0, 0.0, 0.0, 0.0, -5075.947055333502, 0.0]
['beep', 0.0, -769.3693958961244, 0.0, 0.0, 0.0, 0.0, -5076.662311156072, 0.0]
['beep', 0.0, -748.2917008747698, 0.0, 0.0, 0.0, 0.0, -5102.031541112846, 0.0]
['beep', 0.0, -749.9233782200073, 0.0, 0.0, 0.0, 0.0, -5117.856576187203, 0.0]
['beep', 0.0, -768.6317883290993, 0.0, 0.0, 0.0, 0.0, -5101.696264946016, 0.0]
['beep', 0.0, -777.9748175114177, 0.0, 0.0, 0.0, 0.0, -5079.299817001798, 0.0]
['beep', 0.0, -767.6036080841551, 0.0, 0.0, 0.0, 0.0, -5079.836258868726, 0.0]
['beep', 0.0, -749.319881119714, 0.0, 0.0, 0.0, 0.0, -5101.025712612357, 0.0]
['beep', 0.0, -749.8116194977307, 0.0, 0.0, 0.0, 0.0, -5113.721503462971, 0.0]
['beep', 0.0, -766.9107040060406, 0.0, 0.0, 0.0, 0.0, -5102.322113790764, 0.0]
['beep', 0.0, -780.6793785905098, 0.0, 0.0, 0.0, 0.0, -5080.104479802189, 0.0]
['beep', 0.0, -769.8611342741411, 0.0, 0.0, 0.0, 0.0, -5079.38922397962, 0.0]
['beep', 0.0, -749.8786747310967, 0.0, 0.0, 0.0, 0.0, -5101.830375412747, 0.0]
['beep', 0.0, -749.3869363530799, 0.0, 0.0, 0.0, 0.0, -5117.454244787007, 0.0]
['beep', 0.0, -768.6988435624652, 0.0, 0.0, 0.0, 0.0, -5103.126776591155, 0.0]
['beep', 0.0, -778.9806460119064, 0.0, 0.0, 0.0, 0.0, -5078.6963199015045, 0.0]
['beep', 0.0, -768.2071051844484, 0.0, 0.0, 0.0, 0.0, -5076.975235578446, 0.0]
['beep', 0.0, -748.090535174672, 0.0, 0.0, 0.0, 0.0, -5098.745834677915, 0.0]
['beep', 0.0, -747.1517619075491, 0.0, 0.0, 0.0, 0.0, -5114.168538352077, 0.0]
['beep', 0.0, -768.3635673956356, 0.0, 0.0, 0.0, 0.0, -5100.86925040117, 0.0]
['beep', 0.0, -780.3441024236802, 0.0, 0.0, 0.0, 0.0, -5078.383395479131, 0.0]
['beep', 0.0, -767.7600702953423, 0.0, 0.0, 0.0, 0.0, -5078.182229779033, 0.0]
['beep', 0.0, -746.995299696362, 0.0, 0.0, 0.0, 0.0, -5102.590334724228, 0.0]
['beep', 0.0, -747.7552590078425, 0.0, 0.0, 0.0, 0.0, -5118.862404687691, 0.0]
['beep', 0.0, -768.0059394843506, 0.0, 0.0, 0.0, 0.0, -5103.059721357789, 0.0]
['beep', 0.0, -777.2819134333031, 0.0, 0.0, 0.0, 0.0, -5077.131697789633, 0.0]
['beep', 0.0, -768.8776575181076, 0.0, 0.0, 0.0, 0.0, -5076.550552433795, 0.0]
['beep', 0.0, -750.5045235758453, 0.0, 0.0, 0.0, 0.0, -5100.042235856323, 0.0]
['beep', 0.0, -750.4374683424793, 0.0, 0.0, 0.0, 0.0, -5117.118968620178, 0.0]
['beep', 0.0, -770.4199278855239, 0.0, 0.0, 0.0, 0.0, -5104.1549568361, 0.0]
['beep', 0.0, -779.2265152009148, 0.0, 0.0, 0.0, 0.0, -5078.852782112692, 0.0]
['beep', 0.0, -766.3742621391133, 0.0, 0.0, 0.0, 0.0, -5078.450450712497, 0.0]
['beep', 0.0, -747.9340729634849, 0.0, 0.0, 0.0, 0.0, -5101.740968434927, 0.0]
['beep', 0.0, -748.2469973858592, 0.0, 0.0, 0.0, 0.0, -5117.051913386812, 0.0]
['beep', 0.0, -764.1837911824931, 0.0, 0.0, 0.0, 0.0, -5103.059721357789, 0.0]
['beep', 0.0, -774.8455732876746, 0.0, 0.0, 0.0, 0.0, -5082.093785058712, 0.0]
['beep', 0.0, -765.189619682982, 0.0, 0.0, 0.0, 0.0, -5082.7419856479155, 0.0]
['beep', 0.0, -748.9175497195184, 0.0, 0.0, 0.0, 0.0, -5106.971276637469, 0.0]
['beep', 0.0, -747.4423345854682, 0.0, 0.0, 0.0, 0.0, -5122.528090778362, 0.0]
['beep', 0.0, -767.2459801728702, 0.0, 0.0, 0.0, 0.0, -5109.228802827454, 0.0]
['beep', 0.0, -777.3266169222137, 0.0, 0.0, 0.0, 0.0, -5082.898447859103, 0.0]
['beep', 0.0, -766.1507446945602, 0.0, 0.0, 0.0, 0.0, -5079.858610613181, 0.0]
['beep', 0.0, -747.6435002855659, 0.0, 0.0, 0.0, 0.0, -5101.696264946016, 0.0]
['beep', 0.0, -744.2236833839039, 0.0, 0.0, 0.0, 0.0, -5120.762302966393, 0.0]
['beep', 0.0, -760.2275324139038, 0.0, 0.0, 0.0, 0.0, -5109.497023760918, 0.0]
['beep', 0.0, -771.2245906859149, 0.0, 0.0, 0.0, 0.0, -5085.424194982552, 0.0]
['beep', 0.0, -760.8086777697418, 0.0, 0.0, 0.0, 0.0, -5083.948979848502, 0.0]
['beep', 0.0, -737.0264216692951, 0.0, 0.0, 0.0, 0.0, -5109.139395849633, 0.0]
['beep', 0.0, -735.2829856017811, 0.0, 0.0, 0.0, 0.0, -5124.137416379144, 0.0]
['beep', 0.0, -760.0934219471719, 0.0, 0.0, 0.0, 0.0, -5106.121910348166, 0.0]
['beep', 0.0, -767.0895179616831, 0.0, 0.0, 0.0, 0.0, -5081.95967459198, 0.0]
['beep', 0.0, -753.544360821767, 0.0, 0.0, 0.0, 0.0, -5082.518468203362, 0.0]
['beep', 0.0, -734.1206948901051, 0.0, 0.0, 0.0, 0.0, -5106.72540744846, 0.0]
['beep', 0.0, -733.2936803452588, 0.0, 0.0, 0.0, 0.0, -5123.153939623111, 0.0]
['beep', 0.0, -752.9408637214738, 0.0, 0.0, 0.0, 0.0, -5108.401788282608, 0.0]
['beep', 0.0, -765.5025441053563, 0.0, 0.0, 0.0, 0.0, -5084.843049626715, 0.0]
['beep', 0.0, -754.9748724669066, 0.0, 0.0, 0.0, 0.0, -5084.284256015331, 0.0]
['beep', 0.0, -737.8534362141414, 0.0, 0.0, 0.0, 0.0, -5107.641828971127, 0.0]
['beep', 0.0, -736.9146629470185, 0.0, 0.0, 0.0, 0.0, -5122.930422178558, 0.0]
['beep', 0.0, -754.8407620001748, 0.0, 0.0, 0.0, 0.0, -5109.429968527552, 0.0]
['beep', 0.0, -767.3577388951468, 0.0, 0.0, 0.0, 0.0, -5087.122927561156, 0.0]
['beep', 0.0, -755.2430934003703, 0.0, 0.0, 0.0, 0.0, -5083.010206581379, 0.0]
['beep', 0.0, -735.059468157228, 0.0, 0.0, 0.0, 0.0, -5103.39499752462, 0.0]
['beep', 0.0, -733.3160320897141, 0.0, 0.0, 0.0, 0.0, -5121.566965766784, 0.0]
['beep', 0.0, -752.5832358101889, 0.0, 0.0, 0.0, 0.0, -5108.91587840508, 0.0]
['beep', 0.0, -765.7931167832753, 0.0, 0.0, 0.0, 0.0, -5084.418366482064, 0.0]
['beep', 0.0, -754.0808026886943, 0.0, 0.0, 0.0, 0.0, -5083.501944959396, 0.0]
['beep', 0.0, -736.6464420135549, 0.0, 0.0, 0.0, 0.0, -5103.909087647091, 0.0]
['beep', 0.0, -735.126523390594, 0.0, 0.0, 0.0, 0.0, -5122.438683800541, 0.0]
['beep', 0.0, -755.4666108449234, 0.0, 0.0, 0.0, 0.0, -5109.854651672203, 0.0]
['beep', 0.0, -766.642483072577, 0.0, 0.0, 0.0, 0.0, -5084.217200781965, 0.0]
['beep', 0.0, -755.9807009673955, 0.0, 0.0, 0.0, 0.0, -5083.412537981575, 0.0]
['beep', 0.0, -735.9758896798957, 0.0, 0.0, 0.0, 0.0, -5105.741930692427, 0.0]
['beep', 0.0, -731.7737617222979, 0.0, 0.0, 0.0, 0.0, -5120.20350935501, 0.0]
['beep', 0.0, -751.2197793984151, 0.0, 0.0, 0.0, 0.0, -5109.273506316365, 0.0]
['beep', 0.0, -765.994282483373, 0.0, 0.0, 0.0, 0.0, -5084.105442059689, 0.0]
['beep', 0.0, -755.4219073560128, 0.0, 0.0, 0.0, 0.0, -5080.238590268921, 0.0]
['beep', 0.0, -734.1653983790158, 0.0, 0.0, 0.0, 0.0, -5103.193831824521, 0.0]
['beep', 0.0, -731.3043750887365, 0.0, 0.0, 0.0, 0.0, -5123.556271023306, 0.0]
['beep', 0.0, -752.3373666211804, 0.0, 0.0, 0.0, 0.0, -5110.0558173723, 0.0]
['beep', 0.0, -766.7542417948534, 0.0, 0.0, 0.0, 0.0, -5084.261904270877, 0.0]
['beep', 0.0, -754.9748724669066, 0.0, 0.0, 0.0, 0.0, -5080.596218180206, 0.0]
['beep', 0.0, -733.4054390675353, 0.0, 0.0, 0.0, 0.0, -5103.283238802343, 0.0]
['beep', 0.0, -733.8301222121862, 0.0, 0.0, 0.0, 0.0, -5123.399808812119, 0.0]
['beep', 0.0, -753.6784712884988, 0.0, 0.0, 0.0, 0.0, -5110.9722388949685, 0.0]
['beep', 0.0, -765.1225644496161, 0.0, 0.0, 0.0, 0.0, -5083.524296703851, 0.0]
['beep', 0.0, -754.6842997889877, 0.0, 0.0, 0.0, 0.0, -5082.294950758809, 0.0]
['beep', 0.0, -736.2441106133593, 0.0, 0.0, 0.0, 0.0, -5104.803157425304, 0.0]
['beep', 0.0, -737.5628635362225, 0.0, 0.0, 0.0, 0.0, -5122.103407633711, 0.0]
['beep', 0.0, -753.8572852441413, 0.0, 0.0, 0.0, 0.0, -5109.318209805276, 0.0]
['beep', 0.0, -764.899047005063, 0.0, 0.0, 0.0, 0.0, -5083.948979848502, 0.0]
['beep', 0.0, -755.1760381670044, 0.0, 0.0, 0.0, 0.0, -5080.082128057734, 0.0]
['beep', 0.0, -734.5900815236666, 0.0, 0.0, 0.0, 0.0, -5104.289067302831, 0.0]
['beep', 0.0, -730.6114710106219, 0.0, 0.0, 0.0, 0.0, -5122.595146011728, 0.0]
['beep', 0.0, -750.0351369422838, 0.0, 0.0, 0.0, 0.0, -5110.256983072399, 0.0]
['beep', 0.0, -762.2838929037921, 0.0, 0.0, 0.0, 0.0, -5085.603008938195, 0.0]
['beep', 0.0, -752.1138491766274, 0.0, 0.0, 0.0, 0.0, -5080.730328646938, 0.0]
['beep', 0.0, -732.6678315005103, 0.0, 0.0, 0.0, 0.0, -5102.478576001951, 0.0]
['beep', 0.0, -730.4550087994348, 0.0, 0.0, 0.0, 0.0, -5120.248212843921, 0.0]
['beep', 0.0, -749.6551572865436, 0.0, 0.0, 0.0, 0.0, -5107.731235948949, 0.0]
['beep', 0.0, -762.4403551149792, 0.0, 0.0, 0.0, 0.0, -5082.697282159005, 0.0]
['beep', 0.0, -753.0973259326609, 0.0, 0.0, 0.0, 0.0, -5082.071433314256, 0.0]
['beep', 0.0, -733.2713286008035, 0.0, 0.0, 0.0, 0.0, -5104.110253347189, 0.0]
['beep', 0.0, -727.7951512092533, 0.0, 0.0, 0.0, 0.0, -5120.91876517758, 0.0]
['beep', 0.0, -748.9175497195184, 0.0, 0.0, 0.0, 0.0, -5110.346390050219, 0.0]
['beep', 0.0, -764.027328971306, 0.0, 0.0, 0.0, 0.0, -5086.407671738586, 0.0]
['beep', 0.0, -750.929206720496, 0.0, 0.0, 0.0, 0.0, -5082.183192036533, 0.0]
['beep', 0.0, -730.8796919440856, 0.0, 0.0, 0.0, 0.0, -5102.657389957594, 0.0]
['beep', 0.0, -730.0526773992393, 0.0, 0.0, 0.0, 0.0, -5119.085922132244, 0.0]
['beep', 0.0, -748.3811078525911, 0.0, 0.0, 0.0, 0.0, -5109.4523202720075, 0.0]
['beep', 0.0, -763.5132388488339, 0.0, 0.0, 0.0, 0.0, -5084.954808348991, 0.0]
['beep', 0.0, -752.6279392990995, 0.0, 0.0, 0.0, 0.0, -5079.679796657539, 0.0]
['beep', 0.0, -734.835950712675, 0.0, 0.0, 0.0, 0.0, -5102.34446553522, 0.0]
['beep', 0.0, -733.0478111562504, 0.0, 0.0, 0.0, 0.0, -5119.9576401660015, 0.0]
['beep', 0.0, -749.6998607754542, 0.0, 0.0, 0.0, 0.0, -5109.653485972105, 0.0]
['beep', 0.0, -761.8815615035966, 0.0, 0.0, 0.0, 0.0, -5085.982988593935, 0.0]
['beep', 0.0, -751.4432968429682, 0.0, 0.0, 0.0, 0.0, -5081.95967459198, 0.0]
['beep', 0.0, -733.5842530231778, 0.0, 0.0, 0.0, 0.0, -5103.037369613334, 0.0]
['beep', 0.0, -731.7290582333873, 0.0, 0.0, 0.0, 0.0, -5122.7739599673705, 0.0]
['beep', 0.0, -749.6328055420882, 0.0, 0.0, 0.0, 0.0, -5110.0334656278455, 0.0]
['beep', 0.0, -759.8699045026189, 0.0, 0.0, 0.0, 0.0, -5083.881924615136, 0.0]
['beep', 0.0, -749.2081223974375, 0.0, 0.0, 0.0, 0.0, -5080.484459457929, 0.0]
['beep', 0.0, -730.6114710106219, 0.0, 0.0, 0.0, 0.0, -5101.696264946016, 0.0]
['beep', 0.0, -730.7679332218091, 0.0, 0.0, 0.0, 0.0, -5120.136454121644, 0.0]
['beep', 0.0, -749.029308441795, 0.0, 0.0, 0.0, 0.0, -5111.195756339522, 0.0]
['beep', 0.0, -763.1779626820044, 0.0, 0.0, 0.0, 0.0, -5087.212334538977, 0.0]
['beep', 0.0, -753.8796369885966, 0.0, 0.0, 0.0, 0.0, -5081.467936213963, 0.0]
['beep', 0.0, -732.0419826557616, 0.0, 0.0, 0.0, 0.0, -5103.48440450244, 0.0]
['beep', 0.0, -729.0244971542952, 0.0, 0.0, 0.0, 0.0, -5122.706904734005, 0.0]
['beep', 0.0, -749.6328055420882, 0.0, 0.0, 0.0, 0.0, -5112.5592127512955, 0.0]
['beep', 0.0, -763.9155702490294, 0.0, 0.0, 0.0, 0.0, -5086.832354883237, 0.0]
['beep', 0.0, -753.3655468661245, 0.0, 0.0, 0.0, 0.0, -5080.998549580401, 0.0]
['beep', 0.0, -731.7514099778426, 0.0, 0.0, 0.0, 0.0, -5099.371683522664, 0.0]
['beep', 0.0, -729.6503459990438, 0.0, 0.0, 0.0, 0.0, -5119.600012254717, 0.0]
['beep', 0.0, -748.1128869191274, 0.0, 0.0, 0.0, 0.0, -5109.586430738739, 0.0]
['beep', 0.0, -763.1779626820044, 0.0, 0.0, 0.0, 0.0, -5086.608837438684, 0.0]
['beep', 0.0, -755.4219073560128, 0.0, 0.0, 0.0, 0.0, -5080.819735624759, 0.0]
['beep', 0.0, -734.321860590203, 0.0, 0.0, 0.0, 0.0, -5101.8750789016585, 0.0]
['beep', 0.0, -728.7562762208315, 0.0, 0.0, 0.0, 0.0, -5120.270564588376, 0.0]
['beep', 0.0, -748.9399014639738, 0.0, 0.0, 0.0, 0.0, -5108.848823171714, 0.0]
['beep', 0.0, -764.1390876935825, 0.0, 0.0, 0.0, 0.0, -5087.1005758167, 0.0]
['beep', 0.0, -757.031232956795, 0.0, 0.0, 0.0, 0.0, -5078.897485601603, 0.0]
['beep', 0.0, -737.898139703052, 0.0, 0.0, 0.0, 0.0, -5098.477613744451, 0.0]
['beep', 0.0, -734.6124332681219, 0.0, 0.0, 0.0, 0.0, -5120.829358199759, 0.0]
['beep', 0.0, -753.0526224437502, 0.0, 0.0, 0.0, 0.0, -5111.083997617245, 0.0]
['beep', 0.0, -767.5365528507892, 0.0, 0.0, 0.0, 0.0, -5083.703110659494, 0.0]
['beep', 0.0, -757.3888608680799, 0.0, 0.0, 0.0, 0.0, -5078.249285012399, 0.0]
['beep', 0.0, -736.579386780189, 0.0, 0.0, 0.0, 0.0, -5100.1539945786, 0.0]
['beep', 0.0, -731.9749274223957, 0.0, 0.0, 0.0, 0.0, -5120.136454121644, 0.0]
['beep', 0.0, -750.2810061312922, 0.0, 0.0, 0.0, 0.0, -5110.301686561309, 0.0]
['beep', 0.0, -765.5919510831775, 0.0, 0.0, 0.0, 0.0, -5084.172497293055, 0.0]
['beep', 0.0, -755.734831778387, 0.0, 0.0, 0.0, 0.0, -5078.539857690318, 0.0]
['beep', 0.0, -736.3782210800912, 0.0, 0.0, 0.0, 0.0, -5100.243401556421, 0.0]
['beep', 0.0, -734.6347850125773, 0.0, 0.0, 0.0, 0.0, -5117.588355253739, 0.0]
['beep', 0.0, -752.4044218545464, 0.0, 0.0, 0.0, 0.0, -5104.847860914214, 0.0]
['beep', 0.0, -766.5083726058451, 0.0, 0.0, 0.0, 0.0, -5081.467936213963, 0.0]
['beep', 0.0, -758.5287998353004, 0.0, 0.0, 0.0, 0.0, -5076.081165800234, 0.0]
['beep', 0.0, -734.3889158235688, 0.0, 0.0, 0.0, 0.0, -5096.823584654759, 0.0]
['beep', 0.0, -730.1197326326052, 0.0, 0.0, 0.0, 0.0, -5118.0800936317555, 0.0]
['beep', 0.0, -747.867017730119, 0.0, 0.0, 0.0, 0.0, -5109.385265038642, 0.0]
['beep', 0.0, -763.6026458266551, 0.0, 0.0, 0.0, 0.0, -5085.044215326812, 0.0]
['beep', 0.0, -756.450087600957, 0.0, 0.0, 0.0, 0.0, -5077.735194889927, 0.0]
['beep', 0.0, -739.5298170482895, 0.0, 0.0, 0.0, 0.0, -5098.611724211183, 0.0]
['beep', 0.0, -734.0536396567393, 0.0, 0.0, 0.0, 0.0, -5115.7331604639485, 0.0]
['beep', 0.0, -749.2751776308033, 0.0, 0.0, 0.0, 0.0, -5106.501890003907, 0.0]
['beep', 0.0, -765.6366545720881, 0.0, 0.0, 0.0, 0.0, -5083.546648448307, 0.0]
['beep', 0.0, -759.6016835691552, 0.0, 0.0, 0.0, 0.0, -5076.7517181338935, 0.0]
['beep', 0.0, -739.9545001929403, 0.0, 0.0, 0.0, 0.0, -5100.1539945786, 0.0]
['beep', 0.0, -734.7912472237643, 0.0, 0.0, 0.0, 0.0, -5119.532957021351, 0.0]
['beep', 0.0, -750.705689275943, 0.0, 0.0, 0.0, 0.0, -5109.631134227649, 0.0]
['beep', 0.0, -764.6978813049652, 0.0, 0.0, 0.0, 0.0, -5085.24538102691, 0.0]
['beep', 0.0, -758.8193725132195, 0.0, 0.0, 0.0, 0.0, -5075.880000100136, 0.0]
['beep', 0.0, -737.1158286471164, 0.0, 0.0, 0.0, 0.0, -5095.504831731896, 0.0]
['beep', 0.0, -732.1537413780381, 0.0, 0.0, 0.0, 0.0, -5117.342486064731, 0.0]
['beep', 0.0, -751.0186136983173, 0.0, 0.0, 0.0, 0.0, -5109.96641039448, 0.0]
['beep', 0.0, -766.4860208613898, 0.0, 0.0, 0.0, 0.0, -5085.513601960373, 0.0]
['beep', 0.0, -757.835895757186, 0.0, 0.0, 0.0, 0.0, -5076.9305320895355, 0.0]
['beep', 0.0, -736.2441106133593, 0.0, 0.0, 0.0, 0.0, -5096.801232910304, 0.0]
['beep', 0.0, -731.3714303221024, 0.0, 0.0, 0.0, 0.0, -5116.0237331418675, 0.0]
['beep', 0.0, -750.2586543868368, 0.0, 0.0, 0.0, 0.0, -5106.233669070443, 0.0]
['beep', 0.0, -766.1060412056496, 0.0, 0.0, 0.0, 0.0, -5083.948979848502, 0.0]
['beep', 0.0, -758.1041166906497, 0.0, 0.0, 0.0, 0.0, -5078.159878034578, 0.0]
['beep', 0.0, -735.9535379354403, 0.0, 0.0, 0.0, 0.0, -5098.701131189005, 0.0]
['beep', 0.0, -729.5609390212226, 0.0, 0.0, 0.0, 0.0, -5119.264736087887, 0.0]
['beep', 0.0, -745.2518636288481, 0.0, 0.0, 0.0, 0.0, -5111.553384250807, 0.0]
['beep', 0.0, -760.6969190474653, 0.0, 0.0, 0.0, 0.0, -5084.351311248697, 0.0]
['beep', 0.0, -753.7008230329542, 0.0, 0.0, 0.0, 0.0, -5075.544723933306, 0.0]
['beep', 0.0, -734.0312879122839, 0.0, 0.0, 0.0, 0.0, -5097.292971288321, 0.0]
['beep', 0.0, -731.3043750887365, 0.0, 0.0, 0.0, 0.0, -5117.990686653935, 0.0]
['beep', 0.0, -749.2751776308033, 0.0, 0.0, 0.0, 0.0, -5108.5135470048845, 0.0]
['beep', 0.0, -767.8494772731635, 0.0, 0.0, 0.0, 0.0, -5084.060738570779, 0.0]
['beep', 0.0, -761.8815615035966, 0.0, 0.0, 0.0, 0.0, -5075.924703589047, 0.0]
['beep', 0.0, -736.7358489913761, 0.0, 0.0, 0.0, 0.0, -5094.856631142692, 0.0]
['beep', 0.0, -729.5385872767672, 0.0, 0.0, 0.0, 0.0, -5114.660276730094, 0.0]
['beep', 0.0, -746.2800438737922, 0.0, 0.0, 0.0, 0.0, -5104.5796399807505, 0.0]
['beep', 0.0, -763.0662039597278, 0.0, 0.0, 0.0, 0.0, -5080.752680391393, 0.0]
['beep', 0.0, -756.5171428343228, 0.0, 0.0, 0.0, 0.0, -5073.555418676784, 0.0]
['beep', 0.0, -735.8641309576191, 0.0, 0.0, 0.0, 0.0, -5092.107366574689, 0.0]
['beep', 0.0, -727.8845581870745, 0.0, 0.0, 0.0, 0.0, -5110.994590639423, 0.0]
['beep', 0.0, -748.9175497195184, 0.0, 0.0, 0.0, 0.0, -5106.121910348166, 0.0]
['beep', 0.0, -767.8047737842529, 0.0, 0.0, 0.0, 0.0, -5079.970369335458, 0.0]
['beep', 0.0, -760.026366713806, 0.0, 0.0, 0.0, 0.0, -5071.7672791203595, 0.0]
['beep', 0.0, -739.127485648094, 0.0, 0.0, 0.0, 0.0, -5088.620494439661, 0.0]
['beep', 0.0, -733.6513082565438, 0.0, 0.0, 0.0, 0.0, -5108.53589874934, 0.0]
['beep', 0.0, -750.3927648535687, 0.0, 0.0, 0.0, 0.0, -5103.171480080066, 0.0]
['beep', 0.0, -765.256674916348, 0.0, 0.0, 0.0, 0.0, -5078.919837346058, 0.0]
['beep', 0.0, -757.5900265681776, 0.0, 0.0, 0.0, 0.0, -5070.426174453041, 0.0]
['beep', 0.0, -736.1770553799934, 0.0, 0.0, 0.0, 0.0, -5087.301741516798, 0.0]
['beep', 0.0, -732.6678315005103, 0.0, 0.0, 0.0, 0.0, -5107.798291182315, 0.0]
['beep', 0.0, -750.8621514871302, 0.0, 0.0, 0.0, 0.0, -5103.529107991351, 0.0]
['beep', 0.0, -765.3460818941692, 0.0, 0.0, 0.0, 0.0, -5078.00341582339, 0.0]
['beep', 0.0, -757.8582475016412, 0.0, 0.0, 0.0, 0.0, -5068.347462218698, 0.0]
['beep', 0.0, -736.7134972469208, 0.0, 0.0, 0.0, 0.0, -5087.81583163927, 0.0]
['beep', 0.0, -730.9243954329962, 0.0, 0.0, 0.0, 0.0, -5109.96641039448, 0.0]
['beep', 0.0, -747.3082241187363, 0.0, 0.0, 0.0, 0.0, -5100.6457329566165, 0.0]
['beep', 0.0, -763.222666170915, 0.0, 0.0, 0.0, 0.0, -5075.343558233209, 0.0]
['beep', 0.0, -758.6629103020323, 0.0, 0.0, 0.0, 0.0, -5068.213351751966, 0.0]
['beep', 0.0, -740.2003693819487, 0.0, 0.0, 0.0, 0.0, -5086.653540927594, 0.0]
['beep', 0.0, -732.2655001003146, 0.0, 0.0, 0.0, 0.0, -5108.446491771519, 0.0]
['beep', 0.0, -748.6940322749654, 0.0, 0.0, 0.0, 0.0, -5101.8750789016585, 0.0]
['beep', 0.0, -762.9991487263619, 0.0, 0.0, 0.0, 0.0, -5074.203619265988, 0.0]
['beep', 0.0, -754.4607823444346, 0.0, 0.0, 0.0, 0.0, -5064.033575538823, 0.0]
['beep', 0.0, -737.160532136027, 0.0, 0.0, 0.0, 0.0, -5085.021863582357, 0.0]
['beep', 0.0, -731.997279166851, 0.0, 0.0, 0.0, 0.0, -5107.910049904591, 0.0]
['beep', 0.0, -749.4986950753564, 0.0, 0.0, 0.0, 0.0, -5101.182174823543, 0.0]
['beep', 0.0, -765.8378202721859, 0.0, 0.0, 0.0, 0.0, -5075.634130911128, 0.0]
['beep', 0.0, -759.9369597359848, 0.0, 0.0, 0.0, 0.0, -5066.536970917818, 0.0]
['beep', 0.0, -737.8534362141414, 0.0, 0.0, 0.0, 0.0, -5087.972293850457, 0.0]
['beep', 0.0, -731.9302239334851, 0.0, 0.0, 0.0, 0.0, -5108.468843515974, 0.0]
['beep', 0.0, -749.6551572865436, 0.0, 0.0, 0.0, 0.0, -5099.751663178404, 0.0]
['beep', 0.0, -765.8378202721859, 0.0, 0.0, 0.0, 0.0, -5072.86251459867, 0.0]
['beep', 0.0, -758.9758347244066, 0.0, 0.0, 0.0, 0.0, -5067.743965118404, 0.0]
['beep', 0.0, -740.4462385709571, 0.0, 0.0, 0.0, 0.0, -5087.458203727985, 0.0]
['beep', 0.0, -734.0089361678287, 0.0, 0.0, 0.0, 0.0, -5107.708884204493, 0.0]
['beep', 0.0, -749.543398564267, 0.0, 0.0, 0.0, 0.0, -5100.8245469122585, 0.0]
['beep', 0.0, -768.2741604178144, 0.0, 0.0, 0.0, 0.0, -5077.3999187230975, 0.0]
['beep', 0.0, -762.6191690706216, 0.0, 0.0, 0.0, 0.0, -5067.8333720962255, 0.0]
['beep', 0.0, -738.0322501697839, 0.0, 0.0, 0.0, 0.0, -5087.167631050066, 0.0]
['beep', 0.0, -733.0031076673398, 0.0, 0.0, 0.0, 0.0, -5111.1510528506105, 0.0]
['beep', 0.0, -750.3927648535687, 0.0, 0.0, 0.0, 0.0, -5103.283238802343, 0.0]
['beep', 0.0, -766.642483072577, 0.0, 0.0, 0.0, 0.0, -5076.394090222609, 0.0]
['beep', 0.0, -760.4957533473676, 0.0, 0.0, 0.0, 0.0, -5067.475744184941, 0.0]
['beep', 0.0, -739.2615961148258, 0.0, 0.0, 0.0, 0.0, -5087.6146659391725, 0.0]
['beep', 0.0, -734.3889158235688, 0.0, 0.0, 0.0, 0.0, -5108.670009216072, 0.0]
['beep', 0.0, -750.2363026423816, 0.0, 0.0, 0.0, 0.0, -5103.4620527579855, 0.0]
['beep', 0.0, -768.5423813512781, 0.0, 0.0, 0.0, 0.0, -5077.5787326787395, 0.0]
['beep', 0.0, -764.5414190937781, 0.0, 0.0, 0.0, 0.0, -5067.743965118404, 0.0]
['beep', 0.0, -741.2285496268928, 0.0, 0.0, 0.0, 0.0, -5089.402805495597, 0.0]
['beep', 0.0, -731.4384855554683, 0.0, 0.0, 0.0, 0.0, -5110.949887150513, 0.0]
['beep', 0.0, -748.5822735526889, 0.0, 0.0, 0.0, 0.0, -5104.490233002929, 0.0]
['beep', 0.0, -766.0389859722836, 0.0, 0.0, 0.0, 0.0, -5078.6963199015045, 0.0]
['beep', 0.0, -760.0487184582613, 0.0, 0.0, 0.0, 0.0, -5071.320244231253, 0.0]
['beep', 0.0, -739.5298170482895, 0.0, 0.0, 0.0, 0.0, -5091.615628196672, 0.0]
['beep', 0.0, -732.7125349894209, 0.0, 0.0, 0.0, 0.0, -5111.888660417636, 0.0]
['beep', 0.0, -749.8786747310967, 0.0, 0.0, 0.0, 0.0, -5107.664180715583, 0.0]
['beep', 0.0, -764.4520121159569, 0.0, 0.0, 0.0, 0.0, -5081.490287958418, 0.0]
['beep', 0.0, -755.1983899114597, 0.0, 0.0, 0.0, 0.0, -5069.040366296812, 0.0]
['beep', 0.0, -735.0147646683174, 0.0, 0.0, 0.0, 0.0, -5089.872192129158, 0.0]
['beep', 0.0, -728.1974826094488, 0.0, 0.0, 0.0, 0.0, -5113.497986018418, 0.0]
['beep', 0.0, -747.1517619075491, 0.0, 0.0, 0.0, 0.0, -5106.434834770541, 0.0]
['beep', 0.0, -765.1225644496161, 0.0, 0.0, 0.0, 0.0, -5082.250247269899, 0.0]
['beep', 0.0, -762.2391894148815, 0.0, 0.0, 0.0, 0.0, -5072.86251459867, 0.0]
['beep', 0.0, -741.7649914938202, 0.0, 0.0, 0.0, 0.0, -5090.855668885192, 0.0]
['beep', 0.0, -734.5006745458454, 0.0, 0.0, 0.0, 0.0, -5114.213241840987, 0.0]
['beep', 0.0, -751.6444625430659, 0.0, 0.0, 0.0, 0.0, -5109.944058650024, 0.0]
['beep', 0.0, -766.5977795836664, 0.0, 0.0, 0.0, 0.0, -5082.876096114647, 0.0]
['beep', 0.0, -758.349985879658, 0.0, 0.0, 0.0, 0.0, -5074.270674499354, 0.0]
['beep', 0.0, -739.7533344928426, 0.0, 0.0, 0.0, 0.0, -5092.599104952706, 0.0]
['beep', 0.0, -733.8971774455521, 0.0, 0.0, 0.0, 0.0, -5115.129663363656, 0.0]
['beep', 0.0, -751.1303724205939, 0.0, 0.0, 0.0, 0.0, -5109.273506316365, 0.0]
['beep', 0.0, -766.642483072577, 0.0, 0.0, 0.0, 0.0, -5084.775994393349, 0.0]
['beep', 0.0, -759.9146079915295, 0.0, 0.0, 0.0, 0.0, -5076.058814055778, 0.0]
['beep', 0.0, -740.7591629933314, 0.0, 0.0, 0.0, 0.0, -5093.560229964284, 0.0]
['beep', 0.0, -734.6347850125773, 0.0, 0.0, 0.0, 0.0, -5114.883794174647, 0.0]
['beep', 0.0, -749.1410671640715, 0.0, 0.0, 0.0, 0.0, -5109.832299927748, 0.0]
['beep', 0.0, -766.4413173724791, 0.0, 0.0, 0.0, 0.0, -5088.464032228474, 0.0]
['beep', 0.0, -761.5462853367669, 0.0, 0.0, 0.0, 0.0, -5075.790593122315, 0.0]
['beep', 0.0, -740.2450728708593, 0.0, 0.0, 0.0, 0.0, -5090.810965396281, 0.0]
['beep', 0.0, -732.4666658004124, 0.0, 0.0, 0.0, 0.0, -5114.593221496728, 0.0]
['beep', 0.0, -748.805790997242, 0.0, 0.0, 0.0, 0.0, -5111.9110121620915, 0.0]
['beep', 0.0, -764.5861225826887, 0.0, 0.0, 0.0, 0.0, -5087.949942106002, 0.0]
['beep', 0.0, -761.3451196366692, 0.0, 0.0, 0.0, 0.0, -5074.7624128773705, 0.0]
['beep', 0.0, -741.8767502160968, 0.0, 0.0, 0.0, 0.0, -5093.023788097356, 0.0]
['beep', 0.0, -733.1819216229823, 0.0, 0.0, 0.0, 0.0, -5113.609744740695, 0.0]
['beep', 0.0, -749.0963636751609, 0.0, 0.0, 0.0, 0.0, -5108.468843515974, 0.0]
['beep', 0.0, -766.642483072577, 0.0, 0.0, 0.0, 0.0, -5084.373662993153, 0.0]
['beep', 0.0, -762.1721341815155, 0.0, 0.0, 0.0, 0.0, -5074.404784966086, 0.0]
['beep', 0.0, -742.770819994309, 0.0, 0.0, 0.0, 0.0, -5092.7779189083485, 0.0]
['beep', 0.0, -734.4336193124794, 0.0, 0.0, 0.0, 0.0, -5117.7895209538365, 0.0]
['beep', 0.0, -752.3373666211804, 0.0, 0.0, 0.0, 0.0, -5112.827433684759, 0.0]
['beep', 0.0, -767.6930150619763, 0.0, 0.0, 0.0, 0.0, -5087.257038027888, 0.0]
['beep', 0.0, -764.4520121159569, 0.0, 0.0, 0.0, 0.0, -5075.343558233209, 0.0]
['beep', 0.0, -745.2518636288481, 0.0, 0.0, 0.0, 0.0, -5091.637979941128, 0.0]
['beep', 0.0, -736.4676280579124, 0.0, 0.0, 0.0, 0.0, -5117.074265131267, 0.0]
['beep', 0.0, -752.5161805768229, 0.0, 0.0, 0.0, 0.0, -5112.268640073376, 0.0]
['beep', 0.0, -767.9388842509848, 0.0, 0.0, 0.0, 0.0, -5085.8488781272035, 0.0]
['beep', 0.0, -761.2333609143926, 0.0, 0.0, 0.0, 0.0, -5077.064642556267, 0.0]
['beep', 0.0, -741.7649914938202, 0.0, 0.0, 0.0, 0.0, -5095.884811387636, 0.0]
['beep', 0.0, -736.1323518910827, 0.0, 0.0, 0.0, 0.0, -5115.889622675136, 0.0]
['beep', 0.0, -751.1080206761385, 0.0, 0.0, 0.0, 0.0, -5112.670971473572, 0.0]
['beep', 0.0, -769.3246924072138, 0.0, 0.0, 0.0, 0.0, -5086.117099060667, 0.0]
['beep', 0.0, -765.6813580609987, 0.0, 0.0, 0.0, 0.0, -5076.1482210336, 0.0]
['beep', 0.0, -744.8718839731079, 0.0, 0.0, 0.0, 0.0, -5096.0636253432785, 0.0]
['beep', 0.0, -734.9924129238622, 0.0, 0.0, 0.0, 0.0, -5118.772997709871, 0.0]
['beep', 0.0, -750.6833375314877, 0.0, 0.0, 0.0, 0.0, -5113.497986018418, 0.0]
['beep', 0.0, -767.0895179616831, 0.0, 0.0, 0.0, 0.0, -5085.826526382748, 0.0]
['beep', 0.0, -764.1167359491272, 0.0, 0.0, 0.0, 0.0, -5074.315377988265, 0.0]
['beep', 0.0, -743.2402066278704, 0.0, 0.0, 0.0, 0.0, -5090.229820040443, 0.0]
['beep', 0.0, -731.416133811013, 0.0, 0.0, 0.0, 0.0, -5111.642791228627, 0.0]
['beep', 0.0, -746.6823752739878, 0.0, 0.0, 0.0, 0.0, -5108.692360960527, 0.0]
['beep', 0.0, -767.3577388951468, 0.0, 0.0, 0.0, 0.0, -5087.7934798948145, 0.0]
['beep', 0.0, -764.1837911824931, 0.0, 0.0, 0.0, 0.0, -5077.221104767455, 0.0]
['beep', 0.0, -741.1614943935269, 0.0, 0.0, 0.0, 0.0, -5092.53204971934, 0.0]
['beep', 0.0, -733.4501425564459, 0.0, 0.0, 0.0, 0.0, -5113.386227296141, 0.0]
['beep', 0.0, -748.2469973858592, 0.0, 0.0, 0.0, 0.0, -5110.77107319487, 0.0]
['beep', 0.0, -765.4578406164457, 0.0, 0.0, 0.0, 0.0, -5087.637017683628, 0.0]
['beep', 0.0, -761.2780644033032, 0.0, 0.0, 0.0, 0.0, -5072.8178111097595, 0.0]
['beep', 0.0, -740.3791833375911, 0.0, 0.0, 0.0, 0.0, -5091.593276452217, 0.0]
['beep', 0.0, -732.3996105670465, 0.0, 0.0, 0.0, 0.0, -5115.420236041575, 0.0]
['beep', 0.0, -750.929206720496, 0.0, 0.0, 0.0, 0.0, -5111.329866806253, 0.0]
['beep', 0.0, -769.481154618401, 0.0, 0.0, 0.0, 0.0, -5087.994645594913, 0.0]
['beep', 0.0, -764.2955499047697, 0.0, 0.0, 0.0, 0.0, -5075.343558233209, 0.0]
['beep', 0.0, -744.7824769952866, 0.0, 0.0, 0.0, 0.0, -5089.6710264290605, 0.0]
['beep', 0.0, -732.8913489450633, 0.0, 0.0, 0.0, 0.0, -5112.626267984661, 0.0]
['beep', 0.0, -750.6386340425771, 0.0, 0.0, 0.0, 0.0, -5110.368741794675, 0.0]
['beep', 0.0, -768.3635673956356, 0.0, 0.0, 0.0, 0.0, -5084.6195321821615, 0.0]
['beep', 0.0, -762.7309277928982, 0.0, 0.0, 0.0, 0.0, -5071.47670644244, 0.0]
['beep', 0.0, -742.6143577831218, 0.0, 0.0, 0.0, 0.0, -5091.168593307566, 0.0]
['beep', 0.0, -732.3549070781359, 0.0, 0.0, 0.0, 0.0, -5114.325000563264, 0.0]
['beep', 0.0, -749.2081223974375, 0.0, 0.0, 0.0, 0.0, -5110.301686561309, 0.0]
['beep', 0.0, -767.5812563396998, 0.0, 0.0, 0.0, 0.0, -5083.9713315929575, 0.0]
['beep', 0.0, -762.9097417485407, 0.0, 0.0, 0.0, 0.0, -5071.141430275611, 0.0]
['beep', 0.0, -741.1614943935269, 0.0, 0.0, 0.0, 0.0, -5087.681721172538, 0.0]
['beep', 0.0, -733.1372181340716, 0.0, 0.0, 0.0, 0.0, -5110.592259239228, 0.0]
['beep', 0.0, -748.3140526192251, 0.0, 0.0, 0.0, 0.0, -5110.167576094577, 0.0]
['beep', 0.0, -764.4073086270463, 0.0, 0.0, 0.0, 0.0, -5084.507773459884, 0.0]
['beep', 0.0, -765.3013784052586, 0.0, 0.0, 0.0, 0.0, -5075.9917588224125, 0.0]
['beep', 0.0, -745.8106572402307, 0.0, 0.0, 0.0, 0.0, -5092.7779189083485, 0.0]
['beep', 0.0, -733.740715234365, 0.0, 0.0, 0.0, 0.0, -5115.06260813029, 0.0]
['beep', 0.0, -747.1517619075491, 0.0, 0.0, 0.0, 0.0, -5112.715674962482, 0.0]
['beep', 0.0, -767.4247941285126, 0.0, 0.0, 0.0, 0.0, -5086.832354883237, 0.0]
['beep', 0.0, -765.1225644496161, 0.0, 0.0, 0.0, 0.0, -5074.315377988265, 0.0]
['beep', 0.0, -745.3636223511246, 0.0, 0.0, 0.0, 0.0, -5091.794442152315, 0.0]
['beep', 0.0, -735.9535379354403, 0.0, 0.0, 0.0, 0.0, -5113.833262185248, 0.0]
['beep', 0.0, -752.2926631322698, 0.0, 0.0, 0.0, 0.0, -5112.5592127512955, 0.0]
['beep', 0.0, -771.2022389414595, 0.0, 0.0, 0.0, 0.0, -5088.8440118842145, 0.0]
['beep', 0.0, -768.1624016955378, 0.0, 0.0, 0.0, 0.0, -5073.667177399061, 0.0]
['beep', 0.0, -745.900064218052, 0.0, 0.0, 0.0, 0.0, -5091.347407263209, 0.0]
['beep', 0.0, -735.6853170019766, 0.0, 0.0, 0.0, 0.0, -5116.448416286518, 0.0]
['beep', 0.0, -750.8397997426748, 0.0, 0.0, 0.0, 0.0, -5113.497986018418, 0.0]
['beep', 0.0, -770.1964104409708, 0.0, 0.0, 0.0, 0.0, -5085.781822893837, 0.0]
['beep', 0.0, -767.2683319173256, 0.0, 0.0, 0.0, 0.0, -5072.9966250654015, 0.0]
['beep', 0.0, -747.6211485411106, 0.0, 0.0, 0.0, 0.0, -5092.375587508152, 0.0]
['beep', 0.0, -736.0205931688063, 0.0, 0.0, 0.0, 0.0, -5116.761340708893, 0.0]
['beep', 0.0, -749.8339712421861, 0.0, 0.0, 0.0, 0.0, -5114.414407541086, 0.0]
['beep', 0.0, -772.6103988421439, 0.0, 0.0, 0.0, 0.0, -5088.8440118842145, 0.0]
['beep', 0.0, -769.995244740873, 0.0, 0.0, 0.0, 0.0, -5075.120040788655, 0.0]
['beep', 0.0, -747.0623549297279, 0.0, 0.0, 0.0, 0.0, -5092.219125296966, 0.0]
['beep', 0.0, -737.0487734137504, 0.0, 0.0, 0.0, 0.0, -5116.470768030974, 0.0]
['beep', 0.0, -752.0691456877167, 0.0, 0.0, 0.0, 0.0, -5114.034427885345, 0.0]
['beep', 0.0, -771.381052897102, 0.0, 0.0, 0.0, 0.0, -5088.620494439661, 0.0]
['beep', 0.0, -768.0953464621718, 0.0, 0.0, 0.0, 0.0, -5072.549590176295, 0.0]
['beep', 0.0, -746.9282444629961, 0.0, 0.0, 0.0, 0.0, -5091.1015380742, 0.0]
['beep', 0.0, -734.2101018679264, 0.0, 0.0, 0.0, 0.0, -5116.403712797608, 0.0]
['beep', 0.0, -749.0963636751609, 0.0, 0.0, 0.0, 0.0, -5113.766206951882, 0.0]
['beep', 0.0, -770.2634656743367, 0.0, 0.0, 0.0, 0.0, -5089.089881073222, 0.0]
['beep', 0.0, -769.2352854293925, 0.0, 0.0, 0.0, 0.0, -5075.835296611225, 0.0]
['beep', 0.0, -749.1857706529821, 0.0, 0.0, 0.0, 0.0, -5091.81679389677, 0.0]
['beep', 0.0, -737.6969740029543, 0.0, 0.0, 0.0, 0.0, -5118.795349454325, 0.0]
['beep', 0.0, -754.3713753666134, 0.0, 0.0, 0.0, 0.0, -5116.58252675325, 0.0]
['beep', 0.0, -774.7561663098534, 0.0, 0.0, 0.0, 0.0, -5089.156936306588, 0.0]
['beep', 0.0, -767.447145872968, 0.0, 0.0, 0.0, 0.0, -5073.756584376882, 0.0]
['beep', 0.0, -745.4306775844906, 0.0, 0.0, 0.0, 0.0, -5089.939247362524, 0.0]
['beep', 0.0, -735.5959100241554, 0.0, 0.0, 0.0, 0.0, -5116.046084886323, 0.0]
['beep', 0.0, -748.6716805305101, 0.0, 0.0, 0.0, 0.0, -5114.503814518906, 0.0]
['beep', 0.0, -769.704672062954, 0.0, 0.0, 0.0, 0.0, -5089.112232817678, 0.0]
['beep', 0.0, -769.2576371738479, 0.0, 0.0, 0.0, 0.0, -5077.176401278544, 0.0]
['beep', 0.0, -748.9175497195184, 0.0, 0.0, 0.0, 0.0, -5092.420290997064, 0.0]
['beep', 0.0, -735.6853170019766, 0.0, 0.0, 0.0, 0.0, -5116.7836924533485, 0.0]
['beep', 0.0, -750.4821718313899, 0.0, 0.0, 0.0, 0.0, -5114.570869752272, 0.0]
['beep', 0.0, -771.3363494081914, 0.0, 0.0, 0.0, 0.0, -5091.0791863297445, 0.0]
['beep', 0.0, -766.9107040060406, 0.0, 0.0, 0.0, 0.0, -5076.438793711519, 0.0]
['beep', 0.0, -745.8330089846861, 0.0, 0.0, 0.0, 0.0, -5091.660331685583, 0.0]
['beep', 0.0, -733.8971774455521, 0.0, 0.0, 0.0, 0.0, -5117.9012796761135, 0.0]
['beep', 0.0, -747.4870380743788, 0.0, 0.0, 0.0, 0.0, -5118.571832009773, 0.0]
['beep', 0.0, -768.8776575181076, 0.0, 0.0, 0.0, 0.0, -5091.034482840834, 0.0]
['beep', 0.0, -767.7153668064317, 0.0, 0.0, 0.0, 0.0, -5075.455316955486, 0.0]
['beep', 0.0, -748.3587561081358, 0.0, 0.0, 0.0, 0.0, -5088.0840525727335, 0.0]
['beep', 0.0, -735.1712268795046, 0.0, 0.0, 0.0, 0.0, -5114.459111029996, 0.0]
['beep', 0.0, -748.9175497195184, 0.0, 0.0, 0.0, 0.0, -5114.660276730094, 0.0]
['beep', 0.0, -769.2576371738479, 0.0, 0.0, 0.0, 0.0, -5089.7827851513375, 0.0]
['beep', 0.0, -767.2459801728702, 0.0, 0.0, 0.0, 0.0, -5076.952883833991, 0.0]
['beep', 0.0, -745.8553607291414, 0.0, 0.0, 0.0, 0.0, -5093.984913108935, 0.0]
['beep', 0.0, -734.2324536123817, 0.0, 0.0, 0.0, 0.0, -5119.689419232538, 0.0]
['beep', 0.0, -750.2363026423816, 0.0, 0.0, 0.0, 0.0, -5118.616535498683, 0.0]
['beep', 0.0, -770.285817418792, 0.0, 0.0, 0.0, 0.0, -5091.682683430038, 0.0]
['beep', 0.0, -770.1740586965154, 0.0, 0.0, 0.0, 0.0, -5073.890694843614, 0.0]
['beep', 0.0, -750.4821718313899, 0.0, 0.0, 0.0, 0.0, -5089.9615991069795, 0.0]
['beep', 0.0, -736.1770553799934, 0.0, 0.0, 0.0, 0.0, -5113.900317418614, 0.0]
['beep', 0.0, -750.9068549760408, 0.0, 0.0, 0.0, 0.0, -5113.654448229605, 0.0]
['beep', 0.0, -770.9563697524512, 0.0, 0.0, 0.0, 0.0, -5091.5485729633065, 0.0]
['beep', 0.0, -770.062299974239, 0.0, 0.0, 0.0, 0.0, -5075.745889633405, 0.0]
['beep', 0.0, -749.3645846086246, 0.0, 0.0, 0.0, 0.0, -5089.134584562134, 0.0]
['beep', 0.0, -737.0711251582057, 0.0, 0.0, 0.0, 0.0, -5115.017904641379, 0.0]
['beep', 0.0, -749.9457299644625, 0.0, 0.0, 0.0, 0.0, -5115.889622675136, 0.0]
['beep', 0.0, -769.8834860185965, 0.0, 0.0, 0.0, 0.0, -5089.581619451239, 0.0]
['beep', 0.0, -771.1128319636383, 0.0, 0.0, 0.0, 0.0, -5075.231799510932, 0.0]
['beep', 0.0, -750.929206720496, 0.0, 0.0, 0.0, 0.0, -5091.5485729633065, 0.0]
['beep', 0.0, -738.1216571476051, 0.0, 0.0, 0.0, 0.0, -5117.007209897901, 0.0]
['beep', 0.0, -750.2363026423816, 0.0, 0.0, 0.0, 0.0, -5118.01303839839, 0.0]
['beep', 0.0, -770.1070034631496, 0.0, 0.0, 0.0, 0.0, -5092.308532274787, 0.0]
['beep', 0.0, -769.7270238074093, 0.0, 0.0, 0.0, 0.0, -5076.125869289144, 0.0]
['beep', 0.0, -748.6493287860548, 0.0, 0.0, 0.0, 0.0, -5093.046139841812, 0.0]
['beep', 0.0, -737.0711251582057, 0.0, 0.0, 0.0, 0.0, -5119.421198299075, 0.0]
['beep', 0.0, -752.158552665538, 0.0, 0.0, 0.0, 0.0, -5117.29778257582, 0.0]
['beep', 0.0, -772.2751226753144, 0.0, 0.0, 0.0, 0.0, -5092.979084608446, 0.0]
['beep', 0.0, -770.0846517186942, 0.0, 0.0, 0.0, 0.0, -5078.6963199015045, 0.0]
['beep', 0.0, -749.6551572865436, 0.0, 0.0, 0.0, 0.0, -5092.554401463795, 0.0]
['beep', 0.0, -735.8864827020744, 0.0, 0.0, 0.0, 0.0, -5116.984858153446, 0.0]
['beep', 0.0, -751.5997590541552, 0.0, 0.0, 0.0, 0.0, -5114.01207614089, 0.0]
['beep', 0.0, -772.6103988421439, 0.0, 0.0, 0.0, 0.0, -5091.034482840834, 0.0]
['beep', 0.0, -772.4539366309568, 0.0, 0.0, 0.0, 0.0, -5079.590389679717, 0.0]
['beep', 0.0, -748.8728462306078, 0.0, 0.0, 0.0, 0.0, -5092.599104952706, 0.0]
['beep', 0.0, -736.6687937580102, 0.0, 0.0, 0.0, 0.0, -5117.186023853544, 0.0]
['beep', 0.0, -751.6891660319765, 0.0, 0.0, 0.0, 0.0, -5119.6670674880825, 0.0]
['beep', 0.0, -769.704672062954, 0.0, 0.0, 0.0, 0.0, -5093.4261194975525, 0.0]
['beep', 0.0, -769.5929133406775, 0.0, 0.0, 0.0, 0.0, -5079.38922397962, 0.0]
['beep', 0.0, -751.7562212653424, 0.0, 0.0, 0.0, 0.0, -5092.085014830233, 0.0]
['beep', 0.0, -738.8592647146303, 0.0, 0.0, 0.0, 0.0, -5119.15297736561, 0.0]
['beep', 0.0, -752.8738084881078, 0.0, 0.0, 0.0, 0.0, -5117.454244787007, 0.0]
['beep', 0.0, -771.6045703416551, 0.0, 0.0, 0.0, 0.0, -5091.481517729941, 0.0]
['beep', 0.0, -771.6939773194763, 0.0, 0.0, 0.0, 0.0, -5075.120040788655, 0.0]
['beep', 0.0, -751.7785730097977, 0.0, 0.0, 0.0, 0.0, -5091.928552619047, 0.0]
['beep', 0.0, -737.4287530694907, 0.0, 0.0, 0.0, 0.0, -5117.811872698292, 0.0]
['beep', 0.0, -751.6891660319765, 0.0, 0.0, 0.0, 0.0, -5118.370666309675, 0.0]
['beep', 0.0, -769.7717272963199, 0.0, 0.0, 0.0, 0.0, -5093.560229964284, 0.0]
['beep', 0.0, -770.1070034631496, 0.0, 0.0, 0.0, 0.0, -5076.1482210336, 0.0]
['beep', 0.0, -752.6279392990995, 0.0, 0.0, 0.0, 0.0, -5089.179288051044, 0.0]
['beep', 0.0, -740.3791833375911, 0.0, 0.0, 0.0, 0.0, -5115.755512208404, 0.0]
['beep', 0.0, -749.7222125199095, 0.0, 0.0, 0.0, 0.0, -5119.06357038779, 0.0]
['beep', 0.0, -769.1905819404819, 0.0, 0.0, 0.0, 0.0, -5093.537878219829, 0.0]
['beep', 0.0, -770.7105005634428, 0.0, 0.0, 0.0, 0.0, -5077.131697789633, 0.0]
['beep', 0.0, -751.286834631781, 0.0, 0.0, 0.0, 0.0, -5090.229820040443, 0.0]
['beep', 0.0, -737.1828838804822, 0.0, 0.0, 0.0, 0.0, -5115.77786395286, 0.0]
['beep', 0.0, -749.9457299644625, 0.0, 0.0, 0.0, 0.0, -5119.15297736561, 0.0]
['beep', 0.0, -769.6152650851328, 0.0, 0.0, 0.0, 0.0, -5093.4261194975525, 0.0]
['beep', 0.0, -768.8106022847418, 0.0, 0.0, 0.0, 0.0, -5076.885828600625, 0.0]
['beep', 0.0, -748.5599218082335, 0.0, 0.0, 0.0, 0.0, -5090.654503185094, 0.0]
['beep', 0.0, -737.8757879585968, 0.0, 0.0, 0.0, 0.0, -5114.883794174647, 0.0]
['beep', 0.0, -751.9126834765295, 0.0, 0.0, 0.0, 0.0, -5116.269602330876, 0.0]
['beep', 0.0, -772.6103988421439, 0.0, 0.0, 0.0, 0.0, -5091.77209040786, 0.0]
['beep', 0.0, -773.5715238537222, 0.0, 0.0, 0.0, 0.0, -5076.237628011421, 0.0]
['beep', 0.0, -753.0749741882056, 0.0, 0.0, 0.0, 0.0, -5089.425157240053, 0.0]
['beep', 0.0, -739.3957065815576, 0.0, 0.0, 0.0, 0.0, -5114.883794174647, 0.0]
['beep', 0.0, -749.5210468198118, 0.0, 0.0, 0.0, 0.0, -5120.53878552184, 0.0]
['beep', 0.0, -768.8106022847418, 0.0, 0.0, 0.0, 0.0, -5095.9518666210015, 0.0]
['beep', 0.0, -771.4034046415574, 0.0, 0.0, 0.0, 0.0, -5076.617607667161, 0.0]
['beep', 0.0, -752.963215465929, 0.0, 0.0, 0.0, 0.0, -5089.693378173516, 0.0]
['beep', 0.0, -740.3791833375911, 0.0, 0.0, 0.0, 0.0, -5115.353180808209, 0.0]
['beep', 0.0, -753.2314363993927, 0.0, 0.0, 0.0, 0.0, -5116.224898841965, 0.0]
['beep', 0.0, -770.5316866078003, 0.0, 0.0, 0.0, 0.0, -5092.375587508152, 0.0]
['beep', 0.0, -769.7270238074093, 0.0, 0.0, 0.0, 0.0, -5076.774069878348, 0.0]
['beep', 0.0, -749.8786747310967, 0.0, 0.0, 0.0, 0.0, -5088.776956650849, 0.0]
['beep', 0.0, -736.3111658467252, 0.0, 0.0, 0.0, 0.0, -5113.185061596044, 0.0]
['beep', 0.0, -748.7163840194207, 0.0, 0.0, 0.0, 0.0, -5117.454244787007, 0.0]
['beep', 0.0, -767.380090639602, 0.0, 0.0, 0.0, 0.0, -5093.448471242007, 0.0]
['beep', 0.0, -771.1128319636383, 0.0, 0.0, 0.0, 0.0, -5074.740061132916, 0.0]
['beep', 0.0, -753.5890643106776, 0.0, 0.0, 0.0, 0.0, -5088.799308395303, 0.0]
['beep', 0.0, -737.8087327252308, 0.0, 0.0, 0.0, 0.0, -5115.129663363656, 0.0]
['beep', 0.0, -750.2586543868368, 0.0, 0.0, 0.0, 0.0, -5116.448416286518, 0.0]
['beep', 0.0, -770.4422796299791, 0.0, 0.0, 0.0, 0.0, -5093.67198868656, 0.0]
['beep', 0.0, -767.8718290176188, 0.0, 0.0, 0.0, 0.0, -5075.611779166673, 0.0]
['beep', 0.0, -749.4763433309012, 0.0, 0.0, 0.0, 0.0, -5087.569962450262, 0.0]
['beep', 0.0, -738.8369129701749, 0.0, 0.0, 0.0, 0.0, -5114.34735230772, 0.0]
['beep', 0.0, -749.5881020531776, 0.0, 0.0, 0.0, 0.0, -5117.163672109088, 0.0]
['beep', 0.0, -770.3975761410685, 0.0, 0.0, 0.0, 0.0, -5095.169555565066, 0.0]
['beep', 0.0, -771.2692941748255, 0.0, 0.0, 0.0, 0.0, -5078.5175059458625, 0.0]
['beep', 0.0, -750.8621514871302, 0.0, 0.0, 0.0, 0.0, -5089.849840384703, 0.0]
['beep', 0.0, -738.2781193587923, 0.0, 0.0, 0.0, 0.0, -5113.654448229605, 0.0]
['beep', 0.0, -749.029308441795, 0.0, 0.0, 0.0, 0.0, -5117.387189553641, 0.0]
['beep', 0.0, -770.3305209077026, 0.0, 0.0, 0.0, 0.0, -5094.29783753131, 0.0]
['beep', 0.0, -770.9563697524512, 0.0, 0.0, 0.0, 0.0, -5075.544723933306, 0.0]
['beep', 0.0, -751.8903317320743, 0.0, 0.0, 0.0, 0.0, -5087.7934798948145, 0.0]
['beep', 0.0, -737.7640292363202, 0.0, 0.0, 0.0, 0.0, -5115.397884297119, 0.0]
['beep', 0.0, -748.7163840194207, 0.0, 0.0, 0.0, 0.0, -5118.527128520862, 0.0]
['beep', 0.0, -770.4422796299791, 0.0, 0.0, 0.0, 0.0, -5096.175384065555, 0.0]
['beep', 0.0, -771.2692941748255, 0.0, 0.0, 0.0, 0.0, -5078.428098968041, 0.0]
['beep', 0.0, -753.834933499686, 0.0, 0.0, 0.0, 0.0, -5090.475689229452, 0.0]
['beep', 0.0, -738.0322501697839, 0.0, 0.0, 0.0, 0.0, -5115.442587786029, 0.0]
['beep', 0.0, -747.0847066741833, 0.0, 0.0, 0.0, 0.0, -5115.956677908502, 0.0]
['beep', 0.0, -768.1624016955378, 0.0, 0.0, 0.0, 0.0, -5092.9567328639905, 0.0]
['beep', 0.0, -771.4928116193786, 0.0, 0.0, 0.0, 0.0, -5075.7011861444935, 0.0]
['beep', 0.0, -751.7115177764318, 0.0, 0.0, 0.0, 0.0, -5086.452375227496, 0.0]
['beep', 0.0, -735.4394478129683, 0.0, 0.0, 0.0, 0.0, -5111.44162552853, 0.0]
['beep', 0.0, -746.8611892296302, 0.0, 0.0, 0.0, 0.0, -5116.426064542064, 0.0]
['beep', 0.0, -766.7318900503982, 0.0, 0.0, 0.0, 0.0, -5096.398901510108, 0.0]
['beep', 0.0, -767.7600702953423, 0.0, 0.0, 0.0, 0.0, -5077.8693053566585, 0.0]
['beep', 0.0, -748.7610875083313, 0.0, 0.0, 0.0, 0.0, -5088.57579095075, 0.0]
['beep', 0.0, -736.0205931688063, 0.0, 0.0, 0.0, 0.0, -5115.219070341476, 0.0]
['beep', 0.0, -745.9224159625073, 0.0, 0.0, 0.0, 0.0, -5120.114102377189, 0.0]
['beep', 0.0, -765.413137127535, 0.0, 0.0, 0.0, 0.0, -5095.571886965262, 0.0]
['beep', 0.0, -769.3246924072138, 0.0, 0.0, 0.0, 0.0, -5076.617607667161, 0.0]
['beep', 0.0, -751.4432968429682, 0.0, 0.0, 0.0, 0.0, -5087.234686283432, 0.0]
['beep', 0.0, -737.2499391138482, 0.0, 0.0, 0.0, 0.0, -5114.9061459191025, 0.0]
['beep', 0.0, -748.5152183193229, 0.0, 0.0, 0.0, 0.0, -5119.979991910457, 0.0]
['beep', 0.0, -768.028291228806, 0.0, 0.0, 0.0, 0.0, -5097.67295094406, 0.0]
['beep', 0.0, -768.7211953069205, 0.0, 0.0, 0.0, 0.0, -5080.439755969019, 0.0]
['beep', 0.0, -750.9739102094067, 0.0, 0.0, 0.0, 0.0, -5091.526221218851, 0.0]
['beep', 0.0, -737.6969740029543, 0.0, 0.0, 0.0, 0.0, -5115.979029652957, 0.0]
['beep', 0.0, -749.8786747310967, 0.0, 0.0, 0.0, 0.0, -5121.052875644312, 0.0]
['beep', 0.0, -770.7105005634428, 0.0, 0.0, 0.0, 0.0, -5097.58354396624, 0.0]
['beep', 0.0, -770.0846517186942, 0.0, 0.0, 0.0, 0.0, -5079.478630957441, 0.0]
['beep', 0.0, -751.6891660319765, 0.0, 0.0, 0.0, 0.0, -5089.760433406882, 0.0]
['beep', 0.0, -738.9039682035409, 0.0, 0.0, 0.0, 0.0, -5115.1073116192, 0.0]
['beep', 0.0, -747.5317415632894, 0.0, 0.0, 0.0, 0.0, -5121.164634366588, 0.0]
['beep', 0.0, -766.86600051713, 0.0, 0.0, 0.0, 0.0, -5097.9411718775245, 0.0]
['beep', 0.0, -770.1740586965154, 0.0, 0.0, 0.0, 0.0, -5079.568037935262, 0.0]
['beep', 0.0, -753.2984916327587, 0.0, 0.0, 0.0, 0.0, -5090.810965396281, 0.0]
['beep', 0.0, -738.4345815699794, 0.0, 0.0, 0.0, 0.0, -5115.531994763851, 0.0]
['beep', 0.0, -749.7669160088201, 0.0, 0.0, 0.0, 0.0, -5117.29778257582, 0.0]
['beep', 0.0, -768.5647330957333, 0.0, 0.0, 0.0, 0.0, -5098.544668977817, 0.0]
['beep', 0.0, -770.218762185426, 0.0, 0.0, 0.0, 0.0, -5081.557343191784, 0.0]
['beep', 0.0, -752.2256078989038, 0.0, 0.0, 0.0, 0.0, -5092.263828785876, 0.0]
['beep', 0.0, -737.898139703052, 0.0, 0.0, 0.0, 0.0, -5117.230727342454, 0.0]
['beep', 0.0, -749.9904334533732, 0.0, 0.0, 0.0, 0.0, -5120.024695399367, 0.0]
['beep', 0.0, -770.1740586965154, 0.0, 0.0, 0.0, 0.0, -5098.634075955639, 0.0]
['beep', 0.0, -771.5822185971998, 0.0, 0.0, 0.0, 0.0, -5079.411575724074, 0.0]
['beep', 0.0, -753.2761398883033, 0.0, 0.0, 0.0, 0.0, -5088.754604906393, 0.0]
['beep', 0.0, -738.5910437811666, 0.0, 0.0, 0.0, 0.0, -5114.660276730094, 0.0]
['beep', 0.0, -748.3811078525911, 0.0, 0.0, 0.0, 0.0, -5122.259869844898, 0.0]
['beep', 0.0, -769.1905819404819, 0.0, 0.0, 0.0, 0.0, -5098.231744555444, 0.0]
['beep', 0.0, -772.4315848865015, 0.0, 0.0, 0.0, 0.0, -5080.260942013377, 0.0]
['beep', 0.0, -754.6395963000771, 0.0, 0.0, 0.0, 0.0, -5088.173459550555, 0.0]
['beep', 0.0, -739.351003092647, 0.0, 0.0, 0.0, 0.0, -5115.531994763851, 0.0]
['beep', 0.0, -748.5822735526889, 0.0, 0.0, 0.0, 0.0, -5121.8351867002475, 0.0]
['beep', 0.0, -770.4422796299791, 0.0, 0.0, 0.0, 0.0, -5098.701131189005, 0.0]
['beep', 0.0, -775.4714221324232, 0.0, 0.0, 0.0, 0.0, -5078.942189090513, 0.0]
['beep', 0.0, -756.0701079452167, 0.0, 0.0, 0.0, 0.0, -5086.742947905415, 0.0]
['beep', 0.0, -738.6580990145325, 0.0, 0.0, 0.0, 0.0, -5112.223936584465, 0.0]
['beep', 0.0, -747.2635206298257, 0.0, 0.0, 0.0, 0.0, -5118.460073287496, 0.0]
['beep', 0.0, -766.4860208613898, 0.0, 0.0, 0.0, 0.0, -5097.114157332678, 0.0]
['beep', 0.0, -770.4869831188897, 0.0, 0.0, 0.0, 0.0, -5078.852782112692, 0.0]
['beep', 0.0, -753.8572852441413, 0.0, 0.0, 0.0, 0.0, -5087.212334538977, 0.0]
['beep', 0.0, -739.127485648094, 0.0, 0.0, 0.0, 0.0, -5111.307515061798, 0.0]
['beep', 0.0, -749.2081223974375, 0.0, 0.0, 0.0, 0.0, -5116.9625064089905, 0.0]
['beep', 0.0, -767.7153668064317, 0.0, 0.0, 0.0, 0.0, -5093.157898564088, 0.0]
['beep', 0.0, -769.6152650851328, 0.0, 0.0, 0.0, 0.0, -5076.394090222609, 0.0]
['beep', 0.0, -753.1867329104821, 0.0, 0.0, 0.0, 0.0, -5084.1501455485995, 0.0]
['beep', 0.0, -737.6075670251331, 0.0, 0.0, 0.0, 0.0, -5110.145224350122, 0.0]
['beep', 0.0, -748.2246456414039, 0.0, 0.0, 0.0, 0.0, -5117.409541298097, 0.0]
['beep', 0.0, -770.218762185426, 0.0, 0.0, 0.0, 0.0, -5093.157898564088, 0.0]
['beep', 0.0, -773.5715238537222, 0.0, 0.0, 0.0, 0.0, -5074.158915777078, 0.0]
['beep', 0.0, -754.3043201332474, 0.0, 0.0, 0.0, 0.0, -5085.379491493642, 0.0]
['beep', 0.0, -738.3228228477029, 0.0, 0.0, 0.0, 0.0, -5109.206451082999, 0.0]
['beep', 0.0, -747.4199828410128, 0.0, 0.0, 0.0, 0.0, -5114.503814518906, 0.0]
['beep', 0.0, -766.9107040060406, 0.0, 0.0, 0.0, 0.0, -5093.336712519731, 0.0]
['beep', 0.0, -771.0234249858171, 0.0, 0.0, 0.0, 0.0, -5074.225971010444, 0.0]
['beep', 0.0, -753.9243404775073, 0.0, 0.0, 0.0, 0.0, -5083.501944959396, 0.0]
['beep', 0.0, -739.1721891370046, 0.0, 0.0, 0.0, 0.0, -5108.5135470048845, 0.0]
['beep', 0.0, -747.7105555189319, 0.0, 0.0, 0.0, 0.0, -5115.017904641379, 0.0]
['beep', 0.0, -769.2129336849373, 0.0, 0.0, 0.0, 0.0, -5093.403767753097, 0.0]
['beep', 0.0, -772.3645296531356, 0.0, 0.0, 0.0, 0.0, -5075.723537888949, 0.0]
['beep', 0.0, -752.3373666211804, 0.0, 0.0, 0.0, 0.0, -5083.323131003754, 0.0]
['beep', 0.0, -736.3558693356358, 0.0, 0.0, 0.0, 0.0, -5106.859517915192, 0.0]
['beep', 0.0, -747.1517619075491, 0.0, 0.0, 0.0, 0.0, -5114.682628474549, 0.0]
['beep', 0.0, -769.3693958961244, 0.0, 0.0, 0.0, 0.0, -5092.353235763698, 0.0]
['beep', 0.0, -773.9515035094623, 0.0, 0.0, 0.0, 0.0, -5071.230837253433, 0.0]
['beep', 0.0, -757.254750401348, 0.0, 0.0, 0.0, 0.0, -5082.272599014354, 0.0]
['beep', 0.0, -739.1945408814598, 0.0, 0.0, 0.0, 0.0, -5107.284201059842, 0.0]
['beep', 0.0, -746.6153200406218, 0.0, 0.0, 0.0, 0.0, -5111.642791228627, 0.0]
['beep', 0.0, -768.028291228806, 0.0, 0.0, 0.0, 0.0, -5090.319227018264, 0.0]
['beep', 0.0, -771.6269220861104, 0.0, 0.0, 0.0, 0.0, -5071.38729946462, 0.0]
['beep', 0.0, -754.4607823444346, 0.0, 0.0, 0.0, 0.0, -5080.417404224563, 0.0]
['beep', 0.0, -739.6639275150213, 0.0, 0.0, 0.0, 0.0, -5104.400826025108, 0.0]
['beep', 0.0, -748.3811078525911, 0.0, 0.0, 0.0, 0.0, -5112.7380267069375, 0.0]
['beep', 0.0, -768.1624016955378, 0.0, 0.0, 0.0, 0.0, -5093.783747408837, 0.0]
['beep', 0.0, -772.9903784978842, 0.0, 0.0, 0.0, 0.0, -5071.677872142538, 0.0]
['beep', 0.0, -757.1653434235268, 0.0, 0.0, 0.0, 0.0, -5076.796421622804, 0.0]
['beep', 0.0, -740.8262182266973, 0.0, 0.0, 0.0, 0.0, -5101.718616690471, 0.0]
['beep', 0.0, -747.867017730119, 0.0, 0.0, 0.0, 0.0, -5111.195756339522, 0.0]
['beep', 0.0, -769.1011749626607, 0.0, 0.0, 0.0, 0.0, -5093.046139841812, 0.0]
['beep', 0.0, -773.3927098980797, 0.0, 0.0, 0.0, 0.0, -5070.247360497398, 0.0]
['beep', 0.0, -752.6279392990995, 0.0, 0.0, 0.0, 0.0, -5078.76337513487, 0.0]
['beep', 0.0, -738.0546019142392, 0.0, 0.0, 0.0, 0.0, -5103.730273691449, 0.0]
['beep', 0.0, -748.3140526192251, 0.0, 0.0, 0.0, 0.0, -5110.2122795834875, 0.0]
['beep', 0.0, -768.2741604178144, 0.0, 0.0, 0.0, 0.0, -5092.353235763698, 0.0]
['beep', 0.0, -771.7833842972975, 0.0, 0.0, 0.0, 0.0, -5072.214314009466, 0.0]
['beep', 0.0, -755.6454248005658, 0.0, 0.0, 0.0, 0.0, -5079.344520490708, 0.0]
['beep', 0.0, -740.6027007821442, 0.0, 0.0, 0.0, 0.0, -5106.278372559354, 0.0]
['beep', 0.0, -747.8223142412083, 0.0, 0.0, 0.0, 0.0, -5113.095654618222, 0.0]
['beep', 0.0, -768.0506429732612, 0.0, 0.0, 0.0, 0.0, -5091.1015380742, 0.0]
['beep', 0.0, -773.0574337312501, 0.0, 0.0, 0.0, 0.0, -5070.627340153139, 0.0]
['beep', 0.0, -756.8971224900631, 0.0, 0.0, 0.0, 0.0, -5079.188058279522, 0.0]
['beep', 0.0, -741.1391426490716, 0.0, 0.0, 0.0, 0.0, -5106.479538259451, 0.0]
['beep', 0.0, -746.5482648072559, 0.0, 0.0, 0.0, 0.0, -5113.945020907524, 0.0]
['beep', 0.0, -767.156573195049, 0.0, 0.0, 0.0, 0.0, -5093.560229964284, 0.0]
['beep', 0.0, -771.9398465084847, 0.0, 0.0, 0.0, 0.0, -5073.8236396102475, 0.0]
['beep', 0.0, -755.9807009673955, 0.0, 0.0, 0.0, 0.0, -5079.366872235164, 0.0]
['beep', 0.0, -739.5074653038341, 0.0, 0.0, 0.0, 0.0, -5104.691398703027, 0.0]
['beep', 0.0, -749.029308441795, 0.0, 0.0, 0.0, 0.0, -5112.492157517929, 0.0]
['beep', 0.0, -769.3470441516691, 0.0, 0.0, 0.0, 0.0, -5092.19677355251, 0.0]
['beep', 0.0, -770.285817418792, 0.0, 0.0, 0.0, 0.0, -5072.460183198475, 0.0]
['beep', 0.0, -753.4549538439458, 0.0, 0.0, 0.0, 0.0, -5081.28912225832, 0.0]
['beep', 0.0, -737.2946426027588, 0.0, 0.0, 0.0, 0.0, -5108.424140027063, 0.0]
['beep', 0.0, -744.2460351283593, 0.0, 0.0, 0.0, 0.0, -5116.046084886323, 0.0]
['beep', 0.0, -765.7931167832753, 0.0, 0.0, 0.0, 0.0, -5094.029616597845, 0.0]
['beep', 0.0, -771.448108130468, 0.0, 0.0, 0.0, 0.0, -5073.778936121337, 0.0]
['beep', 0.0, -753.7008230329542, 0.0, 0.0, 0.0, 0.0, -5079.970369335458, 0.0]
['beep', 0.0, -736.7582007358315, 0.0, 0.0, 0.0, 0.0, -5102.567982979773, 0.0]
['beep', 0.0, -743.7766484947978, 0.0, 0.0, 0.0, 0.0, -5113.542689507329, 0.0]
['beep', 0.0, -763.222666170915, 0.0, 0.0, 0.0, 0.0, -5095.370721265164, 0.0]
['beep', 0.0, -768.4976778623675, 0.0, 0.0, 0.0, 0.0, -5074.605950666184, 0.0]
['beep', 0.0, -751.7115177764318, 0.0, 0.0, 0.0, 0.0, -5078.6963199015045, 0.0]
['beep', 0.0, -734.9700611794068, 0.0, 0.0, 0.0, 0.0, -5104.043198113823, 0.0]
['beep', 0.0, -742.9719856944067, 0.0, 0.0, 0.0, 0.0, -5113.341523807231, 0.0]
['beep', 0.0, -764.1167359491272, 0.0, 0.0, 0.0, 0.0, -5093.761395664382, 0.0]
['beep', 0.0, -770.1740586965154, 0.0, 0.0, 0.0, 0.0, -5073.197790765499, 0.0]
['beep', 0.0, -755.3772038671021, 0.0, 0.0, 0.0, 0.0, -5078.495154201407, 0.0]
['beep', 0.0, -737.5852152806777, 0.0, 0.0, 0.0, 0.0, -5103.193831824521, 0.0]
['beep', 0.0, -744.5589595507336, 0.0, 0.0, 0.0, 0.0, -5113.721503462971, 0.0]
['beep', 0.0, -763.1109074486384, 0.0, 0.0, 0.0, 0.0, -5095.974218365457, 0.0]
['beep', 0.0, -767.6706633175211, 0.0, 0.0, 0.0, 0.0, -5075.678834400039, 0.0]
['beep', 0.0, -751.4432968429682, 0.0, 0.0, 0.0, 0.0, -5080.886790858125, 0.0]
['beep', 0.0, -734.9924129238622, 0.0, 0.0, 0.0, 0.0, -5106.4571865149965, 0.0]
['beep', 0.0, -744.7601252508314, 0.0, 0.0, 0.0, 0.0, -5114.7943871968255, 0.0]
['beep', 0.0, -765.4354888719904, 0.0, 0.0, 0.0, 0.0, -5094.320189275764, 0.0]
['beep', 0.0, -769.2576371738479, 0.0, 0.0, 0.0, 0.0, -5074.985930321924, 0.0]
['beep', 0.0, -753.4773055884011, 0.0, 0.0, 0.0, 0.0, -5081.043253069312, 0.0]
['beep', 0.0, -736.221758868904, 0.0, 0.0, 0.0, 0.0, -5105.5184132478735, 0.0]
['beep', 0.0, -742.770819994309, 0.0, 0.0, 0.0, 0.0, -5114.168538352077, 0.0]
['beep', 0.0, -765.0331574717949, 0.0, 0.0, 0.0, 0.0, -5094.789575909326, 0.0]
['beep', 0.0, -772.185715697493, 0.0, 0.0, 0.0, 0.0, -5074.00245356589, 0.0]
['beep', 0.0, -755.4666108449234, 0.0, 0.0, 0.0, 0.0, -5078.450450712497, 0.0]
['beep', 0.0, -736.512331546823, 0.0, 0.0, 0.0, 0.0, -5104.311419047287, 0.0]
['beep', 0.0, -741.5861775381777, 0.0, 0.0, 0.0, 0.0, -5115.666105230583, 0.0]
['beep', 0.0, -761.7027475479541, 0.0, 0.0, 0.0, 0.0, -5097.0023986104015, 0.0]
['beep', 0.0, -768.8106022847418, 0.0, 0.0, 0.0, 0.0, -5075.47766869994, 0.0]
['beep', 0.0, -755.3548521226469, 0.0, 0.0, 0.0, 0.0, -5081.914971103069, 0.0]
['beep', 0.0, -737.1158286471164, 0.0, 0.0, 0.0, 0.0, -5105.071378358767, 0.0]
['beep', 0.0, -742.1673228940157, 0.0, 0.0, 0.0, 0.0, -5116.20254709751, 0.0]
['beep', 0.0, -762.2838929037921, 0.0, 0.0, 0.0, 0.0, -5097.024750354856, 0.0]
['beep', 0.0, -768.832954029197, 0.0, 0.0, 0.0, 0.0, -5075.611779166673, 0.0]
['beep', 0.0, -751.6444625430659, 0.0, 0.0, 0.0, 0.0, -5080.707976902482, 0.0]
['beep', 0.0, -735.7970757242532, 0.0, 0.0, 0.0, 0.0, -5105.451358014508, 0.0]
['beep', 0.0, -742.9943374388621, 0.0, 0.0, 0.0, 0.0, -5114.079131374256, 0.0]
['beep', 0.0, -762.1721341815155, 0.0, 0.0, 0.0, 0.0, -5095.05779684279, 0.0]
['beep', 0.0, -766.6871865614876, 0.0, 0.0, 0.0, 0.0, -5075.298854744298, 0.0]
['beep', 0.0, -752.5161805768229, 0.0, 0.0, 0.0, 0.0, -5079.590389679717, 0.0]
['beep', 0.0, -735.2829856017811, 0.0, 0.0, 0.0, 0.0, -5106.72540744846, 0.0]
['beep', 0.0, -740.1780176374933, 0.0, 0.0, 0.0, 0.0, -5115.956677908502, 0.0]
['beep', 0.0, -762.8426865151747, 0.0, 0.0, 0.0, 0.0, -5096.734177676938, 0.0]
['beep', 0.0, -769.7717272963199, 0.0, 0.0, 0.0, 0.0, -5075.276502999843, 0.0]
['beep', 0.0, -753.1643811660268, 0.0, 0.0, 0.0, 0.0, -5080.015072824368, 0.0]
['beep', 0.0, -736.1994071244487, 0.0, 0.0, 0.0, 0.0, -5105.898392903614, 0.0]
['beep', 0.0, -740.4238868265018, 0.0, 0.0, 0.0, 0.0, -5116.738988964437, 0.0]
['beep', 0.0, -761.7250992924094, 0.0, 0.0, 0.0, 0.0, -5096.130680576644, 0.0]
['beep', 0.0, -768.7211953069205, 0.0, 0.0, 0.0, 0.0, -5076.10351754469, 0.0]
['beep', 0.0, -754.7290032778983, 0.0, 0.0, 0.0, 0.0, -5077.466973956463, 0.0]
['beep', 0.0, -736.2441106133593, 0.0, 0.0, 0.0, 0.0, -5104.266715558376, 0.0]
['beep', 0.0, -740.7591629933314, 0.0, 0.0, 0.0, 0.0, -5119.82352969927, 0.0]
['beep', 0.0, -760.9874917253843, 0.0, 0.0, 0.0, 0.0, -5098.522317233363, 0.0]
['beep', 0.0, -767.2683319173256, 0.0, 0.0, 0.0, 0.0, -5076.7517181338935, 0.0]
['beep', 0.0, -754.5948928111665, 0.0, 0.0, 0.0, 0.0, -5082.384357736631, 0.0]
['beep', 0.0, -736.1323518910827, 0.0, 0.0, 0.0, 0.0, -5107.194794082021, 0.0]
['beep', 0.0, -741.317956604714, 0.0, 0.0, 0.0, 0.0, -5115.5543465083065, 0.0]
['beep', 0.0, -759.0875934466832, 0.0, 0.0, 0.0, 0.0, -5097.471785243963, 0.0]
['beep', 0.0, -766.3519103946579, 0.0, 0.0, 0.0, 0.0, -5076.952883833991, 0.0]
['beep', 0.0, -752.382070110091, 0.0, 0.0, 0.0, 0.0, -5080.372700735653, 0.0]
['beep', 0.0, -736.9817181803845, 0.0, 0.0, 0.0, 0.0, -5102.165651579578, 0.0]
['beep', 0.0, -742.9496339499515, 0.0, 0.0, 0.0, 0.0, -5114.414407541086, 0.0]
['beep', 0.0, -761.0098434698396, 0.0, 0.0, 0.0, 0.0, -5099.148166078111, 0.0]
['beep', 0.0, -767.8941807620741, 0.0, 0.0, 0.0, 0.0, -5077.444622212008, 0.0]
['beep', 0.0, -754.7290032778983, 0.0, 0.0, 0.0, 0.0, -5080.551514691296, 0.0]
['beep', 0.0, -736.9817181803845, 0.0, 0.0, 0.0, 0.0, -5106.278372559354, 0.0]
['beep', 0.0, -740.3791833375911, 0.0, 0.0, 0.0, 0.0, -5118.102445376211, 0.0]
['beep', 0.0, -761.479230103401, 0.0, 0.0, 0.0, 0.0, -5097.270619543865, 0.0]
['beep', 0.0, -770.4869831188897, 0.0, 0.0, 0.0, 0.0, -5076.394090222609, 0.0]
['beep', 0.0, -754.5501893222558, 0.0, 0.0, 0.0, 0.0, -5082.33965424772, 0.0]
['beep', 0.0, -736.28881410227, 0.0, 0.0, 0.0, 0.0, -5106.77011093737, 0.0]
['beep', 0.0, -741.5638257937225, 0.0, 0.0, 0.0, 0.0, -5116.7836924533485, 0.0]
['beep', 0.0, -762.4627068594345, 0.0, 0.0, 0.0, 0.0, -5100.1539945786, 0.0]
['beep', 0.0, -769.0341197292948, 0.0, 0.0, 0.0, 0.0, -5080.730328646938, 0.0]
['beep', 0.0, -753.9019887330519, 0.0, 0.0, 0.0, 0.0, -5084.820697882259, 0.0]
['beep', 0.0, -737.1828838804822, 0.0, 0.0, 0.0, 0.0, -5108.53589874934, 0.0]
['beep', 0.0, -743.6425380280659, 0.0, 0.0, 0.0, 0.0, -5117.521300020373, 0.0]
['beep', 0.0, -763.8261632712082, 0.0, 0.0, 0.0, 0.0, -5098.231744555444, 0.0]
['beep', 0.0, -768.9223610070183, 0.0, 0.0, 0.0, 0.0, -5076.10351754469, 0.0]
['beep', 0.0, -754.4831340888899, 0.0, 0.0, 0.0, 0.0, -5081.669101914061, 0.0]
['beep', 0.0, -737.093476902661, 0.0, 0.0, 0.0, 0.0, -5108.312381304787, 0.0]
['beep', 0.0, -740.8709217156079, 0.0, 0.0, 0.0, 0.0, -5118.862404687691, 0.0]
['beep', 0.0, -763.8708667601188, 0.0, 0.0, 0.0, 0.0, -5101.7633201793815, 0.0]
['beep', 0.0, -770.576390096711, 0.0, 0.0, 0.0, 0.0, -5078.495154201407, 0.0]
['beep', 0.0, -755.5783695672, 0.0, 0.0, 0.0, 0.0, -5081.780860636337, 0.0]
['beep', 0.0, -740.6474042710548, 0.0, 0.0, 0.0, 0.0, -5102.456224257497, 0.0]
['beep', 0.0, -742.7261165053984, 0.0, 0.0, 0.0, 0.0, -5113.363875551686, 0.0]
['beep', 0.0, -760.5404568362782, 0.0, 0.0, 0.0, 0.0, -5100.042235856323, 0.0]
['beep', 0.0, -769.6823203184987, 0.0, 0.0, 0.0, 0.0, -5078.9868925794235, 0.0]
['beep', 0.0, -755.220741655915, 0.0, 0.0, 0.0, 0.0, -5081.132660047133, 0.0]
['beep', 0.0, -736.9593664359292, 0.0, 0.0, 0.0, 0.0, -5104.557288236295, 0.0]
['beep', 0.0, -741.4520670714459, 0.0, 0.0, 0.0, 0.0, -5115.889622675136, 0.0]
['beep', 0.0, -758.4393928574792, 0.0, 0.0, 0.0, 0.0, -5097.784709666337, 0.0]
['beep', 0.0, -768.251808673359, 0.0, 0.0, 0.0, 0.0, -5076.058814055778, 0.0]
['beep', 0.0, -756.8077155122419, 0.0, 0.0, 0.0, 0.0, -5079.299817001798, 0.0]
['beep', 0.0, -738.6580990145325, 0.0, 0.0, 0.0, 0.0, -5103.864384158181, 0.0]
['beep', 0.0, -741.0273839267951, 0.0, 0.0, 0.0, 0.0, -5117.141320364633, 0.0]
['beep', 0.0, -761.3898231255798, 0.0, 0.0, 0.0, 0.0, -5098.075282344256, 0.0]
['beep', 0.0, -770.3752243966132, 0.0, 0.0, 0.0, 0.0, -5075.38826172212, 0.0]
['beep', 0.0, -755.6230730561106, 0.0, 0.0, 0.0, 0.0, -5080.551514691296, 0.0]
['beep', 0.0, -736.579386780189, 0.0, 0.0, 0.0, 0.0, -5105.406654525596, 0.0]
['beep', 0.0, -739.9545001929403, 0.0, 0.0, 0.0, 0.0, -5115.956677908502, 0.0]
['beep', 0.0, -760.3169393917251, 0.0, 0.0, 0.0, 0.0, -5099.81871841177, 0.0]
['beep', 0.0, -768.8106022847418, 0.0, 0.0, 0.0, 0.0, -5078.875133857147, 0.0]
['beep', 0.0, -754.6172445556217, 0.0, 0.0, 0.0, 0.0, -5082.093785058712, 0.0]
['beep', 0.0, -737.5405117917671, 0.0, 0.0, 0.0, 0.0, -5105.496061503418, 0.0]
['beep', 0.0, -740.2227211264039, 0.0, 0.0, 0.0, 0.0, -5115.599049997217, 0.0]
['beep', 0.0, -757.0759364457056, 0.0, 0.0, 0.0, 0.0, -5099.237573055932, 0.0]
['beep', 0.0, -767.4694976174233, 0.0, 0.0, 0.0, 0.0, -5076.237628011421, 0.0]
['beep', 0.0, -753.611416055133, 0.0, 0.0, 0.0, 0.0, -5077.489325700918, 0.0]
['beep', 0.0, -733.2266251118929, 0.0, 0.0, 0.0, 0.0, -5102.746796935416, 0.0]
['beep', 0.0, -737.8757879585968, 0.0, 0.0, 0.0, 0.0, -5116.7836924533485, 0.0]
['beep', 0.0, -758.2382271573815, 0.0, 0.0, 0.0, 0.0, -5101.360988779186, 0.0]
['beep', 0.0, -766.5977795836664, 0.0, 0.0, 0.0, 0.0, -5078.852782112692, 0.0]
['beep', 0.0, -753.6784712884988, 0.0, 0.0, 0.0, 0.0, -5079.948017591002, 0.0]
['beep', 0.0, -734.4336193124794, 0.0, 0.0, 0.0, 0.0, -5103.707921946993, 0.0]
['beep', 0.0, -738.3228228477029, 0.0, 0.0, 0.0, 0.0, -5116.560175008795, 0.0]
['beep', 0.0, -759.4899248468787, 0.0, 0.0, 0.0, 0.0, -5099.5281457338515, 0.0]
['beep', 0.0, -769.5705615962222, 0.0, 0.0, 0.0, 0.0, -5078.629264668139, 0.0]
['beep', 0.0, -757.7017852904542, 0.0, 0.0, 0.0, 0.0, -5079.009244323879, 0.0]
['beep', 0.0, -738.47928505889, 0.0, 0.0, 0.0, 0.0, -5104.378474280653, 0.0]
['beep', 0.0, -738.4345815699794, 0.0, 0.0, 0.0, 0.0, -5119.242384343432, 0.0]
['beep', 0.0, -760.0934219471719, 0.0, 0.0, 0.0, 0.0, -5101.986837623935, 0.0]
['beep', 0.0, -771.1351837080937, 0.0, 0.0, 0.0, 0.0, -5078.76337513487, 0.0]
['beep', 0.0, -757.031232956795, 0.0, 0.0, 0.0, 0.0, -5079.7468518909045, 0.0]
['beep', 0.0, -736.4229245690018, 0.0, 0.0, 0.0, 0.0, -5103.283238802343, 0.0]
['beep', 0.0, -737.8534362141414, 0.0, 0.0, 0.0, 0.0, -5119.041218643334, 0.0]
['beep', 0.0, -758.931131235496, 0.0, 0.0, 0.0, 0.0, -5103.596163224717, 0.0]
['beep', 0.0, -769.8164307852305, 0.0, 0.0, 0.0, 0.0, -5080.439755969019, 0.0]
['beep', 0.0, -757.254750401348, 0.0, 0.0, 0.0, 0.0, -5079.836258868726, 0.0]
['beep', 0.0, -736.3335175911806, 0.0, 0.0, 0.0, 0.0, -5105.116081847677, 0.0]
['beep', 0.0, -740.1780176374933, 0.0, 0.0, 0.0, 0.0, -5119.912936677091, 0.0]
['beep', 0.0, -762.1721341815155, 0.0, 0.0, 0.0, 0.0, -5103.618514969172, 0.0]
['beep', 0.0, -768.4753261179121, 0.0, 0.0, 0.0, 0.0, -5082.831392625737, 0.0]
['beep', 0.0, -755.6454248005658, 0.0, 0.0, 0.0, 0.0, -5081.870267614158, 0.0]
['beep', 0.0, -738.6804507589878, 0.0, 0.0, 0.0, 0.0, -5105.764282436881, 0.0]
['beep', 0.0, -742.7484682498537, 0.0, 0.0, 0.0, 0.0, -5121.254041344409, 0.0]
['beep', 0.0, -764.2731981603145, 0.0, 0.0, 0.0, 0.0, -5104.959619636491, 0.0]
['beep', 0.0, -773.8397447871859, 0.0, 0.0, 0.0, 0.0, -5080.350348991197, 0.0]
['beep', 0.0, -758.1935236684709, 0.0, 0.0, 0.0, 0.0, -5081.914971103069, 0.0]
['beep', 0.0, -738.7028025034431, 0.0, 0.0, 0.0, 0.0, -5107.373608037664, 0.0]
['beep', 0.0, -740.8709217156079, 0.0, 0.0, 0.0, 0.0, -5120.047047143823, 0.0]
['beep', 0.0, -762.574465581711, 0.0, 0.0, 0.0, 0.0, -5102.746796935416, 0.0]
['beep', 0.0, -770.3975761410685, 0.0, 0.0, 0.0, 0.0, -5080.238590268921, 0.0]
['beep', 0.0, -756.9194742345184, 0.0, 0.0, 0.0, 0.0, -5082.451412969996, 0.0]
['beep', 0.0, -737.2275873693928, 0.0, 0.0, 0.0, 0.0, -5106.7477591929155, 0.0]
['beep', 0.0, -739.3286513481917, 0.0, 0.0, 0.0, 0.0, -5120.762302966393, 0.0]
['beep', 0.0, -738.4569333144348, 0.0, 0.0, 0.0, 0.0, -5105.831337670247, 0.0]
['beep', 0.0, -739.2615961148258, 0.0, 0.0, 0.0, 0.0, -5119.309439576798, 0.0]
['beep', 0.0, -758.931131235496, 0.0, 0.0, 0.0, 0.0, -5104.490233002929, 0.0]
['beep', 0.0, -769.2576371738479, 0.0, 0.0, 0.0, 0.0, -5082.362005992175, 0.0]
['beep', 0.0, -758.2158754129262, 0.0, 0.0, 0.0, 0.0, -5082.540819947818, 0.0]
['beep', 0.0, -738.3898780810688, 0.0, 0.0, 0.0, 0.0, -5106.077206859256, 0.0]
['beep', 0.0, -739.5521687927447, 0.0, 0.0, 0.0, 0.0, -5119.622363999172, 0.0]
['beep', 0.0, -760.4734016029122, 0.0, 0.0, 0.0, 0.0, -5104.557288236295, 0.0]
['beep', 0.0, -771.0010732413618, 0.0, 0.0, 0.0, 0.0, -5081.378529236142, 0.0]
['beep', 0.0, -758.7746690243089, 0.0, 0.0, 0.0, 0.0, -5080.730328646938, 0.0]
['beep', 0.0, -738.1440088920605, 0.0, 0.0, 0.0, 0.0, -5105.384302781142, 0.0]
['beep', 0.0, -736.9593664359292, 0.0, 0.0, 0.0, 0.0, -5119.935288421547, 0.0]
['beep', 0.0, -756.7406602788759, 0.0, 0.0, 0.0, 0.0, -5105.384302781142, 0.0]
['beep', 0.0, -767.2459801728702, 0.0, 0.0, 0.0, 0.0, -5081.982026336435, 0.0]
['beep', 0.0, -756.0701079452167, 0.0, 0.0, 0.0, 0.0, -5079.299817001798, 0.0]
['beep', 0.0, -737.7640292363202, 0.0, 0.0, 0.0, 0.0, -5101.048064356812, 0.0]
['beep', 0.0, -738.0769536586945, 0.0, 0.0, 0.0, 0.0, -5118.102445376211, 0.0]
['beep', 0.0, -757.9700062239178, 0.0, 0.0, 0.0, 0.0, -5102.366817279675, 0.0]
['beep', 0.0, -768.5423813512781, 0.0, 0.0, 0.0, 0.0, -5079.679796657539, 0.0]
['beep', 0.0, -758.7746690243089, 0.0, 0.0, 0.0, 0.0, -5079.702148401993, 0.0]
['beep', 0.0, -739.1051339036386, 0.0, 0.0, 0.0, 0.0, -5103.372645780164, 0.0]
['beep', 0.0, -738.7251542478984, 0.0, 0.0, 0.0, 0.0, -5117.498948275918, 0.0]
['beep', 0.0, -755.1983899114597, 0.0, 0.0, 0.0, 0.0, -5103.529107991351, 0.0]
['beep', 0.0, -767.9165325065294, 0.0, 0.0, 0.0, 0.0, -5079.880962357636, 0.0]
['beep', 0.0, -757.7464887793648, 0.0, 0.0, 0.0, 0.0, -5079.366872235164, 0.0]
['beep', 0.0, -737.0264216692951, 0.0, 0.0, 0.0, 0.0, -5101.897430646113, 0.0]
['beep', 0.0, -735.931186190985, 0.0, 0.0, 0.0, 0.0, -5118.482425031952, 0.0]
['beep', 0.0, -757.2994538902586, 0.0, 0.0, 0.0, 0.0, -5103.350294035708, 0.0]
['beep', 0.0, -770.5093348633451, 0.0, 0.0, 0.0, 0.0, -5081.155011791589, 0.0]
['beep', 0.0, -758.3946893685686, 0.0, 0.0, 0.0, 0.0, -5081.847915869703, 0.0]
['beep', 0.0, -738.9710234369068, 0.0, 0.0, 0.0, 0.0, -5104.266715558376, 0.0]
['beep', 0.0, -740.1556658930381, 0.0, 0.0, 0.0, 0.0, -5117.588355253739, 0.0]
['beep', 0.0, -758.1488201795603, 0.0, 0.0, 0.0, 0.0, -5107.463015015485, 0.0]
['beep', 0.0, -769.5035063628562, 0.0, 0.0, 0.0, 0.0, -5082.809040881281, 0.0]
['beep', 0.0, -759.5569800802446, 0.0, 0.0, 0.0, 0.0, -5080.931494347035, 0.0]
['beep', 0.0, -739.5298170482895, 0.0, 0.0, 0.0, 0.0, -5102.590334724228, 0.0]
['beep', 0.0, -737.6522705140437, 0.0, 0.0, 0.0, 0.0, -5119.242384343432, 0.0]
['beep', 0.0, -756.3606806231357, 0.0, 0.0, 0.0, 0.0, -5105.272544058865, 0.0]
['beep', 0.0, -770.6210935856216, 0.0, 0.0, 0.0, 0.0, -5080.730328646938, 0.0]
['beep', 0.0, -757.3441573791692, 0.0, 0.0, 0.0, 0.0, -5079.38922397962, 0.0]
['beep', 0.0, -739.5968722816554, 0.0, 0.0, 0.0, 0.0, -5103.216183568977, 0.0]
['beep', 0.0, -737.0040699248398, 0.0, 0.0, 0.0, 0.0, -5118.772997709871, 0.0]
['beep', 0.0, -753.5220090773117, 0.0, 0.0, 0.0, 0.0, -5106.077206859256, 0.0]
['beep', 0.0, -766.3519103946579, 0.0, 0.0, 0.0, 0.0, -5080.52916294684, 0.0]
['beep', 0.0, -756.5841980676888, 0.0, 0.0, 0.0, 0.0, -5079.7468518909045, 0.0]
['beep', 0.0, -739.1051339036386, 0.0, 0.0, 0.0, 0.0, -5104.132605091644, 0.0]
['beep', 0.0, -737.7193257474096, 0.0, 0.0, 0.0, 0.0, -5119.354143065709, 0.0]
['beep', 0.0, -757.5229713348117, 0.0, 0.0, 0.0, 0.0, -5108.178270838055, 0.0]
['beep', 0.0, -769.1458784515713, 0.0, 0.0, 0.0, 0.0, -5082.831392625737, 0.0]
['beep', 0.0, -757.545323079267, 0.0, 0.0, 0.0, 0.0, -5080.104479802189, 0.0]
['beep', 0.0, -736.6240902690996, 0.0, 0.0, 0.0, 0.0, -5103.350294035708, 0.0]
['beep', 0.0, -736.6017385246442, 0.0, 0.0, 0.0, 0.0, -5120.7175994774825, 0.0]
['beep', 0.0, -757.8805992460966, 0.0, 0.0, 0.0, 0.0, -5106.077206859256, 0.0]
['beep', 0.0, -770.799907541264, 0.0, 0.0, 0.0, 0.0, -5080.931494347035, 0.0]
['beep', 0.0, -759.2887591467809, 0.0, 0.0, 0.0, 0.0, -5078.964540834969, 0.0]
['beep', 0.0, -739.7086310039319, 0.0, 0.0, 0.0, 0.0, -5104.445529514019, 0.0]
['beep', 0.0, -737.5181600473119, 0.0, 0.0, 0.0, 0.0, -5122.997477411924, 0.0]
['beep', 0.0, -757.1429916790714, 0.0, 0.0, 0.0, 0.0, -5109.318209805276, 0.0]
['beep', 0.0, -771.1575354525489, 0.0, 0.0, 0.0, 0.0, -5083.703110659494, 0.0]
['beep', 0.0, -761.9709684814178, 0.0, 0.0, 0.0, 0.0, -5078.8080786237815, 0.0]
['beep', 0.0, -739.5968722816554, 0.0, 0.0, 0.0, 0.0, -5100.064587600778, 0.0]
['beep', 0.0, -737.0264216692951, 0.0, 0.0, 0.0, 0.0, -5118.281259331854, 0.0]
['beep', 0.0, -759.1099451911384, 0.0, 0.0, 0.0, 0.0, -5107.619477226673, 0.0]
['beep', 0.0, -772.6103988421439, 0.0, 0.0, 0.0, 0.0, -5084.038386826323, 0.0]
['beep', 0.0, -760.9204364920183, 0.0, 0.0, 0.0, 0.0, -5079.4562792129855, 0.0]
['beep', 0.0, -740.8709217156079, 0.0, 0.0, 0.0, 0.0, -5100.891602145624, 0.0]
['beep', 0.0, -740.8932734600633, 0.0, 0.0, 0.0, 0.0, -5117.29778257582, 0.0]
['beep', 0.0, -759.4675731024233, 0.0, 0.0, 0.0, 0.0, -5102.322113790764, 0.0]
['beep', 0.0, -773.6162273426328, 0.0, 0.0, 0.0, 0.0, -5078.182229779033, 0.0]
['beep', 0.0, -762.2838929037921, 0.0, 0.0, 0.0, 0.0, -5071.655520398083, 0.0]
['beep', 0.0, -740.3344798486805, 0.0, 0.0, 0.0, 0.0, -5089.872192129158, 0.0]
['beep', 0.0, -738.7922094812643, 0.0, 0.0, 0.0, 0.0, -5102.545631235317, 0.0]
['beep', 0.0, -761.0768987032055, 0.0, 0.0, 0.0, 0.0, -5087.279389772343, 0.0]
['beep', 0.0, -775.0020354988618, 0.0, 0.0, 0.0, 0.0, -5062.200732493488, 0.0]
['beep', 0.0, -767.8047737842529, 0.0, 0.0, 0.0, 0.0, -5054.198807978489, 0.0]
['beep', 0.0, -746.8611892296302, 0.0, 0.0, 0.0, 0.0, -5069.375642463642, 0.0]
['beep', 0.0, -741.1391426490716, 0.0, 0.0, 0.0, 0.0, -5083.479593214941, 0.0]
['beep', 0.0, -759.5569800802446, 0.0, 0.0, 0.0, 0.0, -5067.945130818503, 0.0]
['beep', 0.0, -774.1750209540154, 0.0, 0.0, 0.0, 0.0, -5039.8936915270915, 0.0]
['beep', 0.0, -765.9048755055518, 0.0, 0.0, 0.0, 0.0, -5030.215386177943, 0.0]
['beep', 0.0, -746.8611892296302, 0.0, 0.0, 0.0, 0.0, -5047.694450341994, 0.0]
['beep', 0.0, -743.284910116781, 0.0, 0.0, 0.0, 0.0, -5058.445639424996, 0.0]
['beep', 0.0, -766.8436487726747, 0.0, 0.0, 0.0, 0.0, -5043.559377617762, 0.0]
['beep', 0.0, -783.2274774584148, 0.0, 0.0, 0.0, 0.0, -5018.324258127721, 0.0]
['beep', 0.0, -775.9408087659847, 0.0, 0.0, 0.0, 0.0, -5009.964705701435, 0.0]
['beep', 0.0, -756.3606806231357, 0.0, 0.0, 0.0, 0.0, -5028.47195011043, 0.0]
['beep', 0.0, -753.834933499686, 0.0, 0.0, 0.0, 0.0, -5038.709049070961, 0.0]
['beep', 0.0, -772.8786197756076, 0.0, 0.0, 0.0, 0.0, -5022.9287174855135, 0.0]
['beep', 0.0, -784.8368030591969, 0.0, 0.0, 0.0, 0.0, -4997.22421136191, 0.0]
['beep', 0.0, -774.3314831652026, 0.0, 0.0, 0.0, 0.0, -4985.981283900891, 0.0]
['beep', 0.0, -754.5725410667111, 0.0, 0.0, 0.0, 0.0, -5000.867545708125, 0.0]
['beep', 0.0, -754.2149131554262, 0.0, 0.0, 0.0, 0.0, -5015.843214493181, 0.0]
['beep', 0.0, -773.5268203648116, 0.0, 0.0, 0.0, 0.0, -4998.788833473782, 0.0]
['beep', 0.0, -788.994227527884, 0.0, 0.0, 0.0, 0.0, -4972.2126093164225, 0.0]
['beep', 0.0, -783.7639193253422, 0.0, 0.0, 0.0, 0.0, -4965.88706563557, 0.0]
['beep', 0.0, -763.96027373794, 0.0, 0.0, 0.0, 0.0, -4984.863696678126, 0.0]
['beep', 0.0, -760.7639742808312, 0.0, 0.0, 0.0, 0.0, -4999.012350918335, 0.0]
['beep', 0.0, -781.5958001131773, 0.0, 0.0, 0.0, 0.0, -4982.2261908324, 0.0]
['beep', 0.0, -796.1020822646716, 0.0, 0.0, 0.0, 0.0, -4956.812257386716, 0.0]
['beep', 0.0, -785.5520588817667, 0.0, 0.0, 0.0, 0.0, -4949.9055683500255, 0.0]
['beep', 0.0, -767.380090639602, 0.0, 0.0, 0.0, 0.0, -4968.725737181394, 0.0]
['beep', 0.0, -766.9107040060406, 0.0, 0.0, 0.0, 0.0, -4986.204801345444, 0.0]
['beep', 0.0, -787.2731432048254, 0.0, 0.0, 0.0, 0.0, -4971.676167449495, 0.0]
['beep', 0.0, -801.7123701229538, 0.0, 0.0, 0.0, 0.0, -4943.132989780068, 0.0]
['beep', 0.0, -789.2177449724371, 0.0, 0.0, 0.0, 0.0, -4937.254480988322, 0.0]
['beep', 0.0, -766.2625034168367, 0.0, 0.0, 0.0, 0.0, -4959.025080087791, 0.0]
['beep', 0.0, -764.9661022384289, 0.0, 0.0, 0.0, 0.0, -4976.258275062833, 0.0]
['beep', 0.0, -786.0437972597834, 0.0, 0.0, 0.0, 0.0, -4961.953158611436, 0.0]
['beep', 0.0, -800.8853555781074, 0.0, 0.0, 0.0, 0.0, -4935.019306542791, 0.0]
['beep', 0.0, -792.414044429546, 0.0, 0.0, 0.0, 0.0, -4927.3079547057105, 0.0]
['beep', 0.0, -773.1915441979819, 0.0, 0.0, 0.0, 0.0, -4949.324422994187, 0.0]
['beep', 0.0, -771.7386808083869, 0.0, 0.0, 0.0, 0.0, -4967.921074381003, 0.0]
['beep', 0.0, -791.9670095404398, 0.0, 0.0, 0.0, 0.0, -4957.438106231464, 0.0]
['beep', 0.0, -808.1273207816268, 0.0, 0.0, 0.0, 0.0, -4929.878405318071, 0.0]
['beep', 0.0, -799.3207334662359, 0.0, 0.0, 0.0, 0.0, -4923.396399426031, 0.0]
['beep', 0.0, -777.6618930890434, 0.0, 0.0, 0.0, 0.0, -4944.831722358671, 0.0]
['beep', 0.0, -774.3091314207472, 0.0, 0.0, 0.0, 0.0, -4962.020213844802, 0.0]
['beep', 0.0, -793.509279907856, 0.0, 0.0, 0.0, 0.0, -4950.151437539034, 0.0]
['beep', 0.0, -803.2546404903699, 0.0, 0.0, 0.0, 0.0, -4925.698629104928, 0.0]
['beep', 0.0, -790.9164775510404, 0.0, 0.0, 0.0, 0.0, -4917.428483656465, 0.0]
['beep', 0.0, -772.5880470976887, 0.0, 0.0, 0.0, 0.0, -4936.4051146990205, 0.0]
['beep', 0.0, -770.4869831188897, 0.0, 0.0, 0.0, 0.0, -4953.280681762777, 0.0]
['beep', 0.0, -791.542326395789, 0.0, 0.0, 0.0, 0.0, -4940.160207767512, 0.0]
['beep', 0.0, -808.283782992814, 0.0, 0.0, 0.0, 0.0, -4914.343942921632, 0.0]
['beep', 0.0, -797.8902218210962, 0.0, 0.0, 0.0, 0.0, -4909.426559141464, 0.0]
['beep', 0.0, -770.5540383522557, 0.0, 0.0, 0.0, 0.0, -4930.2136814849, 0.0]
['beep', 0.0, -764.0496807157613, 0.0, 0.0, 0.0, 0.0, -4945.3905159700535, 0.0]
['beep', 0.0, -785.8873350485964, 0.0, 0.0, 0.0, 0.0, -4932.515911163797, 0.0]
['beep', 0.0, -799.1195677661381, 0.0, 0.0, 0.0, 0.0, -4908.6442480855285, 0.0]
['beep', 0.0, -791.6764368625209, 0.0, 0.0, 0.0, 0.0, -4900.39645438152, 0.0]
['beep', 0.0, -775.3149599212361, 0.0, 0.0, 0.0, 0.0, -4921.11652149159, 0.0]
['beep', 0.0, -769.3246924072138, 0.0, 0.0, 0.0, 0.0, -4938.819103100193, 0.0]
['beep', 0.0, -784.5238786368226, 0.0, 0.0, 0.0, 0.0, -4927.196195983433, 0.0]
['beep', 0.0, -797.4878904209007, 0.0, 0.0, 0.0, 0.0, -4898.8988875030145, 0.0]
['beep', 0.0, -789.3965589280796, 0.0, 0.0, 0.0, 0.0, -4892.372178122066, 0.0]
['beep', 0.0, -772.0516052307612, 0.0, 0.0, 0.0, 0.0, -4913.718094076883, 0.0]
['beep', 0.0, -765.8601720166412, 0.0, 0.0, 0.0, 0.0, -4931.7112483634055, 0.0]
['beep', 0.0, -787.0496257602723, 0.0, 0.0, 0.0, 0.0, -4922.7258470923725, 0.0]
['beep', 0.0, -800.34891371118, 0.0, 0.0, 0.0, 0.0, -4898.854184014104, 0.0]
['beep', 0.0, -789.7765385838197, 0.0, 0.0, 0.0, 0.0, -4890.807556010193, 0.0]
['beep', 0.0, -767.6930150619763, 0.0, 0.0, 0.0, 0.0, -4911.862899287093, 0.0]
['beep', 0.0, -762.9991487263619, 0.0, 0.0, 0.0, 0.0, -4931.30891696321, 0.0]
['beep', 0.0, -777.1030994776606, 0.0, 0.0, 0.0, 0.0, -4920.0883412466455, 0.0]
['beep', 0.0, -791.0058845288617, 0.0, 0.0, 0.0, 0.0, -4895.233201412345, 0.0]
['beep', 0.0, -786.3790734266131, 0.0, 0.0, 0.0, 0.0, -4889.846430998616, 0.0]
['beep', 0.0, -765.8825237610965, 0.0, 0.0, 0.0, 0.0, -4911.997009753824, 0.0]
['beep', 0.0, -761.7921545257753, 0.0, 0.0, 0.0, 0.0, -4932.717076863894, 0.0]
['beep', 0.0, -780.5676198682332, 0.0, 0.0, 0.0, 0.0, -4921.451797658419, 0.0]
['beep', 0.0, -793.8222043302303, 0.0, 0.0, 0.0, 0.0, -4897.3119136466885, 0.0]
['beep', 0.0, -787.7648815828421, 0.0, 0.0, 0.0, 0.0, -4891.031073454747, 0.0]
['beep', 0.0, -766.2625034168367, 0.0, 0.0, 0.0, 0.0, -4911.728788820361, 0.0]
['beep', 0.0, -759.4899248468787, 0.0, 0.0, 0.0, 0.0, -4932.001821041325, 0.0]
['beep', 0.0, -777.3713204111243, 0.0, 0.0, 0.0, 0.0, -4921.742370336338, 0.0]
['beep', 0.0, -790.3800356841131, 0.0, 0.0, 0.0, 0.0, -4895.054387456702, 0.0]
['beep', 0.0, -778.3547971671578, 0.0, 0.0, 0.0, 0.0, -4885.06315768518, 0.0]
['beep', 0.0, -756.9865294678843, 0.0, 0.0, 0.0, 0.0, -4905.6491143285175, 0.0]
['beep', 0.0, -752.4938288323676, 0.0, 0.0, 0.0, 0.0, -4926.302126205222, 0.0]
['beep', 0.0, -769.9728929964177, 0.0, 0.0, 0.0, 0.0, -4916.489710389342, 0.0]
['beep', 0.0, -786.9155152935405, 0.0, 0.0, 0.0, 0.0, -4891.321646132666, 0.0]
['beep', 0.0, -775.4043668990573, 0.0, 0.0, 0.0, 0.0, -4882.8726867285595, 0.0]
['beep', 0.0, -751.0633171872279, 0.0, 0.0, 0.0, 0.0, -4901.871669515571, 0.0]
['beep', 0.0, -743.6201862836107, 0.0, 0.0, 0.0, 0.0, -4922.658791859007, 0.0]
['beep', 0.0, -765.9048755055518, 0.0, 0.0, 0.0, 0.0, -4916.780283067261, 0.0]
['beep', 0.0, -784.769747825831, 0.0, 0.0, 0.0, 0.0, -4893.44506185592, 0.0]
['beep', 0.0, -774.5550006097557, 0.0, 0.0, 0.0, 0.0, -4886.896000730515, 0.0]
['beep', 0.0, -750.1468956645604, 0.0, 0.0, 0.0, 0.0, -4905.112672461591, 0.0]
['beep', 0.0, -743.3072618612364, 0.0, 0.0, 0.0, 0.0, -4925.341001193643, 0.0]
['beep', 0.0, -760.6298638140994, 0.0, 0.0, 0.0, 0.0, -4917.204966211912, 0.0]
['beep', 0.0, -773.1691924535266, 0.0, 0.0, 0.0, 0.0, -4893.042730455724, 0.0]
['beep', 0.0, -765.189619682982, 0.0, 0.0, 0.0, 0.0, -4887.007759452791, 0.0]
['beep', 0.0, -745.3412706066694, 0.0, 0.0, 0.0, 0.0, -4905.626762584062, 0.0]
['beep', 0.0, -739.0157269258174, 0.0, 0.0, 0.0, 0.0, -4923.8434343151375, 0.0]
['beep', 0.0, -758.2605789018368, 0.0, 0.0, 0.0, 0.0, -4915.193309210934, 0.0]
['beep', 0.0, -771.1798871970043, 0.0, 0.0, 0.0, 0.0, -4891.589867066129, 0.0]
['beep', 0.0, -763.6920528044764, 0.0, 0.0, 0.0, 0.0, -4888.974712964859, 0.0]
['beep', 0.0, -744.0895729171721, 0.0, 0.0, 0.0, 0.0, -4909.046579485725, 0.0]
['beep', 0.0, -737.741677491865, 0.0, 0.0, 0.0, 0.0, -4928.78316983976, 0.0]
['beep', 0.0, -752.3373666211804, 0.0, 0.0, 0.0, 0.0, -4919.328381935165, 0.0]
['beep', 0.0, -767.156573195049, 0.0, 0.0, 0.0, 0.0, -4893.981503722847, 0.0]
['beep', 0.0, -760.5851603251888, 0.0, 0.0, 0.0, 0.0, -4887.2536286418, 0.0]
['beep', 0.0, -737.6299187695884, 0.0, 0.0, 0.0, 0.0, -4907.5266608627635, 0.0]
['beep', 0.0, -728.4210000540019, 0.0, 0.0, 0.0, 0.0, -4926.011553527303, 0.0]
['beep', 0.0, -747.9340729634849, 0.0, 0.0, 0.0, 0.0, -4918.92605053497, 0.0]
['beep', 0.0, -766.2625034168367, 0.0, 0.0, 0.0, 0.0, -4894.4955938453195, 0.0]
['beep', 0.0, -760.6969190474653, 0.0, 0.0, 0.0, 0.0, -4886.8065937526935, 0.0]
['beep', 0.0, -737.4734565584013, 0.0, 0.0, 0.0, 0.0, -4907.951344007414, 0.0]
['beep', 0.0, -728.5774622651891, 0.0, 0.0, 0.0, 0.0, -4931.621841385584, 0.0]
['beep', 0.0, -748.4928665748677, 0.0, 0.0, 0.0, 0.0, -4922.54703313673, 0.0]
['beep', 0.0, -765.9719307389178, 0.0, 0.0, 0.0, 0.0, -4895.367311879077, 0.0]
['beep', 0.0, -760.1157736916273, 0.0, 0.0, 0.0, 0.0, -4888.192401908923, 0.0]
['beep', 0.0, -734.835950712675, 0.0, 0.0, 0.0, 0.0, -4910.566498108685, 0.0]
['beep', 0.0, -726.4093430530243, 0.0, 0.0, 0.0, 0.0, -4931.040696029746, 0.0]
['beep', 0.0, -743.8884072170744, 0.0, 0.0, 0.0, 0.0, -4923.955193037414, 0.0]
['beep', 0.0, -764.3179016492251, 0.0, 0.0, 0.0, 0.0, -4900.73173054835, 0.0]
['beep', 0.0, -758.1711719240155, 0.0, 0.0, 0.0, 0.0, -4893.266247900277, 0.0]
['beep', 0.0, -734.321860590203, 0.0, 0.0, 0.0, 0.0, -4912.73461732085, 0.0]
['beep', 0.0, -726.0070116528287, 0.0, 0.0, 0.0, 0.0, -4933.521739664286, 0.0]
['beep', 0.0, -745.38597409558, 0.0, 0.0, 0.0, 0.0, -4926.100960505123, 0.0]
['beep', 0.0, -763.8485150156636, 0.0, 0.0, 0.0, 0.0, -4901.7152073043835, 0.0]
['beep', 0.0, -753.4102503550351, 0.0, 0.0, 0.0, 0.0, -4894.070910700669, 0.0]
['beep', 0.0, -731.6620030000214, 0.0, 0.0, 0.0, 0.0, -4914.299239432721, 0.0]
['beep', 0.0, -724.1741686074935, 0.0, 0.0, 0.0, 0.0, -4933.365277453098, 0.0]
['beep', 0.0, -743.8884072170744, 0.0, 0.0, 0.0, 0.0, -4925.139835493545, 0.0]
['beep', 0.0, -762.2838929037921, 0.0, 0.0, 0.0, 0.0, -4901.759910793294, 0.0]
['beep', 0.0, -756.1371631785826, 0.0, 0.0, 0.0, 0.0, -4894.450890356408, 0.0]
['beep', 0.0, -732.9807559228846, 0.0, 0.0, 0.0, 0.0, -4911.661733586995, 0.0]
['beep', 0.0, -724.6659069855103, 0.0, 0.0, 0.0, 0.0, -4930.437198929453, 0.0]
['beep', 0.0, -741.317956604714, 0.0, 0.0, 0.0, 0.0, -4924.379876182065, 0.0]
['beep', 0.0, -758.0370614572837, 0.0, 0.0, 0.0, 0.0, -4902.318704404677, 0.0]
['beep', 0.0, -749.9904334533732, 0.0, 0.0, 0.0, 0.0, -4892.998026966814, 0.0]
['beep', 0.0, -731.1702646220047, 0.0, 0.0, 0.0, 0.0, -4912.779320809761, 0.0]
['beep', 0.0, -725.4929215303566, 0.0, 0.0, 0.0, 0.0, -4933.387629197554, 0.0]
['beep', 0.0, -739.641575770566, 0.0, 0.0, 0.0, 0.0, -4926.92797504997, 0.0]
['beep', 0.0, -754.3937271110686, 0.0, 0.0, 0.0, 0.0, -4903.235125927345, 0.0]
['beep', 0.0, -750.8174479982196, 0.0, 0.0, 0.0, 0.0, -4894.808518267693, 0.0]
['beep', 0.0, -732.9360524339739, 0.0, 0.0, 0.0, 0.0, -4914.366294666087, 0.0]
['beep', 0.0, -722.7883604512645, 0.0, 0.0, 0.0, 0.0, -4933.633498386562, 0.0]
['beep', 0.0, -738.8592647146303, 0.0, 0.0, 0.0, 0.0, -4928.090265761646, 0.0]
['beep', 0.0, -757.1206399346162, 0.0, 0.0, 0.0, 0.0, -4905.336189906143, 0.0]
['beep', 0.0, -752.2926631322698, 0.0, 0.0, 0.0, 0.0, -4898.071872958169, 0.0]
['beep', 0.0, -734.1430466345605, 0.0, 0.0, 0.0, 0.0, -4917.696704589928, 0.0]
['beep', 0.0, -726.2975843307477, 0.0, 0.0, 0.0, 0.0, -4941.411905457009, 0.0]
['beep', 0.0, -742.7931717387643, 0.0, 0.0, 0.0, 0.0, -4938.193254255445, 0.0]
['beep', 0.0, -758.5064480908452, 0.0, 0.0, 0.0, 0.0, -4912.600506854118, 0.0]
['beep', 0.0, -748.3811078525911, 0.0, 0.0, 0.0, 0.0, -4904.464471872387, 0.0]
['beep', 0.0, -728.6892209874655, 0.0, 0.0, 0.0, 0.0, -4927.084437261157, 0.0]
['beep', 0.0, -720.0167441388064, 0.0, 0.0, 0.0, 0.0, -4953.12421955159, 0.0]
['beep', 0.0, -739.9992036818509, 0.0, 0.0, 0.0, 0.0, -4949.860864861115, 0.0]
['beep', 0.0, -761.7250992924094, 0.0, 0.0, 0.0, 0.0, -4927.531472150263, 0.0]
['beep', 0.0, -753.2761398883033, 0.0, 0.0, 0.0, 0.0, -4920.691838346939, 0.0]
['beep', 0.0, -729.3821250655801, 0.0, 0.0, 0.0, 0.0, -4943.69178339145, 0.0]
['beep', 0.0, -721.223738339393, 0.0, 0.0, 0.0, 0.0, -4970.379766271087, 0.0]
['beep', 0.0, -739.6639275150213, 0.0, 0.0, 0.0, 0.0, -4971.251484304844, 0.0]
['beep', 0.0, -754.2819683887922, 0.0, 0.0, 0.0, 0.0, -4949.7267543943835, 0.0]
['beep', 0.0, -744.514256061823, 0.0, 0.0, 0.0, 0.0, -4941.613071157107, 0.0]
['beep', 0.0, -724.5765000076891, 0.0, 0.0, 0.0, 0.0, -4963.428373745486, 0.0]
['beep', 0.0, -722.1625116065159, 0.0, 0.0, 0.0, 0.0, -4990.496336280863, 0.0]
['beep', 0.0, -740.6697560155102, 0.0, 0.0, 0.0, 0.0, -4989.51285952483, 0.0]
['beep', 0.0, -758.6629103020323, 0.0, 0.0, 0.0, 0.0, -4969.262179048322, 0.0]
['beep', 0.0, -755.0866311891832, 0.0, 0.0, 0.0, 0.0, -4966.64702494705, 0.0]
['beep', 0.0, -738.1440088920605, 0.0, 0.0, 0.0, 0.0, -4991.010426403335, 0.0]
['beep', 0.0, -729.9856221658733, 0.0, 0.0, 0.0, 0.0, -5018.9948104613795, 0.0]
['beep', 0.0, -744.4695525729123, 0.0, 0.0, 0.0, 0.0, -5019.441845350486, 0.0]
['beep', 0.0, -759.5346283357893, 0.0, 0.0, 0.0, 0.0, -5001.448691063963, 0.0]
['beep', 0.0, -756.1371631785826, 0.0, 0.0, 0.0, 0.0, -4995.838403205682, 0.0]
['beep', 0.0, -738.9933751813621, 0.0, 0.0, 0.0, 0.0, -5017.229022649411, 0.0]
['beep', 0.0, -730.7679332218091, 0.0, 0.0, 0.0, 0.0, -5041.726534572427, 0.0]
['beep', 0.0, -744.6930700174654, 0.0, 0.0, 0.0, 0.0, -5038.396124648586, 0.0]
['beep', 0.0, -759.7134422914318, 0.0, 0.0, 0.0, 0.0, -5016.9384499714915, 0.0]
['beep', 0.0, -757.8805992460966, 0.0, 0.0, 0.0, 0.0, -5013.451577836464, 0.0]
['beep', 0.0, -742.4131920830241, 0.0, 0.0, 0.0, 0.0, -5034.238700179899, 0.0]
['beep', 0.0, -732.1090378891275, 0.0, 0.0, 0.0, 0.0, -5058.758563847371, 0.0]
['beep', 0.0, -749.8116194977307, 0.0, 0.0, 0.0, 0.0, -5056.724555101938, 0.0]
['beep', 0.0, -765.2343231718926, 0.0, 0.0, 0.0, 0.0, -5034.864549024648, 0.0]
['beep', 0.0, -758.6852620464877, 0.0, 0.0, 0.0, 0.0, -5026.974383231925, 0.0]
['beep', 0.0, -741.6532327715437, 0.0, 0.0, 0.0, 0.0, -5046.822732308237, 0.0]
['beep', 0.0, -734.1206948901051, 0.0, 0.0, 0.0, 0.0, -5069.219180252455, 0.0]
['beep', 0.0, -749.4763433309012, 0.0, 0.0, 0.0, 0.0, -5066.156991262078, 0.0]
['beep', 0.0, -764.6531778160546, 0.0, 0.0, 0.0, 0.0, -5043.917005529047, 0.0]
['beep', 0.0, -757.0088812123396, 0.0, 0.0, 0.0, 0.0, -5035.75861880286, 0.0]
['beep', 0.0, -738.3004711032476, 0.0, 0.0, 0.0, 0.0, -5055.942244046002, 0.0]
['beep', 0.0, -732.5560727782337, 0.0, 0.0, 0.0, 0.0, -5080.082128057734, 0.0]
['beep', 0.0, -747.4199828410128, 0.0, 0.0, 0.0, 0.0, -5075.678834400039, 0.0]
['beep', 0.0, -763.8932185045742, 0.0, 0.0, 0.0, 0.0, -5050.309604443265, 0.0]
['beep', 0.0, -758.8864277465854, 0.0, 0.0, 0.0, 0.0, -5041.257147938865, 0.0]
['beep', 0.0, -737.4958083028565, 0.0, 0.0, 0.0, 0.0, -5060.680813870527, 0.0]
['beep', 0.0, -727.415171553513, 0.0, 0.0, 0.0, 0.0, -5083.948979848502, 0.0]
['beep', 0.0, -744.4919043173677, 0.0, 0.0, 0.0, 0.0, -5081.602046680695, 0.0]
['beep', 0.0, -763.1779626820044, 0.0, 0.0, 0.0, 0.0, -5058.535046402818, 0.0]
['beep', 0.0, -759.1099451911384, 0.0, 0.0, 0.0, 0.0, -5050.086086998712, 0.0]
['beep', 0.0, -739.5074653038341, 0.0, 0.0, 0.0, 0.0, -5067.408688951575, 0.0]
['beep', 0.0, -730.253843099337, 0.0, 0.0, 0.0, 0.0, -5091.481517729941, 0.0]
['beep', 0.0, -746.3023956182475, 0.0, 0.0, 0.0, 0.0, -5089.6710264290605, 0.0]
['beep', 0.0, -763.155610937549, 0.0, 0.0, 0.0, 0.0, -5064.614720894661, 0.0]
['beep', 0.0, -759.8475527581636, 0.0, 0.0, 0.0, 0.0, -5055.092877756701, 0.0]
['beep', 0.0, -740.2227211264039, 0.0, 0.0, 0.0, 0.0, -5073.555418676784, 0.0]
['beep', 0.0, -730.834988455175, 0.0, 0.0, 0.0, 0.0, -5098.432910255541, 0.0]
['beep', 0.0, -748.1352386635826, 0.0, 0.0, 0.0, 0.0, -5094.38724450913, 0.0]
['beep', 0.0, -765.9272272500071, 0.0, 0.0, 0.0, 0.0, -5072.370776220653, 0.0]
['beep', 0.0, -761.0768987032055, 0.0, 0.0, 0.0, 0.0, -5061.261959226365, 0.0]
['beep', 0.0, -739.9992036818509, 0.0, 0.0, 0.0, 0.0, -5080.462107713474, 0.0]
['beep', 0.0, -732.4890175448678, 0.0, 0.0, 0.0, 0.0, -5104.736102191938, 0.0]
['beep', 0.0, -748.8951979750632, 0.0, 0.0, 0.0, 0.0, -5101.696264946016, 0.0]
['beep', 0.0, -765.0108057273395, 0.0, 0.0, 0.0, 0.0, -5079.500982701896, 0.0]
['beep', 0.0, -760.0040149693507, 0.0, 0.0, 0.0, 0.0, -5068.1462965186, 0.0]
['beep', 0.0, -740.3568315931358, 0.0, 0.0, 0.0, 0.0, -5084.9101048600805, 0.0]
['beep', 0.0, -732.4219623115018, 0.0, 0.0, 0.0, 0.0, -5110.413445283585, 0.0]
['beep', 0.0, -744.9165874620185, 0.0, 0.0, 0.0, 0.0, -5107.6865324600385, 0.0]
['beep', 0.0, -761.76980278132, 0.0, 0.0, 0.0, 0.0, -5083.725462403949, 0.0]
['beep', 0.0, -759.0205382133172, 0.0, 0.0, 0.0, 0.0, -5073.24249425441, 0.0]
['beep', 0.0, -738.2110641254263, 0.0, 0.0, 0.0, 0.0, -5090.855668885192, 0.0]
['beep', 0.0, -726.8116744532198, 0.0, 0.0, 0.0, 0.0, -5111.128701106156, 0.0]
['beep', 0.0, -743.7542967503425, 0.0, 0.0, 0.0, 0.0, -5106.68070395955, 0.0]
['beep', 0.0, -761.5686370812223, 0.0, 0.0, 0.0, 0.0, -5085.021863582357, 0.0]
['beep', 0.0, -758.2605789018368, 0.0, 0.0, 0.0, 0.0, -5073.778936121337, 0.0]
['beep', 0.0, -738.3228228477029, 0.0, 0.0, 0.0, 0.0, -5088.128756061645, 0.0]
['beep', 0.0, -728.7562762208315, 0.0, 0.0, 0.0, 0.0, -5110.77107319487, 0.0]
['beep', 0.0, -745.9894711958732, 0.0, 0.0, 0.0, 0.0, -5105.853689414703, 0.0]
['beep', 0.0, -763.155610937549, 0.0, 0.0, 0.0, 0.0, -5083.390186237119, 0.0]
['beep', 0.0, -758.7746690243089, 0.0, 0.0, 0.0, 0.0, -5073.018976809857, 0.0]
['beep', 0.0, -739.5298170482895, 0.0, 0.0, 0.0, 0.0, -5088.7322531619375, 0.0]
['beep', 0.0, -731.9302239334851, 0.0, 0.0, 0.0, 0.0, -5113.989724396435, 0.0]
['beep', 0.0, -745.6765467734989, 0.0, 0.0, 0.0, 0.0, -5110.480500516952, 0.0]
['beep', 0.0, -761.8145062702306, 0.0, 0.0, 0.0, 0.0, -5085.401843238097, 0.0]
['beep', 0.0, -758.1041166906497, 0.0, 0.0, 0.0, 0.0, -5074.382433221631, 0.0]
['beep', 0.0, -738.47928505889, 0.0, 0.0, 0.0, 0.0, -5091.637979941128, 0.0]
['beep', 0.0, -728.3092413317253, 0.0, 0.0, 0.0, 0.0, -5114.459111029996, 0.0]
['beep', 0.0, -740.9156252045185, 0.0, 0.0, 0.0, 0.0, -5112.872137173669, 0.0]
['beep', 0.0, -759.1993521689596, 0.0, 0.0, 0.0, 0.0, -5089.6710264290605, 0.0]
['beep', 0.0, -756.5618463232335, 0.0, 0.0, 0.0, 0.0, -5076.90818034508, 0.0]
['beep', 0.0, -738.6357472700772, 0.0, 0.0, 0.0, 0.0, -5093.62728519765, 0.0]
['beep', 0.0, -727.2587093423259, 0.0, 0.0, 0.0, 0.0, -5117.074265131267, 0.0]
['beep', 0.0, -742.6590612720324, 0.0, 0.0, 0.0, 0.0, -5117.096616875722, 0.0]
['beep', 0.0, -763.4014801265574, 0.0, 0.0, 0.0, 0.0, -5093.537878219829, 0.0]
['beep', 0.0, -758.2158754129262, 0.0, 0.0, 0.0, 0.0, -5081.356177491686, 0.0]
['beep', 0.0, -736.9146629470185, 0.0, 0.0, 0.0, 0.0, -5096.421253254563, 0.0]
['beep', 0.0, -729.4715320434013, 0.0, 0.0, 0.0, 0.0, -5121.164634366588, 0.0]
['beep', 0.0, -743.5307793057895, 0.0, 0.0, 0.0, 0.0, -5117.454244787007, 0.0]
['beep', 0.0, -759.735794035887, 0.0, 0.0, 0.0, 0.0, -5090.319227018264, 0.0]
['beep', 0.0, -757.2771021458033, 0.0, 0.0, 0.0, 0.0, -5078.539857690318, 0.0]
['beep', 0.0, -736.512331546823, 0.0, 0.0, 0.0, 0.0, -5098.522317233363, 0.0]
['beep', 0.0, -728.3315930761806, 0.0, 0.0, 0.0, 0.0, -5124.1597681236, 0.0]
['beep', 0.0, -743.1955031389598, 0.0, 0.0, 0.0, 0.0, -5119.935288421547, 0.0]
['beep', 0.0, -760.6298638140994, 0.0, 0.0, 0.0, 0.0, -5094.878982887147, 0.0]
['beep', 0.0, -758.4617446019346, 0.0, 0.0, 0.0, 0.0, -5082.563171692273, 0.0]
['beep', 0.0, -739.7086310039319, 0.0, 0.0, 0.0, 0.0, -5098.812889911281, 0.0]
['beep', 0.0, -729.1362558765717, 0.0, 0.0, 0.0, 0.0, -5123.377457067663, 0.0]
['beep', 0.0, -741.7649914938202, 0.0, 0.0, 0.0, 0.0, -5122.461035544996, 0.0]
['beep', 0.0, -757.8582475016412, 0.0, 0.0, 0.0, 0.0, -5096.398901510108, 0.0]
['beep', 0.0, -754.7960585112642, 0.0, 0.0, 0.0, 0.0, -5081.356177491686, 0.0]
['beep', 0.0, -735.0818199016834, 0.0, 0.0, 0.0, 0.0, -5098.410558511086, 0.0]
['beep', 0.0, -724.2859273297701, 0.0, 0.0, 0.0, 0.0, -5125.232651857455, 0.0]
['beep', 0.0, -745.0059944398397, 0.0, 0.0, 0.0, 0.0, -5118.370666309675, 0.0]
['beep', 0.0, -767.4918493618786, 0.0, 0.0, 0.0, 0.0, -5087.882886872636, 0.0]
['beep', 0.0, -767.0895179616831, 0.0, 0.0, 0.0, 0.0, -5071.744927375905, 0.0]
['beep', 0.0, -748.0234799413062, 0.0, 0.0, 0.0, 0.0, -5084.887753115625, 0.0]
['beep', 0.0, -739.0157269258174, 0.0, 0.0, 0.0, 0.0, -5105.0490266143115, 0.0]
['beep', 0.0, -751.4880003318788, 0.0, 0.0, 0.0, 0.0, -5104.601991725206, 0.0]
['beep', 0.0, -767.8718290176188, 0.0, 0.0, 0.0, 0.0, -5079.076299557245, 0.0]
['beep', 0.0, -767.9388842509848, 0.0, 0.0, 0.0, 0.0, -5061.485476670919, 0.0]
['beep', 0.0, -751.4880003318788, 0.0, 0.0, 0.0, 0.0, -5077.735194889927, 0.0]
['beep', 0.0, -740.0886106596721, 0.0, 0.0, 0.0, 0.0, -5102.031541112846, 0.0]
['beep', 0.0, -754.4607823444346, 0.0, 0.0, 0.0, 0.0, -5103.149128335611, 0.0]
['beep', 0.0, -773.124488964616, 0.0, 0.0, 0.0, 0.0, -5080.752680391393, 0.0]
['beep', 0.0, -769.7717272963199, 0.0, 0.0, 0.0, 0.0, -5066.469915684452, 0.0]
['beep', 0.0, -750.0574886867391, 0.0, 0.0, 0.0, 0.0, -5081.087956558223, 0.0]
['beep', 0.0, -738.9933751813621, 0.0, 0.0, 0.0, 0.0, -5105.540764992329, 0.0]
['beep', 0.0, -750.929206720496, 0.0, 0.0, 0.0, 0.0, -5104.512584747385, 0.0]
['beep', 0.0, -772.2304191864038, 0.0, 0.0, 0.0, 0.0, -5080.417404224563, 0.0]
['beep', 0.0, -771.0010732413618, 0.0, 0.0, 0.0, 0.0, -5066.939302318014, 0.0]
['beep', 0.0, -750.996261953862, 0.0, 0.0, 0.0, 0.0, -5082.473764714452, 0.0]
['beep', 0.0, -740.6250525265996, 0.0, 0.0, 0.0, 0.0, -5107.015980126379, 0.0]
['beep', 0.0, -752.3597183656358, 0.0, 0.0, 0.0, 0.0, -5108.625305727161, 0.0]
['beep', 0.0, -771.7833842972975, 0.0, 0.0, 0.0, 0.0, -5083.367834492664, 0.0]
['beep', 0.0, -770.7328523078982, 0.0, 0.0, 0.0, 0.0, -5070.783802364326, 0.0]
['beep', 0.0, -752.4938288323676, 0.0, 0.0, 0.0, 0.0, -5086.00534033839, 0.0]
['beep', 0.0, -739.1945408814598, 0.0, 0.0, 0.0, 0.0, -5108.670009216072, 0.0]
['beep', 0.0, -751.4880003318788, 0.0, 0.0, 0.0, 0.0, -5109.049988871812, 0.0]
['beep', 0.0, -770.8222592857194, 0.0, 0.0, 0.0, 0.0, -5085.670064171561, 0.0]
['beep', 0.0, -769.481154618401, 0.0, 0.0, 0.0, 0.0, -5068.928607574536, 0.0]
['beep', 0.0, -750.2139508979262, 0.0, 0.0, 0.0, 0.0, -5086.251209527399, 0.0]
['beep', 0.0, -737.5405117917671, 0.0, 0.0, 0.0, 0.0, -5113.386227296141, 0.0]
['beep', 0.0, -750.4821718313899, 0.0, 0.0, 0.0, 0.0, -5112.112177862189, 0.0]
['beep', 0.0, -770.1740586965154, 0.0, 0.0, 0.0, 0.0, -5087.86053512818, 0.0]
['beep', 0.0, -769.1458784515713, 0.0, 0.0, 0.0, 0.0, -5072.884866343125, 0.0]
['beep', 0.0, -750.1468956645604, 0.0, 0.0, 0.0, 0.0, -5088.419328739564, 0.0]
['beep', 0.0, -739.1051339036386, 0.0, 0.0, 0.0, 0.0, -5114.235593585443, 0.0]
['beep', 0.0, -749.7892677532755, 0.0, 0.0, 0.0, 0.0, -5115.688456975038, 0.0]
['beep', 0.0, -765.413137127535, 0.0, 0.0, 0.0, 0.0, -5091.883849130136, 0.0]
['beep', 0.0, -764.9213987495183, 0.0, 0.0, 0.0, 0.0, -5077.668139656561, 0.0]
['beep', 0.0, -744.804828739742, 0.0, 0.0, 0.0, 0.0, -5091.5485729633065, 0.0]
['beep', 0.0, -733.3830873230801, 0.0, 0.0, 0.0, 0.0, -5115.15201510811, 0.0]
['beep', 0.0, -749.610453797633, 0.0, 0.0, 0.0, 0.0, -5116.9625064089905, 0.0]
['beep', 0.0, -769.3470441516691, 0.0, 0.0, 0.0, 0.0, -5095.124852076156, 0.0]
['beep', 0.0, -767.0671662172277, 0.0, 0.0, 0.0, 0.0, -5081.870267614158, 0.0]
['beep', 0.0, -749.5657503087224, 0.0, 0.0, 0.0, 0.0, -5097.158860821589, 0.0]
['beep', 0.0, -737.9428431919627, 0.0, 0.0, 0.0, 0.0, -5121.008172155402, 0.0]
['beep', 0.0, -749.3869363530799, 0.0, 0.0, 0.0, 0.0, -5122.416332056086, 0.0]
['beep', 0.0, -769.7717272963199, 0.0, 0.0, 0.0, 0.0, -5098.365855022175, 0.0]
['beep', 0.0, -768.3859191400909, 0.0, 0.0, 0.0, 0.0, -5078.092822801212, 0.0]
['beep', 0.0, -747.4199828410128, 0.0, 0.0, 0.0, 0.0, -5088.240514783921, 0.0]
['beep', 0.0, -733.3383838341695, 0.0, 0.0, 0.0, 0.0, -5111.374570295164, 0.0]
['beep', 0.0, -748.962253208429, 0.0, 0.0, 0.0, 0.0, -5113.900317418614, 0.0]
['beep', 0.0, -766.8883522615853, 0.0, 0.0, 0.0, 0.0, -5089.894543873614, 0.0]
['beep', 0.0, -765.7260615499093, 0.0, 0.0, 0.0, 0.0, -5075.321206488754, 0.0]
['beep', 0.0, -745.967119451418, 0.0, 0.0, 0.0, 0.0, -5088.0840525727335, 0.0]
['beep', 0.0, -734.0759914011945, 0.0, 0.0, 0.0, 0.0, -5112.469805773474, 0.0]
['beep', 0.0, -748.157590408038, 0.0, 0.0, 0.0, 0.0, -5114.190890096533, 0.0]
['beep', 0.0, -767.0001109838619, 0.0, 0.0, 0.0, 0.0, -5090.587447951728, 0.0]
['beep', 0.0, -768.5870848401887, 0.0, 0.0, 0.0, 0.0, -5074.181267521532, 0.0]
['beep', 0.0, -747.3976310965576, 0.0, 0.0, 0.0, 0.0, -5088.441680484018, 0.0]
['beep', 0.0, -734.6571367570325, 0.0, 0.0, 0.0, 0.0, -5115.666105230583, 0.0]
['beep', 0.0, -747.6435002855659, 0.0, 0.0, 0.0, 0.0, -5114.168538352077, 0.0]
['beep', 0.0, -766.3742621391133, 0.0, 0.0, 0.0, 0.0, -5088.240514783921, 0.0]
['beep', 0.0, -765.6366545720881, 0.0, 0.0, 0.0, 0.0, -5071.744927375905, 0.0]
['beep', 0.0, -748.4705148304123, 0.0, 0.0, 0.0, 0.0, -5085.155974049088, 0.0]
['beep', 0.0, -736.8029042247421, 0.0, 0.0, 0.0, 0.0, -5110.189927839033, 0.0]
['beep', 0.0, -748.9846049528844, 0.0, 0.0, 0.0, 0.0, -5113.095654618222, 0.0]
['beep', 0.0, -771.0904802191831, 0.0, 0.0, 0.0, 0.0, -5089.939247362524, 0.0]
['beep', 0.0, -771.7163290639317, 0.0, 0.0, 0.0, 0.0, -5075.343558233209, 0.0]
['beep', 0.0, -751.3538898651469, 0.0, 0.0, 0.0, 0.0, -5088.396976995108, 0.0]
['beep', 0.0, -737.2722908583034, 0.0, 0.0, 0.0, 0.0, -5112.872137173669, 0.0]
['beep', 0.0, -748.0011281968508, 0.0, 0.0, 0.0, 0.0, -5116.359009308697, 0.0]
['beep', 0.0, -767.5142011063339, 0.0, 0.0, 0.0, 0.0, -5095.236610798432, 0.0]
['beep', 0.0, -767.2459801728702, 0.0, 0.0, 0.0, 0.0, -5081.423232725052, 0.0]
['beep', 0.0, -746.2129886404263, 0.0, 0.0, 0.0, 0.0, -5095.43777649853, 0.0]
['beep', 0.0, -733.673660000999, 0.0, 0.0, 0.0, 0.0, -5120.359971566198, 0.0]
['beep', 0.0, -745.6541950290436, 0.0, 0.0, 0.0, 0.0, -5122.371628567174, 0.0]
['beep', 0.0, -765.77076503882, 0.0, 0.0, 0.0, 0.0, -5100.735139934438, 0.0]
['beep', 0.0, -768.028291228806, 0.0, 0.0, 0.0, 0.0, -5086.407671738586, 0.0]
['beep', 0.0, -748.6046252971441, 0.0, 0.0, 0.0, 0.0, -5102.076244601756, 0.0]
['beep', 0.0, -736.4229245690018, 0.0, 0.0, 0.0, 0.0, -5126.909032691602, 0.0]
['beep', 0.0, -746.2800438737922, 0.0, 0.0, 0.0, 0.0, -5128.026619914368, 0.0]
['beep', 0.0, -766.7318900503982, 0.0, 0.0, 0.0, 0.0, -5107.418311526574, 0.0]
['beep', 0.0, -764.9884539828843, 0.0, 0.0, 0.0, 0.0, -5091.637979941128, 0.0]
['beep', 0.0, -747.1964653964598, 0.0, 0.0, 0.0, 0.0, -5103.730273691449, 0.0]
['beep', 0.0, -733.5619012787225, 0.0, 0.0, 0.0, 0.0, -5127.333715836253, 0.0]
['beep', 0.0, -745.4977328178564, 0.0, 0.0, 0.0, 0.0, -5130.462960059996, 0.0]
['beep', 0.0, -767.0671662172277, 0.0, 0.0, 0.0, 0.0, -5106.859517915192, 0.0]
['beep', 0.0, -767.2683319173256, 0.0, 0.0, 0.0, 0.0, -5088.754604906393, 0.0]
['beep', 0.0, -748.2469973858592, 0.0, 0.0, 0.0, 0.0, -5105.652523714605, 0.0]
['beep', 0.0, -735.1488751350493, 0.0, 0.0, 0.0, 0.0, -5131.558195538306, 0.0]
['beep', 0.0, -749.1634189085269, 0.0, 0.0, 0.0, 0.0, -5134.01688742839, 0.0]
['beep', 0.0, -769.6599685740434, 0.0, 0.0, 0.0, 0.0, -5110.234631327943, 0.0]
['beep', 0.0, -767.0671662172277, 0.0, 0.0, 0.0, 0.0, -5093.113195075178, 0.0]
['beep', 0.0, -748.5375700637783, 0.0, 0.0, 0.0, 0.0, -5105.160785336589, 0.0]
['beep', 0.0, -736.3558693356358, 0.0, 0.0, 0.0, 0.0, -5130.082980404256, 0.0]
['beep', 0.0, -747.0847066741833, 0.0, 0.0, 0.0, 0.0, -5131.379381582664, 0.0]
['beep', 0.0, -766.3072069057473, 0.0, 0.0, 0.0, 0.0, -5108.312381304787, 0.0]
['beep', 0.0, -769.3693958961244, 0.0, 0.0, 0.0, 0.0, -5093.046139841812, 0.0]
['beep', 0.0, -752.8067532547419, 0.0, 0.0, 0.0, 0.0, -5103.707921946993, 0.0]
['beep', 0.0, -738.546340292256, 0.0, 0.0, 0.0, 0.0, -5128.540710036839, 0.0]
['beep', 0.0, -749.4092880975352, 0.0, 0.0, 0.0, 0.0, -5132.094637405234, 0.0]
['beep', 0.0, -768.6988435624652, 0.0, 0.0, 0.0, 0.0, -5105.607820225695, 0.0]
['beep', 0.0, -770.2634656743367, 0.0, 0.0, 0.0, 0.0, -5091.615628196672, 0.0]
['beep', 0.0, -752.3373666211804, 0.0, 0.0, 0.0, 0.0, -5103.596163224717, 0.0]
['beep', 0.0, -738.8816164590855, 0.0, 0.0, 0.0, 0.0, -5125.925555935569, 0.0]
['beep', 0.0, -747.867017730119, 0.0, 0.0, 0.0, 0.0, -5128.451303059019, 0.0]
['beep', 0.0, -766.1507446945602, 0.0, 0.0, 0.0, 0.0, -5106.881869659647, 0.0]
['beep', 0.0, -768.3635673956356, 0.0, 0.0, 0.0, 0.0, -5090.051006084801, 0.0]
['beep', 0.0, -750.5715788092111, 0.0, 0.0, 0.0, 0.0, -5100.064587600778, 0.0]
['beep', 0.0, -737.0264216692951, 0.0, 0.0, 0.0, 0.0, -5122.438683800541, 0.0]
['beep', 0.0, -748.4705148304123, 0.0, 0.0, 0.0, 0.0, -5127.311364091798, 0.0]
['beep', 0.0, -766.3295586502027, 0.0, 0.0, 0.0, 0.0, -5103.9314393915465, 0.0]
['beep', 0.0, -768.3635673956356, 0.0, 0.0, 0.0, 0.0, -5084.954808348991, 0.0]
['beep', 0.0, -749.319881119714, 0.0, 0.0, 0.0, 0.0, -5096.689474188027, 0.0]
['beep', 0.0, -738.2781193587923, 0.0, 0.0, 0.0, 0.0, -5121.477558788963, 0.0]
['beep', 0.0, -749.6328055420882, 0.0, 0.0, 0.0, 0.0, -5125.746741979926, 0.0]
['beep', 0.0, -767.156573195049, 0.0, 0.0, 0.0, 0.0, -5100.802195167804, 0.0]
['beep', 0.0, -769.7270238074093, 0.0, 0.0, 0.0, 0.0, -5084.284256015331, 0.0]
['beep', 0.0, -752.4938288323676, 0.0, 0.0, 0.0, 0.0, -5094.409596253586, 0.0]
['beep', 0.0, -740.3344798486805, 0.0, 0.0, 0.0, 0.0, -5120.091750632733, 0.0]
['beep', 0.0, -747.5987967966553, 0.0, 0.0, 0.0, 0.0, -5122.997477411924, 0.0]
['beep', 0.0, -768.8106022847418, 0.0, 0.0, 0.0, 0.0, -5098.1199858331665, 0.0]
['beep', 0.0, -774.8455732876746, 0.0, 0.0, 0.0, 0.0, -5082.362005992175, 0.0]
['beep', 0.0, -756.4277358565016, 0.0, 0.0, 0.0, 0.0, -5092.040311341323, 0.0]
['beep', 0.0, -739.0157269258174, 0.0, 0.0, 0.0, 0.0, -5115.442587786029, 0.0]
['beep', 0.0, -749.0963636751609, 0.0, 0.0, 0.0, 0.0, -5118.303611076309, 0.0]
['beep', 0.0, -770.0399482297836, 0.0, 0.0, 0.0, 0.0, -5095.549535220806, 0.0]
['beep', 0.0, -770.8446110301746, 0.0, 0.0, 0.0, 0.0, -5078.137526290122, 0.0]
['beep', 0.0, -752.4714770879123, 0.0, 0.0, 0.0, 0.0, -5089.380453751141, 0.0]
['beep', 0.0, -739.7086310039319, 0.0, 0.0, 0.0, 0.0, -5111.419273784074, 0.0]
['beep', 0.0, -750.5492270647559, 0.0, 0.0, 0.0, 0.0, -5113.8556139297025, 0.0]
['beep', 0.0, -770.799907541264, 0.0, 0.0, 0.0, 0.0, -5093.157898564088, 0.0]
['beep', 0.0, -774.2644279318366, 0.0, 0.0, 0.0, 0.0, -5074.538895432817, 0.0]
['beep', 0.0, -755.1983899114597, 0.0, 0.0, 0.0, 0.0, -5085.401843238097, 0.0]
['beep', 0.0, -741.3403083491694, 0.0, 0.0, 0.0, 0.0, -5110.502852261407, 0.0]
['beep', 0.0, -753.030270699295, 0.0, 0.0, 0.0, 0.0, -5113.29682031832, 0.0]
['beep', 0.0, -772.6103988421439, 0.0, 0.0, 0.0, 0.0, -5091.526221218851, 0.0]
['beep', 0.0, -775.091442476683, 0.0, 0.0, 0.0, 0.0, -5073.197790765499, 0.0]
['beep', 0.0, -756.6512533010547, 0.0, 0.0, 0.0, 0.0, -5082.607875181184, 0.0]
['beep', 0.0, -741.5638257937225, 0.0, 0.0, 0.0, 0.0, -5110.72636970596, 0.0]
['beep', 0.0, -750.772744509309, 0.0, 0.0, 0.0, 0.0, -5115.219070341476, 0.0]
['beep', 0.0, -771.381052897102, 0.0, 0.0, 0.0, 0.0, -5093.157898564088, 0.0]
['beep', 0.0, -777.1030994776606, 0.0, 0.0, 0.0, 0.0, -5074.605950666184, 0.0]
['beep', 0.0, -759.7581457803424, 0.0, 0.0, 0.0, 0.0, -5083.43488972603, 0.0]
['beep', 0.0, -744.2683868728145, 0.0, 0.0, 0.0, 0.0, -5106.278372559354, 0.0]
['beep', 0.0, -754.1702096665156, 0.0, 0.0, 0.0, 0.0, -5111.665142973083, 0.0]
['beep', 0.0, -773.124488964616, 0.0, 0.0, 0.0, 0.0, -5089.715729917972, 0.0]
['beep', 0.0, -777.706596577954, 0.0, 0.0, 0.0, 0.0, -5070.761450619871, 0.0]
['beep', 0.0, -758.5511515797558, 0.0, 0.0, 0.0, 0.0, -5079.6350931686275, 0.0]
['beep', 0.0, -743.2178548834152, 0.0, 0.0, 0.0, 0.0, -5104.937267892035, 0.0]
['beep', 0.0, -751.2197793984151, 0.0, 0.0, 0.0, 0.0, -5110.435797028041, 0.0]
['beep', 0.0, -770.3975761410685, 0.0, 0.0, 0.0, 0.0, -5088.776956650849, 0.0]
['beep', 0.0, -773.9962069983729, 0.0, 0.0, 0.0, 0.0, -5071.789630864815, 0.0]
['beep', 0.0, -757.545323079267, 0.0, 0.0, 0.0, 0.0, -5081.423232725052, 0.0]
['beep', 0.0, -742.1673228940157, 0.0, 0.0, 0.0, 0.0, -5105.876041159158, 0.0]
['beep', 0.0, -752.963215465929, 0.0, 0.0, 0.0, 0.0, -5108.357084793697, 0.0]
['beep', 0.0, -774.1303174651048, 0.0, 0.0, 0.0, 0.0, -5089.827488640248, 0.0]
['beep', 0.0, -776.9242855220182, 0.0, 0.0, 0.0, 0.0, -5074.136564032622, 0.0]
['beep', 0.0, -758.931131235496, 0.0, 0.0, 0.0, 0.0, -5081.937322847524, 0.0]
['beep', 0.0, -740.0215554263062, 0.0, 0.0, 0.0, 0.0, -5106.233669070443, 0.0]
['beep', 0.0, -748.1352386635826, 0.0, 0.0, 0.0, 0.0, -5111.218108083976, 0.0]
['beep', 0.0, -769.7717272963199, 0.0, 0.0, 0.0, 0.0, -5089.402805495597, 0.0]
['beep', 0.0, -775.7396430658869, 0.0, 0.0, 0.0, 0.0, -5071.744927375905, 0.0]
['beep', 0.0, -758.1711719240155, 0.0, 0.0, 0.0, 0.0, -5082.138488547622, 0.0]
['beep', 0.0, -743.6872415169765, 0.0, 0.0, 0.0, 0.0, -5107.8653464156805, 0.0]
['beep', 0.0, -753.253788143848, 0.0, 0.0, 0.0, 0.0, -5112.022770884368, 0.0]
['beep', 0.0, -774.1303174651048, 0.0, 0.0, 0.0, 0.0, -5091.481517729941, 0.0]
['beep', 0.0, -777.9748175114177, 0.0, 0.0, 0.0, 0.0, -5071.990796564913, 0.0]
['beep', 0.0, -758.7970207687641, 0.0, 0.0, 0.0, 0.0, -5081.020901324857, 0.0]
['beep', 0.0, -741.4297153269906, 0.0, 0.0, 0.0, 0.0, -5107.038331870835, 0.0]
['beep', 0.0, -750.705689275943, 0.0, 0.0, 0.0, 0.0, -5110.748721450415, 0.0]
['beep', 0.0, -769.2129336849373, 0.0, 0.0, 0.0, 0.0, -5088.8440118842145, 0.0]
['beep', 0.0, -772.2751226753144, 0.0, 0.0, 0.0, 0.0, -5068.570979663251, 0.0]
['beep', 0.0, -755.4219073560128, 0.0, 0.0, 0.0, 0.0, -5078.942189090513, 0.0]
['beep', 0.0, -743.3072618612364, 0.0, 0.0, 0.0, 0.0, -5104.333770791742, 0.0]
['beep', 0.0, -750.1692474090156, 0.0, 0.0, 0.0, 0.0, -5110.525204005862, 0.0]
['beep', 0.0, -770.7552040523534, 0.0, 0.0, 0.0, 0.0, -5088.7322531619375, 0.0]
['beep', 0.0, -773.4821168759009, 0.0, 0.0, 0.0, 0.0, -5071.7672791203595, 0.0]
['beep', 0.0, -755.5560178227446, 0.0, 0.0, 0.0, 0.0, -5080.909142602581, 0.0]
['beep', 0.0, -740.3791833375911, 0.0, 0.0, 0.0, 0.0, -5107.1053871042, 0.0]
['beep', 0.0, -749.2081223974375, 0.0, 0.0, 0.0, 0.0, -5112.53686100684, 0.0]
['beep', 0.0, -768.2294569289037, 0.0, 0.0, 0.0, 0.0, -5089.581619451239, 0.0]
['beep', 0.0, -772.3868813975909, 0.0, 0.0, 0.0, 0.0, -5071.47670644244, 0.0]
['beep', 0.0, -756.3606806231357, 0.0, 0.0, 0.0, 0.0, -5080.3950524801085, 0.0]
['beep', 0.0, -738.4345815699794, 0.0, 0.0, 0.0, 0.0, -5106.568945237273, 0.0]
['beep', 0.0, -745.8106572402307, 0.0, 0.0, 0.0, 0.0, -5113.162709851588, 0.0]
['beep', 0.0, -769.4364511294904, 0.0, 0.0, 0.0, 0.0, -5091.637979941128, 0.0]
['beep', 0.0, -771.7386808083869, 0.0, 0.0, 0.0, 0.0, -5072.393127965108, 0.0]
['beep', 0.0, -755.2430934003703, 0.0, 0.0, 0.0, 0.0, -5080.216238524466, 0.0]
['beep', 0.0, -740.0439071707615, 0.0, 0.0, 0.0, 0.0, -5104.266715558376, 0.0]
['beep', 0.0, -748.7610875083313, 0.0, 0.0, 0.0, 0.0, -5109.161747594088, 0.0]
['beep', 0.0, -767.9388842509848, 0.0, 0.0, 0.0, 0.0, -5087.257038027888, 0.0]
['beep', 0.0, -770.9340180079959, 0.0, 0.0, 0.0, 0.0, -5070.046194797301, 0.0]
['beep', 0.0, -755.220741655915, 0.0, 0.0, 0.0, 0.0, -5079.657444913083, 0.0]
['beep', 0.0, -740.0886106596721, 0.0, 0.0, 0.0, 0.0, -5104.222012069466, 0.0]
['beep', 0.0, -747.6435002855659, 0.0, 0.0, 0.0, 0.0, -5109.698189461015, 0.0]
['beep', 0.0, -765.6366545720881, 0.0, 0.0, 0.0, 0.0, -5088.195811295011, 0.0]
['beep', 0.0, -768.6541400735546, 0.0, 0.0, 0.0, 0.0, -5071.8790378426365, 0.0]
['beep', 0.0, -752.6055875546441, 0.0, 0.0, 0.0, 0.0, -5078.942189090513, 0.0]
['beep', 0.0, -737.9875466808733, 0.0, 0.0, 0.0, 0.0, -5103.886735902636, 0.0]
['beep', 0.0, -746.5259130628006, 0.0, 0.0, 0.0, 0.0, -5114.39205579663, 0.0]
['beep', 0.0, -767.4247941285126, 0.0, 0.0, 0.0, 0.0, -5092.733215419437, 0.0]
['beep', 0.0, -769.3693958961244, 0.0, 0.0, 0.0, 0.0, -5074.7624128773705, 0.0]
['beep', 0.0, -752.5832358101889, 0.0, 0.0, 0.0, 0.0, -5082.205543780988, 0.0]
['beep', 0.0, -736.6687937580102, 0.0, 0.0, 0.0, 0.0, -5106.6360004706385, 0.0]
['beep', 0.0, -745.8553607291414, 0.0, 0.0, 0.0, 0.0, -5112.872137173669, 0.0]
['beep', 0.0, -768.1400499510825, 0.0, 0.0, 0.0, 0.0, -5090.520392718362, 0.0]
['beep', 0.0, -771.3587011526467, 0.0, 0.0, 0.0, 0.0, -5072.437831454019, 0.0]
['beep', 0.0, -755.8242387562083, 0.0, 0.0, 0.0, 0.0, -5083.0996135592, 0.0]
['beep', 0.0, -739.5968722816554, 0.0, 0.0, 0.0, 0.0, -5108.044160371323, 0.0]
