[[1003.8615469767508, 1006.2531836334687, 1005.8508522332731, 1006.3202388668345, 1007.7060470230637, 1006.1861284001027, 1006.2755353779239, 1004.4650440770441, 1005.3144103663458, 1002.6769045206195, 998.9665149410386, 1004.3532853547675, 1005.4932243219882, 1004.3309336103123, 1005.8955557221838, 1005.2473551329798, 1006.7449220114854, 1006.566108055843, 1005.8508522332731, 1004.8897272216949, 1003.6603812766531, 1003.9062504656614, 1007.7283987675189, 1006.5214045669323, 1004.9567824550609, 1003.8391952322955, 1003.3474568542788, 1004.7332650105078, 1007.7954540008849, 1004.3756370992229, 1003.8391952322955, 1004.7556167549631, 1003.950953954572, 1004.7779684994184, 1004.9120789661503, 1005.7837969999072, 1006.1414249111921, 1007.0354946894043, 1008.018971445438, 1005.3591138552564, 1003.2356981320022, 1004.2638783769463, 1006.1190731667368, 1007.8848609787061, 1005.0461894328821, 1001.3357998533011, 1003.5486225543765, 1005.8508522332731, 1003.1686428986363, 1002.8333667318067, 1005.4261690886223, 1006.1861284001027, 1006.4096458446558, 1006.0743696778262, 1005.7167417665413, 1006.3425906112899, 1006.9237359671279, 1005.6496865331753, 1007.9966197009826, 1009.0471516903821, 1005.7837969999072, 1005.5155760664435, 1006.0743696778262, 1006.6331632892088, 1008.0860266788038, 1006.72257026703, 1006.1190731667368, 1006.2531836334687, 1008.2648406344463, 1009.4941865794882, 1005.917907466639, 1007.8178057453401, 1009.6953522795859, 1009.9412214685943, 1009.8965179796837, 1010.790587757896, 1008.6448202901865, 1010.0976836797814, 1010.5447185688876, 1009.8518144907731, 1007.1472534116809, 1007.1919569005915, 1008.0860266788038, 1005.6273347887201, 1006.0073144444602, 1004.6438580326866, 1004.6885615215972, 1005.4485208330776, 1006.1414249111921, 1003.9062504656614, 1003.8391952322955, 1004.3532853547675, 1001.0675789198374, 1001.0452271753821, 1000.8664132197397, 999.4135498301447, 1000.307619608357, 1000.3746748417229, 1002.9227737096279, 1003.0121806874491, 998.8771079632173, 999.726474252519, 1001.6263725312201, 1000.6205440307313, 1000.4864335639994, 997.6701137626308, 994.6749800056195, 995.0326079169045, 996.1278433952145, 997.4912998069883, 998.9665149410386, 998.6982940075749, 997.0219131734268, 999.5253085524213, 999.6817707636084, 997.1560236401587, 999.0559219188598, 1002.4086835871558, 1003.1239394097257, 1003.8838987212062, 1003.1686428986363, 1001.3805033422117, 1002.9451254540832, 1003.5709742988319, 1005.8061487443625, 1006.566108055843, 1004.3309336103123, 1005.7390935109966, 1008.3095441233569, 1005.4708725775329, 1004.6885615215972, 1003.8838987212062, 1004.3532853547675, 1004.3085818658569, 1004.8673754772396, 1004.3309336103123, 1004.1744713991251, 1006.1414249111921, 1008.1307301677144, 1006.6778667781194, 1005.917907466639, 1005.6273347887201, 1004.8897272216949, 1004.8003202438737, 1006.208480144558, 1005.5155760664435, 1008.0860266788038, 1010.1870906576027, 1007.2143086450469, 1006.9907912004937, 1006.5884598002982, 1006.6778667781194, 1006.9237359671279, 1007.4601778340552, 1008.0860266788038, 1006.1861284001027, 1006.5884598002982, 1007.5942883007871, 1007.2590121339575, 1007.2366603895022, 1004.6885615215972, 1004.6215062882312, 1007.2366603895022, 1007.080198178315, 1007.370770856234, 1006.8119772448513, 1005.6720382776307, 1006.4319975891111, 1007.1696051561363, 1006.4767010780217, 1006.1637766556474, 1006.208480144558, 1006.7672737559407, 1008.3989511011781, 1007.2366603895022, 1003.8838987212062, 1005.403817344167, 1008.5777650568206, 1009.6506487906753, 1009.1812621571139, 1008.0860266788038, 1006.8566807337619, 1009.3824278572116, 1009.0247999459267, 1006.3425906112899, 1005.8061487443625, 1006.9460877115831, 1009.0247999459267, 1009.0471516903821, 1007.6389917896977, 1005.1355964107033, 1005.5602795553541, 1008.5777650568206, 1008.4883580789993, 1006.6555150336642, 1006.0743696778262, 1006.8790324782173, 1008.823634245829, 1009.0024482014715, 1007.8178057453401, 1007.9966197009826, 1006.8119772448513, 1008.1530819121698, 1008.8012825013736, 1009.6506487906753, 1004.6885615215972, 1003.6156777877425, 1008.0413231898932, 1002.8333667318067, 1003.8168434878402, 1005.6273347887201, 1003.213346387547, 1000.9334684531055, 1003.3921603431894, 1003.2356981320022, 1003.4368638321, 1003.6156777877425, 1002.7216080095301, 1003.3474568542788, 1005.0014859439715, 1004.0850644213039, 1002.274573120424, 1002.9227737096279, 1003.6827330211083, 1004.1744713991251, 1003.1239394097257, 1002.2522213759687, 1004.7332650105078, 1004.1074161657592, 1001.8945934646838, 1001.2687446199352, 999.793529485885, 1000.8217097308291, 1001.4475585755777, 1001.6487242756754, 1000.1064539082593, 997.7148172515414, 999.3688463412341, 1001.8945934646838, 1002.7216080095301, 1001.1569858976586, 998.5865352852983, 998.8994597076726, 1000.8887649641949, 1001.8275382313178, 1001.7157795090413, 1000.4640818195442, 1000.9334684531055, 1001.9392969535944, 1002.8780702207173, 1001.3805033422117, 1000.8887649641949, 1001.8498899757732, 1002.3192766093346, 1002.3639800982452, 1001.7157795090413, 1000.7770062419185, 1000.1958608860805, 1003.0121806874491, 1003.7721399989296, 1003.2356981320022, 1002.7886632428961, 1000.8887649641949, 1001.6040207867647, 1004.3309336103123, 1006.2531836334687, 1004.3309336103123, 1001.2910963643905, 1000.307619608357, 1003.4592155765553, 1002.5427940538876, 1000.7099510085525, 999.3241428523235, 1001.693427764586, 1004.3309336103123, 1003.0121806874491, 1003.3921603431894, 1004.2862301214017, 1003.6380295321977, 1000.3523230972676, 993.9820759275051, 987.9918084134828, 979.8110699428404, 971.7420901944746, 963.2707790459132, 952.8995696186507, 944.2270927699916, 935.2193397545028, 927.2174152395029, 921.0259820253829, 912.6217261101874, 905.3350574177573, 899.8141765372965, 893.7345020454529, 889.9794089769613, 885.8666879971848, 882.1786501620592, 879.407033849601, 882.245705395425, 885.0396734523384, 885.1737839190703, 881.5975048062212, 881.8880774841401, 882.9609612179948, 884.0114932073943, 883.5868100627434, 882.2010019065144, 882.4915745844335, 885.3973013636233, 886.0455019528273, 882.6256850511653, 883.7432722739306, 884.860859496696, 886.0902054417379, 886.2690193973804, 885.151432174615, 886.1796124195591, 887.2971996423245, 887.8336415092518, 887.2301444089585, 886.2019641640144, 885.0620251967938, 884.7043972855089, 884.4585280965005, 884.8161560077854, 884.346769374224, 884.2350106519474, 884.0785484407603, 883.6762170405647, 886.313722886291, 887.3866066201457, 887.6101240646988, 887.5430688313328, 888.5488973318216, 891.4546241110115, 891.2311066664585, 886.2019641640144, 887.1854409200479, 886.9172199865842, 887.6771792980647, 884.7938042633301, 883.6538652961094, 880.6140280501877, 877.0153971928833, 874.9143332140843, 875.5401820588329, 872.9920831909279, 873.8190977357743, 875.5401820588329, 876.2330861369475, 874.9366849585397, 873.4391180800341, 873.6402837801319, 873.2379523799364, 873.5061733134, 872.9026762131067, 869.1252314001598, 869.5722662892659, 872.120365157171, 874.2661326248805, 875.249609380914, 873.4167663355788, 870.4886878119336, 873.9532082025062, 877.7083012709977, 875.4507750810117, 873.3497111022128, 873.796745991319, 875.0484436808161, 876.5907140482324, 876.344844859224, 873.6402837801319, 873.7296907579531, 874.3555396027017, 875.4954785699223, 873.4614698244894, 872.701510513009, 870.8910192121291, 871.9639029459838, 872.9026762131067, 871.896847712618, 869.6616732670872, 868.6558447665984, 869.2369901224364, 869.9522459450062, 870.9133709565843, 870.1310599006487, 867.7170714994754, 871.2933506123246, 871.2933506123246, 874.2884843693357, 875.0484436808161, 874.4449465805229, 875.1378506586374, 877.1495076596151, 875.8084029922967, 873.863801224685, 876.054272181305, 878.4906123269335, 877.7083012709977, 875.1602024030927, 877.3283216152576, 876.121327414671, 878.7811850048524, 881.9774844619614, 880.6810832835536, 877.6635977820871, 879.7870135053413, 878.2223913934698, 877.216562892981, 877.216562892981, 874.4896500694335, 876.5683623037771, 878.3341501157463, 878.9376472160396, 877.5965425487212, 875.5178303143776, 873.863801224685, 876.0095686923944, 879.474089082967, 876.3001413703134, 876.8365832372408, 877.9988739489168, 876.1883826480368, 874.6461122806206, 873.9308564580508, 877.2612663818916, 877.3730251041682, 877.1718594040703, 878.2894466268357, 876.6577692815983, 876.2107343924922, 878.0435774378274, 878.7141297714866, 877.5965425487212, 876.1436791591262, 876.5683623037771, 875.3837198476458, 877.4624320819894, 880.1669931610816, 878.5576675602994, 877.6412460376318, 878.8482402382184, 880.7704902613748, 879.8540687387073, 880.1669931610816, 879.6529030386095, 878.825888493763, 878.1106326711932, 877.3283216152576, 876.8812867261514, 875.9425134590285, 876.1436791591262, 876.3671966036793, 878.7141297714866, 879.4964408274222, 875.2049058920034, 874.5790570472548, 877.216562892981, 879.9434757165285, 876.1883826480368, 874.5343535583442, 876.054272181305, 877.8200599932743, 878.669426282576, 877.6412460376318, 874.7802227473525, 874.020263435872, 876.5683623037771, 878.9599989604949, 878.4012053491123, 875.2719611253692, 876.7248245149642, 879.2505716384139, 877.6859495265425, 877.1048041707045, 874.4896500694335, 870.1087081561933, 874.3555396027017, 884.2126589074921, 895.8132142797965, 901.6917230715422, 910.6100691092097, 923.1270460041817, 932.1571507641257, 940.695517146053, 950.4855812174775, 960.2085900555361, 964.85775290224, 974.7372239514857, 984.4602327895443, 984.2814188339019, 986.628352001709, 987.8576979467509, 990.7857764703962, 991.0539974038599, 988.9976369139716, 988.7070642360526, 990.7187212370302, 992.4174538156336, 991.0539974038599, 989.24350610298, 990.9422386815833, 990.048168903371, 991.5904392707872, 991.2104596150471, 990.852831703762, 992.4398055600889, 994.920849194628, 992.2609916044464, 989.5117270364436, 991.0539974038599, 990.8975351926726, 991.9927706709827, 992.6633230046419, 993.5573927828542, 993.2668201049353, 993.0209509159268, 992.2386398599912, 996.2396021174911, 995.6361050171978, 993.7362067384967, 993.6020962717648, 992.8197852158291, 991.724549737519, 998.3183143518346, 1004.8003202438737, 1004.3309336103123, 1000.5534887973654, 1002.274573120424, 1004.5768027993206, 1002.274573120424, 1001.760482997952, 1004.8897272216949, 1007.4601778340552, 1001.9616486980497, 1001.7157795090413, 1000.4640818195442, 1001.4252068311223, 1004.4650440770441, 1004.9791341995161, 1002.4533870760664, 1002.0510556758709, 1005.5155760664435, 1004.1074161657592, 1005.1355964107033, 1003.5709742988319, 1001.8945934646838, 1002.498090564977, 1008.3765993567229, 1007.1472534116809, 1003.2804016209128, 1003.2356981320022, 1003.950953954572, 1005.8061487443625, 1005.6273347887201, 1005.113244666248, 1000.1958608860805, 1002.7663114984407, 1007.080198178315, 1006.9684394560385, 1005.6273347887201, 1004.0627126768486, 1003.6827330211083, 1003.2356981320022, 1000.8217097308291, 1001.6040207867647, 1000.8217097308291, 999.8605847192508, 1003.213346387547, 1003.7721399989296, 1000.8440614752843, 1003.3027533653682, 1005.8955557221838, 1005.0685411773374, 1004.6885615215972, 1002.1404626536921, 1003.3251051098234, 1002.3863318427005, 1004.8003202438737, 1004.6215062882312, 1002.4086835871558, 1003.9956574434826, 1002.1628143981475, 1002.6992562650748, 1003.8615469767508, 1003.5039190654659, 1001.2463928754798, 999.949991697072, 1003.3251051098234, 1002.5427940538876, 1001.2016893865692, 1001.2240411310246, 998.8771079632173, 1001.4252068311223, 1003.2356981320022, 1002.0957591647815, 1002.3863318427005, 1002.7216080095301, 1003.8168434878402, 1005.9626109555496, 1005.0908929217927, 1002.5204423094324, 1004.6662097771418, 1005.6943900220859, 1005.2473551329798, 1004.3532853547675, 1003.213346387547, 1004.4650440770441, 1004.6885615215972, 1003.1239394097257, 1003.6603812766531, 1003.0121806874491, 1001.9392969535944, 1003.9733056990274, 1004.3756370992229, 1002.498090564977, 1002.3863318427005, 1004.53209931041, 1006.4319975891111, 1007.0578464338597, 1007.3931226006894, 1005.0685411773374, 1007.3484191117788, 1010.0306284464156, 1010.500015079977, 1007.0131429449491, 1007.4601778340552, 1008.6448202901865, 1006.6555150336642, 1004.4426923325888, 1004.3532853547675, 1004.1744713991251, 1003.5486225543765, 1001.3805033422117, 1005.0014859439715, 1002.1404626536921, 1001.693427764586, 1004.8003202438737, 1005.4708725775329, 1004.3309336103123, 1003.8838987212062, 1004.4203405881335, 1004.2191748880357, 1005.2920586218904, 1006.3425906112899, 1003.8615469767508, 1004.9344307106055, 1005.4932243219882, 1006.4319975891111, 1006.5884598002982, 1004.7779684994184, 1005.1579481551586, 1005.0908929217927, 1005.1802998996139, 1006.1861284001027, 1008.9577447125608, 1005.4708725775329, 1004.5097475659547, 1006.2978871223793, 1007.1249016672257, 1005.8955557221838, 1005.1355964107033, 1005.2250033885246, 1007.2590121339575, 1005.4708725775329, 1004.8003202438737, 1005.3814655997116, 1005.113244666248, 1005.8508522332731, 1006.6331632892088, 1005.8285004888178, 1004.8897272216949, 1007.0578464338597, 1009.7177040240413, 1007.6836952786083, 1005.2697068774352, 1004.3756370992229, 1006.6555150336642, 1007.5942883007871, 1007.7060470230637, 1007.1472534116809, 1005.5155760664435, 1005.8955557221838, 1006.72257026703, 1007.9072127231614, 1006.0520179333708, 1006.7002185225748, 1005.8285004888178, 1007.1919569005915, 1006.9460877115831, 1006.4767010780217, 1006.9013842226725, 1009.3824278572116, 1008.3542476122675, 1008.53306156791, 1007.3484191117788, 1006.0967214222815, 1008.2648406344463, 1007.4825295785106, 1005.6720382776307, 1005.6049830442647, 1007.9295644676167, 1007.2366603895022, 1008.756579012463, 1006.9237359671279, 1006.3649423557451, 1007.1249016672257, 1008.0860266788038, 1007.1919569005915, 1006.208480144558, 1005.8955557221838, 1002.8333667318067, 1005.8955557221838, 1005.113244666248, 1005.5379278108989, 1002.9004219651725, 1004.3309336103123, 1003.7721399989296, 1002.498090564977, 1003.727436510019, 1002.6545527761642, 1001.8945934646838, 1003.727436510019, 1003.7944917433849, 1003.2356981320022, 1003.5709742988319, 999.8158812303402, 1001.2016893865692, 1003.5262708099212, 1002.6322010317089, 1000.4864335639994, 1000.5087853084548, 1003.5709742988319, 1004.8897272216949, 1005.7167417665413, 1002.8780702207173, 1000.7770062419185, 1000.7099510085525, 1003.3474568542788, 1005.9626109555496, 1004.8450237327843, 1002.5427940538876, 1001.112282408748, 1002.2969248648793, 1008.8012825013736, 1007.1472534116809, 1004.5097475659547, 1002.9227737096279, 1001.6040207867647], [-5559.750564068623, -5560.421116402283, -5561.091668735942, -5560.823447802478, -5558.7894390570455, -5554.788476799546, -5558.677680334768, -5560.979910013665, -5559.638805346347, -5558.364755912395, -5557.805962301012, -5560.9575582692105, -5565.562017627003, -5566.344328682939, -5560.666985591291, -5558.0294797455645, -5559.057659990509, -5562.812753059001, -5562.700994336724, -5560.57757861347, -5559.996433257632, -5562.410421658805, -5564.712651337702, -5562.835104803456, -5559.303529179518, -5561.33753792495, -5560.376412913372, -5565.67377634928, -5566.634901360858, -5562.723346081179, -5559.817619301989, -5560.979910013665, -5564.444430404238, -5565.159686226808, -5562.321014680983, -5559.348232668428, -5561.471648391682, -5565.740831582646, -5568.3559856839165, -5565.025575760076, -5561.114020480397, -5562.43277340326, -5564.198561215229, -5566.2996251940285, -5565.137334482352, -5563.215084459196, -5564.399726915327, -5566.43373566076, -5568.557151384014, -5564.511485637604, -5560.376412913372, -5564.846761804433, -5566.076107749475, -5567.2383984611515, -5565.114982737897, -5564.1315059818635, -5565.562017627003, -5567.2383984611515, -5569.518276395593, -5564.936168782255, -5561.158723969308, -5564.1315059818635, -5569.33946243995, -5568.95948278421, -5564.980872271165, -5563.997395515132, -5564.198561215229, -5566.4784391496705, -5565.29379669354, -5564.355023426417, -5563.595064114937, -5563.662119348302, -5566.344328682939, -5565.852590304922, -5565.114982737897, -5563.326843181472, -5561.538703625048, -5563.3044914370175, -5565.494962393637, -5561.873979791878, -5558.275348934573, -5561.158723969308, -5560.510523380104, -5560.734040824657, -5557.649500089825, -5550.988680242143, -5552.083915720453, -5558.677680334768, -5555.3249186664725, -5545.534854595048, -5537.778799269056, -5535.610680056891, -5531.944993966222, -5525.015953185076, -5517.058732158987, -5507.402778554294, -5499.847888928401, -5495.265781315063, -5489.007292867576, -5477.093813072898, -5468.957778091166, -5465.157981533764, -5461.492295443094, -5460.687632642703, -5455.479676184616, -5451.434010438205, -5453.311556972451, -5458.720679130635, -5464.152153033275, -5465.135629789309, -5465.157981533764, -5471.505876959071, -5479.9548363631775, -5488.157926578275, -5488.828478911934, -5494.505822003583, -5498.998522639099, -5505.346418064406, -5511.962534423177, -5512.633086756836, -5514.309467590984, -5520.9255839497555, -5527.809921241989, -5531.252089888107, -5530.112150920886, -5532.302621877507, -5533.599023055915, -5538.896386491822, -5540.282194648051, -5538.024668458065, -5536.4823980906485, -5539.410476614294, -5543.210273171696, -5545.736020295146, -5543.120866193875, -5541.913871993288, -5543.724363294168, -5549.535816852548, -5553.313261665495, -5548.082953462953, -5546.2277586731625, -5546.630090073359, -5548.798209285523, -5551.52512210907, -5551.435715131249, -5550.653404075313, -5551.972156998177, -5552.441543631738, -5554.117924465886, -5556.733078567157, -5554.542607610537, -5555.727250066669, -5557.180113456263, -5558.074183234476, -5555.123752966375, -5551.413363386794, -5553.536779110048, -5560.465819891193, -5560.689337335746, -5555.503732622115, -5554.788476799546, -5557.001299500621, -5557.448334389727, -5556.487209378149, -5555.615491344392, -5551.636880831347, -5555.123752966375, -5561.583407113959, -5560.711689080202, -5557.425982645272, -5556.531912867059, -5560.1975989577295, -5562.477476892171, -5559.616453601891, -5554.162627954796, -5555.883712277855, -5556.0848779779535, -5558.208293701207, -5558.744735568134, -5556.24134018914, -5551.256901175607, -5550.295776164028, -5553.827351787967, -5556.442505889238, -5554.252034932618, -5552.374488398372, -5556.554264611515, -5559.661157090803, -5558.05183149002, -5550.1616656972965, -5553.179151198763, -5555.906064022311, -5557.068354733987, -5557.180113456263, -5555.0343459885535, -5553.939110510244, -5556.733078567157, -5559.348232668428, -5557.403630900816, -5556.889540778344, -5555.906064022311, -5556.598968100425, -5560.0187850020875, -5563.595064114937, -5557.761258812101, -5553.872055276877, -5556.151933211319, -5559.571750112981, -5548.5746918409695, -5549.491113363638, -5546.920662751278, -5545.400744128317, -5546.9877179846435, -5550.005203486109, -5550.608700586403, -5548.552340096515, -5544.730191794657, -5545.780723784056, -5549.960499997199, -5550.608700586403, -5549.021726730076, -5546.0489447175205, -5548.19471218523, -5549.736982552646, -5549.915796508289, -5549.66992731928, -5547.8594360184, -5548.529988352059, -5551.368659897883, -5550.631052330858, -5548.9099680078, -5547.680622062758, -5550.876921519866, -5551.458066875704, -5551.413363386794, -5549.848741274923, -5548.082953462953, -5547.725325551668, -5551.234549431151, -5551.52512210907, -5549.960499997199, -5548.686450563247, -5550.116962208386, -5551.972156998177, -5553.67088957678, -5553.603834343414, -5549.200540685719, -5549.357002896906, -5551.078087219964, -5553.67088957678, -5550.899273264322, -5548.619395329881, -5548.753505796612, -5551.189845942241, -5553.939110510244, -5554.944939010732, -5549.401706385816, -5548.060601718498, -5552.843875031934, -5556.040174489042, -5553.134447709853, -5548.664098818791, -5550.04990697502, -5553.693241321235, -5554.453200632715, -5551.927453509266, -5549.960499997199, -5551.256901175607, -5552.776819798568, -5556.822485544978, -5554.676718077269, -5549.960499997199, -5549.692279063735, -5554.073220976976, -5555.011994244099, -5553.313261665495, -5550.228720930662, -5550.407534886305, -5553.4473721322265, -5555.459029133204, -5556.889540778344, -5552.106267464908, -5550.340479652939, -5554.76612505509, -5556.844837289434, -5553.872055276877, -5551.122790708875, -5551.256901175607, -5553.223854687674, -5554.475552377171, -5556.151933211319, -5553.559130854504, -5555.906064022311, -5560.376412913372, -5561.829276302967, -5562.186904214252, -5559.437639646249, -5559.996433257632, -5563.170380970286, -5565.629072860369, -5564.399726915327, -5562.477476892171, -5561.829276302967, -5565.986700771654, -5569.406517673317, -5566.1878664717515, -5563.505657137115, -5564.846761804433, -5567.14899148333, -5571.127601996374, -5570.479401407171, -5562.522180381082, -5562.924511781277, -5568.378337428372, -5569.67473860678, -5564.62324435988, -5561.382241413861, -5565.092630993442, -5569.67473860678, -5570.322939195984, -5570.099421751431, -5567.014881016598, -5567.171343227786, -5569.138296739852, -5570.188828729252, -5567.774840328078, -5566.05375600502, -5565.651424604825, -5569.183000228763, -5568.087764750453, -5567.573674627981, -5565.852590304922, -5565.71847983819, -5566.076107749475, -5568.132468239363, -5567.2383984611515, -5562.38806991435, -5562.097497236431, -5567.014881016598, -5570.144125240341, -5568.154819983819, -5568.311282195006, -5568.020709517087, -5570.38999442935, -5573.67570086428, -5570.926436296277, -5569.138296739852, -5568.087764750453, -5571.8205060744895, -5572.781631086067, -5572.535761897059, -5568.333633939461, -5568.3559856839165, -5571.395822929839, -5572.379299685872, -5571.708747352212, -5569.495924651137, -5569.495924651137, -5570.993491529643, -5571.596988629936, -5571.976968285677, -5570.367642684894, -5569.428869417771, -5571.395822929839, -5573.429831675271, -5572.155782241319, -5568.62420661738, -5569.026538017576, -5569.451221162227, -5574.145087497841, -5571.8205060744895, -5571.708747352212, -5573.2286659751735, -5575.888523565355, -5575.352081698427, -5571.954616541221, -5569.540628140048, -5570.099421751431, -5573.541590397548, -5574.994453787142, -5574.77093634259, -5571.440526418749, -5571.641692118847, -5574.860343320411, -5575.732061354168, -5576.000282287631, -5571.9993200301315, -5570.4123461738045, -5574.05568052002, -5574.502715409126, -5573.318072952995, -5570.948788040732, -5571.798154330034, -5573.563942142003, -5577.564904399504, -5575.977930543177, -5572.267540963596, -5571.552285141026, -5574.8156398315, -5578.347215455439, -5576.782593343568, -5570.479401407171, -5570.144125240341, -5574.905046809322, -5573.139258997352, -5570.8817328073665, -5571.239360718651, -5571.932264796766, -5573.541590397548, -5576.268503221096, -5575.48619216516, -5570.188828729252, -5570.300587451528, -5572.781631086067, -5573.385128186361, -5573.563942142003, -5569.1159449953975, -5566.746660083135, -5570.144125240341, -5573.3404246974505, -5571.686395607758, -5569.9429595402435, -5571.753450841124, -5574.189790986752, -5575.463840420704, -5573.698052608735, -5570.859381062911, -5572.044023519043, -5575.1062125094195, -5573.787459586556, -5573.67570086428, -5570.680567107269, -5567.685433350258, -5569.250055462129, -5573.67570086428, -5572.021671774587, -5569.518276395593, -5569.853552562422, -5571.418174674293, -5573.563942142003, -5572.714575852701, -5569.67473860678, -5569.026538017576, -5571.708747352212, -5574.480363664671, -5569.920607795788, -5567.037232761054, -5566.232569960663, -5569.205351973218, -5573.742756097646, -5572.9157415528, -5569.160648484308, -5568.534799639559, -5571.731099096668, -5574.010977031109, -5571.552285141026, -5564.064450748498, -5566.277273449573, -5572.267540963596, -5574.592122386947, -5570.144125240341, -5566.05375600502, -5563.617415859391, -5568.646558361836, -5573.206314230718, -5569.183000228763, -5565.539665882548, -5565.517314138093, -5568.847724061933, -5568.534799639559, -5568.847724061933, -5569.875904306878, -5567.059584505509, -5567.059584505509, -5569.071241506486, -5568.311282195006, -5561.069316991487, -5561.382241413861, -5564.980872271165, -5568.534799639559, -5566.120811238386, -5559.974081513176, -5554.989642499643, -5556.218988444685, -5559.437639646249, -5555.43667738875, -5550.228720930662, -5546.719497051179, -5550.474590119671, -5550.899273264322, -5547.971194740677, -5544.260805161096, -5543.612604571892, -5545.177226683763, -5548.015898229587, -5548.485284863149, -5545.020764472576, -5540.304546392506, -5543.769066783079, -5546.786552284545, -5545.601909828414, -5543.187921427241, -5541.265671404085, -5543.590252827436, -5544.618433072381, -5544.305508650006, -5541.489188848637, -5539.723401036668, -5542.42796211576, -5545.71366855069, -5542.651479560313, -5540.595119070425, -5539.678697547758, -5541.198616170718, -5543.925528994266, -5543.836122016445, -5539.343421380928, -5538.315241135984, -5541.735058037646, -5544.327860394462, -5543.657308060802, -5539.566938825481, -5537.465874846683, -5538.784627769545, -5542.070334204475, -5540.975098726166, -5540.036325459043, -5540.773933026067, -5541.042153959532, -5542.092685948931, -5542.159741182297, -5541.019802215076, -5541.645651059825, -5543.322031893973, -5545.847779017423, -5546.5183313510815, -5542.539720838037, -5543.14321793833, -5546.183055184252, -5546.317165650984, -5545.937185995243, -5542.7632382825905, -5542.830293515956, -5544.596081327925, -5548.820561029978, -5546.898311006822, -5544.216101672185, -5543.925528994266, -5547.702973807213, -5548.731154052157, -5545.221930172674, -5542.584424326948, -5543.47849410516, -5545.378392383861, -5546.898311006822, -5546.3395173954395, -5543.0538109605095, -5544.19374992773, -5544.707840050201, -5547.434752873749, -5545.870130761878, -5542.919700493777, -5543.031459216054, -5545.445447617227, -5546.943014495732, -5546.250110417618, -5542.092685948931, -5543.366735382883, -5546.563034839993, -5547.948842996221, -5546.853607517911, -5543.702011549713, -5543.657308060802, -5545.266633661585, -5549.178188941263, -5547.680622062758, -5543.612604571892, -5543.210273171696, -5545.557206339504, -5548.23941567414, -5548.015898229587, -5545.221930172674, -5544.9984127281205, -5544.886654005844, -5546.495979606626, -5547.904139507311, -5543.657308060802, -5541.153912681808, -5543.411438871794, -5547.121828451375, -5548.842912774434, -5542.740886538135, -5541.489188848637, -5544.551377839015, -5547.1665319402855, -5544.149046438819, -5541.422133615271, -5539.589290569937, -5543.47849410516, -5546.540683095537, -5544.126694694364, -5541.578595826459, -5539.432828358749, -5542.42796211576, -5544.976060983666, -5542.472665604671, -5539.410476614294, -5538.561110324992, -5541.757409782102, -5544.216101672185, -5542.42796211576, -5539.410476614294, -5541.511540593093, -5543.299680149517, -5543.8808255053555, -5543.322031893973, -5538.225834158163, -5536.504749835104, -5539.164607425286, -5542.584424326948, -5542.360906882394, -5539.589290569937, -5538.1811306692525, -5540.349249881417, -5542.316203393484, -5540.930395237255, -5536.057714945998, -5533.353153866906, -5537.264709146584, -5541.131560937352, -5540.840988259433, -5538.04702020252, -5536.4823980906485, -5541.243319659629, -5545.154874939308, -5543.545549338526, -5538.784627769545, -5538.158778924797, -5542.718534793679, -5544.618433072381, -5542.450313860216, -5539.455180103205, -5539.902214992311, -5540.461008603694, -5542.562072582492, -5542.472665604671, -5539.388124869839, -5540.550415581514, -5541.913871993288, -5543.925528994266, -5544.618433072381, -5542.651479560313, -5539.991621970132, -5540.729229537157, -5543.165569682786, -5544.327860394462, -5541.802113271012, -5538.941089980733, -5541.243319659629, -5544.104342949909, -5543.433790616249, -5538.985793469643, -5537.28706089104, -5537.28706089104, -5542.562072582492, -5544.037287716543, -5540.617470814881, -5540.013973714587, -5542.092685948931, -5542.919700493777, -5541.466837104183, -5540.595119070425, -5539.254014403107, -5541.28802314854, -5542.919700493777, -5543.523197594071, -5540.2374911591405, -5539.924566736766, -5542.807941771501, -5541.8244650154675, -5540.505712092604, -5541.958575482199, -5540.170435925775, -5541.3550783819055, -5544.372563883372, -5544.461970861194, -5541.243319659629, -5540.371601625872, -5542.539720838037, -5544.283156905551, -5543.165569682786, -5539.254014403107, -5539.656345803302, -5541.62329931537, -5543.702011549713, -5543.389087127339, -5539.656345803302, -5537.108246935398, -5540.282194648051, -5543.433790616249, -5541.802113271012, -5538.270537647073, -5539.030496958554, -5542.651479560313, -5541.66800280428, -5540.975098726166, -5539.745752781124, -5539.09755219192, -5540.259842903596, -5541.62329931537, -5541.71270629319, -5538.449351602716, -5537.28706089104, -5539.633994058847, -5543.120866193875, -5540.8856917483445, -5539.119903936375, -5536.61650855738, -5540.058677203498, -5545.132523194853, -5544.260805161096, -5539.924566736766, -5538.874034747367, -5540.840988259433, -5544.618433072381, -5542.38325862685, -5538.1811306692525, -5536.750619024113, -5539.633994058847, -5542.830293515956, -5543.187921427241, -5540.930395237255, -5540.930395237255, -5541.3550783819055, -5544.551377839015, -5544.484322605649, -5540.013973714587, -5540.52806383706, -5539.8575115034, -5543.14321793833, -5545.400744128317, -5541.779761526556, -5540.52806383706, -5540.840988259433, -5547.032421473554, -5547.032421473554, -5541.422133615271, -5538.1811306692525, -5540.2374911591405, -5541.980927226655]]
[[1002.4757388205218, 1002.3863318427005, 1003.950953954572, 1002.5204423094324, 1004.7332650105078, 1008.1083784232592, 1009.0695034348373, 1004.2415266324911, 1002.0957591647815, 1003.5262708099212, 1002.7216080095301, 1005.0014859439715, 1005.8285004888178, 1005.2250033885246, 1007.3260673673234, 1008.175433656625, 1005.9626109555496, 1005.1355964107033, 1007.3260673673234, 1007.1919569005915, 1010.5447185688876, 1010.72353252453, 1008.1977854010804, 1008.4883580789993, 1011.6176023027424, 1008.7118755235524, 1009.985924957505, 1011.1705674136363, 1007.9072127231614, 1008.3095441233569, 1012.4446168475887, 1012.1540441696698, 1008.018971445438, 1008.1530819121698, 1006.9907912004937, 1010.0306284464156, 1007.9072127231614, 1005.7837969999072, 1007.6836952786083, 1007.9742679565273, 1008.4213028456335, 1007.370770856234, 1005.8061487443625, 1004.4650440770441, 1003.3251051098234, 1005.5379278108989, 1004.7556167549631, 1001.9616486980497, 1001.4922620644883, 1001.8945934646838, 1002.6992562650748, 1001.5369655533989, 1005.0238376884267, 1002.4533870760664, 1000.7546544974631, 1002.0063521869603, 1004.0627126768486, 1003.5486225543765, 1002.6769045206195, 1004.4650440770441, 1006.2531836334687, 1006.8343289893066, 1005.113244666248, 1004.6662097771418, 1004.5544510548654, 1006.2308318890133, 1003.8838987212062, 1001.5593172978541, 999.726474252519, 1001.6040207867647, 1007.5272330674212, 1004.2415266324911, 1000.3523230972676, 1000.5087853084548, 1003.1909946430916, 1002.1851661426027, 1002.3863318427005, 1000.8664132197397, 1000.9334684531055, 1003.6603812766531, 1008.1530819121698, 1007.8848609787061, 998.6982940075749, 998.9888666854938, 999.4359015746, 1000.2852678639017, 1002.4757388205218, 1005.5602795553541, 1005.2250033885246, 1003.7721399989296, 1005.3591138552564, 1004.4873958214994, 1001.4252068311223, 999.7711777414296, 1002.0957591647815, 1002.8333667318067, 1004.0627126768486, 1004.5768027993206, 1004.2862301214017, 1001.6040207867647, 1003.3474568542788, 1005.5155760664435, 1004.2415266324911, 1002.0063521869603, 1002.3416283537899, 1003.9062504656614, 1005.6496865331753, 1005.2473551329798, 1004.8673754772396, 1007.4825295785106, 1007.4601778340552, 1003.1686428986363, 1003.727436510019, 1005.7390935109966, 1005.2697068774352, 1003.7497882544743, 1005.0014859439715, 1003.079235920815, 1001.179337642114, 1004.7332650105078, 1005.2697068774352, 1004.7332650105078, 1003.950953954572, 1001.2910963643905, 1004.822671988329, 1005.6720382776307, 1006.2531836334687, 1003.079235920815, 1004.2415266324911, 1005.7390935109966, 1006.208480144558, 1003.1686428986363, 1003.727436510019, 1003.3251051098234, 1003.6156777877425, 1006.1414249111921, 1007.7060470230637, 1005.7837969999072, 1004.2191748880357, 1005.336762110801, 1008.53306156791, 1005.7390935109966, 1004.8673754772396, 1006.3649423557451, 1006.0743696778262, 1004.8673754772396, 1005.4485208330776, 1004.8003202438737, 1003.6827330211083, 1005.113244666248, 1006.7002185225748, 1006.5884598002982, 1004.9791341995161, 1002.1628143981475, 1003.950953954572, 1005.5826312998095, 1003.9062504656614, 1000.307619608357, 1004.2415266324911, 1012.7128377810524, 1012.176395914125, 1011.2152709025469, 1006.7449220114854, 1005.336762110801, 1009.0024482014715, 1008.4883580789993, 1005.3144103663458, 1006.3202388668345, 1005.8508522332731, 1007.0131429449491, 1009.6730005351307, 1008.5777650568206, 1005.7390935109966, 1002.274573120424, 1007.0354946894043, 1009.2706691349351, 1007.4154743451446, 1007.1249016672257, 1004.8003202438737, 1002.7886632428961, 1002.7663114984407, 1003.9062504656614, 1001.6040207867647, 998.8771079632173, 1001.0899306642928, 1002.1628143981475, 1002.6098492872536, 1003.9062504656614, 1005.1355964107033, 1003.727436510019, 1003.369808598734, 1005.6273347887201, 1004.3756370992229, 1001.6710760201307, 1003.3921603431894, 1004.2862301214017, 1003.950953954572, 1004.9567824550609, 1005.2473551329798, 1006.2978871223793, 1006.8566807337619, 1005.403817344167, 1003.1686428986363, 1005.5155760664435, 1007.7954540008849, 1006.6555150336642, 1008.6671720346418, 1005.8061487443625, 1004.8003202438737, 1006.0296661889156, 1007.080198178315, 1006.6331632892088, 1006.4096458446558, 1006.8566807337619, 1007.080198178315, 1006.72257026703, 1003.7944917433849, 1002.9227737096279, 1004.9567824550609, 1006.7449220114854, 1008.756579012463, 1009.4718348350328, 1007.6836952786083, 1004.6215062882312, 1008.5107098234547, 1010.2317941465133, 1007.1472534116809, 1005.9402592110944, 1006.0073144444602, 1008.5777650568206, 1009.7624075129519, 1009.3600761127564, 1005.2697068774352, 1005.0685411773374, 1007.4825295785106, 1007.7507505119743, 1007.5272330674212, 1008.1307301677144, 1006.4767010780217, 1008.2648406344463, 1009.3153726238457, 1009.6730005351307, 1007.4154743451446, 1004.6662097771418, 1007.1025499227703, 1010.4776633355217, 1009.1142069237479, 1008.242488889991, 1009.0247999459267, 1007.2590121339575, 1010.3212011243345, 1009.1589104126585, 1009.0695034348373, 1005.4708725775329, 1008.4436545900887, 1011.4387883471, 1010.72353252453, 1009.985924957505, 1008.9800964570161, 1010.9917534579937, 1011.2152709025469, 1007.7507505119743, 1006.4319975891111, 1002.9451254540832, 1001.8275382313178, 1002.498090564977, 1003.7944917433849, 1005.5826312998095, 1004.6662097771418, 1005.7614452554519, 1007.5942883007871, 1005.8061487443625, 1003.3474568542788, 1003.8838987212062, 1003.7721399989296, 1004.9567824550609, 1005.8285004888178, 1003.9956574434826, 1002.5427940538876, 1001.8275382313178, 1003.5486225543765, 1005.4708725775329, 1004.53209931041, 1001.1569858976586, 1004.6662097771418, 1005.6273347887201, 1002.7663114984407, 1007.5272330674212, 1007.9742679565273, 1005.8955557221838, 1008.3318958678122, 1004.0627126768486, 1004.0627126768486, 1004.9567824550609, 1004.3532853547675, 1003.4368638321, 1006.0967214222815, 1008.6448202901865, 1007.5942883007871, 1004.8897272216949, 1006.4767010780217, 1007.6836952786083, 1007.5495848118765, 1005.9626109555496, 1004.7332650105078, 1004.8003202438737, 1006.5884598002982, 1006.2308318890133, 1006.9684394560385, 1006.0743696778262, 1002.4086835871558, 1004.53209931041, 1004.9567824550609, 1005.4708725775329, 1002.2298696315133, 1003.8391952322955, 1004.4650440770441, 1005.5602795553541, 1005.6720382776307, 1000.3746748417229, 1002.8557184762619, 1004.4426923325888, 1003.1015876652704, 1000.8440614752843, 1002.8557184762619, 1005.2473551329798, 1002.0510556758709, 1000.7770062419185, 1001.7157795090413, 1005.3814655997116, 1004.9567824550609, 1006.2978871223793, 1008.823634245829, 1002.6769045206195, 1000.3299713528123, 997.8936312071838, 1000.3970265861782, 1003.6380295321977, 1001.2240411310246, 999.4359015746, 998.8100527298513, 999.793529485885, 1000.0841021638039, 998.8994597076726, 998.6088870297536, 999.2794393634128, 1002.1628143981475, 1002.1404626536921, 997.8936312071838, 999.3464945967788, 1000.1958608860805, 1000.4417300750888, 998.9665149410386, 999.8829364637062, 998.2512591184687, 996.1054916507593, 999.5253085524213, 1001.2240411310246, 998.6535905186643, 998.7653492409407, 1000.2405643749911, 999.949991697072, 1001.0452271753821, 997.2901341068905, 997.9830381850051, 997.2230788735246, 996.0607881618487, 997.8489277182732, 996.954857940061, 995.1667183836364, 994.7196834945302, 996.6866370065973, 997.6477620181754, 998.3183143518346, 996.4631195620442, 996.5078230509548, 996.6195817732313, 994.3844073277006, 996.3960643286782, 994.9655526835386, 998.2065556295581, 1003.2356981320022, 1001.8275382313178, 1001.760482997952, 999.9723434415274, 1001.1346341532034, 1001.5816690423095, 999.3688463412341, 998.1618521406475, 997.9606864405497, 999.078273663315, 1000.4864335639994, 1000.53113705291, 996.4407678175888, 996.9995614289716, 996.9772096845162, 999.078273663315, 999.5700120413319, 999.145328896681, 997.0219131734268, 995.2561253614576, 998.0947969072815, 1000.4864335639994, 998.9665149410386, 997.5807067848095, 999.5253085524213, 1000.8664132197397, 999.793529485885, 997.9383346960944, 998.6535905186643, 1002.5427940538876, 999.1006254077704, 1000.7099510085525, 1000.3523230972676, 999.1229771522258, 995.9490294395721, 1002.9451254540832, 1053.8400475788173, 1089.558135218398, 1027.8449687772952, 1000.6428957751866, 1016.1326546827144, 1076.59412343432, 1094.7660916764846, 1049.2802917099348, 1003.0121806874491, 1024.8721867647394, 1090.4522049966104, 1100.3763795347668, 1074.4483559666105, 1014.1880529151026, 1042.5077131399767, 1095.3472370323227, 1097.8282806668617, 1077.3764344902556, 1015.015067459949, 1047.11217249777, 1093.983780620549, 1097.4930045000322, 1097.716521944585, 1098.9458678896272, 1100.4434347681326, 1100.5328417459539, 1099.2140888230908, 1087.3900160062333, 1026.4144571321556, 1047.6709661091527, 1097.716521944585, 1098.878812656261, 1097.783577177951, 1097.9400393891383, 1095.4813474990544, 1097.202431822113, 1097.7388736890405, 1087.3229607728674, 1026.6826780656193, 1049.593216132309, 1093.983780620549, 1096.4201207661774, 1097.6718184556746, 1098.1188533447807, 1096.8671556552836, 1096.755396933007, 1097.6718184556746, 1086.1830218056466, 1023.2181576750468, 1047.916835298161, 1096.9342108886494, 1099.16938533418, 1098.6776469561635, 1101.9186499021828, 1100.5104900014985, 1098.6776469561635, 1099.1246818452696, 1089.4910799850322, 1029.655460078175, 1047.760373086974, 1096.1295480882584, 1101.0022283795154, 1101.784539435451, 1099.9963998790265, 1100.2199173235795, 1101.2480975685237, 1100.7116557015963, 1086.205373550102, 1024.1345791977144, 1044.1840939741248, 1095.5484027324203, 1097.6941702001297, 1100.2199173235795, 1103.595030736331, 1102.8574231693058, 1103.6844377141522, 1102.3433330468338, 1093.045007353426, 1034.3269746693343, 1046.4192684196555, 1099.527013245465, 1100.5104900014985, 1095.0566643544037, 1040.429000905633, 1051.9625010445716, 1103.5503272474202, 1102.656257469208, 1101.628077224264, 1102.2539260690126, 1102.6786092136633, 1103.4385685251439, 1101.3822080352554, 1090.6757224411635, 1029.0743147223372, 1042.753582328985, 1099.1246818452696, 1102.1198156022806, 1093.4026352647109, 1039.624338105242, 1045.5699021303537, 1096.3083620439008, 1098.2753155559678, 1098.878812656261, 1098.6999987006186, 1100.465786512588, 1100.2869725569456, 1096.9565626331048, 1096.3307137883562, 1061.7972686049068, 1048.3862219317225, 1095.6378097102415, 1099.7952341789287, 1096.6659899551858, 1097.6494667112192, 1099.4376062676438, 1101.136338846247, 1097.403597522211, 1088.172327062169, 1029.5884048448092, 1039.601986360787, 1088.7311206735517, 1096.59893472182, 1090.6757224411635, 1034.1705124581472, 1042.5971201177979, 1094.6766846986634, 1095.0343126099483, 1093.2685247979791, 1093.492042242532, 1092.039178852937, 1093.8049666649065, 1093.2461730535238, 1084.5066409714987, 1027.241471677002, 1038.7749718159405, 1093.8049666649065, 1095.7495684325181, 1091.7486061750183, 1095.2131265655908, 1096.97891437756, 1096.755396933007, 1096.6659899551858, 1089.6028387073086, 1037.5232741264433, 1037.1879979596135, 1093.5367457314428, 1096.8224521663728, 1096.0624928548925, 1095.4813474990544, 1095.3919405212332, 1097.403597522211, 1097.6047632223085, 1091.726254430563, 1032.628242090731, 1038.4843991380214, 1093.1567660757025, 1095.88367889925, 1092.6426759532305, 1044.4746666520437, 1039.9596142720718, 1092.754434675507, 1097.7612254334958, 1096.107196343803, 1095.1684230766803, 1097.6941702001297, 1096.5542312329092, 1097.0012661220153, 1093.3579317758004, 1046.1510474861918, 1040.6525183501863, 1095.1013678433142, 1097.0236178664707, 1096.8448039108282, 1096.4201207661774, 1096.0401411104372, 1097.269487055479, 1096.8895073997387, 1094.4755189985656, 1096.6659899551858, 1096.911859144194, 1097.3812457777556, 1097.9623911335934, 1089.4687282405769, 1028.0684862218484, 1035.019878747449, 1089.7369491740405, 1096.107196343803, 1095.5260509879652, 1096.5542312329092, 1099.88464115675, 1098.0070946225042, 1095.5260509879652, 1091.9050683862054, 1036.852721792784, 1032.0694484793482, 1091.3015712859121, 1098.1188533447807, 1095.1013678433142, 1096.1966033216243, 1097.7612254334958, 1099.683475456652, 1100.041103367937, 1094.6096294652975, 1038.7079165825744, 1037.366811915256, 1090.3851497632445, 1094.5202224874763, 1092.240344553035, 1045.592253874809, 1035.8468932922951, 1092.8438416533281, 1097.6271149667639, 1097.3812457777556, 1096.0177893659818, 1098.655295211708, 1099.9069929012053, 1098.3870742782444, 1097.9400393891383, 1052.2307219780353, 1043.2676724514572, 1095.302533543412, 1098.4988330005208, 1095.9730858770713, 1098.878812656261, 1100.8681179127834, 1100.7116557015963, 1100.9128214016941, 1095.7719201769735, 1039.5349311274208, 1032.2259106905356, 1092.6203242087752, 1098.3200190448783, 1099.4599580120992, 1098.208260322602, 1098.1635568336912, 1100.2422690680348, 1100.4434347681326, 1092.821489908873, 1034.4163816471555, 1031.1530269566808, 1092.5756207198644, 1101.1139871017917, 1098.8117574228952, 1099.3481992898226, 1098.856460911806, 1101.1139871017917, 1097.3812457777556, 1095.9954376215264, 1044.9664050300605, 1030.5495298563874, 1092.173289319669, 1099.3929027787333, 1096.5318794884538, 1096.59893472182, 1099.4599580120992, 1099.4599580120992, 1098.2753155559678, 1097.6494667112192, 1062.4901726830212, 1036.986832259516, 1091.9274201306607, 1099.8622894122946, 1095.660161454697, 1068.9274750861496, 1040.8089805613733, 1093.6038009648087, 1099.4823097565545, 1097.6047632223085, 1096.5542312329092, 1099.8399376678394, 1097.0683213553812, 1094.3190567873785, 1096.4201207661774, 1052.5436464004097, 1030.527178111932, 1088.5299549734539, 1096.5095277439987, 1096.4871759995433, 1052.633053378231, 1034.6846025806192, 1092.0838823418478, 1095.816623665884, 1096.7106934440963, 1101.628077224264, 1100.1305103457582, 1099.9963998790265, 1098.6105917227974, 1091.9721236195712, 1040.4737043945438, 1028.4708176220438, 1090.07222534087, 1100.8010626794176, 1099.9516963901158, 1099.303495800912, 1099.3258475453672, 1099.88464115675, 1099.236440567546, 1092.7991381644176, 1037.3891636597114, 1029.0519629778819, 1088.5746584623646, 1097.560059733398, 1094.3190567873785, 1094.5425742319314, 1098.9235161451718, 1098.4988330005208, 1098.0517981114147, 1097.0012661220153, 1044.8993497966947, 1028.2696519219462, 1090.8098329078953, 1100.823414423873, 1099.5493649899204, 1072.3472919878116, 1038.5738061158427, 1091.525088730465, 1099.236440567546, 1096.2189550660796, 1099.5493649899204, 1100.2869725569456, 1096.6436382107304, 1094.9672573765824, 1094.5425742319314, 1050.2637684659683, 1029.7672188004517, 1091.234516052546, 1098.1635568336912, 1096.6883416996411, 1096.5765829773645, 1099.3929027787333, 1097.3588940333002, 1098.4541295116103, 1095.458995754599], [-5521.864357216878, -5517.1704908812635, -5516.9022699478, -5519.539775793526, -5520.18797638273, -5521.484377561138, -5517.550470537004, -5518.131615892842, -5517.66222925928, -5519.539775793526, -5521.797301983512, -5520.9255839497555, -5518.466892059671, -5518.1092641483865, -5521.596136283414, -5524.278345618051, -5522.601964783903, -5518.310429848484, -5516.678752503247, -5518.846871715412, -5522.0431711725205, -5521.037342672032, -5520.076217660453, -5517.908098448289, -5519.115092648875, -5522.803130484001, -5523.786607240035, -5517.326953092451, -5513.4153978127715, -5518.779816482046, -5522.289040361529, -5518.846871715412, -5513.527156535049, -5516.634049014336, -5521.2161566276745, -5520.791473483023, -5519.09274090442, -5518.176319381752, -5516.477586803149, -5518.958630437688, -5524.166586895774, -5519.80799672699, -5516.835214714434, -5518.846871715412, -5521.126749649853, -5524.323049106962, -5521.730246750146, -5518.131615892842, -5516.745807736613, -5518.891575204322, -5523.563089795482, -5525.0383049295315, -5523.719552006669, -5519.852700215901, -5522.691371761724, -5526.133540407842, -5523.563089795482, -5518.936278693232, -5518.958630437688, -5521.931412450244, -5525.485339818638, -5522.154929894797, -5520.411493827283, -5519.405665326794, -5520.992639183121, -5523.1607583952855, -5520.143272893819, -5518.1092641483865, -5518.958630437688, -5520.702066505202, -5523.987772940132, -5521.99846768361, -5518.735112993135, -5519.249203115607, -5524.010124684587, -5522.244336872618, -5519.562127537982, -5518.086912403931, -5516.94697343671, -5522.37844733935, -5526.178243896752, -5525.395932840816, -5520.9255839497555, -5518.891575204322, -5521.082046160942, -5523.9207177067665, -5522.601964783903, -5520.635011271836, -5520.411493827283, -5523.339572350928, -5524.9041944628, -5520.9032322053, -5518.355133337394, -5520.769121738568, -5523.697200262213, -5524.993601440621, -5521.28321186104, -5519.47272056016, -5519.47272056016, -5520.143272893819, -5525.060656673987, -5524.613621784881, -5520.344438593917, -5518.645706015313, -5521.774950239057, -5525.172415396263, -5522.110226405886, -5520.366790338372, -5520.18797638273, -5520.098569404909, -5520.255031616096, -5521.439674072227, -5519.137444393331, -5517.349304836906, -5519.606831026892, -5520.836176971934, -5521.864357216878, -5518.176319381752, -5517.885746703833, -5520.031514171543, -5522.356095594895, -5521.931412450244, -5515.739979236124, -5516.321124591962, -5519.718589749168, -5519.003333926598, -5517.841043214923, -5517.28224960354, -5516.969325181166, -5521.149101394308, -5523.317220606473, -5519.249203115607, -5515.1141303913755, -5516.0529036584985, -5518.802168226501, -5518.668057759769, -5521.3949705833165, -5520.009162427087, -5517.237546114629, -5519.003333926598, -5521.3949705833165, -5520.076217660453, -5516.94697343671, -5516.164662380775, -5518.444540315216, -5519.919755449267, -5520.4561973161935, -5516.790511225523, -5514.957668180188, -5518.869223459867, -5520.858528716389, -5518.891575204322, -5517.058732158987, -5516.410531569783, -5519.5174240490705, -5521.2161566276745, -5517.572822281459, -5511.984886167632, -5515.784682725034, -5516.812862969979, -5515.7623309805795, -5512.2978105900065, -5507.559240765481, -5503.46887153016, -5500.741958706612, -5499.847888928401, -5496.1598510932745, -5489.119051589853, -5481.295941030496, -5475.596246194393, -5470.790621136502, -5463.235731510607, -5451.948100560678, -5444.549673145971, -5442.672126611725, -5444.616728379337, -5442.64977486727, -5441.509835900049, -5440.682821355203, -5444.12499000132, -5451.74693486058, -5455.323213973429, -5455.613786651348, -5458.7653826195465, -5465.180333278219, -5470.187124036208, -5471.595283936892, -5472.534057204015, -5474.9703973496435, -5480.759499163568, -5483.75463292058, -5484.626350954336, -5483.352301520384, -5484.916923632255, -5486.280380044029, -5489.9907696236105, -5492.85179291389, -5491.242467313107, -5492.091833602409, -5497.053920871487, -5498.931467405733, -5499.512612761571, -5497.635066227325, -5495.891630159811, -5499.9149441617665, -5502.194822096208, -5500.943124406711, -5498.730301705636, -5497.679769716236, -5503.46887153016, -5508.162737865775, -5507.201612854196, -5505.122900619853, -5506.396950053805, -5508.118034376864, -5510.688484989225, -5509.079159388442, -5505.055845386487, -5505.167604108764, -5510.956705922688, -5511.403740811795, -5509.503842533093, -5505.435825042227, -5507.201612854196, -5508.252144843596, -5509.727359977646, -5510.599078011403, -5508.5427175215145, -5506.151080864797, -5508.140386121319, -5509.459139044183, -5508.341551821417, -5506.620467498358, -5508.207441354685, -5511.13551987833, -5512.923659434755, -5512.633086756836, -5507.447482043205, -5508.341551821417, -5509.928525677744, -5512.074293145453, -5511.291982089518, -5507.291019832018, -5509.347380321906, -5511.76136872308, -5514.622392013359, -5514.845909457911, -5511.8507757009, -5509.66030474428, -5512.655438501291, -5513.974191424155, -5513.549508279504, -5509.794415211012, -5509.392083810817, -5511.739016978624, -5513.370694323861, -5513.191880368219, -5508.721531477157, -5506.978095409643, -5509.973229166655, -5512.163700123275, -5511.202575111696, -5509.436787299727, -5509.257973344085, -5511.560203022981, -5514.555336779993, -5516.209365869685, -5511.582554767437, -5511.783720467534, -5514.443578057716, -5514.197708868708, -5515.382351324839, -5512.655438501291, -5513.325990834951, -5515.874089702856, -5516.455235058694, -5514.734150735635, -5512.409569312283, -5513.102473390398, -5513.750673979602, -5624.056532866542, -5632.5725475040135, -5635.366515560927, -5635.522977772114, -5642.362611575439, -5648.822265723022, -5652.465600069238, -5657.137114660396, -5657.919425716332, -5657.450039082771, -5659.171123405829, -5660.623986795425, -5661.138076917896, -5660.825152495522, -5658.791143750089, -5659.171123405829, -5662.16625716284, -5660.892207728888, -5656.1089344154525, -5655.147809403874, -5658.187646649796, -5663.462658341248, -5662.680347285313, -5659.484047828204, -5657.986480949698, -5657.74061176069, -5659.908730972855, -5662.970919963232, -5661.875684484921, -5657.874722227421, -5658.701736772267, -5663.797934508078, -5664.580245564013, -5660.892207728888, -5658.321757116528, -5660.154600161863, -5663.3285478745165, -5663.395603107882, -5660.735745517701, -5659.439344339293, -5660.936911217798, -5661.898036229377, -5662.456829840759, -5663.082678685508, -5661.562760062548, -5662.054498440564, -5664.222617652728, -5664.714356030746, -5661.003966451164, -5658.835847239, -5659.21582689474, -5664.356728119461, -5662.50153332967, -5659.238178639195, -5659.886379228399, -5662.702699029768, -5664.200265908274, -5662.345071118483, -5657.807666994056, -5657.852370482966, -5662.0992019294745, -5664.200265908274, -5661.607463551458, -5659.439344339293, -5660.3334141175055, -5659.461696083748, -5664.401431608371, -5664.580245564013, -5658.992309450186, -5658.6346815389015, -5661.115725173441, -5661.74157401819, -5661.696870529279, -5659.171123405829, -5657.3382803604945, -5658.366460605438, -5661.674518784824, -5662.523885074125, -5658.612329794447, -5657.874722227421, -5659.662861783846, -5661.4510013402705, -5660.892207728888, -5658.478219327715, -5657.427687338315, -5659.59580655048, -5662.859161240955, -5662.546236818581, -5661.003966451164, -5658.6346815389015, -5661.048669940075, -5665.675481042324, -5664.133210674908, -5658.657033283357, -5657.293576871583, -5660.176951906318, -5662.009794951653, -5661.4510013402705, -5660.646338539879, -5658.768792005634, -5659.953434461765, -5662.92621647432, -5662.859161240955, -5659.55110306157, -5657.74061176069, -5659.819323995033, -5661.585111807002, -5661.540408318092, -5657.539446060592, -5655.036050681598, -5660.445172839782, -5663.708527530257, -5663.663824041346, -5658.858198983455, -5658.411164094349, -5662.12155367393, -5664.647300797379, -5664.69200428629, -5660.26635888414, -5657.427687338315, -5658.902902472366, -5662.210960651751, -5660.758097262156, -5656.466562326737, -5658.679385027813, -5660.154600161863, -5662.680347285313, -5664.088507185997, -5658.388812349894, -5656.690079771291, -5659.238178639195, -5661.1604286623515, -5664.133210674908, -5659.372289105927, -5656.600672793469, -5657.874722227421, -5661.965091462743, -5661.987443207198, -5657.315928616039, -5655.818361737533, -5659.5734548060245, -5662.345071118483, -5662.143905418385, -5658.1652949053405, -5655.371326848427, -5656.801838493567, -5658.701736772267, -5659.774620506122, -5656.243044882184, -5652.800876236067, -5653.672594269824, -5659.327585617017, -5659.819323995033, -5655.3489751039715, -5653.136152402896, -5654.633719281402, -5659.484047828204, -5660.445172839782, -5657.3382803604945, -5654.745478003679, -5656.019527437631, -5658.701736772267, -5659.059364683552, -5654.745478003679, -5652.331489602505, -5656.712431515745, -5660.467524584237, -5660.556931562059, -5655.259568126151, -5653.2926146140835, -5655.259568126151, -5657.092411171486, -5657.718260016234, -5655.371326848427, -5653.583187292003, -5654.723126259223, -5657.427687338315, -5660.176951906318, -5656.935948960298, -5653.985518692198, -5655.6395477818905, -5658.925254216821, -5661.294539129083, -5657.137114660396, -5653.918463458832, -5655.952472204265, -5659.1040681724635, -5661.719222273734, -5657.964129205243, -5656.377155348916, -5657.762963505145, -5659.372289105927, -5660.825152495522, -5658.612329794447, -5653.337318102994, -5655.103105914964, -5659.953434461765, -5659.953434461765, -5656.935948960298, -5655.818361737533, -5656.220693137729, -5658.187646649796, -5659.953434461765, -5657.807666994056, -5655.237216381695, -5656.019527437631, -5658.433515838804, -5659.55110306157, -5657.673556527324, -5654.521960559126, -5654.320794859028, -5656.757135004656, -5659.819323995033, -5657.159466404852, -5654.1196291589295, -5656.2877483710945, -5660.69104202879, -5660.3334141175055, -5655.147809403874, -5654.566664048036, -5659.64051003939, -5661.2721873846285, -5659.484047828204, -5657.919425716332, -5654.678422770313, -5654.946643703776, -5659.59580655048, -5659.975786206221, -5655.706603015256, -5653.359669847449, -5656.824190238022, -5660.892207728888, -5661.987443207198, -5657.159466404852, -5654.924291959321, -5658.902902472366, -5659.975786206221, -5660.445172839782, -5658.321757116528, -5654.7007745147675, -5657.0477076825755, -5659.886379228399, -5659.260530383651, -5657.271225127128, -5656.153637904363, -5656.243044882184, -5659.528751317114, -5660.847504239978, -5658.142943160885, -5656.243044882184, -5656.421858837826, -5659.439344339293, -5661.115725173441, -5657.159466404852, -5653.0020419361645, -5649.314004101039, -5647.905844200354, -5649.492818056681, -5643.0778673980085, -5634.003059149153, -5627.275184068106, -5623.1848148327845, -5615.406407762338, -5604.677570423791, -5596.854459864433, -5592.160593528819, -5591.400634217338, -5591.467689450704, -5588.025520804586, -5581.588218401458, -5583.108137024419, -5589.210163260718, -5592.942904584755, -5588.58431441597, -5588.6066661604245, -5594.284009252073, -5597.2344395201735, -5597.100329053442, -5593.792270874056, -5591.668855150802, -5593.836974362966, -5598.799061632045, -5597.972047087199, -5594.909858096821, -5592.2500005066395, -5594.105195296431, -5599.804890132534, -5602.3976924893495, -5597.614419175914, -5594.708692396724, -5595.133375541374, -5600.006055832631, -5601.771843644601, -5598.866116865411, -5594.798099374545, -5595.803927875034, -5602.1071198114305, -5601.660084922324, -5597.927343598288, -5596.273314508595, -5596.2956662530505, -5599.7601866436235, -5598.8214133765005, -5592.3617592289165, -5590.43950920576, -5593.68051215178, -5594.954561585732, -5592.5405731845585, -5588.1372795268635, -5584.046910291542, -5582.683453879768, -5584.896276580844, -5584.717462625202, -5584.024558547087, -5583.733985869168, -5585.723291125691, -5588.1372795268635, -5587.980817315676, -5587.0196923040985, -5586.304436481529, -5587.310264982017, -5591.713558639713, -5590.1936400167515, -5584.404538202827, -5581.498811423638, -5585.9691603146985, -5591.579448172981, -5589.858363849922, -5587.310264982017, -5584.985683558665, -5586.684416137268, -5589.277218494084, -5588.58431441597, -5587.511430682115, -5584.046910291542, -5583.175192257785, -5586.863230092911, -5590.215991761207, -5587.712596382213, -5584.3821864583715, -5585.164497514307, -5588.159631271319, -5590.8194888615, -5588.919590582799, -5585.365663214406, -5587.556134171025, -5590.238343505663, -5590.998302817143, -5588.4278522047825, -5583.421061446794, -5585.075090536487, -5588.561962671514, -5587.332616726472, -5582.996378302143, -5583.331654468972, -5583.48811668016, -5588.651369649336, -5587.600837659936, -5582.728157368679, -5581.699977123735, -5583.823392846989, -5588.4278522047825, -5589.143108027352, -5585.924456825788, -5582.3258259684835, -5580.716500367702, -5586.796174859545, -5590.752433628134, -5588.561962671514, -5583.823392846989, -5584.449241691737, -5587.109099281919, -5587.243209748651, -5585.186849258763, -5584.002206802632, -5585.522125425592, -5589.143108027352, -5588.58431441597, -5587.176154515285, -5584.069262035998, -5583.979855058176, -5585.455070192226, -5587.0196923040985, -5584.538648669559, -5583.398709702338, -5585.186849258763, -5587.8690585934, -5589.053701049531, -5584.940980069755, -5582.549343413037, -5582.482288179671, -5587.399671959838, -5588.897238838344, -5586.147974270341, -5584.024558547087, -5585.164497514307, -5589.232515005174, -5587.734948126668, -5585.410366703316, -5584.896276580844, -5584.605703902925, -5588.830183604978, -5590.864192350411, -5588.383148715871, -5584.8515730919335, -5585.745642870145, -5586.527953926081, -5585.477421936682, -5581.990549801654, -5584.158669013818, -5585.9691603146985, -5586.796174859545, -5589.321921982994, -5588.472555693693, -5584.449241691737, -5585.633884147869, -5588.651369649336, -5588.181983015774, -5584.829221347478, -5585.745642870145, -5587.466727193204, -5589.411328960816, -5591.221820261696, -5588.58431441597, -5584.672759136291, -5581.297645723539, -5585.499773681137, -5590.8194888615, -5588.24903824914, -5582.884619579866, -5585.455070192226, -5589.768956872101, -5590.551267928036, -5588.539610927059, -5584.940980069755, -5581.275293979084, -5585.566828914503, -5589.567791172003, -5586.684416137268, -5582.9740265576875, -5584.8515730919335, -5588.293741738051, -5589.657198149825, -5589.858363849922, -5588.204334760229, -5584.404538202827, -5587.980817315676, -5588.874887093889, -5584.046910291542, -5578.570732899992, -5581.051776534531, -5585.656235892325, -5586.952637070732, -5585.119794025397, -5584.538648669559, -5584.940980069755, -5586.349139970439, -5589.523087683093, -5586.125622525886, -5579.889485822855, -5582.839916090956, -5588.025520804586, -5588.271389993595, -5583.331654468972, -5579.017767789098, -5581.051776534531, -5585.365663214406, -5587.444375448749, -5583.309302724517, -5582.214067246207]]
[[1097.1577283332024, 1050.4202306771554, 1057.8633615807726, 1093.3132282868896, 1093.983780620549, 1094.0508358539148, 1097.6047632223085, 1098.4541295116103, 1096.1518998327138, 1094.1178910872807, 1081.399748492211, 1026.593271087798, 1066.7146523850743, 1098.722350445074, 1097.5377079889427, 1096.2189550660796, 1098.208260322602, 1100.9575248906046, 1099.1023301008142, 1095.146071332225, 1079.2986845134121, 1018.7254570395299, 1058.824486592351, 1097.3365422888448, 1095.8613271547947, 1095.8613271547947, 1097.202431822113, 1095.5260509879652, 1096.8224521663728, 1096.59893472182, 1082.2267630370573, 1024.0898757088037, 1061.7749168604514, 1095.7495684325181, 1094.2520015540126, 1095.4813474990544, 1096.2860102994455, 1097.3812457777556, 1096.8224521663728, 1094.6096294652975, 1087.0547398394037, 1025.7439047984965, 1058.466858681066, 1097.4483010111214, 1095.1013678433142, 1095.079016098859, 1094.0508358539148, 1097.716521944585, 1097.269487055479, 1098.1859085781466, 1079.3433880023229, 1018.0325529614155, 1059.3832802037336, 1098.2753155559678, 1097.917687644683, 1094.2520015540126, 1092.463861997588, 1098.4988330005208, 1097.6718184556746, 1096.9342108886494, 1085.9371526166383, 1027.241471677002, 1059.2044662480912, 1098.6105917227974, 1098.588239978342, 1095.146071332225, 1094.6096294652975, 1097.2471353110236, 1096.3307137883562, 1092.6203242087752, 1074.0683763108702, 1017.5408145833987, 1063.2277802500464, 1095.5707544768757, 1096.241306810535, 1095.7719201769735, 1093.5367457314428, 1092.4415102531327, 1094.4531672541102, 1095.458995754599, 1086.8759258837613, 1034.3940299027001, 1057.9304168141387, 1093.0673590978813, 1094.2296498095573, 1095.6154579657864, 1097.3365422888448, 1097.4706527555768, 1095.9283823881606, 1092.6650276976857, 1092.821489908873, 1095.302533543412, 1096.3083620439008, 1096.3307137883562, 1094.78844342094, 1082.3832252482446, 1022.5476053413875, 1055.4270214351443, 1094.6766846986634, 1096.59893472182, 1095.816623665884, 1095.0343126099483, 1098.6329434672527, 1099.5046615010097, 1096.0848445993477, 1080.7738996474625, 1018.1890151726026, 1053.1247917562475, 1097.425949266666, 1096.0848445993477, 1093.626152709264, 1102.5668504913867, 1110.3899610507442, 1109.8311674393615, 1106.6348679822527, 1092.3297515308561, 1035.5786723588315, 1062.4678209385659, 1105.7631499484958, 1105.2490598260235, 1107.5512895049203, 1109.786463950451, 1107.819510438384, 1109.3617808058002, 1108.0877313718477, 1099.236440567546, 1043.5135416404655, 1065.3735477177559, 1109.4064842947107, 1113.206280852113, 1112.5804320073644, 1111.9992866515263, 1110.300554072923, 1111.753417462518, 1109.0935598723365, 1099.5717167343757, 1043.401782918189, 1068.949826830605, 1112.334562818356, 1110.6134784952974, 1108.6465249832304, 1109.7641122059956, 1110.9934581510377, 1108.7582837055068, 1106.657219726708, 1094.3414085318338, 1035.399858403189, 1065.0382715509263, 1106.9030889157164, 1107.0595511269034, 1104.5785074923645, 1105.2937633149343, 1106.8136819378951, 1106.8136819378951, 1102.6786092136633, 1092.7767864199623, 1036.6739078371415, 1064.7476988730073, 1102.79036793594, 1103.6844377141522, 1098.0070946225042, 1099.9293446456606, 1102.5444987469314, 1104.757321448007, 1103.9079551587051, 1091.4803852415546, 1034.1705124581472, 1058.1539342586916, 1100.041103367937, 1102.7680161914845, 1101.3598562908003, 1102.4550917691101, 1104.3549900478113, 1103.2821063139565, 1101.7398359465403, 1099.5493649899204, 1057.7068993695855, 1056.075222024348, 1100.7340074460517, 1103.0362371249482, 1101.3598562908003, 1101.7621876909957, 1103.4832720140544, 1103.4162167806885, 1101.8068911799064, 1101.5833737353532, 1101.784539435451, 1100.8904696572388, 1103.9079551587051, 1104.690266214641, 1093.7602631759958, 1031.6671170791528, 1053.6165301342644, 1100.398731279222, 1101.2928010574342, 1095.5707544768757, 1038.529102626932, 1059.2044662480912, 1100.1305103457582, 1101.7398359465403, 1096.8895073997387, 1099.1023301008142, 1099.7505306900182, 1099.0352748674484, 1101.0916353573366, 1093.7379114315404, 1033.790532802407, 1055.2035039905911, 1098.6329434672527, 1101.0022283795154, 1100.465786512588, 1101.3822080352554, 1100.175213834669, 1101.2480975685237, 1099.5717167343757, 1092.8661933977835, 1038.529102626932, 1056.5446086579095, 1098.588239978342, 1098.7447021895293, 1097.3588940333002, 1099.2587923120013, 1101.4492632686215, 1100.1528620902136, 1099.7281789455628, 1098.9905713785377, 1097.9847428780488, 1098.1859085781466, 1099.16938533418, 1099.9516963901158, 1033.3882014022115, 1093.179117820158, 1097.0236178664707, 1096.7106934440963, 1070.1568210311916, 1039.8925590387057, 1090.07222534087, 1097.716521944585, 1098.8341091673506, 1097.8729841557722, 1098.0070946225042, 1098.7447021895293, 1096.1966033216243, 1092.0838823418478, 1040.9430910281053, 1030.6165850897532, 1086.205373550102, 1092.7320829310518, 1093.2685247979791, 1092.821489908873, 1092.821489908873, 1094.4084637651997, 1092.8661933977835, 1087.2782572839567, 1041.7030503395856, 1032.4494281350885, 1090.1169288297808, 1097.0012661220153, 1096.8895073997387, 1096.2189550660796, 1091.5474404749204, 1084.0596060823925, 1079.2986845134121, 1066.044100051415, 999.4135498301447, 976.3018460633572, 1031.5106548679657, 1033.0976287242925, 1015.6856197936082, 946.1716945376032, 933.341793220257, 990.5622590258431, 993.5797445273096, 981.4427472880778, 919.8860430581622, 903.4351591390562, 962.600226712254, 969.7974884268629, 966.020043613916, 914.0969412442377, 899.2553829259138, 964.6118837132316, 971.2056483275471, 971.9432558945723, 970.3115785493349, 971.4962210054662, 970.4233372716114, 967.6740727036087, 965.4612500025332, 925.0939995162487, 902.0269992383718, 962.9355028790835, 973.083194861793, 971.8314971722958, 971.8091454278405, 972.9937878839718, 975.631293729698, 976.4136047856338, 975.1619070961365, 978.1346891086923, 981.3756920547119, 981.3756920547119, 977.7323577084968, 975.2513140739578, 948.8986073611508, 914.2981069443354, 969.596322726765, 976.5924187412762, 970.758613438441, 972.0997181057595, 974.8266309293069, 974.759575695941, 975.3854245406897, 972.1891250835807, 928.9161478181062, 909.8724615421846, 962.7119854345304, 969.9763023825053, 972.1444215946701, 973.4631745175332, 975.9665698965276, 976.7935844413739, 976.8382879302845, 973.7090437065416, 926.1668832501034, 904.9774295064724, 967.2717413034131, 973.8431541732734, 970.2668750604242, 972.7032152060527, 976.1900873410807, 975.698348963064, 977.1959158415694, 972.3455872947678, 919.37195293569, 902.0493509828271, 962.4214127566115, 972.8820291616952, 973.2173053285248, 972.278532061402, 973.597284984265, 975.2513140739578, 974.7148722070303, 971.9879593834829, 921.0706855142935, 904.0833597282601, 965.5730087248098, 974.4466512735667, 971.4738692610109, 972.278532061402, 975.4301280296003, 976.7935844413739, 976.1453838521701, 970.0210058714159, 920.08720875826, 900.5070806154109, 961.437936000578, 972.4796977614997, 973.664340217631, 971.7644419389298, 973.0608431173376, 975.1842588405918, 975.0054448849494, 971.7867936833852, 923.8199500822963, 900.216507937492, 960.0297760998936, 967.6070174702428, 969.5292674933992, 970.5797994827985, 970.4903925049773, 971.4962210054662, 971.0715378608153, 968.6351977151869, 934.2805664873799, 898.2719061698803, 961.0803080892931, 971.6750349611086, 970.4903925049773, 971.9432558945723, 973.9102094066393, 974.6701687181197, 972.8149739283293, 972.8373256727846, 973.0608431173376, 973.016139628427, 976.3465495522678, 975.3854245406897, 971.2280000720025, 923.5517291488326, 903.636324839154, 965.8188779138181, 975.2736658184131, 974.1337268511924, 974.8266309293069, 975.9889216409829, 974.0443198733711, 976.5924187412762, 976.3465495522678, 938.728563633986, 907.1231969741818, 965.7741744249075, 977.4641367750331, 974.7148722070303, 973.9549128955499, 975.6759972186086, 974.6031134847539, 977.1959158415694, 975.8995146631617, 943.6459474141536, 902.5634411052991, 960.0074243554384, 975.4077762851449, 975.4971832629661, 973.3514157952567, 975.2736658184131, 973.2620088174355, 973.0608431173376, 973.2173053285248, 942.5507119358435, 902.764606805397, 962.3096540343349, 974.5584099958432, 972.2338285724913, 970.9374273940834, 972.2561803169466, 972.6808634615975, 975.1619070961365, 974.9607413960388, 974.9383896515834, 975.5195350074215, 975.5642384963321, 976.1230321077147, 972.9937878839718, 933.6100141537207, 900.0823974707602, 959.7392034219747, 974.7819274403963, 974.6478169736645, 974.1113751067371, 974.3125408068348, 977.4417850305779, 977.1288606082036, 976.7712326969187, 953.2348457854803, 910.0289237533717, 967.2717413034131, 979.5875524982873, 975.0054448849494, 972.0326628723935, 973.4631745175332, 975.3854245406897, 975.2736658184131, 974.0443198733711, 940.0473165568492, 906.0056097514165, 966.0647471028266, 975.8771629187064, 973.5749332398098, 973.3737675397119, 975.4077762851449, 976.8606396747399, 974.6701687181197, 974.0443198733711, 938.9520810785391, 903.4351591390562, 962.5108197344327, 974.9383896515834, 973.1726018396142, 973.4855262619885, 973.9772646400053, 974.6254652292091, 972.792622183874, 970.3562820382455, 941.6789939020865, 904.4186358950897, 964.4777732464997, 976.9723983970164, 973.5525814953544, 974.6701687181197, 978.4252617866114, 978.1793925976029, 979.5875524982873, 980.0792908763041, 944.4282584700893, 901.4235021380786, 960.2532935444467, 976.6594739746421, 976.3018460633572, 975.7654041964298, 975.9889216409829, 977.9782268975052, 977.5535437528544, 974.0443198733711, 935.5322641768771, 899.3000864148244, 960.4991627334551, 976.6147704857315, 974.5137065069326, 972.8596774172399, 974.759575695941, 976.1677355966253, 978.1793925976029, 980.14634610967, 947.1775230380921, 902.5634411052991, 961.7955639118629, 982.6050379997538, 980.0569391318488, 976.212439085536, 979.4534420315555, 981.24158158798, 980.5933809987762, 978.5146687644326, 960.8120871558294, 913.3593336772125, 965.6400639581757, 981.1521746101588, 980.5486775098656, 977.2406193304801, 979.2299245870024, 981.0404158878823, 981.3309885658012, 980.3028083208571, 947.6692614161088, 906.340885918246, 964.3436627797679, 981.2639333324354, 980.14634610967, 977.084157119293, 978.2240960865136, 980.4816222764996, 976.9500466525611, 974.2007820845583, 943.9365200920726, 899.6130108371987, 959.3145202773238, 981.5321542658991, 977.8441164307734, 975.4524797740555, 974.759575695941, 975.4077762851449, 976.3465495522678, 973.9325611510947, 937.4992176889441, 894.6285718236652, 953.9724533525055, 972.8149739283293, 973.2173053285248, 948.5633311943211, 902.4069788941121, 957.0346423428825, 976.9053431636505, 975.340721051779, 970.982130882994, 973.2396570729801, 972.8149739283293, 974.4242995291114, 975.7430524519746, 973.597284984265, 974.2231338290136, 974.9383896515834, 973.5302297508991, 974.7819274403963, 945.7023079040418, 898.1377957031484, 956.7887731538741, 973.9549128955499, 973.1055466062483, 969.3057500488461, 972.0773663613041, 975.2289623295025, 973.7760989399075, 967.8528866592511, 937.4992176889441, 901.6246678381763, 971.0938896052706, 993.2891718493905, 999.212384130047, 1010.3212011243345, 1020.3124308958568, 1028.7837420444182, 1037.0985909817923, 1047.4698004090549, 1058.7127278700743, 1068.0110535634822, 1074.9624460890825, 1084.1490130602137, 1087.948809617616, 1089.8487078963171, 1092.5085654864986, 1093.5367457314428, 1097.4930045000322, 1098.1635568336912, 1097.9623911335934, 1099.7505306900182, 1098.3423707893337, 1095.88367889925, 1094.8331469098505, 1096.3083620439008, 1099.3258475453672, 1099.012923122993, 1097.9847428780488, 1096.4201207661774, 1097.8282806668617, 1099.012923122993, 1096.6659899551858, 1097.2247835665685, 1097.1353765887472, 1094.5425742319314, 1097.716521944585, 1100.4434347681326, 1099.012923122993, 1096.0848445993477, 1069.1733442751581, 1019.306602395368, 1077.8234693793618, 1099.2140888230908, 1097.0906730998365, 1095.8389754103393, 1096.2860102994455, 1097.425949266666, 1097.9847428780488, 1100.4210830236773, 1085.69128342763, 1029.2978321668902, 1075.722405400563, 1099.16938533418, 1095.4142922656886, 1094.5872777208422, 1098.2753155559678, 1099.3929027787333, 1099.527013245465, 1097.8282806668617, 1065.4853064400324, 1018.0325529614155, 1078.3599112462891, 1099.683475456652, 1098.1859085781466, 1099.5046615010097, 1100.6446004682305, 1100.175213834669, 1098.6105917227974, 1097.850632411317, 1073.5095826994875, 1025.0733524648372, 1078.4493182241104, 1099.4599580120992, 1099.303495800912, 1099.2140888230908, 1100.3540277903114, 1100.6446004682305, 1101.784539435451, 1098.9905713785377, 1081.1538793032025, 1026.6379745767088, 1073.822507121862, 1100.8681179127834, 1100.2646208124902, 1101.0916353573366, 1099.527013245465, 1102.8350714248504, 1102.298629557923, 1098.0965016003254, 1075.2977222559123, 1022.3017361523791, 1073.5542861883982, 1097.3812457777556, 1095.88367889925, 1095.079016098859, 1097.5377079889427, 1101.5386702464427, 1101.851594668817, 1098.7894056784398, 1073.4425274661216, 1019.82069251784, 1074.336597244334, 1097.6047632223085, 1098.2753155559678, 1097.7388736890405, 1097.0683213553812, 1097.4930045000322, 1098.8341091673506, 1095.3695887767778, 1075.8341641228396, 1022.2793844079238, 1074.8730391112613, 1099.5717167343757, 1094.9002021432166, 1093.7155596870853, 1094.7437399320293, 1097.045969610926, 1099.8622894122946, 1100.2869725569456, 1078.046986823915, 1023.7993030308847, 1072.8613821102838, 1099.4376062676438, 1099.5046615010097, 1098.4094260226996, 1100.175213834669, 1099.4599580120992, 1099.5493649899204, 1099.370551034278, 1076.7058821565965, 1019.9995064734825, 1070.4473937091104, 1100.108158601303, 1100.108158601303, 1097.7612254334958, 1097.425949266666, 1098.9905713785377, 1099.5493649899204, 1099.3481992898226, 1090.4075015076996, 1036.5845008593203, 1071.855553609795, 1099.9963998790265, 1100.108158601303, 1098.7894056784398, 1100.5998969793197, 1100.4434347681326, 1101.628077224264, 1099.9963998790265, 1098.2753155559678, 1101.5163185019874, 1100.3093243014007, 1096.6659899551858, 1096.97891437756, 1079.9245333581607, 1022.8381780193065, 1073.621341421764, 1103.0138853804929, 1104.623210981275, 1102.2315743245572, 1101.2257458240683, 1098.5211847449762, 1098.588239978342, 1097.9400393891383, 1074.6048181777976, 1018.3007738948792, 1072.7496233880072, 1103.5503272474202, 1103.1926993361353, 1102.5444987469314, 1102.8127196803953, 1104.7126179590962, 1104.6455627257303, 1099.2811440564567, 1099.1246818452696], [-5562.164552469797, -5561.762221069601, -5563.662119348302, -5562.879808292367, -5561.4269449027715, -5561.091668735942, -5563.080973992464, -5565.494962393637, -5565.897293793833, -5561.046965247031, -5560.354061168917, -5563.706822837213, -5567.171343227786, -5564.086802492953, -5561.359889669406, -5559.52704662407, -5560.108191979908, -5565.249093204629, -5563.572712370481, -5560.421116402283, -5561.29283443604, -5563.438601903749, -5564.869113548889, -5565.092630993442, -5559.884674535355, -5557.67185183428, -5559.8623227909, -5563.438601903749, -5563.885636792856, -5561.046965247031, -5560.756392569112, -5563.058622248009, -5567.573674627981, -5566.679604849769, -5561.762221069601, -5560.130543724364, -5562.812753059001, -5567.10428799442, -5565.830238560467, -5563.326843181472, -5561.158723969308, -5563.10332573692, -5564.936168782255, -5564.489133893148, -5561.091668735942, -5559.415287901794, -5560.823447802478, -5562.142200725341, -5564.019747259587, -5561.739869325146, -5559.348232668428, -5562.700994336724, -5567.059584505509, -5566.05375600502, -5562.05279374752, -5558.588273356948, -5561.471648391682, -5564.645596104336, -5565.33850018245, -5561.985738514154, -5559.0800117349645, -5560.599930357925, -5564.936168782255, -5564.444430404238, -5561.091668735942, -5559.057659990509, -5560.041136746542, -5563.662119348302, -5561.494000136137, -5560.689337335746, -5559.348232668428, -5561.449296647227, -5565.159686226808, -5564.735003082157, -5560.62228210238, -5559.52704662407, -5561.002261758121, -5562.030442003065, -5563.706822837213, -5560.398764657827, -5559.2588256906065, -5562.3657181698945, -5565.606721115914, -5563.438601903749, -5558.9682530126875, -5558.8117908015, -5563.058622248009, -5565.450258904727, -5565.114982737897, -5560.1975989577295, -5558.074183234476, -5561.851628047422, -5565.047927504531, -5564.377375170872, -5562.119848980886, -5558.945901268233, -5559.683508835257, -5561.963386769698, -5565.830238560467, -5561.538703625048, -5557.694203578735, -5561.873979791878, -5564.086802492953, -5563.706822837213, -5559.8623227909, -5559.3705844128835, -5562.05279374752, -5564.399726915327, -5561.806924558512, -5558.074183234476, -5560.130543724364, -5562.164552469797, -5564.265616448595, -5565.1820379712635, -5561.114020480397, -5559.102363479419, -5563.0139187590985, -5564.332671681961, -5564.086802492953, -5562.2539594476175, -5561.114020480397, -5562.723346081179, -5563.840933303944, -5562.700994336724, -5560.465819891193, -5558.700032079224, -5561.248130947129, -5564.153857726319, -5564.824410059979, -5560.9575582692105, -5559.236473946152, -5563.528008881571, -5563.90798853731, -5563.10332573692, -5560.24230244664, -5558.72238382368, -5561.695165836235, -5565.494962393637, -5566.679604849769, -5561.695165836235, -5560.57757861347, -5562.097497236431, -5565.3608519269055, -5567.283101950062, -5562.321014680983, -5559.012956501599, -5562.209255958707, -5567.976006028176, -5566.1878664717515, -5562.589235614448, -5560.57757861347, -5565.0702792489865, -5566.9478257832325, -5566.232569960663, -5564.109154237408, -5562.38806991435, -5565.740831582646, -5565.517314138093, -5565.0702792489865, -5561.829276302967, -5561.382241413861, -5563.326843181472, -5564.8914652933445, -5566.836067060955, -5565.0702792489865, -5561.873979791878, -5564.824410059979, -5567.707785094713, -5565.785535071556, -5565.316148437995, -5565.629072860369, -5564.936168782255, -5566.76901182759, -5568.8253723174785, -5563.997395515132, -5562.924511781277, -5564.556189126514, -5567.260750205606, -5566.590197871948, -5564.511485637604, -5563.393898414838, -5563.550360626025, -5566.456087405216, -5567.461915905705, -5566.232569960663, -5565.1820379712635, -5567.2383984611515, -5568.400689172828, -5567.216046716696, -5564.332671681961, -5563.550360626025, -5564.95852052671, -5567.8642473059, -5569.205351973218, -5566.411383916305, -5564.399726915327, -5566.634901360858, -5568.57950312847, -5568.199523472729, -5566.500790894126, -5563.81858155949, -5564.802058315523, -5568.62420661738, -5570.993491529643, -5566.791363572045, -5565.159686226808, -5567.283101950062, -5570.658215362813, -5568.735965339657, -5567.059584505509, -5564.377375170872, -5565.137334482352, -5567.685433350258, -5570.948788040732, -5567.528971139071, -5564.176209470775, -5567.19369497224, -5571.440526418749, -5570.43469791826, -5566.836067060955, -5566.366680427394, -5565.405555415816, -5568.288930450551, -5572.401651430328, -5569.741793840146, -5566.098459493931, -5567.059584505509, -5568.691261850746, -5570.479401407171, -5566.903122294321, -5579.017767789098, -5581.0964800234415, -5579.53185791157, -5577.140221254853, -5577.251979977129, -5580.671796878791, -5582.728157368679, -5579.598913144936, -5576.067337520997, -5579.822430589489, -5582.3258259684835, -5581.699977123735, -5579.800078845034, -5578.123698010886, -5577.1625729993075, -5579.665968378302, -5580.470631178693, -5578.458974177715, -5574.592122386947, -5576.96140729921, -5579.889485822855, -5580.872962578888, -5578.257808477618, -5576.939055554754, -5579.643616633847, -5583.398709702338, -5582.437584690761, -5578.302511966528, -5576.3355584544615, -5580.805907345522, -5584.96333181421, -5584.784517858568, -5582.079956779476, -5580.045948034042, -5582.012901546109, -5586.863230092911, -5591.15476502833, -5588.472555693693, -5584.046910291542, -5587.757299871123, -5590.417157461305, -5590.461860950215, -5589.701901638735, -5587.4890789376595, -5588.271389993595, -5593.412291218316, -5594.731044141179, -5592.764090629112, -5591.177116772785, -5594.552230185536, -5598.620247676403, -5598.307323254028, -5595.513355197115, -5591.266523750606, -5591.53474468407, -5596.049797064042, -5599.8719453659, -5597.279143009084, -5593.099366795942, -5592.518221440104, -5597.927343598288, -5599.715483154712, -5596.58623893097, -5593.1887737737625, -5595.938038341766, -5600.386035488372, -5598.8214133765005, -5597.033273820076, -5596.340369741961, -5595.334541241472, -5597.860288364922, -5598.374378487394, -5597.34619824245, -5595.736872641668, -5597.502660453637, -5599.447262221249, -5600.900125610844, -5598.799061632045, -5592.987608073665, -5595.133375541374, -5601.369512244405, -5604.543459957059, -5601.257753522129, -5597.368549986905, -5594.39576797435, -5597.748529642646, -5601.190698288763, -5596.854459864433, -5591.668855150802, -5594.507526696626, -5597.2344395201735, -5595.491003452659, -5592.384110973372, -5590.685378394768, -5591.311227239517, -5595.91568659731, -5597.703826153735, -5594.038140063065, -5591.668855150802, -5593.904029596332, -5597.256791264629, -5598.732006398679, -5597.189736031263, -5594.06049180752, -5594.462823207716, -5597.256791264629, -5597.8826401093775, -5596.653294164335, -5592.920552840299, -5594.619285418902, -5597.189736031263, -5597.01092207562, -5594.999265074643, -5593.211125518218, -5594.038140063065, -5596.228611019685, -5599.357855243427, -5596.921515097799, -5595.021616819098, -5594.48517495217, -5597.815584876012, -5598.508488954126, -5595.8262796194895, -5592.607628417924, -5593.613456918413, -5598.642599420858, -5600.497794210648, -5599.268448265606, -5595.803927875034, -5595.267486008106, -5597.033273820076, -5598.284971509573, -5594.798099374545, -5590.573619672492, -5591.825317361989, -5596.027445319587, -5598.128509298385, -5597.1226807978965, -5592.406462717827, -5592.697035395746, -5595.893334852855, -5596.697997653246, -5593.769919129601, -5592.607628417924, -5593.322884240495, -5597.703826153735, -5598.687302909769, -5593.68051215178, -5593.658160407324, -5592.451166206738, -5596.429776719782, -5599.335503498973, -5594.842802863455, -5590.752433628134, -5594.082843551975, -5598.106157553931, -5599.357855243427, -5600.006055832631, -5597.100329053442, -5595.245134263651, -5597.390901731361, -5599.581372687981, -5596.049797064042, -5594.172250529797, -5595.446299963749, -5597.167384286808, -5598.016750576109, -5596.362721486416, -5594.2393057631625, -5594.574581929992, -5597.68147440928, -5599.335503498973, -5596.340369741961, -5593.389939473861, -5592.875849351389, -5597.368549986905, -5597.435605220271, -5594.552230185536, -5590.618323161402, -5592.384110973372, -5597.1226807978965, -5597.2344395201735, -5595.513355197115, -5594.216954018707, -5594.105195296431, -5595.245134263651, -5598.374378487394, -5598.083805809475, -5592.674683651291, -5592.987608073665, -5598.307323254028, -5599.804890132534, -5597.927343598288, -5595.759224386123, -5596.139204041863, -5597.1226807978965, -5600.274276766095, -5599.53666919907, -5596.116852297408, -5595.20043077474, -5598.977875587688, -5601.838898877967, -5601.034236077576, -5598.0614540650195, -5595.669817408302, -5597.256791264629, -5599.91664885481, -5600.274276766095, -5596.4744802086925, -5597.1226807978965, -5600.207221532729, -5600.29662851055, -5597.703826153735, -5593.971084829698, -5593.054663307031, -5595.312189497017, -5596.63094241988, -5596.742701142157, -5594.842802863455, -5594.2393057631625, -5597.860288364922, -5600.453090721738, -5598.620247676403, -5596.809756375523, -5596.653294164335, -5598.709654654223, -5601.883602366877, -5599.223744776696, -5595.133375541374, -5595.3568929859275, -5600.542497699559, -5602.643561678357, -5600.140166299363, -5597.077977308986, -5598.284971509573, -5600.766015144112, -5600.29662851055, -5598.754358143135, -5596.9438668422545, -5595.289837752562, -5598.955523843232, -5600.698959910746, -5597.860288364922, -5597.68147440928, -5596.094500552953, -5598.240268020662, -5600.922477355299, -5598.910820354321, -5594.798099374545, -5595.423948219293, -5598.776709887589, -5600.453090721738, -5600.318980255006, -5595.133375541374, -5594.775747630089, -5597.34619824245, -5600.184869788274, -5597.7708813871, -5593.769919129601, -5594.954561585732, -5598.240268020662, -5599.693131410258, -5597.077977308986, -5595.267486008106, -5594.865154607911, -5598.039102320565, -5599.91664885481, -5597.100329053442, -5594.596933674447, -5593.904029596332, -5597.457956964727, -5601.660084922324, -5598.664951165313, -5594.082843551975, -5593.546401685047, -5597.145032542352, -5600.989532588665, -5597.390901731361, -5593.166422029308, -5593.166422029308, -5593.836974362966, -5595.312189497017, -5594.619285418902, -5592.406462717827, -5592.093538295453, -5595.088672052464, -5597.301494753539, -5597.703826153735, -5592.652331906836, -5592.048834806542, -5594.507526696626, -5597.68147440928, -5597.457956964727, -5594.619285418902, -5594.686340652268, -5595.692169152757, -5597.1226807978965, -5596.63094241988, -5593.993436574154, -5594.596933674447, -5596.653294164335, -5596.63094241988, -5594.731044141179, -5594.39576797435, -5594.261657507617, -5597.614419175914, -5600.587201188469, -5597.860288364922, -5594.999265074643, -5595.736872641668, -5598.575544187492, -5599.424910476793, -5598.687302909769, -5595.021616819098, -5594.351064485439, -5598.374378487394, -5601.973009344699, -5599.0002273321425, -5592.96525632921, -5592.898201095843, -5595.401596474838, -5599.8719453659, -5599.648427921346, -5595.1780790302855, -5593.546401685047, -5596.675645908791, -5598.620247676403, -5596.273314508595, -5596.206259275229, -5595.0663203080085, -5596.96621858671, -5599.134337798874, -5598.195564531751, -5594.172250529797, -5594.149898785341, -5597.793233131556, -5599.581372687981, -5597.592067431458, -5593.322884240495, -5595.982741830676, -5598.910820354321, -5599.715483154712, -5596.519183697604, -5592.048834806542, -5593.769919129601, -5597.569715687003, -5598.508488954126, -5592.875849351389, -5587.757299871123, -5587.645541148847, -5588.24903824914, -5589.053701049531, -5586.617360903902, -5579.800078845034, -5576.670834621291, -5578.190753244252, -5580.180058500774, -5580.560038156515, -5575.419136931794, -5573.5192386530925, -5576.179096243274, -5577.564904399504, -5577.900180566333, -5575.620302631892, -5572.424003174782, -5574.77093634259, -5578.526029411081, -5577.699014866235, -5574.189790986752, -5574.234494475662, -5577.073166021486, -5579.822430589489, -5577.788421844056, -5572.938093297254, -5572.736927597157, -5576.737889854657, -5578.235456733162, -5576.737889854657, -5574.927398553777, -5574.592122386947, -5575.955578798721, -5580.24711373414, -5578.257808477618, -5574.502715409126, -5574.726232853679, -5578.861305577911, -5579.0401195335535, -5580.135355011864, -5574.681529364769, -5574.368604942394, -5577.2743317215845, -5579.0401195335535, -5578.078994521975, -5575.352081698427, -5575.732061354168, -5575.776764843079, -5580.582389900969, -5578.414270688805, -5575.061509020509, -5575.553247398526, -5577.497849166138, -5579.196581744741, -5577.117869510397, -5572.982796786166, -5573.116907252897, -5577.296683466039, -5581.051776534531, -5580.582389900969, -5576.849648576934, -5576.737889854657, -5578.347215455439, -5579.353043955928, -5578.43662243326, -5572.312244452506, -5572.133430496863, -5578.302511966528, -5581.565866657003, -5580.470631178693, -5576.2237997321845, -5573.67570086428, -5575.910875309811, -5575.508543909615, -5576.29085496555, -5575.799116587534, -5573.362776441905, -5575.352081698427, -5578.906009066822, -5578.369567199894, -5573.608645630914, -5571.932264796766, -5575.240322976151, -5579.017767789098, -5576.29085496555, -5572.222837474685, -5572.625168874881, -5576.559075899015, -5579.867134078399, -5577.251979977129, -5571.909913052311, -5573.0498520195315, -5576.804945088023, -5578.570732899992, -5578.05664277752, -5574.837991575956, -5572.826334574978, -5575.709709609712, -5579.48715442266, -5578.973064300188, -5574.569770642492, -5574.4580119202155, -5576.492020665649, -5579.665968378302, -5578.324863710984, -5573.273369464085, -5572.334596196962, -5577.386090443861, -5580.224761989684, -5578.034291033065, -5574.8156398315, -5575.240322976151, -5575.217971231696, -5576.089689265453, -5577.67666312178, -5574.726232853679, -5574.480363664671, -5576.9167038103, -5579.867134078399, -5580.20241024523, -5576.849648576934, -5574.726232853679, -5578.190753244252, -5580.694148623246, -5579.956541056221, -5575.642654376346, -5573.139258997352, -5575.2850264650615, -5577.4531456772265, -5578.816602089, -5576.179096243274, -5575.620302631892, -5578.280160222073, -5581.834087590467, -5581.029424790076, -5575.553247398526, -5573.67570086428, -5576.715538110201, -5580.940017812254, -5579.643616633847, -5577.117869510397, -5575.799116587534, -5577.9225323107885, -5581.34234921245, -5579.844782333945, -5576.067337520997, -5574.793288087045, -5577.564904399504, -5581.252942234629, -5581.141183512353, -5575.821468331989, -5574.368604942394, -5575.665006120802, -5579.174230000285, -5577.944884055243, -5574.323901453484, -5572.96044504171, -5575.352081698427, -5576.179096243274, -5576.357910198916, -5575.016805531598, -5575.687357865258, -5577.140221254853, -5580.984721301165, -5580.381224200872, -5577.743718355146, -5575.665006120802, -5578.973064300188, -5581.0964800234415, -5580.20241024523, -5576.5143724101035, -5574.77093634259]]
[[1102.9244784026716, 1104.9361354036494, 1108.2441935830348, 1107.1042546158142, 1102.142167346736, 1048.9450155431052, 1045.2346259635242, 1103.0362371249482, 1108.3112488164006, 1106.3889987932444, 1105.852556926317, 1108.043027882937, 1109.786463950451, 1107.5736412493757, 1103.751492947518, 1065.664120395675, 1047.916835298161, 1103.8632516697946, 1104.7796731924623, 1104.1985278366242, 1107.8418621828393, 1109.0488563834258, 1111.2616790845013, 1107.7077517161074, 1098.0070946225042, 1040.8760357947392, 1041.0995532392924, 1102.4774435135655, 1104.26558306999, 1101.270449312979, 1101.8962981577276, 1105.3831702927555, 1106.3219435598783, 1104.6455627257303, 1102.6339057247528, 1069.8438966088172, 1047.6709661091527, 1097.4930045000322, 1102.7680161914845, 1101.0469318684259, 1103.3715132917778, 1107.8865656717498, 1106.7689784489846, 1104.399693536722, 1102.8350714248504, 1107.1936615936354, 1104.3773417922666, 1104.9361354036494, 1104.1314726032583, 1097.917687644683, 1045.7040125970857, 1039.467875894055, 1097.5153562444873, 1103.2597545695014, 1101.203394079613, 1103.080940613859, 1106.3442953043336, 1107.3724755492779, 1103.237402825046, 1100.0187516234819, 1053.1247917562475, 1046.5533788863872, 1101.5833737353532, 1101.4716150130766, 1102.6115539802975, 1106.523109259976, 1106.9254406601717, 1108.6688767276855, 1105.0031906370152, 1096.8448039108282, 1044.1840939741248, 1041.2560154504795, 1099.7058272011075, 1105.6513912262192, 1105.427873781666, 1105.5843359928533, 1101.7621876909957, 1103.9973621365264, 1104.9361354036494, 1099.012923122993, 1053.951806301094, 1040.853684050284, 1099.1246818452696, 1107.9312691606606, 1108.7135802165963, 1109.2276703390683, 1109.1159116167917, 1111.6193069957862, 1108.9370976611492, 1100.0858068568477, 1047.8050765758844, 1038.6855648381193, 1098.3423707893337, 1106.4337022821549, 1106.9924958935376, 1104.26558306999, 1103.88560341425, 1106.724274960074, 1105.4502255261214, 1101.8739464132723, 1060.6126261487755, 1042.9770997735382, 1102.008056880004, 1109.7417604615403, 1105.9196121596829, 1105.3384668038448, 1105.6960947151297, 1105.3831702927555, 1103.7067894586075, 1102.656257469208, 1065.7982308624066, 1040.9654427725604, 1098.1859085781466, 1106.880737171261, 1104.4220452811774, 1104.4891005145432, 1105.427873781666, 1104.3326383033561, 1103.7067894586075, 1102.1868708356465, 1060.2326464930352, 1039.1996549605913, 1094.9225538876717, 1103.0138853804929, 1101.0245801239705, 1101.3822080352554, 1107.0595511269034, 1108.2665453274901, 1106.009019137504, 1101.9410016466381, 1060.3667569597671, 1038.1044194822812, 1095.4813474990544, 1101.6727807131745, 1104.690266214641, 1105.852556926317, 1105.8749086707721, 1105.0925976148364, 1105.8749086707721, 1106.0313708819594, 1104.1761760921688, 1103.3491615473226, 1104.4443970256325, 1106.7689784489846, 1104.6008592368198, 1059.4279836926441, 1041.948919528594, 1103.0138853804929, 1109.1606151057024, 1107.663048227197, 1107.0371993824483, 1106.880737171261, 1108.2218418385794, 1108.7806354499621, 1106.366647048789, 1065.2617889954793, 1042.239492206513, 1099.9740481345711, 1109.1829668501578, 1107.3277720603671, 1109.3170773168895, 1107.975972649571, 1108.8253389388728, 1109.6076499948085, 1106.9924958935376, 1109.4511877836214, 1110.0323331394593, 1109.1829668501578, 1108.043027882937, 1104.399693536722, 1055.11409701277, 1037.657384593175, 1099.303495800912, 1107.6406964827415, 1106.7689784489846, 1106.4784057710656, 1108.177138349669, 1107.9983243940264, 1109.652353483719, 1107.0595511269034, 1077.1976205346132, 1108.624173238775, 1075.8788676117501, 1033.9246432691389, 1091.3015712859121, 1109.6747052281744, 1110.45701628411, 1108.7806354499621, 1108.1547866052135, 1110.5464232619313, 1109.0488563834258, 1108.5794697498643, 1081.5562107033982, 1037.9926607600046, 1095.950734132616, 1111.2169755955906, 1107.4842342715544, 1108.4006557942218, 1110.725237217574, 1109.630001739264, 1111.3734378067777, 1110.0546848839147, 1077.4881932125322, 1033.4999601244879, 1091.3462747748226, 1110.8369959398503, 1111.686362229152, 1108.9370976611492, 1111.1275686177694, 1121.0293914114704, 1126.8408449698502, 1132.8534642283278, 1137.9049584752272, 1147.6726708021965, 1156.7474790510512, 1162.8718570318053, 1170.6055606133416, 1177.4675461611207, 1187.9952177995704, 1194.1866510136904, 1196.1759562702127, 1199.2157935161345, 1201.3168574949334, 1205.8542616193606, 1209.6987616656736, 1207.9329738537042, 1207.843566875883, 1207.7988633869725, 1212.8950611227824, 1212.7833024005058, 1212.135101811302, 1211.4421977331874, 1210.1457965547797, 1207.8212151314278, 1210.6151831883412, 1211.330439010911, 1211.1739767997237, 1175.4335374156879, 1132.8311124838726, 1192.3761597128105, 1208.6258779318189, 1206.7930348864836, 1206.748331397573, 1210.5481279549751, 1210.6598866772517, 1208.3800087428103, 1207.4188837312322, 1192.3761597128105, 1141.7941620104507, 1189.5374881669866, 1208.8717471208272, 1206.167186041735, 1206.52481395302, 1207.7094564091512, 1209.3187820099333, 1209.6093546878524, 1205.9660203416372, 1188.9563428111485, 1143.4258393556881, 1193.359636468844, 1203.7308458961065, 1203.8202528739278, 1206.2789447640116, 1208.6258779318189, 1208.6035261873635, 1207.2400697755897, 1208.2011947871679, 1207.463587220143, 1207.7094564091512, 1209.6764099212182, 1210.235203532601, 1207.1283110533132, 1170.13617397978, 1126.7290862475738, 1191.2138690011345, 1214.2808692790115, 1215.1972908016792, 1215.912546624249, 1217.2536512915674, 1221.165206571246, 1223.5121397390533, 1217.4101135027545, 1217.6559826917628, 1217.6336309473074, 1217.231299547112, 1220.4723024931316, 1220.941689126693, 1192.7561393685507, 1141.9729759660931, 1196.1312527813022, 1221.6569449492629, 1218.4159420032433, 1217.6336309473074, 1219.712343181651, 1220.2040815596679, 1220.2711367930337, 1219.9582123706596, 1193.0914155353803, 1139.1119526758139, 1194.7230928806177, 1220.6734681932294, 1218.0583140919584, 1216.136064068802, 1219.8688053928383, 1222.774532172028, 1223.199215316679, 1220.0252676040254, 1198.7017033936625, 1142.9117492332161, 1197.4053022152546, 1217.8571483918606, 1217.231299547112, 1219.1311978258132, 1220.293488537489, 1221.299317037978, 1220.7405234265952, 1217.3430582693886, 1191.817366101428, 1140.2518916430345, 1196.8018051149613, 1220.2711367930337, 1221.0310961045143, 1218.684162936707, 1218.2594797920563, 1220.7181716821399, 1219.198253059179, 1216.583098957908, 1217.2536512915674, 1219.0864943369024, 1220.2487850485784, 1219.8688053928383, 1217.6336309473074, 1187.1905549991793, 1138.6425660422524, 1192.1079387793468, 1220.1146745818467, 1217.5665757139416, 1210.1234448103244, 1159.4520401301434, 1194.8348516028943, 1221.3663722713438, 1221.0310961045143, 1222.3722007718327, 1218.8182734034388, 1218.8629768923495, 1219.6899914371959, 1219.1088460813578, 1198.0311510600031, 1143.4705428445986, 1195.0136655585368, 1220.7628751710506, 1218.3488867698775, 1218.8182734034388, 1222.1710350717349, 1222.2827937940115, 1219.9135088817488, 1217.745389669584, 1217.7900931584948, 1218.751218170073, 1218.4159420032433, 1218.7288664256175, 1217.4771687361203, 1190.2974474784671, 1138.1284759197804, 1194.8348516028943, 1220.2264333041232, 1216.4042850022656, 1217.9018518807711, 1219.4217705037322, 1218.5724042144304, 1215.5102152240534, 1216.4713402356315, 1218.0136106030477, 1218.4829972366092, 1219.9358606262042, 1219.846453648383, 1220.6734681932294, 1204.1555290407573, 1147.2479876575455, 1194.7230928806177, 1222.8192356609388, 1220.360543770855, 1219.3100117814556, 1220.807578659961, 1223.2439188055896, 1221.7687036715392, 1216.7395611690952, 1210.6375349327964, 1164.5482378659533, 1198.0311510600031, 1220.1146745818467, 1219.555880970464, 1219.5782327149193, 1220.0476193484808, 1219.5782327149193, 1218.4829972366092, 1217.1418925692908, 1190.6774271342072, 1140.1401329207579, 1196.913563837238, 1220.9193373822377, 1218.90768038126, 1217.1418925692908, 1220.7628751710506, 1222.6404217052964, 1220.0252676040254, 1221.3887240157992, 1215.107883823858, 1162.693043076163, 1197.3158952374333, 1224.1156368393465, 1224.8979478952824, 1222.394552516288, 1222.5063112385644, 1221.3887240157992, 1218.7959216589836, 1218.7959216589836, 1197.4947091930758, 1142.9341009776713, 1195.4830521920983, 1214.325572767922, 1215.107883823858, 1215.3984565017768, 1218.5724042144304, 1219.0194391035366, 1219.3994187592768, 1219.1311978258132, 1193.8737265913162, 1136.139170663258, 1183.0554822749475, 1216.4713402356315, 1218.4159420032433, 1219.265308292545, 1220.4723024931316, 1219.2206048036344, 1221.3440205268885, 1219.712343181651, 1202.7920726289838, 1146.8233045128948, 1189.6715986337183, 1220.5840612154082, 1217.9689071141372, 1219.8017501594722, 1222.1933868161902, 1223.6238984613299, 1222.618069960841, 1217.6559826917628, 1195.3489417253663, 1141.391830610255, 1187.2576102325452, 1220.1593780707572, 1218.2147763031455, 1218.237128047601, 1224.0932850948914, 1224.4062095172656, 1223.556843227964, 1218.90768038126, 1203.9767150851148, 1149.013775469515, 1189.9621713116373, 1217.7677414140394, 1218.4382937476987, 1219.8688053928383, 1220.807578659961, 1222.4839594941093, 1223.1098083388579, 1222.461607749654, 1219.5335292260086, 1219.6899914371959, 1221.0981513378802, 1221.0981513378802, 1220.4275990042208, 1205.518985452531, 1149.0584789584254, 1189.5374881669866, 1220.2040815596679, 1220.0923228373913, 1218.974735614626, 1218.4159420032433, 1216.784264658006, 1217.6559826917628, 1217.7677414140394, 1210.52577621052, 1158.4462116296545, 1191.6609038902407, 1222.327497282922, 1222.1710350717349, 1220.2040815596679, 1220.6064129598633, 1224.4062095172656, 1220.9193373822377, 1223.0651048499471, 1215.0855320794026, 1161.4636971311209, 1193.7172643801289, 1223.4450845056874, 1223.7356571836065, 1221.5898897158968, 1220.7628751710506, 1221.0981513378802, 1222.1710350717349, 1221.0534478489694, 1206.1895377861904, 1146.9350632351714, 1187.3693689548218, 1224.6073752173634, 1220.6958199376845, 1223.489787994598, 1223.6686019502404, 1224.6744304507292, 1223.8027124169723, 1224.3838577728102, 1210.6375349327964, 1143.0235079554925, 1172.818383314417, 1205.1837092857015, 1199.4169592162323, 1178.3169124504225, 1106.009019137504, 1129.6795165156743, 1162.268359931512, 1151.9865574820708, 1117.274298342979, 1054.9799865460382, 1089.8263561518618, 1129.8359787268614, 1130.2159583826017, 1107.8642139272945, 1046.9333585421275, 1091.7933096639288, 1131.0206211829927, 1128.5619292929089, 1127.846673470339, 1128.494874059543, 1129.3442403488446, 1128.0478391704369, 1124.784484479962, 1108.3112488164006, 1049.9955475325046, 1088.4405479956326, 1123.0410484124482, 1122.7504757345291, 1123.1975106236353, 1124.918594946694, 1122.7504757345291, 1121.9681646785932, 1121.4317228116658, 1103.304458058412, 1046.7768963309404, 1089.3569695183003, 1125.3209263468893, 1123.756304235018, 1121.3646675783, 1123.689249001652, 1123.4210280681882, 1124.1586356352134, 1123.9351181906604, 1122.1469786342357, 1122.7728274789845, 1123.3539728348223, 1124.493911802043, 1125.7009060026296, 1108.3112488164006, 1044.631128863231, 1075.1859635336357, 1113.496853530032, 1114.0332953969594, 1112.8710046852834, 1112.9827634075598, 1115.2626413420012, 1114.9273651751716, 1109.495891272532, 1111.7757692069733, 1115.307344830912, 1117.3413535763448, 1117.7436849765402, 1117.6095745098085, 1102.3433330468338, 1042.5077131399767, 1077.8905246127279, 1114.8603099418058, 1114.6367924972526, 1115.1508826197246, 1117.1848913651577, 1118.6377547547527, 1117.6095745098085, 1118.3471820768336, 1107.7748069494733, 1049.7720300879514, 1074.761280388985, 1114.7485512195292, 1117.4754640430765, 1116.9837256650599, 1114.592089008342, 1114.7709029639846, 1114.7932547084397, 1114.368571563789, 1096.9342108886494, 1037.7691433154516, 1074.5824664333422, 1113.876833185772, 1113.2509843410235, 1113.854481441317, 1115.5755657643756, 1118.8389204548503, 1119.4424175551437, 1116.2237663535793, 1110.1664436061913, 1068.3239779858563, 1078.9187048576719, 1113.9662401635933, 1117.2072431096128, 1116.4249320536771, 1118.101312887825, 1117.6766297431743, 1118.525996032476, 1117.788388465451, 1103.1256441027695, 1042.4406579066108, 1075.074204811359, 1114.8603099418058, 1117.140187876247, 1114.1003506303252, 1115.4414552976436, 1120.5823565223643, 1117.654277998719, 1114.525033774976, 1103.527975502965, 1043.6700038516526, 1070.2909314979233, 1115.2179378530907, 1116.0002489090264, 1116.5366907759537, 1117.4531122986214, 1117.5425192764426, 1120.2917838444453, 1115.463807042099, 1103.1256441027695, 1046.3522131862894, 1078.6281321797528, 1117.5648710208977, 1118.1683681211912, 1116.2014146091242, 1116.491987287043, 1117.2072431096128, 1118.4365890546549, 1117.4084088097106, 1109.786463950451, 1051.7836870889291, 1072.7496233880072, 1113.3850948077554, 1117.2295948540682, 1118.883623943761, 1119.3753623217776, 1118.1683681211912, 1114.2791645859677, 1110.009981395004, 1102.5221470024762, 1048.8779603097391, 1070.3803384757446, 1109.8311674393615, 1112.2451558405348, 1110.6358302397527, 1110.45701628411, 1111.4181412956884, 1110.948754662127, 1114.0779988858699, 1101.7398359465403, 1041.8371608063176, 1070.4026902202, 1113.0945221298364, 1111.3063825734118, 1110.6581819842079, 1114.0556471414145, 1114.2121093526018, 1114.7261994750738, 1110.7922924509398, 1106.9254406601717, 1059.1597627591805, 1079.3210362578675, 1113.1839291076576, 1113.9662401635933, 1113.5415570189425, 1113.854481441317, 1115.821434953384, 1115.9555454201156, 1109.5405947614427, 1110.881699428761, 1112.6698389851856, 1114.2121093526018, 1115.7767314644732, 1113.9662401635933, 1114.0779988858699, 1114.525033774976, 1112.915708174194, 1113.429798296666, 1112.0663418848924, 1100.9351731461493, 1040.116076483259, 1064.0324430504375, 1110.948754662127, 1114.4132750526994, 1106.0313708819594, 1047.0004137754934, 1066.1558587736915, 1111.8204726958838, 1115.3744000642778, 1115.307344830912, 1112.6698389851856, 1115.329696575367, 1115.4861587865544, 1115.0614756419034, 1108.624173238775, 1055.0693935238594, 1070.7603181314848, 1113.0945221298364, 1114.7038477306185, 1114.4356267971548, 1119.4647692995989, 1124.493911802043, 1124.0915804018475, 1120.336487333356, 1118.8165687103951, 1118.4365890546549, 1119.2189001105905, 1121.4540745561212, 1118.3248303323783, 1103.1926993361353, 1041.9936230175047, 1071.0508908094039, 1116.2237663535793, 1117.296650087434, 1115.821434953384, 1114.815606452895, 1115.6649727421968, 1115.3744000642778, 1117.4978157875319, 1115.2849930864566, 1064.7700506174626, 1067.2510942520016, 1116.112007631303, 1120.1800251221687, 1118.0119059100039, 1119.5988797663308, 1119.4647692995989, 1117.3860570652553, 1117.8107402099063, 1107.1042546158142, 1050.2190649770575, 1070.5144489424765], [-5581.543514912548, -5585.455070192226, -5587.1985062597405, -5584.717462625202, -5584.493945180649, -5584.873924836389, -5589.210163260718, -5588.62901790488, -5585.566828914503, -5582.683453879768, -5584.181020758274, -5588.4278522047825, -5589.031349305075, -5586.01386380361, -5586.282084737073, -5587.958465571221, -5590.260695250117, -5590.797137117045, -5588.450203949238, -5587.064395793009, -5586.907933581821, -5589.38897721636, -5589.500735938637, -5584.3821864583715, -5584.181020758274, -5587.131451026375, -5589.992474316654, -5589.701901638735, -5586.282084737073, -5584.292779480551, -5585.186849258763, -5588.3160934825055, -5589.836012105467, -5587.690244637757, -5583.599875402436, -5586.393843459349, -5590.1936400167515, -5588.941942327255, -5586.304436481529, -5584.96333181421, -5586.237381248162, -5589.277218494084, -5588.517259182604, -5587.690244637757, -5585.902105081333, -5587.757299871123, -5589.880715594378, -5590.148936527841, -5589.5454394275475, -5586.5503056705365, -5586.572657414992, -5588.226686504685, -5590.081881294475, -5588.830183604978, -5585.767994614601, -5585.544477170048, -5589.813660361012, -5590.975951072687, -5587.578485915481, -5585.835049847967, -5589.768956872101, -5591.311227239517, -5590.730081883679, -5587.556134171025, -5582.951674813232, -5584.561000414014, -5590.215991761207, -5591.4229859617935, -5588.025520804586, -5585.499773681137, -5585.678587636779, -5589.970122572198, -5592.406462717827, -5589.72425338319, -5586.460898692715, -5585.0303870475755, -5589.411328960816, -5592.160593528819, -5589.523087683093, -5588.360796971417, -5590.0148260611095, -5594.082843551975, -5593.72521564069, -5589.456032449727, -5587.243209748651, -5585.857401592422, -5587.399671959838, -5587.511430682115, -5584.918628325299, -5582.77286085759, -5587.466727193204, -5589.858363849922, -5591.445337706249, -5590.663026650313, -5587.779651615579, -5589.679549894279, -5591.53474468407, -5592.451166206738, -5588.204334760229, -5586.304436481529, -5585.499773681137, -5588.360796971417, -5590.4842126946705, -5585.119794025397, -5581.543514912548, -5583.286950980062, -5586.639712648358, -5591.19946851724, -5589.321921982994, -5585.38801495886, -5584.2033725027295, -5588.360796971417, -5591.378282472883, -5586.796174859545, -5583.286950980062, -5585.7903463590565, -5588.24903824914, -5591.043006306053, -5590.551267928036, -5588.1372795268635, -5587.042044048553, -5589.634846405369, -5592.317055740006, -5591.691206895257, -5585.946808570244, -5586.036215548064, -5591.579448172981, -5591.087709794964, -5587.15380277083, -5586.505602181626, -5586.393843459349, -5589.143108027352, -5591.020654561598, -5586.393843459349, -5585.835049847967, -5587.980817315676, -5589.3666254719055, -5590.372453972394, -5590.618323161402, -5585.29860798104, -5584.940980069755, -5588.852535349433, -5591.4229859617935, -5589.590142916459, -5586.952637070732, -5587.243209748651, -5587.846706848944, -5590.394805716849, -5591.043006306053, -5586.907933581821, -5587.131451026375, -5589.72425338319, -5592.205297017729, -5590.640674905858, -5583.219895746696, -5583.331654468972, -5588.472555693693, -5590.551267928036, -5586.572657414992, -5584.002206802632, -5585.678587636779, -5588.070224293498, -5588.539610927059, -5585.186849258763, -5584.516296925103, -5585.566828914503, -5587.332616726472, -5589.210163260718, -5587.712596382213, -5584.292779480551, -5585.365663214406, -5589.880715594378, -5592.719387140201, -5590.215991761207, -5586.572657414992, -5585.723291125691, -5589.768956872101, -5592.764090629112, -5589.634846405369, -5585.522125425592, -5585.29860798104, -5583.823392846989, -5584.8515730919335, -5587.958465571221, -5590.551267928036, -5588.62901790488, -5584.762166114112, -5583.15284051333, -5585.29860798104, -5587.444375448749, -5583.957503313721, -5581.767032357101, -5585.119794025397, -5587.690244637757, -5588.919590582799, -5588.3160934825055, -5584.270427736095, -5583.309302724517, -5584.561000414014, -5587.466727193204, -5587.377320215383, -5583.15284051333, -5583.063433535509, -5584.8515730919335, -5584.3821864583715, -5582.05760503502, -5579.0401195335535, -5574.547418898037, -5574.234494475662, -5572.513410152604, -5567.90895079481, -5560.287005935551, -5553.022688987576, -5548.9099680078, -5543.992584227632, -5536.460046346194, -5530.670944532269, -5523.607793284392, -5526.9158514637775, -5528.055790430998, -5525.105360162897, -5522.110226405886, -5523.4513310732045, -5527.340534608428, -5532.146159666319, -5532.973174211165, -5532.101456177408, -5534.113113178386, -5539.075200447464, -5541.600947570914, -5541.377430126361, -5539.410476614294, -5541.399781870817, -5545.266633661585, -5547.300642407017, -5547.814732529489, -5546.294813906528, -5547.1665319402855, -5551.256901175607, -5551.703936064713, -5551.748639553623, -5550.720459308679, -5548.731154052157, -5553.805000043511, -5556.844837289434, -5555.43667738875, -5552.620357587381, -5552.307433165006, -5555.347270410928, -5559.035308246053, -5557.67185183428, -5553.715593065691, -5553.201502943219, -5559.348232668428, -5562.43277340326, -5561.717517580691, -5556.800133800523, -5557.470686134182, -5560.57757861347, -5562.835104803456, -5562.969215270187, -5557.895369278833, -5554.900235521822, -5558.409459401305, -5562.321014680983, -5560.912854780299, -5559.348232668428, -5558.297700679029, -5559.594101857437, -5563.4833053926595, -5561.315186180495, -5559.3705844128835, -5559.057659990509, -5560.0187850020875, -5564.153857726319, -5562.030442003065, -5558.543569868037, -5558.00712800111, -5561.002261758121, -5560.175247213274, -5559.124715223875, -5555.548436111026, -5554.0955727214305, -5556.733078567157, -5559.437639646249, -5558.7894390570455, -5557.738907067645, -5558.185941956752, -5560.756392569112, -5560.756392569112, -5560.4881716356485, -5557.403630900816, -5554.699069821724, -5556.889540778344, -5559.817619301989, -5557.448334389727, -5557.247168689629, -5559.348232668428, -5560.689337335746, -5563.81858155949, -5562.924511781277, -5558.498866379126, -5558.3200524234835, -5556.889540778344, -5560.756392569112, -5561.404593158316, -5557.2024652007185, -5556.442505889238, -5560.868151291389, -5565.852590304922, -5565.137334482352, -5558.521218123582, -5556.598968100425, -5563.393898414838, -5566.120811238386, -5561.985738514154, -5558.923549523777, -5559.951729768722, -5561.494000136137, -5563.550360626025, -5560.532875124559, -5557.582444856459, -5559.8623227909, -5563.0139187590985, -5564.757354826612, -5562.835104803456, -5559.0800117349645, -5558.163590212297, -5560.354061168917, -5562.186904214252, -5561.941035025244, -5559.124715223875, -5558.1412384678415, -5559.750564068623, -5564.667947848791, -5564.600892615425, -5559.996433257632, -5561.963386769698, -5564.667947848791, -5567.171343227786, -5564.466782148693, -5560.24230244664, -5559.52704662407, -5561.561055369503, -5561.963386769698, -5563.036270503553, -5559.303529179518, -5558.588273356948, -5562.879808292367, -5568.154819983819, -5566.523142638582, -5562.030442003065, -5560.644633846836, -5562.946863525733, -5566.344328682939, -5564.198561215229, -5561.359889669406, -5562.142200725341, -5564.824410059979, -5567.059584505509, -5566.701956594224, -5561.024613502576, -5559.594101857437, -5564.444430404238, -5567.841895561444, -5566.076107749475, -5558.230645445663, -5559.795267557534, -5564.62324435988, -5566.612549616403, -5565.33850018245, -5561.963386769698, -5562.902160036821, -5564.62324435988, -5567.283101950062, -5565.271444949084, -5561.806924558512, -5561.4269449027715, -5562.142200725341, -5563.4833053926595, -5561.695165836235, -5558.208293701207, -5558.387107656849, -5558.364755912395, -5563.505657137115, -5562.991567014643, -5559.459991390704, -5559.8623227909, -5562.38806991435, -5567.327805438973, -5563.438601903749, -5559.348232668428, -5560.085840235453, -5563.840933303944, -5566.545494383036, -5565.29379669354, -5558.588273356948, -5556.844837289434, -5558.9682530126875, -5565.494962393637, -5565.629072860369, -5561.359889669406, -5559.392936157338, -5563.0139187590985, -5563.528008881571, -5561.359889669406, -5559.52704662407, -5560.331709424461, -5563.371546670383, -5564.824410059979, -5561.873979791878, -5559.348232668428, -5557.738907067645, -5560.555226869014, -5563.416250159294, -5561.494000136137, -5558.945901268233, -5559.2588256906065, -5560.57757861347, -5563.773878070579, -5562.410421658805, -5559.929378024266, -5560.421116402283, -5565.450258904727, -5566.210218216207, -5564.153857726319, -5559.52704662407, -5558.0294797455645, -5562.097497236431, -5564.489133893148, -5562.298662936529, -5560.890503035844, -5560.3093576800065, -5560.9575582692105, -5564.824410059979, -5564.511485637604, -5562.186904214252, -5558.297700679029, -5560.354061168917, -5563.259787948106, -5564.332671681961, -5561.359889669406, -5558.387107656849, -5560.063488490998, -5563.371546670383, -5563.684471092757, -5559.48234313516, -5559.571750112981, -5562.00809025861, -5564.399726915327, -5564.556189126514, -5560.510523380104, -5557.33657566745, -5559.884674535355, -5561.583407113959, -5560.108191979908, -5557.984776256654, -5559.14706696833, -5562.745697825635, -5565.204389715718, -5564.042099004042, -5562.2539594476175, -5561.449296647227, -5563.237436203652, -5566.523142638582, -5564.332671681961, -5560.801096058023, -5561.158723969308, -5559.839971046445, -5562.879808292367, -5562.38806991435, -5560.041136746542, -5557.515389623093, -5561.359889669406, -5564.064450748498, -5561.516351880593, -5559.2588256906065, -5559.14706696833, -5561.270482691584, -5563.393898414838, -5562.991567014643, -5561.359889669406, -5558.409459401305, -5560.085840235453, -5562.2539594476175, -5562.589235614448, -5559.571750112981, -5556.509561122604, -5558.655328590314, -5561.717517580691, -5563.773878070579, -5560.734040824657, -5559.772915813079, -5560.912854780299, -5564.287968193051, -5563.9526920262215, -5560.845799546933, -5559.437639646249, -5557.761258812101, -5560.354061168917, -5563.080973992464, -5559.0800117349645, -5557.515389623093, -5560.644633846836, -5563.885636792856, -5564.377375170872, -5559.415287901794, -5556.62131984488, -5557.515389623093, -5561.762221069601, -5561.158723969308, -5556.397802400327, -5554.497904121627, -5558.342404167939, -5565.159686226808, -5567.10428799442, -5562.589235614448, -5563.282139692562, -5567.171343227786, -5571.932264796766, -5573.67570086428, -5569.428869417771, -5569.495924651137, -5574.569770642492, -5578.302511966528, -5578.481325922171, -5573.3404246974505, -5573.385128186361, -5575.955578798721, -5576.9167038103, -5577.073166021486, -5573.787459586556, -5572.222837474685, -5573.876866564377, -5576.179096243274, -5578.593084644447, -5576.000282287631, -5572.200485730229, -5573.496886908637, -5577.2743317215845, -5578.347215455439, -5574.39095668685, -5573.563942142003, -5575.799116587534, -5579.554209656026, -5578.615436388903, -5574.480363664671, -5573.0498520195315, -5577.766070099601, -5581.2082387457185, -5581.163535256807, -5579.48715442266, -5577.9225323107885, -5577.609607888414, -5581.364700956906, -5583.666930635802, -5578.816602089, -5578.168401499796, -5579.867134078399, -5582.370529457394, -5582.437584690761, -5578.928360811277, -5577.900180566333, -5580.29181722305, -5585.231552747674, -5584.516296925103, -5580.716500367702, -5579.375395700383, -5579.710671867213, -5582.05760503502, -5583.666930635802, -5580.29181722305, -5578.05664277752, -5579.174230000285, -5582.0352532905645, -5581.923494568288, -5578.928360811277, -5577.587256143958, -5580.4482794342375, -5584.96333181421, -5582.929323068777, -5578.883657322366, -5577.989587544154, -5578.458974177715, -5582.884619579866, -5582.504639924126, -5580.649445134335, -5578.078994521975, -5579.755375356123, -5583.108137024419, -5583.041081791053, -5581.543514912548, -5578.43662243326, -5579.397747444838, -5583.622227146891, -5582.839916090956, -5577.699014866235, -5577.67666312178, -5580.96236955671, -5584.784517858568, -5585.365663214406, -5581.655273634824, -5580.9176660677995, -5581.051776534531, -5581.834087590467, -5580.381224200872, -5580.4482794342375, -5578.906009066822, -5579.911837567311, -5582.929323068777, -5584.449241691737, -5577.967235799699, -5577.520200910592, -5580.940017812254, -5582.728157368679, -5581.699977123735, -5578.168401499796, -5576.648482876835, -5580.761203856612, -5584.292779480551, -5582.10230852393, -5577.408442188316, -5575.1062125094195, -5578.302511966528, -5581.722328868191, -5582.258770735118, -5576.760241599112, -5577.587256143958, -5580.492982923149, -5582.929323068777, -5583.041081791053, -5580.828259089978, -5577.363738699405, -5579.688320122757, -5583.175192257785, -5583.286950980062, -5579.844782333945, -5579.375395700383, -5581.275293979084, -5582.616398646403, -5582.661102135313, -5578.928360811277, -5577.631959632869, -5578.995416044643, -5581.767032357101, -5581.834087590467, -5579.53185791157, -5576.357910198916, -5579.353043955928, -5586.215029503707, -5584.62805564738, -5579.867134078399, -5578.302511966528, -5580.1577067563185, -5582.124660268386, -5584.404538202827, -5582.281122479573, -5578.503677666626, -5580.135355011864, -5584.136317269364, -5585.499773681137, -5580.20241024523, -5579.196581744741, -5582.281122479573, -5583.48811668016, -5584.046910291542, -5582.1470120128415, -5582.415232946305, -5584.113965524908, -5585.186849258763, -5585.276256236584, -5580.783555601068, -5580.314168967506, -5582.281122479573, -5585.499773681137, -5584.829221347478, -5580.492982923149, -5581.767032357101, -5583.711634124713, -5587.734948126668, -5588.003169060132, -5583.9127998248105, -5584.046910291542, -5584.225724247185, -5587.734948126668, -5587.176154515285, -5583.197544002241, -5582.012901546109, -5584.493945180649, -5587.042044048553, -5586.326788225983, -5582.638750390858, -5581.364700956906, -5584.002206802632, -5587.779651615579, -5587.6678928933015, -5581.811735846011, -5580.649445134335, -5582.996378302143, -5584.046910291542, -5584.784517858568, -5583.510468424615, -5579.53185791157, -5582.728157368679, -5587.310264982017, -5588.070224293498, -5584.650407391836, -5582.191715501752, -5583.510468424615, -5587.734948126668, -5588.3160934825055, -5583.219895746696, -5580.940017812254, -5583.935151569266, -5587.958465571221, -5587.131451026375, -5583.510468424615, -5579.196581744741, -5582.8175643465, -5585.29860798104, -5586.147974270341, -5581.632921890369, -5579.956541056221, -5583.309302724517, -5585.678587636779, -5584.2033725027295, -5581.588218401458, -5580.1577067563185, -5583.890448080355, -5587.757299871123, -5589.053701049531, -5587.354968470928, -5581.8564393349225, -5583.845744591445, -5586.282084737073, -5585.566828914503, -5582.951674813232, -5581.990549801654, -5584.158669013818, -5585.678587636779, -5587.444375448749, -5585.34331146995, -5582.214067246207, -5585.566828914503, -5585.633884147869, -5586.147974270341, -5584.829221347478, -5584.829221347478, -5584.225724247185, -5586.0809190369755]]
