[[-1128.785446737462, -1120.560004777909, -1121.7669989784956, -1127.399638581233, -1126.170292636191, -1128.137246148258, -1128.4054670817218, -1126.751437992029, -1128.1819496371686, -1125.6338507692637, -1127.5113973035095, -1129.5007025600319, -1128.338411848356, -1124.784484479962, -1124.940946691149, -1128.0701909148922, -1128.852501970828, -1131.266490372001, -1131.6464700277413, -1124.2256908685792, -1119.5765280218754, -1121.8564059563168, -1130.1489031492356, -1131.624118283286, -1129.9253857046826, -1125.2091676246127, -1124.1586356352134, -1122.973993179082, -1127.6678595146966, -1124.3374495908558, -1118.9506791771269, -1123.7116007461073, -1126.0138304250038, -1129.523054304487, -1127.8019699814286, -1121.0964466448363, -1119.6212315107862, -1123.1304553902694, -1120.716466989096, -1123.5998420238307, -1128.1819496371686, -1128.4278188261771, -1124.4492083131324, -1120.2247286110794, -1123.756304235018, -1130.5735862938866, -1127.913728703705, -1121.3646675783, -1123.1975106236353, -1124.8962432022386, -1124.4045048242217, -1118.5706995213866, -1118.9506791771269, -1124.426856568677, -1129.6348130267636, -1128.5842810373642, -1122.1469786342357, -1122.0575716564144, -1124.493911802043, -1127.8019699814286, -1121.7446472340403, -1116.2237663535793, -1116.2908215869454, -1118.3918855657441, -1123.5104350460094, -1126.46086531411, -1128.785446737462, -1120.9846879225597, -1121.6105367673083, -1124.3374495908558, -1123.5327867904648, -1121.9905164230486, -1124.8738914577832, -1125.5667955358977, -1127.1314176477692, -1128.5395775484535, -1132.585243294864, -1133.8145892399061, -1127.3772868367776, -1126.170292636191, -1132.205263639124, -1132.0040979390262, -1129.4559990711211, -1126.393810080744, -1123.3763245792777, -1124.7621327355066, -1128.785446737462, -1133.4793130730764, -1136.2509293855346, -1137.144999163747, -1131.758228750018, -1131.266490372001, -1134.5521968069313, -1141.0342026989701, -1143.5375980779647, -1140.0954294318474, -1139.1343044202692, -1138.910786975716, -1135.2227491405904, -1132.719353761596, -1135.1109904183138, -1137.6814410306743, -1137.2344061415681, -1134.753362507029, -1135.55802530742, -1137.524978819487, -1137.5696823083977, -1138.2402346420567, -1142.330603877378, -1140.6318712987747, -1139.2907666314563, -1140.4977608320428, -1137.815551497406, -1136.9214817191937, -1138.0167171975038, -1137.5026270750318, -1137.0332404414703, -1137.7931997529506, -1139.3578218648222, -1138.7766765089843, -1137.5026270750318, -1135.5133218185094, -1135.1333421627692, -1131.55706304992, -1132.9205194616939, -1135.0886386738587, -1134.2616241290123, -1135.4015630962328, -1136.4073915967217, -1132.3840775947665, -1133.1216851617914, -1138.329641619878, -1141.4812375880763, -1147.4715051020987, -1144.6775370451853, -1134.7086590181184, -1133.1663886507022, -1134.9992316960374, -1141.4141823547104, -1142.6658800442076, -1139.3578218648222, -1137.9273102196826, -1139.6260427982859, -1145.3257376343893, -1147.069173701903, -1141.9282724771824, -1140.9000922322384, -1142.330603877378, -1142.6435282997525, -1142.5094178330205, -1146.3539178793333, -1147.4715051020987, -1149.2149411696125, -1146.0633452014142, -1145.6833655456742, -1147.0244702129926, -1146.8456562573501, -1144.6998887896407, -1142.3529556218334, -1144.8563510008278, -1146.264510901512, -1146.8233045128948, -1146.7338975350735, -1147.9185399912049, -1144.431667856177, -1142.3082521329227, -1142.5317695774759, -1146.2198074126015, -1146.0633452014142, -1144.431667856177, -1142.2411968995568, -1143.202321911135, -1140.2742433874898, -1142.2188451551015, -1142.9564527221266, -1145.303385889934, -1142.397659110744, -1143.4705428445986, -1144.3199091339004, -1144.006984711526, -1144.1857986671685, -1143.649356800241, -1144.811647511917, -1146.4433248571545, -1143.3811358667774, -1141.816513754906, -1144.1187434338026, -1143.783467266973, -1141.3024236324338, -1139.6483945427412, -1139.0896009313585, -1139.4919323315542, -1144.945757978649, -1143.5375980779647, -1140.9894992100596, -1140.1624846652132, -1143.9399294781601, -1144.2081504116238, -1141.7718102659953, -1140.5424643209535, -1140.6318712987747, -1141.1012579323362, -1141.3247753768892, -1142.3753073662886, -1142.5764730663864, -1142.6658800442076, -1141.4141823547104, -1143.4481911001435, -1136.787371252462, -1135.2674526295011, -1134.9545282071267, -1134.1498654067357, -1135.2898043739563, -1134.2839758734674, -1133.7698857509954, -1134.0604584289144, -1134.5969002958418, -1132.942871206149, -1132.942871206149, -1132.585243294864, -1135.6474322852412, -1134.172217151191, -1133.3675543508, -1134.8874729737609, -1133.9486997066379, -1135.848597985339, -1136.8320747413725, -1132.7640572505065, -1131.3782490942776, -1136.005060196526, -1138.1284759197804, -1136.0497636854368, -1136.9661852081044, -1138.8660834868056, -1134.4180863401994, -1134.686307273663, -1135.55802530742, -1133.9263479621825, -1134.5745485513864, -1136.8320747413725, -1135.55802530742, -1134.4851415735652, -1136.429743341177, -1137.972013708593, -1136.0944671743473, -1135.625080540786, -1133.2110921396127, -1137.167350908202, -1135.7815427519731, -1133.591071795353, -1133.591071795353, -1132.5181880614982, -1136.3850398522663, -1136.3850398522663, -1136.1838741521685, -1134.7086590181184, -1131.5794147943755, -1135.4462665851436, -1135.6697840296965, -1137.0779439303808, -1137.301461374934, -1136.4520950856322, -1133.5463683064424, -1134.686307273663, -1135.0215834404926, -1132.205263639124, -1129.6348130267636, -1132.3170223614004, -1135.2674526295011, -1131.333545605367, -1132.6522985282302, -1132.0264496834816, -1131.9593944501155, -1132.6075950393194, -1132.1605601502133, -1132.071153172392, -1131.6911735166518, -1134.3510311068335, -1135.4239148406882, -1135.2898043739563, -1132.3393741058558, -1129.880682215772, -1129.9700891935931, -1132.27231887249, -1130.595938038342, -1133.6357752842637, -1133.9934031955486, -1131.8029322389284, -1132.5405398059536, -1130.9312142051715, -1133.6134235398083, -1134.3733828512886, -1133.8369409843613, -1132.27231887249, -1132.9205194616939, -1130.7971037384395, -1129.0760194153809, -1131.4900078165542, -1134.9321764626714, -1133.9486997066379, -1132.8534642283278, -1135.0215834404926, -1134.4180863401994, -1134.3510311068335, -1132.4734845725877, -1131.8029322389284, -1133.1887403951575, -1130.8418072273503, -1131.780580494473, -1134.7086590181184, -1137.1226474192915, -1137.010888697015, -1134.3286793623781, -1130.618289782797, -1130.0147926825039, -1133.8145892399061, -1131.2888421164564, -1131.5347113054647, -1133.6581270287188, -1131.914690961205, -1134.038106684459, -1135.043935184948, -1133.5687200508976, -1136.3403363633558, -1135.6027287963307, -1134.5521968069313, -1137.3685166082998, -1135.2674526295011, -1131.6017665388306, -1130.0147926825039, -1131.4900078165542, -1132.4734845725877, -1130.4394758271546, -1129.165426393202, -1132.3617258503111, -1132.6299467837748, -1133.591071795353, -1132.3840775947665, -1135.3568596073223, -1137.9943654530484, -1135.5803770518753, -1136.005060196526, -1135.0662869294033, -1135.7591910075178, -1133.9710514510932, -1130.9312142051715, -1135.7144875186073, -1136.4744468300876, -1139.044897442448, -1142.5541213219312, -1148.4549818581322, -1151.2489499150456, -1154.8028772834393, -1160.9943104975594, -1164.682348332685, -1171.2314094580902, -1175.3888339267771, -1181.1108805073359, -1183.7260346086068, -1185.6035811428526, -1191.7056073791514, -1195.1924795141792, -1194.2090027581457, -1198.5452411824754, -1199.2381452605898, -1202.1662237842352, -1202.8367761178943, -1198.813462115939, -1197.360598726344, -1200.2216220166233, -1195.393645214277, -1196.3324184813998, -1194.3878167137882, -1197.9193923377268, -1199.2828487495005, -1196.913563837238, -1197.4500057041653, -1199.5287179385089, -1196.9806190706038, -1196.5782876704084, -1197.4723574486206, -1199.1934417716793, -1199.036979560492, -1198.6346481602966, -1197.718226637629, -1196.9359155816933, -1197.6958748931736, -1199.171090027224, -1196.6229911593189, -1194.231354502601, -1196.4665289481318, -1197.8076336154502, -1198.6346481602966, -1196.71239813714, -1197.5617644264419, -1195.751273125562, -1195.8406801033832, -1198.656999904752, -1197.4053022152546, -1194.6783893917072, -1195.751273125562, -1196.846508603872, -1197.6958748931736, -1197.4053022152546, -1200.2216220166233, -1201.2721540060227, -1201.7415406395842, -1198.4781859491095, -1198.656999904752, -1196.198308014668, -1199.5287179385089, -1197.0923777928804, -1196.9582673261484, -1197.6288196598077, -1199.7522353830618, -1203.0155900735367, -1199.9981045720704, -1198.366427226833, -1203.61908717383, -1206.3459999973775, -1209.452892476665, -1200.8251191169165, -1198.2099650156458, -1202.3450377398776, -1202.3226859954223, -1201.652133661763, -1202.1215202953244, -1204.043770318481, -1203.7084941516512, -1204.5131569520422, -1204.3790464853105, -1202.814424373439, -1201.003933072559, -1200.3333807389, -1202.5014999510647, -1206.681276164207, -1205.3848749857993, -1203.4626249626428, -1202.9485348401709, -1203.61908717383, -1204.4013982297658, -1200.6686569057294, -1201.6074301728524, -1201.4956714505759, -1206.0554273194584, -1205.2954680079781, -1201.1156917948356, -1201.6297819173076, -1202.881479606805, -1204.3566947408551, -1203.686142407196, -1202.233279017601, -1201.8980028507713, -1202.2556307620564, -1205.071950563425, -1204.2225842741234, -1205.1613575412462, -1204.8037296299613, -1204.9601918411483, -1203.552031940464, -1203.9990668295702, -1203.8202528739278, -1204.5131569520422, -1204.2449360185785, -1203.1720522847238, -1201.1156917948356, -1201.8756511063161, -1202.3226859954223, -1201.0486365614697, -1203.2838110070004, -1203.7308458961065, -1201.6744854062183, -1204.1108255518468, -1202.9932383290814, -1202.233279017601, -1202.7250173956177, -1203.8426046183831, -1204.848433118872, -1211.8892326222935, -1211.4869012220981, -1196.5335841814976, -1191.6162004013302, -1187.2799619770005, -1182.2061159856457, -1175.9476275381598, -1168.1468687232577, -1162.6036360983417, -1158.0662319739142, -1152.5453510934533, -1148.1420574357578, -1144.3199091339004, -1138.9554904646268, -1139.0001939535373, -1135.6697840296965, -1135.7368392630624, -1136.2732811299898, -1137.0779439303808, -1138.5084555755207, -1137.010888697015, -1134.3733828512886, -1135.043935184948, -1136.1615224077134, -1136.0721154298922, -1139.3131183759117, -1135.4462665851436, -1135.0662869294033, -1131.1547316497245, -1132.585243294864, -1135.3792113517775, -1132.4511328281324, -1135.043935184948, -1136.0497636854368, -1137.3908683527552, -1134.8427694848501, -1134.395734595744, -1133.524016561987, -1135.2674526295011, -1136.787371252462, -1140.0283741984815, -1140.1177811763027, -1137.815551497406, -1134.3286793623781, -1133.9039962177274, -1135.692135774152, -1136.5415020634534, -1134.2169206401015, -1137.4355718416657, -1137.5696823083977, -1134.1945688956462, -1133.8369409843613, -1133.9263479621825, -1134.3286793623781, -1136.139170663258, -1134.6639555292077, -1134.8427694848501, -1134.753362507029, -1130.8418072273503, -1132.8311124838726, -1137.010888697015, -1133.9039962177274, -1133.1440369062468, -1135.490970074054, -1137.0555921859257, -1135.982708452071, -1132.786408994962, -1131.3558973498223, -1134.0157549400037, -1133.591071795353, -1133.8369409843613, -1136.0721154298922, -1136.8320747413725, -1134.395734595744, -1131.3558973498223, -1133.5016648175317, -1135.0662869294033, -1134.038106684459, -1134.4851415735652, -1132.27231887249, -1131.1547316497245, -1134.0604584289144, -1133.1663886507022, -1134.820417740395, -1134.2839758734674, -1132.3170223614004, -1128.785446737462, -1127.8913769592498, -1130.1489031492356, -1130.3947723382441, -1133.8369409843613, -1133.3228508618893, -1130.2159583826017, -1129.6348130267636, -1131.8923392167496, -1130.7076967606183, -1131.1994351386352, -1134.105161917825, -1133.3228508618893, -1132.585243294864, -1134.7086590181184, -1132.9875746950597, -1130.8641589718056, -1132.942871206149, -1133.7698857509954, -1133.725182262085, -1133.3675543508, -1131.3558973498223, -1133.0993334173363, -1132.3617258503111, -1129.590109537853, -1129.4783508155765, -1128.9642606931045, -1128.65133627073, -1126.170292636191, -1131.4676560720989, -1130.9088624607161, -1131.6017665388306, -1132.4958363170429, -1131.780580494473, -1131.8252839833838, -1134.7086590181184, -1133.1663886507022, -1132.3393741058558, -1130.171254893691, -1129.947737449138, -1133.3675543508, -1133.0322781839702, -1134.4851415735652, -1131.6017665388306, -1132.8758159727831, -1132.4958363170429, -1131.5123595610094, -1130.2159583826017, -1131.4900078165542, -1132.428781083677, -1129.4559990711211, -1131.780580494473, -1130.9982694385374, -1130.2606618715122, -1131.6911735166518, -1133.4793130730764, -1129.5677577933977, -1129.3665920933, -1129.6795165156743, -1129.7018682601295, -1130.7971037384395, -1130.9088624607161, -1130.1936066381463, -1130.7747519939844, -1129.1877781376575, -1132.6075950393194, -1131.0876764163586, -1130.5512345494312, -1133.7922374954508, -1133.6581270287188, -1131.4900078165542, -1131.758228750018, -1131.4229525831881, -1128.8972054597384, -1129.5677577933977, -1132.4734845725877, -1131.9593944501155, -1129.4112955822106, -1129.8583304713168, -1131.4900078165542, -1132.27231887249, -1131.333545605367, -1127.7349147480625, -1126.4385135696548, -1125.075057157881, -1127.5337490479649, -1128.7630949930067, -1131.0876764163586, -1131.1323799052693, -1129.7465717490402, -1128.5172258039984, -1128.852501970828, -1129.0983711598362, -1128.5395775484535, -1128.4054670817218, -1131.2441386275457, -1133.0993334173363, -1134.5074933180206, -1131.780580494473, -1129.9700891935931, -1130.3500688493334, -1130.305365360423, -1130.595938038342, -1128.9195572041938, -1128.2490048705347, -1130.4394758271546, -1133.6581270287188, -1131.0876764163586, -1130.3724205937888, -1132.585243294864, -1130.5735862938866, -1131.6464700277413, -1133.009926439515, -1130.9088624607161, -1130.975917694082, -1131.8252839833838, -1131.5347113054647, -1128.6960397596408, -1131.4900078165542, -1130.6853450161632, -1130.7076967606183, -1132.071153172392, -1129.590109537853, -1126.2596996140123, -1124.493911802043, -1129.8583304713168, -1133.0322781839702, -1134.5074933180206, -1132.6970020171407, -1134.820417740395, -1132.3840775947665, -1130.5735862938866, -1134.7980659959396, -1137.592034052853, -1133.4346095841659, -1131.914690961205, -1130.4841793160654, -1132.8311124838726, -1129.8583304713168, -1128.1595978927135, -1131.4229525831881, -1133.74753400654, -1133.009926439515, -1134.7980659959396, -1133.2557956285234, -1133.0993334173363, -1132.2276153835792, -1131.3111938609118, -1132.562891550409, -1134.1275136622803, -1133.881644473272, -1134.395734595744, -1133.5687200508976, -1132.0488014279367, -1133.0546299284256, -1132.8087607394173, -1132.8087607394173, -1135.3792113517775, -1133.9934031955486, -1135.4015630962328, -1132.0264496834816, -1132.5181880614982, -1134.239272384557, -1132.138208405758, -1131.8699874722943, -1132.719353761596, -1132.0935049168475, -1130.2159583826017, -1129.4112955822106, -1133.2557956285234, -1134.9321764626714, -1134.6639555292077, -1133.3899060952551, -1133.3675543508, -1131.6911735166518, -1132.585243294864, -1131.5347113054647, -1131.7135252611072, -1128.8972054597384, -1130.9088624607161, -1136.8991299747383, -1136.7426677635513, -1133.0993334173363, -1129.4783508155765, -1127.1314176477692, -1126.8408449698502], [-3990.8592690061655, -3990.1887166725064, -3992.1109666956627, -3994.7484725413888, -3998.6600278210676, -3992.669760307045, -3986.7912515152993, -3984.6901875365006, -3984.3996148585816, -3981.5385915683023, -3978.096422922185, -3983.0808619357185, -3984.287856136305, -3984.198449158484, -3986.8583067486657, -3988.422928860537, -3983.6620072915566, -3984.7348910254113, -3991.5968765731905, -3987.797080015788, -3984.1760974140284, -3982.611475302157, -3983.5949520581908, -3983.0585101912634, -3984.64548404759, -3987.126527682129, -3984.6901875365006, -3985.226629403428, -3985.4054433590704, -3980.3763008566266, -3982.164440413051, -3983.639655547101, -3980.555114812269, -3980.197486900984, -3980.26454213435, -3981.203315401473, -3979.5716380562353, -3980.935094468009, -3983.2149724024503, -3981.940922968498, -3987.394748615593, -3988.5570393272687, -3991.8203940177436, -3987.0147689598525, -3986.3218648817383, -3987.797080015788, -3988.4676323494477, -3986.7912515152993, -3986.6347893041125, -3992.7591672848666, -3996.1119289531625, -3995.7319492974225, -3990.5463445837913, -3985.3383881257046, -3992.8485742626876, -3993.7873475298106, -3987.7300247824223, -3988.802908516277, -3989.428757361026, -3989.6969782944893, -3988.9817224719195, -3986.098347437185, -3984.4443183474923, -3991.060434706263, -3991.730987039922, -3989.3393503832044, -3990.166364928051, -3993.36266438516, -3999.419987132548, -3998.7941382877993, -4000.3140569107604, -4002.795100545299, -4003.063321478763, -4003.867984279154, -4000.9622574999644, -4002.0574929782742, -4009.254754692883, -4008.092463981207, -4010.6629145935676, -4012.0487227497965, -4010.4393971490144, -4010.327638426738, -4010.2158797044613, -4007.8018913032884, -4010.1488244710954, -4008.070112236752, -4011.869908794154, -4011.847557049699, -4016.2732024518496, -4022.3752286881486, -4018.2625077083717, -4021.6599728655788, -4024.811568833777, -4026.487949667925, -4029.1478072581062, -4034.959260816486, -4032.2994032263045, -4033.193473004517, -4034.13224627164, -4037.641470151123, -4033.998135804908, -4034.13224627164, -4039.898996341109, -4039.7201823854666, -4039.3625544741817, -4039.586071918735, -4039.22844400745, -4039.0496300518075, -4038.580243418246, -4038.1555602735953, -4037.3732492176596, -4035.071019538763, -4032.5452724153133, -4039.295499240816, -4040.770714374866, -4037.574414917757, -4039.3625544741817, -4041.776542875355, -4039.451961452003, -4037.641470151123, -4040.0107550633857, -4042.89413009812, -4043.4082202205923, -4039.4743131964583, -4047.5656446892795, -4046.962147588986, -4044.5705109322685, -4044.3469934877153, -4042.804723120299, -4045.7551533884, -4048.6608801675893, -4048.772638889866, -4054.1817610480502, -4050.51607495738, -4049.353784245704, -4052.3042145138047, -4049.666708668078, -4046.716278399978, -4051.4995517134134, -4054.1817610480502, -4056.3275285157597, -4060.2614355398937, -4058.9426826170306, -4059.2332552949497, -4060.2167320509834, -4060.775525662366, -4064.8435431532316, -4068.4421740105363, -4069.0233193663744, -4069.738575188944, -4066.229351309461, -4072.9125229015976, -4071.861990912198, -4069.9844443779525, -4069.6491682111227, -4070.6773484560667, -4070.856162411709, -4075.192400836039, -4076.3099880588043, -4071.929046145564, -4069.850333911221, -4069.224485066472, -4077.584037492757, -4075.8182496807876, -4073.5607234908016, -4074.030110124363, -4074.3653862911924, -4073.761889190899, -4072.9572263905084, -4076.868781670187, -4076.4888020144467, -4073.0242816238742, -4072.0855083567512, -4076.5335055033574, -4075.415918280592, -4072.219618823483, -4076.1088223587067, -4078.4334037820586, -4075.639435725145, -4075.5947322362344, -4076.5558572478126, -4076.421746781081, -4076.1088223587067, -4078.7910316933435, -4079.059252626807, -4078.7910316933435, -4076.1535258476174, -4074.410089780103, -4071.3255490452707, -4070.2750170558716, -4076.2205810809833, -4078.321645059782, -4077.6287409816673, -4081.3391305612486, -4079.260418326905, -4077.226409581472, -4075.192400836039, -4074.8794764136646, -4073.136040346151, -4076.421746781081, -4082.322607317282, -4082.926104417575, -4080.6238747386788, -4079.8415636827426, -4078.2322380819605, -4077.2711130703824, -4081.964979405997, -4079.3051218158153, -4223.719742741554, -4229.195920133105, -4228.704181755088, -4223.6303357637335, -4219.02587640594, -4225.418475320158, -4227.430132321136, -4224.904385197686, -4223.138597385717, -4223.451521808091, -4226.804283476386, -4227.318373598859, -4227.2066148765825, -4221.484568296024, -4218.735303728021, -4223.898556697197, -4224.055018908384, -4224.278536352937, -4223.831501463831, -4226.178434631638, -4223.652687508188, -4227.810111976875, -4229.195920133105, -4224.367943330758, -4222.557452029879, -4223.295059596903, -4221.775140973943, -4218.243565350004, -4217.863585694264, -4217.573013016345, -4218.847062450297, -4220.50109153999, -4223.965611930563, -4222.780969474432, -4223.540928785912, -4226.804283476386, -4223.451521808091, -4219.919946184153, -4219.316449083859, -4222.490396796513, -4224.971440431052, -4220.434036306624, -4219.942297928607, -4218.914117683664, -4220.434036306624, -4220.88107119573, -4218.690600239111, -4220.545795028901, -4221.462216551568, -4220.478739795535, -4216.589536260311, -4217.640068249711, -4222.602155518789, -4223.049190407895, -4220.992829918007, -4216.634239749222, -4218.578841516834, -4219.0482281503955, -4216.701294982588, -4217.729475227532, -4224.680867753133, -4221.7527892294875, -4220.031704906429, -4216.790701960409, -4212.432111791624, -4212.633277491722, -4217.640068249711, -4219.159986872672, -4219.316449083859, -4220.188167117616, -4218.377675816736, -4216.902460682686, -4219.316449083859, -4217.573013016345, -4215.628411248733, -4219.8752426952415, -4222.602155518789, -4224.345591586303, -4218.31062058337, -4214.935507170619, -4213.683809481122, -4213.281478080926, -4213.437940292113, -4213.661457736666, -4219.9870014175185, -4226.089027653817, -4221.909251440675, -4216.366018815758, -4213.572050758845, -4215.6954664821, -4214.510824025968, -4215.360190315269, -4213.907326925674, -4212.543870513901, -4215.807225204376, -4219.808187461876, -4221.417513062658, -4221.261050851471, -4219.0482281503955, -4216.12014962675, -4215.159024615172, -4212.677980980633, -4211.895669924697, -4211.605097246778, -4214.242603092504, -4216.343667071303, -4217.327143827337, -4221.149292129194, -4218.712951983565, -4213.348533314292, -4211.336876313314, -4210.867489679753, -4209.504033267979, -4209.16875710115, -4211.694504224599, -4220.277574095438, -4220.858719451275, -4220.1658153731605, -4214.019085647951, -4211.538042013412, -4210.263992579459, -4211.091007124306, -4212.342704813803, -4210.956896657574, -4209.369922801247, -4211.538042013412, -4215.673114737644, -4213.013257147462, -4211.448635035591, -4212.722684469543, -4210.778082701931, -4209.481681523524, -4211.582745502323, -4213.370885058747, -4216.276611837937, -4213.1250158697385, -4211.716855969054, -4214.376713559236, -4214.443768792602, -4212.879146680731, -4209.6604954791665, -4209.816957690354, -4210.867489679753, -4210.487510024012, -4211.448635035591, -4213.773216458942, -4215.181376359627, -4215.2931350819035, -4216.030742648929, -4215.851928693286, -4216.701294982588, -4219.40585606168, -4222.110417140772, -4223.719742741554, -4226.983097432029, -4228.055981165884, -4227.743056743509, -4223.607984019278, -4221.9316031851295, -4222.400989818691, -4227.832463721331, -4233.286289368426, -4230.2017486335935, -4224.971440431052, -4220.434036306624, -4221.573975273845, -4220.389332817714, -4221.484568296024, -4225.351420086792, -4228.592423032811, -4226.491359054013, -4224.12207414175, -4229.821768977853, -4230.000582933496, -4229.866472466764, -4228.16773988816, -4227.497187554502, -4228.681830010632, -4228.346553843803, -4227.765408487965, -4229.620603277755, -4232.101646912294, -4232.995716690507, -4231.498149812001, -4228.9724026885515, -4227.8548154657865, -4226.200786376094, -4226.580766031833, -4229.330030599836, -4232.7274957570435, -4232.056943423384, -4229.754713744487, -4229.151216644194, -4230.715838756066, -4235.74498125851, -4235.74498125851, -4237.242548137016, -4234.582690546834, -4230.827597478342, -4228.234795121526, -4224.636164264222, -4225.686696253621, -4229.2629753664705, -4228.88299571073, -4227.787760232421, -4230.112341655772, -4234.068600424362, -4234.090952168817, -4231.341687600814, -4229.710010255577, -4232.772199245954, -4238.3601353597805, -4239.254205137992, -4236.12496091425, -4233.330992857336, -4234.336821357825, -4234.850911480297, -4235.476760325046, -4240.2376818940265, -4242.226987150549, -4238.427190593146, -4234.672097524654, -4233.621565535255, -4237.533120814935, -4239.567129560367, -4236.102609169795, -4234.850911480297, -4231.676963767643, -4234.9626702025735, -4240.5506063164, -4243.2328156510375, -4238.896577226707, -4234.180359146638, -4232.571033545856, -4235.879091725242, -4236.281423125437, -4235.923795214152, -4233.487455068524, -4233.509806812979, -4234.158007402183, -4235.119132413761, -4234.403876591191, -4235.119132413761, -4234.225062635549, -4236.169664403161, -4236.348478358803, -4235.633222536233, -4235.9014434696965, -4239.589481304823, -4238.31543187087, -4235.566167302867, -4236.929623714641, -4238.427190593146, -4236.0132021919735, -4234.359173102281, -4235.163835902672, -4236.080257425339, -4234.672097524654, -4232.0792951678395, -4233.107475412783, -4235.40970509168, -4236.102609169795, -4233.465103324068, -4233.688620768621, -4235.812036491876, -4233.465103324068, -4234.470931824557, -4233.062771923873, -4232.213405634571, -4232.146350401205, -4231.989888190018, -4232.50397831249, -4231.945184701108, -4233.8450829798085, -4232.235757379027, -4230.402914333691, -4231.3193358563585, -4228.547719543901, -4229.285327110926, -4228.525367799445, -4226.066675909362, -4224.457350308579, -4225.440827064613, -4222.624507263245, -4218.824710705842, -4219.361152572769, -4218.601193261289, -4217.684771738622, -4214.220251348049, -4213.92967867013, -4217.371847316247, -4218.556489772379, -4219.428207806135, -4219.562318272868, -4220.1658153731605, -4220.054056650884, -4219.9870014175185, -4217.081274638328, -4219.607021761778, -4213.795568203398, -4211.202765846582, -4215.606059504278, -4219.249393850493, -4221.909251440675, -4217.975344416541, -4217.908289183175, -4221.953954929585, -4221.261050851471, -4218.601193261289, -4217.416550805157, -4221.193995618105, -4223.987963675018, -4219.450559550591, -4216.857757193775, -4216.030742648929, -4216.366018815758, -4220.45638805108, -4222.624507263245, -4223.116245641261, -4220.277574095438, -4219.808187461876, -4222.892728196708, -4223.451521808091, -4227.0948561543055, -4228.592423032811, -4219.8752426952415, -4215.136672870716, -4217.036571149418, -4217.125978127239, -4218.824710705842, -4221.261050851471, -4220.925774684641, -4220.590498517811, -4217.081274638328, -4213.952030414585, -4218.26591709446, -4220.8140159623645, -4220.45638805108, -4222.959783430074, -4221.037533406918, -4220.411684562169, -4220.054056650884, -4224.680867753133, -4223.74209448601, -4216.321315326848, -4214.6449344927, -4218.489434539012, -4219.428207806135, -4214.801396703887, -4212.275649580437, -4220.389332817714, -4226.334896842825, -4227.8548154657865, -4219.897594439697, -4213.661457736666, -4213.907326925674, -4217.327143827337, -4218.869414194753, -4216.075446137839, -4216.366018815758, -4217.528309527434, -4214.935507170619, -4214.130844370227, -4218.735303728021, -4221.439864807113, -4221.886899696219, -4224.725571242043, -4224.524405541945, -4215.717818226554, -4212.745036213999, -4218.891765939208, -4225.530234042434, -4217.260088593971, -4212.789739702909, -4217.461254294069, -4220.948126429096, -4215.539004270912, -4209.436978034613, -4210.621620490744, -4215.449597293091, -4216.768350215954, -4217.438902549613, -4219.137635128216, -4220.702257240088, -4221.953954929585, -4218.489434539012, -4210.532213512924, -4212.700332725088, -4215.874280437742, -4214.287306581415, -4213.21442284756, -4217.014219404962, -4222.177472374138, -4219.383504317225, -4214.533175770423, -4215.494300782001, -4217.260088593971, -4217.5953647608, -4216.187204860116, -4214.421417048146, -4215.203728104082, -4215.539004270912, -4214.399065303692, -4217.036571149418, -4217.438902549613, -4219.361152572769, -4217.863585694264, -4218.869414194753, -4217.416550805157, -4216.142501371205, -4216.522481026946, -4214.622582748244, -4217.684771738622, -4219.718780484054, -4219.294097339403, -4218.377675816736, -4218.154158372183, -4216.2319083490265, -4215.851928693286, -4216.768350215954, -4217.461254294069, -4218.131806627727, -4217.282440338426, -4216.924812427141, -4215.315486826359, -4218.332972327826, -4217.885937438719, -4217.1706816161495, -4219.204690361582, -4221.261050851471, -4221.886899696219, -4222.35628632978, -4221.372809573747, -4217.684771738622, -4215.628411248733, -4213.057960636373, -4217.5953647608, -4221.775140973943, -4221.238699107015, -4221.730437485032, -4221.261050851471, -4218.578841516834, -4219.942297928607, -4219.159986872672, -4214.846100192797, -4218.958821172574, -4222.669210752155, -4219.271745594949, -4215.516652526457, -4217.796530460898, -4222.155120629683, -4219.607021761778, -4217.684771738622, -4219.607021761778, -4227.608946276778, -4225.843158464809, -4219.137635128216, -4220.031704906429, -4222.490396796513, -4224.770274730954, -4220.434036306624, -4212.655629236177, -4213.572050758845, -4215.136672870716, -4215.807225204376, -4217.774178716442, -4223.451521808091, -4225.016143919962, -4223.607984019278, -4221.5963270183, -4219.6964287395995, -4219.517614783957, -4220.255222350982, -4220.344629328803, -4219.629373506234, -4219.942297928607, -4221.126940384739, -4221.462216551568, -4223.8091497193755, -4225.284364853426, -4226.625469520744, -4223.384466574725, -4222.803321218887, -4222.669210752155, -4220.903422940186, -4222.669210752155, -4224.323239841848, -4223.339763085814, -4222.021010162951, -4226.759579987476, -4224.479702053035, -4219.584670017322, -4220.277574095438, -4224.88203345323, -4225.351420086792, -4221.64103050721, -4219.852890950786, -4223.652687508188, -4223.719742741554, -4223.429170063636, -4223.496225297002, -4224.524405541945, -4223.898556697197, -4224.524405541945, -4225.9772689315405, -4226.133731142728, -4221.2834025959255, -4219.897594439697, -4220.009353161973, -4217.952992672085, -4222.780969474432, -4225.3290683423365, -4223.250356107993, -4223.786797974921, -4221.55162352939, -4221.864547951764, -4220.277574095438, -4217.528309527434, -4216.45542579358, -4218.780007216931, -4222.177472374138, -4220.12111188425, -4218.020047905451, -4222.937431685618, -4222.445693307602, -4215.673114737644, -4214.287306581415, -4218.064751394361, -4220.434036306624, -4224.278536352937, -4225.440827064613, -4221.730437485032, -4218.645896750199, -4214.957858915074, -4214.332010070326, -4215.091969381806, -4216.164853115661, -4218.2882688389145, -4223.228004363537, -4223.362114830269, -4216.857757193775, -4217.707123483076]]
[[-1136.6085572968195, -1137.5473305639423, -1136.1168189188027, -1132.8311124838726, -1135.0662869294033, -1134.686307273663, -1130.1936066381463, -1130.7971037384395, -1137.5473305639423, -1134.820417740395, -1131.624118283286, -1132.5405398059536, -1133.5463683064424, -1132.4958363170429, -1132.9875746950597, -1133.9934031955486, -1134.172217151191, -1134.3063276179228, -1133.4793130730764, -1133.5016648175317, -1132.8087607394173, -1133.2110921396127, -1132.6522985282302, -1130.0371444269592, -1132.6746502726853, -1135.5133218185094, -1133.7922374954508, -1133.6134235398083, -1133.9263479621825, -1135.3121561184116, -1133.8592927288166, -1134.3733828512886, -1131.3111938609118, -1132.0040979390262, -1131.8699874722943, -1133.5016648175317, -1132.8758159727831, -1130.8418072273503, -1131.3558973498223, -1132.4734845725877, -1131.9593944501155, -1134.6639555292077, -1131.758228750018, -1130.5512345494312, -1130.305365360423, -1132.0935049168475, -1130.6853450161632, -1131.266490372001, -1135.17804565168, -1133.4122578397105, -1130.0371444269592, -1128.852501970828, -1133.524016561987, -1135.8262462408836, -1133.1663886507022, -1128.6289845262747, -1130.2606618715122, -1130.305365360423, -1130.0594961714144, -1128.6289845262747, -1129.880682215772, -1130.752400249529, -1133.2557956285234, -1133.4793130730764, -1135.6474322852412, -1130.9535659496269, -1128.8301502263726, -1134.9545282071267, -1133.6804787731742, -1131.8476357278391, -1131.0653246719032, -1131.266490372001, -1132.8087607394173, -1130.9982694385374, -1130.2830136159675, -1132.1158566613028, -1132.428781083677, -1134.1498654067357, -1134.46278982911, -1132.942871206149, -1135.334507862867, -1135.5356735629648, -1133.3899060952551, -1132.27231887249, -1133.4569613286212, -1133.8369409843613, -1132.4734845725877, -1131.042972927448, -1133.2781473729788, -1133.3228508618893, -1131.1323799052693, -1132.0040979390262, -1134.172217151191, -1132.3170223614004, -1133.0322781839702, -1132.071153172392, -1127.1537693922246, -1132.138208405758, -1132.3170223614004, -1130.9088624607161, -1132.5405398059536, -1133.3899060952551, -1132.9205194616939, -1131.4676560720989, -1131.7135252611072, -1133.725182262085, -1132.071153172392, -1129.4112955822106, -1129.0760194153809, -1130.9982694385374, -1134.2169206401015, -1133.7028305176295, -1134.1498654067357, -1133.7922374954508, -1132.3840775947665, -1129.3218886043894, -1131.8476357278391, -1134.6416037847525, -1133.076981672881, -1131.4900078165542, -1128.2490048705347, -1126.237347869557, -1126.0585339139145, -1127.8913769592498, -1128.1148944038027, -1128.137246148258, -1130.2830136159675, -1132.1605601502133, -1130.3500688493334, -1133.591071795353, -1134.7757142514843, -1133.4346095841659, -1131.1547316497245, -1133.881644473272, -1131.9370427056604, -1133.4793130730764, -1133.1216851617914, -1134.4404380846547, -1133.0993334173363, -1132.4734845725877, -1132.205263639124, -1129.9030339602273, -1129.7018682601295, -1131.8252839833838, -1132.7640572505065, -1130.1936066381463, -1131.2888421164564, -1133.3228508618893, -1132.562891550409, -1132.3170223614004, -1135.5133218185094, -1135.1556939072245, -1133.0322781839702, -1129.590109537853, -1128.8077984819172, -1131.8029322389284, -1131.7358770055625, -1132.0040979390262, -1132.585243294864, -1130.0147926825039, -1125.9914786805487, -1131.3782490942776, -1135.3792113517775, -1133.2110921396127, -1132.9875746950597, -1132.0040979390262, -1132.6522985282302, -1133.233443884068, -1131.4900078165542, -1131.9370427056604, -1131.9370427056604, -1133.7028305176295, -1134.172217151191, -1134.038106684459, -1132.942871206149, -1131.7135252611072, -1131.9817461945709, -1133.7922374954508, -1135.6027287963307, -1133.725182262085, -1133.9934031955486, -1132.0935049168475, -1133.591071795353, -1134.9321764626714, -1135.4462665851436, -1133.4346095841659, -1134.2616241290123, -1132.3170223614004, -1134.7310107625738, -1134.8427694848501, -1132.4734845725877, -1133.4569613286212, -1130.2383101270568, -1127.846673470339, -1130.2159583826017, -1134.529845062476, -1132.9875746950597, -1129.9253857046826, -1128.8972054597384, -1131.0206211829927, -1132.4734845725877, -1129.9030339602273, -1130.9312142051715, -1132.6299467837748, -1130.3947723382441, -1132.8087607394173, -1131.5794147943755, -1132.0264496834816, -1134.0828101733698, -1132.1605601502133, -1130.8641589718056, -1130.6406415272525, -1134.395734595744, -1133.9486997066379, -1132.2499671280345, -1133.0993334173363, -1132.7640572505065, -1129.7912752379507, -1134.4404380846547, -1133.2110921396127, -1132.205263639124, -1129.5677577933977, -1132.4958363170429, -1136.2509293855346, -1136.8544264858278, -1138.8437317423502, -1135.7368392630624, -1133.9486997066379, -1134.686307273663, -1133.4122578397105, -1134.4404380846547, -1137.2791096304786, -1136.8767782302832, -1138.2849381309675, -1135.9603567076156, -1133.5463683064424, -1139.0896009313585, -1137.6814410306743, -1134.8874729737609, -1135.17804565168, -1136.3179846189005, -1136.943833463649, -1132.205263639124, -1137.4132200972106, -1138.7319730200736, -1135.9156532187048, -1136.1615224077134, -1139.4919323315542, -1138.2402346420567, -1136.9661852081044, -1135.490970074054, -1134.7310107625738, -1129.6795165156743, -1132.3617258503111, -1132.9875746950597, -1131.4453043276435, -1130.5735862938866, -1131.9817461945709, -1135.0886386738587, -1134.5074933180206, -1135.625080540786, -1136.0721154298922, -1133.3899060952551, -1129.7465717490402, -1132.205263639124, -1135.3792113517775, -1133.7698857509954, -1131.8476357278391, -1131.758228750018, -1131.3558973498223, -1132.1158566613028, -1130.9535659496269, -1132.0040979390262, -1131.4900078165542, -1133.009926439515, -1133.6581270287188, -1132.9875746950597, -1131.9593944501155, -1132.9205194616939, -1129.590109537853, -1129.8359787268614, -1129.7018682601295, -1128.4501705706323, -1125.6114990248084, -1131.1770833941798, -1131.9370427056604, -1135.200397396135, -1137.74849626404, -1136.5191503189983, -1133.9263479621825, -1132.6299467837748, -1135.0215834404926, -1135.6027287963307, -1132.8758159727831, -1133.3899060952551, -1135.55802530742, -1134.7310107625738, -1134.2616241290123, -1134.4404380846547, -1136.2285776410793, -1135.0886386738587, -1131.9817461945709, -1133.6357752842637, -1135.6027287963307, -1133.3899060952551, -1132.0040979390262, -1134.529845062476, -1134.4404380846547, -1133.8369409843613, -1137.0779439303808, -1138.4190485976992, -1127.8913769592498, -1125.4550368136213, -1123.5774902793755, -1119.2189001105905, -1115.3744000642778, -1112.0216383959817, -1107.5065860160096, -1102.6339057247528, -1098.4094260226996, -1089.625190451764, -1083.2549432820015, -1079.6116089357865, -1078.851649624306, -1074.627169922253, -1072.5708094323647, -1072.0567193098927, -1063.563056416876, -1062.624283149753, -1063.7642221169738, -1063.9653878170716, -1065.977044818049, -1065.015919806471, -1063.6301116502418, -1063.9877395615267, -1065.1500302732027, -1062.981911061038, -1062.0654895383705, -1061.7749168604514, -1063.719518628063, -1065.820582606862, -1064.9712163175602, -1063.9653878170716, -1063.5854081613313, -1060.076184281848, -1063.3618907167781, -1065.1500302732027, -1069.1286407862474, -1067.6534256521973, -1063.9877395615267, -1063.0266145499486, -1066.334672729334, -1067.3405012298228, -1064.8594575952839, -1065.9993965625044, -1068.8380681083283, -1066.334672729334, -1067.4522599520994, -1069.3074547418898, -1069.9556553310938, -1068.5698471748647, -1071.5649809318759, -1067.4075564631887, -1066.0888035403257, -1066.6699488961635, -1067.7204808855631, -1069.7768413754513, -1070.6038559202977, -1069.240399508524, -1070.693262898119, -1069.8662483532726, -1065.4182512066664, -1066.0664517958703, -1068.1228122857585, -1069.2627512529793, -1070.335634986834, -1068.2345710080351, -1065.462954695577, -1066.6475971517084, -1066.2229140070574, -1065.820582606862, -1066.6699488961635, -1062.7360418720295, -1062.1325447717363, -1066.3793762182447, -1069.2851029974345, -1063.5854081613313, -1063.853629094795, -1065.9993965625044, -1066.9605215740826, -1066.044100051415, -1061.8643238382726, -1061.30553022689, -1063.5854081613313, -1064.0994982838033, -1066.2229140070574, -1065.4406029511217, -1062.624283149753, -1063.2501319945018, -1065.462954695577, -1064.5912366618202, -1061.8419720938173, -1062.8478005943061, -1065.7758791179513, -1066.5134866849764, -1064.9712163175602, -1065.4853064400324, -1068.0110535634822, -1063.9877395615267, -1064.725347128552, -1066.2452657515128, -1065.2617889954793, -1067.7651843744736, -1066.8711145962614, -1067.8992948412056, -1065.1947337621134, -1066.7370041295296, -1068.2122192635798, -1070.0227105644597, -1069.2180477640686, -1068.3239779858563, -1065.8652860957725, -1063.2948354834123, -1062.6689866386637, -1066.5358384294318, -1066.0888035403257, -1067.3628529742782, -1065.8429343513174, -1066.8934663407167, -1065.5523616733983, -1065.7535273734961, -1065.5970651623088, -1063.8312773503396, -1065.239437251024, -1064.4794779395436, -1065.4406029511217, -1064.5688849173648, -1065.0382715509263, -1066.915818085172, -1067.1840390186358, -1067.3852047187336, -1065.4853064400324, -1064.524181428454, -1064.2559604949904, -1064.8594575952839, -1065.3958994622112, -1061.6631581381748, -1057.818658091862, -1065.5523616733983, -1072.9060855991943, -1075.3200740003674, -1078.5387252019316, -1085.6465799387192, -1091.368626519278, -1093.3579317758004, -1101.4269115241661, -1102.9244784026716, -1107.8642139272945, -1113.429798296666, -1114.659144241708, -1121.7669989784956, -1125.432685069166, -1130.975917694082, -1135.2227491405904, -1134.7757142514843, -1135.8262462408836, -1132.8311124838726, -1133.8369409843613, -1134.9321764626714, -1134.395734595744, -1134.395734595744, -1133.4569613286212, -1136.2732811299898, -1135.8709497297943, -1130.819455482895, -1135.3568596073223, -1135.4015630962328, -1133.591071795353, -1134.2616241290123, -1137.949661964138, -1140.6765747876852, -1140.9671474656043, -1139.7601532650178, -1138.687269531163, -1136.3403363633558, -1136.5191503189983, -1137.3685166082998, -1137.144999163747, -1135.7144875186073, -1134.7310107625738, -1134.8874729737609, -1131.9370427056604, -1132.9652229506044, -1136.6085572968195, -1134.5969002958418, -1136.8320747413725, -1135.9380049631602, -1134.3733828512886, -1134.8651212293055, -1132.8311124838726, -1134.038106684459, -1139.0672491869032, -1136.206225896624, -1135.6027287963307, -1134.395734595744, -1134.1275136622803, -1133.4569613286212, -1133.0322781839702, -1133.2781473729788, -1137.0779439303808, -1141.6376997992636, -1133.1440369062468, -1127.9584321926156, -1128.1819496371686, -1130.2383101270568, -1131.9817461945709, -1133.1663886507022, -1131.9370427056604, -1131.110028160814, -1131.3558973498223, -1132.4734845725877, -1130.595938038342, -1127.980783937071, -1129.6795165156743, -1132.786408994962, -1133.5016648175317, -1131.8252839833838, -1128.9419089486491, -1128.9195572041938, -1127.1314176477692, -1126.9973071810375, -1125.879719958272, -1126.9302519476714, -1131.8699874722943, -1133.591071795353, -1134.9321764626714, -1134.6192520402972, -1134.5969002958418, -1134.976879951582, -1133.9263479621825, -1131.2888421164564, -1133.2557956285234, -1133.9934031955486, -1133.300499117434, -1135.2898043739563, -1132.8981677172385, -1130.4841793160654, -1130.9088624607161, -1129.008964182015, -1130.6853450161632, -1131.333545605367, -1129.6348130267636, -1130.3500688493334, -1132.1605601502133, -1130.5735862938866, -1130.3724205937888, -1135.043935184948, -1134.7310107625738, -1133.1440369062468, -1134.038106684459, -1129.5007025600319, -1131.4900078165542, -1132.0040979390262, -1131.4900078165542, -1130.595938038342, -1128.6289845262747, -1131.5123595610094, -1133.0993334173363, -1128.8972054597384, -1129.3665920933, -1130.3724205937888, -1130.5288828049759, -1131.2441386275457, -1128.8077984819172, -1127.55610079242, -1130.305365360423, -1131.758228750018, -1130.7076967606183, -1131.3111938609118, -1128.3831153372664, -1129.4336473266658, -1130.2606618715122, -1129.008964182015, -1127.8243217258837, -1129.2101298821128, -1128.7407432485513, -1130.171254893691, -1130.7971037384395, -1128.6066327818196, -1129.2101298821128, -1128.8972054597384, -1128.8077984819172, -1129.590109537853, -1126.684382758663, -1127.17612113668, -1128.6736880151855, -1130.305365360423, -1133.7698857509954, -1135.334507862867, -1133.6134235398083, -1130.6406415272525, -1130.0371444269592, -1129.813626982406, -1131.0206211829927, -1131.1994351386352, -1132.942871206149, -1133.7028305176295, -1132.1158566613028, -1131.758228750018, -1133.0546299284256, -1131.3782490942776, -1132.8087607394173, -1135.8933014742497, -1136.8991299747383, -1135.1556939072245, -1135.334507862867, -1131.914690961205, -1131.110028160814, -1132.1605601502133, -1132.8758159727831, -1134.395734595744, -1136.6979642746408, -1134.9321764626714, -1135.55802530742, -1134.395734595744, -1132.4734845725877, -1134.7086590181184, -1136.0944671743473, -1135.1109904183138, -1132.0488014279367, -1132.4734845725877, -1133.6134235398083, -1133.0993334173363, -1135.1109904183138, -1136.0721154298922, -1134.6192520402972, -1135.6027287963307, -1134.5521968069313, -1136.8544264858278, -1135.7144875186073, -1136.2732811299898, -1133.9934031955486, -1132.1605601502133, -1131.4900078165542, -1132.3840775947665, -1133.2781473729788, -1132.0488014279367, -1132.1829118946687, -1131.7358770055625, -1132.4064293392216, -1134.0604584289144, -1134.8874729737609, -1131.7358770055625, -1132.4734845725877, -1132.2946706169453, -1131.7135252611072, -1131.3111938609118, -1132.205263639124, -1134.0828101733698, -1133.1663886507022, -1133.6581270287188, -1133.7028305176295, -1130.3500688493334, -1131.8699874722943, -1133.3228508618893, -1133.5463683064424, -1136.3403363633558, -1137.0332404414703, -1133.9263479621825, -1132.4734845725877, -1134.1945688956462, -1135.1333421627692, -1132.8311124838726, -1131.914690961205, -1129.1877781376575, -1129.0536676709257, -1132.2499671280345, -1133.2557956285234, -1131.6688217721967, -1132.6299467837748, -1129.3889438377553, -1129.9700891935931, -1131.1547316497245, -1131.758228750018, -1133.5463683064424, -1135.4462665851436, -1132.585243294864, -1134.4404380846547, -1134.0157549400037, -1131.266490372001, -1132.6299467837748, -1132.4734845725877, -1133.9486997066379, -1133.4793130730764, -1131.1323799052693, -1131.6017665388306, -1131.110028160814, -1132.8311124838726, -1132.0935049168475, -1128.0701909148922, -1130.9088624607161, -1130.6406415272525, -1126.3491065918336, -1130.6629932717078, -1131.5347113054647, -1131.9370427056604, -1130.595938038342, -1129.880682215772, -1130.0818479158697, -1132.071153172392, -1133.2781473729788, -1133.7028305176295, -1130.3724205937888, -1126.8408449698502, -1129.7912752379507, -1133.881644473272, -1135.2898043739563, -1134.395734595744, -1133.1663886507022, -1129.3665920933, -1129.9030339602273, -1133.4793130730764, -1132.6299467837748, -1128.2490048705347, -1134.3286793623781, -1134.2616241290123, -1133.6134235398083, -1133.6804787731742, -1133.3675543508, -1135.6474322852412, -1133.1440369062468, -1130.5735862938866, -1128.5842810373642, -1128.9195572041938, -1131.758228750018, -1131.8476357278391, -1130.595938038342, -1130.3724205937888, -1129.8583304713168, -1132.6522985282302, -1134.1275136622803, -1130.6853450161632, -1132.0935049168475, -1135.5133218185094, -1133.4569613286212, -1133.591071795353, -1129.4559990711211, -1131.8252839833838, -1133.8145892399061, -1132.6522985282302], [-4200.362169785759, -4202.597344231289, -4202.172661086638, -4202.865565164753, -4202.999675631485, -4198.819899418342, -4198.819899418342, -4197.970533129041, -4198.126995340228, -4200.07159710784, -4202.016198875452, -4203.223193076038, -4202.954972142574, -4199.758672685465, -4199.825727918831, -4199.490451752002, -4199.825727918831, -4197.791719173399, -4201.278591308426, -4202.463233764557, -4198.0375883624065, -4199.2669343074485, -4205.950105899586, -4206.866527422253, -4200.87625990823, -4198.30580929587, -4200.250411063482, -4201.747977941987, -4199.982190130018, -4200.742149441498, -4201.815033175353, -4204.340780298803, -4202.664399464655, -4200.250411063482, -4199.982190130018, -4197.92582964013, -4198.596381973789, -4199.40104477418, -4200.272762807937, -4202.977323887029, -4203.223193076038, -4201.256239563971, -4197.054111606373, -4196.763538928454, -4198.68578895161, -4199.088120351806, -4201.5915157308, -4199.691617452099, -4198.797547673887, -4199.9151348966525, -4201.21153607506, -4202.195012831094, -4202.150309342183, -4199.602210474278, -4198.864602907253, -4200.988018630507, -4200.652742463678, -4196.897649395186, -4198.015236617951, -4199.289286051904, -4200.16100408566, -4197.724663940032, -4196.048283105884, -4197.232925562015, -4196.45061450608, -4198.797547673887, -4198.484623251513, -4194.058977849362, -4194.506012738468, -4195.265972049949, -4196.741187183999, -4198.529326740423, -4197.367036028747, -4198.059940106862, -4198.417568018147, -4194.97539937203, -4197.255277306471, -4199.691617452099, -4201.390350030702, -4202.9102686536635, -4202.30677155337, -4198.126995340228, -4196.003579616974, -4195.064806349851, -4193.656646449166, -4195.444786005591, -4196.249448805982, -4194.126033082728, -4195.489489494502, -4194.729530183021, -4199.512803496457, -4198.819899418342, -4193.880163893719, -4197.188222073105, -4199.959838385563, -4198.775195929432, -4196.897649395186, -4193.768405171443, -4197.232925562015, -4196.741187183999, -4196.137690083706, -4195.288323794403, -4194.550716227379, -4194.617771460745, -4195.0424546053955, -4198.082291851317, -4199.937486641108, -4196.741187183999, -4194.170736571638, -4194.215440060549, -4197.8587744067645, -4198.1493470846835, -4197.255277306471, -4194.148384827183, -4196.517669739445, -4197.188222073105, -4196.696483695088, -4195.333027283315, -4195.578896472322, -4196.025931361429, -4196.674131950633, -4199.490451752002, -4199.579858729823, -4195.467137750046, -4196.942352884096, -4197.8587744067645, -4196.07063485034, -4194.841288905298, -4192.82963190432, -4191.041492347896, -4195.176565072127, -4195.6906551945995, -4192.203783059572, -4198.171698829138, -4197.121166839739, -4195.802413916876, -4194.863640649753, -4192.516707481946, -4192.650817948677, -4195.109509838761, -4194.662474949655, -4193.969570871541, -4193.678998193622, -4192.159079570661, -4195.511841238957, -4197.970533129041, -4196.182393572616, -4194.550716227379, -4197.657608706666, -4198.9763616295295, -4194.26014354946, -4191.600285959278, -4197.143518584195, -4199.713969196555, -4197.367036028747, -4196.45061450608, -4196.428262761625, -4194.796585416387, -4198.886954651708, -4203.781986687421, -4201.166832586149, -4195.668303450144, -4193.209611560061, -4195.087158094306, -4194.438957505102, -4194.506012738468, -4195.198916816583, -4196.852945906276, -4197.0988150952835, -4197.411739517658, -4197.299980795381, -4196.45061450608, -4195.444786005591, -4196.003579616974, -4195.936524383607, -4191.823803403831, -4193.366073771247, -4195.847117405787, -4192.919038882142, -4195.578896472322, -4198.372864529236, -4198.0375883624065, -4195.847117405787, -4190.9967888589845, -4192.82963190432, -4194.506012738468, -4192.896687137686, -4194.349550527281, -4193.321370282337, -4194.841288905298, -4198.194050573594, -4198.015236617951, -4197.903477895675, -4197.948181384585, -4195.2212685610375, -4194.617771460745, -4194.774233671932, -4192.606114459767, -4189.92390512513, -4190.661512692155, -4195.377730772225, -4196.741187183999, -4198.194050573594, -4196.584724972811, -4193.388425515703, -4192.963742371052, -4193.54488772689, -4193.9248673826305, -4193.857812149264, -4191.06384409235, -4191.309713281359, -4193.991922615996, -4197.478794751024, -4196.003579616974, -4195.131861583217, -4197.299980795381, -4202.932620398119, -4202.574992486834, -4192.6955214375885, -4188.806317902365, -4192.740224926499, -4194.282495293915, -4190.549753969879, -4190.594457458789, -4196.696483695088, -4197.903477895675, -4196.249448805982, -4197.121166839739, -4193.54488772689, -4193.097852837784, -4194.461309249557, -4195.958876128063, -4191.667341192644, -4189.566277213845, -4191.868506892742, -4191.9355621261075, -4199.758672685465, -4203.245544820493, -4200.920963397141, -4195.377730772225, -4193.120204582239, -4194.506012738468, -4194.394254016192, -4194.729530183021, -4192.270838292938, -4193.254315048971, -4194.148384827183, -4195.064806349851, -4198.104643595772, -4198.0375883624065, -4197.679960451122, -4200.2057075745715, -4200.272762807937, -4197.232925562015, -4194.394254016192, -4195.243620305493, -4199.937486641108, -4198.954009885074, -4194.327198782826, -4195.109509838761, -4197.121166839739, -4199.959838385563, -4200.943315141597, -4199.110472096261, -4196.651780206177, -4201.189184330605, -4197.478794751024, -4196.741187183999, -4196.964704628552, -4194.438957505102, -4192.337893526304, -4191.868506892742, -4193.790756915898, -4195.40008251668, -4197.188222073105, -4192.717873182043, -4191.488527237002, -4194.729530183021, -4197.747015684487, -4195.422434261136, -4196.517669739445, -4197.903477895675, -4197.076463350829, -4193.343722026792, -4196.249448805982, -4197.165870328649, -4194.461309249557, -4195.9812278725185, -4195.780062172421, -4193.209611560061, -4194.9306958831185, -4194.684826694111, -4192.606114459767, -4191.9355621261075, -4193.567239471346, -4194.1036813382725, -4197.478794751024, -4198.283457551415, -4200.250411063482, -4197.5905534733, -4195.847117405787, -4194.1036813382725, -4194.461309249557, -4196.852945906276, -4195.802413916876, -4193.343722026792, -4193.790756915898, -4194.26014354946, -4199.713969196555, -4200.250411063482, -4195.601248216778, -4191.153251070172, -4189.990960358496, -4189.745091169488, -4191.041492347896, -4191.2873615369035, -4190.549753969879, -4188.739262668999, -4188.851021391275, -4193.231963304515, -4191.086195836806, -4191.197954559083, -4188.560448713356, -4187.6887306796, -4188.538096968901, -4189.20864930256, -4193.097852837784, -4192.516707481946, -4190.862678392253, -4187.0628818348505, -4184.380672500214, -4185.341797511792, -4187.308751023859, -4190.505050480968, -4192.181431315116, -4195.265972049949, -4191.667341192644, -4190.326236525326, -4191.086195836806, -4191.1085475812615, -4192.315541781848, -4192.494355737491, -4189.812146402854, -4189.54392546939, -4192.44965224858, -4191.73439642601, -4192.561410970857, -4195.578896472322, -4197.523498239934, -4198.0375883624065, -4194.148384827183, -4190.862678392253, -4187.644027190689, -4193.1649080711495, -4201.703274453077, -4198.6410854627, -4193.410777260158, -4194.014274360451, -4194.081329593817, -4193.947219127085, -4195.511841238957, -4194.371902271736, -4194.684826694111, -4198.462271507057, -4201.993847130996, -4201.5915157308, -4200.898611652686, -4202.038550619906, -4199.35634128527, -4198.1493470846835, -4198.68578895161, -4198.283457551415, -4200.630390719222, -4201.7926814308985, -4197.814070917853, -4197.121166839739, -4197.165870328649, -4193.678998193622, -4193.880163893719, -4196.942352884096, -4198.68578895161, -4196.674131950633, -4197.8587744067645, -4195.713006939055, -4193.656646449166, -4192.270838292938, -4190.907381881164, -4192.963742371052, -4194.617771460745, -4194.617771460745, -4198.238754062504, -4202.507937253468, -4197.5905534733, -4196.517669739445, -4193.008445859962, -4188.985131858008, -4188.627503946723, -4188.918076624641, -4187.867544635242, -4190.750919669977, -4194.953047627574, -4194.7518819274765, -4192.11437608175, -4193.723701682532, -4194.170736571638, -4191.7567481704655, -4192.337893526304, -4192.963742371052, -4193.276666793427, -4192.024969103929, -4191.130899325717, -4195.444786005591, -4199.043416862895, -4194.662474949655, -4191.265009792449, -4190.527402225423, -4192.650817948677, -4192.315541781848, -4190.281533036415, -4190.885030136708, -4193.880163893719, -4195.556544727868, -4193.835460404809, -4187.956951613063, -4188.1134138242505, -4190.482698736513, -4190.616809203245, -4190.750919669977, -4191.73439642601, -4194.014274360451, -4190.9967888589845, -4187.308751023859, -4187.644027190689, -4189.54392546939, -4190.482698736513, -4190.840326647798, -4189.655684191666, -4187.196992301582, -4185.230038789516, -4185.989998100996, -4188.180469057616, -4191.957913870563, -4193.455480749069, -4194.081329593817, -4190.192126058594, -4187.621675446234, -4189.767442913943, -4191.309713281359, -4190.549753969879, -4191.823803403831, -4189.096890580284, -4188.2922277798925, -4195.2212685610375, -4196.897649395186, -4194.394254016192, -4196.78589067291, -4194.953047627574, -4196.696483695088, -4197.411739517658, -4199.691617452099, -4203.111434353761, -4204.720759954544, -4205.033684376917, -4204.050207620884, -4206.397140788691, -4206.6430099777, -4205.368960543748, -4203.8490419207865, -4202.753806442476, -4202.373826786737, -4204.988980888007, -4208.922887912141, -4206.8441756777975, -4205.748940199487, -4204.407835532169, -4203.223193076038, -4204.385483787713, -4204.49724250999, -4203.8490419207865, -4203.558469242867, -4204.564297743356, -4204.720759954544, -4203.625524476233, -4201.367998286248, -4203.73728319851, -4204.296076809893, -4203.3796552872245, -4206.061864621862, -4202.776158186932, -4200.809204674864, -4202.753806442476, -4201.859736664264, -4200.697445952588, -4201.613867475256, -4201.010370374963, -4201.502108752979, -4201.770329686443, -4200.988018630507, -4200.049245363384, -4200.540983741401, -4199.535155240912, -4196.361207528259, -4196.674131950633, -4200.228059319027, -4204.7878151879095, -4206.933582655619, -4201.703274453077, -4197.568201728845, -4195.668303450144, -4198.082291851317, -4199.870431407742, -4198.1493470846835, -4197.523498239934, -4199.892783152197, -4200.250411063482, -4200.429225019125, -4198.439919762602, -4195.310675538859, -4195.9812278725185, -4200.764501185954, -4203.692579709599, -4199.35634128527, -4195.914172639153, -4195.333027283315, -4194.818937160842, -4196.137690083706, -4196.249448805982, -4199.311637796359, -4199.713969196555, -4197.009408117462, -4194.1036813382725, -4196.9200011396415, -4203.02202737594, -4202.843213420298, -4197.367036028747, -4198.082291851317, -4197.657608706666, -4195.914172639153, -4200.026893618929, -4202.127957597728, -4200.473928508035, -4198.194050573594, -4195.40008251668, -4193.120204582239, -4195.444786005591, -4201.949143642085, -4202.060902364362, -4200.0939488522945, -4200.630390719222, -4198.819899418342, -4198.462271507057, -4197.970533129041, -4198.26110580696, -4196.9200011396415, -4195.936524383607, -4195.936524383607, -4197.568201728845, -4196.741187183999, -4193.656646449166, -4192.382597015214, -4194.081329593817, -4199.490451752002, -4200.473928508035, -4195.556544727868, -4194.528364482923, -4194.662474949655, -4193.656646449166, -4194.997751116485, -4200.697445952588, -4197.255277306471, -4194.237791805004, -4194.327198782826, -4198.350512784781, -4203.40200703168, -4199.132823840717, -4195.489489494502, -4195.6906551945995, -4199.378693029725, -4198.596381973789, -4194.684826694111, -4191.555582470368, -4192.673169693133, -4194.014274360451, -4195.2212685610375, -4196.07063485034, -4196.584724972811, -4197.970533129041, -4191.846155148287, -4189.968608614041, -4194.483660994013, -4196.6294284617225, -4194.818937160842, -4190.549753969879, -4190.661512692155, -4197.299980795381, -4201.680922708621, -4195.780062172421, -4195.780062172421, -4195.623599961234, -4196.83059416182, -4199.713969196555, -4200.272762807937, -4197.299980795381, -4192.8743353932305, -4189.946256869585, -4190.549753969879, -4193.611942960256, -4197.836422662309, -4199.289286051904, -4198.26110580696, -4196.11533833925, -4192.2261348040265, -4191.220306303538, -4194.617771460745, -4195.333027283315, -4196.808242417364, -4197.679960451122, -4196.271800550438, -4194.97539937203, -4194.394254016192, -4193.433129004613, -4193.299018537881, -4194.573067971834, -4195.556544727868, -4195.422434261136, -4193.276666793427, -4191.086195836806, -4191.577934214823, -4192.784928415409, -4193.1649080711495, -4191.913210381653, -4196.294152294892, -4198.082291851317, -4196.07063485034, -4196.361207528259, -4200.026893618929, -4198.931658140619, -4193.656646449166, -4192.337893526304, -4193.54488772689, -4194.416605760647, -4198.529326740423, -4200.004541874474, -4197.992884873496, -4194.371902271736, -4194.729530183021, -4197.0988150952835, -4193.835460404809, -4194.282495293915, -4197.367036028747, -4195.601248216778, -4193.1649080711495, -4194.7518819274765, -4198.194050573594, -4202.016198875452, -4198.462271507057, -4193.567239471346, -4190.840326647798, -4192.069672592839, -4193.209611560061, -4194.327198782826, -4195.8694691502415, -4197.367036028747, -4196.271800550438, -4193.790756915898, -4195.109509838761, -4197.523498239934, -4196.562373228357, -4195.243620305493, -4195.556544727868, -4194.1036813382725, -4198.1493470846835, -4200.563335485856, -4195.556544727868, -4192.136727826206, -4193.053149348873, -4194.416605760647, -4193.701349938077, -4193.991922615996, -4195.131861583217, -4194.9306958831185, -4194.30484703837, -4192.404948759669, -4193.991922615996, -4195.265972049949, -4194.841288905298, -4197.344684284292, -4198.283457551415, -4197.165870328649, -4194.617771460745, -4194.237791805004, -4195.265972049949, -4194.953047627574, -4192.0473208483845, -4195.556544727868, -4198.417568018147, -4196.204745317072, -4193.343722026792, -4190.840326647798, -4192.0473208483845, -4195.556544727868, -4195.467137750046, -4191.980265615019, -4190.281533036415, -4191.823803403831, -4191.399120259181, -4192.472003993035, -4195.891820894697, -4198.015236617951, -4198.998713373985, -4198.015236617951, -4196.294152294892, -4195.2212685610375, -4195.802413916876, -4193.455480749069, -4188.739262668999, -4187.644027190689, -4190.795623158887, -4195.623599961234, -4194.327198782826, -4194.081329593817, -4195.668303450144, -4195.802413916876, -4193.835460404809, -4196.718835439544, -4195.444786005591, -4192.8743353932305, -4192.784928415409, -4191.421472003635, -4191.309713281359, -4192.337893526304, -4194.573067971834, -4192.807280159865, -4190.035663847407, -4192.673169693133, -4194.126033082728, -4192.9860941155075, -4191.667341192644, -4191.376768514725, -4190.482698736513, -4191.466175492546, -4190.661512692155, -4192.159079570661, -4192.11437608175, -4192.181431315116, -4191.421472003635, -4194.170736571638, -4193.880163893719, -4195.824765661331, -4197.076463350829]]
[[-1132.0040979390262, -1134.172217151191, -1134.6192520402972, -1134.5969002958418, -1133.9710514510932, -1132.7417055060514, -1131.8699874722943, -1130.6406415272525, -1128.8972054597384, -1131.758228750018, -1134.8427694848501, -1136.943833463649, -1136.6085572968195, -1136.7650195080066, -1135.17804565168, -1131.8029322389284, -1133.009926439515, -1132.942871206149, -1132.9875746950597, -1133.9486997066379, -1133.524016561987, -1133.2110921396127, -1133.2557956285234, -1132.562891550409, -1134.7310107625738, -1134.0828101733698, -1133.0993334173363, -1132.786408994962, -1133.3899060952551, -1137.2791096304786, -1136.2956328744451, -1129.4559990711211, -1131.758228750018, -1131.1323799052693, -1131.6017665388306, -1134.3286793623781, -1133.74753400654, -1130.9312142051715, -1131.5347113054647, -1132.3393741058558, -1132.0264496834816, -1131.55706304992, -1130.305365360423, -1131.4229525831881, -1132.942871206149, -1134.3510311068335, -1134.038106684459, -1133.4569613286212, -1128.1148944038027, -1128.137246148258, -1127.8913769592498, -1129.165426393202, -1133.6581270287188, -1132.3840775947665, -1132.942871206149, -1132.6970020171407, -1133.2781473729788, -1131.1994351386352, -1132.2946706169453, -1134.1945688956462, -1134.6192520402972, -1132.205263639124, -1132.8311124838726, -1134.4404380846547, -1133.1887403951575, -1134.7310107625738, -1136.7426677635513, -1135.2227491405904, -1137.1002956748362, -1136.1838741521685, -1134.4404380846547, -1134.172217151191, -1132.5405398059536, -1135.3792113517775, -1132.3840775947665, -1132.0488014279367, -1132.4064293392216, -1135.692135774152, -1135.2227491405904, -1134.9992316960374, -1135.9156532187048, -1133.9263479621825, -1134.8874729737609, -1135.2227491405904, -1134.038106684459, -1134.2839758734674, -1133.9934031955486, -1131.8029322389284, -1134.239272384557, -1135.4015630962328, -1135.982708452071, -1136.005060196526, -1134.6639555292077, -1134.976879951582, -1133.0546299284256, -1135.2898043739563, -1136.720316019096, -1136.5862055523642, -1135.55802530742, -1131.3111938609118, -1132.3393741058558, -1135.334507862867, -1132.3393741058558, -1131.0876764163586, -1133.3675543508, -1135.2674526295011, -1135.5356735629648, -1134.7757142514843, -1132.8311124838726, -1132.5181880614982, -1132.4734845725877, -1131.1994351386352, -1133.076981672881, -1134.239272384557, -1135.7591910075178, -1139.2460631425456, -1136.5191503189983, -1132.071153172392, -1132.0040979390262, -1134.9321764626714, -1137.2120543971128, -1138.3519933643333, -1138.4190485976992, -1136.1168189188027, -1131.400600838733, -1132.719353761596, -1132.8758159727831, -1133.0546299284256, -1132.562891550409, -1132.9205194616939, -1135.1556939072245, -1131.6911735166518, -1132.3840775947665, -1135.8709497297943, -1134.3286793623781, -1133.6581270287188, -1132.8311124838726, -1132.6522985282302, -1134.5074933180206, -1130.9088624607161, -1133.2110921396127, -1135.4462665851436, -1129.0760194153809, -1133.4793130730764, -1134.2616241290123, -1131.3111938609118, -1131.4229525831881, -1133.2110921396127, -1130.7076967606183, -1129.813626982406, -1134.2169206401015, -1133.4346095841659, -1132.719353761596, -1132.138208405758, -1131.3558973498223, -1132.942871206149, -1132.9652229506044, -1132.7417055060514, -1131.4676560720989, -1131.0206211829927, -1131.4900078165542, -1135.7144875186073, -1137.5026270750318, -1134.0604584289144, -1135.8262462408836, -1136.5638538079088, -1131.5794147943755, -1134.0828101733698, -1131.1547316497245, -1131.8252839833838, -1134.239272384557, -1137.2344061415681, -1133.6804787731742, -1134.105161917825, -1133.9486997066379, -1134.7310107625738, -1132.3170223614004, -1133.6134235398083, -1130.0818479158697, -1133.233443884068, -1130.6853450161632, -1128.4501705706323, -1131.042972927448, -1131.9817461945709, -1134.1498654067357, -1135.1109904183138, -1135.8933014742497, -1134.2839758734674, -1132.6746502726853, -1130.6629932717078, -1133.2557956285234, -1135.7368392630624, -1135.5356735629648, -1131.4900078165542, -1134.8427694848501, -1134.395734595744, -1135.0886386738587, -1137.3461648638445, -1134.9992316960374, -1136.720316019096, -1136.1838741521685, -1137.6367375417635, -1133.6581270287188, -1131.3782490942776, -1132.8311124838726, -1134.6192520402972, -1132.3617258503111, -1132.1605601502133, -1131.0206211829927, -1133.8145892399061, -1133.9486997066379, -1140.4083538542216, -1141.3471271213446, -1141.3024236324338, -1143.7387637780623, -1140.5424643209535, -1140.2965951319452, -1136.2956328744451, -1135.982708452071, -1137.6814410306743, -1136.0944671743473, -1140.8106852544172, -1141.7271067770848, -1138.620214297797, -1136.8544264858278, -1138.0390689419592, -1136.6309090412747, -1134.0828101733698, -1135.7815427519731, -1135.4015630962328, -1134.7086590181184, -1136.1615224077134, -1142.2635486440122, -1140.430705598677, -1137.2344061415681, -1139.4919323315542, -1135.334507862867, -1131.5347113054647, -1135.7368392630624, -1134.1945688956462, -1132.138208405758, -1131.1994351386352, -1131.333545605367, -1127.9584321926156, -1128.0254874259815, -1128.4278188261771, -1131.914690961205, -1131.4229525831881, -1129.7465717490402, -1130.3500688493334, -1129.7242200045848, -1131.4453043276435, -1131.042972927448, -1129.299536859934, -1128.7630949930067, -1128.65133627073, -1130.9312142051715, -1132.786408994962, -1132.786408994962, -1128.8972054597384, -1132.0488014279367, -1132.428781083677, -1131.4453043276435, -1132.4958363170429, -1133.9710514510932, -1134.5969002958418, -1133.0993334173363, -1132.3840775947665, -1132.2946706169453, -1132.942871206149, -1132.138208405758, -1135.0886386738587, -1135.6474322852412, -1136.2956328744451, -1134.8427694848501, -1134.7757142514843, -1133.881644473272, -1134.9545282071267, -1136.5191503189983, -1135.7144875186073, -1135.7368392630624, -1133.076981672881, -1129.1207229042916, -1131.4229525831881, -1133.9263479621825, -1134.2616241290123, -1132.0935049168475, -1129.008964182015, -1130.595938038342, -1130.0818479158697, -1132.428781083677, -1133.2110921396127, -1134.7980659959396, -1136.1168189188027, -1132.8981677172385, -1128.2713566149898, -1130.0371444269592, -1130.3724205937888, -1130.9535659496269, -1132.719353761596, -1130.9312142051715, -1133.2557956285234, -1133.8145892399061, -1129.2548333710233, -1128.5172258039984, -1127.6455077702412, -1133.524016561987, -1133.233443884068, -1132.2946706169453, -1135.7368392630624, -1135.334507862867, -1131.914690961205, -1135.4686183295987, -1138.620214297797, -1139.4695805870988, -1134.6192520402972, -1132.5405398059536, -1134.1498654067357, -1135.5356735629648, -1138.2849381309675, -1138.0614206864143, -1138.1731794086909, -1137.6143857973082, -1134.820417740395, -1136.8097229969171, -1136.8320747413725, -1136.720316019096, -1136.8991299747383, -1134.9992316960374, -1136.4073915967217, -1135.4686183295987, -1138.5084555755207, -1139.0896009313585, -1138.5755108088865, -1137.7931997529506, -1136.9885369525596, -1135.6697840296965, -1135.2674526295011, -1138.7990282534395, -1140.430705598677, -1139.044897442448, -1139.201359653635, -1136.6085572968195, -1136.1168189188027, -1138.2849381309675, -1137.6814410306743, -1136.4520950856322, -1136.139170663258, -1137.7931997529506, -1136.1615224077134, -1136.429743341177, -1133.2781473729788, -1134.5074933180206, -1138.8884352312607, -1136.8991299747383, -1135.8038944964285, -1139.268414887001, -1139.201359653635, -1140.4754090875876, -1137.7261445195848, -1135.5356735629648, -1132.719353761596, -1131.7135252611072, -1135.4462665851436, -1137.6367375417635, -1134.2839758734674, -1137.010888697015, -1135.490970074054, -1134.4851415735652, -1138.1284759197804, -1141.4365340991658, -1135.625080540786, -1133.2557956285234, -1133.8145892399061, -1134.2616241290123, -1136.2732811299898, -1137.524978819487, -1135.2227491405904, -1133.4122578397105, -1132.9652229506044, -1135.334507862867, -1140.1177811763027, -1136.362688107811, -1136.5191503189983, -1136.7650195080066, -1136.6979642746408, -1136.5862055523642, -1137.7037927751294, -1137.1897026526574, -1135.9380049631602, -1129.6124612823082, -1132.5405398059536, -1135.1109904183138, -1133.4793130730764, -1138.2402346420567, -1139.4472288426434, -1140.0954294318474, -1136.2732811299898, -1134.0604584289144, -1135.0662869294033, -1135.8262462408836, -1138.8437317423502, -1134.9992316960374, -1135.7144875186073, -1135.7815427519731, -1132.5181880614982, -1138.8884352312607, -1137.74849626404, -1134.9321764626714, -1134.3063276179228, -1136.9661852081044, -1136.787371252462, -1138.2402346420567, -1140.2965951319452, -1136.787371252462, -1133.3452026063446, -1134.5969002958418, -1135.334507862867, -1135.17804565168, -1138.5084555755207, -1137.6367375417635, -1141.4141823547104, -1141.9506242216378, -1136.8767782302832, -1133.4793130730764, -1134.7757142514843, -1131.9817461945709, -1136.0274119409814, -1137.6143857973082, -1136.4073915967217, -1135.043935184948, -1135.982708452071, -1137.972013708593, -1134.7086590181184, -1131.042972927448, -1132.8981677172385, -1133.2781473729788, -1136.2956328744451, -1135.625080540786, -1134.4180863401994, -1135.3792113517775, -1135.0215834404926, -1136.0721154298922, -1135.0662869294033, -1136.7650195080066, -1137.2344061415681, -1135.6697840296965, -1138.7319730200736, -1135.6474322852412, -1136.5862055523642, -1135.1333421627692, -1134.1498654067357, -1133.2110921396127, -1134.0604584289144, -1133.881644473272, -1137.592034052853, -1137.1002956748362, -1133.0993334173363, -1133.5463683064424, -1135.5133218185094, -1137.972013708593, -1136.943833463649, -1135.982708452071, -1134.820417740395, -1136.1615224077134, -1136.496798574543, -1137.4355718416657, -1135.8709497297943, -1137.2344061415681, -1138.9554904646268, -1138.7990282534395, -1138.754324764529, -1137.8602549863167, -1138.687269531163, -1138.396696853244, -1138.46375208661, -1142.3529556218334, -1142.5541213219312, -1141.9729759660931, -1138.7766765089843, -1135.7815427519731, -1137.815551497406, -1138.2402346420567, -1140.7883335099618, -1141.4141823547104, -1139.5142840760093, -1139.9836707095708, -1139.715449776107, -1135.1556939072245, -1135.8262462408836, -1134.6639555292077, -1133.9263479621825, -1133.8369409843613, -1133.1440369062468, -1134.8874729737609, -1136.5415020634534, -1137.972013708593, -1141.0342026989701, -1141.883568988272, -1142.4200108551993, -1140.8553887433277, -1139.2237113980905, -1139.9613189651154, -1139.6930980316517, -1140.9671474656043, -1136.3850398522663, -1135.0662869294033, -1135.9603567076156, -1136.8767782302832, -1138.9554904646268, -1136.9885369525596, -1137.972013708593, -1139.4919323315542, -1138.2849381309675, -1137.9273102196826, -1138.7990282534395, -1138.0167171975038, -1137.0332404414703, -1134.7086590181184, -1135.6697840296965, -1135.0886386738587, -1135.5133218185094, -1135.625080540786, -1133.7028305176295, -1136.1615224077134, -1137.7261445195848, -1138.1955311531462, -1139.7378015205625, -1139.8048567539283, -1136.9661852081044, -1137.659089286219, -1135.692135774152, -1133.5016648175317, -1133.8145892399061, -1134.3063276179228, -1133.7922374954508, -1135.5803770518753, -1133.6581270287188, -1133.1216851617914, -1134.753362507029, -1133.5463683064424, -1133.7698857509954, -1133.0993334173363, -1132.5405398059536, -1134.5521968069313, -1134.2169206401015, -1136.7650195080066, -1135.9380049631602, -1135.55802530742, -1137.0555921859257, -1133.4346095841659, -1131.400600838733, -1134.46278982911, -1136.7650195080066, -1137.167350908202, -1135.848597985339, -1135.848597985339, -1138.7990282534395, -1136.0944671743473, -1134.7310107625738, -1134.5969002958418, -1134.9992316960374, -1136.8991299747383, -1137.2791096304786, -1138.687269531163, -1136.8320747413725, -1135.9380049631602, -1138.6425660422524, -1138.620214297797, -1136.2732811299898, -1132.2499671280345, -1135.7591910075178, -1135.8933014742497, -1135.2898043739563, -1134.7086590181184, -1135.6697840296965, -1135.4462665851436, -1136.5862055523642, -1138.5084555755207, -1138.910786975716, -1141.0789061878809, -1140.9671474656043, -1139.4695805870988, -1137.524978819487, -1137.592034052853, -1137.6814410306743, -1138.0614206864143, -1138.5755108088865, -1134.8427694848501, -1135.4015630962328, -1135.4015630962328, -1131.2888421164564, -1136.8991299747383, -1136.0721154298922, -1132.8311124838726, -1132.3170223614004, -1134.820417740395, -1135.2674526295011, -1136.720316019096, -1138.687269531163, -1136.206225896624, -1137.6814410306743, -1136.3179846189005, -1135.5133218185094, -1136.5638538079088, -1136.7650195080066, -1138.5531590644312, -1140.4083538542216, -1136.139170663258, -1136.1615224077134, -1135.200397396135, -1136.6756125301854, -1136.6756125301854, -1136.8991299747383, -1134.7980659959396, -1134.1498654067357, -1139.8942637317496, -1140.8330369988726, -1137.3238131193893, -1135.4015630962328, -1133.4122578397105, -1135.6697840296965, -1136.5638538079088, -1137.6814410306743, -1137.8379032418613, -1140.9894992100596, -1138.7319730200736, -1140.7883335099618, -1141.2577201435233, -1141.1236096767914, -1143.202321911135, -1140.5201125764981, -1138.0614206864143, -1139.55898756492, -1139.402525353733, -1141.5929963103529, -1140.5424643209535, -1139.424877098188, -1137.2791096304786, -1137.3908683527552, -1137.9049584752272, -1136.8320747413725, -1136.2956328744451, -1138.4861038310653, -1139.0672491869032, -1140.207188154124, -1141.3024236324338, -1140.073077687392, -1140.2518916430345, -1138.0614206864143, -1137.0779439303808, -1135.6697840296965, -1137.1897026526574, -1138.396696853244, -1135.2227491405904, -1136.5191503189983, -1135.1109904183138, -1137.0779439303808, -1140.3860021097664, -1139.6483945427412, -1137.167350908202, -1134.8427694848501, -1134.8874729737609, -1137.7708480084955, -1134.6192520402972, -1134.820417740395, -1138.1284759197804, -1140.073077687392, -1139.8719119872942, -1137.301461374934, -1140.207188154124, -1139.2907666314563, -1139.6260427982859, -1140.7659817655065, -1141.74945852154, -1143.2917288889562, -1140.877740487783, -1137.74849626404, -1142.7105835331183, -1142.196493410646, -1141.4812375880763, -1141.0342026989701, -1139.0672491869032, -1141.8612172438166, -1141.1012579323362, -1140.4530573431323, -1138.46375208661, -1139.5142840760093, -1140.1401329207579, -1137.5696823083977, -1135.490970074054, -1140.5648160654089, -1140.5201125764981, -1138.1284759197804, -1138.106124175325, -1138.3072898754228, -1139.044897442448, -1136.9661852081044, -1139.3801736092776, -1141.2577201435233, -1140.3412986208557, -1138.1284759197804, -1139.4695805870988, -1140.6095195543194, -1139.5142840760093, -1138.0167171975038, -1137.5696823083977, -1138.0614206864143, -1137.524978819487, -1141.6600515437187, -1140.207188154124, -1140.7659817655065, -1141.525941076987, -1144.0516882004367, -1142.3529556218334, -1135.17804565168, -1134.3063276179228, -1135.0215834404926, -1137.3685166082998, -1136.2732811299898, -1136.6756125301854, -1138.754324764529, -1138.6425660422524, -1137.167350908202, -1139.424877098188, -1140.3860021097664, -1137.144999163747, -1134.3733828512886, -1132.0488014279367, -1137.5026270750318, -1141.3024236324338, -1140.4754090875876, -1137.1002956748362, -1136.8544264858278, -1137.6143857973082, -1135.7368392630624, -1135.3568596073223, -1137.0555921859257, -1136.206225896624, -1138.46375208661, -1136.7426677635513, -1138.3072898754228, -1141.2577201435233, -1138.0614206864143, -1136.3403363633558, -1138.7990282534395, -1138.754324764529, -1138.8213799978948, -1138.7990282534395, -1139.5142840760093], [-4188.225172546527, -4187.107585323762, -4187.912248124153, -4188.873373135731, -4190.370940014236, -4188.426338246624, -4188.180469057616, -4186.369977756736, -4184.40302424467, -4185.788832400898, -4186.481736479012, -4187.912248124153, -4188.806317902365, -4191.086195836806, -4192.382597015214, -4189.834498147309, -4186.839364390297, -4184.671245178133, -4185.16298355615, -4185.788832400898, -4188.336931268804, -4186.012349845451, -4183.531306210913, -4183.8889341221975, -4185.185335300605, -4187.465213235047, -4189.320408024837, -4188.82866964682, -4186.615846945745, -4184.000692844474, -4185.230038789516, -4187.0628818348505, -4189.141594069194, -4187.398158001681, -4187.532268468412, -4189.745091169488, -4190.929733625619, -4189.92390512513, -4189.074538835828, -4186.727605668021, -4191.421472003635, -4191.533230725912, -4188.895724880186, -4187.621675446234, -4184.44772773358, -4179.798564886876, -4180.916152109641, -4185.386501000703, -4187.465213235047, -4186.459384734558, -4185.16298355615, -4187.934599868608, -4187.77813765742, -4182.391367243692, -4181.385538743203, -4185.632370189711, -4186.995826601485, -4185.900591123175, -4185.0065213449625, -4186.392329501192, -4187.420509746135, -4188.40398650217, -4181.474945721024, -4179.418585231136, -4184.1795068001165, -4186.571143456834, -4184.671245178133, -4181.854925376764, -4183.754823655466, -4187.532268468412, -4187.286399279404, -4186.012349845451, -4182.883105621709, -4180.82674513182, -4184.224210289027, -4186.280570778915, -4185.967646356541, -4184.581838200312, -4184.738300411499, -4185.677073678622, -4185.341797511792, -4184.224210289027, -4183.844230633286, -4186.4146812456465, -4188.538096968901, -4185.520611467435, -4186.012349845451, -4186.4146812456465, -4184.246562033482, -4182.9501608550745, -4186.347626012281, -4185.967646356541, -4185.16298355615, -4183.933637611108, -4183.955989355563, -4184.783003900409, -4186.012349845451, -4184.961817856052, -4186.347626012281, -4185.610018445256, -4185.453556234069, -4185.498259722979, -4183.799527144376, -4180.312655009348, -4183.330140510814, -4186.839364390297, -4185.1182800672395, -4183.799527144376, -4185.453556234069, -4185.855887634264, -4185.475907978524, -4184.201858544571, -4186.526439967924, -4184.000692844474, -4183.106623066262, -4186.25821903446, -4188.2922277798925, -4188.82866964682, -4188.783966157909, -4189.119242324739, -4189.812146402854, -4190.661512692155, -4190.080367336317, -4186.325274267826, -4187.912248124153, -4188.024006846429, -4185.967646356541, -4185.632370189711, -4186.012349845451, -4187.286399279404, -4188.895724880186, -4188.359283013258, -4186.861716134753, -4185.230038789516, -4186.97347485703, -4189.365111513747, -4189.454518491569, -4187.286399279404, -4188.314579524348, -4187.956951613063, -4183.486602722001, -4183.576009699823, -4186.772309156931, -4188.44868999108, -4189.5886289583, -4186.794660901387, -4185.2970940228815, -4186.347626012281, -4186.2358672900045, -4184.738300411499, -4186.995826601485, -4188.247524290982, -4187.487564979501, -4186.280570778915, -4185.855887634264, -4183.508954466457, -4185.341797511792, -4188.024006846429, -4189.119242324739, -4188.046358590885, -4186.101756823273, -4187.8228411463315, -4189.298056280381, -4190.30388478087, -4190.527402225423, -4188.627503946723, -4185.9452946120855, -4182.6595881771555, -4185.54296321189, -4191.1085475812615, -4189.8792016362195, -4188.9404283690965, -4185.967646356541, -4183.531306210913, -4186.97347485703, -4190.683864436611, -4188.851021391275, -4187.420509746135, -4185.498259722979, -4188.359283013258, -4187.666378935144, -4187.465213235047, -4185.811184145354, -4185.855887634264, -4186.615846945745, -4187.308751023859, -4187.532268468412, -4187.644027190689, -4187.01817834594, -4185.721777167532, -4186.392329501192, -4187.420509746135, -4187.308751023859, -4187.398158001681, -4186.2358672900045, -4188.582800457812, -4189.7003876805775, -4187.286399279404, -4186.30292252337, -4187.375806257225, -4189.5886289583, -4187.241695790493, -4187.621675446234, -4187.912248124153, -4191.913210381653, -4190.460346992058, -4185.431204489613, -4185.408852745158, -4189.253352791471, -4189.074538835828, -4186.369977756736, -4185.833535889809, -4184.224210289027, -4188.918076624641, -4190.370940014236, -4187.845192890786, -4187.755785912966, -4185.9452946120855, -4185.051224833873, -4187.6887306796, -4186.392329501192, -4185.9452946120855, -4188.851021391275, -4189.745091169488, -4188.806317902365, -4186.615846945745, -4187.219344046038, -4187.3534545127695, -4186.727605668021, -4187.77813765742, -4186.057053334362, -4187.465213235047, -4185.565314956345, -4186.727605668021, -4186.571143456834, -4186.101756823273, -4190.482698736513, -4194.371902271736, -4196.584724972811, -4198.708140696066, -4199.378693029725, -4201.882088408719, -4205.838347177309, -4207.850004178286, -4211.247469335493, -4214.3543618147805, -4213.683809481122, -4214.376713559236, -4220.434036306624, -4224.747922986498, -4223.697390997099, -4221.9316031851295, -4224.993792175507, -4224.636164264222, -4223.049190407895, -4222.445693307602, -4222.803321218887, -4224.569109030856, -4226.848986965298, -4228.637126521722, -4229.55354804439, -4226.960745687574, -4222.9821351745295, -4224.010315419473, -4225.776103231443, -4226.6478212652, -4228.257146865982, -4224.814978219864, -4222.713914241065, -4222.602155518789, -4222.959783430074, -4224.88203345323, -4226.960745687574, -4225.150254386694, -4223.74209448601, -4223.965611930563, -4223.9209084416525, -4225.284364853426, -4223.295059596903, -4218.914117683664, -4221.149292129194, -4225.485530553524, -4227.0948561543055, -4229.017106177462, -4227.072504409851, -4224.16677763066, -4222.713914241065, -4225.284364853426, -4226.6478212652, -4225.194957875605, -4223.40681831918, -4221.395161318203, -4224.2114811195715, -4222.959783430074, -4222.445693307602, -4224.055018908384, -4223.384466574725, -4223.295059596903, -4226.6478212652, -4227.184263132127, -4225.083199153328, -4224.189129375116, -4222.758617729976, -4221.9316031851295, -4222.2221758630485, -4223.07154215235, -4223.40681831918, -4226.960745687574, -4228.994754433007, -4227.944222443607, -4225.306716597881, -4228.301850354892, -4228.3242020993475, -4226.737228243021, -4226.2678416094595, -4226.469007309557, -4228.3242020993475, -4229.888824211219, -4228.659478266177, -4229.531196299934, -4229.821768977853, -4230.671135267155, -4232.414571334669, -4228.50301605499, -4228.614774777267, -4235.275594624948, -4233.621565535255, -4230.335859100325, -4227.8548154657865, -4229.307678855381, -4228.9724026885515, -4225.798454975898, -4227.072504409851, -4227.519539298956, -4228.100684654794, -4226.334896842825, -4226.69252475411, -4225.016143919962, -4229.821768977853, -4230.671135267155, -4229.330030599836, -4230.8499492227975, -4230.3805625892355, -4228.681830010632, -4225.127902642239, -4225.686696253621, -4227.340725343314, -4229.2629753664705, -4229.397085833202, -4226.513710798467, -4226.6478212652, -4230.559376544878, -4228.659478266177, -4227.318373598859, -4227.966574188063, -4225.910213698175, -4224.83732996432, -4226.759579987476, -4227.474835810046, -4224.904385197686, -4226.759579987476, -4230.939356200619, -4232.973364946051, -4233.286289368426, -4230.335859100325, -4227.586594532322, -4227.36307708777, -4227.921870699152, -4226.737228243021, -4224.412646819669, -4223.384466574725, -4224.233832864026, -4228.301850354892, -4230.827597478342, -4228.413609077169, -4227.318373598859, -4228.3242020993475, -4229.687658511121, -4226.401952076191, -4224.926736942141, -4225.239661364515, -4226.871338709752, -4227.810111976875, -4233.487455068524, -4231.989888190018, -4227.877167210241, -4222.825672963342, -4217.438902549613, -4215.181376359627, -4211.113358868761, -4201.5915157308, -4196.607076717267, -4192.2261348040265, -4188.627503946723, -4187.442861490591, -4183.196030044082, -4179.038605575395, -4177.831611374809, -4182.816050388343, -4177.20576253006, -4170.433183960103, -4167.035718802896, -4167.303939736359, -4168.890913592686, -4175.976416585018, -4187.085233579306, -4190.929733625619, -4181.698463165577, -4175.685843907099, -4173.696538650577, -4171.34960548277, -4175.574085184823, -4186.6381986902, -4193.611942960256, -4192.762576670954, -4186.392329501192, -4185.386501000703, -4173.8530008617645, -4172.243675260982, -4174.836477617798, -4177.250466018971, -4179.128012553217, -4183.397195744181, -4186.794660901387, -4190.549753969879, -4192.583762715311, -4193.231963304515, -4189.812146402854, -4188.538096968901, -4190.661512692155, -4188.627503946723, -4187.889896379697, -4192.762576670954, -4196.6294284617225, -4201.5915157308, -4203.133786098217, -4198.68578895161, -4198.842251162798, -4199.132823840717, -4197.8587744067645, -4195.645951705689, -4194.818937160842, -4196.137690083706, -4200.0939488522945, -4203.066730864851, -4203.826690176331, -4206.106568110772, -4203.245544820493, -4197.747015684487, -4198.596381973789, -4200.3845215302135, -4202.552640742379, -4203.960800643063, -4204.519594254446, -4203.02202737594, -4201.479757008524, -4202.351475042281, -4204.407835532169, -4202.932620398119, -4199.35634128527, -4197.456443006568, -4199.378693029725, -4201.54681224189, -4202.284419808915, -4201.949143642085, -4200.362169785759, -4204.854870421275, -4204.720759954544, -4201.077425608329, -4205.0783878658285, -4205.815995432853, -4203.781986687421, -4202.776158186932, -4199.73632094101, -4199.35634128527, -4199.110472096261, -4196.204745317072, -4198.574030229334, -4205.659533221667, -4207.291210566904, -4204.296076809893, -4202.463233764557, -4201.5915157308, -4199.9151348966525, -4196.338855783803, -4198.439919762602, -4203.960800643063, -4205.614829732755, -4200.406873274669, -4199.602210474278, -4199.870431407742, -4199.646913963189, -4199.468100007546, -4199.557506985368, -4198.059940106862, -4199.088120351806, -4201.658570964167, -4200.026893618929, -4200.809204674864, -4201.300943052882, -4199.535155240912, -4201.815033175353, -4203.983152387518, -4199.848079663287, -4198.9763616295295, -4198.68578895161, -4199.02106511844, -4201.904440153175, -4200.250411063482, -4196.45061450608, -4197.277629050926, -4198.372864529236, -4198.238754062504, -4199.378693029725, -4202.7314546980215, -4199.177527329627, -4194.997751116485, -4195.176565072127, -4202.373826786737, -4202.217364575549, -4198.574030229334, -4197.523498239934, -4197.188222073105, -4196.942352884096, -4195.511841238957, -4195.02010286094, -4195.40008251668, -4197.724663940032, -4199.02106511844, -4204.363132043259, -4207.805300689376, -4201.0327221194175, -4194.528364482923, -4192.427300504124, -4194.371902271736, -4193.276666793427, -4193.701349938077, -4197.791719173399, -4198.484623251513, -4197.367036028747, -4196.025931361429, -4195.780062172421, -4195.891820894697, -4195.73535868351, -4195.40008251668, -4196.11533833925, -4194.1036813382725, -4197.523498239934, -4201.3232947973365, -4198.6410854627, -4196.182393572616, -4192.673169693133, -4192.315541781848, -4192.6955214375885, -4191.801451659376, -4191.175602814627, -4193.522535982434, -4195.087158094306, -4195.623599961234, -4195.623599961234, -4197.411739517658, -4197.769367428943, -4197.702312195577, -4192.248486548482, -4192.248486548482, -4194.796585416387, -4193.567239471346, -4193.567239471346, -4195.802413916876, -4195.511841238957, -4195.02010286094, -4195.198916816583, -4193.097852837784, -4193.187259815605, -4195.176565072127, -4193.455480749069, -4193.321370282337, -4194.908344138664, -4196.361207528259, -4194.394254016192, -4190.549753969879, -4192.583762715311, -4193.6342947047115, -4193.768405171443, -4195.333027283315, -4193.209611560061, -4191.577934214823, -4193.008445859962, -4195.0424546053955, -4195.265972049949, -4193.142556326694, -4191.265009792449, -4191.667341192644, -4189.812146402854, -4194.30484703837, -4195.02010286094, -4193.455480749069, -4192.404948759669, -4189.5886289583, -4190.281533036415, -4191.1085475812615, -4190.549753969879, -4192.181431315116, -4190.97443711453, -4188.851021391275, -4187.398158001681, -4184.626541689222, -4185.788832400898, -4189.633332447211, -4191.265009792449, -4189.432166747113, -4191.376768514725, -4197.299980795381, -4194.014274360451, -4187.979303357519, -4186.8840678792085, -4187.711082424054, -4190.035663847407, -4190.616809203245, -4190.035663847407, -4191.957913870563, -4190.370940014236, -4188.806317902365, -4190.594457458789, -4191.086195836806, -4188.985131858008, -4183.710120166555, -4186.1241085677275, -4187.0628818348505, -4184.604189944767, -4188.2922277798925, -4189.92390512513, -4188.046358590885, -4187.979303357519, -4189.633332447211, -4190.862678392253, -4188.046358590885, -4187.509916723957, -4188.068710335339, -4189.20864930256, -4188.672207435633, -4186.504088223468, -4187.219344046038, -4187.934599868608, -4186.213515545549, -4186.97347485703, -4188.605152202267, -4188.783966157909, -4187.845192890786, -4188.560448713356, -4188.962780113552, -4188.381634757714, -4189.342759769293, -4187.129937068216, -4182.726643410521, -4182.6595881771555, -4184.268913777937, -4187.845192890786, -4187.889896379697, -4184.0677480778395, -4185.274742278426, -4186.526439967924, -4184.581838200312, -4183.35249225527, -4187.73343416851, -4190.058015591862, -4187.73343416851, -4182.793698643887, -4181.519649209935, -4188.649855691177, -4188.985131858008, -4186.839364390297, -4185.453556234069, -4184.335969011303, -4186.101756823273, -4186.280570778915, -4186.504088223468, -4187.398158001681, -4186.861716134753, -4189.074538835828, -4189.990960358496, -4189.521573724935, -4184.514782966946, -4182.301960265871, -4183.039567832896, -4184.000692844474, -4186.4146812456465, -4188.024006846429, -4185.967646356541, -4186.593495201289, -4185.274742278426, -4183.73247191101, -4181.87727712122, -4184.268913777937, -4183.77717539992, -4184.224210289027, -4183.844230633286, -4182.8384021327975, -4184.112451566751, -4184.470079478036, -4182.726643410521, -4184.335969011303, -4184.112451566751, -4182.927809110619, -4183.441899233091, -4183.508954466457, -4182.257256776959, -4184.559486455856, -4183.77717539992, -4186.727605668021, -4190.8179749033425, -4187.8228411463315, -4185.230038789516, -4183.643064933189, -4183.6877684221, -4183.710120166555, -4181.318483509837, -4180.916152109641, -4183.531306210913, -4181.452593976569, -4184.44772773358, -4186.347626012281, -4183.35249225527, -4183.106623066262, -4181.7208149100325, -4182.793698643887, -4183.374843999725, -4181.765518398943, -4182.369015499236, -4183.710120166555, -4178.949198597575, -4180.044434075884, -4182.994864343985, -4183.710120166555, -4184.894762622686, -4183.598361444278, -4183.6877684221, -4181.743166654488, -4180.714986409544, -4179.128012553217, -4178.815088130843, -4179.507992208957, -4183.151326555172, -4183.710120166555, -4181.586704443301, -4180.7820416429095, -4184.8277073893205, -4187.286399279404, -4185.565314956345, -4183.106623066262]]
