['beep', 0.0, 0.0, 0.0, 0.0, 0.0, 0.0, 0.0, 0.0]
['beep', 0.0, 699.7660636622982, 0.0, 0.0, 0.0, 0.0, -5566.679604849769, 0.0]
['beep', 0.0, 698.9390491174519, 0.0, 0.0, 0.0, 0.0, -5570.255883962618, 0.0]
['beep', 0.0, 698.7155316728988, 0.0, 0.0, 0.0, 0.0, -5566.970177527688, 0.0]
['beep', 0.0, 697.9108688725078, 0.0, 0.0, 0.0, 0.0, -5565.226741460174, 0.0]
['beep', 0.0, 697.9555723614184, 0.0, 0.0, 0.0, 0.0, -5565.539665882548, 0.0]
['beep', 0.0, 699.2296217953708, 0.0, 0.0, 0.0, 0.0, -5569.317110695495, 0.0]
['beep', 0.0, 700.5260229737786, 0.0, 0.0, 0.0, 0.0, -5573.563942142003, 0.0]
['beep', 0.0, 702.6047352081222, 0.0, 0.0, 0.0, 0.0, -5568.333633939461, 0.0]
['beep', 0.0, 700.4142642515021, 0.0, 0.0, 0.0, 0.0, -5562.142200725341, 0.0]
['beep', 0.0, 698.7825869062647, 0.0, 0.0, 0.0, 0.0, -5562.611587358902, 0.0]
['beep', 0.0, 700.0342845957618, 0.0, 0.0, 0.0, 0.0, -5566.120811238386, 0.0]
['beep', 0.0, 702.3588660191139, 0.0, 0.0, 0.0, 0.0, -5569.2947589510395, 0.0]
['beep', 0.0, 701.5318514742675, 0.0, 0.0, 0.0, 0.0, -5567.461915905705, 0.0]
['beep', 0.0, 699.8554706401194, 0.0, 0.0, 0.0, 0.0, -5564.265616448595, 0.0]
['beep', 0.0, 700.7048369294212, 0.0, 0.0, 0.0, 0.0, -5565.562017627003, 0.0]
['beep', 0.0, 702.2694590412926, 0.0, 0.0, 0.0, 0.0, -5570.010014773609, 0.0]
['beep', 0.0, 703.6999706864323, 0.0, 0.0, 0.0, 0.0, -5572.714575852701, 0.0]
['beep', 0.0, 704.0575985977172, 0.0, 0.0, 0.0, 0.0, -5566.791363572045, 0.0]
['beep', 0.0, 703.4764532418792, 0.0, 0.0, 0.0, 0.0, -5565.047927504531, 0.0]
['beep', 0.0, 703.2082323084155, 0.0, 0.0, 0.0, 0.0, -5570.077070006975, 0.0]
['beep', 0.0, 702.0235898522842, 0.0, 0.0, 0.0, 0.0, -5567.327805438973, 0.0]
['beep', 0.0, 703.4764532418792, 0.0, 0.0, 0.0, 0.0, -5567.350157183428, 0.0]
['beep', 0.0, 703.8564328976194, 0.0, 0.0, 0.0, 0.0, -5566.098459493931, 0.0]
['beep', 0.0, 701.5094997298122, 0.0, 0.0, 0.0, 0.0, -5564.936168782255, 0.0]
['beep', 0.0, 702.0459415967396, 0.0, 0.0, 0.0, 0.0, -5566.1878664717515, 0.0]
['beep', 0.0, 702.9400113749518, 0.0, 0.0, 0.0, 0.0, -5570.345290940439, 0.0]
['beep', 0.0, 704.772854420287, 0.0, 0.0, 0.0, 0.0, -5570.032366518065, 0.0]
['beep', 0.0, 703.5882119641557, 0.0, 0.0, 0.0, 0.0, -5566.120811238386, 0.0]
['beep', 0.0, 703.0070666083177, 0.0, 0.0, 0.0, 0.0, -5565.71847983819, 0.0]
['beep', 0.0, 702.4482729969351, 0.0, 0.0, 0.0, 0.0, -5566.970177527688, 0.0]
['beep', 0.0, 702.6717904414882, 0.0, 0.0, 0.0, 0.0, -5568.803020573023, 0.0]
['beep', 0.0, 704.1023020866278, 0.0, 0.0, 0.0, 0.0, -5571.261712463107, 0.0]
['beep', 0.0, 703.5882119641557, 0.0, 0.0, 0.0, 0.0, -5565.986700771654, 0.0]
['beep', 0.0, 701.7330171743653, 0.0, 0.0, 0.0, 0.0, -5563.528008881571, 0.0]
['beep', 0.0, 702.157700319016, 0.0, 0.0, 0.0, 0.0, -5563.595064114937, 0.0]
['beep', 0.0, 705.7786829207759, 0.0, 0.0, 0.0, 0.0, -5565.852590304922, 0.0]
['beep', 0.0, 704.5046334868233, 0.0, 0.0, 0.0, 0.0, -5573.541590397548, 0.0]
['beep', 0.0, 704.3258195311809, 0.0, 0.0, 0.0, 0.0, -5572.312244452506, 0.0]
['beep', 0.0, 703.90113638653, 0.0, 0.0, 0.0, 0.0, -5565.763183327101, 0.0]
['beep', 0.0, 701.0848165851613, 0.0, 0.0, 0.0, 0.0, -5566.903122294321, 0.0]
['beep', 0.0, 698.581421206167, 0.0, 0.0, 0.0, 0.0, -5571.641692118847, 0.0]
['beep', 0.0, 700.190746806949, 0.0, 0.0, 0.0, 0.0, -5573.116907252897, 0.0]
['beep', 0.0, 698.7825869062647, 0.0, 0.0, 0.0, 0.0, -5570.144125240341, 0.0]
['beep', 0.0, 696.0333223382619, 0.0, 0.0, 0.0, 0.0, -5567.484267650159, 0.0]
['beep', 0.0, 696.3909502495468, 0.0, 0.0, 0.0, 0.0, -5568.490096150648, 0.0]
['beep', 0.0, 696.6815229274658, 0.0, 0.0, 0.0, 0.0, -5569.7641455846015, 0.0]
['beep', 0.0, 698.7155316728988, 0.0, 0.0, 0.0, 0.0, -5573.474535164182, 0.0]
['beep', 0.0, 697.9555723614184, 0.0, 0.0, 0.0, 0.0, -5571.261712463107, 0.0]
['beep', 0.0, 696.4580054829128, 0.0, 0.0, 0.0, 0.0, -5568.780668828567, 0.0]
['beep', 0.0, 697.2850200277592, 0.0, 0.0, 0.0, 0.0, -5571.574636885481, 0.0]
['beep', 0.0, 698.737883417354, 0.0, 0.0, 0.0, 0.0, -5575.821468331989, 0.0]
['beep', 0.0, 699.90017412903, 0.0, 0.0, 0.0, 0.0, -5574.703881109224, 0.0]
['beep', 0.0, 700.7495404183318, 0.0, 0.0, 0.0, 0.0, -5573.2286659751735, 0.0]
['beep', 0.0, 699.3413805176474, 0.0, 0.0, 0.0, 0.0, -5571.775802585578, 0.0]
['beep', 0.0, 699.7213601733876, 0.0, 0.0, 0.0, 0.0, -5570.591160129447, 0.0]
['beep', 0.0, 702.1800520634714, 0.0, 0.0, 0.0, 0.0, -5571.306415952017, 0.0]
['beep', 0.0, 703.2752875417814, 0.0, 0.0, 0.0, 0.0, -5573.832163075467, 0.0]
['beep', 0.0, 701.5318514742675, 0.0, 0.0, 0.0, 0.0, -5571.194657229741, 0.0]
['beep', 0.0, 700.1013398291278, 0.0, 0.0, 0.0, 0.0, -5569.428869417771, 0.0]
['beep', 0.0, 700.3472090181361, 0.0, 0.0, 0.0, 0.0, -5570.144125240341, 0.0]
['beep', 0.0, 702.9176596304965, 0.0, 0.0, 0.0, 0.0, -5573.72040435319, 0.0]
['beep', 0.0, 703.4093980085132, 0.0, 0.0, 0.0, 0.0, -5577.00611078812, 0.0]
['beep', 0.0, 702.4482729969351, 0.0, 0.0, 0.0, 0.0, -5574.726232853679, 0.0]
['beep', 0.0, 700.1236915735831, 0.0, 0.0, 0.0, 0.0, -5568.534799639559, 0.0]
['beep', 0.0, 700.3472090181361, 0.0, 0.0, 0.0, 0.0, -5569.250055462129, 0.0]
['beep', 0.0, 701.1295200740719, 0.0, 0.0, 0.0, 0.0, -5572.2898927080505, 0.0]
['beep', 0.0, 701.3977410075356, 0.0, 0.0, 0.0, 0.0, -5578.235456733162, 0.0]
['beep', 0.0, 700.3025055292255, 0.0, 0.0, 0.0, 0.0, -5576.827296832478, 0.0]
['beep', 0.0, 699.0731595841837, 0.0, 0.0, 0.0, 0.0, -5569.451221162227, 0.0]
['beep', 0.0, 699.2296217953708, 0.0, 0.0, 0.0, 0.0, -5567.707785094713, 0.0]
['beep', 0.0, 699.5425462177451, 0.0, 0.0, 0.0, 0.0, -5572.021671774587, 0.0]
['beep', 0.0, 700.771892162787, 0.0, 0.0, 0.0, 0.0, -5575.754413098623, 0.0]
['beep', 0.0, 701.7553689188205, 0.0, 0.0, 0.0, 0.0, -5575.2850264650615, 0.0]
['beep', 0.0, 699.7884154067535, 0.0, 0.0, 0.0, 0.0, -5573.318072952995, 0.0]
['beep', 0.0, 698.5590694617116, 0.0, 0.0, 0.0, 0.0, -5569.965311284699, 0.0]
['beep', 0.0, 699.0061043508177, 0.0, 0.0, 0.0, 0.0, -5573.943921797743, 0.0]
['beep', 0.0, 701.6659619409993, 0.0, 0.0, 0.0, 0.0, -5574.301549709028, 0.0]
['beep', 0.0, 701.353037518625, 0.0, 0.0, 0.0, 0.0, -5567.283101950062, 0.0]
['beep', 0.0, 693.7534444038206, 0.0, 0.0, 0.0, 0.0, -5568.087764750453, 0.0]
['beep', 0.0, 689.6183716795888, 0.0, 0.0, 0.0, 0.0, -5564.802058315523, 0.0]
['beep', 0.0, 688.4784327123681, 0.0, 0.0, 0.0, 0.0, -5564.869113548889, 0.0]
['beep', 0.0, 686.6008861781223, 0.0, 0.0, 0.0, 0.0, -5566.9478257832325, 0.0]
['beep', 0.0, 681.9070198425079, 0.0, 0.0, 0.0, 0.0, -5560.354061168917, 0.0]
['beep', 0.0, 677.1684500179828, 0.0, 0.0, 0.0, 0.0, -5550.742811053135, 0.0]
['beep', 0.0, 674.9332755724521, 0.0, 0.0, 0.0, 0.0, -5551.346308153428, 0.0]
['beep', 0.0, 675.2014965059158, 0.0, 0.0, 0.0, 0.0, -5552.598005842925, 0.0]
['beep', 0.0, 672.8545633381085, 0.0, 0.0, 0.0, 0.0, -5553.536779110048, 0.0]
['beep', 0.0, 671.1781825039604, 0.0, 0.0, 0.0, 0.0, -5547.546511596026, 0.0]
['beep', 0.0, 671.1334790150498, 0.0, 0.0, 0.0, 0.0, -5540.148084181319, 0.0]
['beep', 0.0, 668.6747871249661, 0.0, 0.0, 0.0, 0.0, -5544.57372958347, 0.0]
['beep', 0.0, 671.066423781684, 0.0, 0.0, 0.0, 0.0, -5550.586348841947, 0.0]
['beep', 0.0, 673.1451360160275, 0.0, 0.0, 0.0, 0.0, -5548.731154052157, 0.0]
['beep', 0.0, 673.0557290382063, 0.0, 0.0, 0.0, 0.0, -5547.837084273945, 0.0]
['beep', 0.0, 672.3181214711811, 0.0, 0.0, 0.0, 0.0, -5549.178188941263, 0.0]
['beep', 0.0, 670.999368548318, 0.0, 0.0, 0.0, 0.0, -5546.630090073359, 0.0]
['beep', 0.0, 671.2452377373264, 0.0, 0.0, 0.0, 0.0, -5548.708802307702, 0.0]
['beep', 0.0, 671.2452377373264, 0.0, 0.0, 0.0, 0.0, -5552.665061076291, 0.0]
['beep', 0.0, 671.7146243708878, 0.0, 0.0, 0.0, 0.0, -5552.419191887283, 0.0]
['beep', 0.0, 672.2734179822705, 0.0, 0.0, 0.0, 0.0, -5548.2841191630505, 0.0]
['beep', 0.0, 671.4240516929689, 0.0, 0.0, 0.0, 0.0, -5547.591215084936, 0.0]
['beep', 0.0, 674.3968337055247, 0.0, 0.0, 0.0, 0.0, -5551.145142453331, 0.0]
['beep', 0.0, 676.2296767508599, 0.0, 0.0, 0.0, 0.0, -5553.648537832325, 0.0]
['beep', 0.0, 676.1402697730387, 0.0, 0.0, 0.0, 0.0, -5551.659232575802, 0.0]
['beep', 0.0, 674.5532959167118, 0.0, 0.0, 0.0, 0.0, -5545.132523194853, 0.0]
['beep', 0.0, 677.2131535068934, 0.0, 0.0, 0.0, 0.0, -5546.965366240188, 0.0]
['beep', 0.0, 675.8944005840302, 0.0, 0.0, 0.0, 0.0, -5549.938148252743, 0.0]
['beep', 0.0, 675.1120895280945, 0.0, 0.0, 0.0, 0.0, -5555.615491344392, 0.0]
['beep', 0.0, 673.256894738304, 0.0, 0.0, 0.0, 0.0, -5553.313261665495, 0.0]
['beep', 0.0, 670.1723540034717, 0.0, 0.0, 0.0, 0.0, -5548.664098818791, 0.0]
['beep', 0.0, 672.1616592599939, 0.0, 0.0, 0.0, 0.0, -5549.647575574824, 0.0]
['beep', 0.0, 672.452231937913, 0.0, 0.0, 0.0, 0.0, -5554.028517488065, 0.0]
['beep', 0.0, 672.5863424046448, 0.0, 0.0, 0.0, 0.0, -5558.923549523777, 0.0]
['beep', 0.0, 672.8098598491979, 0.0, 0.0, 0.0, 0.0, -5556.174284955774, 0.0]
['beep', 0.0, 670.6417406370331, 0.0, 0.0, 0.0, 0.0, -5550.720459308679, 0.0]
['beep', 0.0, 670.4405749369354, 0.0, 0.0, 0.0, 0.0, -5551.189845942241, 0.0]
['beep', 0.0, 671.1111272705946, 0.0, 0.0, 0.0, 0.0, -5554.140276210342, 0.0]
['beep', 0.0, 672.8769150825639, 0.0, 0.0, 0.0, 0.0, -5557.180113456263, 0.0]
['beep', 0.0, 674.9332755724521, 0.0, 0.0, 0.0, 0.0, -5556.353098911417, 0.0]
['beep', 0.0, 672.1393075155387, 0.0, 0.0, 0.0, 0.0, -5551.547473853526, 0.0]
['beep', 0.0, 667.9371795579409, 0.0, 0.0, 0.0, 0.0, -5550.966328497688, 0.0]
['beep', 0.0, 665.4337841789466, 0.0, 0.0, 0.0, 0.0, -5552.642709331836, 0.0]
['beep', 0.0, 666.5960748906225, 0.0, 0.0, 0.0, 0.0, -5553.559130854504, 0.0]
['beep', 0.0, 666.4619644238907, 0.0, 0.0, 0.0, 0.0, -5550.496941864127, 0.0]
['beep', 0.0, 665.2549702233041, 0.0, 0.0, 0.0, 0.0, -5545.445447617227, 0.0]
['beep', 0.0, 666.8419440796309, 0.0, 0.0, 0.0, 0.0, -5546.2277586731625, 0.0]
['beep', 0.0, 666.260798723793, 0.0, 0.0, 0.0, 0.0, -5551.681584320258, 0.0]
['beep', 0.0, 667.1325167575499, 0.0, 0.0, 0.0, 0.0, -5551.1004389644195, 0.0]
['beep', 0.0, 668.160697002494, 0.0, 0.0, 0.0, 0.0, -5550.474590119671, 0.0]
['beep', 0.0, 667.7136621133878, 0.0, 0.0, 0.0, 0.0, -5550.027555230565, 0.0]
['beep', 0.0, 667.9595313023963, 0.0, 0.0, 0.0, 0.0, -5548.217063929685, 0.0]
['beep', 0.0, 668.0489382802175, 0.0, 0.0, 0.0, 0.0, -5550.8098662865, 0.0]
['beep', 0.0, 669.4347464364465, 0.0, 0.0, 0.0, 0.0, -5550.76516279759, 0.0]
['beep', 0.0, 670.5746854036672, 0.0, 0.0, 0.0, 0.0, -5553.4473721322265, 0.0]
['beep', 0.0, 668.5406766582342, 0.0, 0.0, 0.0, 0.0, -5547.300642407017, 0.0]
['beep', 0.0, 667.2889789687371, 0.0, 0.0, 0.0, 0.0, -5546.607738328903, 0.0]
['beep', 0.0, 668.1159935135834, 0.0, 0.0, 0.0, 0.0, -5551.52512210907, 0.0]
['beep', 0.0, 668.7194906138767, 0.0, 0.0, 0.0, 0.0, -5554.743773310634, 0.0]
['beep', 0.0, 669.2782842252594, 0.0, 0.0, 0.0, 0.0, -5552.642709331836, 0.0]
['beep', 0.0, 666.2160952348823, 0.0, 0.0, 0.0, 0.0, -5549.915796508289, 0.0]
['beep', 0.0, 665.5455429012231, 0.0, 0.0, 0.0, 0.0, -5549.602872085914, 0.0]
['beep', 0.0, 667.4230894354689, 0.0, 0.0, 0.0, 0.0, -5550.9216250087775, 0.0]
['beep', 0.0, 668.451269680413, 0.0, 0.0, 0.0, 0.0, -5554.05086923252, 0.0]
['beep', 0.0, 668.0042347913069, 0.0, 0.0, 0.0, 0.0, -5553.849703532423, 0.0]
['beep', 0.0, 669.1665255029828, 0.0, 0.0, 0.0, 0.0, -5549.5134651080925, 0.0]
['beep', 0.0, 668.5853801471449, 0.0, 0.0, 0.0, 0.0, -5552.19567444273, 0.0]
['beep', 0.0, 669.904133070008, 0.0, 0.0, 0.0, 0.0, -5552.95563375421, 0.0]
['beep', 0.0, 670.0829470256505, 0.0, 0.0, 0.0, 0.0, -5556.531912867059, 0.0]
['beep', 0.0, 669.9488365589186, 0.0, 0.0, 0.0, 0.0, -5555.660194833302, 0.0]
['beep', 0.0, 668.6747871249661, 0.0, 0.0, 0.0, 0.0, -5552.150970953819, 0.0]
['beep', 0.0, 668.0489382802175, 0.0, 0.0, 0.0, 0.0, -5552.530950609559, 0.0]
['beep', 0.0, 669.9935400478292, 0.0, 0.0, 0.0, 0.0, -5553.603834343414, 0.0]
['beep', 0.0, 669.7923743477314, 0.0, 0.0, 0.0, 0.0, -5554.520255866081, 0.0]
['beep', 0.0, 670.6864441259437, 0.0, 0.0, 0.0, 0.0, -5555.704898322213, 0.0]
['beep', 0.0, 669.1888772474382, 0.0, 0.0, 0.0, 0.0, -5554.341441910439, 0.0]
['beep', 0.0, 669.4123946919913, 0.0, 0.0, 0.0, 0.0, -5550.787514542046, 0.0]
['beep', 0.0, 670.5076301703012, 0.0, 0.0, 0.0, 0.0, -5553.805000043511, 0.0]
['beep', 0.0, 670.6864441259437, 0.0, 0.0, 0.0, 0.0, -5557.29187217854, 0.0]
['beep', 0.0, 670.8652580815861, 0.0, 0.0, 0.0, 0.0, -5558.632976845858, 0.0]
['beep', 0.0, 668.8536010806085, 0.0, 0.0, 0.0, 0.0, -5553.4473721322265, 0.0]
['beep', 0.0, 668.6747871249661, 0.0, 0.0, 0.0, 0.0, -5550.76516279759, 0.0]
['beep', 0.0, 670.7311476148543, 0.0, 0.0, 0.0, 0.0, -5554.989642499643, 0.0]
['beep', 0.0, 670.7982028482203, 0.0, 0.0, 0.0, 0.0, -5555.995471000132, 0.0]
['beep', 0.0, 670.41822319248, 0.0, 0.0, 0.0, 0.0, -5555.503732622115, 0.0]
['beep', 0.0, 670.3064644702035, 0.0, 0.0, 0.0, 0.0, -5551.748639553623, 0.0]
['beep', 0.0, 669.613560392089, 0.0, 0.0, 0.0, 0.0, -5549.021726730076, 0.0]
['beep', 0.0, 668.5630284026895, 0.0, 0.0, 0.0, 0.0, -5553.67088957678, 0.0]
['beep', 0.0, 671.4687551818795, 0.0, 0.0, 0.0, 0.0, -5556.889540778344, 0.0]
['beep', 0.0, 671.804031348709, 0.0, 0.0, 0.0, 0.0, -5555.168456455285, 0.0]
['beep', 0.0, 670.8429063371309, 0.0, 0.0, 0.0, 0.0, -5550.675755819769, 0.0]
['beep', 0.0, 671.5581621597007, 0.0, 0.0, 0.0, 0.0, -5549.200540685719, 0.0]
['beep', 0.0, 672.1393075155387, 0.0, 0.0, 0.0, 0.0, -5553.894407021333, 0.0]
['beep', 0.0, 672.0499005377175, 0.0, 0.0, 0.0, 0.0, -5555.906064022311, 0.0]
['beep', 0.0, 672.6533976380107, 0.0, 0.0, 0.0, 0.0, -5555.3249186664725, 0.0]
['beep', 0.0, 671.7369761153432, 0.0, 0.0, 0.0, 0.0, -5548.619395329881, 0.0]
['beep', 0.0, 671.4016999485135, 0.0, 0.0, 0.0, 0.0, -5549.245244174629, 0.0]
['beep', 0.0, 673.0110255492957, 0.0, 0.0, 0.0, 0.0, -5552.57565409847, 0.0]
['beep', 0.0, 673.2121912493934, 0.0, 0.0, 0.0, 0.0, -5554.788476799546, 0.0]
['beep', 0.0, 674.5756476611672, 0.0, 0.0, 0.0, 0.0, -5553.737944810146, 0.0]
['beep', 0.0, 672.0722522821727, 0.0, 0.0, 0.0, 0.0, -5550.541645353037, 0.0]
['beep', 0.0, 671.6475691375219, 0.0, 0.0, 0.0, 0.0, -5552.218026187185, 0.0]
['beep', 0.0, 673.5921709051337, 0.0, 0.0, 0.0, 0.0, -5554.944939010732, 0.0]
['beep', 0.0, 673.6368743940443, 0.0, 0.0, 0.0, 0.0, -5559.705860579713, 0.0]
['beep', 0.0, 672.7651563602873, 0.0, 0.0, 0.0, 0.0, -5557.493037878638, 0.0]
['beep', 0.0, 671.9157900709856, 0.0, 0.0, 0.0, 0.0, -5552.553302354015, 0.0]
['beep', 0.0, 671.7146243708878, 0.0, 0.0, 0.0, 0.0, -5555.168456455285, 0.0]
['beep', 0.0, 672.0946040266281, 0.0, 0.0, 0.0, 0.0, -5556.643671589336, 0.0]
['beep', 0.0, 674.0615575386951, 0.0, 0.0, 0.0, 0.0, -5559.191770457241, 0.0]
['beep', 0.0, 672.2287144933599, 0.0, 0.0, 0.0, 0.0, -5552.553302354015, 0.0]
['beep', 0.0, 670.3958714480248, 0.0, 0.0, 0.0, 0.0, -5548.731154052157, 0.0]
['beep', 0.0, 671.804031348709, 0.0, 0.0, 0.0, 0.0, -5550.362831397394, 0.0]
['beep', 0.0, 672.2510662378152, 0.0, 0.0, 0.0, 0.0, -5554.72142156618, 0.0]
['beep', 0.0, 672.7651563602873, 0.0, 0.0, 0.0, 0.0, -5556.151933211319, 0.0]
['beep', 0.0, 671.0217202927734, 0.0, 0.0, 0.0, 0.0, -5556.688375078246, 0.0]
['beep', 0.0, 670.3064644702035, 0.0, 0.0, 0.0, 0.0, -5553.67088957678, 0.0]
['beep', 0.0, 669.3006359697147, 0.0, 0.0, 0.0, 0.0, -5553.045040732031, 0.0]
['beep', 0.0, 669.5688569031784, 0.0, 0.0, 0.0, 0.0, -5556.666023333791, 0.0]
['beep', 0.0, 670.5299819147566, 0.0, 0.0, 0.0, 0.0, -5559.705860579713, 0.0]
['beep', 0.0, 670.3511679591142, 0.0, 0.0, 0.0, 0.0, -5557.358927411906, 0.0]
['beep', 0.0, 667.4901446688348, 0.0, 0.0, 0.0, 0.0, -5554.00616574361, 0.0]
['beep', 0.0, 668.4065661915024, 0.0, 0.0, 0.0, 0.0, -5556.688375078246, 0.0]
['beep', 0.0, 671.1558307595052, 0.0, 0.0, 0.0, 0.0, -5553.603834343414, 0.0]
['beep', 0.0, 671.2452377373264, 0.0, 0.0, 0.0, 0.0, -5552.553302354015, 0.0]
['beep', 0.0, 670.1276505145611, 0.0, 0.0, 0.0, 0.0, -5553.961462254699, 0.0]
['beep', 0.0, 668.0042347913069, 0.0, 0.0, 0.0, 0.0, -5549.960499997199, 0.0]
['beep', 0.0, 666.8866475685415, 0.0, 0.0, 0.0, 0.0, -5552.106267464908, 0.0]
['beep', 0.0, 668.3171592136812, 0.0, 0.0, 0.0, 0.0, -5554.8555320329115, 0.0]
['beep', 0.0, 668.9877115473404, 0.0, 0.0, 0.0, 0.0, -5554.833180288456, 0.0]
['beep', 0.0, 669.7923743477314, 0.0, 0.0, 0.0, 0.0, -5555.0343459885535, 0.0]
['beep', 0.0, 667.4454411799242, 0.0, 0.0, 0.0, 0.0, -5552.843875031934, 0.0]
['beep', 0.0, 666.6184266350779, 0.0, 0.0, 0.0, 0.0, -5551.815694786989, 0.0]
['beep', 0.0, 668.3171592136812, 0.0, 0.0, 0.0, 0.0, -5557.560093112003, 0.0]
['beep', 0.0, 669.1888772474382, 0.0, 0.0, 0.0, 0.0, -5559.504694879615, 0.0]
['beep', 0.0, 669.3006359697147, 0.0, 0.0, 0.0, 0.0, -5555.391973899838, 0.0]
['beep', 0.0, 668.9206563139745, 0.0, 0.0, 0.0, 0.0, -5550.318127908484, 0.0]
['beep', 0.0, 668.384214447047, 0.0, 0.0, 0.0, 0.0, -5550.2734244195735, 0.0]
['beep', 0.0, 669.5241534142677, 0.0, 0.0, 0.0, 0.0, -5552.732116309657, 0.0]
['beep', 0.0, 672.1393075155387, 0.0, 0.0, 0.0, 0.0, -5557.224816945174, 0.0]
['beep', 0.0, 671.2452377373264, 0.0, 0.0, 0.0, 0.0, -5555.123752966375, 0.0]
['beep', 0.0, 670.3288162146588, 0.0, 0.0, 0.0, 0.0, -5552.285081420551, 0.0]
['beep', 0.0, 669.6582638809996, 0.0, 0.0, 0.0, 0.0, -5552.3297849094615, 0.0]
['beep', 0.0, 669.6582638809996, 0.0, 0.0, 0.0, 0.0, -5557.67185183428, 0.0]
['beep', 0.0, 671.6699208819772, 0.0, 0.0, 0.0, 0.0, -5558.834142545956, 0.0]
['beep', 0.0, 671.7369761153432, 0.0, 0.0, 0.0, 0.0, -5559.303529179518, 0.0]
['beep', 0.0, 670.4629266813906, 0.0, 0.0, 0.0, 0.0, -5558.8117908015, 0.0]
['beep', 0.0, 668.8536010806085, 0.0, 0.0, 0.0, 0.0, -5552.083915720453, 0.0]
['beep', 0.0, 670.0829470256505, 0.0, 0.0, 0.0, 0.0, -5553.469723876682, 0.0]
['beep', 0.0, 670.9770168038627, 0.0, 0.0, 0.0, 0.0, -5558.498866379126, 0.0]
['beep', 0.0, 671.066423781684, 0.0, 0.0, 0.0, 0.0, -5558.09653497893, 0.0]
['beep', 0.0, 669.8594295810974, 0.0, 0.0, 0.0, 0.0, -5552.732116309657, 0.0]
['beep', 0.0, 668.4736214248683, 0.0, 0.0, 0.0, 0.0, -5552.083915720453, 0.0]
['beep', 0.0, 670.0829470256505, 0.0, 0.0, 0.0, 0.0, -5556.353098911417, 0.0]
['beep', 0.0, 669.6359121365443, 0.0, 0.0, 0.0, 0.0, -5558.0294797455645, 0.0]
['beep', 0.0, 670.1276505145611, 0.0, 0.0, 0.0, 0.0, -5555.928415766766, 0.0]
['beep', 0.0, 668.7865458472427, 0.0, 0.0, 0.0, 0.0, -5554.564959354992, 0.0]
['beep', 0.0, 667.8477725801197, 0.0, 0.0, 0.0, 0.0, -5554.944939010732, 0.0]
['beep', 0.0, 668.4065661915024, 0.0, 0.0, 0.0, 0.0, -5559.169418712785, 0.0]
['beep', 0.0, 669.4123946919913, 0.0, 0.0, 0.0, 0.0, -5560.599930357925, 0.0]
['beep', 0.0, 668.6971388694213, 0.0, 0.0, 0.0, 0.0, -5555.7943053000345, 0.0]
['beep', 0.0, 666.4396126794354, 0.0, 0.0, 0.0, 0.0, -5550.139313952842, 0.0]
['beep', 0.0, 665.9925777903293, 0.0, 0.0, 0.0, 0.0, -5549.2228924301735, 0.0]
['beep', 0.0, 667.9148278134857, 0.0, 0.0, 0.0, 0.0, -5554.632014588358, 0.0]
['beep', 0.0, 669.3676912030807, 0.0, 0.0, 0.0, 0.0, -5557.783610556557, 0.0]
['beep', 0.0, 669.5018016698125, 0.0, 0.0, 0.0, 0.0, -5555.302566922017, 0.0]
['beep', 0.0, 667.4454411799242, 0.0, 0.0, 0.0, 0.0, -5550.9216250087775, 0.0]
['beep', 0.0, 667.1772202464605, 0.0, 0.0, 0.0, 0.0, -5550.631052330858, 0.0]
['beep', 0.0, 669.3453394586253, 0.0, 0.0, 0.0, 0.0, -5553.961462254699, 0.0]
['beep', 0.0, 670.0829470256505, 0.0, 0.0, 0.0, 0.0, -5554.989642499643, 0.0]
['beep', 0.0, 668.451269680413, 0.0, 0.0, 0.0, 0.0, -5553.29090992104, 0.0]
['beep', 0.0, 668.4959731693236, 0.0, 0.0, 0.0, 0.0, -5546.160703439797, 0.0]
['beep', 0.0, 667.7136621133878, 0.0, 0.0, 0.0, 0.0, -5546.071296461975, 0.0]
['beep', 0.0, 669.2782842252594, 0.0, 0.0, 0.0, 0.0, -5550.519293608581, 0.0]
['beep', 0.0, 669.4123946919913, 0.0, 0.0, 0.0, 0.0, -5553.648537832325, 0.0]
['beep', 0.0, 668.0489382802175, 0.0, 0.0, 0.0, 0.0, -5552.530950609559, 0.0]
['beep', 0.0, 666.9760545463628, 0.0, 0.0, 0.0, 0.0, -5550.653404075313, 0.0]
['beep', 0.0, 666.3949091905248, 0.0, 0.0, 0.0, 0.0, -5548.150008696319, 0.0]
['beep', 0.0, 668.7194906138767, 0.0, 0.0, 0.0, 0.0, -5549.3346511524505, 0.0]
['beep', 0.0, 669.3453394586253, 0.0, 0.0, 0.0, 0.0, -5552.732116309657, 0.0]
['beep', 0.0, 668.9877115473404, 0.0, 0.0, 0.0, 0.0, -5553.67088957678, 0.0]
['beep', 0.0, 668.7865458472427, 0.0, 0.0, 0.0, 0.0, -5546.697145306724, 0.0]
['beep', 0.0, 669.3676912030807, 0.0, 0.0, 0.0, 0.0, -5550.139313952842, 0.0]
['beep', 0.0, 669.7029673699102, 0.0, 0.0, 0.0, 0.0, -5551.52512210907, 0.0]
['beep', 0.0, 671.4016999485135, 0.0, 0.0, 0.0, 0.0, -5551.52512210907, 0.0]
['beep', 0.0, 671.2675894817817, 0.0, 0.0, 0.0, 0.0, -5552.5085988651035, 0.0]
['beep', 0.0, 670.2394092368376, 0.0, 0.0, 0.0, 0.0, -5549.401706385816, 0.0]
['beep', 0.0, 669.4794499253571, 0.0, 0.0, 0.0, 0.0, -5548.552340096515, 0.0]
['beep', 0.0, 670.0829470256505, 0.0, 0.0, 0.0, 0.0, -5552.888578520844, 0.0]
['beep', 0.0, 670.485278425846, 0.0, 0.0, 0.0, 0.0, -5553.000337243121, 0.0]
['beep', 0.0, 669.9488365589186, 0.0, 0.0, 0.0, 0.0, -5550.988680242143, 0.0]
['beep', 0.0, 668.3171592136812, 0.0, 0.0, 0.0, 0.0, -5548.999374985621, 0.0]
['beep', 0.0, 668.160697002494, 0.0, 0.0, 0.0, 0.0, -5549.357002896906, 0.0]
['beep', 0.0, 671.6475691375219, 0.0, 0.0, 0.0, 0.0, -5549.424058130272, 0.0]
['beep', 0.0, 673.5921709051337, 0.0, 0.0, 0.0, 0.0, -5552.553302354015, 0.0]
['beep', 0.0, 670.6193888925778, 0.0, 0.0, 0.0, 0.0, -5551.323956408973, 0.0]
['beep', 0.0, 670.2394092368376, 0.0, 0.0, 0.0, 0.0, -5547.47945636266, 0.0]
['beep', 0.0, 671.7816796042538, 0.0, 0.0, 0.0, 0.0, -5548.5746918409695, 0.0]
['beep', 0.0, 671.3569964596029, 0.0, 0.0, 0.0, 0.0, -5552.0392122315425, 0.0]
['beep', 0.0, 672.1393075155387, 0.0, 0.0, 0.0, 0.0, -5555.570787855481, 0.0]
['beep', 0.0, 671.4016999485135, 0.0, 0.0, 0.0, 0.0, -5554.676718077269, 0.0]
['beep', 0.0, 670.0605952811951, 0.0, 0.0, 0.0, 0.0, -5549.021726730076, 0.0]
['beep', 0.0, 669.5241534142677, 0.0, 0.0, 0.0, 0.0, -5548.351174396417, 0.0]
['beep', 0.0, 671.6922726264326, 0.0, 0.0, 0.0, 0.0, -5553.805000043511, 0.0]
['beep', 0.0, 672.9216185714745, 0.0, 0.0, 0.0, 0.0, -5554.944939010732, 0.0]
['beep', 0.0, 672.2510662378152, 0.0, 0.0, 0.0, 0.0, -5551.770991298079, 0.0]
['beep', 0.0, 672.2287144933599, 0.0, 0.0, 0.0, 0.0, -5549.558168597004, 0.0]
['beep', 0.0, 671.6252173930666, 0.0, 0.0, 0.0, 0.0, -5547.837084273945, 0.0]
['beep', 0.0, 671.2452377373264, 0.0, 0.0, 0.0, 0.0, -5551.927453509266, 0.0]
['beep', 0.0, 672.1840110044493, 0.0, 0.0, 0.0, 0.0, -5554.274386677073, 0.0]
['beep', 0.0, 670.7087958703991, 0.0, 0.0, 0.0, 0.0, -5553.894407021333, 0.0]
['beep', 0.0, 668.4065661915024, 0.0, 0.0, 0.0, 0.0, -5548.865264518889, 0.0]
['beep', 0.0, 668.384214447047, 0.0, 0.0, 0.0, 0.0, -5550.340479652939, 0.0]
['beep', 0.0, 670.5299819147566, 0.0, 0.0, 0.0, 0.0, -5552.150970953819, 0.0]
['beep', 0.0, 672.6981011269213, 0.0, 0.0, 0.0, 0.0, -5554.2073314437075, 0.0]
['beep', 0.0, 671.9828453043515, 0.0, 0.0, 0.0, 0.0, -5552.933282009755, 0.0]
['beep', 0.0, 671.4240516929689, 0.0, 0.0, 0.0, 0.0, -5548.507636607604, 0.0]
['beep', 0.0, 671.0217202927734, 0.0, 0.0, 0.0, 0.0, -5547.077124962464, 0.0]
['beep', 0.0, 673.1451360160275, 0.0, 0.0, 0.0, 0.0, -5550.04990697502, 0.0]
['beep', 0.0, 673.256894738304, 0.0, 0.0, 0.0, 0.0, -5554.564959354992, 0.0]
['beep', 0.0, 673.7039296274102, 0.0, 0.0, 0.0, 0.0, -5553.402668643316, 0.0]
['beep', 0.0, 672.3628249600918, 0.0, 0.0, 0.0, 0.0, -5547.322994151473, 0.0]
['beep', 0.0, 671.7369761153432, 0.0, 0.0, 0.0, 0.0, -5546.630090073359, 0.0]
['beep', 0.0, 670.9099615704968, 0.0, 0.0, 0.0, 0.0, -5551.927453509266, 0.0]
['beep', 0.0, 672.742804615832, 0.0, 0.0, 0.0, 0.0, -5552.553302354015, 0.0]
['beep', 0.0, 673.32394997167, 0.0, 0.0, 0.0, 0.0, -5550.318127908484, 0.0]
['beep', 0.0, 672.4745836823682, 0.0, 0.0, 0.0, 0.0, -5548.507636607604, 0.0]
['beep', 0.0, 673.32394997167, 0.0, 0.0, 0.0, 0.0, -5544.95370923921, 0.0]
['beep', 0.0, 673.6368743940443, 0.0, 0.0, 0.0, 0.0, -5547.747677296124, 0.0]
['beep', 0.0, 673.8156883496868, 0.0, 0.0, 0.0, 0.0, -5550.943976753232, 0.0]
['beep', 0.0, 674.2180197498823, 0.0, 0.0, 0.0, 0.0, -5551.256901175607, 0.0]
['beep', 0.0, 673.3686534605806, 0.0, 0.0, 0.0, 0.0, -5547.010069729098, 0.0]
['beep', 0.0, 672.3404732156364, 0.0, 0.0, 0.0, 0.0, -5546.004241228609, 0.0]
['beep', 0.0, 672.742804615832, 0.0, 0.0, 0.0, 0.0, -5548.9099680078, 0.0]
['beep', 0.0, 672.2734179822705, 0.0, 0.0, 0.0, 0.0, -5550.832218030956, 0.0]
['beep', 0.0, 671.1781825039604, 0.0, 0.0, 0.0, 0.0, -5549.915796508289, 0.0]
['beep', 0.0, 670.6417406370331, 0.0, 0.0, 0.0, 0.0, -5546.786552284545, 0.0]
['beep', 0.0, 670.6640923814884, 0.0, 0.0, 0.0, 0.0, -5546.38422088435, 0.0]
['beep', 0.0, 671.7369761153432, 0.0, 0.0, 0.0, 0.0, -5544.260805161096, 0.0]
['beep', 0.0, 673.6145226495889, 0.0, 0.0, 0.0, 0.0, -5547.1665319402855, 0.0]
['beep', 0.0, 672.7651563602873, 0.0, 0.0, 0.0, 0.0, -5548.060601718498, 0.0]
['beep', 0.0, 671.8934383265303, 0.0, 0.0, 0.0, 0.0, -5540.52806383706, 0.0]
['beep', 0.0, 671.7369761153432, 0.0, 0.0, 0.0, 0.0, -5542.33855513794, 0.0]
['beep', 0.0, 671.9157900709856, 0.0, 0.0, 0.0, 0.0, -5545.71366855069, 0.0]
['beep', 0.0, 672.6086941491001, 0.0, 0.0, 0.0, 0.0, -5549.066430218987, 0.0]
['beep', 0.0, 671.289941226237, 0.0, 0.0, 0.0, 0.0, -5545.378392383861, 0.0]
['beep', 0.0, 669.1218220140722, 0.0, 0.0, 0.0, 0.0, -5542.539720838037, 0.0]
['beep', 0.0, 668.9206563139745, 0.0, 0.0, 0.0, 0.0, -5541.533892337548, 0.0]
['beep', 0.0, 670.1500022590163, 0.0, 0.0, 0.0, 0.0, -5542.495017349126, 0.0]
['beep', 0.0, 671.1558307595052, 0.0, 0.0, 0.0, 0.0, -5543.165569682786, 0.0]
['beep', 0.0, 669.904133070008, 0.0, 0.0, 0.0, 0.0, -5539.701049292213, 0.0]
['beep', 0.0, 668.8088975916979, 0.0, 0.0, 0.0, 0.0, -5531.743828266123, 0.0]
['beep', 0.0, 668.4065661915024, 0.0, 0.0, 0.0, 0.0, -5529.553357309504, 0.0]
['beep', 0.0, 670.3511679591142, 0.0, 0.0, 0.0, 0.0, -5532.481435833149, 0.0]
['beep', 0.0, 672.1840110044493, 0.0, 0.0, 0.0, 0.0, -5530.447427087716, 0.0]
['beep', 0.0, 670.1052987701057, 0.0, 0.0, 0.0, 0.0, -5526.290002619029, 0.0]
['beep', 0.0, 668.3618627025918, 0.0, 0.0, 0.0, 0.0, -5521.707895005691, 0.0]
['beep', 0.0, 668.2501039803152, 0.0, 0.0, 0.0, 0.0, -5516.499938547604, 0.0]
['beep', 0.0, 667.065461524184, 0.0, 0.0, 0.0, 0.0, -5511.023761156054, 0.0]
['beep', 0.0, 667.3783859465583, 0.0, 0.0, 0.0, 0.0, -5508.095682632409, 0.0]
['beep', 0.0, 669.3900429475359, 0.0, 0.0, 0.0, 0.0, -5501.703083718191, 0.0]
['beep', 0.0, 668.3618627025918, 0.0, 0.0, 0.0, 0.0, -5489.499031245593, 0.0]
['beep', 0.0, 667.0878132686393, 0.0, 0.0, 0.0, 0.0, -5482.100603830887, 0.0]
['beep', 0.0, 665.8361155791421, 0.0, 0.0, 0.0, 0.0, -5476.222095039141, 0.0]
['beep', 0.0, 667.7807173467538, 0.0, 0.0, 0.0, 0.0, -5472.779926393024, 0.0]
['beep', 0.0, 666.8419440796309, 0.0, 0.0, 0.0, 0.0, -5466.32027224544, 0.0]
['beep', 0.0, 665.9925777903293, 0.0, 0.0, 0.0, 0.0, -5457.267815741041, 0.0]
['beep', 0.0, 664.159734744994, 0.0, 0.0, 0.0, 0.0, -5456.485504685104, 0.0]
['beep', 0.0, 665.0538045232064, 0.0, 0.0, 0.0, 0.0, -5457.133705274308, 0.0]
['beep', 0.0, 665.7020051124102, 0.0, 0.0, 0.0, 0.0, -5459.972376820133, 0.0]
['beep', 0.0, 664.807935334198, 0.0, 0.0, 0.0, 0.0, -5458.161885519253, 0.0]
['beep', 0.0, 662.4162986774801, 0.0, 0.0, 0.0, 0.0, -5458.1171820303425, 0.0]
['beep', 0.0, 662.3939469330248, 0.0, 0.0, 0.0, 0.0, -5459.547693675482, 0.0]
['beep', 0.0, 664.9196940564746, 0.0, 0.0, 0.0, 0.0, -5459.391231464295, 0.0]
['beep', 0.0, 668.8983045695192, 0.0, 0.0, 0.0, 0.0, -5466.990824579099, 0.0]
['beep', 0.0, 669.4123946919913, 0.0, 0.0, 0.0, 0.0, -5468.9801298356215, 0.0]
['beep', 0.0, 667.2889789687371, 0.0, 0.0, 0.0, 0.0, -5468.600150179881, 0.0]
['beep', 0.0, 667.2219237353711, 0.0, 0.0, 0.0, 0.0, -5473.875161871334, 0.0]
['beep', 0.0, 667.6019033911114, 0.0, 0.0, 0.0, 0.0, -5480.2454090410965, 0.0]
['beep', 0.0, 669.8594295810974, 0.0, 0.0, 0.0, 0.0, -5484.089909087409, 0.0]
['beep', 0.0, 668.4065661915024, 0.0, 0.0, 0.0, 0.0, -5488.850830656389, 0.0]
['beep', 0.0, 666.774888846265, 0.0, 0.0, 0.0, 0.0, -5489.901362645789, 0.0]
['beep', 0.0, 664.807935334198, 0.0, 0.0, 0.0, 0.0, -5492.024778369043, 0.0]
['beep', 0.0, 666.1490400015164, 0.0, 0.0, 0.0, 0.0, -5497.27743831604, 0.0]
['beep', 0.0, 666.9313510574522, 0.0, 0.0, 0.0, 0.0, -5505.659342486781, 0.0]
['beep', 0.0, 667.7807173467538, 0.0, 0.0, 0.0, 0.0, -5505.011141897577, 0.0]
['beep', 0.0, 667.7360138578432, 0.0, 0.0, 0.0, 0.0, -5503.513575019071, 0.0]
['beep', 0.0, 665.9255225569633, 0.0, 0.0, 0.0, 0.0, -5506.285191331529, 0.0]
['beep', 0.0, 665.8808190680527, 0.0, 0.0, 0.0, 0.0, -5511.627258256347, 0.0]
['beep', 0.0, 669.3453394586253, 0.0, 0.0, 0.0, 0.0, -5515.9411449362215, 0.0]
['beep', 0.0, 669.4570981809019, 0.0, 0.0, 0.0, 0.0, -5515.203537369196, 0.0]
['beep', 0.0, 668.8312493361533, 0.0, 0.0, 0.0, 0.0, -5512.990714668121, 0.0]
['beep', 0.0, 668.1383452580387, 0.0, 0.0, 0.0, 0.0, -5516.0529036584985, 0.0]
['beep', 0.0, 668.6524353805107, 0.0, 0.0, 0.0, 0.0, -5521.976115939155, 0.0]
['beep', 0.0, 669.5018016698125, 0.0, 0.0, 0.0, 0.0, -5524.837139229434, 0.0]
['beep', 0.0, 669.4570981809019, 0.0, 0.0, 0.0, 0.0, -5524.9041944628, 0.0]
['beep', 0.0, 667.7807173467538, 0.0, 0.0, 0.0, 0.0, -5525.775912496557, 0.0]
['beep', 0.0, 667.6913103689326, 0.0, 0.0, 0.0, 0.0, -5523.026647928554, 0.0]
['beep', 0.0, 668.1383452580387, 0.0, 0.0, 0.0, 0.0, -5527.0946654194195, 0.0]
['beep', 0.0, 669.3900429475359, 0.0, 0.0, 0.0, 0.0, -5532.034400944042, 0.0]
['beep', 0.0, 667.9595313023963, 0.0, 0.0, 0.0, 0.0, -5533.28609863354, 0.0]
['beep', 0.0, 667.0207580352734, 0.0, 0.0, 0.0, 0.0, -5529.642764287325, 0.0]
['beep', 0.0, 665.3890806900359, 0.0, 0.0, 0.0, 0.0, -5531.520310821571, 0.0]
['beep', 0.0, 666.6854818684437, 0.0, 0.0, 0.0, 0.0, -5534.00135445611, 0.0]
['beep', 0.0, 668.9653598028851, 0.0, 0.0, 0.0, 0.0, -5537.711744035691, 0.0]
['beep', 0.0, 669.099470269617, 0.0, 0.0, 0.0, 0.0, -5538.918738236277, 0.0]
['beep', 0.0, 668.4065661915024, 0.0, 0.0, 0.0, 0.0, -5534.336630622939, 0.0]
['beep', 0.0, 667.5571999022008, 0.0, 0.0, 0.0, 0.0, -5539.678697547758, 0.0]
['beep', 0.0, 669.9711883033739, 0.0, 0.0, 0.0, 0.0, -5538.024668458065, 0.0]
['beep', 0.0, 672.0051970488068, 0.0, 0.0, 0.0, 0.0, -5536.683563790746, 0.0]
['beep', 0.0, 672.3404732156364, 0.0, 0.0, 0.0, 0.0, -5537.465874846683, 0.0]
['beep', 0.0, 671.0440720372286, 0.0, 0.0, 0.0, 0.0, -5535.498921334615, 0.0]
['beep', 0.0, 670.7534993593097, 0.0, 0.0, 0.0, 0.0, -5536.9517847242105, 0.0]
['beep', 0.0, 671.066423781684, 0.0, 0.0, 0.0, 0.0, -5541.556244082003, 0.0]
['beep', 0.0, 675.1344412725498, 0.0, 0.0, 0.0, 0.0, -5541.779761526556, 0.0]
['beep', 0.0, 676.0061593063068, 0.0, 0.0, 0.0, 0.0, -5539.790456270034, 0.0]
['beep', 0.0, 674.7544616168096, 0.0, 0.0, 0.0, 0.0, -5538.538758580537, 0.0]
['beep', 0.0, 674.8438685946309, 0.0, 0.0, 0.0, 0.0, -5539.879863247856, 0.0]
['beep', 0.0, 677.32491222917, 0.0, 0.0, 0.0, 0.0, -5540.036325459043, 0.0]
['beep', 0.0, 678.5319064297565, 0.0, 0.0, 0.0, 0.0, -5541.265671404085, 0.0]
['beep', 0.0, 677.5037261848124, 0.0, 0.0, 0.0, 0.0, -5539.052848703009, 0.0]
['beep', 0.0, 675.0226825502733, 0.0, 0.0, 0.0, 0.0, -5536.102418434909, 0.0]
['beep', 0.0, 672.9886738048403, 0.0, 0.0, 0.0, 0.0, -5536.504749835104, 0.0]
['beep', 0.0, 672.3181214711811, 0.0, 0.0, 0.0, 0.0, -5541.377430126361, 0.0]
['beep', 0.0, 672.8545633381085, 0.0, 0.0, 0.0, 0.0, -5545.356040639405, 0.0]
['beep', 0.0, 672.6533976380107, 0.0, 0.0, 0.0, 0.0, -5545.66896506178, 0.0]
['beep', 0.0, 671.804031348709, 0.0, 0.0, 0.0, 0.0, -5544.283156905551, 0.0]
['beep', 0.0, 672.1393075155387, 0.0, 0.0, 0.0, 0.0, -5542.807941771501, 0.0]
['beep', 0.0, 671.804031348709, 0.0, 0.0, 0.0, 0.0, -5542.740886538135, 0.0]
['beep', 0.0, 673.1674877604828, 0.0, 0.0, 0.0, 0.0, -5546.943014495732, 0.0]
['beep', 0.0, 673.32394997167, 0.0, 0.0, 0.0, 0.0, -5545.914834250789, 0.0]
['beep', 0.0, 672.4075284490024, 0.0, 0.0, 0.0, 0.0, -5544.707840050201, 0.0]
['beep', 0.0, 672.9886738048403, 0.0, 0.0, 0.0, 0.0, -5542.830293515956, 0.0]
['beep', 0.0, 674.3968337055247, 0.0, 0.0, 0.0, 0.0, -5542.025630715565, 0.0]
['beep', 0.0, 674.4415371944353, 0.0, 0.0, 0.0, 0.0, -5547.904139507311, 0.0]
['beep', 0.0, 674.642702894533, 0.0, 0.0, 0.0, 0.0, -5548.351174396417, 0.0]
['beep', 0.0, 674.7768133612649, 0.0, 0.0, 0.0, 0.0, -5540.259842903596, 0.0]
['beep', 0.0, 672.4745836823682, 0.0, 0.0, 0.0, 0.0, -5540.840988259433, 0.0]
['beep', 0.0, 674.1956680054269, 0.0, 0.0, 0.0, 0.0, -5547.2782906625625, 0.0]
['beep', 0.0, 674.486240683346, 0.0, 0.0, 0.0, 0.0, -5549.960499997199, 0.0]
['beep', 0.0, 675.5591244172007, 0.0, 0.0, 0.0, 0.0, -5546.853607517911, 0.0]
['beep', 0.0, 673.6592261384995, 0.0, 0.0, 0.0, 0.0, -5540.595119070425, 0.0]
['beep', 0.0, 671.2005342484158, 0.0, 0.0, 0.0, 0.0, -5538.561110324992, 0.0]
['beep', 0.0, 673.3463017161253, 0.0, 0.0, 0.0, 0.0, -5547.188883684741, 0.0]
['beep', 0.0, 680.2306390083598, 0.0, 0.0, 0.0, 0.0, -5546.272462162074, 0.0]
['beep', 0.0, 680.0741767971726, 0.0, 0.0, 0.0, 0.0, -5541.980927226655, 0.0]
['beep', 0.0, 676.453194195413, 0.0, 0.0, 0.0, 0.0, -5539.343421380928, 0.0]
['beep', 0.0, 673.256894738304, 0.0, 0.0, 0.0, 0.0, -5537.28706089104, 0.0]
['beep', 0.0, 675.8273453506644, 0.0, 0.0, 0.0, 0.0, -5541.578595826459, 0.0]
['beep', 0.0, 677.6154849070889, 0.0, 0.0, 0.0, 0.0, -5542.629127815858, 0.0]
['beep', 0.0, 677.9507610739186, 0.0, 0.0, 0.0, 0.0, -5545.333688894951, 0.0]
['beep', 0.0, 677.8166506071867, 0.0, 0.0, 0.0, 0.0, -5541.645651059825, 0.0]
['beep', 0.0, 676.386138962047, 0.0, 0.0, 0.0, 0.0, -5538.806979514001, 0.0]
['beep', 0.0, 677.7719471182761, 0.0, 0.0, 0.0, 0.0, -5541.690354548736, 0.0]
['beep', 0.0, 678.6883686409436, 0.0, 0.0, 0.0, 0.0, -5546.607738328903, 0.0]
['beep', 0.0, 679.0236448077733, 0.0, 0.0, 0.0, 0.0, -5542.696183049225, 0.0]
['beep', 0.0, 677.5931331626336, 0.0, 0.0, 0.0, 0.0, -5540.192787670229, 0.0]
['beep', 0.0, 675.872048839575, 0.0, 0.0, 0.0, 0.0, -5539.81280801449, 0.0]
['beep', 0.0, 676.743766873332, 0.0, 0.0, 0.0, 0.0, -5542.539720838037, 0.0]
['beep', 0.0, 679.4706796968794, 0.0, 0.0, 0.0, 0.0, -5544.305508650006, 0.0]
['beep', 0.0, 679.8506593526196, 0.0, 0.0, 0.0, 0.0, -5544.596081327925, 0.0]
['beep', 0.0, 677.1684500179828, 0.0, 0.0, 0.0, 0.0, -5543.657308060802, 0.0]
['beep', 0.0, 676.7661186177872, 0.0, 0.0, 0.0, 0.0, -5543.456142360705, 0.0]
['beep', 0.0, 678.1742785184716, 0.0, 0.0, 0.0, 0.0, -5546.652441817813, 0.0]
['beep', 0.0, 680.1859355194492, 0.0, 0.0, 0.0, 0.0, -5550.027555230565, 0.0]
['beep', 0.0, 680.4541564529129, 0.0, 0.0, 0.0, 0.0, -5545.065467961486, 0.0]
['beep', 0.0, 681.549391931223, 0.0, 0.0, 0.0, 0.0, -5540.326898136962, 0.0]
['beep', 0.0, 679.7389006303431, 0.0, 0.0, 0.0, 0.0, -5539.522235336571, 0.0]
['beep', 0.0, 681.258819253304, 0.0, 0.0, 0.0, 0.0, -5543.769066783079, 0.0]
['beep', 0.0, 682.5999239206224, 0.0, 0.0, 0.0, 0.0, -5545.780723784056, 0.0]
['beep', 0.0, 682.711682642899, 0.0, 0.0, 0.0, 0.0, -5544.618433072381, 0.0]
['beep', 0.0, 681.6835023979548, 0.0, 0.0, 0.0, 0.0, -5542.38325862685, 0.0]
['beep', 0.0, 681.4152814644912, 0.0, 0.0, 0.0, 0.0, -5544.327860394462, 0.0]
['beep', 0.0, 679.3365692301476, 0.0, 0.0, 0.0, 0.0, -5544.19374992773, 0.0]
['beep', 0.0, 679.805955863709, 0.0, 0.0, 0.0, 0.0, -5547.233587173651, 0.0]
['beep', 0.0, 681.1247087865721, 0.0, 0.0, 0.0, 0.0, -5549.111133707897, 0.0]
['beep', 0.0, 680.7000256419213, 0.0, 0.0, 0.0, 0.0, -5545.512502850593, 0.0]
['beep', 0.0, 679.2024587634157, 0.0, 0.0, 0.0, 0.0, -5541.243319659629, 0.0]
['beep', 0.0, 680.8341361086532, 0.0, 0.0, 0.0, 0.0, -5545.758372039601, 0.0]
['beep', 0.0, 683.7175111433877, 0.0, 0.0, 0.0, 0.0, -5548.5746918409695, 0.0]
['beep', 0.0, 682.8457931096308, 0.0, 0.0, 0.0, 0.0, -5546.719497051179, 0.0]
['beep', 0.0, 682.711682642899, 0.0, 0.0, 0.0, 0.0, -5545.557206339504, 0.0]
['beep', 0.0, 681.7282058868655, 0.0, 0.0, 0.0, 0.0, -5545.959537739699, 0.0]
['beep', 0.0, 682.9575518319073, 0.0, 0.0, 0.0, 0.0, -5548.082953462953, 0.0]
['beep', 0.0, 683.7622146322983, 0.0, 0.0, 0.0, 0.0, -5547.345345895928, 0.0]
['beep', 0.0, 684.9915605773402, 0.0, 0.0, 0.0, 0.0, -5545.1101714503975, 0.0]
['beep', 0.0, 683.1363657875497, 0.0, 0.0, 0.0, 0.0, -5541.533892337548, 0.0]
['beep', 0.0, 682.5328686872565, 0.0, 0.0, 0.0, 0.0, -5541.131560937352, 0.0]
['beep', 0.0, 682.130537287061, 0.0, 0.0, 0.0, 0.0, -5545.266633661585, 0.0]
['beep', 0.0, 684.678636154966, 0.0, 0.0, 0.0, 0.0, -5544.305508650006, 0.0]
['beep', 0.0, 684.5668774326894, 0.0, 0.0, 0.0, 0.0, -5543.657308060802, 0.0]
['beep', 0.0, 682.9575518319073, 0.0, 0.0, 0.0, 0.0, -5540.192787670229, 0.0]
['beep', 0.0, 682.130537287061, 0.0, 0.0, 0.0, 0.0, -5540.393953370328, 0.0]
['beep', 0.0, 683.4269384654688, 0.0, 0.0, 0.0, 0.0, -5541.511540593093, 0.0]
['beep', 0.0, 683.9857320768514, 0.0, 0.0, 0.0, 0.0, -5544.886654005844, 0.0]
['beep', 0.0, 684.3433599881363, 0.0, 0.0, 0.0, 0.0, -5542.204444671207, 0.0]
['beep', 0.0, 684.2316012658598, 0.0, 0.0, 0.0, 0.0, -5535.789494012534, 0.0]
['beep', 0.0, 682.2199442648822, 0.0, 0.0, 0.0, 0.0, -5531.900290477311, 0.0]
['beep', 0.0, 682.9799035763626, 0.0, 0.0, 0.0, 0.0, -5528.726342764658, 0.0]
['beep', 0.0, 682.935200087452, 0.0, 0.0, 0.0, 0.0, -5531.073275932465, 0.0]
['beep', 0.0, 683.0246070652732, 0.0, 0.0, 0.0, 0.0, -5527.072313674965, 0.0]
['beep', 0.0, 679.6718453969771, 0.0, 0.0, 0.0, 0.0, -5519.495072304616, 0.0]
['beep', 0.0, 679.8953628415302, 0.0, 0.0, 0.0, 0.0, -5511.537851278526, 0.0]
['beep', 0.0, 680.9905983198403, 0.0, 0.0, 0.0, 0.0, -5508.922697177255, 0.0]
['beep', 0.0, 682.354054731614, 0.0, 0.0, 0.0, 0.0, -5507.961572165677, 0.0]
['beep', 0.0, 681.1247087865721, 0.0, 0.0, 0.0, 0.0, -5500.56314475097, 0.0]
['beep', 0.0, 680.096528541628, 0.0, 0.0, 0.0, 0.0, -5488.783775423023, 0.0]
['beep', 0.0, 678.2860372407481, 0.0, 0.0, 0.0, 0.0, -5484.089909087409, 0.0]
['beep', 0.0, 677.4590226959018, 0.0, 0.0, 0.0, 0.0, -5482.055900341976, 0.0]
['beep', 0.0, 677.0566912957063, 0.0, 0.0, 0.0, 0.0, -5471.349414747884, 0.0]
['beep', 0.0, 674.0839092831504, 0.0, 0.0, 0.0, 0.0, -5462.185199521208, 0.0]
['beep', 0.0, 671.8263830931644, 0.0, 0.0, 0.0, 0.0, -5454.585606406404, 0.0]
['beep', 0.0, 670.3735197035694, 0.0, 0.0, 0.0, 0.0, -5450.159961004253, 0.0]
['beep', 0.0, 671.1334790150498, 0.0, 0.0, 0.0, 0.0, -5447.1424755027865, 0.0]
['beep', 0.0, 672.8992668270191, 0.0, 0.0, 0.0, 0.0, -5447.008365036055, 0.0]
['beep', 0.0, 672.4969354268236, 0.0, 0.0, 0.0, 0.0, -5444.549673145971, 0.0]
['beep', 0.0, 670.5076301703012, 0.0, 0.0, 0.0, 0.0, -5437.2183009646305, 0.0]
['beep', 0.0, 667.8254208356644, 0.0, 0.0, 0.0, 0.0, -5442.336850444895, 0.0]
['beep', 0.0, 667.3336824576477, 0.0, 0.0, 0.0, 0.0, -5446.8519028248675, 0.0]
['beep', 0.0, 670.2841127257482, 0.0, 0.0, 0.0, 0.0, -5447.835379580901, 0.0]
['beep', 0.0, 669.6359121365443, 0.0, 0.0, 0.0, 0.0, -5445.644908624281, 0.0]
['beep', 0.0, 667.6689586244772, 0.0, 0.0, 0.0, 0.0, -5443.342678945384, 0.0]
['beep', 0.0, 666.774888846265, 0.0, 0.0, 0.0, 0.0, -5448.058897025454, 0.0]
['beep', 0.0, 667.2219237353711, 0.0, 0.0, 0.0, 0.0, -5456.396097707284, 0.0]
['beep', 0.0, 667.9148278134857, 0.0, 0.0, 0.0, 0.0, -5459.860618097856, 0.0]
['beep', 0.0, 668.8536010806085, 0.0, 0.0, 0.0, 0.0, -5464.353318733373, 0.0]
['beep', 0.0, 668.9653598028851, 0.0, 0.0, 0.0, 0.0, -5465.582664678414, 0.0]
['beep', 0.0, 668.8983045695192, 0.0, 0.0, 0.0, 0.0, -5466.32027224544, 0.0]
['beep', 0.0, 669.2335807363488, 0.0, 0.0, 0.0, 0.0, -5471.751746148079, 0.0]
['beep', 0.0, 671.3122929706923, 0.0, 0.0, 0.0, 0.0, -5481.631217197325, 0.0]
['beep', 0.0, 671.9828453043515, 0.0, 0.0, 0.0, 0.0, -5482.033548597521, 0.0]
['beep', 0.0, 672.6310458935554, 0.0, 0.0, 0.0, 0.0, -5478.166696806753, 0.0]
['beep', 0.0, 671.4240516929689, 0.0, 0.0, 0.0, 0.0, -5480.357167763373, 0.0]
['beep', 0.0, 672.8769150825639, 0.0, 0.0, 0.0, 0.0, -5487.330912033429, 0.0]
['beep', 0.0, 674.1733162609717, 0.0, 0.0, 0.0, 0.0, -5494.617580725859, 0.0]
['beep', 0.0, 673.5474674162231, 0.0, 0.0, 0.0, 0.0, -5495.9810371376325, 0.0]
['beep', 0.0, 671.5134586707901, 0.0, 0.0, 0.0, 0.0, -5494.304656303484, 0.0]
['beep', 0.0, 671.0887755261392, 0.0, 0.0, 0.0, 0.0, -5495.019912126054, 0.0]
['beep', 0.0, 672.2510662378152, 0.0, 0.0, 0.0, 0.0, -5500.585496495426, 0.0]
['beep', 0.0, 674.1062610276057, 0.0, 0.0, 0.0, 0.0, -5503.357112807884, 0.0]
['beep', 0.0, 675.0226825502733, 0.0, 0.0, 0.0, 0.0, -5506.061673886976, 0.0]
['beep', 0.0, 672.4745836823682, 0.0, 0.0, 0.0, 0.0, -5506.665170987269, 0.0]
['beep', 0.0, 672.7651563602873, 0.0, 0.0, 0.0, 0.0, -5509.705008233191, 0.0]
['beep', 0.0, 674.2403714943375, 0.0, 0.0, 0.0, 0.0, -5510.822595455957, 0.0]
['beep', 0.0, 675.0450342947286, 0.0, 0.0, 0.0, 0.0, -5511.80607221199, 0.0]
['beep', 0.0, 675.8273453506644, 0.0, 0.0, 0.0, 0.0, -5512.096644889909, 0.0]
['beep', 0.0, 675.0450342947286, 0.0, 0.0, 0.0, 0.0, -5513.013066412576, 0.0]
['beep', 0.0, 673.1227842715722, 0.0, 0.0, 0.0, 0.0, -5514.197708868708, 0.0]
['beep', 0.0, 673.9274470719632, 0.0, 0.0, 0.0, 0.0, -5515.9411449362215, 0.0]
['beep', 0.0, 675.2014965059158, 0.0, 0.0, 0.0, 0.0, -5519.584479282436, 0.0]
['beep', 0.0, 674.5309441722566, 0.0, 0.0, 0.0, 0.0, -5519.897403704811, 0.0]
['beep', 0.0, 672.2957697267258, 0.0, 0.0, 0.0, 0.0, -5518.355133337394, 0.0]
['beep', 0.0, 671.5581621597007, 0.0, 0.0, 0.0, 0.0, -5519.383313582339, 0.0]
['beep', 0.0, 673.2121912493934, 0.0, 0.0, 0.0, 0.0, -5522.825482228456, 0.0]
['beep', 0.0, 675.6261796505665, 0.0, 0.0, 0.0, 0.0, -5528.860453231389, 0.0]
['beep', 0.0, 674.709758127899, 0.0, 0.0, 0.0, 0.0, -5528.301659620007, 0.0]
['beep', 0.0, 673.033377293751, 0.0, 0.0, 0.0, 0.0, -5522.9819444396435, 0.0]
['beep', 0.0, 674.486240683346, 0.0, 0.0, 0.0, 0.0, -5519.271554860063, 0.0]
['beep', 0.0, 675.290903483737, 0.0, 0.0, 0.0, 0.0, -5525.395932840816, 0.0]
['beep', 0.0, 676.9002290845191, 0.0, 0.0, 0.0, 0.0, -5531.09562767692, 0.0]
['beep', 0.0, 676.7884703622426, 0.0, 0.0, 0.0, 0.0, -5528.23460438664, 0.0]
['beep', 0.0, 675.6708831394772, 0.0, 0.0, 0.0, 0.0, -5525.083008418443, 0.0]
['beep', 0.0, 675.4250139504688, 0.0, 0.0, 0.0, 0.0, -5524.457159573693, 0.0]
['beep', 0.0, 675.4697174393795, 0.0, 0.0, 0.0, 0.0, -5530.76035151009, 0.0]
['beep', 0.0, 675.7826418617537, 0.0, 0.0, 0.0, 0.0, -5532.52613932206, 0.0]
['beep', 0.0, 675.2461999948264, 0.0, 0.0, 0.0, 0.0, -5531.81088349949, 0.0]
['beep', 0.0, 674.3074267277035, 0.0, 0.0, 0.0, 0.0, -5529.061618931487, 0.0]
['beep', 0.0, 672.4075284490024, 0.0, 0.0, 0.0, 0.0, -5529.039267187031, 0.0]
['beep', 0.0, 673.5251156717677, 0.0, 0.0, 0.0, 0.0, -5529.016915442577, 0.0]
['beep', 0.0, 674.7768133612649, 0.0, 0.0, 0.0, 0.0, -5531.497959077115, 0.0]
['beep', 0.0, 675.000330805818, 0.0, 0.0, 0.0, 0.0, -5532.213214899685, 0.0]
['beep', 0.0, 673.5474674162231, 0.0, 0.0, 0.0, 0.0, -5530.268613132073, 0.0]
['beep', 0.0, 671.5581621597007, 0.0, 0.0, 0.0, 0.0, -5530.76035151009, 0.0]
['beep', 0.0, 672.8322115936533, 0.0, 0.0, 0.0, 0.0, -5534.113113178386, 0.0]
['beep', 0.0, 674.0392057942398, 0.0, 0.0, 0.0, 0.0, -5537.577633568959, 0.0]
['beep', 0.0, 673.7709848607761, 0.0, 0.0, 0.0, 0.0, -5537.443523102227, 0.0]
['beep', 0.0, 674.3968337055247, 0.0, 0.0, 0.0, 0.0, -5536.594156812926, 0.0]
['beep', 0.0, 672.6310458935554, 0.0, 0.0, 0.0, 0.0, -5536.057714945998, 0.0]
['beep', 0.0, 673.4804121828571, 0.0, 0.0, 0.0, 0.0, -5534.515444578582, 0.0]
['beep', 0.0, 674.8215168501755, 0.0, 0.0, 0.0, 0.0, -5537.063543446487, 0.0]
['beep', 0.0, 674.5532959167118, 0.0, 0.0, 0.0, 0.0, -5536.080066690453, 0.0]
['beep', 0.0, 674.1062610276057, 0.0, 0.0, 0.0, 0.0, -5533.062581188987, 0.0]
['beep', 0.0, 674.4638889388906, 0.0, 0.0, 0.0, 0.0, -5533.084932933442, 0.0]
['beep', 0.0, 675.4920691838347, 0.0, 0.0, 0.0, 0.0, -5536.460046346194, 0.0]
['beep', 0.0, 676.6096564066, 0.0, 0.0, 0.0, 0.0, -5541.3550783819055, 0.0]
['beep', 0.0, 676.1402697730387, 0.0, 0.0, 0.0, 0.0, -5542.226796415663, 0.0]
['beep', 0.0, 672.5863424046448, 0.0, 0.0, 0.0, 0.0, -5535.47656959016, 0.0]
['beep', 0.0, 671.4240516929689, 0.0, 0.0, 0.0, 0.0, -5534.627203300858, 0.0]
['beep', 0.0, 673.4804121828571, 0.0, 0.0, 0.0, 0.0, -5540.57276732597, 0.0]
['beep', 0.0, 674.5309441722566, 0.0, 0.0, 0.0, 0.0, -5543.433790616249, 0.0]
['beep', 0.0, 674.7321098723543, 0.0, 0.0, 0.0, 0.0, -5539.969270225677, 0.0]
['beep', 0.0, 674.2180197498823, 0.0, 0.0, 0.0, 0.0, -5533.375505611361, 0.0]
['beep', 0.0, 672.9663220603851, 0.0, 0.0, 0.0, 0.0, -5534.738962023135, 0.0]
['beep', 0.0, 673.3686534605806, 0.0, 0.0, 0.0, 0.0, -5536.9517847242105, 0.0]
['beep', 0.0, 676.2073250064045, 0.0, 0.0, 0.0, 0.0, -5540.282194648051, 0.0]
['beep', 0.0, 675.3356069726476, 0.0, 0.0, 0.0, 0.0, -5541.243319659629, 0.0]
['beep', 0.0, 673.033377293751, 0.0, 0.0, 0.0, 0.0, -5537.577633568959, 0.0]
['beep', 0.0, 671.8487348376196, 0.0, 0.0, 0.0, 0.0, -5534.202520156207, 0.0]
['beep', 0.0, 673.5474674162231, 0.0, 0.0, 0.0, 0.0, -5538.1811306692525, 0.0]
['beep', 0.0, 674.6874063834437, 0.0, 0.0, 0.0, 0.0, -5544.663136561291, 0.0]
['beep', 0.0, 673.8603918385974, 0.0, 0.0, 0.0, 0.0, -5543.254976660607, 0.0]
['beep', 0.0, 673.3686534605806, 0.0, 0.0, 0.0, 0.0, -5537.175302168764, 0.0]
['beep', 0.0, 672.3628249600918, 0.0, 0.0, 0.0, 0.0, -5534.269575389573, 0.0]
['beep', 0.0, 674.1956680054269, 0.0, 0.0, 0.0, 0.0, -5537.577633568959, 0.0]
['beep', 0.0, 677.2802087402594, 0.0, 0.0, 0.0, 0.0, -5543.187921427241, 0.0]
['beep', 0.0, 676.8778773400638, 0.0, 0.0, 0.0, 0.0, -5544.618433072381, 0.0]
['beep', 0.0, 673.9497988164186, 0.0, 0.0, 0.0, 0.0, -5538.806979514001, 0.0]
['beep', 0.0, 673.256894738304, 0.0, 0.0, 0.0, 0.0, -5537.845854502422, 0.0]
['beep', 0.0, 674.1062610276057, 0.0, 0.0, 0.0, 0.0, -5541.0645057039865, 0.0]
['beep', 0.0, 675.0897377836392, 0.0, 0.0, 0.0, 0.0, -5544.149046438819, 0.0]
['beep', 0.0, 676.095566284128, 0.0, 0.0, 0.0, 0.0, -5547.121828451375, 0.0]
['beep', 0.0, 675.2461999948264, 0.0, 0.0, 0.0, 0.0, -5544.663136561291, 0.0]
['beep', 0.0, 674.8438685946309, 0.0, 0.0, 0.0, 0.0, -5540.908043492799, 0.0]
['beep', 0.0, 675.4473656949241, 0.0, 0.0, 0.0, 0.0, -5544.841950516934, 0.0]
['beep', 0.0, 677.0566912957063, 0.0, 0.0, 0.0, 0.0, -5547.501808107115, 0.0]
['beep', 0.0, 676.9002290845191, 0.0, 0.0, 0.0, 0.0, -5544.618433072381, 0.0]
['beep', 0.0, 675.5591244172007, 0.0, 0.0, 0.0, 0.0, -5539.499883592115, 0.0]
['beep', 0.0, 672.1393075155387, 0.0, 0.0, 0.0, 0.0, -5538.8293312584565, 0.0]
['beep', 0.0, 672.675749382466, 0.0, 0.0, 0.0, 0.0, -5544.260805161096, 0.0]
['beep', 0.0, 674.5756476611672, 0.0, 0.0, 0.0, 0.0, -5546.741848795635, 0.0]
['beep', 0.0, 678.7330721298542, 0.0, 0.0, 0.0, 0.0, -5544.9984127281205, 0.0]
['beep', 0.0, 680.1188802860833, 0.0, 0.0, 0.0, 0.0, -5542.249148160118, 0.0]
['beep', 0.0, 678.4648511963906, 0.0, 0.0, 0.0, 0.0, -5543.076162704964, 0.0]
['beep', 0.0, 678.0178163072844, 0.0, 0.0, 0.0, 0.0, -5545.62426157287, 0.0]
['beep', 0.0, 679.1130517855945, 0.0, 0.0, 0.0, 0.0, -5546.004241228609, 0.0]
['beep', 0.0, 678.9118860854967, 0.0, 0.0, 0.0, 0.0, -5547.077124962464, 0.0]
['beep', 0.0, 678.6660168964884, 0.0, 0.0, 0.0, 0.0, -5545.1101714503975, 0.0]
['beep', 0.0, 675.9838075618514, 0.0, 0.0, 0.0, 0.0, -5540.304546392506, 0.0]
['beep', 0.0, 676.676711639966, 0.0, 0.0, 0.0, 0.0, -5542.629127815858, 0.0]
['beep', 0.0, 676.5873046621448, 0.0, 0.0, 0.0, 0.0, -5547.904139507311, 0.0]
['beep', 0.0, 676.676711639966, 0.0, 0.0, 0.0, 0.0, -5546.272462162074, 0.0]
['beep', 0.0, 675.5367726727453, 0.0, 0.0, 0.0, 0.0, -5542.226796415663, 0.0]
['beep', 0.0, 673.1898395049382, 0.0, 0.0, 0.0, 0.0, -5542.405610371306, 0.0]
['beep', 0.0, 674.5979994056224, 0.0, 0.0, 0.0, 0.0, -5544.976060983666, 0.0]
['beep', 0.0, 676.2743802397705, 0.0, 0.0, 0.0, 0.0, -5551.145142453331, 0.0]
['beep', 0.0, 676.9449325734297, 0.0, 0.0, 0.0, 0.0, -5551.927453509266, 0.0]
['beep', 0.0, 675.4026622060135, 0.0, 0.0, 0.0, 0.0, -5544.484322605649, 0.0]
['beep', 0.0, 675.9391040729408, 0.0, 0.0, 0.0, 0.0, -5544.484322605649, 0.0]
['beep', 0.0, 676.2743802397705, 0.0, 0.0, 0.0, 0.0, -5549.312299407995, 0.0]
['beep', 0.0, 676.6096564066, 0.0, 0.0, 0.0, 0.0, -5552.396840142827, 0.0]
['beep', 0.0, 677.7719471182761, 0.0, 0.0, 0.0, 0.0, -5551.905101764811, 0.0]
['beep', 0.0, 677.0790430401615, 0.0, 0.0, 0.0, 0.0, -5545.646613317324, 0.0]
['beep', 0.0, 675.1120895280945, 0.0, 0.0, 0.0, 0.0, -5544.081991205453, 0.0]
['beep', 0.0, 674.1956680054269, 0.0, 0.0, 0.0, 0.0, -5547.725325551668, 0.0]
['beep', 0.0, 675.8944005840302, 0.0, 0.0, 0.0, 0.0, -5550.116962208386, 0.0]
['beep', 0.0, 676.0061593063068, 0.0, 0.0, 0.0, 0.0, -5551.905101764811, 0.0]
['beep', 0.0, 675.6708831394772, 0.0, 0.0, 0.0, 0.0, -5545.534854595048, 0.0]
['beep', 0.0, 674.9779790613627, 0.0, 0.0, 0.0, 0.0, -5542.204444671207, 0.0]
['beep', 0.0, 675.5367726727453, 0.0, 0.0, 0.0, 0.0, -5548.082953462953, 0.0]
['beep', 0.0, 677.548429673723, 0.0, 0.0, 0.0, 0.0, -5549.133485452353, 0.0]
['beep', 0.0, 678.3083889852035, 0.0, 0.0, 0.0, 0.0, -5548.731154052157, 0.0]
['beep', 0.0, 677.1460982735275, 0.0, 0.0, 0.0, 0.0, -5546.719497051179, 0.0]
['beep', 0.0, 674.9779790613627, 0.0, 0.0, 0.0, 0.0, -5542.651479560313, 0.0]
['beep', 0.0, 676.0061593063068, 0.0, 0.0, 0.0, 0.0, -5545.691316806236, 0.0]
['beep', 0.0, 675.7379383728431, 0.0, 0.0, 0.0, 0.0, -5553.581482598959, 0.0]
['beep', 0.0, 675.9391040729408, 0.0, 0.0, 0.0, 0.0, -5553.045040732031, 0.0]
['beep', 0.0, 675.8944005840302, 0.0, 0.0, 0.0, 0.0, -5547.188883684741, 0.0]
['beep', 0.0, 675.3579587171029, 0.0, 0.0, 0.0, 0.0, -5546.9877179846435, 0.0]
['beep', 0.0, 675.9614558173962, 0.0, 0.0, 0.0, 0.0, -5548.529988352059, 0.0]
['beep', 0.0, 675.8273453506644, 0.0, 0.0, 0.0, 0.0, -5548.440581374238, 0.0]
['beep', 0.0, 677.2355052513487, 0.0, 0.0, 0.0, 0.0, -5547.233587173651, 0.0]
['beep', 0.0, 676.4084907065023, 0.0, 0.0, 0.0, 0.0, -5545.71366855069, 0.0]
['beep', 0.0, 674.3297784721588, 0.0, 0.0, 0.0, 0.0, -5542.025630715565, 0.0]
['beep', 0.0, 674.486240683346, 0.0, 0.0, 0.0, 0.0, -5546.920662751278, 0.0]
['beep', 0.0, 676.0508627952174, 0.0, 0.0, 0.0, 0.0, -5550.76516279759, 0.0]
['beep', 0.0, 676.453194195413, 0.0, 0.0, 0.0, 0.0, -5548.19471218523, 0.0]
['beep', 0.0, 674.6203511500778, 0.0, 0.0, 0.0, 0.0, -5545.423095872771, 0.0]
['beep', 0.0, 674.5979994056224, 0.0, 0.0, 0.0, 0.0, -5547.792380785034, 0.0]
['beep', 0.0, 675.6485313950219, 0.0, 0.0, 0.0, 0.0, -5552.061563975998, 0.0]
['beep', 0.0, 677.4366709514464, 0.0, 0.0, 0.0, 0.0, -5547.904139507311, 0.0]
['beep', 0.0, 677.6825401404549, 0.0, 0.0, 0.0, 0.0, -5546.585386584447, 0.0]
['beep', 0.0, 676.4084907065023, 0.0, 0.0, 0.0, 0.0, -5545.825427272967, 0.0]
['beep', 0.0, 676.2743802397705, 0.0, 0.0, 0.0, 0.0, -5544.774895283567, 0.0]
['beep', 0.0, 678.3530924741141, 0.0, 0.0, 0.0, 0.0, -5547.501808107115, 0.0]
['beep', 0.0, 679.224810507871, 0.0, 0.0, 0.0, 0.0, -5549.021726730076, 0.0]
['beep', 0.0, 677.3472639736252, 0.0, 0.0, 0.0, 0.0, -5549.9828517416545, 0.0]
['beep', 0.0, 677.548429673723, 0.0, 0.0, 0.0, 0.0, -5547.121828451375, 0.0]
['beep', 0.0, 675.8273453506644, 0.0, 0.0, 0.0, 0.0, -5545.959537739699, 0.0]
['beep', 0.0, 678.0401680517398, 0.0, 0.0, 0.0, 0.0, -5549.178188941263, 0.0]
['beep', 0.0, 680.1859355194492, 0.0, 0.0, 0.0, 0.0, -5548.2841191630505, 0.0]
['beep', 0.0, 678.2636854962929, 0.0, 0.0, 0.0, 0.0, -5544.529026094559, 0.0]
['beep', 0.0, 677.548429673723, 0.0, 0.0, 0.0, 0.0, -5542.360906882394, 0.0]
['beep', 0.0, 676.095566284128, 0.0, 0.0, 0.0, 0.0, -5543.456142360705, 0.0]
['beep', 0.0, 676.4978976843236, 0.0, 0.0, 0.0, 0.0, -5545.557206339504, 0.0]
['beep', 0.0, 677.839002351642, 0.0, 0.0, 0.0, 0.0, -5550.519293608581, 0.0]
['beep', 0.0, 674.709758127899, 0.0, 0.0, 0.0, 0.0, -5549.2228924301735, 0.0]
['beep', 0.0, 674.3521302166141, 0.0, 0.0, 0.0, 0.0, -5543.992584227632, 0.0]
['beep', 0.0, 674.3297784721588, 0.0, 0.0, 0.0, 0.0, -5541.265671404085, 0.0]
['beep', 0.0, 675.3132552281922, 0.0, 0.0, 0.0, 0.0, -5545.266633661585, 0.0]
['beep', 0.0, 676.676711639966, 0.0, 0.0, 0.0, 0.0, -5543.322031893973, 0.0]
['beep', 0.0, 676.0061593063068, 0.0, 0.0, 0.0, 0.0, -5540.706877792702, 0.0]
['beep', 0.0, 674.5979994056224, 0.0, 0.0, 0.0, 0.0, -5537.465874846683, 0.0]
['beep', 0.0, 674.8885720835415, 0.0, 0.0, 0.0, 0.0, -5537.622337057869, 0.0]
['beep', 0.0, 674.9109238279967, 0.0, 0.0, 0.0, 0.0, -5538.851683002911, 0.0]
['beep', 0.0, 677.839002351642, 0.0, 0.0, 0.0, 0.0, -5535.3648108678835, 0.0]
['beep', 0.0, 678.129575029561, 0.0, 0.0, 0.0, 0.0, -5533.420209100272, 0.0]
['beep', 0.0, 674.9779790613627, 0.0, 0.0, 0.0, 0.0, -5529.866281731878, 0.0]
['beep', 0.0, 673.033377293751, 0.0, 0.0, 0.0, 0.0, -5522.356095594895, 0.0]
['beep', 0.0, 672.0946040266281, 0.0, 0.0, 0.0, 0.0, -5521.462025816682, 0.0]
['beep', 0.0, 672.6533976380107, 0.0, 0.0, 0.0, 0.0, -5518.645706015313, 0.0]
['beep', 0.0, 673.5921709051337, 0.0, 0.0, 0.0, 0.0, -5511.627258256347, 0.0]
['beep', 0.0, 672.4075284490024, 0.0, 0.0, 0.0, 0.0, -5503.871202930356, 0.0]
['beep', 0.0, 671.9828453043515, 0.0, 0.0, 0.0, 0.0, -5497.456252271682, 0.0]
['beep', 0.0, 673.9274470719632, 0.0, 0.0, 0.0, 0.0, -5494.170545836752, 0.0]
['beep', 0.0, 676.2073250064045, 0.0, 0.0, 0.0, 0.0, -5491.778909180035, 0.0]
['beep', 0.0, 674.9109238279967, 0.0, 0.0, 0.0, 0.0, -5484.134612576319, 0.0]
['beep', 0.0, 672.4075284490024, 0.0, 0.0, 0.0, 0.0, -5474.232789782619, 0.0]
['beep', 0.0, 670.2841127257482, 0.0, 0.0, 0.0, 0.0, -5465.537961189504, 0.0]
['beep', 0.0, 670.8429063371309, 0.0, 0.0, 0.0, 0.0, -5462.833400110412, 0.0]
['beep', 0.0, 672.8098598491979, 0.0, 0.0, 0.0, 0.0, -5458.9889000641, 0.0]
['beep', 0.0, 671.1334790150498, 0.0, 0.0, 0.0, 0.0, -5454.876179084323, 0.0]
['beep', 0.0, 666.8195923351756, 0.0, 0.0, 0.0, 0.0, -5449.288242970496, 0.0]
['beep', 0.0, 666.8195923351756, 0.0, 0.0, 0.0, 0.0, -5445.399039435272, 0.0]
['beep', 0.0, 668.0489382802175, 0.0, 0.0, 0.0, 0.0, -5448.0812487699095, 0.0]
['beep', 0.0, 667.0878132686393, 0.0, 0.0, 0.0, 0.0, -5447.902434814267, 0.0]
['beep', 0.0, 665.9255225569633, 0.0, 0.0, 0.0, 0.0, -5450.182312748709, 0.0]
['beep', 0.0, 664.4726591673683, 0.0, 0.0, 0.0, 0.0, -5451.232844738108, 0.0]
['beep', 0.0, 663.3774236890583, 0.0, 0.0, 0.0, 0.0, -5450.8975685712785, 0.0]
['beep', 0.0, 663.422127177969, 0.0, 0.0, 0.0, 0.0, -5454.3620889618505, 0.0]
['beep', 0.0, 664.2491417228152, 0.0, 0.0, 0.0, 0.0, -5463.056917554965, 0.0]
['beep', 0.0, 666.1490400015164, 0.0, 0.0, 0.0, 0.0, -5465.247388511585, 0.0]
['beep', 0.0, 662.3045399552036, 0.0, 0.0, 0.0, 0.0, -5462.833400110412, 0.0]
['beep', 0.0, 661.3210631991701, 0.0, 0.0, 0.0, 0.0, -5465.068574555943, 0.0]
['beep', 0.0, 663.1986097334159, 0.0, 0.0, 0.0, 0.0, -5471.0364903255095, 0.0]
['beep', 0.0, 664.4950109118237, 0.0, 0.0, 0.0, 0.0, -5476.266798528051, 0.0]
['beep', 0.0, 665.4337841789466, 0.0, 0.0, 0.0, 0.0, -5479.597208451893, 0.0]
['beep', 0.0, 666.0372812792399, 0.0, 0.0, 0.0, 0.0, -5476.445612483694, 0.0]
['beep', 0.0, 666.1266882570611, 0.0, 0.0, 0.0, 0.0, -5479.574856707437, 0.0]
['beep', 0.0, 667.2442754798265, 0.0, 0.0, 0.0, 0.0, -5484.425185254238, 0.0]
['beep', 0.0, 670.7311476148543, 0.0, 0.0, 0.0, 0.0, -5489.744900434602, 0.0]
['beep', 0.0, 669.9935400478292, 0.0, 0.0, 0.0, 0.0, -5492.85179291389, 0.0]
['beep', 0.0, 669.7700226032762, 0.0, 0.0, 0.0, 0.0, -5490.951894635188, 0.0]
['beep', 0.0, 669.7253191143656, 0.0, 0.0, 0.0, 0.0, -5494.304656303484, 0.0]
['beep', 0.0, 671.2005342484158, 0.0, 0.0, 0.0, 0.0, -5501.1442901068085, 0.0]
['beep', 0.0, 674.1956680054269, 0.0, 0.0, 0.0, 0.0, -5507.156909365286, 0.0]
['beep', 0.0, 673.5921709051337, 0.0, 0.0, 0.0, 0.0, -5511.76136872308, 0.0]
['beep', 0.0, 671.4911069263347, 0.0, 0.0, 0.0, 0.0, -5508.945048921711, 0.0]
['beep', 0.0, 672.9886738048403, 0.0, 0.0, 0.0, 0.0, -5506.9557436651885, 0.0]
['beep', 0.0, 675.1567930170052, 0.0, 0.0, 0.0, 0.0, -5511.649610000803, 0.0]
['beep', 0.0, 675.5591244172007, 0.0, 0.0, 0.0, 0.0, -5516.9022699478, 0.0]
['beep', 0.0, 676.7884703622426, 0.0, 0.0, 0.0, 0.0, -5515.7623309805795, 0.0]
['beep', 0.0, 675.5591244172007, 0.0, 0.0, 0.0, 0.0, -5513.638915257325, 0.0]
['beep', 0.0, 675.000330805818, 0.0, 0.0, 0.0, 0.0, -5514.488281546626, 0.0]
['beep', 0.0, 675.7826418617537, 0.0, 0.0, 0.0, 0.0, -5520.523252549559, 0.0]
['beep', 0.0, 678.1519267740163, 0.0, 0.0, 0.0, 0.0, -5523.876014217855, 0.0]
['beep', 0.0, 676.7661186177872, 0.0, 0.0, 0.0, 0.0, -5524.814787484978, 0.0]
['beep', 0.0, 676.0285110507621, 0.0, 0.0, 0.0, 0.0, -5523.540738051026, 0.0]
['beep', 0.0, 675.1344412725498, 0.0, 0.0, 0.0, 0.0, -5526.4464648302155, 0.0]
['beep', 0.0, 674.2180197498823, 0.0, 0.0, 0.0, 0.0, -5530.00039219861, 0.0]
['beep', 0.0, 676.3414354731364, 0.0, 0.0, 0.0, 0.0, -5528.23460438664, 0.0]
['beep', 0.0, 677.2131535068934, 0.0, 0.0, 0.0, 0.0, -5526.155892152297, 0.0]
['beep', 0.0, 675.9391040729408, 0.0, 0.0, 0.0, 0.0, -5525.552395052004, 0.0]
['beep', 0.0, 675.4026622060135, 0.0, 0.0, 0.0, 0.0, -5524.14423515132, 0.0]
['beep', 0.0, 674.5756476611672, 0.0, 0.0, 0.0, 0.0, -5527.496996819616, 0.0]
['beep', 0.0, 676.6096564066, 0.0, 0.0, 0.0, 0.0, -5533.4872643336375, 0.0]
['beep', 0.0, 679.3365692301476, 0.0, 0.0, 0.0, 0.0, -5537.063543446487, 0.0]
['beep', 0.0, 677.5037261848124, 0.0, 0.0, 0.0, 0.0, -5534.336630622939, 0.0]
['beep', 0.0, 676.386138962047, 0.0, 0.0, 0.0, 0.0, -5530.469778832171, 0.0]
['beep', 0.0, 676.7884703622426, 0.0, 0.0, 0.0, 0.0, -5533.889595733834, 0.0]
['beep', 0.0, 677.6601883959995, 0.0, 0.0, 0.0, 0.0, -5536.370639368372, 0.0]
['beep', 0.0, 678.2413337518375, 0.0, 0.0, 0.0, 0.0, -5541.0645057039865, 0.0]
['beep', 0.0, 676.5649529176894, 0.0, 0.0, 0.0, 0.0, -5533.822540500467, 0.0]
['beep', 0.0, 677.5260779292677, 0.0, 0.0, 0.0, 0.0, -5529.28513637604, 0.0]
['beep', 0.0, 676.3637872175917, 0.0, 0.0, 0.0, 0.0, -5533.822540500467, 0.0]
['beep', 0.0, 676.8555255956085, 0.0, 0.0, 0.0, 0.0, -5539.410476614294, 0.0]
['beep', 0.0, 678.4872029408459, 0.0, 0.0, 0.0, 0.0, -5541.019802215076, 0.0]
['beep', 0.0, 676.6990633844214, 0.0, 0.0, 0.0, 0.0, -5539.030496958554, 0.0]
['beep', 0.0, 676.6096564066, 0.0, 0.0, 0.0, 0.0, -5539.633994058847, 0.0]
['beep', 0.0, 677.3919674625358, 0.0, 0.0, 0.0, 0.0, -5542.360906882394, 0.0]
['beep', 0.0, 678.8448308521308, 0.0, 0.0, 0.0, 0.0, -5542.874997004867, 0.0]
['beep', 0.0, 679.0907000411391, 0.0, 0.0, 0.0, 0.0, -5539.052848703009, 0.0]
['beep', 0.0, 677.9954645628292, 0.0, 0.0, 0.0, 0.0, -5539.589290569937, 0.0]
['beep', 0.0, 678.3977959630247, 0.0, 0.0, 0.0, 0.0, -5542.025630715565, 0.0]
['beep', 0.0, 679.224810507871, 0.0, 0.0, 0.0, 0.0, -5539.2987178920175, 0.0]
['beep', 0.0, 680.4318047084575, 0.0, 0.0, 0.0, 0.0, -5540.639822559336, 0.0]
['beep', 0.0, 681.9070198425079, 0.0, 0.0, 0.0, 0.0, -5540.4163051147825, 0.0]
['beep', 0.0, 680.1412320305386, 0.0, 0.0, 0.0, 0.0, -5540.908043492799, 0.0]
['beep', 0.0, 678.2860372407481, 0.0, 0.0, 0.0, 0.0, -5541.131560937352, 0.0]
['beep', 0.0, 679.5377349302453, 0.0, 0.0, 0.0, 0.0, -5541.690354548736, 0.0]
['beep', 0.0, 680.029473308262, 0.0, 0.0, 0.0, 0.0, -5544.931357494755, 0.0]
['beep', 0.0, 678.7777756187648, 0.0, 0.0, 0.0, 0.0, -5543.791418527534, 0.0]
['beep', 0.0, 678.1072232851056, 0.0, 0.0, 0.0, 0.0, -5539.745752781124, 0.0]
['beep', 0.0, 678.2860372407481, 0.0, 0.0, 0.0, 0.0, -5540.013973714587, 0.0]
['beep', 0.0, 678.7330721298542, 0.0, 0.0, 0.0, 0.0, -5540.95274698171, 0.0]
['beep', 0.0, 679.9177145859856, 0.0, 0.0, 0.0, 0.0, -5546.786552284545, 0.0]
['beep', 0.0, 680.968246575385, 0.0, 0.0, 0.0, 0.0, -5544.417267372282, 0.0]
['beep', 0.0, 678.3977959630247, 0.0, 0.0, 0.0, 0.0, -5542.629127815858, 0.0]
['beep', 0.0, 679.3812727190582, 0.0, 0.0, 0.0, 0.0, -5541.645651059825, 0.0]
['beep', 0.0, 680.1859355194492, 0.0, 0.0, 0.0, 0.0, -5541.1762644262635, 0.0]
['beep', 0.0, 679.9400663304408, 0.0, 0.0, 0.0, 0.0, -5544.19374992773, 0.0]
['beep', 0.0, 679.4706796968794, 0.0, 0.0, 0.0, 0.0, -5544.618433072381, 0.0]
['beep', 0.0, 677.5707814181783, 0.0, 0.0, 0.0, 0.0, -5541.578595826459, 0.0]
['beep', 0.0, 675.7602901172984, 0.0, 0.0, 0.0, 0.0, -5540.908043492799, 0.0]
['beep', 0.0, 675.7379383728431, 0.0, 0.0, 0.0, 0.0, -5543.031459216054, 0.0]
['beep', 0.0, 678.6660168964884, 0.0, 0.0, 0.0, 0.0, -5544.976060983666, 0.0]
['beep', 0.0, 678.643665152033, 0.0, 0.0, 0.0, 0.0, -5545.266633661585, 0.0]
['beep', 0.0, 677.0119878067957, 0.0, 0.0, 0.0, 0.0, -5542.584424326948, 0.0]
['beep', 0.0, 674.6203511500778, 0.0, 0.0, 0.0, 0.0, -5541.042153959532, 0.0]
['beep', 0.0, 676.7661186177872, 0.0, 0.0, 0.0, 0.0, -5542.673831304769, 0.0]
['beep', 0.0, 677.2355052513487, 0.0, 0.0, 0.0, 0.0, -5546.853607517911, 0.0]
['beep', 0.0, 678.0178163072844, 0.0, 0.0, 0.0, 0.0, -5547.121828451375, 0.0]
['beep', 0.0, 677.1684500179828, 0.0, 0.0, 0.0, 0.0, -5543.09851444942, 0.0]
['beep', 0.0, 676.2967319842257, 0.0, 0.0, 0.0, 0.0, -5540.818636514979, 0.0]
['beep', 0.0, 678.1966302629269, 0.0, 0.0, 0.0, 0.0, -5546.361869139894, 0.0]
['beep', 0.0, 678.2636854962929, 0.0, 0.0, 0.0, 0.0, -5548.708802307702, 0.0]
['beep', 0.0, 677.4366709514464, 0.0, 0.0, 0.0, 0.0, -5548.150008696319, 0.0]
['beep', 0.0, 676.2967319842257, 0.0, 0.0, 0.0, 0.0, -5545.959537739699, 0.0]
['beep', 0.0, 675.8273453506644, 0.0, 0.0, 0.0, 0.0, -5545.847779017423, 0.0]
['beep', 0.0, 675.6261796505665, 0.0, 0.0, 0.0, 0.0, -5545.959537739699, 0.0]
['beep', 0.0, 676.6543598955107, 0.0, 0.0, 0.0, 0.0, -5546.38422088435, 0.0]
['beep', 0.0, 676.9002290845191, 0.0, 0.0, 0.0, 0.0, -5547.1665319402855, 0.0]
['beep', 0.0, 675.6038279061113, 0.0, 0.0, 0.0, 0.0, -5543.81377027199, 0.0]
['beep', 0.0, 675.4250139504688, 0.0, 0.0, 0.0, 0.0, -5541.8244650154675, 0.0]
['beep', 0.0, 675.0897377836392, 0.0, 0.0, 0.0, 0.0, -5547.747677296124, 0.0]
['beep', 0.0, 674.9779790613627, 0.0, 0.0, 0.0, 0.0, -5550.653404075313, 0.0]
['beep', 0.0, 675.1120895280945, 0.0, 0.0, 0.0, 0.0, -5549.312299407995, 0.0]
['beep', 0.0, 674.3968337055247, 0.0, 0.0, 0.0, 0.0, -5545.154874939308, 0.0]
['beep', 0.0, 672.6533976380107, 0.0, 0.0, 0.0, 0.0, -5543.210273171696, 0.0]
['beep', 0.0, 674.9332755724521, 0.0, 0.0, 0.0, 0.0, -5546.0489447175205, 0.0]
['beep', 0.0, 675.0226825502733, 0.0, 0.0, 0.0, 0.0, -5550.072258719476, 0.0]
['beep', 0.0, 674.8662203390861, 0.0, 0.0, 0.0, 0.0, -5547.904139507311, 0.0]
['beep', 0.0, 674.2180197498823, 0.0, 0.0, 0.0, 0.0, -5544.260805161096, 0.0]
['beep', 0.0, 673.8156883496868, 0.0, 0.0, 0.0, 0.0, -5545.825427272967, 0.0]
['beep', 0.0, 674.1062610276057, 0.0, 0.0, 0.0, 0.0, -5548.753505796612, 0.0]
['beep', 0.0, 674.2403714943375, 0.0, 0.0, 0.0, 0.0, -5550.586348841947, 0.0]
['beep', 0.0, 673.4133569494912, 0.0, 0.0, 0.0, 0.0, -5553.313261665495, 0.0]
['beep', 0.0, 673.8827435830526, 0.0, 0.0, 0.0, 0.0, -5547.658270318302, 0.0]
['beep', 0.0, 674.2850749832481, 0.0, 0.0, 0.0, 0.0, -5543.165569682786, 0.0]
['beep', 0.0, 674.642702894533, 0.0, 0.0, 0.0, 0.0, -5545.691316806236, 0.0]
['beep', 0.0, 677.2355052513487, 0.0, 0.0, 0.0, 0.0, -5551.055735475509, 0.0]
['beep', 0.0, 678.1072232851056, 0.0, 0.0, 0.0, 0.0, -5550.8098662865, 0.0]
['beep', 0.0, 677.2802087402594, 0.0, 0.0, 0.0, 0.0, -5547.345345895928, 0.0]
['beep', 0.0, 677.5260779292677, 0.0, 0.0, 0.0, 0.0, -5543.277328405062, 0.0]
['beep', 0.0, 677.839002351642, 0.0, 0.0, 0.0, 0.0, -5545.691316806236, 0.0]
['beep', 0.0, 678.2413337518375, 0.0, 0.0, 0.0, 0.0, -5551.256901175607, 0.0]
['beep', 0.0, 678.9118860854967, 0.0, 0.0, 0.0, 0.0, -5550.586348841947, 0.0]
['beep', 0.0, 678.8895343410414, 0.0, 0.0, 0.0, 0.0, -5545.557206339504, 0.0]
['beep', 0.0, 677.1684500179828, 0.0, 0.0, 0.0, 0.0, -5545.400744128317, 0.0]
['beep', 0.0, 677.5037261848124, 0.0, 0.0, 0.0, 0.0, -5548.999374985621, 0.0]
['beep', 0.0, 679.2695139967816, 0.0, 0.0, 0.0, 0.0, -5551.994508742632, 0.0]
['beep', 0.0, 678.2860372407481, 0.0, 0.0, 0.0, 0.0, -5552.821523287478, 0.0]
['beep', 0.0, 676.095566284128, 0.0, 0.0, 0.0, 0.0, -5547.4571046182045, 0.0]
['beep', 0.0, 673.1451360160275, 0.0, 0.0, 0.0, 0.0, -5545.691316806236, 0.0]
['beep', 0.0, 674.0615575386951, 0.0, 0.0, 0.0, 0.0, -5550.094610463931, 0.0]
['beep', 0.0, 674.41918544998, 0.0, 0.0, 0.0, 0.0, -5552.307433165006, 0.0]
['beep', 0.0, 675.3803104615582, 0.0, 0.0, 0.0, 0.0, -5551.279252920062, 0.0]
['beep', 0.0, 673.6368743940443, 0.0, 0.0, 0.0, 0.0, -5549.424058130272, 0.0]
['beep', 0.0, 673.7933366052314, 0.0, 0.0, 0.0, 0.0, -5547.390049384839, 0.0]
['beep', 0.0, 673.9721505608738, 0.0, 0.0, 0.0, 0.0, -5548.038249974043, 0.0]
['beep', 0.0, 675.5591244172007, 0.0, 0.0, 0.0, 0.0, -5550.787514542046, 0.0]
['beep', 0.0, 675.290903483737, 0.0, 0.0, 0.0, 0.0, -5554.3861453993495, 0.0]
['beep', 0.0, 674.2180197498823, 0.0, 0.0, 0.0, 0.0, -5553.559130854504, 0.0]
['beep', 0.0, 673.1227842715722, 0.0, 0.0, 0.0, 0.0, -5546.674793562269, 0.0]
['beep', 0.0, 672.9216185714745, 0.0, 0.0, 0.0, 0.0, -5547.747677296124, 0.0]
['beep', 0.0, 674.642702894533, 0.0, 0.0, 0.0, 0.0, -5553.425020387772, 0.0]
['beep', 0.0, 674.5532959167118, 0.0, 0.0, 0.0, 0.0, -5550.76516279759, 0.0]
['beep', 0.0, 674.7768133612649, 0.0, 0.0, 0.0, 0.0, -5549.3346511524505, 0.0]
['beep', 0.0, 674.6650546389884, 0.0, 0.0, 0.0, 0.0, -5550.429886630761, 0.0]
['beep', 0.0, 674.7544616168096, 0.0, 0.0, 0.0, 0.0, -5548.462933118693, 0.0]
['beep', 0.0, 676.3190837286811, 0.0, 0.0, 0.0, 0.0, -5550.139313952842, 0.0]
['beep', 0.0, 676.5202494287788, 0.0, 0.0, 0.0, 0.0, -5553.380316898861, 0.0]
['beep', 0.0, 675.6485313950219, 0.0, 0.0, 0.0, 0.0, -5547.4571046182045, 0.0]
['beep', 0.0, 674.9332755724521, 0.0, 0.0, 0.0, 0.0, -5546.0489447175205, 0.0]
['beep', 0.0, 675.2014965059158, 0.0, 0.0, 0.0, 0.0, -5547.792380785034, 0.0]
['beep', 0.0, 675.9838075618514, 0.0, 0.0, 0.0, 0.0, -5551.1004389644195, 0.0]
['beep', 0.0, 676.8778773400638, 0.0, 0.0, 0.0, 0.0, -5553.112095965397, 0.0]
['beep', 0.0, 675.7602901172984, 0.0, 0.0, 0.0, 0.0, -5551.815694786989, 0.0]
['beep', 0.0, 675.3579587171029, 0.0, 0.0, 0.0, 0.0, -5545.691316806236, 0.0]
['beep', 0.0, 675.7602901172984, 0.0, 0.0, 0.0, 0.0, -5546.473627862171, 0.0]
['beep', 0.0, 676.676711639966, 0.0, 0.0, 0.0, 0.0, -5548.19471218523, 0.0]
['beep', 0.0, 677.2355052513487, 0.0, 0.0, 0.0, 0.0, -5550.474590119671, 0.0]
['beep', 0.0, 676.9225808289744, 0.0, 0.0, 0.0, 0.0, -5547.904139507311, 0.0]
['beep', 0.0, 675.4473656949241, 0.0, 0.0, 0.0, 0.0, -5544.126694694364, 0.0]
['beep', 0.0, 674.2627232387929, 0.0, 0.0, 0.0, 0.0, -5547.14418019583, 0.0]
['beep', 0.0, 674.0392057942398, 0.0, 0.0, 0.0, 0.0, -5550.698107564224, 0.0]
['beep', 0.0, 674.6203511500778, 0.0, 0.0, 0.0, 0.0, -5552.598005842925, 0.0]
['beep', 0.0, 675.8273453506644, 0.0, 0.0, 0.0, 0.0, -5553.112095965397, 0.0]
['beep', 0.0, 673.4357086939465, 0.0, 0.0, 0.0, 0.0, -5549.401706385816, 0.0]
['beep', 0.0, 673.5027639273125, 0.0, 0.0, 0.0, 0.0, -5550.742811053135, 0.0]
['beep', 0.0, 675.3356069726476, 0.0, 0.0, 0.0, 0.0, -5553.089744220942, 0.0]
['beep', 0.0, 674.0392057942398, 0.0, 0.0, 0.0, 0.0, -5553.4473721322265, 0.0]
['beep', 0.0, 672.9886738048403, 0.0, 0.0, 0.0, 0.0, -5550.698107564224, 0.0]
['beep', 0.0, 672.3628249600918, 0.0, 0.0, 0.0, 0.0, -5548.686450563247, 0.0]
['beep', 0.0, 672.742804615832, 0.0, 0.0, 0.0, 0.0, -5548.619395329881, 0.0]
['beep', 0.0, 674.7544616168096, 0.0, 0.0, 0.0, 0.0, -5554.00616574361, 0.0]
['beep', 0.0, 675.6708831394772, 0.0, 0.0, 0.0, 0.0, -5554.8555320329115, 0.0]
['beep', 0.0, 674.8662203390861, 0.0, 0.0, 0.0, 0.0, -5551.815694786989, 0.0]
['beep', 0.0, 674.6203511500778, 0.0, 0.0, 0.0, 0.0, -5550.675755819769, 0.0]
['beep', 0.0, 674.8662203390861, 0.0, 0.0, 0.0, 0.0, -5552.150970953819, 0.0]
['beep', 0.0, 674.8438685946309, 0.0, 0.0, 0.0, 0.0, -5553.313261665495, 0.0]
['beep', 0.0, 676.9449325734297, 0.0, 0.0, 0.0, 0.0, -5553.33561340995, 0.0]
['beep', 0.0, 676.8778773400638, 0.0, 0.0, 0.0, 0.0, -5551.1004389644195, 0.0]
['beep', 0.0, 675.4920691838347, 0.0, 0.0, 0.0, 0.0, -5549.491113363638, 0.0]
['beep', 0.0, 676.5649529176894, 0.0, 0.0, 0.0, 0.0, -5548.597043585425, 0.0]
['beep', 0.0, 678.129575029561, 0.0, 0.0, 0.0, 0.0, -5553.782648299057, 0.0]
['beep', 0.0, 680.0741767971726, 0.0, 0.0, 0.0, 0.0, -5554.229683188162, 0.0]
['beep', 0.0, 677.5707814181783, 0.0, 0.0, 0.0, 0.0, -5553.067392476487, 0.0]
['beep', 0.0, 677.839002351642, 0.0, 0.0, 0.0, 0.0, -5550.116962208386, 0.0]
['beep', 0.0, 679.6494936525219, 0.0, 0.0, 0.0, 0.0, -5550.653404075313, 0.0]
['beep', 0.0, 679.51538318579, 0.0, 0.0, 0.0, 0.0, -5554.430848888261, 0.0]
['beep', 0.0, 678.8224791076755, 0.0, 0.0, 0.0, 0.0, -5556.554264611515, 0.0]
['beep', 0.0, 678.643665152033, 0.0, 0.0, 0.0, 0.0, -5548.19471218523, 0.0]
['beep', 0.0, 677.1237465290722, 0.0, 0.0, 0.0, 0.0, -5548.842912774434, 0.0]
['beep', 0.0, 673.5921709051337, 0.0, 0.0, 0.0, 0.0, -5547.52415985157, 0.0]
['beep', 0.0, 673.8156883496868, 0.0, 0.0, 0.0, 0.0, -5545.557206339504, 0.0]
['beep', 0.0, 675.6485313950219, 0.0, 0.0, 0.0, 0.0, -5548.172360440774, 0.0]
['beep', 0.0, 674.8215168501755, 0.0, 0.0, 0.0, 0.0, -5543.992584227632, 0.0]
['beep', 0.0, 673.6592261384995, 0.0, 0.0, 0.0, 0.0, -5536.661212046291, 0.0]
['beep', 0.0, 674.9779790613627, 0.0, 0.0, 0.0, 0.0, -5536.258880646095, 0.0]
['beep', 0.0, 673.256894738304, 0.0, 0.0, 0.0, 0.0, -5534.515444578582, 0.0]
['beep', 0.0, 674.486240683346, 0.0, 0.0, 0.0, 0.0, -5527.3852380973385, 0.0]
['beep', 0.0, 672.8769150825639, 0.0, 0.0, 0.0, 0.0, -5522.691371761724, 0.0]
['beep', 0.0, 670.2394092368376, 0.0, 0.0, 0.0, 0.0, -5516.030551914043, 0.0]
['beep', 0.0, 671.0217202927734, 0.0, 0.0, 0.0, 0.0, -5512.543679779015, 0.0]
['beep', 0.0, 672.2287144933599, 0.0, 0.0, 0.0, 0.0, -5510.4202640557605, 0.0]
['beep', 0.0, 671.9828453043515, 0.0, 0.0, 0.0, 0.0, -5504.787624453023, 0.0]
['beep', 0.0, 670.6864441259437, 0.0, 0.0, 0.0, 0.0, -5493.969380136655, 0.0]
['beep', 0.0, 669.7029673699102, 0.0, 0.0, 0.0, 0.0, -5486.123917832842, 0.0]
['beep', 0.0, 670.9099615704968, 0.0, 0.0, 0.0, 0.0, -5481.653568941781, 0.0]
['beep', 0.0, 671.3793482040583, 0.0, 0.0, 0.0, 0.0, -5479.977188107632, 0.0]
['beep', 0.0, 670.5076301703012, 0.0, 0.0, 0.0, 0.0, -5474.65747292727, 0.0]
['beep', 0.0, 669.1665255029828, 0.0, 0.0, 0.0, 0.0, -5460.84409485389, 0.0]
['beep', 0.0, 667.3783859465583, 0.0, 0.0, 0.0, 0.0, -5452.976280805621, 0.0]
['beep', 0.0, 668.9653598028851, 0.0, 0.0, 0.0, 0.0, -5450.763458104546, 0.0]
['beep', 0.0, 669.9488365589186, 0.0, 0.0, 0.0, 0.0, -5449.377649948317, 0.0]
['beep', 0.0, 669.6582638809996, 0.0, 0.0, 0.0, 0.0, -5446.069591768932, 0.0]
['beep', 0.0, 669.099470269617, 0.0, 0.0, 0.0, 0.0, -5443.432085923206, 0.0]
['beep', 0.0, 668.9206563139745, 0.0, 0.0, 0.0, 0.0, -5440.2134347216415, 0.0]
['beep', 0.0, 668.7418423583321, 0.0, 0.0, 0.0, 0.0, -5441.889815555789, 0.0]
['beep', 0.0, 668.384214447047, 0.0, 0.0, 0.0, 0.0, -5444.12499000132, 0.0]
['beep', 0.0, 668.160697002494, 0.0, 0.0, 0.0, 0.0, -5446.449571424672, 0.0]
['beep', 0.0, 667.2889789687371, 0.0, 0.0, 0.0, 0.0, -5443.0968097563755, 0.0]
['beep', 0.0, 666.5066679128013, 0.0, 0.0, 0.0, 0.0, -5442.068629511432, 0.0]
['beep', 0.0, 668.2501039803152, 0.0, 0.0, 0.0, 0.0, -5447.9694900476325, 0.0]
['beep', 0.0, 670.999368548318, 0.0, 0.0, 0.0, 0.0, -5457.267815741041, 0.0]
['beep', 0.0, 670.1276505145611, 0.0, 0.0, 0.0, 0.0, -5458.810086108457, 0.0]
['beep', 0.0, 666.260798723793, 0.0, 0.0, 0.0, 0.0, -5455.814952351446, 0.0]
['beep', 0.0, 665.2326184788488, 0.0, 0.0, 0.0, 0.0, -5455.591434906893, 0.0]
['beep', 0.0, 668.7641941027873, 0.0, 0.0, 0.0, 0.0, -5460.46411519815, 0.0]
['beep', 0.0, 671.5358104152454, 0.0, 0.0, 0.0, 0.0, -5470.120068802842, 0.0]
['beep', 0.0, 672.385176704547, 0.0, 0.0, 0.0, 0.0, -5470.008310080566, 0.0]
['beep', 0.0, 671.5581621597007, 0.0, 0.0, 0.0, 0.0, -5471.0364903255095, 0.0]
['beep', 0.0, 671.7369761153432, 0.0, 0.0, 0.0, 0.0, -5475.015100838555, 0.0]
['beep', 0.0, 671.6252173930666, 0.0, 0.0, 0.0, 0.0, -5477.205571795174, 0.0]
['beep', 0.0, 672.2957697267258, 0.0, 0.0, 0.0, 0.0, -5481.318292774951, 0.0]
['beep', 0.0, 671.6252173930666, 0.0, 0.0, 0.0, 0.0, -5483.553467220481, 0.0]
['beep', 0.0, 672.675749382466, 0.0, 0.0, 0.0, 0.0, -5485.587475965915, 0.0]
['beep', 0.0, 673.6815778829549, 0.0, 0.0, 0.0, 0.0, -5485.498068988093, 0.0]
['beep', 0.0, 674.6203511500778, 0.0, 0.0, 0.0, 0.0, -5485.855696899378, 0.0]
['beep', 0.0, 676.1179180285833, 0.0, 0.0, 0.0, 0.0, -5493.790566181013, 0.0]
['beep', 0.0, 679.0683482966839, 0.0, 0.0, 0.0, 0.0, -5497.188031338219, 0.0]
['beep', 0.0, 678.3530924741141, 0.0, 0.0, 0.0, 0.0, -5494.3940632813055, 0.0]
['beep', 0.0, 677.9060575850079, 0.0, 0.0, 0.0, 0.0, -5494.550525492493, 0.0]
['beep', 0.0, 677.8613540960973, 0.0, 0.0, 0.0, 0.0, -5498.7973569390015, 0.0]
['beep', 0.0, 679.0907000411391, 0.0, 0.0, 0.0, 0.0, -5501.434862784728, 0.0]
['beep', 0.0, 680.0071215638068, 0.0, 0.0, 0.0, 0.0, -5504.988790153121, 0.0]
['beep', 0.0, 679.224810507871, 0.0, 0.0, 0.0, 0.0, -5505.100548875398, 0.0]
['beep', 0.0, 676.6543598955107, 0.0, 0.0, 0.0, 0.0, -5506.978095409643, 0.0]
['beep', 0.0, 675.4473656949241, 0.0, 0.0, 0.0, 0.0, -5508.833290199434, 0.0]
['beep', 0.0, 678.3530924741141, 0.0, 0.0, 0.0, 0.0, -5511.023761156054, 0.0]
['beep', 0.0, 678.4424994519353, 0.0, 0.0, 0.0, 0.0, -5512.923659434755, 0.0]
['beep', 0.0, 676.2296767508599, 0.0, 0.0, 0.0, 0.0, -5514.1753571242525, 0.0]
['beep', 0.0, 676.5649529176894, 0.0, 0.0, 0.0, 0.0, -5515.717627491668, 0.0]
['beep', 0.0, 677.9731128183738, 0.0, 0.0, 0.0, 0.0, -5519.070389159964, 0.0]
['beep', 0.0, 678.2413337518375, 0.0, 0.0, 0.0, 0.0, -5522.937240950732, 0.0]
['beep', 0.0, 678.1072232851056, 0.0, 0.0, 0.0, 0.0, -5522.9819444396435, 0.0]
['beep', 0.0, 677.3919674625358, 0.0, 0.0, 0.0, 0.0, -5519.763293238079, 0.0]
['beep', 0.0, 676.4308424509576, 0.0, 0.0, 0.0, 0.0, -5520.567956038471, 0.0]
['beep', 0.0, 676.3637872175917, 0.0, 0.0, 0.0, 0.0, -5520.992639183121, 0.0]
['beep', 0.0, 678.3977959630247, 0.0, 0.0, 0.0, 0.0, -5525.820615985467, 0.0]
['beep', 0.0, 678.2189820073822, 0.0, 0.0, 0.0, 0.0, -5528.681639275746, 0.0]
['beep', 0.0, 676.3190837286811, 0.0, 0.0, 0.0, 0.0, -5524.501863062605, 0.0]
['beep', 0.0, 674.9779790613627, 0.0, 0.0, 0.0, 0.0, -5523.048999673009, 0.0]
['beep', 0.0, 676.1179180285833, 0.0, 0.0, 0.0, 0.0, -5525.1500636518085, 0.0]
['beep', 0.0, 678.4872029408459, 0.0, 0.0, 0.0, 0.0, -5530.290964876529, 0.0]
['beep', 0.0, 678.9565895744073, 0.0, 0.0, 0.0, 0.0, -5533.733133522646, 0.0]
['beep', 0.0, 677.4590226959018, 0.0, 0.0, 0.0, 0.0, -5531.743828266123, 0.0]
['beep', 0.0, 677.5931331626336, 0.0, 0.0, 0.0, 0.0, -5529.240432887129, 0.0]
['beep', 0.0, 678.8448308521308, 0.0, 0.0, 0.0, 0.0, -5531.296793377018, 0.0]
['beep', 0.0, 678.6213134075778, 0.0, 0.0, 0.0, 0.0, -5535.744790523624, 0.0]
['beep', 0.0, 678.7554238743096, 0.0, 0.0, 0.0, 0.0, -5533.621374800369, 0.0]
['beep', 0.0, 677.9954645628292, 0.0, 0.0, 0.0, 0.0, -5530.8497584879115, 0.0]
['beep', 0.0, 677.3025604847146, 0.0, 0.0, 0.0, 0.0, -5531.341496865928, 0.0]
['beep', 0.0, 679.3365692301476, 0.0, 0.0, 0.0, 0.0, -5532.593194555426, 0.0]
['beep', 0.0, 682.4881651983459, 0.0, 0.0, 0.0, 0.0, -5536.348287623917, 0.0]
['beep', 0.0, 684.7680431327872, 0.0, 0.0, 0.0, 0.0, -5533.420209100272, 0.0]
['beep', 0.0, 684.1645460324938, 0.0, 0.0, 0.0, 0.0, -5530.469778832171, 0.0]
['beep', 0.0, 684.3880634770469, 0.0, 0.0, 0.0, 0.0, -5530.290964876529, 0.0]
['beep', 0.0, 684.030435565762, 0.0, 0.0, 0.0, 0.0, -5532.772008511068, 0.0]
['beep', 0.0, 684.3880634770469, 0.0, 0.0, 0.0, 0.0, -5533.710781778191, 0.0]
['beep', 0.0, 684.7009878994213, 0.0, 0.0, 0.0, 0.0, -5535.633031801347, 0.0]
['beep', 0.0, 682.063482053695, 0.0, 0.0, 0.0, 0.0, -5535.789494012534, 0.0]
['beep', 0.0, 678.1742785184716, 0.0, 0.0, 0.0, 0.0, -5531.743828266123, 0.0]
['beep', 0.0, 678.4201477074799, 0.0, 0.0, 0.0, 0.0, -5536.392991112828, 0.0]
['beep', 0.0, 680.3423977306363, 0.0, 0.0, 0.0, 0.0, -5539.4775318476595, 0.0]
['beep', 0.0, 680.7894326197426, 0.0, 0.0, 0.0, 0.0, -5537.220005657674, 0.0]
['beep', 0.0, 680.677673897466, 0.0, 0.0, 0.0, 0.0, -5537.018839957576, 0.0]
['beep', 0.0, 679.3589209746028, 0.0, 0.0, 0.0, 0.0, -5534.783665512045, 0.0]
['beep', 0.0, 679.1130517855945, 0.0, 0.0, 0.0, 0.0, -5536.214177157185, 0.0]
['beep', 0.0, 679.9624180748962, 0.0, 0.0, 0.0, 0.0, -5538.985793469643, 0.0]
['beep', 0.0, 678.643665152033, 0.0, 0.0, 0.0, 0.0, -5545.266633661585, 0.0]
['beep', 0.0, 676.9672843178851, 0.0, 0.0, 0.0, 0.0, -5544.19374992773, 0.0]
['beep', 0.0, 676.6543598955107, 0.0, 0.0, 0.0, 0.0, -5546.115999950886, 0.0]
['beep', 0.0, 678.8895343410414, 0.0, 0.0, 0.0, 0.0, -5550.541645353037, 0.0]
['beep', 0.0, 679.7389006303431, 0.0, 0.0, 0.0, 0.0, -5549.468761619182, 0.0]
['beep', 0.0, 677.8837058405526, 0.0, 0.0, 0.0, 0.0, -5544.19374992773, 0.0]
['beep', 0.0, 677.0566912957063, 0.0, 0.0, 0.0, 0.0, -5542.919700493777, 0.0]
['beep', 0.0, 678.129575029561, 0.0, 0.0, 0.0, 0.0, -5543.09851444942, 0.0]
['beep', 0.0, 678.7330721298542, 0.0, 0.0, 0.0, 0.0, -5546.697145306724, 0.0]
['beep', 0.0, 679.3142174856922, 0.0, 0.0, 0.0, 0.0, -5551.078087219964, 0.0]
['beep', 0.0, 678.1519267740163, 0.0, 0.0, 0.0, 0.0, -5547.546511596026, 0.0]
['beep', 0.0, 677.2355052513487, 0.0, 0.0, 0.0, 0.0, -5542.696183049225, 0.0]
['beep', 0.0, 676.8778773400638, 0.0, 0.0, 0.0, 0.0, -5547.904139507311, 0.0]
['beep', 0.0, 679.9177145859856, 0.0, 0.0, 0.0, 0.0, -5549.62522383037, 0.0]
['beep', 0.0, 680.5882669196448, 0.0, 0.0, 0.0, 0.0, -5549.826389530467, 0.0]
['beep', 0.0, 679.8283076081643, 0.0, 0.0, 0.0, 0.0, -5547.077124962464, 0.0]
['beep', 0.0, 678.2860372407481, 0.0, 0.0, 0.0, 0.0, -5546.943014495732, 0.0]
['beep', 0.0, 678.9118860854967, 0.0, 0.0, 0.0, 0.0, -5546.563034839993, 0.0]
['beep', 0.0, 681.1470605310275, 0.0, 0.0, 0.0, 0.0, -5549.200540685719, 0.0]
['beep', 0.0, 680.6329704085554, 0.0, 0.0, 0.0, 0.0, -5551.703936064713, 0.0]
['beep', 0.0, 679.6271419080665, 0.0, 0.0, 0.0, 0.0, -5549.088781963442, 0.0]
['beep', 0.0, 679.1130517855945, 0.0, 0.0, 0.0, 0.0, -5545.199578428219, 0.0]
['beep', 0.0, 679.9624180748962, 0.0, 0.0, 0.0, 0.0, -5546.674793562269, 0.0]
['beep', 0.0, 683.3375314876475, 0.0, 0.0, 0.0, 0.0, -5549.535816852548, 0.0]
['beep', 0.0, 682.3764064760693, 0.0, 0.0, 0.0, 0.0, -5549.357002896906, 0.0]
['beep', 0.0, 681.4599849534018, 0.0, 0.0, 0.0, 0.0, -5546.76420054009, 0.0]
['beep', 0.0, 680.5882669196448, 0.0, 0.0, 0.0, 0.0, -5547.233587173651, 0.0]
['beep', 0.0, 680.968246575385, 0.0, 0.0, 0.0, 0.0, -5549.580520341458, 0.0]
['beep', 0.0, 681.5940954201336, 0.0, 0.0, 0.0, 0.0, -5554.0955727214305, 0.0]
['beep', 0.0, 682.6893308984436, 0.0, 0.0, 0.0, 0.0, -5553.022688987576, 0.0]
['beep', 0.0, 681.7058541424101, 0.0, 0.0, 0.0, 0.0, -5550.340479652939, 0.0]
['beep', 0.0, 679.9847698193514, 0.0, 0.0, 0.0, 0.0, -5547.904139507311, 0.0]
['beep', 0.0, 680.7000256419213, 0.0, 0.0, 0.0, 0.0, -5547.255938918107, 0.0]
['beep', 0.0, 682.3093512427034, 0.0, 0.0, 0.0, 0.0, -5548.015898229587, 0.0]
['beep', 0.0, 683.2928279987369, 0.0, 0.0, 0.0, 0.0, -5550.966328497688, 0.0]
['beep', 0.0, 681.0129500642956, 0.0, 0.0, 0.0, 0.0, -5547.904139507311, 0.0]
['beep', 0.0, 678.7330721298542, 0.0, 0.0, 0.0, 0.0, -5545.959537739699, 0.0]
['beep', 0.0, 678.6883686409436, 0.0, 0.0, 0.0, 0.0, -5548.686450563247, 0.0]
['beep', 0.0, 679.1130517855945, 0.0, 0.0, 0.0, 0.0, -5553.089744220942, 0.0]
['beep', 0.0, 679.1130517855945, 0.0, 0.0, 0.0, 0.0, -5554.341441910439, 0.0]
['beep', 0.0, 678.7330721298542, 0.0, 0.0, 0.0, 0.0, -5551.547473853526, 0.0]
['beep', 0.0, 680.6106186641, 0.0, 0.0, 0.0, 0.0, -5551.927453509266, 0.0]
['beep', 0.0, 681.0129500642956, 0.0, 0.0, 0.0, 0.0, -5553.693241321235, 0.0]
['beep', 0.0, 682.8904965985414, 0.0, 0.0, 0.0, 0.0, -5554.632014588358, 0.0]
['beep', 0.0, 680.9235430864744, 0.0, 0.0, 0.0, 0.0, -5556.107229722408, 0.0]
['beep', 0.0, 679.7389006303431, 0.0, 0.0, 0.0, 0.0, -5552.441543631738, 0.0]
['beep', 0.0, 680.0071215638068, 0.0, 0.0, 0.0, 0.0, -5548.3958778853275, 0.0]
['beep', 0.0, 680.5659151751894, 0.0, 0.0, 0.0, 0.0, -5551.189845942241, 0.0]
['beep', 0.0, 681.9964268203291, 0.0, 0.0, 0.0, 0.0, -5556.822485544978, 0.0]
['beep', 0.0, 680.029473308262, 0.0, 0.0, 0.0, 0.0, -5556.666023333791, 0.0]
['beep', 0.0, 679.291865741237, 0.0, 0.0, 0.0, 0.0, -5553.089744220942, 0.0]
['beep', 0.0, 678.8448308521308, 0.0, 0.0, 0.0, 0.0, -5551.368659897883, 0.0]
['beep', 0.0, 680.3423977306363, 0.0, 0.0, 0.0, 0.0, -5552.419191887283, 0.0]
['beep', 0.0, 680.4765081973682, 0.0, 0.0, 0.0, 0.0, -5560.264654191095, 0.0]
['beep', 0.0, 680.029473308262, 0.0, 0.0, 0.0, 0.0, -5560.644633846836, 0.0]
['beep', 0.0, 679.1354035300498, 0.0, 0.0, 0.0, 0.0, -5557.560093112003, 0.0]
['beep', 0.0, 677.1237465290722, 0.0, 0.0, 0.0, 0.0, -5551.972156998177, 0.0]
['beep', 0.0, 678.6213134075778, 0.0, 0.0, 0.0, 0.0, -5551.234549431151, 0.0]
['beep', 0.0, 680.8341361086532, 0.0, 0.0, 0.0, 0.0, -5557.783610556557, 0.0]
['beep', 0.0, 679.6941971414325, 0.0, 0.0, 0.0, 0.0, -5558.677680334768, 0.0]
['beep', 0.0, 679.1801070189604, 0.0, 0.0, 0.0, 0.0, -5555.190808199741, 0.0]
['beep', 0.0, 676.9896360623403, 0.0, 0.0, 0.0, 0.0, -5551.547473853526, 0.0]
['beep', 0.0, 678.1072232851056, 0.0, 0.0, 0.0, 0.0, -5555.839008788945, 0.0]
['beep', 0.0, 679.7165488858877, 0.0, 0.0, 0.0, 0.0, -5559.236473946152, 0.0]
['beep', 0.0, 679.2471622523263, 0.0, 0.0, 0.0, 0.0, -5560.1975989577295, 0.0]
['beep', 0.0, 677.9954645628292, 0.0, 0.0, 0.0, 0.0, -5558.364755912395, 0.0]
['beep', 0.0, 676.4308424509576, 0.0, 0.0, 0.0, 0.0, -5561.248130947129, 0.0]
['beep', 0.0, 678.5095546853012, 0.0, 0.0, 0.0, 0.0, -5558.431811145761, 0.0]
['beep', 0.0, 679.9624180748962, 0.0, 0.0, 0.0, 0.0, -5557.448334389727, 0.0]
['beep', 0.0, 680.4765081973682, 0.0, 0.0, 0.0, 0.0, -5555.548436111026, 0.0]
['beep', 0.0, 680.4988599418235, 0.0, 0.0, 0.0, 0.0, -5552.441543631738, 0.0]
['beep', 0.0, 679.4036244635134, 0.0, 0.0, 0.0, 0.0, -5553.849703532423, 0.0]
['beep', 0.0, 678.8224791076755, 0.0, 0.0, 0.0, 0.0, -5557.470686134182, 0.0]
['beep', 0.0, 681.6835023979548, 0.0, 0.0, 0.0, 0.0, -5558.118886723386, 0.0]
['beep', 0.0, 681.6835023979548, 0.0, 0.0, 0.0, 0.0, -5558.0294797455645, 0.0]
['beep', 0.0, 680.5435634307341, 0.0, 0.0, 0.0, 0.0, -5557.29187217854, 0.0]
['beep', 0.0, 680.1188802860833, 0.0, 0.0, 0.0, 0.0, -5556.844837289434, 0.0]
['beep', 0.0, 680.2753424972705, 0.0, 0.0, 0.0, 0.0, -5559.750564068623, 0.0]
['beep', 0.0, 680.8564878531084, 0.0, 0.0, 0.0, 0.0, -5562.745697825635, 0.0]
['beep', 0.0, 681.7058541424101, 0.0, 0.0, 0.0, 0.0, -5562.3657181698945, 0.0]
['beep', 0.0, 682.4658134538905, 0.0, 0.0, 0.0, 0.0, -5560.3093576800065, 0.0]
['beep', 0.0, 681.7729093757761, 0.0, 0.0, 0.0, 0.0, -5559.974081513176, 0.0]
['beep', 0.0, 678.6213134075778, 0.0, 0.0, 0.0, 0.0, -5560.3093576800065, 0.0]
['beep', 0.0, 676.9449325734297, 0.0, 0.0, 0.0, 0.0, -5564.109154237408, 0.0]
['beep', 0.0, 675.7155866283878, 0.0, 0.0, 0.0, 0.0, -5567.461915905705, 0.0]
['beep', 0.0, 674.2180197498823, 0.0, 0.0, 0.0, 0.0, -5566.9478257832325, 0.0]
['beep', 0.0, 672.1616592599939, 0.0, 0.0, 0.0, 0.0, -5567.8642473059, 0.0]
['beep', 0.0, 670.9323133149521, 0.0, 0.0, 0.0, 0.0, -5573.586293886458, 0.0]
['beep', 0.0, 672.0275487932621, 0.0, 0.0, 0.0, 0.0, -5576.849648576934, 0.0]
['beep', 0.0, 675.6708831394772, 0.0, 0.0, 0.0, 0.0, -5577.564904399504, 0.0]
['beep', 0.0, 675.2014965059158, 0.0, 0.0, 0.0, 0.0, -5574.882695064866, 0.0]
['beep', 0.0, 674.642702894533, 0.0, 0.0, 0.0, 0.0, -5575.933227054265, 0.0]
['beep', 0.0, 675.6708831394772, 0.0, 0.0, 0.0, 0.0, -5579.241285233651, 0.0]
['beep', 0.0, 676.6096564066, 0.0, 0.0, 0.0, 0.0, -5583.778689358079, 0.0]
['beep', 0.0, 678.1742785184716, 0.0, 0.0, 0.0, 0.0, -5583.063433535509, 0.0]
['beep', 0.0, 679.0683482966839, 0.0, 0.0, 0.0, 0.0, -5579.2189334891955, 0.0]
['beep', 0.0, 676.5649529176894, 0.0, 0.0, 0.0, 0.0, -5576.5143724101035, 0.0]
['beep', 0.0, 677.6378366515443, 0.0, 0.0, 0.0, 0.0, -5576.626131132381, 0.0]
['beep', 0.0, 677.839002351642, 0.0, 0.0, 0.0, 0.0, -5579.934189311765, 0.0]
['beep', 0.0, 676.2967319842257, 0.0, 0.0, 0.0, 0.0, -5579.420099189294, 0.0]
['beep', 0.0, 676.3414354731364, 0.0, 0.0, 0.0, 0.0, -5575.173267742785, 0.0]
['beep', 0.0, 676.6990633844214, 0.0, 0.0, 0.0, 0.0, -5569.1159449953975, 0.0]
['beep', 0.0, 676.2296767508599, 0.0, 0.0, 0.0, 0.0, -5569.585331628959, 0.0]
['beep', 0.0, 677.1460982735275, 0.0, 0.0, 0.0, 0.0, -5573.206314230718, 0.0]
['beep', 0.0, 676.4978976843236, 0.0, 0.0, 0.0, 0.0, -5573.318072952995, 0.0]
['beep', 0.0, 674.2180197498823, 0.0, 0.0, 0.0, 0.0, -5567.037232761054, 0.0]
['beep', 0.0, 672.8098598491979, 0.0, 0.0, 0.0, 0.0, -5559.817619301989, 0.0]
['beep', 0.0, 673.033377293751, 0.0, 0.0, 0.0, 0.0, -5561.516351880593, 0.0]
['beep', 0.0, 675.3132552281922, 0.0, 0.0, 0.0, 0.0, -5558.72238382368, 0.0]
['beep', 0.0, 674.4415371944353, 0.0, 0.0, 0.0, 0.0, -5552.888578520844, 0.0]
['beep', 0.0, 674.7991651057202, 0.0, 0.0, 0.0, 0.0, -5545.065467961486, 0.0]
['beep', 0.0, 675.2014965059158, 0.0, 0.0, 0.0, 0.0, -5538.114075435887, 0.0]
['beep', 0.0, 673.5921709051337, 0.0, 0.0, 0.0, 0.0, -5535.722438779168, 0.0]
['beep', 0.0, 674.0392057942398, 0.0, 0.0, 0.0, 0.0, -5534.358982367395, 0.0]
['beep', 0.0, 676.095566284128, 0.0, 0.0, 0.0, 0.0, -5526.178243896752, 0.0]
['beep', 0.0, 675.1120895280945, 0.0, 0.0, 0.0, 0.0, -5515.404703069295, 0.0]
['beep', 0.0, 674.486240683346, 0.0, 0.0, 0.0, 0.0, -5507.603944254392, 0.0]
['beep', 0.0, 674.486240683346, 0.0, 0.0, 0.0, 0.0, -5502.463043029671, 0.0]
['beep', 0.0, 675.3132552281922, 0.0, 0.0, 0.0, 0.0, -5498.7973569390015, 0.0]
['beep', 0.0, 673.5027639273125, 0.0, 0.0, 0.0, 0.0, -5496.025740626543, 0.0]
['beep', 0.0, 671.1781825039604, 0.0, 0.0, 0.0, 0.0, -5486.258028299574, 0.0]
['beep', 0.0, 669.1888772474382, 0.0, 0.0, 0.0, 0.0, -5475.551542705482, 0.0]
['beep', 0.0, 669.5688569031784, 0.0, 0.0, 0.0, 0.0, -5476.535019461515, 0.0]
['beep', 0.0, 671.9381418154409, 0.0, 0.0, 0.0, 0.0, -5478.501972973582, 0.0]
['beep', 0.0, 674.128612772061, 0.0, 0.0, 0.0, 0.0, -5474.590417693904, 0.0]
['beep', 0.0, 673.5251156717677, 0.0, 0.0, 0.0, 0.0, -5471.058842069965, 0.0]
['beep', 0.0, 672.4298801934576, 0.0, 0.0, 0.0, 0.0, -5468.935426346711, 0.0]
['beep', 0.0, 673.1451360160275, 0.0, 0.0, 0.0, 0.0, -5470.522400203037, 0.0]
['beep', 0.0, 675.3132552281922, 0.0, 0.0, 0.0, 0.0, -5476.13268806132, 0.0]
['beep', 0.0, 676.4084907065023, 0.0, 0.0, 0.0, 0.0, -5478.770193907046, 0.0]
['beep', 0.0, 676.0508627952174, 0.0, 0.0, 0.0, 0.0, -5478.792545651501, 0.0]
['beep', 0.0, 673.8827435830526, 0.0, 0.0, 0.0, 0.0, -5480.55833346347, 0.0]
['beep', 0.0, 673.7262813718655, 0.0, 0.0, 0.0, 0.0, -5486.70506318868, 0.0]
['beep', 0.0, 675.4697174393795, 0.0, 0.0, 0.0, 0.0, -5493.812917925467, 0.0]
['beep', 0.0, 673.2345429938488, 0.0, 0.0, 0.0, 0.0, -5495.42224352625, 0.0]
['beep', 0.0, 671.4464034374241, 0.0, 0.0, 0.0, 0.0, -5493.142365591809, 0.0]
['beep', 0.0, 669.6359121365443, 0.0, 0.0, 0.0, 0.0, -5494.483470259127, 0.0]
['beep', 0.0, 669.5018016698125, 0.0, 0.0, 0.0, 0.0, -5500.987827895621, 0.0]
['beep', 0.0, 670.1500022590163, 0.0, 0.0, 0.0, 0.0, -5508.721531477157, 0.0]
['beep', 0.0, 670.5299819147566, 0.0, 0.0, 0.0, 0.0, -5509.816766955468, 0.0]
['beep', 0.0, 671.289941226237, 0.0, 0.0, 0.0, 0.0, -5509.861470444378, 0.0]
['beep', 0.0, 669.8594295810974, 0.0, 0.0, 0.0, 0.0, -5509.526194277549, 0.0]
['beep', 0.0, 671.3569964596029, 0.0, 0.0, 0.0, 0.0, -5513.191880368219, 0.0]
['beep', 0.0, 673.0557290382063, 0.0, 0.0, 0.0, 0.0, -5517.237546114629, 0.0]
['beep', 0.0, 675.3356069726476, 0.0, 0.0, 0.0, 0.0, -5521.99846768361, 0.0]
['beep', 0.0, 674.0392057942398, 0.0, 0.0, 0.0, 0.0, -5521.596136283414, 0.0]
['beep', 0.0, 675.223848250371, 0.0, 0.0, 0.0, 0.0, -5518.176319381752, 0.0]
['beep', 0.0, 675.1567930170052, 0.0, 0.0, 0.0, 0.0, -5520.836176971934, 0.0]
['beep', 0.0, 677.6154849070889, 0.0, 0.0, 0.0, 0.0, -5524.971249696166, 0.0]
['beep', 0.0, 678.9565895744073, 0.0, 0.0, 0.0, 0.0, -5527.3852380973385, 0.0]
['beep', 0.0, 677.2802087402594, 0.0, 0.0, 0.0, 0.0, -5527.944031708722, 0.0]
['beep', 0.0, 675.8944005840302, 0.0, 0.0, 0.0, 0.0, -5527.51934856407, 0.0]
['beep', 0.0, 676.5426011732342, 0.0, 0.0, 0.0, 0.0, -5526.781740997046, 0.0]
['beep', 0.0, 677.5707814181783, 0.0, 0.0, 0.0, 0.0, -5530.648592787814, 0.0]
['beep', 0.0, 676.1626215174939, 0.0, 0.0, 0.0, 0.0, -5535.163645167786, 0.0]
['beep', 0.0, 675.872048839575, 0.0, 0.0, 0.0, 0.0, -5533.509616078093, 0.0]
['beep', 0.0, 677.4143192069912, 0.0, 0.0, 0.0, 0.0, -5531.8555869884, 0.0]
['beep', 0.0, 676.3190837286811, 0.0, 0.0, 0.0, 0.0, -5535.655383545803, 0.0]
['beep', 0.0, 679.4259762079688, 0.0, 0.0, 0.0, 0.0, -5539.075200447464, 0.0]
['beep', 0.0, 680.9235430864744, 0.0, 0.0, 0.0, 0.0, -5540.349249881417, 0.0]
['beep', 0.0, 680.3871012195469, 0.0, 0.0, 0.0, 0.0, -5537.555281824503, 0.0]
['beep', 0.0, 681.3705779755805, 0.0, 0.0, 0.0, 0.0, -5535.968307968176, 0.0]
['beep', 0.0, 681.6611506534995, 0.0, 0.0, 0.0, 0.0, -5538.337592880439, 0.0]
['beep', 0.0, 681.7282058868655, 0.0, 0.0, 0.0, 0.0, -5542.137389437841, 0.0]
['beep', 0.0, 684.0080838213067, 0.0, 0.0, 0.0, 0.0, -5545.087819705942, 0.0]
['beep', 0.0, 683.1140140430945, 0.0, 0.0, 0.0, 0.0, -5538.471703347172, 0.0]
['beep', 0.0, 680.3423977306363, 0.0, 0.0, 0.0, 0.0, -5533.531967822549, 0.0]
['beep', 0.0, 678.9565895744073, 0.0, 0.0, 0.0, 0.0, -5539.052848703009, 0.0]
['beep', 0.0, 679.5824384191559, 0.0, 0.0, 0.0, 0.0, -5543.277328405062, 0.0]
['beep', 0.0, 680.5659151751894, 0.0, 0.0, 0.0, 0.0, -5541.198616170718, 0.0]
['beep', 0.0, 677.5931331626336, 0.0, 0.0, 0.0, 0.0, -5540.304546392506, 0.0]
['beep', 0.0, 675.1120895280945, 0.0, 0.0, 0.0, 0.0, -5540.639822559336, 0.0]
['beep', 0.0, 674.4415371944353, 0.0, 0.0, 0.0, 0.0, -5542.964403982688, 0.0]
['beep', 0.0, 675.7155866283878, 0.0, 0.0, 0.0, 0.0, -5547.747677296124, 0.0]
['beep', 0.0, 676.0061593063068, 0.0, 0.0, 0.0, 0.0, -5549.848741274923, 0.0]
['beep', 0.0, 674.5979994056224, 0.0, 0.0, 0.0, 0.0, -5547.4571046182045, 0.0]
['beep', 0.0, 672.6533976380107, 0.0, 0.0, 0.0, 0.0, -5543.724363294168, 0.0]
['beep', 0.0, 675.2685517392816, 0.0, 0.0, 0.0, 0.0, -5547.390049384839, 0.0]
['beep', 0.0, 676.7661186177872, 0.0, 0.0, 0.0, 0.0, -5551.882750020355, 0.0]
['beep', 0.0, 677.6154849070889, 0.0, 0.0, 0.0, 0.0, -5548.172360440774, 0.0]
['beep', 0.0, 676.9896360623403, 0.0, 0.0, 0.0, 0.0, -5543.992584227632, 0.0]
['beep', 0.0, 674.709758127899, 0.0, 0.0, 0.0, 0.0, -5540.908043492799, 0.0]
['beep', 0.0, 676.6320081510554, 0.0, 0.0, 0.0, 0.0, -5544.216101672185, 0.0]
['beep', 0.0, 677.8613540960973, 0.0, 0.0, 0.0, 0.0, -5545.132523194853, 0.0]
['beep', 0.0, 678.8001273632202, 0.0, 0.0, 0.0, 0.0, -5545.2889854060395, 0.0]
['beep', 0.0, 677.9507610739186, 0.0, 0.0, 0.0, 0.0, -5543.456142360705, 0.0]
['beep', 0.0, 677.3696157180806, 0.0, 0.0, 0.0, 0.0, -5541.71270629319, 0.0]
['beep', 0.0, 678.9118860854967, 0.0, 0.0, 0.0, 0.0, -5543.09851444942, 0.0]
['beep', 0.0, 681.482336697857, 0.0, 0.0, 0.0, 0.0, -5548.060601718498, 0.0]
['beep', 0.0, 684.0080838213067, 0.0, 0.0, 0.0, 0.0, -5551.413363386794, 0.0]
['beep', 0.0, 685.6174094220888, 0.0, 0.0, 0.0, 0.0, -5545.2889854060395, 0.0]
['beep', 0.0, 685.8856303555525, 0.0, 0.0, 0.0, 0.0, -5542.7632382825905, 0.0]
['beep', 0.0, 687.0479210672285, 0.0, 0.0, 0.0, 0.0, -5543.277328405062, 0.0]
['beep', 0.0, 688.4560809679128, 0.0, 0.0, 0.0, 0.0, -5545.870130761878, 0.0]
['beep', 0.0, 689.6854269129548, 0.0, 0.0, 0.0, 0.0, -5544.417267372282, 0.0]
['beep', 0.0, 688.9925228348402, 0.0, 0.0, 0.0, 0.0, -5542.584424326948, 0.0]
['beep', 0.0, 687.740825145343, 0.0, 0.0, 0.0, 0.0, -5541.980927226655, 0.0]
['beep', 0.0, 685.6621129109994, 0.0, 0.0, 0.0, 0.0, -5543.612604571892, 0.0]
['beep', 0.0, 686.8467553671308, 0.0, 0.0, 0.0, 0.0, -5546.495979606626, 0.0]
['beep', 0.0, 686.064444311195, 0.0, 0.0, 0.0, 0.0, -5550.116962208386, 0.0]
['beep', 0.0, 682.9128483429967, 0.0, 0.0, 0.0, 0.0, -5548.440581374238, 0.0]
['beep', 0.0, 679.6718453969771, 0.0, 0.0, 0.0, 0.0, -5542.405610371306, 0.0]
['beep', 0.0, 677.5037261848124, 0.0, 0.0, 0.0, 0.0, -5542.42796211576, 0.0]
['beep', 0.0, 677.4813744403571, 0.0, 0.0, 0.0, 0.0, -5547.52415985157, 0.0]
['beep', 0.0, 680.3871012195469, 0.0, 0.0, 0.0, 0.0, -5549.871093019377, 0.0]
['beep', 0.0, 678.9118860854967, 0.0, 0.0, 0.0, 0.0, -5546.38422088435, 0.0]
['beep', 0.0, 675.6932348839325, 0.0, 0.0, 0.0, 0.0, -5544.484322605649, 0.0]
['beep', 0.0, 675.5591244172007, 0.0, 0.0, 0.0, 0.0, -5545.959537739699, 0.0]
['beep', 0.0, 676.4308424509576, 0.0, 0.0, 0.0, 0.0, -5548.127656951864, 0.0]
['beep', 0.0, 677.548429673723, 0.0, 0.0, 0.0, 0.0, -5550.631052330858, 0.0]
['beep', 0.0, 676.9002290845191, 0.0, 0.0, 0.0, 0.0, -5547.52415985157, 0.0]
['beep', 0.0, 676.0285110507621, 0.0, 0.0, 0.0, 0.0, -5545.914834250789, 0.0]
['beep', 0.0, 676.0732145396727, 0.0, 0.0, 0.0, 0.0, -5548.19471218523, 0.0]
['beep', 0.0, 678.062519796195, 0.0, 0.0, 0.0, 0.0, -5549.133485452353, 0.0]
['beep', 0.0, 677.0119878067957, 0.0, 0.0, 0.0, 0.0, -5549.245244174629, 0.0]
['beep', 0.0, 675.7826418617537, 0.0, 0.0, 0.0, 0.0, -5547.613566829392, 0.0]
['beep', 0.0, 675.0226825502733, 0.0, 0.0, 0.0, 0.0, -5546.183055184252, 0.0]
['beep', 0.0, 675.4250139504688, 0.0, 0.0, 0.0, 0.0, -5546.76420054009, 0.0]
['beep', 0.0, 676.7884703622426, 0.0, 0.0, 0.0, 0.0, -5546.652441817813, 0.0]
['beep', 0.0, 679.3589209746028, 0.0, 0.0, 0.0, 0.0, -5550.608700586403, 0.0]
['beep', 0.0, 677.7719471182761, 0.0, 0.0, 0.0, 0.0, -5553.469723876682, 0.0]
['beep', 0.0, 676.3414354731364, 0.0, 0.0, 0.0, 0.0, -5551.256901175607, 0.0]
['beep', 0.0, 677.0566912957063, 0.0, 0.0, 0.0, 0.0, -5549.111133707897, 0.0]
['beep', 0.0, 679.2471622523263, 0.0, 0.0, 0.0, 0.0, -5552.486247120649, 0.0]
['beep', 0.0, 679.8506593526196, 0.0, 0.0, 0.0, 0.0, -5549.312299407995, 0.0]
['beep', 0.0, 679.2695139967816, 0.0, 0.0, 0.0, 0.0, -5548.731154052157, 0.0]
['beep', 0.0, 680.5212116862788, 0.0, 0.0, 0.0, 0.0, -5549.580520341458, 0.0]
['beep', 0.0, 683.2481245098263, 0.0, 0.0, 0.0, 0.0, -5553.022688987576, 0.0]
['beep', 0.0, 686.1314995445609, 0.0, 0.0, 0.0, 0.0, -5556.509561122604, 0.0]
['beep', 0.0, 680.2306390083598, 0.0, 0.0, 0.0, 0.0, -5555.079049477465, 0.0]
['beep', 0.0, 676.6990633844214, 0.0, 0.0, 0.0, 0.0, -5552.687412820746, 0.0]
['beep', 0.0, 675.3803104615582, 0.0, 0.0, 0.0, 0.0, -5551.547473853526, 0.0]
['beep', 0.0, 673.8156883496868, 0.0, 0.0, 0.0, 0.0, -5556.688375078246, 0.0]
['beep', 0.0, 675.7602901172984, 0.0, 0.0, 0.0, 0.0, -5561.985738514154, 0.0]
['beep', 0.0, 675.3132552281922, 0.0, 0.0, 0.0, 0.0, -5559.415287901794, 0.0]
['beep', 0.0, 673.8156883496868, 0.0, 0.0, 0.0, 0.0, -5554.117924465886, 0.0]
['beep', 0.0, 670.4629266813906, 0.0, 0.0, 0.0, 0.0, -5555.883712277855, 0.0]
['beep', 0.0, 670.8652580815861, 0.0, 0.0, 0.0, 0.0, -5559.795267557534, 0.0]
['beep', 0.0, 673.0780807826616, 0.0, 0.0, 0.0, 0.0, -5562.43277340326, 0.0]
['beep', 0.0, 676.0508627952174, 0.0, 0.0, 0.0, 0.0, -5560.62228210238, 0.0]
['beep', 0.0, 675.6485313950219, 0.0, 0.0, 0.0, 0.0, -5557.135409967353, 0.0]
['beep', 0.0, 674.8438685946309, 0.0, 0.0, 0.0, 0.0, -5553.179151198763, 0.0]
['beep', 0.0, 676.6096564066, 0.0, 0.0, 0.0, 0.0, -5552.888578520844, 0.0]
['beep', 0.0, 678.7777756187648, 0.0, 0.0, 0.0, 0.0, -5557.67185183428, 0.0]
['beep', 0.0, 679.4259762079688, 0.0, 0.0, 0.0, 0.0, -5557.090706478442, 0.0]
['beep', 0.0, 677.6154849070889, 0.0, 0.0, 0.0, 0.0, -5557.3812791563605, 0.0]
['beep', 0.0, 675.0226825502733, 0.0, 0.0, 0.0, 0.0, -5551.882750020355, 0.0]
['beep', 0.0, 673.8827435830526, 0.0, 0.0, 0.0, 0.0, -5549.379354641361, 0.0]
['beep', 0.0, 675.3803104615582, 0.0, 0.0, 0.0, 0.0, -5554.833180288456, 0.0]
['beep', 0.0, 675.1120895280945, 0.0, 0.0, 0.0, 0.0, -5556.062526233498, 0.0]
['beep', 0.0, 675.7155866283878, 0.0, 0.0, 0.0, 0.0, -5552.128619209364, 0.0]
['beep', 0.0, 674.6203511500778, 0.0, 0.0, 0.0, 0.0, -5551.145142453331, 0.0]
['beep', 0.0, 674.7768133612649, 0.0, 0.0, 0.0, 0.0, -5551.726287809168, 0.0]
['beep', 0.0, 675.804993606209, 0.0, 0.0, 0.0, 0.0, -5553.313261665495, 0.0]
['beep', 0.0, 676.5873046621448, 0.0, 0.0, 0.0, 0.0, -5554.430848888261, 0.0]
['beep', 0.0, 676.6543598955107, 0.0, 0.0, 0.0, 0.0, -5548.23941567414, 0.0]
['beep', 0.0, 674.642702894533, 0.0, 0.0, 0.0, 0.0, -5541.578595826459, 0.0]
['beep', 0.0, 672.6533976380107, 0.0, 0.0, 0.0, 0.0, -5540.706877792702, 0.0]
['beep', 0.0, 674.0839092831504, 0.0, 0.0, 0.0, 0.0, -5544.081991205453, 0.0]
['beep', 0.0, 673.9497988164186, 0.0, 0.0, 0.0, 0.0, -5537.8905579913335, 0.0]
['beep', 0.0, 671.9828453043515, 0.0, 0.0, 0.0, 0.0, -5531.453255588205, 0.0]
['beep', 0.0, 671.7369761153432, 0.0, 0.0, 0.0, 0.0, -5526.155892152297, 0.0]
['beep', 0.0, 671.7593278597984, 0.0, 0.0, 0.0, 0.0, -5523.652496773302, 0.0]
['beep', 0.0, 672.5416389157342, 0.0, 0.0, 0.0, 0.0, -5521.931412450244, 0.0]
['beep', 0.0, 673.4804121828571, 0.0, 0.0, 0.0, 0.0, -5519.293906604517, 0.0]
['beep', 0.0, 672.1616592599939, 0.0, 0.0, 0.0, 0.0, -5510.532022778038, 0.0]
['beep', 0.0, 668.0489382802175, 0.0, 0.0, 0.0, 0.0, -5501.390159295816, 0.0]
['beep', 0.0, 667.8924760690303, 0.0, 0.0, 0.0, 0.0, -5497.0986243603975, 0.0]
['beep', 0.0, 670.5746854036672, 0.0, 0.0, 0.0, 0.0, -5494.192897581208, 0.0]
['beep', 0.0, 671.8487348376196, 0.0, 0.0, 0.0, 0.0, -5490.124880090342, 0.0]
['beep', 0.0, 670.9099615704968, 0.0, 0.0, 0.0, 0.0, -5480.46892648565, 0.0]
['beep', 0.0, 668.160697002494, 0.0, 0.0, 0.0, 0.0, -5472.958740348666, 0.0]
['beep', 0.0, 666.5737231461673, 0.0, 0.0, 0.0, 0.0, -5469.091888557898, 0.0]
['beep', 0.0, 666.8195923351756, 0.0, 0.0, 0.0, 0.0, -5467.996653079588, 0.0]
['beep', 0.0, 664.6738248674661, 0.0, 0.0, 0.0, 0.0, -5463.816876866445, 0.0]
['beep', 0.0, 663.1986097334159, 0.0, 0.0, 0.0, 0.0, -5459.212417508652, 0.0]
['beep', 0.0, 663.422127177969, 0.0, 0.0, 0.0, 0.0, -5452.328080216418, 0.0]
['beep', 0.0, 663.7350516003432, 0.0, 0.0, 0.0, 0.0, -5452.685708127703, 0.0]
['beep', 0.0, 664.807935334198, 0.0, 0.0, 0.0, 0.0, -5456.619615151837, 0.0]
['beep', 0.0, 664.5173626562789, 0.0, 0.0, 0.0, 0.0, -5461.0005570650765, 0.0]
['beep', 0.0, 664.3161969561812, 0.0, 0.0, 0.0, 0.0, -5460.777039620524, 0.0]
['beep', 0.0, 663.6232928780666, 0.0, 0.0, 0.0, 0.0, -5463.302786743973, 0.0]
['beep', 0.0, 663.1539062445053, 0.0, 0.0, 0.0, 0.0, -5468.264874013052, 0.0]
['beep', 0.0, 665.031452778751, 0.0, 0.0, 0.0, 0.0, -5472.109374059364, 0.0]
['beep', 0.0, 665.1655632454829, 0.0, 0.0, 0.0, 0.0, -5478.032586340021, 0.0]
['beep', 0.0, 662.3045399552036, 0.0, 0.0, 0.0, 0.0, -5478.5466764624925, 0.0]
['beep', 0.0, 659.5776271316561, 0.0, 0.0, 0.0, 0.0, -5482.659397442269, 0.0]
['beep', 0.0, 660.5611038876896, 0.0, 0.0, 0.0, 0.0, -5486.816821910957, 0.0]
['beep', 0.0, 661.1198974990723, 0.0, 0.0, 0.0, 0.0, -5495.288133059518, 0.0]
['beep', 0.0, 664.6067696341001, 0.0, 0.0, 0.0, 0.0, -5500.361979050873, 0.0]
['beep', 0.0, 663.8915138115303, 0.0, 0.0, 0.0, 0.0, -5501.7924906960125, 0.0]
['beep', 0.0, 660.5611038876896, 0.0, 0.0, 0.0, 0.0, -5501.211345340174, 0.0]
['beep', 0.0, 663.064499266684, 0.0, 0.0, 0.0, 0.0, -5507.492185532115, 0.0]
['beep', 0.0, 667.7807173467538, 0.0, 0.0, 0.0, 0.0, -5516.388179825328, 0.0]
['beep', 0.0, 669.680615625455, 0.0, 0.0, 0.0, 0.0, -5522.020819428065, 0.0]
['beep', 0.0, 670.194705747927, 0.0, 0.0, 0.0, 0.0, -5525.0383049295315, 0.0]
['beep', 0.0, 669.1441737585276, 0.0, 0.0, 0.0, 0.0, -5526.602927041403, 0.0]
['beep', 0.0, 670.6640923814884, 0.0, 0.0, 0.0, 0.0, -5531.676773032757, 0.0]
['beep', 0.0, 673.256894738304, 0.0, 0.0, 0.0, 0.0, -5538.024668458065, 0.0]
['beep', 0.0, 675.9167523284856, 0.0, 0.0, 0.0, 0.0, -5546.652441817813, 0.0]
['beep', 0.0, 676.4084907065023, 0.0, 0.0, 0.0, 0.0, -5549.938148252743, 0.0]
['beep', 0.0, 672.742804615832, 0.0, 0.0, 0.0, 0.0, -5552.463895376193, 0.0]
['beep', 0.0, 672.3628249600918, 0.0, 0.0, 0.0, 0.0, -5561.494000136137, 0.0]
['beep', 0.0, 673.9721505608738, 0.0, 0.0, 0.0, 0.0, -5570.032366518065, 0.0]
['beep', 0.0, 677.9731128183738, 0.0, 0.0, 0.0, 0.0, -5574.659177620313, 0.0]
['beep', 0.0, 676.6096564066, 0.0, 0.0, 0.0, 0.0, -5578.190753244252, 0.0]
['beep', 0.0, 675.1567930170052, 0.0, 0.0, 0.0, 0.0, -5582.124660268386, 0.0]
['beep', 0.0, 674.709758127899, 0.0, 0.0, 0.0, 0.0, -5588.204334760229, 0.0]
['beep', 0.0, 676.5873046621448, 0.0, 0.0, 0.0, 0.0, -5597.4132534758155, 0.0]
['beep', 0.0, 678.3754442185693, 0.0, 0.0, 0.0, 0.0, -5602.509451211626, 0.0]
['beep', 0.0, 679.4706796968794, 0.0, 0.0, 0.0, 0.0, -5605.68339892428, 0.0]
['beep', 0.0, 679.3142174856922, 0.0, 0.0, 0.0, 0.0, -5607.292724525061, 0.0]
['beep', 0.0, 679.7165488858877, 0.0, 0.0, 0.0, 0.0, -5613.774730417101, 0.0]
['beep', 0.0, 681.9293715869632, 0.0, 0.0, 0.0, 0.0, -5623.587146232981, 0.0]
['beep', 0.0, 685.8856303555525, 0.0, 0.0, 0.0, 0.0, -5630.136207358385, 0.0]
['beep', 0.0, 686.0197408222843, 0.0, 0.0, 0.0, 0.0, -5627.901032912855, 0.0]
['beep', 0.0, 685.7962233777313, 0.0, 0.0, 0.0, 0.0, -5628.929213157799, 0.0]
['beep', 0.0, 686.064444311195, 0.0, 0.0, 0.0, 0.0, -5632.729009715201, 0.0]
['beep', 0.0, 688.5454879457341, 0.0, 0.0, 0.0, 0.0, -5637.467579539726, 0.0]
['beep', 0.0, 690.1771652909715, 0.0, 0.0, 0.0, 0.0, -5641.736762730689, 0.0]
['beep', 0.0, 688.5231362012787, 0.0, 0.0, 0.0, 0.0, -5638.540463273581, 0.0]
['beep', 0.0, 687.51730770079, 0.0, 0.0, 0.0, 0.0, -5638.87573944041, 0.0]
['beep', 0.0, 687.0255693227732, 0.0, 0.0, 0.0, 0.0, -5639.479236540704, 0.0]
['beep', 0.0, 686.6455896670329, 0.0, 0.0, 0.0, 0.0, -5642.004983664154, 0.0]
['beep', 0.0, 687.7855286342536, 0.0, 0.0, 0.0, 0.0, -5644.575434276514, 0.0]
['beep', 0.0, 687.2714385117815, 0.0, 0.0, 0.0, 0.0, -5642.16144587534, 0.0]
['beep', 0.0, 685.3938919775358, 0.0, 0.0, 0.0, 0.0, -5636.931137672799, 0.0]
['beep', 0.0, 685.192726277438, 0.0, 0.0, 0.0, 0.0, -5637.758152217645, 0.0]
['beep', 0.0, 686.0420925667397, 0.0, 0.0, 0.0, 0.0, -5640.328602830005, 0.0]
['beep', 0.0, 687.0702728116838, 0.0, 0.0, 0.0, 0.0, -5643.569605776025, 0.0]
['beep', 0.0, 685.1033192996168, 0.0, 0.0, 0.0, 0.0, -5645.380097076905, 0.0]
['beep', 0.0, 683.2704762542816, 0.0, 0.0, 0.0, 0.0, -5639.3227743295165, 0.0]
['beep', 0.0, 681.9070198425079, 0.0, 0.0, 0.0, 0.0, -5636.819378950522, 0.0]
['beep', 0.0, 683.6504559100218, 0.0, 0.0, 0.0, 0.0, -5641.3791348194045, 0.0]
['beep', 0.0, 685.9973890778291, 0.0, 0.0, 0.0, 0.0, -5644.955413932254, 0.0]
['beep', 0.0, 683.449290209924, 0.0, 0.0, 0.0, 0.0, -5642.1390941308855, 0.0]
['beep', 0.0, 683.5386971877452, 0.0, 0.0, 0.0, 0.0, -5637.40052430636, 0.0]
['beep', 0.0, 683.0469588097285, 0.0, 0.0, 0.0, 0.0, -5638.965146418232, 0.0]
['beep', 0.0, 683.3151797431922, 0.0, 0.0, 0.0, 0.0, -5642.11674238643, 0.0]
['beep', 0.0, 684.3880634770469, 0.0, 0.0, 0.0, 0.0, -5645.268338354628, 0.0]
['beep', 0.0, 682.0858337981504, 0.0, 0.0, 0.0, 0.0, -5640.485065041193, 0.0]
['beep', 0.0, 681.9070198425079, 0.0, 0.0, 0.0, 0.0, -5634.807721949544, 0.0]
['beep', 0.0, 683.4716419543794, 0.0, 0.0, 0.0, 0.0, -5638.473408040215, 0.0]
['beep', 0.0, 684.4774704548681, 0.0, 0.0, 0.0, 0.0, -5642.273204597617, 0.0]
['beep', 0.0, 685.5727059331782, 0.0, 0.0, 0.0, 0.0, -5644.083695898497, 0.0]
['beep', 0.0, 684.2316012658598, 0.0, 0.0, 0.0, 0.0, -5641.043858652575, 0.0]
['beep', 0.0, 683.7175111433877, 0.0, 0.0, 0.0, 0.0, -5638.316945829028, 0.0]
['beep', 0.0, 684.1868977769492, 0.0, 0.0, 0.0, 0.0, -5639.054553396053, 0.0]
['beep', 0.0, 684.7680431327872, 0.0, 0.0, 0.0, 0.0, -5641.535597030592, 0.0]
['beep', 0.0, 687.740825145343, 0.0, 0.0, 0.0, 0.0, -5644.351916831961, 0.0]
['beep', 0.0, 686.4891274558458, 0.0, 0.0, 0.0, 0.0, -5641.088562141485, 0.0]
['beep', 0.0, 682.1752407759716, 0.0, 0.0, 0.0, 0.0, -5634.472445782715, 0.0]
['beep', 0.0, 681.0800052976615, 0.0, 0.0, 0.0, 0.0, -5633.5113207711365, 0.0]
['beep', 0.0, 685.2597815108039, 0.0, 0.0, 0.0, 0.0, -5637.02054465062, 0.0]
['beep', 0.0, 689.774833890776, 0.0, 0.0, 0.0, 0.0, -5637.177006861807, 0.0]
['beep', 0.0, 689.7301304018654, 0.0, 0.0, 0.0, 0.0, -5631.767884703623, 0.0]
['beep', 0.0, 690.870069369086, 0.0, 0.0, 0.0, 0.0, -5624.525919500104, 0.0]
['beep', 0.0, 691.3171042581921, 0.0, 0.0, 0.0, 0.0, -5620.770826431612, 0.0]
['beep', 0.0, 692.3899879920468, 0.0, 0.0, 0.0, 0.0, -5621.799006676556, 0.0]
['beep', 0.0, 693.0381885812508, 0.0, 0.0, 0.0, 0.0, -5619.608535719935, 0.0]
['beep', 0.0, 691.8758978695748, 0.0, 0.0, 0.0, 0.0, -5613.953544372743, 0.0]
['beep', 0.0, 690.870069369086, 0.0, 0.0, 0.0, 0.0, -5609.0361605925755, 0.0]
['beep', 0.0, 691.0712350691838, 0.0, 0.0, 0.0, 0.0, -5605.906916368833, 0.0]
['beep', 0.0, 690.937124602452, 0.0, 0.0, 0.0, 0.0, -5607.1586140583295, 0.0]
['beep', 0.0, 692.0547118252173, 0.0, 0.0, 0.0, 0.0, -5608.142090814364, 0.0]
['beep', 0.0, 692.0770635696725, 0.0, 0.0, 0.0, 0.0, -5604.051721579042, 0.0]
['beep', 0.0, 691.5629734472005, 0.0, 0.0, 0.0, 0.0, -5597.033273820076, 0.0]
['beep', 0.0, 691.160642047005, 0.0, 0.0, 0.0, 0.0, -5592.562924929014, 0.0]
['beep', 0.0, 693.3511130036251, 0.0, 0.0, 0.0, 0.0, -5594.731044141179, 0.0]
['beep', 0.0, 694.2675345262927, 0.0, 0.0, 0.0, 0.0, -5593.68051215178, 0.0]
['beep', 0.0, 693.4852234703569, 0.0, 0.0, 0.0, 0.0, -5584.404538202827, 0.0]
['beep', 0.0, 691.8758978695748, 0.0, 0.0, 0.0, 0.0, -5576.313206710006, 0.0]
['beep', 0.0, 691.5182699582899, 0.0, 0.0, 0.0, 0.0, -5572.602817130425, 0.0]
['beep', 0.0, 692.0323600807619, 0.0, 0.0, 0.0, 0.0, -5565.651424604825, 0.0]
['beep', 0.0, 691.674732169477, 0.0, 0.0, 0.0, 0.0, -5553.760296554601, 0.0]
['beep', 0.0, 690.0430548242397, 0.0, 0.0, 0.0, 0.0, -5538.404648113805, 0.0]
['beep', 0.0, 687.4726042118793, 0.0, 0.0, 0.0, 0.0, -5521.551432794504, 0.0]
['beep', 0.0, 685.2821332552593, 0.0, 0.0, 0.0, 0.0, -5510.912002433777, 0.0]
['beep', 0.0, 687.4279007229687, 0.0, 0.0, 0.0, 0.0, -5504.027665141543, 0.0]
['beep', 0.0, 686.0420925667397, 0.0, 0.0, 0.0, 0.0, -5494.125842347842, 0.0]
['beep', 0.0, 684.3433599881363, 0.0, 0.0, 0.0, 0.0, -5480.55833346347, 0.0]
['beep', 0.0, 682.5328686872565, 0.0, 0.0, 0.0, 0.0, -5469.628330424825, 0.0]
['beep', 0.0, 681.1470605310275, 0.0, 0.0, 0.0, 0.0, -5463.41454546625, 0.0]
['beep', 0.0, 682.0187785647844, 0.0, 0.0, 0.0, 0.0, -5462.475772199127, 0.0]
['beep', 0.0, 681.4152814644912, 0.0, 0.0, 0.0, 0.0, -5461.626405909826, 0.0]
['beep', 0.0, 680.1859355194492, 0.0, 0.0, 0.0, 0.0, -5457.267815741041, 0.0]
['beep', 0.0, 678.8895343410414, 0.0, 0.0, 0.0, 0.0, -5450.048202281976, 0.0]
['beep', 0.0, 679.6494936525219, 0.0, 0.0, 0.0, 0.0, -5450.249367982075, 0.0]
['beep', 0.0, 679.805955863709, 0.0, 0.0, 0.0, 0.0, -5454.742068617591, 0.0]
['beep', 0.0, 679.0012930633179, 0.0, 0.0, 0.0, 0.0, -5459.480638442116, 0.0]
['beep', 0.0, 678.3083889852035, 0.0, 0.0, 0.0, 0.0, -5457.200760507674, 0.0]
['beep', 0.0, 676.3637872175917, 0.0, 0.0, 0.0, 0.0, -5455.3008622289735, 0.0]
['beep', 0.0, 676.1849732619493, 0.0, 0.0, 0.0, 0.0, -5457.290167485496, 0.0]
['beep', 0.0, 680.1412320305386, 0.0, 0.0, 0.0, 0.0, -5462.207551265664, 0.0]
['beep', 0.0, 681.0129500642956, 0.0, 0.0, 0.0, 0.0, -5468.466039713149, 0.0]
['beep', 0.0, 679.4259762079688, 0.0, 0.0, 0.0, 0.0, -5471.282359514518, 0.0]
['beep', 0.0, 678.8671825965861, 0.0, 0.0, 0.0, 0.0, -5467.03552806801, 0.0]
['beep', 0.0, 677.4366709514464, 0.0, 0.0, 0.0, 0.0, -5467.147286790287, 0.0]
['beep', 0.0, 678.1072232851056, 0.0, 0.0, 0.0, 0.0, -5473.361071748862, 0.0]
['beep', 0.0, 680.744729130832, 0.0, 0.0, 0.0, 0.0, -5478.837249140412, 0.0]
['beep', 0.0, 680.029473308262, 0.0, 0.0, 0.0, 0.0, -5482.3017695309845, 0.0]
['beep', 0.0, 677.6601883959995, 0.0, 0.0, 0.0, 0.0, -5481.430051497227, 0.0]
['beep', 0.0, 678.7330721298542, 0.0, 0.0, 0.0, 0.0, -5484.112260831865, 0.0]
['beep', 0.0, 679.5824384191559, 0.0, 0.0, 0.0, 0.0, -5488.604961467381, 0.0]
['beep', 0.0, 679.448327952424, 0.0, 0.0, 0.0, 0.0, -5490.080176601431, 0.0]
['beep', 0.0, 677.0119878067957, 0.0, 0.0, 0.0, 0.0, -5491.3989295242945, 0.0]
['beep', 0.0, 676.0061593063068, 0.0, 0.0, 0.0, 0.0, -5491.845964413401, 0.0]
['beep', 0.0, 675.0897377836392, 0.0, 0.0, 0.0, 0.0, -5495.645760970803, 0.0]
['beep', 0.0, 675.7379383728431, 0.0, 0.0, 0.0, 0.0, -5497.947990649699, 0.0]
['beep', 0.0, 676.6096564066, 0.0, 0.0, 0.0, 0.0, -5501.256048829085, 0.0]
['beep', 0.0, 675.4250139504688, 0.0, 0.0, 0.0, 0.0, -5503.938258163722, 0.0]
['beep', 0.0, 673.4357086939465, 0.0, 0.0, 0.0, 0.0, -5500.697255217702, 0.0]
['beep', 0.0, 675.7826418617537, 0.0, 0.0, 0.0, 0.0, -5502.999484896599, 0.0]
['beep', 0.0, 677.1684500179828, 0.0, 0.0, 0.0, 0.0, -5511.694313489713, 0.0]
['beep', 0.0, 675.7379383728431, 0.0, 0.0, 0.0, 0.0, -5514.555336779993, 0.0]
['beep', 0.0, 676.5426011732342, 0.0, 0.0, 0.0, 0.0, -5512.364865823372, 0.0]
['beep', 0.0, 675.6261796505665, 0.0, 0.0, 0.0, 0.0, -5511.515499534071, 0.0]
['beep', 0.0, 675.7155866283878, 0.0, 0.0, 0.0, 0.0, -5514.085950146431, 0.0]
['beep', 0.0, 676.4755459398682, 0.0, 0.0, 0.0, 0.0, -5518.153967637297, 0.0]
['beep', 0.0, 677.9954645628292, 0.0, 0.0, 0.0, 0.0, -5519.919755449267, 0.0]
['beep', 0.0, 677.548429673723, 0.0, 0.0, 0.0, 0.0, -5519.405665326794, 0.0]
['beep', 0.0, 675.1344412725498, 0.0, 0.0, 0.0, 0.0, -5519.405665326794, 0.0]
['beep', 0.0, 676.1179180285833, 0.0, 0.0, 0.0, 0.0, -5521.640839772325, 0.0]
['beep', 0.0, 678.3083889852035, 0.0, 0.0, 0.0, 0.0, -5522.691371761724, 0.0]
['beep', 0.0, 677.7719471182761, 0.0, 0.0, 0.0, 0.0, -5528.346363108917, 0.0]
['beep', 0.0, 677.8837058405526, 0.0, 0.0, 0.0, 0.0, -5526.669982274769, 0.0]
['beep', 0.0, 676.2073250064045, 0.0, 0.0, 0.0, 0.0, -5526.647630530314, 0.0]
['beep', 0.0, 676.4978976843236, 0.0, 0.0, 0.0, 0.0, -5529.016915442577, 0.0]
['beep', 0.0, 677.4366709514464, 0.0, 0.0, 0.0, 0.0, -5530.581537554448, 0.0]
['beep', 0.0, 678.3530924741141, 0.0, 0.0, 0.0, 0.0, -5529.553357309504, 0.0]
['beep', 0.0, 676.9002290845191, 0.0, 0.0, 0.0, 0.0, -5530.268613132073, 0.0]
['beep', 0.0, 677.3696157180806, 0.0, 0.0, 0.0, 0.0, -5528.055790430998, 0.0]
['beep', 0.0, 677.3025604847146, 0.0, 0.0, 0.0, 0.0, -5528.078142175454, 0.0]
['beep', 0.0, 678.4648511963906, 0.0, 0.0, 0.0, 0.0, -5533.688430033735, 0.0]
['beep', 0.0, 679.0907000411391, 0.0, 0.0, 0.0, 0.0, -5539.365773125383, 0.0]
['beep', 0.0, 677.3919674625358, 0.0, 0.0, 0.0, 0.0, -5535.834197501445, 0.0]
['beep', 0.0, 675.4473656949241, 0.0, 0.0, 0.0, 0.0, -5531.43090384375, 0.0]
['beep', 0.0, 676.3190837286811, 0.0, 0.0, 0.0, 0.0, -5536.258880646095, 0.0]
['beep', 0.0, 677.5260779292677, 0.0, 0.0, 0.0, 0.0, -5539.678697547758, 0.0]
['beep', 0.0, 680.0741767971726, 0.0, 0.0, 0.0, 0.0, -5536.772970768568, 0.0]
['beep', 0.0, 680.2082872639045, 0.0, 0.0, 0.0, 0.0, -5536.0130114570875, 0.0]
['beep', 0.0, 677.6825401404549, 0.0, 0.0, 0.0, 0.0, -5535.320107378973, 0.0]
['beep', 0.0, 676.5426011732342, 0.0, 0.0, 0.0, 0.0, -5535.677735290258, 0.0]
['beep', 0.0, 678.3754442185693, 0.0, 0.0, 0.0, 0.0, -5537.823502757968, 0.0]
['beep', 0.0, 679.8953628415302, 0.0, 0.0, 0.0, 0.0, -5541.690354548736, 0.0]
['beep', 0.0, 678.2860372407481, 0.0, 0.0, 0.0, 0.0, -5540.773933026067, 0.0]
['beep', 0.0, 677.3919674625358, 0.0, 0.0, 0.0, 0.0, -5537.689392291235, 0.0]
['beep', 0.0, 676.3414354731364, 0.0, 0.0, 0.0, 0.0, -5538.292889391529, 0.0]
['beep', 0.0, 676.8331738511532, 0.0, 0.0, 0.0, 0.0, -5542.2938516490285, 0.0]
['beep', 0.0, 679.0683482966839, 0.0, 0.0, 0.0, 0.0, -5544.216101672185, 0.0]
['beep', 0.0, 678.7330721298542, 0.0, 0.0, 0.0, 0.0, -5542.696183049225, 0.0]
['beep', 0.0, 677.7495953738207, 0.0, 0.0, 0.0, 0.0, -5537.264709146584, 0.0]
['beep', 0.0, 676.5873046621448, 0.0, 0.0, 0.0, 0.0, -5538.337592880439, 0.0]
['beep', 0.0, 676.8331738511532, 0.0, 0.0, 0.0, 0.0, -5540.908043492799, 0.0]
['beep', 0.0, 677.9060575850079, 0.0, 0.0, 0.0, 0.0, -5544.216101672185, 0.0]
['beep', 0.0, 677.4590226959018, 0.0, 0.0, 0.0, 0.0, -5543.612604571892, 0.0]
['beep', 0.0, 677.1908017624381, 0.0, 0.0, 0.0, 0.0, -5543.120866193875, 0.0]
['beep', 0.0, 678.8001273632202, 0.0, 0.0, 0.0, 0.0, -5543.0538109605095, 0.0]
['beep', 0.0, 679.1130517855945, 0.0, 0.0, 0.0, 0.0, -5543.702011549713, 0.0]
['beep', 0.0, 679.4930314413347, 0.0, 0.0, 0.0, 0.0, -5544.1713981832745, 0.0]
['beep', 0.0, 678.2860372407481, 0.0, 0.0, 0.0, 0.0, -5544.506674350104, 0.0]
['beep', 0.0, 677.6154849070889, 0.0, 0.0, 0.0, 0.0, -5540.461008603694, 0.0]
['beep', 0.0, 677.4813744403571, 0.0, 0.0, 0.0, 0.0, -5541.0645057039865, 0.0]
['beep', 0.0, 678.6213134075778, 0.0, 0.0, 0.0, 0.0, -5545.467799361682, 0.0]
['beep', 0.0, 679.6718453969771, 0.0, 0.0, 0.0, 0.0, -5546.495979606626, 0.0]
['beep', 0.0, 678.0178163072844, 0.0, 0.0, 0.0, 0.0, -5542.986755727143, 0.0]
['beep', 0.0, 676.7884703622426, 0.0, 0.0, 0.0, 0.0, -5539.365773125383, 0.0]
['beep', 0.0, 676.3190837286811, 0.0, 0.0, 0.0, 0.0, -5541.3550783819055, 0.0]
['beep', 0.0, 677.8837058405526, 0.0, 0.0, 0.0, 0.0, -5545.646613317324, 0.0]
['beep', 0.0, 678.5542581742118, 0.0, 0.0, 0.0, 0.0, -5549.66992731928, 0.0]
['beep', 0.0, 678.2413337518375, 0.0, 0.0, 0.0, 0.0, -5547.345345895928, 0.0]
['beep', 0.0, 679.2471622523263, 0.0, 0.0, 0.0, 0.0, -5543.567901082981, 0.0]
['beep', 0.0, 679.0012930633179, 0.0, 0.0, 0.0, 0.0, -5544.19374992773, 0.0]
['beep', 0.0, 678.062519796195, 0.0, 0.0, 0.0, 0.0, -5544.1713981832745, 0.0]
['beep', 0.0, 679.7165488858877, 0.0, 0.0, 0.0, 0.0, -5546.071296461975, 0.0]
['beep', 0.0, 678.710720385399, 0.0, 0.0, 0.0, 0.0, -5546.42892437326, 0.0]
['beep', 0.0, 676.3190837286811, 0.0, 0.0, 0.0, 0.0, -5543.634956316347, 0.0]
['beep', 0.0, 674.709758127899, 0.0, 0.0, 0.0, 0.0, -5544.976060983666, 0.0]
['beep', 0.0, 676.2296767508599, 0.0, 0.0, 0.0, 0.0, -5548.731154052157, 0.0]
['beep', 0.0, 677.1237465290722, 0.0, 0.0, 0.0, 0.0, -5549.647575574824, 0.0]
['beep', 0.0, 676.1626215174939, 0.0, 0.0, 0.0, 0.0, -5548.798209285523, 0.0]
['beep', 0.0, 675.9614558173962, 0.0, 0.0, 0.0, 0.0, -5547.412401129294, 0.0]
['beep', 0.0, 675.6708831394772, 0.0, 0.0, 0.0, 0.0, -5545.847779017423, 0.0]
['beep', 0.0, 677.4813744403571, 0.0, 0.0, 0.0, 0.0, -5550.519293608581, 0.0]
['beep', 0.0, 678.8895343410414, 0.0, 0.0, 0.0, 0.0, -5552.598005842925, 0.0]
['beep', 0.0, 676.453194195413, 0.0, 0.0, 0.0, 0.0, -5548.127656951864, 0.0]
['beep', 0.0, 676.0061593063068, 0.0, 0.0, 0.0, 0.0, -5546.071296461975, 0.0]
['beep', 0.0, 674.7544616168096, 0.0, 0.0, 0.0, 0.0, -5544.931357494755, 0.0]
['beep', 0.0, 676.9672843178851, 0.0, 0.0, 0.0, 0.0, -5550.206369186208, 0.0]
['beep', 0.0, 677.7272436293655, 0.0, 0.0, 0.0, 0.0, -5551.033383731054, 0.0]
['beep', 0.0, 676.2520284953151, 0.0, 0.0, 0.0, 0.0, -5551.972156998177, 0.0]
['beep', 0.0, 675.9838075618514, 0.0, 0.0, 0.0, 0.0, -5547.077124962464, 0.0]
['beep', 0.0, 676.1402697730387, 0.0, 0.0, 0.0, 0.0, -5548.060601718498, 0.0]
['beep', 0.0, 677.0119878067957, 0.0, 0.0, 0.0, 0.0, -5553.33561340995, 0.0]
['beep', 0.0, 676.9002290845191, 0.0, 0.0, 0.0, 0.0, -5551.726287809168, 0.0]
['beep', 0.0, 676.2296767508599, 0.0, 0.0, 0.0, 0.0, -5550.04990697502, 0.0]
['beep', 0.0, 675.4920691838347, 0.0, 0.0, 0.0, 0.0, -5550.184017441752, 0.0]
['beep', 0.0, 675.6261796505665, 0.0, 0.0, 0.0, 0.0, -5547.434752873749, 0.0]
['beep', 0.0, 676.3190837286811, 0.0, 0.0, 0.0, 0.0, -5548.328822651962, 0.0]
['beep', 0.0, 677.4590226959018, 0.0, 0.0, 0.0, 0.0, -5550.38518314185, 0.0]
['beep', 0.0, 678.4424994519353, 0.0, 0.0, 0.0, 0.0, -5547.8594360184, 0.0]
['beep', 0.0, 676.2073250064045, 0.0, 0.0, 0.0, 0.0, -5548.172360440774, 0.0]
['beep', 0.0, 676.3414354731364, 0.0, 0.0, 0.0, 0.0, -5550.563997097493, 0.0]
['beep', 0.0, 676.676711639966, 0.0, 0.0, 0.0, 0.0, -5551.994508742632, 0.0]
['beep', 0.0, 676.7214151288766, 0.0, 0.0, 0.0, 0.0, -5553.805000043511, 0.0]
['beep', 0.0, 675.6261796505665, 0.0, 0.0, 0.0, 0.0, -5550.8098662865, 0.0]
['beep', 0.0, 674.7544616168096, 0.0, 0.0, 0.0, 0.0, -5546.071296461975, 0.0]
['beep', 0.0, 675.6261796505665, 0.0, 0.0, 0.0, 0.0, -5551.145142453331, 0.0]
['beep', 0.0, 677.3919674625358, 0.0, 0.0, 0.0, 0.0, -5553.983813999154, 0.0]
['beep', 0.0, 678.8671825965861, 0.0, 0.0, 0.0, 0.0, -5551.882750020355, 0.0]
['beep', 0.0, 677.1684500179828, 0.0, 0.0, 0.0, 0.0, -5547.725325551668, 0.0]
['beep', 0.0, 677.3919674625358, 0.0, 0.0, 0.0, 0.0, -5547.412401129294, 0.0]
['beep', 0.0, 678.5542581742118, 0.0, 0.0, 0.0, 0.0, -5549.804037786012, 0.0]
['beep', 0.0, 680.744729130832, 0.0, 0.0, 0.0, 0.0, -5551.078087219964, 0.0]
['beep', 0.0, 682.130537287061, 0.0, 0.0, 0.0, 0.0, -5550.899273264322, 0.0]
['beep', 0.0, 681.4376332089464, 0.0, 0.0, 0.0, 0.0, -5549.871093019377, 0.0]
['beep', 0.0, 678.710720385399, 0.0, 0.0, 0.0, 0.0, -5547.434752873749, 0.0]
['beep', 0.0, 678.7777756187648, 0.0, 0.0, 0.0, 0.0, -5547.4571046182045, 0.0]
['beep', 0.0, 677.6154849070889, 0.0, 0.0, 0.0, 0.0, -5549.5134651080925, 0.0]
['beep', 0.0, 678.3530924741141, 0.0, 0.0, 0.0, 0.0, -5554.117924465886, 0.0]
['beep', 0.0, 676.676711639966, 0.0, 0.0, 0.0, 0.0, -5552.307433165006, 0.0]
['beep', 0.0, 675.6932348839325, 0.0, 0.0, 0.0, 0.0, -5549.871093019377, 0.0]
['beep', 0.0, 675.7379383728431, 0.0, 0.0, 0.0, 0.0, -5549.446409874727, 0.0]
['beep', 0.0, 677.5707814181783, 0.0, 0.0, 0.0, 0.0, -5549.088781963442, 0.0]
['beep', 0.0, 678.9118860854967, 0.0, 0.0, 0.0, 0.0, -5552.95563375421, 0.0]
['beep', 0.0, 677.6601883959995, 0.0, 0.0, 0.0, 0.0, -5551.502770364616, 0.0]
['beep', 0.0, 677.0119878067957, 0.0, 0.0, 0.0, 0.0, -5546.920662751278, 0.0]
['beep', 0.0, 676.9672843178851, 0.0, 0.0, 0.0, 0.0, -5549.088781963442, 0.0]
['beep', 0.0, 679.6718453969771, 0.0, 0.0, 0.0, 0.0, -5553.4473721322265, 0.0]
['beep', 0.0, 681.3929297200358, 0.0, 0.0, 0.0, 0.0, -5554.274386677073, 0.0]
['beep', 0.0, 678.3307407296587, 0.0, 0.0, 0.0, 0.0, -5553.313261665495, 0.0]
['beep', 0.0, 676.8331738511532, 0.0, 0.0, 0.0, 0.0, -5547.077124962464, 0.0]
['beep', 0.0, 678.5766099186671, 0.0, 0.0, 0.0, 0.0, -5547.948842996221, 0.0]
['beep', 0.0, 679.51538318579, 0.0, 0.0, 0.0, 0.0, -5552.665061076291, 0.0]
['beep', 0.0, 678.643665152033, 0.0, 0.0, 0.0, 0.0, -5554.252034932618, 0.0]
['beep', 0.0, 677.5707814181783, 0.0, 0.0, 0.0, 0.0, -5553.112095965397, 0.0]
['beep', 0.0, 675.6932348839325, 0.0, 0.0, 0.0, 0.0, -5551.502770364616, 0.0]
['beep', 0.0, 675.6708831394772, 0.0, 0.0, 0.0, 0.0, -5551.033383731054, 0.0]
['beep', 0.0, 679.3365692301476, 0.0, 0.0, 0.0, 0.0, -5555.459029133204, 0.0]
['beep', 0.0, 679.7836041192537, 0.0, 0.0, 0.0, 0.0, -5558.118886723386, 0.0]
['beep', 0.0, 678.1966302629269, 0.0, 0.0, 0.0, 0.0, -5554.76612505509, 0.0]
['beep', 0.0, 675.804993606209, 0.0, 0.0, 0.0, 0.0, -5552.530950609559, 0.0]
['beep', 0.0, 677.4366709514464, 0.0, 0.0, 0.0, 0.0, -5552.486247120649, 0.0]
['beep', 0.0, 678.8448308521308, 0.0, 0.0, 0.0, 0.0, -5554.989642499643, 0.0]
['beep', 0.0, 679.0683482966839, 0.0, 0.0, 0.0, 0.0, -5554.05086923252, 0.0]
['beep', 0.0, 678.1742785184716, 0.0, 0.0, 0.0, 0.0, -5552.441543631738, 0.0]
['beep', 0.0, 677.4366709514464, 0.0, 0.0, 0.0, 0.0, -5550.9216250087775, 0.0]
['beep', 0.0, 676.2520284953151, 0.0, 0.0, 0.0, 0.0, -5551.413363386794, 0.0]
['beep', 0.0, 676.9896360623403, 0.0, 0.0, 0.0, 0.0, -5555.660194833302, 0.0]
['beep', 0.0, 679.1130517855945, 0.0, 0.0, 0.0, 0.0, -5560.0187850020875, 0.0]
['beep', 0.0, 679.6047901636113, 0.0, 0.0, 0.0, 0.0, -5554.453200632715, 0.0]
['beep', 0.0, 678.4201477074799, 0.0, 0.0, 0.0, 0.0, -5548.753505796612, 0.0]
['beep', 0.0, 678.5095546853012, 0.0, 0.0, 0.0, 0.0, -5551.033383731054, 0.0]
['beep', 0.0, 678.4424994519353, 0.0, 0.0, 0.0, 0.0, -5553.603834343414, 0.0]
['beep', 0.0, 677.1684500179828, 0.0, 0.0, 0.0, 0.0, -5551.726287809168, 0.0]
['beep', 0.0, 677.4366709514464, 0.0, 0.0, 0.0, 0.0, -5548.865264518889, 0.0]
['beep', 0.0, 676.4308424509576, 0.0, 0.0, 0.0, 0.0, -5547.658270318302, 0.0]
['beep', 0.0, 675.7602901172984, 0.0, 0.0, 0.0, 0.0, -5548.150008696319, 0.0]
['beep', 0.0, 677.1908017624381, 0.0, 0.0, 0.0, 0.0, -5552.598005842925, 0.0]
['beep', 0.0, 677.548429673723, 0.0, 0.0, 0.0, 0.0, -5553.872055276877, 0.0]
['beep', 0.0, 677.9060575850079, 0.0, 0.0, 0.0, 0.0, -5551.838046531445, 0.0]
['beep', 0.0, 675.4697174393795, 0.0, 0.0, 0.0, 0.0, -5550.698107564224, 0.0]
['beep', 0.0, 675.0450342947286, 0.0, 0.0, 0.0, 0.0, -5553.000337243121, 0.0]
