['beep', 0.0, -822.6559546775765, 0.0, 0.0, 0.0, 0.0, -7739.358572883436, 0.0]
['beep', 0.0, -819.9960970873949, 0.0, 0.0, 0.0, 0.0, -7750.512093366635, 0.0]
['beep', 0.0, -804.6851521355096, 0.0, 0.0, 0.0, 0.0, -7767.879398808408, 0.0]
['beep', 0.0, -802.3382189677023, 0.0, 0.0, 0.0, 0.0, -7767.208846474749, 0.0]
['beep', 0.0, -814.184643529015, 0.0, 0.0, 0.0, 0.0, -7747.472256120713, 0.0]
['beep', 0.0, -823.3265070112357, 0.0, 0.0, 0.0, 0.0, -7738.665668805322, 0.0]
['beep', 0.0, -818.3197162532468, 0.0, 0.0, 0.0, 0.0, -7750.221520688716, 0.0]
['beep', 0.0, -803.8134341017526, 0.0, 0.0, 0.0, 0.0, -7768.102916252961, 0.0]
['beep', 0.0, -800.415968944546, 0.0, 0.0, 0.0, 0.0, -7766.940625541285, 0.0]
['beep', 0.0, -813.2458702618922, 0.0, 0.0, 0.0, 0.0, -7749.662727077333, 0.0]
['beep', 0.0, -823.7511901558864, 0.0, 0.0, 0.0, 0.0, -7741.9066717513415, 0.0]
['beep', 0.0, -817.6268121751324, 0.0, 0.0, 0.0, 0.0, -7754.4683521352235, 0.0]
['beep', 0.0, -803.3663992126465, 0.0, 0.0, 0.0, 0.0, -7769.77929708711, 0.0]
['beep', 0.0, -800.572431155733, 0.0, 0.0, 0.0, 0.0, -7768.281730208604, 0.0]
['beep', 0.0, -812.3070969947693, 0.0, 0.0, 0.0, 0.0, -7751.137942211383, 0.0]
['beep', 0.0, -822.2312715329256, 0.0, 0.0, 0.0, 0.0, -7740.118532194917, 0.0]
['beep', 0.0, -817.604460430677, 0.0, 0.0, 0.0, 0.0, -7752.948433512263, 0.0]
['beep', 0.0, -804.9086695800627, 0.0, 0.0, 0.0, 0.0, -7769.600483131467, 0.0]
['beep', 0.0, -804.0145998018503, 0.0, 0.0, 0.0, 0.0, -7768.952282542263, 0.0]
['beep', 0.0, -815.9951348298949, 0.0, 0.0, 0.0, 0.0, -7751.763791056132, 0.0]
['beep', 0.0, -825.3605157566686, 0.0, 0.0, 0.0, 0.0, -7739.917366494819, 0.0]
['beep', 0.0, -821.4042569880793, 0.0, 0.0, 0.0, 0.0, -7751.67438407831, 0.0]
['beep', 0.0, -808.4178934595459, 0.0, 0.0, 0.0, 0.0, -7771.276863965615, 0.0]
['beep', 0.0, -805.1321870246157, 0.0, 0.0, 0.0, 0.0, -7770.516904654134, 0.0]
['beep', 0.0, -816.5315766968223, 0.0, 0.0, 0.0, 0.0, -7751.58497710049, 0.0]
['beep', 0.0, -826.4333994905234, 0.0, 0.0, 0.0, 0.0, -7743.337183396481, 0.0]
['beep', 0.0, -824.1311698116267, 0.0, 0.0, 0.0, 0.0, -7752.747267812165, 0.0]
['beep', 0.0, -809.2002045154816, 0.0, 0.0, 0.0, 0.0, -7770.069869765029, 0.0]
['beep', 0.0, -801.8911840785962, 0.0, 0.0, 0.0, 0.0, -7770.338090698492, 0.0]
['beep', 0.0, -813.7599603843643, 0.0, 0.0, 0.0, 0.0, -7752.635509089889, 0.0]
['beep', 0.0, -825.5840332012217, 0.0, 0.0, 0.0, 0.0, -7742.353706640448, 0.0]
['beep', 0.0, -820.443131976501, 0.0, 0.0, 0.0, 0.0, -7753.775448057109, 0.0]
['beep', 0.0, -806.0933120361939, 0.0, 0.0, 0.0, 0.0, -7771.343919198981, 0.0]
['beep', 0.0, -802.3605707121576, 0.0, 0.0, 0.0, 0.0, -7771.0756982655175, 0.0]
['beep', 0.0, -815.4586929629676, 0.0, 0.0, 0.0, 0.0, -7752.00966024514, 0.0]
['beep', 0.0, -827.282765779825, 0.0, 0.0, 0.0, 0.0, -7741.616099073422, 0.0]
['beep', 0.0, -823.6841349225206, 0.0, 0.0, 0.0, 0.0, -7754.736573068688, 0.0]
['beep', 0.0, -810.2954399937917, 0.0, 0.0, 0.0, 0.0, -7771.969768043729, 0.0]
['beep', 0.0, -805.4674631914453, 0.0, 0.0, 0.0, 0.0, -7772.506209910657, 0.0]
['beep', 0.0, -817.5150534528558, 0.0, 0.0, 0.0, 0.0, -7752.099067222962, 0.0]
['beep', 0.0, -827.6850971800205, 0.0, 0.0, 0.0, 0.0, -7741.929023495797, 0.0]
['beep', 0.0, -823.7735419003418, 0.0, 0.0, 0.0, 0.0, -7752.7696195566205, 0.0]
['beep', 0.0, -811.1671580275486, 0.0, 0.0, 0.0, 0.0, -7771.053346521062, 0.0]
['beep', 0.0, -807.6132306591547, 0.0, 0.0, 0.0, 0.0, -7771.67919536581, 0.0]
['beep', 0.0, -818.4985302088893, 0.0, 0.0, 0.0, 0.0, -7753.373116656914, 0.0]
['beep', 0.0, -830.054382092283, 0.0, 0.0, 0.0, 0.0, -7743.404238629847, 0.0]
['beep', 0.0, -825.606384945677, 0.0, 0.0, 0.0, 0.0, -7753.887206779386, 0.0]
['beep', 0.0, -811.5247859388335, 0.0, 0.0, 0.0, 0.0, -7771.388622687891, 0.0]
['beep', 0.0, -805.7133323804537, 0.0, 0.0, 0.0, 0.0, -7771.992119788185, 0.0]
['beep', 0.0, -817.0009633303838, 0.0, 0.0, 0.0, 0.0, -7753.641337590378, 0.0]
['beep', 0.0, -827.863911135663, 0.0, 0.0, 0.0, 0.0, -7740.453808361746, 0.0]
['beep', 0.0, -822.5218442108446, 0.0, 0.0, 0.0, 0.0, -7752.791971301076, 0.0]
['beep', 0.0, -810.2060330159704, 0.0, 0.0, 0.0, 0.0, -7770.7851255875985, 0.0]
['beep', 0.0, -805.8250911027302, 0.0, 0.0, 0.0, 0.0, -7769.175799986816, 0.0]
['beep', 0.0, -815.4810447074228, 0.0, 0.0, 0.0, 0.0, -7751.920253267319, 0.0]
['beep', 0.0, -827.5286349688333, 0.0, 0.0, 0.0, 0.0, -7742.48781710718, 0.0]
['beep', 0.0, -821.1136843101602, 0.0, 0.0, 0.0, 0.0, -7753.507227123646, 0.0]
['beep', 0.0, -807.5908789146995, 0.0, 0.0, 0.0, 0.0, -7770.114573253939, 0.0]
['beep', 0.0, -804.34987596868, 0.0, 0.0, 0.0, 0.0, -7773.288520966593, 0.0]
['beep', 0.0, -813.5364429398112, 0.0, 0.0, 0.0, 0.0, -7753.775448057109, 0.0]
['beep', 0.0, -822.5665476997552, 0.0, 0.0, 0.0, 0.0, -7742.577224085001, 0.0]
['beep', 0.0, -821.8512918771854, 0.0, 0.0, 0.0, 0.0, -7754.580110857501, 0.0]
['beep', 0.0, -807.3226579812358, 0.0, 0.0, 0.0, 0.0, -7772.237988977193, 0.0]
['beep', 0.0, -802.5617364122554, 0.0, 0.0, 0.0, 0.0, -7770.673366865321, 0.0]
['beep', 0.0, -813.8493673621855, 0.0, 0.0, 0.0, 0.0, -7753.730744568199, 0.0]
['beep', 0.0, -826.2545855348809, 0.0, 0.0, 0.0, 0.0, -7744.633584574889, 0.0]
['beep', 0.0, -821.5160157103558, 0.0, 0.0, 0.0, 0.0, -7756.032974247096, 0.0]
['beep', 0.0, -805.1321870246157, 0.0, 0.0, 0.0, 0.0, -7772.662672121844, 0.0]
['beep', 0.0, -801.5782596562219, 0.0, 0.0, 0.0, 0.0, -7772.282692466104, 0.0]
['beep', 0.0, -813.1341115396157, 0.0, 0.0, 0.0, 0.0, -7756.971747514218, 0.0]
['beep', 0.0, -823.9300041115289, 0.0, 0.0, 0.0, 0.0, -7746.757000298143, 0.0]
['beep', 0.0, -819.1243790536379, 0.0, 0.0, 0.0, 0.0, -7756.3458986694695, 0.0]
['beep', 0.0, -805.5792219137219, 0.0, 0.0, 0.0, 0.0, -7772.617968632933, 0.0]
['beep', 0.0, -802.5617364122554, 0.0, 0.0, 0.0, 0.0, -7773.9590733002515, 0.0]
['beep', 0.0, -813.4917394509006, 0.0, 0.0, 0.0, 0.0, -7757.597596358967, 0.0]
['beep', 0.0, -824.1535215560821, 0.0, 0.0, 0.0, 0.0, -7745.728820053198, 0.0]
['beep', 0.0, -821.2477947768921, 0.0, 0.0, 0.0, 0.0, -7757.619948103422, 0.0]
['beep', 0.0, -806.8532713476743, 0.0, 0.0, 0.0, 0.0, -7776.104840767961, 0.0]
['beep', 0.0, -803.7240271239314, 0.0, 0.0, 0.0, 0.0, -7776.7753931016205, 0.0]
['beep', 0.0, -815.5928034296994, 0.0, 0.0, 0.0, 0.0, -7757.530541125601, 0.0]
['beep', 0.0, -826.1428268126043, 0.0, 0.0, 0.0, 0.0, -7747.159331698339, 0.0]
['beep', 0.0, -823.795893644797, 0.0, 0.0, 0.0, 0.0, -7757.329375425503, 0.0]
['beep', 0.0, -810.7201231384424, 0.0, 0.0, 0.0, 0.0, -7774.607273889455, 0.0]
['beep', 0.0, -807.0767887922274, 0.0, 0.0, 0.0, 0.0, -7775.344881456481, 0.0]
['beep', 0.0, -817.5150534528558, 0.0, 0.0, 0.0, 0.0, -7758.089334736984, 0.0]
['beep', 0.0, -826.2992890237915, 0.0, 0.0, 0.0, 0.0, -7747.092276464972, 0.0]
['beep', 0.0, -821.4042569880793, 0.0, 0.0, 0.0, 0.0, -7758.379907414903, 0.0]
['beep', 0.0, -808.3508382261799, 0.0, 0.0, 0.0, 0.0, -7776.753041357165, 0.0]
['beep', 0.0, -803.5675649127442, 0.0, 0.0, 0.0, 0.0, -7776.574227401523, 0.0]
['beep', 0.0, -814.0728848067386, 0.0, 0.0, 0.0, 0.0, -7761.375041171914, 0.0]
['beep', 0.0, -824.0641145782608, 0.0, 0.0, 0.0, 0.0, -7748.165160198827, 0.0]
['beep', 0.0, -822.1418645551043, 0.0, 0.0, 0.0, 0.0, -7757.217616703227, 0.0]
['beep', 0.0, -807.7249893814313, 0.0, 0.0, 0.0, 0.0, -7775.881323323408, 0.0]
['beep', 0.0, -804.1487102685822, 0.0, 0.0, 0.0, 0.0, -7776.9542070572625, 0.0]
['beep', 0.0, -816.3527627411798, 0.0, 0.0, 0.0, 0.0, -7757.575244614512, 0.0]
['beep', 0.0, -826.4557512349786, 0.0, 0.0, 0.0, 0.0, -7749.506264866146, 0.0]
['beep', 0.0, -820.800759887786, 0.0, 0.0, 0.0, 0.0, -7761.151523727361, 0.0]
['beep', 0.0, -806.9203265810403, 0.0, 0.0, 0.0, 0.0, -7777.133021012905, 0.0]
['beep', 0.0, -802.4499776899788, 0.0, 0.0, 0.0, 0.0, -7779.859933836453, 0.0]
['beep', 0.0, -814.2964022512916, 0.0, 0.0, 0.0, 0.0, -7761.889131294386, 0.0]
['beep', 0.0, -825.7181436679535, 0.0, 0.0, 0.0, 0.0, -7749.908596266341, 0.0]
['beep', 0.0, -821.5830709437217, 0.0, 0.0, 0.0, 0.0, -7760.346860926969, 0.0]
['beep', 0.0, -806.4956434363894, 0.0, 0.0, 0.0, 0.0, -7776.842448334986, 0.0]
['beep', 0.0, -803.6346201461101, 0.0, 0.0, 0.0, 0.0, -7778.429422191313, 0.0]
['beep', 0.0, -815.1681202850485, 0.0, 0.0, 0.0, 0.0, -7760.838599304986, 0.0]
['beep', 0.0, -827.0368965908166, 0.0, 0.0, 0.0, 0.0, -7749.618023588422, 0.0]
['beep', 0.0, -822.6336029331211, 0.0, 0.0, 0.0, 0.0, -7760.324509182515, 0.0]
['beep', 0.0, -808.1720242705375, 0.0, 0.0, 0.0, 0.0, -7776.507172168157, 0.0]
['beep', 0.0, -804.6851521355096, 0.0, 0.0, 0.0, 0.0, -7776.373061701425, 0.0]
['beep', 0.0, -815.8610243631631, 0.0, 0.0, 0.0, 0.0, -7760.525674882612, 0.0]
['beep', 0.0, -826.2769372793362, 0.0, 0.0, 0.0, 0.0, -7749.215692188227, 0.0]
['beep', 0.0, -821.3372017547133, 0.0, 0.0, 0.0, 0.0, -7760.2798056936035, 0.0]
['beep', 0.0, -806.6744573920319, 0.0, 0.0, 0.0, 0.0, -7778.049442535573, 0.0]
['beep', 0.0, -801.7794253563196, 0.0, 0.0, 0.0, 0.0, -7778.697643124777, 0.0]
['beep', 0.0, -813.3129254952581, 0.0, 0.0, 0.0, 0.0, -7762.358517927947, 0.0]
['beep', 0.0, -825.1593500565708, 0.0, 0.0, 0.0, 0.0, -7754.378945157403, 0.0]
['beep', 0.0, -821.4489604769899, 0.0, 0.0, 0.0, 0.0, -7762.984366772696, 0.0]
['beep', 0.0, -808.0379138038056, 0.0, 0.0, 0.0, 0.0, -7779.1223262694275, 0.0]
['beep', 0.0, -803.9251928240291, 0.0, 0.0, 0.0, 0.0, -7778.116497768939, 0.0]
['beep', 0.0, -813.9387743400067, 0.0, 0.0, 0.0, 0.0, -7760.793895816076, 0.0]
['beep', 0.0, -822.2759750218362, 0.0, 0.0, 0.0, 0.0, -7748.522788110112, 0.0]
['beep', 0.0, -818.0961988086938, 0.0, 0.0, 0.0, 0.0, -7759.363384170936, 0.0]
['beep', 0.0, -804.1710620130375, 0.0, 0.0, 0.0, 0.0, -7777.870628579931, 0.0]
['beep', 0.0, -799.9912857998951, 0.0, 0.0, 0.0, 0.0, -7779.949340814274, 0.0]
['beep', 0.0, -810.4071987160681, 0.0, 0.0, 0.0, 0.0, -7764.01254701764, 0.0]
['beep', 0.0, -820.800759887786, 0.0, 0.0, 0.0, 0.0, -7748.925119510308, 0.0]
['beep', 0.0, -818.0961988086938, 0.0, 0.0, 0.0, 0.0, -7758.335203925992, 0.0]
['beep', 0.0, -806.2050707584705, 0.0, 0.0, 0.0, 0.0, -7776.618930890433, 0.0]
['beep', 0.0, -802.5170329233448, 0.0, 0.0, 0.0, 0.0, -7777.937683813297, 0.0]
['beep', 0.0, -812.1953382724928, 0.0, 0.0, 0.0, 0.0, -7764.057250506551, 0.0]
['beep', 0.0, -824.1535215560821, 0.0, 0.0, 0.0, 0.0, -7750.8920730223745, 0.0]
['beep', 0.0, -819.1914342870039, 0.0, 0.0, 0.0, 0.0, -7760.01158476014, 0.0]
['beep', 0.0, -806.2050707584705, 0.0, 0.0, 0.0, 0.0, -7778.496477424679, 0.0]
['beep', 0.0, -802.6734951345319, 0.0, 0.0, 0.0, 0.0, -7776.149544256872, 0.0]
['beep', 0.0, -812.9329458395179, 0.0, 0.0, 0.0, 0.0, -7759.788067315587, 0.0]
['beep', 0.0, -825.6510884345876, 0.0, 0.0, 0.0, 0.0, -7747.986346243185, 0.0]
['beep', 0.0, -821.2254430324368, 0.0, 0.0, 0.0, 0.0, -7758.603424859456, 0.0]
['beep', 0.0, -807.993210314895, 0.0, 0.0, 0.0, 0.0, -7777.49064892419, 0.0]
['beep', 0.0, -802.9417160679956, 0.0, 0.0, 0.0, 0.0, -7778.272959980126, 0.0]
['beep', 0.0, -813.5811464287218, 0.0, 0.0, 0.0, 0.0, -7761.576206872011, 0.0]
['beep', 0.0, -824.8911291231071, 0.0, 0.0, 0.0, 0.0, -7749.349802654959, 0.0]
['beep', 0.0, -821.4936639659005, 0.0, 0.0, 0.0, 0.0, -7757.798762059065, 0.0]
['beep', 0.0, -807.5908789146995, 0.0, 0.0, 0.0, 0.0, -7775.970730301229, 0.0]
['beep', 0.0, -802.382922456613, 0.0, 0.0, 0.0, 0.0, -7779.8822855809085, 0.0]
['beep', 0.0, -814.4081609735681, 0.0, 0.0, 0.0, 0.0, -7762.559683628045, 0.0]
['beep', 0.0, -827.282765779825, 0.0, 0.0, 0.0, 0.0, -7749.260395677137, 0.0]
['beep', 0.0, -823.795893644797, 0.0, 0.0, 0.0, 0.0, -7757.798762059065, 0.0]
['beep', 0.0, -810.1166260381492, 0.0, 0.0, 0.0, 0.0, -7776.328358212514, 0.0]
['beep', 0.0, -803.6793236350208, 0.0, 0.0, 0.0, 0.0, -7779.390547202891, 0.0]
['beep', 0.0, -815.6151551741547, 0.0, 0.0, 0.0, 0.0, -7762.470276650224, 0.0]
['beep', 0.0, -827.3274692687356, 0.0, 0.0, 0.0, 0.0, -7749.282747421593, 0.0]
['beep', 0.0, -822.9241756110401, 0.0, 0.0, 0.0, 0.0, -7757.530541125601, 0.0]
['beep', 0.0, -809.0660940487497, 0.0, 0.0, 0.0, 0.0, -7776.373061701425, 0.0]
['beep', 0.0, -804.9086695800627, 0.0, 0.0, 0.0, 0.0, -7778.272959980126, 0.0]
['beep', 0.0, -815.7269138964313, 0.0, 0.0, 0.0, 0.0, -7762.738497583688, 0.0]
['beep', 0.0, -828.3332977692245, 0.0, 0.0, 0.0, 0.0, -7751.048535233562, 0.0]
['beep', 0.0, -825.8746058791406, 0.0, 0.0, 0.0, 0.0, -7759.653956848855, 0.0]
['beep', 0.0, -813.5811464287218, 0.0, 0.0, 0.0, 0.0, -7776.864800079442, 0.0]
['beep', 0.0, -808.4849486929118, 0.0, 0.0, 0.0, 0.0, -7779.703471625266, 0.0]
['beep', 0.0, -819.2137860314591, 0.0, 0.0, 0.0, 0.0, -7761.509151638646, 0.0]
['beep', 0.0, -830.7919896593082, 0.0, 0.0, 0.0, 0.0, -7750.109761966439, 0.0]
['beep', 0.0, -826.0534198347831, 0.0, 0.0, 0.0, 0.0, -7758.558721370545, 0.0]
['beep', 0.0, -813.0223528173391, 0.0, 0.0, 0.0, 0.0, -7775.6578058788555, 0.0]
['beep', 0.0, -808.5967074151883, 0.0, 0.0, 0.0, 0.0, -7777.177724501816, 0.0]
['beep', 0.0, -818.4538267199787, 0.0, 0.0, 0.0, 0.0, -7760.793895816076, 0.0]
['beep', 0.0, -829.1603123140708, 0.0, 0.0, 0.0, 0.0, -7748.746305554665, 0.0]
['beep', 0.0, -827.0816000797272, 0.0, 0.0, 0.0, 0.0, -7759.005756259651, 0.0]
['beep', 0.0, -814.1399400401044, 0.0, 0.0, 0.0, 0.0, -7777.311834968547, 0.0]
['beep', 0.0, -807.3673614701464, 0.0, 0.0, 0.0, 0.0, -7781.2904454815925, 0.0]
['beep', 0.0, -817.7832743863195, 0.0, 0.0, 0.0, 0.0, -7764.750154584665, 0.0]
['beep', 0.0, -830.635527448121, 0.0, 0.0, 0.0, 0.0, -7749.260395677137, 0.0]
['beep', 0.0, -827.3945245021015, 0.0, 0.0, 0.0, 0.0, -7758.53636962609, 0.0]
['beep', 0.0, -814.2964022512916, 0.0, 0.0, 0.0, 0.0, -7775.6578058788555, 0.0]
['beep', 0.0, -808.2390795039034, 0.0, 0.0, 0.0, 0.0, -7777.423593690824, 0.0]
['beep', 0.0, -819.1020273091826, 0.0, 0.0, 0.0, 0.0, -7761.44209640528, 0.0]
['beep', 0.0, -831.2390245484144, 0.0, 0.0, 0.0, 0.0, -7750.646203833367, 0.0]
['beep', 0.0, -828.3332977692245, 0.0, 0.0, 0.0, 0.0, -7758.402259159358, 0.0]
['beep', 0.0, -814.6316784181212, 0.0, 0.0, 0.0, 0.0, -7777.691814624288, 0.0]
['beep', 0.0, -809.5354806823112, 0.0, 0.0, 0.0, 0.0, -7779.971692558729, 0.0]
['beep', 0.0, -818.7220476534424, 0.0, 0.0, 0.0, 0.0, -7762.760849328143, 0.0]
['beep', 0.0, -830.3002512812915, 0.0, 0.0, 0.0, 0.0, -7751.204997444749, 0.0]
['beep', 0.0, -827.7298006689311, 0.0, 0.0, 0.0, 0.0, -7758.089334736984, 0.0]
['beep', 0.0, -814.3634574846575, 0.0, 0.0, 0.0, 0.0, -7775.1884192452935, 0.0]
['beep', 0.0, -809.6248876601325, 0.0, 0.0, 0.0, 0.0, -7778.87645708042, 0.0]
['beep', 0.0, -819.6831726650206, 0.0, 0.0, 0.0, 0.0, -7762.760849328143, 0.0]
['beep', 0.0, -830.4567134924786, 0.0, 0.0, 0.0, 0.0, -7749.9532997552515, 0.0]
['beep', 0.0, -825.1593500565708, 0.0, 0.0, 0.0, 0.0, -7759.005756259651, 0.0]
['beep', 0.0, -812.3518004836799, 0.0, 0.0, 0.0, 0.0, -7776.618930890433, 0.0]
['beep', 0.0, -807.993210314895, 0.0, 0.0, 0.0, 0.0, -7779.614064647444, 0.0]
['beep', 0.0, -818.7220476534424, 0.0, 0.0, 0.0, 0.0, -7762.850256305964, 0.0]
['beep', 0.0, -831.5966524596993, 0.0, 0.0, 0.0, 0.0, -7750.646203833367, 0.0]
['beep', 0.0, -830.2108443034703, 0.0, 0.0, 0.0, 0.0, -7759.6316051044, 0.0]
['beep', 0.0, -818.2079575309704, 0.0, 0.0, 0.0, 0.0, -7778.9435123137855, 0.0]
['beep', 0.0, -813.2682220063475, 0.0, 0.0, 0.0, 0.0, -7781.201038503771, 0.0]
['beep', 0.0, -823.6841349225206, 0.0, 0.0, 0.0, 0.0, -7763.364346428436, 0.0]
['beep', 0.0, -833.4294955050344, 0.0, 0.0, 0.0, 0.0, -7751.696735822766, 0.0]
['beep', 0.0, -830.0320303478278, 0.0, 0.0, 0.0, 0.0, -7761.263282449638, 0.0]
['beep', 0.0, -815.8163208742525, 0.0, 0.0, 0.0, 0.0, -7778.340015213492, 0.0]
['beep', 0.0, -809.6025359156771, 0.0, 0.0, 0.0, 0.0, -7780.843410592486, 0.0]
['beep', 0.0, -820.0855040652161, 0.0, 0.0, 0.0, 0.0, -7764.258416206649, 0.0]
['beep', 0.0, -830.121437325649, 0.0, 0.0, 0.0, 0.0, -7750.780314300098, 0.0]
['beep', 0.0, -827.215710546459, 0.0, 0.0, 0.0, 0.0, -7757.2846719365925, 0.0]
['beep', 0.0, -815.2351755184145, 0.0, 0.0, 0.0, 0.0, -7775.724861112221, 0.0]
['beep', 0.0, -809.1107975376603, 0.0, 0.0, 0.0, 0.0, -7779.479954180712, 0.0]
['beep', 0.0, -819.6831726650206, 0.0, 0.0, 0.0, 0.0, -7765.219541218226, 0.0]
['beep', 0.0, -833.0718675937495, 0.0, 0.0, 0.0, 0.0, -7752.255529434148, 0.0]
['beep', 0.0, -829.5849954587217, 0.0, 0.0, 0.0, 0.0, -7760.458619649246, 0.0]
['beep', 0.0, -815.7492656408865, 0.0, 0.0, 0.0, 0.0, -7778.988215802696, 0.0]
['beep', 0.0, -810.9659923274509, 0.0, 0.0, 0.0, 0.0, -7782.005701304162, 0.0]
['beep', 0.0, -821.6948296659982, 0.0, 0.0, 0.0, 0.0, -7763.386698172892, 0.0]
['beep', 0.0, -832.960108871473, 0.0, 0.0, 0.0, 0.0, -7751.808494545043, 0.0]
['beep', 0.0, -828.7579809138753, 0.0, 0.0, 0.0, 0.0, -7761.307985938548, 0.0]
['beep', 0.0, -817.2691842638475, 0.0, 0.0, 0.0, 0.0, -7776.73068961271, 0.0]
['beep', 0.0, -811.5024341943782, 0.0, 0.0, 0.0, 0.0, -7780.329320470014, 0.0]
['beep', 0.0, -820.1302075541267, 0.0, 0.0, 0.0, 0.0, -7767.208846474749, 0.0]
['beep', 0.0, -831.9095768820736, 0.0, 0.0, 0.0, 0.0, -7754.177779457305, 0.0]
['beep', 0.0, -829.83086464773, 0.0, 0.0, 0.0, 0.0, -7760.659785349344, 0.0]
['beep', 0.0, -815.8833761076183, 0.0, 0.0, 0.0, 0.0, -7779.010567547151, 0.0]
['beep', 0.0, -809.6248876601325, 0.0, 0.0, 0.0, 0.0, -7782.028053048618, 0.0]
['beep', 0.0, -819.3255447537357, 0.0, 0.0, 0.0, 0.0, -7764.996023773673, 0.0]
['beep', 0.0, -831.216672803959, 0.0, 0.0, 0.0, 0.0, -7753.1719509568165, 0.0]
['beep', 0.0, -827.7298006689311, 0.0, 0.0, 0.0, 0.0, -7760.503323138157, 0.0]
['beep', 0.0, -813.5811464287218, 0.0, 0.0, 0.0, 0.0, -7779.099974524972, 0.0]
['beep', 0.0, -810.8542336051743, 0.0, 0.0, 0.0, 0.0, -7782.475087937723, 0.0]
['beep', 0.0, -821.4713122214451, 0.0, 0.0, 0.0, 0.0, -7767.655881363855, 0.0]
['beep', 0.0, -831.8201699042523, 0.0, 0.0, 0.0, 0.0, -7753.641337590378, 0.0]
['beep', 0.0, -830.8366931482188, 0.0, 0.0, 0.0, 0.0, -7761.665613849833, 0.0]
['beep', 0.0, -816.1068935521715, 0.0, 0.0, 0.0, 0.0, -7778.8317535915085, 0.0]
['beep', 0.0, -809.5578324267665, 0.0, 0.0, 0.0, 0.0, -7781.581018159512, 0.0]
['beep', 0.0, -819.2361377759145, 0.0, 0.0, 0.0, 0.0, -7765.10778249595, 0.0]
['beep', 0.0, -831.4625419929674, 0.0, 0.0, 0.0, 0.0, -7751.316756167025, 0.0]
['beep', 0.0, -830.8813966371295, 0.0, 0.0, 0.0, 0.0, -7759.564549871034, 0.0]
['beep', 0.0, -817.2021290304815, 0.0, 0.0, 0.0, 0.0, -7779.569361158534, 0.0]
['beep', 0.0, -810.831881860719, 0.0, 0.0, 0.0, 0.0, -7781.715128626243, 0.0]
['beep', 0.0, -819.5937656871994, 0.0, 0.0, 0.0, 0.0, -7765.264244707138, 0.0]
['beep', 0.0, -830.9037483815847, 0.0, 0.0, 0.0, 0.0, -7751.495570122668, 0.0]
['beep', 0.0, -828.3109460247691, 0.0, 0.0, 0.0, 0.0, -7759.877474293408, 0.0]
['beep', 0.0, -814.9893063294061, 0.0, 0.0, 0.0, 0.0, -7778.384718702402, 0.0]
['beep', 0.0, -809.1331492821157, 0.0, 0.0, 0.0, 0.0, -7782.139811770894, 0.0]
['beep', 0.0, -817.4479982194899, 0.0, 0.0, 0.0, 0.0, -7763.520808639623, 0.0]
['beep', 0.0, -829.316774525258, 0.0, 0.0, 0.0, 0.0, -7749.9532997552515, 0.0]
['beep', 0.0, -827.282765779825, 0.0, 0.0, 0.0, 0.0, -7759.25162544866, 0.0]
['beep', 0.0, -813.5140911953558, 0.0, 0.0, 0.0, 0.0, -7776.753041357165, 0.0]
['beep', 0.0, -807.345009725691, 0.0, 0.0, 0.0, 0.0, -7780.73165187021, 0.0]
['beep', 0.0, -817.7609226418642, 0.0, 0.0, 0.0, 0.0, -7765.778334829609, 0.0]
['beep', 0.0, -830.6131757036658, 0.0, 0.0, 0.0, 0.0, -7752.72491606771, 0.0]
['beep', 0.0, -828.1097803246714, 0.0, 0.0, 0.0, 0.0, -7760.346860926969, 0.0]
['beep', 0.0, -815.0787133072273, 0.0, 0.0, 0.0, 0.0, -7779.7705268586315, 0.0]
['beep', 0.0, -807.2108992589592, 0.0, 0.0, 0.0, 0.0, -7781.648073392877, 0.0]
['beep', 0.0, -817.2244807749369, 0.0, 0.0, 0.0, 0.0, -7765.197189473772, 0.0]
['beep', 0.0, -829.0038501028837, 0.0, 0.0, 0.0, 0.0, -7752.188474200782, 0.0]
['beep', 0.0, -827.5509867132887, 0.0, 0.0, 0.0, 0.0, -7760.2798056936035, 0.0]
['beep', 0.0, -814.9669545849508, 0.0, 0.0, 0.0, 0.0, -7777.177724501816, 0.0]
['beep', 0.0, -808.3508382261799, 0.0, 0.0, 0.0, 0.0, -7779.8822855809085, 0.0]
['beep', 0.0, -818.3420679977022, 0.0, 0.0, 0.0, 0.0, -7764.370174928925, 0.0]
['beep', 0.0, -830.3449547702021, 0.0, 0.0, 0.0, 0.0, -7749.81918928852, 0.0]
['beep', 0.0, -806.4062364585682, 0.0, 0.0, 0.0, 0.0, -7771.835657576998, 0.0]
['beep', 0.0, -815.4810447074228, 0.0, 0.0, 0.0, 0.0, -7758.402259159358, 0.0]
['beep', 0.0, -828.7803326583306, 0.0, 0.0, 0.0, 0.0, -7744.588881085978, 0.0]
['beep', 0.0, -828.4227047470457, 0.0, 0.0, 0.0, 0.0, -7749.863892777431, 0.0]
['beep', 0.0, -814.6316784181212, 0.0, 0.0, 0.0, 0.0, -7767.25354996366, 0.0]
['beep', 0.0, -806.4285882030235, 0.0, 0.0, 0.0, 0.0, -7772.975596544218, 0.0]
['beep', 0.0, -814.4528644624787, 0.0, 0.0, 0.0, 0.0, -7757.664651592333, 0.0]
['beep', 0.0, -827.3051175242803, 0.0, 0.0, 0.0, 0.0, -7743.7842182855875, 0.0]
['beep', 0.0, -826.6792686795317, 0.0, 0.0, 0.0, 0.0, -7749.998003244163, 0.0]
['beep', 0.0, -814.3411057402022, 0.0, 0.0, 0.0, 0.0, -7767.991157530685, 0.0]
['beep', 0.0, -807.121492281138, 0.0, 0.0, 0.0, 0.0, -7774.607273889455, 0.0]
['beep', 0.0, -815.7716173853419, 0.0, 0.0, 0.0, 0.0, -7762.425573161313, 0.0]
['beep', 0.0, -826.8804343796295, 0.0, 0.0, 0.0, 0.0, -7746.801703787054, 0.0]
['beep', 0.0, -826.4557512349786, 0.0, 0.0, 0.0, 0.0, -7749.506264866146, 0.0]
['beep', 0.0, -813.2905737508028, 0.0, 0.0, 0.0, 0.0, -7766.046555763073, 0.0]
['beep', 0.0, -806.7638643698531, 0.0, 0.0, 0.0, 0.0, -7772.506209910657, 0.0]
['beep', 0.0, -815.7716173853419, 0.0, 0.0, 0.0, 0.0, -7757.999927759162, 0.0]
['beep', 0.0, -828.2662425358585, 0.0, 0.0, 0.0, 0.0, -7743.001907229652, 0.0]
['beep', 0.0, -828.3332977692245, 0.0, 0.0, 0.0, 0.0, -7749.372154399414, 0.0]
['beep', 0.0, -815.9727830854396, 0.0, 0.0, 0.0, 0.0, -7768.4381924197905, 0.0]
['beep', 0.0, -808.1943760149928, 0.0, 0.0, 0.0, 0.0, -7775.031957034106, 0.0]
['beep', 0.0, -816.4868732079117, 0.0, 0.0, 0.0, 0.0, -7759.721012082221, 0.0]
['beep', 0.0, -830.0320303478278, 0.0, 0.0, 0.0, 0.0, -7744.857102019442, 0.0]
['beep', 0.0, -830.3896582591127, 0.0, 0.0, 0.0, 0.0, -7751.8308462894975, 0.0]
['beep', 0.0, -817.4927017084005, 0.0, 0.0, 0.0, 0.0, -7769.980462787207, 0.0]
['beep', 0.0, -810.7871783718084, 0.0, 0.0, 0.0, 0.0, -7775.993082045685, 0.0]
['beep', 0.0, -817.604460430677, 0.0, 0.0, 0.0, 0.0, -7761.553855127556, 0.0]
['beep', 0.0, -829.8085129032747, 0.0, 0.0, 0.0, 0.0, -7747.427552631802, 0.0]
['beep', 0.0, -829.8085129032747, 0.0, 0.0, 0.0, 0.0, -7751.964956756229, 0.0]
['beep', 0.0, -816.9115563525626, 0.0, 0.0, 0.0, 0.0, -7770.628663376411, 0.0]
['beep', 0.0, -808.9990388153839, 0.0, 0.0, 0.0, 0.0, -7774.517866911634, 0.0]
['beep', 0.0, -819.0796755647273, 0.0, 0.0, 0.0, 0.0, -7759.832770804498, 0.0]
['beep', 0.0, -832.5801292157328, 0.0, 0.0, 0.0, 0.0, -7747.494607865168, 0.0]
['beep', 0.0, -829.7861611588194, 0.0, 0.0, 0.0, 0.0, -7753.887206779386, 0.0]
['beep', 0.0, -817.6938674084982, 0.0, 0.0, 0.0, 0.0, -7772.774430844121, 0.0]
['beep', 0.0, -810.5860126717106, 0.0, 0.0, 0.0, 0.0, -7779.323491969525, 0.0]
['beep', 0.0, -818.1409022976044, 0.0, 0.0, 0.0, 0.0, -7763.7443260841765, 0.0]
['beep', 0.0, -830.5014169813892, 0.0, 0.0, 0.0, 0.0, -7748.925119510308, 0.0]
['beep', 0.0, -830.6802309370316, 0.0, 0.0, 0.0, 0.0, -7752.546102112067, 0.0]
['beep', 0.0, -816.4198179745458, 0.0, 0.0, 0.0, 0.0, -7771.343919198981, 0.0]
['beep', 0.0, -810.0048673158726, 0.0, 0.0, 0.0, 0.0, -7779.792878603087, 0.0]
['beep', 0.0, -818.3867714866128, 0.0, 0.0, 0.0, 0.0, -7763.699622595266, 0.0]
['beep', 0.0, -830.0767338367384, 0.0, 0.0, 0.0, 0.0, -7749.43920963278, 0.0]
['beep', 0.0, -829.9202716255512, 0.0, 0.0, 0.0, 0.0, -7755.2283114467045, 0.0]
['beep', 0.0, -818.3867714866128, 0.0, 0.0, 0.0, 0.0, -7773.847314577975, 0.0]
['beep', 0.0, -809.2225562599369, 0.0, 0.0, 0.0, 0.0, -7780.754003614665, 0.0]
['beep', 0.0, -816.6656871635541, 0.0, 0.0, 0.0, 0.0, -7765.8006865740645, 0.0]
['beep', 0.0, -829.540291969811, 0.0, 0.0, 0.0, 0.0, -7751.741439311677, 0.0]
['beep', 0.0, -829.5626437142663, 0.0, 0.0, 0.0, 0.0, -7755.809456802543, 0.0]
['beep', 0.0, -817.5597569417664, 0.0, 0.0, 0.0, 0.0, -7772.528561655112, 0.0]
['beep', 0.0, -810.0719225492386, 0.0, 0.0, 0.0, 0.0, -7780.485782681201, 0.0]
['beep', 0.0, -818.0514953197832, 0.0, 0.0, 0.0, 0.0, -7766.672404607822, 0.0]
['beep', 0.0, -831.1943210595037, 0.0, 0.0, 0.0, 0.0, -7751.048535233562, 0.0]
['beep', 0.0, -831.4625419929674, 0.0, 0.0, 0.0, 0.0, -7757.150561469861, 0.0]
['beep', 0.0, -819.4149517315569, 0.0, 0.0, 0.0, 0.0, -7776.440116934791, 0.0]
['beep', 0.0, -811.3683237276464, 0.0, 0.0, 0.0, 0.0, -7782.92212282683, 0.0]
['beep', 0.0, -818.3420679977022, 0.0, 0.0, 0.0, 0.0, -7768.371137186425, 0.0]
['beep', 0.0, -831.2390245484144, 0.0, 0.0, 0.0, 0.0, -7752.076715478506, 0.0]
['beep', 0.0, -832.3566117711797, 0.0, 0.0, 0.0, 0.0, -7756.882340536397, 0.0]
['beep', 0.0, -818.1632540420597, 0.0, 0.0, 0.0, 0.0, -7776.596579145978, 0.0]
['beep', 0.0, -810.5860126717106, 0.0, 0.0, 0.0, 0.0, -7781.581018159512, 0.0]
['beep', 0.0, -818.0067918308725, 0.0, 0.0, 0.0, 0.0, -7766.985329030196, 0.0]
['beep', 0.0, -829.6073472031769, 0.0, 0.0, 0.0, 0.0, -7752.210825945238, 0.0]
['beep', 0.0, -828.7803326583306, 0.0, 0.0, 0.0, 0.0, -7758.178741714805, 0.0]
['beep', 0.0, -817.671515664043, 0.0, 0.0, 0.0, 0.0, -7775.233122734204, 0.0]
['beep', 0.0, -808.5520039262777, 0.0, 0.0, 0.0, 0.0, -7782.92212282683, 0.0]
['beep', 0.0, -817.1574255415709, 0.0, 0.0, 0.0, 0.0, -7768.9075790533525, 0.0]
['beep', 0.0, -829.9649751144618, 0.0, 0.0, 0.0, 0.0, -7755.25066319116, 0.0]
['beep', 0.0, -829.6744024365429, 0.0, 0.0, 0.0, 0.0, -7760.235102204693, 0.0]
['beep', 0.0, -818.476178464434, 0.0, 0.0, 0.0, 0.0, -7777.557704157556, 0.0]
['beep', 0.0, -810.1613295270598, 0.0, 0.0, 0.0, 0.0, -7784.620855405433, 0.0]
['beep', 0.0, -818.2079575309704, 0.0, 0.0, 0.0, 0.0, -7771.165105243338, 0.0]
['beep', 0.0, -831.283728037325, 0.0, 0.0, 0.0, 0.0, -7754.334241668492, 0.0]
['beep', 0.0, -829.6296989476323, 0.0, 0.0, 0.0, 0.0, -7758.826942304009, 0.0]
['beep', 0.0, -817.7832743863195, 0.0, 0.0, 0.0, 0.0, -7778.9435123137855, 0.0]
['beep', 0.0, -811.1895097720039, 0.0, 0.0, 0.0, 0.0, -7787.146602528883, 0.0]
['beep', 0.0, -817.604460430677, 0.0, 0.0, 0.0, 0.0, -7772.662672121844, 0.0]
['beep', 0.0, -830.7249344259423, 0.0, 0.0, 0.0, 0.0, -7755.787105058087, 0.0]
['beep', 0.0, -832.0660390932608, 0.0, 0.0, 0.0, 0.0, -7761.553855127556, 0.0]
['beep', 0.0, -818.4091232310681, 0.0, 0.0, 0.0, 0.0, -7779.390547202891, 0.0]
['beep', 0.0, -810.3401434827023, 0.0, 0.0, 0.0, 0.0, -7784.553800172067, 0.0]
['beep', 0.0, -818.3644197421575, 0.0, 0.0, 0.0, 0.0, -7770.092221509483, 0.0]
['beep', 0.0, -830.8366931482188, 0.0, 0.0, 0.0, 0.0, -7753.82015154602, 0.0]
['beep', 0.0, -830.6131757036658, 0.0, 0.0, 0.0, 0.0, -7760.72684058271, 0.0]
['beep', 0.0, -817.5597569417664, 0.0, 0.0, 0.0, 0.0, -7779.6364163919, 0.0]
['beep', 0.0, -809.4907771934006, 0.0, 0.0, 0.0, 0.0, -7785.917256583841, 0.0]
['beep', 0.0, -817.5150534528558, 0.0, 0.0, 0.0, 0.0, -7770.159276742849, 0.0]
['beep', 0.0, -830.2108443034703, 0.0, 0.0, 0.0, 0.0, -7754.267186435126, 0.0]
['beep', 0.0, -829.7191059254535, 0.0, 0.0, 0.0, 0.0, -7758.15638997035, 0.0]
['beep', 0.0, -816.8221493747413, 0.0, 0.0, 0.0, 0.0, -7777.267131479637, 0.0]
['beep', 0.0, -809.2449080043922, 0.0, 0.0, 0.0, 0.0, -7785.4031664613685, 0.0]
['beep', 0.0, -815.5480999407888, 0.0, 0.0, 0.0, 0.0, -7770.271035465126, 0.0]
['beep', 0.0, -827.5509867132887, 0.0, 0.0, 0.0, 0.0, -7755.205959702249, 0.0]
['beep', 0.0, -827.5509867132887, 0.0, 0.0, 0.0, 0.0, -7759.318680682026, 0.0]
['beep', 0.0, -814.3634574846575, 0.0, 0.0, 0.0, 0.0, -7778.697643124777, 0.0]
['beep', 0.0, -806.2944777362917, 0.0, 0.0, 0.0, 0.0, -7786.654864150866, 0.0]
['beep', 0.0, -813.6929051509983, 0.0, 0.0, 0.0, 0.0, -7771.790954088087, 0.0]
['beep', 0.0, -827.6180419466546, 0.0, 0.0, 0.0, 0.0, -7755.742401569177, 0.0]
['beep', 0.0, -828.8250361472412, 0.0, 0.0, 0.0, 0.0, -7761.553855127556, 0.0]
['beep', 0.0, -816.1963005299928, 0.0, 0.0, 0.0, 0.0, -7778.317663469036, 0.0]
['beep', 0.0, -807.3673614701464, 0.0, 0.0, 0.0, 0.0, -7784.307930983059, 0.0]
['beep', 0.0, -814.6987336514871, 0.0, 0.0, 0.0, 0.0, -7771.098050009972, 0.0]
['beep', 0.0, -827.6180419466546, 0.0, 0.0, 0.0, 0.0, -7756.703526580754, 0.0]
['beep', 0.0, -828.6015187026882, 0.0, 0.0, 0.0, 0.0, -7760.235102204693, 0.0]
['beep', 0.0, -816.1963005299928, 0.0, 0.0, 0.0, 0.0, -7778.384718702402, 0.0]
['beep', 0.0, -806.4285882030235, 0.0, 0.0, 0.0, 0.0, -7784.352634471969, 0.0]
['beep', 0.0, -814.5422714402999, 0.0, 0.0, 0.0, 0.0, -7770.382794187402, 0.0]
['beep', 0.0, -828.3109460247691, 0.0, 0.0, 0.0, 0.0, -7755.362421913436, 0.0]
['beep', 0.0, -828.8250361472412, 0.0, 0.0, 0.0, 0.0, -7759.229273704204, 0.0]
['beep', 0.0, -816.1739487855374, 0.0, 0.0, 0.0, 0.0, -7779.725823369721, 0.0]
['beep', 0.0, -807.3003062367804, 0.0, 0.0, 0.0, 0.0, -7785.090242038995, 0.0]
['beep', 0.0, -812.9776493284285, 0.0, 0.0, 0.0, 0.0, -7769.734593598198, 0.0]
['beep', 0.0, -826.6792686795317, 0.0, 0.0, 0.0, 0.0, -7753.48487537919, 0.0]
['beep', 0.0, -828.445056491501, 0.0, 0.0, 0.0, 0.0, -7758.491666137179, 0.0]
['beep', 0.0, -815.056361562772, 0.0, 0.0, 0.0, 0.0, -7778.9435123137855, 0.0]
['beep', 0.0, -805.3780562136241, 0.0, 0.0, 0.0, 0.0, -7786.498401939679, 0.0]
['beep', 0.0, -814.2964022512916, 0.0, 0.0, 0.0, 0.0, -7772.975596544218, 0.0]
['beep', 0.0, -826.8357308907189, 0.0, 0.0, 0.0, 0.0, -7756.9940992586735, 0.0]
['beep', 0.0, -827.6850971800205, 0.0, 0.0, 0.0, 0.0, -7759.497494637668, 0.0]
['beep', 0.0, -816.3304109967246, 0.0, 0.0, 0.0, 0.0, -7778.340015213492, 0.0]
['beep', 0.0, -807.4791201924229, 0.0, 0.0, 0.0, 0.0, -7786.945436828785, 0.0]
['beep', 0.0, -813.1788150285263, 0.0, 0.0, 0.0, 0.0, -7772.640320377389, 0.0]
['beep', 0.0, -827.0368965908166, 0.0, 0.0, 0.0, 0.0, -7754.781276557598, 0.0]
['beep', 0.0, -828.3109460247691, 0.0, 0.0, 0.0, 0.0, -7758.715183581732, 0.0]
['beep', 0.0, -816.4198179745458, 0.0, 0.0, 0.0, 0.0, -7778.094146024484, 0.0]
['beep', 0.0, -809.0213905598391, 0.0, 0.0, 0.0, 0.0, -7785.336111228003, 0.0]
['beep', 0.0, -817.6938674084982, 0.0, 0.0, 0.0, 0.0, -7771.813305832542, 0.0]
['beep', 0.0, -829.6073472031769, 0.0, 0.0, 0.0, 0.0, -7755.742401569177, 0.0]
['beep', 0.0, -829.7191059254535, 0.0, 0.0, 0.0, 0.0, -7760.123343482416, 0.0]
['beep', 0.0, -818.4091232310681, 0.0, 0.0, 0.0, 0.0, -7777.200076246271, 0.0]
['beep', 0.0, -809.4013702155794, 0.0, 0.0, 0.0, 0.0, -7786.029015306118, 0.0]
['beep', 0.0, -814.7210853959424, 0.0, 0.0, 0.0, 0.0, -7772.819134333031, 0.0]
['beep', 0.0, -828.154483813582, 0.0, 0.0, 0.0, 0.0, -7756.547064369567, 0.0]
['beep', 0.0, -829.7414576699088, 0.0, 0.0, 0.0, 0.0, -7759.788067315587, 0.0]
['beep', 0.0, -817.4479982194899, 0.0, 0.0, 0.0, 0.0, -7777.982387302207, 0.0]
['beep', 0.0, -809.6919428934983, 0.0, 0.0, 0.0, 0.0, -7786.610160661956, 0.0]
['beep', 0.0, -817.7609226418642, 0.0, 0.0, 0.0, 0.0, -7774.54021865609, 0.0]
['beep', 0.0, -829.6296989476323, 0.0, 0.0, 0.0, 0.0, -7757.217616703227, 0.0]
['beep', 0.0, -829.6744024365429, 0.0, 0.0, 0.0, 0.0, -7758.849294048464, 0.0]
['beep', 0.0, -817.2915360083027, 0.0, 0.0, 0.0, 0.0, -7777.49064892419, 0.0]
['beep', 0.0, -806.8979748365849, 0.0, 0.0, 0.0, 0.0, -7785.961960072752, 0.0]
['beep', 0.0, -813.8717191066407, 0.0, 0.0, 0.0, 0.0, -7772.126230254917, 0.0]
['beep', 0.0, -830.7472861703976, 0.0, 0.0, 0.0, 0.0, -7756.01062250264, 0.0]
['beep', 0.0, -836.6034432176881, 0.0, 0.0, 0.0, 0.0, -7761.643262105377, 0.0]
['beep', 0.0, -824.0194110893502, 0.0, 0.0, 0.0, 0.0, -7780.105803025461, 0.0]
['beep', 0.0, -813.6258499176324, 0.0, 0.0, 0.0, 0.0, -7788.621817662933, 0.0]
['beep', 0.0, -819.5043587093782, 0.0, 0.0, 0.0, 0.0, -7773.9590733002515, 0.0]
['beep', 0.0, -832.8483501491964, 0.0, 0.0, 0.0, 0.0, -7756.547064369567, 0.0]
['beep', 0.0, -833.6530129495875, 0.0, 0.0, 0.0, 0.0, -7760.793895816076, 0.0]
['beep', 0.0, -821.5160157103558, 0.0, 0.0, 0.0, 0.0, -7780.262265236648, 0.0]
['beep', 0.0, -812.0165243168502, 0.0, 0.0, 0.0, 0.0, -7790.477012452724, 0.0]
['beep', 0.0, -819.8619866206631, 0.0, 0.0, 0.0, 0.0, -7776.976558801718, 0.0]
['beep', 0.0, -834.5694344722551, 0.0, 0.0, 0.0, 0.0, -7759.743363826677, 0.0]
['beep', 0.0, -835.9552426284841, 0.0, 0.0, 0.0, 0.0, -7762.336166183492, 0.0]
['beep', 0.0, -822.0301058328279, 0.0, 0.0, 0.0, 0.0, -7779.7705268586315, 0.0]
['beep', 0.0, -811.1448062830933, 0.0, 0.0, 0.0, 0.0, -7788.197134518282, 0.0]
['beep', 0.0, -818.6549924200765, 0.0, 0.0, 0.0, 0.0, -7777.513000668646, 0.0]
['beep', 0.0, -832.8036466602858, 0.0, 0.0, 0.0, 0.0, -7762.850256305964, 0.0]
['beep', 0.0, -834.3906205166127, 0.0, 0.0, 0.0, 0.0, -7761.956186527752, 0.0]
['beep', 0.0, -822.0077540883725, 0.0, 0.0, 0.0, 0.0, -7778.988215802696, 0.0]
['beep', 0.0, -813.6929051509983, 0.0, 0.0, 0.0, 0.0, -7789.068852552039, 0.0]
['beep', 0.0, -820.3984284875904, 0.0, 0.0, 0.0, 0.0, -7775.367233200936, 0.0]
['beep', 0.0, -833.6977164384981, 0.0, 0.0, 0.0, 0.0, -7759.676308593311, 0.0]
['beep', 0.0, -834.7929519168082, 0.0, 0.0, 0.0, 0.0, -7763.29729119507, 0.0]
['beep', 0.0, -822.6112511886658, 0.0, 0.0, 0.0, 0.0, -7782.139811770894, 0.0]
['beep', 0.0, -812.3070969947693, 0.0, 0.0, 0.0, 0.0, -7791.169916530838, 0.0]
['beep', 0.0, -818.6996959089871, 0.0, 0.0, 0.0, 0.0, -7779.904637325363, 0.0]
['beep', 0.0, -831.797818159797, 0.0, 0.0, 0.0, 0.0, -7763.118477239428, 0.0]
['beep', 0.0, -833.6306612051322, 0.0, 0.0, 0.0, 0.0, -7764.414878417836, 0.0]
['beep', 0.0, -821.6277744326323, 0.0, 0.0, 0.0, 0.0, -7780.73165187021, 0.0]
['beep', 0.0, -811.8377103612078, 0.0, 0.0, 0.0, 0.0, -7791.639303164399, 0.0]
['beep', 0.0, -818.990268586906, 0.0, 0.0, 0.0, 0.0, -7778.0047390466625, 0.0]
['beep', 0.0, -831.9095768820736, 0.0, 0.0, 0.0, 0.0, -7761.129171982905, 0.0]
['beep', 0.0, -833.4965507384004, 0.0, 0.0, 0.0, 0.0, -7764.079602251006, 0.0]
['beep', 0.0, -819.8619866206631, 0.0, 0.0, 0.0, 0.0, -7781.513962926146, 0.0]
['beep', 0.0, -810.0048673158726, 0.0, 0.0, 0.0, 0.0, -7790.566419430545, 0.0]
['beep', 0.0, -817.7162191529536, 0.0, 0.0, 0.0, 0.0, -7777.378890201913, 0.0]
['beep', 0.0, -831.5295972263333, 0.0, 0.0, 0.0, 0.0, -7759.206921959749, 0.0]
['beep', 0.0, -834.0329926053278, 0.0, 0.0, 0.0, 0.0, -7761.777372572109, 0.0]
['beep', 0.0, -820.3090215097692, 0.0, 0.0, 0.0, 0.0, -7781.156335014861, 0.0]
['beep', 0.0, -807.3673614701464, 0.0, 0.0, 0.0, 0.0, -7787.705396140265, 0.0]
['beep', 0.0, -815.3916377296016, 0.0, 0.0, 0.0, 0.0, -7775.926026812319, 0.0]
['beep', 0.0, -829.7861611588194, 0.0, 0.0, 0.0, 0.0, -7759.1622184708385, 0.0]
['beep', 0.0, -833.0048123603837, 0.0, 0.0, 0.0, 0.0, -7761.620910360923, 0.0]
['beep', 0.0, -822.2759750218362, 0.0, 0.0, 0.0, 0.0, -7779.837582091997, 0.0]
['beep', 0.0, -812.5082626948671, 0.0, 0.0, 0.0, 0.0, -7788.2194862627375, 0.0]
['beep', 0.0, -818.5208819533447, 0.0, 0.0, 0.0, 0.0, -7776.864800079442, 0.0]
['beep', 0.0, -832.2448530489032, 0.0, 0.0, 0.0, 0.0, -7760.01158476014, 0.0]
['beep', 0.0, -834.0329926053278, 0.0, 0.0, 0.0, 0.0, -7761.9785382722075, 0.0]
['beep', 0.0, -821.6277744326323, 0.0, 0.0, 0.0, 0.0, -7781.357500714958, 0.0]
['beep', 0.0, -812.5082626948671, 0.0, 0.0, 0.0, 0.0, -7789.895867096886, 0.0]
['beep', 0.0, -819.7502278983865, 0.0, 0.0, 0.0, 0.0, -7776.976558801718, 0.0]
['beep', 0.0, -833.83182690523, 0.0, 0.0, 0.0, 0.0, -7759.944529526774, 0.0]
['beep', 0.0, -834.92706238354, 0.0, 0.0, 0.0, 0.0, -7761.173875471816, 0.0]
['beep', 0.0, -823.3712105001463, 0.0, 0.0, 0.0, 0.0, -7779.859933836453, 0.0]
['beep', 0.0, -812.5082626948671, 0.0, 0.0, 0.0, 0.0, -7789.359425229958, 0.0]
['beep', 0.0, -818.9232133535402, 0.0, 0.0, 0.0, 0.0, -7776.35070995697, 0.0]
['beep', 0.0, -832.3566117711797, 0.0, 0.0, 0.0, 0.0, -7758.268148692626, 0.0]
['beep', 0.0, -834.1447513276042, 0.0, 0.0, 0.0, 0.0, -7761.017413260629, 0.0]
['beep', 0.0, -821.4489604769899, 0.0, 0.0, 0.0, 0.0, -7779.792878603087, 0.0]
['beep', 0.0, -811.8600621056631, 0.0, 0.0, 0.0, 0.0, -7788.197134518282, 0.0]
['beep', 0.0, -818.4538267199787, 0.0, 0.0, 0.0, 0.0, -7775.1884192452935, 0.0]
['beep', 0.0, -831.1272658261378, 0.0, 0.0, 0.0, 0.0, -7756.278843436104, 0.0]
['beep', 0.0, -833.6530129495875, 0.0, 0.0, 0.0, 0.0, -7758.089334736984, 0.0]
['beep', 0.0, -823.1700448000485, 0.0, 0.0, 0.0, 0.0, -7776.082489023506, 0.0]
['beep', 0.0, -815.4586929629676, 0.0, 0.0, 0.0, 0.0, -7785.581980417011, 0.0]
['beep', 0.0, -820.5548906987776, 0.0, 0.0, 0.0, 0.0, -7773.400279688869, 0.0]
['beep', 0.0, -834.4353240055233, 0.0, 0.0, 0.0, 0.0, -7758.268148692626, 0.0]
['beep', 0.0, -837.0281263623389, 0.0, 0.0, 0.0, 0.0, -7761.375041171914, 0.0]
['beep', 0.0, -824.8464256341965, 0.0, 0.0, 0.0, 0.0, -7778.563532658045, 0.0]
['beep', 0.0, -815.4363412185122, 0.0, 0.0, 0.0, 0.0, -7787.727747884721, 0.0]
['beep', 0.0, -819.9513935984843, 0.0, 0.0, 0.0, 0.0, -7775.702509367766, 0.0]
['beep', 0.0, -833.7647716718641, 0.0, 0.0, 0.0, 0.0, -7760.324509182515, 0.0]
['beep', 0.0, -836.4469810065009, 0.0, 0.0, 0.0, 0.0, -7763.073773750517, 0.0]
['beep', 0.0, -825.6510884345876, 0.0, 0.0, 0.0, 0.0, -7779.748175114176, 0.0]
['beep', 0.0, -815.1681202850485, 0.0, 0.0, 0.0, 0.0, -7788.644169407388, 0.0]
['beep', 0.0, -821.2477947768921, 0.0, 0.0, 0.0, 0.0, -7777.267131479637, 0.0]
['beep', 0.0, -835.1058763391825, 0.0, 0.0, 0.0, 0.0, -7759.318680682026, 0.0]
['beep', 0.0, -835.9999461173948, 0.0, 0.0, 0.0, 0.0, -7760.793895816076, 0.0]
['beep', 0.0, -824.1535215560821, 0.0, 0.0, 0.0, 0.0, -7778.0047390466625, 0.0]
['beep', 0.0, -815.9951348298949, 0.0, 0.0, 0.0, 0.0, -7786.54310542859, 0.0]
['beep', 0.0, -825.3381640122133, 0.0, 0.0, 0.0, 0.0, -7775.434288434302, 0.0]
['beep', 0.0, -841.4537717644897, 0.0, 0.0, 0.0, 0.0, -7758.938701026285, 0.0]
['beep', 0.0, -844.605367732688, 0.0, 0.0, 0.0, 0.0, -7761.129171982905, 0.0]
['beep', 0.0, -832.0660390932608, 0.0, 0.0, 0.0, 0.0, -7778.608236146955, 0.0]
['beep', 0.0, -819.9066901095737, 0.0, 0.0, 0.0, 0.0, -7787.504230440168, 0.0]
['beep', 0.0, -825.092294823205, 0.0, 0.0, 0.0, 0.0, -7774.651977378367, 0.0]
['beep', 0.0, -838.7045071964869, 0.0, 0.0, 0.0, 0.0, -7757.955224270252, 0.0]
['beep', 0.0, -840.4032397750902, 0.0, 0.0, 0.0, 0.0, -7760.72684058271, 0.0]
['beep', 0.0, -828.6909256805094, 0.0, 0.0, 0.0, 0.0, -7778.027090791117, 0.0]
['beep', 0.0, -818.9455650979954, 0.0, 0.0, 0.0, 0.0, -7787.9289135848185, 0.0]
['beep', 0.0, -824.4887977229116, 0.0, 0.0, 0.0, 0.0, -7775.970730301229, 0.0]
['beep', 0.0, -838.9727281299506, 0.0, 0.0, 0.0, 0.0, -7760.212750460238, 0.0]
['beep', 0.0, -841.476123508945, 0.0, 0.0, 0.0, 0.0, -7761.240930705182, 0.0]
['beep', 0.0, -829.6296989476323, 0.0, 0.0, 0.0, 0.0, -7779.055271036062, 0.0]
['beep', 0.0, -819.4820069649228, 0.0, 0.0, 0.0, 0.0, -7788.644169407388, 0.0]
['beep', 0.0, -825.2934605233027, 0.0, 0.0, 0.0, 0.0, -7775.6578058788555, 0.0]
['beep', 0.0, -837.6539752070875, 0.0, 0.0, 0.0, 0.0, -7759.3410324264805, 0.0]
['beep', 0.0, -841.3420130422131, 0.0, 0.0, 0.0, 0.0, -7759.721012082221, 0.0]
['beep', 0.0, -828.3109460247691, 0.0, 0.0, 0.0, 0.0, -7775.121364011928, 0.0]
['beep', 0.0, -818.0738470642385, 0.0, 0.0, 0.0, 0.0, -7787.034843806607, 0.0]
['beep', 0.0, -823.9076523670736, 0.0, 0.0, 0.0, 0.0, -7775.322529712025, 0.0]
['beep', 0.0, -837.8774926516405, 0.0, 0.0, 0.0, 0.0, -7757.530541125601, 0.0]
['beep', 0.0, -841.3420130422131, 0.0, 0.0, 0.0, 0.0, -7760.860951049442, 0.0]
['beep', 0.0, -828.9591466139731, 0.0, 0.0, 0.0, 0.0, -7779.167029758339, 0.0]
['beep', 0.0, -818.4985302088893, 0.0, 0.0, 0.0, 0.0, -7787.548933929078, 0.0]
['beep', 0.0, -823.572376200244, 0.0, 0.0, 0.0, 0.0, -7775.031957034106, 0.0]
['beep', 0.0, -837.4975129959004, 0.0, 0.0, 0.0, 0.0, -7758.379907414903, 0.0]
['beep', 0.0, -840.6938124530093, 0.0, 0.0, 0.0, 0.0, -7758.782238815098, 0.0]
['beep', 0.0, -829.6967541809981, 0.0, 0.0, 0.0, 0.0, -7776.01543379014, 0.0]
['beep', 0.0, -819.2808412648251, 0.0, 0.0, 0.0, 0.0, -7786.029015306118, 0.0]
['beep', 0.0, -823.1476930555932, 0.0, 0.0, 0.0, 0.0, -7776.3060064680585, 0.0]
['beep', 0.0, -835.441152506012, 0.0, 0.0, 0.0, 0.0, -7759.832770804498, 0.0]
['beep', 0.0, -839.6209287191544, 0.0, 0.0, 0.0, 0.0, -7759.229273704204, 0.0]
['beep', 0.0, -828.8473878916965, 0.0, 0.0, 0.0, 0.0, -7776.440116934791, 0.0]
['beep', 0.0, -818.6549924200765, 0.0, 0.0, 0.0, 0.0, -7787.593637417989, 0.0]
['beep', 0.0, -824.1758733005373, 0.0, 0.0, 0.0, 0.0, -7776.440116934791, 0.0]
['beep', 0.0, -838.637451963121, 0.0, 0.0, 0.0, 0.0, -7758.603424859456, 0.0]
['beep', 0.0, -842.1690275870595, 0.0, 0.0, 0.0, 0.0, -7760.369212671425, 0.0]
['beep', 0.0, -829.316774525258, 0.0, 0.0, 0.0, 0.0, -7777.334186713003, 0.0]
['beep', 0.0, -819.2361377759145, 0.0, 0.0, 0.0, 0.0, -7788.599465918478, 0.0]
['beep', 0.0, -823.9970593448949, 0.0, 0.0, 0.0, 0.0, -7777.513000668646, 0.0]
['beep', 0.0, -836.9163676400624, 0.0, 0.0, 0.0, 0.0, -7758.804590559554, 0.0]
['beep', 0.0, -840.4926467529115, 0.0, 0.0, 0.0, 0.0, -7759.721012082221, 0.0]
['beep', 0.0, -829.540291969811, 0.0, 0.0, 0.0, 0.0, -7777.222427990727, 0.0]
['beep', 0.0, -819.8619866206631, 0.0, 0.0, 0.0, 0.0, -7787.615989162445, 0.0]
['beep', 0.0, -825.4946262234005, 0.0, 0.0, 0.0, 0.0, -7776.887151823897, 0.0]
['beep', 0.0, -838.6598037075763, 0.0, 0.0, 0.0, 0.0, -7759.005756259651, 0.0]
['beep', 0.0, -840.5820537307327, 0.0, 0.0, 0.0, 0.0, -7759.564549871034, 0.0]
['beep', 0.0, -828.8250361472412, 0.0, 0.0, 0.0, 0.0, -7778.228256491216, 0.0]
['beep', 0.0, -819.3255447537357, 0.0, 0.0, 0.0, 0.0, -7789.471183952235, 0.0]
['beep', 0.0, -824.444094234001, 0.0, 0.0, 0.0, 0.0, -7776.887151823897, 0.0]
['beep', 0.0, -838.3245275407467, 0.0, 0.0, 0.0, 0.0, -7757.776410314609, 0.0]
['beep', 0.0, -840.894978153107, 0.0, 0.0, 0.0, 0.0, -7761.2185789607265, 0.0]
['beep', 0.0, -829.83086464773, 0.0, 0.0, 0.0, 0.0, -7778.027090791117, 0.0]
['beep', 0.0, -820.7560563988753, 0.0, 0.0, 0.0, 0.0, -7787.9289135848185, 0.0]
['beep', 0.0, -826.6345651906211, 0.0, 0.0, 0.0, 0.0, -7775.121364011928, 0.0]
['beep', 0.0, -840.0456118638053, 0.0, 0.0, 0.0, 0.0, -7758.178741714805, 0.0]
['beep', 0.0, -843.5771874877438, 0.0, 0.0, 0.0, 0.0, -7761.9785382722075, 0.0]
['beep', 0.0, -832.2448530489032, 0.0, 0.0, 0.0, 0.0, -7778.764698358143, 0.0]
['beep', 0.0, -822.7006581664871, 0.0, 0.0, 0.0, 0.0, -7786.878381595419, 0.0]
['beep', 0.0, -826.0534198347831, 0.0, 0.0, 0.0, 0.0, -7775.523695412123, 0.0]
['beep', 0.0, -838.637451963121, 0.0, 0.0, 0.0, 0.0, -7760.7491923271655, 0.0]
['beep', 0.0, -841.5208269978556, 0.0, 0.0, 0.0, 0.0, -7762.380869672403, 0.0]
['beep', 0.0, -829.6296989476323, 0.0, 0.0, 0.0, 0.0, -7779.658768136355, 0.0]
['beep', 0.0, -820.2419662764033, 0.0, 0.0, 0.0, 0.0, -7787.057195551061, 0.0]
['beep', 0.0, -825.4722744789451, 0.0, 0.0, 0.0, 0.0, -7776.529523912612, 0.0]
['beep', 0.0, -838.0116031183724, 0.0, 0.0, 0.0, 0.0, -7761.620910360923, 0.0]
['beep', 0.0, -842.0125653758723, 0.0, 0.0, 0.0, 0.0, -7761.531503383101, 0.0]
['beep', 0.0, -831.283728037325, 0.0, 0.0, 0.0, 0.0, -7777.155372757361, 0.0]
['beep', 0.0, -821.024277332339, 0.0, 0.0, 0.0, 0.0, -7788.644169407388, 0.0]
['beep', 0.0, -824.9805361009284, 0.0, 0.0, 0.0, 0.0, -7778.787050102598, 0.0]
['beep', 0.0, -838.860969407674, 0.0, 0.0, 0.0, 0.0, -7761.509151638646, 0.0]
['beep', 0.0, -842.5937107317103, 0.0, 0.0, 0.0, 0.0, -7760.77154407162, 0.0]
['beep', 0.0, -830.6802309370316, 0.0, 0.0, 0.0, 0.0, -7777.691814624288, 0.0]
['beep', 0.0, -820.443131976501, 0.0, 0.0, 0.0, 0.0, -7790.320550241537, 0.0]
['beep', 0.0, -826.2545855348809, 0.0, 0.0, 0.0, 0.0, -7779.323491969525, 0.0]
['beep', 0.0, -840.7385159419199, 0.0, 0.0, 0.0, 0.0, -7760.793895816076, 0.0]
['beep', 0.0, -844.538312499322, 0.0, 0.0, 0.0, 0.0, -7758.759887070643, 0.0]
['beep', 0.0, -833.3400885272132, 0.0, 0.0, 0.0, 0.0, -7776.820096590531, 0.0]
['beep', 0.0, -822.8347686332189, 0.0, 0.0, 0.0, 0.0, -7788.822983363031, 0.0]
['beep', 0.0, -826.0981233236937, 0.0, 0.0, 0.0, 0.0, -7778.25060823567, 0.0]
['beep', 0.0, -839.6656322080651, 0.0, 0.0, 0.0, 0.0, -7760.704488838254, 0.0]
['beep', 0.0, -842.861931665174, 0.0, 0.0, 0.0, 0.0, -7760.413916160335, 0.0]
['beep', 0.0, -830.6578791925764, 0.0, 0.0, 0.0, 0.0, -7778.8317535915085, 0.0]
['beep', 0.0, -819.1243790536379, 0.0, 0.0, 0.0, 0.0, -7787.34776822898, 0.0]
['beep', 0.0, -823.4829692224228, 0.0, 0.0, 0.0, 0.0, -7777.468297179735, 0.0]
['beep', 0.0, -837.4528095069898, 0.0, 0.0, 0.0, 0.0, -7759.117514981928, 0.0]
['beep', 0.0, -841.8337514202299, 0.0, 0.0, 0.0, 0.0, -7759.653956848855, 0.0]
['beep', 0.0, -831.5743007152439, 0.0, 0.0, 0.0, 0.0, -7778.317663469036, 0.0]
['beep', 0.0, -820.1749110430374, 0.0, 0.0, 0.0, 0.0, -7787.951265329274, 0.0]
['beep', 0.0, -823.1923965445038, 0.0, 0.0, 0.0, 0.0, -7777.647111135378, 0.0]
['beep', 0.0, -838.8386176632188, 0.0, 0.0, 0.0, 0.0, -7759.3410324264805, 0.0]
['beep', 0.0, -842.0125653758723, 0.0, 0.0, 0.0, 0.0, -7758.938701026285, 0.0]
['beep', 0.0, -830.7472861703976, 0.0, 0.0, 0.0, 0.0, -7776.641282634889, 0.0]
['beep', 0.0, -818.8561581201742, 0.0, 0.0, 0.0, 0.0, -7787.660692651355, 0.0]
['beep', 0.0, -823.9747076004396, 0.0, 0.0, 0.0, 0.0, -7778.474125680224, 0.0]
['beep', 0.0, -837.1622368290707, 0.0, 0.0, 0.0, 0.0, -7762.8055528170535, 0.0]
['beep', 0.0, -841.0961438532048, 0.0, 0.0, 0.0, 0.0, -7759.944529526774, 0.0]
['beep', 0.0, -829.3391262697132, 0.0, 0.0, 0.0, 0.0, -7775.881323323408, 0.0]
['beep', 0.0, -818.2750127643362, 0.0, 0.0, 0.0, 0.0, -7786.8113263620535, 0.0]
['beep', 0.0, -823.281803522325, 0.0, 0.0, 0.0, 0.0, -7778.541180913589, 0.0]
['beep', 0.0, -836.7822571733305, 0.0, 0.0, 0.0, 0.0, -7761.330337683004, 0.0]
['beep', 0.0, -839.9562048859841, 0.0, 0.0, 0.0, 0.0, -7759.25162544866, 0.0]
['beep', 0.0, -828.8250361472412, 0.0, 0.0, 0.0, 0.0, -7776.842448334986, 0.0]
['beep', 0.0, -817.8279778752301, 0.0, 0.0, 0.0, 0.0, -7789.627646163422, 0.0]
['beep', 0.0, -822.3653819996574, 0.0, 0.0, 0.0, 0.0, -7780.284616981104, 0.0]
['beep', 0.0, -834.3682687721573, 0.0, 0.0, 0.0, 0.0, -7760.838599304986, 0.0]
['beep', 0.0, -839.2185973189589, 0.0, 0.0, 0.0, 0.0, -7760.883302793897, 0.0]
['beep', 0.0, -828.8920913806071, 0.0, 0.0, 0.0, 0.0, -7778.094146024484, 0.0]
['beep', 0.0, -818.2303092754256, 0.0, 0.0, 0.0, 0.0, -7789.605294418967, 0.0]
['beep', 0.0, -822.6336029331211, 0.0, 0.0, 0.0, 0.0, -7779.323491969525, 0.0]
['beep', 0.0, -836.0222978618501, 0.0, 0.0, 0.0, 0.0, -7759.832770804498, 0.0]
['beep', 0.0, -840.3585362861796, 0.0, 0.0, 0.0, 0.0, -7761.933834783296, 0.0]
['beep', 0.0, -828.8250361472412, 0.0, 0.0, 0.0, 0.0, -7779.7705268586315, 0.0]
['beep', 0.0, -818.5655854422553, 0.0, 0.0, 0.0, 0.0, -7790.611122919456, 0.0]
['beep', 0.0, -823.9300041115289, 0.0, 0.0, 0.0, 0.0, -7778.518829169135, 0.0]
['beep', 0.0, -835.2399868059143, 0.0, 0.0, 0.0, 0.0, -7760.6821370938, 0.0]
['beep', 0.0, -837.0504781067942, 0.0, 0.0, 0.0, 0.0, -7760.972709771719, 0.0]
['beep', 0.0, -825.9193093680512, 0.0, 0.0, 0.0, 0.0, -7777.937683813297, 0.0]
['beep', 0.0, -814.8104923737636, 0.0, 0.0, 0.0, 0.0, -7787.481878695712, 0.0]
['beep', 0.0, -818.7220476534424, 0.0, 0.0, 0.0, 0.0, -7777.267131479637, 0.0]
['beep', 0.0, -830.6131757036658, 0.0, 0.0, 0.0, 0.0, -7760.838599304986, 0.0]
['beep', 0.0, -835.4635042504674, 0.0, 0.0, 0.0, 0.0, -7760.302157438059, 0.0]
['beep', 0.0, -825.8075506457748, 0.0, 0.0, 0.0, 0.0, -7777.758869857654, 0.0]
['beep', 0.0, -815.63750691861, 0.0, 0.0, 0.0, 0.0, -7790.052329308073, 0.0]
['beep', 0.0, -821.605422688177, 0.0, 0.0, 0.0, 0.0, -7778.988215802696, 0.0]
['beep', 0.0, -834.3906205166127, 0.0, 0.0, 0.0, 0.0, -7762.067945250028, 0.0]
['beep', 0.0, -837.9445478850065, 0.0, 0.0, 0.0, 0.0, -7760.458619649246, 0.0]
['beep', 0.0, -826.8133791462635, 0.0, 0.0, 0.0, 0.0, -7775.434288434302, 0.0]
['beep', 0.0, -814.4752162069341, 0.0, 0.0, 0.0, 0.0, -7788.443003707291, 0.0]
['beep', 0.0, -818.4314749755234, 0.0, 0.0, 0.0, 0.0, -7780.575189659023, 0.0]
['beep', 0.0, -832.0660390932608, 0.0, 0.0, 0.0, 0.0, -7761.397392916369, 0.0]
['beep', 0.0, -836.1117048396713, 0.0, 0.0, 0.0, 0.0, -7759.944529526774, 0.0]
['beep', 0.0, -825.8746058791406, 0.0, 0.0, 0.0, 0.0, -7776.373061701425, 0.0]
['beep', 0.0, -814.6540301625765, 0.0, 0.0, 0.0, 0.0, -7788.73357638521, 0.0]
['beep', 0.0, -817.7609226418642, 0.0, 0.0, 0.0, 0.0, -7779.569361158534, 0.0]
['beep', 0.0, -832.3119082822691, 0.0, 0.0, 0.0, 0.0, -7762.783201072598, 0.0]
['beep', 0.0, -837.2516438068919, 0.0, 0.0, 0.0, 0.0, -7762.246759205671, 0.0]
['beep', 0.0, -825.2040535454814, 0.0, 0.0, 0.0, 0.0, -7781.066928037039, 0.0]
['beep', 0.0, -815.2128237739591, 0.0, 0.0, 0.0, 0.0, -7791.102861297472, 0.0]
['beep', 0.0, -818.4985302088893, 0.0, 0.0, 0.0, 0.0, -7780.329320470014, 0.0]
['beep', 0.0, -832.1330943266266, 0.0, 0.0, 0.0, 0.0, -7762.269110950127, 0.0]
['beep', 0.0, -837.3634025291685, 0.0, 0.0, 0.0, 0.0, -7760.346860926969, 0.0]
['beep', 0.0, -826.7686756573529, 0.0, 0.0, 0.0, 0.0, -7776.887151823897, 0.0]
['beep', 0.0, -815.3245824962357, 0.0, 0.0, 0.0, 0.0, -7788.890038596397, 0.0]
['beep', 0.0, -818.766751142353, 0.0, 0.0, 0.0, 0.0, -7779.256436736159, 0.0]
['beep', 0.0, -831.283728037325, 0.0, 0.0, 0.0, 0.0, -7761.889131294386, 0.0]
['beep', 0.0, -836.5810914732327, 0.0, 0.0, 0.0, 0.0, -7761.799724316565, 0.0]
['beep', 0.0, -826.5898617017104, 0.0, 0.0, 0.0, 0.0, -7777.222427990727, 0.0]
['beep', 0.0, -815.928079596529, 0.0, 0.0, 0.0, 0.0, -7790.007625819162, 0.0]
['beep', 0.0, -820.9125186100625, 0.0, 0.0, 0.0, 0.0, -7780.463430936746, 0.0]
['beep', 0.0, -832.6024809601881, 0.0, 0.0, 0.0, 0.0, -7762.067945250028, 0.0]
['beep', 0.0, -837.542216484811, 0.0, 0.0, 0.0, 0.0, -7761.755020827654, 0.0]
['beep', 0.0, -828.9144431250625, 0.0, 0.0, 0.0, 0.0, -7777.8929803243855, 0.0]
['beep', 0.0, -816.285707507814, 0.0, 0.0, 0.0, 0.0, -7788.6888728962995, 0.0]
['beep', 0.0, -820.4878354654116, 0.0, 0.0, 0.0, 0.0, -7780.441079192291, 0.0]
['beep', 0.0, -833.2283298049367, 0.0, 0.0, 0.0, 0.0, -7763.587863872989, 0.0]
['beep', 0.0, -835.5529112282886, 0.0, 0.0, 0.0, 0.0, -7762.827904561509, 0.0]
['beep', 0.0, -825.4499227344899, 0.0, 0.0, 0.0, 0.0, -7777.848276835475, 0.0]
['beep', 0.0, -815.2798790073251, 0.0, 0.0, 0.0, 0.0, -7788.130079284916, 0.0]
['beep', 0.0, -819.2361377759145, 0.0, 0.0, 0.0, 0.0, -7779.614064647444, 0.0]
['beep', 0.0, -833.7871234163193, 0.0, 0.0, 0.0, 0.0, -7763.341994683981, 0.0]
['beep', 0.0, -837.7880856738193, 0.0, 0.0, 0.0, 0.0, -7762.179703972305, 0.0]
['beep', 0.0, -828.2885942803139, 0.0, 0.0, 0.0, 0.0, -7776.998910546174, 0.0]
['beep', 0.0, -816.8892046081072, 0.0, 0.0, 0.0, 0.0, -7789.515887441145, 0.0]
['beep', 0.0, -819.9960970873949, 0.0, 0.0, 0.0, 0.0, -7782.452736193269, 0.0]
['beep', 0.0, -833.474198993945, 0.0, 0.0, 0.0, 0.0, -7764.0348987620955, 0.0]
['beep', 0.0, -837.3857542736238, 0.0, 0.0, 0.0, 0.0, -7763.25258770616, 0.0]
['beep', 0.0, -827.7521524133864, 0.0, 0.0, 0.0, 0.0, -7782.005701304162, 0.0]
['beep', 0.0, -815.9951348298949, 0.0, 0.0, 0.0, 0.0, -7790.7452333861875, 0.0]
['beep', 0.0, -818.185605786515, 0.0, 0.0, 0.0, 0.0, -7780.329320470014, 0.0]
['beep', 0.0, -831.4625419929674, 0.0, 0.0, 0.0, 0.0, -7764.39252667338, 0.0]
['beep', 0.0, -838.8386176632188, 0.0, 0.0, 0.0, 0.0, -7762.894959794875, 0.0]
['beep', 0.0, -828.2438907914033, 0.0, 0.0, 0.0, 0.0, -7780.172858258827, 0.0]
['beep', 0.0, -815.8833761076183, 0.0, 0.0, 0.0, 0.0, -7791.996931075684, 0.0]
['beep', 0.0, -820.5548906987776, 0.0, 0.0, 0.0, 0.0, -7782.92212282683, 0.0]
['beep', 0.0, -833.6977164384981, 0.0, 0.0, 0.0, 0.0, -7764.146657484372, 0.0]
['beep', 0.0, -837.9445478850065, 0.0, 0.0, 0.0, 0.0, -7763.140828983883, 0.0]
['beep', 0.0, -827.4615797354675, 0.0, 0.0, 0.0, 0.0, -7779.457602436257, 0.0]
['beep', 0.0, -814.6987336514871, 0.0, 0.0, 0.0, 0.0, -7790.789936875098, 0.0]
['beep', 0.0, -820.1302075541267, 0.0, 0.0, 0.0, 0.0, -7780.217561747738, 0.0]
['beep', 0.0, -832.9377571270177, 0.0, 0.0, 0.0, 0.0, -7762.1573522278495, 0.0]
['beep', 0.0, -835.6199664616545, 0.0, 0.0, 0.0, 0.0, -7761.397392916369, 0.0]
['beep', 0.0, -827.4839314799227, 0.0, 0.0, 0.0, 0.0, -7778.16120125785, 0.0]
['beep', 0.0, -817.4256464750346, 0.0, 0.0, 0.0, 0.0, -7790.834640364009, 0.0]
['beep', 0.0, -820.6219459321435, 0.0, 0.0, 0.0, 0.0, -7783.391509460392, 0.0]
['beep', 0.0, -833.9212338830512, 0.0, 0.0, 0.0, 0.0, -7764.8619133069415, 0.0]
['beep', 0.0, -839.2856525523249, 0.0, 0.0, 0.0, 0.0, -7761.307985938548, 0.0]
['beep', 0.0, -829.2273675474368, 0.0, 0.0, 0.0, 0.0, -7776.797744846076, 0.0]
['beep', 0.0, -818.8785098646296, 0.0, 0.0, 0.0, 0.0, -7788.599465918478, 0.0]
['beep', 0.0, -821.7842366438194, 0.0, 0.0, 0.0, 0.0, -7780.754003614665, 0.0]
['beep', 0.0, -834.6588414500764, 0.0, 0.0, 0.0, 0.0, -7762.738497583688, 0.0]
['beep', 0.0, -839.0621351077718, 0.0, 0.0, 0.0, 0.0, -7763.364346428436, 0.0]
['beep', 0.0, -828.8697396361518, 0.0, 0.0, 0.0, 0.0, -7779.032919291606, 0.0]
['beep', 0.0, -818.0067918308725, 0.0, 0.0, 0.0, 0.0, -7791.482840953213, 0.0]
['beep', 0.0, -822.5218442108446, 0.0, 0.0, 0.0, 0.0, -7781.782183859609, 0.0]
['beep', 0.0, -836.1117048396713, 0.0, 0.0, 0.0, 0.0, -7764.347823184469, 0.0]
['beep', 0.0, -841.0737921087494, 0.0, 0.0, 0.0, 0.0, -7762.671442350322, 0.0]
['beep', 0.0, -831.0602105927719, 0.0, 0.0, 0.0, 0.0, -7777.267131479637, 0.0]
['beep', 0.0, -819.057323820272, 0.0, 0.0, 0.0, 0.0, -7789.068852552039, 0.0]
['beep', 0.0, -822.0971610661937, 0.0, 0.0, 0.0, 0.0, -7780.552837914567, 0.0]
['beep', 0.0, -836.2905187953138, 0.0, 0.0, 0.0, 0.0, -7763.96784352873, 0.0]
['beep', 0.0, -840.0679636082607, 0.0, 0.0, 0.0, 0.0, -7762.894959794875, 0.0]
['beep', 0.0, -829.7191059254535, 0.0, 0.0, 0.0, 0.0, -7778.585884402501, 0.0]
['beep', 0.0, -818.6102889311659, 0.0, 0.0, 0.0, 0.0, -7790.7452333861875, 0.0]
['beep', 0.0, -821.7171814104536, 0.0, 0.0, 0.0, 0.0, -7781.223390248227, 0.0]
['beep', 0.0, -836.2905187953138, 0.0, 0.0, 0.0, 0.0, -7763.543160384079, 0.0]
['beep', 0.0, -842.0125653758723, 0.0, 0.0, 0.0, 0.0, -7762.090296994484, 0.0]
['beep', 0.0, -832.8707018936518, 0.0, 0.0, 0.0, 0.0, -7779.5917129029895, 0.0]
['beep', 0.0, -820.0184488318503, 0.0, 0.0, 0.0, 0.0, -7793.87447760993, 0.0]
['beep', 0.0, -822.1642162995597, 0.0, 0.0, 0.0, 0.0, -7783.972654816229, 0.0]
['beep', 0.0, -835.0388211058165, 0.0, 0.0, 0.0, 0.0, -7765.957148785252, 0.0]
['beep', 0.0, -840.4032397750902, 0.0, 0.0, 0.0, 0.0, -7762.291462694581, 0.0]
['beep', 0.0, -830.6578791925764, 0.0, 0.0, 0.0, 0.0, -7779.614064647444, 0.0]
['beep', 0.0, -817.6491639195876, 0.0, 0.0, 0.0, 0.0, -7792.980407831718, 0.0]
['beep', 0.0, -821.4713122214451, 0.0, 0.0, 0.0, 0.0, -7781.335148970503, 0.0]
['beep', 0.0, -834.7482484278976, 0.0, 0.0, 0.0, 0.0, -7764.101953995461, 0.0]
['beep', 0.0, -841.185550831026, 0.0, 0.0, 0.0, 0.0, -7763.587863872989, 0.0]
['beep', 0.0, -831.797818159797, 0.0, 0.0, 0.0, 0.0, -7779.323491969525, 0.0]
['beep', 0.0, -819.2137860314591, 0.0, 0.0, 0.0, 0.0, -7792.756890387165, 0.0]
['beep', 0.0, -822.0301058328279, 0.0, 0.0, 0.0, 0.0, -7782.832715849008, 0.0]
['beep', 0.0, -835.7093734394757, 0.0, 0.0, 0.0, 0.0, -7763.677270850811, 0.0]
['beep', 0.0, -840.4032397750902, 0.0, 0.0, 0.0, 0.0, -7761.397392916369, 0.0]
['beep', 0.0, -831.6860594375205, 0.0, 0.0, 0.0, 0.0, -7779.032919291606, 0.0]
['beep', 0.0, -820.9125186100625, 0.0, 0.0, 0.0, 0.0, -7792.958056087263, 0.0]
['beep', 0.0, -824.3323355117245, 0.0, 0.0, 0.0, 0.0, -7784.039710049595, 0.0]
['beep', 0.0, -837.6092717181768, 0.0, 0.0, 0.0, 0.0, -7766.068907507528, 0.0]
['beep', 0.0, -841.0290886198388, 0.0, 0.0, 0.0, 0.0, -7764.705451095754, 0.0]
['beep', 0.0, -830.5461204702998, 0.0, 0.0, 0.0, 0.0, -7779.658768136355, 0.0]
['beep', 0.0, -820.6219459321435, 0.0, 0.0, 0.0, 0.0, -7791.482840953213, 0.0]
['beep', 0.0, -822.410085488568, 0.0, 0.0, 0.0, 0.0, -7781.804535604065, 0.0]
['beep', 0.0, -835.2623385503696, 0.0, 0.0, 0.0, 0.0, -7764.593692373478, 0.0]
['beep', 0.0, -839.3527077856908, 0.0, 0.0, 0.0, 0.0, -7763.453753406257, 0.0]
['beep', 0.0, -829.6296989476323, 0.0, 0.0, 0.0, 0.0, -7780.575189659023, 0.0]
['beep', 0.0, -817.2244807749369, 0.0, 0.0, 0.0, 0.0, -7793.7403671431985, 0.0]
['beep', 0.0, -820.2419662764033, 0.0, 0.0, 0.0, 0.0, -7786.006663561662, 0.0]
['beep', 0.0, -833.8765303941406, 0.0, 0.0, 0.0, 0.0, -7767.275901708115, 0.0]
['beep', 0.0, -839.0621351077718, 0.0, 0.0, 0.0, 0.0, -7763.610215617445, 0.0]
['beep', 0.0, -829.1156088251602, 0.0, 0.0, 0.0, 0.0, -7779.547009414078, 0.0]
['beep', 0.0, -819.4373034760122, 0.0, 0.0, 0.0, 0.0, -7792.533372942612, 0.0]
['beep', 0.0, -822.5665476997552, 0.0, 0.0, 0.0, 0.0, -7784.956131572263, 0.0]
['beep', 0.0, -834.4800274944339, 0.0, 0.0, 0.0, 0.0, -7768.281730208604, 0.0]
['beep', 0.0, -841.9008066535959, 0.0, 0.0, 0.0, 0.0, -7765.979500529707, 0.0]
['beep', 0.0, -830.9931553594059, 0.0, 0.0, 0.0, 0.0, -7780.508134425657, 0.0]
['beep', 0.0, -819.1020273091826, 0.0, 0.0, 0.0, 0.0, -7793.270980509637, 0.0]
['beep', 0.0, -820.5548906987776, 0.0, 0.0, 0.0, 0.0, -7785.470221694734, 0.0]
['beep', 0.0, -834.055344349783, 0.0, 0.0, 0.0, 0.0, -7767.767640086132, 0.0]
['beep', 0.0, -840.3585362861796, 0.0, 0.0, 0.0, 0.0, -7764.414878417836, 0.0]
['beep', 0.0, -830.9037483815847, 0.0, 0.0, 0.0, 0.0, -7779.368195458436, 0.0]
['beep', 0.0, -819.2361377759145, 0.0, 0.0, 0.0, 0.0, -7794.455622965768, 0.0]
['beep', 0.0, -822.2312715329256, 0.0, 0.0, 0.0, 0.0, -7786.5878089175, 0.0]
['beep', 0.0, -836.5587397287775, 0.0, 0.0, 0.0, 0.0, -7768.952282542263, 0.0]
['beep', 0.0, -841.8337514202299, 0.0, 0.0, 0.0, 0.0, -7765.733631340699, 0.0]
['beep', 0.0, -833.8988821385959, 0.0, 0.0, 0.0, 0.0, -7782.788012360098, 0.0]
['beep', 0.0, -821.7395331549088, 0.0, 0.0, 0.0, 0.0, -7798.054253823073, 0.0]
['beep', 0.0, -823.4829692224228, 0.0, 0.0, 0.0, 0.0, -7790.9240473418295, 0.0]
['beep', 0.0, -835.9999461173948, 0.0, 0.0, 0.0, 0.0, -7769.488724409191, 0.0]
['beep', 0.0, -842.571358987255, 0.0, 0.0, 0.0, 0.0, -7765.353651684958, 0.0]
['beep', 0.0, -834.1000478386936, 0.0, 0.0, 0.0, 0.0, -7782.095108281984, 0.0]
['beep', 0.0, -821.4713122214451, 0.0, 0.0, 0.0, 0.0, -7797.227239278226, 0.0]
['beep', 0.0, -821.6948296659982, 0.0, 0.0, 0.0, 0.0, -7788.197134518282, 0.0]
['beep', 0.0, -836.1117048396713, 0.0, 0.0, 0.0, 0.0, -7769.734593598198, 0.0]
['beep', 0.0, -843.7560014433863, 0.0, 0.0, 0.0, 0.0, -7767.365308685936, 0.0]
['beep', 0.0, -834.3459170277021, 0.0, 0.0, 0.0, 0.0, -7779.994044303185, 0.0]
['beep', 0.0, -822.2089197884703, 0.0, 0.0, 0.0, 0.0, -7793.338035743003, 0.0]
['beep', 0.0, -824.0864663227161, 0.0, 0.0, 0.0, 0.0, -7787.727747884721, 0.0]
['beep', 0.0, -838.056306607283, 0.0, 0.0, 0.0, 0.0, -7769.1981517312715, 0.0]
['beep', 0.0, -843.5771874877438, 0.0, 0.0, 0.0, 0.0, -7764.481933651202, 0.0]
['beep', 0.0, -833.4071437605792, 0.0, 0.0, 0.0, 0.0, -7779.435250691802, 0.0]
['beep', 0.0, -821.5160157103558, 0.0, 0.0, 0.0, 0.0, -7793.405090976369, 0.0]
['beep', 0.0, -822.7453616553977, 0.0, 0.0, 0.0, 0.0, -7787.481878695712, 0.0]
['beep', 0.0, -835.7093734394757, 0.0, 0.0, 0.0, 0.0, -7767.901750552864, 0.0]
['beep', 0.0, -842.8395799207187, 0.0, 0.0, 0.0, 0.0, -7762.8055528170535, 0.0]
['beep', 0.0, -833.1165710826601, 0.0, 0.0, 0.0, 0.0, -7779.748175114176, 0.0]
['beep', 0.0, -821.8065883882748, 0.0, 0.0, 0.0, 0.0, -7793.248628765182, 0.0]
['beep', 0.0, -824.8464256341965, 0.0, 0.0, 0.0, 0.0, -7784.374986216425, 0.0]
['beep', 0.0, -837.4975129959004, 0.0, 0.0, 0.0, 0.0, -7765.845390062976, 0.0]
['beep', 0.0, -844.02422237685, 0.0, 0.0, 0.0, 0.0, -7764.191360973283, 0.0]
['beep', 0.0, -834.6588414500764, 0.0, 0.0, 0.0, 0.0, -7781.670425137333, 0.0]
['beep', 0.0, -822.5218442108446, 0.0, 0.0, 0.0, 0.0, -7791.795765375587, 0.0]
['beep', 0.0, -824.1535215560821, 0.0, 0.0, 0.0, 0.0, -7783.145640271383, 0.0]
['beep', 0.0, -837.3410507847132, 0.0, 0.0, 0.0, 0.0, -7765.532465640601, 0.0]
['beep', 0.0, -843.8230566767522, 0.0, 0.0, 0.0, 0.0, -7761.2185789607265, 0.0]
['beep', 0.0, -835.0388211058165, 0.0, 0.0, 0.0, 0.0, -7777.11066926845, 0.0]
['beep', 0.0, -821.6277744326323, 0.0, 0.0, 0.0, 0.0, -7792.242800264693, 0.0]
['beep', 0.0, -823.7288384114312, 0.0, 0.0, 0.0, 0.0, -7785.045538550084, 0.0]
['beep', 0.0, -838.9056728965846, 0.0, 0.0, 0.0, 0.0, -7766.135962740895, 0.0]
['beep', 0.0, -844.2030363324925, 0.0, 0.0, 0.0, 0.0, -7763.185532472794, 0.0]
['beep', 0.0, -835.1729315725484, 0.0, 0.0, 0.0, 0.0, -7779.502305925168, 0.0]
['beep', 0.0, -822.4324372330234, 0.0, 0.0, 0.0, 0.0, -7792.980407831718, 0.0]
['beep', 0.0, -824.8687773786519, 0.0, 0.0, 0.0, 0.0, -7785.939608328296, 0.0]
['beep', 0.0, -838.0786583517383, 0.0, 0.0, 0.0, 0.0, -7767.29825345257, 0.0]
['beep', 0.0, -844.0912776102159, 0.0, 0.0, 0.0, 0.0, -7760.860951049442, 0.0]
['beep', 0.0, -835.0611728502719, 0.0, 0.0, 0.0, 0.0, -7776.3060064680585, 0.0]
['beep', 0.0, -822.7453616553977, 0.0, 0.0, 0.0, 0.0, -7791.169916530838, 0.0]
['beep', 0.0, -823.8405971337077, 0.0, 0.0, 0.0, 0.0, -7783.771489116131, 0.0]
['beep', 0.0, -837.0504781067942, 0.0, 0.0, 0.0, 0.0, -7766.135962740895, 0.0]
['beep', 0.0, -845.4547340219897, 0.0, 0.0, 0.0, 0.0, -7761.889131294386, 0.0]
['beep', 0.0, -836.3352222842244, 0.0, 0.0, 0.0, 0.0, -7779.68111988081, 0.0]
['beep', 0.0, -822.5888994442105, 0.0, 0.0, 0.0, 0.0, -7792.421614220335, 0.0]
['beep', 0.0, -824.8464256341965, 0.0, 0.0, 0.0, 0.0, -7785.380814716914, 0.0]
['beep', 0.0, -837.6092717181768, 0.0, 0.0, 0.0, 0.0, -7768.527599397612, 0.0]
['beep', 0.0, -843.4877805099226, 0.0, 0.0, 0.0, 0.0, -7762.403221416858, 0.0]
['beep', 0.0, -834.5247309833445, 0.0, 0.0, 0.0, 0.0, -7774.763736100643, 0.0]
['beep', 0.0, -822.0301058328279, 0.0, 0.0, 0.0, 0.0, -7791.527544442123, 0.0]
['beep', 0.0, -822.9688790999508, 0.0, 0.0, 0.0, 0.0, -7785.537276928101, 0.0]
['beep', 0.0, -835.6646699505651, 0.0, 0.0, 0.0, 0.0, -7766.5606458855455, 0.0]
['beep', 0.0, -842.7725246873528, 0.0, 0.0, 0.0, 0.0, -7761.10682023845, 0.0]
['beep', 0.0, -833.6083094606769, 0.0, 0.0, 0.0, 0.0, -7777.356538457459, 0.0]
['beep', 0.0, -821.6277744326323, 0.0, 0.0, 0.0, 0.0, -7791.393433975391, 0.0]
['beep', 0.0, -822.8124168887636, 0.0, 0.0, 0.0, 0.0, -7785.134945527905, 0.0]
['beep', 0.0, -835.8211321617523, 0.0, 0.0, 0.0, 0.0, -7766.895922052375, 0.0]
['beep', 0.0, -841.5431787423109, 0.0, 0.0, 0.0, 0.0, -7762.8055528170535, 0.0]
['beep', 0.0, -833.1836263160261, 0.0, 0.0, 0.0, 0.0, -7779.323491969525, 0.0]
['beep', 0.0, -823.4159139890569, 0.0, 0.0, 0.0, 0.0, -7793.628608420922, 0.0]
['beep', 0.0, -824.3099837672692, 0.0, 0.0, 0.0, 0.0, -7786.833678106508, 0.0]
['beep', 0.0, -838.5480449852997, 0.0, 0.0, 0.0, 0.0, -7769.019337775629, 0.0]
['beep', 0.0, -844.2253880769478, 0.0, 0.0, 0.0, 0.0, -7764.124305739917, 0.0]
['beep', 0.0, -834.6588414500764, 0.0, 0.0, 0.0, 0.0, -7777.8929803243855, 0.0]
['beep', 0.0, -821.8512918771854, 0.0, 0.0, 0.0, 0.0, -7793.025111320629, 0.0]
['beep', 0.0, -824.0417628338055, 0.0, 0.0, 0.0, 0.0, -7786.699567639776, 0.0]
['beep', 0.0, -837.4528095069898, 0.0, 0.0, 0.0, 0.0, -7766.404183674358, 0.0]
['beep', 0.0, -844.8065334327857, 0.0, 0.0, 0.0, 0.0, -7761.509151638646, 0.0]
['beep', 0.0, -837.4304577625344, 0.0, 0.0, 0.0, 0.0, -7776.820096590531, 0.0]
['beep', 0.0, -824.2429285339033, 0.0, 0.0, 0.0, 0.0, -7792.108689797961, 0.0]
['beep', 0.0, -825.5169779678557, 0.0, 0.0, 0.0, 0.0, -7788.73357638521, 0.0]
['beep', 0.0, -834.7258966834422, 0.0, 0.0, 0.0, 0.0, -7768.952282542263, 0.0]
['beep', 0.0, -840.7608676863751, 0.0, 0.0, 0.0, 0.0, -7764.146657484372, 0.0]
['beep', 0.0, -832.3119082822691, 0.0, 0.0, 0.0, 0.0, -7780.552837914567, 0.0]
['beep', 0.0, -819.347896498191, 0.0, 0.0, 0.0, 0.0, -7794.746195643687, 0.0]
['beep', 0.0, -821.2701465213474, 0.0, 0.0, 0.0, 0.0, -7788.957093829763, 0.0]
['beep', 0.0, -834.6588414500764, 0.0, 0.0, 0.0, 0.0, -7770.382794187402, 0.0]
['beep', 0.0, -841.9231583980511, 0.0, 0.0, 0.0, 0.0, -7766.001852274162, 0.0]
['beep', 0.0, -833.250681549392, 0.0, 0.0, 0.0, 0.0, -7781.2904454815925, 0.0]
['beep', 0.0, -819.9960970873949, 0.0, 0.0, 0.0, 0.0, -7796.780204389121, 0.0]
['beep', 0.0, -822.2536232773809, 0.0, 0.0, 0.0, 0.0, -7790.029977563618, 0.0]
['beep', 0.0, -835.7317251839311, 0.0, 0.0, 0.0, 0.0, -7771.589788387989, 0.0]
['beep', 0.0, -842.1243240981489, 0.0, 0.0, 0.0, 0.0, -7766.024204018618, 0.0]
['beep', 0.0, -833.4518472494898, 0.0, 0.0, 0.0, 0.0, -7780.575189659023, 0.0]
['beep', 0.0, -822.6783064220317, 0.0, 0.0, 0.0, 0.0, -7796.914314855852, 0.0]
['beep', 0.0, -823.3712105001463, 0.0, 0.0, 0.0, 0.0, -7792.421614220335, 0.0]
['beep', 0.0, -836.4469810065009, 0.0, 0.0, 0.0, 0.0, -7772.573265144023, 0.0]
['beep', 0.0, -843.5771874877438, 0.0, 0.0, 0.0, 0.0, -7766.828866819009, 0.0]
['beep', 0.0, -835.0835245947271, 0.0, 0.0, 0.0, 0.0, -7781.223390248227, 0.0]
['beep', 0.0, -822.9241756110401, 0.0, 0.0, 0.0, 0.0, -7796.221410777737, 0.0]
['beep', 0.0, -823.5276727113334, 0.0, 0.0, 0.0, 0.0, -7791.6840066533105, 0.0]
['beep', 0.0, -836.9163676400624, 0.0, 0.0, 0.0, 0.0, -7774.339052955992, 0.0]
['beep', 0.0, -842.9513386429952, 0.0, 0.0, 0.0, 0.0, -7768.505247653156, 0.0]
['beep', 0.0, -835.0835245947271, 0.0, 0.0, 0.0, 0.0, -7782.340977470992, 0.0]
['beep', 0.0, -822.9241756110401, 0.0, 0.0, 0.0, 0.0, -7797.338998000503, 0.0]
['beep', 0.0, -822.9241756110401, 0.0, 0.0, 0.0, 0.0, -7792.198096775783, 0.0]
['beep', 0.0, -835.7540769283863, 0.0, 0.0, 0.0, 0.0, -7775.568398901034, 0.0]
['beep', 0.0, -844.2030363324925, 0.0, 0.0, 0.0, 0.0, -7768.974634286718, 0.0]
['beep', 0.0, -835.6870216950205, 0.0, 0.0, 0.0, 0.0, -7781.268093737137, 0.0]
['beep', 0.0, -823.7064866669758, 0.0, 0.0, 0.0, 0.0, -7795.707320655266, 0.0]
['beep', 0.0, -824.511149467367, 0.0, 0.0, 0.0, 0.0, -7791.125213041928, 0.0]
['beep', 0.0, -836.8046089177858, 0.0, 0.0, 0.0, 0.0, -7773.355576199959, 0.0]
['beep', 0.0, -844.4712572659562, 0.0, 0.0, 0.0, 0.0, -7769.15344824236, 0.0]
['beep', 0.0, -835.7093734394757, 0.0, 0.0, 0.0, 0.0, -7784.129117027416, 0.0]
['beep', 0.0, -824.8464256341965, 0.0, 0.0, 0.0, 0.0, -7797.920143356341, 0.0]
['beep', 0.0, -825.025239589839, 0.0, 0.0, 0.0, 0.0, -7792.06398630905, 0.0]
['beep', 0.0, -837.4304577625344, 0.0, 0.0, 0.0, 0.0, -7774.584922145001, 0.0]
['beep', 0.0, -844.6947747105093, 0.0, 0.0, 0.0, 0.0, -7769.689890109288, 0.0]
['beep', 0.0, -835.9775943729395, 0.0, 0.0, 0.0, 0.0, -7784.687910638799, 0.0]
['beep', 0.0, -823.5947279446993, 0.0, 0.0, 0.0, 0.0, -7799.8423933794975, 0.0]
['beep', 0.0, -823.1923965445038, 0.0, 0.0, 0.0, 0.0, -7794.388567732402, 0.0]
['beep', 0.0, -836.4693327509563, 0.0, 0.0, 0.0, 0.0, -7772.34974769947, 0.0]
['beep', 0.0, -844.381850288135, 0.0, 0.0, 0.0, 0.0, -7766.203017974261, 0.0]
['beep', 0.0, -838.6151002186657, 0.0, 0.0, 0.0, 0.0, -7783.68208213831, 0.0]
['beep', 0.0, -826.5451582127998, 0.0, 0.0, 0.0, 0.0, -7798.724806156732, 0.0]
['beep', 0.0, -825.8746058791406, 0.0, 0.0, 0.0, 0.0, -7792.06398630905, 0.0]
['beep', 0.0, -838.5480449852997, 0.0, 0.0, 0.0, 0.0, -7772.0815267660055, 0.0]
['beep', 0.0, -845.7900101888192, 0.0, 0.0, 0.0, 0.0, -7766.91827379683, 0.0]
['beep', 0.0, -837.2516438068919, 0.0, 0.0, 0.0, 0.0, -7781.312797226048, 0.0]
['beep', 0.0, -824.6676116785541, 0.0, 0.0, 0.0, 0.0, -7795.796727633086, 0.0]
['beep', 0.0, -823.8405971337077, 0.0, 0.0, 0.0, 0.0, -7790.566419430545, 0.0]
['beep', 0.0, -836.7822571733305, 0.0, 0.0, 0.0, 0.0, -7771.545084899079, 0.0]
['beep', 0.0, -844.9406438995176, 0.0, 0.0, 0.0, 0.0, -7762.783201072598, 0.0]
['beep', 0.0, -838.056306607283, 0.0, 0.0, 0.0, 0.0, -7776.417765190336, 0.0]
['beep', 0.0, -826.0534198347831, 0.0, 0.0, 0.0, 0.0, -7794.410919476858, 0.0]
['beep', 0.0, -823.862948878163, 0.0, 0.0, 0.0, 0.0, -7786.140774028394, 0.0]
['beep', 0.0, -837.7880856738193, 0.0, 0.0, 0.0, 0.0, -7769.533427898101, 0.0]
['beep', 0.0, -848.2710538233583, 0.0, 0.0, 0.0, 0.0, -7757.597596358967, 0.0]
['beep', 0.0, -839.2856525523249, 0.0, 0.0, 0.0, 0.0, -7771.410974432347, 0.0]
['beep', 0.0, -828.5568152137776, 0.0, 0.0, 0.0, 0.0, -7780.128154769916, 0.0]
['beep', 0.0, -829.5626437142663, 0.0, 0.0, 0.0, 0.0, -7777.356538457459, 0.0]
['beep', 0.0, -841.9231583980511, 0.0, 0.0, 0.0, 0.0, -7751.9426050117745, 0.0]
['beep', 0.0, -849.2992340683024, 0.0, 0.0, 0.0, 0.0, -7735.134093181383, 0.0]
['beep', 0.0, -843.5771874877438, 0.0, 0.0, 0.0, 0.0, -7749.998003244163, 0.0]
['beep', 0.0, -828.6015187026882, 0.0, 0.0, 0.0, 0.0, -7747.092276464972, 0.0]
['beep', 0.0, -828.8250361472412, 0.0, 0.0, 0.0, 0.0, -7735.424665859302, 0.0]
['beep', 0.0, -838.6151002186657, 0.0, 0.0, 0.0, 0.0, -7700.980627653674, 0.0]
['beep', 0.0, -844.2253880769478, 0.0, 0.0, 0.0, 0.0, -7668.637653426845, 0.0]
['beep', 0.0, -837.2739955513473, 0.0, 0.0, 0.0, 0.0, -7665.463705714191, 0.0]
['beep', 0.0, -822.9465273554954, 0.0, 0.0, 0.0, 0.0, -7663.586159179946, 0.0]
['beep', 0.0, -821.9183471105513, 0.0, 0.0, 0.0, 0.0, -7636.048810011007, 0.0]
['beep', 0.0, -829.897919881096, 0.0, 0.0, 0.0, 0.0, -7607.796205019499, 0.0]
['beep', 0.0, -838.346879285202, 0.0, 0.0, 0.0, 0.0, -7583.209286118661, 0.0]
['beep', 0.0, -835.1952833170037, 0.0, 0.0, 0.0, 0.0, -7570.02175689003, 0.0]
['beep', 0.0, -821.3595534991687, 0.0, 0.0, 0.0, 0.0, -7570.02175689003, 0.0]
['beep', 0.0, -820.3984284875904, 0.0, 0.0, 0.0, 0.0, -7561.751611441567, 0.0]
['beep', 0.0, -834.4576757499785, 0.0, 0.0, 0.0, 0.0, -7530.056837803941, 0.0]
['beep', 0.0, -843.9795188879394, 0.0, 0.0, 0.0, 0.0, -7517.495157420059, 0.0]
['beep', 0.0, -835.9552426284841, 0.0, 0.0, 0.0, 0.0, -7522.569003411413, 0.0]
['beep', 0.0, -822.3430302552022, 0.0, 0.0, 0.0, 0.0, -7534.661297161734, 0.0]
['beep', 0.0, -820.1972627874927, 0.0, 0.0, 0.0, 0.0, -7526.413503457726, 0.0]
['beep', 0.0, -828.445056491501, 0.0, 0.0, 0.0, 0.0, -7505.7604915810225, 0.0]
['beep', 0.0, -838.5927484742103, 0.0, 0.0, 0.0, 0.0, -7496.596276354347, 0.0]
['beep', 0.0, -832.6024809601881, 0.0, 0.0, 0.0, 0.0, -7503.234744457573, 0.0]
['beep', 0.0, -819.8172831317524, 0.0, 0.0, 0.0, 0.0, -7516.042294030463, 0.0]
['beep', 0.0, -820.3984284875904, 0.0, 0.0, 0.0, 0.0, -7507.123947992796, 0.0]
['beep', 0.0, -832.960108871473, 0.0, 0.0, 0.0, 0.0, -7484.548686092936, 0.0]
['beep', 0.0, -841.9008066535959, 0.0, 0.0, 0.0, 0.0, -7477.440831356148, 0.0]
['beep', 0.0, -833.5189024828557, 0.0, 0.0, 0.0, 0.0, -7489.220200684095, 0.0]
['beep', 0.0, -823.63943143361, 0.0, 0.0, 0.0, 0.0, -7503.659427602223, 0.0]
['beep', 0.0, -822.9241756110401, 0.0, 0.0, 0.0, 0.0, -7491.5000786185365, 0.0]
['beep', 0.0, -831.1719693150484, 0.0, 0.0, 0.0, 0.0, -7469.036575440953, 0.0]
['beep', 0.0, -842.5490072427997, 0.0, 0.0, 0.0, 0.0, -7464.119191660785, 0.0]
['beep', 0.0, -833.317736782758, 0.0, 0.0, 0.0, 0.0, -7471.5399708199475, 0.0]
['beep', 0.0, -819.5490621982888, 0.0, 0.0, 0.0, 0.0, -7489.24255242855, 0.0]
['beep', 0.0, -823.4606174779675, 0.0, 0.0, 0.0, 0.0, -7488.43788962816, 0.0]
['beep', 0.0, -838.2351205629254, 0.0, 0.0, 0.0, 0.0, -7465.639110283746, 0.0]
['beep', 0.0, -846.9970043894058, 0.0, 0.0, 0.0, 0.0, -7452.384525821749, 0.0]
['beep', 0.0, -838.1010100961936, 0.0, 0.0, 0.0, 0.0, -7465.303834116917, 0.0]
['beep', 0.0, -824.3099837672692, 0.0, 0.0, 0.0, 0.0, -7479.251322657028, 0.0]
['beep', 0.0, -824.3770390006351, 0.0, 0.0, 0.0, 0.0, -7474.512752832503, 0.0]
['beep', 0.0, -839.0397833633165, 0.0, 0.0, 0.0, 0.0, -7452.138656632741, 0.0]
['beep', 0.0, -850.9532631579951, 0.0, 0.0, 0.0, 0.0, -7445.857816440799, 0.0]
['beep', 0.0, -844.2030363324925, 0.0, 0.0, 0.0, 0.0, -7461.660499770702, 0.0]
['beep', 0.0, -831.2390245484144, 0.0, 0.0, 0.0, 0.0, -7477.217313911595, 0.0]
['beep', 0.0, -833.7424199274087, 0.0, 0.0, 0.0, 0.0, -7469.148334163229, 0.0]
['beep', 0.0, -846.4382107780232, 0.0, 0.0, 0.0, 0.0, -7449.18822636464, 0.0]
['beep', 0.0, -857.3905655611236, 0.0, 0.0, 0.0, 0.0, -7443.175607106163, 0.0]
['beep', 0.0, -850.9085596690845, 0.0, 0.0, 0.0, 0.0, -7454.5749967783695, 0.0]
['beep', 0.0, -835.2399868059143, 0.0, 0.0, 0.0, 0.0, -7470.33297661936, 0.0]
['beep', 0.0, -833.3624402716686, 0.0, 0.0, 0.0, 0.0, -7464.387412594249, 0.0]
['beep', 0.0, -850.9979666469058, 0.0, 0.0, 0.0, 0.0, -7445.500188529514, 0.0]
['beep', 0.0, -860.8103824627856, 0.0, 0.0, 0.0, 0.0, -7439.979307649053, 0.0]
['beep', 0.0, -853.6578242370873, 0.0, 0.0, 0.0, 0.0, -7450.61873800978, 0.0]
['beep', 0.0, -840.9396816420176, 0.0, 0.0, 0.0, 0.0, -7467.7848777514555, 0.0]
['beep', 0.0, -841.5208269978556, 0.0, 0.0, 0.0, 0.0, -7455.245549112028, 0.0]
['beep', 0.0, -856.3176818272689, 0.0, 0.0, 0.0, 0.0, -7448.696487986624, 0.0]
['beep', 0.0, -864.1631441310817, 0.0, 0.0, 0.0, 0.0, -7441.789798949933, 0.0]
['beep', 0.0, -855.2000946045035, 0.0, 0.0, 0.0, 0.0, -7454.709107245101, 0.0]
['beep', 0.0, -845.5441409998109, 0.0, 0.0, 0.0, 0.0, -7469.058927185408, 0.0]
['beep', 0.0, -845.7229549554534, 0.0, 0.0, 0.0, 0.0, -7462.353403848816, 0.0]
['beep', 0.0, -858.3740423171571, 0.0, 0.0, 0.0, 0.0, -7443.8908629287325, 0.0]
['beep', 0.0, -866.3089115987912, 0.0, 0.0, 0.0, 0.0, -7438.973479148564, 0.0]
['beep', 0.0, -860.5421615293219, 0.0, 0.0, 0.0, 0.0, -7452.764505477489, 0.0]
['beep', 0.0, -852.8084579477857, 0.0, 0.0, 0.0, 0.0, -7471.897598731232, 0.0]
['beep', 0.0, -853.2778445813472, 0.0, 0.0, 0.0, 0.0, -7470.936473719654, 0.0]
['beep', 0.0, -864.3419580867242, 0.0, 0.0, 0.0, 0.0, -7455.2231973675725, 0.0]
['beep', 0.0, -872.3662343461793, 0.0, 0.0, 0.0, 0.0, -7448.584729264347, 0.0]
['beep', 0.0, -867.2923883548247, 0.0, 0.0, 0.0, 0.0, -7465.460296328104, 0.0]
['beep', 0.0, -857.0105859053834, 0.0, 0.0, 0.0, 0.0, -7487.499116361037, 0.0]
['beep', 0.0, -856.5635510162773, 0.0, 0.0, 0.0, 0.0, -7488.884924517265, 0.0]
['beep', 0.0, -868.8346587222409, 0.0, 0.0, 0.0, 0.0, -7476.569113322391, 0.0]
['beep', 0.0, -875.9201617145732, 0.0, 0.0, 0.0, 0.0, -7474.021014454486, 0.0]
['beep', 0.0, -868.3429203442241, 0.0, 0.0, 0.0, 0.0, -7491.656540829724, 0.0]
['beep', 0.0, -856.1388678716264, 0.0, 0.0, 0.0, 0.0, -7515.237631230072, 0.0]
['beep', 0.0, -852.5178852698667, 0.0, 0.0, 0.0, 0.0, -7518.009247542531, 0.0]
['beep', 0.0, -865.5489522873107, 0.0, 0.0, 0.0, 0.0, -7505.894602047754, 0.0]
['beep', 0.0, -876.1883826480368, 0.0, 0.0, 0.0, 0.0, -7510.320247449905, 0.0]
['beep', 0.0, -866.2195046209699, 0.0, 0.0, 0.0, 0.0, -7530.01213431503, 0.0]
['beep', 0.0, -850.9532631579951, 0.0, 0.0, 0.0, 0.0, -7549.324041524415, 0.0]
['beep', 0.0, -848.8521991791963, 0.0, 0.0, 0.0, 0.0, -7553.59322471538, 0.0]
['beep', 0.0, -858.1728766170594, 0.0, 0.0, 0.0, 0.0, -7542.39500074327, 0.0]
['beep', 0.0, -864.3196063422688, 0.0, 0.0, 0.0, 0.0, -7541.053896075952, 0.0]
['beep', 0.0, -854.5518940152996, 0.0, 0.0, 0.0, 0.0, -7557.8847596507985, 0.0]
['beep', 0.0, -839.9338531415289, 0.0, 0.0, 0.0, 0.0, -7581.868181451343, 0.0]
['beep', 0.0, -837.7880856738193, 0.0, 0.0, 0.0, 0.0, -7584.93037044172, 0.0]
['beep', 0.0, -847.6005014896991, 0.0, 0.0, 0.0, 0.0, -7571.5640272574465, 0.0]
['beep', 0.0, -856.1165161271712, 0.0, 0.0, 0.0, 0.0, -7570.446440034681, 0.0]
['beep', 0.0, -848.3381090567243, 0.0, 0.0, 0.0, 0.0, -7591.255914122572, 0.0]
['beep', 0.0, -833.474198993945, 0.0, 0.0, 0.0, 0.0, -7614.144100444806, 0.0]
['beep', 0.0, -832.8707018936518, 0.0, 0.0, 0.0, 0.0, -7617.31804815746, 0.0]
['beep', 0.0, -846.5499695002997, 0.0, 0.0, 0.0, 0.0, -7605.7845480185215, 0.0]
['beep', 0.0, -854.4624870374784, 0.0, 0.0, 0.0, 0.0, -7605.181050918228, 0.0]
['beep', 0.0, -846.6393764781209, 0.0, 0.0, 0.0, 0.0, -7622.257783682083, 0.0]
['beep', 0.0, -833.9659373719618, 0.0, 0.0, 0.0, 0.0, -7644.676583370756, 0.0]
['beep', 0.0, -831.9989838598948, 0.0, 0.0, 0.0, 0.0, -7648.476379928158, 0.0]
['beep', 0.0, -843.5324839988332, 0.0, 0.0, 0.0, 0.0, -7636.808769322488, 0.0]
['beep', 0.0, -852.3167195697689, 0.0, 0.0, 0.0, 0.0, -7635.065333254974, 0.0]
['beep', 0.0, -846.3935072891126, 0.0, 0.0, 0.0, 0.0, -7652.522045674568, 0.0]
['beep', 0.0, -832.9824606159283, 0.0, 0.0, 0.0, 0.0, -7674.247941285127, 0.0]
['beep', 0.0, -831.6190042041545, 0.0, 0.0, 0.0, 0.0, -7675.633749441356, 0.0]
['beep', 0.0, -844.1136293546713, 0.0, 0.0, 0.0, 0.0, -7664.390821980336, 0.0]
['beep', 0.0, -852.8531614366963, 0.0, 0.0, 0.0, 0.0, -7662.9603103351965, 0.0]
['beep', 0.0, -846.9299491560399, 0.0, 0.0, 0.0, 0.0, -7682.0934035889395, 0.0]
['beep', 0.0, -835.0388211058165, 0.0, 0.0, 0.0, 0.0, -7705.205107355727, 0.0]
['beep', 0.0, -833.3400885272132, 0.0, 0.0, 0.0, 0.0, -7709.04960740204, 0.0]
['beep', 0.0, -844.5830159882327, 0.0, 0.0, 0.0, 0.0, -7696.689092718255, 0.0]
['beep', 0.0, -854.0601556372828, 0.0, 0.0, 0.0, 0.0, -7692.643426971845, 0.0]
['beep', 0.0, -847.734611956431, 0.0, 0.0, 0.0, 0.0, -7710.189546369261, 0.0]
['beep', 0.0, -834.0106408608724, 0.0, 0.0, 0.0, 0.0, -7731.28959313507, 0.0]
['beep', 0.0, -831.1719693150484, 0.0, 0.0, 0.0, 0.0, -7731.401351857347, 0.0]
['beep', 0.0, -843.1078008541824, 0.0, 0.0, 0.0, 0.0, -7717.09623540595, 0.0]
['beep', 0.0, -852.2720160808583, 0.0, 0.0, 0.0, 0.0, -7711.597706269945, 0.0]
['beep', 0.0, -847.1087631116824, 0.0, 0.0, 0.0, 0.0, -7728.786197756076, 0.0]
['beep', 0.0, -852.4955335254114, 0.0, 0.0, 0.0, 0.0, -7747.271090420615, 0.0]
['beep', 0.0, -845.8570654221852, 0.0, 0.0, 0.0, 0.0, -7760.257453949149, 0.0]
['beep', 0.0, -834.5694344722551, 0.0, 0.0, 0.0, 0.0, -7777.602407646466, 0.0]
['beep', 0.0, -832.1330943266266, 0.0, 0.0, 0.0, 0.0, -7777.937683813297, 0.0]
['beep', 0.0, -842.92898689854, 0.0, 0.0, 0.0, 0.0, -7760.123343482416, 0.0]
['beep', 0.0, -851.4673532804673, 0.0, 0.0, 0.0, 0.0, -7751.6296805894, 0.0]
['beep', 0.0, -845.6335479776321, 0.0, 0.0, 0.0, 0.0, -7764.414878417836, 0.0]
['beep', 0.0, -832.9154053825624, 0.0, 0.0, 0.0, 0.0, -7779.837582091997, 0.0]
['beep', 0.0, -830.8813966371295, 0.0, 0.0, 0.0, 0.0, -7777.088317523995, 0.0]
['beep', 0.0, -842.6160624761657, 0.0, 0.0, 0.0, 0.0, -7759.832770804498, 0.0]
['beep', 0.0, -852.0037951473946, 0.0, 0.0, 0.0, 0.0, -7751.9426050117745, 0.0]
['beep', 0.0, -845.5441409998109, 0.0, 0.0, 0.0, 0.0, -7763.409049917347, 0.0]
['beep', 0.0, -832.3119082822691, 0.0, 0.0, 0.0, 0.0, -7779.994044303185, 0.0]
['beep', 0.0, -830.6131757036658, 0.0, 0.0, 0.0, 0.0, -7780.01639604764, 0.0]
['beep', 0.0, -842.3925450316126, 0.0, 0.0, 0.0, 0.0, -7761.397392916369, 0.0]
['beep', 0.0, -852.249664336403, 0.0, 0.0, 0.0, 0.0, -7751.786142800587, 0.0]
['beep', 0.0, -845.9464724000064, 0.0, 0.0, 0.0, 0.0, -7764.39252667338, 0.0]
['beep', 0.0, -832.1330943266266, 0.0, 0.0, 0.0, 0.0, -7780.508134425657, 0.0]
['beep', 0.0, -830.5237687258445, 0.0, 0.0, 0.0, 0.0, -7778.451773935769, 0.0]
['beep', 0.0, -843.1301525986377, 0.0, 0.0, 0.0, 0.0, -7760.659785349344, 0.0]
['beep', 0.0, -852.249664336403, 0.0, 0.0, 0.0, 0.0, -7752.277881178604, 0.0]
['beep', 0.0, -844.895940410607, 0.0, 0.0, 0.0, 0.0, -7764.839561562487, 0.0]
['beep', 0.0, -833.5189024828557, 0.0, 0.0, 0.0, 0.0, -7780.5304861701115, 0.0]
['beep', 0.0, -831.0602105927719, 0.0, 0.0, 0.0, 0.0, -7779.815230347542, 0.0]
['beep', 0.0, -845.0971061107048, 0.0, 0.0, 0.0, 0.0, -7763.2749394506145, 0.0]
['beep', 0.0, -855.9153504270733, 0.0, 0.0, 0.0, 0.0, -7753.954262012752, 0.0]
['beep', 0.0, -847.7793154453416, 0.0, 0.0, 0.0, 0.0, -7765.577169129511, 0.0]
['beep', 0.0, -832.0436873488054, 0.0, 0.0, 0.0, 0.0, -7783.525619927123, 0.0]
['beep', 0.0, -830.702582681487, 0.0, 0.0, 0.0, 0.0, -7782.743308871188, 0.0]
['beep', 0.0, -843.733649698931, 0.0, 0.0, 0.0, 0.0, -7764.347823184469, 0.0]
['beep', 0.0, -852.4061265475901, 0.0, 0.0, 0.0, 0.0, -7754.4683521352235, 0.0]
['beep', 0.0, -846.572321244755, 0.0, 0.0, 0.0, 0.0, -7766.203017974261, 0.0]
['beep', 0.0, -834.3235652832467, 0.0, 0.0, 0.0, 0.0, -7784.240875749693, 0.0]
['beep', 0.0, -830.5684722147552, 0.0, 0.0, 0.0, 0.0, -7782.698605382277, 0.0]
['beep', 0.0, -842.6831177095315, 0.0, 0.0, 0.0, 0.0, -7764.906616795853, 0.0]
['beep', 0.0, -852.4731817809561, 0.0, 0.0, 0.0, 0.0, -7755.183607957793, 0.0]
['beep', 0.0, -846.9970043894058, 0.0, 0.0, 0.0, 0.0, -7767.275901708115, 0.0]
['beep', 0.0, -832.4683704934563, 0.0, 0.0, 0.0, 0.0, -7785.313759483548, 0.0]
['beep', 0.0, -829.2273675474368, 0.0, 0.0, 0.0, 0.0, -7784.419689705335, 0.0]
['beep', 0.0, -842.6384142206209, 0.0, 0.0, 0.0, 0.0, -7766.180666229805, 0.0]
['beep', 0.0, -853.3225480702578, 0.0, 0.0, 0.0, 0.0, -7756.971747514218, 0.0]
['beep', 0.0, -847.0640596227718, 0.0, 0.0, 0.0, 0.0, -7768.460544164246, 0.0]
['beep', 0.0, -834.3012135387914, 0.0, 0.0, 0.0, 0.0, -7784.576151916523, 0.0]
['beep', 0.0, -831.1943210595037, 0.0, 0.0, 0.0, 0.0, -7783.927951327319, 0.0]
['beep', 0.0, -841.766696186864, 0.0, 0.0, 0.0, 0.0, -7765.599520873967, 0.0]
['beep', 0.0, -852.02614689185, 0.0, 0.0, 0.0, 0.0, -7756.3458986694695, 0.0]
['beep', 0.0, -847.0193561338612, 0.0, 0.0, 0.0, 0.0, -7768.72876509771, 0.0]
['beep', 0.0, -831.4625419929674, 0.0, 0.0, 0.0, 0.0, -7784.822021105531, 0.0]
['beep', 0.0, -827.4168762465569, 0.0, 0.0, 0.0, 0.0, -7784.665558894344, 0.0]
['beep', 0.0, -839.5762252302438, 0.0, 0.0, 0.0, 0.0, -7767.588826130489, 0.0]
['beep', 0.0, -849.4780480239449, 0.0, 0.0, 0.0, 0.0, -7756.703526580754, 0.0]
['beep', 0.0, -843.733649698931, 0.0, 0.0, 0.0, 0.0, -7766.515942396634, 0.0]
['beep', 0.0, -830.9708036149507, 0.0, 0.0, 0.0, 0.0, -7783.011529804651, 0.0]
['beep', 0.0, -827.5509867132887, 0.0, 0.0, 0.0, 0.0, -7784.889076338897, 0.0]
['beep', 0.0, -839.7773909303417, 0.0, 0.0, 0.0, 0.0, -7767.432363919302, 0.0]
['beep', 0.0, -848.9192544125623, 0.0, 0.0, 0.0, 0.0, -7757.418782403324, 0.0]
['beep', 0.0, -843.8007049322969, 0.0, 0.0, 0.0, 0.0, -7770.651015120866, 0.0]
['beep', 0.0, -830.3449547702021, 0.0, 0.0, 0.0, 0.0, -7786.006663561662, 0.0]
['beep', 0.0, -828.73562916942, 0.0, 0.0, 0.0, 0.0, -7784.1067652829615, 0.0]
['beep', 0.0, -841.6772892090428, 0.0, 0.0, 0.0, 0.0, -7767.901750552864, 0.0]
['beep', 0.0, -850.4168212910678, 0.0, 0.0, 0.0, 0.0, -7757.239968447682, 0.0]
['beep', 0.0, -843.3983735321013, 0.0, 0.0, 0.0, 0.0, -7768.751116842165, 0.0]
['beep', 0.0, -829.9649751144618, 0.0, 0.0, 0.0, 0.0, -7787.146602528883, 0.0]
['beep', 0.0, -826.2098820459703, 0.0, 0.0, 0.0, 0.0, -7786.096070539484, 0.0]
['beep', 0.0, -837.2963472958025, 0.0, 0.0, 0.0, 0.0, -7766.225369718715, 0.0]
['beep', 0.0, -848.2263503344477, 0.0, 0.0, 0.0, 0.0, -7755.496532380168, 0.0]
['beep', 0.0, -842.1243240981489, 0.0, 0.0, 0.0, 0.0, -7768.617006375433, 0.0]
['beep', 0.0, -829.2944227808026, 0.0, 0.0, 0.0, 0.0, -7786.274884495126, 0.0]
['beep', 0.0, -827.9756698579396, 0.0, 0.0, 0.0, 0.0, -7784.9337798278075, 0.0]
['beep', 0.0, -839.2185973189589, 0.0, 0.0, 0.0, 0.0, -7767.141791241383, 0.0]
['beep', 0.0, -848.6733852235539, 0.0, 0.0, 0.0, 0.0, -7756.636471347389, 0.0]
['beep', 0.0, -843.2866148098249, 0.0, 0.0, 0.0, 0.0, -7767.231198219204, 0.0]
['beep', 0.0, -828.8697396361518, 0.0, 0.0, 0.0, 0.0, -7784.06206179405, 0.0]
['beep', 0.0, -826.3216407682468, 0.0, 0.0, 0.0, 0.0, -7784.151468771872, 0.0]
['beep', 0.0, -838.0339548628277, 0.0, 0.0, 0.0, 0.0, -7767.275901708115, 0.0]
['beep', 0.0, -847.8463706787074, 0.0, 0.0, 0.0, 0.0, -7757.418782403324, 0.0]
['beep', 0.0, -842.5043037538891, 0.0, 0.0, 0.0, 0.0, -7769.019337775629, 0.0]
['beep', 0.0, -828.7132774249646, 0.0, 0.0, 0.0, 0.0, -7787.638340906899, 0.0]
['beep', 0.0, -826.3216407682468, 0.0, 0.0, 0.0, 0.0, -7788.308893240559, 0.0]
['beep', 0.0, -836.6034432176881, 0.0, 0.0, 0.0, 0.0, -7769.667538364833, 0.0]
['beep', 0.0, -846.1699898445595, 0.0, 0.0, 0.0, 0.0, -7757.955224270252, 0.0]
['beep', 0.0, -842.5937107317103, 0.0, 0.0, 0.0, 0.0, -7767.700584852766, 0.0]
['beep', 0.0, -831.1719693150484, 0.0, 0.0, 0.0, 0.0, -7784.620855405433, 0.0]
['beep', 0.0, -826.3663442571574, 0.0, 0.0, 0.0, 0.0, -7786.364291472947, 0.0]
['beep', 0.0, -838.0116031183724, 0.0, 0.0, 0.0, 0.0, -7769.041689520084, 0.0]
['beep', 0.0, -848.829847434741, 0.0, 0.0, 0.0, 0.0, -7760.01158476014, 0.0]
['beep', 0.0, -844.314795054769, 0.0, 0.0, 0.0, 0.0, -7774.182590744805, 0.0]
['beep', 0.0, -831.9766321154395, 0.0, 0.0, 0.0, 0.0, -7788.711224640754, 0.0]
['beep', 0.0, -828.0650768357608, 0.0, 0.0, 0.0, 0.0, -7787.571285673534, 0.0]
['beep', 0.0, -839.6432804636098, 0.0, 0.0, 0.0, 0.0, -7769.444020920279, 0.0]
['beep', 0.0, -850.3050625687913, 0.0, 0.0, 0.0, 0.0, -7759.743363826677, 0.0]
['beep', 0.0, -845.1641613440706, 0.0, 0.0, 0.0, 0.0, -7770.494552909679, 0.0]
['beep', 0.0, -831.6860594375205, 0.0, 0.0, 0.0, 0.0, -7788.375948473925, 0.0]
['beep', 0.0, -828.3109460247691, 0.0, 0.0, 0.0, 0.0, -7787.9289135848185, 0.0]
['beep', 0.0, -838.346879285202, 0.0, 0.0, 0.0, 0.0, -7770.1369249983945, 0.0]
['beep', 0.0, -849.0533648792941, 0.0, 0.0, 0.0, 0.0, -7760.01158476014, 0.0]
['beep', 0.0, -844.6500712215986, 0.0, 0.0, 0.0, 0.0, -7771.120401754428, 0.0]
['beep', 0.0, -831.4848937374227, 0.0, 0.0, 0.0, 0.0, -7788.241838007193, 0.0]
['beep', 0.0, -827.8192076467524, 0.0, 0.0, 0.0, 0.0, -7789.1582595298605, 0.0]
['beep', 0.0, -838.9950798744059, 0.0, 0.0, 0.0, 0.0, -7770.651015120866, 0.0]
['beep', 0.0, -849.4780480239449, 0.0, 0.0, 0.0, 0.0, -7759.899826037864, 0.0]
['beep', 0.0, -844.8735886661517, 0.0, 0.0, 0.0, 0.0, -7771.232160476704, 0.0]
['beep', 0.0, -830.3449547702021, 0.0, 0.0, 0.0, 0.0, -7789.381776974414, 0.0]
['beep', 0.0, -828.3780012581351, 0.0, 0.0, 0.0, 0.0, -7788.443003707291, 0.0]
['beep', 0.0, -839.8891496526181, 0.0, 0.0, 0.0, 0.0, -7770.002814531662, 0.0]
['beep', 0.0, -848.9192544125623, 0.0, 0.0, 0.0, 0.0, -7760.1009917379615, 0.0]
['beep', 0.0, -844.4265537770456, 0.0, 0.0, 0.0, 0.0, -7769.734593598198, 0.0]
['beep', 0.0, -832.0213356043502, 0.0, 0.0, 0.0, 0.0, -7785.693739139288, 0.0]
['beep', 0.0, -827.9086146245736, 0.0, 0.0, 0.0, 0.0, -7786.029015306118, 0.0]
['beep', 0.0, -838.4809897519339, 0.0, 0.0, 0.0, 0.0, -7769.734593598198, 0.0]
['beep', 0.0, -848.4498677790008, 0.0, 0.0, 0.0, 0.0, -7760.816247560531, 0.0]
['beep', 0.0, -844.4936090104114, 0.0, 0.0, 0.0, 0.0, -7769.689890109288, 0.0]
['beep', 0.0, -832.3789635156351, 0.0, 0.0, 0.0, 0.0, -7787.414823462346, 0.0]
['beep', 0.0, -828.8473878916965, 0.0, 0.0, 0.0, 0.0, -7787.839506606997, 0.0]
['beep', 0.0, -840.4926467529115, 0.0, 0.0, 0.0, 0.0, -7770.159276742849, 0.0]
['beep', 0.0, -850.0368416353276, 0.0, 0.0, 0.0, 0.0, -7760.637433604888, 0.0]
['beep', 0.0, -844.9182921550623, 0.0, 0.0, 0.0, 0.0, -7771.098050009972, 0.0]
['beep', 0.0, -831.797818159797, 0.0, 0.0, 0.0, 0.0, -7786.92308508433, 0.0]
['beep', 0.0, -829.0038501028837, 0.0, 0.0, 0.0, 0.0, -7788.711224640754, 0.0]
['beep', 0.0, -840.3361845417244, 0.0, 0.0, 0.0, 0.0, -7771.366270943436, 0.0]
['beep', 0.0, -852.0484986363052, 0.0, 0.0, 0.0, 0.0, -7758.983404515196, 0.0]
['beep', 0.0, -849.7462689574086, 0.0, 0.0, 0.0, 0.0, -7769.8463523204755, 0.0]
['beep', 0.0, -836.4246292620456, 0.0, 0.0, 0.0, 0.0, -7788.2194862627375, 0.0]
['beep', 0.0, -831.6413559486099, 0.0, 0.0, 0.0, 0.0, -7789.11355604095, 0.0]
['beep', 0.0, -841.9008066535959, 0.0, 0.0, 0.0, 0.0, -7771.969768043729, 0.0]
['beep', 0.0, -851.7132224694756, 0.0, 0.0, 0.0, 0.0, -7759.408087659846, 0.0]
['beep', 0.0, -847.8016671897968, 0.0, 0.0, 0.0, 0.0, -7770.494552909679, 0.0]
['beep', 0.0, -834.9941176169059, 0.0, 0.0, 0.0, 0.0, -7789.1582595298605, 0.0]
['beep', 0.0, -829.3391262697132, 0.0, 0.0, 0.0, 0.0, -7788.73357638521, 0.0]
['beep', 0.0, -840.4032397750902, 0.0, 0.0, 0.0, 0.0, -7771.165105243338, 0.0]
['beep', 0.0, -851.4897050249225, 0.0, 0.0, 0.0, 0.0, -7760.05628824905, 0.0]
['beep', 0.0, -847.667556723065, 0.0, 0.0, 0.0, 0.0, -7769.332262198003, 0.0]
['beep', 0.0, -834.8376554057188, 0.0, 0.0, 0.0, 0.0, -7787.884210095908, 0.0]
['beep', 0.0, -831.7084111819757, 0.0, 0.0, 0.0, 0.0, -7788.800631618576, 0.0]
['beep', 0.0, -842.1243240981489, 0.0, 0.0, 0.0, 0.0, -7770.896884309875, 0.0]
['beep', 0.0, -851.8026294472968, 0.0, 0.0, 0.0, 0.0, -7756.971747514218, 0.0]
['beep', 0.0, -849.0086613903835, 0.0, 0.0, 0.0, 0.0, -7765.755983085154, 0.0]
['beep', 0.0, -835.1729315725484, 0.0, 0.0, 0.0, 0.0, -7784.263227494148, 0.0]
['beep', 0.0, -830.9708036149507, 0.0, 0.0, 0.0, 0.0, -7785.604332161467, 0.0]
['beep', 0.0, -842.8842834096293, 0.0, 0.0, 0.0, 0.0, -7769.15344824236, 0.0]
['beep', 0.0, -853.5907690037214, 0.0, 0.0, 0.0, 0.0, -7757.061154492039, 0.0]
['beep', 0.0, -846.9523009004952, 0.0, 0.0, 0.0, 0.0, -7765.018375518129, 0.0]
['beep', 0.0, -833.8988821385959, 0.0, 0.0, 0.0, 0.0, -7781.983349559707, 0.0]
['beep', 0.0, -830.6802309370316, 0.0, 0.0, 0.0, 0.0, -7782.318625726537, 0.0]
['beep', 0.0, -840.8502746641964, 0.0, 0.0, 0.0, 0.0, -7764.593692373478, 0.0]
['beep', 0.0, -851.6238154916543, 0.0, 0.0, 0.0, 0.0, -7752.188474200782, 0.0]
['beep', 0.0, -848.1816468455371, 0.0, 0.0, 0.0, 0.0, -7763.811381317542, 0.0]
['beep', 0.0, -833.9435856275065, 0.0, 0.0, 0.0, 0.0, -7782.050404793073, 0.0]
['beep', 0.0, -828.6015187026882, 0.0, 0.0, 0.0, 0.0, -7781.960997815251, 0.0]
['beep', 0.0, -839.1515420855931, 0.0, 0.0, 0.0, 0.0, -7763.565512128534, 0.0]
['beep', 0.0, -851.31089106928, 0.0, 0.0, 0.0, 0.0, -7752.277881178604, 0.0]
['beep', 0.0, -848.7851439458304, 0.0, 0.0, 0.0, 0.0, -7762.246759205671, 0.0]
['beep', 0.0, -835.2399868059143, 0.0, 0.0, 0.0, 0.0, -7779.278788480615, 0.0]
['beep', 0.0, -830.0096786033724, 0.0, 0.0, 0.0, 0.0, -7781.625721648422, 0.0]
['beep', 0.0, -842.1690275870595, 0.0, 0.0, 0.0, 0.0, -7763.341994683981, 0.0]
['beep', 0.0, -852.1826091030371, 0.0, 0.0, 0.0, 0.0, -7751.8308462894975, 0.0]
['beep', 0.0, -849.6345102351321, 0.0, 0.0, 0.0, 0.0, -7762.336166183492, 0.0]
['beep', 0.0, -837.2739955513473, 0.0, 0.0, 0.0, 0.0, -7780.664596636844, 0.0]
['beep', 0.0, -832.6471844490987, 0.0, 0.0, 0.0, 0.0, -7781.804535604065, 0.0]
['beep', 0.0, -843.2419113209143, 0.0, 0.0, 0.0, 0.0, -7764.526637140112, 0.0]
['beep', 0.0, -853.4566585369896, 0.0, 0.0, 0.0, 0.0, -7754.87068353542, 0.0]
['beep', 0.0, -849.7462689574086, 0.0, 0.0, 0.0, 0.0, -7763.9231400398185, 0.0]
['beep', 0.0, -836.7599054288752, 0.0, 0.0, 0.0, 0.0, -7781.960997815251, 0.0]
['beep', 0.0, -831.9542803709842, 0.0, 0.0, 0.0, 0.0, -7783.972654816229, 0.0]
['beep', 0.0, -842.3031380537914, 0.0, 0.0, 0.0, 0.0, -7767.342956941481, 0.0]
['beep', 0.0, -852.2049608474924, 0.0, 0.0, 0.0, 0.0, -7755.2283114467045, 0.0]
['beep', 0.0, -848.539274756822, 0.0, 0.0, 0.0, 0.0, -7764.616044117934, 0.0]
['beep', 0.0, -834.8153036612634, 0.0, 0.0, 0.0, 0.0, -7783.525619927123, 0.0]
['beep', 0.0, -829.8085129032747, 0.0, 0.0, 0.0, 0.0, -7785.313759483548, 0.0]
['beep', 0.0, -841.2526060643919, 0.0, 0.0, 0.0, 0.0, -7766.873570307919, 0.0]
['beep', 0.0, -851.6908707250203, 0.0, 0.0, 0.0, 0.0, -7754.4683521352235, 0.0]
['beep', 0.0, -848.1592951010819, 0.0, 0.0, 0.0, 0.0, -7764.571340629022, 0.0]
['beep', 0.0, -834.7706001723528, 0.0, 0.0, 0.0, 0.0, -7782.631550148911, 0.0]
['beep', 0.0, -832.3119082822691, 0.0, 0.0, 0.0, 0.0, -7784.844372849986, 0.0]
['beep', 0.0, -843.7560014433863, 0.0, 0.0, 0.0, 0.0, -7767.745288341676, 0.0]
['beep', 0.0, -854.7530597153974, 0.0, 0.0, 0.0, 0.0, -7756.882340536397, 0.0]
['beep', 0.0, -851.31089106928, 0.0, 0.0, 0.0, 0.0, -7766.940625541285, 0.0]
['beep', 0.0, -837.6763269515428, 0.0, 0.0, 0.0, 0.0, -7785.581980417011, 0.0]
['beep', 0.0, -833.5636059717663, 0.0, 0.0, 0.0, 0.0, -7787.705396140265, 0.0]
['beep', 0.0, -843.9348153990288, 0.0, 0.0, 0.0, 0.0, -7772.1932854882825, 0.0]
['beep', 0.0, -853.7472312149085, 0.0, 0.0, 0.0, 0.0, -7761.531503383101, 0.0]
['beep', 0.0, -851.1991323470036, 0.0, 0.0, 0.0, 0.0, -7771.589788387989, 0.0]
['beep', 0.0, -836.7152019399646, 0.0, 0.0, 0.0, 0.0, -7789.962922330252, 0.0]
['beep', 0.0, -831.507245481878, 0.0, 0.0, 0.0, 0.0, -7791.30402699757, 0.0]
['beep', 0.0, -842.1019723536936, 0.0, 0.0, 0.0, 0.0, -7775.411936689847, 0.0]
['beep', 0.0, -853.7472312149085, 0.0, 0.0, 0.0, 0.0, -7764.638395862388, 0.0]
['beep', 0.0, -849.9697864019616, 0.0, 0.0, 0.0, 0.0, -7773.266169222137, 0.0]
['beep', 0.0, -837.1175333401601, 0.0, 0.0, 0.0, 0.0, -7789.404128718869, 0.0]
['beep', 0.0, -832.3342600267245, 0.0, 0.0, 0.0, 0.0, -7791.885172353408, 0.0]
['beep', 0.0, -841.5208269978556, 0.0, 0.0, 0.0, 0.0, -7775.791916345587, 0.0]
['beep', 0.0, -854.21661784847, 0.0, 0.0, 0.0, 0.0, -7763.319642939526, 0.0]
['beep', 0.0, -850.6850422245315, 0.0, 0.0, 0.0, 0.0, -7773.422631433325, 0.0]
['beep', 0.0, -836.4469810065009, 0.0, 0.0, 0.0, 0.0, -7790.856992108464, 0.0]
['beep', 0.0, -831.0825623372272, 0.0, 0.0, 0.0, 0.0, -7793.49449795419, 0.0]
['beep', 0.0, -841.0290886198388, 0.0, 0.0, 0.0, 0.0, -7778.272959980126, 0.0]
['beep', 0.0, -852.2943678253137, 0.0, 0.0, 0.0, 0.0, -7767.387660430391, 0.0]
['beep', 0.0, -848.9639579014729, 0.0, 0.0, 0.0, 0.0, -7775.411936689847, 0.0]
['beep', 0.0, -836.312870539769, 0.0, 0.0, 0.0, 0.0, -7792.689835153799, 0.0]
['beep', 0.0, -830.5461204702998, 0.0, 0.0, 0.0, 0.0, -7794.679140410321, 0.0]
['beep', 0.0, -840.2914810528138, 0.0, 0.0, 0.0, 0.0, -7778.675291380321, 0.0]
['beep', 0.0, -851.4226497915566, 0.0, 0.0, 0.0, 0.0, -7766.359480185447, 0.0]
['beep', 0.0, -848.2710538233583, 0.0, 0.0, 0.0, 0.0, -7774.942550056286, 0.0]
['beep', 0.0, -834.1000478386936, 0.0, 0.0, 0.0, 0.0, -7793.7403671431985, 0.0]
['beep', 0.0, -829.316774525258, 0.0, 0.0, 0.0, 0.0, -7796.154355544371, 0.0]
['beep', 0.0, -840.313832797269, 0.0, 0.0, 0.0, 0.0, -7779.658768136355, 0.0]
['beep', 0.0, -851.1991323470036, 0.0, 0.0, 0.0, 0.0, -7766.627701118911, 0.0]
['beep', 0.0, -847.8463706787074, 0.0, 0.0, 0.0, 0.0, -7774.115535511439, 0.0]
['beep', 0.0, -834.5917862167104, 0.0, 0.0, 0.0, 0.0, -7794.522678199134, 0.0]
['beep', 0.0, -830.121437325649, 0.0, 0.0, 0.0, 0.0, -7797.249591022682, 0.0]
['beep', 0.0, -840.8055711752858, 0.0, 0.0, 0.0, 0.0, -7779.055271036062, 0.0]
['beep', 0.0, -852.1379056141265, 0.0, 0.0, 0.0, 0.0, -7766.158314485349, 0.0]
['beep', 0.0, -850.8638561801739, 0.0, 0.0, 0.0, 0.0, -7776.082489023506, 0.0]
['beep', 0.0, -835.4635042504674, 0.0, 0.0, 0.0, 0.0, -7795.237934021704, 0.0]
['beep', 0.0, -830.5684722147552, 0.0, 0.0, 0.0, 0.0, -7797.271942767137, 0.0]
['beep', 0.0, -841.6325857201322, 0.0, 0.0, 0.0, 0.0, -7779.323491969525, 0.0]
['beep', 0.0, -853.0766788812493, 0.0, 0.0, 0.0, 0.0, -7768.415840675336, 0.0]
['beep', 0.0, -848.6733852235539, 0.0, 0.0, 0.0, 0.0, -7777.647111135378, 0.0]
['beep', 0.0, -834.5247309833445, 0.0, 0.0, 0.0, 0.0, -7795.997893333184, 0.0]
['beep', 0.0, -829.7191059254535, 0.0, 0.0, 0.0, 0.0, -7798.389529989902, 0.0]
['beep', 0.0, -838.9503763854952, 0.0, 0.0, 0.0, 0.0, -7781.022224548129, 0.0]
['beep', 0.0, -848.3828125456349, 0.0, 0.0, 0.0, 0.0, -7766.873570307919, 0.0]
['beep', 0.0, -843.8007049322969, 0.0, 0.0, 0.0, 0.0, -7775.590750645489, 0.0]
['beep', 0.0, -830.9708036149507, 0.0, 0.0, 0.0, 0.0, -7793.516849698645, 0.0]
['beep', 0.0, -830.6131757036658, 0.0, 0.0, 0.0, 0.0, -7795.550858444079, 0.0]
['beep', 0.0, -844.8288851772411, 0.0, 0.0, 0.0, 0.0, -7778.854105335964, 0.0]
['beep', 0.0, -859.5586847732884, 0.0, 0.0, 0.0, 0.0, -7767.946454041774, 0.0]
['beep', 0.0, -859.8716091956627, 0.0, 0.0, 0.0, 0.0, -7778.988215802696, 0.0]
['beep', 0.0, -850.8191526912633, 0.0, 0.0, 0.0, 0.0, -7798.389529989902, 0.0]
['beep', 0.0, -850.7297457134421, 0.0, 0.0, 0.0, 0.0, -7802.25638178067, 0.0]
['beep', 0.0, -861.9950249189169, 0.0, 0.0, 0.0, 0.0, -7785.269055994637, 0.0]
['beep', 0.0, -872.41093783509, 0.0, 0.0, 0.0, 0.0, -7772.059175021551, 0.0]
['beep', 0.0, -867.6276645216542, 0.0, 0.0, 0.0, 0.0, -7780.686948381299, 0.0]
['beep', 0.0, -853.411955048079, 0.0, 0.0, 0.0, 0.0, -7799.395358490391, 0.0]
['beep', 0.0, -848.4945712679114, 0.0, 0.0, 0.0, 0.0, -7803.038692836606, 0.0]
['beep', 0.0, -858.4634492949783, 0.0, 0.0, 0.0, 0.0, -7786.1631257728495, 0.0]
['beep', 0.0, -870.4663360674782, 0.0, 0.0, 0.0, 0.0, -7773.243817477682, 0.0]
['beep', 0.0, -868.1864581330369, 0.0, 0.0, 0.0, 0.0, -7781.4692594372345, 0.0]
['beep', 0.0, -853.4790102814449, 0.0, 0.0, 0.0, 0.0, -7799.954152101774, 0.0]
['beep', 0.0, -846.8852456671293, 0.0, 0.0, 0.0, 0.0, -7803.061044581062, 0.0]
['beep', 0.0, -857.6587864945873, 0.0, 0.0, 0.0, 0.0, -7786.498401939679, 0.0]
['beep', 0.0, -870.60044653421, 0.0, 0.0, 0.0, 0.0, -7774.2496459781705, 0.0]
['beep', 0.0, -869.2593418668916, 0.0, 0.0, 0.0, 0.0, -7782.296273982081, 0.0]
['beep', 0.0, -857.4799725389448, 0.0, 0.0, 0.0, 0.0, -7802.278733525126, 0.0]
['beep', 0.0, -851.1097253691823, 0.0, 0.0, 0.0, 0.0, -7807.084358583017, 0.0]
['beep', 0.0, -860.9668446739728, 0.0, 0.0, 0.0, 0.0, -7787.526582184623, 0.0]
['beep', 0.0, -870.6227982786654, 0.0, 0.0, 0.0, 0.0, -7775.300177967571, 0.0]
['beep', 0.0, -867.895885455118, 0.0, 0.0, 0.0, 0.0, -7783.413861204846, 0.0]
['beep', 0.0, -855.7588882158861, 0.0, 0.0, 0.0, 0.0, -7800.9599806022625, 0.0]
['beep', 0.0, -849.9697864019616, 0.0, 0.0, 0.0, 0.0, -7804.424500992835, 0.0]
['beep', 0.0, -860.1174783846711, 0.0, 0.0, 0.0, 0.0, -7789.8064601190645, 0.0]
['beep', 0.0, -871.6733302680648, 0.0, 0.0, 0.0, 0.0, -7776.462468679246, 0.0]
['beep', 0.0, -868.7452517444196, 0.0, 0.0, 0.0, 0.0, -7784.263227494148, 0.0]
['beep', 0.0, -856.9211789275622, 0.0, 0.0, 0.0, 0.0, -7802.703416669777, 0.0]
['beep', 0.0, -851.8473329362075, 0.0, 0.0, 0.0, 0.0, -7805.787957404609, 0.0]
['beep', 0.0, -860.765678973875, 0.0, 0.0, 0.0, 0.0, -7791.125213041928, 0.0]
['beep', 0.0, -871.8521442237073, 0.0, 0.0, 0.0, 0.0, -7778.585884402501, 0.0]
['beep', 0.0, -871.6956820125201, 0.0, 0.0, 0.0, 0.0, -7785.000835061173, 0.0]
['beep', 0.0, -858.1281731281488, 0.0, 0.0, 0.0, 0.0, -7802.97163760324, 0.0]
['beep', 0.0, -850.506228268889, 0.0, 0.0, 0.0, 0.0, -7806.637323693911, 0.0]
['beep', 0.0, -860.7880307183303, 0.0, 0.0, 0.0, 0.0, -7789.895867096886, 0.0]
['beep', 0.0, -874.4896500694335, 0.0, 0.0, 0.0, 0.0, -7775.814268090042, 0.0]
['beep', 0.0, -872.3885860906347, 0.0, 0.0, 0.0, 0.0, -7785.425518205824, 0.0]
['beep', 0.0, -859.1116498841823, 0.0, 0.0, 0.0, 0.0, -7803.932762614819, 0.0]
['beep', 0.0, -853.7919347038192, 0.0, 0.0, 0.0, 0.0, -7806.793785905098, 0.0]
['beep', 0.0, -865.2583796093917, 0.0, 0.0, 0.0, 0.0, -7791.125213041928, 0.0]
['beep', 0.0, -879.3399786162352, 0.0, 0.0, 0.0, 0.0, -7779.748175114176, 0.0]
['beep', 0.0, -872.4779930684559, 0.0, 0.0, 0.0, 0.0, -7786.096070539484, 0.0]
['beep', 0.0, -853.5013620259002, 0.0, 0.0, 0.0, 0.0, -7799.440061979301, 0.0]
['beep', 0.0, -842.3701932871572, 0.0, 0.0, 0.0, 0.0, -7799.976503846229, 0.0]
['beep', 0.0, -847.8910741676182, 0.0, 0.0, 0.0, 0.0, -7781.44690769278, 0.0]
['beep', 0.0, -858.7093184839867, 0.0, 0.0, 0.0, 0.0, -7766.761811585643, 0.0]
['beep', 0.0, -856.1165161271712, 0.0, 0.0, 0.0, 0.0, -7775.8366198344975, 0.0]
['beep', 0.0, -841.6772892090428, 0.0, 0.0, 0.0, 0.0, -7793.963884587752, 0.0]
['beep', 0.0, -835.2846902948249, 0.0, 0.0, 0.0, 0.0, -7796.824907878031, 0.0]
['beep', 0.0, -843.152504343093, 0.0, 0.0, 0.0, 0.0, -7781.513962926146, 0.0]
['beep', 0.0, -855.2671498378694, 0.0, 0.0, 0.0, 0.0, -7768.035861019595, 0.0]
['beep', 0.0, -853.8366381927298, 0.0, 0.0, 0.0, 0.0, -7775.166067500838, 0.0]
['beep', 0.0, -839.3080042967802, 0.0, 0.0, 0.0, 0.0, -7794.388567732402, 0.0]
['beep', 0.0, -831.4178385040568, 0.0, 0.0, 0.0, 0.0, -7799.887096868408, 0.0]
['beep', 0.0, -840.8502746641964, 0.0, 0.0, 0.0, 0.0, -7785.179649016816, 0.0]
['beep', 0.0, -853.411955048079, 0.0, 0.0, 0.0, 0.0, -7771.030994776606, 0.0]
['beep', 0.0, -852.8755131811516, 0.0, 0.0, 0.0, 0.0, -7776.9542070572625, 0.0]
['beep', 0.0, -839.5985769746992, 0.0, 0.0, 0.0, 0.0, -7796.646093922388, 0.0]
['beep', 0.0, -832.4013152600903, 0.0, 0.0, 0.0, 0.0, -7802.122271313939, 0.0]
['beep', 0.0, -839.7997426747969, 0.0, 0.0, 0.0, 0.0, -7784.73261412771, 0.0]
['beep', 0.0, -851.7355742139309, 0.0, 0.0, 0.0, 0.0, -7771.500381410168, 0.0]
['beep', 0.0, -850.506228268889, 0.0, 0.0, 0.0, 0.0, -7780.262265236648, 0.0]
['beep', 0.0, -836.6481467065987, 0.0, 0.0, 0.0, 0.0, -7797.607218933967, 0.0]
['beep', 0.0, -830.2778995368361, 0.0, 0.0, 0.0, 0.0, -7800.691759668799, 0.0]
['beep', 0.0, -839.6656322080651, 0.0, 0.0, 0.0, 0.0, -7783.726785627221, 0.0]
['beep', 0.0, -851.2438358359142, 0.0, 0.0, 0.0, 0.0, -7770.069869765029, 0.0]
['beep', 0.0, -849.9027311685958, 0.0, 0.0, 0.0, 0.0, -7780.865762336942, 0.0]
['beep', 0.0, -834.860007150174, 0.0, 0.0, 0.0, 0.0, -7799.551820701578, 0.0]
['beep', 0.0, -829.6744024365429, 0.0, 0.0, 0.0, 0.0, -7802.770471903143, 0.0]
['beep', 0.0, -840.2020740749925, 0.0, 0.0, 0.0, 0.0, -7786.833678106508, 0.0]
['beep', 0.0, -850.8862079246293, 0.0, 0.0, 0.0, 0.0, -7772.148581999372, 0.0]
['beep', 0.0, -849.0980683682047, 0.0, 0.0, 0.0, 0.0, -7779.1223262694275, 0.0]
['beep', 0.0, -837.0728298512495, 0.0, 0.0, 0.0, 0.0, -7798.389529989902, 0.0]
['beep', 0.0, -831.1272658261378, 0.0, 0.0, 0.0, 0.0, -7802.703416669777, 0.0]
['beep', 0.0, -840.1797223305372, 0.0, 0.0, 0.0, 0.0, -7788.822983363031, 0.0]
['beep', 0.0, -853.3225480702578, 0.0, 0.0, 0.0, 0.0, -7774.428459933813, 0.0]
['beep', 0.0, -851.7355742139309, 0.0, 0.0, 0.0, 0.0, -7781.1786867593155, 0.0]
['beep', 0.0, -838.8833211521294, 0.0, 0.0, 0.0, 0.0, -7799.8423933794975, 0.0]
['beep', 0.0, -832.5354257268222, 0.0, 0.0, 0.0, 0.0, -7802.368140502947, 0.0]
['beep', 0.0, -840.8279229197411, 0.0, 0.0, 0.0, 0.0, -7786.5878089175, 0.0]
['beep', 0.0, -853.5460655148108, 0.0, 0.0, 0.0, 0.0, -7773.266169222137, 0.0]
['beep', 0.0, -852.0037951473946, 0.0, 0.0, 0.0, 0.0, -7780.664596636844, 0.0]
['beep', 0.0, -838.5033414963891, 0.0, 0.0, 0.0, 0.0, -7800.937628857807, 0.0]
['beep', 0.0, -833.3624402716686, 0.0, 0.0, 0.0, 0.0, -7806.369102760447, 0.0]
['beep', 0.0, -841.476123508945, 0.0, 0.0, 0.0, 0.0, -7791.527544442123, 0.0]
['beep', 0.0, -852.8531614366963, 0.0, 0.0, 0.0, 0.0, -7774.808439589553, 0.0]
['beep', 0.0, -851.959091658484, 0.0, 0.0, 0.0, 0.0, -7780.686948381299, 0.0]
['beep', 0.0, -840.4255915195456, 0.0, 0.0, 0.0, 0.0, -7799.73063465722, 0.0]
['beep', 0.0, -833.5189024828557, 0.0, 0.0, 0.0, 0.0, -7805.765605660154, 0.0]
['beep', 0.0, -843.085449109727, 0.0, 0.0, 0.0, 0.0, -7789.627646163422, 0.0]
['beep', 0.0, -854.7754114598526, 0.0, 0.0, 0.0, 0.0, -7774.808439589553, 0.0]
['beep', 0.0, -852.6966992255092, 0.0, 0.0, 0.0, 0.0, -7782.2292187487155, 0.0]
['beep', 0.0, -840.3585362861796, 0.0, 0.0, 0.0, 0.0, -7802.055216080573, 0.0]
['beep', 0.0, -834.2565100498808, 0.0, 0.0, 0.0, 0.0, -7806.033826593617, 0.0]
['beep', 0.0, -843.2419113209143, 0.0, 0.0, 0.0, 0.0, -7791.415785719846, 0.0]
['beep', 0.0, -854.0825073817382, 0.0, 0.0, 0.0, 0.0, -7776.663634379343, 0.0]
['beep', 0.0, -852.3614230586795, 0.0, 0.0, 0.0, 0.0, -7781.625721648422, 0.0]
['beep', 0.0, -840.4032397750902, 0.0, 0.0, 0.0, 0.0, -7799.104785812472, 0.0]
['beep', 0.0, -831.3507832706908, 0.0, 0.0, 0.0, 0.0, -7805.251515537681, 0.0]
['beep', 0.0, -836.4916844954115, 0.0, 0.0, 0.0, 0.0, -7788.934742085307, 0.0]
['beep', 0.0, -848.6510334790986, 0.0, 0.0, 0.0, 0.0, -7772.8414860774865, 0.0]
['beep', 0.0, -847.9357776565288, 0.0, 0.0, 0.0, 0.0, -7779.055271036062, 0.0]
['beep', 0.0, -836.4693327509563, 0.0, 0.0, 0.0, 0.0, -7797.763681145154, 0.0]
['beep', 0.0, -829.3838297586238, 0.0, 0.0, 0.0, 0.0, -7804.335094015014, 0.0]
['beep', 0.0, -837.542216484811, 0.0, 0.0, 0.0, 0.0, -7789.135907785405, 0.0]
['beep', 0.0, -850.1933038465147, 0.0, 0.0, 0.0, 0.0, -7775.523695412123, 0.0]
['beep', 0.0, -850.2827108243359, 0.0, 0.0, 0.0, 0.0, -7781.2904454815925, 0.0]
['beep', 0.0, -837.4081060180791, 0.0, 0.0, 0.0, 0.0, -7798.322474756536, 0.0]
['beep', 0.0, -831.2613762928696, 0.0, 0.0, 0.0, 0.0, -7804.0668730815505, 0.0]
['beep', 0.0, -840.0009083748947, 0.0, 0.0, 0.0, 0.0, -7790.20879151926, 0.0]
['beep', 0.0, -852.7861062033304, 0.0, 0.0, 0.0, 0.0, -7775.546047156578, 0.0]
['beep', 0.0, -852.4731817809561, 0.0, 0.0, 0.0, 0.0, -7779.658768136355, 0.0]
['beep', 0.0, -840.1573705860819, 0.0, 0.0, 0.0, 0.0, -7798.680102667821, 0.0]
['beep', 0.0, -833.0942193382049, 0.0, 0.0, 0.0, 0.0, -7804.7150736707545, 0.0]
['beep', 0.0, -839.0174316188612, 0.0, 0.0, 0.0, 0.0, -7788.957093829763, 0.0]
['beep', 0.0, -851.7355742139309, 0.0, 0.0, 0.0, 0.0, -7775.210770989749, 0.0]
['beep', 0.0, -850.6850422245315, 0.0, 0.0, 0.0, 0.0, -7781.4692594372345, 0.0]
['beep', 0.0, -837.7880856738193, 0.0, 0.0, 0.0, 0.0, -7798.009550334162, 0.0]
['beep', 0.0, -832.1330943266266, 0.0, 0.0, 0.0, 0.0, -7803.597486447989, 0.0]
['beep', 0.0, -841.4090682755791, 0.0, 0.0, 0.0, 0.0, -7788.06302405155, 0.0]
['beep', 0.0, -852.6296439921432, 0.0, 0.0, 0.0, 0.0, -7774.808439589553, 0.0]
['beep', 0.0, -852.8755131811516, 0.0, 0.0, 0.0, 0.0, -7780.686948381299, 0.0]
['beep', 0.0, -840.380888030635, 0.0, 0.0, 0.0, 0.0, -7799.104785812472, 0.0]
['beep', 0.0, -833.4294955050344, 0.0, 0.0, 0.0, 0.0, -7804.603314948477, 0.0]
['beep', 0.0, -841.7890479313193, 0.0, 0.0, 0.0, 0.0, -7789.940570585796, 0.0]
['beep', 0.0, -854.7083562264868, 0.0, 0.0, 0.0, 0.0, -7775.702509367766, 0.0]
['beep', 0.0, -855.2224463489588, 0.0, 0.0, 0.0, 0.0, -7782.1174600264385, 0.0]
['beep', 0.0, -842.1690275870595, 0.0, 0.0, 0.0, 0.0, -7800.0212073351395, 0.0]
['beep', 0.0, -833.0942193382049, 0.0, 0.0, 0.0, 0.0, -7805.609143448966, 0.0]
['beep', 0.0, -842.7725246873528, 0.0, 0.0, 0.0, 0.0, -7790.63347466391, 0.0]
['beep', 0.0, -855.0436323933163, 0.0, 0.0, 0.0, 0.0, -7776.373061701425, 0.0]
['beep', 0.0, -853.6354724926321, 0.0, 0.0, 0.0, 0.0, -7780.9998728036735, 0.0]
['beep', 0.0, -839.7997426747969, 0.0, 0.0, 0.0, 0.0, -7799.8423933794975, 0.0]
['beep', 0.0, -833.0718675937495, 0.0, 0.0, 0.0, 0.0, -7806.614971949455, 0.0]
['beep', 0.0, -842.5937107317103, 0.0, 0.0, 0.0, 0.0, -7791.393433975391, 0.0]
['beep', 0.0, -855.1106876266823, 0.0, 0.0, 0.0, 0.0, -7776.484820423701, 0.0]
['beep', 0.0, -852.9202166700622, 0.0, 0.0, 0.0, 0.0, -7782.698605382277, 0.0]
['beep', 0.0, -840.2244258194478, 0.0, 0.0, 0.0, 0.0, -7801.205849791271, 0.0]
['beep', 0.0, -834.8823588946294, 0.0, 0.0, 0.0, 0.0, -7806.816137649553, 0.0]
['beep', 0.0, -844.538312499322, 0.0, 0.0, 0.0, 0.0, -7792.689835153799, 0.0]
['beep', 0.0, -856.0941643827158, 0.0, 0.0, 0.0, 0.0, -7777.7141663687435, 0.0]
['beep', 0.0, -855.8706469381627, 0.0, 0.0, 0.0, 0.0, -7780.955169314763, 0.0]
['beep', 0.0, -843.5101322543779, 0.0, 0.0, 0.0, 0.0, -7799.663579423855, 0.0]
['beep', 0.0, -834.6588414500764, 0.0, 0.0, 0.0, 0.0, -7806.92789637183, 0.0]
['beep', 0.0, -843.666594465565, 0.0, 0.0, 0.0, 0.0, -7792.198096775783, 0.0]
['beep', 0.0, -855.6694812380649, 0.0, 0.0, 0.0, 0.0, -7778.585884402501, 0.0]
['beep', 0.0, -853.9036934260957, 0.0, 0.0, 0.0, 0.0, -7783.704433882765, 0.0]
['beep', 0.0, -842.7278211984421, 0.0, 0.0, 0.0, 0.0, -7800.378835246424, 0.0]
['beep', 0.0, -836.312870539769, 0.0, 0.0, 0.0, 0.0, -7807.889021383407, 0.0]
['beep', 0.0, -842.9736903874506, 0.0, 0.0, 0.0, 0.0, -7792.511021198156, 0.0]
['beep', 0.0, -854.8648184376739, 0.0, 0.0, 0.0, 0.0, -7775.970730301229, 0.0]
['beep', 0.0, -856.4964957829113, 0.0, 0.0, 0.0, 0.0, -7781.4692594372345, 0.0]
['beep', 0.0, -842.92898689854, 0.0, 0.0, 0.0, 0.0, -7800.244724779693, 0.0]
['beep', 0.0, -835.7987804172969, 0.0, 0.0, 0.0, 0.0, -7807.732559172221, 0.0]
['beep', 0.0, -844.0018706323947, 0.0, 0.0, 0.0, 0.0, -7793.82977412102, 0.0]
['beep', 0.0, -855.7141847269755, 0.0, 0.0, 0.0, 0.0, -7778.742346613687, 0.0]
['beep', 0.0, -857.1670481165705, 0.0, 0.0, 0.0, 0.0, -7784.330282727514, 0.0]
['beep', 0.0, -844.4489055215008, 0.0, 0.0, 0.0, 0.0, -7801.49642246919, 0.0]
['beep', 0.0, -836.4469810065009, 0.0, 0.0, 0.0, 0.0, -7807.441986494302, 0.0]
['beep', 0.0, -844.0465741213053, 0.0, 0.0, 0.0, 0.0, -7792.555724687068, 0.0]
['beep', 0.0, -857.0105859053834, 0.0, 0.0, 0.0, 0.0, -7776.864800079442, 0.0]
['beep', 0.0, -857.1446963721153, 0.0, 0.0, 0.0, 0.0, -7782.4080327043575, 0.0]
['beep', 0.0, -845.2312165774366, 0.0, 0.0, 0.0, 0.0, -7801.004684091174, 0.0]
['beep', 0.0, -837.8774926516405, 0.0, 0.0, 0.0, 0.0, -7808.336056272514, 0.0]
['beep', 0.0, -845.0971061107048, 0.0, 0.0, 0.0, 0.0, -7794.813250877053, 0.0]
['beep', 0.0, -857.7705452168639, 0.0, 0.0, 0.0, 0.0, -7778.719994869232, 0.0]
['beep', 0.0, -858.9328359285398, 0.0, 0.0, 0.0, 0.0, -7783.883247838408, 0.0]
['beep', 0.0, -847.3322805562354, 0.0, 0.0, 0.0, 0.0, -7802.882230625419, 0.0]
['beep', 0.0, -839.6432804636098, 0.0, 0.0, 0.0, 0.0, -7807.330227772025, 0.0]
['beep', 0.0, -847.667556723065, 0.0, 0.0, 0.0, 0.0, -7791.639303164399, 0.0]
['beep', 0.0, -859.4916295399224, 0.0, 0.0, 0.0, 0.0, -7776.440116934791, 0.0]
['beep', 0.0, -859.379870817646, 0.0, 0.0, 0.0, 0.0, -7782.676253637822, 0.0]
['beep', 0.0, -847.3546323006907, 0.0, 0.0, 0.0, 0.0, -7801.652884680377, 0.0]
['beep', 0.0, -838.9503763854952, 0.0, 0.0, 0.0, 0.0, -7807.5313934721225, 0.0]
['beep', 0.0, -847.1087631116824, 0.0, 0.0, 0.0, 0.0, -7793.203925276271, 0.0]
['beep', 0.0, -858.7763737173526, 0.0, 0.0, 0.0, 0.0, -7777.624759390922, 0.0]
['beep', 0.0, -858.6646149950761, 0.0, 0.0, 0.0, 0.0, -7782.698605382277, 0.0]
['beep', 0.0, -847.3546323006907, 0.0, 0.0, 0.0, 0.0, -7801.138794557905, 0.0]
['beep', 0.0, -838.6598037075763, 0.0, 0.0, 0.0, 0.0, -7808.492518483701, 0.0]
['beep', 0.0, -846.0582311222829, 0.0, 0.0, 0.0, 0.0, -7795.237934021704, 0.0]
['beep', 0.0, -859.7598504733861, 0.0, 0.0, 0.0, 0.0, -7779.345843713981, 0.0]
['beep', 0.0, -859.8492574512074, 0.0, 0.0, 0.0, 0.0, -7782.8774193379195, 0.0]
['beep', 0.0, -847.0640596227718, 0.0, 0.0, 0.0, 0.0, -7802.949285858785, 0.0]
['beep', 0.0, -838.123361840649, 0.0, 0.0, 0.0, 0.0, -7810.012437106662, 0.0]
['beep', 0.0, -846.8852456671293, 0.0, 0.0, 0.0, 0.0, -7793.673311909833, 0.0]
['beep', 0.0, -857.8599521946851, 0.0, 0.0, 0.0, 0.0, -7778.87645708042, 0.0]
['beep', 0.0, -858.6199115061655, 0.0, 0.0, 0.0, 0.0, -7782.92212282683, 0.0]
['beep', 0.0, -848.8074956902857, 0.0, 0.0, 0.0, 0.0, -7801.742291658198, 0.0]
['beep', 0.0, -841.4537717644897, 0.0, 0.0, 0.0, 0.0, -7807.620800449944, 0.0]
['beep', 0.0, -848.5169230123668, 0.0, 0.0, 0.0, 0.0, -7792.578076431522, 0.0]
['beep', 0.0, -861.6821004965426, 0.0, 0.0, 0.0, 0.0, -7777.267131479637, 0.0]
['beep', 0.0, -861.056251651794, 0.0, 0.0, 0.0, 0.0, -7782.363329215447, 0.0]
['beep', 0.0, -848.2710538233583, 0.0, 0.0, 0.0, 0.0, -7800.870573624441, 0.0]
['beep', 0.0, -839.9115013970735, 0.0, 0.0, 0.0, 0.0, -7808.559573717067, 0.0]
['beep', 0.0, -846.348803800202, 0.0, 0.0, 0.0, 0.0, -7793.7403671431985, 0.0]
['beep', 0.0, -858.798725461808, 0.0, 0.0, 0.0, 0.0, -7778.027090791117, 0.0]
['beep', 0.0, -860.3186440847688, 0.0, 0.0, 0.0, 0.0, -7782.765660615642, 0.0]
['beep', 0.0, -848.7180887124645, 0.0, 0.0, 0.0, 0.0, -7802.099919569483, 0.0]
['beep', 0.0, -841.185550831026, 0.0, 0.0, 0.0, 0.0, -7811.331190029525, 0.0]
['beep', 0.0, -848.606329990188, 0.0, 0.0, 0.0, 0.0, -7795.550858444079, 0.0]
['beep', 0.0, -861.1903621185259, 0.0, 0.0, 0.0, 0.0, -7778.608236146955, 0.0]
['beep', 0.0, -862.3303010857464, 0.0, 0.0, 0.0, 0.0, -7783.6373786494, 0.0]
['beep', 0.0, -849.7239172129533, 0.0, 0.0, 0.0, 0.0, -7802.546954458589, 0.0]
['beep', 0.0, -841.0290886198388, 0.0, 0.0, 0.0, 0.0, -7809.744216173198, 0.0]
['beep', 0.0, -847.4887427674225, 0.0, 0.0, 0.0, 0.0, -7794.120346798939, 0.0]
['beep', 0.0, -860.4527545515007, 0.0, 0.0, 0.0, 0.0, -7777.44594543528, 0.0]
['beep', 0.0, -860.0057196623945, 0.0, 0.0, 0.0, 0.0, -7781.156335014861, 0.0]
['beep', 0.0, -846.862893922674, 0.0, 0.0, 0.0, 0.0, -7801.004684091174, 0.0]
['beep', 0.0, -838.6598037075763, 0.0, 0.0, 0.0, 0.0, -7808.134890572416, 0.0]
['beep', 0.0, -846.4158590335678, 0.0, 0.0, 0.0, 0.0, -7793.0921665539945, 0.0]
['beep', 0.0, -859.5139812843778, 0.0, 0.0, 0.0, 0.0, -7776.01543379014, 0.0]
['beep', 0.0, -860.2292371069476, 0.0, 0.0, 0.0, 0.0, -7780.441079192291, 0.0]
['beep', 0.0, -847.7793154453416, 0.0, 0.0, 0.0, 0.0, -7797.3166462560475, 0.0]
['beep', 0.0, -838.6821554520316, 0.0, 0.0, 0.0, 0.0, -7804.35744575947, 0.0]
['beep', 0.0, -846.3264520557466, 0.0, 0.0, 0.0, 0.0, -7791.907524097864, 0.0]
['beep', 0.0, -859.022242906361, 0.0, 0.0, 0.0, 0.0, -7776.931855312808, 0.0]
['beep', 0.0, -860.989196418428, 0.0, 0.0, 0.0, 0.0, -7780.575189659023, 0.0]
['beep', 0.0, -849.0757166237494, 0.0, 0.0, 0.0, 0.0, -7799.060082323562, 0.0]
['beep', 0.0, -839.5985769746992, 0.0, 0.0, 0.0, 0.0, -7807.866669638953, 0.0]
['beep', 0.0, -847.3322805562354, 0.0, 0.0, 0.0, 0.0, -7795.752024144176, 0.0]
['beep', 0.0, -860.184533618037, 0.0, 0.0, 0.0, 0.0, -7779.994044303185, 0.0]
['beep', 0.0, -859.8269057067521, 0.0, 0.0, 0.0, 0.0, -7783.592675160489, 0.0]
['beep', 0.0, -848.3828125456349, 0.0, 0.0, 0.0, 0.0, -7799.484765468213, 0.0]
['beep', 0.0, -838.9950798744059, 0.0, 0.0, 0.0, 0.0, -7810.303009784581, 0.0]
['beep', 0.0, -847.3769840451461, 0.0, 0.0, 0.0, 0.0, -7797.674274167332, 0.0]
['beep', 0.0, -861.6821004965426, 0.0, 0.0, 0.0, 0.0, -7779.099974524972, 0.0]
['beep', 0.0, -862.3079493412912, 0.0, 0.0, 0.0, 0.0, -7782.2292187487155, 0.0]
['beep', 0.0, -850.7520974578974, 0.0, 0.0, 0.0, 0.0, -7800.512945713156, 0.0]
['beep', 0.0, -843.0407456208164, 0.0, 0.0, 0.0, 0.0, -7810.101844084484, 0.0]
['beep', 0.0, -850.9532631579951, 0.0, 0.0, 0.0, 0.0, -7795.528506699623, 0.0]
['beep', 0.0, -863.2243708639587, 0.0, 0.0, 0.0, 0.0, -7779.211733247249, 0.0]
['beep', 0.0, -864.3419580867242, 0.0, 0.0, 0.0, 0.0, -7782.653901893366, 0.0]
['beep', 0.0, -853.2554928368918, 0.0, 0.0, 0.0, 0.0, -7800.736463157709, 0.0]
['beep', 0.0, -843.9348153990288, 0.0, 0.0, 0.0, 0.0, -7810.235954551215, 0.0]
['beep', 0.0, -851.1991323470036, 0.0, 0.0, 0.0, 0.0, -7795.863782866452, 0.0]
['beep', 0.0, -864.5207720423666, 0.0, 0.0, 0.0, 0.0, -7779.1223262694275, 0.0]
['beep', 0.0, -866.1077458986933, 0.0, 0.0, 0.0, 0.0, -7783.033881549107, 0.0]
['beep', 0.0, -853.0990306257047, 0.0, 0.0, 0.0, 0.0, -7802.792823647598, 0.0]
['beep', 0.0, -844.7394781994199, 0.0, 0.0, 0.0, 0.0, -7808.514870228157, 0.0]
['beep', 0.0, -852.5178852698667, 0.0, 0.0, 0.0, 0.0, -7793.7403671431985, 0.0]
['beep', 0.0, -866.375966832157, 0.0, 0.0, 0.0, 0.0, -7778.496477424679, 0.0]
['beep', 0.0, -866.2642081098805, 0.0, 0.0, 0.0, 0.0, -7781.737480370699, 0.0]
['beep', 0.0, -853.4790102814449, 0.0, 0.0, 0.0, 0.0, -7798.791861390097, 0.0]
['beep', 0.0, -844.0912776102159, 0.0, 0.0, 0.0, 0.0, -7805.49738472669, 0.0]
['beep', 0.0, -850.1933038465147, 0.0, 0.0, 0.0, 0.0, -7793.516849698645, 0.0]
['beep', 0.0, -862.3973563191124, 0.0, 0.0, 0.0, 0.0, -7776.283654723604, 0.0]
['beep', 0.0, -864.3419580867242, 0.0, 0.0, 0.0, 0.0, -7779.167029758339, 0.0]
['beep', 0.0, -851.6908707250203, 0.0, 0.0, 0.0, 0.0, -7799.238896279204, 0.0]
['beep', 0.0, -840.894978153107, 0.0, 0.0, 0.0, 0.0, -7808.1795940613265, 0.0]
['beep', 0.0, -848.5839782457326, 0.0, 0.0, 0.0, 0.0, -7796.690797411299, 0.0]
['beep', 0.0, -862.3079493412912, 0.0, 0.0, 0.0, 0.0, -7781.692776881788, 0.0]
['beep', 0.0, -862.2408941079252, 0.0, 0.0, 0.0, 0.0, -7783.033881549107, 0.0]
['beep', 0.0, -848.7404404569198, 0.0, 0.0, 0.0, 0.0, -7799.171841045838, 0.0]
['beep', 0.0, -839.9115013970735, 0.0, 0.0, 0.0, 0.0, -7808.9395533728075, 0.0]
['beep', 0.0, -846.8852456671293, 0.0, 0.0, 0.0, 0.0, -7796.489631711202, 0.0]
['beep', 0.0, -858.9104841840845, 0.0, 0.0, 0.0, 0.0, -7778.988215802696, 0.0]
['beep', 0.0, -859.8939609401181, 0.0, 0.0, 0.0, 0.0, -7782.1174600264385, 0.0]
['beep', 0.0, -848.8521991791963, 0.0, 0.0, 0.0, 0.0, -7800.088262568505, 0.0]
['beep', 0.0, -840.3361845417244, 0.0, 0.0, 0.0, 0.0, -7809.4089400063685, 0.0]
['beep', 0.0, -846.8181904337633, 0.0, 0.0, 0.0, 0.0, -7797.003721833673, 0.0]
['beep', 0.0, -859.7151469844755, 0.0, 0.0, 0.0, 0.0, -7780.821058848031, 0.0]
['beep', 0.0, -861.5256382853554, 0.0, 0.0, 0.0, 0.0, -7783.659730393855, 0.0]
['beep', 0.0, -850.796800946808, 0.0, 0.0, 0.0, 0.0, -7802.479899225224, 0.0]
['beep', 0.0, -841.2749578088473, 0.0, 0.0, 0.0, 0.0, -7811.957038874274, 0.0]
['beep', 0.0, -846.572321244755, 0.0, 0.0, 0.0, 0.0, -7796.668445666844, 0.0]
['beep', 0.0, -860.2962923403136, 0.0, 0.0, 0.0, 0.0, -7777.557704157556, 0.0]
['beep', 0.0, -861.3021208408023, 0.0, 0.0, 0.0, 0.0, -7780.39637570338, 0.0]
['beep', 0.0, -849.2321788349366, 0.0, 0.0, 0.0, 0.0, -7800.647056179889, 0.0]
['beep', 0.0, -841.1408473421154, 0.0, 0.0, 0.0, 0.0, -7808.961905117262, 0.0]
['beep', 0.0, -846.9523009004952, 0.0, 0.0, 0.0, 0.0, -7796.981370089218, 0.0]
['beep', 0.0, -859.3575190731906, 0.0, 0.0, 0.0, 0.0, -7779.390547202891, 0.0]
['beep', 0.0, -862.0397284078275, 0.0, 0.0, 0.0, 0.0, -7781.849239092975, 0.0]
['beep', 0.0, -850.506228268889, 0.0, 0.0, 0.0, 0.0, -7798.143660800894, 0.0]
['beep', 0.0, -840.4032397750902, 0.0, 0.0, 0.0, 0.0, -7806.994951605196, 0.0]
['beep', 0.0, -846.6840799670315, 0.0, 0.0, 0.0, 0.0, -7796.556686944567, 0.0]
['beep', 0.0, -859.8492574512074, 0.0, 0.0, 0.0, 0.0, -7779.547009414078, 0.0]
['beep', 0.0, -860.4080510625901, 0.0, 0.0, 0.0, 0.0, -7780.664596636844, 0.0]
['beep', 0.0, -850.3721178021572, 0.0, 0.0, 0.0, 0.0, -7797.987198589707, 0.0]
['beep', 0.0, -841.8337514202299, 0.0, 0.0, 0.0, 0.0, -7806.7714341606425, 0.0]
['beep', 0.0, -846.6617282225762, 0.0, 0.0, 0.0, 0.0, -7794.366215987947, 0.0]
['beep', 0.0, -860.6315685071431, 0.0, 0.0, 0.0, 0.0, -7778.094146024484, 0.0]
['beep', 0.0, -863.9843301754393, 0.0, 0.0, 0.0, 0.0, -7780.463430936746, 0.0]
['beep', 0.0, -850.9979666469058, 0.0, 0.0, 0.0, 0.0, -7799.507117212667, 0.0]
['beep', 0.0, -841.4984752534003, 0.0, 0.0, 0.0, 0.0, -7809.632457450922, 0.0]
['beep', 0.0, -848.0698881232606, 0.0, 0.0, 0.0, 0.0, -7796.981370089218, 0.0]
['beep', 0.0, -860.3409958292242, 0.0, 0.0, 0.0, 0.0, -7780.754003614665, 0.0]
['beep', 0.0, -862.5985220192101, 0.0, 0.0, 0.0, 0.0, -7782.832715849008, 0.0]
['beep', 0.0, -851.4450015360119, 0.0, 0.0, 0.0, 0.0, -7799.797689890586, 0.0]
['beep', 0.0, -841.9008066535959, 0.0, 0.0, 0.0, 0.0, -7808.693684183799, 0.0]
['beep', 0.0, -847.4663910229673, 0.0, 0.0, 0.0, 0.0, -7796.489631711202, 0.0]
['beep', 0.0, -861.0338999073387, 0.0, 0.0, 0.0, 0.0, -7778.049442535573, 0.0]
['beep', 0.0, -862.6432255081207, 0.0, 0.0, 0.0, 0.0, -7779.815230347542, 0.0]
['beep', 0.0, -850.3497660577019, 0.0, 0.0, 0.0, 0.0, -7800.468242224246, 0.0]
['beep', 0.0, -841.8561031646852, 0.0, 0.0, 0.0, 0.0, -7809.721864428743, 0.0]
['beep', 0.0, -847.9804811454394, 0.0, 0.0, 0.0, 0.0, -7796.44492822229, 0.0]
['beep', 0.0, -861.4138795630789, 0.0, 0.0, 0.0, 0.0, -7777.960035557751, 0.0]
['beep', 0.0, -864.5431237868219, 0.0, 0.0, 0.0, 0.0, -7779.234084991705, 0.0]
['beep', 0.0, -851.9143881695734, 0.0, 0.0, 0.0, 0.0, -7795.774375888632, 0.0]
['beep', 0.0, -841.9678618869617, 0.0, 0.0, 0.0, 0.0, -7805.027998093128, 0.0]
['beep', 0.0, -848.2934055678137, 0.0, 0.0, 0.0, 0.0, -7794.679140410321, 0.0]
['beep', 0.0, -860.5868650182325, 0.0, 0.0, 0.0, 0.0, -7778.563532658045, 0.0]
['beep', 0.0, -862.8443912082186, 0.0, 0.0, 0.0, 0.0, -7779.1223262694275, 0.0]
['beep', 0.0, -851.6014637471991, 0.0, 0.0, 0.0, 0.0, -7796.310817755559, 0.0]
['beep', 0.0, -842.0796206092383, 0.0, 0.0, 0.0, 0.0, -7806.682027182821, 0.0]
['beep', 0.0, -848.4051642900902, 0.0, 0.0, 0.0, 0.0, -7794.701492154777, 0.0]
['beep', 0.0, -862.0844318967381, 0.0, 0.0, 0.0, 0.0, -7778.6529396358665, 0.0]
['beep', 0.0, -863.1349638861375, 0.0, 0.0, 0.0, 0.0, -7779.837582091997, 0.0]
['beep', 0.0, -850.506228268889, 0.0, 0.0, 0.0, 0.0, -7796.109652055461, 0.0]
['beep', 0.0, -841.1184955976601, 0.0, 0.0, 0.0, 0.0, -7807.330227772025, 0.0]
['beep', 0.0, -845.767658444364, 0.0, 0.0, 0.0, 0.0, -7794.142698543394, 0.0]
['beep', 0.0, -859.4469260510118, 0.0, 0.0, 0.0, 0.0, -7778.272959980126, 0.0]
['beep', 0.0, -862.5314667858443, 0.0, 0.0, 0.0, 0.0, -7781.201038503771, 0.0]
['beep', 0.0, -850.5285800133444, 0.0, 0.0, 0.0, 0.0, -7797.629570678422, 0.0]
['beep', 0.0, -840.1126670971713, 0.0, 0.0, 0.0, 0.0, -7806.100881826983, 0.0]
['beep', 0.0, -846.1476381001041, 0.0, 0.0, 0.0, 0.0, -7792.891000853897, 0.0]
['beep', 0.0, -859.6704434955649, 0.0, 0.0, 0.0, 0.0, -7775.255474478659, 0.0]
['beep', 0.0, -861.860914452185, 0.0, 0.0, 0.0, 0.0, -7776.887151823897, 0.0]
['beep', 0.0, -850.3721178021572, 0.0, 0.0, 0.0, 0.0, -7794.925009599329, 0.0]
['beep', 0.0, -841.0290886198388, 0.0, 0.0, 0.0, 0.0, -7805.430329493324, 0.0]
