['beep', 0.0, -23.82695958935733, 0.0, 0.0, 0.0, 0.0, -28.409067202695276, 0.0]
['beep', 0.0, -23.804607844902023, 0.0, 0.0, 0.0, 0.0, -28.409067202695276, 0.0]
['beep', 0.0, -23.804607844902023, 0.0, 0.0, 0.0, 0.0, -28.431418947150583, 0.0]
['beep', 0.0, -23.82695958935733, 0.0, 0.0, 0.0, 0.0, -28.409067202695276, 0.0]
['beep', 0.0, -23.938718311633863, 0.0, 0.0, 0.0, 0.0, -28.31966022487405, 0.0]
['beep', 0.0, -23.871663078267943, 0.0, 0.0, 0.0, 0.0, -28.31966022487405, 0.0]
['beep', 0.0, -23.82695958935733, 0.0, 0.0, 0.0, 0.0, -28.409067202695276, 0.0]
['beep', 0.0, -23.849311333812636, 0.0, 0.0, 0.0, 0.0, -28.364363713784662, 0.0]
['beep', 0.0, -23.782256100446716, 0.0, 0.0, 0.0, 0.0, -28.38671545823997, 0.0]
['beep', 0.0, -23.82695958935733, 0.0, 0.0, 0.0, 0.0, -28.342011969329356, 0.0]
['beep', 0.0, -23.871663078267943, 0.0, 0.0, 0.0, 0.0, -28.364363713784662, 0.0]
['beep', 0.0, -23.82695958935733, 0.0, 0.0, 0.0, 0.0, -28.38671545823997, 0.0]
['beep', 0.0, -23.782256100446716, 0.0, 0.0, 0.0, 0.0, -28.364363713784662, 0.0]
['beep', 0.0, -23.849311333812636, 0.0, 0.0, 0.0, 0.0, -28.409067202695276, 0.0]
['beep', 0.0, -23.849311333812636, 0.0, 0.0, 0.0, 0.0, -28.409067202695276, 0.0]
['beep', 0.0, -23.849311333812636, 0.0, 0.0, 0.0, 0.0, -28.342011969329356, 0.0]
['beep', 0.0, -23.82695958935733, 0.0, 0.0, 0.0, 0.0, -28.364363713784662, 0.0]
['beep', 0.0, -23.804607844902023, 0.0, 0.0, 0.0, 0.0, -28.364363713784662, 0.0]
['beep', 0.0, -23.82695958935733, 0.0, 0.0, 0.0, 0.0, -28.364363713784662, 0.0]
['beep', 0.0, -23.849311333812636, 0.0, 0.0, 0.0, 0.0, -28.31966022487405, 0.0]
['beep', 0.0, -23.849311333812636, 0.0, 0.0, 0.0, 0.0, -28.342011969329356, 0.0]
['beep', 0.0, -23.849311333812636, 0.0, 0.0, 0.0, 0.0, -28.364363713784662, 0.0]
['beep', 0.0, -23.82695958935733, 0.0, 0.0, 0.0, 0.0, -28.38671545823997, 0.0]
['beep', 0.0, -23.849311333812636, 0.0, 0.0, 0.0, 0.0, -28.342011969329356, 0.0]
['beep', 0.0, -23.849311333812636, 0.0, 0.0, 0.0, 0.0, -28.31966022487405, 0.0]
['beep', 0.0, -23.849311333812636, 0.0, 0.0, 0.0, 0.0, -28.364363713784662, 0.0]
['beep', 0.0, -23.849311333812636, 0.0, 0.0, 0.0, 0.0, -28.364363713784662, 0.0]
['beep', 0.0, -23.89401482272325, 0.0, 0.0, 0.0, 0.0, -28.364363713784662, 0.0]
['beep', 0.0, -23.804607844902023, 0.0, 0.0, 0.0, 0.0, -28.364363713784662, 0.0]
['beep', 0.0, -23.849311333812636, 0.0, 0.0, 0.0, 0.0, -28.342011969329356, 0.0]
['beep', 0.0, -23.89401482272325, 0.0, 0.0, 0.0, 0.0, -28.364363713784662, 0.0]
['beep', 0.0, -23.82695958935733, 0.0, 0.0, 0.0, 0.0, -28.364363713784662, 0.0]
['beep', 0.0, -23.782256100446716, 0.0, 0.0, 0.0, 0.0, -28.342011969329356, 0.0]
['beep', 0.0, -23.82695958935733, 0.0, 0.0, 0.0, 0.0, -28.342011969329356, 0.0]
['beep', 0.0, -23.849311333812636, 0.0, 0.0, 0.0, 0.0, -28.364363713784662, 0.0]
['beep', 0.0, -23.849311333812636, 0.0, 0.0, 0.0, 0.0, -28.364363713784662, 0.0]
['beep', 0.0, -23.871663078267943, 0.0, 0.0, 0.0, 0.0, -28.364363713784662, 0.0]
['beep', 0.0, -23.82695958935733, 0.0, 0.0, 0.0, 0.0, -28.364363713784662, 0.0]
['beep', 0.0, -23.782256100446716, 0.0, 0.0, 0.0, 0.0, -28.409067202695276, 0.0]
['beep', 0.0, -23.849311333812636, 0.0, 0.0, 0.0, 0.0, -28.431418947150583, 0.0]
['beep', 0.0, -23.849311333812636, 0.0, 0.0, 0.0, 0.0, -28.409067202695276, 0.0]
['beep', 0.0, -23.82695958935733, 0.0, 0.0, 0.0, 0.0, -28.364363713784662, 0.0]
['beep', 0.0, -23.871663078267943, 0.0, 0.0, 0.0, 0.0, -28.31966022487405, 0.0]
['beep', 0.0, -23.849311333812636, 0.0, 0.0, 0.0, 0.0, -28.342011969329356, 0.0]
['beep', 0.0, -23.82695958935733, 0.0, 0.0, 0.0, 0.0, -28.342011969329356, 0.0]
['beep', 0.0, -23.871663078267943, 0.0, 0.0, 0.0, 0.0, -28.38671545823997, 0.0]
['beep', 0.0, -23.82695958935733, 0.0, 0.0, 0.0, 0.0, -28.342011969329356, 0.0]
['beep', 0.0, -23.782256100446716, 0.0, 0.0, 0.0, 0.0, -28.409067202695276, 0.0]
['beep', 0.0, -23.782256100446716, 0.0, 0.0, 0.0, 0.0, -28.409067202695276, 0.0]
['beep', 0.0, -23.871663078267943, 0.0, 0.0, 0.0, 0.0, -28.364363713784662, 0.0]
['beep', 0.0, -23.871663078267943, 0.0, 0.0, 0.0, 0.0, -28.38671545823997, 0.0]
['beep', 0.0, -23.849311333812636, 0.0, 0.0, 0.0, 0.0, -28.409067202695276, 0.0]
['beep', 0.0, -23.849311333812636, 0.0, 0.0, 0.0, 0.0, -28.342011969329356, 0.0]
['beep', 0.0, -23.75990435599141, 0.0, 0.0, 0.0, 0.0, -28.342011969329356, 0.0]
['beep', 0.0, -23.849311333812636, 0.0, 0.0, 0.0, 0.0, -28.364363713784662, 0.0]
['beep', 0.0, -23.82695958935733, 0.0, 0.0, 0.0, 0.0, -28.342011969329356, 0.0]
['beep', 0.0, -23.871663078267943, 0.0, 0.0, 0.0, 0.0, -28.38671545823997, 0.0]
['beep', 0.0, -23.871663078267943, 0.0, 0.0, 0.0, 0.0, -28.476122436061196, 0.0]
['beep', 0.0, -23.82695958935733, 0.0, 0.0, 0.0, 0.0, -28.38671545823997, 0.0]
['beep', 0.0, -23.849311333812636, 0.0, 0.0, 0.0, 0.0, -28.364363713784662, 0.0]
['beep', 0.0, -23.849311333812636, 0.0, 0.0, 0.0, 0.0, -28.31966022487405, 0.0]
['beep', 0.0, -23.849311333812636, 0.0, 0.0, 0.0, 0.0, -28.364363713784662, 0.0]
['beep', 0.0, -23.82695958935733, 0.0, 0.0, 0.0, 0.0, -28.409067202695276, 0.0]
['beep', 0.0, -23.82695958935733, 0.0, 0.0, 0.0, 0.0, -28.38671545823997, 0.0]
['beep', 0.0, -23.849311333812636, 0.0, 0.0, 0.0, 0.0, -28.31966022487405, 0.0]
['beep', 0.0, -23.75990435599141, 0.0, 0.0, 0.0, 0.0, -28.342011969329356, 0.0]
['beep', 0.0, -23.782256100446716, 0.0, 0.0, 0.0, 0.0, -28.342011969329356, 0.0]
['beep', 0.0, -23.82695958935733, 0.0, 0.0, 0.0, 0.0, -28.431418947150583, 0.0]
['beep', 0.0, -23.849311333812636, 0.0, 0.0, 0.0, 0.0, -28.409067202695276, 0.0]
['beep', 0.0, -23.849311333812636, 0.0, 0.0, 0.0, 0.0, -28.409067202695276, 0.0]
['beep', 0.0, -23.849311333812636, 0.0, 0.0, 0.0, 0.0, -28.364363713784662, 0.0]
['beep', 0.0, -23.849311333812636, 0.0, 0.0, 0.0, 0.0, -28.364363713784662, 0.0]
['beep', 0.0, -23.871663078267943, 0.0, 0.0, 0.0, 0.0, -28.364363713784662, 0.0]
['beep', 0.0, -23.849311333812636, 0.0, 0.0, 0.0, 0.0, -28.342011969329356, 0.0]
['beep', 0.0, -23.89401482272325, 0.0, 0.0, 0.0, 0.0, -28.38671545823997, 0.0]
['beep', 0.0, -23.849311333812636, 0.0, 0.0, 0.0, 0.0, -28.364363713784662, 0.0]
['beep', 0.0, -23.849311333812636, 0.0, 0.0, 0.0, 0.0, -28.409067202695276, 0.0]
['beep', 0.0, -23.849311333812636, 0.0, 0.0, 0.0, 0.0, -28.364363713784662, 0.0]
['beep', 0.0, -23.89401482272325, 0.0, 0.0, 0.0, 0.0, -28.364363713784662, 0.0]
['beep', 0.0, -23.89401482272325, 0.0, 0.0, 0.0, 0.0, -28.31966022487405, 0.0]
['beep', 0.0, -23.849311333812636, 0.0, 0.0, 0.0, 0.0, -28.364363713784662, 0.0]
['beep', 0.0, -23.89401482272325, 0.0, 0.0, 0.0, 0.0, -28.364363713784662, 0.0]
['beep', 0.0, -23.871663078267943, 0.0, 0.0, 0.0, 0.0, -28.364363713784662, 0.0]
['beep', 0.0, -23.82695958935733, 0.0, 0.0, 0.0, 0.0, -28.364363713784662, 0.0]
['beep', 0.0, -23.782256100446716, 0.0, 0.0, 0.0, 0.0, -28.409067202695276, 0.0]
['beep', 0.0, -23.782256100446716, 0.0, 0.0, 0.0, 0.0, -28.342011969329356, 0.0]
['beep', 0.0, -23.82695958935733, 0.0, 0.0, 0.0, 0.0, -28.364363713784662, 0.0]
['beep', 0.0, -23.82695958935733, 0.0, 0.0, 0.0, 0.0, -28.409067202695276, 0.0]
['beep', 0.0, -23.82695958935733, 0.0, 0.0, 0.0, 0.0, -28.409067202695276, 0.0]
['beep', 0.0, -23.82695958935733, 0.0, 0.0, 0.0, 0.0, -28.409067202695276, 0.0]
['beep', 0.0, -23.82695958935733, 0.0, 0.0, 0.0, 0.0, -28.38671545823997, 0.0]
['beep', 0.0, -23.82695958935733, 0.0, 0.0, 0.0, 0.0, -28.364363713784662, 0.0]
['beep', 0.0, -23.782256100446716, 0.0, 0.0, 0.0, 0.0, -28.409067202695276, 0.0]
['beep', 0.0, -23.804607844902023, 0.0, 0.0, 0.0, 0.0, -28.431418947150583, 0.0]
['beep', 0.0, -23.804607844902023, 0.0, 0.0, 0.0, 0.0, -28.38671545823997, 0.0]
['beep', 0.0, -23.782256100446716, 0.0, 0.0, 0.0, 0.0, -28.31966022487405, 0.0]
['beep', 0.0, -23.782256100446716, 0.0, 0.0, 0.0, 0.0, -28.31966022487405, 0.0]
['beep', 0.0, -23.82695958935733, 0.0, 0.0, 0.0, 0.0, -28.31966022487405, 0.0]
['beep', 0.0, -23.804607844902023, 0.0, 0.0, 0.0, 0.0, -28.297308480418742, 0.0]
['beep', 0.0, -23.804607844902023, 0.0, 0.0, 0.0, 0.0, -28.31966022487405, 0.0]
['beep', 0.0, -23.782256100446716, 0.0, 0.0, 0.0, 0.0, -28.364363713784662, 0.0]
['beep', 0.0, -23.82695958935733, 0.0, 0.0, 0.0, 0.0, -28.38671545823997, 0.0]
['beep', 0.0, -23.782256100446716, 0.0, 0.0, 0.0, 0.0, -28.38671545823997, 0.0]
['beep', 0.0, -23.782256100446716, 0.0, 0.0, 0.0, 0.0, -28.38671545823997, 0.0]
['beep', 0.0, -23.849311333812636, 0.0, 0.0, 0.0, 0.0, -28.409067202695276, 0.0]
['beep', 0.0, -23.89401482272325, 0.0, 0.0, 0.0, 0.0, -28.364363713784662, 0.0]
['beep', 0.0, -23.849311333812636, 0.0, 0.0, 0.0, 0.0, -28.38671545823997, 0.0]
['beep', 0.0, -23.82695958935733, 0.0, 0.0, 0.0, 0.0, -28.409067202695276, 0.0]
['beep', 0.0, -23.804607844902023, 0.0, 0.0, 0.0, 0.0, -28.364363713784662, 0.0]
['beep', 0.0, -23.804607844902023, 0.0, 0.0, 0.0, 0.0, -28.342011969329356, 0.0]
['beep', 0.0, -23.804607844902023, 0.0, 0.0, 0.0, 0.0, -28.31966022487405, 0.0]
['beep', 0.0, -23.849311333812636, 0.0, 0.0, 0.0, 0.0, -28.38671545823997, 0.0]
['beep', 0.0, -23.782256100446716, 0.0, 0.0, 0.0, 0.0, -28.364363713784662, 0.0]
['beep', 0.0, -23.804607844902023, 0.0, 0.0, 0.0, 0.0, -28.364363713784662, 0.0]
['beep', 0.0, -23.804607844902023, 0.0, 0.0, 0.0, 0.0, -28.342011969329356, 0.0]
['beep', 0.0, -23.82695958935733, 0.0, 0.0, 0.0, 0.0, -28.409067202695276, 0.0]
['beep', 0.0, -23.82695958935733, 0.0, 0.0, 0.0, 0.0, -28.476122436061196, 0.0]
['beep', 0.0, -23.82695958935733, 0.0, 0.0, 0.0, 0.0, -28.431418947150583, 0.0]
['beep', 0.0, -23.849311333812636, 0.0, 0.0, 0.0, 0.0, -28.409067202695276, 0.0]
['beep', 0.0, -23.804607844902023, 0.0, 0.0, 0.0, 0.0, -28.342011969329356, 0.0]
['beep', 0.0, -23.849311333812636, 0.0, 0.0, 0.0, 0.0, -28.297308480418742, 0.0]
['beep', 0.0, -23.849311333812636, 0.0, 0.0, 0.0, 0.0, -28.409067202695276, 0.0]
['beep', 0.0, -23.804607844902023, 0.0, 0.0, 0.0, 0.0, -28.409067202695276, 0.0]
['beep', 0.0, -23.782256100446716, 0.0, 0.0, 0.0, 0.0, -28.38671545823997, 0.0]
['beep', 0.0, -23.849311333812636, 0.0, 0.0, 0.0, 0.0, -28.364363713784662, 0.0]
['beep', 0.0, -23.849311333812636, 0.0, 0.0, 0.0, 0.0, -28.364363713784662, 0.0]
['beep', 0.0, -23.82695958935733, 0.0, 0.0, 0.0, 0.0, -28.364363713784662, 0.0]
['beep', 0.0, -23.849311333812636, 0.0, 0.0, 0.0, 0.0, -28.431418947150583, 0.0]
['beep', 0.0, -23.849311333812636, 0.0, 0.0, 0.0, 0.0, -28.364363713784662, 0.0]
['beep', 0.0, -23.82695958935733, 0.0, 0.0, 0.0, 0.0, -28.38671545823997, 0.0]
['beep', 0.0, -23.849311333812636, 0.0, 0.0, 0.0, 0.0, -28.364363713784662, 0.0]
['beep', 0.0, -23.849311333812636, 0.0, 0.0, 0.0, 0.0, -28.364363713784662, 0.0]
['beep', 0.0, -23.782256100446716, 0.0, 0.0, 0.0, 0.0, -28.409067202695276, 0.0]
['beep', 0.0, -23.82695958935733, 0.0, 0.0, 0.0, 0.0, -28.364363713784662, 0.0]
['beep', 0.0, -23.804607844902023, 0.0, 0.0, 0.0, 0.0, -28.31966022487405, 0.0]
['beep', 0.0, -23.82695958935733, 0.0, 0.0, 0.0, 0.0, -28.364363713784662, 0.0]
['beep', 0.0, -23.804607844902023, 0.0, 0.0, 0.0, 0.0, -28.38671545823997, 0.0]
['beep', 0.0, -23.82695958935733, 0.0, 0.0, 0.0, 0.0, -28.364363713784662, 0.0]
['beep', 0.0, -23.849311333812636, 0.0, 0.0, 0.0, 0.0, -28.342011969329356, 0.0]
['beep', 0.0, -23.849311333812636, 0.0, 0.0, 0.0, 0.0, -28.409067202695276, 0.0]
['beep', 0.0, -23.871663078267943, 0.0, 0.0, 0.0, 0.0, -28.409067202695276, 0.0]
['beep', 0.0, -23.89401482272325, 0.0, 0.0, 0.0, 0.0, -28.364363713784662, 0.0]
['beep', 0.0, -23.89401482272325, 0.0, 0.0, 0.0, 0.0, -28.364363713784662, 0.0]
['beep', 0.0, -23.82695958935733, 0.0, 0.0, 0.0, 0.0, -28.364363713784662, 0.0]
['beep', 0.0, -23.849311333812636, 0.0, 0.0, 0.0, 0.0, -28.342011969329356, 0.0]
['beep', 0.0, -23.804607844902023, 0.0, 0.0, 0.0, 0.0, -28.409067202695276, 0.0]
['beep', 0.0, -23.804607844902023, 0.0, 0.0, 0.0, 0.0, -28.38671545823997, 0.0]
['beep', 0.0, -23.82695958935733, 0.0, 0.0, 0.0, 0.0, -28.409067202695276, 0.0]
['beep', 0.0, -23.89401482272325, 0.0, 0.0, 0.0, 0.0, -28.364363713784662, 0.0]
['beep', 0.0, -23.89401482272325, 0.0, 0.0, 0.0, 0.0, -28.38671545823997, 0.0]
['beep', 0.0, -23.89401482272325, 0.0, 0.0, 0.0, 0.0, -28.409067202695276, 0.0]
['beep', 0.0, -23.916366567178557, 0.0, 0.0, 0.0, 0.0, -28.31966022487405, 0.0]
['beep', 0.0, -23.82695958935733, 0.0, 0.0, 0.0, 0.0, -28.364363713784662, 0.0]
['beep', 0.0, -23.849311333812636, 0.0, 0.0, 0.0, 0.0, -28.364363713784662, 0.0]
['beep', 0.0, -23.82695958935733, 0.0, 0.0, 0.0, 0.0, -28.364363713784662, 0.0]
['beep', 0.0, -23.82695958935733, 0.0, 0.0, 0.0, 0.0, -28.342011969329356, 0.0]
['beep', 0.0, -23.89401482272325, 0.0, 0.0, 0.0, 0.0, -28.297308480418742, 0.0]
['beep', 0.0, -23.938718311633863, 0.0, 0.0, 0.0, 0.0, -28.31966022487405, 0.0]
['beep', 0.0, -23.89401482272325, 0.0, 0.0, 0.0, 0.0, -28.38671545823997, 0.0]
['beep', 0.0, -23.849311333812636, 0.0, 0.0, 0.0, 0.0, -28.364363713784662, 0.0]
['beep', 0.0, -23.871663078267943, 0.0, 0.0, 0.0, 0.0, -28.342011969329356, 0.0]
['beep', 0.0, -23.849311333812636, 0.0, 0.0, 0.0, 0.0, -28.364363713784662, 0.0]
['beep', 0.0, -23.849311333812636, 0.0, 0.0, 0.0, 0.0, -28.342011969329356, 0.0]
['beep', 0.0, -23.849311333812636, 0.0, 0.0, 0.0, 0.0, -28.364363713784662, 0.0]
['beep', 0.0, -23.849311333812636, 0.0, 0.0, 0.0, 0.0, -28.364363713784662, 0.0]
['beep', 0.0, -23.89401482272325, 0.0, 0.0, 0.0, 0.0, -28.364363713784662, 0.0]
['beep', 0.0, -23.849311333812636, 0.0, 0.0, 0.0, 0.0, -28.38671545823997, 0.0]
['beep', 0.0, -23.871663078267943, 0.0, 0.0, 0.0, 0.0, -28.31966022487405, 0.0]
['beep', 0.0, -23.916366567178557, 0.0, 0.0, 0.0, 0.0, -28.342011969329356, 0.0]
['beep', 0.0, -23.849311333812636, 0.0, 0.0, 0.0, 0.0, -28.364363713784662, 0.0]
['beep', 0.0, -23.82695958935733, 0.0, 0.0, 0.0, 0.0, -28.409067202695276, 0.0]
['beep', 0.0, -23.89401482272325, 0.0, 0.0, 0.0, 0.0, -28.409067202695276, 0.0]
['beep', 0.0, -23.89401482272325, 0.0, 0.0, 0.0, 0.0, -28.38671545823997, 0.0]
['beep', 0.0, -23.82695958935733, 0.0, 0.0, 0.0, 0.0, -28.38671545823997, 0.0]
['beep', 0.0, -23.82695958935733, 0.0, 0.0, 0.0, 0.0, -28.364363713784662, 0.0]
['beep', 0.0, -23.804607844902023, 0.0, 0.0, 0.0, 0.0, -28.409067202695276, 0.0]
['beep', 0.0, -23.82695958935733, 0.0, 0.0, 0.0, 0.0, -28.38671545823997, 0.0]
['beep', 0.0, -23.89401482272325, 0.0, 0.0, 0.0, 0.0, -28.364363713784662, 0.0]
['beep', 0.0, -23.82695958935733, 0.0, 0.0, 0.0, 0.0, -28.38671545823997, 0.0]
['beep', 0.0, -23.82695958935733, 0.0, 0.0, 0.0, 0.0, -28.409067202695276, 0.0]
['beep', 0.0, -23.849311333812636, 0.0, 0.0, 0.0, 0.0, -28.364363713784662, 0.0]
['beep', 0.0, -23.89401482272325, 0.0, 0.0, 0.0, 0.0, -28.409067202695276, 0.0]
['beep', 0.0, -23.938718311633863, 0.0, 0.0, 0.0, 0.0, -28.409067202695276, 0.0]
['beep', 0.0, -23.916366567178557, 0.0, 0.0, 0.0, 0.0, -28.364363713784662, 0.0]
['beep', 0.0, -23.849311333812636, 0.0, 0.0, 0.0, 0.0, -28.342011969329356, 0.0]
['beep', 0.0, -23.849311333812636, 0.0, 0.0, 0.0, 0.0, -28.409067202695276, 0.0]
['beep', 0.0, -23.82695958935733, 0.0, 0.0, 0.0, 0.0, -28.364363713784662, 0.0]
['beep', 0.0, -23.804607844902023, 0.0, 0.0, 0.0, 0.0, -28.409067202695276, 0.0]
['beep', 0.0, -23.82695958935733, 0.0, 0.0, 0.0, 0.0, -28.409067202695276, 0.0]
['beep', 0.0, -23.82695958935733, 0.0, 0.0, 0.0, 0.0, -28.431418947150583, 0.0]
['beep', 0.0, -23.82695958935733, 0.0, 0.0, 0.0, 0.0, -28.409067202695276, 0.0]
['beep', 0.0, -23.849311333812636, 0.0, 0.0, 0.0, 0.0, -28.409067202695276, 0.0]
['beep', 0.0, -23.82695958935733, 0.0, 0.0, 0.0, 0.0, -28.409067202695276, 0.0]
['beep', 0.0, -23.849311333812636, 0.0, 0.0, 0.0, 0.0, -28.38671545823997, 0.0]
['beep', 0.0, -23.804607844902023, 0.0, 0.0, 0.0, 0.0, -28.431418947150583, 0.0]
['beep', 0.0, -23.804607844902023, 0.0, 0.0, 0.0, 0.0, -28.409067202695276, 0.0]
['beep', 0.0, -23.871663078267943, 0.0, 0.0, 0.0, 0.0, -28.364363713784662, 0.0]
['beep', 0.0, -23.871663078267943, 0.0, 0.0, 0.0, 0.0, -28.38671545823997, 0.0]
['beep', 0.0, -23.804607844902023, 0.0, 0.0, 0.0, 0.0, -28.38671545823997, 0.0]
['beep', 0.0, -23.871663078267943, 0.0, 0.0, 0.0, 0.0, -28.364363713784662, 0.0]
['beep', 0.0, -23.89401482272325, 0.0, 0.0, 0.0, 0.0, -28.31966022487405, 0.0]
['beep', 0.0, -23.89401482272325, 0.0, 0.0, 0.0, 0.0, -28.364363713784662, 0.0]
['beep', 0.0, -23.871663078267943, 0.0, 0.0, 0.0, 0.0, -28.364363713784662, 0.0]
['beep', 0.0, -23.849311333812636, 0.0, 0.0, 0.0, 0.0, -28.409067202695276, 0.0]
['beep', 0.0, -23.89401482272325, 0.0, 0.0, 0.0, 0.0, -28.431418947150583, 0.0]
['beep', 0.0, -23.89401482272325, 0.0, 0.0, 0.0, 0.0, -28.38671545823997, 0.0]
['beep', 0.0, -23.82695958935733, 0.0, 0.0, 0.0, 0.0, -28.409067202695276, 0.0]
['beep', 0.0, -23.82695958935733, 0.0, 0.0, 0.0, 0.0, -28.409067202695276, 0.0]
['beep', 0.0, -23.804607844902023, 0.0, 0.0, 0.0, 0.0, -28.431418947150583, 0.0]
['beep', 0.0, -23.82695958935733, 0.0, 0.0, 0.0, 0.0, -28.38671545823997, 0.0]
['beep', 0.0, -23.82695958935733, 0.0, 0.0, 0.0, 0.0, -28.364363713784662, 0.0]
['beep', 0.0, -23.849311333812636, 0.0, 0.0, 0.0, 0.0, -28.31966022487405, 0.0]
['beep', 0.0, -23.82695958935733, 0.0, 0.0, 0.0, 0.0, -28.342011969329356, 0.0]
['beep', 0.0, -23.82695958935733, 0.0, 0.0, 0.0, 0.0, -28.364363713784662, 0.0]
['beep', 0.0, -23.804607844902023, 0.0, 0.0, 0.0, 0.0, -28.364363713784662, 0.0]
['beep', 0.0, -23.849311333812636, 0.0, 0.0, 0.0, 0.0, -28.38671545823997, 0.0]
['beep', 0.0, -23.82695958935733, 0.0, 0.0, 0.0, 0.0, -28.364363713784662, 0.0]
['beep', 0.0, -23.849311333812636, 0.0, 0.0, 0.0, 0.0, -28.409067202695276, 0.0]
['beep', 0.0, -23.849311333812636, 0.0, 0.0, 0.0, 0.0, -28.409067202695276, 0.0]
['beep', 0.0, -23.82695958935733, 0.0, 0.0, 0.0, 0.0, -28.476122436061196, 0.0]
['beep', 0.0, -23.82695958935733, 0.0, 0.0, 0.0, 0.0, -28.431418947150583, 0.0]
['beep', 0.0, -23.82695958935733, 0.0, 0.0, 0.0, 0.0, -28.364363713784662, 0.0]
['beep', 0.0, -23.82695958935733, 0.0, 0.0, 0.0, 0.0, -28.364363713784662, 0.0]
['beep', 0.0, -23.82695958935733, 0.0, 0.0, 0.0, 0.0, -28.364363713784662, 0.0]
['beep', 0.0, -23.849311333812636, 0.0, 0.0, 0.0, 0.0, -28.364363713784662, 0.0]
['beep', 0.0, -23.938718311633863, 0.0, 0.0, 0.0, 0.0, -28.409067202695276, 0.0]
['beep', 0.0, -23.89401482272325, 0.0, 0.0, 0.0, 0.0, -28.409067202695276, 0.0]
['beep', 0.0, -23.849311333812636, 0.0, 0.0, 0.0, 0.0, -28.38671545823997, 0.0]
['beep', 0.0, -23.849311333812636, 0.0, 0.0, 0.0, 0.0, -28.364363713784662, 0.0]
['beep', 0.0, -23.89401482272325, 0.0, 0.0, 0.0, 0.0, -28.31966022487405, 0.0]
['beep', 0.0, -23.82695958935733, 0.0, 0.0, 0.0, 0.0, -28.38671545823997, 0.0]
['beep', 0.0, -23.849311333812636, 0.0, 0.0, 0.0, 0.0, -28.342011969329356, 0.0]
['beep', 0.0, -23.89401482272325, 0.0, 0.0, 0.0, 0.0, -28.31966022487405, 0.0]
['beep', 0.0, -23.871663078267943, 0.0, 0.0, 0.0, 0.0, -28.342011969329356, 0.0]
['beep', 0.0, -23.849311333812636, 0.0, 0.0, 0.0, 0.0, -28.297308480418742, 0.0]
['beep', 0.0, -23.849311333812636, 0.0, 0.0, 0.0, 0.0, -28.342011969329356, 0.0]
['beep', 0.0, -23.849311333812636, 0.0, 0.0, 0.0, 0.0, -28.342011969329356, 0.0]
['beep', 0.0, -23.849311333812636, 0.0, 0.0, 0.0, 0.0, -28.342011969329356, 0.0]
['beep', 0.0, -23.849311333812636, 0.0, 0.0, 0.0, 0.0, -28.342011969329356, 0.0]
['beep', 0.0, -23.89401482272325, 0.0, 0.0, 0.0, 0.0, -28.364363713784662, 0.0]
['beep', 0.0, -23.82695958935733, 0.0, 0.0, 0.0, 0.0, -28.409067202695276, 0.0]
['beep', 0.0, -23.782256100446716, 0.0, 0.0, 0.0, 0.0, -28.409067202695276, 0.0]
['beep', 0.0, -23.804607844902023, 0.0, 0.0, 0.0, 0.0, -28.409067202695276, 0.0]
['beep', 0.0, -23.849311333812636, 0.0, 0.0, 0.0, 0.0, -28.364363713784662, 0.0]
['beep', 0.0, -23.782256100446716, 0.0, 0.0, 0.0, 0.0, -28.364363713784662, 0.0]
['beep', 0.0, -23.82695958935733, 0.0, 0.0, 0.0, 0.0, -28.431418947150583, 0.0]
['beep', 0.0, -23.871663078267943, 0.0, 0.0, 0.0, 0.0, -28.38671545823997, 0.0]
['beep', 0.0, -23.89401482272325, 0.0, 0.0, 0.0, 0.0, -28.409067202695276, 0.0]
['beep', 0.0, -23.871663078267943, 0.0, 0.0, 0.0, 0.0, -28.431418947150583, 0.0]
['beep', 0.0, -23.82695958935733, 0.0, 0.0, 0.0, 0.0, -28.38671545823997, 0.0]
['beep', 0.0, -23.804607844902023, 0.0, 0.0, 0.0, 0.0, -28.364363713784662, 0.0]
['beep', 0.0, -23.82695958935733, 0.0, 0.0, 0.0, 0.0, -28.364363713784662, 0.0]
['beep', 0.0, -23.804607844902023, 0.0, 0.0, 0.0, 0.0, -28.38671545823997, 0.0]
['beep', 0.0, -23.871663078267943, 0.0, 0.0, 0.0, 0.0, -28.38671545823997, 0.0]
['beep', 0.0, -23.89401482272325, 0.0, 0.0, 0.0, 0.0, -28.38671545823997, 0.0]
['beep', 0.0, -23.849311333812636, 0.0, 0.0, 0.0, 0.0, -28.409067202695276, 0.0]
['beep', 0.0, -23.849311333812636, 0.0, 0.0, 0.0, 0.0, -28.364363713784662, 0.0]
['beep', 0.0, -23.804607844902023, 0.0, 0.0, 0.0, 0.0, -28.364363713784662, 0.0]
['beep', 0.0, -23.782256100446716, 0.0, 0.0, 0.0, 0.0, -28.45377069160589, 0.0]
['beep', 0.0, -23.782256100446716, 0.0, 0.0, 0.0, 0.0, -28.431418947150583, 0.0]
['beep', 0.0, -23.782256100446716, 0.0, 0.0, 0.0, 0.0, -28.409067202695276, 0.0]
['beep', 0.0, -23.82695958935733, 0.0, 0.0, 0.0, 0.0, -28.409067202695276, 0.0]
['beep', 0.0, -23.82695958935733, 0.0, 0.0, 0.0, 0.0, -28.38671545823997, 0.0]
['beep', 0.0, -23.82695958935733, 0.0, 0.0, 0.0, 0.0, -28.409067202695276, 0.0]
['beep', 0.0, -23.804607844902023, 0.0, 0.0, 0.0, 0.0, -28.342011969329356, 0.0]
['beep', 0.0, -23.804607844902023, 0.0, 0.0, 0.0, 0.0, -28.364363713784662, 0.0]
['beep', 0.0, -23.782256100446716, 0.0, 0.0, 0.0, 0.0, -28.297308480418742, 0.0]
['beep', 0.0, -23.871663078267943, 0.0, 0.0, 0.0, 0.0, -28.364363713784662, 0.0]
['beep', 0.0, -23.871663078267943, 0.0, 0.0, 0.0, 0.0, -28.431418947150583, 0.0]
['beep', 0.0, -23.849311333812636, 0.0, 0.0, 0.0, 0.0, -28.38671545823997, 0.0]
['beep', 0.0, -23.82695958935733, 0.0, 0.0, 0.0, 0.0, -28.342011969329356, 0.0]
['beep', 0.0, -23.82695958935733, 0.0, 0.0, 0.0, 0.0, -28.31966022487405, 0.0]
['beep', 0.0, -23.82695958935733, 0.0, 0.0, 0.0, 0.0, -28.342011969329356, 0.0]
['beep', 0.0, -23.82695958935733, 0.0, 0.0, 0.0, 0.0, -28.364363713784662, 0.0]
['beep', 0.0, -23.89401482272325, 0.0, 0.0, 0.0, 0.0, -28.364363713784662, 0.0]
['beep', 0.0, -23.89401482272325, 0.0, 0.0, 0.0, 0.0, -28.364363713784662, 0.0]
['beep', 0.0, -23.849311333812636, 0.0, 0.0, 0.0, 0.0, -28.364363713784662, 0.0]
['beep', 0.0, -23.782256100446716, 0.0, 0.0, 0.0, 0.0, -28.364363713784662, 0.0]
['beep', 0.0, -23.782256100446716, 0.0, 0.0, 0.0, 0.0, -28.38671545823997, 0.0]
['beep', 0.0, -23.82695958935733, 0.0, 0.0, 0.0, 0.0, -28.38671545823997, 0.0]
['beep', 0.0, -23.849311333812636, 0.0, 0.0, 0.0, 0.0, -28.409067202695276, 0.0]
['beep', 0.0, -23.82695958935733, 0.0, 0.0, 0.0, 0.0, -28.431418947150583, 0.0]
['beep', 0.0, -23.89401482272325, 0.0, 0.0, 0.0, 0.0, -28.38671545823997, 0.0]
['beep', 0.0, -23.82695958935733, 0.0, 0.0, 0.0, 0.0, -28.364363713784662, 0.0]
['beep', 0.0, -23.82695958935733, 0.0, 0.0, 0.0, 0.0, -28.31966022487405, 0.0]
['beep', 0.0, -23.89401482272325, 0.0, 0.0, 0.0, 0.0, -28.364363713784662, 0.0]
['beep', 0.0, -23.871663078267943, 0.0, 0.0, 0.0, 0.0, -28.38671545823997, 0.0]
['beep', 0.0, -23.804607844902023, 0.0, 0.0, 0.0, 0.0, -28.364363713784662, 0.0]
['beep', 0.0, -23.89401482272325, 0.0, 0.0, 0.0, 0.0, -28.38671545823997, 0.0]
['beep', 0.0, -23.89401482272325, 0.0, 0.0, 0.0, 0.0, -28.31966022487405, 0.0]
['beep', 0.0, -23.849311333812636, 0.0, 0.0, 0.0, 0.0, -28.31966022487405, 0.0]
['beep', 0.0, -23.89401482272325, 0.0, 0.0, 0.0, 0.0, -28.364363713784662, 0.0]
['beep', 0.0, -23.82695958935733, 0.0, 0.0, 0.0, 0.0, -28.364363713784662, 0.0]
['beep', 0.0, -23.849311333812636, 0.0, 0.0, 0.0, 0.0, -28.409067202695276, 0.0]
['beep', 0.0, -23.849311333812636, 0.0, 0.0, 0.0, 0.0, -28.409067202695276, 0.0]
['beep', 0.0, -23.849311333812636, 0.0, 0.0, 0.0, 0.0, -28.38671545823997, 0.0]
['beep', 0.0, -23.82695958935733, 0.0, 0.0, 0.0, 0.0, -28.409067202695276, 0.0]
['beep', 0.0, -23.82695958935733, 0.0, 0.0, 0.0, 0.0, -28.409067202695276, 0.0]
['beep', 0.0, -23.82695958935733, 0.0, 0.0, 0.0, 0.0, -28.31966022487405, 0.0]
['beep', 0.0, -23.82695958935733, 0.0, 0.0, 0.0, 0.0, -28.342011969329356, 0.0]
['beep', 0.0, -23.849311333812636, 0.0, 0.0, 0.0, 0.0, -28.364363713784662, 0.0]
['beep', 0.0, -23.89401482272325, 0.0, 0.0, 0.0, 0.0, -28.364363713784662, 0.0]
['beep', 0.0, -23.849311333812636, 0.0, 0.0, 0.0, 0.0, -28.409067202695276, 0.0]
['beep', 0.0, -23.849311333812636, 0.0, 0.0, 0.0, 0.0, -28.38671545823997, 0.0]
['beep', 0.0, -23.82695958935733, 0.0, 0.0, 0.0, 0.0, -28.364363713784662, 0.0]
['beep', 0.0, -23.82695958935733, 0.0, 0.0, 0.0, 0.0, -28.364363713784662, 0.0]
['beep', 0.0, -23.82695958935733, 0.0, 0.0, 0.0, 0.0, -28.409067202695276, 0.0]
['beep', 0.0, -23.849311333812636, 0.0, 0.0, 0.0, 0.0, -28.38671545823997, 0.0]
['beep', 0.0, -23.82695958935733, 0.0, 0.0, 0.0, 0.0, -28.38671545823997, 0.0]
['beep', 0.0, -23.804607844902023, 0.0, 0.0, 0.0, 0.0, -28.409067202695276, 0.0]
['beep', 0.0, -23.82695958935733, 0.0, 0.0, 0.0, 0.0, -28.409067202695276, 0.0]
['beep', 0.0, -23.782256100446716, 0.0, 0.0, 0.0, 0.0, -28.31966022487405, 0.0]
['beep', 0.0, -23.782256100446716, 0.0, 0.0, 0.0, 0.0, -28.31966022487405, 0.0]
['beep', 0.0, -23.804607844902023, 0.0, 0.0, 0.0, 0.0, -28.38671545823997, 0.0]
['beep', 0.0, -23.82695958935733, 0.0, 0.0, 0.0, 0.0, -28.364363713784662, 0.0]
['beep', 0.0, -23.75990435599141, 0.0, 0.0, 0.0, 0.0, -28.409067202695276, 0.0]
['beep', 0.0, -23.82695958935733, 0.0, 0.0, 0.0, 0.0, -28.38671545823997, 0.0]
['beep', 0.0, -23.871663078267943, 0.0, 0.0, 0.0, 0.0, -28.364363713784662, 0.0]
['beep', 0.0, -23.82695958935733, 0.0, 0.0, 0.0, 0.0, -28.364363713784662, 0.0]
['beep', 0.0, -23.82695958935733, 0.0, 0.0, 0.0, 0.0, -28.364363713784662, 0.0]
['beep', 0.0, -23.849311333812636, 0.0, 0.0, 0.0, 0.0, -28.364363713784662, 0.0]
['beep', 0.0, -23.871663078267943, 0.0, 0.0, 0.0, 0.0, -28.342011969329356, 0.0]
['beep', 0.0, -23.82695958935733, 0.0, 0.0, 0.0, 0.0, -28.38671545823997, 0.0]
['beep', 0.0, -23.82695958935733, 0.0, 0.0, 0.0, 0.0, -28.409067202695276, 0.0]
['beep', 0.0, -23.849311333812636, 0.0, 0.0, 0.0, 0.0, -28.38671545823997, 0.0]
['beep', 0.0, -23.849311333812636, 0.0, 0.0, 0.0, 0.0, -28.31966022487405, 0.0]
['beep', 0.0, -23.82695958935733, 0.0, 0.0, 0.0, 0.0, -28.364363713784662, 0.0]
['beep', 0.0, -23.89401482272325, 0.0, 0.0, 0.0, 0.0, -28.409067202695276, 0.0]
['beep', 0.0, -23.849311333812636, 0.0, 0.0, 0.0, 0.0, -28.431418947150583, 0.0]
['beep', 0.0, -23.82695958935733, 0.0, 0.0, 0.0, 0.0, -28.409067202695276, 0.0]
['beep', 0.0, -23.849311333812636, 0.0, 0.0, 0.0, 0.0, -28.342011969329356, 0.0]
['beep', 0.0, -23.782256100446716, 0.0, 0.0, 0.0, 0.0, -28.364363713784662, 0.0]
['beep', 0.0, -23.782256100446716, 0.0, 0.0, 0.0, 0.0, -28.364363713784662, 0.0]
['beep', 0.0, -23.82695958935733, 0.0, 0.0, 0.0, 0.0, -28.31966022487405, 0.0]
['beep', 0.0, -23.82695958935733, 0.0, 0.0, 0.0, 0.0, -28.364363713784662, 0.0]
['beep', 0.0, -23.849311333812636, 0.0, 0.0, 0.0, 0.0, -28.364363713784662, 0.0]
['beep', 0.0, -23.782256100446716, 0.0, 0.0, 0.0, 0.0, -28.364363713784662, 0.0]
['beep', 0.0, -23.804607844902023, 0.0, 0.0, 0.0, 0.0, -28.409067202695276, 0.0]
['beep', 0.0, -23.804607844902023, 0.0, 0.0, 0.0, 0.0, -28.364363713784662, 0.0]
['beep', 0.0, -23.849311333812636, 0.0, 0.0, 0.0, 0.0, -28.38671545823997, 0.0]
['beep', 0.0, -23.871663078267943, 0.0, 0.0, 0.0, 0.0, -28.364363713784662, 0.0]
['beep', 0.0, -23.67049737817018, 0.0, 0.0, 0.0, 0.0, -28.38671545823997, 0.0]
['beep', 0.0, -23.715200867080792, 0.0, 0.0, 0.0, 0.0, -28.431418947150583, 0.0]
['beep', 0.0, -23.782256100446716, 0.0, 0.0, 0.0, 0.0, -28.38671545823997, 0.0]
['beep', 0.0, -23.75990435599141, 0.0, 0.0, 0.0, 0.0, -28.409067202695276, 0.0]
['beep', 0.0, -23.82695958935733, 0.0, 0.0, 0.0, 0.0, -28.409067202695276, 0.0]
['beep', 0.0, -23.51403516698303, 0.0, 0.0, 0.0, 0.0, -28.409067202695276, 0.0]
['beep', 0.0, -23.558738655893645, 0.0, 0.0, 0.0, 0.0, -28.409067202695276, 0.0]
['beep', 0.0, -23.782256100446716, 0.0, 0.0, 0.0, 0.0, -28.364363713784662, 0.0]
['beep', 0.0, -23.804607844902023, 0.0, 0.0, 0.0, 0.0, -28.31966022487405, 0.0]
['beep', 0.0, -23.75990435599141, 0.0, 0.0, 0.0, 0.0, -28.364363713784662, 0.0]
['beep', 0.0, -23.402276444706494, 0.0, 0.0, 0.0, 0.0, -28.54317766942712, 0.0]
['beep', 0.0, -23.49168342252772, 0.0, 0.0, 0.0, 0.0, -28.498474180516506, 0.0]
['beep', 0.0, -23.782256100446716, 0.0, 0.0, 0.0, 0.0, -28.409067202695276, 0.0]
['beep', 0.0, -23.849311333812636, 0.0, 0.0, 0.0, 0.0, -28.38671545823997, 0.0]
['beep', 0.0, -23.7375526115361, 0.0, 0.0, 0.0, 0.0, -28.38671545823997, 0.0]
['beep', 0.0, -23.268165977974654, 0.0, 0.0, 0.0, 0.0, -28.811398602890804, 0.0]
['beep', 0.0, -23.335221211340574, 0.0, 0.0, 0.0, 0.0, -28.76669511398019, 0.0]
['beep', 0.0, -23.7375526115361, 0.0, 0.0, 0.0, 0.0, -28.409067202695276, 0.0]
['beep', 0.0, -23.82695958935733, 0.0, 0.0, 0.0, 0.0, -28.364363713784662, 0.0]
['beep', 0.0, -23.67049737817018, 0.0, 0.0, 0.0, 0.0, -27.447942191117072, 0.0]
['beep', 0.0, -14.059247262388142, 0.0, 0.0, 0.0, 0.0, 68.88807641125636, 0.0]
['beep', 0.0, -9.834767560335107, 0.0, 0.0, 0.0, 0.0, 74.40895729171721, 0.0]
['beep', 0.0, -23.4246281891618, 0.0, 0.0, 0.0, 0.0, -27.045610790921547, 0.0]
['beep', 0.0, -23.82695958935733, 0.0, 0.0, 0.0, 0.0, -28.409067202695276, 0.0]
['beep', 0.0, -15.579165885349022, 0.0, 0.0, 0.0, 0.0, -9.343029182318352, 0.0]
['beep', 0.0, 262.81181130550044, 0.0, 0.0, 0.0, 0.0, 447.95131062880887, 0.0]
['beep', 0.0, 247.56792158698102, 0.0, 0.0, 0.0, 0.0, 408.5004816651919, 0.0]
['beep', 0.0, -18.10491300879872, 0.0, 0.0, 0.0, 0.0, -16.58499438583784, 0.0]
['beep', 0.0, -23.82695958935733, 0.0, 0.0, 0.0, 0.0, -28.431418947150583, 0.0]
['beep', 0.0, 11.86877630576805, 0.0, 0.0, 0.0, 0.0, 30.107799781298613, 0.0]
['beep', 0.0, 672.5639906601895, 0.0, 0.0, 0.0, 0.0, 903.3010486723243, 0.0]
['beep', 0.0, 612.1695771419498, 0.0, 0.0, 0.0, 0.0, 820.2419662764033, 0.0]
['beep', 0.0, -1.1175872227653532, 0.0, 0.0, 0.0, 0.0, 9.8124158158798, 0.0]
['beep', 0.0, -23.804607844902023, 0.0, 0.0, 0.0, 0.0, -28.409067202695276, 0.0]
['beep', 0.0, 84.46724229660539, 0.0, 0.0, 0.0, 0.0, 125.39328639427262, 0.0]
['beep', 0.0, 1286.9240387587595, 0.0, 0.0, 0.0, 0.0, 1468.219038035755, 0.0]
['beep', 0.0, 1180.6414938737744, 0.0, 0.0, 0.0, 0.0, 1323.4691409431864, 0.0]
['beep', 0.0, 52.705413425614054, 0.0, 0.0, 0.0, 0.0, 79.52750677198253, 0.0]
['beep', 0.0, -23.82695958935733, 0.0, 0.0, 0.0, 0.0, -28.364363713784662, 0.0]
['beep', 0.0, 199.46696751916022, 0.0, 0.0, 0.0, 0.0, 253.96052050119886, 0.0]
['beep', 0.0, 1667.5518950881833, 0.0, 0.0, 0.0, 0.0, 1764.4243555574842, 0.0]
['beep', 0.0, 1529.1275416764668, 0.0, 0.0, 0.0, 0.0, 1633.3984295604741, 0.0]
['beep', 0.0, 145.84513257087858, 0.0, 0.0, 0.0, 0.0, 193.27553430504017, 0.0]
['beep', 0.0, -23.51403516698303, 0.0, 0.0, 0.0, 0.0, -27.8502735913126, 0.0]
['beep', 0.0, 375.59871382697986, 0.0, 0.0, 0.0, 0.0, 438.5859297020352, 0.0]
['beep', 0.0, 1942.7912763108345, 0.0, 0.0, 0.0, 0.0, 1985.6395704316583, 0.0]
['beep', 0.0, 1875.6019324781817, 0.0, 0.0, 0.0, 0.0, 1935.6834215740469, 0.0]
['beep', 0.0, 351.16825713732925, 0.0, 0.0, 0.0, 0.0, 425.9348423403314, 0.0]
['beep', 0.0, -18.753113598002624, 0.0, 0.0, 0.0, 0.0, -19.311907209385303, 0.0]
['beep', 0.0, 643.6408333350222, 0.0, 0.0, 0.0, 0.0, 719.4579505274237, 0.0]
['beep', 0.0, 2131.864682658277, 0.0, 0.0, 0.0, 0.0, 2142.1688368521736, 0.0]
['beep', 0.0, 2144.09108687533, 0.0, 0.0, 0.0, 0.0, 2158.418555071182, 0.0]
['beep', 0.0, 713.3112208022143, 0.0, 0.0, 0.0, 0.0, 801.4888526784007, 0.0]
['beep', 0.0, 24.162235756186934, 0.0, 0.0, 0.0, 0.0, 42.84829412082364, 0.0]
['beep', 0.0, 1047.6486143646973, 0.0, 0.0, 0.0, 0.0, 1148.522037091498, 0.0]
['beep', 0.0, 2255.8051056629547, 0.0, 0.0, 0.0, 0.0, 2249.0101753485415, 0.0]
['beep', 0.0, 2278.3803675628146, 0.0, 0.0, 0.0, 0.0, 2261.3706900323264, 0.0]
['beep', 0.0, 1167.364557667322, 0.0, 0.0, 0.0, 0.0, 1269.5567333169859, 0.0]
['beep', 0.0, 186.19003131270784, 0.0, 0.0, 0.0, 0.0, 256.4415641357379, 0.0]
['beep', 0.0, 1511.670829256872, 0.0, 0.0, 0.0, 0.0, 1606.8222054031141, 0.0]
['beep', 0.0, 2316.7359610481217, 0.0, 0.0, 0.0, 0.0, 2289.2880188570048, 0.0]
['beep', 0.0, 2322.41330413977, 0.0, 0.0, 0.0, 0.0, 2293.7136642591554, 0.0]
['beep', 0.0, 1586.8173941156142, 0.0, 0.0, 0.0, 0.0, 1700.498366415306, 0.0]
['beep', 0.0, 499.4497298538363, 0.0, 0.0, 0.0, 0.0, 668.451269680413, 0.0]
['beep', 0.0, 1831.0102022898438, 0.0, 0.0, 0.0, 0.0, 1906.5143950598713, 0.0]
['beep', 0.0, 2325.9672315081634, 0.0, 0.0, 0.0, 0.0, 2307.728208032633, 0.0]
['beep', 0.0, 2334.79617056801, 0.0, 0.0, 0.0, 0.0, 2316.288926159016, 0.0]
['beep', 0.0, 1862.0567753382654, 0.0, 0.0, 0.0, 0.0, 1965.679462633069, 0.0]
['beep', 0.0, 891.2981618998244, 0.0, 0.0, 0.0, 0.0, 1186.4529474321541, 0.0]
['beep', 0.0, 1980.163393040108, 0.0, 0.0, 0.0, 0.0, 2056.718117799535, 0.0]
['beep', 0.0, 2326.6824873307332, 0.0, 0.0, 0.0, 0.0, 2320.401647138792, 0.0]
['beep', 0.0, 2337.053696757996, 0.0, 0.0, 0.0, 0.0, 2327.6212605978562, 0.0]
['beep', 0.0, 1929.9837267379437, 0.0, 0.0, 0.0, 0.0, 2020.932974926588, 0.0]
['beep', 0.0, 998.4077213296558, 0.0, 0.0, 0.0, 0.0, 1289.7180068156729, 0.0]
['beep', 0.0, 2003.2527450624402, 0.0, 0.0, 0.0, 0.0, 2079.539248888403, 0.0]
['beep', 0.0, 2325.1849204522277, 0.0, 0.0, 0.0, 0.0, 2317.562975592968, 0.0]
['beep', 0.0, 2332.3151269334708, 0.0, 0.0, 0.0, 0.0, 2321.6533448282894, 0.0]
['beep', 0.0, 1773.3427015951518, 0.0, 0.0, 0.0, 0.0, 1874.5066969998716, 0.0]
['beep', 0.0, 594.2434780887936, 0.0, 0.0, 0.0, 0.0, 838.279824051836, 0.0]
['beep', 0.0, 1800.9694577419114, 0.0, 0.0, 0.0, 0.0, 1897.1266623886422, 0.0]
['beep', 0.0, 2326.8836530308313, 0.0, 0.0, 0.0, 0.0, 2294.8759549708316, 0.0]
['beep', 0.0, 2311.3268388899373, 0.0, 0.0, 0.0, 0.0, 2284.080062398918, 0.0]
['beep', 0.0, 1400.2473831471661, 0.0, 0.0, 0.0, 0.0, 1492.7612534476823, 0.0]
['beep', 0.0, 193.0296651160318, 0.0, 0.0, 0.0, 0.0, 268.533857886059, 0.0]
['beep', 0.0, 1340.2776527735773, 0.0, 0.0, 0.0, 0.0, 1453.4892384397076, 0.0]
['beep', 0.0, 2301.5814783074234, 0.0, 0.0, 0.0, 0.0, 2279.185030363206, 0.0]
['beep', 0.0, 2251.11123932734, 0.0, 0.0, 0.0, 0.0, 2234.548596685958, 0.0]
['beep', 0.0, 1014.4115703596557, 0.0, 0.0, 0.0, 0.0, 1093.69320794263, 0.0]
['beep', 0.0, 34.891073094734324, 0.0, 0.0, 0.0, 0.0, 57.779259416968756, 0.0]
['beep', 0.0, 915.6839151005645, 0.0, 0.0, 0.0, 0.0, 1021.8323495188176, 0.0]
['beep', 0.0, 2222.9480413136534, 0.0, 0.0, 0.0, 0.0, 2220.6234598903015, 0.0]
['beep', 0.0, 2185.151241439729, 0.0, 0.0, 0.0, 0.0, 2185.732386795567, 0.0]
['beep', 0.0, 810.0048673158726, 0.0, 0.0, 0.0, 0.0, 891.2534584109138, 0.0]
['beep', 0.0, 2.7045610790921546, 0.0, 0.0, 0.0, 0.0, 13.32163969536301, 0.0]
['beep', 0.0, 769.3693958961244, 0.0, 0.0, 0.0, 0.0, 865.0795656537492, 0.0]
['beep', 0.0, 2178.4233663586815, 0.0, 0.0, 0.0, 0.0, 2185.419462373193, 0.0]
['beep', 0.0, 2162.508924306503, 0.0, 0.0, 0.0, 0.0, 2169.0356336874524, 0.0]
['beep', 0.0, 755.6007213116552, 0.0, 0.0, 0.0, 0.0, 838.123361840649, 0.0]
['beep', 0.0, -5.744398325013915, 0.0, 0.0, 0.0, 0.0, 0.7599593114804402, 0.0]
['beep', 0.0, 671.9604935598962, 0.0, 0.0, 0.0, 0.0, 761.0768987032055, 0.0]
['beep', 0.0, 2140.2242350845618, 0.0, 0.0, 0.0, 0.0, 2152.383584068249, 0.0]
['beep', 0.0, 2121.091141830819, 0.0, 0.0, 0.0, 0.0, 2137.2961565609166, 0.0]
['beep', 0.0, 668.9653598028851, 0.0, 0.0, 0.0, 0.0, 752.6949945324653, 0.0]
['beep', 0.0, -13.16517748417586, 0.0, 0.0, 0.0, 0.0, -10.415912916173092, 0.0]
['beep', 0.0, 580.4077482709585, 0.0, 0.0, 0.0, 0.0, 662.3268916996589, 0.0]
['beep', 0.0, 2093.3973304506935, 0.0, 0.0, 0.0, 0.0, 2111.2787260149394, 0.0]
['beep', 0.0, 2097.733568875023, 0.0, 0.0, 0.0, 0.0, 2117.648973184702, 0.0]
['beep', 0.0, 628.7769232722429, 0.0, 0.0, 0.0, 0.0, 713.2441655688484, 0.0]
['beep', 0.0, -15.243889718519418, 0.0, 0.0, 0.0, 0.0, -13.768674584469151, 0.0]
['beep', 0.0, 559.3747567385145, 0.0, 0.0, 0.0, 0.0, 636.711792553877, 0.0]
['beep', 0.0, 2083.2943419568946, 0.0, 0.0, 0.0, 0.0, 2102.963877077565, 0.0]
['beep', 0.0, 2077.929923287621, 0.0, 0.0, 0.0, 0.0, 2102.60624916628, 0.0]
['beep', 0.0, 592.2541728322713, 0.0, 0.0, 0.0, 0.0, 675.5144209282901, 0.0]
['beep', 0.0, -17.791988586424424, 0.0, 0.0, 0.0, 0.0, -17.88139556424565, 0.0]
['beep', 0.0, 486.23984888074983, 0.0, 0.0, 0.0, 0.0, 557.4078032264475, 0.0]
['beep', 0.0, 2036.422733834116, 0.0, 0.0, 0.0, 0.0, 2063.289530669395, 0.0]
['beep', 0.0, 2017.7590272139344, 0.0, 0.0, 0.0, 0.0, 2052.6948037975794, 0.0]
['beep', 0.0, 502.48956709975806, 0.0, 0.0, 0.0, 0.0, 583.134661094506, 0.0]
['beep', 0.0, -20.98828804353333, 0.0, 0.0, 0.0, 0.0, -23.156407255698117, 0.0]
['beep', 0.0, 379.97965574022004, 0.0, 0.0, 0.0, 0.0, 443.5033134822027, 0.0]
['beep', 0.0, 1946.0099275123987, 0.0, 0.0, 0.0, 0.0, 1987.3383030102616, 0.0]
['beep', 0.0, 1909.911860217078, 0.0, 0.0, 0.0, 0.0, 1964.5171719213931, 0.0]
['beep', 0.0, 380.51609760714746, 0.0, 0.0, 0.0, 0.0, 457.0484706221188, 0.0]
['beep', 0.0, -22.97759330005566, 0.0, 0.0, 0.0, 0.0, -26.687982879636632, 0.0]
['beep', 0.0, 275.57465738948076, 0.0, 0.0, 0.0, 0.0, 333.39862029536016, 0.0]
['beep', 0.0, 1817.107417238643, 0.0, 0.0, 0.0, 0.0, 1884.3861680491173, 0.0]
['beep', 0.0, 1780.0929284206545, 0.0, 0.0, 0.0, 0.0, 1851.3279379997182, 0.0]
['beep', 0.0, 271.2160672206959, 0.0, 0.0, 0.0, 0.0, 334.2703383291171, 0.0]
['beep', 0.0, -23.625793889259565, 0.0, 0.0, 0.0, 0.0, -28.07379103586567, 0.0]
['beep', 0.0, 181.58557195491457, 0.0, 0.0, 0.0, 0.0, 230.82646498995604, 0.0]
['beep', 0.0, 1642.4285343204183, 0.0, 0.0, 0.0, 0.0, 1737.8928348890347, 0.0]
['beep', 0.0, 1626.6482027349714, 0.0, 0.0, 0.0, 0.0, 1718.4244654684624, 0.0]
['beep', 0.0, 186.50295573508214, 0.0, 0.0, 0.0, 0.0, 238.9177964827772, 0.0]
['beep', 0.0, -23.7375526115361, 0.0, 0.0, 0.0, 0.0, -28.364363713784662, 0.0]
['beep', 0.0, 106.90839372973367, 0.0, 0.0, 0.0, 0.0, 148.1920657386858, 0.0]
['beep', 0.0, 1419.8498630344704, 0.0, 0.0, 0.0, 0.0, 1554.2061989553213, 0.0]
['beep', 0.0, 1428.4999881386743, 0.0, 0.0, 0.0, 0.0, 1545.8913500179472, 0.0]
['beep', 0.0, 113.65862055523641, 0.0, 0.0, 0.0, 0.0, 153.44472568568298, 0.0]
['beep', 0.0, -23.782256100446716, 0.0, 0.0, 0.0, 0.0, -28.364363713784662, 0.0]
['beep', 0.0, 41.64129992023706, 0.0, 0.0, 0.0, 0.0, 70.2515328230301, 0.0]
['beep', 0.0, 1046.463971908566, 0.0, 0.0, 0.0, 0.0, 1274.58587581943, 0.0]
['beep', 0.0, 1108.2665453274901, 0.0, 0.0, 0.0, 0.0, 1313.1426350048346, 0.0]
['beep', 0.0, 54.40414600421739, 0.0, 0.0, 0.0, 0.0, 81.60621900632609, 0.0]
['beep', 0.0, -23.849311333812636, 0.0, 0.0, 0.0, 0.0, -28.38671545823997, 0.0]
['beep', 0.0, -1.2069942005865815, 0.0, 0.0, 0.0, 0.0, 11.086465249832303, 0.0]
['beep', 0.0, 590.8236611871316, 0.0, 0.0, 0.0, 0.0, 805.9144980805514, 0.0]
['beep', 0.0, 659.644682365022, 0.0, 0.0, 0.0, 0.0, 881.6422082951318, 0.0]
['beep', 0.0, 10.415912916173092, 0.0, 0.0, 0.0, 0.0, 25.771561356969045, 0.0]
['beep', 0.0, -23.75990435599141, 0.0, 0.0, 0.0, 0.0, -28.364363713784662, 0.0]
['beep', 0.0, -17.099084508309904, 0.0, 0.0, 0.0, 0.0, -13.567508884371387, 0.0]
['beep', 0.0, 298.7534163896342, 0.0, 0.0, 0.0, 0.0, 475.3545493310153, 0.0]
['beep', 0.0, 364.5346003216029, 0.0, 0.0, 0.0, 0.0, 556.5137334482353, 0.0]
['beep', 0.0, -8.225441959552999, 0.0, 0.0, 0.0, 0.0, -0.5811453558379837, 0.0]
['beep', 0.0, -23.849311333812636, 0.0, 0.0, 0.0, 0.0, -28.409067202695276, 0.0]
['beep', 0.0, -22.239985733030526, 0.0, 0.0, 0.0, 0.0, -22.7764275999579, 0.0]
['beep', 0.0, 129.05897248494298, 0.0, 0.0, 0.0, 0.0, 274.92645680027687, 0.0]
['beep', 0.0, 173.65070267328056, 0.0, 0.0, 0.0, 0.0, 341.1993791102623, 0.0]
['beep', 0.0, -17.479064164050122, 0.0, 0.0, 0.0, 0.0, -13.902785051200993, 0.0]
['beep', 0.0, -23.82695958935733, 0.0, 0.0, 0.0, 0.0, -28.409067202695276, 0.0]
['beep', 0.0, -23.67049737817018, 0.0, 0.0, 0.0, 0.0, -27.537349168938302, 0.0]
['beep', 0.0, 3.553927368393823, 0.0, 0.0, 0.0, 0.0, 97.8112337364237, 0.0]
['beep', 0.0, 22.999945044510966, 0.0, 0.0, 0.0, 0.0, 144.39226918128364, 0.0]
['beep', 0.0, -22.1505787552093, 0.0, 0.0, 0.0, 0.0, -22.7764275999579, 0.0]
['beep', 0.0, -23.849311333812636, 0.0, 0.0, 0.0, 0.0, -28.364363713784662, 0.0]
['beep', 0.0, -23.715200867080792, 0.0, 0.0, 0.0, 0.0, -28.431418947150583, 0.0]
['beep', 0.0, -23.29051772242996, 0.0, 0.0, 0.0, 0.0, -7.845462303812779, 0.0]
['beep', 0.0, -23.268165977974654, 0.0, 0.0, 0.0, 0.0, 7.934869281634008, 0.0]
['beep', 0.0, -23.67049737817018, 0.0, 0.0, 0.0, 0.0, -27.24677649101931, 0.0]
['beep', 0.0, -23.82695958935733, 0.0, 0.0, 0.0, 0.0, -28.364363713784662, 0.0]
['beep', 0.0, -23.7375526115361, 0.0, 0.0, 0.0, 0.0, -28.431418947150583, 0.0]
['beep', 0.0, -23.268165977974654, 0.0, 0.0, 0.0, 0.0, -28.990212558533262, 0.0]
['beep', 0.0, -23.223462489064037, 0.0, 0.0, 0.0, 0.0, -29.124323025265102, 0.0]
['beep', 0.0, -23.67049737817018, 0.0, 0.0, 0.0, 0.0, -28.476122436061196, 0.0]
['beep', 0.0, -23.82695958935733, 0.0, 0.0, 0.0, 0.0, -28.38671545823997, 0.0]
['beep', 0.0, -23.715200867080792, 0.0, 0.0, 0.0, 0.0, -28.38671545823997, 0.0]
['beep', 0.0, -23.335221211340574, 0.0, 0.0, 0.0, 0.0, -28.76669511398019, 0.0]
['beep', 0.0, -23.29051772242996, 0.0, 0.0, 0.0, 0.0, -28.878453836256725, 0.0]
['beep', 0.0, -23.715200867080792, 0.0, 0.0, 0.0, 0.0, -28.409067202695276, 0.0]
['beep', 0.0, -23.82695958935733, 0.0, 0.0, 0.0, 0.0, -28.364363713784662, 0.0]
['beep', 0.0, -23.804607844902023, 0.0, 0.0, 0.0, 0.0, -28.409067202695276, 0.0]
['beep', 0.0, -23.335221211340574, 0.0, 0.0, 0.0, 0.0, -28.632584647248347, 0.0]
['beep', 0.0, -23.312869466885267, 0.0, 0.0, 0.0, 0.0, -28.699639880614267, 0.0]
['beep', 0.0, -23.7375526115361, 0.0, 0.0, 0.0, 0.0, -28.364363713784662, 0.0]
['beep', 0.0, -23.82695958935733, 0.0, 0.0, 0.0, 0.0, -28.31966022487405, 0.0]
['beep', 0.0, -23.75990435599141, 0.0, 0.0, 0.0, 0.0, -28.31966022487405, 0.0]
['beep', 0.0, -23.379924700251188, 0.0, 0.0, 0.0, 0.0, -28.520825924971813, 0.0]
['beep', 0.0, -23.402276444706494, 0.0, 0.0, 0.0, 0.0, -28.61023290279304, 0.0]
['beep', 0.0, -23.782256100446716, 0.0, 0.0, 0.0, 0.0, -28.364363713784662, 0.0]
['beep', 0.0, -23.82695958935733, 0.0, 0.0, 0.0, 0.0, -28.342011969329356, 0.0]
['beep', 0.0, -23.804607844902023, 0.0, 0.0, 0.0, 0.0, -28.38671545823997, 0.0]
['beep', 0.0, -23.49168342252772, 0.0, 0.0, 0.0, 0.0, -28.476122436061196, 0.0]
['beep', 0.0, -23.402276444706494, 0.0, 0.0, 0.0, 0.0, -28.431418947150583, 0.0]
['beep', 0.0, -23.75990435599141, 0.0, 0.0, 0.0, 0.0, -28.364363713784662, 0.0]
['beep', 0.0, -23.82695958935733, 0.0, 0.0, 0.0, 0.0, -28.38671545823997, 0.0]
['beep', 0.0, -23.82695958935733, 0.0, 0.0, 0.0, 0.0, -28.409067202695276, 0.0]
['beep', 0.0, -23.60344214480426, 0.0, 0.0, 0.0, 0.0, -28.431418947150583, 0.0]
['beep', 0.0, -23.49168342252772, 0.0, 0.0, 0.0, 0.0, -28.38671545823997, 0.0]
['beep', 0.0, -23.82695958935733, 0.0, 0.0, 0.0, 0.0, -28.364363713784662, 0.0]
['beep', 0.0, -23.871663078267943, 0.0, 0.0, 0.0, 0.0, -28.364363713784662, 0.0]
['beep', 0.0, -23.871663078267943, 0.0, 0.0, 0.0, 0.0, -28.38671545823997, 0.0]
['beep', 0.0, -23.692849122625486, 0.0, 0.0, 0.0, 0.0, -28.38671545823997, 0.0]
['beep', 0.0, -23.648145633714872, 0.0, 0.0, 0.0, 0.0, -28.364363713784662, 0.0]
['beep', 0.0, -23.82695958935733, 0.0, 0.0, 0.0, 0.0, -28.364363713784662, 0.0]
['beep', 0.0, -23.849311333812636, 0.0, 0.0, 0.0, 0.0, -28.364363713784662, 0.0]
['beep', 0.0, -23.89401482272325, 0.0, 0.0, 0.0, 0.0, -28.31966022487405, 0.0]
['beep', 0.0, -23.7375526115361, 0.0, 0.0, 0.0, 0.0, -28.364363713784662, 0.0]
['beep', 0.0, -23.692849122625486, 0.0, 0.0, 0.0, 0.0, -28.38671545823997, 0.0]
['beep', 0.0, -23.849311333812636, 0.0, 0.0, 0.0, 0.0, -28.431418947150583, 0.0]
['beep', 0.0, -23.849311333812636, 0.0, 0.0, 0.0, 0.0, -28.38671545823997, 0.0]
['beep', 0.0, -23.89401482272325, 0.0, 0.0, 0.0, 0.0, -28.31966022487405, 0.0]
['beep', 0.0, -23.782256100446716, 0.0, 0.0, 0.0, 0.0, -28.431418947150583, 0.0]
['beep', 0.0, -23.75990435599141, 0.0, 0.0, 0.0, 0.0, -28.45377069160589, 0.0]
['beep', 0.0, -23.849311333812636, 0.0, 0.0, 0.0, 0.0, -28.45377069160589, 0.0]
['beep', 0.0, -23.849311333812636, 0.0, 0.0, 0.0, 0.0, -28.38671545823997, 0.0]
['beep', 0.0, -23.82695958935733, 0.0, 0.0, 0.0, 0.0, -28.38671545823997, 0.0]
['beep', 0.0, -23.804607844902023, 0.0, 0.0, 0.0, 0.0, -28.409067202695276, 0.0]
['beep', 0.0, -23.7375526115361, 0.0, 0.0, 0.0, 0.0, -28.409067202695276, 0.0]
['beep', 0.0, -23.82695958935733, 0.0, 0.0, 0.0, 0.0, -28.364363713784662, 0.0]
['beep', 0.0, -23.804607844902023, 0.0, 0.0, 0.0, 0.0, -28.409067202695276, 0.0]
['beep', 0.0, -23.782256100446716, 0.0, 0.0, 0.0, 0.0, -28.409067202695276, 0.0]
['beep', 0.0, -23.804607844902023, 0.0, 0.0, 0.0, 0.0, -28.409067202695276, 0.0]
['beep', 0.0, -23.849311333812636, 0.0, 0.0, 0.0, 0.0, -28.38671545823997, 0.0]
['beep', 0.0, -23.849311333812636, 0.0, 0.0, 0.0, 0.0, -28.431418947150583, 0.0]
['beep', 0.0, -23.89401482272325, 0.0, 0.0, 0.0, 0.0, -28.38671545823997, 0.0]
['beep', 0.0, -23.849311333812636, 0.0, 0.0, 0.0, 0.0, -28.409067202695276, 0.0]
['beep', 0.0, -23.804607844902023, 0.0, 0.0, 0.0, 0.0, -28.431418947150583, 0.0]
['beep', 0.0, -23.782256100446716, 0.0, 0.0, 0.0, 0.0, -28.38671545823997, 0.0]
['beep', 0.0, -23.871663078267943, 0.0, 0.0, 0.0, 0.0, -28.364363713784662, 0.0]
['beep', 0.0, -23.849311333812636, 0.0, 0.0, 0.0, 0.0, -28.31966022487405, 0.0]
['beep', 0.0, -23.849311333812636, 0.0, 0.0, 0.0, 0.0, -28.364363713784662, 0.0]
['beep', 0.0, -23.849311333812636, 0.0, 0.0, 0.0, 0.0, -28.364363713784662, 0.0]
['beep', 0.0, -23.82695958935733, 0.0, 0.0, 0.0, 0.0, -28.364363713784662, 0.0]
['beep', 0.0, -23.82695958935733, 0.0, 0.0, 0.0, 0.0, -28.38671545823997, 0.0]
['beep', 0.0, -23.82695958935733, 0.0, 0.0, 0.0, 0.0, -28.409067202695276, 0.0]
['beep', 0.0, -23.849311333812636, 0.0, 0.0, 0.0, 0.0, -28.409067202695276, 0.0]
['beep', 0.0, -23.89401482272325, 0.0, 0.0, 0.0, 0.0, -28.31966022487405, 0.0]
['beep', 0.0, -23.849311333812636, 0.0, 0.0, 0.0, 0.0, -28.31966022487405, 0.0]
['beep', 0.0, -23.82695958935733, 0.0, 0.0, 0.0, 0.0, -28.364363713784662, 0.0]
['beep', 0.0, -23.849311333812636, 0.0, 0.0, 0.0, 0.0, -28.409067202695276, 0.0]
['beep', 0.0, -23.82695958935733, 0.0, 0.0, 0.0, 0.0, -28.31966022487405, 0.0]
['beep', 0.0, -23.849311333812636, 0.0, 0.0, 0.0, 0.0, -28.342011969329356, 0.0]
['beep', 0.0, -23.782256100446716, 0.0, 0.0, 0.0, 0.0, -28.364363713784662, 0.0]
['beep', 0.0, -23.82695958935733, 0.0, 0.0, 0.0, 0.0, -28.342011969329356, 0.0]
['beep', 0.0, -23.849311333812636, 0.0, 0.0, 0.0, 0.0, -28.38671545823997, 0.0]
['beep', 0.0, -23.82695958935733, 0.0, 0.0, 0.0, 0.0, -28.38671545823997, 0.0]
['beep', 0.0, -23.82695958935733, 0.0, 0.0, 0.0, 0.0, -28.31966022487405, 0.0]
['beep', 0.0, -23.782256100446716, 0.0, 0.0, 0.0, 0.0, -28.297308480418742, 0.0]
['beep', 0.0, -23.782256100446716, 0.0, 0.0, 0.0, 0.0, -28.38671545823997, 0.0]
['beep', 0.0, -23.804607844902023, 0.0, 0.0, 0.0, 0.0, -28.364363713784662, 0.0]
['beep', 0.0, -23.849311333812636, 0.0, 0.0, 0.0, 0.0, -28.31966022487405, 0.0]
['beep', 0.0, -23.849311333812636, 0.0, 0.0, 0.0, 0.0, -28.38671545823997, 0.0]
['beep', 0.0, -23.849311333812636, 0.0, 0.0, 0.0, 0.0, -28.364363713784662, 0.0]
['beep', 0.0, -23.849311333812636, 0.0, 0.0, 0.0, 0.0, -28.409067202695276, 0.0]
['beep', 0.0, -23.782256100446716, 0.0, 0.0, 0.0, 0.0, -28.409067202695276, 0.0]
['beep', 0.0, -23.782256100446716, 0.0, 0.0, 0.0, 0.0, -28.409067202695276, 0.0]
['beep', 0.0, -23.804607844902023, 0.0, 0.0, 0.0, 0.0, -28.342011969329356, 0.0]
['beep', 0.0, -23.804607844902023, 0.0, 0.0, 0.0, 0.0, -28.409067202695276, 0.0]
['beep', 0.0, -23.804607844902023, 0.0, 0.0, 0.0, 0.0, -28.38671545823997, 0.0]
['beep', 0.0, -23.782256100446716, 0.0, 0.0, 0.0, 0.0, -28.364363713784662, 0.0]
['beep', 0.0, -23.804607844902023, 0.0, 0.0, 0.0, 0.0, -28.342011969329356, 0.0]
['beep', 0.0, -23.804607844902023, 0.0, 0.0, 0.0, 0.0, -28.31966022487405, 0.0]
['beep', 0.0, -23.82695958935733, 0.0, 0.0, 0.0, 0.0, -28.409067202695276, 0.0]
['beep', 0.0, -23.849311333812636, 0.0, 0.0, 0.0, 0.0, -28.364363713784662, 0.0]
['beep', 0.0, -23.82695958935733, 0.0, 0.0, 0.0, 0.0, -28.342011969329356, 0.0]
['beep', 0.0, -23.849311333812636, 0.0, 0.0, 0.0, 0.0, -28.364363713784662, 0.0]
['beep', 0.0, -23.82695958935733, 0.0, 0.0, 0.0, 0.0, -28.409067202695276, 0.0]
['beep', 0.0, -23.782256100446716, 0.0, 0.0, 0.0, 0.0, -28.364363713784662, 0.0]
['beep', 0.0, -23.849311333812636, 0.0, 0.0, 0.0, 0.0, -28.342011969329356, 0.0]
['beep', 0.0, -23.82695958935733, 0.0, 0.0, 0.0, 0.0, -28.431418947150583, 0.0]
['beep', 0.0, -23.82695958935733, 0.0, 0.0, 0.0, 0.0, -28.409067202695276, 0.0]
['beep', 0.0, -23.82695958935733, 0.0, 0.0, 0.0, 0.0, -28.409067202695276, 0.0]
['beep', 0.0, -23.849311333812636, 0.0, 0.0, 0.0, 0.0, -28.409067202695276, 0.0]
['beep', 0.0, -23.849311333812636, 0.0, 0.0, 0.0, 0.0, -28.409067202695276, 0.0]
['beep', 0.0, -23.849311333812636, 0.0, 0.0, 0.0, 0.0, -28.431418947150583, 0.0]
['beep', 0.0, -23.82695958935733, 0.0, 0.0, 0.0, 0.0, -28.409067202695276, 0.0]
['beep', 0.0, -23.849311333812636, 0.0, 0.0, 0.0, 0.0, -28.409067202695276, 0.0]
['beep', 0.0, -23.82695958935733, 0.0, 0.0, 0.0, 0.0, -28.364363713784662, 0.0]
['beep', 0.0, -23.849311333812636, 0.0, 0.0, 0.0, 0.0, -28.31966022487405, 0.0]
['beep', 0.0, -23.89401482272325, 0.0, 0.0, 0.0, 0.0, -28.38671545823997, 0.0]
['beep', 0.0, -23.849311333812636, 0.0, 0.0, 0.0, 0.0, -28.342011969329356, 0.0]
['beep', 0.0, -23.849311333812636, 0.0, 0.0, 0.0, 0.0, -28.409067202695276, 0.0]
['beep', 0.0, -23.82695958935733, 0.0, 0.0, 0.0, 0.0, -28.45377069160589, 0.0]
['beep', 0.0, -23.804607844902023, 0.0, 0.0, 0.0, 0.0, -28.409067202695276, 0.0]
['beep', 0.0, -23.82695958935733, 0.0, 0.0, 0.0, 0.0, -28.31966022487405, 0.0]
['beep', 0.0, -23.82695958935733, 0.0, 0.0, 0.0, 0.0, -28.364363713784662, 0.0]
['beep', 0.0, -23.849311333812636, 0.0, 0.0, 0.0, 0.0, -28.38671545823997, 0.0]
['beep', 0.0, -23.849311333812636, 0.0, 0.0, 0.0, 0.0, -28.409067202695276, 0.0]
['beep', 0.0, -23.849311333812636, 0.0, 0.0, 0.0, 0.0, -28.297308480418742, 0.0]
['beep', 0.0, -23.849311333812636, 0.0, 0.0, 0.0, 0.0, -28.297308480418742, 0.0]
['beep', 0.0, -23.849311333812636, 0.0, 0.0, 0.0, 0.0, -28.297308480418742, 0.0]
['beep', 0.0, -23.849311333812636, 0.0, 0.0, 0.0, 0.0, -28.31966022487405, 0.0]
['beep', 0.0, -23.849311333812636, 0.0, 0.0, 0.0, 0.0, -28.342011969329356, 0.0]
['beep', 0.0, -23.849311333812636, 0.0, 0.0, 0.0, 0.0, -28.342011969329356, 0.0]
['beep', 0.0, -23.89401482272325, 0.0, 0.0, 0.0, 0.0, -28.364363713784662, 0.0]
['beep', 0.0, -23.871663078267943, 0.0, 0.0, 0.0, 0.0, -28.364363713784662, 0.0]
['beep', 0.0, -23.849311333812636, 0.0, 0.0, 0.0, 0.0, -28.38671545823997, 0.0]
['beep', 0.0, -23.82695958935733, 0.0, 0.0, 0.0, 0.0, -28.364363713784662, 0.0]
['beep', 0.0, -23.871663078267943, 0.0, 0.0, 0.0, 0.0, -28.38671545823997, 0.0]
['beep', 0.0, -23.849311333812636, 0.0, 0.0, 0.0, 0.0, -28.431418947150583, 0.0]
['beep', 0.0, -23.849311333812636, 0.0, 0.0, 0.0, 0.0, -28.409067202695276, 0.0]
['beep', 0.0, -23.89401482272325, 0.0, 0.0, 0.0, 0.0, -28.409067202695276, 0.0]
['beep', 0.0, -23.871663078267943, 0.0, 0.0, 0.0, 0.0, -28.342011969329356, 0.0]
['beep', 0.0, -23.849311333812636, 0.0, 0.0, 0.0, 0.0, -28.364363713784662, 0.0]
['beep', 0.0, -23.849311333812636, 0.0, 0.0, 0.0, 0.0, -28.364363713784662, 0.0]
['beep', 0.0, -23.82695958935733, 0.0, 0.0, 0.0, 0.0, -28.342011969329356, 0.0]
['beep', 0.0, -23.804607844902023, 0.0, 0.0, 0.0, 0.0, -28.364363713784662, 0.0]
['beep', 0.0, -23.849311333812636, 0.0, 0.0, 0.0, 0.0, -28.364363713784662, 0.0]
['beep', 0.0, -23.871663078267943, 0.0, 0.0, 0.0, 0.0, -28.31966022487405, 0.0]
['beep', 0.0, -23.849311333812636, 0.0, 0.0, 0.0, 0.0, -28.364363713784662, 0.0]
['beep', 0.0, -23.82695958935733, 0.0, 0.0, 0.0, 0.0, -28.364363713784662, 0.0]
['beep', 0.0, -23.804607844902023, 0.0, 0.0, 0.0, 0.0, -28.364363713784662, 0.0]
['beep', 0.0, -23.804607844902023, 0.0, 0.0, 0.0, 0.0, -28.364363713784662, 0.0]
['beep', 0.0, -23.849311333812636, 0.0, 0.0, 0.0, 0.0, -28.409067202695276, 0.0]
['beep', 0.0, -23.82695958935733, 0.0, 0.0, 0.0, 0.0, -28.431418947150583, 0.0]
['beep', 0.0, -23.849311333812636, 0.0, 0.0, 0.0, 0.0, -28.364363713784662, 0.0]
['beep', 0.0, -23.82695958935733, 0.0, 0.0, 0.0, 0.0, -28.364363713784662, 0.0]
['beep', 0.0, -23.849311333812636, 0.0, 0.0, 0.0, 0.0, -28.342011969329356, 0.0]
['beep', 0.0, -23.849311333812636, 0.0, 0.0, 0.0, 0.0, -28.31966022487405, 0.0]
['beep', 0.0, -23.849311333812636, 0.0, 0.0, 0.0, 0.0, -28.364363713784662, 0.0]
['beep', 0.0, -23.849311333812636, 0.0, 0.0, 0.0, 0.0, -28.409067202695276, 0.0]
['beep', 0.0, -23.782256100446716, 0.0, 0.0, 0.0, 0.0, -28.409067202695276, 0.0]
['beep', 0.0, -23.804607844902023, 0.0, 0.0, 0.0, 0.0, -28.38671545823997, 0.0]
['beep', 0.0, -23.804607844902023, 0.0, 0.0, 0.0, 0.0, -28.342011969329356, 0.0]
['beep', 0.0, -23.871663078267943, 0.0, 0.0, 0.0, 0.0, -28.31966022487405, 0.0]
['beep', 0.0, -23.89401482272325, 0.0, 0.0, 0.0, 0.0, -28.364363713784662, 0.0]
['beep', 0.0, -23.849311333812636, 0.0, 0.0, 0.0, 0.0, -28.364363713784662, 0.0]
['beep', 0.0, -23.82695958935733, 0.0, 0.0, 0.0, 0.0, -28.38671545823997, 0.0]
['beep', 0.0, -23.871663078267943, 0.0, 0.0, 0.0, 0.0, -28.364363713784662, 0.0]
['beep', 0.0, -23.82695958935733, 0.0, 0.0, 0.0, 0.0, -28.364363713784662, 0.0]
['beep', 0.0, -23.82695958935733, 0.0, 0.0, 0.0, 0.0, -28.364363713784662, 0.0]
['beep', 0.0, -23.82695958935733, 0.0, 0.0, 0.0, 0.0, -28.409067202695276, 0.0]
['beep', 0.0, -23.849311333812636, 0.0, 0.0, 0.0, 0.0, -28.409067202695276, 0.0]
['beep', 0.0, -23.849311333812636, 0.0, 0.0, 0.0, 0.0, -28.409067202695276, 0.0]
['beep', 0.0, -23.82695958935733, 0.0, 0.0, 0.0, 0.0, -28.431418947150583, 0.0]
['beep', 0.0, -23.82695958935733, 0.0, 0.0, 0.0, 0.0, -28.431418947150583, 0.0]
['beep', 0.0, -23.849311333812636, 0.0, 0.0, 0.0, 0.0, -28.409067202695276, 0.0]
['beep', 0.0, -23.871663078267943, 0.0, 0.0, 0.0, 0.0, -28.364363713784662, 0.0]
['beep', 0.0, -23.89401482272325, 0.0, 0.0, 0.0, 0.0, -28.38671545823997, 0.0]
['beep', 0.0, -23.82695958935733, 0.0, 0.0, 0.0, 0.0, -28.364363713784662, 0.0]
['beep', 0.0, -23.82695958935733, 0.0, 0.0, 0.0, 0.0, -28.364363713784662, 0.0]
['beep', 0.0, -23.849311333812636, 0.0, 0.0, 0.0, 0.0, -28.364363713784662, 0.0]
['beep', 0.0, -23.849311333812636, 0.0, 0.0, 0.0, 0.0, -28.297308480418742, 0.0]
['beep', 0.0, -23.849311333812636, 0.0, 0.0, 0.0, 0.0, -28.297308480418742, 0.0]
['beep', 0.0, -23.89401482272325, 0.0, 0.0, 0.0, 0.0, -28.31966022487405, 0.0]
['beep', 0.0, -23.871663078267943, 0.0, 0.0, 0.0, 0.0, -28.364363713784662, 0.0]
['beep', 0.0, -23.849311333812636, 0.0, 0.0, 0.0, 0.0, -28.364363713784662, 0.0]
['beep', 0.0, -23.849311333812636, 0.0, 0.0, 0.0, 0.0, -28.409067202695276, 0.0]
['beep', 0.0, -23.849311333812636, 0.0, 0.0, 0.0, 0.0, -28.342011969329356, 0.0]
['beep', 0.0, -23.82695958935733, 0.0, 0.0, 0.0, 0.0, -28.364363713784662, 0.0]
['beep', 0.0, -23.82695958935733, 0.0, 0.0, 0.0, 0.0, -28.38671545823997, 0.0]
['beep', 0.0, -23.89401482272325, 0.0, 0.0, 0.0, 0.0, -28.38671545823997, 0.0]
['beep', 0.0, -23.871663078267943, 0.0, 0.0, 0.0, 0.0, -28.409067202695276, 0.0]
['beep', 0.0, -23.871663078267943, 0.0, 0.0, 0.0, 0.0, -28.364363713784662, 0.0]
['beep', 0.0, -23.849311333812636, 0.0, 0.0, 0.0, 0.0, -28.31966022487405, 0.0]
['beep', 0.0, -23.82695958935733, 0.0, 0.0, 0.0, 0.0, -28.364363713784662, 0.0]
['beep', 0.0, -23.82695958935733, 0.0, 0.0, 0.0, 0.0, -28.409067202695276, 0.0]
['beep', 0.0, -23.82695958935733, 0.0, 0.0, 0.0, 0.0, -28.364363713784662, 0.0]
['beep', 0.0, -23.871663078267943, 0.0, 0.0, 0.0, 0.0, -28.31966022487405, 0.0]
['beep', 0.0, -23.871663078267943, 0.0, 0.0, 0.0, 0.0, -28.31966022487405, 0.0]
['beep', 0.0, -23.89401482272325, 0.0, 0.0, 0.0, 0.0, -28.342011969329356, 0.0]
['beep', 0.0, -23.849311333812636, 0.0, 0.0, 0.0, 0.0, -28.364363713784662, 0.0]
['beep', 0.0, -23.849311333812636, 0.0, 0.0, 0.0, 0.0, -28.364363713784662, 0.0]
['beep', 0.0, -23.82695958935733, 0.0, 0.0, 0.0, 0.0, -28.38671545823997, 0.0]
['beep', 0.0, -23.782256100446716, 0.0, 0.0, 0.0, 0.0, -28.409067202695276, 0.0]
['beep', 0.0, -23.782256100446716, 0.0, 0.0, 0.0, 0.0, -28.409067202695276, 0.0]
['beep', 0.0, -23.782256100446716, 0.0, 0.0, 0.0, 0.0, -28.38671545823997, 0.0]
['beep', 0.0, -23.849311333812636, 0.0, 0.0, 0.0, 0.0, -28.38671545823997, 0.0]
['beep', 0.0, -23.849311333812636, 0.0, 0.0, 0.0, 0.0, -28.364363713784662, 0.0]
['beep', 0.0, -23.82695958935733, 0.0, 0.0, 0.0, 0.0, -28.409067202695276, 0.0]
['beep', 0.0, -23.871663078267943, 0.0, 0.0, 0.0, 0.0, -28.364363713784662, 0.0]
['beep', 0.0, -23.82695958935733, 0.0, 0.0, 0.0, 0.0, -28.364363713784662, 0.0]
['beep', 0.0, -23.782256100446716, 0.0, 0.0, 0.0, 0.0, -28.409067202695276, 0.0]
['beep', 0.0, -23.75990435599141, 0.0, 0.0, 0.0, 0.0, -28.364363713784662, 0.0]
['beep', 0.0, -23.804607844902023, 0.0, 0.0, 0.0, 0.0, -28.364363713784662, 0.0]
['beep', 0.0, -23.804607844902023, 0.0, 0.0, 0.0, 0.0, -28.38671545823997, 0.0]
['beep', 0.0, -23.82695958935733, 0.0, 0.0, 0.0, 0.0, -28.31966022487405, 0.0]
['beep', 0.0, -23.849311333812636, 0.0, 0.0, 0.0, 0.0, -28.364363713784662, 0.0]
['beep', 0.0, -23.804607844902023, 0.0, 0.0, 0.0, 0.0, -28.431418947150583, 0.0]
['beep', 0.0, -23.849311333812636, 0.0, 0.0, 0.0, 0.0, -28.364363713784662, 0.0]
['beep', 0.0, -23.82695958935733, 0.0, 0.0, 0.0, 0.0, -28.31966022487405, 0.0]
['beep', 0.0, -23.871663078267943, 0.0, 0.0, 0.0, 0.0, -28.342011969329356, 0.0]
['beep', 0.0, -23.871663078267943, 0.0, 0.0, 0.0, 0.0, -28.364363713784662, 0.0]
['beep', 0.0, -23.849311333812636, 0.0, 0.0, 0.0, 0.0, -28.364363713784662, 0.0]
['beep', 0.0, -23.849311333812636, 0.0, 0.0, 0.0, 0.0, -28.364363713784662, 0.0]
['beep', 0.0, -23.89401482272325, 0.0, 0.0, 0.0, 0.0, -28.364363713784662, 0.0]
['beep', 0.0, -23.849311333812636, 0.0, 0.0, 0.0, 0.0, -28.38671545823997, 0.0]
['beep', 0.0, -23.89401482272325, 0.0, 0.0, 0.0, 0.0, -28.364363713784662, 0.0]
['beep', 0.0, -23.849311333812636, 0.0, 0.0, 0.0, 0.0, -28.31966022487405, 0.0]
['beep', 0.0, -23.871663078267943, 0.0, 0.0, 0.0, 0.0, -28.31966022487405, 0.0]
['beep', 0.0, -23.89401482272325, 0.0, 0.0, 0.0, 0.0, -28.364363713784662, 0.0]
['beep', 0.0, -23.871663078267943, 0.0, 0.0, 0.0, 0.0, -28.342011969329356, 0.0]
['beep', 0.0, -23.916366567178557, 0.0, 0.0, 0.0, 0.0, -28.364363713784662, 0.0]
['beep', 0.0, -23.938718311633863, 0.0, 0.0, 0.0, 0.0, -28.431418947150583, 0.0]
['beep', 0.0, -23.849311333812636, 0.0, 0.0, 0.0, 0.0, -28.38671545823997, 0.0]
['beep', 0.0, -23.804607844902023, 0.0, 0.0, 0.0, 0.0, -28.409067202695276, 0.0]
['beep', 0.0, -23.782256100446716, 0.0, 0.0, 0.0, 0.0, -28.38671545823997, 0.0]
['beep', 0.0, -23.849311333812636, 0.0, 0.0, 0.0, 0.0, -28.342011969329356, 0.0]
['beep', 0.0, -23.871663078267943, 0.0, 0.0, 0.0, 0.0, -28.297308480418742, 0.0]
['beep', 0.0, -23.849311333812636, 0.0, 0.0, 0.0, 0.0, -28.297308480418742, 0.0]
['beep', 0.0, -23.849311333812636, 0.0, 0.0, 0.0, 0.0, -28.297308480418742, 0.0]
['beep', 0.0, -23.82695958935733, 0.0, 0.0, 0.0, 0.0, -28.297308480418742, 0.0]
['beep', 0.0, -23.82695958935733, 0.0, 0.0, 0.0, 0.0, -28.38671545823997, 0.0]
['beep', 0.0, -23.82695958935733, 0.0, 0.0, 0.0, 0.0, -28.45377069160589, 0.0]
['beep', 0.0, -23.82695958935733, 0.0, 0.0, 0.0, 0.0, -28.364363713784662, 0.0]
['beep', 0.0, -23.89401482272325, 0.0, 0.0, 0.0, 0.0, -28.364363713784662, 0.0]
['beep', 0.0, -23.849311333812636, 0.0, 0.0, 0.0, 0.0, -28.409067202695276, 0.0]
['beep', 0.0, -23.782256100446716, 0.0, 0.0, 0.0, 0.0, -28.409067202695276, 0.0]
['beep', 0.0, -23.82695958935733, 0.0, 0.0, 0.0, 0.0, -28.409067202695276, 0.0]
['beep', 0.0, -23.82695958935733, 0.0, 0.0, 0.0, 0.0, -28.342011969329356, 0.0]
['beep', 0.0, -23.782256100446716, 0.0, 0.0, 0.0, 0.0, -28.38671545823997, 0.0]
['beep', 0.0, -23.89401482272325, 0.0, 0.0, 0.0, 0.0, -28.364363713784662, 0.0]
['beep', 0.0, -23.871663078267943, 0.0, 0.0, 0.0, 0.0, -28.297308480418742, 0.0]
['beep', 0.0, -23.89401482272325, 0.0, 0.0, 0.0, 0.0, -28.342011969329356, 0.0]
['beep', 0.0, -23.849311333812636, 0.0, 0.0, 0.0, 0.0, -28.364363713784662, 0.0]
['beep', 0.0, -23.89401482272325, 0.0, 0.0, 0.0, 0.0, -28.409067202695276, 0.0]
['beep', 0.0, -23.849311333812636, 0.0, 0.0, 0.0, 0.0, -28.364363713784662, 0.0]
['beep', 0.0, -23.849311333812636, 0.0, 0.0, 0.0, 0.0, -28.342011969329356, 0.0]
['beep', 0.0, -23.849311333812636, 0.0, 0.0, 0.0, 0.0, -28.364363713784662, 0.0]
['beep', 0.0, -23.849311333812636, 0.0, 0.0, 0.0, 0.0, -28.364363713784662, 0.0]
['beep', 0.0, -23.849311333812636, 0.0, 0.0, 0.0, 0.0, -28.364363713784662, 0.0]
['beep', 0.0, -23.849311333812636, 0.0, 0.0, 0.0, 0.0, -28.364363713784662, 0.0]
['beep', 0.0, -23.89401482272325, 0.0, 0.0, 0.0, 0.0, -28.38671545823997, 0.0]
['beep', 0.0, -23.871663078267943, 0.0, 0.0, 0.0, 0.0, -28.409067202695276, 0.0]
['beep', 0.0, -23.849311333812636, 0.0, 0.0, 0.0, 0.0, -28.409067202695276, 0.0]
['beep', 0.0, -23.849311333812636, 0.0, 0.0, 0.0, 0.0, -28.342011969329356, 0.0]
['beep', 0.0, -23.849311333812636, 0.0, 0.0, 0.0, 0.0, -28.342011969329356, 0.0]
['beep', 0.0, -23.89401482272325, 0.0, 0.0, 0.0, 0.0, -28.364363713784662, 0.0]
['beep', 0.0, -23.871663078267943, 0.0, 0.0, 0.0, 0.0, -28.364363713784662, 0.0]
['beep', 0.0, -23.82695958935733, 0.0, 0.0, 0.0, 0.0, -28.409067202695276, 0.0]
['beep', 0.0, -23.849311333812636, 0.0, 0.0, 0.0, 0.0, -28.31966022487405, 0.0]
['beep', 0.0, -23.849311333812636, 0.0, 0.0, 0.0, 0.0, -28.297308480418742, 0.0]
['beep', 0.0, -23.82695958935733, 0.0, 0.0, 0.0, 0.0, -28.342011969329356, 0.0]
['beep', 0.0, -23.82695958935733, 0.0, 0.0, 0.0, 0.0, -28.38671545823997, 0.0]
['beep', 0.0, -23.89401482272325, 0.0, 0.0, 0.0, 0.0, -28.364363713784662, 0.0]
['beep', 0.0, -23.89401482272325, 0.0, 0.0, 0.0, 0.0, -28.342011969329356, 0.0]
['beep', 0.0, -23.849311333812636, 0.0, 0.0, 0.0, 0.0, -28.409067202695276, 0.0]
['beep', 0.0, -23.82695958935733, 0.0, 0.0, 0.0, 0.0, -28.409067202695276, 0.0]
['beep', 0.0, -23.849311333812636, 0.0, 0.0, 0.0, 0.0, -28.38671545823997, 0.0]
['beep', 0.0, -23.82695958935733, 0.0, 0.0, 0.0, 0.0, -28.364363713784662, 0.0]
['beep', 0.0, -23.849311333812636, 0.0, 0.0, 0.0, 0.0, -28.364363713784662, 0.0]
['beep', 0.0, -23.89401482272325, 0.0, 0.0, 0.0, 0.0, -28.342011969329356, 0.0]
['beep', 0.0, -23.871663078267943, 0.0, 0.0, 0.0, 0.0, -28.38671545823997, 0.0]
['beep', 0.0, -23.89401482272325, 0.0, 0.0, 0.0, 0.0, -28.364363713784662, 0.0]
['beep', 0.0, -23.871663078267943, 0.0, 0.0, 0.0, 0.0, -28.38671545823997, 0.0]
['beep', 0.0, -23.89401482272325, 0.0, 0.0, 0.0, 0.0, -28.364363713784662, 0.0]
['beep', 0.0, -23.82695958935733, 0.0, 0.0, 0.0, 0.0, -28.38671545823997, 0.0]
['beep', 0.0, -23.82695958935733, 0.0, 0.0, 0.0, 0.0, -28.38671545823997, 0.0]
['beep', 0.0, -23.849311333812636, 0.0, 0.0, 0.0, 0.0, -28.431418947150583, 0.0]
['beep', 0.0, -23.82695958935733, 0.0, 0.0, 0.0, 0.0, -28.409067202695276, 0.0]
['beep', 0.0, -23.849311333812636, 0.0, 0.0, 0.0, 0.0, -28.364363713784662, 0.0]
['beep', 0.0, -23.82695958935733, 0.0, 0.0, 0.0, 0.0, -28.364363713784662, 0.0]
['beep', 0.0, -23.849311333812636, 0.0, 0.0, 0.0, 0.0, -28.364363713784662, 0.0]
['beep', 0.0, -23.849311333812636, 0.0, 0.0, 0.0, 0.0, -28.38671545823997, 0.0]
['beep', 0.0, -23.871663078267943, 0.0, 0.0, 0.0, 0.0, -28.38671545823997, 0.0]
['beep', 0.0, -23.849311333812636, 0.0, 0.0, 0.0, 0.0, -28.38671545823997, 0.0]
['beep', 0.0, -23.804607844902023, 0.0, 0.0, 0.0, 0.0, -28.364363713784662, 0.0]
['beep', 0.0, -23.82695958935733, 0.0, 0.0, 0.0, 0.0, -28.38671545823997, 0.0]
['beep', 0.0, -23.871663078267943, 0.0, 0.0, 0.0, 0.0, -28.38671545823997, 0.0]
['beep', 0.0, -23.89401482272325, 0.0, 0.0, 0.0, 0.0, -28.409067202695276, 0.0]
['beep', 0.0, -23.89401482272325, 0.0, 0.0, 0.0, 0.0, -28.431418947150583, 0.0]
['beep', 0.0, -23.89401482272325, 0.0, 0.0, 0.0, 0.0, -28.342011969329356, 0.0]
['beep', 0.0, -23.82695958935733, 0.0, 0.0, 0.0, 0.0, -28.31966022487405, 0.0]
['beep', 0.0, -23.82695958935733, 0.0, 0.0, 0.0, 0.0, -28.364363713784662, 0.0]
['beep', 0.0, -23.82695958935733, 0.0, 0.0, 0.0, 0.0, -28.409067202695276, 0.0]
['beep', 0.0, -23.849311333812636, 0.0, 0.0, 0.0, 0.0, -28.409067202695276, 0.0]
['beep', 0.0, -23.804607844902023, 0.0, 0.0, 0.0, 0.0, -28.38671545823997, 0.0]
['beep', 0.0, -23.82695958935733, 0.0, 0.0, 0.0, 0.0, -28.364363713784662, 0.0]
['beep', 0.0, -23.849311333812636, 0.0, 0.0, 0.0, 0.0, -28.364363713784662, 0.0]
['beep', 0.0, -23.89401482272325, 0.0, 0.0, 0.0, 0.0, -28.31966022487405, 0.0]
['beep', 0.0, -23.849311333812636, 0.0, 0.0, 0.0, 0.0, -28.342011969329356, 0.0]
['beep', 0.0, -23.871663078267943, 0.0, 0.0, 0.0, 0.0, -28.364363713784662, 0.0]
['beep', 0.0, -23.849311333812636, 0.0, 0.0, 0.0, 0.0, -28.38671545823997, 0.0]
['beep', 0.0, -23.849311333812636, 0.0, 0.0, 0.0, 0.0, -28.364363713784662, 0.0]
['beep', 0.0, -23.804607844902023, 0.0, 0.0, 0.0, 0.0, -28.364363713784662, 0.0]
['beep', 0.0, -23.849311333812636, 0.0, 0.0, 0.0, 0.0, -28.364363713784662, 0.0]
['beep', 0.0, -23.871663078267943, 0.0, 0.0, 0.0, 0.0, -28.431418947150583, 0.0]
['beep', 0.0, -23.849311333812636, 0.0, 0.0, 0.0, 0.0, -28.38671545823997, 0.0]
['beep', 0.0, -23.871663078267943, 0.0, 0.0, 0.0, 0.0, -28.31966022487405, 0.0]
['beep', 0.0, -23.89401482272325, 0.0, 0.0, 0.0, 0.0, -28.364363713784662, 0.0]
['beep', 0.0, -23.82695958935733, 0.0, 0.0, 0.0, 0.0, -28.38671545823997, 0.0]
['beep', 0.0, -23.804607844902023, 0.0, 0.0, 0.0, 0.0, -28.38671545823997, 0.0]
['beep', 0.0, -23.849311333812636, 0.0, 0.0, 0.0, 0.0, -28.364363713784662, 0.0]
['beep', 0.0, -23.871663078267943, 0.0, 0.0, 0.0, 0.0, -28.364363713784662, 0.0]
['beep', 0.0, -23.916366567178557, 0.0, 0.0, 0.0, 0.0, -28.364363713784662, 0.0]
['beep', 0.0, -23.871663078267943, 0.0, 0.0, 0.0, 0.0, -28.342011969329356, 0.0]
['beep', 0.0, -23.82695958935733, 0.0, 0.0, 0.0, 0.0, -28.297308480418742, 0.0]
['beep', 0.0, -23.849311333812636, 0.0, 0.0, 0.0, 0.0, -28.364363713784662, 0.0]
['beep', 0.0, -23.849311333812636, 0.0, 0.0, 0.0, 0.0, -28.409067202695276, 0.0]
['beep', 0.0, -23.871663078267943, 0.0, 0.0, 0.0, 0.0, -28.38671545823997, 0.0]
['beep', 0.0, -23.82695958935733, 0.0, 0.0, 0.0, 0.0, -28.364363713784662, 0.0]
['beep', 0.0, -23.82695958935733, 0.0, 0.0, 0.0, 0.0, -28.297308480418742, 0.0]
['beep', 0.0, -23.849311333812636, 0.0, 0.0, 0.0, 0.0, -28.364363713784662, 0.0]
['beep', 0.0, -23.89401482272325, 0.0, 0.0, 0.0, 0.0, -28.38671545823997, 0.0]
['beep', 0.0, -23.82695958935733, 0.0, 0.0, 0.0, 0.0, -28.364363713784662, 0.0]
['beep', 0.0, -23.804607844902023, 0.0, 0.0, 0.0, 0.0, -28.409067202695276, 0.0]
['beep', 0.0, -23.82695958935733, 0.0, 0.0, 0.0, 0.0, -28.364363713784662, 0.0]
['beep', 0.0, -23.82695958935733, 0.0, 0.0, 0.0, 0.0, -28.342011969329356, 0.0]
['beep', 0.0, -23.82695958935733, 0.0, 0.0, 0.0, 0.0, -28.364363713784662, 0.0]
['beep', 0.0, -23.82695958935733, 0.0, 0.0, 0.0, 0.0, -28.409067202695276, 0.0]
['beep', 0.0, -23.804607844902023, 0.0, 0.0, 0.0, 0.0, -28.409067202695276, 0.0]
['beep', 0.0, -23.782256100446716, 0.0, 0.0, 0.0, 0.0, -28.364363713784662, 0.0]
['beep', 0.0, -23.849311333812636, 0.0, 0.0, 0.0, 0.0, -28.342011969329356, 0.0]
['beep', 0.0, -23.804607844902023, 0.0, 0.0, 0.0, 0.0, -28.364363713784662, 0.0]
['beep', 0.0, -23.849311333812636, 0.0, 0.0, 0.0, 0.0, -28.364363713784662, 0.0]
['beep', 0.0, -23.871663078267943, 0.0, 0.0, 0.0, 0.0, -28.409067202695276, 0.0]
['beep', 0.0, -23.849311333812636, 0.0, 0.0, 0.0, 0.0, -28.409067202695276, 0.0]
['beep', 0.0, -23.804607844902023, 0.0, 0.0, 0.0, 0.0, -28.364363713784662, 0.0]
['beep', 0.0, -23.871663078267943, 0.0, 0.0, 0.0, 0.0, -28.342011969329356, 0.0]
['beep', 0.0, -23.849311333812636, 0.0, 0.0, 0.0, 0.0, -28.342011969329356, 0.0]
['beep', 0.0, -23.82695958935733, 0.0, 0.0, 0.0, 0.0, -28.364363713784662, 0.0]
['beep', 0.0, -23.849311333812636, 0.0, 0.0, 0.0, 0.0, -28.31966022487405, 0.0]
['beep', 0.0, -23.89401482272325, 0.0, 0.0, 0.0, 0.0, -28.409067202695276, 0.0]
['beep', 0.0, -23.82695958935733, 0.0, 0.0, 0.0, 0.0, -28.409067202695276, 0.0]
['beep', 0.0, -23.82695958935733, 0.0, 0.0, 0.0, 0.0, -28.364363713784662, 0.0]
['beep', 0.0, -23.82695958935733, 0.0, 0.0, 0.0, 0.0, -28.38671545823997, 0.0]
['beep', 0.0, -23.849311333812636, 0.0, 0.0, 0.0, 0.0, -28.38671545823997, 0.0]
['beep', 0.0, -23.849311333812636, 0.0, 0.0, 0.0, 0.0, -28.364363713784662, 0.0]
['beep', 0.0, -23.82695958935733, 0.0, 0.0, 0.0, 0.0, -28.409067202695276, 0.0]
['beep', 0.0, -23.804607844902023, 0.0, 0.0, 0.0, 0.0, -28.38671545823997, 0.0]
['beep', 0.0, -23.82695958935733, 0.0, 0.0, 0.0, 0.0, -28.431418947150583, 0.0]
['beep', 0.0, -23.849311333812636, 0.0, 0.0, 0.0, 0.0, -28.364363713784662, 0.0]
['beep', 0.0, -23.849311333812636, 0.0, 0.0, 0.0, 0.0, -28.364363713784662, 0.0]
['beep', 0.0, -23.89401482272325, 0.0, 0.0, 0.0, 0.0, -28.431418947150583, 0.0]
['beep', 0.0, -23.849311333812636, 0.0, 0.0, 0.0, 0.0, -28.38671545823997, 0.0]
['beep', 0.0, -23.849311333812636, 0.0, 0.0, 0.0, 0.0, -28.31966022487405, 0.0]
['beep', 0.0, -23.89401482272325, 0.0, 0.0, 0.0, 0.0, -28.31966022487405, 0.0]
['beep', 0.0, -23.89401482272325, 0.0, 0.0, 0.0, 0.0, -28.364363713784662, 0.0]
['beep', 0.0, -23.849311333812636, 0.0, 0.0, 0.0, 0.0, -28.364363713784662, 0.0]
['beep', 0.0, -23.82695958935733, 0.0, 0.0, 0.0, 0.0, -28.364363713784662, 0.0]
['beep', 0.0, -23.82695958935733, 0.0, 0.0, 0.0, 0.0, -28.409067202695276, 0.0]
['beep', 0.0, -23.849311333812636, 0.0, 0.0, 0.0, 0.0, -28.409067202695276, 0.0]
['beep', 0.0, -23.82695958935733, 0.0, 0.0, 0.0, 0.0, -28.409067202695276, 0.0]
['beep', 0.0, -23.849311333812636, 0.0, 0.0, 0.0, 0.0, -28.409067202695276, 0.0]
['beep', 0.0, -23.82695958935733, 0.0, 0.0, 0.0, 0.0, -28.31966022487405, 0.0]
['beep', 0.0, -23.82695958935733, 0.0, 0.0, 0.0, 0.0, -28.38671545823997, 0.0]
['beep', 0.0, -23.849311333812636, 0.0, 0.0, 0.0, 0.0, -28.409067202695276, 0.0]
['beep', 0.0, -23.82695958935733, 0.0, 0.0, 0.0, 0.0, -28.364363713784662, 0.0]
['beep', 0.0, -23.804607844902023, 0.0, 0.0, 0.0, 0.0, -28.364363713784662, 0.0]
['beep', 0.0, -23.849311333812636, 0.0, 0.0, 0.0, 0.0, -28.38671545823997, 0.0]
['beep', 0.0, -23.82695958935733, 0.0, 0.0, 0.0, 0.0, -28.364363713784662, 0.0]
['beep', 0.0, -23.849311333812636, 0.0, 0.0, 0.0, 0.0, -28.409067202695276, 0.0]
['beep', 0.0, -23.82695958935733, 0.0, 0.0, 0.0, 0.0, -28.364363713784662, 0.0]
['beep', 0.0, -23.804607844902023, 0.0, 0.0, 0.0, 0.0, -28.364363713784662, 0.0]
['beep', 0.0, -23.849311333812636, 0.0, 0.0, 0.0, 0.0, -28.409067202695276, 0.0]
['beep', 0.0, -23.849311333812636, 0.0, 0.0, 0.0, 0.0, -28.409067202695276, 0.0]
['beep', 0.0, -23.89401482272325, 0.0, 0.0, 0.0, 0.0, -28.364363713784662, 0.0]
['beep', 0.0, -23.849311333812636, 0.0, 0.0, 0.0, 0.0, -28.364363713784662, 0.0]
['beep', 0.0, -23.849311333812636, 0.0, 0.0, 0.0, 0.0, -28.409067202695276, 0.0]
['beep', 0.0, -23.82695958935733, 0.0, 0.0, 0.0, 0.0, -28.409067202695276, 0.0]
['beep', 0.0, -23.849311333812636, 0.0, 0.0, 0.0, 0.0, -28.342011969329356, 0.0]
['beep', 0.0, -23.849311333812636, 0.0, 0.0, 0.0, 0.0, -28.364363713784662, 0.0]
['beep', 0.0, -23.871663078267943, 0.0, 0.0, 0.0, 0.0, -28.431418947150583, 0.0]
['beep', 0.0, -23.89401482272325, 0.0, 0.0, 0.0, 0.0, -28.38671545823997, 0.0]
['beep', 0.0, -23.89401482272325, 0.0, 0.0, 0.0, 0.0, -28.31966022487405, 0.0]
['beep', 0.0, -23.871663078267943, 0.0, 0.0, 0.0, 0.0, -28.31966022487405, 0.0]
['beep', 0.0, -23.82695958935733, 0.0, 0.0, 0.0, 0.0, -28.31966022487405, 0.0]
['beep', 0.0, -23.849311333812636, 0.0, 0.0, 0.0, 0.0, -28.364363713784662, 0.0]
['beep', 0.0, -23.849311333812636, 0.0, 0.0, 0.0, 0.0, -28.38671545823997, 0.0]
['beep', 0.0, -23.849311333812636, 0.0, 0.0, 0.0, 0.0, -28.38671545823997, 0.0]
['beep', 0.0, -23.871663078267943, 0.0, 0.0, 0.0, 0.0, -28.409067202695276, 0.0]
['beep', 0.0, -23.849311333812636, 0.0, 0.0, 0.0, 0.0, -28.409067202695276, 0.0]
['beep', 0.0, -23.89401482272325, 0.0, 0.0, 0.0, 0.0, -28.431418947150583, 0.0]
['beep', 0.0, -23.849311333812636, 0.0, 0.0, 0.0, 0.0, -28.364363713784662, 0.0]
['beep', 0.0, -23.82695958935733, 0.0, 0.0, 0.0, 0.0, -28.31966022487405, 0.0]
['beep', 0.0, -23.89401482272325, 0.0, 0.0, 0.0, 0.0, -28.342011969329356, 0.0]
['beep', 0.0, -23.871663078267943, 0.0, 0.0, 0.0, 0.0, -28.409067202695276, 0.0]
['beep', 0.0, -23.849311333812636, 0.0, 0.0, 0.0, 0.0, -28.38671545823997, 0.0]
['beep', 0.0, -23.849311333812636, 0.0, 0.0, 0.0, 0.0, -28.31966022487405, 0.0]
['beep', 0.0, -23.82695958935733, 0.0, 0.0, 0.0, 0.0, -28.364363713784662, 0.0]
['beep', 0.0, -23.82695958935733, 0.0, 0.0, 0.0, 0.0, -28.364363713784662, 0.0]
['beep', 0.0, -23.82695958935733, 0.0, 0.0, 0.0, 0.0, -28.31966022487405, 0.0]
['beep', 0.0, -23.849311333812636, 0.0, 0.0, 0.0, 0.0, -28.31966022487405, 0.0]
['beep', 0.0, -23.82695958935733, 0.0, 0.0, 0.0, 0.0, -28.342011969329356, 0.0]
['beep', 0.0, -23.849311333812636, 0.0, 0.0, 0.0, 0.0, -28.364363713784662, 0.0]
['beep', 0.0, -23.871663078267943, 0.0, 0.0, 0.0, 0.0, -28.364363713784662, 0.0]
['beep', 0.0, -23.849311333812636, 0.0, 0.0, 0.0, 0.0, -28.364363713784662, 0.0]
['beep', 0.0, -23.804607844902023, 0.0, 0.0, 0.0, 0.0, -28.364363713784662, 0.0]
['beep', 0.0, -23.82695958935733, 0.0, 0.0, 0.0, 0.0, -28.364363713784662, 0.0]
['beep', 0.0, -23.89401482272325, 0.0, 0.0, 0.0, 0.0, -28.38671545823997, 0.0]
['beep', 0.0, -23.804607844902023, 0.0, 0.0, 0.0, 0.0, -28.409067202695276, 0.0]
['beep', 0.0, -23.871663078267943, 0.0, 0.0, 0.0, 0.0, -28.409067202695276, 0.0]
['beep', 0.0, -23.82695958935733, 0.0, 0.0, 0.0, 0.0, -28.38671545823997, 0.0]
['beep', 0.0, -23.82695958935733, 0.0, 0.0, 0.0, 0.0, -28.31966022487405, 0.0]
['beep', 0.0, -23.82695958935733, 0.0, 0.0, 0.0, 0.0, -28.364363713784662, 0.0]
['beep', 0.0, -23.849311333812636, 0.0, 0.0, 0.0, 0.0, -28.409067202695276, 0.0]
['beep', 0.0, -23.82695958935733, 0.0, 0.0, 0.0, 0.0, -28.364363713784662, 0.0]
['beep', 0.0, -23.849311333812636, 0.0, 0.0, 0.0, 0.0, -28.38671545823997, 0.0]
['beep', 0.0, -23.89401482272325, 0.0, 0.0, 0.0, 0.0, -28.38671545823997, 0.0]
['beep', 0.0, -23.849311333812636, 0.0, 0.0, 0.0, 0.0, -28.364363713784662, 0.0]
['beep', 0.0, -23.82695958935733, 0.0, 0.0, 0.0, 0.0, -28.342011969329356, 0.0]
['beep', 0.0, -23.849311333812636, 0.0, 0.0, 0.0, 0.0, -28.38671545823997, 0.0]
['beep', 0.0, -23.849311333812636, 0.0, 0.0, 0.0, 0.0, -28.38671545823997, 0.0]
['beep', 0.0, -23.82695958935733, 0.0, 0.0, 0.0, 0.0, -28.409067202695276, 0.0]
['beep', 0.0, -23.871663078267943, 0.0, 0.0, 0.0, 0.0, -28.38671545823997, 0.0]
['beep', 0.0, -23.849311333812636, 0.0, 0.0, 0.0, 0.0, -28.364363713784662, 0.0]
['beep', 0.0, -23.82695958935733, 0.0, 0.0, 0.0, 0.0, -28.409067202695276, 0.0]
['beep', 0.0, -23.82695958935733, 0.0, 0.0, 0.0, 0.0, -28.431418947150583, 0.0]
['beep', 0.0, -23.849311333812636, 0.0, 0.0, 0.0, 0.0, -28.364363713784662, 0.0]
['beep', 0.0, -23.89401482272325, 0.0, 0.0, 0.0, 0.0, -28.342011969329356, 0.0]
['beep', 0.0, -23.849311333812636, 0.0, 0.0, 0.0, 0.0, -28.31966022487405, 0.0]
['beep', 0.0, -23.782256100446716, 0.0, 0.0, 0.0, 0.0, -28.342011969329356, 0.0]
['beep', 0.0, -23.82695958935733, 0.0, 0.0, 0.0, 0.0, -28.31966022487405, 0.0]
['beep', 0.0, -23.82695958935733, 0.0, 0.0, 0.0, 0.0, -28.364363713784662, 0.0]
['beep', 0.0, -23.782256100446716, 0.0, 0.0, 0.0, 0.0, -28.38671545823997, 0.0]
['beep', 0.0, -23.82695958935733, 0.0, 0.0, 0.0, 0.0, -28.364363713784662, 0.0]
['beep', 0.0, -23.849311333812636, 0.0, 0.0, 0.0, 0.0, -28.38671545823997, 0.0]
['beep', 0.0, -23.871663078267943, 0.0, 0.0, 0.0, 0.0, -28.431418947150583, 0.0]
['beep', 0.0, -23.89401482272325, 0.0, 0.0, 0.0, 0.0, -28.409067202695276, 0.0]
['beep', 0.0, -23.849311333812636, 0.0, 0.0, 0.0, 0.0, -28.45377069160589, 0.0]
['beep', 0.0, -23.849311333812636, 0.0, 0.0, 0.0, 0.0, -28.45377069160589, 0.0]
['beep', 0.0, -23.849311333812636, 0.0, 0.0, 0.0, 0.0, -28.431418947150583, 0.0]
['beep', 0.0, -23.849311333812636, 0.0, 0.0, 0.0, 0.0, -28.409067202695276, 0.0]
['beep', 0.0, -23.871663078267943, 0.0, 0.0, 0.0, 0.0, -28.409067202695276, 0.0]
['beep', 0.0, -23.849311333812636, 0.0, 0.0, 0.0, 0.0, -28.409067202695276, 0.0]
['beep', 0.0, -23.849311333812636, 0.0, 0.0, 0.0, 0.0, -28.38671545823997, 0.0]
['beep', 0.0, -23.82695958935733, 0.0, 0.0, 0.0, 0.0, -28.364363713784662, 0.0]
['beep', 0.0, -23.82695958935733, 0.0, 0.0, 0.0, 0.0, -28.364363713784662, 0.0]
['beep', 0.0, -23.82695958935733, 0.0, 0.0, 0.0, 0.0, -28.364363713784662, 0.0]
['beep', 0.0, -23.782256100446716, 0.0, 0.0, 0.0, 0.0, -28.364363713784662, 0.0]
['beep', 0.0, -23.782256100446716, 0.0, 0.0, 0.0, 0.0, -28.409067202695276, 0.0]
['beep', 0.0, -23.804607844902023, 0.0, 0.0, 0.0, 0.0, -28.409067202695276, 0.0]
['beep', 0.0, -23.849311333812636, 0.0, 0.0, 0.0, 0.0, -28.431418947150583, 0.0]
['beep', 0.0, -23.82695958935733, 0.0, 0.0, 0.0, 0.0, -28.409067202695276, 0.0]
['beep', 0.0, -23.82695958935733, 0.0, 0.0, 0.0, 0.0, -28.409067202695276, 0.0]
['beep', 0.0, -23.82695958935733, 0.0, 0.0, 0.0, 0.0, -28.409067202695276, 0.0]
['beep', 0.0, -23.804607844902023, 0.0, 0.0, 0.0, 0.0, -28.431418947150583, 0.0]
['beep', 0.0, -23.849311333812636, 0.0, 0.0, 0.0, 0.0, -28.431418947150583, 0.0]
['beep', 0.0, -23.82695958935733, 0.0, 0.0, 0.0, 0.0, -28.409067202695276, 0.0]
['beep', 0.0, -23.849311333812636, 0.0, 0.0, 0.0, 0.0, -28.409067202695276, 0.0]
['beep', 0.0, -23.82695958935733, 0.0, 0.0, 0.0, 0.0, -28.409067202695276, 0.0]
['beep', 0.0, -23.89401482272325, 0.0, 0.0, 0.0, 0.0, -28.364363713784662, 0.0]
['beep', 0.0, -23.849311333812636, 0.0, 0.0, 0.0, 0.0, -28.342011969329356, 0.0]
['beep', 0.0, -23.89401482272325, 0.0, 0.0, 0.0, 0.0, -28.38671545823997, 0.0]
['beep', 0.0, -23.89401482272325, 0.0, 0.0, 0.0, 0.0, -28.38671545823997, 0.0]
['beep', 0.0, -23.871663078267943, 0.0, 0.0, 0.0, 0.0, -28.409067202695276, 0.0]
['beep', 0.0, -23.82695958935733, 0.0, 0.0, 0.0, 0.0, -28.409067202695276, 0.0]
['beep', 0.0, -23.849311333812636, 0.0, 0.0, 0.0, 0.0, -28.364363713784662, 0.0]
['beep', 0.0, -23.871663078267943, 0.0, 0.0, 0.0, 0.0, -28.342011969329356, 0.0]
['beep', 0.0, -23.849311333812636, 0.0, 0.0, 0.0, 0.0, -28.297308480418742, 0.0]
['beep', 0.0, -23.82695958935733, 0.0, 0.0, 0.0, 0.0, -28.342011969329356, 0.0]
['beep', 0.0, -23.849311333812636, 0.0, 0.0, 0.0, 0.0, -28.431418947150583, 0.0]
['beep', 0.0, -23.82695958935733, 0.0, 0.0, 0.0, 0.0, -28.409067202695276, 0.0]
['beep', 0.0, -23.849311333812636, 0.0, 0.0, 0.0, 0.0, -28.364363713784662, 0.0]
['beep', 0.0, -23.849311333812636, 0.0, 0.0, 0.0, 0.0, -28.364363713784662, 0.0]
['beep', 0.0, -23.849311333812636, 0.0, 0.0, 0.0, 0.0, -28.38671545823997, 0.0]
['beep', 0.0, -23.82695958935733, 0.0, 0.0, 0.0, 0.0, -28.431418947150583, 0.0]
['beep', 0.0, -23.82695958935733, 0.0, 0.0, 0.0, 0.0, -28.38671545823997, 0.0]
['beep', 0.0, -23.782256100446716, 0.0, 0.0, 0.0, 0.0, -28.31966022487405, 0.0]
['beep', 0.0, -23.89401482272325, 0.0, 0.0, 0.0, 0.0, -28.364363713784662, 0.0]
['beep', 0.0, -23.849311333812636, 0.0, 0.0, 0.0, 0.0, -28.38671545823997, 0.0]
['beep', 0.0, -23.89401482272325, 0.0, 0.0, 0.0, 0.0, -28.364363713784662, 0.0]
['beep', 0.0, -23.89401482272325, 0.0, 0.0, 0.0, 0.0, -28.431418947150583, 0.0]
['beep', 0.0, -23.849311333812636, 0.0, 0.0, 0.0, 0.0, -28.364363713784662, 0.0]
['beep', 0.0, -23.871663078267943, 0.0, 0.0, 0.0, 0.0, -28.38671545823997, 0.0]
['beep', 0.0, -23.89401482272325, 0.0, 0.0, 0.0, 0.0, -28.342011969329356, 0.0]
['beep', 0.0, -23.82695958935733, 0.0, 0.0, 0.0, 0.0, -28.364363713784662, 0.0]
['beep', 0.0, -23.804607844902023, 0.0, 0.0, 0.0, 0.0, -28.409067202695276, 0.0]
['beep', 0.0, -23.871663078267943, 0.0, 0.0, 0.0, 0.0, -28.431418947150583, 0.0]
['beep', 0.0, -23.849311333812636, 0.0, 0.0, 0.0, 0.0, -28.409067202695276, 0.0]
['beep', 0.0, -23.82695958935733, 0.0, 0.0, 0.0, 0.0, -28.38671545823997, 0.0]
['beep', 0.0, -23.849311333812636, 0.0, 0.0, 0.0, 0.0, -28.38671545823997, 0.0]
['beep', 0.0, -23.804607844902023, 0.0, 0.0, 0.0, 0.0, -28.38671545823997, 0.0]
['beep', 0.0, -23.849311333812636, 0.0, 0.0, 0.0, 0.0, -28.364363713784662, 0.0]
['beep', 0.0, -23.871663078267943, 0.0, 0.0, 0.0, 0.0, -28.31966022487405, 0.0]
['beep', 0.0, -23.849311333812636, 0.0, 0.0, 0.0, 0.0, -28.364363713784662, 0.0]
['beep', 0.0, -23.871663078267943, 0.0, 0.0, 0.0, 0.0, -28.38671545823997, 0.0]
['beep', 0.0, -23.871663078267943, 0.0, 0.0, 0.0, 0.0, -28.364363713784662, 0.0]
['beep', 0.0, -23.804607844902023, 0.0, 0.0, 0.0, 0.0, -28.364363713784662, 0.0]
['beep', 0.0, -23.804607844902023, 0.0, 0.0, 0.0, 0.0, -28.364363713784662, 0.0]
['beep', 0.0, -23.82695958935733, 0.0, 0.0, 0.0, 0.0, -28.409067202695276, 0.0]
['beep', 0.0, -23.82695958935733, 0.0, 0.0, 0.0, 0.0, -28.31966022487405, 0.0]
['beep', 0.0, -23.871663078267943, 0.0, 0.0, 0.0, 0.0, -28.364363713784662, 0.0]
['beep', 0.0, -23.849311333812636, 0.0, 0.0, 0.0, 0.0, -28.31966022487405, 0.0]
['beep', 0.0, -23.871663078267943, 0.0, 0.0, 0.0, 0.0, -28.31966022487405, 0.0]
['beep', 0.0, -23.89401482272325, 0.0, 0.0, 0.0, 0.0, -28.364363713784662, 0.0]
['beep', 0.0, -23.849311333812636, 0.0, 0.0, 0.0, 0.0, -28.364363713784662, 0.0]
['beep', 0.0, -23.804607844902023, 0.0, 0.0, 0.0, 0.0, -28.38671545823997, 0.0]
['beep', 0.0, -23.849311333812636, 0.0, 0.0, 0.0, 0.0, -28.364363713784662, 0.0]
['beep', 0.0, -23.82695958935733, 0.0, 0.0, 0.0, 0.0, -28.342011969329356, 0.0]
['beep', 0.0, -23.82695958935733, 0.0, 0.0, 0.0, 0.0, -28.364363713784662, 0.0]
['beep', 0.0, -23.82695958935733, 0.0, 0.0, 0.0, 0.0, -28.342011969329356, 0.0]
['beep', 0.0, -23.871663078267943, 0.0, 0.0, 0.0, 0.0, -28.342011969329356, 0.0]
['beep', 0.0, -23.849311333812636, 0.0, 0.0, 0.0, 0.0, -28.364363713784662, 0.0]
['beep', 0.0, -23.849311333812636, 0.0, 0.0, 0.0, 0.0, -28.31966022487405, 0.0]
['beep', 0.0, -23.871663078267943, 0.0, 0.0, 0.0, 0.0, -28.342011969329356, 0.0]
['beep', 0.0, -23.849311333812636, 0.0, 0.0, 0.0, 0.0, -28.409067202695276, 0.0]
['beep', 0.0, -23.89401482272325, 0.0, 0.0, 0.0, 0.0, -28.364363713784662, 0.0]
['beep', 0.0, -23.89401482272325, 0.0, 0.0, 0.0, 0.0, -28.364363713784662, 0.0]
['beep', 0.0, -23.849311333812636, 0.0, 0.0, 0.0, 0.0, -28.409067202695276, 0.0]
['beep', 0.0, -23.82695958935733, 0.0, 0.0, 0.0, 0.0, -28.364363713784662, 0.0]
['beep', 0.0, -23.82695958935733, 0.0, 0.0, 0.0, 0.0, -28.342011969329356, 0.0]
['beep', 0.0, -23.849311333812636, 0.0, 0.0, 0.0, 0.0, -28.409067202695276, 0.0]
['beep', 0.0, -23.82695958935733, 0.0, 0.0, 0.0, 0.0, -28.364363713784662, 0.0]
['beep', 0.0, -23.804607844902023, 0.0, 0.0, 0.0, 0.0, -28.364363713784662, 0.0]
['beep', 0.0, -23.782256100446716, 0.0, 0.0, 0.0, 0.0, -28.364363713784662, 0.0]
['beep', 0.0, -23.804607844902023, 0.0, 0.0, 0.0, 0.0, -28.364363713784662, 0.0]
['beep', 0.0, -23.82695958935733, 0.0, 0.0, 0.0, 0.0, -28.409067202695276, 0.0]
['beep', 0.0, -23.782256100446716, 0.0, 0.0, 0.0, 0.0, -28.409067202695276, 0.0]
['beep', 0.0, -23.782256100446716, 0.0, 0.0, 0.0, 0.0, -28.409067202695276, 0.0]
['beep', 0.0, -23.804607844902023, 0.0, 0.0, 0.0, 0.0, -28.342011969329356, 0.0]
['beep', 0.0, -23.82695958935733, 0.0, 0.0, 0.0, 0.0, -28.364363713784662, 0.0]
['beep', 0.0, -23.849311333812636, 0.0, 0.0, 0.0, 0.0, -28.38671545823997, 0.0]
['beep', 0.0, -23.849311333812636, 0.0, 0.0, 0.0, 0.0, -28.38671545823997, 0.0]
['beep', 0.0, -23.871663078267943, 0.0, 0.0, 0.0, 0.0, -28.38671545823997, 0.0]
['beep', 0.0, -23.871663078267943, 0.0, 0.0, 0.0, 0.0, -28.364363713784662, 0.0]
['beep', 0.0, -23.916366567178557, 0.0, 0.0, 0.0, 0.0, -28.31966022487405, 0.0]
['beep', 0.0, -23.89401482272325, 0.0, 0.0, 0.0, 0.0, -28.364363713784662, 0.0]
['beep', 0.0, -23.89401482272325, 0.0, 0.0, 0.0, 0.0, -28.409067202695276, 0.0]
['beep', 0.0, -23.89401482272325, 0.0, 0.0, 0.0, 0.0, -28.364363713784662, 0.0]
['beep', 0.0, -23.804607844902023, 0.0, 0.0, 0.0, 0.0, -28.297308480418742, 0.0]
['beep', 0.0, -23.849311333812636, 0.0, 0.0, 0.0, 0.0, -28.364363713784662, 0.0]
['beep', 0.0, -23.849311333812636, 0.0, 0.0, 0.0, 0.0, -28.364363713784662, 0.0]
['beep', 0.0, -23.82695958935733, 0.0, 0.0, 0.0, 0.0, -28.364363713784662, 0.0]
['beep', 0.0, -23.849311333812636, 0.0, 0.0, 0.0, 0.0, -28.409067202695276, 0.0]
['beep', 0.0, -23.849311333812636, 0.0, 0.0, 0.0, 0.0, -28.38671545823997, 0.0]
['beep', 0.0, -23.849311333812636, 0.0, 0.0, 0.0, 0.0, -28.38671545823997, 0.0]
['beep', 0.0, -23.849311333812636, 0.0, 0.0, 0.0, 0.0, -28.364363713784662, 0.0]
['beep', 0.0, -23.849311333812636, 0.0, 0.0, 0.0, 0.0, -28.364363713784662, 0.0]
['beep', 0.0, -23.849311333812636, 0.0, 0.0, 0.0, 0.0, -28.364363713784662, 0.0]
['beep', 0.0, -23.82695958935733, 0.0, 0.0, 0.0, 0.0, -28.431418947150583, 0.0]
['beep', 0.0, -23.89401482272325, 0.0, 0.0, 0.0, 0.0, -28.342011969329356, 0.0]
['beep', 0.0, -23.871663078267943, 0.0, 0.0, 0.0, 0.0, -28.364363713784662, 0.0]
['beep', 0.0, -23.849311333812636, 0.0, 0.0, 0.0, 0.0, -28.342011969329356, 0.0]
['beep', 0.0, -23.89401482272325, 0.0, 0.0, 0.0, 0.0, -28.364363713784662, 0.0]
['beep', 0.0, -23.89401482272325, 0.0, 0.0, 0.0, 0.0, -28.364363713784662, 0.0]
['beep', 0.0, -23.871663078267943, 0.0, 0.0, 0.0, 0.0, -28.364363713784662, 0.0]
['beep', 0.0, -23.849311333812636, 0.0, 0.0, 0.0, 0.0, -28.38671545823997, 0.0]
['beep', 0.0, -23.82695958935733, 0.0, 0.0, 0.0, 0.0, -28.409067202695276, 0.0]
['beep', 0.0, -23.782256100446716, 0.0, 0.0, 0.0, 0.0, -28.364363713784662, 0.0]
['beep', 0.0, -23.782256100446716, 0.0, 0.0, 0.0, 0.0, -28.409067202695276, 0.0]
['beep', 0.0, -23.89401482272325, 0.0, 0.0, 0.0, 0.0, -28.431418947150583, 0.0]
['beep', 0.0, -23.89401482272325, 0.0, 0.0, 0.0, 0.0, -28.409067202695276, 0.0]
['beep', 0.0, -23.849311333812636, 0.0, 0.0, 0.0, 0.0, -28.409067202695276, 0.0]
['beep', 0.0, -23.871663078267943, 0.0, 0.0, 0.0, 0.0, -28.38671545823997, 0.0]
['beep', 0.0, -23.871663078267943, 0.0, 0.0, 0.0, 0.0, -28.342011969329356, 0.0]
['beep', 0.0, -23.849311333812636, 0.0, 0.0, 0.0, 0.0, -28.364363713784662, 0.0]
['beep', 0.0, -23.871663078267943, 0.0, 0.0, 0.0, 0.0, -28.38671545823997, 0.0]
['beep', 0.0, -23.89401482272325, 0.0, 0.0, 0.0, 0.0, -28.364363713784662, 0.0]
['beep', 0.0, -23.871663078267943, 0.0, 0.0, 0.0, 0.0, -28.409067202695276, 0.0]
['beep', 0.0, -23.89401482272325, 0.0, 0.0, 0.0, 0.0, -28.38671545823997, 0.0]
['beep', 0.0, -23.89401482272325, 0.0, 0.0, 0.0, 0.0, -28.31966022487405, 0.0]
['beep', 0.0, -23.849311333812636, 0.0, 0.0, 0.0, 0.0, -28.364363713784662, 0.0]
['beep', 0.0, -23.849311333812636, 0.0, 0.0, 0.0, 0.0, -28.364363713784662, 0.0]
['beep', 0.0, -23.849311333812636, 0.0, 0.0, 0.0, 0.0, -28.364363713784662, 0.0]
['beep', 0.0, -23.871663078267943, 0.0, 0.0, 0.0, 0.0, -28.38671545823997, 0.0]
['beep', 0.0, -23.916366567178557, 0.0, 0.0, 0.0, 0.0, -28.431418947150583, 0.0]
['beep', 0.0, -23.938718311633863, 0.0, 0.0, 0.0, 0.0, -28.31966022487405, 0.0]
['beep', 0.0, -23.849311333812636, 0.0, 0.0, 0.0, 0.0, -28.31966022487405, 0.0]
['beep', 0.0, -23.82695958935733, 0.0, 0.0, 0.0, 0.0, -28.38671545823997, 0.0]
['beep', 0.0, -23.82695958935733, 0.0, 0.0, 0.0, 0.0, -28.364363713784662, 0.0]
['beep', 0.0, -23.82695958935733, 0.0, 0.0, 0.0, 0.0, -28.38671545823997, 0.0]
['beep', 0.0, -23.89401482272325, 0.0, 0.0, 0.0, 0.0, -28.409067202695276, 0.0]
['beep', 0.0, -23.871663078267943, 0.0, 0.0, 0.0, 0.0, -28.342011969329356, 0.0]
['beep', 0.0, -23.82695958935733, 0.0, 0.0, 0.0, 0.0, -28.274956735963436, 0.0]
['beep', 0.0, -23.82695958935733, 0.0, 0.0, 0.0, 0.0, -28.31966022487405, 0.0]
['beep', 0.0, -23.89401482272325, 0.0, 0.0, 0.0, 0.0, -28.364363713784662, 0.0]
['beep', 0.0, -23.938718311633863, 0.0, 0.0, 0.0, 0.0, -28.38671545823997, 0.0]
['beep', 0.0, -23.849311333812636, 0.0, 0.0, 0.0, 0.0, -28.364363713784662, 0.0]
['beep', 0.0, -23.82695958935733, 0.0, 0.0, 0.0, 0.0, -28.342011969329356, 0.0]
['beep', 0.0, -23.89401482272325, 0.0, 0.0, 0.0, 0.0, -28.364363713784662, 0.0]
['beep', 0.0, -23.938718311633863, 0.0, 0.0, 0.0, 0.0, -28.364363713784662, 0.0]
['beep', 0.0, -23.871663078267943, 0.0, 0.0, 0.0, 0.0, -28.38671545823997, 0.0]
['beep', 0.0, -23.849311333812636, 0.0, 0.0, 0.0, 0.0, -28.409067202695276, 0.0]
['beep', 0.0, -23.804607844902023, 0.0, 0.0, 0.0, 0.0, -28.409067202695276, 0.0]
['beep', 0.0, -23.82695958935733, 0.0, 0.0, 0.0, 0.0, -28.409067202695276, 0.0]
['beep', 0.0, -23.849311333812636, 0.0, 0.0, 0.0, 0.0, -28.38671545823997, 0.0]
['beep', 0.0, -23.82695958935733, 0.0, 0.0, 0.0, 0.0, -28.364363713784662, 0.0]
['beep', 0.0, -23.849311333812636, 0.0, 0.0, 0.0, 0.0, -28.409067202695276, 0.0]
['beep', 0.0, -23.82695958935733, 0.0, 0.0, 0.0, 0.0, -28.38671545823997, 0.0]
['beep', 0.0, -23.782256100446716, 0.0, 0.0, 0.0, 0.0, -28.364363713784662, 0.0]
['beep', 0.0, -23.7375526115361, 0.0, 0.0, 0.0, 0.0, -28.342011969329356, 0.0]
['beep', 0.0, -23.849311333812636, 0.0, 0.0, 0.0, 0.0, -28.38671545823997, 0.0]
['beep', 0.0, -23.849311333812636, 0.0, 0.0, 0.0, 0.0, -28.364363713784662, 0.0]
['beep', 0.0, -23.849311333812636, 0.0, 0.0, 0.0, 0.0, -28.364363713784662, 0.0]
['beep', 0.0, -23.82695958935733, 0.0, 0.0, 0.0, 0.0, -28.342011969329356, 0.0]
['beep', 0.0, -23.804607844902023, 0.0, 0.0, 0.0, 0.0, -28.31966022487405, 0.0]
['beep', 0.0, -23.871663078267943, 0.0, 0.0, 0.0, 0.0, -28.297308480418742, 0.0]
['beep', 0.0, -23.849311333812636, 0.0, 0.0, 0.0, 0.0, -28.31966022487405, 0.0]
['beep', 0.0, -23.804607844902023, 0.0, 0.0, 0.0, 0.0, -28.342011969329356, 0.0]
['beep', 0.0, -23.849311333812636, 0.0, 0.0, 0.0, 0.0, -28.409067202695276, 0.0]
['beep', 0.0, -23.89401482272325, 0.0, 0.0, 0.0, 0.0, -28.409067202695276, 0.0]
['beep', 0.0, -23.89401482272325, 0.0, 0.0, 0.0, 0.0, -28.409067202695276, 0.0]
['beep', 0.0, -23.89401482272325, 0.0, 0.0, 0.0, 0.0, -28.409067202695276, 0.0]
['beep', 0.0, -23.849311333812636, 0.0, 0.0, 0.0, 0.0, -28.364363713784662, 0.0]
['beep', 0.0, -23.849311333812636, 0.0, 0.0, 0.0, 0.0, -28.31966022487405, 0.0]
['beep', 0.0, -23.849311333812636, 0.0, 0.0, 0.0, 0.0, -28.342011969329356, 0.0]
['beep', 0.0, -23.849311333812636, 0.0, 0.0, 0.0, 0.0, -28.38671545823997, 0.0]
['beep', 0.0, -23.804607844902023, 0.0, 0.0, 0.0, 0.0, -28.364363713784662, 0.0]
['beep', 0.0, -23.849311333812636, 0.0, 0.0, 0.0, 0.0, -28.38671545823997, 0.0]
['beep', 0.0, -23.82695958935733, 0.0, 0.0, 0.0, 0.0, -28.364363713784662, 0.0]
['beep', 0.0, -23.82695958935733, 0.0, 0.0, 0.0, 0.0, -28.342011969329356, 0.0]
['beep', 0.0, -23.849311333812636, 0.0, 0.0, 0.0, 0.0, -28.31966022487405, 0.0]
['beep', 0.0, -23.849311333812636, 0.0, 0.0, 0.0, 0.0, -28.342011969329356, 0.0]
['beep', 0.0, -23.82695958935733, 0.0, 0.0, 0.0, 0.0, -28.364363713784662, 0.0]
['beep', 0.0, -23.82695958935733, 0.0, 0.0, 0.0, 0.0, -28.364363713784662, 0.0]
['beep', 0.0, -23.82695958935733, 0.0, 0.0, 0.0, 0.0, -28.409067202695276, 0.0]
['beep', 0.0, -23.82695958935733, 0.0, 0.0, 0.0, 0.0, -28.38671545823997, 0.0]
['beep', 0.0, -23.82695958935733, 0.0, 0.0, 0.0, 0.0, -28.38671545823997, 0.0]
['beep', 0.0, -23.82695958935733, 0.0, 0.0, 0.0, 0.0, -28.409067202695276, 0.0]
['beep', 0.0, -23.82695958935733, 0.0, 0.0, 0.0, 0.0, -28.342011969329356, 0.0]
['beep', 0.0, -23.89401482272325, 0.0, 0.0, 0.0, 0.0, -28.364363713784662, 0.0]
['beep', 0.0, -23.849311333812636, 0.0, 0.0, 0.0, 0.0, -28.431418947150583, 0.0]
['beep', 0.0, -23.849311333812636, 0.0, 0.0, 0.0, 0.0, -28.409067202695276, 0.0]
['beep', 0.0, -23.82695958935733, 0.0, 0.0, 0.0, 0.0, -28.38671545823997, 0.0]
['beep', 0.0, -23.849311333812636, 0.0, 0.0, 0.0, 0.0, -28.342011969329356, 0.0]
['beep', 0.0, -23.916366567178557, 0.0, 0.0, 0.0, 0.0, -28.342011969329356, 0.0]
['beep', 0.0, -23.89401482272325, 0.0, 0.0, 0.0, 0.0, -28.364363713784662, 0.0]
['beep', 0.0, -23.871663078267943, 0.0, 0.0, 0.0, 0.0, -28.364363713784662, 0.0]
['beep', 0.0, -23.82695958935733, 0.0, 0.0, 0.0, 0.0, -28.31966022487405, 0.0]
['beep', 0.0, -23.849311333812636, 0.0, 0.0, 0.0, 0.0, -28.364363713784662, 0.0]
['beep', 0.0, -23.849311333812636, 0.0, 0.0, 0.0, 0.0, -28.364363713784662, 0.0]
['beep', 0.0, -23.82695958935733, 0.0, 0.0, 0.0, 0.0, -28.38671545823997, 0.0]
['beep', 0.0, -23.871663078267943, 0.0, 0.0, 0.0, 0.0, -28.409067202695276, 0.0]
['beep', 0.0, -23.849311333812636, 0.0, 0.0, 0.0, 0.0, -28.38671545823997, 0.0]
['beep', 0.0, -23.849311333812636, 0.0, 0.0, 0.0, 0.0, -28.364363713784662, 0.0]
['beep', 0.0, -23.89401482272325, 0.0, 0.0, 0.0, 0.0, -28.31966022487405, 0.0]
['beep', 0.0, -23.849311333812636, 0.0, 0.0, 0.0, 0.0, -28.31966022487405, 0.0]
['beep', 0.0, -23.849311333812636, 0.0, 0.0, 0.0, 0.0, -28.409067202695276, 0.0]
['beep', 0.0, -23.849311333812636, 0.0, 0.0, 0.0, 0.0, -28.38671545823997, 0.0]
['beep', 0.0, -23.938718311633863, 0.0, 0.0, 0.0, 0.0, -28.364363713784662, 0.0]
['beep', 0.0, -23.916366567178557, 0.0, 0.0, 0.0, 0.0, -28.409067202695276, 0.0]
['beep', 0.0, -23.804607844902023, 0.0, 0.0, 0.0, 0.0, -28.431418947150583, 0.0]
['beep', 0.0, -23.82695958935733, 0.0, 0.0, 0.0, 0.0, -28.431418947150583, 0.0]
['beep', 0.0, -23.849311333812636, 0.0, 0.0, 0.0, 0.0, -28.364363713784662, 0.0]
['beep', 0.0, -23.782256100446716, 0.0, 0.0, 0.0, 0.0, -28.38671545823997, 0.0]
['beep', 0.0, -23.871663078267943, 0.0, 0.0, 0.0, 0.0, -28.409067202695276, 0.0]
['beep', 0.0, -23.849311333812636, 0.0, 0.0, 0.0, 0.0, -28.38671545823997, 0.0]
['beep', 0.0, -23.782256100446716, 0.0, 0.0, 0.0, 0.0, -28.364363713784662, 0.0]
['beep', 0.0, -23.782256100446716, 0.0, 0.0, 0.0, 0.0, -28.38671545823997, 0.0]
['beep', 0.0, -23.82695958935733, 0.0, 0.0, 0.0, 0.0, -28.38671545823997, 0.0]
['beep', 0.0, -23.82695958935733, 0.0, 0.0, 0.0, 0.0, -28.38671545823997, 0.0]
['beep', 0.0, -23.82695958935733, 0.0, 0.0, 0.0, 0.0, -28.342011969329356, 0.0]
['beep', 0.0, -23.82695958935733, 0.0, 0.0, 0.0, 0.0, -28.297308480418742, 0.0]
['beep', 0.0, -23.75990435599141, 0.0, 0.0, 0.0, 0.0, -28.342011969329356, 0.0]
['beep', 0.0, -23.782256100446716, 0.0, 0.0, 0.0, 0.0, -28.342011969329356, 0.0]
['beep', 0.0, -23.782256100446716, 0.0, 0.0, 0.0, 0.0, -28.342011969329356, 0.0]
['beep', 0.0, -23.804607844902023, 0.0, 0.0, 0.0, 0.0, -28.364363713784662, 0.0]
['beep', 0.0, -23.82695958935733, 0.0, 0.0, 0.0, 0.0, -28.31966022487405, 0.0]
['beep', 0.0, -23.849311333812636, 0.0, 0.0, 0.0, 0.0, -28.364363713784662, 0.0]
['beep', 0.0, -23.82695958935733, 0.0, 0.0, 0.0, 0.0, -28.364363713784662, 0.0]
['beep', 0.0, -23.849311333812636, 0.0, 0.0, 0.0, 0.0, -28.31966022487405, 0.0]
['beep', 0.0, -23.75990435599141, 0.0, 0.0, 0.0, 0.0, -28.364363713784662, 0.0]
['beep', 0.0, -23.82695958935733, 0.0, 0.0, 0.0, 0.0, -28.364363713784662, 0.0]
['beep', 0.0, -23.871663078267943, 0.0, 0.0, 0.0, 0.0, -28.38671545823997, 0.0]
['beep', 0.0, -23.871663078267943, 0.0, 0.0, 0.0, 0.0, -28.342011969329356, 0.0]
['beep', 0.0, -23.849311333812636, 0.0, 0.0, 0.0, 0.0, -28.364363713784662, 0.0]
['beep', 0.0, -23.849311333812636, 0.0, 0.0, 0.0, 0.0, -28.31966022487405, 0.0]
['beep', 0.0, -23.849311333812636, 0.0, 0.0, 0.0, 0.0, -28.364363713784662, 0.0]
['beep', 0.0, -23.849311333812636, 0.0, 0.0, 0.0, 0.0, -28.364363713784662, 0.0]
['beep', 0.0, -23.82695958935733, 0.0, 0.0, 0.0, 0.0, -28.431418947150583, 0.0]
['beep', 0.0, -23.849311333812636, 0.0, 0.0, 0.0, 0.0, -28.38671545823997, 0.0]
['beep', 0.0, -23.849311333812636, 0.0, 0.0, 0.0, 0.0, -28.38671545823997, 0.0]
['beep', 0.0, -23.89401482272325, 0.0, 0.0, 0.0, 0.0, -28.409067202695276, 0.0]
['beep', 0.0, -23.871663078267943, 0.0, 0.0, 0.0, 0.0, -28.364363713784662, 0.0]
['beep', 0.0, -23.89401482272325, 0.0, 0.0, 0.0, 0.0, -28.409067202695276, 0.0]
['beep', 0.0, -23.849311333812636, 0.0, 0.0, 0.0, 0.0, -28.431418947150583, 0.0]
['beep', 0.0, -23.89401482272325, 0.0, 0.0, 0.0, 0.0, -28.431418947150583, 0.0]
['beep', 0.0, -23.871663078267943, 0.0, 0.0, 0.0, 0.0, -28.409067202695276, 0.0]
['beep', 0.0, -23.871663078267943, 0.0, 0.0, 0.0, 0.0, -28.364363713784662, 0.0]
['beep', 0.0, -23.849311333812636, 0.0, 0.0, 0.0, 0.0, -28.38671545823997, 0.0]
['beep', 0.0, -23.849311333812636, 0.0, 0.0, 0.0, 0.0, -28.38671545823997, 0.0]
['beep', 0.0, -23.849311333812636, 0.0, 0.0, 0.0, 0.0, -28.409067202695276, 0.0]
['beep', 0.0, -23.938718311633863, 0.0, 0.0, 0.0, 0.0, -28.38671545823997, 0.0]
['beep', 0.0, -23.82695958935733, 0.0, 0.0, 0.0, 0.0, -28.409067202695276, 0.0]
['beep', 0.0, -23.804607844902023, 0.0, 0.0, 0.0, 0.0, -28.409067202695276, 0.0]
['beep', 0.0, -23.849311333812636, 0.0, 0.0, 0.0, 0.0, -28.409067202695276, 0.0]
['beep', 0.0, -23.82695958935733, 0.0, 0.0, 0.0, 0.0, -28.431418947150583, 0.0]
['beep', 0.0, -23.849311333812636, 0.0, 0.0, 0.0, 0.0, -28.364363713784662, 0.0]
['beep', 0.0, -23.849311333812636, 0.0, 0.0, 0.0, 0.0, -28.364363713784662, 0.0]
['beep', 0.0, -23.849311333812636, 0.0, 0.0, 0.0, 0.0, -28.342011969329356, 0.0]
['beep', 0.0, -23.849311333812636, 0.0, 0.0, 0.0, 0.0, -28.409067202695276, 0.0]
['beep', 0.0, -23.804607844902023, 0.0, 0.0, 0.0, 0.0, -28.342011969329356, 0.0]
['beep', 0.0, -23.849311333812636, 0.0, 0.0, 0.0, 0.0, -28.38671545823997, 0.0]
['beep', 0.0, -23.849311333812636, 0.0, 0.0, 0.0, 0.0, -28.364363713784662, 0.0]
['beep', 0.0, -23.871663078267943, 0.0, 0.0, 0.0, 0.0, -28.364363713784662, 0.0]
['beep', 0.0, -23.849311333812636, 0.0, 0.0, 0.0, 0.0, -28.409067202695276, 0.0]
['beep', 0.0, -23.804607844902023, 0.0, 0.0, 0.0, 0.0, -28.409067202695276, 0.0]
['beep', 0.0, -23.804607844902023, 0.0, 0.0, 0.0, 0.0, -28.38671545823997, 0.0]
['beep', 0.0, -23.82695958935733, 0.0, 0.0, 0.0, 0.0, -28.38671545823997, 0.0]
['beep', 0.0, -23.82695958935733, 0.0, 0.0, 0.0, 0.0, -28.364363713784662, 0.0]
['beep', 0.0, -23.849311333812636, 0.0, 0.0, 0.0, 0.0, -28.342011969329356, 0.0]
['beep', 0.0, -23.849311333812636, 0.0, 0.0, 0.0, 0.0, -28.409067202695276, 0.0]
['beep', 0.0, -23.849311333812636, 0.0, 0.0, 0.0, 0.0, -28.38671545823997, 0.0]
['beep', 0.0, -23.82695958935733, 0.0, 0.0, 0.0, 0.0, -28.364363713784662, 0.0]
['beep', 0.0, -23.89401482272325, 0.0, 0.0, 0.0, 0.0, -28.274956735963436, 0.0]
['beep', 0.0, -23.916366567178557, 0.0, 0.0, 0.0, 0.0, -28.31966022487405, 0.0]
['beep', 0.0, -23.871663078267943, 0.0, 0.0, 0.0, 0.0, -28.409067202695276, 0.0]
['beep', 0.0, -23.82695958935733, 0.0, 0.0, 0.0, 0.0, -28.364363713784662, 0.0]
['beep', 0.0, -23.849311333812636, 0.0, 0.0, 0.0, 0.0, -28.364363713784662, 0.0]
['beep', 0.0, -23.82695958935733, 0.0, 0.0, 0.0, 0.0, -28.364363713784662, 0.0]
['beep', 0.0, -23.782256100446716, 0.0, 0.0, 0.0, 0.0, -28.342011969329356, 0.0]
['beep', 0.0, -23.89401482272325, 0.0, 0.0, 0.0, 0.0, -28.364363713784662, 0.0]
['beep', 0.0, -23.82695958935733, 0.0, 0.0, 0.0, 0.0, -28.364363713784662, 0.0]
['beep', 0.0, -23.82695958935733, 0.0, 0.0, 0.0, 0.0, -28.364363713784662, 0.0]
['beep', 0.0, -23.82695958935733, 0.0, 0.0, 0.0, 0.0, -28.364363713784662, 0.0]
['beep', 0.0, -23.782256100446716, 0.0, 0.0, 0.0, 0.0, -28.342011969329356, 0.0]
['beep', 0.0, -23.82695958935733, 0.0, 0.0, 0.0, 0.0, -28.342011969329356, 0.0]
['beep', 0.0, -23.871663078267943, 0.0, 0.0, 0.0, 0.0, -28.364363713784662, 0.0]
['beep', 0.0, -23.849311333812636, 0.0, 0.0, 0.0, 0.0, -28.31966022487405, 0.0]
['beep', 0.0, -23.849311333812636, 0.0, 0.0, 0.0, 0.0, -28.409067202695276, 0.0]
['beep', 0.0, -23.849311333812636, 0.0, 0.0, 0.0, 0.0, -28.38671545823997, 0.0]
['beep', 0.0, -23.849311333812636, 0.0, 0.0, 0.0, 0.0, -28.364363713784662, 0.0]
['beep', 0.0, -23.849311333812636, 0.0, 0.0, 0.0, 0.0, -28.409067202695276, 0.0]
['beep', 0.0, -23.849311333812636, 0.0, 0.0, 0.0, 0.0, -28.409067202695276, 0.0]
['beep', 0.0, -23.89401482272325, 0.0, 0.0, 0.0, 0.0, -28.431418947150583, 0.0]
['beep', 0.0, -23.849311333812636, 0.0, 0.0, 0.0, 0.0, -28.38671545823997, 0.0]
['beep', 0.0, -23.82695958935733, 0.0, 0.0, 0.0, 0.0, -28.297308480418742, 0.0]
['beep', 0.0, -23.849311333812636, 0.0, 0.0, 0.0, 0.0, -28.297308480418742, 0.0]
['beep', 0.0, -23.82695958935733, 0.0, 0.0, 0.0, 0.0, -28.31966022487405, 0.0]
['beep', 0.0, -23.938718311633863, 0.0, 0.0, 0.0, 0.0, -28.364363713784662, 0.0]
['beep', 0.0, -23.89401482272325, 0.0, 0.0, 0.0, 0.0, -28.38671545823997, 0.0]
['beep', 0.0, -23.82695958935733, 0.0, 0.0, 0.0, 0.0, -28.342011969329356, 0.0]
['beep', 0.0, -23.849311333812636, 0.0, 0.0, 0.0, 0.0, -28.364363713784662, 0.0]
['beep', 0.0, -23.871663078267943, 0.0, 0.0, 0.0, 0.0, -28.342011969329356, 0.0]
['beep', 0.0, -23.849311333812636, 0.0, 0.0, 0.0, 0.0, -28.31966022487405, 0.0]
['beep', 0.0, -23.804607844902023, 0.0, 0.0, 0.0, 0.0, -28.342011969329356, 0.0]
['beep', 0.0, -23.804607844902023, 0.0, 0.0, 0.0, 0.0, -28.38671545823997, 0.0]
['beep', 0.0, -23.75990435599141, 0.0, 0.0, 0.0, 0.0, -28.31966022487405, 0.0]
['beep', 0.0, -23.782256100446716, 0.0, 0.0, 0.0, 0.0, -28.364363713784662, 0.0]
['beep', 0.0, -23.849311333812636, 0.0, 0.0, 0.0, 0.0, -28.38671545823997, 0.0]
['beep', 0.0, -23.82695958935733, 0.0, 0.0, 0.0, 0.0, -28.409067202695276, 0.0]
['beep', 0.0, -23.82695958935733, 0.0, 0.0, 0.0, 0.0, -28.409067202695276, 0.0]
['beep', 0.0, -23.849311333812636, 0.0, 0.0, 0.0, 0.0, -28.409067202695276, 0.0]
['beep', 0.0, -23.82695958935733, 0.0, 0.0, 0.0, 0.0, -28.431418947150583, 0.0]
['beep', 0.0, -23.849311333812636, 0.0, 0.0, 0.0, 0.0, -28.342011969329356, 0.0]
['beep', 0.0, -23.849311333812636, 0.0, 0.0, 0.0, 0.0, -28.38671545823997, 0.0]
['beep', 0.0, -23.82695958935733, 0.0, 0.0, 0.0, 0.0, -28.409067202695276, 0.0]
['beep', 0.0, -23.89401482272325, 0.0, 0.0, 0.0, 0.0, -28.364363713784662, 0.0]
['beep', 0.0, -23.871663078267943, 0.0, 0.0, 0.0, 0.0, -28.364363713784662, 0.0]
['beep', 0.0, -23.89401482272325, 0.0, 0.0, 0.0, 0.0, -28.364363713784662, 0.0]
['beep', 0.0, -23.849311333812636, 0.0, 0.0, 0.0, 0.0, -28.409067202695276, 0.0]
['beep', 0.0, -23.82695958935733, 0.0, 0.0, 0.0, 0.0, -28.409067202695276, 0.0]
['beep', 0.0, -23.871663078267943, 0.0, 0.0, 0.0, 0.0, -28.409067202695276, 0.0]
['beep', 0.0, -23.916366567178557, 0.0, 0.0, 0.0, 0.0, -28.342011969329356, 0.0]
['beep', 0.0, -23.849311333812636, 0.0, 0.0, 0.0, 0.0, -28.364363713784662, 0.0]
['beep', 0.0, -23.849311333812636, 0.0, 0.0, 0.0, 0.0, -28.409067202695276, 0.0]
['beep', 0.0, -23.89401482272325, 0.0, 0.0, 0.0, 0.0, -28.409067202695276, 0.0]
['beep', 0.0, -23.89401482272325, 0.0, 0.0, 0.0, 0.0, -28.38671545823997, 0.0]
['beep', 0.0, -23.89401482272325, 0.0, 0.0, 0.0, 0.0, -28.31966022487405, 0.0]
['beep', 0.0, -23.849311333812636, 0.0, 0.0, 0.0, 0.0, -28.38671545823997, 0.0]
['beep', 0.0, -23.849311333812636, 0.0, 0.0, 0.0, 0.0, -28.342011969329356, 0.0]
['beep', 0.0, -23.804607844902023, 0.0, 0.0, 0.0, 0.0, -28.364363713784662, 0.0]
['beep', 0.0, -23.849311333812636, 0.0, 0.0, 0.0, 0.0, -28.364363713784662, 0.0]
['beep', 0.0, -23.849311333812636, 0.0, 0.0, 0.0, 0.0, -28.409067202695276, 0.0]
['beep', 0.0, -23.804607844902023, 0.0, 0.0, 0.0, 0.0, -28.409067202695276, 0.0]
['beep', 0.0, -23.804607844902023, 0.0, 0.0, 0.0, 0.0, -28.431418947150583, 0.0]
['beep', 0.0, -23.82695958935733, 0.0, 0.0, 0.0, 0.0, -28.409067202695276, 0.0]
['beep', 0.0, -23.82695958935733, 0.0, 0.0, 0.0, 0.0, -28.31966022487405, 0.0]
['beep', 0.0, -23.871663078267943, 0.0, 0.0, 0.0, 0.0, -28.31966022487405, 0.0]
['beep', 0.0, -23.871663078267943, 0.0, 0.0, 0.0, 0.0, -28.364363713784662, 0.0]
['beep', 0.0, -23.871663078267943, 0.0, 0.0, 0.0, 0.0, -28.409067202695276, 0.0]
['beep', 0.0, -23.82695958935733, 0.0, 0.0, 0.0, 0.0, -28.364363713784662, 0.0]
['beep', 0.0, -23.82695958935733, 0.0, 0.0, 0.0, 0.0, -28.297308480418742, 0.0]
['beep', 0.0, -23.82695958935733, 0.0, 0.0, 0.0, 0.0, -28.364363713784662, 0.0]
['beep', 0.0, -23.82695958935733, 0.0, 0.0, 0.0, 0.0, -28.409067202695276, 0.0]
['beep', 0.0, -23.849311333812636, 0.0, 0.0, 0.0, 0.0, -28.364363713784662, 0.0]
['beep', 0.0, -23.89401482272325, 0.0, 0.0, 0.0, 0.0, -28.409067202695276, 0.0]
['beep', 0.0, -23.849311333812636, 0.0, 0.0, 0.0, 0.0, -28.364363713784662, 0.0]
['beep', 0.0, -23.849311333812636, 0.0, 0.0, 0.0, 0.0, -28.38671545823997, 0.0]
['beep', 0.0, -23.89401482272325, 0.0, 0.0, 0.0, 0.0, -28.409067202695276, 0.0]
['beep', 0.0, -23.82695958935733, 0.0, 0.0, 0.0, 0.0, -28.431418947150583, 0.0]
['beep', 0.0, -23.82695958935733, 0.0, 0.0, 0.0, 0.0, -28.409067202695276, 0.0]
['beep', 0.0, -23.849311333812636, 0.0, 0.0, 0.0, 0.0, -28.342011969329356, 0.0]
['beep', 0.0, -23.82695958935733, 0.0, 0.0, 0.0, 0.0, -28.38671545823997, 0.0]
['beep', 0.0, -23.849311333812636, 0.0, 0.0, 0.0, 0.0, -28.38671545823997, 0.0]
['beep', 0.0, -23.89401482272325, 0.0, 0.0, 0.0, 0.0, -28.409067202695276, 0.0]
['beep', 0.0, -23.89401482272325, 0.0, 0.0, 0.0, 0.0, -28.409067202695276, 0.0]
['beep', 0.0, -23.804607844902023, 0.0, 0.0, 0.0, 0.0, -28.38671545823997, 0.0]
['beep', 0.0, -23.82695958935733, 0.0, 0.0, 0.0, 0.0, -28.364363713784662, 0.0]
['beep', 0.0, -23.82695958935733, 0.0, 0.0, 0.0, 0.0, -28.364363713784662, 0.0]
['beep', 0.0, -23.82695958935733, 0.0, 0.0, 0.0, 0.0, -28.409067202695276, 0.0]
['beep', 0.0, -23.849311333812636, 0.0, 0.0, 0.0, 0.0, -28.38671545823997, 0.0]
['beep', 0.0, -23.82695958935733, 0.0, 0.0, 0.0, 0.0, -28.364363713784662, 0.0]
['beep', 0.0, -23.82695958935733, 0.0, 0.0, 0.0, 0.0, -28.409067202695276, 0.0]
['beep', 0.0, -23.849311333812636, 0.0, 0.0, 0.0, 0.0, -28.38671545823997, 0.0]
['beep', 0.0, -23.75990435599141, 0.0, 0.0, 0.0, 0.0, -28.409067202695276, 0.0]
['beep', 0.0, -23.871663078267943, 0.0, 0.0, 0.0, 0.0, -28.38671545823997, 0.0]
['beep', 0.0, -23.82695958935733, 0.0, 0.0, 0.0, 0.0, -28.431418947150583, 0.0]
['beep', 0.0, -23.82695958935733, 0.0, 0.0, 0.0, 0.0, -28.364363713784662, 0.0]
['beep', 0.0, -23.82695958935733, 0.0, 0.0, 0.0, 0.0, -28.364363713784662, 0.0]
['beep', 0.0, -23.849311333812636, 0.0, 0.0, 0.0, 0.0, -28.38671545823997, 0.0]
['beep', 0.0, -23.89401482272325, 0.0, 0.0, 0.0, 0.0, -28.38671545823997, 0.0]
['beep', 0.0, -23.849311333812636, 0.0, 0.0, 0.0, 0.0, -28.38671545823997, 0.0]
['beep', 0.0, -23.782256100446716, 0.0, 0.0, 0.0, 0.0, -28.364363713784662, 0.0]
['beep', 0.0, -23.849311333812636, 0.0, 0.0, 0.0, 0.0, -28.364363713784662, 0.0]
['beep', 0.0, -23.89401482272325, 0.0, 0.0, 0.0, 0.0, -28.409067202695276, 0.0]
['beep', 0.0, -23.89401482272325, 0.0, 0.0, 0.0, 0.0, -28.38671545823997, 0.0]
['beep', 0.0, -23.849311333812636, 0.0, 0.0, 0.0, 0.0, -28.364363713784662, 0.0]
['beep', 0.0, -23.782256100446716, 0.0, 0.0, 0.0, 0.0, -28.364363713784662, 0.0]
['beep', 0.0, -23.82695958935733, 0.0, 0.0, 0.0, 0.0, -28.409067202695276, 0.0]
['beep', 0.0, -23.849311333812636, 0.0, 0.0, 0.0, 0.0, -28.38671545823997, 0.0]
['beep', 0.0, -23.849311333812636, 0.0, 0.0, 0.0, 0.0, -28.364363713784662, 0.0]
['beep', 0.0, -23.871663078267943, 0.0, 0.0, 0.0, 0.0, -28.409067202695276, 0.0]
['beep', 0.0, -23.82695958935733, 0.0, 0.0, 0.0, 0.0, -28.431418947150583, 0.0]
['beep', 0.0, -23.871663078267943, 0.0, 0.0, 0.0, 0.0, -28.431418947150583, 0.0]
['beep', 0.0, -23.871663078267943, 0.0, 0.0, 0.0, 0.0, -28.31966022487405, 0.0]
['beep', 0.0, -23.849311333812636, 0.0, 0.0, 0.0, 0.0, -28.364363713784662, 0.0]
['beep', 0.0, -23.82695958935733, 0.0, 0.0, 0.0, 0.0, -28.364363713784662, 0.0]
['beep', 0.0, -23.782256100446716, 0.0, 0.0, 0.0, 0.0, -28.38671545823997, 0.0]
['beep', 0.0, -23.849311333812636, 0.0, 0.0, 0.0, 0.0, -28.38671545823997, 0.0]
['beep', 0.0, -23.849311333812636, 0.0, 0.0, 0.0, 0.0, -28.364363713784662, 0.0]
['beep', 0.0, -23.871663078267943, 0.0, 0.0, 0.0, 0.0, -28.409067202695276, 0.0]
['beep', 0.0, -23.82695958935733, 0.0, 0.0, 0.0, 0.0, -28.431418947150583, 0.0]
['beep', 0.0, -23.871663078267943, 0.0, 0.0, 0.0, 0.0, -28.297308480418742, 0.0]
['beep', 0.0, -23.849311333812636, 0.0, 0.0, 0.0, 0.0, -28.31966022487405, 0.0]
['beep', 0.0, -23.82695958935733, 0.0, 0.0, 0.0, 0.0, -28.364363713784662, 0.0]
['beep', 0.0, -23.849311333812636, 0.0, 0.0, 0.0, 0.0, -28.364363713784662, 0.0]
['beep', 0.0, -23.82695958935733, 0.0, 0.0, 0.0, 0.0, -28.38671545823997, 0.0]
['beep', 0.0, -23.849311333812636, 0.0, 0.0, 0.0, 0.0, -28.364363713784662, 0.0]
['beep', 0.0, -23.89401482272325, 0.0, 0.0, 0.0, 0.0, -28.38671545823997, 0.0]
['beep', 0.0, -23.782256100446716, 0.0, 0.0, 0.0, 0.0, -28.364363713784662, 0.0]
['beep', 0.0, -23.82695958935733, 0.0, 0.0, 0.0, 0.0, -28.31966022487405, 0.0]
['beep', 0.0, -23.89401482272325, 0.0, 0.0, 0.0, 0.0, -28.297308480418742, 0.0]
['beep', 0.0, -23.871663078267943, 0.0, 0.0, 0.0, 0.0, -28.31966022487405, 0.0]
['beep', 0.0, -23.82695958935733, 0.0, 0.0, 0.0, 0.0, -28.364363713784662, 0.0]
['beep', 0.0, -23.82695958935733, 0.0, 0.0, 0.0, 0.0, -28.431418947150583, 0.0]
['beep', 0.0, -23.82695958935733, 0.0, 0.0, 0.0, 0.0, -28.409067202695276, 0.0]
['beep', 0.0, -23.782256100446716, 0.0, 0.0, 0.0, 0.0, -28.409067202695276, 0.0]
['beep', 0.0, -23.7375526115361, 0.0, 0.0, 0.0, 0.0, -28.342011969329356, 0.0]
['beep', 0.0, -23.782256100446716, 0.0, 0.0, 0.0, 0.0, -28.31966022487405, 0.0]
['beep', 0.0, -23.871663078267943, 0.0, 0.0, 0.0, 0.0, -28.297308480418742, 0.0]
['beep', 0.0, -23.849311333812636, 0.0, 0.0, 0.0, 0.0, -28.31966022487405, 0.0]
['beep', 0.0, -23.849311333812636, 0.0, 0.0, 0.0, 0.0, -28.409067202695276, 0.0]
['beep', 0.0, -23.871663078267943, 0.0, 0.0, 0.0, 0.0, -28.409067202695276, 0.0]
['beep', 0.0, -23.871663078267943, 0.0, 0.0, 0.0, 0.0, -28.364363713784662, 0.0]
['beep', 0.0, -23.782256100446716, 0.0, 0.0, 0.0, 0.0, -28.364363713784662, 0.0]
['beep', 0.0, -23.75990435599141, 0.0, 0.0, 0.0, 0.0, -28.31966022487405, 0.0]
['beep', 0.0, -23.804607844902023, 0.0, 0.0, 0.0, 0.0, -28.342011969329356, 0.0]
['beep', 0.0, -23.849311333812636, 0.0, 0.0, 0.0, 0.0, -28.364363713784662, 0.0]
['beep', 0.0, -23.871663078267943, 0.0, 0.0, 0.0, 0.0, -28.364363713784662, 0.0]
['beep', 0.0, -23.89401482272325, 0.0, 0.0, 0.0, 0.0, -28.38671545823997, 0.0]
['beep', 0.0, -23.849311333812636, 0.0, 0.0, 0.0, 0.0, -28.38671545823997, 0.0]
['beep', 0.0, -23.782256100446716, 0.0, 0.0, 0.0, 0.0, -28.364363713784662, 0.0]
['beep', 0.0, -23.849311333812636, 0.0, 0.0, 0.0, 0.0, -28.38671545823997, 0.0]
['beep', 0.0, -23.82695958935733, 0.0, 0.0, 0.0, 0.0, -28.38671545823997, 0.0]
['beep', 0.0, -23.82695958935733, 0.0, 0.0, 0.0, 0.0, -28.409067202695276, 0.0]
['beep', 0.0, -23.849311333812636, 0.0, 0.0, 0.0, 0.0, -28.431418947150583, 0.0]
['beep', 0.0, -23.782256100446716, 0.0, 0.0, 0.0, 0.0, -28.409067202695276, 0.0]
['beep', 0.0, -23.82695958935733, 0.0, 0.0, 0.0, 0.0, -28.364363713784662, 0.0]
['beep', 0.0, -23.804607844902023, 0.0, 0.0, 0.0, 0.0, -28.364363713784662, 0.0]
['beep', 0.0, -23.82695958935733, 0.0, 0.0, 0.0, 0.0, -28.364363713784662, 0.0]
['beep', 0.0, -23.871663078267943, 0.0, 0.0, 0.0, 0.0, -28.409067202695276, 0.0]
['beep', 0.0, -23.82695958935733, 0.0, 0.0, 0.0, 0.0, -28.364363713784662, 0.0]
['beep', 0.0, -23.849311333812636, 0.0, 0.0, 0.0, 0.0, -28.38671545823997, 0.0]
['beep', 0.0, -23.89401482272325, 0.0, 0.0, 0.0, 0.0, -28.364363713784662, 0.0]
['beep', 0.0, -23.849311333812636, 0.0, 0.0, 0.0, 0.0, -28.364363713784662, 0.0]
['beep', 0.0, -23.849311333812636, 0.0, 0.0, 0.0, 0.0, -28.364363713784662, 0.0]
['beep', 0.0, -23.82695958935733, 0.0, 0.0, 0.0, 0.0, -28.364363713784662, 0.0]
['beep', 0.0, -23.849311333812636, 0.0, 0.0, 0.0, 0.0, -28.342011969329356, 0.0]
['beep', 0.0, -23.804607844902023, 0.0, 0.0, 0.0, 0.0, -28.364363713784662, 0.0]
['beep', 0.0, -23.75990435599141, 0.0, 0.0, 0.0, 0.0, -28.409067202695276, 0.0]
['beep', 0.0, -23.804607844902023, 0.0, 0.0, 0.0, 0.0, -28.38671545823997, 0.0]
['beep', 0.0, -23.871663078267943, 0.0, 0.0, 0.0, 0.0, -28.409067202695276, 0.0]
['beep', 0.0, -23.849311333812636, 0.0, 0.0, 0.0, 0.0, -28.38671545823997, 0.0]
['beep', 0.0, -23.871663078267943, 0.0, 0.0, 0.0, 0.0, -28.342011969329356, 0.0]
['beep', 0.0, -23.82695958935733, 0.0, 0.0, 0.0, 0.0, -28.38671545823997, 0.0]
['beep', 0.0, -23.804607844902023, 0.0, 0.0, 0.0, 0.0, -28.409067202695276, 0.0]
['beep', 0.0, -23.82695958935733, 0.0, 0.0, 0.0, 0.0, -28.342011969329356, 0.0]
['beep', 0.0, -23.849311333812636, 0.0, 0.0, 0.0, 0.0, -28.342011969329356, 0.0]
['beep', 0.0, -23.849311333812636, 0.0, 0.0, 0.0, 0.0, -28.364363713784662, 0.0]
['beep', 0.0, -23.804607844902023, 0.0, 0.0, 0.0, 0.0, -28.342011969329356, 0.0]
['beep', 0.0, -23.849311333812636, 0.0, 0.0, 0.0, 0.0, -28.38671545823997, 0.0]
['beep', 0.0, -23.89401482272325, 0.0, 0.0, 0.0, 0.0, -28.31966022487405, 0.0]
['beep', 0.0, -23.849311333812636, 0.0, 0.0, 0.0, 0.0, -28.31966022487405, 0.0]
['beep', 0.0, -23.82695958935733, 0.0, 0.0, 0.0, 0.0, -28.364363713784662, 0.0]
['beep', 0.0, -23.849311333812636, 0.0, 0.0, 0.0, 0.0, -28.409067202695276, 0.0]
['beep', 0.0, -23.849311333812636, 0.0, 0.0, 0.0, 0.0, -28.364363713784662, 0.0]
['beep', 0.0, -23.871663078267943, 0.0, 0.0, 0.0, 0.0, -28.364363713784662, 0.0]
['beep', 0.0, -23.871663078267943, 0.0, 0.0, 0.0, 0.0, -28.364363713784662, 0.0]
['beep', 0.0, -23.849311333812636, 0.0, 0.0, 0.0, 0.0, -28.364363713784662, 0.0]
['beep', 0.0, -23.849311333812636, 0.0, 0.0, 0.0, 0.0, -28.364363713784662, 0.0]
['beep', 0.0, -23.82695958935733, 0.0, 0.0, 0.0, 0.0, -28.38671545823997, 0.0]
['beep', 0.0, -23.849311333812636, 0.0, 0.0, 0.0, 0.0, -28.409067202695276, 0.0]
['beep', 0.0, -23.89401482272325, 0.0, 0.0, 0.0, 0.0, -28.364363713784662, 0.0]
['beep', 0.0, -23.849311333812636, 0.0, 0.0, 0.0, 0.0, -28.364363713784662, 0.0]
['beep', 0.0, -23.782256100446716, 0.0, 0.0, 0.0, 0.0, -28.31966022487405, 0.0]
['beep', 0.0, -23.75990435599141, 0.0, 0.0, 0.0, 0.0, -28.364363713784662, 0.0]
['beep', 0.0, -23.804607844902023, 0.0, 0.0, 0.0, 0.0, -28.31966022487405, 0.0]
['beep', 0.0, -23.82695958935733, 0.0, 0.0, 0.0, 0.0, -28.364363713784662, 0.0]
['beep', 0.0, -23.82695958935733, 0.0, 0.0, 0.0, 0.0, -28.409067202695276, 0.0]
['beep', 0.0, -23.849311333812636, 0.0, 0.0, 0.0, 0.0, -28.38671545823997, 0.0]
['beep', 0.0, -23.871663078267943, 0.0, 0.0, 0.0, 0.0, -28.364363713784662, 0.0]
['beep', 0.0, -23.82695958935733, 0.0, 0.0, 0.0, 0.0, -28.364363713784662, 0.0]
['beep', 0.0, -23.849311333812636, 0.0, 0.0, 0.0, 0.0, -28.364363713784662, 0.0]
['beep', 0.0, -23.82695958935733, 0.0, 0.0, 0.0, 0.0, -28.409067202695276, 0.0]
['beep', 0.0, -23.849311333812636, 0.0, 0.0, 0.0, 0.0, -28.364363713784662, 0.0]
['beep', 0.0, -23.871663078267943, 0.0, 0.0, 0.0, 0.0, -28.409067202695276, 0.0]
['beep', 0.0, -23.82695958935733, 0.0, 0.0, 0.0, 0.0, -28.409067202695276, 0.0]
['beep', 0.0, -23.82695958935733, 0.0, 0.0, 0.0, 0.0, -28.364363713784662, 0.0]
['beep', 0.0, -23.849311333812636, 0.0, 0.0, 0.0, 0.0, -28.31966022487405, 0.0]
['beep', 0.0, -23.849311333812636, 0.0, 0.0, 0.0, 0.0, -28.364363713784662, 0.0]
['beep', 0.0, -23.89401482272325, 0.0, 0.0, 0.0, 0.0, -28.364363713784662, 0.0]
['beep', 0.0, -23.849311333812636, 0.0, 0.0, 0.0, 0.0, -28.38671545823997, 0.0]
['beep', 0.0, -23.82695958935733, 0.0, 0.0, 0.0, 0.0, -28.409067202695276, 0.0]
['beep', 0.0, -23.849311333812636, 0.0, 0.0, 0.0, 0.0, -28.31966022487405, 0.0]
['beep', 0.0, -23.849311333812636, 0.0, 0.0, 0.0, 0.0, -28.342011969329356, 0.0]
['beep', 0.0, -23.849311333812636, 0.0, 0.0, 0.0, 0.0, -28.409067202695276, 0.0]
['beep', 0.0, -23.804607844902023, 0.0, 0.0, 0.0, 0.0, -28.431418947150583, 0.0]
['beep', 0.0, -23.804607844902023, 0.0, 0.0, 0.0, 0.0, -28.364363713784662, 0.0]
['beep', 0.0, -23.804607844902023, 0.0, 0.0, 0.0, 0.0, -28.409067202695276, 0.0]
['beep', 0.0, -23.82695958935733, 0.0, 0.0, 0.0, 0.0, -28.38671545823997, 0.0]
['beep', 0.0, -23.782256100446716, 0.0, 0.0, 0.0, 0.0, -28.364363713784662, 0.0]
['beep', 0.0, -23.82695958935733, 0.0, 0.0, 0.0, 0.0, -28.38671545823997, 0.0]
['beep', 0.0, -23.89401482272325, 0.0, 0.0, 0.0, 0.0, -28.38671545823997, 0.0]
['beep', 0.0, -23.89401482272325, 0.0, 0.0, 0.0, 0.0, -28.364363713784662, 0.0]
['beep', 0.0, -23.871663078267943, 0.0, 0.0, 0.0, 0.0, -28.38671545823997, 0.0]
['beep', 0.0, -23.871663078267943, 0.0, 0.0, 0.0, 0.0, -28.38671545823997, 0.0]
['beep', 0.0, -23.871663078267943, 0.0, 0.0, 0.0, 0.0, -28.364363713784662, 0.0]
['beep', 0.0, -23.89401482272325, 0.0, 0.0, 0.0, 0.0, -28.364363713784662, 0.0]
['beep', 0.0, -23.89401482272325, 0.0, 0.0, 0.0, 0.0, -28.31966022487405, 0.0]
['beep', 0.0, -23.82695958935733, 0.0, 0.0, 0.0, 0.0, -28.364363713784662, 0.0]
['beep', 0.0, -23.849311333812636, 0.0, 0.0, 0.0, 0.0, -28.409067202695276, 0.0]
['beep', 0.0, -23.871663078267943, 0.0, 0.0, 0.0, 0.0, -28.364363713784662, 0.0]
['beep', 0.0, -23.871663078267943, 0.0, 0.0, 0.0, 0.0, -28.409067202695276, 0.0]
['beep', 0.0, -23.82695958935733, 0.0, 0.0, 0.0, 0.0, -28.364363713784662, 0.0]
['beep', 0.0, -23.82695958935733, 0.0, 0.0, 0.0, 0.0, -28.38671545823997, 0.0]
['beep', 0.0, -23.871663078267943, 0.0, 0.0, 0.0, 0.0, -28.364363713784662, 0.0]
['beep', 0.0, -23.82695958935733, 0.0, 0.0, 0.0, 0.0, -28.31966022487405, 0.0]
['beep', 0.0, -23.849311333812636, 0.0, 0.0, 0.0, 0.0, -28.364363713784662, 0.0]
['beep', 0.0, -23.871663078267943, 0.0, 0.0, 0.0, 0.0, -28.431418947150583, 0.0]
['beep', 0.0, -23.82695958935733, 0.0, 0.0, 0.0, 0.0, -28.45377069160589, 0.0]
['beep', 0.0, -23.82695958935733, 0.0, 0.0, 0.0, 0.0, -28.431418947150583, 0.0]
['beep', 0.0, -23.82695958935733, 0.0, 0.0, 0.0, 0.0, -28.38671545823997, 0.0]
['beep', 0.0, -23.82695958935733, 0.0, 0.0, 0.0, 0.0, -28.409067202695276, 0.0]
['beep', 0.0, -23.82695958935733, 0.0, 0.0, 0.0, 0.0, -28.431418947150583, 0.0]
['beep', 0.0, -23.82695958935733, 0.0, 0.0, 0.0, 0.0, -28.364363713784662, 0.0]
['beep', 0.0, -23.871663078267943, 0.0, 0.0, 0.0, 0.0, -28.409067202695276, 0.0]
['beep', 0.0, -23.849311333812636, 0.0, 0.0, 0.0, 0.0, -28.38671545823997, 0.0]
['beep', 0.0, -23.849311333812636, 0.0, 0.0, 0.0, 0.0, -28.342011969329356, 0.0]
['beep', 0.0, -23.849311333812636, 0.0, 0.0, 0.0, 0.0, -28.364363713784662, 0.0]
['beep', 0.0, -23.782256100446716, 0.0, 0.0, 0.0, 0.0, -28.409067202695276, 0.0]
['beep', 0.0, -23.82695958935733, 0.0, 0.0, 0.0, 0.0, -28.364363713784662, 0.0]
['beep', 0.0, -23.82695958935733, 0.0, 0.0, 0.0, 0.0, -28.364363713784662, 0.0]
['beep', 0.0, -23.849311333812636, 0.0, 0.0, 0.0, 0.0, -28.31966022487405, 0.0]
['beep', 0.0, -23.849311333812636, 0.0, 0.0, 0.0, 0.0, -28.364363713784662, 0.0]
['beep', 0.0, -23.849311333812636, 0.0, 0.0, 0.0, 0.0, -28.409067202695276, 0.0]
['beep', 0.0, -23.89401482272325, 0.0, 0.0, 0.0, 0.0, -28.364363713784662, 0.0]
['beep', 0.0, -23.871663078267943, 0.0, 0.0, 0.0, 0.0, -28.364363713784662, 0.0]
['beep', 0.0, -23.849311333812636, 0.0, 0.0, 0.0, 0.0, -28.364363713784662, 0.0]
['beep', 0.0, -23.82695958935733, 0.0, 0.0, 0.0, 0.0, -28.364363713784662, 0.0]
['beep', 0.0, -23.849311333812636, 0.0, 0.0, 0.0, 0.0, -28.409067202695276, 0.0]
['beep', 0.0, -23.871663078267943, 0.0, 0.0, 0.0, 0.0, -28.409067202695276, 0.0]
['beep', 0.0, -23.849311333812636, 0.0, 0.0, 0.0, 0.0, -28.342011969329356, 0.0]
['beep', 0.0, -23.849311333812636, 0.0, 0.0, 0.0, 0.0, -28.364363713784662, 0.0]
['beep', 0.0, -23.804607844902023, 0.0, 0.0, 0.0, 0.0, -28.364363713784662, 0.0]
['beep', 0.0, -23.782256100446716, 0.0, 0.0, 0.0, 0.0, -28.31966022487405, 0.0]
['beep', 0.0, -23.782256100446716, 0.0, 0.0, 0.0, 0.0, -28.31966022487405, 0.0]
['beep', 0.0, -23.849311333812636, 0.0, 0.0, 0.0, 0.0, -28.342011969329356, 0.0]
['beep', 0.0, -23.82695958935733, 0.0, 0.0, 0.0, 0.0, -28.342011969329356, 0.0]
['beep', 0.0, -23.849311333812636, 0.0, 0.0, 0.0, 0.0, -28.364363713784662, 0.0]
['beep', 0.0, -23.82695958935733, 0.0, 0.0, 0.0, 0.0, -28.364363713784662, 0.0]
['beep', 0.0, -23.82695958935733, 0.0, 0.0, 0.0, 0.0, -28.364363713784662, 0.0]
['beep', 0.0, -23.89401482272325, 0.0, 0.0, 0.0, 0.0, -28.409067202695276, 0.0]
['beep', 0.0, -23.871663078267943, 0.0, 0.0, 0.0, 0.0, -28.364363713784662, 0.0]
['beep', 0.0, -23.82695958935733, 0.0, 0.0, 0.0, 0.0, -28.38671545823997, 0.0]
['beep', 0.0, -23.849311333812636, 0.0, 0.0, 0.0, 0.0, -28.364363713784662, 0.0]
