['beep', 0.0, 1085.0877863273367, 0.0, 0.0, 0.0, 0.0, -3809.1842900734296, 0.0]
['beep', 0.0, 1081.109175814292, 0.0, 0.0, 0.0, 0.0, -3813.2523075642953, 0.0]
['beep', 0.0, 1068.1898675191246, 0.0, 0.0, 0.0, 0.0, -3813.5428802422143, 0.0]
['beep', 0.0, 1065.977044818049, 0.0, 0.0, 0.0, 0.0, -3810.7712639297565, 0.0]
['beep', 0.0, 1071.5649809318759, 0.0, 0.0, 0.0, 0.0, -3808.424330761949, 0.0]
['beep', 0.0, 1084.7078066715965, 0.0, 0.0, 0.0, 0.0, -3808.558441228681, 0.0]
['beep', 0.0, 1080.5503822029093, 0.0, 0.0, 0.0, 0.0, -3810.4583395073823, 0.0]
['beep', 0.0, 1070.2238762645575, 0.0, 0.0, 0.0, 0.0, -3812.9617348863767, 0.0]
['beep', 0.0, 1068.5698471748647, 0.0, 0.0, 0.0, 0.0, -3810.8159674186672, 0.0]
['beep', 0.0, 1070.9614838315827, 0.0, 0.0, 0.0, 0.0, -3808.714903439868, 0.0]
['beep', 0.0, 1077.4434897236217, 0.0, 0.0, 0.0, 0.0, -3811.3524092855946, 0.0]
['beep', 0.0, 1076.5717716898646, 0.0, 0.0, 0.0, 0.0, -3816.3144965546726, 0.0]
['beep', 0.0, 1069.9556553310938, 0.0, 0.0, 0.0, 0.0, -3818.3038018111947, 0.0]
['beep', 0.0, 1070.1568210311916, 0.0, 0.0, 0.0, 0.0, -3813.8334529201334, 0.0]
['beep', 0.0, 1080.1927542916244, 0.0, 0.0, 0.0, 0.0, -3810.1230633405526, 0.0]
['beep', 0.0, 1089.7145974295852, 0.0, 0.0, 0.0, 0.0, -3809.8548424070887, 0.0]
['beep', 0.0, 1091.592143963831, 0.0, 0.0, 0.0, 0.0, -3812.1347203415303, 0.0]
['beep', 0.0, 1079.1198705577697, 0.0, 0.0, 0.0, 0.0, -3813.56523198667, 0.0]
['beep', 0.0, 1073.2190100215687, 0.0, 0.0, 0.0, 0.0, -3811.106540096586, 0.0]
['beep', 0.0, 1080.148050802714, 0.0, 0.0, 0.0, 0.0, -3809.273697051251, 0.0]
['beep', 0.0, 1086.4065392501998, 0.0, 0.0, 0.0, 0.0, -3809.385455773527, 0.0]
['beep', 0.0, 1090.8992398857165, 0.0, 0.0, 0.0, 0.0, -3811.620630219058, 0.0]
['beep', 0.0, 1082.3832252482446, 0.0, 0.0, 0.0, 0.0, -3811.911202896977, 0.0]
['beep', 0.0, 1074.6495216667083, 0.0, 0.0, 0.0, 0.0, -3809.8324906626335, 0.0]
['beep', 0.0, 1080.2821612694456, 0.0, 0.0, 0.0, 0.0, -3808.6031447175915, 0.0]
['beep', 0.0, 1090.6086672077975, 0.0, 0.0, 0.0, 0.0, -3810.1007115960974, 0.0]
['beep', 0.0, 1089.7369491740405, 0.0, 0.0, 0.0, 0.0, -3812.984086630832, 0.0]
['beep', 0.0, 1079.8351263803395, 0.0, 0.0, 0.0, 0.0, -3814.1910808314183, 0.0]
['beep', 0.0, 1071.6320361652417, 0.0, 0.0, 0.0, 0.0, -3811.5088714967815, 0.0]
['beep', 0.0, 1081.2432862810238, 0.0, 0.0, 0.0, 0.0, -3808.558441228681, 0.0]
['beep', 0.0, 1090.9662951190824, 0.0, 0.0, 0.0, 0.0, -3809.720731940357, 0.0]
['beep', 0.0, 1089.5134317294874, 0.0, 0.0, 0.0, 0.0, -3812.5146999972703, 0.0]
['beep', 0.0, 1081.1315275587474, 0.0, 0.0, 0.0, 0.0, -3814.973391887354, 0.0]
['beep', 0.0, 1073.1966582771133, 0.0, 0.0, 0.0, 0.0, -3813.721694197857, 0.0]
['beep', 0.0, 1082.427928737155, 0.0, 0.0, 0.0, 0.0, -3811.1288918410414, 0.0]
['beep', 0.0, 1092.6203242087752, 0.0, 0.0, 0.0, 0.0, -3810.011304618276, 0.0]
['beep', 0.0, 1094.2520015540126, 0.0, 0.0, 0.0, 0.0, -3813.2523075642953, 0.0]
['beep', 0.0, 1076.8176408788731, 0.0, 0.0, 0.0, 0.0, -3814.4145982759715, 0.0]
['beep', 0.0, 1071.0732425538592, 0.0, 0.0, 0.0, 0.0, -3811.1959470744073, 0.0]
['beep', 0.0, 1078.270504268468, 0.0, 0.0, 0.0, 0.0, -3808.5360894842256, 0.0]
['beep', 0.0, 1086.138318316736, 0.0, 0.0, 0.0, 0.0, -3807.8878888950217, 0.0]
['beep', 0.0, 1089.9828183630489, 0.0, 0.0, 0.0, 0.0, -3812.1794238304406, 0.0]
['beep', 0.0, 1080.662140925186, 0.0, 0.0, 0.0, 0.0, -3812.1794238304406, 0.0]
['beep', 0.0, 1070.1568210311916, 0.0, 0.0, 0.0, 0.0, -3810.4136360184716, 0.0]
['beep', 0.0, 1073.6660449106748, 0.0, 0.0, 0.0, 0.0, -3806.815005161167, 0.0]
['beep', 0.0, 1086.5630014613869, 0.0, 0.0, 0.0, 0.0, -3806.055045849687, 0.0]
['beep', 0.0, 1091.3462747748226, 0.0, 0.0, 0.0, 0.0, -3810.391284274016, 0.0]
['beep', 0.0, 1078.851649624306, 0.0, 0.0, 0.0, 0.0, -3811.5759267301473, 0.0]
['beep', 0.0, 1070.849725109306, 0.0, 0.0, 0.0, 0.0, -3809.1842900734296, 0.0]
['beep', 0.0, 1083.9031438712054, 0.0, 0.0, 0.0, 0.0, -3804.8927551380107, 0.0]
['beep', 0.0, 1088.7758241624624, 0.0, 0.0, 0.0, 0.0, -3806.5467842277035, 0.0]
['beep', 0.0, 1088.172327062169, 0.0, 0.0, 0.0, 0.0, -3808.3125720396724, 0.0]
['beep', 0.0, 1076.7058821565965, 0.0, 0.0, 0.0, 0.0, -3811.106540096586, 0.0]
['beep', 0.0, 1074.4260042221551, 0.0, 0.0, 0.0, 0.0, -3809.787787173723, 0.0]
['beep', 0.0, 1081.6009141923087, 0.0, 0.0, 0.0, 0.0, -3806.077397594142, 0.0]
['beep', 0.0, 1089.0663968403812, 0.0, 0.0, 0.0, 0.0, -3805.8315284051337, 0.0]
['beep', 0.0, 1085.5124694719875, 0.0, 0.0, 0.0, 0.0, -3809.1619383289744, 0.0]
['beep', 0.0, 1071.5202774429654, 0.0, 0.0, 0.0, 0.0, -3811.397112774505, 0.0]
['beep', 0.0, 1064.5912366618202, 0.0, 0.0, 0.0, 0.0, -3810.637153463025, 0.0]
['beep', 0.0, 1072.2802367544457, 0.0, 0.0, 0.0, 0.0, -3808.491385995315, 0.0]
['beep', 0.0, 1086.1606700611915, 0.0, 0.0, 0.0, 0.0, -3808.9384208844212, 0.0]
['beep', 0.0, 1086.5182979724764, 0.0, 0.0, 0.0, 0.0, -3812.1570720859854, 0.0]
['beep', 0.0, 1078.8740013687614, 0.0, 0.0, 0.0, 0.0, -3814.0569703646865, 0.0]
['beep', 0.0, 1071.7437948875183, 0.0, 0.0, 0.0, 0.0, -3810.614801718569, 0.0]
['beep', 0.0, 1071.1179460427697, 0.0, 0.0, 0.0, 0.0, -3808.647848206502, 0.0]
['beep', 0.0, 1083.3443502598227, 0.0, 0.0, 0.0, 0.0, -3809.363104029072, 0.0]
['beep', 0.0, 1091.1898125636355, 0.0, 0.0, 0.0, 0.0, -3813.22995581984, 0.0]
['beep', 0.0, 1080.3492165028115, 0.0, 0.0, 0.0, 0.0, -3815.554537243192, 0.0]
['beep', 0.0, 1070.7379663870295, 0.0, 0.0, 0.0, 0.0, -3812.6711622084576, 0.0]
['beep', 0.0, 1074.2471902665127, 0.0, 0.0, 0.0, 0.0, -3810.7936156742117, 0.0]
['beep', 0.0, 1087.0994433283142, 0.0, 0.0, 0.0, 0.0, -3810.1454150850077, 0.0]
['beep', 0.0, 1090.0051701075042, 0.0, 0.0, 0.0, 0.0, -3812.4029412749937, 0.0]
['beep', 0.0, 1080.170402547169, 0.0, 0.0, 0.0, 0.0, -3813.0287901197426, 0.0]
['beep', 0.0, 1070.693262898119, 0.0, 0.0, 0.0, 0.0, -3811.2853540522283, 0.0]
['beep', 0.0, 1077.4434897236217, 0.0, 0.0, 0.0, 0.0, -3808.8266621621447, 0.0]
['beep', 0.0, 1093.3132282868896, 0.0, 0.0, 0.0, 0.0, -3809.1842900734296, 0.0]
['beep', 0.0, 1096.9342108886494, 0.0, 0.0, 0.0, 0.0, -3813.0287901197426, 0.0]
['beep', 0.0, 1082.2267630370573, 0.0, 0.0, 0.0, 0.0, -3815.6439442210135, 0.0]
['beep', 0.0, 1073.8448588663173, 0.0, 0.0, 0.0, 0.0, -3813.073493608653, 0.0]
['beep', 0.0, 1081.0197688364708, 0.0, 0.0, 0.0, 0.0, -3809.5195662402593, 0.0]
['beep', 0.0, 1096.7777486774623, 0.0, 0.0, 0.0, 0.0, -3808.8490139066, 0.0]
['beep', 0.0, 1099.4599580120992, 0.0, 0.0, 0.0, 0.0, -3810.681856951935, 0.0]
['beep', 0.0, 1087.5464782174204, 0.0, 0.0, 0.0, 0.0, -3811.620630219058, 0.0]
['beep', 0.0, 1076.9293996011495, 0.0, 0.0, 0.0, 0.0, -3811.0618366076756, 0.0]
['beep', 0.0, 1080.6844926696413, 0.0, 0.0, 0.0, 0.0, -3809.56426972917, 0.0]
['beep', 0.0, 1093.983780620549, 0.0, 0.0, 0.0, 0.0, -3809.6089732180803, 0.0]
['beep', 0.0, 1097.6271149667639, 0.0, 0.0, 0.0, 0.0, -3812.559403486181, 0.0]
['beep', 0.0, 1086.205373550102, 0.0, 0.0, 0.0, 0.0, -3814.235784320329, 0.0]
['beep', 0.0, 1078.717539157574, 0.0, 0.0, 0.0, 0.0, -3813.297011053206, 0.0]
['beep', 0.0, 1086.2724287834678, 0.0, 0.0, 0.0, 0.0, -3810.883022652033, 0.0]
['beep', 0.0, 1096.5318794884538, 0.0, 0.0, 0.0, 0.0, -3811.263002307773, 0.0]
['beep', 0.0, 1101.784539435451, 0.0, 0.0, 0.0, 0.0, -3813.431121519938, 0.0]
['beep', 0.0, 1088.8875828847388, 0.0, 0.0, 0.0, 0.0, -3815.6886477099238, 0.0]
['beep', 0.0, 1081.2656380254791, 0.0, 0.0, 0.0, 0.0, -3814.146377342508, 0.0]
['beep', 0.0, 1085.7136351720853, 0.0, 0.0, 0.0, 0.0, -3811.330057541139, 0.0]
['beep', 0.0, 1096.8448039108282, 0.0, 0.0, 0.0, 0.0, -3812.0676651081644, 0.0]
['beep', 0.0, 1100.175213834669, 0.0, 0.0, 0.0, 0.0, -3814.4369500204266, 0.0]
['beep', 0.0, 1090.1616323186913, 0.0, 0.0, 0.0, 0.0, -3817.0074006327873, 0.0]
['beep', 0.0, 1081.4444519811216, 0.0, 0.0, 0.0, 0.0, -3815.5768889876476, 0.0]
['beep', 0.0, 1082.3385217593338, 0.0, 0.0, 0.0, 0.0, -3812.984086630832, 0.0]
['beep', 0.0, 1096.241306810535, 0.0, 0.0, 0.0, 0.0, -3811.8441476636112, 0.0]
['beep', 0.0, 1100.5775452348644, 0.0, 0.0, 0.0, 0.0, -3814.146377342508, 0.0]
['beep', 0.0, 1092.3073997864008, 0.0, 0.0, 0.0, 0.0, -3814.302839553695, 0.0]
['beep', 0.0, 1083.232591537546, 0.0, 0.0, 0.0, 0.0, -3811.4194645189605, 0.0]
['beep', 0.0, 1089.781652662951, 0.0, 0.0, 0.0, 0.0, -3807.664371450469, 0.0]
['beep', 0.0, 1098.9235161451718, 0.0, 0.0, 0.0, 0.0, -3809.340752284617, 0.0]
['beep', 0.0, 1098.9905713785377, 0.0, 0.0, 0.0, 0.0, -3814.1910808314183, 0.0]
['beep', 0.0, 1087.9935131065265, 0.0, 0.0, 0.0, 0.0, -3815.3086680541837, 0.0]
['beep', 0.0, 1080.2374577805351, 0.0, 0.0, 0.0, 0.0, -3814.7945779317115, 0.0]
['beep', 0.0, 1082.919667115172, 0.0, 0.0, 0.0, 0.0, -3813.3417145421167, 0.0]
['beep', 0.0, 1096.0848445993477, 0.0, 0.0, 0.0, 0.0, -3813.1852523309294, 0.0]
['beep', 0.0, 1097.4930045000322, 0.0, 0.0, 0.0, 0.0, -3816.202737832396, 0.0]
['beep', 0.0, 1090.6533706967082, 0.0, 0.0, 0.0, 0.0, -3818.102636111097, 0.0]
['beep', 0.0, 1080.170402547169, 0.0, 0.0, 0.0, 0.0, -3817.2756215662507, 0.0]
['beep', 0.0, 1084.7078066715965, 0.0, 0.0, 0.0, 0.0, -3813.94521164241, 0.0]
['beep', 0.0, 1098.0294463669595, 0.0, 0.0, 0.0, 0.0, -3811.9335546414322, 0.0]
['beep', 0.0, 1100.5328417459539, 0.0, 0.0, 0.0, 0.0, -3815.0404471207203, 0.0]
['beep', 0.0, 1086.6077049502976, 0.0, 0.0, 0.0, 0.0, -3816.202737832396, 0.0]
['beep', 0.0, 1077.4211379791664, 0.0, 0.0, 0.0, 0.0, -3814.6381157205246, 0.0]
['beep', 0.0, 1083.8584403822947, 0.0, 0.0, 0.0, 0.0, -3809.720731940357, 0.0]
['beep', 0.0, 1093.626152709264, 0.0, 0.0, 0.0, 0.0, -3810.726560440846, 0.0]
['beep', 0.0, 1098.230612067057, 0.0, 0.0, 0.0, 0.0, -3815.487482009826, 0.0]
['beep', 0.0, 1087.367664261778, 0.0, 0.0, 0.0, 0.0, -3818.795540189212, 0.0]
['beep', 0.0, 1081.7797281479511, 0.0, 0.0, 0.0, 0.0, -3813.56523198667, 0.0]
['beep', 0.0, 1083.6796264266522, 0.0, 0.0, 0.0, 0.0, -3810.7712639297565, 0.0]
['beep', 0.0, 1095.3919405212332, 0.0, 0.0, 0.0, 0.0, -3811.1959470744073, 0.0]
['beep', 0.0, 1097.5153562444873, 0.0, 0.0, 0.0, 0.0, -3813.0287901197426, 0.0]
['beep', 0.0, 1088.2617340399902, 0.0, 0.0, 0.0, 0.0, -3814.2804878092397, 0.0]
['beep', 0.0, 1079.946885102616, 0.0, 0.0, 0.0, 0.0, -3812.6711622084576, 0.0]
['beep', 0.0, 1087.010036350493, 0.0, 0.0, 0.0, 0.0, -3809.5419179847145, 0.0]
['beep', 0.0, 1093.8943736427277, 0.0, 0.0, 0.0, 0.0, -3809.3184005401613, 0.0]
['beep', 0.0, 1096.0624928548925, 0.0, 0.0, 0.0, 0.0, -3811.7100371968795, 0.0]
['beep', 0.0, 1085.3560072608004, 0.0, 0.0, 0.0, 0.0, -3815.263964565273, 0.0]
['beep', 0.0, 1079.6786641691524, 0.0, 0.0, 0.0, 0.0, -3814.1240255980524, 0.0]
['beep', 0.0, 1082.919667115172, 0.0, 0.0, 0.0, 0.0, -3811.330057541139, 0.0]
['beep', 0.0, 1094.2967050429231, 0.0, 0.0, 0.0, 0.0, -3810.5700982296585, 0.0]
['beep', 0.0, 1096.6436382107304, 0.0, 0.0, 0.0, 0.0, -3814.1240255980524, 0.0]
['beep', 0.0, 1087.6358851952416, 0.0, 0.0, 0.0, 0.0, -3815.3086680541837, 0.0]
['beep', 0.0, 1082.0255973369597, 0.0, 0.0, 0.0, 0.0, -3813.297011053206, 0.0]
['beep', 0.0, 1085.4901177275322, 0.0, 0.0, 0.0, 0.0, -3811.8441476636112, 0.0]
['beep', 0.0, 1088.2170305510797, 0.0, 0.0, 0.0, 0.0, -3812.0676651081644, 0.0]
['beep', 0.0, 1095.302533543412, 0.0, 0.0, 0.0, 0.0, -3815.621592476558, 0.0]
['beep', 0.0, 1084.7748619049623, 0.0, 0.0, 0.0, 0.0, -3818.817891933667, 0.0]
['beep', 0.0, 1074.7165769000742, 0.0, 0.0, 0.0, 0.0, -3816.6274209770468, 0.0]
['beep', 0.0, 1079.1198705577697, 0.0, 0.0, 0.0, 0.0, -3812.1570720859854, 0.0]
['beep', 0.0, 1092.3744550197669, 0.0, 0.0, 0.0, 0.0, -3810.637153463025, 0.0]
['beep', 0.0, 1092.240344553035, 0.0, 0.0, 0.0, 0.0, -3813.1852523309294, 0.0]
['beep', 0.0, 1088.172327062169, 0.0, 0.0, 0.0, 0.0, -3813.4758250088485, 0.0]
['beep', 0.0, 1076.3482542453116, 0.0, 0.0, 0.0, 0.0, -3813.587583731125, 0.0]
['beep', 0.0, 1080.6397891807305, 0.0, 0.0, 0.0, 0.0, -3809.8771941515442, 0.0]
['beep', 0.0, 1085.981856105549, 0.0, 0.0, 0.0, 0.0, -3810.9277261409434, 0.0]
['beep', 0.0, 1092.4191585086774, 0.0, 0.0, 0.0, 0.0, -3814.0346186202314, 0.0]
['beep', 0.0, 1082.6737979261634, 0.0, 0.0, 0.0, 0.0, -3818.437912277927, 0.0]
['beep', 0.0, 1074.5377629444317, 0.0, 0.0, 0.0, 0.0, -3815.867461665566, 0.0]
['beep', 0.0, 1078.9410566021272, 0.0, 0.0, 0.0, 0.0, -3812.1347203415303, 0.0]
['beep', 0.0, 1089.6698939406747, 0.0, 0.0, 0.0, 0.0, -3811.4418162634156, 0.0]
['beep', 0.0, 1092.3521032753115, 0.0, 0.0, 0.0, 0.0, -3815.532185498737, 0.0]
['beep', 0.0, 1085.981856105549, 0.0, 0.0, 0.0, 0.0, -3819.6002029896026, 0.0]
['beep', 0.0, 1072.146126287714, 0.0, 0.0, 0.0, 0.0, -3818.7061332113904, 0.0]
['beep', 0.0, 1077.8905246127279, 0.0, 0.0, 0.0, 0.0, -3814.235784320329, 0.0]
['beep', 0.0, 1091.9497718751159, 0.0, 0.0, 0.0, 0.0, -3811.3747610300497, 0.0]
['beep', 0.0, 1094.9672573765824, 0.0, 0.0, 0.0, 0.0, -3815.867461665566, 0.0]
['beep', 0.0, 1083.0984810708144, 0.0, 0.0, 0.0, 0.0, -3819.7343134563343, 0.0]
['beep', 0.0, 1074.8059838778954, 0.0, 0.0, 0.0, 0.0, -3817.2532698217956, 0.0]
['beep', 0.0, 1078.851649624306, 0.0, 0.0, 0.0, 0.0, -3813.878156409044, 0.0]
['beep', 0.0, 1091.1898125636355, 0.0, 0.0, 0.0, 0.0, -3813.3864180310275, 0.0]
['beep', 0.0, 1098.1188533447807, 0.0, 0.0, 0.0, 0.0, -3818.437912277927, 0.0]
['beep', 0.0, 1083.6125711932864, 0.0, 0.0, 0.0, 0.0, -3821.298935568206, 0.0]
['beep', 0.0, 1075.0965565558145, 0.0, 0.0, 0.0, 0.0, -3820.4719210233598, 0.0]
['beep', 0.0, 1080.5503822029093, 0.0, 0.0, 0.0, 0.0, -3816.9626971438765, 0.0]
['beep', 0.0, 1087.7476439175182, 0.0, 0.0, 0.0, 0.0, -3815.9345168989325, 0.0]
['beep', 0.0, 1094.0955393428253, 0.0, 0.0, 0.0, 0.0, -3817.655601221991, 0.0]
['beep', 0.0, 1082.6514461817083, 0.0, 0.0, 0.0, 0.0, -3820.047237878709, 0.0]
['beep', 0.0, 1072.6825681546413, 0.0, 0.0, 0.0, 0.0, -3817.365028544072, 0.0]
['beep', 0.0, 1075.2530187670015, 0.0, 0.0, 0.0, 0.0, -3815.0404471207203, 0.0]
['beep', 0.0, 1088.7981759069175, 0.0, 0.0, 0.0, 0.0, -3814.4145982759715, 0.0]
['beep', 0.0, 1095.2131265655908, 0.0, 0.0, 0.0, 0.0, -3816.180386087941, 0.0]
['beep', 0.0, 1085.3783590052556, 0.0, 0.0, 0.0, 0.0, -3818.750836700301, 0.0]
['beep', 0.0, 1072.0567193098927, 0.0, 0.0, 0.0, 0.0, -3817.2532698217956, 0.0]
['beep', 0.0, 1075.9235711006609, 0.0, 0.0, 0.0, 0.0, -3814.302839553695, 0.0]
['beep', 0.0, 1090.0051701075042, 0.0, 0.0, 0.0, 0.0, -3812.335886041628, 0.0]
['beep', 0.0, 1093.0673590978813, 0.0, 0.0, 0.0, 0.0, -3815.7333511988345, 0.0]
['beep', 0.0, 1084.394882249222, 0.0, 0.0, 0.0, 0.0, -3818.3261535556503, 0.0]
['beep', 0.0, 1074.3142454998786, 0.0, 0.0, 0.0, 0.0, -3815.241612820818, 0.0]
['beep', 0.0, 1083.1878880486356, 0.0, 0.0, 0.0, 0.0, -3811.173595329952, 0.0]
['beep', 0.0, 1093.5367457314428, 0.0, 0.0, 0.0, 0.0, -3812.8052726751894, 0.0]
['beep', 0.0, 1092.687379442141, 0.0, 0.0, 0.0, 0.0, -3816.6274209770468, 0.0]
['beep', 0.0, 1085.2442485385238, 0.0, 0.0, 0.0, 0.0, -3817.9685256443654, 0.0]
['beep', 0.0, 1074.6495216667083, 0.0, 0.0, 0.0, 0.0, -3816.6050692325916, 0.0]
['beep', 0.0, 1079.432794980144, 0.0, 0.0, 0.0, 0.0, -3814.146377342508, 0.0]
['beep', 0.0, 1091.88271664175, 0.0, 0.0, 0.0, 0.0, -3813.7663976867675, 0.0]
['beep', 0.0, 1093.4249870091662, 0.0, 0.0, 0.0, 0.0, -3814.9286883984437, 0.0]
['beep', 0.0, 1083.433757237644, 0.0, 0.0, 0.0, 0.0, -3816.9626971438765, 0.0]
['beep', 0.0, 1079.4774984690546, 0.0, 0.0, 0.0, 0.0, -3815.979220387843, 0.0]
['beep', 0.0, 1082.6067426927975, 0.0, 0.0, 0.0, 0.0, -3813.4758250088485, 0.0]
['beep', 0.0, 1092.6650276976857, 0.0, 0.0, 0.0, 0.0, -3811.911202896977, 0.0]
['beep', 0.0, 1092.8661933977835, 0.0, 0.0, 0.0, 0.0, -3813.8334529201334, 0.0]
['beep', 0.0, 1084.5066409714987, 0.0, 0.0, 0.0, 0.0, -3816.202737832396, 0.0]
['beep', 0.0, 1076.370605989767, 0.0, 0.0, 0.0, 0.0, -3814.816929676167, 0.0]
['beep', 0.0, 1076.6835304121412, 0.0, 0.0, 0.0, 0.0, -3811.1959470744073, 0.0]
['beep', 0.0, 1094.363760276289, 0.0, 0.0, 0.0, 0.0, -3810.4806912518375, 0.0]
['beep', 0.0, 1095.0566643544037, 0.0, 0.0, 0.0, 0.0, -3812.4476447639045, 0.0]
['beep', 0.0, 1084.528992715954, 0.0, 0.0, 0.0, 0.0, -3813.0287901197426, 0.0]
['beep', 0.0, 1078.4493182241104, 0.0, 0.0, 0.0, 0.0, -3811.7994441747005, 0.0]
['beep', 0.0, 1084.0372543379372, 0.0, 0.0, 0.0, 0.0, -3809.676028451446, 0.0]
['beep', 0.0, 1092.463861997588, 0.0, 0.0, 0.0, 0.0, -3811.3747610300497, 0.0]
['beep', 0.0, 1096.4871759995433, 0.0, 0.0, 0.0, 0.0, -3813.7663976867675, 0.0]
['beep', 0.0, 1087.792347406429, 0.0, 0.0, 0.0, 0.0, -3816.940345399421, 0.0]
['beep', 0.0, 1079.8574781247949, 0.0, 0.0, 0.0, 0.0, -3815.331019798639, 0.0]
['beep', 0.0, 1086.0489113389149, 0.0, 0.0, 0.0, 0.0, -3811.5759267301473, 0.0]
['beep', 0.0, 1090.720425930074, 0.0, 0.0, 0.0, 0.0, -3809.9666011293652, 0.0]
['beep', 0.0, 1095.9730858770713, 0.0, 0.0, 0.0, 0.0, -3814.504005253793, 0.0]
['beep', 0.0, 1088.0382165954372, 0.0, 0.0, 0.0, 0.0, -3816.6721244659575, 0.0]
['beep', 0.0, 1076.1917920341245, 0.0, 0.0, 0.0, 0.0, -3814.1910808314183, 0.0]
['beep', 0.0, 1079.3880914912334, 0.0, 0.0, 0.0, 0.0, -3809.988952873821, 0.0]
['beep', 0.0, 1090.273391040968, 0.0, 0.0, 0.0, 0.0, -3808.983124373332, 0.0]
['beep', 0.0, 1096.6436382107304, 0.0, 0.0, 0.0, 0.0, -3811.531223241237, 0.0]
['beep', 0.0, 1090.8321846523506, 0.0, 0.0, 0.0, 0.0, -3813.6099354755806, 0.0]
['beep', 0.0, 1076.6835304121412, 0.0, 0.0, 0.0, 0.0, -3810.8383191631224, 0.0]
['beep', 0.0, 1074.8059838778954, 0.0, 0.0, 0.0, 0.0, -3804.7362929268234, 0.0]
['beep', 0.0, 1083.6349229377417, 0.0, 0.0, 0.0, 0.0, -3805.5186039827595, 0.0]
['beep', 0.0, 1089.6475421962193, 0.0, 0.0, 0.0, 0.0, -3808.983124373332, 0.0]
['beep', 0.0, 1083.1208328152698, 0.0, 0.0, 0.0, 0.0, -3811.263002307773, 0.0]
['beep', 0.0, 1074.8283356223508, 0.0, 0.0, 0.0, 0.0, -3808.4466825064046, 0.0]
['beep', 0.0, 1078.4269664796552, 0.0, 0.0, 0.0, 0.0, -3805.0268656047424, 0.0]
['beep', 0.0, 1089.9604666185935, 0.0, 0.0, 0.0, 0.0, -3805.5409557272146, 0.0]
['beep', 0.0, 1092.530917230954, 0.0, 0.0, 0.0, 0.0, -3808.3796272730387, 0.0]
['beep', 0.0, 1081.8020798924065, 0.0, 0.0, 0.0, 0.0, -3809.5419179847145, 0.0]
['beep', 0.0, 1072.883733854739, 0.0, 0.0, 0.0, 0.0, -3807.1502813279967, 0.0]
['beep', 0.0, 1078.3599112462891, 0.0, 0.0, 0.0, 0.0, -3803.1269673260413, 0.0]
['beep', 0.0, 1091.3239230303673, 0.0, 0.0, 0.0, 0.0, -3803.171670814952, 0.0]
['beep', 0.0, 1086.9653328615825, 0.0, 0.0, 0.0, 0.0, -3807.2843917947284, 0.0]
['beep', 0.0, 1081.8914868702277, 0.0, 0.0, 0.0, 0.0, -3806.8597086500777, 0.0]
['beep', 0.0, 1077.0858618123368, 0.0, 0.0, 0.0, 0.0, -3804.713941182368, 0.0]
['beep', 0.0, 1077.2646757679793, 0.0, 0.0, 0.0, 0.0, -3802.3893597590163, 0.0]
['beep', 0.0, 1086.3841875057444, 0.0, 0.0, 0.0, 0.0, -3801.517641725259, 0.0]
['beep', 0.0, 1090.1616323186913, 0.0, 0.0, 0.0, 0.0, -3803.7304644263345, 0.0]
['beep', 0.0, 1080.1256990582585, 0.0, 0.0, 0.0, 0.0, -3807.731426683835, 0.0]
['beep', 0.0, 1069.7097861420855, 0.0, 0.0, 0.0, 0.0, -3804.4457202489043, 0.0]
['beep', 0.0, 1072.6155129212752, 0.0, 0.0, 0.0, 0.0, -3800.5118132247703, 0.0]
['beep', 0.0, 1087.2112020505908, 0.0, 0.0, 0.0, 0.0, -3800.243592291307, 0.0]
['beep', 0.0, 1090.9439433746272, 0.0, 0.0, 0.0, 0.0, -3804.110444082075, 0.0]
['beep', 0.0, 1079.5669054468758, 0.0, 0.0, 0.0, 0.0, -3807.1949848169074, 0.0]
['beep', 0.0, 1071.341463487323, 0.0, 0.0, 0.0, 0.0, -3804.5127754822706, 0.0]
['beep', 0.0, 1083.3443502598227, 0.0, 0.0, 0.0, 0.0, -3800.7800341582342, 0.0]
['beep', 0.0, 1092.3744550197669, 0.0, 0.0, 0.0, 0.0, -3799.9306678689327, 0.0]
['beep', 0.0, 1095.1013678433142, 0.0, 0.0, 0.0, 0.0, -3804.5127754822706, 0.0]
['beep', 0.0, 1086.138318316736, 0.0, 0.0, 0.0, 0.0, -3809.005476117787, 0.0]
['beep', 0.0, 1075.3200740003674, 0.0, 0.0, 0.0, 0.0, -3808.5137377397705, 0.0]
['beep', 0.0, 1080.5503822029093, 0.0, 0.0, 0.0, 0.0, -3803.5740022151476, 0.0]
['beep', 0.0, 1089.2899142849344, 0.0, 0.0, 0.0, 0.0, -3803.0152086037647, 0.0]
['beep', 0.0, 1096.9342108886494, 0.0, 0.0, 0.0, 0.0, -3806.2115080608737, 0.0]
['beep', 0.0, 1091.4580334970992, 0.0, 0.0, 0.0, 0.0, -3807.8431854061114, 0.0]
['beep', 0.0, 1085.1548415607026, 0.0, 0.0, 0.0, 0.0, -3805.4739004938488, 0.0]
['beep', 0.0, 1086.9429811171271, 0.0, 0.0, 0.0, 0.0, -3802.165842314463, 0.0]
['beep', 0.0, 1094.9672573765824, 0.0, 0.0, 0.0, 0.0, -3802.4117115034715, 0.0]
['beep', 0.0, 1099.1470335897247, 0.0, 0.0, 0.0, 0.0, -3804.8704033935555, 0.0]
['beep', 0.0, 1089.3793212627556, 0.0, 0.0, 0.0, 0.0, -3806.9044121389884, 0.0]
['beep', 0.0, 1081.1985827921133, 0.0, 0.0, 0.0, 0.0, -3806.5467842277035, 0.0]
['beep', 0.0, 1083.0090740929932, 0.0, 0.0, 0.0, 0.0, -3803.9539818708877, 0.0]
['beep', 0.0, 1094.0284841094594, 0.0, 0.0, 0.0, 0.0, -3805.0045138602873, 0.0]
['beep', 0.0, 1094.7660916764846, 0.0, 0.0, 0.0, 0.0, -3809.050179606698, 0.0]
['beep', 0.0, 1085.9371526166383, 0.0, 0.0, 0.0, 0.0, -3810.5030429962926, 0.0]
['beep', 0.0, 1077.1305653012473, 0.0, 0.0, 0.0, 0.0, -3808.5360894842256, 0.0]
['beep', 0.0, 1080.7738996474625, 0.0, 0.0, 0.0, 0.0, -3804.915106882466, 0.0]
['beep', 0.0, 1095.7048649436076, 0.0, 0.0, 0.0, 0.0, -3804.0657405931643, 0.0]
['beep', 0.0, 1100.5104900014985, 0.0, 0.0, 0.0, 0.0, -3807.463205750371, 0.0]
['beep', 0.0, 1086.339484016834, 0.0, 0.0, 0.0, 0.0, -3809.050179606698, 0.0]
['beep', 0.0, 1076.8623443677836, 0.0, 0.0, 0.0, 0.0, -3808.8713656510554, 0.0]
['beep', 0.0, 1080.0586438248927, 0.0, 0.0, 0.0, 0.0, -3805.8315284051337, 0.0]
['beep', 0.0, 1093.4696904980767, 0.0, 0.0, 0.0, 0.0, -3804.5127754822706, 0.0]
['beep', 0.0, 1098.655295211708, 0.0, 0.0, 0.0, 0.0, -3808.334923784128, 0.0]
['beep', 0.0, 1089.6922456851298, 0.0, 0.0, 0.0, 0.0, -3811.4641680078707, 0.0]
['beep', 0.0, 1080.5503822029093, 0.0, 0.0, 0.0, 0.0, -3810.0560081071867, 0.0]
['beep', 0.0, 1085.3113037718897, 0.0, 0.0, 0.0, 0.0, -3805.809176660678, 0.0]
['beep', 0.0, 1100.5998969793197, 0.0, 0.0, 0.0, 0.0, -3805.071569093653, 0.0]
['beep', 0.0, 1103.1479958472248, 0.0, 0.0, 0.0, 0.0, -3807.1502813279967, 0.0]
['beep', 0.0, 1092.039178852937, 0.0, 0.0, 0.0, 0.0, -3809.139586584519, 0.0]
['beep', 0.0, 1082.852611881806, 0.0, 0.0, 0.0, 0.0, -3808.6031447175915, 0.0]
['beep', 0.0, 1088.0158648509819, 0.0, 0.0, 0.0, 0.0, -3805.9879906163205, 0.0]
['beep', 0.0, 1095.458995754599, 0.0, 0.0, 0.0, 0.0, -3805.429197004938, 0.0]
['beep', 0.0, 1098.7670539339847, 0.0, 0.0, 0.0, 0.0, -3807.2620400502733, 0.0]
['beep', 0.0, 1093.045007353426, 0.0, 0.0, 0.0, 0.0, -3810.27952555174, 0.0]
['beep', 0.0, 1087.5017747285099, 0.0, 0.0, 0.0, 0.0, -3808.692551695413, 0.0]
['beep', 0.0, 1084.6407514382306, 0.0, 0.0, 0.0, 0.0, -3807.6420197060133, 0.0]
['beep', 0.0, 1092.9108968866942, 0.0, 0.0, 0.0, 0.0, -3805.0045138602873, 0.0]
['beep', 0.0, 1095.660161454697, 0.0, 0.0, 0.0, 0.0, -3806.524432483248, 0.0]
['beep', 0.0, 1091.4356817526439, 0.0, 0.0, 0.0, 0.0, -3807.2620400502733, 0.0]
['beep', 0.0, 1079.4551467245992, 0.0, 0.0, 0.0, 0.0, -3806.9714673723543, 0.0]
['beep', 0.0, 1079.4551467245992, 0.0, 0.0, 0.0, 0.0, -3805.853880149589, 0.0]
['beep', 0.0, 1090.854536396806, 0.0, 0.0, 0.0, 0.0, -3805.3174382826614, 0.0]
['beep', 0.0, 1096.8001004219175, 0.0, 0.0, 0.0, 0.0, -3807.0608743501753, 0.0]
['beep', 0.0, 1088.9322863736495, 0.0, 0.0, 0.0, 0.0, -3809.1619383289744, 0.0]
['beep', 0.0, 1077.7787658904513, 0.0, 0.0, 0.0, 0.0, -3807.083226094631, 0.0]
['beep', 0.0, 1082.6961496706188, 0.0, 0.0, 0.0, 0.0, -3803.5963539596028, 0.0]
['beep', 0.0, 1093.045007353426, 0.0, 0.0, 0.0, 0.0, -3803.551650470692, 0.0]
['beep', 0.0, 1098.230612067057, 0.0, 0.0, 0.0, 0.0, -3806.8373569056225, 0.0]
['beep', 0.0, 1087.9041061287053, 0.0, 0.0, 0.0, 0.0, -3811.397112774505, 0.0]
['beep', 0.0, 1076.1917920341245, 0.0, 0.0, 0.0, 0.0, -3808.6701999509573, 0.0]
['beep', 0.0, 1082.271466525968, 0.0, 0.0, 0.0, 0.0, -3804.199851059896, 0.0]
['beep', 0.0, 1095.458995754599, 0.0, 0.0, 0.0, 0.0, -3804.177499315441, 0.0]
['beep', 0.0, 1098.3200190448783, 0.0, 0.0, 0.0, 0.0, -3807.1949848169074, 0.0]
['beep', 0.0, 1090.854536396806, 0.0, 0.0, 0.0, 0.0, -3809.430159262438, 0.0]
['beep', 0.0, 1080.3939199917222, 0.0, 0.0, 0.0, 0.0, -3806.792653416712, 0.0]
['beep', 0.0, 1078.1140420572808, 0.0, 0.0, 0.0, 0.0, -3803.685760937424, 0.0]
['beep', 0.0, 1090.8321846523506, 0.0, 0.0, 0.0, 0.0, -3803.3504847705944, 0.0]
['beep', 0.0, 1099.4152545231884, 0.0, 0.0, 0.0, 0.0, -3807.2396883058177, 0.0]
['beep', 0.0, 1094.9225538876717, 0.0, 0.0, 0.0, 0.0, -3809.8324906626335, 0.0]
['beep', 0.0, 1084.0372543379372, 0.0, 0.0, 0.0, 0.0, -3807.9325923839324, 0.0]
['beep', 0.0, 1085.333655516345, 0.0, 0.0, 0.0, 0.0, -3803.75281617079, 0.0]
['beep', 0.0, 1102.9915336360377, 0.0, 0.0, 0.0, 0.0, -3801.718807425357, 0.0]
['beep', 0.0, 1107.8642139272945, 0.0, 0.0, 0.0, 0.0, -3802.836394648122, 0.0]
['beep', 0.0, 1097.202431822113, 0.0, 0.0, 0.0, 0.0, -3806.1891563164186, 0.0]
['beep', 0.0, 1078.8292978798506, 0.0, 0.0, 0.0, 0.0, -3804.5127754822706, 0.0]
['beep', 0.0, 1079.946885102616, 0.0, 0.0, 0.0, 0.0, -3800.1541853134854, 0.0]
['beep', 0.0, 1092.173289319669, 0.0, 0.0, 0.0, 0.0, -3800.5118132247703, 0.0]
['beep', 0.0, 1097.8282806668617, 0.0, 0.0, 0.0, 0.0, -3804.199851059896, 0.0]
['beep', 0.0, 1090.0051701075042, 0.0, 0.0, 0.0, 0.0, -3807.2173365613626, 0.0]
['beep', 0.0, 1081.2209345365686, 0.0, 0.0, 0.0, 0.0, -3805.5409557272146, 0.0]
['beep', 0.0, 1087.9935131065265, 0.0, 0.0, 0.0, 0.0, -3801.204717302885, 0.0]
['beep', 0.0, 1099.6164202232862, 0.0, 0.0, 0.0, 0.0, -3801.830566147634, 0.0]
['beep', 0.0, 1103.4385685251439, 0.0, 0.0, 0.0, 0.0, -3803.2610777927734, 0.0]
['beep', 0.0, 1095.011960865493, 0.0, 0.0, 0.0, 0.0, -3804.177499315441, 0.0]
['beep', 0.0, 1085.2666002829792, 0.0, 0.0, 0.0, 0.0, -3800.936496369421, 0.0]
['beep', 0.0, 1086.8982776282166, 0.0, 0.0, 0.0, 0.0, -3799.908316124477, 0.0]
['beep', 0.0, 1095.3472370323227, 0.0, 0.0, 0.0, 0.0, -3798.1872318014184, 0.0]
['beep', 0.0, 1102.0527603689147, 0.0, 0.0, 0.0, 0.0, -3800.4447579914045, 0.0]
['beep', 0.0, 1094.7660916764846, 0.0, 0.0, 0.0, 0.0, -3803.149319070497, 0.0]
['beep', 0.0, 1082.4055769926997, 0.0, 0.0, 0.0, 0.0, -3802.3446562701056, 0.0]
['beep', 0.0, 1085.5348212164429, 0.0, 0.0, 0.0, 0.0, -3797.5390312122145, 0.0]
['beep', 0.0, 1098.9235161451718, 0.0, 0.0, 0.0, 0.0, -3795.885002122522, 0.0]
['beep', 0.0, 1103.1926993361353, 0.0, 0.0, 0.0, 0.0, -3800.9588481138767, 0.0]
['beep', 0.0, 1096.1518998327138, 0.0, 0.0, 0.0, 0.0, -3803.6187057040584, 0.0]
['beep', 0.0, 1080.59508569182, 0.0, 0.0, 0.0, 0.0, -3803.5069469817818, 0.0]
['beep', 0.0, 1080.013940335982, 0.0, 0.0, 0.0, 0.0, -3801.22706904734, 0.0]
['beep', 0.0, 1096.8671556552836, 0.0, 0.0, 0.0, 0.0, -3800.7129789248684, 0.0]
['beep', 0.0, 1099.7505306900182, 0.0, 0.0, 0.0, 0.0, -3804.3563132710833, 0.0]
['beep', 0.0, 1094.1849463206465, 0.0, 0.0, 0.0, 0.0, -3805.809176660678, 0.0]
['beep', 0.0, 1082.78555664844, 0.0, 0.0, 0.0, 0.0, -3804.401016759994, 0.0]
['beep', 0.0, 1085.4677659830768, 0.0, 0.0, 0.0, 0.0, -3802.0317318477314, 0.0]
['beep', 0.0, 1099.8399376678394, 0.0, 0.0, 0.0, 0.0, -3800.489461480315, 0.0]
['beep', 0.0, 1104.0197138809817, 0.0, 0.0, 0.0, 0.0, -3803.7304644263345, 0.0]
['beep', 0.0, 1094.8778503987612, 0.0, 0.0, 0.0, 0.0, -3807.2173365613626, 0.0]
['beep', 0.0, 1082.7632049039848, 0.0, 0.0, 0.0, 0.0, -3804.8480516491, 0.0]
['beep', 0.0, 1084.8642688827836, 0.0, 0.0, 0.0, 0.0, -3801.271772536251, 0.0]
['beep', 0.0, 1092.2179928085795, 0.0, 0.0, 0.0, 0.0, -3801.0929585806084, 0.0]
['beep', 0.0, 1097.0683213553812, 0.0, 0.0, 0.0, 0.0, -3805.205679560385, 0.0]
['beep', 0.0, 1091.4133300081885, 0.0, 0.0, 0.0, 0.0, -3808.044351106209, 0.0]
['beep', 0.0, 1086.1159665722807, 0.0, 0.0, 0.0, 0.0, -3804.5351272267258, 0.0]
['beep', 0.0, 1086.2947805279232, 0.0, 0.0, 0.0, 0.0, -3801.4058830029826, 0.0]
['beep', 0.0, 1094.363760276289, 0.0, 0.0, 0.0, 0.0, -3802.9258016259437, 0.0]
['beep', 0.0, 1102.008056880004, 0.0, 0.0, 0.0, 0.0, -3805.697417938402, 0.0]
['beep', 0.0, 1096.3083620439008, 0.0, 0.0, 0.0, 0.0, -3806.8597086500777, 0.0]
['beep', 0.0, 1085.6018764498087, 0.0, 0.0, 0.0, 0.0, -3805.8985836384995, 0.0]
['beep', 0.0, 1082.137356059236, 0.0, 0.0, 0.0, 0.0, -3802.746987670301, 0.0]
['beep', 0.0, 1095.079016098859, 0.0, 0.0, 0.0, 0.0, -3803.395188259505, 0.0]
['beep', 0.0, 1099.4599580120992, 0.0, 0.0, 0.0, 0.0, -3806.3232667831503, 0.0]
['beep', 0.0, 1090.9662951190824, 0.0, 0.0, 0.0, 0.0, -3808.983124373332, 0.0]
['beep', 0.0, 1085.2666002829792, 0.0, 0.0, 0.0, 0.0, -3807.5079092392816, 0.0]
['beep', 0.0, 1086.7194636725742, 0.0, 0.0, 0.0, 0.0, -3802.4787667368373, 0.0]
['beep', 0.0, 1096.174251577169, 0.0, 0.0, 0.0, 0.0, -3802.232897547829, 0.0]
['beep', 0.0, 1101.0469318684259, 0.0, 0.0, 0.0, 0.0, -3804.758644671279, 0.0]
['beep', 0.0, 1090.3404462743338, 0.0, 0.0, 0.0, 0.0, -3807.03852260572, 0.0]
['beep', 0.0, 1080.0586438248927, 0.0, 0.0, 0.0, 0.0, -3805.8985836384995, 0.0]
['beep', 0.0, 1080.7962513919176, 0.0, 0.0, 0.0, 0.0, -3803.6410574485135, 0.0]
['beep', 0.0, 1095.950734132616, 0.0, 0.0, 0.0, 0.0, -3800.8023859026894, 0.0]
['beep', 0.0, 1100.465786512588, 0.0, 0.0, 0.0, 0.0, -3802.1211388255524, 0.0]
['beep', 0.0, 1093.69320794263, 0.0, 0.0, 0.0, 0.0, -3804.5127754822706, 0.0]
['beep', 0.0, 1085.9595043610937, 0.0, 0.0, 0.0, 0.0, -3803.8645748930667, 0.0]
['beep', 0.0, 1088.2617340399902, 0.0, 0.0, 0.0, 0.0, -3801.294124280706, 0.0]
['beep', 0.0, 1096.3754172772667, 0.0, 0.0, 0.0, 0.0, -3801.6070487030806, 0.0]
['beep', 0.0, 1097.5377079889427, 0.0, 0.0, 0.0, 0.0, -3805.362141771572, 0.0]
['beep', 0.0, 1090.2957427854233, 0.0, 0.0, 0.0, 0.0, -3806.5467842277035, 0.0]
['beep', 0.0, 1082.919667115172, 0.0, 0.0, 0.0, 0.0, -3804.5127754822706, 0.0]
['beep', 0.0, 1084.5960479493199, 0.0, 0.0, 0.0, 0.0, -3801.9646766143655, 0.0]
['beep', 0.0, 1094.5425742319314, 0.0, 0.0, 0.0, 0.0, -3801.0482550916977, 0.0]
['beep', 0.0, 1101.0692836128812, 0.0, 0.0, 0.0, 0.0, -3803.9539818708877, 0.0]
['beep', 0.0, 1097.2247835665685, 0.0, 0.0, 0.0, 0.0, -3805.9432871274103, 0.0]
['beep', 0.0, 1084.4842892270433, 0.0, 0.0, 0.0, 0.0, -3804.5798307156365, 0.0]
['beep', 0.0, 1081.4444519811216, 0.0, 0.0, 0.0, 0.0, -3801.495289980804, 0.0]
['beep', 0.0, 1095.2578300545015, 0.0, 0.0, 0.0, 0.0, -3801.2494207917957, 0.0]
['beep', 0.0, 1101.7398359465403, 0.0, 0.0, 0.0, 0.0, -3803.5069469817818, 0.0]
['beep', 0.0, 1092.3297515308561, 0.0, 0.0, 0.0, 0.0, -3806.077397594142, 0.0]
['beep', 0.0, 1084.886620627239, 0.0, 0.0, 0.0, 0.0, -3805.138624327019, 0.0]
['beep', 0.0, 1085.2666002829792, 0.0, 0.0, 0.0, 0.0, -3802.0540835921865, 0.0]
['beep', 0.0, 1096.6659899551858, 0.0, 0.0, 0.0, 0.0, -3801.0259033472425, 0.0]
['beep', 0.0, 1104.623210981275, 0.0, 0.0, 0.0, 0.0, -3805.5409557272146, 0.0]
['beep', 0.0, 1093.9167253871829, 0.0, 0.0, 0.0, 0.0, -3809.653676706991, 0.0]
['beep', 0.0, 1081.4444519811216, 0.0, 0.0, 0.0, 0.0, -3808.759606928779, 0.0]
['beep', 0.0, 1085.2666002829792, 0.0, 0.0, 0.0, 0.0, -3803.6634091929686, 0.0]
['beep', 0.0, 1098.1412050892359, 0.0, 0.0, 0.0, 0.0, -3801.830566147634, 0.0]
['beep', 0.0, 1100.4881382570431, 0.0, 0.0, 0.0, 0.0, -3804.266906293262, 0.0]
['beep', 0.0, 1092.4862137420432, 0.0, 0.0, 0.0, 0.0, -3806.6138394610693, 0.0]
['beep', 0.0, 1083.88079212675, 0.0, 0.0, 0.0, 0.0, -3803.909278381977, 0.0]
['beep', 0.0, 1083.2549432820015, 0.0, 0.0, 0.0, 0.0, -3802.0093801032763, 0.0]
['beep', 0.0, 1094.0731875983702, 0.0, 0.0, 0.0, 0.0, -3801.875269636544, 0.0]
['beep', 0.0, 1102.5221470024762, 0.0, 0.0, 0.0, 0.0, -3803.9763336153433, 0.0]
['beep', 0.0, 1094.7437399320293, 0.0, 0.0, 0.0, 0.0, -3807.463205750371, 0.0]
['beep', 0.0, 1086.0265595944595, 0.0, 0.0, 0.0, 0.0, -3806.0326941052313, 0.0]
['beep', 0.0, 1089.3793212627556, 0.0, 0.0, 0.0, 0.0, -3800.7353306693235, 0.0]
['beep', 0.0, 1101.270449312979, 0.0, 0.0, 0.0, 0.0, -3799.4836329798263, 0.0]
['beep', 0.0, 1105.070245870381, 0.0, 0.0, 0.0, 0.0, -3802.3223045256505, 0.0]
['beep', 0.0, 1093.9167253871829, 0.0, 0.0, 0.0, 0.0, -3805.3174382826614, 0.0]
['beep', 0.0, 1083.9701991045713, 0.0, 0.0, 0.0, 0.0, -3805.697417938402, 0.0]
['beep', 0.0, 1087.1664985616803, 0.0, 0.0, 0.0, 0.0, -3803.9763336153433, 0.0]
['beep', 0.0, 1095.4813474990544, 0.0, 0.0, 0.0, 0.0, -3801.6294004475358, 0.0]
['beep', 0.0, 1102.2539260690126, 0.0, 0.0, 0.0, 0.0, -3803.171670814952, 0.0]
['beep', 0.0, 1098.431777767155, 0.0, 0.0, 0.0, 0.0, -3804.5351272267258, 0.0]
['beep', 0.0, 1087.4794229840545, 0.0, 0.0, 0.0, 0.0, -3803.3504847705944, 0.0]
['beep', 0.0, 1087.0547398394037, 0.0, 0.0, 0.0, 0.0, -3800.0200748467537, 0.0]
['beep', 0.0, 1095.593106221331, 0.0, 0.0, 0.0, 0.0, -3799.684798679924, 0.0]
['beep', 0.0, 1103.5726789918756, 0.0, 0.0, 0.0, 0.0, -3801.718807425357, 0.0]
['beep', 0.0, 1095.079016098859, 0.0, 0.0, 0.0, 0.0, -3804.110444082075, 0.0]
['beep', 0.0, 1084.5513444604094, 0.0, 0.0, 0.0, 0.0, -3802.165842314463, 0.0]
['beep', 0.0, 1088.462899740088, 0.0, 0.0, 0.0, 0.0, -3798.1201765680526, 0.0]
['beep', 0.0, 1098.5435364894315, 0.0, 0.0, 0.0, 0.0, -3797.203755045385, 0.0]
['beep', 0.0, 1105.9419639041382, 0.0, 0.0, 0.0, 0.0, -3801.3388277696167, 0.0]
['beep', 0.0, 1095.9730858770713, 0.0, 0.0, 0.0, 0.0, -3803.797519659701, 0.0]
['beep', 0.0, 1082.0032455925043, 0.0, 0.0, 0.0, 0.0, -3803.395188259505, 0.0]
['beep', 0.0, 1080.4833269695434, 0.0, 0.0, 0.0, 0.0, -3802.165842314463, 0.0]
['beep', 0.0, 1091.9497718751159, 0.0, 0.0, 0.0, 0.0, -3800.042426591209, 0.0]
['beep', 0.0, 1098.588239978342, 0.0, 0.0, 0.0, 0.0, -3801.852917892089, 0.0]
['beep', 0.0, 1093.4249870091662, 0.0, 0.0, 0.0, 0.0, -3804.557478971181, 0.0]
['beep', 0.0, 1082.5843909483422, 0.0, 0.0, 0.0, 0.0, -3803.462243492871, 0.0]
['beep', 0.0, 1084.752510160507, 0.0, 0.0, 0.0, 0.0, -3799.9306678689327, 0.0]
['beep', 0.0, 1094.6319812097527, 0.0, 0.0, 0.0, 0.0, -3797.919010867955, 0.0]
['beep', 0.0, 1098.2976673004232, 0.0, 0.0, 0.0, 0.0, -3800.109481824575, 0.0]
['beep', 0.0, 1093.849670153817, 0.0, 0.0, 0.0, 0.0, -3802.2776010367397, 0.0]
['beep', 0.0, 1084.1490130602137, 0.0, 0.0, 0.0, 0.0, -3801.0706068361533, 0.0]
['beep', 0.0, 1088.7087689290963, 0.0, 0.0, 0.0, 0.0, -3797.5390312122145, 0.0]
['beep', 0.0, 1095.7048649436076, 0.0, 0.0, 0.0, 0.0, -3796.8684788785554, 0.0]
['beep', 0.0, 1098.722350445074, 0.0, 0.0, 0.0, 0.0, -3799.9977231022986, 0.0]
['beep', 0.0, 1095.9954376215264, 0.0, 0.0, 0.0, 0.0, -3802.1211388255524, 0.0]
['beep', 0.0, 1085.69128342763, 0.0, 0.0, 0.0, 0.0, -3802.143490570008, 0.0]
['beep', 0.0, 1082.4502804816104, 0.0, 0.0, 0.0, 0.0, -3800.332999269128, 0.0]
['beep', 0.0, 1094.1178910872807, 0.0, 0.0, 0.0, 0.0, -3797.1590515564744, 0.0]
['beep', 0.0, 1103.6397342252415, 0.0, 0.0, 0.0, 0.0, -3800.601220202592, 0.0]
['beep', 0.0, 1096.3754172772667, 0.0, 0.0, 0.0, 0.0, -3804.2892580377174, 0.0]
['beep', 0.0, 1086.6077049502976, 0.0, 0.0, 0.0, 0.0, -3804.266906293262, 0.0]
['beep', 0.0, 1085.1101380717919, 0.0, 0.0, 0.0, 0.0, -3799.7295021688346, 0.0]
['beep', 0.0, 1091.9497718751159, 0.0, 0.0, 0.0, 0.0, -3799.7965574022005, 0.0]
['beep', 0.0, 1098.6105917227974, 0.0, 0.0, 0.0, 0.0, -3802.7693394147564, 0.0]
['beep', 0.0, 1091.078053841359, 0.0, 0.0, 0.0, 0.0, -3805.071569093653, 0.0]
['beep', 0.0, 1082.6961496706188, 0.0, 0.0, 0.0, 0.0, -3804.6021824600916, 0.0]
['beep', 0.0, 1084.3054752714008, 0.0, 0.0, 0.0, 0.0, -3800.4224062469493, 0.0]
['beep', 0.0, 1092.9332486311494, 0.0, 0.0, 0.0, 0.0, -3799.8636126355664, 0.0]
['beep', 0.0, 1104.7349697035515, 0.0, 0.0, 0.0, 0.0, -3800.623571947047, 0.0]
['beep', 0.0, 1093.8720218982724, 0.0, 0.0, 0.0, 0.0, -3804.0880923376194, 0.0]
['beep', 0.0, 1081.466803725577, 0.0, 0.0, 0.0, 0.0, -3804.13279582653, 0.0]
['beep', 0.0, 1081.9585421035936, 0.0, 0.0, 0.0, 0.0, -3801.539993469715, 0.0]
['beep', 0.0, 1094.9896091210378, 0.0, 0.0, 0.0, 0.0, -3800.176537057941, 0.0]
['beep', 0.0, 1096.8671556552836, 0.0, 0.0, 0.0, 0.0, -3802.9034498814885, 0.0]
['beep', 0.0, 1088.4181962511775, 0.0, 0.0, 0.0, 0.0, -3807.1949848169074, 0.0]
['beep', 0.0, 1079.1645740466804, 0.0, 0.0, 0.0, 0.0, -3807.8878888950217, 0.0]
['beep', 0.0, 1081.4444519811216, 0.0, 0.0, 0.0, 0.0, -3804.8704033935555, 0.0]
['beep', 0.0, 1092.5979724643198, 0.0, 0.0, 0.0, 0.0, -3802.724635925846, 0.0]
['beep', 0.0, 1097.716521944585, 0.0, 0.0, 0.0, 0.0, -3805.5856592161254, 0.0]
['beep', 0.0, 1090.2957427854233, 0.0, 0.0, 0.0, 0.0, -3807.5302609837368, 0.0]
['beep', 0.0, 1079.7010159136078, 0.0, 0.0, 0.0, 0.0, -3806.166804571963, 0.0]
['beep', 0.0, 1080.304513013901, 0.0, 0.0, 0.0, 0.0, -3801.294124280706, 0.0]
['beep', 0.0, 1094.8778503987612, 0.0, 0.0, 0.0, 0.0, -3800.0647783356644, 0.0]
['beep', 0.0, 1100.5775452348644, 0.0, 0.0, 0.0, 0.0, -3802.858746392578, 0.0]
['beep', 0.0, 1092.754434675507, 0.0, 0.0, 0.0, 0.0, -3805.9209353829547, 0.0]
['beep', 0.0, 1082.9867223485378, 0.0, 0.0, 0.0, 0.0, -3804.803348160189, 0.0]
['beep', 0.0, 1081.2209345365686, 0.0, 0.0, 0.0, 0.0, -3800.489461480315, 0.0]
['beep', 0.0, 1090.720425930074, 0.0, 0.0, 0.0, 0.0, -3798.8130806461672, 0.0]
['beep', 0.0, 1097.8953359002276, 0.0, 0.0, 0.0, 0.0, -3799.617743446558, 0.0]
['beep', 0.0, 1092.039178852937, 0.0, 0.0, 0.0, 0.0, -3802.3893597590163, 0.0]
['beep', 0.0, 1082.562039203887, 0.0, 0.0, 0.0, 0.0, -3801.875269636544, 0.0]
['beep', 0.0, 1082.0479490814148, 0.0, 0.0, 0.0, 0.0, -3799.595391702103, 0.0]
['beep', 0.0, 1091.8380131528395, 0.0, 0.0, 0.0, 0.0, -3798.723673668346, 0.0]
['beep', 0.0, 1094.4084637651997, 0.0, 0.0, 0.0, 0.0, -3803.0599120926754, 0.0]
['beep', 0.0, 1089.8934113852276, 0.0, 0.0, 0.0, 0.0, -3806.949115627899, 0.0]
['beep', 0.0, 1077.1305653012473, 0.0, 0.0, 0.0, 0.0, -3805.8315284051337, 0.0]
['beep', 0.0, 1077.0188065789707, 0.0, 0.0, 0.0, 0.0, -3801.3164760251616, 0.0]
['beep', 0.0, 1089.6698939406747, 0.0, 0.0, 0.0, 0.0, -3798.5448597127033, 0.0]
['beep', 0.0, 1097.0236178664707, 0.0, 0.0, 0.0, 0.0, -3801.3835312585275, 0.0]
['beep', 0.0, 1091.525088730465, 0.0, 0.0, 0.0, 0.0, -3804.557478971181, 0.0]
['beep', 0.0, 1082.427928737155, 0.0, 0.0, 0.0, 0.0, -3805.6303627050356, 0.0]
['beep', 0.0, 1085.4454142386217, 0.0, 0.0, 0.0, 0.0, -3804.4457202489043, 0.0]
['beep', 0.0, 1094.7213881875741, 0.0, 0.0, 0.0, 0.0, -3803.3504847705944, 0.0]
['beep', 0.0, 1100.6669522126856, 0.0, 0.0, 0.0, 0.0, -3804.5798307156365, 0.0]
['beep', 0.0, 1096.911859144194, 0.0, 0.0, 0.0, 0.0, -3806.725598183346, 0.0]
['beep', 0.0, 1080.4386234806327, 0.0, 0.0, 0.0, 0.0, -3807.306743539184, 0.0]
['beep', 0.0, 1081.757376403496, 0.0, 0.0, 0.0, 0.0, -3805.160976071474, 0.0]
['beep', 0.0, 1089.3122660293898, 0.0, 0.0, 0.0, 0.0, -3803.886926637522, 0.0]
['beep', 0.0, 1095.9283823881606, 0.0, 0.0, 0.0, 0.0, -3804.9821621158317, 0.0]
['beep', 0.0, 1090.1839840631467, 0.0, 0.0, 0.0, 0.0, -3808.2455168063066, 0.0]
['beep', 0.0, 1080.170402547169, 0.0, 0.0, 0.0, 0.0, -3807.8655371505665, 0.0]
['beep', 0.0, 1080.7738996474625, 0.0, 0.0, 0.0, 0.0, -3804.8480516491, 0.0]
['beep', 0.0, 1093.2238213090684, 0.0, 0.0, 0.0, 0.0, -3803.775167915245, 0.0]
['beep', 0.0, 1100.2646208124902, 0.0, 0.0, 0.0, 0.0, -3807.664371450469, 0.0]
['beep', 0.0, 1094.9896091210378, 0.0, 0.0, 0.0, 0.0, -3810.391284274016, 0.0]
['beep', 0.0, 1086.9653328615825, 0.0, 0.0, 0.0, 0.0, -3808.7372551843237, 0.0]
['beep', 0.0, 1078.5387252019316, 0.0, 0.0, 0.0, 0.0, -3806.010342360776, 0.0]
['beep', 0.0, 1089.4240247516661, 0.0, 0.0, 0.0, 0.0, -3804.557478971181, 0.0]
['beep', 0.0, 1097.4930045000322, 0.0, 0.0, 0.0, 0.0, -3805.853880149589, 0.0]
['beep', 0.0, 1092.5085654864986, 0.0, 0.0, 0.0, 0.0, -3807.8878888950217, 0.0]
['beep', 0.0, 1080.5503822029093, 0.0, 0.0, 0.0, 0.0, -3807.4855574948265, 0.0]
['beep', 0.0, 1082.3832252482446, 0.0, 0.0, 0.0, 0.0, -3804.199851059896, 0.0]
['beep', 0.0, 1094.430815509655, 0.0, 0.0, 0.0, 0.0, -3803.1269673260413, 0.0]
['beep', 0.0, 1101.9186499021828, 0.0, 0.0, 0.0, 0.0, -3806.144452827508, 0.0]
['beep', 0.0, 1095.5260509879652, 0.0, 0.0, 0.0, 0.0, -3808.1561098284856, 0.0]
['beep', 0.0, 1081.5115072144874, 0.0, 0.0, 0.0, 0.0, -3808.424330761949, 0.0]
['beep', 0.0, 1084.6183996937752, 0.0, 0.0, 0.0, 0.0, -3804.2892580377174, 0.0]
['beep', 0.0, 1092.1285858307583, 0.0, 0.0, 0.0, 0.0, -3802.456414992382, 0.0]
['beep', 0.0, 1096.4871759995433, 0.0, 0.0, 0.0, 0.0, -3804.557478971181, 0.0]
['beep', 0.0, 1092.3073997864008, 0.0, 0.0, 0.0, 0.0, -3807.9102406394773, 0.0]
['beep', 0.0, 1085.3560072608004, 0.0, 0.0, 0.0, 0.0, -3806.65854294998, 0.0]
['beep', 0.0, 1082.562039203887, 0.0, 0.0, 0.0, 0.0, -3804.2445545488067, 0.0]
['beep', 0.0, 1093.4696904980767, 0.0, 0.0, 0.0, 0.0, -3802.210545803374, 0.0]
['beep', 0.0, 1098.8341091673506, 0.0, 0.0, 0.0, 0.0, -3805.697417938402, 0.0]
['beep', 0.0, 1090.4075015076996, 0.0, 0.0, 0.0, 0.0, -3809.273697051251, 0.0]
['beep', 0.0, 1079.6786641691524, 0.0, 0.0, 0.0, 0.0, -3808.781958673234, 0.0]
['beep', 0.0, 1080.013940335982, 0.0, 0.0, 0.0, 0.0, -3805.8315284051337, 0.0]
['beep', 0.0, 1095.4813474990544, 0.0, 0.0, 0.0, 0.0, -3803.3057812816837, 0.0]
['beep', 0.0, 1101.9857051355489, 0.0, 0.0, 0.0, 0.0, -3806.524432483248, 0.0]
['beep', 0.0, 1093.6708561981745, 0.0, 0.0, 0.0, 0.0, -3810.4359877629267, 0.0]
['beep', 0.0, 1082.494983970521, 0.0, 0.0, 0.0, 0.0, -3809.56426972917, 0.0]
['beep', 0.0, 1083.3443502598227, 0.0, 0.0, 0.0, 0.0, -3807.2173365613626, 0.0]
['beep', 0.0, 1091.8603648972946, 0.0, 0.0, 0.0, 0.0, -3806.4126737609718, 0.0]
['beep', 0.0, 1099.3258475453672, 0.0, 0.0, 0.0, 0.0, -3807.5973162171026, 0.0]
['beep', 0.0, 1094.654332954208, 0.0, 0.0, 0.0, 0.0, -3809.0948830956086, 0.0]
['beep', 0.0, 1084.9089723716943, 0.0, 0.0, 0.0, 0.0, -3809.2513453067954, 0.0]
['beep', 0.0, 1079.008111835493, 0.0, 0.0, 0.0, 0.0, -3806.524432483248, 0.0]
['beep', 0.0, 1093.0897108423367, 0.0, 0.0, 0.0, 0.0, -3805.809176660678, 0.0]
['beep', 0.0, 1101.0469318684259, 0.0, 0.0, 0.0, 0.0, -3808.13375808403, 0.0]
['beep', 0.0, 1091.5697922193758, 0.0, 0.0, 0.0, 0.0, -3810.681856951935, 0.0]
['beep', 0.0, 1080.4162717361776, 0.0, 0.0, 0.0, 0.0, -3810.391284274016, 0.0]
['beep', 0.0, 1077.979931590549, 0.0, 0.0, 0.0, 0.0, -3807.105577839086, 0.0]
['beep', 0.0, 1088.2840857844456, 0.0, 0.0, 0.0, 0.0, -3805.2280313048404, 0.0]
['beep', 0.0, 1097.1130248442919, 0.0, 0.0, 0.0, 0.0, -3806.300915038695, 0.0]
['beep', 0.0, 1091.7709579194734, 0.0, 0.0, 0.0, 0.0, -3808.759606928779, 0.0]
['beep', 0.0, 1082.115004314781, 0.0, 0.0, 0.0, 0.0, -3809.7654354292677, 0.0]
['beep', 0.0, 1083.433757237644, 0.0, 0.0, 0.0, 0.0, -3806.4126737609718, 0.0]
['beep', 0.0, 1095.9283823881606, 0.0, 0.0, 0.0, 0.0, -3804.46807199336, 0.0]
['beep', 0.0, 1101.6057254798086, 0.0, 0.0, 0.0, 0.0, -3805.0268656047424, 0.0]
['beep', 0.0, 1094.1849463206465, 0.0, 0.0, 0.0, 0.0, -3808.044351106209, 0.0]
['beep', 0.0, 1081.109175814292, 0.0, 0.0, 0.0, 0.0, -3807.619667961558, 0.0]
['beep', 0.0, 1080.1256990582585, 0.0, 0.0, 0.0, 0.0, -3806.65854294998, 0.0]
['beep', 0.0, 1087.6358851952416, 0.0, 0.0, 0.0, 0.0, -3805.8762318940444, 0.0]
['beep', 0.0, 1095.3695887767778, 0.0, 0.0, 0.0, 0.0, -3808.111406339575, 0.0]
['beep', 0.0, 1088.8428793958283, 0.0, 0.0, 0.0, 0.0, -3809.8771941515442, 0.0]
['beep', 0.0, 1078.337559501834, 0.0, 0.0, 0.0, 0.0, -3808.3796272730387, 0.0]
['beep', 0.0, 1079.0975188133143, 0.0, 0.0, 0.0, 0.0, -3805.071569093653, 0.0]
['beep', 0.0, 1092.5756207198644, 0.0, 0.0, 0.0, 0.0, -3802.746987670301, 0.0]
['beep', 0.0, 1102.142167346736, 0.0, 0.0, 0.0, 0.0, -3803.171670814952, 0.0]
['beep', 0.0, 1090.5192602299762, 0.0, 0.0, 0.0, 0.0, -3806.882060394533, 0.0]
['beep', 0.0, 1080.7738996474625, 0.0, 0.0, 0.0, 0.0, -3806.2562115497844, 0.0]
['beep', 0.0, 1078.203449035102, 0.0, 0.0, 0.0, 0.0, -3802.6128772035695, 0.0]
['beep', 0.0, 1091.1674608191802, 0.0, 0.0, 0.0, 0.0, -3801.830566147634, 0.0]
['beep', 0.0, 1097.1577283332024, 0.0, 0.0, 0.0, 0.0, -3803.3504847705944, 0.0]
['beep', 0.0, 1091.6368474527417, 0.0, 0.0, 0.0, 0.0, -3807.5526127281923, 0.0]
['beep', 0.0, 1082.4726322260658, 0.0, 0.0, 0.0, 0.0, -3807.1949848169074, 0.0]
['beep', 0.0, 1082.3161700148785, 0.0, 0.0, 0.0, 0.0, -3803.1269673260413, 0.0]
['beep', 0.0, 1090.0945770853255, 0.0, 0.0, 0.0, 0.0, -3800.7353306693235, 0.0]
['beep', 0.0, 1095.9954376215264, 0.0, 0.0, 0.0, 0.0, -3802.3446562701056, 0.0]
['beep', 0.0, 1092.1285858307583, 0.0, 0.0, 0.0, 0.0, -3804.9821621158317, 0.0]
['beep', 0.0, 1081.1985827921133, 0.0, 0.0, 0.0, 0.0, -3803.8645748930667, 0.0]
['beep', 0.0, 1083.0314258374485, 0.0, 0.0, 0.0, 0.0, -3800.5118132247703, 0.0]
['beep', 0.0, 1095.7719201769735, 0.0, 0.0, 0.0, 0.0, -3800.5118132247703, 0.0]
['beep', 0.0, 1098.9011644007164, 0.0, 0.0, 0.0, 0.0, -3804.2892580377174, 0.0]
['beep', 0.0, 1089.1781555626578, 0.0, 0.0, 0.0, 0.0, -3807.820833661656, 0.0]
['beep', 0.0, 1076.4376612231329, 0.0, 0.0, 0.0, 0.0, -3807.083226094631, 0.0]
['beep', 0.0, 1081.176231047658, 0.0, 0.0, 0.0, 0.0, -3802.9705051148544, 0.0]
['beep', 0.0, 1091.8380131528395, 0.0, 0.0, 0.0, 0.0, -3802.523470225748, 0.0]
['beep', 0.0, 1099.16938533418, 0.0, 0.0, 0.0, 0.0, -3802.9258016259437, 0.0]
['beep', 0.0, 1094.0284841094594, 0.0, 0.0, 0.0, 0.0, -3805.742121427312, 0.0]
['beep', 0.0, 1083.9031438712054, 0.0, 0.0, 0.0, 0.0, -3806.9044121389884, 0.0]
['beep', 0.0, 1081.8691351257723, 0.0, 0.0, 0.0, 0.0, -3804.2445545488067, 0.0]
['beep', 0.0, 1093.3579317758004, 0.0, 0.0, 0.0, 0.0, -3802.9928568593095, 0.0]
['beep', 0.0, 1098.856460911806, 0.0, 0.0, 0.0, 0.0, -3806.2338598053293, 0.0]
['beep', 0.0, 1091.010998607993, 0.0, 0.0, 0.0, 0.0, -3809.430159262438, 0.0]
['beep', 0.0, 1079.656312424697, 0.0, 0.0, 0.0, 0.0, -3807.820833661656, 0.0]
['beep', 0.0, 1080.1033473138032, 0.0, 0.0, 0.0, 0.0, -3802.724635925846, 0.0]
['beep', 0.0, 1091.4580334970992, 0.0, 0.0, 0.0, 0.0, -3800.8470893916, 0.0]
['beep', 0.0, 1099.2140888230908, 0.0, 0.0, 0.0, 0.0, -3803.149319070497, 0.0]
['beep', 0.0, 1092.4191585086774, 0.0, 0.0, 0.0, 0.0, -3807.4408540059158, 0.0]
['beep', 0.0, 1084.8642688827836, 0.0, 0.0, 0.0, 0.0, -3806.6138394610693, 0.0]
['beep', 0.0, 1080.7291961585518, 0.0, 0.0, 0.0, 0.0, -3801.852917892089, 0.0]
['beep', 0.0, 1090.1616323186913, 0.0, 0.0, 0.0, 0.0, -3800.332999269128, 0.0]
['beep', 0.0, 1099.9293446456606, 0.0, 0.0, 0.0, 0.0, -3802.299952781195, 0.0]
['beep', 0.0, 1095.079016098859, 0.0, 0.0, 0.0, 0.0, -3805.786824916223, 0.0]
['beep', 0.0, 1085.1324898162472, 0.0, 0.0, 0.0, 0.0, -3805.4739004938488, 0.0]
['beep', 0.0, 1083.0314258374485, 0.0, 0.0, 0.0, 0.0, -3801.294124280706, 0.0]
['beep', 0.0, 1093.2461730535238, 0.0, 0.0, 0.0, 0.0, -3798.7013219238906, 0.0]
['beep', 0.0, 1104.0197138809817, 0.0, 0.0, 0.0, 0.0, -3800.534164969226, 0.0]
['beep', 0.0, 1097.3365422888448, 0.0, 0.0, 0.0, 0.0, -3804.401016759994, 0.0]
['beep', 0.0, 1082.852611881806, 0.0, 0.0, 0.0, 0.0, -3804.46807199336, 0.0]
['beep', 0.0, 1080.0586438248927, 0.0, 0.0, 0.0, 0.0, -3801.3835312585275, 0.0]
['beep', 0.0, 1092.173289319669, 0.0, 0.0, 0.0, 0.0, -3799.0813015796307, 0.0]
['beep', 0.0, 1100.108158601303, 0.0, 0.0, 0.0, 0.0, -3801.4058830029826, 0.0]
['beep', 0.0, 1095.1237195877695, 0.0, 0.0, 0.0, 0.0, -3803.6410574485135, 0.0]
['beep', 0.0, 1085.3113037718897, 0.0, 0.0, 0.0, 0.0, -3803.238726048318, 0.0]
['beep', 0.0, 1083.4114054931886, 0.0, 0.0, 0.0, 0.0, -3800.7129789248684, 0.0]
['beep', 0.0, 1092.8438416533281, 0.0, 0.0, 0.0, 0.0, -3796.8014236451895, 0.0]
['beep', 0.0, 1097.8059289224063, 0.0, 0.0, 0.0, 0.0, -3799.818909146656, 0.0]
['beep', 0.0, 1094.3190567873785, 0.0, 0.0, 0.0, 0.0, -3803.082263837131, 0.0]
['beep', 0.0, 1082.7408531595295, 0.0, 0.0, 0.0, 0.0, -3800.601220202592, 0.0]
['beep', 0.0, 1083.3443502598227, 0.0, 0.0, 0.0, 0.0, -3797.270810278751, 0.0]
['beep', 0.0, 1095.2578300545015, 0.0, 0.0, 0.0, 0.0, -3795.1920980444074, 0.0]
['beep', 0.0, 1101.0916353573366, 0.0, 0.0, 0.0, 0.0, -3798.366045757061, 0.0]
['beep', 0.0, 1093.1567660757025, 0.0, 0.0, 0.0, 0.0, -3802.858746392578, 0.0]
['beep', 0.0, 1082.494983970521, 0.0, 0.0, 0.0, 0.0, -3802.232897547829, 0.0]
['beep', 0.0, 1081.9361903591384, 0.0, 0.0, 0.0, 0.0, -3800.601220202592, 0.0]
['beep', 0.0, 1093.849670153817, 0.0, 0.0, 0.0, 0.0, -3800.3553510135835, 0.0]
['beep', 0.0, 1101.203394079613, 0.0, 0.0, 0.0, 0.0, -3801.94232486991, 0.0]
['beep', 0.0, 1093.8720218982724, 0.0, 0.0, 0.0, 0.0, -3805.116272582564, 0.0]
['beep', 0.0, 1082.4502804816104, 0.0, 0.0, 0.0, 0.0, -3803.9986853597984, 0.0]
['beep', 0.0, 1078.5387252019316, 0.0, 0.0, 0.0, 0.0, -3801.1153103250635, 0.0]
['beep', 0.0, 1090.6310189522528, 0.0, 0.0, 0.0, 0.0, -3800.042426591209, 0.0]
['beep', 0.0, 1098.3423707893337, 0.0, 0.0, 0.0, 0.0, -3802.948153370399, 0.0]
['beep', 0.0, 1093.8049666649065, 0.0, 0.0, 0.0, 0.0, -3805.786824916223, 0.0]
['beep', 0.0, 1079.6339606802417, 0.0, 0.0, 0.0, 0.0, -3805.8315284051337, 0.0]
['beep', 0.0, 1078.8963531132167, 0.0, 0.0, 0.0, 0.0, -3803.238726048318, 0.0]
['beep', 0.0, 1091.4580334970992, 0.0, 0.0, 0.0, 0.0, -3799.595391702103, 0.0]
['beep', 0.0, 1099.661123712197, 0.0, 0.0, 0.0, 0.0, -3799.4389294909156, 0.0]
['beep', 0.0, 1093.6038009648087, 0.0, 0.0, 0.0, 0.0, -3803.5069469817818, 0.0]
['beep', 0.0, 1081.6456176812194, 0.0, 0.0, 0.0, 0.0, -3804.7362929268234, 0.0]
['beep', 0.0, 1086.7194636725742, 0.0, 0.0, 0.0, 0.0, -3799.885964380022, 0.0]
['beep', 0.0, 1095.079016098859, 0.0, 0.0, 0.0, 0.0, -3798.3213422681506, 0.0]
['beep', 0.0, 1099.4152545231884, 0.0, 0.0, 0.0, 0.0, -3801.852917892089, 0.0]
['beep', 0.0, 1094.1849463206465, 0.0, 0.0, 0.0, 0.0, -3804.177499315441, 0.0]
['beep', 0.0, 1083.9254956156608, 0.0, 0.0, 0.0, 0.0, -3804.46807199336, 0.0]
['beep', 0.0, 1079.0304635799484, 0.0, 0.0, 0.0, 0.0, -3801.785862658723, 0.0]
['beep', 0.0, 1090.07222534087, 0.0, 0.0, 0.0, 0.0, -3798.880135879533, 0.0]
['beep', 0.0, 1101.2480975685237, 0.0, 0.0, 0.0, 0.0, -3799.1260050685414, 0.0]
['beep', 0.0, 1095.079016098859, 0.0, 0.0, 0.0, 0.0, -3802.9258016259437, 0.0]
['beep', 0.0, 1084.7972136494177, 0.0, 0.0, 0.0, 0.0, -3802.2776010367397, 0.0]
['beep', 0.0, 1081.7126729145853, 0.0, 0.0, 0.0, 0.0, -3798.611914946069, 0.0]
['beep', 0.0, 1091.6144957082863, 0.0, 0.0, 0.0, 0.0, -3795.7955951447007, 0.0]
['beep', 0.0, 1101.0022283795154, 0.0, 0.0, 0.0, 0.0, -3800.1318335690303, 0.0]
['beep', 0.0, 1093.4696904980767, 0.0, 0.0, 0.0, 0.0, -3803.6187057040584, 0.0]
['beep', 0.0, 1079.6786641691524, 0.0, 0.0, 0.0, 0.0, -3802.9034498814885, 0.0]
['beep', 0.0, 1078.3152077573786, 0.0, 0.0, 0.0, 0.0, -3798.209583545874, 0.0]
['beep', 0.0, 1084.9760276050602, 0.0, 0.0, 0.0, 0.0, -3797.695493423402, 0.0]
['beep', 0.0, 1094.1625945761914, 0.0, 0.0, 0.0, 0.0, -3800.824737647145, 0.0]
['beep', 0.0, 1091.234516052546, 0.0, 0.0, 0.0, 0.0, -3802.836394648122, 0.0]
['beep', 0.0, 1082.5843909483422, 0.0, 0.0, 0.0, 0.0, -3803.2834295372286, 0.0]
['beep', 0.0, 1079.1869257911355, 0.0, 0.0, 0.0, 0.0, -3800.6682754359576, 0.0]
['beep', 0.0, 1090.0051701075042, 0.0, 0.0, 0.0, 0.0, -3798.5448597127033, 0.0]
['beep', 0.0, 1096.2860102994455, 0.0, 0.0, 0.0, 0.0, -3800.46710973586, 0.0]
['beep', 0.0, 1089.6698939406747, 0.0, 0.0, 0.0, 0.0, -3803.5069469817818, 0.0]
['beep', 0.0, 1078.5387252019316, 0.0, 0.0, 0.0, 0.0, -3801.517641725259, 0.0]
['beep', 0.0, 1077.3093792568898, 0.0, 0.0, 0.0, 0.0, -3797.628438190036, 0.0]
['beep', 0.0, 1089.044045095926, 0.0, 0.0, 0.0, 0.0, -3795.460318977871, 0.0]
['beep', 0.0, 1096.0401411104372, 0.0, 0.0, 0.0, 0.0, -3798.3883975015165, 0.0]
['beep', 0.0, 1092.2179928085795, 0.0, 0.0, 0.0, 0.0, -3801.6294004475358, 0.0]
['beep', 0.0, 1080.148050802714, 0.0, 0.0, 0.0, 0.0, -3800.556516713681, 0.0]
['beep', 0.0, 1078.561076946387, 0.0, 0.0, 0.0, 0.0, -3797.5390312122145, 0.0]
['beep', 0.0, 1087.8370508953394, 0.0, 0.0, 0.0, 0.0, -3797.583734701125, 0.0]
['beep', 0.0, 1095.816623665884, 0.0, 0.0, 0.0, 0.0, -3800.198888802396, 0.0]
['beep', 0.0, 1089.625190451764, 0.0, 0.0, 0.0, 0.0, -3803.3057812816837, 0.0]
['beep', 0.0, 1079.790422891429, 0.0, 0.0, 0.0, 0.0, -3801.718807425357, 0.0]
['beep', 0.0, 1079.5222019579653, 0.0, 0.0, 0.0, 0.0, -3799.237763790818, 0.0]
['beep', 0.0, 1087.7699956619736, 0.0, 0.0, 0.0, 0.0, -3798.142528312508, 0.0]
['beep', 0.0, 1097.8059289224063, 0.0, 0.0, 0.0, 0.0, -3799.617743446558, 0.0]
['beep', 0.0, 1089.8263561518618, 0.0, 0.0, 0.0, 0.0, -3801.94232486991, 0.0]
['beep', 0.0, 1084.9760276050602, 0.0, 0.0, 0.0, 0.0, -3801.2494207917957, 0.0]
['beep', 0.0, 1081.399748492211, 0.0, 0.0, 0.0, 0.0, -3797.1814033009296, 0.0]
['beep', 0.0, 1086.3841875057444, 0.0, 0.0, 0.0, 0.0, -3795.9073538669772, 0.0]
['beep', 0.0, 1096.9565626331048, 0.0, 0.0, 0.0, 0.0, -3798.723673668346, 0.0]
['beep', 0.0, 1097.3141905443897, 0.0, 0.0, 0.0, 0.0, -3800.265944035762, 0.0]
['beep', 0.0, 1085.043082838426, 0.0, 0.0, 0.0, 0.0, -3802.0093801032763, 0.0]
['beep', 0.0, 1082.919667115172, 0.0, 0.0, 0.0, 0.0, -3798.3213422681506, 0.0]
['beep', 0.0, 1093.3579317758004, 0.0, 0.0, 0.0, 0.0, -3795.6391329335133, 0.0]
['beep', 0.0, 1096.8671556552836, 0.0, 0.0, 0.0, 0.0, -3798.27663877924, 0.0]
['beep', 0.0, 1094.0731875983702, 0.0, 0.0, 0.0, 0.0, -3800.489461480315, 0.0]
['beep', 0.0, 1086.3171322723786, 0.0, 0.0, 0.0, 0.0, -3799.595391702103, 0.0]
['beep', 0.0, 1087.2559055395016, 0.0, 0.0, 0.0, 0.0, -3797.069644578653, 0.0]
['beep', 0.0, 1094.2967050429231, 0.0, 0.0, 0.0, 0.0, -3798.589563201614, 0.0]
['beep', 0.0, 1101.6057254798086, 0.0, 0.0, 0.0, 0.0, -3800.8023859026894, 0.0]
['beep', 0.0, 1094.7660916764846, 0.0, 0.0, 0.0, 0.0, -3803.2834295372286, 0.0]
['beep', 0.0, 1085.4677659830768, 0.0, 0.0, 0.0, 0.0, -3802.6799324369354, 0.0]
['beep', 0.0, 1084.8642688827836, 0.0, 0.0, 0.0, 0.0, -3799.975371357843, 0.0]
['beep', 0.0, 1095.6154579657864, 0.0, 0.0, 0.0, 0.0, -3798.4778044793375, 0.0]
['beep', 0.0, 1103.237402825046, 0.0, 0.0, 0.0, 0.0, -3801.0035516027874, 0.0]
['beep', 0.0, 1096.9342108886494, 0.0, 0.0, 0.0, 0.0, -3802.948153370399, 0.0]
['beep', 0.0, 1084.5960479493199, 0.0, 0.0, 0.0, 0.0, -3804.0210371042535, 0.0]
['beep', 0.0, 1080.7738996474625, 0.0, 0.0, 0.0, 0.0, -3802.0093801032763, 0.0]
['beep', 0.0, 1089.8040044074064, 0.0, 0.0, 0.0, 0.0, -3801.0929585806084, 0.0]
['beep', 0.0, 1098.431777767155, 0.0, 0.0, 0.0, 0.0, -3802.7693394147564, 0.0]
['beep', 0.0, 1093.8049666649065, 0.0, 0.0, 0.0, 0.0, -3806.2785632942396, 0.0]
['beep', 0.0, 1082.1820595481468, 0.0, 0.0, 0.0, 0.0, -3806.9044121389884, 0.0]
['beep', 0.0, 1081.6456176812194, 0.0, 0.0, 0.0, 0.0, -3803.395188259505, 0.0]
['beep', 0.0, 1092.754434675507, 0.0, 0.0, 0.0, 0.0, -3801.1153103250635, 0.0]
['beep', 0.0, 1101.493966757532, 0.0, 0.0, 0.0, 0.0, -3804.423368504449, 0.0]
['beep', 0.0, 1096.3754172772667, 0.0, 0.0, 0.0, 0.0, -3808.2455168063066, 0.0]
['beep', 0.0, 1084.014902593482, 0.0, 0.0, 0.0, 0.0, -3809.720731940357, 0.0]
['beep', 0.0, 1087.2782572839567, 0.0, 0.0, 0.0, 0.0, -3805.0939208381083, 0.0]
['beep', 0.0, 1093.6485044537192, 0.0, 0.0, 0.0, 0.0, -3802.0317318477314, 0.0]
['beep', 0.0, 1098.7670539339847, 0.0, 0.0, 0.0, 0.0, -3804.691589437913, 0.0]
['beep', 0.0, 1095.5484027324203, 0.0, 0.0, 0.0, 0.0, -3806.166804571963, 0.0]
['beep', 0.0, 1084.4619374825882, 0.0, 0.0, 0.0, 0.0, -3806.4797289943376, 0.0]
['beep', 0.0, 1086.0265595944595, 0.0, 0.0, 0.0, 0.0, -3805.406845260483, 0.0]
['beep', 0.0, 1095.2578300545015, 0.0, 0.0, 0.0, 0.0, -3803.6187057040584, 0.0]
['beep', 0.0, 1098.878812656261, 0.0, 0.0, 0.0, 0.0, -3805.406845260483, 0.0]
['beep', 0.0, 1092.687379442141, 0.0, 0.0, 0.0, 0.0, -3809.1172348400637, 0.0]
['beep', 0.0, 1081.623265936764, 0.0, 0.0, 0.0, 0.0, -3808.491385995315, 0.0]
['beep', 0.0, 1080.4386234806327, 0.0, 0.0, 0.0, 0.0, -3804.266906293262, 0.0]
['beep', 0.0, 1090.1839840631467, 0.0, 0.0, 0.0, 0.0, -3803.2610777927734, 0.0]
['beep', 0.0, 1096.9342108886494, 0.0, 0.0, 0.0, 0.0, -3805.5856592161254, 0.0]
['beep', 0.0, 1094.5425742319314, 0.0, 0.0, 0.0, 0.0, -3807.306743539184, 0.0]
['beep', 0.0, 1086.4735944835656, 0.0, 0.0, 0.0, 0.0, -3808.2008133173963, 0.0]
['beep', 0.0, 1082.0032455925043, 0.0, 0.0, 0.0, 0.0, -3804.780996415734, 0.0]
['beep', 0.0, 1084.4842892270433, 0.0, 0.0, 0.0, 0.0, -3802.6799324369354, 0.0]
['beep', 0.0, 1093.1567660757025, 0.0, 0.0, 0.0, 0.0, -3804.9598103713765, 0.0]
['beep', 0.0, 1095.1013678433142, 0.0, 0.0, 0.0, 0.0, -3806.524432483248, 0.0]
['beep', 0.0, 1082.2267630370573, 0.0, 0.0, 0.0, 0.0, -3807.5749644726475, 0.0]
['beep', 0.0, 1073.2413617660238, 0.0, 0.0, 0.0, 0.0, -3805.205679560385, 0.0]
['beep', 0.0, 1085.1548415607026, 0.0, 0.0, 0.0, 0.0, -3801.495289980804, 0.0]
['beep', 0.0, 1090.854536396806, 0.0, 0.0, 0.0, 0.0, -3803.8645748930667, 0.0]
['beep', 0.0, 1092.3297515308561, 0.0, 0.0, 0.0, 0.0, -3809.050179606698, 0.0]
['beep', 0.0, 1079.008111835493, 0.0, 0.0, 0.0, 0.0, -3811.0618366076756, 0.0]
['beep', 0.0, 1073.6436931662195, 0.0, 0.0, 0.0, 0.0, -3809.005476117787, 0.0]
['beep', 0.0, 1086.8759258837613, 0.0, 0.0, 0.0, 0.0, -3806.2115080608737, 0.0]
['beep', 0.0, 1094.1178910872807, 0.0, 0.0, 0.0, 0.0, -3808.2008133173963, 0.0]
['beep', 0.0, 1091.3015712859121, 0.0, 0.0, 0.0, 0.0, -3811.2182988188624, 0.0]
['beep', 0.0, 1079.209277535591, 0.0, 0.0, 0.0, 0.0, -3812.0900168526196, 0.0]
['beep', 0.0, 1080.3268647583564, 0.0, 0.0, 0.0, 0.0, -3808.5360894842256, 0.0]
['beep', 0.0, 1087.9711613620714, 0.0, 0.0, 0.0, 0.0, -3806.8597086500777, 0.0]
['beep', 0.0, 1098.9905713785377, 0.0, 0.0, 0.0, 0.0, -3810.2124703183736, 0.0]
['beep', 0.0, 1092.1956410641244, 0.0, 0.0, 0.0, 0.0, -3813.9899151313207, 0.0]
['beep', 0.0, 1075.9906263340267, 0.0, 0.0, 0.0, 0.0, -3815.4204267764603, 0.0]
['beep', 0.0, 1076.4376612231329, 0.0, 0.0, 0.0, 0.0, -3812.358237786083, 0.0]
['beep', 0.0, 1086.7194636725742, 0.0, 0.0, 0.0, 0.0, -3810.637153463025, 0.0]
['beep', 0.0, 1092.3521032753115, 0.0, 0.0, 0.0, 0.0, -3812.7382174418235, 0.0]
['beep', 0.0, 1090.4969084855209, 0.0, 0.0, 0.0, 0.0, -3815.4204267764603, 0.0]
['beep', 0.0, 1081.980893848049, 0.0, 0.0, 0.0, 0.0, -3815.263964565273, 0.0]
['beep', 0.0, 1072.4366989656328, 0.0, 0.0, 0.0, 0.0, -3813.4758250088485, 0.0]
['beep', 0.0, 1085.4230624941663, 0.0, 0.0, 0.0, 0.0, -3811.9335546414322, 0.0]
['beep', 0.0, 1093.4473387536216, 0.0, 0.0, 0.0, 0.0, -3814.951040142899, 0.0]
['beep', 0.0, 1091.3462747748226, 0.0, 0.0, 0.0, 0.0, -3818.482615766837, 0.0]
['beep', 0.0, 1080.8409548808283, 0.0, 0.0, 0.0, 0.0, -3816.7615314437785, 0.0]
['beep', 0.0, 1078.2258007795574, 0.0, 0.0, 0.0, 0.0, -3813.1852523309294, 0.0]
['beep', 0.0, 1084.2607717824903, 0.0, 0.0, 0.0, 0.0, -3811.8441476636112, 0.0]
['beep', 0.0, 1093.9614288760936, 0.0, 0.0, 0.0, 0.0, -3813.3864180310275, 0.0]
['beep', 0.0, 1089.401673007211, 0.0, 0.0, 0.0, 0.0, -3815.845109921111, 0.0]
['beep', 0.0, 1077.2199722790685, 0.0, 0.0, 0.0, 0.0, -3815.5992407321028, 0.0]
['beep', 0.0, 1077.756414145996, 0.0, 0.0, 0.0, 0.0, -3812.045313363709, 0.0]
['beep', 0.0, 1089.1558038182025, 0.0, 0.0, 0.0, 0.0, -3810.1007115960974, 0.0]
['beep', 0.0, 1095.9730858770713, 0.0, 0.0, 0.0, 0.0, -3814.1910808314183, 0.0]
['beep', 0.0, 1089.3793212627556, 0.0, 0.0, 0.0, 0.0, -3816.13568259903, 0.0]
['beep', 0.0, 1081.2879897699345, 0.0, 0.0, 0.0, 0.0, -3815.6886477099238, 0.0]
['beep', 0.0, 1081.2432862810238, 0.0, 0.0, 0.0, 0.0, -3813.8111011756782, 0.0]
['beep', 0.0, 1090.1839840631467, 0.0, 0.0, 0.0, 0.0, -3811.955906385888, 0.0]
['beep', 0.0, 1098.9235161451718, 0.0, 0.0, 0.0, 0.0, -3813.8111011756782, 0.0]
['beep', 0.0, 1093.6038009648087, 0.0, 0.0, 0.0, 0.0, -3816.716827954868, 0.0]
['beep', 0.0, 1085.8253938943617, 0.0, 0.0, 0.0, 0.0, -3817.141511099519, 0.0]
['beep', 0.0, 1083.7690334044735, 0.0, 0.0, 0.0, 0.0, -3814.571060487159, 0.0]
['beep', 0.0, 1093.5814492203533, 0.0, 0.0, 0.0, 0.0, -3811.687685452424, 0.0]
['beep', 0.0, 1099.16938533418, 0.0, 0.0, 0.0, 0.0, -3815.1522058429964, 0.0]
['beep', 0.0, 1093.3132282868896, 0.0, 0.0, 0.0, 0.0, -3819.108464611586, 0.0]
['beep', 0.0, 1082.0255973369597, 0.0, 0.0, 0.0, 0.0, -3818.0579326221864, 0.0]
['beep', 0.0, 1079.142222302225, 0.0, 0.0, 0.0, 0.0, -3813.8111011756782, 0.0]
['beep', 0.0, 1090.7427776745294, 0.0, 0.0, 0.0, 0.0, -3812.0900168526196, 0.0]
['beep', 0.0, 1095.7719201769735, 0.0, 0.0, 0.0, 0.0, -3816.7615314437785, 0.0]
['beep', 0.0, 1089.111100329292, 0.0, 0.0, 0.0, 0.0, -3820.2707553232617, 0.0]
['beep', 0.0, 1080.3492165028115, 0.0, 0.0, 0.0, 0.0, -3819.1531681004967, 0.0]
['beep', 0.0, 1078.270504268468, 0.0, 0.0, 0.0, 0.0, -3815.0404471207203, 0.0]
['beep', 0.0, 1087.7476439175182, 0.0, 0.0, 0.0, 0.0, -3812.1347203415303, 0.0]
['beep', 0.0, 1096.5765829773645, 0.0, 0.0, 0.0, 0.0, -3813.297011053206, 0.0]
['beep', 0.0, 1095.458995754599, 0.0, 0.0, 0.0, 0.0, -3816.8509384216, 0.0]
['beep', 0.0, 1084.9983793495155, 0.0, 0.0, 0.0, 0.0, -3816.4039035324936, 0.0]
['beep', 0.0, 1079.656312424697, 0.0, 0.0, 0.0, 0.0, -3812.604106975092, 0.0]
['beep', 0.0, 1087.0323880949484, 0.0, 0.0, 0.0, 0.0, -3811.531223241237, 0.0]
['beep', 0.0, 1095.4142922656886, 0.0, 0.0, 0.0, 0.0, -3814.6828192094354, 0.0]
['beep', 0.0, 1095.2801817989566, 0.0, 0.0, 0.0, 0.0, -3817.588545988625, 0.0]
['beep', 0.0, 1084.4395857381328, 0.0, 0.0, 0.0, 0.0, -3817.879118666544, 0.0]
['beep', 0.0, 1077.979931590549, 0.0, 0.0, 0.0, 0.0, -3815.6662959654686, 0.0]
['beep', 0.0, 1085.981856105549, 0.0, 0.0, 0.0, 0.0, -3813.3193627976616, 0.0]
['beep', 0.0, 1099.1023301008142, 0.0, 0.0, 0.0, 0.0, -3816.4486070214043, 0.0]
['beep', 0.0, 1097.5153562444873, 0.0, 0.0, 0.0, 0.0, -3818.2143948333737, 0.0]
['beep', 0.0, 1084.1266613157584, 0.0, 0.0, 0.0, 0.0, -3818.0579326221864, 0.0]
['beep', 0.0, 1079.2316292800463, 0.0, 0.0, 0.0, 0.0, -3815.532185498737, 0.0]
['beep', 0.0, 1090.273391040968, 0.0, 0.0, 0.0, 0.0, -3813.006438375287, 0.0]
['beep', 0.0, 1096.8895073997387, 0.0, 0.0, 0.0, 0.0, -3816.3815517880385, 0.0]
['beep', 0.0, 1092.6203242087752, 0.0, 0.0, 0.0, 0.0, -3820.6283832345466, 0.0]
['beep', 0.0, 1085.0877863273367, 0.0, 0.0, 0.0, 0.0, -3821.589508246125, 0.0]
['beep', 0.0, 1081.0644723253813, 0.0, 0.0, 0.0, 0.0, -3818.393208789016, 0.0]
['beep', 0.0, 1089.9381148741384, 0.0, 0.0, 0.0, 0.0, -3816.3144965546726, 0.0]
['beep', 0.0, 1102.6786092136633, 0.0, 0.0, 0.0, 0.0, -3818.102636111097, 0.0]
['beep', 0.0, 1093.983780620549, 0.0, 0.0, 0.0, 0.0, -3823.064723380175, 0.0]
['beep', 0.0, 1082.115004314781, 0.0, 0.0, 0.0, 0.0, -3822.6400402355243, 0.0]
['beep', 0.0, 1076.9741030900602, 0.0, 0.0, 0.0, 0.0, -3820.2707553232617, 0.0]
['beep', 0.0, 1092.7320829310518, 0.0, 0.0, 0.0, 0.0, -3818.482615766837, 0.0]
['beep', 0.0, 1101.0245801239705, 0.0, 0.0, 0.0, 0.0, -3818.393208789016, 0.0]
['beep', 0.0, 1097.560059733398, 0.0, 0.0, 0.0, 0.0, -3821.142473357019, 0.0]
['beep', 0.0, 1085.0207310939707, 0.0, 0.0, 0.0, 0.0, -3822.081246624142, 0.0]
['beep', 0.0, 1082.1597078036914, 0.0, 0.0, 0.0, 0.0, -3818.6167262335694, 0.0]
['beep', 0.0, 1091.88271664175, 0.0, 0.0, 0.0, 0.0, -3815.0180953762647, 0.0]
['beep', 0.0, 1103.5503272474202, 0.0, 0.0, 0.0, 0.0, -3816.7391796993234, 0.0]
['beep', 0.0, 1099.9963998790265, 0.0, 0.0, 0.0, 0.0, -3820.740141956823, 0.0]
['beep', 0.0, 1087.010036350493, 0.0, 0.0, 0.0, 0.0, -3820.717790212368, 0.0]
['beep', 0.0, 1084.1043095713032, 0.0, 0.0, 0.0, 0.0, -3817.7003047109015, 0.0]
['beep', 0.0, 1091.4580334970992, 0.0, 0.0, 0.0, 0.0, -3816.828586677145, 0.0]
['beep', 0.0, 1101.5833737353532, 0.0, 0.0, 0.0, 0.0, -3817.432083777438, 0.0]
['beep', 0.0, 1098.0517981114147, 0.0, 0.0, 0.0, 0.0, -3819.823720434156, 0.0]
['beep', 0.0, 1088.3287892733563, 0.0, 0.0, 0.0, 0.0, -3822.684743724435, 0.0]
['beep', 0.0, 1083.7466816600183, 0.0, 0.0, 0.0, 0.0, -3818.840243678122, 0.0]
['beep', 0.0, 1092.6426759532305, 0.0, 0.0, 0.0, 0.0, -3816.3815517880385, 0.0]
['beep', 0.0, 1104.3102865589008, 0.0, 0.0, 0.0, 0.0, -3819.466092522871, 0.0]
['beep', 0.0, 1099.370551034278, 0.0, 0.0, 0.0, 0.0, -3821.8353774351335, 0.0]
['beep', 0.0, 1086.0936148278254, 0.0, 0.0, 0.0, 0.0, -3821.790673946223, 0.0]
['beep', 0.0, 1081.4444519811216, 0.0, 0.0, 0.0, 0.0, -3820.717790212368, 0.0]
['beep', 0.0, 1093.6708561981745, 0.0, 0.0, 0.0, 0.0, -3817.856766922089, 0.0]
['beep', 0.0, 1103.527975502965, 0.0, 0.0, 0.0, 0.0, -3820.337810556628, 0.0]
['beep', 0.0, 1098.878812656261, 0.0, 0.0, 0.0, 0.0, -3822.4165227909716, 0.0]
['beep', 0.0, 1087.5017747285099, 0.0, 0.0, 0.0, 0.0, -3823.8470344361112, 0.0]
['beep', 0.0, 1083.947847360116, 0.0, 0.0, 0.0, 0.0, -3821.1201216125637, 0.0]
['beep', 0.0, 1092.240344553035, 0.0, 0.0, 0.0, 0.0, -3817.856766922089, 0.0]
['beep', 0.0, 1101.5610219908979, 0.0, 0.0, 0.0, 0.0, -3817.9685256443654, 0.0]
['beep', 0.0, 1098.878812656261, 0.0, 0.0, 0.0, 0.0, -3823.8023309472005, 0.0]
['beep', 0.0, 1089.1558038182025, 0.0, 0.0, 0.0, 0.0, -3825.0987321256084, 0.0]
['beep', 0.0, 1082.6737979261634, 0.0, 0.0, 0.0, 0.0, -3821.2542320792954, 0.0]
['beep', 0.0, 1090.9215916301719, 0.0, 0.0, 0.0, 0.0, -3819.823720434156, 0.0]
['beep', 0.0, 1102.5444987469314, 0.0, 0.0, 0.0, 0.0, -3822.1930053464184, 0.0]
['beep', 0.0, 1100.622248723775, 0.0, 0.0, 0.0, 0.0, -3824.294069325217, 0.0]
['beep', 0.0, 1089.2228590515685, 0.0, 0.0, 0.0, 0.0, -3824.271717580762, 0.0]
['beep', 0.0, 1086.1606700611915, 0.0, 0.0, 0.0, 0.0, -3822.5729850021585, 0.0]
['beep', 0.0, 1094.2520015540126, 0.0, 0.0, 0.0, 0.0, -3819.622554734058, 0.0]
['beep', 0.0, 1102.79036793594, 0.0, 0.0, 0.0, 0.0, -3822.4165227909716, 0.0]
['beep', 0.0, 1100.9575248906046, 0.0, 0.0, 0.0, 0.0, -3826.685705981935, 0.0]
['beep', 0.0, 1089.558135218398, 0.0, 0.0, 0.0, 0.0, -3825.1434356145187, 0.0]
['beep', 0.0, 1084.238420038035, 0.0, 0.0, 0.0, 0.0, -3821.053066379198, 0.0]
['beep', 0.0, 1096.8671556552836, 0.0, 0.0, 0.0, 0.0, -3818.370857044561, 0.0]
['beep', 0.0, 1104.243231325535, 0.0, 0.0, 0.0, 0.0, -3820.8966041680105, 0.0]
['beep', 0.0, 1102.07511211337, 0.0, 0.0, 0.0, 0.0, -3824.4952350253147, 0.0]
['beep', 0.0, 1089.4687282405769, 0.0, 0.0, 0.0, 0.0, -3823.981144902843, 0.0]
['beep', 0.0, 1088.0829200843477, 0.0, 0.0, 0.0, 0.0, -3819.2872785672284, 0.0]
['beep', 0.0, 1095.9954376215264, 0.0, 0.0, 0.0, 0.0, -3816.0909791101194, 0.0]
['beep', 0.0, 1107.17130984918, 0.0, 0.0, 0.0, 0.0, -3817.9908773888205, 0.0]
['beep', 0.0, 1102.1868708356465, 0.0, 0.0, 0.0, 0.0, -3821.388342546027, 0.0]
['beep', 0.0, 1092.97795212006, 0.0, 0.0, 0.0, 0.0, -3822.304764068695, 0.0]
['beep', 0.0, 1088.7758241624624, 0.0, 0.0, 0.0, 0.0, -3819.3766855450494, 0.0]
['beep', 0.0, 1099.0799783563589, 0.0, 0.0, 0.0, 0.0, -3816.873290166055, 0.0]
['beep', 0.0, 1104.1538243477137, 0.0, 0.0, 0.0, 0.0, -3818.5943744891138, 0.0]
['beep', 0.0, 1101.8962981577276, 0.0, 0.0, 0.0, 0.0, -3821.164825101474, 0.0]
['beep', 0.0, 1087.367664261778, 0.0, 0.0, 0.0, 0.0, -3822.304764068695, 0.0]
['beep', 0.0, 1083.7019781711076, 0.0, 0.0, 0.0, 0.0, -3820.069589623164, 0.0]
['beep', 0.0, 1097.2247835665685, 0.0, 0.0, 0.0, 0.0, -3818.3261535556503, 0.0]
['beep', 0.0, 1106.4560540266102, 0.0, 0.0, 0.0, 0.0, -3819.846072178611, 0.0]
['beep', 0.0, 1103.0362371249482, 0.0, 0.0, 0.0, 0.0, -3823.1764821024517, 0.0]
['beep', 0.0, 1090.0498735964147, 0.0, 0.0, 0.0, 0.0, -3824.13760711403, 0.0]
['beep', 0.0, 1084.5066409714987, 0.0, 0.0, 0.0, 0.0, -3821.2765838237506, 0.0]
['beep', 0.0, 1095.079016098859, 0.0, 0.0, 0.0, 0.0, -3818.5496710002035, 0.0]
['beep', 0.0, 1105.070245870381, 0.0, 0.0, 0.0, 0.0, -3820.0248861342534, 0.0]
['beep', 0.0, 1101.5386702464427, 0.0, 0.0, 0.0, 0.0, -3821.8353774351335, 0.0]
['beep', 0.0, 1091.3462747748226, 0.0, 0.0, 0.0, 0.0, -3822.5729850021585, 0.0]
['beep', 0.0, 1086.5406497169315, 0.0, 0.0, 0.0, 0.0, -3820.6060314900915, 0.0]
['beep', 0.0, 1094.5202224874763, 0.0, 0.0, 0.0, 0.0, -3817.0521041216975, 0.0]
['beep', 0.0, 1103.751492947518, 0.0, 0.0, 0.0, 0.0, -3818.817891933667, 0.0]
['beep', 0.0, 1100.5551934904092, 0.0, 0.0, 0.0, 0.0, -3823.332944313639, 0.0]
['beep', 0.0, 1090.9662951190824, 0.0, 0.0, 0.0, 0.0, -3823.5341100137366, 0.0]
['beep', 0.0, 1083.232591537546, 0.0, 0.0, 0.0, 0.0, -3819.1531681004967, 0.0]
['beep', 0.0, 1092.7320829310518, 0.0, 0.0, 0.0, 0.0, -3817.0521041216975, 0.0]
['beep', 0.0, 1102.9244784026716, 0.0, 0.0, 0.0, 0.0, -3818.773188444756, 0.0]
['beep', 0.0, 1102.5668504913867, 0.0, 0.0, 0.0, 0.0, -3820.9413076569213, 0.0]
['beep', 0.0, 1089.2228590515685, 0.0, 0.0, 0.0, 0.0, -3824.3834763030386, 0.0]
['beep', 0.0, 1082.852611881806, 0.0, 0.0, 0.0, 0.0, -3824.0258483917537, 0.0]
['beep', 0.0, 1092.8438416533281, 0.0, 0.0, 0.0, 0.0, -3820.2707553232617, 0.0]
['beep', 0.0, 1100.5551934904092, 0.0, 0.0, 0.0, 0.0, -3821.1871768459296, 0.0]
['beep', 0.0, 1099.370551034278, 0.0, 0.0, 0.0, 0.0, -3824.048200136209, 0.0]
['beep', 0.0, 1088.3287892733563, 0.0, 0.0, 0.0, 0.0, -3824.271717580762, 0.0]
['beep', 0.0, 1083.947847360116, 0.0, 0.0, 0.0, 0.0, -3820.0025343897983, 0.0]
['beep', 0.0, 1089.7369491740405, 0.0, 0.0, 0.0, 0.0, -3818.013229133276, 0.0]
['beep', 0.0, 1097.4483010111214, 0.0, 0.0, 0.0, 0.0, -3819.130816356041, 0.0]
['beep', 0.0, 1097.7388736890405, 0.0, 0.0, 0.0, 0.0, -3821.9024326684994, 0.0]
['beep', 0.0, 1087.9041061287053, 0.0, 0.0, 0.0, 0.0, -3824.361124558583, 0.0]
['beep', 0.0, 1082.115004314781, 0.0, 0.0, 0.0, 0.0, -3821.1201216125637, 0.0]
['beep', 0.0, 1089.0216933514707, 0.0, 0.0, 0.0, 0.0, -3818.817891933667, 0.0]
['beep', 0.0, 1102.2539260690126, 0.0, 0.0, 0.0, 0.0, -3818.5496710002035, 0.0]
['beep', 0.0, 1100.175213834669, 0.0, 0.0, 0.0, 0.0, -3821.0307146347423, 0.0]
['beep', 0.0, 1086.7641671614847, 0.0, 0.0, 0.0, 0.0, -3822.5282815132477, 0.0]
['beep', 0.0, 1084.0819578268479, 0.0, 0.0, 0.0, 0.0, -3819.6002029896026, 0.0]
['beep', 0.0, 1090.6310189522528, 0.0, 0.0, 0.0, 0.0, -3816.716827954868, 0.0]
['beep', 0.0, 1103.4832720140544, 0.0, 0.0, 0.0, 0.0, -3817.0521041216975, 0.0]
['beep', 0.0, 1102.4774435135655, 0.0, 0.0, 0.0, 0.0, -3819.823720434156, 0.0]
['beep', 0.0, 1093.7155596870853, 0.0, 0.0, 0.0, 0.0, -3820.5166245122705, 0.0]
['beep', 0.0, 1087.0994433283142, 0.0, 0.0, 0.0, 0.0, -3818.3038018111947, 0.0]
['beep', 0.0, 1089.7145974295852, 0.0, 0.0, 0.0, 0.0, -3816.0239238767535, 0.0]
['beep', 0.0, 1095.7719201769735, 0.0, 0.0, 0.0, 0.0, -3816.7615314437785, 0.0]
['beep', 0.0, 1094.5872777208422, 0.0, 0.0, 0.0, 0.0, -3820.1813483454407, 0.0]
['beep', 0.0, 1084.0819578268479, 0.0, 0.0, 0.0, 0.0, -3820.8519006791, 0.0]
['beep', 0.0, 1079.365739746778, 0.0, 0.0, 0.0, 0.0, -3819.04140937822, 0.0]
['beep', 0.0, 1090.2286875520572, 0.0, 0.0, 0.0, 0.0, -3817.1862145884297, 0.0]
['beep', 0.0, 1098.655295211708, 0.0, 0.0, 0.0, 0.0, -3818.5496710002035, 0.0]
['beep', 0.0, 1097.3141905443897, 0.0, 0.0, 0.0, 0.0, -3821.164825101474, 0.0]
['beep', 0.0, 1085.4677659830768, 0.0, 0.0, 0.0, 0.0, -3823.1764821024517, 0.0]
['beep', 0.0, 1080.3939199917222, 0.0, 0.0, 0.0, 0.0, -3822.036543135231, 0.0]
['beep', 0.0, 1089.2228590515685, 0.0, 0.0, 0.0, 0.0, -3819.8907756675217, 0.0]
['beep', 0.0, 1099.1246818452696, 0.0, 0.0, 0.0, 0.0, -3820.5389762567256, 0.0]
['beep', 0.0, 1097.6494667112192, 0.0, 0.0, 0.0, 0.0, -3823.8023309472005, 0.0]
['beep', 0.0, 1088.7758241624624, 0.0, 0.0, 0.0, 0.0, -3825.366953059072, 0.0]
['beep', 0.0, 1083.0537775819037, 0.0, 0.0, 0.0, 0.0, -3822.9306129134434, 0.0]
['beep', 0.0, 1088.8652311402836, 0.0, 0.0, 0.0, 0.0, -3819.711961711879, 0.0]
['beep', 0.0, 1098.9235161451718, 0.0, 0.0, 0.0, 0.0, -3821.298935568206, 0.0]
['beep', 0.0, 1099.8399376678394, 0.0, 0.0, 0.0, 0.0, -3824.13760711403, 0.0]
['beep', 0.0, 1090.6757224411635, 0.0, 0.0, 0.0, 0.0, -3824.919918169966, 0.0]
['beep', 0.0, 1085.557172960898, 0.0, 0.0, 0.0, 0.0, -3820.6060314900915, 0.0]
['beep', 0.0, 1092.8438416533281, 0.0, 0.0, 0.0, 0.0, -3816.47095876586, 0.0]
['beep', 0.0, 1100.331676045856, 0.0, 0.0, 0.0, 0.0, -3817.9014704109995, 0.0]
['beep', 0.0, 1097.9847428780488, 0.0, 0.0, 0.0, 0.0, -3821.790673946223, 0.0]
['beep', 0.0, 1088.59701020682, 0.0, 0.0, 0.0, 0.0, -3825.1657873589743, 0.0]
['beep', 0.0, 1082.9643706040824, 0.0, 0.0, 0.0, 0.0, -3822.8635576800775, 0.0]
['beep', 0.0, 1090.720425930074, 0.0, 0.0, 0.0, 0.0, -3819.4437407784158, 0.0]
['beep', 0.0, 1099.2587923120013, 0.0, 0.0, 0.0, 0.0, -3818.7061332113904, 0.0]
['beep', 0.0, 1100.0634551123924, 0.0, 0.0, 0.0, 0.0, -3822.684743724435, 0.0]
['beep', 0.0, 1089.1781555626578, 0.0, 0.0, 0.0, 0.0, -3824.3834763030386, 0.0]
['beep', 0.0, 1084.9313241161494, 0.0, 0.0, 0.0, 0.0, -3820.1813483454407, 0.0]
['beep', 0.0, 1095.2354783100461, 0.0, 0.0, 0.0, 0.0, -3817.722656455357, 0.0]
['beep', 0.0, 1103.527975502965, 0.0, 0.0, 0.0, 0.0, -3820.2484035788066, 0.0]
['beep', 0.0, 1099.7952341789287, 0.0, 0.0, 0.0, 0.0, -3823.0870751246307, 0.0]
['beep', 0.0, 1088.0382165954372, 0.0, 0.0, 0.0, 0.0, -3824.2493658363064, 0.0]
['beep', 0.0, 1085.5795247053534, 0.0, 0.0, 0.0, 0.0, -3821.2318803348403, 0.0]
['beep', 0.0, 1096.4201207661774, 0.0, 0.0, 0.0, 0.0, -3818.0579326221864, 0.0]
['beep', 0.0, 1108.0653796273923, 0.0, 0.0, 0.0, 0.0, -3819.130816356041, 0.0]
['beep', 0.0, 1106.2995918154231, 0.0, 0.0, 0.0, 0.0, -3822.1930053464184, 0.0]
['beep', 0.0, 1092.1062340863032, 0.0, 0.0, 0.0, 0.0, -3823.623516991558, 0.0]
['beep', 0.0, 1087.0547398394037, 0.0, 0.0, 0.0, 0.0, -3822.014191390776, 0.0]
['beep', 0.0, 1092.7320829310518, 0.0, 0.0, 0.0, 0.0, -3818.0579326221864, 0.0]
['beep', 0.0, 1102.6115539802975, 0.0, 0.0, 0.0, 0.0, -3818.773188444756, 0.0]
['beep', 0.0, 1102.5221470024762, 0.0, 0.0, 0.0, 0.0, -3821.2095285903847, 0.0]
['beep', 0.0, 1092.821489908873, 0.0, 0.0, 0.0, 0.0, -3821.9694879018653, 0.0]
['beep', 0.0, 1086.205373550102, 0.0, 0.0, 0.0, 0.0, -3818.9520024003987, 0.0]
['beep', 0.0, 1095.6154579657864, 0.0, 0.0, 0.0, 0.0, -3816.560365743681, 0.0]
['beep', 0.0, 1100.845766168328, 0.0, 0.0, 0.0, 0.0, -3819.6002029896026, 0.0]
['beep', 0.0, 1097.9623911335934, 0.0, 0.0, 0.0, 0.0, -3822.818854191167, 0.0]
['beep', 0.0, 1089.915763129683, 0.0, 0.0, 0.0, 0.0, -3822.751798957801, 0.0]
['beep', 0.0, 1085.9595043610937, 0.0, 0.0, 0.0, 0.0, -3820.449569278904, 0.0]
['beep', 0.0, 1095.2578300545015, 0.0, 0.0, 0.0, 0.0, -3818.750836700301, 0.0]
['beep', 0.0, 1106.5007575155207, 0.0, 0.0, 0.0, 0.0, -3819.9354791564324, 0.0]
['beep', 0.0, 1103.6397342252415, 0.0, 0.0, 0.0, 0.0, -3822.394171046516, 0.0]
['beep', 0.0, 1088.8428793958283, 0.0, 0.0, 0.0, 0.0, -3824.4058280474937, 0.0]
['beep', 0.0, 1085.0654345828814, 0.0, 0.0, 0.0, 0.0, -3821.94713615741, 0.0]
['beep', 0.0, 1092.97795212006, 0.0, 0.0, 0.0, 0.0, -3818.437912277927, 0.0]
['beep', 0.0, 1100.5104900014985, 0.0, 0.0, 0.0, 0.0, -3818.0579326221864, 0.0]
['beep', 0.0, 1099.303495800912, 0.0, 0.0, 0.0, 0.0, -3822.2824123242394, 0.0]
['beep', 0.0, 1090.8321846523506, 0.0, 0.0, 0.0, 0.0, -3823.1764821024517, 0.0]
['beep', 0.0, 1081.4221002366662, 0.0, 0.0, 0.0, 0.0, -3819.9578309008875, 0.0]
['beep', 0.0, 1089.9604666185935, 0.0, 0.0, 0.0, 0.0, -3816.9626971438765, 0.0]
['beep', 0.0, 1100.2199173235795, 0.0, 0.0, 0.0, 0.0, -3817.0297523772424, 0.0]
['beep', 0.0, 1100.8904696572388, 0.0, 0.0, 0.0, 0.0, -3818.9072989114884, 0.0]
['beep', 0.0, 1090.6757224411635, 0.0, 0.0, 0.0, 0.0, -3819.331982056139, 0.0]
['beep', 0.0, 1086.5630014613869, 0.0, 0.0, 0.0, 0.0, -3816.113330854575, 0.0]
['beep', 0.0, 1093.8049666649065, 0.0, 0.0, 0.0, 0.0, -3812.492348252815, 0.0]
['beep', 0.0, 1101.0245801239705, 0.0, 0.0, 0.0, 0.0, -3813.6993424534016, 0.0]
['beep', 0.0, 1097.8953359002276, 0.0, 0.0, 0.0, 0.0, -3818.683781466935, 0.0]
['beep', 0.0, 1088.820527651373, 0.0, 0.0, 0.0, 0.0, -3819.5107960117816, 0.0]
['beep', 0.0, 1083.2996467709122, 0.0, 0.0, 0.0, 0.0, -3816.6497727215024, 0.0]
['beep', 0.0, 1093.983780620549, 0.0, 0.0, 0.0, 0.0, -3813.855804664589, 0.0]
['beep', 0.0, 1103.9303069031605, 0.0, 0.0, 0.0, 0.0, -3814.459301764882, 0.0]
['beep', 0.0, 1102.0527603689147, 0.0, 0.0, 0.0, 0.0, -3817.208566332885, 0.0]
['beep', 0.0, 1090.4075015076996, 0.0, 0.0, 0.0, 0.0, -3818.3038018111947, 0.0]
['beep', 0.0, 1084.5736962048645, 0.0, 0.0, 0.0, 0.0, -3817.856766922089, 0.0]
['beep', 0.0, 1089.9828183630489, 0.0, 0.0, 0.0, 0.0, -3815.6439442210135, 0.0]
['beep', 0.0, 1102.07511211337, 0.0, 0.0, 0.0, 0.0, -3814.906336653988, 0.0]
['beep', 0.0, 1101.9857051355489, 0.0, 0.0, 0.0, 0.0, -3817.588545988625, 0.0]
['beep', 0.0, 1092.2850480419456, 0.0, 0.0, 0.0, 0.0, -3819.3096303116836, 0.0]
['beep', 0.0, 1085.624228194264, 0.0, 0.0, 0.0, 0.0, -3815.9345168989325, 0.0]
['beep', 0.0, 1092.7991381644176, 0.0, 0.0, 0.0, 0.0, -3813.297011053206, 0.0]
['beep', 0.0, 1101.0692836128812, 0.0, 0.0, 0.0, 0.0, -3814.3251912981505, 0.0]
['beep', 0.0, 1100.4434347681326, 0.0, 0.0, 0.0, 0.0, -3816.582717488136, 0.0]
['beep', 0.0, 1089.2452107960237, 0.0, 0.0, 0.0, 0.0, -3817.4767872663488, 0.0]
['beep', 0.0, 1083.6796264266522, 0.0, 0.0, 0.0, 0.0, -3815.6662959654686, 0.0]
['beep', 0.0, 1093.5367457314428, 0.0, 0.0, 0.0, 0.0, -3812.7605691862786, 0.0]
['beep', 0.0, 1102.1645190911913, 0.0, 0.0, 0.0, 0.0, -3813.1181970975636, 0.0]
['beep', 0.0, 1105.7631499484958, 0.0, 0.0, 0.0, 0.0, -3815.107502354086, 0.0]
['beep', 0.0, 1094.9672573765824, 0.0, 0.0, 0.0, 0.0, -3815.0627988651754, 0.0]
['beep', 0.0, 1089.0663968403812, 0.0, 0.0, 0.0, 0.0, -3812.626458719547, 0.0]
['beep', 0.0, 1093.0673590978813, 0.0, 0.0, 0.0, 0.0, -3812.581755230636, 0.0]
['beep', 0.0, 1104.7349697035515, 0.0, 0.0, 0.0, 0.0, -3812.7829209307342, 0.0]
['beep', 0.0, 1102.8127196803953, 0.0, 0.0, 0.0, 0.0, -3816.202737832396, 0.0]
['beep', 0.0, 1089.111100329292, 0.0, 0.0, 0.0, 0.0, -3817.879118666544, 0.0]
['beep', 0.0, 1084.014902593482, 0.0, 0.0, 0.0, 0.0, -3815.1522058429964, 0.0]
['beep', 0.0, 1092.6426759532305, 0.0, 0.0, 0.0, 0.0, -3812.4476447639045, 0.0]
['beep', 0.0, 1102.5221470024762, 0.0, 0.0, 0.0, 0.0, -3814.2804878092397, 0.0]
['beep', 0.0, 1103.0362371249482, 0.0, 0.0, 0.0, 0.0, -3817.9014704109995, 0.0]
['beep', 0.0, 1091.6144957082863, 0.0, 0.0, 0.0, 0.0, -3817.8344151776337, 0.0]
['beep', 0.0, 1092.7991381644176, 0.0, 0.0, 0.0, 0.0, -3813.6099354755806, 0.0]
['beep', 0.0, 1102.8797749137611, 0.0, 0.0, 0.0, 0.0, -3813.9675633868655, 0.0]
['beep', 0.0, 1103.0362371249482, 0.0, 0.0, 0.0, 0.0, -3817.365028544072, 0.0]
['beep', 0.0, 1094.1178910872807, 0.0, 0.0, 0.0, 0.0, -3818.773188444756, 0.0]
['beep', 0.0, 1090.4522049966104, 0.0, 0.0, 0.0, 0.0, -3814.9286883984437, 0.0]
['beep', 0.0, 1099.0576266119035, 0.0, 0.0, 0.0, 0.0, -3810.681856951935, 0.0]
['beep', 0.0, 1104.6455627257303, 0.0, 0.0, 0.0, 0.0, -3813.0511418641977, 0.0]
['beep', 0.0, 1103.237402825046, 0.0, 0.0, 0.0, 0.0, -3814.9286883984437, 0.0]
['beep', 0.0, 1093.5367457314428, 0.0, 0.0, 0.0, 0.0, -3817.432083777438, 0.0]
['beep', 0.0, 1087.3900160062333, 0.0, 0.0, 0.0, 0.0, -3815.867461665566, 0.0]
['beep', 0.0, 1096.5765829773645, 0.0, 0.0, 0.0, 0.0, -3813.6769907089465, 0.0]
['beep', 0.0, 1106.8583854268059, 0.0, 0.0, 0.0, 0.0, -3814.235784320329, 0.0]
['beep', 0.0, 1104.690266214641, 0.0, 0.0, 0.0, 0.0, -3816.0686273656643, 0.0]
['beep', 0.0, 1097.3365422888448, 0.0, 0.0, 0.0, 0.0, -3817.163862843974, 0.0]
['beep', 0.0, 1088.239382295535, 0.0, 0.0, 0.0, 0.0, -3813.922859897955, 0.0]
['beep', 0.0, 1093.179117820158, 0.0, 0.0, 0.0, 0.0, -3812.0229616192537, 0.0]
['beep', 0.0, 1107.5512895049203, 0.0, 0.0, 0.0, 0.0, -3812.8499761641, 0.0]
['beep', 0.0, 1109.5629465058978, 0.0, 0.0, 0.0, 0.0, -3814.973391887354, 0.0]
['beep', 0.0, 1096.911859144194, 0.0, 0.0, 0.0, 0.0, -3816.6497727215024, 0.0]
['beep', 0.0, 1083.0984810708144, 0.0, 0.0, 0.0, 0.0, -3813.4087697754826, 0.0]
['beep', 0.0, 1088.3511410178114, 0.0, 0.0, 0.0, 0.0, -3811.1288918410414, 0.0]
['beep', 0.0, 1102.0527603689147, 0.0, 0.0, 0.0, 0.0, -3811.8664994080664, 0.0]
['beep', 0.0, 1105.6737429706745, 0.0, 0.0, 0.0, 0.0, -3813.6993424534016, 0.0]
['beep', 0.0, 1093.0226556089706, 0.0, 0.0, 0.0, 0.0, -3816.493310510315, 0.0]
['beep', 0.0, 1086.0265595944595, 0.0, 0.0, 0.0, 0.0, -3815.241612820818, 0.0]
['beep', 0.0, 1092.9108968866942, 0.0, 0.0, 0.0, 0.0, -3811.888851152522, 0.0]
['beep', 0.0, 1100.845766168328, 0.0, 0.0, 0.0, 0.0, -3810.8383191631224, 0.0]
['beep', 0.0, 1101.136338846247, 0.0, 0.0, 0.0, 0.0, -3814.6828192094354, 0.0]
['beep', 0.0, 1094.1625945761914, 0.0, 0.0, 0.0, 0.0, -3815.5768889876476, 0.0]
['beep', 0.0, 1090.8992398857165, 0.0, 0.0, 0.0, 0.0, -3812.6711622084576, 0.0]
['beep', 0.0, 1094.363760276289, 0.0, 0.0, 0.0, 0.0, -3811.0841883521307, 0.0]
['beep', 0.0, 1103.460920269599, 0.0, 0.0, 0.0, 0.0, -3811.173595329952, 0.0]
['beep', 0.0, 1104.26558306999, 0.0, 0.0, 0.0, 0.0, -3813.788749431223, 0.0]
['beep', 0.0, 1092.016827108482, 0.0, 0.0, 0.0, 0.0, -3814.593412231614, 0.0]
['beep', 0.0, 1083.8137368933842, 0.0, 0.0, 0.0, 0.0, -3812.559403486181, 0.0]
['beep', 0.0, 1093.1120625867918, 0.0, 0.0, 0.0, 0.0, -3811.531223241237, 0.0]
['beep', 0.0, 1104.2208795810795, 0.0, 0.0, 0.0, 0.0, -3813.22995581984, 0.0]
['beep', 0.0, 1102.1868708356465, 0.0, 0.0, 0.0, 0.0, -3817.7003047109015, 0.0]
['beep', 0.0, 1094.2967050429231, 0.0, 0.0, 0.0, 0.0, -3818.6614297224796, 0.0]
['beep', 0.0, 1086.6971119281188, 0.0, 0.0, 0.0, 0.0, -3815.0404471207203, 0.0]
['beep', 0.0, 1089.9604666185935, 0.0, 0.0, 0.0, 0.0, -3812.4252930194493, 0.0]
['beep', 0.0, 1102.656257469208, 0.0, 0.0, 0.0, 0.0, -3812.246479063807, 0.0]
['beep', 0.0, 1104.042065625437, 0.0, 0.0, 0.0, 0.0, -3814.816929676167, 0.0]
['beep', 0.0, 1092.8885451422389, 0.0, 0.0, 0.0, 0.0, -3816.8956419105107, 0.0]
['beep', 0.0, 1085.4230624941663, 0.0, 0.0, 0.0, 0.0, -3813.4087697754826, 0.0]
['beep', 0.0, 1092.754434675507, 0.0, 0.0, 0.0, 0.0, -3808.692551695413, 0.0]
['beep', 0.0, 1103.3491615473226, 0.0, 0.0, 0.0, 0.0, -3810.2124703183736, 0.0]
['beep', 0.0, 1105.6513912262192, 0.0, 0.0, 0.0, 0.0, -3813.006438375287, 0.0]
['beep', 0.0, 1091.5027369860097, 0.0, 0.0, 0.0, 0.0, -3815.2863163097286, 0.0]
['beep', 0.0, 1085.2442485385238, 0.0, 0.0, 0.0, 0.0, -3813.207604075385, 0.0]
['beep', 0.0, 1093.849670153817, 0.0, 0.0, 0.0, 0.0, -3811.240650563318, 0.0]
['beep', 0.0, 1104.109120858803, 0.0, 0.0, 0.0, 0.0, -3813.140548842019, 0.0]
['beep', 0.0, 1103.9526586476159, 0.0, 0.0, 0.0, 0.0, -3815.487482009826, 0.0]
['beep', 0.0, 1094.5872777208422, 0.0, 0.0, 0.0, 0.0, -3816.9850488883317, 0.0]
['beep', 0.0, 1090.9662951190824, 0.0, 0.0, 0.0, 0.0, -3814.615763976069, 0.0]
['beep', 0.0, 1097.202431822113, 0.0, 0.0, 0.0, 0.0, -3811.330057541139, 0.0]
['beep', 0.0, 1107.7748069494733, 0.0, 0.0, 0.0, 0.0, -3811.397112774505, 0.0]
['beep', 0.0, 1108.2665453274901, 0.0, 0.0, 0.0, 0.0, -3814.1910808314183, 0.0]
['beep', 0.0, 1095.6154579657864, 0.0, 0.0, 0.0, 0.0, -3816.828586677145, 0.0]
['beep', 0.0, 1089.2452107960237, 0.0, 0.0, 0.0, 0.0, -3815.1298540985413, 0.0]
['beep', 0.0, 1096.5542312329092, 0.0, 0.0, 0.0, 0.0, -3813.0287901197426, 0.0]
['beep', 0.0, 1104.243231325535, 0.0, 0.0, 0.0, 0.0, -3813.7440459423124, 0.0]
['beep', 0.0, 1103.818548180884, 0.0, 0.0, 0.0, 0.0, -3818.2814500667396, 0.0]
['beep', 0.0, 1095.6378097102415, 0.0, 0.0, 0.0, 0.0, -3819.488444267326, 0.0]
['beep', 0.0, 1088.9322863736495, 0.0, 0.0, 0.0, 0.0, -3817.3873802885273, 0.0]
['beep', 0.0, 1094.207298065102, 0.0, 0.0, 0.0, 0.0, -3816.202737832396, 0.0]
['beep', 0.0, 1102.79036793594, 0.0, 0.0, 0.0, 0.0, -3815.9568686433877, 0.0]
['beep', 0.0, 1107.7524552050181, 0.0, 0.0, 0.0, 0.0, -3817.365028544072, 0.0]
['beep', 0.0, 1097.560059733398, 0.0, 0.0, 0.0, 0.0, -3819.823720434156, 0.0]
['beep', 0.0, 1090.78748116344, 0.0, 0.0, 0.0, 0.0, -3817.499139010804, 0.0]
['beep', 0.0, 1096.6883416996411, 0.0, 0.0, 0.0, 0.0, -3814.3251912981505, 0.0]
['beep', 0.0, 1107.17130984918, 0.0, 0.0, 0.0, 0.0, -3815.3533715430945, 0.0]
['beep', 0.0, 1104.8914319147386, 0.0, 0.0, 0.0, 0.0, -3818.728484955846, 0.0]
['beep', 0.0, 1095.011960865493, 0.0, 0.0, 0.0, 0.0, -3820.494272767815, 0.0]
['beep', 0.0, 1087.367664261778, 0.0, 0.0, 0.0, 0.0, -3817.1862145884297, 0.0]
['beep', 0.0, 1092.9108968866942, 0.0, 0.0, 0.0, 0.0, -3813.6769907089465, 0.0]
['beep', 0.0, 1103.237402825046, 0.0, 0.0, 0.0, 0.0, -3814.973391887354, 0.0]
['beep', 0.0, 1106.009019137504, 0.0, 0.0, 0.0, 0.0, -3819.0637611226753, 0.0]
['beep', 0.0, 1093.179117820158, 0.0, 0.0, 0.0, 0.0, -3820.047237878709, 0.0]
['beep', 0.0, 1086.3841875057444, 0.0, 0.0, 0.0, 0.0, -3819.2872785672284, 0.0]
['beep', 0.0, 1091.6368474527417, 0.0, 0.0, 0.0, 0.0, -3817.0968076106083, 0.0]
['beep', 0.0, 1100.5775452348644, 0.0, 0.0, 0.0, 0.0, -3817.5438424997146, 0.0]
['beep', 0.0, 1104.9361354036494, 0.0, 0.0, 0.0, 0.0, -3820.650734979002, 0.0]
['beep', 0.0, 1092.3073997864008, 0.0, 0.0, 0.0, 0.0, -3821.433046034938, 0.0]
['beep', 0.0, 1082.3161700148785, 0.0, 0.0, 0.0, 0.0, -3818.437912277927, 0.0]
['beep', 0.0, 1089.8710596407723, 0.0, 0.0, 0.0, 0.0, -3816.1580343434853, 0.0]
['beep', 0.0, 1103.8632516697946, 0.0, 0.0, 0.0, 0.0, -3816.426255276949, 0.0]
['beep', 0.0, 1103.0362371249482, 0.0, 0.0, 0.0, 0.0, -3818.5720227446586, 0.0]
['beep', 0.0, 1091.7933096639288, 0.0, 0.0, 0.0, 0.0, -3819.75666520079, 0.0]
['beep', 0.0, 1088.8652311402836, 0.0, 0.0, 0.0, 0.0, -3816.7615314437785, 0.0]
['beep', 0.0, 1096.0401411104372, 0.0, 0.0, 0.0, 0.0, -3814.0793221091417, 0.0]
['beep', 0.0, 1108.9370976611492, 0.0, 0.0, 0.0, 0.0, -3815.5098337542813, 0.0]
['beep', 0.0, 1102.8127196803953, 0.0, 0.0, 0.0, 0.0, -3820.114293112075, 0.0]
['beep', 0.0, 1096.1295480882584, 0.0, 0.0, 0.0, 0.0, -3819.711961711879, 0.0]
['beep', 0.0, 1087.2559055395016, 0.0, 0.0, 0.0, 0.0, -3816.3592000435833, 0.0]
['beep', 0.0, 1094.9002021432166, 0.0, 0.0, 0.0, 0.0, -3810.5030429962926, 0.0]
['beep', 0.0, 1108.0877313718477, 0.0, 0.0, 0.0, 0.0, -3811.106540096586, 0.0]
['beep', 0.0, 1107.014847637993, 0.0, 0.0, 0.0, 0.0, -3815.3757232875496, 0.0]
['beep', 0.0, 1096.4871759995433, 0.0, 0.0, 0.0, 0.0, -3816.269793065762, 0.0]
['beep', 0.0, 1091.7486061750183, 0.0, 0.0, 0.0, 0.0, -3814.146377342508, 0.0]
['beep', 0.0, 1098.3200190448783, 0.0, 0.0, 0.0, 0.0, -3811.330057541139, 0.0]
['beep', 0.0, 1108.3783040497667, 0.0, 0.0, 0.0, 0.0, -3812.000609874798, 0.0]
['beep', 0.0, 1107.4171790381884, 0.0, 0.0, 0.0, 0.0, -3815.8004064322004, 0.0]
['beep', 0.0, 1094.8554986543058, 0.0, 0.0, 0.0, 0.0, -3816.917993654966, 0.0]
['beep', 0.0, 1089.2899142849344, 0.0, 0.0, 0.0, 0.0, -3814.1910808314183, 0.0]
['beep', 0.0, 1094.430815509655, 0.0, 0.0, 0.0, 0.0, -3809.720731940357, 0.0]
['beep', 0.0, 1103.5056237585097, 0.0, 0.0, 0.0, 0.0, -3809.072531351153, 0.0]
['beep', 0.0, 1103.103292358314, 0.0, 0.0, 0.0, 0.0, -3812.8723279085552, 0.0]
['beep', 0.0, 1095.9283823881606, 0.0, 0.0, 0.0, 0.0, -3814.816929676167, 0.0]
['beep', 0.0, 1090.8098329078953, 0.0, 0.0, 0.0, 0.0, -3813.297011053206, 0.0]
['beep', 0.0, 1093.7602631759958, 0.0, 0.0, 0.0, 0.0, -3810.9947813743097, 0.0]
['beep', 0.0, 1106.3219435598783, 0.0, 0.0, 0.0, 0.0, -3810.32422904065, 0.0]
['beep', 0.0, 1105.4055220372109, 0.0, 0.0, 0.0, 0.0, -3814.6381157205246, 0.0]
['beep', 0.0, 1092.530917230954, 0.0, 0.0, 0.0, 0.0, -3816.202737832396, 0.0]
['beep', 0.0, 1088.9993416070154, 0.0, 0.0, 0.0, 0.0, -3813.4087697754826, 0.0]
['beep', 0.0, 1091.010998607993, 0.0, 0.0, 0.0, 0.0, -3811.553574985692, 0.0]
['beep', 0.0, 1100.5775452348644, 0.0, 0.0, 0.0, 0.0, -3813.7440459423124, 0.0]
['beep', 0.0, 1105.0031906370152, 0.0, 0.0, 0.0, 0.0, -3815.331019798639, 0.0]
['beep', 0.0, 1093.1344143312472, 0.0, 0.0, 0.0, 0.0, -3816.1580343434853, 0.0]
['beep', 0.0, 1086.4288909946551, 0.0, 0.0, 0.0, 0.0, -3813.6099354755806, 0.0]
['beep', 0.0, 1093.5143939869874, 0.0, 0.0, 0.0, 0.0, -3810.8159674186672, 0.0]
['beep', 0.0, 1104.8914319147386, 0.0, 0.0, 0.0, 0.0, -3810.7936156742117, 0.0]
['beep', 0.0, 1104.7349697035515, 0.0, 0.0, 0.0, 0.0, -3813.6993424534016, 0.0]
['beep', 0.0, 1093.045007353426, 0.0, 0.0, 0.0, 0.0, -3815.3533715430945, 0.0]
['beep', 0.0, 1082.137356059236, 0.0, 0.0, 0.0, 0.0, -3812.604106975092, 0.0]
['beep', 0.0, 1087.1888503061355, 0.0, 0.0, 0.0, 0.0, -3808.8937173955105, 0.0]
['beep', 0.0, 1099.1246818452696, 0.0, 0.0, 0.0, 0.0, -3810.2124703183736, 0.0]
['beep', 0.0, 1105.718446459585, 0.0, 0.0, 0.0, 0.0, -3812.8946796530104, 0.0]
['beep', 0.0, 1091.234516052546, 0.0, 0.0, 0.0, 0.0, -3814.2804878092397, 0.0]
['beep', 0.0, 1083.1208328152698, 0.0, 0.0, 0.0, 0.0, -3813.4534732643933, 0.0]
['beep', 0.0, 1086.8088706503954, 0.0, 0.0, 0.0, 0.0, -3810.391284274016, 0.0]
['beep', 0.0, 1100.0634551123924, 0.0, 0.0, 0.0, 0.0, -3808.9607726288764, 0.0]
['beep', 0.0, 1102.4550917691101, 0.0, 0.0, 0.0, 0.0, -3811.665333707969, 0.0]
['beep', 0.0, 1091.6368474527417, 0.0, 0.0, 0.0, 0.0, -3813.0287901197426, 0.0]
['beep', 0.0, 1085.4677659830768, 0.0, 0.0, 0.0, 0.0, -3811.620630219058, 0.0]
['beep', 0.0, 1088.7758241624624, 0.0, 0.0, 0.0, 0.0, -3808.5360894842256, 0.0]
['beep', 0.0, 1098.5211847449762, 0.0, 0.0, 0.0, 0.0, -3808.8266621621447, 0.0]
['beep', 0.0, 1099.0799783563589, 0.0, 0.0, 0.0, 0.0, -3812.8052726751894, 0.0]
['beep', 0.0, 1091.1898125636355, 0.0, 0.0, 0.0, 0.0, -3814.0346186202314, 0.0]
['beep', 0.0, 1083.7913851489288, 0.0, 0.0, 0.0, 0.0, -3810.726560440846, 0.0]
['beep', 0.0, 1088.306437528901, 0.0, 0.0, 0.0, 0.0, -3808.6031447175915, 0.0]
['beep', 0.0, 1100.1305103457582, 0.0, 0.0, 0.0, 0.0, -3808.066702850664, 0.0]
['beep', 0.0, 1100.0187516234819, 0.0, 0.0, 0.0, 0.0, -3812.1347203415303, 0.0]
['beep', 0.0, 1092.0838823418478, 0.0, 0.0, 0.0, 0.0, -3815.8004064322004, 0.0]
['beep', 0.0, 1082.7408531595295, 0.0, 0.0, 0.0, 0.0, -3812.7605691862786, 0.0]
['beep', 0.0, 1089.8263561518618, 0.0, 0.0, 0.0, 0.0, -3809.273697051251, 0.0]
['beep', 0.0, 1101.4716150130766, 0.0, 0.0, 0.0, 0.0, -3811.4418162634156, 0.0]
['beep', 0.0, 1101.5163185019874, 0.0, 0.0, 0.0, 0.0, -3814.4145982759715, 0.0]
['beep', 0.0, 1089.6028387073086, 0.0, 0.0, 0.0, 0.0, -3815.487482009826, 0.0]
['beep', 0.0, 1084.8642688827836, 0.0, 0.0, 0.0, 0.0, -3812.7605691862786, 0.0]
['beep', 0.0, 1093.1344143312472, 0.0, 0.0, 0.0, 0.0, -3811.106540096586, 0.0]
['beep', 0.0, 1102.3209813023784, 0.0, 0.0, 0.0, 0.0, -3809.5195662402593, 0.0]
['beep', 0.0, 1104.26558306999, 0.0, 0.0, 0.0, 0.0, -3811.397112774505, 0.0]
['beep', 0.0, 1093.8943736427277, 0.0, 0.0, 0.0, 0.0, -3811.955906385888, 0.0]
['beep', 0.0, 1084.2160682935796, 0.0, 0.0, 0.0, 0.0, -3811.1959470744073, 0.0]
['beep', 0.0, 1089.111100329292, 0.0, 0.0, 0.0, 0.0, -3808.401979017494, 0.0]
['beep', 0.0, 1102.2315743245572, 0.0, 0.0, 0.0, 0.0, -3803.194022559407, 0.0]
['beep', 0.0, 1103.2150510805907, 0.0, 0.0, 0.0, 0.0, -3804.758644671279, 0.0]
['beep', 0.0, 1090.273391040968, 0.0, 0.0, 0.0, 0.0, -3805.496252238304, 0.0]
['beep', 0.0, 1086.2724287834678, 0.0, 0.0, 0.0, 0.0, -3801.0706068361533, 0.0]
['beep', 0.0, 1094.6766846986634, 0.0, 0.0, 0.0, 0.0, -3797.1143480675637, 0.0]
['beep', 0.0, 1102.6786092136633, 0.0, 0.0, 0.0, 0.0, -3798.5448597127033, 0.0]
['beep', 0.0, 1102.79036793594, 0.0, 0.0, 0.0, 0.0, -3802.0540835921865, 0.0]
['beep', 0.0, 1092.173289319669, 0.0, 0.0, 0.0, 0.0, -3804.199851059896, 0.0]
['beep', 0.0, 1079.7680711469736, 0.0, 0.0, 0.0, 0.0, -3801.3835312585275, 0.0]
['beep', 0.0, 1088.5523067179092, 0.0, 0.0, 0.0, 0.0, -3797.5390312122145, 0.0]
['beep', 0.0, 1100.2199173235795, 0.0, 0.0, 0.0, 0.0, -3798.3213422681506, 0.0]
['beep', 0.0, 1102.8574231693058, 0.0, 0.0, 0.0, 0.0, -3801.18236555843, 0.0]
['beep', 0.0, 1091.1451090747248, 0.0, 0.0, 0.0, 0.0, -3801.6517521919914, 0.0]
['beep', 0.0, 1084.2160682935796, 0.0, 0.0, 0.0, 0.0, -3799.6400951910136, 0.0]
['beep', 0.0, 1088.7087689290963, 0.0, 0.0, 0.0, 0.0, -3797.3825690010276, 0.0]
['beep', 0.0, 1101.7174842020852, 0.0, 0.0, 0.0, 0.0, -3797.3825690010276, 0.0]
['beep', 0.0, 1102.4997952580209, 0.0, 0.0, 0.0, 0.0, -3801.6070487030806, 0.0]
['beep', 0.0, 1092.173289319669, 0.0, 0.0, 0.0, 0.0, -3803.238726048318, 0.0]
['beep', 0.0, 1086.6077049502976, 0.0, 0.0, 0.0, 0.0, -3800.7576824137786, 0.0]
['beep', 0.0, 1092.1285858307583, 0.0, 0.0, 0.0, 0.0, -3798.4331009904267, 0.0]
['beep', 0.0, 1101.1139871017917, 0.0, 0.0, 0.0, 0.0, -3798.9918946018097, 0.0]
['beep', 0.0, 1104.109120858803, 0.0, 0.0, 0.0, 0.0, -3802.0987870810973, 0.0]
['beep', 0.0, 1095.5484027324203, 0.0, 0.0, 0.0, 0.0, -3804.3563132710833, 0.0]
['beep', 0.0, 1086.7641671614847, 0.0, 0.0, 0.0, 0.0, -3802.5681737146588, 0.0]
['beep', 0.0, 1092.016827108482, 0.0, 0.0, 0.0, 0.0, -3799.8412608911112, 0.0]
['beep', 0.0, 1103.4832720140544, 0.0, 0.0, 0.0, 0.0, -3799.327170768639, 0.0]
['beep', 0.0, 1106.0537226264146, 0.0, 0.0, 0.0, 0.0, -3803.3057812816837, 0.0]
['beep', 0.0, 1095.3695887767778, 0.0, 0.0, 0.0, 0.0, -3805.205679560385, 0.0]
['beep', 0.0, 1086.0265595944595, 0.0, 0.0, 0.0, 0.0, -3804.0210371042535, 0.0]
['beep', 0.0, 1089.8040044074064, 0.0, 0.0, 0.0, 0.0, -3802.501118481293, 0.0]
['beep', 0.0, 1101.1586905907025, 0.0, 0.0, 0.0, 0.0, -3803.395188259505, 0.0]
['beep', 0.0, 1105.1820045926577, 0.0, 0.0, 0.0, 0.0, -3807.9996476172983, 0.0]
['beep', 0.0, 1095.4142922656886, 0.0, 0.0, 0.0, 0.0, -3811.307705796684, 0.0]
['beep', 0.0, 1088.7311206735517, 0.0, 0.0, 0.0, 0.0, -3808.8266621621447, 0.0]
['beep', 0.0, 1091.7933096639288, 0.0, 0.0, 0.0, 0.0, -3805.853880149589, 0.0]
['beep', 0.0, 1105.7407982040404, 0.0, 0.0, 0.0, 0.0, -3805.719769682857, 0.0]
['beep', 0.0, 1105.2937633149343, 0.0, 0.0, 0.0, 0.0, -3809.385455773527, 0.0]
['beep', 0.0, 1094.7437399320293, 0.0, 0.0, 0.0, 0.0, -3811.642981963513, 0.0]
['beep', 0.0, 1088.9993416070154, 0.0, 0.0, 0.0, 0.0, -3810.368932529561, 0.0]
['beep', 0.0, 1094.363760276289, 0.0, 0.0, 0.0, 0.0, -3808.8490139066, 0.0]
['beep', 0.0, 1101.1810423351578, 0.0, 0.0, 0.0, 0.0, -3809.8324906626335, 0.0]
['beep', 0.0, 1100.845766168328, 0.0, 0.0, 0.0, 0.0, -3813.498176753304, 0.0]
['beep', 0.0, 1093.6485044537192, 0.0, 0.0, 0.0, 0.0, -3814.302839553695, 0.0]
['beep', 0.0, 1088.3734927622668, 0.0, 0.0, 0.0, 0.0, -3811.3747610300497, 0.0]
['beep', 0.0, 1094.363760276289, 0.0, 0.0, 0.0, 0.0, -3809.005476117787, 0.0]
['beep', 0.0, 1103.9750103920712, 0.0, 0.0, 0.0, 0.0, -3811.4641680078707, 0.0]
['beep', 0.0, 1104.690266214641, 0.0, 0.0, 0.0, 0.0, -3814.1240255980524, 0.0]
['beep', 0.0, 1095.5484027324203, 0.0, 0.0, 0.0, 0.0, -3813.9005081534992, 0.0]
['beep', 0.0, 1091.8156614083841, 0.0, 0.0, 0.0, 0.0, -3812.9617348863767, 0.0]
['beep', 0.0, 1092.2179928085795, 0.0, 0.0, 0.0, 0.0, -3811.8441476636112, 0.0]
['beep', 0.0, 1101.5610219908979, 0.0, 0.0, 0.0, 0.0, -3811.4418162634156, 0.0]
['beep', 0.0, 1105.561984248398, 0.0, 0.0, 0.0, 0.0, -3812.626458719547, 0.0]
['beep', 0.0, 1099.3258475453672, 0.0, 0.0, 0.0, 0.0, -3814.0793221091417, 0.0]
['beep', 0.0, 1087.8594026397948, 0.0, 0.0, 0.0, 0.0, -3813.3864180310275, 0.0]
['beep', 0.0, 1090.6310189522528, 0.0, 0.0, 0.0, 0.0, -3811.2182988188624, 0.0]
['beep', 0.0, 1104.5785074923645, 0.0, 0.0, 0.0, 0.0, -3811.330057541139, 0.0]
['beep', 0.0, 1108.333600560856, 0.0, 0.0, 0.0, 0.0, -3813.721694197857, 0.0]
['beep', 0.0, 1098.5211847449762, 0.0, 0.0, 0.0, 0.0, -3815.5768889876476, 0.0]
['beep', 0.0, 1093.0673590978813, 0.0, 0.0, 0.0, 0.0, -3813.274659308751, 0.0]
['beep', 0.0, 1097.8729841557722, 0.0, 0.0, 0.0, 0.0, -3809.340752284617, 0.0]
['beep', 0.0, 1105.3831702927555, 0.0, 0.0, 0.0, 0.0, -3810.1677668294633, 0.0]
['beep', 0.0, 1108.490062772043, 0.0, 0.0, 0.0, 0.0, -3813.5428802422143, 0.0]
['beep', 0.0, 1096.3307137883562, 0.0, 0.0, 0.0, 0.0, -3816.13568259903, 0.0]
['beep', 0.0, 1092.2850480419456, 0.0, 0.0, 0.0, 0.0, -3814.548708742703, 0.0]
['beep', 0.0, 1098.0965016003254, 0.0, 0.0, 0.0, 0.0, -3812.4029412749937, 0.0]
['beep', 0.0, 1109.0041528945153, 0.0, 0.0, 0.0, 0.0, -3812.917031397466, 0.0]
['beep', 0.0, 1111.7310657180626, 0.0, 0.0, 0.0, 0.0, -3816.47095876586, 0.0]
['beep', 0.0, 1104.757321448007, 0.0, 0.0, 0.0, 0.0, -3816.940345399421, 0.0]
['beep', 0.0, 1094.78844342094, 0.0, 0.0, 0.0, 0.0, -3813.7440459423124, 0.0]
['beep', 0.0, 1097.7612254334958, 0.0, 0.0, 0.0, 0.0, -3810.726560440846, 0.0]
['beep', 0.0, 1110.7922924509398, 0.0, 0.0, 0.0, 0.0, -3810.1230633405526, 0.0]
['beep', 0.0, 1111.0381616399482, 0.0, 0.0, 0.0, 0.0, -3813.788749431223, 0.0]
['beep', 0.0, 1102.3433330468338, 0.0, 0.0, 0.0, 0.0, -3815.1298540985413, 0.0]
['beep', 0.0, 1093.3579317758004, 0.0, 0.0, 0.0, 0.0, -3813.0287901197426, 0.0]
['beep', 0.0, 1098.8341091673506, 0.0, 0.0, 0.0, 0.0, -3811.7994441747005, 0.0]
['beep', 0.0, 1113.072170385381, 0.0, 0.0, 0.0, 0.0, -3811.687685452424, 0.0]
['beep', 0.0, 1116.0673041423922, 0.0, 0.0, 0.0, 0.0, -3815.6439442210135, 0.0]
['beep', 0.0, 1105.271411570479, 0.0, 0.0, 0.0, 0.0, -3817.2532698217956, 0.0]
['beep', 0.0, 1098.1412050892359, 0.0, 0.0, 0.0, 0.0, -3815.7333511988345, 0.0]
['beep', 0.0, 1103.1926993361353, 0.0, 0.0, 0.0, 0.0, -3815.1298540985413, 0.0]
['beep', 0.0, 1110.8369959398503, 0.0, 0.0, 0.0, 0.0, -3815.0851506096305, 0.0]
['beep', 0.0, 1116.134359375758, 0.0, 0.0, 0.0, 0.0, -3816.7391796993234, 0.0]
['beep', 0.0, 1107.2607168270013, 0.0, 0.0, 0.0, 0.0, -3818.750836700301, 0.0]
['beep', 0.0, 1094.9225538876717, 0.0, 0.0, 0.0, 0.0, -3818.817891933667, 0.0]
['beep', 0.0, 1101.0022283795154, 0.0, 0.0, 0.0, 0.0, -3815.867461665566, 0.0]
['beep', 0.0, 1112.401618051722, 0.0, 0.0, 0.0, 0.0, -3815.331019798639, 0.0]
['beep', 0.0, 1113.8097779524062, 0.0, 0.0, 0.0, 0.0, -3819.9354791564324, 0.0]
['beep', 0.0, 1103.3715132917778, 0.0, 0.0, 0.0, 0.0, -3822.1930053464184, 0.0]
['beep', 0.0, 1094.7660916764846, 0.0, 0.0, 0.0, 0.0, -3822.684743724435, 0.0]
['beep', 0.0, 1102.07511211337, 0.0, 0.0, 0.0, 0.0, -3819.5107960117816, 0.0]
['beep', 0.0, 1111.8428244403392, 0.0, 0.0, 0.0, 0.0, -3819.1531681004967, 0.0]
['beep', 0.0, 1113.4074465522108, 0.0, 0.0, 0.0, 0.0, -3822.081246624142, 0.0]
['beep', 0.0, 1102.5444987469314, 0.0, 0.0, 0.0, 0.0, -3822.975316402354, 0.0]
['beep', 0.0, 1092.396806764222, 0.0, 0.0, 0.0, 0.0, -3819.6672582229685, 0.0]
['beep', 0.0, 1096.9342108886494, 0.0, 0.0, 0.0, 0.0, -3815.6439442210135, 0.0]
['beep', 0.0, 1108.3112488164006, 0.0, 0.0, 0.0, 0.0, -3814.7945779317115, 0.0]
['beep', 0.0, 1111.5969552513309, 0.0, 0.0, 0.0, 0.0, -3817.365028544072, 0.0]
['beep', 0.0, 1101.6727807131745, 0.0, 0.0, 0.0, 0.0, -3819.2649268227733, 0.0]
['beep', 0.0, 1093.8273184093616, 0.0, 0.0, 0.0, 0.0, -3817.722656455357, 0.0]
['beep', 0.0, 1100.108158601303, 0.0, 0.0, 0.0, 0.0, -3814.0346186202314, 0.0]
['beep', 0.0, 1106.4337022821549, 0.0, 0.0, 0.0, 0.0, -3814.906336653988, 0.0]
['beep', 0.0, 1110.5687750063867, 0.0, 0.0, 0.0, 0.0, -3819.0190576337645, 0.0]
['beep', 0.0, 1106.2772400709678, 0.0, 0.0, 0.0, 0.0, -3821.2765838237506, 0.0]
['beep', 0.0, 1100.3093243014007, 0.0, 0.0, 0.0, 0.0, -3816.940345399421, 0.0]
['beep', 0.0, 1099.370551034278, 0.0, 0.0, 0.0, 0.0, -3813.364066286572, 0.0]
['beep', 0.0, 1113.206280852113, 0.0, 0.0, 0.0, 0.0, -3813.006438375287, 0.0]
['beep', 0.0, 1114.4132750526994, 0.0, 0.0, 0.0, 0.0, -3816.5380139992258, 0.0]
['beep', 0.0, 1101.5163185019874, 0.0, 0.0, 0.0, 0.0, -3819.622554734058, 0.0]
['beep', 0.0, 1094.4084637651997, 0.0, 0.0, 0.0, 0.0, -3816.940345399421, 0.0]
['beep', 0.0, 1099.1023301008142, 0.0, 0.0, 0.0, 0.0, -3812.1123685970747, 0.0]
['beep', 0.0, 1112.26750758499, 0.0, 0.0, 0.0, 0.0, -3807.5302609837368, 0.0]
['beep', 0.0, 1114.5026820305206, 0.0, 0.0, 0.0, 0.0, -3805.049217349198, 0.0]
['beep', 0.0, 1100.3540277903114, 0.0, 0.0, 0.0, 0.0, -3799.953019613388, 0.0]
['beep', 0.0, 1095.1237195877695, 0.0, 0.0, 0.0, 0.0, -3790.6770456644354, 0.0]
['beep', 0.0, 1095.5260509879652, 0.0, 0.0, 0.0, 0.0, -3782.1163275380527, 0.0]
['beep', 0.0, 1104.690266214641, 0.0, 0.0, 0.0, 0.0, -3770.940455310399, 0.0]
['beep', 0.0, 1107.6406964827415, 0.0, 0.0, 0.0, 0.0, -3765.2631122187513, 0.0]
['beep', 0.0, 1095.9954376215264, 0.0, 0.0, 0.0, 0.0, -3756.7023940923686, 0.0]
['beep', 0.0, 1092.3521032753115, 0.0, 0.0, 0.0, 0.0, -3742.665498574436, 0.0]
['beep', 0.0, 1099.1246818452696, 0.0, 0.0, 0.0, 0.0, -3731.199053668863, 0.0]
['beep', 0.0, 1112.7368942185515, 0.0, 0.0, 0.0, 0.0, -3723.9347367208884, 0.0]
['beep', 0.0, 1114.0779988858699, 0.0, 0.0, 0.0, 0.0, -3722.370114609017, 0.0]
['beep', 0.0, 1101.6057254798086, 0.0, 0.0, 0.0, 0.0, -3719.374980852006, 0.0]
['beep', 0.0, 1093.1567660757025, 0.0, 0.0, 0.0, 0.0, -3715.508129061238, 0.0]
['beep', 0.0, 1101.2257458240683, 0.0, 0.0, 0.0, 0.0, -3712.2894778596733, 0.0]
['beep', 0.0, 1109.8758709282722, 0.0, 0.0, 0.0, 0.0, -3716.335143606084, 0.0]
['beep', 0.0, 1111.462844784599, 0.0, 0.0, 0.0, 0.0, -3721.6772105309024, 0.0]
['beep', 0.0, 1099.3929027787333, 0.0, 0.0, 0.0, 0.0, -3725.566414066126, 0.0]
['beep', 0.0, 1089.401673007211, 0.0, 0.0, 0.0, 0.0, -3726.7510565222574, 0.0]
['beep', 0.0, 1097.8729841557722, 0.0, 0.0, 0.0, 0.0, -3724.4488268433606, 0.0]
['beep', 0.0, 1109.6970569726298, 0.0, 0.0, 0.0, 0.0, -3724.5382338211816, 0.0]
['beep', 0.0, 1112.6027837518197, 0.0, 0.0, 0.0, 0.0, -3727.622774556014, 0.0]
['beep', 0.0, 1099.527013245465, 0.0, 0.0, 0.0, 0.0, -3732.562510080637, 0.0]
['beep', 0.0, 1090.07222534087, 0.0, 0.0, 0.0, 0.0, -3733.16600718093, 0.0]
['beep', 0.0, 1093.2908765424343, 0.0, 0.0, 0.0, 0.0, -3728.4721408453156, 0.0]
['beep', 0.0, 1103.6397342252415, 0.0, 0.0, 0.0, 0.0, -3729.589728068081, 0.0]
['beep', 0.0, 1104.757321448007, 0.0, 0.0, 0.0, 0.0, -3734.529463592704, 0.0]
['beep', 0.0, 1093.5367457314428, 0.0, 0.0, 0.0, 0.0, -3737.0328589716983, 0.0]
['beep', 0.0, 1088.6864171846412, 0.0, 0.0, 0.0, 0.0, -3735.5576438376484, 0.0]
['beep', 0.0, 1093.7602631759958, 0.0, 0.0, 0.0, 0.0, -3732.0260682137096, 0.0]
['beep', 0.0, 1107.1042546158142, 0.0, 0.0, 0.0, 0.0, -3732.048419958165, 0.0]
['beep', 0.0, 1109.0041528945153, 0.0, 0.0, 0.0, 0.0, -3737.457542116349, 0.0]
['beep', 0.0, 1094.654332954208, 0.0, 0.0, 0.0, 0.0, -3741.8161322851342, 0.0]
['beep', 0.0, 1087.077091583859, 0.0, 0.0, 0.0, 0.0, -3738.9998124837653, 0.0]
['beep', 0.0, 1091.9497718751159, 0.0, 0.0, 0.0, 0.0, -3734.730629292802, 0.0]
['beep', 0.0, 1101.9633533910935, 0.0, 0.0, 0.0, 0.0, -3735.334126393095, 0.0]
['beep', 0.0, 1105.1373011037472, 0.0, 0.0, 0.0, 0.0, -3737.8151700276344, 0.0]
['beep', 0.0, 1096.397769021722, 0.0, 0.0, 0.0, 0.0, -3740.6761933179137, 0.0]
['beep', 0.0, 1085.914800872183, 0.0, 0.0, 0.0, 0.0, -3738.9327572503994, 0.0]
['beep', 0.0, 1090.9215916301719, 0.0, 0.0, 0.0, 0.0, -3736.5411205936816, 0.0]
['beep', 0.0, 1100.97987663506, 0.0, 0.0, 0.0, 0.0, -3737.010507227243, 0.0]
['beep', 0.0, 1104.2879348144454, 0.0, 0.0, 0.0, 0.0, -3739.8715305175224, 0.0]
['beep', 0.0, 1094.944905632127, 0.0, 0.0, 0.0, 0.0, -3742.59844334107, 0.0]
['beep', 0.0, 1088.2170305510797, 0.0, 0.0, 0.0, 0.0, -3742.1290567075084, 0.0]
['beep', 0.0, 1092.687379442141, 0.0, 0.0, 0.0, 0.0, -3739.1562746949526, 0.0]
['beep', 0.0, 1102.7009609581187, 0.0, 0.0, 0.0, 0.0, -3736.8316932716007, 0.0]
['beep', 0.0, 1103.6397342252415, 0.0, 0.0, 0.0, 0.0, -3739.715068306335, 0.0]
['beep', 0.0, 1093.3579317758004, 0.0, 0.0, 0.0, 0.0, -3742.4419811298826, 0.0]
['beep', 0.0, 1084.394882249222, 0.0, 0.0, 0.0, 0.0, -3741.1902834403854, 0.0]
['beep', 0.0, 1089.5134317294874, 0.0, 0.0, 0.0, 0.0, -3737.0328589716983, 0.0]
['beep', 0.0, 1098.0070946225042, 0.0, 0.0, 0.0, 0.0, -3737.681059560902, 0.0]
['beep', 0.0, 1102.6115539802975, 0.0, 0.0, 0.0, 0.0, -3741.4585043738493, 0.0]
['beep', 0.0, 1095.9283823881606, 0.0, 0.0, 0.0, 0.0, -3742.4196293854275, 0.0]
['beep', 0.0, 1087.9264578731606, 0.0, 0.0, 0.0, 0.0, -3740.1397514509863, 0.0]
['beep', 0.0, 1092.1956410641244, 0.0, 0.0, 0.0, 0.0, -3737.2563764162514, 0.0]
['beep', 0.0, 1103.3268098028673, 0.0, 0.0, 0.0, 0.0, -3740.9667659958322, 0.0]
['beep', 0.0, 1105.6290394817638, 0.0, 0.0, 0.0, 0.0, -3743.1572369524524, 0.0]
['beep', 0.0, 1097.425949266666, 0.0, 0.0, 0.0, 0.0, -3745.235949186796, 0.0]
['beep', 0.0, 1087.792347406429, 0.0, 0.0, 0.0, 0.0, -3743.6489753304695, 0.0]
['beep', 0.0, 1088.5076032289987, 0.0, 0.0, 0.0, 0.0, -3740.7656002957347, 0.0]
['beep', 0.0, 1101.0022283795154, 0.0, 0.0, 0.0, 0.0, -3739.268033417229, 0.0]
['beep', 0.0, 1101.493966757532, 0.0, 0.0, 0.0, 0.0, -3741.0561729736537, 0.0]
['beep', 0.0, 1093.0897108423367, 0.0, 0.0, 0.0, 0.0, -3744.6101003420476, 0.0]
['beep', 0.0, 1084.2607717824903, 0.0, 0.0, 0.0, 0.0, -3743.0007747412656, 0.0]
['beep', 0.0, 1086.4065392501998, 0.0, 0.0, 0.0, 0.0, -3740.6091380845473, 0.0]
['beep', 0.0, 1097.3141905443897, 0.0, 0.0, 0.0, 0.0, -3740.720896806824, 0.0]
['beep', 0.0, 1100.0634551123924, 0.0, 0.0, 0.0, 0.0, -3745.4147631424385, 0.0]
['beep', 0.0, 1091.6368474527417, 0.0, 0.0, 0.0, 0.0, -3746.9793852543103, 0.0]
['beep', 0.0, 1086.205373550102, 0.0, 0.0, 0.0, 0.0, -3743.4478096303715, 0.0]
['beep', 0.0, 1086.8088706503954, 0.0, 0.0, 0.0, 0.0, -3740.5420828511815, 0.0]
['beep', 0.0, 1096.6883416996411, 0.0, 0.0, 0.0, 0.0, -3740.2515101732624, 0.0]
['beep', 0.0, 1098.722350445074, 0.0, 0.0, 0.0, 0.0, -3744.3642311530393, 0.0]
['beep', 0.0, 1091.525088730465, 0.0, 0.0, 0.0, 0.0, -3747.404068398961, 0.0]
['beep', 0.0, 1085.3113037718897, 0.0, 0.0, 0.0, 0.0, -3745.8394462870892, 0.0]
['beep', 0.0, 1092.0615305973924, 0.0, 0.0, 0.0, 0.0, -3742.553739852159, 0.0]
['beep', 0.0, 1100.5551934904092, 0.0, 0.0, 0.0, 0.0, -3741.9949462407767, 0.0]
['beep', 0.0, 1105.1373011037472, 0.0, 0.0, 0.0, 0.0, -3745.012431742243, 0.0]
['beep', 0.0, 1093.0003038645154, 0.0, 0.0, 0.0, 0.0, -3748.4769521328158, 0.0]
['beep', 0.0, 1084.3278270158562, 0.0, 0.0, 0.0, 0.0, -3747.2476061877737, 0.0]
['beep', 0.0, 1091.8603648972946, 0.0, 0.0, 0.0, 0.0, -3742.0843532185977, 0.0]
['beep', 0.0, 1101.784539435451, 0.0, 0.0, 0.0, 0.0, -3740.5197311067263, 0.0]
['beep', 0.0, 1105.5396325039426, 0.0, 0.0, 0.0, 0.0, -3742.7325538078017, 0.0]
['beep', 0.0, 1097.4706527555768, 0.0, 0.0, 0.0, 0.0, -3744.6771555754135, 0.0]
['beep', 0.0, 1086.5853532058422, 0.0, 0.0, 0.0, 0.0, -3744.3418794085837, 0.0]
['beep', 0.0, 1089.267562540479, 0.0, 0.0, 0.0, 0.0, -3743.3807543970056, 0.0]
['beep', 0.0, 1102.8797749137611, 0.0, 0.0, 0.0, 0.0, -3740.8773590180112, 0.0]
['beep', 0.0, 1106.7466267045293, 0.0, 0.0, 0.0, 0.0, -3741.659670073947, 0.0]
['beep', 0.0, 1097.6271149667639, 0.0, 0.0, 0.0, 0.0, -3745.2583009312516, 0.0]
['beep', 0.0, 1086.5853532058422, 0.0, 0.0, 0.0, 0.0, -3744.6771555754135, 0.0]
['beep', 0.0, 1090.7427776745294, 0.0, 0.0, 0.0, 0.0, -3740.8326555291005, 0.0]
['beep', 0.0, 1103.103292358314, 0.0, 0.0, 0.0, 0.0, -3740.3185654066287, 0.0]
['beep', 0.0, 1105.9866673930487, 0.0, 0.0, 0.0, 0.0, -3742.7325538078017, 0.0]
['beep', 0.0, 1098.6776469561635, 0.0, 0.0, 0.0, 0.0, -3745.50417012026, 0.0]
['beep', 0.0, 1093.0226556089706, 0.0, 0.0, 0.0, 0.0, -3744.855969531056, 0.0]
['beep', 0.0, 1093.3132282868896, 0.0, 0.0, 0.0, 0.0, -3740.7656002957347, 0.0]
['beep', 0.0, 1102.4774435135655, 0.0, 0.0, 0.0, 0.0, -3742.4866846187933, 0.0]
['beep', 0.0, 1098.9458678896272, 0.0, 0.0, 0.0, 0.0, -3751.650899845469, 0.0]
['beep', 0.0, 1092.1509375752137, 0.0, 0.0, 0.0, 0.0, -3760.2563214607626, 0.0]
['beep', 0.0, 1089.4910799850322, 0.0, 0.0, 0.0, 0.0, -3762.1562197394637, 0.0]
['beep', 0.0, 1082.494983970521, 0.0, 0.0, 0.0, 0.0, -3765.9336645524104, 0.0]
['beep', 0.0, 1088.3734927622668, 0.0, 0.0, 0.0, 0.0, -3772.7062431223685, 0.0]
['beep', 0.0, 1097.4483010111214, 0.0, 0.0, 0.0, 0.0, -3783.971522327843, 0.0]
['beep', 0.0, 1091.3462747748226, 0.0, 0.0, 0.0, 0.0, -3793.5827724436253, 0.0]
['beep', 0.0, 1085.8700973832724, 0.0, 0.0, 0.0, 0.0, -3797.2261067898403, 0.0]
['beep', 0.0, 1093.2461730535238, 0.0, 0.0, 0.0, 0.0, -3798.880135879533, 0.0]
['beep', 0.0, 1105.0031906370152, 0.0, 0.0, 0.0, 0.0, -3805.5633074716698, 0.0]
['beep', 0.0, 1106.5454610044314, 0.0, 0.0, 0.0, 0.0, -3813.0958453531084, 0.0]
['beep', 0.0, 1097.3141905443897, 0.0, 0.0, 0.0, 0.0, -3818.817891933667, 0.0]
['beep', 0.0, 1086.652408439208, 0.0, 0.0, 0.0, 0.0, -3819.175519844952, 0.0]
['beep', 0.0, 1088.7311206735517, 0.0, 0.0, 0.0, 0.0, -3814.973391887354, 0.0]
['beep', 0.0, 1103.2821063139565, 0.0, 0.0, 0.0, 0.0, -3812.8723279085552, 0.0]
['beep', 0.0, 1107.9983243940264, 0.0, 0.0, 0.0, 0.0, -3817.2756215662507, 0.0]
['beep', 0.0, 1094.430815509655, 0.0, 0.0, 0.0, 0.0, -3821.2765838237506, 0.0]
['beep', 0.0, 1085.5795247053534, 0.0, 0.0, 0.0, 0.0, -3819.3543338005943, 0.0]
['beep', 0.0, 1088.2840857844456, 0.0, 0.0, 0.0, 0.0, -3815.196909331907, 0.0]
['beep', 0.0, 1101.2928010574342, 0.0, 0.0, 0.0, 0.0, -3813.922859897955, 0.0]
['beep', 0.0, 1107.17130984918, 0.0, 0.0, 0.0, 0.0, -3816.828586677145, 0.0]
['beep', 0.0, 1096.0177893659818, 0.0, 0.0, 0.0, 0.0, -3819.2872785672284, 0.0]
['beep', 0.0, 1085.0654345828814, 0.0, 0.0, 0.0, 0.0, -3816.6274209770468, 0.0]
['beep', 0.0, 1086.5630014613869, 0.0, 0.0, 0.0, 0.0, -3812.7382174418235, 0.0]
['beep', 0.0, 1098.9458678896272, 0.0, 0.0, 0.0, 0.0, -3812.1347203415303, 0.0]
['beep', 0.0, 1103.9526586476159, 0.0, 0.0, 0.0, 0.0, -3815.3757232875496, 0.0]
['beep', 0.0, 1095.1907748211354, 0.0, 0.0, 0.0, 0.0, -3818.1920430889186, 0.0]
['beep', 0.0, 1083.7019781711076, 0.0, 0.0, 0.0, 0.0, -3816.493310510315, 0.0]
['beep', 0.0, 1084.819565393873, 0.0, 0.0, 0.0, 0.0, -3814.235784320329, 0.0]
['beep', 0.0, 1095.6378097102415, 0.0, 0.0, 0.0, 0.0, -3813.498176753304, 0.0]
['beep', 0.0, 1102.5221470024762, 0.0, 0.0, 0.0, 0.0, -3815.6439442210135, 0.0]
['beep', 0.0, 1091.726254430563, 0.0, 0.0, 0.0, 0.0, -3818.3485053001054, 0.0]
['beep', 0.0, 1079.656312424697, 0.0, 0.0, 0.0, 0.0, -3817.432083777438, 0.0]
['beep', 0.0, 1085.6465799387192, 0.0, 0.0, 0.0, 0.0, -3814.861633165078, 0.0]
['beep', 0.0, 1099.1023301008142, 0.0, 0.0, 0.0, 0.0, -3814.906336653988, 0.0]
['beep', 0.0, 1102.8574231693058, 0.0, 0.0, 0.0, 0.0, -3818.370857044561, 0.0]
['beep', 0.0, 1094.2743532984678, 0.0, 0.0, 0.0, 0.0, -3819.6002029896026, 0.0]
['beep', 0.0, 1083.5678677043759, 0.0, 0.0, 0.0, 0.0, -3817.6108977330805, 0.0]
['beep', 0.0, 1088.820527651373, 0.0, 0.0, 0.0, 0.0, -3814.861633165078, 0.0]
['beep', 0.0, 1101.9410016466381, 0.0, 0.0, 0.0, 0.0, -3814.3251912981505, 0.0]
['beep', 0.0, 1101.2480975685237, 0.0, 0.0, 0.0, 0.0, -3817.3873802885273, 0.0]
['beep', 0.0, 1093.849670153817, 0.0, 0.0, 0.0, 0.0, -3819.555499500692, 0.0]
['beep', 0.0, 1085.0654345828814, 0.0, 0.0, 0.0, 0.0, -3818.080284366642, 0.0]
['beep', 0.0, 1089.1334520737473, 0.0, 0.0, 0.0, 0.0, -3814.9957436318095, 0.0]
['beep', 0.0, 1101.2928010574342, 0.0, 0.0, 0.0, 0.0, -3813.94521164241, 0.0]
['beep', 0.0, 1106.5678127488868, 0.0, 0.0, 0.0, 0.0, -3816.8956419105107, 0.0]
['beep', 0.0, 1094.7437399320293, 0.0, 0.0, 0.0, 0.0, -3818.080284366642, 0.0]
['beep', 0.0, 1084.1937165491245, 0.0, 0.0, 0.0, 0.0, -3815.6662959654686, 0.0]
['beep', 0.0, 1091.4356817526439, 0.0, 0.0, 0.0, 0.0, -3812.2241273193513, 0.0]
['beep', 0.0, 1101.0022283795154, 0.0, 0.0, 0.0, 0.0, -3812.7829209307342, 0.0]
['beep', 0.0, 1101.650428968719, 0.0, 0.0, 0.0, 0.0, -3816.3144965546726, 0.0]
['beep', 0.0, 1093.626152709264, 0.0, 0.0, 0.0, 0.0, -3819.6002029896026, 0.0]
['beep', 0.0, 1088.172327062169, 0.0, 0.0, 0.0, 0.0, -3816.426255276949, 0.0]
['beep', 0.0, 1092.8438416533281, 0.0, 0.0, 0.0, 0.0, -3812.648810464002, 0.0]
['beep', 0.0, 1099.7952341789287, 0.0, 0.0, 0.0, 0.0, -3811.3524092855946, 0.0]
['beep', 0.0, 1103.751492947518, 0.0, 0.0, 0.0, 0.0, -3812.715865697368, 0.0]
['beep', 0.0, 1096.59893472182, 0.0, 0.0, 0.0, 0.0, -3813.922859897955, 0.0]
['beep', 0.0, 1088.753472418007, 0.0, 0.0, 0.0, 0.0, -3812.939383141921, 0.0]
['beep', 0.0, 1090.4969084855209, 0.0, 0.0, 0.0, 0.0, -3810.1901185739184, 0.0]
['beep', 0.0, 1099.9069929012053, 0.0, 0.0, 0.0, 0.0, -3810.1454150850077, 0.0]
['beep', 0.0, 1103.8632516697946, 0.0, 0.0, 0.0, 0.0, -3812.000609874798, 0.0]
['beep', 0.0, 1095.5484027324203, 0.0, 0.0, 0.0, 0.0, -3814.526356998248, 0.0]
['beep', 0.0, 1088.6640654401858, 0.0, 0.0, 0.0, 0.0, -3813.1181970975636, 0.0]
['beep', 0.0, 1089.8263561518618, 0.0, 0.0, 0.0, 0.0, -3809.6089732180803, 0.0]
['beep', 0.0, 1099.88464115675, 0.0, 0.0, 0.0, 0.0, -3807.619667961558, 0.0]
['beep', 0.0, 1105.561984248398, 0.0, 0.0, 0.0, 0.0, -3810.7712639297565, 0.0]
['beep', 0.0, 1093.4026352647109, 0.0, 0.0, 0.0, 0.0, -3812.693513952913, 0.0]
['beep', 0.0, 1085.0207310939707, 0.0, 0.0, 0.0, 0.0, -3813.4087697754826, 0.0]
['beep', 0.0, 1091.659199197197, 0.0, 0.0, 0.0, 0.0, -3814.1910808314183, 0.0]
['beep', 0.0, 1106.0537226264146, 0.0, 0.0, 0.0, 0.0, -3817.94617389991, 0.0]
['beep', 0.0, 1107.6183447382862, 0.0, 0.0, 0.0, 0.0, -3823.779979202745, 0.0]
['beep', 0.0, 1096.107196343803, 0.0, 0.0, 0.0, 0.0, -3826.3504298151056, 0.0]
['beep', 0.0, 1086.0712630833702, 0.0, 0.0, 0.0, 0.0, -3825.4116565479826, 0.0]
['beep', 0.0, 1088.0605683398926, 0.0, 0.0, 0.0, 0.0, -3820.9189559124657, 0.0]
['beep', 0.0, 1100.5104900014985, 0.0, 0.0, 0.0, 0.0, -3821.455397779393, 0.0]
['beep', 0.0, 1106.3219435598783, 0.0, 0.0, 0.0, 0.0, -3823.4447030359156, 0.0]
['beep', 0.0, 1099.4599580120992, 0.0, 0.0, 0.0, 0.0, -3823.9587931583874, 0.0]
['beep', 0.0, 1089.8934113852276, 0.0, 0.0, 0.0, 0.0, -3824.4728832808596, 0.0]
['beep', 0.0, 1091.010998607993, 0.0, 0.0, 0.0, 0.0, -3821.8353774351335, 0.0]
['beep', 0.0, 1103.6397342252415, 0.0, 0.0, 0.0, 0.0, -3820.784845445734, 0.0]
['beep', 0.0, 1106.6795714711634, 0.0, 0.0, 0.0, 0.0, -3825.4787117813485, 0.0]
['beep', 0.0, 1099.0576266119035, 0.0, 0.0, 0.0, 0.0, -3828.876176938555, 0.0]
['beep', 0.0, 1091.9944753640266, 0.0, 0.0, 0.0, 0.0, -3825.322249570161, 0.0]
['beep', 0.0, 1093.8720218982724, 0.0, 0.0, 0.0, 0.0, -3821.075418123653, 0.0]
['beep', 0.0, 1102.2762778134677, 0.0, 0.0, 0.0, 0.0, -3820.717790212368, 0.0]
['beep', 0.0, 1108.7135802165963, 0.0, 0.0, 0.0, 0.0, -3823.4894065248263, 0.0]
['beep', 0.0, 1101.203394079613, 0.0, 0.0, 0.0, 0.0, -3826.7751129597564, 0.0]
['beep', 0.0, 1091.7486061750183, 0.0, 0.0, 0.0, 0.0, -3824.651697236502, 0.0]
['beep', 0.0, 1098.4764812560657, 0.0, 0.0, 0.0, 0.0, -3820.717790212368, 0.0]
['beep', 0.0, 1108.1547866052135, 0.0, 0.0, 0.0, 0.0, -3821.2318803348403, 0.0]
['beep', 0.0, 1113.3180395743896, 0.0, 0.0, 0.0, 0.0, -3823.5788135026473, 0.0]
['beep', 0.0, 1103.595030736331, 0.0, 0.0, 0.0, 0.0, -3826.4398367929266, 0.0]
['beep', 0.0, 1091.4803852415546, 0.0, 0.0, 0.0, 0.0, -3825.4563600368933, 0.0]
['beep', 0.0, 1094.6990364431188, 0.0, 0.0, 0.0, 0.0, -3822.394171046516, 0.0]
['beep', 0.0, 1107.5065860160096, 0.0, 0.0, 0.0, 0.0, -3822.8859094245327, 0.0]
['beep', 0.0, 1114.7709029639846, 0.0, 0.0, 0.0, 0.0, -3826.037505392731, 0.0]
['beep', 0.0, 1105.0925976148364, 0.0, 0.0, 0.0, 0.0, -3828.1162176270745, 0.0]
['beep', 0.0, 1093.7602631759958, 0.0, 0.0, 0.0, 0.0, -3827.4456652934155, 0.0]
['beep', 0.0, 1095.5036992435098, 0.0, 0.0, 0.0, 0.0, -3823.75762745829, 0.0]
['beep', 0.0, 1107.819510438384, 0.0, 0.0, 0.0, 0.0, -3822.9082611689882, 0.0]
['beep', 0.0, 1112.5133767739985, 0.0, 0.0, 0.0, 0.0, -3825.4787117813485, 0.0]
['beep', 0.0, 1103.1703475916802, 0.0, 0.0, 0.0, 0.0, -3828.1609211159853, 0.0]
['beep', 0.0, 1094.006132365004, 0.0, 0.0, 0.0, 0.0, -3826.909223426488, 0.0]
['beep', 0.0, 1096.755396933007, 0.0, 0.0, 0.0, 0.0, -3824.7634559587786, 0.0]
['beep', 0.0, 1108.6688767276855, 0.0, 0.0, 0.0, 0.0, -3822.237708835329, 0.0]
['beep', 0.0, 1113.7650744634957, 0.0, 0.0, 0.0, 0.0, -3824.4058280474937, 0.0]
['beep', 0.0, 1103.3715132917778, 0.0, 0.0, 0.0, 0.0, -3827.177444359952, 0.0]
['beep', 0.0, 1093.0003038645154, 0.0, 0.0, 0.0, 0.0, -3825.925746670455, 0.0]
['beep', 0.0, 1097.4483010111214, 0.0, 0.0, 0.0, 0.0, -3823.0870751246307, 0.0]
['beep', 0.0, 1110.6805337286632, 0.0, 0.0, 0.0, 0.0, -3821.5001012683038, 0.0]
['beep', 0.0, 1117.4978157875319, 0.0, 0.0, 0.0, 0.0, -3822.7965024467117, 0.0]
['beep', 0.0, 1106.7689784489846, 0.0, 0.0, 0.0, 0.0, -3824.785807703234, 0.0]
['beep', 0.0, 1094.8778503987612, 0.0, 0.0, 0.0, 0.0, -3823.556461758192, 0.0]
['beep', 0.0, 1096.9342108886494, 0.0, 0.0, 0.0, 0.0, -3820.6283832345466, 0.0]
['beep', 0.0, 1107.3277720603671, 0.0, 0.0, 0.0, 0.0, -3818.795540189212, 0.0]
['beep', 0.0, 1112.3569145628112, 0.0, 0.0, 0.0, 0.0, -3820.9189559124657, 0.0]
['beep', 0.0, 1101.851594668817, 0.0, 0.0, 0.0, 0.0, -3824.5175867697703, 0.0]
['beep', 0.0, 1093.6708561981745, 0.0, 0.0, 0.0, 0.0, -3822.8635576800775, 0.0]
['beep', 0.0, 1099.8399376678394, 0.0, 0.0, 0.0, 0.0, -3817.3873802885273, 0.0]
['beep', 0.0, 1110.6805337286632, 0.0, 0.0, 0.0, 0.0, -3814.861633165078, 0.0]
['beep', 0.0, 1116.1567111202135, 0.0, 0.0, 0.0, 0.0, -3816.716827954868, 0.0]
['beep', 0.0, 1104.913783659194, 0.0, 0.0, 0.0, 0.0, -3821.008362890287, 0.0]
['beep', 0.0, 1091.6144957082863, 0.0, 0.0, 0.0, 0.0, -3821.343639057117, 0.0]
['beep', 0.0, 1093.849670153817, 0.0, 0.0, 0.0, 0.0, -3817.3873802885273, 0.0]
['beep', 0.0, 1107.6183447382862, 0.0, 0.0, 0.0, 0.0, -3815.845109921111, 0.0]
['beep', 0.0, 1111.909879673705, 0.0, 0.0, 0.0, 0.0, -3819.2425750783177, 0.0]
['beep', 0.0, 1102.8127196803953, 0.0, 0.0, 0.0, 0.0, -3821.9024326684994, 0.0]
['beep', 0.0, 1095.079016098859, 0.0, 0.0, 0.0, 0.0, -3822.1483018575077, 0.0]
['beep', 0.0, 1097.3141905443897, 0.0, 0.0, 0.0, 0.0, -3819.175519844952, 0.0]
['beep', 0.0, 1104.1538243477137, 0.0, 0.0, 0.0, 0.0, -3817.208566332885, 0.0]
['beep', 0.0, 1110.6581819842079, 0.0, 0.0, 0.0, 0.0, -3819.6449064785133, 0.0]
['beep', 0.0, 1103.751492947518, 0.0, 0.0, 0.0, 0.0, -3823.2211855913624, 0.0]
['beep', 0.0, 1094.9896091210378, 0.0, 0.0, 0.0, 0.0, -3821.745970457312, 0.0]
['beep', 0.0, 1097.6271149667639, 0.0, 0.0, 0.0, 0.0, -3818.795540189212, 0.0]
['beep', 0.0, 1108.8253389388728, 0.0, 0.0, 0.0, 0.0, -3819.2202233338626, 0.0]
['beep', 0.0, 1111.88752792925, 0.0, 0.0, 0.0, 0.0, -3822.6400402355243, 0.0]
['beep', 0.0, 1102.3880365357443, 0.0, 0.0, 0.0, 0.0, -3824.4058280474937, 0.0]
['beep', 0.0, 1090.206335807602, 0.0, 0.0, 0.0, 0.0, -3823.8917379250215, 0.0]
['beep', 0.0, 1094.207298065102, 0.0, 0.0, 0.0, 0.0, -3820.069589623164, 0.0]
['beep', 0.0, 1104.913783659194, 0.0, 0.0, 0.0, 0.0, -3820.13664485653, 0.0]
['beep', 0.0, 1108.5571180054092, 0.0, 0.0, 0.0, 0.0, -3824.0929036251196, 0.0]
['beep', 0.0, 1101.0022283795154, 0.0, 0.0, 0.0, 0.0, -3826.618650748569, 0.0]
['beep', 0.0, 1090.273391040968, 0.0, 0.0, 0.0, 0.0, -3825.1881391034294, 0.0]
['beep', 0.0, 1091.010998607993, 0.0, 0.0, 0.0, 0.0, -3822.394171046516, 0.0]
['beep', 0.0, 1105.2490598260235, 0.0, 0.0, 0.0, 0.0, -3821.9024326684994, 0.0]
['beep', 0.0, 1116.3578768203113, 0.0, 0.0, 0.0, 0.0, -3824.2493658363064, 0.0]
['beep', 0.0, 1103.237402825046, 0.0, 0.0, 0.0, 0.0, -3825.925746670455, 0.0]
['beep', 0.0, 1090.8098329078953, 0.0, 0.0, 0.0, 0.0, -3823.1317786135414, 0.0]
['beep', 0.0, 1093.4696904980767, 0.0, 0.0, 0.0, 0.0, -3819.555499500692, 0.0]
['beep', 0.0, 1107.819510438384, 0.0, 0.0, 0.0, 0.0, -3819.1531681004967, 0.0]
['beep', 0.0, 1114.0332953969594, 0.0, 0.0, 0.0, 0.0, -3819.9354791564324, 0.0]
['beep', 0.0, 1107.4842342715544, 0.0, 0.0, 0.0, 0.0, -3822.103598368597, 0.0]
['beep', 0.0, 1095.2131265655908, 0.0, 0.0, 0.0, 0.0, -3821.656563479491, 0.0]
['beep', 0.0, 1097.8059289224063, 0.0, 0.0, 0.0, 0.0, -3818.1920430889186, 0.0]
['beep', 0.0, 1107.663048227197, 0.0, 0.0, 0.0, 0.0, -3818.2590983222844, 0.0]
['beep', 0.0, 1110.6134784952974, 0.0, 0.0, 0.0, 0.0, -3821.5001012683038, 0.0]
['beep', 0.0, 1104.7126179590962, 0.0, 0.0, 0.0, 0.0, -3822.595336746614, 0.0]
['beep', 0.0, 1094.9896091210378, 0.0, 0.0, 0.0, 0.0, -3821.9918396463204, 0.0]
['beep', 0.0, 1093.3132282868896, 0.0, 0.0, 0.0, 0.0, -3819.5107960117816, 0.0]
['beep', 0.0, 1103.4832720140544, 0.0, 0.0, 0.0, 0.0, -3818.728484955846, 0.0]
['beep', 0.0, 1109.652353483719, 0.0, 0.0, 0.0, 0.0, -3822.394171046516, 0.0]
['beep', 0.0, 1103.6173824807863, 0.0, 0.0, 0.0, 0.0, -3825.3893048035275, 0.0]
['beep', 0.0, 1095.8389754103393, 0.0, 0.0, 0.0, 0.0, -3824.7634559587786, 0.0]
['beep', 0.0, 1097.1577283332024, 0.0, 0.0, 0.0, 0.0, -3821.589508246125, 0.0]
['beep', 0.0, 1108.1994900941243, 0.0, 0.0, 0.0, 0.0, -3818.817891933667, 0.0]
['beep', 0.0, 1110.4123127951996, 0.0, 0.0, 0.0, 0.0, -3821.298935568206, 0.0]
['beep', 0.0, 1101.784539435451, 0.0, 0.0, 0.0, 0.0, -3826.1492641150076, 0.0]
['beep', 0.0, 1092.6426759532305, 0.0, 0.0, 0.0, 0.0, -3824.4058280474937, 0.0]
['beep', 0.0, 1095.6154579657864, 0.0, 0.0, 0.0, 0.0, -3821.9918396463204, 0.0]
['beep', 0.0, 1106.2772400709678, 0.0, 0.0, 0.0, 0.0, -3820.1813483454407, 0.0]
['beep', 0.0, 1112.6474872407302, 0.0, 0.0, 0.0, 0.0, -3822.7965024467117, 0.0]
['beep', 0.0, 1105.6513912262192, 0.0, 0.0, 0.0, 0.0, -3825.5457670147143, 0.0]
