['beep', 0.0, 0.0, 0.0, 0.0, 0.0, 0.0, 0.0, 0.0]
['beep', 0.0, -1373.8276212009932, 0.0, 0.0, 0.0, 0.0, -7764.616044117934, 0.0]
['beep', 0.0, -1375.6381125018731, 0.0, 0.0, 0.0, 0.0, -7768.415840675336, 0.0]
['beep', 0.0, -1378.9908741701693, 0.0, 0.0, 0.0, 0.0, -7758.893997537375, 0.0]
['beep', 0.0, -1380.4884410486748, 0.0, 0.0, 0.0, 0.0, -7754.267186435126, 0.0]
['beep', 0.0, -1375.7945747130602, 0.0, 0.0, 0.0, 0.0, -7766.381831929903, 0.0]
['beep', 0.0, -1372.1959438557558, 0.0, 0.0, 0.0, 0.0, -7782.273922237626, 0.0]
['beep', 0.0, -1375.0122636571245, 0.0, 0.0, 0.0, 0.0, -7784.77731761662, 0.0]
['beep', 0.0, -1380.9801794266916, 0.0, 0.0, 0.0, 0.0, -7772.0815267660055, 0.0]
['beep', 0.0, -1383.1035951499457, 0.0, 0.0, 0.0, 0.0, -7766.650052863366, 0.0]
['beep', 0.0, -1378.901467192348, 0.0, 0.0, 0.0, 0.0, -7776.551875657067, 0.0]
['beep', 0.0, -1374.0064351566357, 0.0, 0.0, 0.0, 0.0, -7790.901695597375, 0.0]
['beep', 0.0, -1376.0180921576134, 0.0, 0.0, 0.0, 0.0, -7794.142698543394, 0.0]
['beep', 0.0, -1381.9189526938144, 0.0, 0.0, 0.0, 0.0, -7782.720957126732, 0.0]
['beep', 0.0, -1384.0200166726133, 0.0, 0.0, 0.0, 0.0, -7776.216599490238, 0.0]
['beep', 0.0, -1379.482612548186, 0.0, 0.0, 0.0, 0.0, -7786.9901403176955, 0.0]
['beep', 0.0, -1376.062795646524, 0.0, 0.0, 0.0, 0.0, -7799.797689890586, 0.0]
['beep', 0.0, -1377.3815485693872, 0.0, 0.0, 0.0, 0.0, -7800.177669546327, 0.0]
['beep', 0.0, -1382.32128409401, 0.0, 0.0, 0.0, 0.0, -7788.107727540461, 0.0]
['beep', 0.0, -1383.5953335279626, 0.0, 0.0, 0.0, 0.0, -7782.2292187487155, 0.0]
['beep', 0.0, -1379.2143916147222, 0.0, 0.0, 0.0, 0.0, -7791.281675253114, 0.0]
['beep', 0.0, -1375.5934090129626, 0.0, 0.0, 0.0, 0.0, -7805.027998093128, 0.0]
['beep', 0.0, -1375.9063334353368, 0.0, 0.0, 0.0, 0.0, -7804.78212890412, 0.0]
['beep', 0.0, -1381.4495660602531, 0.0, 0.0, 0.0, 0.0, -7791.236971764204, 0.0]
['beep', 0.0, -1384.6235137729066, 0.0, 0.0, 0.0, 0.0, -7783.927951327319, 0.0]
['beep', 0.0, -1380.0190544151133, 0.0, 0.0, 0.0, 0.0, -7792.891000853897, 0.0]
['beep', 0.0, -1375.481650290686, 0.0, 0.0, 0.0, 0.0, -7807.196117305293, 0.0]
['beep', 0.0, -1376.487478791175, 0.0, 0.0, 0.0, 0.0, -7807.374931260936, 0.0]
['beep', 0.0, -1382.1424701383676, 0.0, 0.0, 0.0, 0.0, -7795.707320655266, 0.0]
['beep', 0.0, -1384.8917347063702, 0.0, 0.0, 0.0, 0.0, -7788.599465918478, 0.0]
['beep', 0.0, -1380.935475937781, 0.0, 0.0, 0.0, 0.0, -7796.467279966746, 0.0]
['beep', 0.0, -1378.0297491585911, 0.0, 0.0, 0.0, 0.0, -7810.079492340028, 0.0]
['beep', 0.0, -1378.5885427699736, 0.0, 0.0, 0.0, 0.0, -7810.1688993178495, 0.0]
['beep', 0.0, -1384.2658858616217, 0.0, 0.0, 0.0, 0.0, -7798.993027090196, 0.0]
['beep', 0.0, -1385.2940661065659, 0.0, 0.0, 0.0, 0.0, -7791.840468864498, 0.0]
['beep', 0.0, -1380.8013654710492, 0.0, 0.0, 0.0, 0.0, -7795.841431121998, 0.0]
['beep', 0.0, -1379.8178887150157, 0.0, 0.0, 0.0, 0.0, -7807.129062071927, 0.0]
['beep', 0.0, -1384.1988306282558, 0.0, 0.0, 0.0, 0.0, -7809.721864428743, 0.0]
['beep', 0.0, -1390.4349673312865, 0.0, 0.0, 0.0, 0.0, -7796.668445666844, 0.0]
['beep', 0.0, -1392.290162121077, 0.0, 0.0, 0.0, 0.0, -7788.107727540461, 0.0]
['beep', 0.0, -1387.573944041007, 0.0, 0.0, 0.0, 0.0, -7794.612085176956, 0.0]
['beep', 0.0, -1383.0365399165798, 0.0, 0.0, 0.0, 0.0, -7807.263172538659, 0.0]
['beep', 0.0, -1384.6682172618173, 0.0, 0.0, 0.0, 0.0, -7808.269001039148, 0.0]
['beep', 0.0, -1391.1502231538564, 0.0, 0.0, 0.0, 0.0, -7797.786032889609, 0.0]
['beep', 0.0, -1391.1949266427669, 0.0, 0.0, 0.0, 0.0, -7789.672349652333, 0.0]
['beep', 0.0, -1386.8139847295267, 0.0, 0.0, 0.0, 0.0, -7797.406053233869, 0.0]
['beep', 0.0, -1383.3271125944989, 0.0, 0.0, 0.0, 0.0, -7810.370065017947, 0.0]
['beep', 0.0, -1384.1094236504346, 0.0, 0.0, 0.0, 0.0, -7811.35354177398, 0.0]
['beep', 0.0, -1387.931571952292, 0.0, 0.0, 0.0, 0.0, -7799.976503846229, 0.0]
['beep', 0.0, -1390.1667463978229, 0.0, 0.0, 0.0, 0.0, -7792.421614220335, 0.0]
['beep', 0.0, -1387.0151504296246, 0.0, 0.0, 0.0, 0.0, -7797.920143356341, 0.0]
['beep', 0.0, -1383.1482986388564, 0.0, 0.0, 0.0, 0.0, -7811.778224918631, 0.0]
['beep', 0.0, -1384.3329410949875, 0.0, 0.0, 0.0, 0.0, -7812.1135010854605, 0.0]
['beep', 0.0, -1390.770243498116, 0.0, 0.0, 0.0, 0.0, -7800.557649202067, 0.0]
['beep', 0.0, -1393.9218394663144, 0.0, 0.0, 0.0, 0.0, -7792.8015938760755, 0.0]
['beep', 0.0, -1388.0433306745686, 0.0, 0.0, 0.0, 0.0, -7801.809346891564, 0.0]
['beep', 0.0, -1382.9471329387586, 0.0, 0.0, 0.0, 0.0, -7814.996876120195, 0.0]
['beep', 0.0, -1383.1035951499457, 0.0, 0.0, 0.0, 0.0, -7813.633419708422, 0.0]
['beep', 0.0, -1388.6468277748618, 0.0, 0.0, 0.0, 0.0, -7802.92693411433, 0.0]
['beep', 0.0, -1391.641961531873, 0.0, 0.0, 0.0, 0.0, -7794.477974710224, 0.0]
['beep', 0.0, -1388.0209789301132, 0.0, 0.0, 0.0, 0.0, -7801.854050380475, 0.0]
['beep', 0.0, -1382.9247811943033, 0.0, 0.0, 0.0, 0.0, -7814.616896464455, 0.0]
['beep', 0.0, -1384.5564585395407, 0.0, 0.0, 0.0, 0.0, -7815.622724964944, 0.0]
['beep', 0.0, -1389.8761737199038, 0.0, 0.0, 0.0, 0.0, -7802.815175392053, 0.0]
['beep', 0.0, -1390.3902638423758, 0.0, 0.0, 0.0, 0.0, -7796.109652055461, 0.0]
['beep', 0.0, -1383.3718160834094, 0.0, 0.0, 0.0, 0.0, -7802.949285858785, 0.0]
['beep', 0.0, -1379.6837782482837, 0.0, 0.0, 0.0, 0.0, -7814.1028063419835, 0.0]
['beep', 0.0, -1382.8130224720267, 0.0, 0.0, 0.0, 0.0, -7814.2816202976255, 0.0]
['beep', 0.0, -1388.1327376523898, 0.0, 0.0, 0.0, 0.0, -7802.479899225224, 0.0]
['beep', 0.0, -1388.7585864971384, 0.0, 0.0, 0.0, 0.0, -7795.126175299428, 0.0]
['beep', 0.0, -1385.5175835511188, 0.0, 0.0, 0.0, 0.0, -7801.16114630236, 0.0]
['beep', 0.0, -1381.2036968712446, 0.0, 0.0, 0.0, 0.0, -7813.521660986145, 0.0]
['beep', 0.0, -1382.5000980496525, 0.0, 0.0, 0.0, 0.0, -7816.06975985405, 0.0]
['beep', 0.0, -1386.769281240616, 0.0, 0.0, 0.0, 0.0, -7804.648018437389, 0.0]
['beep', 0.0, -1388.6244760304066, 0.0, 0.0, 0.0, 0.0, -7794.187402032305, 0.0]
['beep', 0.0, -1385.4952318066637, 0.0, 0.0, 0.0, 0.0, -7799.171841045838, 0.0]
['beep', 0.0, -1381.4942695491636, 0.0, 0.0, 0.0, 0.0, -7811.9346871298185, 0.0]
['beep', 0.0, -1382.991836427669, 0.0, 0.0, 0.0, 0.0, -7814.683951697822, 0.0]
['beep', 0.0, -1389.2726766196106, 0.0, 0.0, 0.0, 0.0, -7802.97163760324, 0.0]
['beep', 0.0, -1391.5525545540518, 0.0, 0.0, 0.0, 0.0, -7795.327340999525, 0.0]
['beep', 0.0, -1388.1774411413005, 0.0, 0.0, 0.0, 0.0, -7801.0717393245395, 0.0]
['beep', 0.0, -1385.2940661065659, 0.0, 0.0, 0.0, 0.0, -7812.918163885852, 0.0]
['beep', 0.0, -1387.7527579966495, 0.0, 0.0, 0.0, 0.0, -7814.2816202976255, 0.0]
['beep', 0.0, -1393.2065836437446, 0.0, 0.0, 0.0, 0.0, -7803.373969003435, 0.0]
['beep', 0.0, -1394.0559499330461, 0.0, 0.0, 0.0, 0.0, -7793.338035743003, 0.0]
['beep', 0.0, -1388.4680138192193, 0.0, 0.0, 0.0, 0.0, -7798.657750923366, 0.0]
['beep', 0.0, -1383.6847405057838, 0.0, 0.0, 0.0, 0.0, -7812.493480741201, 0.0]
['beep', 0.0, -1384.154127139345, 0.0, 0.0, 0.0, 0.0, -7812.471128996745, 0.0]
['beep', 0.0, -1388.2668481191217, 0.0, 0.0, 0.0, 0.0, -7800.289428268604, 0.0]
['beep', 0.0, -1388.7585864971384, 0.0, 0.0, 0.0, 0.0, -7790.789936875098, 0.0]
['beep', 0.0, -1382.388339327376, 0.0, 0.0, 0.0, 0.0, -7797.540163700601, 0.0]
['beep', 0.0, -1378.1191561364124, 0.0, 0.0, 0.0, 0.0, -7810.526527229134, 0.0]
['beep', 0.0, -1380.8907724488704, 0.0, 0.0, 0.0, 0.0, -7812.046445852095, 0.0]
['beep', 0.0, -1385.5175835511188, 0.0, 0.0, 0.0, 0.0, -7799.440061979301, 0.0]
['beep', 0.0, -1388.378606841398, 0.0, 0.0, 0.0, 0.0, -7791.572247931033, 0.0]
['beep', 0.0, -1383.1035951499457, 0.0, 0.0, 0.0, 0.0, -7797.987198589707, 0.0]
['beep', 0.0, -1376.2416096021664, 0.0, 0.0, 0.0, 0.0, -7811.35354177398, 0.0]
['beep', 0.0, -1378.8120602145268, 0.0, 0.0, 0.0, 0.0, -7813.856937152975, 0.0]
['beep', 0.0, -1385.6293422733954, 0.0, 0.0, 0.0, 0.0, -7801.518774213645, 0.0]
['beep', 0.0, -1386.1657841403228, 0.0, 0.0, 0.0, 0.0, -7792.645131664888, 0.0]
['beep', 0.0, -1381.4272143157978, 0.0, 0.0, 0.0, 0.0, -7799.775338146132, 0.0]
['beep', 0.0, -1377.8732869474038, 0.0, 0.0, 0.0, 0.0, -7812.582887719022, 0.0]
['beep', 0.0, -1380.577848026496, 0.0, 0.0, 0.0, 0.0, -7814.21456506426, 0.0]
['beep', 0.0, -1385.7187492512167, 0.0, 0.0, 0.0, 0.0, -7802.5916579475, 0.0]
['beep', 0.0, -1388.6468277748618, 0.0, 0.0, 0.0, 0.0, -7791.505192697668, 0.0]
['beep', 0.0, -1383.8188509725155, 0.0, 0.0, 0.0, 0.0, -7797.517811956145, 0.0]
['beep', 0.0, -1379.4379090592754, 0.0, 0.0, 0.0, 0.0, -7813.8122336640645, 0.0]
['beep', 0.0, -1380.0190544151133, 0.0, 0.0, 0.0, 0.0, -7815.68978019831, 0.0]
['beep', 0.0, -1383.9753131837026, 0.0, 0.0, 0.0, 0.0, -7803.150451558883, 0.0]
['beep', 0.0, -1386.2998946070547, 0.0, 0.0, 0.0, 0.0, -7795.2602857661595, 0.0]
['beep', 0.0, -1382.9471329387586, 0.0, 0.0, 0.0, 0.0, -7798.613047434455, 0.0]
['beep', 0.0, -1378.4320805587865, 0.0, 0.0, 0.0, 0.0, -7810.571230718045, 0.0]
['beep', 0.0, -1379.7508334816496, 0.0, 0.0, 0.0, 0.0, -7813.521660986145, 0.0]
['beep', 0.0, -1383.0588916610352, 0.0, 0.0, 0.0, 0.0, -7802.748120158687, 0.0]
['beep', 0.0, -1386.031673673591, 0.0, 0.0, 0.0, 0.0, -7794.0309398211175, 0.0]
['beep', 0.0, -1383.6847405057838, 0.0, 0.0, 0.0, 0.0, -7798.411881734358, 0.0]
['beep', 0.0, -1376.3086648355325, 0.0, 0.0, 0.0, 0.0, -7811.822928407541, 0.0]
['beep', 0.0, -1377.3591968249318, 0.0, 0.0, 0.0, 0.0, -7814.482785997723, 0.0]
['beep', 0.0, -1383.9753131837026, 0.0, 0.0, 0.0, 0.0, -7802.301085269581, 0.0]
['beep', 0.0, -1385.5622870400296, 0.0, 0.0, 0.0, 0.0, -7792.980407831718, 0.0]
['beep', 0.0, -1380.5331445375855, 0.0, 0.0, 0.0, 0.0, -7799.261248023659, 0.0]
['beep', 0.0, -1375.839278201971, 0.0, 0.0, 0.0, 0.0, -7811.532355729623, 0.0]
['beep', 0.0, -1376.5768857689961, 0.0, 0.0, 0.0, 0.0, -7814.549841231089, 0.0]
['beep', 0.0, -1381.158993382334, 0.0, 0.0, 0.0, 0.0, -7803.418672492347, 0.0]
['beep', 0.0, -1383.8635544614262, 0.0, 0.0, 0.0, 0.0, -7793.427442720824, 0.0]
['beep', 0.0, -1380.4660893042194, 0.0, 0.0, 0.0, 0.0, -7798.322474756536, 0.0]
['beep', 0.0, -1374.833449701482, 0.0, 0.0, 0.0, 0.0, -7810.682989440321, 0.0]
['beep', 0.0, -1374.162897367823, 0.0, 0.0, 0.0, 0.0, -7813.320495286048, 0.0]
['beep', 0.0, -1381.807193971538, 0.0, 0.0, 0.0, 0.0, -7799.127137556928, 0.0]
['beep', 0.0, -1384.4894033061748, 0.0, 0.0, 0.0, 0.0, -7789.87351535243, 0.0]
['beep', 0.0, -1378.7003014922502, 0.0, 0.0, 0.0, 0.0, -7796.489631711202, 0.0]
['beep', 0.0, -1374.31935957901, 0.0, 0.0, 0.0, 0.0, -7808.514870228157, 0.0]
['beep', 0.0, -1376.3310165799876, 0.0, 0.0, 0.0, 0.0, -7810.884155140419, 0.0]
['beep', 0.0, -1382.611856771929, 0.0, 0.0, 0.0, 0.0, -7800.0212073351395, 0.0]
['beep', 0.0, -1385.2046591287447, 0.0, 0.0, 0.0, 0.0, -7791.415785719846, 0.0]
['beep', 0.0, -1380.8237172155043, 0.0, 0.0, 0.0, 0.0, -7798.054253823073, 0.0]
['beep', 0.0, -1375.839278201971, 0.0, 0.0, 0.0, 0.0, -7810.638285951411, 0.0]
['beep', 0.0, -1375.3922433128648, 0.0, 0.0, 0.0, 0.0, -7812.582887719022, 0.0]
['beep', 0.0, -1380.577848026496, 0.0, 0.0, 0.0, 0.0, -7801.407015491369, 0.0]
['beep', 0.0, -1384.1094236504346, 0.0, 0.0, 0.0, 0.0, -7792.689835153799, 0.0]
['beep', 0.0, -1380.2425718596664, 0.0, 0.0, 0.0, 0.0, -7798.2554195231705, 0.0]
['beep', 0.0, -1374.967560168214, 0.0, 0.0, 0.0, 0.0, -7810.012437106662, 0.0]
['beep', 0.0, -1377.3591968249318, 0.0, 0.0, 0.0, 0.0, -7813.141681330405, 0.0]
['beep', 0.0, -1381.2484003601553, 0.0, 0.0, 0.0, 0.0, -7803.709245170266, 0.0]
['beep', 0.0, -1383.7294439946943, 0.0, 0.0, 0.0, 0.0, -7794.701492154777, 0.0]
['beep', 0.0, -1379.0579294035351, 0.0, 0.0, 0.0, 0.0, -7798.411881734358, 0.0]
['beep', 0.0, -1373.7829177120827, 0.0, 0.0, 0.0, 0.0, -7810.951210373785, 0.0]
['beep', 0.0, -1375.6157607574178, 0.0, 0.0, 0.0, 0.0, -7813.968695875252, 0.0]
['beep', 0.0, -1381.2707521046107, 0.0, 0.0, 0.0, 0.0, -7803.150451558883, 0.0]
['beep', 0.0, -1382.902429449848, 0.0, 0.0, 0.0, 0.0, -7793.561553187556, 0.0]
['beep', 0.0, -1378.4767840476973, 0.0, 0.0, 0.0, 0.0, -7798.680102667821, 0.0]
['beep', 0.0, -1373.738214223172, 0.0, 0.0, 0.0, 0.0, -7811.35354177398, 0.0]
['beep', 0.0, -1374.4981735346526, 0.0, 0.0, 0.0, 0.0, -7814.505137742179, 0.0]
['beep', 0.0, -1380.9131241933255, 0.0, 0.0, 0.0, 0.0, -7802.569306203045, 0.0]
['beep', 0.0, -1382.8577259609374, 0.0, 0.0, 0.0, 0.0, -7792.756890387165, 0.0]
['beep', 0.0, -1379.2814468480883, 0.0, 0.0, 0.0, 0.0, -7796.668445666844, 0.0]
['beep', 0.0, -1374.900504934848, 0.0, 0.0, 0.0, 0.0, -7811.845280151997, 0.0]
['beep', 0.0, -1376.9121619358257, 0.0, 0.0, 0.0, 0.0, -7814.125158086438, 0.0]
['beep', 0.0, -1381.5836765269848, 0.0, 0.0, 0.0, 0.0, -7801.608181191466, 0.0]
['beep', 0.0, -1383.2377056166777, 0.0, 0.0, 0.0, 0.0, -7790.767585130643, 0.0]
['beep', 0.0, -1380.935475937781, 0.0, 0.0, 0.0, 0.0, -7796.780204389121, 0.0]
['beep', 0.0, -1374.900504934848, 0.0, 0.0, 0.0, 0.0, -7809.185422561815, 0.0]
['beep', 0.0, -1374.967560168214, 0.0, 0.0, 0.0, 0.0, -7813.141681330405, 0.0]
['beep', 0.0, -1381.4942695491636, 0.0, 0.0, 0.0, 0.0, -7803.6421899369, 0.0]
['beep', 0.0, -1384.6011620284512, 0.0, 0.0, 0.0, 0.0, -7791.8628206089525, 0.0]
['beep', 0.0, -1379.8625922039262, 0.0, 0.0, 0.0, 0.0, -7797.048425322584, 0.0]
['beep', 0.0, -1374.8558014459375, 0.0, 0.0, 0.0, 0.0, -7809.341884773003, 0.0]
['beep', 0.0, -1376.6662927468174, 0.0, 0.0, 0.0, 0.0, -7812.269963296648, 0.0]
['beep', 0.0, -1383.3271125944989, 0.0, 0.0, 0.0, 0.0, -7800.825870135531, 0.0]
['beep', 0.0, -1386.3445980959652, 0.0, 0.0, 0.0, 0.0, -7792.9133525983525, 0.0]
['beep', 0.0, -1381.8518974604485, 0.0, 0.0, 0.0, 0.0, -7799.015378834651, 0.0]
['beep', 0.0, -1377.6944729917614, 0.0, 0.0, 0.0, 0.0, -7810.571230718045, 0.0]
['beep', 0.0, -1380.1755166263006, 0.0, 0.0, 0.0, 0.0, -7814.572192975545, 0.0]
['beep', 0.0, -1386.7469294961609, 0.0, 0.0, 0.0, 0.0, -7801.585829447011, 0.0]
['beep', 0.0, -1389.5408975530743, 0.0, 0.0, 0.0, 0.0, -7790.856992108464, 0.0]
['beep', 0.0, -1384.2211823727112, 0.0, 0.0, 0.0, 0.0, -7797.428404978324, 0.0]
['beep', 0.0, -1377.8956386918592, 0.0, 0.0, 0.0, 0.0, -7810.727692929232, 0.0]
['beep', 0.0, -1379.259095103633, 0.0, 0.0, 0.0, 0.0, -7812.515832485657, 0.0]
['beep', 0.0, -1384.9811416841915, 0.0, 0.0, 0.0, 0.0, -7801.317608513547, 0.0]
['beep', 0.0, -1389.317380108521, 0.0, 0.0, 0.0, 0.0, -7791.482840953213, 0.0]
['beep', 0.0, -1386.1657841403228, 0.0, 0.0, 0.0, 0.0, -7797.450756722779, 0.0]
['beep', 0.0, -1380.6001997709513, 0.0, 0.0, 0.0, 0.0, -7811.755873174176, 0.0]
['beep', 0.0, -1380.9578276822363, 0.0, 0.0, 0.0, 0.0, -7813.633419708422, 0.0]
['beep', 0.0, -1386.7022260072501, 0.0, 0.0, 0.0, 0.0, -7804.2456870371925, 0.0]
['beep', 0.0, -1388.2891998635769, 0.0, 0.0, 0.0, 0.0, -7795.327340999525, 0.0]
['beep', 0.0, -1384.0870719059792, 0.0, 0.0, 0.0, 0.0, -7798.635399178911, 0.0]
['beep', 0.0, -1380.354330581943, 0.0, 0.0, 0.0, 0.0, -7811.4653004962565, 0.0]
['beep', 0.0, -1381.4272143157978, 0.0, 0.0, 0.0, 0.0, -7816.248573809693, 0.0]
['beep', 0.0, -1385.4058248288425, 0.0, 0.0, 0.0, 0.0, -7805.095053326494, 0.0]
['beep', 0.0, -1387.864516718926, 0.0, 0.0, 0.0, 0.0, -7794.746195643687, 0.0]
['beep', 0.0, -1384.7799759840937, 0.0, 0.0, 0.0, 0.0, -7798.098957311983, 0.0]
['beep', 0.0, -1379.0132259146246, 0.0, 0.0, 0.0, 0.0, -7811.577059218534, 0.0]
['beep', 0.0, -1380.0861096484794, 0.0, 0.0, 0.0, 0.0, -7816.494442998701, 0.0]
['beep', 0.0, -1388.5574207970405, 0.0, 0.0, 0.0, 0.0, -7804.78212890412, 0.0]
['beep', 0.0, -1389.831470230993, 0.0, 0.0, 0.0, 0.0, -7794.9697130882405, 0.0]
['beep', 0.0, -1383.8859062058814, 0.0, 0.0, 0.0, 0.0, -7801.0717393245395, 0.0]
['beep', 0.0, -1379.0579294035351, 0.0, 0.0, 0.0, 0.0, -7811.085320840517, 0.0]
['beep', 0.0, -1381.2484003601553, 0.0, 0.0, 0.0, 0.0, -7813.655771452877, 0.0]
['beep', 0.0, -1386.7469294961609, 0.0, 0.0, 0.0, 0.0, -7803.3069137700695, 0.0]
['beep', 0.0, -1388.378606841398, 0.0, 0.0, 0.0, 0.0, -7793.695663654288, 0.0]
['beep', 0.0, -1383.1706503833116, 0.0, 0.0, 0.0, 0.0, -7799.104785812472, 0.0]
['beep', 0.0, -1378.0744526475016, 0.0, 0.0, 0.0, 0.0, -7810.727692929232, 0.0]
['beep', 0.0, -1377.3368450804765, 0.0, 0.0, 0.0, 0.0, -7813.655771452877, 0.0]
['beep', 0.0, -1382.2542288606442, 0.0, 0.0, 0.0, 0.0, -7802.815175392053, 0.0]
['beep', 0.0, -1385.8305079734932, 0.0, 0.0, 0.0, 0.0, -7793.11451829845, 0.0]
['beep', 0.0, -1382.6565602608396, 0.0, 0.0, 0.0, 0.0, -7796.891963111397, 0.0]
['beep', 0.0, -1377.2250863581999, 0.0, 0.0, 0.0, 0.0, -7810.504175484679, 0.0]
['beep', 0.0, -1377.2250863581999, 0.0, 0.0, 0.0, 0.0, -7816.583849976522, 0.0]
['beep', 0.0, -1382.1201183939122, 0.0, 0.0, 0.0, 0.0, -7804.2456870371925, 0.0]
['beep', 0.0, -1385.9422666957698, 0.0, 0.0, 0.0, 0.0, -7792.488669453701, 0.0]
['beep', 0.0, -1382.991836427669, 0.0, 0.0, 0.0, 0.0, -7797.540163700601, 0.0]
['beep', 0.0, -1377.806231714038, 0.0, 0.0, 0.0, 0.0, -7810.682989440321, 0.0]
['beep', 0.0, -1377.2474381026552, 0.0, 0.0, 0.0, 0.0, -7816.650905209888, 0.0]
['beep', 0.0, -1382.8577259609374, 0.0, 0.0, 0.0, 0.0, -7804.759777159665, 0.0]
['beep', 0.0, -1387.059853918535, 0.0, 0.0, 0.0, 0.0, -7792.846297364986, 0.0]
['beep', 0.0, -1383.2153538722223, 0.0, 0.0, 0.0, 0.0, -7797.629570678422, 0.0]
['beep', 0.0, -1378.6555980033397, 0.0, 0.0, 0.0, 0.0, -7811.35354177398, 0.0]
['beep', 0.0, -1379.3708538259095, 0.0, 0.0, 0.0, 0.0, -7814.9298208868295, 0.0]
['beep', 0.0, -1384.0647201615238, 0.0, 0.0, 0.0, 0.0, -7804.536259715112, 0.0]
['beep', 0.0, -1386.1434323958674, 0.0, 0.0, 0.0, 0.0, -7794.790899132598, 0.0]
['beep', 0.0, -1383.1706503833116, 0.0, 0.0, 0.0, 0.0, -7798.791861390097, 0.0]
['beep', 0.0, -1377.6274177583955, 0.0, 0.0, 0.0, 0.0, -7810.504175484679, 0.0]
['beep', 0.0, -1377.962693925225, 0.0, 0.0, 0.0, 0.0, -7815.086283098017, 0.0]
['beep', 0.0, -1384.8470312174597, 0.0, 0.0, 0.0, 0.0, -7803.597486447989, 0.0]
['beep', 0.0, -1387.864516718926, 0.0, 0.0, 0.0, 0.0, -7793.315683998548, 0.0]
['beep', 0.0, -1384.1094236504346, 0.0, 0.0, 0.0, 0.0, -7797.473108467235, 0.0]
['beep', 0.0, -1380.0861096484794, 0.0, 0.0, 0.0, 0.0, -7810.884155140419, 0.0]
['beep', 0.0, -1380.3319788374877, 0.0, 0.0, 0.0, 0.0, -7816.06975985405, 0.0]
['beep', 0.0, -1386.9704469407138, 0.0, 0.0, 0.0, 0.0, -7806.436157993813, 0.0]
['beep', 0.0, -1387.8198132300156, 0.0, 0.0, 0.0, 0.0, -7794.433271221313, 0.0]
['beep', 0.0, -1384.288237606077, 0.0, 0.0, 0.0, 0.0, -7796.891963111397, 0.0]
['beep', 0.0, -1381.4719178047083, 0.0, 0.0, 0.0, 0.0, -7809.766567917653, 0.0]
['beep', 0.0, -1383.5506300390518, 0.0, 0.0, 0.0, 0.0, -7811.957038874274, 0.0]
['beep', 0.0, -1387.8421649744707, 0.0, 0.0, 0.0, 0.0, -7802.457547480768, 0.0]
['beep', 0.0, -1390.3008568645546, 0.0, 0.0, 0.0, 0.0, -7790.812288619553, 0.0]
['beep', 0.0, -1386.6351707738843, 0.0, 0.0, 0.0, 0.0, -7793.047463065084, 0.0]
['beep', 0.0, -1381.0472346600575, 0.0, 0.0, 0.0, 0.0, -7809.051312095084, 0.0]
['beep', 0.0, -1380.2649236041218, 0.0, 0.0, 0.0, 0.0, -7814.885117397919, 0.0]
['beep', 0.0, -1385.8305079734932, 0.0, 0.0, 0.0, 0.0, -7803.977466103729, 0.0]
['beep', 0.0, -1389.3397318529765, 0.0, 0.0, 0.0, 0.0, -7793.181573531816, 0.0]
['beep', 0.0, -1384.4894033061748, 0.0, 0.0, 0.0, 0.0, -7796.690797411299, 0.0]
['beep', 0.0, -1377.6944729917614, 0.0, 0.0, 0.0, 0.0, -7809.744216173198, 0.0]
['beep', 0.0, -1378.6332462588844, 0.0, 0.0, 0.0, 0.0, -7813.655771452877, 0.0]
['beep', 0.0, -1384.0647201615238, 0.0, 0.0, 0.0, 0.0, -7802.368140502947, 0.0]
['beep', 0.0, -1385.60699052894, 0.0, 0.0, 0.0, 0.0, -7791.907524097864, 0.0]
['beep', 0.0, -1381.7177869937168, 0.0, 0.0, 0.0, 0.0, -7795.30498925507, 0.0]
['beep', 0.0, -1377.9850456696804, 0.0, 0.0, 0.0, 0.0, -7808.201945805782, 0.0]
['beep', 0.0, -1378.454432303242, 0.0, 0.0, 0.0, 0.0, -7813.767530175153, 0.0]
['beep', 0.0, -1385.092900406468, 0.0, 0.0, 0.0, 0.0, -7802.524602714134, 0.0]
['beep', 0.0, -1388.5350690525854, 0.0, 0.0, 0.0, 0.0, -7793.807422376564, 0.0]
['beep', 0.0, -1383.9529614392475, 0.0, 0.0, 0.0, 0.0, -7796.757852644665, 0.0]
['beep', 0.0, -1378.9238189368034, 0.0, 0.0, 0.0, 0.0, -7808.112538827961, 0.0]
['beep', 0.0, -1377.4039003138425, 0.0, 0.0, 0.0, 0.0, -7814.1028063419835, 0.0]
['beep', 0.0, -1381.0248829156021, 0.0, 0.0, 0.0, 0.0, -7803.7763004036315, 0.0]
['beep', 0.0, -1383.774147483605, 0.0, 0.0, 0.0, 0.0, -7792.086338053506, 0.0]
['beep', 0.0, -1382.4330428162866, 0.0, 0.0, 0.0, 0.0, -7794.746195643687, 0.0]
['beep', 0.0, -1380.354330581943, 0.0, 0.0, 0.0, 0.0, -7807.732559172221, 0.0]
['beep', 0.0, -1376.1074991354346, 0.0, 0.0, 0.0, 0.0, -7814.080454597528, 0.0]
['beep', 0.0, -1380.6896067487726, 0.0, 0.0, 0.0, 0.0, -7803.351617258981, 0.0]
['beep', 0.0, -1386.0093219291357, 0.0, 0.0, 0.0, 0.0, -7791.952227586774, 0.0]
['beep', 0.0, -1382.1424701383676, 0.0, 0.0, 0.0, 0.0, -7793.516849698645, 0.0]
['beep', 0.0, -1376.0851473909793, 0.0, 0.0, 0.0, 0.0, -7807.106710327472, 0.0]
['beep', 0.0, -1377.6721212473062, 0.0, 0.0, 0.0, 0.0, -7812.940515630307, 0.0]
['beep', 0.0, -1384.1764788838004, 0.0, 0.0, 0.0, 0.0, -7804.044521337095, 0.0]
['beep', 0.0, -1387.0822056629904, 0.0, 0.0, 0.0, 0.0, -7793.539201443101, 0.0]
['beep', 0.0, -1383.0365399165798, 0.0, 0.0, 0.0, 0.0, -7797.450756722779, 0.0]
['beep', 0.0, -1378.5885427699736, 0.0, 0.0, 0.0, 0.0, -7810.459471995769, 0.0]
['beep', 0.0, -1378.8120602145268, 0.0, 0.0, 0.0, 0.0, -7814.371027275447, 0.0]
['beep', 0.0, -1382.6565602608396, 0.0, 0.0, 0.0, 0.0, -7804.335094015014, 0.0]
['beep', 0.0, -1385.2493626176552, 0.0, 0.0, 0.0, 0.0, -7792.868649109441, 0.0]
['beep', 0.0, -1381.4719178047083, 0.0, 0.0, 0.0, 0.0, -7795.617913677444, 0.0]
['beep', 0.0, -1375.9510369242475, 0.0, 0.0, 0.0, 0.0, -7809.1183673284495, 0.0]
['beep', 0.0, -1376.2639613466217, 0.0, 0.0, 0.0, 0.0, -7813.432254008324, 0.0]
['beep', 0.0, -1381.807193971538, 0.0, 0.0, 0.0, 0.0, -7804.200983548282, 0.0]
['beep', 0.0, -1383.6623887613284, 0.0, 0.0, 0.0, 0.0, -7793.293332254092, 0.0]
['beep', 0.0, -1380.1531648818452, 0.0, 0.0, 0.0, 0.0, -7795.68496891081, 0.0]
['beep', 0.0, -1375.2804845905882, 0.0, 0.0, 0.0, 0.0, -7810.839451651508, 0.0]
['beep', 0.0, -1377.0462724025574, 0.0, 0.0, 0.0, 0.0, -7814.862765653464, 0.0]
['beep', 0.0, -1380.868420704415, 0.0, 0.0, 0.0, 0.0, -7804.648018437389, 0.0]
['beep', 0.0, -1383.9529614392475, 0.0, 0.0, 0.0, 0.0, -7792.77924213162, 0.0]
['beep', 0.0, -1382.030711416091, 0.0, 0.0, 0.0, 0.0, -7795.595561932989, 0.0]
['beep', 0.0, -1378.6332462588844, 0.0, 0.0, 0.0, 0.0, -7808.716035928254, 0.0]
['beep', 0.0, -1376.7780514690937, 0.0, 0.0, 0.0, 0.0, -7816.382684276425, 0.0]
['beep', 0.0, -1381.360159082432, 0.0, 0.0, 0.0, 0.0, -7806.190288804804, 0.0]
['beep', 0.0, -1384.51175505063, 0.0, 0.0, 0.0, 0.0, -7792.242800264693, 0.0]
['beep', 0.0, -1381.7177869937168, 0.0, 0.0, 0.0, 0.0, -7794.187402032305, 0.0]
['beep', 0.0, -1374.8781531903928, 0.0, 0.0, 0.0, 0.0, -7805.676198682332, 0.0]
['beep', 0.0, -1373.7158624787169, 0.0, 0.0, 0.0, 0.0, -7811.644114451899, 0.0]
['beep', 0.0, -1379.0802811479905, 0.0, 0.0, 0.0, 0.0, -7804.044521337095, 0.0]
['beep', 0.0, -1381.1142898934233, 0.0, 0.0, 0.0, 0.0, -7791.818117120042, 0.0]
['beep', 0.0, -1377.158031124834, 0.0, 0.0, 0.0, 0.0, -7794.723843899232, 0.0]
['beep', 0.0, -1372.7770892115939, 0.0, 0.0, 0.0, 0.0, -7807.397283005391, 0.0]
['beep', 0.0, -1373.1570688673341, 0.0, 0.0, 0.0, 0.0, -7812.135852829916, 0.0]
['beep', 0.0, -1379.4602608037308, 0.0, 0.0, 0.0, 0.0, -7801.362312002459, 0.0]
['beep', 0.0, -1382.32128409401, 0.0, 0.0, 0.0, 0.0, -7792.086338053506, 0.0]
['beep', 0.0, -1377.6497695028509, 0.0, 0.0, 0.0, 0.0, -7794.187402032305, 0.0]
['beep', 0.0, -1373.2241241007, 0.0, 0.0, 0.0, 0.0, -7804.491556226201, 0.0]
['beep', 0.0, -1373.7605659676274, 0.0, 0.0, 0.0, 0.0, -7809.721864428743, 0.0]
['beep', 0.0, -1378.968522425714, 0.0, 0.0, 0.0, 0.0, -7800.35648350197, 0.0]
['beep', 0.0, -1381.091938148968, 0.0, 0.0, 0.0, 0.0, -7789.471183952235, 0.0]
['beep', 0.0, -1380.1755166263006, 0.0, 0.0, 0.0, 0.0, -7792.8015938760755, 0.0]
['beep', 0.0, -1377.1356793803786, 0.0, 0.0, 0.0, 0.0, -7805.5420882156, 0.0]
['beep', 0.0, -1378.0297491585911, 0.0, 0.0, 0.0, 0.0, -7809.073663839539, 0.0]
['beep', 0.0, -1382.2542288606442, 0.0, 0.0, 0.0, 0.0, -7798.456585223268, 0.0]
['beep', 0.0, -1384.1094236504346, 0.0, 0.0, 0.0, 0.0, -7787.906561840363, 0.0]
['beep', 0.0, -1379.8625922039262, 0.0, 0.0, 0.0, 0.0, -7791.393433975391, 0.0]
['beep', 0.0, -1374.4758217901972, 0.0, 0.0, 0.0, 0.0, -7804.648018437389, 0.0]
['beep', 0.0, -1374.9899119126692, 0.0, 0.0, 0.0, 0.0, -7810.884155140419, 0.0]
['beep', 0.0, -1379.706129992739, 0.0, 0.0, 0.0, 0.0, -7800.915277113352, 0.0]
['beep', 0.0, -1382.0530631605463, 0.0, 0.0, 0.0, 0.0, -7789.3370734855025, 0.0]
['beep', 0.0, -1378.8120602145268, 0.0, 0.0, 0.0, 0.0, -7788.890038596397, 0.0]
['beep', 0.0, -1375.9510369242475, 0.0, 0.0, 0.0, 0.0, -7800.870573624441, 0.0]
['beep', 0.0, -1375.2804845905882, 0.0, 0.0, 0.0, 0.0, -7809.1183673284495, 0.0]
['beep', 0.0, -1379.9519991817474, 0.0, 0.0, 0.0, 0.0, -7798.166012545349, 0.0]
['beep', 0.0, -1382.164821882823, 0.0, 0.0, 0.0, 0.0, -7784.9337798278075, 0.0]
['beep', 0.0, -1379.8178887150157, 0.0, 0.0, 0.0, 0.0, -7788.666521151844, 0.0]
['beep', 0.0, -1376.12985087989, 0.0, 0.0, 0.0, 0.0, -7802.21167829176, 0.0]
['beep', 0.0, -1374.2299526011889, 0.0, 0.0, 0.0, 0.0, -7808.0007801056845, 0.0]
['beep', 0.0, -1379.907295692837, 0.0, 0.0, 0.0, 0.0, -7798.098957311983, 0.0]
['beep', 0.0, -1383.640037016873, 0.0, 0.0, 0.0, 0.0, -7785.358462972458, 0.0]
['beep', 0.0, -1380.4884410486748, 0.0, 0.0, 0.0, 0.0, -7787.861858351453, 0.0]
['beep', 0.0, -1374.095842134457, 0.0, 0.0, 0.0, 0.0, -7802.569306203045, 0.0]
['beep', 0.0, -1372.9782549116917, 0.0, 0.0, 0.0, 0.0, -7808.716035928254, 0.0]
['beep', 0.0, -1379.2814468480883, 0.0, 0.0, 0.0, 0.0, -7797.383701489413, 0.0]
['beep', 0.0, -1383.3271125944989, 0.0, 0.0, 0.0, 0.0, -7785.313759483548, 0.0]
['beep', 0.0, -1378.8567637034373, 0.0, 0.0, 0.0, 0.0, -7789.1582595298605, 0.0]
['beep', 0.0, -1372.419461300309, 0.0, 0.0, 0.0, 0.0, -7802.681064925321, 0.0]
['beep', 0.0, -1372.4418130447643, 0.0, 0.0, 0.0, 0.0, -7808.157242316872, 0.0]
['beep', 0.0, -1377.2250863581999, 0.0, 0.0, 0.0, 0.0, -7799.440061979301, 0.0]
['beep', 0.0, -1381.4272143157978, 0.0, 0.0, 0.0, 0.0, -7787.2807129956145, 0.0]
['beep', 0.0, -1378.6779497477949, 0.0, 0.0, 0.0, 0.0, -7787.727747884721, 0.0]
['beep', 0.0, -1373.2017723562446, 0.0, 0.0, 0.0, 0.0, -7801.742291658198, 0.0]
['beep', 0.0, -1373.8276212009932, 0.0, 0.0, 0.0, 0.0, -7807.129062071927, 0.0]
['beep', 0.0, -1377.3815485693872, 0.0, 0.0, 0.0, 0.0, -7797.338998000503, 0.0]
['beep', 0.0, -1380.2425718596664, 0.0, 0.0, 0.0, 0.0, -7786.140774028394, 0.0]
['beep', 0.0, -1378.1638596253229, 0.0, 0.0, 0.0, 0.0, -7787.057195551061, 0.0]
['beep', 0.0, -1372.9111996783256, 0.0, 0.0, 0.0, 0.0, -7802.144623058394, 0.0]
['beep', 0.0, -1371.771260711105, 0.0, 0.0, 0.0, 0.0, -7809.565402217556, 0.0]
['beep', 0.0, -1377.7168247362167, 0.0, 0.0, 0.0, 0.0, -7800.1329660574165, 0.0]
['beep', 0.0, -1380.9578276822363, 0.0, 0.0, 0.0, 0.0, -7788.286541496103, 0.0]
['beep', 0.0, -1378.454432303242, 0.0, 0.0, 0.0, 0.0, -7790.074681052528, 0.0]
['beep', 0.0, -1374.900504934848, 0.0, 0.0, 0.0, 0.0, -7801.8987538693855, 0.0]
['beep', 0.0, -1374.4981735346526, 0.0, 0.0, 0.0, 0.0, -7808.626628950433, 0.0]
['beep', 0.0, -1379.6167230149179, 0.0, 0.0, 0.0, 0.0, -7800.691759668799, 0.0]
['beep', 0.0, -1383.5059265501413, 0.0, 0.0, 0.0, 0.0, -7787.057195551061, 0.0]
['beep', 0.0, -1381.1366416378787, 0.0, 0.0, 0.0, 0.0, -7788.152431029372, 0.0]
['beep', 0.0, -1376.6662927468174, 0.0, 0.0, 0.0, 0.0, -7801.87640212493, 0.0]
['beep', 0.0, -1375.6828159907839, 0.0, 0.0, 0.0, 0.0, -7808.537221972611, 0.0]
['beep', 0.0, -1380.5554962820406, 0.0, 0.0, 0.0, 0.0, -7799.68593116831, 0.0]
['beep', 0.0, -1385.0481969175573, 0.0, 0.0, 0.0, 0.0, -7787.951265329274, 0.0]
['beep', 0.0, -1381.4272143157978, 0.0, 0.0, 0.0, 0.0, -7789.605294418967, 0.0]
['beep', 0.0, -1375.8839816908815, 0.0, 0.0, 0.0, 0.0, -7801.697588169288, 0.0]
['beep', 0.0, -1373.9840834121806, 0.0, 0.0, 0.0, 0.0, -7808.82779465053, 0.0]
['beep', 0.0, -1379.3708538259095, 0.0, 0.0, 0.0, 0.0, -7800.222373035237, 0.0]
['beep', 0.0, -1383.3718160834094, 0.0, 0.0, 0.0, 0.0, -7789.940570585796, 0.0]
['beep', 0.0, -1380.421385815309, 0.0, 0.0, 0.0, 0.0, -7790.63347466391, 0.0]
['beep', 0.0, -1375.8169264575156, 0.0, 0.0, 0.0, 0.0, -7801.451718980279, 0.0]
['beep', 0.0, -1376.6886444912725, 0.0, 0.0, 0.0, 0.0, -7807.576096961034, 0.0]
['beep', 0.0, -1380.1308131373899, 0.0, 0.0, 0.0, 0.0, -7798.993027090196, 0.0]
['beep', 0.0, -1382.7236154942054, 0.0, 0.0, 0.0, 0.0, -7787.884210095908, 0.0]
['beep', 0.0, -1378.3650253254207, 0.0, 0.0, 0.0, 0.0, -7790.052329308073, 0.0]
['beep', 0.0, -1373.9840834121806, 0.0, 0.0, 0.0, 0.0, -7802.524602714134, 0.0]
['beep', 0.0, -1373.6488072453508, 0.0, 0.0, 0.0, 0.0, -7808.492518483701, 0.0]
['beep', 0.0, -1379.482612548186, 0.0, 0.0, 0.0, 0.0, -7798.680102667821, 0.0]
['beep', 0.0, -1383.7964992280602, 0.0, 0.0, 0.0, 0.0, -7787.615989162445, 0.0]
['beep', 0.0, -1381.3154555935212, 0.0, 0.0, 0.0, 0.0, -7789.82881186352, 0.0]
['beep', 0.0, -1376.062795646524, 0.0, 0.0, 0.0, 0.0, -7803.061044581062, 0.0]
['beep', 0.0, -1374.8110979570267, 0.0, 0.0, 0.0, 0.0, -7809.945381873296, 0.0]
['beep', 0.0, -1380.577848026496, 0.0, 0.0, 0.0, 0.0, -7800.9599806022625, 0.0]
['beep', 0.0, -1382.4106910718313, 0.0, 0.0, 0.0, 0.0, -7787.817154862542, 0.0]
['beep', 0.0, -1378.8567637034373, 0.0, 0.0, 0.0, 0.0, -7787.414823462346, 0.0]
['beep', 0.0, -1374.31935957901, 0.0, 0.0, 0.0, 0.0, -7800.9599806022625, 0.0]
['beep', 0.0, -1373.4923450341637, 0.0, 0.0, 0.0, 0.0, -7808.224297550238, 0.0]
['beep', 0.0, -1380.1084613929345, 0.0, 0.0, 0.0, 0.0, -7800.915277113352, 0.0]
['beep', 0.0, -1383.774147483605, 0.0, 0.0, 0.0, 0.0, -7789.627646163422, 0.0]
['beep', 0.0, -1381.0695864045128, 0.0, 0.0, 0.0, 0.0, -7789.381776974414, 0.0]
['beep', 0.0, -1375.3028363350436, 0.0, 0.0, 0.0, 0.0, -7802.479899225224, 0.0]
['beep', 0.0, -1375.191077612767, 0.0, 0.0, 0.0, 0.0, -7810.526527229134, 0.0]
['beep', 0.0, -1379.9967026706581, 0.0, 0.0, 0.0, 0.0, -7801.11644281345, 0.0]
['beep', 0.0, -1384.0870719059792, 0.0, 0.0, 0.0, 0.0, -7790.834640364009, 0.0]
['beep', 0.0, -1380.6896067487726, 0.0, 0.0, 0.0, 0.0, -7790.655826408366, 0.0]
['beep', 0.0, -1376.2639613466217, 0.0, 0.0, 0.0, 0.0, -7802.703416669777, 0.0]
['beep', 0.0, -1375.705167735239, 0.0, 0.0, 0.0, 0.0, -7810.839451651508, 0.0]
['beep', 0.0, -1380.1531648818452, 0.0, 0.0, 0.0, 0.0, -7802.904582369874, 0.0]
['beep', 0.0, -1384.4223480728087, 0.0, 0.0, 0.0, 0.0, -7789.44883220778, 0.0]
['beep', 0.0, -1382.4777463051971, 0.0, 0.0, 0.0, 0.0, -7790.2758467526255, 0.0]
['beep', 0.0, -1377.9850456696804, 0.0, 0.0, 0.0, 0.0, -7803.150451558883, 0.0]
['beep', 0.0, -1376.1074991354346, 0.0, 0.0, 0.0, 0.0, -7810.571230718045, 0.0]
['beep', 0.0, -1379.4379090592754, 0.0, 0.0, 0.0, 0.0, -7801.339960258003, 0.0]
['beep', 0.0, -1383.707092250239, 0.0, 0.0, 0.0, 0.0, -7788.73357638521, 0.0]
['beep', 0.0, -1379.929647437292, 0.0, 0.0, 0.0, 0.0, -7790.789936875098, 0.0]
['beep', 0.0, -1377.001568913647, 0.0, 0.0, 0.0, 0.0, -7802.8375271365085, 0.0]
['beep', 0.0, -1377.1803828692894, 0.0, 0.0, 0.0, 0.0, -7809.565402217556, 0.0]
['beep', 0.0, -1380.935475937781, 0.0, 0.0, 0.0, 0.0, -7800.915277113352, 0.0]
['beep', 0.0, -1384.51175505063, 0.0, 0.0, 0.0, 0.0, -7789.001797318673, 0.0]
['beep', 0.0, -1382.8130224720267, 0.0, 0.0, 0.0, 0.0, -7788.577114174022, 0.0]
['beep', 0.0, -1377.001568913647, 0.0, 0.0, 0.0, 0.0, -7800.088262568505, 0.0]
['beep', 0.0, -1375.6604642463285, 0.0, 0.0, 0.0, 0.0, -7807.665503938855, 0.0]
['beep', 0.0, -1380.734310237683, 0.0, 0.0, 0.0, 0.0, -7800.669407924343, 0.0]
['beep', 0.0, -1383.3718160834094, 0.0, 0.0, 0.0, 0.0, -7789.761756630154, 0.0]
['beep', 0.0, -1381.2036968712446, 0.0, 0.0, 0.0, 0.0, -7791.415785719846, 0.0]
['beep', 0.0, -1376.353368324443, 0.0, 0.0, 0.0, 0.0, -7801.630532935922, 0.0]
['beep', 0.0, -1375.2804845905882, 0.0, 0.0, 0.0, 0.0, -7808.40311150588, 0.0]
['beep', 0.0, -1379.2143916147222, 0.0, 0.0, 0.0, 0.0, -7801.786995147109, 0.0]
['beep', 0.0, -1384.802327728549, 0.0, 0.0, 0.0, 0.0, -7790.298198497081, 0.0]
['beep', 0.0, -1383.5282782945965, 0.0, 0.0, 0.0, 0.0, -7790.409957219358, 0.0]
['beep', 0.0, -1375.8839816908815, 0.0, 0.0, 0.0, 0.0, -7801.474070724735, 0.0]
['beep', 0.0, -1375.1016706349458, 0.0, 0.0, 0.0, 0.0, -7808.201945805782, 0.0]
['beep', 0.0, -1380.8013654710492, 0.0, 0.0, 0.0, 0.0, -7800.736463157709, 0.0]
['beep', 0.0, -1384.1094236504346, 0.0, 0.0, 0.0, 0.0, -7787.392471717892, 0.0]
['beep', 0.0, -1379.8625922039262, 0.0, 0.0, 0.0, 0.0, -7787.079547295517, 0.0]
['beep', 0.0, -1374.5875805124738, 0.0, 0.0, 0.0, 0.0, -7800.244724779693, 0.0]
['beep', 0.0, -1374.31935957901, 0.0, 0.0, 0.0, 0.0, -7808.917201628352, 0.0]
['beep', 0.0, -1378.32032183651, 0.0, 0.0, 0.0, 0.0, -7801.675236424832, 0.0]
['beep', 0.0, -1383.5506300390518, 0.0, 0.0, 0.0, 0.0, -7787.25836125116, 0.0]
['beep', 0.0, -1382.388339327376, 0.0, 0.0, 0.0, 0.0, -7787.839506606997, 0.0]
['beep', 0.0, -1375.6157607574178, 0.0, 0.0, 0.0, 0.0, -7802.1893265473045, 0.0]
['beep', 0.0, -1374.8110979570267, 0.0, 0.0, 0.0, 0.0, -7807.30787602757, 0.0]
['beep', 0.0, -1378.9238189368034, 0.0, 0.0, 0.0, 0.0, -7800.691759668799, 0.0]
['beep', 0.0, -1382.4777463051971, 0.0, 0.0, 0.0, 0.0, -7787.34776822898, 0.0]
['beep', 0.0, -1381.5389730380743, 0.0, 0.0, 0.0, 0.0, -7787.884210095908, 0.0]
['beep', 0.0, -1376.50983053563, 0.0, 0.0, 0.0, 0.0, -7799.68593116831, 0.0]
['beep', 0.0, -1374.3417113234655, 0.0, 0.0, 0.0, 0.0, -7808.112538827961, 0.0]
['beep', 0.0, -1377.962693925225, 0.0, 0.0, 0.0, 0.0, -7800.915277113352, 0.0]
['beep', 0.0, -1381.4272143157978, 0.0, 0.0, 0.0, 0.0, -7789.515887441145, 0.0]
['beep', 0.0, -1382.7683189831162, 0.0, 0.0, 0.0, 0.0, -7788.554762429567, 0.0]
['beep', 0.0, -1377.5380107805743, 0.0, 0.0, 0.0, 0.0, -7801.742291658198, 0.0]
['beep', 0.0, -1374.9899119126692, 0.0, 0.0, 0.0, 0.0, -7810.235954551215, 0.0]
['beep', 0.0, -1380.421385815309, 0.0, 0.0, 0.0, 0.0, -7802.278733525126, 0.0]
['beep', 0.0, -1384.8470312174597, 0.0, 0.0, 0.0, 0.0, -7788.510058940657, 0.0]
['beep', 0.0, -1382.5224497941078, 0.0, 0.0, 0.0, 0.0, -7789.202963018771, 0.0]
['beep', 0.0, -1378.253266603144, 0.0, 0.0, 0.0, 0.0, -7800.557649202067, 0.0]
['beep', 0.0, -1377.3368450804765, 0.0, 0.0, 0.0, 0.0, -7807.978428361229, 0.0]
['beep', 0.0, -1380.6449032598618, 0.0, 0.0, 0.0, 0.0, -7800.468242224246, 0.0]
['beep', 0.0, -1384.5564585395407, 0.0, 0.0, 0.0, 0.0, -7787.481878695712, 0.0]
['beep', 0.0, -1384.3999963283536, 0.0, 0.0, 0.0, 0.0, -7787.861858351453, 0.0]
['beep', 0.0, -1379.1473363813564, 0.0, 0.0, 0.0, 0.0, -7798.814213134553, 0.0]
['beep', 0.0, -1378.5438392810631, 0.0, 0.0, 0.0, 0.0, -7806.816137649553, 0.0]
['beep', 0.0, -1382.030711416091, 0.0, 0.0, 0.0, 0.0, -7801.742291658198, 0.0]
['beep', 0.0, -1386.1434323958674, 0.0, 0.0, 0.0, 0.0, -7787.124250784427, 0.0]
['beep', 0.0, -1383.707092250239, 0.0, 0.0, 0.0, 0.0, -7786.9901403176955, 0.0]
['beep', 0.0, -1379.482612548186, 0.0, 0.0, 0.0, 0.0, -7798.59069569, 0.0]
['beep', 0.0, -1376.7780514690937, 0.0, 0.0, 0.0, 0.0, -7808.090187083506, 0.0]
['beep', 0.0, -1381.091938148968, 0.0, 0.0, 0.0, 0.0, -7801.138794557905, 0.0]
['beep', 0.0, -1384.2435341171663, 0.0, 0.0, 0.0, 0.0, -7788.621817662933, 0.0]
['beep', 0.0, -1382.835374216482, 0.0, 0.0, 0.0, 0.0, -7787.124250784427, 0.0]
['beep', 0.0, -1377.8956386918592, 0.0, 0.0, 0.0, 0.0, -7799.171841045838, 0.0]
['beep', 0.0, -1374.5652287680184, 0.0, 0.0, 0.0, 0.0, -7807.30787602757, 0.0]
['beep', 0.0, -1379.0802811479905, 0.0, 0.0, 0.0, 0.0, -7800.423538735336, 0.0]
['beep', 0.0, -1386.1881358847781, 0.0, 0.0, 0.0, 0.0, -7787.660692651355, 0.0]
['beep', 0.0, -1382.2765806050993, 0.0, 0.0, 0.0, 0.0, -7786.520753684134, 0.0]
['beep', 0.0, -1377.9179904363145, 0.0, 0.0, 0.0, 0.0, -7799.663579423855, 0.0]
['beep', 0.0, -1375.772222968605, 0.0, 0.0, 0.0, 0.0, -7808.1795940613265, 0.0]
['beep', 0.0, -1380.1755166263006, 0.0, 0.0, 0.0, 0.0, -7800.848221879986, 0.0]
['beep', 0.0, -1384.3552928394429, 0.0, 0.0, 0.0, 0.0, -7786.20782926176, 0.0]
['beep', 0.0, -1383.5282782945965, 0.0, 0.0, 0.0, 0.0, -7784.978483316718, 0.0]
['beep', 0.0, -1377.4933072916638, 0.0, 0.0, 0.0, 0.0, -7797.942495100796, 0.0]
['beep', 0.0, -1376.3980718133537, 0.0, 0.0, 0.0, 0.0, -7807.218469049749, 0.0]
['beep', 0.0, -1378.5214875366078, 0.0, 0.0, 0.0, 0.0, -7801.295256769092, 0.0]
['beep', 0.0, -1384.8470312174597, 0.0, 0.0, 0.0, 0.0, -7789.44883220778, 0.0]
['beep', 0.0, -1383.3941678278647, 0.0, 0.0, 0.0, 0.0, -7787.057195551061, 0.0]
['beep', 0.0, -1376.2639613466217, 0.0, 0.0, 0.0, 0.0, -7798.233067778715, 0.0]
['beep', 0.0, -1376.6215892579066, 0.0, 0.0, 0.0, 0.0, -7805.9444196157965, 0.0]
['beep', 0.0, -1380.9801794266916, 0.0, 0.0, 0.0, 0.0, -7801.138794557905, 0.0]
['beep', 0.0, -1383.774147483605, 0.0, 0.0, 0.0, 0.0, -7787.504230440168, 0.0]
['beep', 0.0, -1381.807193971538, 0.0, 0.0, 0.0, 0.0, -7786.252532750671, 0.0]
['beep', 0.0, -1376.5768857689961, 0.0, 0.0, 0.0, 0.0, -7799.149489301382, 0.0]
['beep', 0.0, -1374.6546357458396, 0.0, 0.0, 0.0, 0.0, -7806.525564971634, 0.0]
['beep', 0.0, -1379.8178887150157, 0.0, 0.0, 0.0, 0.0, -7799.574172446034, 0.0]
['beep', 0.0, -1384.6235137729066, 0.0, 0.0, 0.0, 0.0, -7786.766622873142, 0.0]
['beep', 0.0, -1380.868420704415, 0.0, 0.0, 0.0, 0.0, -7787.817154862542, 0.0]
['beep', 0.0, -1375.1463741238565, 0.0, 0.0, 0.0, 0.0, -7802.055216080573, 0.0]
['beep', 0.0, -1376.6215892579066, 0.0, 0.0, 0.0, 0.0, -7808.894849883896, 0.0]
['beep', 0.0, -1380.5554962820406, 0.0, 0.0, 0.0, 0.0, -7800.803518391075, 0.0]
['beep', 0.0, -1382.902429449848, 0.0, 0.0, 0.0, 0.0, -7787.526582184623, 0.0]
['beep', 0.0, -1383.1482986388564, 0.0, 0.0, 0.0, 0.0, -7786.744271128688, 0.0]
['beep', 0.0, -1378.2979700920548, 0.0, 0.0, 0.0, 0.0, -7799.328303257025, 0.0]
['beep', 0.0, -1377.0909758914681, 0.0, 0.0, 0.0, 0.0, -7808.269001039148, 0.0]
['beep', 0.0, -1380.2649236041218, 0.0, 0.0, 0.0, 0.0, -7802.412843991858, 0.0]
['beep', 0.0, -1386.1881358847781, 0.0, 0.0, 0.0, 0.0, -7788.890038596397, 0.0]
['beep', 0.0, -1385.741100995672, 0.0, 0.0, 0.0, 0.0, -7786.92308508433, 0.0]
['beep', 0.0, -1380.6672550043172, 0.0, 0.0, 0.0, 0.0, -7798.858916623464, 0.0]
['beep', 0.0, -1379.192039870267, 0.0, 0.0, 0.0, 0.0, -7809.051312095084, 0.0]
['beep', 0.0, -1383.1035951499457, 0.0, 0.0, 0.0, 0.0, -7801.138794557905, 0.0]
['beep', 0.0, -1389.1385661528786, 0.0, 0.0, 0.0, 0.0, -7787.97361707373, 0.0]
['beep', 0.0, -1387.998627185658, 0.0, 0.0, 0.0, 0.0, -7788.085375796006, 0.0]
['beep', 0.0, -1380.3319788374877, 0.0, 0.0, 0.0, 0.0, -7799.887096868408, 0.0]
['beep', 0.0, -1377.962693925225, 0.0, 0.0, 0.0, 0.0, -7808.559573717067, 0.0]
['beep', 0.0, -1383.0588916610352, 0.0, 0.0, 0.0, 0.0, -7801.87640212493, 0.0]
['beep', 0.0, -1385.7187492512167, 0.0, 0.0, 0.0, 0.0, -7789.068852552039, 0.0]
['beep', 0.0, -1385.7187492512167, 0.0, 0.0, 0.0, 0.0, -7789.851163607975, 0.0]
['beep', 0.0, -1380.935475937781, 0.0, 0.0, 0.0, 0.0, -7799.0824340680165, 0.0]
['beep', 0.0, -1379.6390747593732, 0.0, 0.0, 0.0, 0.0, -7807.933724872319, 0.0]
['beep', 0.0, -1382.8800777053928, 0.0, 0.0, 0.0, 0.0, -7803.530431214623, 0.0]
['beep', 0.0, -1387.7527579966495, 0.0, 0.0, 0.0, 0.0, -7787.34776822898, 0.0]
['beep', 0.0, -1386.6575225183396, 0.0, 0.0, 0.0, 0.0, -7787.213657762249, 0.0]
['beep', 0.0, -1379.6837782482837, 0.0, 0.0, 0.0, 0.0, -7800.691759668799, 0.0]
['beep', 0.0, -1377.7168247362167, 0.0, 0.0, 0.0, 0.0, -7809.028960350628, 0.0]
['beep', 0.0, -1381.8518974604485, 0.0, 0.0, 0.0, 0.0, -7801.272905024637, 0.0]
['beep', 0.0, -1385.4281765732976, 0.0, 0.0, 0.0, 0.0, -7788.152431029372, 0.0]
['beep', 0.0, -1384.7129207507278, 0.0, 0.0, 0.0, 0.0, -7790.588771175, 0.0]
['beep', 0.0, -1380.5107927931301, 0.0, 0.0, 0.0, 0.0, -7799.216544534749, 0.0]
['beep', 0.0, -1378.4097288143312, 0.0, 0.0, 0.0, 0.0, -7807.866669638953, 0.0]
['beep', 0.0, -1382.678912005295, 0.0, 0.0, 0.0, 0.0, -7804.111576570461, 0.0]
['beep', 0.0, -1387.6186475299178, 0.0, 0.0, 0.0, 0.0, -7790.7452333861875, 0.0]
['beep', 0.0, -1386.612819029429, 0.0, 0.0, 0.0, 0.0, -7789.046500807584, 0.0]
['beep', 0.0, -1380.5554962820406, 0.0, 0.0, 0.0, 0.0, -7799.797689890586, 0.0]
['beep', 0.0, -1377.2474381026552, 0.0, 0.0, 0.0, 0.0, -7807.330227772025, 0.0]
['beep', 0.0, -1381.6507317603507, 0.0, 0.0, 0.0, 0.0, -7803.709245170266, 0.0]
['beep', 0.0, -1386.1881358847781, 0.0, 0.0, 0.0, 0.0, -7791.9745793312295, 0.0]
['beep', 0.0, -1385.3387695954764, 0.0, 0.0, 0.0, 0.0, -7789.068852552039, 0.0]
['beep', 0.0, -1378.2756183475994, 0.0, 0.0, 0.0, 0.0, -7799.417710234847, 0.0]
['beep', 0.0, -1379.0802811479905, 0.0, 0.0, 0.0, 0.0, -7806.637323693911, 0.0]
['beep', 0.0, -1381.6507317603507, 0.0, 0.0, 0.0, 0.0, -7804.111576570461, 0.0]
['beep', 0.0, -1384.645865517362, 0.0, 0.0, 0.0, 0.0, -7791.549896186579, 0.0]
['beep', 0.0, -1383.5506300390518, 0.0, 0.0, 0.0, 0.0, -7791.885172353408, 0.0]
['beep', 0.0, -1378.4991357921524, 0.0, 0.0, 0.0, 0.0, -7802.368140502947, 0.0]
['beep', 0.0, -1377.6721212473062, 0.0, 0.0, 0.0, 0.0, -7807.933724872319, 0.0]
['beep', 0.0, -1381.1366416378787, 0.0, 0.0, 0.0, 0.0, -7803.530431214623, 0.0]
['beep', 0.0, -1385.6516940178508, 0.0, 0.0, 0.0, 0.0, -7790.052329308073, 0.0]
['beep', 0.0, -1385.897563206859, 0.0, 0.0, 0.0, 0.0, -7788.353596729469, 0.0]
['beep', 0.0, -1380.3990340708535, 0.0, 0.0, 0.0, 0.0, -7800.222373035237, 0.0]
['beep', 0.0, -1379.5273160370966, 0.0, 0.0, 0.0, 0.0, -7809.140719072905, 0.0]
['beep', 0.0, -1381.9413044382698, 0.0, 0.0, 0.0, 0.0, -7806.145585315894, 0.0]
['beep', 0.0, -1385.9422666957698, 0.0, 0.0, 0.0, 0.0, -7793.203925276271, 0.0]
['beep', 0.0, -1386.545763796063, 0.0, 0.0, 0.0, 0.0, -7790.834640364009, 0.0]
['beep', 0.0, -1380.1531648818452, 0.0, 0.0, 0.0, 0.0, -7801.786995147109, 0.0]
['beep', 0.0, -1375.9063334353368, 0.0, 0.0, 0.0, 0.0, -7810.079492340028, 0.0]
['beep', 0.0, -1380.711958493228, 0.0, 0.0, 0.0, 0.0, -7802.122271313939, 0.0]
['beep', 0.0, -1385.6516940178508, 0.0, 0.0, 0.0, 0.0, -7789.82881186352, 0.0]
['beep', 0.0, -1384.6235137729066, 0.0, 0.0, 0.0, 0.0, -7788.822983363031, 0.0]
['beep', 0.0, -1377.5380107805743, 0.0, 0.0, 0.0, 0.0, -7800.669407924343, 0.0]
['beep', 0.0, -1375.7275194796944, 0.0, 0.0, 0.0, 0.0, -7812.046445852095, 0.0]
['beep', 0.0, -1381.673083504806, 0.0, 0.0, 0.0, 0.0, -7804.648018437389, 0.0]
['beep', 0.0, -1387.1716126408116, 0.0, 0.0, 0.0, 0.0, -7789.225314763226, 0.0]
['beep', 0.0, -1386.5010603071523, 0.0, 0.0, 0.0, 0.0, -7787.25836125116, 0.0]
['beep', 0.0, -1380.0190544151133, 0.0, 0.0, 0.0, 0.0, -7798.858916623464, 0.0]
['beep', 0.0, -1377.8285834584933, 0.0, 0.0, 0.0, 0.0, -7808.1795940613265, 0.0]
['beep', 0.0, -1382.611856771929, 0.0, 0.0, 0.0, 0.0, -7802.636361436411, 0.0]
['beep', 0.0, -1388.736234752683, 0.0, 0.0, 0.0, 0.0, -7789.82881186352, 0.0]
['beep', 0.0, -1387.5068888076412, 0.0, 0.0, 0.0, 0.0, -7785.738442628199, 0.0]
['beep', 0.0, -1378.901467192348, 0.0, 0.0, 0.0, 0.0, -7796.668445666844, 0.0]
['beep', 0.0, -1377.6721212473062, 0.0, 0.0, 0.0, 0.0, -7805.564439960056, 0.0]
['beep', 0.0, -1381.8295457159932, 0.0, 0.0, 0.0, 0.0, -7801.2505532801815, 0.0]
['beep', 0.0, -1384.6905690062724, 0.0, 0.0, 0.0, 0.0, -7789.471183952235, 0.0]
['beep', 0.0, -1383.2377056166777, 0.0, 0.0, 0.0, 0.0, -7787.2807129956145, 0.0]
['beep', 0.0, -1377.9179904363145, 0.0, 0.0, 0.0, 0.0, -7797.607218933967, 0.0]
['beep', 0.0, -1376.4651270467195, 0.0, 0.0, 0.0, 0.0, -7808.1795940613265, 0.0]
['beep', 0.0, -1381.091938148968, 0.0, 0.0, 0.0, 0.0, -7803.709245170266, 0.0]
['beep', 0.0, -1385.8752114624037, 0.0, 0.0, 0.0, 0.0, -7791.326378742026, 0.0]
['beep', 0.0, -1385.964618440225, 0.0, 0.0, 0.0, 0.0, -7786.498401939679, 0.0]
['beep', 0.0, -1379.4379090592754, 0.0, 0.0, 0.0, 0.0, -7799.8423933794975, 0.0]
['beep', 0.0, -1377.2474381026552, 0.0, 0.0, 0.0, 0.0, -7812.135852829916, 0.0]
['beep', 0.0, -1381.5389730380743, 0.0, 0.0, 0.0, 0.0, -7806.659675438366, 0.0]
['beep', 0.0, -1386.031673673591, 0.0, 0.0, 0.0, 0.0, -7791.639303164399, 0.0]
['beep', 0.0, -1385.2940661065659, 0.0, 0.0, 0.0, 0.0, -7785.581980417011, 0.0]
['beep', 0.0, -1379.706129992739, 0.0, 0.0, 0.0, 0.0, -7796.690797411299, 0.0]
['beep', 0.0, -1375.9063334353368, 0.0, 0.0, 0.0, 0.0, -7808.02313185014, 0.0]
['beep', 0.0, -1378.1415078808675, 0.0, 0.0, 0.0, 0.0, -7803.798652148087, 0.0]
['beep', 0.0, -1381.6060282714402, 0.0, 0.0, 0.0, 0.0, -7788.375948473925, 0.0]
['beep', 0.0, -1382.5000980496525, 0.0, 0.0, 0.0, 0.0, -7783.704433882765, 0.0]
['beep', 0.0, -1382.4777463051971, 0.0, 0.0, 0.0, 0.0, -7797.83073637852, 0.0]
['beep', 0.0, -1380.3096270930323, 0.0, 0.0, 0.0, 0.0, -7809.341884773003, 0.0]
['beep', 0.0, -1386.098728906957, 0.0, 0.0, 0.0, 0.0, -7802.636361436411, 0.0]
['beep', 0.0, -1389.5856010419848, 0.0, 0.0, 0.0, 0.0, -7789.940570585796, 0.0]
['beep', 0.0, -1388.6021242859513, 0.0, 0.0, 0.0, 0.0, -7788.487707196201, 0.0]
['beep', 0.0, -1384.288237606077, 0.0, 0.0, 0.0, 0.0, -7800.490593968701, 0.0]
['beep', 0.0, -1381.807193971538, 0.0, 0.0, 0.0, 0.0, -7809.073663839539, 0.0]
['beep', 0.0, -1385.5622870400296, 0.0, 0.0, 0.0, 0.0, -7805.765605660154, 0.0]
['beep', 0.0, -1389.317380108521, 0.0, 0.0, 0.0, 0.0, -7792.600428175978, 0.0]
['beep', 0.0, -1389.2950283640657, 0.0, 0.0, 0.0, 0.0, -7789.404128718869, 0.0]
['beep', 0.0, -1385.4058248288425, 0.0, 0.0, 0.0, 0.0, -7802.457547480768, 0.0]
['beep', 0.0, -1383.4388713167752, 0.0, 0.0, 0.0, 0.0, -7811.957038874274, 0.0]
['beep', 0.0, -1386.411653329331, 0.0, 0.0, 0.0, 0.0, -7805.989123104707, 0.0]
['beep', 0.0, -1392.4019208433535, 0.0, 0.0, 0.0, 0.0, -7794.276809010126, 0.0]
['beep', 0.0, -1389.317380108521, 0.0, 0.0, 0.0, 0.0, -7791.572247931033, 0.0]
['beep', 0.0, -1384.1094236504346, 0.0, 0.0, 0.0, 0.0, -7803.910410870363, 0.0]
['beep', 0.0, -1384.2658858616217, 0.0, 0.0, 0.0, 0.0, -7810.8170999070535, 0.0]
['beep', 0.0, -1387.9762754412027, 0.0, 0.0, 0.0, 0.0, -7802.21167829176, 0.0]
['beep', 0.0, -1392.0442929320686, 0.0, 0.0, 0.0, 0.0, -7789.717053141243, 0.0]
['beep', 0.0, -1390.993760942669, 0.0, 0.0, 0.0, 0.0, -7787.817154862542, 0.0]
['beep', 0.0, -1387.2833713630882, 0.0, 0.0, 0.0, 0.0, -7799.909448612863, 0.0]
['beep', 0.0, -1383.6623887613284, 0.0, 0.0, 0.0, 0.0, -7809.565402217556, 0.0]
['beep', 0.0, -1384.7799759840937, 0.0, 0.0, 0.0, 0.0, -7805.475032982235, 0.0]
['beep', 0.0, -1387.9539236967473, 0.0, 0.0, 0.0, 0.0, -7791.996931075684, 0.0]
['beep', 0.0, -1387.573944041007, 0.0, 0.0, 0.0, 0.0, -7790.231143263715, 0.0]
['beep', 0.0, -1384.6011620284512, 0.0, 0.0, 0.0, 0.0, -7798.948323601285, 0.0]
['beep', 0.0, -1383.3941678278647, 0.0, 0.0, 0.0, 0.0, -7808.0007801056845, 0.0]
['beep', 0.0, -1385.5175835511188, 0.0, 0.0, 0.0, 0.0, -7802.92693411433, 0.0]
['beep', 0.0, -1389.4067870863423, 0.0, 0.0, 0.0, 0.0, -7790.365253730447, 0.0]
['beep', 0.0, -1390.1667463978229, 0.0, 0.0, 0.0, 0.0, -7787.25836125116, 0.0]
['beep', 0.0, -1386.1434323958674, 0.0, 0.0, 0.0, 0.0, -7796.757852644665, 0.0]
['beep', 0.0, -1383.7294439946943, 0.0, 0.0, 0.0, 0.0, -7809.028960350628, 0.0]
['beep', 0.0, -1385.3164178510212, 0.0, 0.0, 0.0, 0.0, -7808.157242316872, 0.0]
['beep', 0.0, -1391.6643132763284, 0.0, 0.0, 0.0, 0.0, -7794.254457265671, 0.0]
['beep', 0.0, -1391.9772376987025, 0.0, 0.0, 0.0, 0.0, -7789.44883220778, 0.0]
['beep', 0.0, -1388.0880341634793, 0.0, 0.0, 0.0, 0.0, -7800.35648350197, 0.0]
['beep', 0.0, -1384.2435341171663, 0.0, 0.0, 0.0, 0.0, -7811.621762707444, 0.0]
['beep', 0.0, -1389.3620835974318, 0.0, 0.0, 0.0, 0.0, -7806.659675438366, 0.0]
['beep', 0.0, -1395.5088133226411, 0.0, 0.0, 0.0, 0.0, -7792.131041542416, 0.0]
['beep', 0.0, -1394.838260988982, 0.0, 0.0, 0.0, 0.0, -7790.432308963813, 0.0]
['beep', 0.0, -1389.3397318529765, 0.0, 0.0, 0.0, 0.0, -7803.105748069972, 0.0]
['beep', 0.0, -1379.907295692837, 0.0, 0.0, 0.0, 0.0, -7809.967733617751, 0.0]
['beep', 0.0, -1379.6390747593732, 0.0, 0.0, 0.0, 0.0, -7802.524602714134, 0.0]
['beep', 0.0, -1382.5671532830183, 0.0, 0.0, 0.0, 0.0, -7790.141736285894, 0.0]
['beep', 0.0, -1382.187173627278, 0.0, 0.0, 0.0, 0.0, -7784.129117027416, 0.0]
['beep', 0.0, -1376.9792171691915, 0.0, 0.0, 0.0, 0.0, -7794.656788665866, 0.0]
['beep', 0.0, -1375.1463741238565, 0.0, 0.0, 0.0, 0.0, -7805.966771360251, 0.0]
['beep', 0.0, -1377.448603802753, 0.0, 0.0, 0.0, 0.0, -7800.937628857807, 0.0]
['beep', 0.0, -1383.0588916610352, 0.0, 0.0, 0.0, 0.0, -7787.079547295517, 0.0]
['beep', 0.0, -1384.0423684170687, 0.0, 0.0, 0.0, 0.0, -7784.531448427612, 0.0]
['beep', 0.0, -1376.8451067024598, 0.0, 0.0, 0.0, 0.0, -7796.556686944567, 0.0]
['beep', 0.0, -1374.5652287680184, 0.0, 0.0, 0.0, 0.0, -7806.860841138464, 0.0]
['beep', 0.0, -1377.1133276359235, 0.0, 0.0, 0.0, 0.0, -7801.786995147109, 0.0]
['beep', 0.0, -1382.8800777053928, 0.0, 0.0, 0.0, 0.0, -7787.906561840363, 0.0]
['beep', 0.0, -1382.030711416091, 0.0, 0.0, 0.0, 0.0, -7785.000835061173, 0.0]
['beep', 0.0, -1376.0180921576134, 0.0, 0.0, 0.0, 0.0, -7793.539201443101, 0.0]
['beep', 0.0, -1373.8276212009932, 0.0, 0.0, 0.0, 0.0, -7804.290390526104, 0.0]
['beep', 0.0, -1376.4427753022642, 0.0, 0.0, 0.0, 0.0, -7802.435195736313, 0.0]
['beep', 0.0, -1381.5613247825295, 0.0, 0.0, 0.0, 0.0, -7788.174782773827, 0.0]
['beep', 0.0, -1381.4942695491636, 0.0, 0.0, 0.0, 0.0, -7783.9950065606845, 0.0]
['beep', 0.0, -1375.9063334353368, 0.0, 0.0, 0.0, 0.0, -7794.075643310028, 0.0]
['beep', 0.0, -1373.514696778619, 0.0, 0.0, 0.0, 0.0, -7804.849184137486, 0.0]
['beep', 0.0, -1378.1191561364124, 0.0, 0.0, 0.0, 0.0, -7799.1941927902935, 0.0]
['beep', 0.0, -1384.288237606077, 0.0, 0.0, 0.0, 0.0, -7787.213657762249, 0.0]
['beep', 0.0, -1383.6847405057838, 0.0, 0.0, 0.0, 0.0, -7784.01735830514, 0.0]
['beep', 0.0, -1377.7838799695826, 0.0, 0.0, 0.0, 0.0, -7795.752024144176, 0.0]
['beep', 0.0, -1373.8946764343593, 0.0, 0.0, 0.0, 0.0, -7805.5420882156, 0.0]
['beep', 0.0, -1377.8285834584933, 0.0, 0.0, 0.0, 0.0, -7804.513907970657, 0.0]
['beep', 0.0, -1383.5953335279626, 0.0, 0.0, 0.0, 0.0, -7789.11355604095, 0.0]
['beep', 0.0, -1383.5059265501413, 0.0, 0.0, 0.0, 0.0, -7781.2904454815925, 0.0]
['beep', 0.0, -1379.3485020814542, 0.0, 0.0, 0.0, 0.0, -7794.433271221313, 0.0]
['beep', 0.0, -1376.6662927468174, 0.0, 0.0, 0.0, 0.0, -7804.35744575947, 0.0]
['beep', 0.0, -1379.192039870267, 0.0, 0.0, 0.0, 0.0, -7801.2505532801815, 0.0]
['beep', 0.0, -1384.5564585395407, 0.0, 0.0, 0.0, 0.0, -7788.800631618576, 0.0]
['beep', 0.0, -1384.8246794730044, 0.0, 0.0, 0.0, 0.0, -7782.92212282683, 0.0]
['beep', 0.0, -1377.515659036119, 0.0, 0.0, 0.0, 0.0, -7794.142698543394, 0.0]
['beep', 0.0, -1375.4592985462307, 0.0, 0.0, 0.0, 0.0, -7805.139756815405, 0.0]
['beep', 0.0, -1377.6497695028509, 0.0, 0.0, 0.0, 0.0, -7802.748120158687, 0.0]
['beep', 0.0, -1382.030711416091, 0.0, 0.0, 0.0, 0.0, -7788.174782773827, 0.0]
['beep', 0.0, -1383.8412027169709, 0.0, 0.0, 0.0, 0.0, -7781.692776881788, 0.0]
['beep', 0.0, -1379.706129992739, 0.0, 0.0, 0.0, 0.0, -7792.578076431522, 0.0]
['beep', 0.0, -1375.7945747130602, 0.0, 0.0, 0.0, 0.0, -7803.373969003435, 0.0]
['beep', 0.0, -1378.6555980033397, 0.0, 0.0, 0.0, 0.0, -7800.490593968701, 0.0]
['beep', 0.0, -1384.0647201615238, 0.0, 0.0, 0.0, 0.0, -7788.465355451746, 0.0]
['beep', 0.0, -1385.0034934286468, 0.0, 0.0, 0.0, 0.0, -7783.235047249204, 0.0]
['beep', 0.0, -1379.3037985925434, 0.0, 0.0, 0.0, 0.0, -7793.025111320629, 0.0]
['beep', 0.0, -1377.8285834584933, 0.0, 0.0, 0.0, 0.0, -7804.759777159665, 0.0]
['beep', 0.0, -1379.1696881258117, 0.0, 0.0, 0.0, 0.0, -7801.295256769092, 0.0]
['beep', 0.0, -1383.5059265501413, 0.0, 0.0, 0.0, 0.0, -7786.92308508433, 0.0]
['beep', 0.0, -1383.3941678278647, 0.0, 0.0, 0.0, 0.0, -7784.084413538506, 0.0]
['beep', 0.0, -1378.1862113697782, 0.0, 0.0, 0.0, 0.0, -7791.952227586774, 0.0]
['beep', 0.0, -1373.872324689904, 0.0, 0.0, 0.0, 0.0, -7804.178631803827, 0.0]
['beep', 0.0, -1375.6828159907839, 0.0, 0.0, 0.0, 0.0, -7802.815175392053, 0.0]
['beep', 0.0, -1382.7236154942054, 0.0, 0.0, 0.0, 0.0, -7787.660692651355, 0.0]
['beep', 0.0, -1381.382510826887, 0.0, 0.0, 0.0, 0.0, -7784.866724594442, 0.0]
['beep', 0.0, -1376.6886444912725, 0.0, 0.0, 0.0, 0.0, -7794.410919476858, 0.0]
['beep', 0.0, -1373.2241241007, 0.0, 0.0, 0.0, 0.0, -7802.904582369874, 0.0]
['beep', 0.0, -1377.582714269485, 0.0, 0.0, 0.0, 0.0, -7800.602352690978, 0.0]
['beep', 0.0, -1382.7683189831162, 0.0, 0.0, 0.0, 0.0, -7786.476050195223, 0.0]
['beep', 0.0, -1381.9413044382698, 0.0, 0.0, 0.0, 0.0, -7780.709300125754, 0.0]
['beep', 0.0, -1376.5768857689961, 0.0, 0.0, 0.0, 0.0, -7790.611122919456, 0.0]
['beep', 0.0, -1373.514696778619, 0.0, 0.0, 0.0, 0.0, -7801.965809102751, 0.0]
['beep', 0.0, -1375.4145950573202, 0.0, 0.0, 0.0, 0.0, -7797.87543986743, 0.0]
['beep', 0.0, -1381.6060282714402, 0.0, 0.0, 0.0, 0.0, -7784.129117027416, 0.0]
['beep', 0.0, -1382.6342085163842, 0.0, 0.0, 0.0, 0.0, -7781.133983270405, 0.0]
['beep', 0.0, -1375.2357811016777, 0.0, 0.0, 0.0, 0.0, -7789.49353569669, 0.0]
['beep', 0.0, -1371.9724264112028, 0.0, 0.0, 0.0, 0.0, -7801.272905024637, 0.0]
['beep', 0.0, -1376.800403213549, 0.0, 0.0, 0.0, 0.0, -7798.4342334788125, 0.0]
['beep', 0.0, -1382.32128409401, 0.0, 0.0, 0.0, 0.0, -7783.8161926050425, 0.0]
['beep', 0.0, -1382.388339327376, 0.0, 0.0, 0.0, 0.0, -7782.4080327043575, 0.0]
['beep', 0.0, -1378.4767840476973, 0.0, 0.0, 0.0, 0.0, -7791.795765375587, 0.0]
['beep', 0.0, -1373.0453101450576, 0.0, 0.0, 0.0, 0.0, -7801.2505532801815, 0.0]
['beep', 0.0, -1374.6099322569291, 0.0, 0.0, 0.0, 0.0, -7800.40118699088, 0.0]
['beep', 0.0, -1382.611856771929, 0.0, 0.0, 0.0, 0.0, -7786.654864150866, 0.0]
['beep', 0.0, -1388.4456620747642, 0.0, 0.0, 0.0, 0.0, -7780.664596636844, 0.0]
['beep', 0.0, -1382.7236154942054, 0.0, 0.0, 0.0, 0.0, -7791.818117120042, 0.0]
['beep', 0.0, -1376.7333479801832, 0.0, 0.0, 0.0, 0.0, -7803.6421899369, 0.0]
['beep', 0.0, -1376.3310165799876, 0.0, 0.0, 0.0, 0.0, -7799.887096868408, 0.0]
['beep', 0.0, -1382.0530631605463, 0.0, 0.0, 0.0, 0.0, -7786.453698450769, 0.0]
['beep', 0.0, -1384.7799759840937, 0.0, 0.0, 0.0, 0.0, -7779.5917129029895, 0.0]
['beep', 0.0, -1380.1978683707557, 0.0, 0.0, 0.0, 0.0, -7790.521715941634, 0.0]
['beep', 0.0, -1375.9286851797922, 0.0, 0.0, 0.0, 0.0, -7803.195155047793, 0.0]
['beep', 0.0, -1377.6050660139401, 0.0, 0.0, 0.0, 0.0, -7802.770471903143, 0.0]
['beep', 0.0, -1382.2542288606442, 0.0, 0.0, 0.0, 0.0, -7789.068852552039, 0.0]
['beep', 0.0, -1381.0248829156021, 0.0, 0.0, 0.0, 0.0, -7783.3468059714805, 0.0]
['beep', 0.0, -1378.3650253254207, 0.0, 0.0, 0.0, 0.0, -7792.131041542416, 0.0]
['beep', 0.0, -1377.3815485693872, 0.0, 0.0, 0.0, 0.0, -7804.156280059372, 0.0]
['beep', 0.0, -1377.0239206581023, 0.0, 0.0, 0.0, 0.0, -7801.675236424832, 0.0]
['beep', 0.0, -1382.4777463051971, 0.0, 0.0, 0.0, 0.0, -7788.39830021838, 0.0]
['beep', 0.0, -1382.7459672386608, 0.0, 0.0, 0.0, 0.0, -7783.68208213831, 0.0]
['beep', 0.0, -1379.41555731482, 0.0, 0.0, 0.0, 0.0, -7792.354558986969, 0.0]
['beep', 0.0, -1377.3144933360213, 0.0, 0.0, 0.0, 0.0, -7801.49642246919, 0.0]
['beep', 0.0, -1377.9850456696804, 0.0, 0.0, 0.0, 0.0, -7799.440061979301, 0.0]
['beep', 0.0, -1383.1706503833116, 0.0, 0.0, 0.0, 0.0, -7785.313759483548, 0.0]
['beep', 0.0, -1382.7683189831162, 0.0, 0.0, 0.0, 0.0, -7781.871590837431, 0.0]
['beep', 0.0, -1377.5380107805743, 0.0, 0.0, 0.0, 0.0, -7792.39926247588, 0.0]
['beep', 0.0, -1375.7945747130602, 0.0, 0.0, 0.0, 0.0, -7801.407015491369, 0.0]
['beep', 0.0, -1378.1638596253229, 0.0, 0.0, 0.0, 0.0, -7800.110614312961, 0.0]
['beep', 0.0, -1384.7352724951832, 0.0, 0.0, 0.0, 0.0, -7787.146602528883, 0.0]
['beep', 0.0, -1386.389301584876, 0.0, 0.0, 0.0, 0.0, -7784.687910638799, 0.0]
['beep', 0.0, -1379.9743509262028, 0.0, 0.0, 0.0, 0.0, -7793.427442720824, 0.0]
['beep', 0.0, -1376.1522026243451, 0.0, 0.0, 0.0, 0.0, -7802.301085269581, 0.0]
['beep', 0.0, -1377.0239206581023, 0.0, 0.0, 0.0, 0.0, -7800.334131757514, 0.0]
['beep', 0.0, -1380.6449032598618, 0.0, 0.0, 0.0, 0.0, -7790.074681052528, 0.0]
['beep', 0.0, -1380.3096270930323, 0.0, 0.0, 0.0, 0.0, -7784.151468771872, 0.0]
['beep', 0.0, -1376.8227549580045, 0.0, 0.0, 0.0, 0.0, -7791.393433975391, 0.0]
['beep', 0.0, -1372.1065368779346, 0.0, 0.0, 0.0, 0.0, -7803.038692836606, 0.0]
['beep', 0.0, -1374.0511386455464, 0.0, 0.0, 0.0, 0.0, -7802.792823647598, 0.0]
['beep', 0.0, -1382.9247811943033, 0.0, 0.0, 0.0, 0.0, -7786.5878089175, 0.0]
['beep', 0.0, -1380.8237172155043, 0.0, 0.0, 0.0, 0.0, -7781.268093737137, 0.0]
['beep', 0.0, -1377.292141591566, 0.0, 0.0, 0.0, 0.0, -7792.39926247588, 0.0]
['beep', 0.0, -1373.9393799232698, 0.0, 0.0, 0.0, 0.0, -7804.022169592639, 0.0]
['beep', 0.0, -1378.4097288143312, 0.0, 0.0, 0.0, 0.0, -7800.758814902165, 0.0]
['beep', 0.0, -1384.4670515617195, 0.0, 0.0, 0.0, 0.0, -7788.487707196201, 0.0]
['beep', 0.0, -1382.7683189831162, 0.0, 0.0, 0.0, 0.0, -7783.525619927123, 0.0]
['beep', 0.0, -1378.387377069876, 0.0, 0.0, 0.0, 0.0, -7790.879343852919, 0.0]
['beep', 0.0, -1375.705167735239, 0.0, 0.0, 0.0, 0.0, -7804.759777159665, 0.0]
['beep', 0.0, -1379.0355776590798, 0.0, 0.0, 0.0, 0.0, -7803.865707381453, 0.0]
['beep', 0.0, -1381.516621293619, 0.0, 0.0, 0.0, 0.0, -7788.800631618576, 0.0]
['beep', 0.0, -1381.4719178047083, 0.0, 0.0, 0.0, 0.0, -7782.363329215447, 0.0]
['beep', 0.0, -1378.610894514429, 0.0, 0.0, 0.0, 0.0, -7792.309855498059, 0.0]
['beep', 0.0, -1375.4592985462307, 0.0, 0.0, 0.0, 0.0, -7802.92693411433, 0.0]
['beep', 0.0, -1377.3144933360213, 0.0, 0.0, 0.0, 0.0, -7798.188364289805, 0.0]
['beep', 0.0, -1384.1094236504346, 0.0, 0.0, 0.0, 0.0, -7788.957093829763, 0.0]
['beep', 0.0, -1382.991836427669, 0.0, 0.0, 0.0, 0.0, -7782.475087937723, 0.0]
['beep', 0.0, -1377.3144933360213, 0.0, 0.0, 0.0, 0.0, -7791.527544442123, 0.0]
['beep', 0.0, -1375.1687258683116, 0.0, 0.0, 0.0, 0.0, -7802.636361436411, 0.0]
['beep', 0.0, -1379.0579294035351, 0.0, 0.0, 0.0, 0.0, -7799.618875934944, 0.0]
['beep', 0.0, -1384.2211823727112, 0.0, 0.0, 0.0, 0.0, -7788.174782773827, 0.0]
['beep', 0.0, -1383.8859062058814, 0.0, 0.0, 0.0, 0.0, -7782.810364104554, 0.0]
['beep', 0.0, -1377.4709555472084, 0.0, 0.0, 0.0, 0.0, -7793.7403671431985, 0.0]
['beep', 0.0, -1376.4651270467195, 0.0, 0.0, 0.0, 0.0, -7804.0668730815505, 0.0]
['beep', 0.0, -1379.9967026706581, 0.0, 0.0, 0.0, 0.0, -7801.83169863602, 0.0]
['beep', 0.0, -1384.7799759840937, 0.0, 0.0, 0.0, 0.0, -7789.247666507682, 0.0]
['beep', 0.0, -1384.3329410949875, 0.0, 0.0, 0.0, 0.0, -7783.860896093953, 0.0]
['beep', 0.0, -1378.0073974141358, 0.0, 0.0, 0.0, 0.0, -7795.081471810517, 0.0]
['beep', 0.0, -1376.4651270467195, 0.0, 0.0, 0.0, 0.0, -7803.843355636997, 0.0]
['beep', 0.0, -1380.868420704415, 0.0, 0.0, 0.0, 0.0, -7800.423538735336, 0.0]
['beep', 0.0, -1383.8859062058814, 0.0, 0.0, 0.0, 0.0, -7791.415785719846, 0.0]
['beep', 0.0, -1381.6060282714402, 0.0, 0.0, 0.0, 0.0, -7785.537276928101, 0.0]
['beep', 0.0, -1377.0462724025574, 0.0, 0.0, 0.0, 0.0, -7791.818117120042, 0.0]
['beep', 0.0, -1375.2357811016777, 0.0, 0.0, 0.0, 0.0, -7802.748120158687, 0.0]
['beep', 0.0, -1377.7838799695826, 0.0, 0.0, 0.0, 0.0, -7801.854050380475, 0.0]
['beep', 0.0, -1382.4553945607418, 0.0, 0.0, 0.0, 0.0, -7787.548933929078, 0.0]
['beep', 0.0, -1382.611856771929, 0.0, 0.0, 0.0, 0.0, -7782.1174600264385, 0.0]
['beep', 0.0, -1378.0744526475016, 0.0, 0.0, 0.0, 0.0, -7792.06398630905, 0.0]
['beep', 0.0, -1376.6215892579066, 0.0, 0.0, 0.0, 0.0, -7804.78212890412, 0.0]
['beep', 0.0, -1380.1978683707557, 0.0, 0.0, 0.0, 0.0, -7802.25638178067, 0.0]
['beep', 0.0, -1385.0034934286468, 0.0, 0.0, 0.0, 0.0, -7788.599465918478, 0.0]
['beep', 0.0, -1385.1823073842893, 0.0, 0.0, 0.0, 0.0, -7781.44690769278, 0.0]
['beep', 0.0, -1380.7566619821384, 0.0, 0.0, 0.0, 0.0, -7791.281675253114, 0.0]
['beep', 0.0, -1377.8732869474038, 0.0, 0.0, 0.0, 0.0, -7804.960942859762, 0.0]
['beep', 0.0, -1381.9413044382698, 0.0, 0.0, 0.0, 0.0, -7804.35744575947, 0.0]
['beep', 0.0, -1388.5574207970405, 0.0, 0.0, 0.0, 0.0, -7790.164088030349, 0.0]
['beep', 0.0, -1388.3339033524876, 0.0, 0.0, 0.0, 0.0, -7781.424555948324, 0.0]
['beep', 0.0, -1383.1706503833116, 0.0, 0.0, 0.0, 0.0, -7790.946399086285, 0.0]
['beep', 0.0, -1377.6721212473062, 0.0, 0.0, 0.0, 0.0, -7806.056178338073, 0.0]
['beep', 0.0, -1379.5273160370966, 0.0, 0.0, 0.0, 0.0, -7803.821003892542, 0.0]
['beep', 0.0, -1384.8470312174597, 0.0, 0.0, 0.0, 0.0, -7790.7452333861875, 0.0]
['beep', 0.0, -1387.126909151901, 0.0, 0.0, 0.0, 0.0, -7781.223390248227, 0.0]
['beep', 0.0, -1379.7508334816496, 0.0, 0.0, 0.0, 0.0, -7789.44883220778, 0.0]
['beep', 0.0, -1374.2299526011889, 0.0, 0.0, 0.0, 0.0, -7802.25638178067, 0.0]
['beep', 0.0, -1375.839278201971, 0.0, 0.0, 0.0, 0.0, -7801.630532935922, 0.0]
['beep', 0.0, -1383.6176852724177, 0.0, 0.0, 0.0, 0.0, -7790.231143263715, 0.0]
['beep', 0.0, -1386.7916329850714, 0.0, 0.0, 0.0, 0.0, -7783.525619927123, 0.0]
['beep', 0.0, -1380.7790137265938, 0.0, 0.0, 0.0, 0.0, -7792.935704342807, 0.0]
['beep', 0.0, -1376.286313091077, 0.0, 0.0, 0.0, 0.0, -7804.268038781648, 0.0]
['beep', 0.0, -1378.9908741701693, 0.0, 0.0, 0.0, 0.0, -7803.68689342581, 0.0]
['beep', 0.0, -1385.3164178510212, 0.0, 0.0, 0.0, 0.0, -7789.49353569669, 0.0]
['beep', 0.0, -1386.0540254180462, 0.0, 0.0, 0.0, 0.0, -7781.357500714958, 0.0]
['beep', 0.0, -1382.0977666494568, 0.0, 0.0, 0.0, 0.0, -7790.856992108464, 0.0]
['beep', 0.0, -1377.5603625250296, 0.0, 0.0, 0.0, 0.0, -7804.603314948477, 0.0]
['beep', 0.0, -1379.3037985925434, 0.0, 0.0, 0.0, 0.0, -7801.004684091174, 0.0]
['beep', 0.0, -1384.1764788838004, 0.0, 0.0, 0.0, 0.0, -7787.884210095908, 0.0]
['beep', 0.0, -1384.0423684170687, 0.0, 0.0, 0.0, 0.0, -7783.235047249204, 0.0]
['beep', 0.0, -1379.6837782482837, 0.0, 0.0, 0.0, 0.0, -7791.661654908855, 0.0]
['beep', 0.0, -1374.6322840013843, 0.0, 0.0, 0.0, 0.0, -7802.8375271365085, 0.0]
['beep', 0.0, -1376.50983053563, 0.0, 0.0, 0.0, 0.0, -7801.675236424832, 0.0]
['beep', 0.0, -1380.868420704415, 0.0, 0.0, 0.0, 0.0, -7788.934742085307, 0.0]
['beep', 0.0, -1381.9413044382698, 0.0, 0.0, 0.0, 0.0, -7780.9998728036735, 0.0]
['beep', 0.0, -1379.0802811479905, 0.0, 0.0, 0.0, 0.0, -7788.443003707291, 0.0]
['beep', 0.0, -1373.2241241007, 0.0, 0.0, 0.0, 0.0, -7802.1893265473045, 0.0]
['beep', 0.0, -1376.7333479801832, 0.0, 0.0, 0.0, 0.0, -7800.915277113352, 0.0]
['beep', 0.0, -1383.3941678278647, 0.0, 0.0, 0.0, 0.0, -7786.92308508433, 0.0]
['beep', 0.0, -1384.444699817264, 0.0, 0.0, 0.0, 0.0, -7779.368195458436, 0.0]
['beep', 0.0, -1378.8791154478927, 0.0, 0.0, 0.0, 0.0, -7788.644169407388, 0.0]
['beep', 0.0, -1375.5040020351414, 0.0, 0.0, 0.0, 0.0, -7801.630532935922, 0.0]
['beep', 0.0, -1380.1308131373899, 0.0, 0.0, 0.0, 0.0, -7800.088262568505, 0.0]
['beep', 0.0, -1387.864516718926, 0.0, 0.0, 0.0, 0.0, -7788.286541496103, 0.0]
['beep', 0.0, -1387.6409992743731, 0.0, 0.0, 0.0, 0.0, -7781.916294326341, 0.0]
['beep', 0.0, -1384.3776445838982, 0.0, 0.0, 0.0, 0.0, -7788.666521151844, 0.0]
['beep', 0.0, -1380.1084613929345, 0.0, 0.0, 0.0, 0.0, -7802.390492247402, 0.0]
['beep', 0.0, -1382.388339327376, 0.0, 0.0, 0.0, 0.0, -7803.150451558883, 0.0]
['beep', 0.0, -1387.059853918535, 0.0, 0.0, 0.0, 0.0, -7788.443003707291, 0.0]
['beep', 0.0, -1386.3445980959652, 0.0, 0.0, 0.0, 0.0, -7780.508134425657, 0.0]
['beep', 0.0, -1383.7294439946943, 0.0, 0.0, 0.0, 0.0, -7787.772451373631, 0.0]
['beep', 0.0, -1378.4097288143312, 0.0, 0.0, 0.0, 0.0, -7801.407015491369, 0.0]
['beep', 0.0, -1378.5885427699736, 0.0, 0.0, 0.0, 0.0, -7801.563477702556, 0.0]
['beep', 0.0, -1387.5292405520966, 0.0, 0.0, 0.0, 0.0, -7787.660692651355, 0.0]
['beep', 0.0, -1387.6409992743731, 0.0, 0.0, 0.0, 0.0, -7778.071794280028, 0.0]
['beep', 0.0, -1382.9247811943033, 0.0, 0.0, 0.0, 0.0, -7786.610160661956, 0.0]
['beep', 0.0, -1379.1696881258117, 0.0, 0.0, 0.0, 0.0, -7801.49642246919, 0.0]
['beep', 0.0, -1379.706129992739, 0.0, 0.0, 0.0, 0.0, -7801.2505532801815, 0.0]
['beep', 0.0, -1385.1823073842893, 0.0, 0.0, 0.0, 0.0, -7787.481878695712, 0.0]
['beep', 0.0, -1387.3727783409095, 0.0, 0.0, 0.0, 0.0, -7781.581018159512, 0.0]
['beep', 0.0, -1381.2931038490658, 0.0, 0.0, 0.0, 0.0, -7787.593637417989, 0.0]
['beep', 0.0, -1377.6721212473062, 0.0, 0.0, 0.0, 0.0, -7799.887096868408, 0.0]
['beep', 0.0, -1380.0190544151133, 0.0, 0.0, 0.0, 0.0, -7801.16114630236, 0.0]
['beep', 0.0, -1383.997664928158, 0.0, 0.0, 0.0, 0.0, -7788.711224640754, 0.0]
['beep', 0.0, -1387.1492608963563, 0.0, 0.0, 0.0, 0.0, -7781.245741992681, 0.0]
['beep', 0.0, -1380.8237172155043, 0.0, 0.0, 0.0, 0.0, -7789.180611274316, 0.0]
['beep', 0.0, -1377.4039003138425, 0.0, 0.0, 0.0, 0.0, -7802.301085269581, 0.0]
['beep', 0.0, -1380.6449032598618, 0.0, 0.0, 0.0, 0.0, -7800.803518391075, 0.0]
['beep', 0.0, -1387.126909151901, 0.0, 0.0, 0.0, 0.0, -7787.593637417989, 0.0]
['beep', 0.0, -1388.579772541496, 0.0, 0.0, 0.0, 0.0, -7779.7705268586315, 0.0]
['beep', 0.0, -1381.5836765269848, 0.0, 0.0, 0.0, 0.0, -7790.029977563618, 0.0]
['beep', 0.0, -1378.1862113697782, 0.0, 0.0, 0.0, 0.0, -7801.675236424832, 0.0]
['beep', 0.0, -1380.0414061595686, 0.0, 0.0, 0.0, 0.0, -7800.7811666466205, 0.0]
['beep', 0.0, -1386.5904672849736, 0.0, 0.0, 0.0, 0.0, -7788.107727540461, 0.0]
['beep', 0.0, -1388.51271730813, 0.0, 0.0, 0.0, 0.0, -7780.843410592486, 0.0]
['beep', 0.0, -1382.030711416091, 0.0, 0.0, 0.0, 0.0, -7788.286541496103, 0.0]
['beep', 0.0, -1377.0462724025574, 0.0, 0.0, 0.0, 0.0, -7801.854050380475, 0.0]
['beep', 0.0, -1380.421385815309, 0.0, 0.0, 0.0, 0.0, -7803.530431214623, 0.0]
['beep', 0.0, -1386.769281240616, 0.0, 0.0, 0.0, 0.0, -7791.236971764204, 0.0]
['beep', 0.0, -1388.8926969638703, 0.0, 0.0, 0.0, 0.0, -7782.2292187487155, 0.0]
['beep', 0.0, -1381.2707521046107, 0.0, 0.0, 0.0, 0.0, -7790.119384541439, 0.0]
['beep', 0.0, -1378.5214875366078, 0.0, 0.0, 0.0, 0.0, -7800.512945713156, 0.0]
['beep', 0.0, -1383.5059265501413, 0.0, 0.0, 0.0, 0.0, -7801.027035835628, 0.0]
['beep', 0.0, -1386.255191118144, 0.0, 0.0, 0.0, 0.0, -7790.052329308073, 0.0]
['beep', 0.0, -1386.411653329331, 0.0, 0.0, 0.0, 0.0, -7781.581018159512, 0.0]
['beep', 0.0, -1382.030711416091, 0.0, 0.0, 0.0, 0.0, -7789.180611274316, 0.0]
['beep', 0.0, -1376.5545340245408, 0.0, 0.0, 0.0, 0.0, -7803.195155047793, 0.0]
['beep', 0.0, -1377.9850456696804, 0.0, 0.0, 0.0, 0.0, -7801.49642246919, 0.0]
['beep', 0.0, -1385.2717143621105, 0.0, 0.0, 0.0, 0.0, -7788.73357638521, 0.0]
['beep', 0.0, -1384.4223480728087, 0.0, 0.0, 0.0, 0.0, -7779.345843713981, 0.0]
['beep', 0.0, -1377.6274177583955, 0.0, 0.0, 0.0, 0.0, -7783.927951327319, 0.0]
['beep', 0.0, -1372.8888479338705, 0.0, 0.0, 0.0, 0.0, -7796.824907878031, 0.0]
['beep', 0.0, -1375.4145950573202, 0.0, 0.0, 0.0, 0.0, -7800.35648350197, 0.0]
['beep', 0.0, -1379.2367433591776, 0.0, 0.0, 0.0, 0.0, -7785.49257343919, 0.0]
['beep', 0.0, -1382.164821882823, 0.0, 0.0, 0.0, 0.0, -7772.8414860774865, 0.0]
['beep', 0.0, -1378.7226532367056, 0.0, 0.0, 0.0, 0.0, -7785.157297272361, 0.0]
['beep', 0.0, -1375.6381125018731, 0.0, 0.0, 0.0, 0.0, -7796.154355544371, 0.0]
['beep', 0.0, -1374.9899119126692, 0.0, 0.0, 0.0, 0.0, -7792.9133525983525, 0.0]
['beep', 0.0, -1379.6167230149179, 0.0, 0.0, 0.0, 0.0, -7775.166067500838, 0.0]
['beep', 0.0, -1381.091938148968, 0.0, 0.0, 0.0, 0.0, -7762.738497583688, 0.0]
['beep', 0.0, -1375.995740413158, 0.0, 0.0, 0.0, 0.0, -7765.376003429414, 0.0]
['beep', 0.0, -1374.900504934848, 0.0, 0.0, 0.0, 0.0, -7769.82400057602, 0.0]
['beep', 0.0, -1374.31935957901, 0.0, 0.0, 0.0, 0.0, -7768.996986031174, 0.0]
['beep', 0.0, -1379.5049642926413, 0.0, 0.0, 0.0, 0.0, -7750.95912825574, 0.0]
['beep', 0.0, -1380.577848026496, 0.0, 0.0, 0.0, 0.0, -7732.496587335657, 0.0]
['beep', 0.0, -1380.7566619821384, 0.0, 0.0, 0.0, 0.0, -7732.094255935462, 0.0]
['beep', 0.0, -1376.3757200688983, 0.0, 0.0, 0.0, 0.0, -7733.077732691495, 0.0]
['beep', 0.0, -1377.2474381026552, 0.0, 0.0, 0.0, 0.0, -7722.930040708786, 0.0]
['beep', 0.0, -1380.4884410486748, 0.0, 0.0, 0.0, 0.0, -7701.204145098227, 0.0]
['beep', 0.0, -1381.6060282714402, 0.0, 0.0, 0.0, 0.0, -7682.048700100029, 0.0]
['beep', 0.0, -1374.028786901091, 0.0, 0.0, 0.0, 0.0, -7676.505467475113, 0.0]
['beep', 0.0, -1369.0890513764682, 0.0, 0.0, 0.0, 0.0, -7681.1546303218165, 0.0]
['beep', 0.0, -1369.5584380100297, 0.0, 0.0, 0.0, 0.0, -7666.313072003493, 0.0]
['beep', 0.0, -1374.5652287680184, 0.0, 0.0, 0.0, 0.0, -7639.803903079499, 0.0]
['beep', 0.0, -1378.7897084700714, 0.0, 0.0, 0.0, 0.0, -7621.989562748619, 0.0]
['beep', 0.0, -1372.9782549116917, 0.0, 0.0, 0.0, 0.0, -7616.6474958238, 0.0]
['beep', 0.0, -1367.0103391421246, 0.0, 0.0, 0.0, 0.0, -7619.374408647348, 0.0]
['beep', 0.0, -1369.4019757988426, 0.0, 0.0, 0.0, 0.0, -7612.043036466007, 0.0]
['beep', 0.0, -1376.7109962357279, 0.0, 0.0, 0.0, 0.0, -7585.265646608549, 0.0]
['beep', 0.0, -1376.3310165799876, 0.0, 0.0, 0.0, 0.0, -7571.5640272574465, 0.0]
['beep', 0.0, -1368.12792636489, 0.0, 0.0, 0.0, 0.0, -7579.923579683731, 0.0]
['beep', 0.0, -1367.6138362424178, 0.0, 0.0, 0.0, 0.0, -7583.701024496678, 0.0]
['beep', 0.0, -1368.8878856763704, 0.0, 0.0, 0.0, 0.0, -7583.924541941231, 0.0]
['beep', 0.0, -1371.3018740775435, 0.0, 0.0, 0.0, 0.0, -7568.457134778158, 0.0]
['beep', 0.0, -1375.2804845905882, 0.0, 0.0, 0.0, 0.0, -7552.654451448257, 0.0]
['beep', 0.0, -1372.575923511496, 0.0, 0.0, 0.0, 0.0, -7550.218111302628, 0.0]
['beep', 0.0, -1369.3349205654765, 0.0, 0.0, 0.0, 0.0, -7566.758402199555, 0.0]
['beep', 0.0, -1372.061833389024, 0.0, 0.0, 0.0, 0.0, -7561.773963186021, 0.0]
['beep', 0.0, -1374.095842134457, 0.0, 0.0, 0.0, 0.0, -7542.171483298717, 0.0]
['beep', 0.0, -1374.9899119126692, 0.0, 0.0, 0.0, 0.0, -7534.460131461637, 0.0]
['beep', 0.0, -1373.1570688673341, 0.0, 0.0, 0.0, 0.0, -7540.517454209024, 0.0]
['beep', 0.0, -1370.0725281325017, 0.0, 0.0, 0.0, 0.0, -7546.977108356608, 0.0]
['beep', 0.0, -1372.5312200225856, 0.0, 0.0, 0.0, 0.0, -7542.149131554263, 0.0]
['beep', 0.0, -1376.4651270467195, 0.0, 0.0, 0.0, 0.0, -7526.7264278801, 0.0]
['beep', 0.0, -1379.5720195260071, 0.0, 0.0, 0.0, 0.0, -7512.913049806721, 0.0]
['beep', 0.0, -1375.4592985462307, 0.0, 0.0, 0.0, 0.0, -7521.406712699737, 0.0]
['beep', 0.0, -1369.6925484767614, 0.0, 0.0, 0.0, 0.0, -7527.419331958215, 0.0]
['beep', 0.0, -1371.6595019888284, 0.0, 0.0, 0.0, 0.0, -7531.844977360365, 0.0]
['beep', 0.0, -1377.1356793803786, 0.0, 0.0, 0.0, 0.0, -7522.054913288941, 0.0]
['beep', 0.0, -1378.2756183475994, 0.0, 0.0, 0.0, 0.0, -7511.169613739206, 0.0]
['beep', 0.0, -1375.5710572685073, 0.0, 0.0, 0.0, 0.0, -7511.639000372768, 0.0]
['beep', 0.0, -1373.0229584006022, 0.0, 0.0, 0.0, 0.0, -7524.91593657922, 0.0]
['beep', 0.0, -1374.2746560900994, 0.0, 0.0, 0.0, 0.0, -7518.053951031441, 0.0]
['beep', 0.0, -1376.7556997246386, 0.0, 0.0, 0.0, 0.0, -7508.018017771008, 0.0]
['beep', 0.0, -1376.3086648355325, 0.0, 0.0, 0.0, 0.0, -7500.8878112897655, 0.0]
['beep', 0.0, -1375.0793188904904, 0.0, 0.0, 0.0, 0.0, -7498.831450799877, 0.0]
['beep', 0.0, -1371.4359845442755, 0.0, 0.0, 0.0, 0.0, -7509.448529416148, 0.0]
['beep', 0.0, -1370.6983769772503, 0.0, 0.0, 0.0, 0.0, -7512.667180617712, 0.0]
['beep', 0.0, -1380.711958493228, 0.0, 0.0, 0.0, 0.0, -7495.478689131581, 0.0]
['beep', 0.0, -1381.5836765269848, 0.0, 0.0, 0.0, 0.0, -7486.6273983272795, 0.0]
['beep', 0.0, -1376.8898101913703, 0.0, 0.0, 0.0, 0.0, -7489.980159995575, 0.0]
['beep', 0.0, -1374.9228566793033, 0.0, 0.0, 0.0, 0.0, -7501.8265845568885, 0.0]
['beep', 0.0, -1375.2134293572224, 0.0, 0.0, 0.0, 0.0, -7506.6992648481455, 0.0]
['beep', 0.0, -1382.5895050274737, 0.0, 0.0, 0.0, 0.0, -7491.05304372943, 0.0]
['beep', 0.0, -1387.864516718926, 0.0, 0.0, 0.0, 0.0, -7479.027805212475, 0.0]
['beep', 0.0, -1386.1657841403228, 0.0, 0.0, 0.0, 0.0, -7487.186191938662, 0.0]
['beep', 0.0, -1380.7566619821384, 0.0, 0.0, 0.0, 0.0, -7503.748834580045, 0.0]
['beep', 0.0, -1382.969484683214, 0.0, 0.0, 0.0, 0.0, -7503.234744457573, 0.0]
['beep', 0.0, -1391.1502231538564, 0.0, 0.0, 0.0, 0.0, -7491.656540829724, 0.0]
['beep', 0.0, -1396.224069145211, 0.0, 0.0, 0.0, 0.0, -7487.901447761232, 0.0]
['beep', 0.0, -1391.5525545540518, 0.0, 0.0, 0.0, 0.0, -7495.746910065045, 0.0]
['beep', 0.0, -1385.741100995672, 0.0, 0.0, 0.0, 0.0, -7508.263886960017, 0.0]
['beep', 0.0, -1388.3115516080322, 0.0, 0.0, 0.0, 0.0, -7516.668142875212, 0.0]
['beep', 0.0, -1396.51464182313, 0.0, 0.0, 0.0, 0.0, -7514.634134129779, 0.0]
['beep', 0.0, -1399.3533133689539, 0.0, 0.0, 0.0, 0.0, -7510.990799783564, 0.0]
['beep', 0.0, -1398.9062784798477, 0.0, 0.0, 0.0, 0.0, -7522.457244689137, 0.0]
['beep', 0.0, -1397.8557464904484, 0.0, 0.0, 0.0, 0.0, -7543.512587966036, 0.0]
['beep', 0.0, -1398.5933540574736, 0.0, 0.0, 0.0, 0.0, -7554.5990532158685, 0.0]
['beep', 0.0, -1401.4096738588423, 0.0, 0.0, 0.0, 0.0, -7546.641832189779, 0.0]
['beep', 0.0, -1401.8120052590377, 0.0, 0.0, 0.0, 0.0, -7543.177311799206, 0.0]
['beep', 0.0, -1395.1288336669008, 0.0, 0.0, 0.0, 0.0, -7557.013041617041, 0.0]
['beep', 0.0, -1390.7478917536607, 0.0, 0.0, 0.0, 0.0, -7574.35799531436, 0.0]
['beep', 0.0, -1390.8820022203927, 0.0, 0.0, 0.0, 0.0, -7582.851658207376, 0.0]
['beep', 0.0, -1393.8324324884932, 0.0, 0.0, 0.0, 0.0, -7577.531943027013, 0.0]
['beep', 0.0, -1393.3406941104763, 0.0, 0.0, 0.0, 0.0, -7572.5028005245695, 0.0]
['beep', 0.0, -1389.1385661528786, 0.0, 0.0, 0.0, 0.0, -7584.148059385784, 0.0]
['beep', 0.0, -1382.5000980496525, 0.0, 0.0, 0.0, 0.0, -7604.465795095658, 0.0]
['beep', 0.0, -1380.7566619821384, 0.0, 0.0, 0.0, 0.0, -7611.417187621259, 0.0]
['beep', 0.0, -1385.2717143621105, 0.0, 0.0, 0.0, 0.0, -7606.879783496832, 0.0]
['beep', 0.0, -1388.2668481191217, 0.0, 0.0, 0.0, 0.0, -7599.570763059946, 0.0]
['beep', 0.0, -1382.2542288606442, 0.0, 0.0, 0.0, 0.0, -7609.8972689982975, 0.0]
['beep', 0.0, -1377.1356793803786, 0.0, 0.0, 0.0, 0.0, -7628.628030851845, 0.0]
['beep', 0.0, -1376.1745543688005, 0.0, 0.0, 0.0, 0.0, -7636.27232745556, 0.0]
['beep', 0.0, -1381.4942695491636, 0.0, 0.0, 0.0, 0.0, -7631.801978564499, 0.0]
['beep', 0.0, -1383.640037016873, 0.0, 0.0, 0.0, 0.0, -7628.404513407292, 0.0]
['beep', 0.0, -1379.929647437292, 0.0, 0.0, 0.0, 0.0, -7639.848606568409, 0.0]
['beep', 0.0, -1375.2581328461329, 0.0, 0.0, 0.0, 0.0, -7658.266443999582, 0.0]
['beep', 0.0, -1376.7333479801832, 0.0, 0.0, 0.0, 0.0, -7664.32376674697, 0.0]
['beep', 0.0, -1381.6954352492614, 0.0, 0.0, 0.0, 0.0, -7657.998223066119, 0.0]
['beep', 0.0, -1384.958789939736, 0.0, 0.0, 0.0, 0.0, -7653.729039875155, 0.0]
['beep', 0.0, -1382.3436358384654, 0.0, 0.0, 0.0, 0.0, -7663.18382777975, 0.0]
['beep', 0.0, -1376.12985087989, 0.0, 0.0, 0.0, 0.0, -7679.813525654498, 0.0]
['beep', 0.0, -1376.6886444912725, 0.0, 0.0, 0.0, 0.0, -7690.2517903151265, 0.0]
['beep', 0.0, -1382.4553945607418, 0.0, 0.0, 0.0, 0.0, -7683.814487911998, 0.0]
['beep', 0.0, -1385.0258451731022, 0.0, 0.0, 0.0, 0.0, -7679.724118676677, 0.0]
['beep', 0.0, -1382.7906707275715, 0.0, 0.0, 0.0, 0.0, -7689.156554836817, 0.0]
['beep', 0.0, -1377.7838799695826, 0.0, 0.0, 0.0, 0.0, -7708.1555376238275, 0.0]
['beep', 0.0, -1379.41555731482, 0.0, 0.0, 0.0, 0.0, -7717.319752850503, 0.0]
['beep', 0.0, -1384.2211823727112, 0.0, 0.0, 0.0, 0.0, -7711.284781847571, 0.0]
['beep', 0.0, -1387.3727783409095, 0.0, 0.0, 0.0, 0.0, -7705.853307944931, 0.0]
['beep', 0.0, -1380.3766823263982, 0.0, 0.0, 0.0, 0.0, -7719.152595895839, 0.0]
['beep', 0.0, -1377.515659036119, 0.0, 0.0, 0.0, 0.0, -7733.7482850251545, 0.0]
['beep', 0.0, -1377.7168247362167, 0.0, 0.0, 0.0, 0.0, -7739.515035094623, 0.0]
['beep', 0.0, -1383.5059265501413, 0.0, 0.0, 0.0, 0.0, -7731.937793724274, 0.0]
['beep', 0.0, -1385.0034934286468, 0.0, 0.0, 0.0, 0.0, -7723.846462231453, 0.0]
['beep', 0.0, -1381.360159082432, 0.0, 0.0, 0.0, 0.0, -7733.81534025852, 0.0]
['beep', 0.0, -1374.162897367823, 0.0, 0.0, 0.0, 0.0, -7750.91442476683, 0.0]
['beep', 0.0, -1373.581752011985, 0.0, 0.0, 0.0, 0.0, -7755.027145746607, 0.0]
['beep', 0.0, -1381.807193971538, 0.0, 0.0, 0.0, 0.0, -7745.997040986663, 0.0]
['beep', 0.0, -1384.0870719059792, 0.0, 0.0, 0.0, 0.0, -7739.179758927794, 0.0]
['beep', 0.0, -1377.6274177583955, 0.0, 0.0, 0.0, 0.0, -7746.354668897948, 0.0]
['beep', 0.0, -1372.7770892115939, 0.0, 0.0, 0.0, 0.0, -7760.235102204693, 0.0]
['beep', 0.0, -1375.347539823954, 0.0, 0.0, 0.0, 0.0, -7763.945491784274, 0.0]
['beep', 0.0, -1380.9131241933255, 0.0, 0.0, 0.0, 0.0, -7753.261357934637, 0.0]
['beep', 0.0, -1383.7517957391497, 0.0, 0.0, 0.0, 0.0, -7745.505302608646, 0.0]
['beep', 0.0, -1379.8402404594708, 0.0, 0.0, 0.0, 0.0, -7754.4683521352235, 0.0]
['beep', 0.0, -1376.800403213549, 0.0, 0.0, 0.0, 0.0, -7769.175799986816, 0.0]
['beep', 0.0, -1376.8451067024598, 0.0, 0.0, 0.0, 0.0, -7772.416802932836, 0.0]
['beep', 0.0, -1383.9753131837026, 0.0, 0.0, 0.0, 0.0, -7761.889131294386, 0.0]
['beep', 0.0, -1385.6963975067613, 0.0, 0.0, 0.0, 0.0, -7752.836674789986, 0.0]
['beep', 0.0, -1381.2707521046107, 0.0, 0.0, 0.0, 0.0, -7761.330337683004, 0.0]
['beep', 0.0, -1376.9792171691915, 0.0, 0.0, 0.0, 0.0, -7776.037785534595, 0.0]
['beep', 0.0, -1378.2979700920548, 0.0, 0.0, 0.0, 0.0, -7778.362366957947, 0.0]
['beep', 0.0, -1383.8859062058814, 0.0, 0.0, 0.0, 0.0, -7767.164142985838, 0.0]
['beep', 0.0, -1385.6293422733954, 0.0, 0.0, 0.0, 0.0, -7758.268148692626, 0.0]
['beep', 0.0, -1382.9471329387586, 0.0, 0.0, 0.0, 0.0, -7767.275901708115, 0.0]
['beep', 0.0, -1378.6779497477949, 0.0, 0.0, 0.0, 0.0, -7779.234084991705, 0.0]
['beep', 0.0, -1378.1638596253229, 0.0, 0.0, 0.0, 0.0, -7778.541180913589, 0.0]
['beep', 0.0, -1384.288237606077, 0.0, 0.0, 0.0, 0.0, -7769.600483131467, 0.0]
['beep', 0.0, -1387.3057231075434, 0.0, 0.0, 0.0, 0.0, -7762.224407461215, 0.0]
['beep', 0.0, -1381.6507317603507, 0.0, 0.0, 0.0, 0.0, -7766.515942396634, 0.0]
['beep', 0.0, -1376.9568654247362, 0.0, 0.0, 0.0, 0.0, -7778.87645708042, 0.0]
['beep', 0.0, -1383.774147483605, 0.0, 0.0, 0.0, 0.0, -7774.20494248926, 0.0]
['beep', 0.0, -1379.0802811479905, 0.0, 0.0, 0.0, 0.0, -7787.593637417989, 0.0]
['beep', 0.0, -1379.3037985925434, 0.0, 0.0, 0.0, 0.0, -7789.471183952235, 0.0]
['beep', 0.0, -1383.930609694792, 0.0, 0.0, 0.0, 0.0, -7780.552837914567, 0.0]
['beep', 0.0, -1386.6798742627948, 0.0, 0.0, 0.0, 0.0, -7769.15344824236, 0.0]
['beep', 0.0, -1383.707092250239, 0.0, 0.0, 0.0, 0.0, -7773.48968666669, 0.0]
['beep', 0.0, -1380.3096270930323, 0.0, 0.0, 0.0, 0.0, -7787.660692651355, 0.0]
['beep', 0.0, -1380.577848026496, 0.0, 0.0, 0.0, 0.0, -7793.539201443101, 0.0]
['beep', 0.0, -1385.964618440225, 0.0, 0.0, 0.0, 0.0, -7782.25157049317, 0.0]
['beep', 0.0, -1389.675008019806, 0.0, 0.0, 0.0, 0.0, -7771.589788387989, 0.0]
['beep', 0.0, -1385.1376038953786, 0.0, 0.0, 0.0, 0.0, -7776.887151823897, 0.0]
['beep', 0.0, -1382.164821882823, 0.0, 0.0, 0.0, 0.0, -7787.884210095908, 0.0]
['beep', 0.0, -1383.2153538722223, 0.0, 0.0, 0.0, 0.0, -7791.9745793312295, 0.0]
['beep', 0.0, -1388.1997928857556, 0.0, 0.0, 0.0, 0.0, -7782.631550148911, 0.0]
['beep', 0.0, -1391.3290371094988, 0.0, 0.0, 0.0, 0.0, -7771.321567454525, 0.0]
['beep', 0.0, -1386.9480951962585, 0.0, 0.0, 0.0, 0.0, -7774.316701211536, 0.0]
['beep', 0.0, -1381.382510826887, 0.0, 0.0, 0.0, 0.0, -7788.532410685112, 0.0]
['beep', 0.0, -1381.3378073379765, 0.0, 0.0, 0.0, 0.0, -7792.511021198156, 0.0]
['beep', 0.0, -1385.8305079734932, 0.0, 0.0, 0.0, 0.0, -7782.810364104554, 0.0]
['beep', 0.0, -1389.831470230993, 0.0, 0.0, 0.0, 0.0, -7773.601445388967, 0.0]
['beep', 0.0, -1387.059853918535, 0.0, 0.0, 0.0, 0.0, -7777.937683813297, 0.0]
['beep', 0.0, -1380.5554962820406, 0.0, 0.0, 0.0, 0.0, -7790.409957219358, 0.0]
['beep', 0.0, -1380.4884410486748, 0.0, 0.0, 0.0, 0.0, -7795.595561932989, 0.0]
['beep', 0.0, -1386.1434323958674, 0.0, 0.0, 0.0, 0.0, -7784.643207149888, 0.0]
['beep', 0.0, -1388.736234752683, 0.0, 0.0, 0.0, 0.0, -7772.707375610755, 0.0]
['beep', 0.0, -1385.6293422733954, 0.0, 0.0, 0.0, 0.0, -7777.7141663687435, 0.0]
['beep', 0.0, -1382.3659875829205, 0.0, 0.0, 0.0, 0.0, -7790.700529897276, 0.0]
['beep', 0.0, -1382.0530631605463, 0.0, 0.0, 0.0, 0.0, -7795.1485270438825, 0.0]
['beep', 0.0, -1387.864516718926, 0.0, 0.0, 0.0, 0.0, -7785.179649016816, 0.0]
['beep', 0.0, -1391.1502231538564, 0.0, 0.0, 0.0, 0.0, -7774.182590744805, 0.0]
['beep', 0.0, -1388.0880341634793, 0.0, 0.0, 0.0, 0.0, -7779.010567547151, 0.0]
['beep', 0.0, -1381.5389730380743, 0.0, 0.0, 0.0, 0.0, -7793.315683998548, 0.0]
['beep', 0.0, -1380.5554962820406, 0.0, 0.0, 0.0, 0.0, -7796.266114266648, 0.0]
['beep', 0.0, -1386.5681155405184, 0.0, 0.0, 0.0, 0.0, -7783.257398993659, 0.0]
['beep', 0.0, -1392.2454586321662, 0.0, 0.0, 0.0, 0.0, -7775.523695412123, 0.0]
['beep', 0.0, -1388.4233103303088, 0.0, 0.0, 0.0, 0.0, -7779.569361158534, 0.0]
['beep', 0.0, -1380.935475937781, 0.0, 0.0, 0.0, 0.0, -7791.616951419945, 0.0]
['beep', 0.0, -1381.740138738172, 0.0, 0.0, 0.0, 0.0, -7796.757852644665, 0.0]
['beep', 0.0, -1386.7916329850714, 0.0, 0.0, 0.0, 0.0, -7784.129117027416, 0.0]
['beep', 0.0, -1389.1832696417891, 0.0, 0.0, 0.0, 0.0, -7773.512038411145, 0.0]
['beep', 0.0, -1386.0540254180462, 0.0, 0.0, 0.0, 0.0, -7778.675291380321, 0.0]
['beep', 0.0, -1382.4777463051971, 0.0, 0.0, 0.0, 0.0, -7791.818117120042, 0.0]
['beep', 0.0, -1382.388339327376, 0.0, 0.0, 0.0, 0.0, -7796.355521244469, 0.0]
['beep', 0.0, -1386.4563568182418, 0.0, 0.0, 0.0, 0.0, -7784.01735830514, 0.0]
['beep', 0.0, -1388.1774411413005, 0.0, 0.0, 0.0, 0.0, -7772.752079099665, 0.0]
['beep', 0.0, -1384.1764788838004, 0.0, 0.0, 0.0, 0.0, -7777.155372757361, 0.0]
['beep', 0.0, -1378.5661910255185, 0.0, 0.0, 0.0, 0.0, -7791.393433975391, 0.0]
['beep', 0.0, -1382.030711416091, 0.0, 0.0, 0.0, 0.0, -7797.048425322584, 0.0]
['beep', 0.0, -1386.8586882184372, 0.0, 0.0, 0.0, 0.0, -7785.425518205824, 0.0]
['beep', 0.0, -1389.5408975530743, 0.0, 0.0, 0.0, 0.0, -7774.137887255894, 0.0]
['beep', 0.0, -1386.7469294961609, 0.0, 0.0, 0.0, 0.0, -7778.541180913589, 0.0]
['beep', 0.0, -1381.4048625713424, 0.0, 0.0, 0.0, 0.0, -7792.9133525983525, 0.0]
['beep', 0.0, -1381.5389730380743, 0.0, 0.0, 0.0, 0.0, -7797.227239278226, 0.0]
['beep', 0.0, -1386.1434323958674, 0.0, 0.0, 0.0, 0.0, -7785.537276928101, 0.0]
['beep', 0.0, -1390.0773394200016, 0.0, 0.0, 0.0, 0.0, -7774.853143078464, 0.0]
['beep', 0.0, -1385.5399352955742, 0.0, 0.0, 0.0, 0.0, -7779.435250691802, 0.0]
['beep', 0.0, -1380.4437375597643, 0.0, 0.0, 0.0, 0.0, -7790.7452333861875, 0.0]
['beep', 0.0, -1380.7566619821384, 0.0, 0.0, 0.0, 0.0, -7797.450756722779, 0.0]
['beep', 0.0, -1384.6011620284512, 0.0, 0.0, 0.0, 0.0, -7786.006663561662, 0.0]
['beep', 0.0, -1387.7751097411049, 0.0, 0.0, 0.0, 0.0, -7773.266169222137, 0.0]
['beep', 0.0, -1384.6235137729066, 0.0, 0.0, 0.0, 0.0, -7777.513000668646, 0.0]
['beep', 0.0, -1381.091938148968, 0.0, 0.0, 0.0, 0.0, -7791.080509553017, 0.0]
['beep', 0.0, -1382.7683189831162, 0.0, 0.0, 0.0, 0.0, -7797.718977656243, 0.0]
['beep', 0.0, -1386.5010603071523, 0.0, 0.0, 0.0, 0.0, -7787.794803118087, 0.0]
['beep', 0.0, -1388.9821039416915, 0.0, 0.0, 0.0, 0.0, -7776.931855312808, 0.0]
['beep', 0.0, -1383.3941678278647, 0.0, 0.0, 0.0, 0.0, -7780.485782681201, 0.0]
['beep', 0.0, -1379.8625922039262, 0.0, 0.0, 0.0, 0.0, -7792.01928282014, 0.0]
['beep', 0.0, -1379.2367433591776, 0.0, 0.0, 0.0, 0.0, -7796.668445666844, 0.0]
['beep', 0.0, -1383.8412027169709, 0.0, 0.0, 0.0, 0.0, -7788.420651962835, 0.0]
['beep', 0.0, -1385.3164178510212, 0.0, 0.0, 0.0, 0.0, -7777.021262290628, 0.0]
['beep', 0.0, -1382.7459672386608, 0.0, 0.0, 0.0, 0.0, -7778.340015213492, 0.0]
['beep', 0.0, -1378.3426735809653, 0.0, 0.0, 0.0, 0.0, -7791.415785719846, 0.0]
['beep', 0.0, -1377.4262520582977, 0.0, 0.0, 0.0, 0.0, -7796.780204389121, 0.0]
['beep', 0.0, -1384.936438195281, 0.0, 0.0, 0.0, 0.0, -7784.218524005238, 0.0]
['beep', 0.0, -1388.9150487083255, 0.0, 0.0, 0.0, 0.0, -7774.182590744805, 0.0]
['beep', 0.0, -1384.3776445838982, 0.0, 0.0, 0.0, 0.0, -7777.8929803243855, 0.0]
['beep', 0.0, -1380.711958493228, 0.0, 0.0, 0.0, 0.0, -7792.354558986969, 0.0]
['beep', 0.0, -1379.6390747593732, 0.0, 0.0, 0.0, 0.0, -7796.579038689022, 0.0]
['beep', 0.0, -1384.9811416841915, 0.0, 0.0, 0.0, 0.0, -7788.0406723070955, 0.0]
['beep', 0.0, -1389.2503248751552, 0.0, 0.0, 0.0, 0.0, -7775.367233200936, 0.0]
['beep', 0.0, -1386.0763771625016, 0.0, 0.0, 0.0, 0.0, -7778.071794280028, 0.0]
['beep', 0.0, -1381.673083504806, 0.0, 0.0, 0.0, 0.0, -7791.169916530838, 0.0]
['beep', 0.0, -1382.4553945607418, 0.0, 0.0, 0.0, 0.0, -7795.841431121998, 0.0]
['beep', 0.0, -1387.9092202078368, 0.0, 0.0, 0.0, 0.0, -7786.408994961857, 0.0]
['beep', 0.0, -1389.965580697725, 0.0, 0.0, 0.0, 0.0, -7774.026128533617, 0.0]
['beep', 0.0, -1387.4845370631858, 0.0, 0.0, 0.0, 0.0, -7777.043614035084, 0.0]
['beep', 0.0, -1382.0977666494568, 0.0, 0.0, 0.0, 0.0, -7790.074681052528, 0.0]
['beep', 0.0, -1382.1424701383676, 0.0, 0.0, 0.0, 0.0, -7796.891963111397, 0.0]
['beep', 0.0, -1386.0093219291357, 0.0, 0.0, 0.0, 0.0, -7785.470221694734, 0.0]
['beep', 0.0, -1388.9821039416915, 0.0, 0.0, 0.0, 0.0, -7773.243817477682, 0.0]
['beep', 0.0, -1386.1881358847781, 0.0, 0.0, 0.0, 0.0, -7776.283654723604, 0.0]
['beep', 0.0, -1381.3154555935212, 0.0, 0.0, 0.0, 0.0, -7789.180611274316, 0.0]
['beep', 0.0, -1381.382510826887, 0.0, 0.0, 0.0, 0.0, -7793.762718887654, 0.0]
['beep', 0.0, -1385.0705486620127, 0.0, 0.0, 0.0, 0.0, -7784.73261412771, 0.0]
['beep', 0.0, -1388.6244760304066, 0.0, 0.0, 0.0, 0.0, -7775.523695412123, 0.0]
['beep', 0.0, -1385.5175835511188, 0.0, 0.0, 0.0, 0.0, -7778.272959980126, 0.0]
['beep', 0.0, -1380.8013654710492, 0.0, 0.0, 0.0, 0.0, -7791.102861297472, 0.0]
['beep', 0.0, -1381.7177869937168, 0.0, 0.0, 0.0, 0.0, -7793.270980509637, 0.0]
['beep', 0.0, -1389.1385661528786, 0.0, 0.0, 0.0, 0.0, -7784.978483316718, 0.0]
['beep', 0.0, -1392.3795690988982, 0.0, 0.0, 0.0, 0.0, -7775.478991923213, 0.0]
['beep', 0.0, -1388.222144630211, 0.0, 0.0, 0.0, 0.0, -7776.39541344588, 0.0]
['beep', 0.0, -1382.9471329387586, 0.0, 0.0, 0.0, 0.0, -7789.1582595298605, 0.0]
['beep', 0.0, -1384.154127139345, 0.0, 0.0, 0.0, 0.0, -7797.16018404486, 0.0]
['beep', 0.0, -1386.6798742627948, 0.0, 0.0, 0.0, 0.0, -7786.5878089175, 0.0]
['beep', 0.0, -1389.5632492975294, 0.0, 0.0, 0.0, 0.0, -7772.752079099665, 0.0]
['beep', 0.0, -1386.7022260072501, 0.0, 0.0, 0.0, 0.0, -7774.808439589553, 0.0]
['beep', 0.0, -1381.9189526938144, 0.0, 0.0, 0.0, 0.0, -7787.727747884721, 0.0]
['beep', 0.0, -1381.6954352492614, 0.0, 0.0, 0.0, 0.0, -7793.673311909833, 0.0]
['beep', 0.0, -1385.7187492512167, 0.0, 0.0, 0.0, 0.0, -7785.425518205824, 0.0]
['beep', 0.0, -1391.7537202541496, 0.0, 0.0, 0.0, 0.0, -7774.473163422724, 0.0]
['beep', 0.0, -1388.3115516080322, 0.0, 0.0, 0.0, 0.0, -7775.702509367766, 0.0]
['beep', 0.0, -1383.1706503833116, 0.0, 0.0, 0.0, 0.0, -7789.068852552039, 0.0]
['beep', 0.0, -1382.0977666494568, 0.0, 0.0, 0.0, 0.0, -7796.511983455656, 0.0]
['beep', 0.0, -1384.6682172618173, 0.0, 0.0, 0.0, 0.0, -7788.0406723070955, 0.0]
['beep', 0.0, -1386.7916329850714, 0.0, 0.0, 0.0, 0.0, -7775.1884192452935, 0.0]
['beep', 0.0, -1386.2328393736886, 0.0, 0.0, 0.0, 0.0, -7777.334186713003, 0.0]
['beep', 0.0, -1379.549667781552, 0.0, 0.0, 0.0, 0.0, -7789.180611274316, 0.0]
['beep', 0.0, -1378.6779497477949, 0.0, 0.0, 0.0, 0.0, -7794.768547388143, 0.0]
['beep', 0.0, -1385.383473084387, 0.0, 0.0, 0.0, 0.0, -7785.090242038995, 0.0]
['beep', 0.0, -1387.7304062521944, 0.0, 0.0, 0.0, 0.0, -7774.696680867277, 0.0]
['beep', 0.0, -1385.3387695954764, 0.0, 0.0, 0.0, 0.0, -7775.322529712025, 0.0]
['beep', 0.0, -1379.482612548186, 0.0, 0.0, 0.0, 0.0, -7788.77827987412, 0.0]
['beep', 0.0, -1380.577848026496, 0.0, 0.0, 0.0, 0.0, -7793.852125865475, 0.0]
['beep', 0.0, -1385.964618440225, 0.0, 0.0, 0.0, 0.0, -7783.860896093953, 0.0]
['beep', 0.0, -1387.2833713630882, 0.0, 0.0, 0.0, 0.0, -7773.06500352204, 0.0]
['beep', 0.0, -1382.678912005295, 0.0, 0.0, 0.0, 0.0, -7777.557704157556, 0.0]
['beep', 0.0, -1377.962693925225, 0.0, 0.0, 0.0, 0.0, -7790.298198497081, 0.0]
['beep', 0.0, -1379.5720195260071, 0.0, 0.0, 0.0, 0.0, -7812.649942952388, 0.0]
['beep', 0.0, -1384.936438195281, 0.0, 0.0, 0.0, 0.0, -7830.687800727821, 0.0]
['beep', 0.0, -1389.6526562753506, 0.0, 0.0, 0.0, 0.0, -7779.7705268586315, 0.0]
['beep', 0.0, -1387.3727783409095, 0.0, 0.0, 0.0, 0.0, -7776.149544256872, 0.0]
['beep', 0.0, -1381.3154555935212, 0.0, 0.0, 0.0, 0.0, -7790.767585130643, 0.0]
['beep', 0.0, -1380.421385815309, 0.0, 0.0, 0.0, 0.0, -7829.793730949609, 0.0]
['beep', 0.0, -1384.936438195281, 0.0, 0.0, 0.0, 0.0, -7850.133818403938, 0.0]
['beep', 0.0, -1387.3951300853646, 0.0, 0.0, 0.0, 0.0, -7789.9852740747065, 0.0]
['beep', 0.0, -1383.41651957232, 0.0, 0.0, 0.0, 0.0, -7774.674329122821, 0.0]
['beep', 0.0, -1376.5321822800854, 0.0, 0.0, 0.0, 0.0, -7793.516849698645, 0.0]
['beep', 0.0, -1377.1803828692894, 0.0, 0.0, 0.0, 0.0, -7845.641117768421, 0.0]
['beep', 0.0, -1383.0588916610352, 0.0, 0.0, 0.0, 0.0, -7860.08034468655, 0.0]
['beep', 0.0, -1387.1716126408116, 0.0, 0.0, 0.0, 0.0, -7803.105748069972, 0.0]
['beep', 0.0, -1387.1045574074458, 0.0, 0.0, 0.0, 0.0, -7775.210770989749, 0.0]
['beep', 0.0, -1385.1376038953786, 0.0, 0.0, 0.0, 0.0, -7798.635399178911, 0.0]
['beep', 0.0, -1388.378606841398, 0.0, 0.0, 0.0, 0.0, -7855.945271962318, 0.0]
['beep', 0.0, -1391.4407958317752, 0.0, 0.0, 0.0, 0.0, -7865.221245911271, 0.0]
['beep', 0.0, -1398.481595335197, 0.0, 0.0, 0.0, 0.0, -7818.126120343938, 0.0]
['beep', 0.0, -1396.0899586784792, 0.0, 0.0, 0.0, 0.0, -7785.067890294539, 0.0]
['beep', 0.0, -1388.9821039416915, 0.0, 0.0, 0.0, 0.0, -7810.012437106662, 0.0]
['beep', 0.0, -1385.7858044845825, 0.0, 0.0, 0.0, 0.0, -7867.523475590167, 0.0]
['beep', 0.0, -1390.189098142278, 0.0, 0.0, 0.0, 0.0, -7871.591493081033, 0.0]
['beep', 0.0, -1393.8324324884932, 0.0, 0.0, 0.0, 0.0, -7831.224242594749, 0.0]
['beep', 0.0, -1392.1784033988004, 0.0, 0.0, 0.0, 0.0, -7791.080509553017, 0.0]
['beep', 0.0, -1387.2386678741775, 0.0, 0.0, 0.0, 0.0, -7818.662562210866, 0.0]
['beep', 0.0, -1386.4340050737865, 0.0, 0.0, 0.0, 0.0, -7874.988958238239, 0.0]
['beep', 0.0, -1389.093862663968, 0.0, 0.0, 0.0, 0.0, -7874.765440793686, 0.0]
['beep', 0.0, -1393.60891504394, 0.0, 0.0, 0.0, 0.0, -7838.555614776089, 0.0]
['beep', 0.0, -1392.6701417768172, 0.0, 0.0, 0.0, 0.0, -7793.360387487458, 0.0]
['beep', 0.0, -1387.3280748519987, 0.0, 0.0, 0.0, 0.0, -7820.182480833827, 0.0]
['beep', 0.0, -1388.6468277748618, 0.0, 0.0, 0.0, 0.0, -7877.402946639413, 0.0]
['beep', 0.0, -1394.7265022667054, 0.0, 0.0, 0.0, 0.0, -7877.671167572877, 0.0]
['beep', 0.0, -1398.191022657278, 0.0, 0.0, 0.0, 0.0, -7843.0483154116055, 0.0]
['beep', 0.0, -1392.9830661991914, 0.0, 0.0, 0.0, 0.0, -7796.1990590332825, 0.0]
['beep', 0.0, -1386.3222463515099, 0.0, 0.0, 0.0, 0.0, -7820.137777344916, 0.0]
['beep', 0.0, -1385.9422666957698, 0.0, 0.0, 0.0, 0.0, -7875.547751849623, 0.0]
['beep', 0.0, -1390.8820022203927, 0.0, 0.0, 0.0, 0.0, -7876.1512489499155, 0.0]
['beep', 0.0, -1396.157013911845, 0.0, 0.0, 0.0, 0.0, -7844.83645496803, 0.0]
['beep', 0.0, -1394.2794673775993, 0.0, 0.0, 0.0, 0.0, -7794.5897334325, 0.0]
['beep', 0.0, -1388.3115516080322, 0.0, 0.0, 0.0, 0.0, -7823.31172505757, 0.0]
['beep', 0.0, -1389.6526562753506, 0.0, 0.0, 0.0, 0.0, -7879.571065851577, 0.0]
['beep', 0.0, -1394.5029848221523, 0.0, 0.0, 0.0, 0.0, -7877.22413268377, 0.0]
['beep', 0.0, -1396.6487522898617, 0.0, 0.0, 0.0, 0.0, -7846.781056735642, 0.0]
['beep', 0.0, -1392.960714454736, 0.0, 0.0, 0.0, 0.0, -7797.763681145154, 0.0]
['beep', 0.0, -1388.6691795193171, 0.0, 0.0, 0.0, 0.0, -7825.613954736466, 0.0]
['beep', 0.0, -1386.2775428625994, 0.0, 0.0, 0.0, 0.0, -7879.705176318309, 0.0]
['beep', 0.0, -1392.0442929320686, 0.0, 0.0, 0.0, 0.0, -7875.167772193882, 0.0]
['beep', 0.0, -1398.3027813795545, 0.0, 0.0, 0.0, 0.0, -7848.166864891871, 0.0]
['beep', 0.0, -1395.933496467292, 0.0, 0.0, 0.0, 0.0, -7801.854050380475, 0.0]
['beep', 0.0, -1388.6468277748618, 0.0, 0.0, 0.0, 0.0, -7829.8384344385195, 0.0]
['beep', 0.0, -1387.3057231075434, 0.0, 0.0, 0.0, 0.0, -7881.448612385823, 0.0]
['beep', 0.0, -1391.4631475762305, 0.0, 0.0, 0.0, 0.0, -7879.056975729106, 0.0]
['beep', 0.0, -1395.2852958780882, 0.0, 0.0, 0.0, 0.0, -7854.537112061634, 0.0]
['beep', 0.0, -1393.8547842329485, 0.0, 0.0, 0.0, 0.0, -7805.273867282137, 0.0]
['beep', 0.0, -1388.8479934749596, 0.0, 0.0, 0.0, 0.0, -7833.079437384539, 0.0]
['beep', 0.0, -1388.1774411413005, 0.0, 0.0, 0.0, 0.0, -7882.700310075321, 0.0]
['beep', 0.0, -1391.641961531873, 0.0, 0.0, 0.0, 0.0, -7877.648815828421, 0.0]
['beep', 0.0, -1392.8713074769148, 0.0, 0.0, 0.0, 0.0, -7855.341774862025, 0.0]
['beep', 0.0, -1390.7031882647502, 0.0, 0.0, 0.0, 0.0, -7806.145585315894, 0.0]
['beep', 0.0, -1387.3951300853646, 0.0, 0.0, 0.0, 0.0, -7835.716943230265, 0.0]
['beep', 0.0, -1387.193964385267, 0.0, 0.0, 0.0, 0.0, -7883.884952531452, 0.0]
['beep', 0.0, -1391.4407958317752, 0.0, 0.0, 0.0, 0.0, -7877.604112339511, 0.0]
['beep', 0.0, -1397.6545807903506, 0.0, 0.0, 0.0, 0.0, -7858.292205130126, 0.0]
['beep', 0.0, -1394.2124121442334, 0.0, 0.0, 0.0, 0.0, -7811.331190029525, 0.0]
['beep', 0.0, -1384.2211823727112, 0.0, 0.0, 0.0, 0.0, -7835.046390896606, 0.0]
['beep', 0.0, -1381.5389730380743, 0.0, 0.0, 0.0, 0.0, -7878.565237351088, 0.0]
['beep', 0.0, -1384.0647201615238, 0.0, 0.0, 0.0, 0.0, -7869.803353524609, 0.0]
['beep', 0.0, -1386.3445980959652, 0.0, 0.0, 0.0, 0.0, -7849.083286414539, 0.0]
['beep', 0.0, -1383.41651957232, 0.0, 0.0, 0.0, 0.0, -7805.519736471145, 0.0]
['beep', 0.0, -1378.7003014922502, 0.0, 0.0, 0.0, 0.0, -7829.5478617606, 0.0]
['beep', 0.0, -1378.5885427699736, 0.0, 0.0, 0.0, 0.0, -7869.244559913226, 0.0]
['beep', 0.0, -1383.0365399165798, 0.0, 0.0, 0.0, 0.0, -7862.829609254552, 0.0]
['beep', 0.0, -1386.6798742627948, 0.0, 0.0, 0.0, 0.0, -7848.546844547612, 0.0]
['beep', 0.0, -1384.3329410949875, 0.0, 0.0, 0.0, 0.0, -7811.755873174176, 0.0]
['beep', 0.0, -1379.0355776590798, 0.0, 0.0, 0.0, 0.0, -7833.414713551369, 0.0]
['beep', 0.0, -1378.454432303242, 0.0, 0.0, 0.0, 0.0, -7871.591493081033, 0.0]
['beep', 0.0, -1382.164821882823, 0.0, 0.0, 0.0, 0.0, -7865.489466844734, 0.0]
['beep', 0.0, -1386.2775428625994, 0.0, 0.0, 0.0, 0.0, -7852.212530638281, 0.0]
['beep', 0.0, -1385.450528317753, 0.0, 0.0, 0.0, 0.0, -7823.334076802025, 0.0]
['beep', 0.0, -1378.8120602145268, 0.0, 0.0, 0.0, 0.0, -7841.148417132905, 0.0]
['beep', 0.0, -1377.7838799695826, 0.0, 0.0, 0.0, 0.0, -7873.5584465931, 0.0]
['beep', 0.0, -1380.9801794266916, 0.0, 0.0, 0.0, 0.0, -7865.489466844734, 0.0]
['beep', 0.0, -1384.2658858616217, 0.0, 0.0, 0.0, 0.0, -7852.212530638281, 0.0]
['beep', 0.0, -1383.6176852724177, 0.0, 0.0, 0.0, 0.0, -7841.863672955475, 0.0]
['beep', 0.0, -1379.6837782482837, 0.0, 0.0, 0.0, 0.0, -7852.659565527388, 0.0]
['beep', 0.0, -1378.5214875366078, 0.0, 0.0, 0.0, 0.0, -7873.5584465931, 0.0]
['beep', 0.0, -1382.7459672386608, 0.0, 0.0, 0.0, 0.0, -7865.981205222751, 0.0]
['beep', 0.0, -1386.836336473982, 0.0, 0.0, 0.0, 0.0, -7853.441876583323, 0.0]
['beep', 0.0, -1383.8412027169709, 0.0, 0.0, 0.0, 0.0, -7852.07842017155, 0.0]
['beep', 0.0, -1377.292141591566, 0.0, 0.0, 0.0, 0.0, -7864.327176133058, 0.0]
['beep', 0.0, -1377.5603625250296, 0.0, 0.0, 0.0, 0.0, -7873.312577404092, 0.0]
['beep', 0.0, -1382.9471329387586, 0.0, 0.0, 0.0, 0.0, -7866.495295345223, 0.0]
['beep', 0.0, -1387.5068888076412, 0.0, 0.0, 0.0, 0.0, -7854.335946361536, 0.0]
['beep', 0.0, -1383.5059265501413, 0.0, 0.0, 0.0, 0.0, -7856.548769062611, 0.0]
['beep', 0.0, -1377.8509352029487, 0.0, 0.0, 0.0, 0.0, -7866.830571512052, 0.0]
['beep', 0.0, -1377.6050660139401, 0.0, 0.0, 0.0, 0.0, -7873.357280893002, 0.0]
['beep', 0.0, -1381.8518974604485, 0.0, 0.0, 0.0, 0.0, -7864.662452299888, 0.0]
['beep', 0.0, -1387.1045574074458, 0.0, 0.0, 0.0, 0.0, -7850.916129459874, 0.0]
['beep', 0.0, -1384.5341067950853, 0.0, 0.0, 0.0, 0.0, -7852.927786460851, 0.0]
['beep', 0.0, -1378.1862113697782, 0.0, 0.0, 0.0, 0.0, -7866.2270744117595, 0.0]
['beep', 0.0, -1376.8451067024598, 0.0, 0.0, 0.0, 0.0, -7872.194990181326, 0.0]
['beep', 0.0, -1383.1482986388564, 0.0, 0.0, 0.0, 0.0, -7863.209588910293, 0.0]
['beep', 0.0, -1388.1997928857556, 0.0, 0.0, 0.0, 0.0, -7851.854902726996, 0.0]
['beep', 0.0, -1385.8752114624037, 0.0, 0.0, 0.0, 0.0, -7852.301937616103, 0.0]
['beep', 0.0, -1379.124984636901, 0.0, 0.0, 0.0, 0.0, -7863.611920310488, 0.0]
['beep', 0.0, -1377.739176480672, 0.0, 0.0, 0.0, 0.0, -7870.853885514008, 0.0]
['beep', 0.0, -1383.5282782945965, 0.0, 0.0, 0.0, 0.0, -7863.053126699106, 0.0]
['beep', 0.0, -1388.065682419024, 0.0, 0.0, 0.0, 0.0, -7850.066763170572, 0.0]
['beep', 0.0, -1386.769281240616, 0.0, 0.0, 0.0, 0.0, -7848.882120714441, 0.0]
['beep', 0.0, -1381.158993382334, 0.0, 0.0, 0.0, 0.0, -7863.298995888114, 0.0]
['beep', 0.0, -1380.9131241933255, 0.0, 0.0, 0.0, 0.0, -7870.965644236285, 0.0]
['beep', 0.0, -1386.3445980959652, 0.0, 0.0, 0.0, 0.0, -7865.578873822556, 0.0]
['beep', 0.0, -1389.8761737199038, 0.0, 0.0, 0.0, 0.0, -7854.917091717374, 0.0]
['beep', 0.0, -1387.41748182982, 0.0, 0.0, 0.0, 0.0, -7852.525455060656, 0.0]
['beep', 0.0, -1380.577848026496, 0.0, 0.0, 0.0, 0.0, -7864.573045322067, 0.0]
['beep', 0.0, -1377.3815485693872, 0.0, 0.0, 0.0, 0.0, -7872.507914603701, 0.0]
['beep', 0.0, -1380.6896067487726, 0.0, 0.0, 0.0, 0.0, -7865.109487188994, 0.0]
['beep', 0.0, -1386.836336473982, 0.0, 0.0, 0.0, 0.0, -7852.033716682639, 0.0]
['beep', 0.0, -1383.997664928158, 0.0, 0.0, 0.0, 0.0, -7851.787847493631, 0.0]
['beep', 0.0, -1379.192039870267, 0.0, 0.0, 0.0, 0.0, -7864.684804044343, 0.0]
['beep', 0.0, -1377.3591968249318, 0.0, 0.0, 0.0, 0.0, -7872.08323145905, 0.0]
['beep', 0.0, -1381.6283800158956, 0.0, 0.0, 0.0, 0.0, -7865.154190677905, 0.0]
['beep', 0.0, -1386.2104876292335, 0.0, 0.0, 0.0, 0.0, -7853.821856239064, 0.0]
['beep', 0.0, -1384.3329410949875, 0.0, 0.0, 0.0, 0.0, -7852.748972505209, 0.0]
['beep', 0.0, -1377.962693925225, 0.0, 0.0, 0.0, 0.0, -7863.70132728831, 0.0]
['beep', 0.0, -1377.2697898471106, 0.0, 0.0, 0.0, 0.0, -7872.329100648058, 0.0]
['beep', 0.0, -1381.9413044382698, 0.0, 0.0, 0.0, 0.0, -7865.109487188994, 0.0]
['beep', 0.0, -1385.9422666957698, 0.0, 0.0, 0.0, 0.0, -7852.368992849469, 0.0]
['beep', 0.0, -1385.0034934286468, 0.0, 0.0, 0.0, 0.0, -7852.681917271843, 0.0]
['beep', 0.0, -1377.8732869474038, 0.0, 0.0, 0.0, 0.0, -7865.712984289287, 0.0]
['beep', 0.0, -1376.12985087989, 0.0, 0.0, 0.0, 0.0, -7874.072536715572, 0.0]
['beep', 0.0, -1381.360159082432, 0.0, 0.0, 0.0, 0.0, -7866.070612200572, 0.0]
['beep', 0.0, -1385.8305079734932, 0.0, 0.0, 0.0, 0.0, -7852.056068427095, 0.0]
['beep', 0.0, -1383.0588916610352, 0.0, 0.0, 0.0, 0.0, -7850.2008736373045, 0.0]
['beep', 0.0, -1377.448603802753, 0.0, 0.0, 0.0, 0.0, -7862.047298198617, 0.0]
['beep', 0.0, -1376.6886444912725, 0.0, 0.0, 0.0, 0.0, -7870.429202369357, 0.0]
['beep', 0.0, -1381.2707521046107, 0.0, 0.0, 0.0, 0.0, -7864.193065666326, 0.0]
['beep', 0.0, -1385.5175835511188, 0.0, 0.0, 0.0, 0.0, -7850.849074226508, 0.0]
['beep', 0.0, -1383.7964992280602, 0.0, 0.0, 0.0, 0.0, -7849.9103009593855, 0.0]
['beep', 0.0, -1379.0132259146246, 0.0, 0.0, 0.0, 0.0, -7862.9413679768295, 0.0]
['beep', 0.0, -1376.2416096021664, 0.0, 0.0, 0.0, 0.0, -7872.105583203505, 0.0]
['beep', 0.0, -1379.8625922039262, 0.0, 0.0, 0.0, 0.0, -7864.84126625553, 0.0]
['beep', 0.0, -1384.154127139345, 0.0, 0.0, 0.0, 0.0, -7852.816027738575, 0.0]
['beep', 0.0, -1383.0812434054903, 0.0, 0.0, 0.0, 0.0, -7852.659565527388, 0.0]
['beep', 0.0, -1378.1415078808675, 0.0, 0.0, 0.0, 0.0, -7862.159056920894, 0.0]
['beep', 0.0, -1376.4204235578088, 0.0, 0.0, 0.0, 0.0, -7870.0492227136165, 0.0]
['beep', 0.0, -1381.6954352492614, 0.0, 0.0, 0.0, 0.0, -7864.327176133058, 0.0]
['beep', 0.0, -1385.3164178510212, 0.0, 0.0, 0.0, 0.0, -7851.921957960362, 0.0]
['beep', 0.0, -1382.5895050274737, 0.0, 0.0, 0.0, 0.0, -7850.133818403938, 0.0]
['beep', 0.0, -1376.643941002362, 0.0, 0.0, 0.0, 0.0, -7861.644966798422, 0.0]
['beep', 0.0, -1374.4758217901972, 0.0, 0.0, 0.0, 0.0, -7870.540961091633, 0.0]
['beep', 0.0, -1379.8178887150157, 0.0, 0.0, 0.0, 0.0, -7863.991899966229, 0.0]
['beep', 0.0, -1383.1035951499457, 0.0, 0.0, 0.0, 0.0, -7850.826722482053, 0.0]
['beep', 0.0, -1382.0083596716356, 0.0, 0.0, 0.0, 0.0, -7849.753838748198, 0.0]
['beep', 0.0, -1377.94034218077, 0.0, 0.0, 0.0, 0.0, -7861.801429009609, 0.0]
['beep', 0.0, -1375.5263537795965, 0.0, 0.0, 0.0, 0.0, -7870.630368069455, 0.0]
['beep', 0.0, -1379.6390747593732, 0.0, 0.0, 0.0, 0.0, -7863.991899966229, 0.0]
['beep', 0.0, -1384.6905690062724, 0.0, 0.0, 0.0, 0.0, -7851.251405626704, 0.0]
['beep', 0.0, -1382.32128409401, 0.0, 0.0, 0.0, 0.0, -7850.692612015321, 0.0]
['beep', 0.0, -1377.3368450804765, 0.0, 0.0, 0.0, 0.0, -7862.874312743464, 0.0]
['beep', 0.0, -1375.995740413158, 0.0, 0.0, 0.0, 0.0, -7873.066708215083, 0.0]
['beep', 0.0, -1382.4106910718313, 0.0, 0.0, 0.0, 0.0, -7865.489466844734, 0.0]
['beep', 0.0, -1386.7022260072501, 0.0, 0.0, 0.0, 0.0, -7850.804370737597, 0.0]
['beep', 0.0, -1384.7799759840937, 0.0, 0.0, 0.0, 0.0, -7850.469094570768, 0.0]
['beep', 0.0, -1379.5273160370966, 0.0, 0.0, 0.0, 0.0, -7862.248463898714, 0.0]
['beep', 0.0, -1376.062795646524, 0.0, 0.0, 0.0, 0.0, -7872.664376814888, 0.0]
['beep', 0.0, -1380.421385815309, 0.0, 0.0, 0.0, 0.0, -7866.964681978784, 0.0]
['beep', 0.0, -1385.0705486620127, 0.0, 0.0, 0.0, 0.0, -7851.407867837891, 0.0]
['beep', 0.0, -1385.5399352955742, 0.0, 0.0, 0.0, 0.0, -7849.977356192751, 0.0]
['beep', 0.0, -1380.868420704415, 0.0, 0.0, 0.0, 0.0, -7862.606091809999, 0.0]
['beep', 0.0, -1377.1133276359235, 0.0, 0.0, 0.0, 0.0, -7872.820839026075, 0.0]
['beep', 0.0, -1379.8178887150157, 0.0, 0.0, 0.0, 0.0, -7867.858751756997, 0.0]
['beep', 0.0, -1386.8586882184372, 0.0, 0.0, 0.0, 0.0, -7855.051202184106, 0.0]
['beep', 0.0, -1386.0093219291357, 0.0, 0.0, 0.0, 0.0, -7853.419524838869, 0.0]
['beep', 0.0, -1379.1696881258117, 0.0, 0.0, 0.0, 0.0, -7864.327176133058, 0.0]
['beep', 0.0, -1377.8509352029487, 0.0, 0.0, 0.0, 0.0, -7873.513743104189, 0.0]
['beep', 0.0, -1381.7848422270827, 0.0, 0.0, 0.0, 0.0, -7867.232902912248, 0.0]
['beep', 0.0, -1386.0540254180462, 0.0, 0.0, 0.0, 0.0, -7853.821856239064, 0.0]
['beep', 0.0, -1384.3999963283536, 0.0, 0.0, 0.0, 0.0, -7852.972489949762, 0.0]
['beep', 0.0, -1377.962693925225, 0.0, 0.0, 0.0, 0.0, -7863.544865077122, 0.0]
['beep', 0.0, -1377.0909758914681, 0.0, 0.0, 0.0, 0.0, -7872.8655425149855, 0.0]
['beep', 0.0, -1380.6001997709513, 0.0, 0.0, 0.0, 0.0, -7866.629405811955, 0.0]
['beep', 0.0, -1385.1152521509234, 0.0, 0.0, 0.0, 0.0, -7852.480751571746, 0.0]
['beep', 0.0, -1383.2153538722223, 0.0, 0.0, 0.0, 0.0, -7849.865597470474, 0.0]
['beep', 0.0, -1379.2367433591776, 0.0, 0.0, 0.0, 0.0, -7861.264987142681, 0.0]
['beep', 0.0, -1378.0744526475016, 0.0, 0.0, 0.0, 0.0, -7872.440859370335, 0.0]
['beep', 0.0, -1383.0812434054903, 0.0, 0.0, 0.0, 0.0, -7865.735336033743, 0.0]
['beep', 0.0, -1388.6915312637725, 0.0, 0.0, 0.0, 0.0, -7851.609033537989, 0.0]
['beep', 0.0, -1385.159955639834, 0.0, 0.0, 0.0, 0.0, -7849.999707937206, 0.0]
['beep', 0.0, -1381.5836765269848, 0.0, 0.0, 0.0, 0.0, -7861.868484242975, 0.0]
['beep', 0.0, -1378.5661910255185, 0.0, 0.0, 0.0, 0.0, -7870.093926202528, 0.0]
['beep', 0.0, -1382.7236154942054, 0.0, 0.0, 0.0, 0.0, -7866.629405811955, 0.0]
['beep', 0.0, -1388.3115516080322, 0.0, 0.0, 0.0, 0.0, -7853.0842486720385, 0.0]
['beep', 0.0, -1389.2950283640657, 0.0, 0.0, 0.0, 0.0, -7849.2621003701815, 0.0]
['beep', 0.0, -1382.7683189831162, 0.0, 0.0, 0.0, 0.0, -7859.566254564078, 0.0]
['beep', 0.0, -1379.9967026706581, 0.0, 0.0, 0.0, 0.0, -7869.2222081687705, 0.0]
['beep', 0.0, -1383.707092250239, 0.0, 0.0, 0.0, 0.0, -7865.958853478295, 0.0]
['beep', 0.0, -1388.51271730813, 0.0, 0.0, 0.0, 0.0, -7852.324289360558, 0.0]
['beep', 0.0, -1386.4563568182418, 0.0, 0.0, 0.0, 0.0, -7847.451609069301, 0.0]
['beep', 0.0, -1382.5000980496525, 0.0, 0.0, 0.0, 0.0, -7860.147399919916, 0.0]
['beep', 0.0, -1379.4602608037308, 0.0, 0.0, 0.0, 0.0, -7871.41267912539, 0.0]
['beep', 0.0, -1383.4612230612306, 0.0, 0.0, 0.0, 0.0, -7866.741164534232, 0.0]
['beep', 0.0, -1388.9821039416915, 0.0, 0.0, 0.0, 0.0, -7852.07842017155, 0.0]
['beep', 0.0, -1386.8139847295267, 0.0, 0.0, 0.0, 0.0, -7849.463266070279, 0.0]
['beep', 0.0, -1381.0695864045128, 0.0, 0.0, 0.0, 0.0, -7861.7120220317875, 0.0]
['beep', 0.0, -1378.8120602145268, 0.0, 0.0, 0.0, 0.0, -7872.150286692416, 0.0]
['beep', 0.0, -1382.7683189831162, 0.0, 0.0, 0.0, 0.0, -7865.51181858919, 0.0]
['beep', 0.0, -1388.1997928857556, 0.0, 0.0, 0.0, 0.0, -7850.759667248687, 0.0]
['beep', 0.0, -1387.3951300853646, 0.0, 0.0, 0.0, 0.0, -7848.45743756979, 0.0]
['beep', 0.0, -1381.8518974604485, 0.0, 0.0, 0.0, 0.0, -7862.114353431983, 0.0]
['beep', 0.0, -1379.8178887150157, 0.0, 0.0, 0.0, 0.0, -7870.228036669259, 0.0]
['beep', 0.0, -1381.6060282714402, 0.0, 0.0, 0.0, 0.0, -7864.9977284667175, 0.0]
['beep', 0.0, -1385.8305079734932, 0.0, 0.0, 0.0, 0.0, -7851.720792260265, 0.0]
['beep', 0.0, -1385.897563206859, 0.0, 0.0, 0.0, 0.0, -7848.748010247709, 0.0]
['beep', 0.0, -1381.3378073379765, 0.0, 0.0, 0.0, 0.0, -7859.387440608435, 0.0]
['beep', 0.0, -1380.2649236041218, 0.0, 0.0, 0.0, 0.0, -7868.953987235307, 0.0]
['beep', 0.0, -1382.7683189831162, 0.0, 0.0, 0.0, 0.0, -7863.70132728831, 0.0]
['beep', 0.0, -1386.8586882184372, 0.0, 0.0, 0.0, 0.0, -7849.977356192751, 0.0]
['beep', 0.0, -1385.60699052894, 0.0, 0.0, 0.0, 0.0, -7847.138684646927, 0.0]
['beep', 0.0, -1379.4379090592754, 0.0, 0.0, 0.0, 0.0, -7858.7168882747765, 0.0]
['beep', 0.0, -1377.806231714038, 0.0, 0.0, 0.0, 0.0, -7870.317443647081, 0.0]
['beep', 0.0, -1380.8460689599597, 0.0, 0.0, 0.0, 0.0, -7866.2270744117595, 0.0]
['beep', 0.0, -1384.8917347063702, 0.0, 0.0, 0.0, 0.0, -7850.916129459874, 0.0]
['beep', 0.0, -1384.0870719059792, 0.0, 0.0, 0.0, 0.0, -7848.658603269888, 0.0]
['beep', 0.0, -1379.5943712704625, 0.0, 0.0, 0.0, 0.0, -7859.36508886398, 0.0]
['beep', 0.0, -1376.2416096021664, 0.0, 0.0, 0.0, 0.0, -7868.529304090656, 0.0]
['beep', 0.0, -1379.3261503369988, 0.0, 0.0, 0.0, 0.0, -7865.400059866913, 0.0]
['beep', 0.0, -1387.8198132300156, 0.0, 0.0, 0.0, 0.0, -7850.424391081857, 0.0]
['beep', 0.0, -1389.1832696417891, 0.0, 0.0, 0.0, 0.0, -7847.473960813757, 0.0]
['beep', 0.0, -1386.9480951962585, 0.0, 0.0, 0.0, 0.0, -7861.019117953672, 0.0]
['beep', 0.0, -1389.6526562753506, 0.0, 0.0, 0.0, 0.0, -7874.519571604678, 0.0]
['beep', 0.0, -1398.3027813795545, 0.0, 0.0, 0.0, 0.0, -7873.916074504385, 0.0]
['beep', 0.0, -1406.260002405644, 0.0, 0.0, 0.0, 0.0, -7861.7120220317875, 0.0]
['beep', 0.0, -1409.255136162655, 0.0, 0.0, 0.0, 0.0, -7859.566254564078, 0.0]
['beep', 0.0, -1409.2327844181998, 0.0, 0.0, 0.0, 0.0, -7874.005481482206, 0.0]
['beep', 0.0, -1405.9247262388142, 0.0, 0.0, 0.0, 0.0, -7888.578818867067, 0.0]
['beep', 0.0, -1407.1317204394009, 0.0, 0.0, 0.0, 0.0, -7884.667263587387, 0.0]
['beep', 0.0, -1411.7361797971942, 0.0, 0.0, 0.0, 0.0, -7870.093926202528, 0.0]
['beep', 0.0, -1410.193909429778, 0.0, 0.0, 0.0, 0.0, -7866.919978489874, 0.0]
['beep', 0.0, -1406.639982061384, 0.0, 0.0, 0.0, 0.0, -7877.827629784064, 0.0]
['beep', 0.0, -1404.7400837826829, 0.0, 0.0, 0.0, 0.0, -7889.428185156368, 0.0]
['beep', 0.0, -1407.1317204394009, 0.0, 0.0, 0.0, 0.0, -7886.611865354999, 0.0]
['beep', 0.0, -1412.093807708479, 0.0, 0.0, 0.0, 0.0, -7871.435030869846, 0.0]
['beep', 0.0, -1412.7420082976828, 0.0, 0.0, 0.0, 0.0, -7868.685766301843, 0.0]
['beep', 0.0, -1406.8858512503925, 0.0, 0.0, 0.0, 0.0, -7879.526362362667, 0.0]
['beep', 0.0, -1405.2318221606997, 0.0, 0.0, 0.0, 0.0, -7891.328083435069, 0.0]
['beep', 0.0, -1410.8421100189819, 0.0, 0.0, 0.0, 0.0, -7888.2435427002365, 0.0]
['beep', 0.0, -1415.6253833324174, 0.0, 0.0, 0.0, 0.0, -7872.485562859245, 0.0]
['beep', 0.0, -1413.412560631342, 0.0, 0.0, 0.0, 0.0, -7867.322309890069, 0.0]
['beep', 0.0, -1408.1822524288002, 0.0, 0.0, 0.0, 0.0, -7880.286321674147, 0.0]
['beep', 0.0, -1405.2988773940656, 0.0, 0.0, 0.0, 0.0, -7891.551600879622, 0.0]
['beep', 0.0, -1409.3668948849315, 0.0, 0.0, 0.0, 0.0, -7888.869391544985, 0.0]
['beep', 0.0, -1414.7313135542051, 0.0, 0.0, 0.0, 0.0, -7872.731432048254, 0.0]
['beep', 0.0, -1414.2172234317331, 0.0, 0.0, 0.0, 0.0, -7868.149324434916, 0.0]
['beep', 0.0, -1407.6681623063282, 0.0, 0.0, 0.0, 0.0, -7879.951045507318, 0.0]
['beep', 0.0, -1406.483519850197, 0.0, 0.0, 0.0, 0.0, -7891.819821813086, 0.0]
['beep', 0.0, -1410.3280198965097, 0.0, 0.0, 0.0, 0.0, -7891.730414835265, 0.0]
['beep', 0.0, -1413.3455053979762, 0.0, 0.0, 0.0, 0.0, -7876.218304183281, 0.0]
['beep', 0.0, -1412.451435619764, 0.0, 0.0, 0.0, 0.0, -7870.429202369357, 0.0]
['beep', 0.0, -1409.836281518493, 0.0, 0.0, 0.0, 0.0, -7880.979225752262, 0.0]
['beep', 0.0, -1408.7186942957276, 0.0, 0.0, 0.0, 0.0, -7892.624484613477, 0.0]
['beep', 0.0, -1411.2444414191773, 0.0, 0.0, 0.0, 0.0, -7895.507859648212, 0.0]
['beep', 0.0, -1409.0986739514678, 0.0, 0.0, 0.0, 0.0, -7874.787792538142, 0.0]
['beep', 0.0, -1403.6001448154623, 0.0, 0.0, 0.0, 0.0, -7861.086173187038, 0.0]
['beep', 0.0, -1395.2405923891774, 0.0, 0.0, 0.0, 0.0, -7868.596359324022, 0.0]
['beep', 0.0, -1385.4058248288425, 0.0, 0.0, 0.0, 0.0, -7878.297016417625, 0.0]
['beep', 0.0, -1382.8800777053928, 0.0, 0.0, 0.0, 0.0, -7873.513743104189, 0.0]
['beep', 0.0, -1386.1434323958674, 0.0, 0.0, 0.0, 0.0, -7850.737315504231, 0.0]
['beep', 0.0, -1383.774147483605, 0.0, 0.0, 0.0, 0.0, -7840.9919549217175, 0.0]
['beep', 0.0, -1375.4592985462307, 0.0, 0.0, 0.0, 0.0, -7851.586681793533, 0.0]
['beep', 0.0, -1372.7323857226831, 0.0, 0.0, 0.0, 0.0, -7864.617748810977, 0.0]
['beep', 0.0, -1375.548705524052, 0.0, 0.0, 0.0, 0.0, -7867.74699303472, 0.0]
['beep', 0.0, -1381.9413044382698, 0.0, 0.0, 0.0, 0.0, -7848.725658503254, 0.0]
['beep', 0.0, -1382.32128409401, 0.0, 0.0, 0.0, 0.0, -7841.818969466564, 0.0]
['beep', 0.0, -1377.292141591566, 0.0, 0.0, 0.0, 0.0, -7853.330117861047, 0.0]
['beep', 0.0, -1375.3922433128648, 0.0, 0.0, 0.0, 0.0, -7868.909283746396, 0.0]
['beep', 0.0, -1378.901467192348, 0.0, 0.0, 0.0, 0.0, -7874.899551260419, 0.0]
['beep', 0.0, -1383.6847405057838, 0.0, 0.0, 0.0, 0.0, -7854.760629506187, 0.0]
['beep', 0.0, -1383.2824091055882, 0.0, 0.0, 0.0, 0.0, -7845.372896834958, 0.0]
['beep', 0.0, -1378.2979700920548, 0.0, 0.0, 0.0, 0.0, -7856.8393417405305, 0.0]
['beep', 0.0, -1375.995740413158, 0.0, 0.0, 0.0, 0.0, -7871.658548314399, 0.0]
['beep', 0.0, -1379.773185226105, 0.0, 0.0, 0.0, 0.0, -7878.252312928715, 0.0]
['beep', 0.0, -1383.1035951499457, 0.0, 0.0, 0.0, 0.0, -7856.347603362514, 0.0]
['beep', 0.0, -1382.388339327376, 0.0, 0.0, 0.0, 0.0, -7845.50700730169, 0.0]
['beep', 0.0, -1376.50983053563, 0.0, 0.0, 0.0, 0.0, -7855.945271962318, 0.0]
['beep', 0.0, -1374.028786901091, 0.0, 0.0, 0.0, 0.0, -7874.810144282597, 0.0]
['beep', 0.0, -1378.3426735809653, 0.0, 0.0, 0.0, 0.0, -7883.594379853533, 0.0]
['beep', 0.0, -1384.8470312174597, 0.0, 0.0, 0.0, 0.0, -7859.923882475363, 0.0]
['beep', 0.0, -1384.6235137729066, 0.0, 0.0, 0.0, 0.0, -7846.60224278, 0.0]
['beep', 0.0, -1380.421385815309, 0.0, 0.0, 0.0, 0.0, -7855.542940562123, 0.0]
['beep', 0.0, -1378.0073974141358, 0.0, 0.0, 0.0, 0.0, -7875.994786738728, 0.0]
['beep', 0.0, -1381.3154555935212, 0.0, 0.0, 0.0, 0.0, -7887.841211300041, 0.0]
['beep', 0.0, -1385.2717143621105, 0.0, 0.0, 0.0, 0.0, -7862.606091809999, 0.0]
['beep', 0.0, -1383.2377056166777, 0.0, 0.0, 0.0, 0.0, -7850.044411426117, 0.0]
['beep', 0.0, -1378.767356725616, 0.0, 0.0, 0.0, 0.0, -7860.259158642192, 0.0]
['beep', 0.0, -1378.4767840476973, 0.0, 0.0, 0.0, 0.0, -7877.671167572877, 0.0]
['beep', 0.0, -1381.8518974604485, 0.0, 0.0, 0.0, 0.0, -7891.41749041289, 0.0]
['beep', 0.0, -1387.4845370631858, 0.0, 0.0, 0.0, 0.0, -7865.355356378002, 0.0]
['beep', 0.0, -1385.159955639834, 0.0, 0.0, 0.0, 0.0, -7849.552673048101, 0.0]
['beep', 0.0, -1379.41555731482, 0.0, 0.0, 0.0, 0.0, -7859.655661541899, 0.0]
['beep', 0.0, -1378.1862113697782, 0.0, 0.0, 0.0, 0.0, -7880.554542607611, 0.0]
['beep', 0.0, -1380.1084613929345, 0.0, 0.0, 0.0, 0.0, -7897.877144560474, 0.0]
['beep', 0.0, -1384.13177539489, 0.0, 0.0, 0.0, 0.0, -7868.015213968184, 0.0]
['beep', 0.0, -1383.6847405057838, 0.0, 0.0, 0.0, 0.0, -7847.943347447318, 0.0]
['beep', 0.0, -1378.1862113697782, 0.0, 0.0, 0.0, 0.0, -7859.476847586257, 0.0]
['beep', 0.0, -1376.7333479801832, 0.0, 0.0, 0.0, 0.0, -7882.4320891418565, 0.0]
['beep', 0.0, -1379.7508334816496, 0.0, 0.0, 0.0, 0.0, -7899.709987605809, 0.0]
['beep', 0.0, -1384.51175505063, 0.0, 0.0, 0.0, 0.0, -7870.384498880447, 0.0]
['beep', 0.0, -1385.4058248288425, 0.0, 0.0, 0.0, 0.0, -7849.038582925628, 0.0]
['beep', 0.0, -1379.4602608037308, 0.0, 0.0, 0.0, 0.0, -7858.962757463784, 0.0]
['beep', 0.0, -1376.12985087989, 0.0, 0.0, 0.0, 0.0, -7883.169696708882, 0.0]
['beep', 0.0, -1371.7936124555604, 0.0, 0.0, 0.0, 0.0, -7899.486470161256, 0.0]
['beep', 0.0, -1382.8130224720267, 0.0, 0.0, 0.0, 0.0, -7871.9267692478625, 0.0]
['beep', 0.0, -1385.4952318066637, 0.0, 0.0, 0.0, 0.0, -7849.999707937206, 0.0]
['beep', 0.0, -1379.6837782482837, 0.0, 0.0, 0.0, 0.0, -7858.8957022304185, 0.0]
['beep', 0.0, -1371.4359845442755, 0.0, 0.0, 0.0, 0.0, -7885.851906043519, 0.0]
['beep', 0.0, -1349.3748127668873, 0.0, 0.0, 0.0, 0.0, -7904.962647552807, 0.0]
['beep', 0.0, -1375.839278201971, 0.0, 0.0, 0.0, 0.0, -7876.08419371655, 0.0]
['beep', 0.0, -1384.578810283996, 0.0, 0.0, 0.0, 0.0, -7850.133818403938, 0.0]
['beep', 0.0, -1377.7615282251274, 0.0, 0.0, 0.0, 0.0, -7858.940405719329, 0.0]
['beep', 0.0, -1367.390318797865, 0.0, 0.0, 0.0, 0.0, -7886.030719999161, 0.0]
['beep', 0.0, -1328.8112078680049, 0.0, 0.0, 0.0, 0.0, -7903.062749274105, 0.0]
['beep', 0.0, -1367.0997461199458, 0.0, 0.0, 0.0, 0.0, -7877.022966983673, 0.0]
['beep', 0.0, -1383.2600573611328, 0.0, 0.0, 0.0, 0.0, -7851.407867837891, 0.0]
['beep', 0.0, -1377.9850456696804, 0.0, 0.0, 0.0, 0.0, -7860.929710975852, 0.0]
['beep', 0.0, -1365.8256966859933, 0.0, 0.0, 0.0, 0.0, -7889.249371200725, 0.0]
['beep', 0.0, -1318.1494257628235, 0.0, 0.0, 0.0, 0.0, -7902.816880085097, 0.0]
['beep', 0.0, -1362.6070454844291, 0.0, 0.0, 0.0, 0.0, -7878.051147228617, 0.0]
['beep', 0.0, -1383.5059265501413, 0.0, 0.0, 0.0, 0.0, -7851.765495749176, 0.0]
['beep', 0.0, -1378.2979700920548, 0.0, 0.0, 0.0, 0.0, -7861.130876675949, 0.0]
['beep', 0.0, -1363.8140396850158, 0.0, 0.0, 0.0, 0.0, -7887.327121177569, 0.0]
['beep', 0.0, -1313.5226146605748, 0.0, 0.0, 0.0, 0.0, -7899.911153305907, 0.0]
['beep', 0.0, -1359.9248361497923, 0.0, 0.0, 0.0, 0.0, -7878.587589095544, 0.0]
['beep', 0.0, -1385.8528597179486, 0.0, 0.0, 0.0, 0.0, -7852.190178893827, 0.0]
['beep', 0.0, -1379.6837782482837, 0.0, 0.0, 0.0, 0.0, -7860.84030399803, 0.0]
['beep', 0.0, -1358.8072489270269, 0.0, 0.0, 0.0, 0.0, -7889.964627023295, 0.0]
['beep', 0.0, -1305.6100971233961, 0.0, 0.0, 0.0, 0.0, -7901.051092273127, 0.0]
['beep', 0.0, -1353.2193128132, 0.0, 0.0, 0.0, 0.0, -7882.32033041958, 0.0]
['beep', 0.0, -1383.3271125944989, 0.0, 0.0, 0.0, 0.0, -7854.447705083812, 0.0]
['beep', 0.0, -1377.9179904363145, 0.0, 0.0, 0.0, 0.0, -7861.823780754064, 0.0]
['beep', 0.0, -1357.6896617042617, 0.0, 0.0, 0.0, 0.0, -7890.143440978938, 0.0]
['beep', 0.0, -1303.061998255491, 0.0, 0.0, 0.0, 0.0, -7897.295999204636, 0.0]
['beep', 0.0, -1350.939434878759, 0.0, 0.0, 0.0, 0.0, -7881.202743196815, 0.0]
['beep', 0.0, -1385.5622870400296, 0.0, 0.0, 0.0, 0.0, -7853.21835913877, 0.0]
['beep', 0.0, -1380.287275348577, 0.0, 0.0, 0.0, 0.0, -7858.381612107946, 0.0]
['beep', 0.0, -1354.225141313689, 0.0, 0.0, 0.0, 0.0, -7890.434013656857, 0.0]
['beep', 0.0, -1298.5022423866085, 0.0, 0.0, 0.0, 0.0, -7897.184240482359, 0.0]
['beep', 0.0, -1345.060926087013, 0.0, 0.0, 0.0, 0.0, -7881.89564727493, 0.0]
['beep', 0.0, -1384.802327728549, 0.0, 0.0, 0.0, 0.0, -7854.470056828268, 0.0]
['beep', 0.0, -1380.3766823263982, 0.0, 0.0, 0.0, 0.0, -7860.281510386648, 0.0]
['beep', 0.0, -1350.9617866232143, 0.0, 0.0, 0.0, 0.0, -7889.517592134189, 0.0]
['beep', 0.0, -1294.3224661734662, 0.0, 0.0, 0.0, 0.0, -7893.94323753634, 0.0]
['beep', 0.0, -1338.6906789172506, 0.0, 0.0, 0.0, 0.0, -7883.147344964426, 0.0]
['beep', 0.0, -1383.8859062058814, 0.0, 0.0, 0.0, 0.0, -7854.3135946170805, 0.0]
['beep', 0.0, -1382.611856771929, 0.0, 0.0, 0.0, 0.0, -7861.667318542876, 0.0]
['beep', 0.0, -1350.3806412673762, 0.0, 0.0, 0.0, 0.0, -7892.624484613477, 0.0]
['beep', 0.0, -1295.037721996036, 0.0, 0.0, 0.0, 0.0, -7894.434975914357, 0.0]
['beep', 0.0, -1339.8529696289265, 0.0, 0.0, 0.0, 0.0, -7884.197876953826, 0.0]
['beep', 0.0, -1385.450528317753, 0.0, 0.0, 0.0, 0.0, -7856.481713829246, 0.0]
['beep', 0.0, -1381.4272143157978, 0.0, 0.0, 0.0, 0.0, -7862.404926109902, 0.0]
['beep', 0.0, -1348.5925017109516, 0.0, 0.0, 0.0, 0.0, -7889.785813067653, 0.0]
['beep', 0.0, -1294.5459836180191, 0.0, 0.0, 0.0, 0.0, -7888.0647287445945, 0.0]
['beep', 0.0, -1334.6226614263846, 0.0, 0.0, 0.0, 0.0, -7882.007405997206, 0.0]
['beep', 0.0, -1385.2940661065659, 0.0, 0.0, 0.0, 0.0, -7857.21932139627, 0.0]
['beep', 0.0, -1383.7294439946943, 0.0, 0.0, 0.0, 0.0, -7863.500161588212, 0.0]
['beep', 0.0, -1348.4136877553092, 0.0, 0.0, 0.0, 0.0, -7889.964627023295, 0.0]
['beep', 0.0, -1295.4400533962314, 0.0, 0.0, 0.0, 0.0, -7885.60603685451, 0.0]
['beep', 0.0, -1332.4098387253093, 0.0, 0.0, 0.0, 0.0, -7884.84607754303, 0.0]
['beep', 0.0, -1386.0093219291357, 0.0, 0.0, 0.0, 0.0, -7858.381612107946, 0.0]
['beep', 0.0, -1385.2940661065659, 0.0, 0.0, 0.0, 0.0, -7862.047298198617, 0.0]
['beep', 0.0, -1346.0444028430466, 0.0, 0.0, 0.0, 0.0, -7887.193010710837, 0.0]
['beep', 0.0, -1293.6966173287176, 0.0, 0.0, 0.0, 0.0, -7883.169696708882, 0.0]
['beep', 0.0, -1329.839388112949, 0.0, 0.0, 0.0, 0.0, -7883.773193809176, 0.0]
['beep', 0.0, -1384.7799759840937, 0.0, 0.0, 0.0, 0.0, -7856.548769062611, 0.0]
['beep', 0.0, -1383.8188509725155, 0.0, 0.0, 0.0, 0.0, -7861.041469698128, 0.0]
['beep', 0.0, -1345.1056295759238, 0.0, 0.0, 0.0, 0.0, -7886.567161866089, 0.0]
['beep', 0.0, -1293.0260649950583, 0.0, 0.0, 0.0, 0.0, -7877.067670472583, 0.0]
['beep', 0.0, -1324.9667078216921, 0.0, 0.0, 0.0, 0.0, -7887.3047694331135, 0.0]
['beep', 0.0, -1380.8237172155043, 0.0, 0.0, 0.0, 0.0, -7857.9569289632955, 0.0]
['beep', 0.0, -1379.124984636901, 0.0, 0.0, 0.0, 0.0, -7862.1814086653485, 0.0]
['beep', 0.0, -1338.6906789172506, 0.0, 0.0, 0.0, 0.0, -7885.874257787974, 0.0]
['beep', 0.0, -1290.455614382698, 0.0, 0.0, 0.0, 0.0, -7870.585664580544, 0.0]
['beep', 0.0, -1321.0551525420133, 0.0, 0.0, 0.0, 0.0, -7889.584647367556, 0.0]
['beep', 0.0, -1379.4379090592754, 0.0, 0.0, 0.0, 0.0, -7859.566254564078, 0.0]
['beep', 0.0, -1380.6001997709513, 0.0, 0.0, 0.0, 0.0, -7863.097830188016, 0.0]
['beep', 0.0, -1338.8024376395272, 0.0, 0.0, 0.0, 0.0, -7882.610903097499, 0.0]
['beep', 0.0, -1290.6120765938851, 0.0, 0.0, 0.0, 0.0, -7866.919978489874, 0.0]
['beep', 0.0, -1319.3340682189546, 0.0, 0.0, 0.0, 0.0, -7894.122051491982, 0.0]
['beep', 0.0, -1380.5331445375855, 0.0, 0.0, 0.0, 0.0, -7862.98607146574, 0.0]
['beep', 0.0, -1381.8518974604485, 0.0, 0.0, 0.0, 0.0, -7867.836400012541, 0.0]
['beep', 0.0, -1336.8354841274602, 0.0, 0.0, 0.0, 0.0, -7883.661435086899, 0.0]
['beep', 0.0, -1288.3992538928096, 0.0, 0.0, 0.0, 0.0, -7856.168789406871, 0.0]
['beep', 0.0, -1315.6013268949184, 0.0, 0.0, 0.0, 0.0, -7891.596304368532, 0.0]
['beep', 0.0, -1378.5661910255185, 0.0, 0.0, 0.0, 0.0, -7861.421449353868, 0.0]
['beep', 0.0, -1382.164821882823, 0.0, 0.0, 0.0, 0.0, -7862.4719813432675, 0.0]
['beep', 0.0, -1335.3155655044993, 0.0, 0.0, 0.0, 0.0, -7876.4418216278345, 0.0]
['beep', 0.0, -1290.8579457828935, 0.0, 0.0, 0.0, 0.0, -7837.50508278669, 0.0]
['beep', 0.0, -1317.1212455178793, 0.0, 0.0, 0.0, 0.0, -7886.902438032918, 0.0]
['beep', 0.0, -1379.0802811479905, 0.0, 0.0, 0.0, 0.0, -7863.477809843756, 0.0]
['beep', 0.0, -1383.2377056166777, 0.0, 0.0, 0.0, 0.0, -7865.221245911271, 0.0]
