[[-1186.2294299876012, -1186.7211683656178, -1190.208040500646, -1194.432520202699, -1195.3489417253663, -1190.9679998121262, -1186.944685810171, -1188.1740317552128, -1192.6890841351849, -1193.784319613495, -1190.5433166674754, -1187.2576102325452, -1190.0292265450032, -1194.588982413886, -1194.164299269235, -1190.1633370117352, -1188.3528457108553, -1188.6657701332297, -1193.5608021689418, -1193.3372847243888, -1189.9621713116373, -1185.6259328873077, -1187.0340927879922, -1194.0525405469587, -1194.231354502601, -1189.6492468892632, -1187.5258311660089, -1187.3693689548218, -1192.4655666906317, -1191.392682956777, -1189.3586742113441, -1188.4422526886765, -1188.2410869885787, -1193.0467120464698, -1194.0525405469587, -1189.9845230560927, -1187.5034794215537, -1189.269267233523, -1193.7172643801289, -1192.174994012713, -1188.2187352441235, -1187.8387555883833, -1190.4092062007435, -1193.493746935576, -1191.817366101428, -1189.269267233523, -1184.7989183424615, -1183.6589793752407, -1194.5666306694307, -1193.6949126356737, -1186.0506160319587, -1182.6755026192072, -1181.7590810965396, -1187.3917206992771, -1188.8669358333273, -1177.0652147609253, -1172.3937001697661, -1178.6968921061627, -1186.14002300978, -1188.106976521847, -1185.648284631763, -1177.9816362835927, -1177.8698775613163, -1183.4131101862324, -1186.3188369654224, -1183.1448892527687, -1180.0379967734812, -1184.8883253202828, -1191.0574067899474, -1192.4432149461766, -1193.6055056578525, -1188.755177111051, -1187.749348610562, -1193.8960783357713, -1194.8348516028943, -1191.4820899345982, -1186.5200026655202, -1189.42572944471, -1192.778491113006, -1194.0748922914138, -1189.716302122629, -1187.4364241881876, -1192.554973668453, -1196.7347498815955, -1195.8183283589278, -1193.6725608912184, -1190.2527439895564, -1192.1079387793468, -1195.0360173029921, -1195.3712934698217, -1193.1808225132015, -1191.3479794678665, -1191.7056073791514, -1197.1147295373357, -1198.4334824601988, -1192.1079387793468, -1190.2750957340118, -1191.5044416790536, -1196.3547702258552, -1193.7396161245842, -1189.1128050223358, -1188.777528855506, -1191.4820899345982, -1195.3712934698217, -1195.61716265883, -1191.7726626125173, -1189.716302122629, -1189.559839911442, -1196.1312527813022, -1193.6725608912184, -1188.5763631554084, -1187.9505143106599, -1190.8562410898496, -1194.6560376472519, -1193.7172643801289, -1189.5374881669866, -1186.4752991766095, -1188.5987148998636, -1193.4713951911206, -1193.493746935576, -1189.4927846780759, -1187.4364241881876, -1191.035055045492, -1195.3489417253663, -1194.0525405469587, -1189.2469154890675, -1185.9165055652268, -1188.263438733034, -1195.393645214277, -1196.1089010368469, -1190.9903515565816, -1189.582191655897, -1189.8280608449056, -1193.940781824682, -1193.6949126356737, -1192.5996771573637, -1192.7114358796402, -1194.588982413886, -1196.0865492923915, -1196.9582673261484, -1192.4432149461766, -1190.230392245101, -1191.169165512224, -1196.0194940590256, -1195.751273125562, -1191.7950143569726, -1191.8397178458831, -1192.197345757168, -1192.3985114572658, -1193.7396161245842, -1188.621066644319, -1185.8718020763163, -1189.135156766791, -1194.5442789249753, -1194.3431132248777, -1190.2527439895564, -1189.1575085112463, -1192.197345757168, -1196.6453429037742, -1192.979656813104, -1189.4033777002546, -1187.816403843928, -1187.816403843928, -1192.8902498352827, -1195.4159969587324, -1190.230392245101, -1186.296485220967, -1189.5151364225312, -1195.1254242808134, -1195.3265899809112, -1189.2916189779783, -1184.7989183424615, -1191.1915172566794, -1193.0690637909252, -1192.7114358796402, -1189.3139707224334, -1186.8999823212603, -1189.5374881669866, -1195.5277556810088, -1198.4334824601988, -1190.6103719008413, -1186.6094096433415, -1192.197345757168, -1196.4665289481318, -1195.8853835922937, -1191.9514765681597, -1189.068101533425, -1190.52096492302, -1195.7959766144725, -1196.4665289481318, -1189.582191655897, -1186.9670375546264, -1191.0574067899474, -1195.61716265883, -1197.9640958266373, -1192.778491113006, -1188.1740317552128, -1190.7668341120284, -1195.0136655585368, -1195.2818864920005, -1190.722130623118, -1189.3586742113441, -1190.7668341120284, -1194.298409735967, -1195.4159969587324, -1191.4373864456877, -1187.23525848809, -1188.5763631554084, -1187.3693689548218, -1189.9845230560927, -1193.42669170221, -1192.7337876240954, -1192.4208632017212, -1191.683255634696, -1189.9174678227268, -1195.23718300309, -1197.8523371043607, -1192.554973668453, -1189.9621713116373, -1191.9067730792492, -1195.4159969587324, -1198.0758545489139, -1194.0301888025033, -1191.8397178458831, -1190.7444823675733, -1196.4441772036764, -1198.7240551381178, -1194.6336859027965, -1192.1526422682575, -1192.7114358796402, -1193.9854853135926, -1194.2760579915116, -1192.5102701795424, -1188.9339910666934, -1192.3761597128105, -1197.42765395971, -1197.1817847707016, -1193.6278574023077, -1189.135156766791, -1189.783357355995, -1194.2760579915116, -1196.3771219703106, -1193.2478777465676, -1189.6492468892632, -1190.208040500646, -1196.0194940590256, -1197.6958748931736, -1195.1924795141792, -1189.2245637446122, -1190.722130623118, -1193.292581235478, -1195.393645214277, -1190.2527439895564, -1187.7046451216513, -1188.6434183887743, -1192.554973668453, -1195.7065696366512, -1191.7279591236068, -1188.9339910666934, -1189.42572944471, -1189.5151364225312, -1186.8329270878944, -1178.2722089615118, -1169.7561943240398, -1164.5705896104087, -1161.7095663201292, -1154.1546766942354, -1143.3140806334115, -1130.819455482895, -1122.7728274789845, -1119.0177344104927, -1112.6474872407302, -1101.493966757532, -1091.3015712859121, -1084.886620627239, -1082.2491147815126, -1084.0372543379372, -1079.7010159136078, -1076.1694402896692, -1077.0635100678815, -1080.3715682472669, -1082.3385217593338, -1078.561076946387, -1074.560114688887, -1076.0576815673926, -1080.9080101141942, -1081.0868240698367, -1078.2258007795574, -1075.6777019116523, -1079.3433880023229, -1083.0537775819037, -1084.7748619049623, -1082.2267630370573, -1076.3929577342221, -1075.945922845116, -1079.7457194025183, -1082.3608735037892, -1079.008111835493, -1076.2588472674904, -1078.494021713021, -1084.2160682935796, -1083.7466816600183, -1080.5503822029093, -1076.8399926233283, -1078.717539157574, -1084.372530504767, -1087.434719495144, -1084.372530504767, -1080.4162717361776, -1081.2879897699345, -1084.9760276050602, -1087.3900160062333, -1084.014902593482, -1080.3492165028115, -1080.97506534756, -1082.6961496706188, -1081.0197688364708, -1076.4823647120434, -1073.5319344439429, -1074.2248385220573, -1080.170402547169, -1083.9925508490267, -1080.6397891807305, -1076.5717716898646, -1075.565943189376, -1079.7457194025183, -1079.5892571913312, -1074.0460245664149, -1072.4143472211776, -1074.8953908557166, -1079.1645740466804, -1081.2209345365686, -1078.046986823915, -1076.6388269232307, -1076.3259025008563, -1080.5727339473647, -1082.0703008258702, -1075.722405400563, -1072.59316117682, -1076.1023850563033, -1080.8856583697388, -1081.5562107033982, -1076.1694402896692, -1076.750585645507, -1076.6611786676858, -1079.723367658063, -1080.3492165028115, -1075.3647774892781, -1074.5824664333422, -1075.8341641228396, -1078.9410566021272, -1080.662140925186, -1078.2258007795574, -1074.6942251556188, -1075.588294933831, -1080.2821612694456, -1079.7010159136078, -1074.7165769000742, -1071.1850012761356, -1072.7943268769177, -1076.6611786676858, -1078.6281321797528, -1076.1470885452138, -1072.0343675654374, -1075.7000536561077, -1078.1140420572808, -1077.8458211238171, -1075.8118123783843, -1074.2918937554234, -1075.1859635336357, -1077.5999519348088, -1078.2481525240128, -1074.9400943446274, -1071.3191117428676, -1072.7049198990965, -1077.7787658904513, -1079.5669054468758, -1076.9964548345156, -1073.7107483995853, -1075.722405400563, -1078.7398909020294, -1082.2938182704233, -1079.8798298692502, -1072.4366989656328, -1072.7049198990965, -1077.6670071681747, -1079.2316292800463, -1078.0022833350042, -1074.5824664333422, -1076.7729373899624, -1079.8574781247949, -1080.3268647583564, -1074.627169922253, -1071.2520565095017, -1072.883733854739, -1077.4434897236217, -1080.5056787139988, -1078.1587455461915, -1074.1801350331468, -1073.30841699939, -1080.2374577805351, -1080.97506534756, -1076.2588472674904, -1072.883733854739, -1074.627169922253, -1079.946885102616, -1080.1256990582585, -1077.1529170457027, -1073.8895623552278, -1074.9400943446274, -1077.555248445898, -1079.2316292800463, -1075.5212397004652, -1071.2297047650463, -1072.4814024545435, -1076.3929577342221, -1078.6281321797528, -1076.8176408788731, -1074.1577832886915, -1074.3142454998786, -1078.3152077573786, -1079.49985021351, -1075.4094809781886, -1073.5095826994875, -1074.2471902665127, -1077.9575798460937, -1081.0644723253813, -1076.9517513456049, -1070.849725109306, -1071.0285390649485, -1075.6329984227418, -1079.432794980144, -1076.8176408788731, -1072.4143472211776, -1072.9060855991943, -1077.2199722790685, -1078.337559501834, -1075.8341641228396, -1071.8779053542503, -1071.0732425538592, -1075.074204811359, -1079.0304635799484, -1076.4823647120434, -1073.30841699939, -1073.6436931662195, -1078.203449035102, -1078.5387252019316, -1074.3589489887893, -1071.341463487323, -1071.4532222095993, -1077.7787658904513, -1079.5222019579653, -1075.3871292337335, -1072.883733854739, -1080.2374577805351, -1090.6533706967082, -1094.1849463206465, -1101.3598562908003, -1105.1596528482023, -1116.849615198328, -1130.9088624607161, -1142.4870660885651, -1149.974900481093, -1156.523961606498, -1166.3810809112886, -1178.2498572170566, -1187.1458515102688, -1189.3810259557995, -1185.1788979982016, -1185.8718020763163, -1190.8115376009391, -1192.8231946019166, -1190.6774271342072, -1186.587057898886, -1186.363540454333, -1192.5326219239978, -1195.8406801033832, -1193.493746935576, -1187.6822933771962, -1187.8387555883833, -1192.3985114572658, -1194.812499858439, -1192.3091044794446, -1189.0233980445146, -1187.23525848809, -1192.2196975016234, -1193.3372847243888, -1189.8280608449056, -1186.8329270878944, -1188.3528457108553, -1192.5996771573637, -1192.9573050686486, -1190.1633370117352, -1185.7376916095843, -1188.4199009442211, -1193.6725608912184, -1194.4101684582436, -1191.2585724900453, -1186.9670375546264, -1190.3197992229223, -1196.3771219703106, -1195.4159969587324, -1191.459738190143, -1187.6822933771962, -1187.7269968661067, -1190.8115376009391, -1192.264400990534, -1191.1244620233133, -1187.9281625662045, -1188.4422526886765, -1192.1526422682575, -1194.3654649693328, -1190.8115376009391, -1189.202212000157, -1190.52096492302, -1196.0641975479361, -1199.3499039828664, -1194.7230928806177, -1191.169165512224, -1190.878592834305, -1194.454871947154, -1197.1817847707016, -1193.784319613495, -1189.2916189779783, -1191.3256277234111, -1195.5948109143749, -1196.779453370506, -1194.0748922914138, -1190.3868544562883, -1189.4704329336207, -1193.493746935576, -1195.6395144032854, -1192.778491113006, -1188.8892875777826, -1189.8727643338161, -1194.0525405469587, -1196.2430115035786, -1195.393645214277, -1191.8844213347938, -1191.6162004013302, -1194.164299269235, -1194.8348516028943, -1193.2702294910227, -1189.3810259557995, -1188.9339910666934, -1192.174994012713, -1194.1195957803245, -1190.8338893453945, -1187.1234997658134, -1188.9339910666934, -1193.6278574023077, -1196.198308014668, -1191.9514765681597, -1187.2799619770005, -1187.5705346549196, -1191.683255634696, -1193.8513748468608, -1190.1409852672798, -1186.810575343439, -1186.7211683656178, -1191.9067730792492, -1195.3489417253663, -1193.7172643801289, -1191.3479794678665, -1189.582191655897, -1192.040883545981, -1192.5326219239978, -1190.588020156386, -1187.5034794215537, -1187.6375898882854, -1193.0690637909252, -1197.8523371043607, -1194.2537062470565, -1189.3139707224334, -1188.7998805999614, -1192.4655666906317, -1196.7347498815955, -1192.0632352904363, -1187.4140724437325, -1188.5093079220424, -1192.622028901819, -1195.3265899809112, -1192.6890841351849, -1188.4869561775872, -1187.3470172103664, -1191.7950143569726, -1194.7230928806177, -1191.5491451679643, -1187.458775932643, -1187.7940520994725, -1192.2420492460788, -1194.5442789249753, -1193.002008557559, -1188.1516800107574, -1188.8222323444168, -1194.6113341583414, -1197.7405783820843, -1194.6560376472519, -1188.8669358333273, -1189.1128050223358, -1193.292581235478, -1195.684217892196, -1193.9184300802267, -1189.0904532778804, -1187.1458515102688, -1191.4373864456877, -1195.7289213811066, -1193.493746935576, -1189.1798602557017, -1189.202212000157, -1191.6609038902407, -1195.5054039365536, -1193.493746935576, -1188.0846247773916, -1187.0564445324476, -1191.2809242345006, -1196.2877149924893, -1192.040883545981, -1188.039921288481, -1190.4762614341096, -1193.8290231024055, -1195.0136655585368, -1192.197345757168, -1192.040883545981, -1193.002008557559, -1193.784319613495, -1194.5219271805202, -1194.2760579915116, -1191.8620695903385, -1190.0292265450032, -1194.745444625073, -1196.5335841814976, -1194.6336859027965, -1188.2410869885787, -1187.6375898882854, -1191.1021102788582, -1192.3985114572658, -1190.2750957340118, -1187.4811276770984, -1187.749348610562, -1192.264400990534, -1196.2430115035786, -1194.6113341583414, -1190.6997788786625, -1189.3810259557995, -1193.4713951911206, -1195.5277556810088, -1192.197345757168, -1189.5374881669866, -1190.1856887561905, -1193.493746935576, -1195.684217892196, -1194.2760579915116, -1190.0515782894586, -1189.9845230560927, -1195.5277556810088, -1196.2430115035786, -1193.359636468844, -1189.9174678227268, -1189.6045434003524, -1195.3489417253663, -1196.6676946482296, -1193.136119024291, -1191.2138690011345, -1191.4150347012323, -1194.231354502601, -1195.8406801033832, -1194.231354502601, -1191.3256277234111, -1191.4150347012323, -1194.6783893917072, -1197.8299853599055, -1194.9242585807156, -1189.3810259557995, -1189.716302122629, -1193.3372847243888, -1194.946610325171, -1193.940781824682, -1188.6881218776848, -1188.4199009442211, -1192.6890841351849, -1195.751273125562, -1193.7396161245842, -1191.1021102788582, -1190.3197992229223, -1193.8290231024055, -1195.460700447643, -1193.1584707687464, -1188.4422526886765, -1189.6715986337183, -1193.8960783357713, -1196.8912120927826, -1193.292581235478, -1191.7056073791514, -1192.1079387793468, -1195.5054039365536, -1198.9252208382156, -1195.3042382364558, -1190.4539096896542, -1193.4490434466652, -1197.584116170897, -1198.0982062933692, -1195.1477760252687, -1192.1526422682575, -1192.3985114572658, -1195.7289213811066, -1197.8076336154502, -1195.8183283589278, -1192.8902498352827, -1193.292581235478, -1194.3431132248777, -1195.4383487031876, -1196.2430115035786, -1192.0185318015256, -1191.3703312123218, -1194.9689620696263, -1197.42765395971, -1195.6395144032854, -1191.526793423509, -1191.3703312123218, -1195.1477760252687, -1197.9864475710926, -1196.8912120927826, -1193.2255260021122, -1193.5608021689418, -1197.8076336154502, -1199.7298836386067, -1197.9864475710926, -1193.4043399577547, -1194.007837058048, -1198.299371993467, -1198.7240551381178, -1194.8572033473497, -1191.2585724900453, -1192.6890841351849, -1198.232316760101, -1200.646305161274, -1197.0923777928804, -1194.454871947154, -1194.3431132248777, -1197.5170609375311, -1199.4840144495981, -1197.2488400040675, -1194.6113341583414, -1194.4772236916094, -1198.1429097822797, -1199.6628284052406, -1197.7629301265395, -1194.3431132248777, -1194.9019068362602], [-7574.134477869807, -7584.97507393063, -7591.188858889206, -7581.868181451343, -7572.055765635463, -7573.866256936343, -7586.427937320225, -7591.680597267223, -7586.293826853494, -7576.012024404053, -7574.44740229218, -7586.450289064681, -7594.295751368493, -7586.450289064681, -7572.435745291204, -7576.414355804248, -7589.244257121594, -7592.574667045435, -7584.550390785979, -7572.59220750239, -7574.782678459011, -7588.037262921008, -7591.859411222865, -7584.081004152418, -7573.240408091594, -7575.319120325938, -7588.9983879325855, -7594.206344390673, -7584.97507393063, -7574.335643569904, -7577.397832560281, -7589.378367588326, -7593.6922542682005, -7585.5338675420135, -7574.156829614262, -7578.40366106077, -7590.250085622083, -7594.139289157306, -7584.7739082305325, -7575.11795462584, -7575.632044748312, -7587.8808007098205, -7594.519268813046, -7584.237466363606, -7574.134477869807, -7576.660224993257, -7582.985768674108, -7590.115975155351, -7580.728242484122, -7569.664128978745, -7570.781716201511, -7576.302597081972, -7573.888608680798, -7568.725355711622, -7549.435800246692, -7539.153997797251, -7539.511625708536, -7533.856634361343, -7509.940267794164, -7482.6934913031455, -7468.991871952042, -7468.678947529668, -7460.498209059026, -7438.32527855936, -7416.219403293062, -7405.334103743327, -7410.966743346065, -7414.8335951368335, -7405.647028165702, -7395.99107456101, -7400.327312985339, -7415.615906192769, -7423.394313263216, -7416.934659115632, -7412.307848013384, -7421.025028350953, -7435.888938413733, -7445.120208873775, -7440.471046027071, -7437.073580869864, -7446.170740863174, -7463.739212005045, -7476.658520300212, -7473.462220843104, -7471.249398142028, -7477.016148211497, -7492.103575718829, -7505.4699189031035, -7503.212392713117, -7497.512697877014, -7502.7206543351, -7519.260945232028, -7529.766265126022, -7524.714770879123, -7519.640924887768, -7523.530128422992, -7535.1083320508405, -7549.391096757781, -7544.8536926333545, -7536.516491951525, -7538.282279763494, -7550.061649091441, -7560.254044563061, -7554.979032871608, -7545.144265311274, -7546.977108356608, -7561.237521319094, -7571.675785979723, -7563.83032367591, -7554.487294493591, -7555.940157883187, -7566.467829521636, -7573.9109604252535, -7564.299710309471, -7556.364841027837, -7558.130628839806, -7570.446440034681, -7577.129611626818, -7569.664128978745, -7559.516436996036, -7561.30457655246, -7573.598036002879, -7579.342434327893, -7574.313291825449, -7564.791448687488, -7563.338585297894, -7573.218056347139, -7579.521248283536, -7574.536809270002, -7564.59028298739, -7563.852675420365, -7577.822515704932, -7582.35991982936, -7572.078117379919, -7560.008175374052, -7563.562102742447, -7576.235541848606, -7581.354091328871, -7573.508629025058, -7562.980957386609, -7565.1043731098625, -7576.570818015435, -7580.236504106106, -7573.553332513969, -7564.21030333165, -7566.065498121441, -7576.816687204443, -7583.0081204185635, -7576.0790796374185, -7562.131591097306, -7562.422163775225, -7577.598998260379, -7583.522210541036, -7575.83321044841, -7565.596111487879, -7567.1607335997505, -7579.923579683731, -7585.556219286468, -7576.21319010415, -7566.423126032726, -7567.496009766581, -7578.291902338494, -7585.600922775379, -7578.493068038591, -7567.294844066482, -7566.7360504551, -7578.448364549681, -7585.556219286468, -7580.057690150463, -7568.635948733801, -7569.798239445477, -7579.230675605617, -7587.612579776357, -7579.677710494722, -7570.938178412697, -7571.787544702, -7584.751556486078, -7589.825402477432, -7583.432803563214, -7572.569855757935, -7572.771021458033, -7584.706852997167, -7592.887591467809, -7585.802088475477, -7573.26275983605, -7573.9109604252535, -7584.21511461915, -7593.893419968298, -7585.176239630729, -7576.615521504345, -7575.475582537125, -7585.511515797558, -7592.574667045435, -7586.338530342404, -7575.296768581483, -7574.380347058815, -7585.019777419541, -7591.144155400295, -7586.047957664485, -7576.235541848606, -7576.839038948899, -7587.7690419875435, -7594.094585668396, -7586.606751275868, -7574.201533103173, -7573.978015658619, -7585.444460564192, -7592.015873434052, -7588.797222232488, -7597.179126403228, -7591.412376333759, -7579.7224139836335, -7576.615521504345, -7588.372539087837, -7598.02849269253, -7591.144155400295, -7577.375480815826, -7575.207361603661, -7588.283132110016, -7597.022664192041, -7590.250085622083, -7578.716585483145, -7577.219018604639, -7587.8808007098205, -7595.905076969276, -7590.563010044457, -7578.940102927698, -7578.493068038591, -7590.294789110993, -7598.944914215197, -7593.625199034835, -7580.392966317292, -7576.771983715533, -7586.0032541755745, -7596.329760113927, -7591.568838544946, -7579.9012279392755, -7578.336605827404, -7588.394890832293, -7595.927428713731, -7590.272437366538, -7578.716585483145, -7577.889570938298, -7584.93037044172, -7594.653379279778, -7593.155812401273, -7579.856524450365, -7578.35895757186, -7588.774870488032, -7596.732091514122, -7591.345321100393, -7579.364786072349, -7579.9012279392755, -7589.780698988521, -7597.000312447586, -7591.412376333759, -7581.331739584415, -7578.202495360672, -7586.830268720421, -7596.821498491943, -7592.775832745533, -7580.527076784025, -7575.900265681776, -7586.673806509234, -7594.273399624039, -7587.210248376161, -7574.268588336538, -7570.982881901608, -7579.83417270591, -7587.83609722091, -7581.421146562237, -7569.328852811916, -7567.473658022125, -7577.554294771468, -7587.366710587348, -7582.449326807181, -7571.496972024081, -7571.049937134974, -7582.985768674108, -7594.765138002055, -7591.367672844848, -7582.225809362628, -7579.7224139836335, -7590.920637955742, -7600.375425860337, -7595.927428713731, -7586.092661153396, -7584.058652407963, -7594.094585668396, -7604.488146840114, -7601.023626449541, -7589.557181543968, -7585.086832652907, -7597.603809547879, -7607.997370719597, -7605.426920107237, -7592.9322949567195, -7589.020739677041, -7601.113033427362, -7610.925449243242, -7605.762196274066, -7594.183992646217, -7591.010044933563, -7601.962399716664, -7611.797167276999, -7607.796205019499, -7596.106242669373, -7593.468736823647, -7602.208268905672, -7611.46189111017, -7609.494937598102, -7596.709739769667, -7593.781661246021, -7604.063463695463, -7614.099396955896, -7609.539641087013, -7597.290885125504, -7594.720434513144, -7600.822460749443, -7610.7466352876, -7608.891440497809, -7598.050844436985, -7594.832193235421, -7603.370559617349, -7614.233507422628, -7611.730112043633, -7599.7942805044995, -7595.011007191063, -7605.091643940407, -7615.596963834401, -7611.685408554722, -7598.229658392627, -7597.6261612923345, -7606.9021352412865, -7617.340399901915, -7613.875879511343, -7601.537716572013, -7598.229658392627, -7608.198536419694, -7614.948763245197, -7613.36178938887, -7604.130518928829, -7599.950742715686, -7608.444405608703, -7617.2286411796385, -7613.31708589996, -7601.761234016566, -7598.45317583718, -7607.349170130393, -7615.373446389848, -7611.283077154527, -7599.6825217822225, -7597.782623503522, -7607.684446297222, -7614.613487078368, -7610.903097498786, -7601.537716572013, -7595.50274556908, -7604.21992590665, -7615.306391156482, -7610.858394009876, -7599.771928760044, -7595.994483947097, -7607.393873619303, -7616.580440590435, -7611.484242854624, -7602.185917161217, -7599.906039226776, -7608.086777697418, -7617.742731302111, -7614.41232137827, -7601.537716572013, -7600.531888071524, -7608.958495731175, -7617.072178968451, -7612.5347748440245, -7601.761234016566, -7598.967265959653, -7606.700969541189, -7616.848661523898, -7615.216984178661, -7600.867164238354, -7596.195649647195, -7608.332646886426, -7616.043998723508, -7612.579478332935, -7603.750539273088, -7599.637818293312, -7606.79037651901, -7618.435635380225, -7615.351094645393, -7602.767062517055, -7598.7437485150995, -7606.879783496832, -7615.775777790043, -7612.244202166105, -7602.0294549500295, -7598.274361881538, -7606.969190474652, -7615.8204812789545, -7613.495899855602, -7601.805937505476, -7598.0955479258955, -7606.276286396538, -7615.50755685658, -7617.608620835379, -7603.817594506454, -7597.782623503522, -7604.778719518033, -7615.328742900938, -7614.389969633815, -7602.901172983787, -7598.5649345594575, -7607.595039319402, -7615.865184767865, -7613.384141133326, -7602.36473111686, -7597.469699081147, -7606.611562563367, -7617.630972579834, -7613.741769044611, -7602.141213672307, -7597.983789203619, -7605.851603251887, -7615.149928945295, -7610.858394009876, -7600.688350282711, -7597.447347336692, -7605.985713718619, -7615.842833023409, -7613.6523620667895, -7602.632952050323, -7597.223829892138, -7606.477452096636, -7615.216984178661, -7611.46189111017, -7599.727225271133, -7594.720434513144, -7606.566859074457, -7615.731074301133, -7611.5960015769015, -7599.861335737865, -7597.290885125504, -7606.499803841091, -7614.948763245197, -7610.389007376315, -7598.073196181441, -7595.390986846804, -7606.097472440895, -7615.485205112124, -7611.685408554722, -7600.062501437963, -7595.011007191063, -7603.035283450518, -7613.093568455407, -7611.014856221063, -7600.844812493899, -7595.145117657795, -7601.783585761022, -7615.172280689751, -7611.5960015769015, -7600.040149693507, -7595.055710679974, -7603.661132295268, -7613.473548111147, -7610.724283543144, -7598.833155492921, -7593.468736823647, -7602.074158438941, -7613.272382411049, -7614.211155678172, -7602.700007283689, -7598.475527581636, -7606.566859074457, -7616.736902801622, -7613.026513222041, -7602.588248561412, -7599.570763059946, -7607.349170130393, -7617.005123735085, -7615.172280689751, -7605.65043755179, -7600.8001090049875, -7607.8409085084095, -7618.189766191217, -7615.574612089946, -7603.88464973982, -7600.844812493899, -7609.025550964541, -7618.547394102502, -7616.60279233489, -7604.868126495854, -7601.023626449541, -7611.931277743731, -7621.341362159415, -7617.005123735085, -7603.974056717641, -7600.755405516077, -7611.327780643437, -7619.866147025365, -7616.066350467962, -7603.07998693943, -7601.291847383005, -7611.7748155325435, -7621.251955181594, -7617.720379557655, -7604.823423006943, -7600.8001090049875, -7608.667923053256, -7617.653324324289, -7615.149928945295, -7602.834117750421, -7597.872030481342, -7606.9021352412865, -7619.307353413982, -7618.614449335868, -7605.359864873871, -7599.302542126482, -7607.304466641483, -7618.03330398003, -7616.6474958238, -7604.331684628926, -7598.676693281734, -7608.377350375337, -7617.407455135281, -7616.379274890337, -7605.449271851692, -7600.9118677272645, -7606.991542219108, -7615.775777790043, -7613.294734155505, -7602.856469494876, -7598.296713625993, -7605.248106151594, -7617.452158624192, -7618.79326329151, -7605.762196274066, -7597.514402570057, -7606.209231163172, -7617.474510368647, -7615.485205112124, -7603.9070014842755, -7598.520231070546, -7605.985713718619, -7616.669847568256, -7616.423978379247, -7603.9070014842755, -7598.430824092726, -7606.052768951985, -7615.842833023409, -7612.914754499764, -7604.21992590665, -7599.704873526678, -7606.969190474652, -7615.015818478563, -7612.98180973313, -7600.442481093703, -7597.290885125504, -7606.343341629904, -7617.161585946273, -7615.038170223019, -7603.2588008950715, -7596.59798104739, -7602.901172983787, -7616.7592545460775, -7615.0605219674735, -7603.12469042834, -7597.246181636594, -7604.488146840114, -7615.664019067767, -7616.60279233489, -7604.041111951007, -7596.106242669373, -7607.438577108214, -7616.178109190239, -7613.965286489164, -7603.638780550812, -7599.906039226776, -7608.667923053256, -7617.005123735085, -7613.786472533521, -7601.716530527656, -7596.843850236399, -7605.672789296244, -7614.83700452292, -7611.864222510365, -7601.872992738842, -7598.0955479258955, -7606.499803841091, -7615.954591745686, -7613.428844622236, -7602.856469494876, -7597.335588614415, -7605.002236962586, -7614.680542311734, -7613.182975433228, -7599.906039226776, -7595.50274556908, -7602.700007283689, -7615.55226034549, -7614.144100444806, -7602.320027627949, -7597.26853338105, -7606.276286396538, -7615.664019067767, -7613.719417300155, -7600.487184582614, -7596.665036280756, -7603.929353228731, -7613.31708589996, -7613.920583000253, -7600.084853182418, -7594.362806601859, -7604.890478240309, -7615.0605219674735, -7613.495899855602, -7600.129556671329, -7594.899248468787, -7603.191745661706, -7614.702894056189, -7613.093568455407, -7603.147042172795, -7595.033358935519, -7602.208268905672, -7611.417187621259, -7610.41135912077, -7599.7942805044995, -7593.558143801469, -7600.487184582614, -7613.898231255798, -7614.79230103401, -7600.397777604792, -7594.273399624039, -7605.203402662683, -7614.255859167083, -7611.707760299178, -7601.940047972209, -7596.55327755848, -7604.868126495854, -7611.685408554722, -7614.278210911538, -7602.275324139038, -7595.1004141688845, -7603.951704973186, -7613.6970655557, -7612.110091699374, -7601.336550871915, -7595.212172891162, -7602.588248561412, -7612.355960888382, -7610.8360422654205, -7599.07902468193, -7592.172335645239, -7601.001274705086, -7613.227678922139, -7613.607658577879, -7600.286018882516, -7593.0440536789965, -7600.733053771622, -7611.148966687795, -7611.238373665617, -7600.375425860337, -7592.261742623061, -7600.286018882516, -7612.154795188284, -7611.327780643437, -7599.637818293312, -7593.938123457208, -7599.6825217822225, -7610.120786442851, -7609.204364920183, -7597.603809547879, -7592.239390878605, -7598.296713625993, -7612.8253475219435, -7611.998332977097, -7599.526059571035, -7592.015873434052, -7598.386120603815, -7611.417187621259, -7612.467719610659, -7598.140251414807, -7588.730166999122, -7598.319065370449, -7610.7466352876, -7610.634876565323, -7597.939085714708, -7590.630065277823, -7597.380292103326, -7608.913792242264, -7609.159661431273, -7598.341417114904, -7594.139289157306, -7599.950742715686, -7610.567821331957, -7610.41135912077, -7598.073196181441, -7591.45707982267, -7598.184954903717, -7608.98084747563, -7611.104263198885, -7599.12372817084, -7592.21703913415, -7598.497879326092, -7610.970152732152, -7610.925449243242, -7598.341417114904, -7591.211210633661, -7598.006140948074, -7608.444405608703, -7608.556164330979, -7596.754443258577, -7588.014911176552, -7597.045015936496, -7609.427882364736, -7608.444405608703, -7598.296713625993, -7590.808879233466, -7596.709739769667, -7608.1314811863285, -7607.237411408117, -7598.788452004011, -7593.289922868004, -7598.296713625993, -7607.639742808312, -7607.997370719597, -7595.279228124527, -7591.032396678019, -7597.715568270156, -7606.768024774555, -7607.8409085084095, -7598.006140948074, -7589.870105966343, -7595.949780458186, -7606.566859074457, -7606.186879418717, -7595.636856035812, -7588.8195739769435, -7596.106242669373, -7607.036245708018, -7606.343341629904, -7595.435690335714, -7586.6514547647785, -7592.7534810010775, -7604.532850329024, -7604.376388117837, -7594.02753043503, -7588.014911176552, -7594.854544979876, -7605.873954996343]]
[[-1202.9261830957155, -1206.52481395302, -1208.290601764989, -1203.5296801960087, -1199.975752827615, -1202.0544650619586, -1208.290601764989, -1208.3576569983552, -1202.7920726289838, -1198.7687586270283, -1203.0602935624474, -1207.5753459424193, -1207.0165523310368, -1203.104997051358, -1200.9368778391931, -1202.4344447176989, -1205.5636889414418, -1207.9329738537042, -1204.5355086964976, -1203.104997051358, -1203.3061627514558, -1209.0952645653801, -1209.1399680542909, -1202.7920726289838, -1200.7580638835507, -1203.8426046183831, -1207.2847732645005, -1206.8600901198495, -1202.9261830957155, -1200.8921743502826, -1203.686142407196, -1205.7425028970843, -1206.2342412751009, -1204.3119912519446, -1202.9708865846262, -1203.4402732181875, -1207.7318081536066, -1210.7716453995283, -1206.301296508467, -1203.9543633406597, -1205.9660203416372, -1208.134139553802, -1208.71528490964, -1204.1331772963022, -1203.0155900735367, -1204.557860440953, -1208.2011947871679, -1209.9222791102266, -1206.5695174419307, -1203.9320115962043, -1207.8212151314278, -1210.9504593551708, -1210.6151831883412, -1206.3459999973775, -1203.8873081072936, -1207.1283110533132, -1209.5199477100311, -1209.3187820099333, -1206.1448342972797, -1203.4402732181875, -1209.1399680542909, -1212.2915640224892, -1212.9621163561483, -1207.8882703647937, -1204.2449360185785, -1207.2400697755897, -1213.7891309009947, -1213.7220756676288, -1209.3858372432992, -1205.362523241344, -1205.4519302191652, -1210.6598866772517, -1212.6044884448634, -1208.268250020534, -1205.9213168527267, -1207.7988633869725, -1210.8610523773496, -1211.3751424998215, -1205.8095581304501, -1202.3450377398776, -1207.463587220143, -1211.263383777545, -1209.7658168990395, -1204.8037296299613, -1202.1438720397798, -1202.2779825065115, -1204.8037296299613, -1206.8600901198495, -1203.104997051358, -1197.5617644264419, -1200.0428080609809, -1205.9213168527267, -1206.4801104641094, -1203.8426046183831, -1199.5734214274194, -1201.4956714505759, -1205.720151152629, -1205.6754476637182, -1203.3061627514558, -1198.7017033936625, -1201.2498022615675, -1205.4742819636206, -1207.4412354756876, -1205.4519302191652, -1202.2779825065115, -1203.686142407196, -1207.485938964598, -1207.5753459424193, -1205.9213168527267, -1204.8260813744166, -1205.8095581304501, -1207.5976976868747, -1209.0282093320143, -1203.3285144959111, -1201.5180231950312, -1204.267287763034, -1209.43054073221, -1209.296430265478, -1204.490805207587, -1203.0602935624474, -1204.0214185740256, -1206.5695174419307, -1208.8046918874613, -1204.490805207587, -1201.2721540060227, -1205.876613363816, -1211.4421977331874, -1212.068046577936, -1207.3518284978663, -1207.0165523310368, -1207.977677342615, -1209.6093546878524, -1210.2128517881456, -1206.52481395302, -1201.3168574949334, -1203.2838110070004, -1207.0836075644027, -1209.6987616656736, -1206.3907034862882, -1204.490805207587, -1205.7425028970843, -1209.877575621316, -1210.7716453995283, -1206.0777790639138, -1202.9932383290814, -1206.4801104641094, -1210.8163488884388, -1209.877575621316, -1205.0943023078803, -1204.3566947408551, -1207.910622109249, -1210.9728110996261, -1209.2070232876567, -1206.1448342972797, -1204.848433118872, -1205.8542616193606, -1208.8046918874613, -1210.8163488884388, -1206.4130552307433, -1203.61908717383, -1206.1448342972797, -1210.3022587659668, -1209.6093546878524, -1204.1331772963022, -1203.2167557736345, -1207.3518284978663, -1211.0622180774474, -1210.8387006328942, -1207.485938964598, -1204.267287763034, -1206.7259796531177, -1211.9786396001148, -1213.006819845059, -1206.3907034862882, -1202.5685551844306, -1206.2565930195562, -1210.4363692326988, -1209.1846715432014, -1204.781377885506, -1201.8980028507713, -1204.5355086964976, -1208.5364709539977, -1207.8212151314278, -1203.3732179848216, -1201.6744854062183, -1203.8426046183831, -1209.3634854988438, -1207.8212151314278, -1205.2954680079781, -1205.362523241344, -1207.262421520045, -1209.43054073221, -1208.4470639761764, -1206.748331397573, -1205.586040685897, -1206.4130552307433, -1210.3246105104222, -1212.5597849559529, -1211.0622180774474, -1208.1564912982574, -1206.815386630939, -1210.749293655073, -1212.6715436782295, -1207.5976976868747, -1204.7590261410508, -1208.134139553802, -1212.9621163561483, -1213.5432617119864, -1210.5481279549751, -1207.262421520045, -1208.2458982760786, -1212.2245087891233, -1211.688066922196, -1207.6424011757854, -1205.8989651082713, -1208.6258779318189, -1213.006819845059, -1215.0631803349472, -1209.229375032112, -1204.3119912519446, -1206.7259796531177, -1210.2799070215115, -1210.8163488884388, -1208.290601764989, -1206.52481395302, -1206.971848842126, -1209.2070232876567, -1210.6598866772517, -1207.262421520045, -1204.3566947408551, -1207.0612558199473, -1213.8561861343605, -1213.1185785673356, -1208.4694157206316, -1206.010723830548, -1207.776511642517, -1214.2361657901008, -1214.1467588122796, -1207.8212151314278, -1204.2225842741234, -1208.6258779318189, -1211.710418666651, -1213.9232413677266, -1210.7045901661625, -1208.134139553802, -1210.1457965547797, -1213.9455931121818, -1212.9397646116931, -1209.1399680542909, -1206.301296508467, -1208.2235465316232, -1211.3527907553662, -1211.7327704111065, -1207.5976976868747, -1204.1778807852127, -1206.1224825528245, -1211.8892326222935, -1213.0738750784249, -1209.877575621316, -1207.3071250089556, -1209.587002943397, -1211.7327704111065, -1211.330439010911, -1209.2070232876567, -1205.9883720860926, -1207.1283110533132, -1210.4140174882434, -1211.9562878556596, -1209.877575621316, -1207.5976976868747, -1208.268250020534, -1209.81052038795, -1210.9728110996261, -1207.1506627977685, -1204.066122062936, -1206.9047936087602, -1211.1069215663579, -1210.883404121805, -1207.2177180311344, -1212.2915640224892, -1207.7318081536066, -1207.105959308858, -1208.3129535094445, -1212.9621163561483, -1213.8338343899054, -1210.0563895769585, -1207.6424011757854, -1207.910622109249, -1212.068046577936, -1214.0573518344584, -1209.296430265478, -1207.038904075492, -1210.2575552770563, -1214.9290698682155, -1214.102055323369, -1211.1069215663579, -1209.3858372432992, -1210.90575586626, -1214.4149797457433, -1216.9183751247376, -1211.9562878556596, -1207.262421520045, -1211.263383777545, -1215.107883823858, -1216.0466570909807, -1211.6657151777406, -1209.1399680542909, -1213.1856338007015, -1214.0126483455479, -1214.325572767922, -1214.5267384680199, -1210.2799070215115, -1209.3187820099333, -1214.8620146348494, -1216.6278024468188, -1212.850357633872, -1207.7094564091512, -1209.072912820925, -1214.169110556735, -1217.1865960582013, -1213.4538547341651, -1210.7045901661625, -1212.872709378327, -1217.7006861806735, -1217.2536512915674, -1212.0903983223914, -1201.8532993618608, -1202.2109272731457, -1200.6686569057294, -1196.1759562702127, -1185.6706363762185, -1174.6288746152968, -1168.102165234347, -1165.6434733442634, -1160.0331854859812, -1147.8067812689283, -1136.0274119409814, -1131.5347113054647, -1127.690211259152, -1122.169330378691, -1112.5804320073644, -1103.527975502965, -1097.403597522211, -1101.0692836128812, -1103.5503272474202, -1101.203394079613, -1095.2801817989566, -1095.0343126099483, -1097.202431822113, -1099.5940684788309, -1096.621286466275, -1089.8040044074064, -1090.0051701075042, -1094.9896091210378, -1096.2189550660796, -1093.7602631759958, -1091.1898125636355, -1092.754434675507, -1094.1178910872807, -1095.3695887767778, -1094.0284841094594, -1093.1344143312472, -1094.7213881875741, -1097.403597522211, -1099.9516963901158, -1099.0799783563589, -1095.2801817989566, -1096.1518998327138, -1100.689303957141, -1105.3831702927555, -1100.465786512588, -1095.1013678433142, -1096.0848445993477, -1099.7058272011075, -1100.9128214016941, -1097.560059733398, -1094.654332954208, -1095.7048649436076, -1099.0352748674484, -1103.3268098028673, -1099.9069929012053, -1091.88271664175, -1089.8487078963171, -1090.4075015076996, -1092.8438416533281, -1091.9721236195712, -1089.6698939406747, -1089.8710596407723, -1094.140242831736, -1096.9342108886494, -1092.0838823418478, -1089.8040044074064, -1092.8438416533281, -1097.2247835665685, -1097.716521944585, -1094.363760276289, -1091.525088730465, -1093.7602631759958, -1096.9342108886494, -1098.0294463669595, -1094.6766846986634, -1090.9215916301719, -1091.7039026861075, -1094.3414085318338, -1095.88367889925, -1090.9662951190824, -1087.3900160062333, -1089.625190451764, -1092.240344553035, -1093.8049666649065, -1090.5192602299762, -1084.528992715954, -1086.8982776282166, -1091.4133300081885, -1094.654332954208, -1093.4026352647109, -1088.3734927622668, -1087.3229607728674, -1093.8273184093616, -1095.6378097102415, -1092.9332486311494, -1088.753472418007, -1088.6864171846412, -1092.4862137420432, -1092.6426759532305, -1089.401673007211, -1085.5348212164429, -1086.7194636725742, -1089.3793212627556, -1092.396806764222, -1090.9662951190824, -1087.3229607728674, -1088.3958445067221, -1091.1451090747248, -1093.3579317758004, -1091.4133300081885, -1089.2899142849344, -1087.3900160062333, -1092.3073997864008, -1094.3414085318338, -1089.1781555626578, -1086.1606700611915, -1089.6698939406747, -1093.7379114315404, -1094.0508358539148, -1090.8768881412611, -1088.6640654401858, -1088.9099346291941, -1094.7213881875741, -1094.654332954208, -1090.3627980187891, -1086.5630014613869, -1088.8875828847388, -1091.7039026861075, -1093.849670153817, -1092.9556003756047, -1089.3793212627556, -1088.7758241624624, -1091.5697922193758, -1092.2626962974903, -1089.2899142849344, -1087.434719495144, -1088.0382165954372, -1091.3462747748226, -1092.7097311865964, -1091.7933096639288, -1086.9876846060379, -1087.1664985616803, -1091.1451090747248, -1095.3248852878673, -1093.7602631759958, -1088.2840857844456, -1087.8370508953394, -1092.3073997864008, -1092.9108968866942, -1091.6368474527417, -1087.5464782174204, -1087.7252921730628, -1093.201469564613, -1094.3190567873785, -1094.1178910872807, -1091.9497718751159, -1089.8040044074064, -1091.9944753640266, -1094.140242831736, -1091.7039026861075, -1088.9322863736495, -1089.558135218398, -1089.781652662951, -1095.3472370323227, -1091.6368474527417, -1088.9546381181049, -1092.4862137420432, -1095.3695887767778, -1095.5036992435098, -1093.2461730535238, -1088.3958445067221, -1088.5299549734539, -1092.7991381644176, -1094.1625945761914, -1091.7933096639288, -1088.820527651373, -1091.4356817526439, -1091.9497718751159, -1093.3579317758004, -1090.6980741856187, -1086.8982776282166, -1086.9206293726718, -1093.4696904980767, -1095.7048649436076, -1092.821489908873, -1087.010036350493, -1089.1781555626578, -1095.146071332225, -1095.9954376215264, -1093.5143939869874, -1089.7145974295852, -1090.07222534087, -1094.1849463206465, -1095.3695887767778, -1091.8380131528395, -1086.6971119281188, -1089.3793212627556, -1094.0508358539148, -1094.0955393428253, -1090.5416119744316, -1089.6922456851298, -1090.1839840631467, -1091.212164308091, -1091.078053841359, -1092.6426759532305, -1094.3861120207443, -1101.0692836128812, -1110.0993883728252, -1119.3530105773225, -1127.6678595146966, -1132.27231887249, -1137.592034052853, -1150.5336940924758, -1161.687214575674, -1164.302368676945, -1169.4656216461208, -1176.8640490608275, -1187.2576102325452, -1193.1584707687464, -1190.7668341120284, -1188.1516800107574, -1187.7046451216513, -1191.9291248237043, -1195.6618661477407, -1191.169165512224, -1190.588020156386, -1190.722130623118, -1195.3042382364558, -1196.6453429037742, -1194.0748922914138, -1190.9456480676708, -1190.3868544562883, -1195.0583690474475, -1199.5734214274194, -1195.259534747545, -1190.364502711833, -1189.2469154890675, -1193.1808225132015, -1197.7629301265395, -1192.5326219239978, -1187.7046451216513, -1189.6045434003524, -1194.0301888025033, -1196.2877149924893, -1194.6336859027965, -1191.23622074559, -1189.0233980445146, -1190.9232963232157, -1197.9193923377268, -1199.1263865383132, -1197.8523371043607, -1199.7969388719725, -1205.4742819636206, -1205.1390057967908, -1202.0097615730479, -1198.2546685045563, -1198.1205580378244, -1200.8251191169165, -1204.1555290407573, -1202.52385169552, -1198.8581656048495, -1201.42861621721, -1205.2507645190674, -1205.6754476637182, -1203.2838110070004, -1200.0875115498916, -1198.9475725826708, -1202.7250173956177, -1206.301296508467, -1204.4013982297658, -1198.5899446713859, -1198.9699243271261, -1202.7250173956177, -1205.206061030157, -1202.7920726289838, -1200.4227877167211, -1200.489842950087, -1203.7979011294724, -1207.6424011757854, -1206.010723830548, -1201.7638923840395, -1200.8698226058273, -1203.5073284515536, -1207.3518284978663, -1206.457758719654, -1202.2109272731457, -1200.3333807389, -1203.6637906627407, -1206.681276164207, -1205.6754476637182, -1202.6579621622518, -1202.0544650619586, -1205.4966337080757, -1206.6589244197519, -1205.2507645190674, -1200.646305161274, -1200.3110289944445, -1203.5743836849194, -1206.681276164207, -1204.9378400966932, -1201.6297819173076, -1199.4169592162323, -1202.6132586733413, -1208.1117878093467, -1207.105959308858, -1202.2779825065115, -1201.1156917948356, -1202.9932383290814, -1203.7308458961065, -1204.3566947408551, -1199.8639941053384, -1198.3217237379222, -1202.9485348401709, -1203.4626249626428, -1200.4227877167211, -1198.4781859491095, -1199.5063661940535, -1202.8367761178943, -1203.9543633406597, -1202.2779825065115, -1201.138043539291, -1203.7308458961065, -1210.168148299235, -1214.459683234654, -1208.3800087428103, -1203.7755493850173, -1203.61908717383, -1204.6919709076847, -1208.8717471208272, -1206.1224825528245, -1202.2556307620564, -1203.1273487958133, -1205.8095581304501, -1207.8659186203383, -1204.6472674187742, -1199.9534010831596, -1199.4840144495981, -1202.8367761178943, -1206.1001308083692, -1205.586040685897, -1201.942706339682, -1201.9203545952266, -1204.6919709076847, -1206.3459999973775, -1205.5636889414418, -1200.4227877167211, -1199.5957731718747, -1202.8591278623496, -1206.033075575003, -1204.0884738073914, -1199.5063661940535, -1199.4169592162323, -1203.0602935624474, -1208.2235465316232, -1207.5753459424193, -1204.490805207587, -1203.1497005402687, -1207.0165523310368, -1208.0447325759808, -1205.5636889414418, -1201.6968371506737, -1200.623953416819, -1202.6803139067072, -1205.1390057967908, -1204.5802121854083, -1201.003933072559, -1200.5345464389977, -1203.6414389182853, -1205.653095919263, -1204.423749974221, -1200.1545667832575, -1198.880517349305, -1202.5014999510647, -1206.7036279086624, -1205.0495988189696, -1199.975752827615, -1200.6910086501848, -1204.3566947408551, -1204.200232529668, -1203.1944040291792, -1199.9981045720704, -1198.1429097822797, -1200.489842950087, -1205.1166540523357, -1204.1778807852127, -1202.0321133175032, -1201.5627266839417, -1205.8319098749055, -1209.2740785210226, -1207.0612558199473, -1203.909659851749, -1201.9874098285925, -1202.8367761178943, -1207.105959308858, -1205.8095581304501, -1201.42861621721, -1201.7638923840395, -1205.6307441748077, -1208.6258779318189, -1206.4801104641094, -1202.7250173956177, -1201.9874098285925, -1206.6142209308412, -1208.71528490964, -1206.5695174419307, -1200.6686569057294, -1199.5287179385089, -1204.1108255518468, -1207.9553255981596, -1207.776511642517, -1201.8532993618608, -1201.0486365614697, -1204.5802121854083, -1207.3518284978663, -1206.8600901198495, -1200.1545667832575, -1199.819290616428, -1204.4013982297658, -1206.0777790639138, -1204.6025639298634, -1200.623953416819, -1199.9086975942491, -1202.4791482066094, -1206.167186041735], [-7594.854544979876, -7588.506649554569, -7579.811820961455, -7581.622312262334, -7589.959512944164, -7593.26757112355, -7585.578571030924, -7573.463925536147, -7579.275379094527, -7590.495954811091, -7596.016835691552, -7586.897323953787, -7574.067422636441, -7577.286073838005, -7590.2277338776275, -7594.943951957697, -7586.584399531413, -7575.185009859206, -7577.330777326915, -7589.579533288424, -7595.033358935519, -7585.198591375183, -7576.369652315338, -7578.671881994233, -7591.635893778312, -7595.16746940225, -7586.986730931608, -7577.263722093549, -7578.7389372276, -7591.635893778312, -7595.234524635616, -7587.478469309625, -7576.012024404053, -7577.286073838005, -7590.7418240001, -7597.983789203619, -7588.283132110016, -7575.989672659597, -7578.426012805226, -7589.333664099416, -7594.429861835225, -7587.187896631706, -7577.219018604639, -7578.671881994233, -7590.518306555547, -7596.173297902739, -7589.512478055058, -7576.660224993257, -7577.8448674493875, -7589.154850143773, -7596.352111858382, -7588.305483854471, -7576.168486615239, -7579.342434327893, -7589.691292010701, -7596.8662019808535, -7589.31131235496, -7577.777812216022, -7577.598998260379, -7587.634931520812, -7594.1616409017615, -7585.5338675420135, -7575.229713348117, -7577.6660534937455, -7590.7418240001, -7596.285056625016, -7586.673806509234, -7576.302597081972, -7577.397832560281, -7589.244257121594, -7593.804012990477, -7587.567876287446, -7576.392004059792, -7577.867219193843, -7589.333664099416, -7594.496917068591, -7588.439594321203, -7578.157791871762, -7576.92844592672, -7586.696158253689, -7592.418204834248, -7586.316178597949, -7577.397832560281, -7578.336605827404, -7589.490126310602, -7595.592152546901, -7584.5950942748905, -7573.732146469611, -7576.168486615239, -7589.400719332782, -7593.491088568103, -7584.93037044172, -7573.6874429807, -7574.916788925742, -7586.830268720421, -7592.775832745533, -7587.076137909429, -7577.219018604639, -7577.375480815826, -7587.322007098438, -7596.575629302934, -7588.841925721398, -7577.8448674493875, -7574.939140670198, -7587.679635009723, -7595.12276591334, -7588.126669898828, -7576.369652315338, -7576.056727892963, -7589.847754221887, -7595.994483947097, -7587.523172798536, -7575.922617426231, -7577.800163960477, -7585.869143708843, -7591.278265867027, -7588.283132110016, -7575.542637770491, -7574.916788925742, -7587.5902280319015, -7594.385158346315, -7586.316178597949, -7575.11795462584, -7576.123783126329, -7586.494992553591, -7593.379329845826, -7585.802088475477, -7574.0897743808955, -7575.877913937321, -7588.350187343382, -7595.279228124527, -7588.506649554569, -7576.324948826426, -7575.6767482372225, -7585.153887886273, -7592.686425767712, -7586.6514547647785, -7575.4979342815805, -7577.129611626818, -7588.149021643284, -7592.149983900784, -7585.511515797558, -7574.581512758913, -7576.54846627098, -7585.8244402199325, -7593.0440536789965, -7587.746690243089, -7577.286073838005, -7574.380347058815, -7584.1257076413285, -7592.015873434052, -7585.846791964387, -7574.603864503368, -7575.207361603661, -7585.377405330826, -7590.093623410896, -7585.869143708843, -7574.939140670198, -7574.492105781092, -7587.679635009723, -7595.88272522482, -7586.718509998144, -7574.581512758913, -7577.062556393452, -7586.562047786957, -7590.78652748901, -7584.97507393063, -7575.252065092572, -7576.7272802266225, -7589.35601584387, -7595.7486147580885, -7588.461946065659, -7576.0790796374185, -7574.201533103173, -7586.159716386762, -7595.323931613438, -7588.17137338774, -7576.168486615239, -7577.353129071371, -7588.730166999122, -7593.759309501566, -7587.389062331804, -7578.269550594038, -7579.83417270591, -7590.250085622083, -7593.178164145728, -7586.584399531413, -7575.050899392474, -7574.5591610144575, -7586.874972209332, -7595.614504291357, -7589.668940266245, -7575.766155215044, -7574.939140670198, -7587.031434420519, -7594.474565324136, -7588.283132110016, -7575.274416837027, -7574.44740229218, -7586.427937320225, -7594.496917068591, -7588.238428621105, -7575.743803470588, -7574.693271481189, -7586.226771620128, -7593.759309501566, -7586.517344298047, -7575.319120325938, -7575.699099981678, -7587.545524542991, -7595.726263013633, -7587.947855943186, -7577.286073838005, -7578.671881994233, -7587.791393731999, -7594.02753043503, -7586.763213487055, -7576.436707548703, -7576.123783126329, -7585.757384986567, -7592.529963556524, -7586.919675698242, -7576.2578935930605, -7576.2578935930605, -7585.779736731021, -7593.379329845826, -7588.506649554569, -7577.621350004834, -7575.453230792669, -7583.745727985589, -7590.808879233466, -7585.086832652907, -7578.001329660575, -7577.397832560281, -7586.047957664485, -7593.021701934541, -7583.768079730044, -7572.234579591105, -7574.201533103173, -7586.293826853494, -7593.401681590281, -7585.109184397363, -7572.323986568927, -7574.492105781092, -7586.182068131217, -7592.529963556524, -7584.706852997167, -7575.319120325938, -7575.453230792669, -7584.081004152418, -7590.183030388717, -7583.8351349634095, -7572.838076691399, -7570.960530157153, -7584.908018697264, -7591.9935216895965, -7584.952722186175, -7573.486277280603, -7570.7370127126, -7581.152925628773, -7588.439594321203, -7583.768079730044, -7572.815724946943, -7572.458097035658, -7582.963416929653, -7589.668940266245, -7581.667015751245, -7573.151001113773, -7570.066460378941, -7579.744765728089, -7587.8808007098205, -7581.622312262334, -7569.597073745379, -7570.513495268046, -7579.45419305017, -7587.389062331804, -7581.979940173619, -7568.0995068668735, -7568.166562100239, -7567.652471977767, -7564.679689965212, -7574.693271481189, -7584.103355896874, -7580.057690150463, -7568.7477074560775, -7566.40077428827, -7576.749631971077, -7584.818611719444, -7579.364786072349, -7567.518361511035, -7563.092716108885, -7571.87695167982, -7582.7398994851, -7579.0742133944295, -7567.45130627767, -7564.92555915422, -7575.185009859206, -7583.142230885295, -7576.414355804248, -7564.992614387586, -7564.92555915422, -7573.016890647041, -7580.281207595016, -7577.375480815826, -7567.339547555393, -7564.076192864918, -7574.045070891985, -7583.678672752223, -7580.25885585056, -7567.674823722223, -7563.11506785334, -7572.614559246846, -7581.845829706887, -7578.291902338494, -7565.7525736990665, -7562.01983237503, -7573.195704602684, -7582.851658207376, -7579.320082583437, -7567.652471977767, -7564.21030333165, -7572.011062146553, -7581.734070984611, -7578.493068038591, -7567.6301202333125, -7565.841980676888, -7574.380347058815, -7582.874009951832, -7578.448364549681, -7567.205437088662, -7562.980957386609, -7571.921655168731, -7581.242332606595, -7578.224847105128, -7567.6301202333125, -7564.009137631552, -7571.921655168731, -7582.0693471514405, -7579.7224139836335, -7568.323024311427, -7566.601939988368, -7576.168486615239, -7585.086832652907, -7582.35991982936, -7572.189876102195, -7570.580550501412, -7581.331739584415, -7591.613542033857, -7588.461946065659, -7577.8448674493875, -7575.587341259402, -7587.009082676063, -7597.290885125504, -7594.385158346315, -7582.7398994851, -7580.97411167313, -7590.339492599905, -7600.21896364915, -7597.424995592237, -7587.12084139834, -7583.253989607572, -7594.116937412851, -7603.191745661706, -7600.21896364915, -7590.6971205111895, -7587.232600120617, -7595.346283357893, -7605.046940451496, -7601.761234016566, -7588.730166999122, -7585.086832652907, -7594.251047879583, -7603.035283450518, -7599.526059571035, -7588.305483854471, -7583.857486707865, -7592.015873434052, -7603.16939391725, -7599.7942805044995, -7587.433765820714, -7583.9468936856865, -7595.435690335714, -7604.510498584569, -7599.190783404206, -7587.12084139834, -7585.0644809084515, -7594.943951957697, -7602.923524728242, -7600.956571216175, -7590.138326899806, -7584.751556486078, -7594.139289157306, -7602.588248561412, -7600.353074115882, -7589.646588521789, -7585.8244402199325, -7593.200515890184, -7603.057635194974, -7601.537716572013, -7590.093623410896, -7585.332701841915, -7594.519268813046, -7605.851603251887, -7602.878821239331, -7590.473603066636, -7585.891495453298, -7593.513440312558, -7603.996408462097, -7602.252972394583, -7589.892457710798, -7585.198591375183, -7591.591190289401, -7601.515364827557, -7600.487184582614, -7588.841925721398, -7583.879838452321, -7593.155812401273, -7603.415263106259, -7600.509536327069, -7586.763213487055, -7582.7175477406445, -7594.429861835225, -7604.644609051301, -7601.247143894094, -7588.573704787935, -7584.036300663508, -7592.865239723354, -7602.185917161217, -7599.88368748232, -7586.629103020323, -7583.969245430142, -7593.6922542682005, -7603.16939391725, -7602.655303794779, -7589.177201888228, -7583.969245430142, -7593.848716479388, -7602.767062517055, -7599.593114804401, -7588.618408276846, -7584.326873341427, -7594.9216002132425, -7604.331684628926, -7600.531888071524, -7587.277303609527, -7583.522210541036, -7591.971169945142, -7601.6941787832, -7600.084853182418, -7589.288960610505, -7584.662149508256, -7592.306446111971, -7602.6776555392335, -7598.609638048368, -7586.830268720421, -7583.969245430142, -7591.188858889206, -7600.062501437963, -7598.542582815002, -7585.176239630729, -7581.64466400679, -7588.93133269922, -7601.761234016566, -7600.576591560435, -7587.299655353982, -7581.957588429164, -7591.680597267223, -7602.40943460577, -7600.084853182418, -7587.545524542991, -7582.650492507279, -7591.725300756133, -7602.476489839136, -7597.290885125504, -7587.098489653885, -7583.321044840938, -7591.635893778312, -7602.320027627949, -7599.749577015588, -7587.523172798536, -7582.40462331827, -7590.831230977921, -7601.135385171818, -7599.190783404206, -7586.718509998144, -7580.996463417586, -7590.138326899806, -7600.420129349248, -7597.1567746587725, -7583.276341352027, -7579.11891688334, -7588.841925721398, -7600.755405516077, -7599.0343211930185, -7587.366710587348, -7580.8400012063985, -7588.126669898828, -7598.676693281734, -7598.363768859359, -7585.869143708843, -7579.610655261356, -7587.143193142795, -7597.849678736888, -7597.782623503522, -7585.623274519834, -7579.275379094527, -7585.7126814976555, -7598.40847234827, -7598.140251414807, -7584.103355896874, -7578.604826760868, -7588.327835598927, -7600.107204926873, -7597.961437459164, -7583.812783218955, -7577.777812216022, -7586.7408617426, -7596.508574069569, -7593.0440536789965, -7582.538733785002, -7579.163620372251, -7587.009082676063, -7595.793318246999, -7594.02753043503, -7581.465850051147, -7575.453230792669, -7584.7739082305325, -7595.458042080169, -7593.2228676346385, -7578.560123271957, -7574.179181358717, -7583.209286118661, -7593.580495545923, -7594.608675790868, -7581.577608773424, -7577.107259882362, -7585.109184397363, -7595.16746940225, -7592.9322949567195, -7581.354091328871, -7575.229713348117, -7581.801126217977, -7594.586324046412, -7592.55231530098, -7578.895399438787, -7574.872085436832, -7584.21511461915, -7593.804012990477, -7591.524135056035, -7579.342434327893, -7575.4979342815805, -7584.081004152418, -7595.50274556908, -7593.111108912362, -7581.957588429164, -7575.162658114751, -7582.918713440742, -7596.307408369471, -7595.301579868982, -7582.628140762823, -7577.733108727111, -7583.768079730044, -7596.441518836203, -7594.698082768689, -7579.878876194821, -7572.905131924765, -7581.912884940253, -7594.832193235421, -7592.909943212265, -7581.868181451343, -7576.704928482167, -7583.633969263312, -7592.462908323158, -7594.139289157306, -7582.292864595994, -7576.101431381873, -7581.8905331957985, -7591.948818200686, -7590.6971205111895, -7579.945931428187, -7572.59220750239, -7579.431841305714, -7592.619370534346, -7591.188858889206, -7578.917751183242, -7573.26275983605, -7581.6893674957, -7591.948818200686, -7592.082928667418, -7579.856524450365, -7572.59220750239, -7581.532905284514, -7592.865239723354, -7592.574667045435, -7579.633007005812, -7572.301634824471, -7580.8400012063985, -7594.005178690574, -7592.418204834248, -7579.342434327893, -7574.045070891985, -7583.969245430142, -7593.535792057013, -7590.808879233466, -7579.744765728089, -7573.754498214066, -7582.091698895896, -7591.635893778312, -7590.428899577725, -7579.297730838983, -7572.748669713577, -7580.88470469531, -7591.300617611482, -7589.780698988521, -7578.895399438787, -7573.866256936343, -7580.795297717488, -7591.434728078214, -7589.601885032879, -7578.828344205421, -7572.748669713577, -7579.968283172641, -7589.646588521789, -7591.680597267223, -7578.493068038591, -7570.222922590127, -7578.046033149485, -7590.630065277823, -7590.40654783327, -7576.950797671176, -7571.362861557349, -7580.907056439764, -7591.770004245044, -7589.490126310602, -7576.146134870784, -7570.178219101217, -7579.007158161064, -7590.808879233466, -7590.674768766734, -7575.430879048215, -7569.217094089639, -7573.419222047237, -7579.051861649974, -7577.107259882362, -7561.505742252558, -7549.279338035505, -7551.693326436678, -7555.806047416455, -7548.899358379765, -7532.247308760561, -7521.876099333299, -7526.525262180003, -7538.237576274583, -7538.572852441413, -7525.318267979416, -7519.707980121134, -7530.973259326609, -7542.5067594655475, -7544.652526933257, -7534.929518095198, -7530.928555837698, -7541.63504143179, -7553.146189826273, -7555.984861372097, -7546.083038578397, -7540.226881531105, -7548.340564768382, -7561.371631785826, -7561.885721908298, -7551.670974692223, -7545.747762411566, -7554.196721815672, -7565.7525736990665, -7568.121858611329, -7562.533922497502, -7557.102448594863, -7562.2880533084935, -7573.218056347139, -7574.045070891985, -7563.0480126199745, -7554.5990532158685, -7561.438687019192, -7574.5591610144575, -7574.335643569904, -7564.679689965212, -7560.835189918899, -7567.227788833116, -7577.598998260379, -7577.219018604639, -7566.7360504551, -7558.957643384653, -7567.540713255491, -7577.598998260379, -7578.113088382851, -7569.015928389541, -7562.198646330673, -7570.35703305686, -7580.392966317292, -7577.822515704932, -7568.010099889052, -7561.237521319094, -7569.150038856273, -7580.616483761845, -7581.152925628773, -7568.792410944988, -7563.539750997991, -7570.40173654577, -7581.197629117683, -7581.935236684709, -7570.222922590127, -7564.702041709667, -7571.944006913186, -7582.650492507279, -7583.879838452321, -7571.899303424276, -7563.360937042348, -7568.725355711622, -7580.348262828382, -7581.64466400679, -7570.513495268046, -7563.763268442544, -7572.21222784665, -7581.510553540058, -7581.175277373229, -7570.40173654577, -7564.8138004319435, -7571.005233646064, -7582.248161107083, -7581.667015751245, -7570.647605734779, -7562.489219008591, -7568.904169667265, -7580.236504106106, -7582.181105873717, -7571.698137724178, -7564.679689965212, -7568.92652141172, -7580.281207595016, -7582.8963616962865, -7571.653434235268, -7563.8750271648205, -7570.02175689003, -7578.940102927698, -7581.063518650952, -7571.7428412130885, -7561.952777141664, -7566.512533010547, -7579.141268627795, -7580.862352950854, -7569.887646423298]]
[[-1121.521129789487, -1182.5637438969309, -1166.5151913780203, -1109.6970569726298, -1107.5959929938308, -1123.2198623680906, -1184.5306974089979, -1166.783412311484, -1109.4511877836214, -1105.6066877373084, -1121.6328885117637, -1181.937895052182, -1166.5822466113862, -1109.9876296505488, -1108.043027882937, -1122.7728274789845, -1183.1448892527687, -1163.207133198635, -1107.685399971652, -1108.110083116303, -1120.4035425667219, -1177.6240083723078, -1163.1847814541795, -1108.2218418385794, -1107.2160133380908, -1120.4035425667219, -1180.2168107291236, -1163.7435750655623, -1109.4064842947107, -1108.4006557942218, -1119.7106384886074, -1178.786299083984, -1163.2518366875454, -1106.4560540266102, -1105.3384668038448, -1118.5036442880207, -1179.300389206456, -1162.8271535428946, -1108.3559523053113, -1105.7631499484958, -1114.9273651751716, -1173.108955992336, -1157.1945139401573, -1099.5046615010097, -1099.6164202232862, -1113.876833185772, -1173.9359705371821, -1159.8767232747941, -1105.271411570479, -1103.7738446919734, -1114.2121093526018, -1171.812554813928, -1158.7144325631182, -1106.1431296042358, -1105.070245870381, -1112.692190729641, -1169.5773803683974, -1159.1167639633136, -1106.009019137504, -1105.785501692951, -1115.5755657643756, -1171.2314094580902, -1159.8767232747941, -1108.467711027588, -1109.4511877836214, -1116.3802285647666, -1171.589037369375, -1158.3791563962886, -1106.7689784489846, -1105.9866673930487, -1112.3792663072666, -1169.4879733905761, -1157.6415488292635, -1104.8914319147386, -1105.2490598260235, -1114.1003506303252, -1167.23044720059, -1156.5910168398639, -1106.366647048789, -1106.4560540266102, -1112.2898593294453, -1167.744537323062, -1158.4015081407438, -1105.047894125926, -1104.9361354036494, -1113.206280852113, -1167.364557667322, -1155.719298806107, -1102.7456644470292, -1103.818548180884, -1112.0663418848924, -1165.8893425332717, -1156.7474790510512, -1105.0925976148364, -1106.9254406601717, -1113.6086122523084, -1165.464659388621, -1157.1945139401573, -1105.2267080815684, -1104.3549900478113, -1111.6193069957862, -1165.2411419440677, -1154.4899528610651, -1102.1868708356465, -1102.7456644470292, -1110.45701628411, -1163.5647611099198, -1152.9923859825594, -1103.751492947518, -1103.9526586476159, -1109.6076499948085, -1163.1624297097242, -1155.6298918282857, -1104.4443970256325, -1102.656257469208, -1108.624173238775, -1160.100240719347, -1150.8019150259395, -1099.7505306900182, -1101.0916353573366, -1106.9924958935376, -1159.8767232747941, -1151.0701359594032, -1099.6387719677416, -1100.622248723775, -1109.1606151057024, -1160.591979097364, -1151.9195022487047, -1100.7340074460517, -1099.7952341789287, -1105.8972604152275, -1159.0944122188585, -1152.5453510934533, -1101.203394079613, -1101.0245801239705, -1104.8467284258281, -1155.719298806107, -1150.913673748216, -1101.0245801239705, -1100.5104900014985, -1106.2772400709678, -1157.7533075515398, -1152.0312609709813, -1101.4269115241661, -1103.5503272474202, -1107.4395307826437, -1156.65807207323, -1152.2771301599896, -1103.818548180884, -1104.1985278366242, -1108.5347662609538, -1158.200342440646, -1153.3723656382997, -1103.88560341425, -1106.1878330931465, -1110.8593476843057, -1157.9544732516376, -1153.104144704836, -1105.4725772705767, -1107.014847637993, -1109.2500220835236, -1156.300444161945, -1152.6124063268194, -1104.9584871481047, -1105.070245870381, -1108.8700424277833, -1155.5181331060091, -1153.9535109941378, -1104.8914319147386, -1105.204356337113, -1110.6358302397527, -1156.9039412622383, -1154.1323249497802, -1104.8243766813728, -1105.9419639041382, -1111.0381616399482, -1156.233388928579, -1150.1313626922802, -1100.5551934904092, -1102.8127196803953, -1108.8923941722387, -1154.1546766942354, -1153.260606916023, -1104.3549900478113, -1105.1596528482023, -1109.3841325502553, -1155.6298918282857, -1155.4510778726433, -1107.461882527099, -1104.7349697035515, -1107.6406964827415, -1153.5511795939422, -1154.0652697164142, -1104.1985278366242, -1105.3161150593896, -1111.2616790845013, -1157.8874180182718, -1156.9486447511488, -1105.718446459585, -1105.7407982040404, -1110.0993883728252, -1155.1828569391796, -1155.1828569391796, -1105.494929015032, -1106.2548883265124, -1111.2616790845013, -1152.880627260283, -1155.5181331060091, -1108.0877313718477, -1109.138263361247, -1113.4745017855766, -1154.6240633277969, -1155.6075400838304, -1107.5736412493757, -1108.4453592831326, -1113.9215366746828, -1152.7018133046406, -1153.8417522718612, -1105.561984248398, -1105.6737429706745, -1111.0605133844035, -1154.914636005716, -1156.9262930066936, -1107.3277720603671, -1106.3219435598783, -1111.7087139736075, -1155.1605051947242, -1156.300444161945, -1109.3617808058002, -1110.9711064065823, -1114.1227023747806, -1112.200452351624, -1115.687324486652, -1147.203284168635, -1169.9350082796823, -1116.782559964962, -1113.7650744634957, -1116.7155047315962, -1147.0021184685372, -1169.9350082796823, -1114.4579785416101, -1110.3676093062888, -1112.915708174194, -1142.330603877378, -1165.1293832217912, -1111.6193069957862, -1111.4851965290543, -1113.4521500411213, -1142.0847346883697, -1168.5492001234531, -1112.6474872407302, -1108.7806354499621, -1111.5746035068755, -1140.7883335099618, -1167.8562960453387, -1112.9827634075598, -1108.7806354499621, -1111.753417462518, -1140.1624846652132, -1165.3976041552548, -1111.6193069957862, -1106.6348679822527, -1110.300554072923, -1138.9331387201714, -1166.6493018447522, -1112.692190729641, -1108.914745916694, -1111.686362229152, -1139.6483945427412, -1169.6444356017632, -1115.1508826197246, -1108.5794697498643, -1111.8204726958838, -1138.106124175325, -1167.878647789794, -1115.0391238974482, -1110.8593476843057, -1113.8321296968616, -1138.4190485976992, -1168.3480344233556, -1116.112007631303, -1110.6581819842079, -1111.8651761847946, -1138.8437317423502, -1169.197400712657, -1117.073132642881, -1112.5357285184537, -1112.401618051722, -1138.910786975716, -1168.6386071012744, -1115.2179378530907, -1110.8593476843057, -1113.2733360854788, -1137.972013708593, -1167.1186884783135, -1112.4910250295432, -1106.3889987932444, -1108.6465249832304, -1134.2839758734674, -1164.9505692661487, -1110.0323331394593, -1105.785501692951, -1108.7359319610516, -1133.6581270287188, -1163.520057621009, -1107.819510438384, -1102.9021266582165, -1108.8029871944175, -1134.7086590181184, -1162.1566012092353, -1108.7806354499621, -1103.8408999253393, -1107.5065860160096, -1132.9875746950597, -1165.8669907888163, -1113.6980192301296, -1107.8418621828393, -1109.2276703390683, -1136.1168189188027, -1167.9904065120706, -1114.7261994750738, -1106.9924958935376, -1111.105216873314, -1135.490970074054, -1168.5492001234531, -1114.7932547084397, -1107.238365082546, -1111.753417462518, -1137.1226474192915, -1169.3538629238442, -1115.3967518087331, -1109.0935598723365, -1111.7087139736075, -1135.9603567076156, -1167.6998338341516, -1114.0556471414145, -1109.272373827979, -1112.9604116631047, -1136.3850398522663, -1166.6716535892074, -1112.334562818356, -1108.467711027588, -1111.9322314181604, -1134.105161917825, -1167.588075111875, -1115.6649727421968, -1108.691228472141, -1113.2286325965683, -1134.7086590181184, -1168.2586274455343, -1117.3413535763448, -1109.3617808058002, -1111.0828651288589, -1135.17804565168, -1168.4150896567214, -1114.659144241708, -1109.9205744171827, -1114.6814959861633, -1135.334507862867, -1170.9855402690816, -1118.525996032476, -1112.3792663072666, -1114.234461097057, -1132.3170223614004, -1168.6386071012744, -1116.626097753775, -1111.8204726958838, -1112.6251354962749, -1133.524016561987, -1169.197400712657, -1118.6154030102973, -1111.2616790845013, -1115.4191035531883, -1135.4015630962328, -1170.5832088688862, -1119.5094727885096, -1112.9380599186493, -1113.9885919080486, -1134.0604584289144, -1171.9690170251151, -1118.7942169659398, -1111.529900017965, -1115.8661384422944, -1133.2110921396127, -1169.8008978129503, -1118.1236646322805, -1110.8146441953952, -1111.7087139736075, -1133.4346095841659, -1171.2090577136348, -1119.755341977518, -1110.300554072923, -1113.6086122523084, -1135.5133218185094, -1173.0419007589699, -1121.6999437451295, -1111.6193069957862, -1115.5085105310095, -1136.1615224077134, -1172.6619211032298, -1118.5706995213866, -1113.0945221298364, -1116.5366907759537, -1134.6192520402972, -1171.6113891138302, -1121.498778045032, -1114.592089008342, -1116.2461180980347, -1133.4793130730764, -1170.4714501466096, -1121.8564059563168, -1114.8379581973504, -1116.2908215869454, -1135.8933014742497, -1173.5112873925314, -1122.3257925898781, -1115.7320279755627, -1118.1236646322805, -1135.848597985339, -1173.7124530926292, -1122.7057722456184, -1115.17323436418, -1117.5648710208977, -1136.787371252462, -1175.299426948956, -1122.4151995676993, -1114.3909233082443, -1115.4191035531883, -1133.8592927288166, -1174.9194472932159, -1123.4433798126436, -1112.5804320073644, -1115.821434953384, -1134.2839758734674, -1174.2041914706458, -1122.8622344568057, -1112.7592459630068, -1116.6037460093196, -1132.8758159727831, -1171.2537612025453, -1121.655240256219, -1113.0945221298364, -1115.2849930864566, -1134.395734595744, -1173.265418203523, -1121.4764263005766, -1110.9934581510377, -1113.139225618747, -1133.0322781839702, -1174.8300403153946, -1123.3092693459118, -1114.4132750526994, -1116.8272634538728, -1132.719353761596, -1172.5278106364979, -1119.978859422071, -1111.1275686177694, -1114.3909233082443, -1131.6688217721967, -1173.0419007589699, -1120.7611704780068, -1110.0993883728252, -1113.496853530032, -1128.852501970828, -1169.197400712657, -1118.1236646322805, -1109.6076499948085, -1112.9604116631047, -1129.299536859934, -1170.4714501466096, -1120.26943209999, -1109.7417604615403, -1113.0274668964705, -1128.9195572041938, -1171.879610047294, -1118.5706995213866, -1107.014847637993, -1111.9769349070712, -1128.2266531260793, -1168.6162553568192, -1117.9001471877275, -1107.2607168270013, -1110.881699428761, -1126.7737897364843, -1167.6327786007857, -1119.8671006997945, -1108.7359319610516, -1111.1499203622247, -1127.3102316034117, -1169.4879733905761, -1119.8223972108838, -1108.2218418385794, -1111.9992866515263, -1125.879719958272, -1169.04093850147, -1120.0012111665262, -1107.305420315912, -1110.948754662127, -1125.8350164693613, -1167.6998338341516, -1117.4978157875319, -1105.0925976148364, -1109.9205744171827, -1126.7737897364843, -1169.711490835129, -1117.0060774095152, -1106.6795714711634, -1112.8710046852834, -1127.1314176477692, -1168.5044966345426, -1119.8000454664286, -1108.8923941722387, -1113.653315741219, -1127.2208246255905, -1170.5608571244309, -1123.2645658570011, -1110.07703662837, -1113.9885919080486, -1128.0031356815261, -1170.1138222353247, -1122.594013523342, -1110.6805337286632, -1112.8710046852834, -1125.0974089023364, -1168.8174210569168, -1119.978859422071, -1108.8923941722387, -1113.2286325965683, -1127.042010669948, -1169.8008978129503, -1123.756304235018, -1114.7485512195292, -1118.1907198656463, -1132.0264496834816, -1175.7688135825174, -1127.3549350923224, -1111.909879673705, -1114.5473855194314, -1132.205263639124, -1176.6181798718192, -1127.9584321926156, -1116.1567111202135, -1120.8952809447385, -1130.2606618715122, -1173.2207147146123, -1125.298574602434, -1110.6581819842079, -1112.6027837518197, -1125.8126647249062, -1171.5443338804644, -1126.0585339139145, -1111.462844784599, -1113.9885919080486, -1126.3044031029228, -1170.2255809576013, -1123.8457112128392, -1112.3792663072666, -1114.7709029639846, -1127.1537693922246, -1172.3489966808554, -1126.46086531411, -1111.7310657180626, -1115.2849930864566, -1128.5172258039984, -1171.5666856249197, -1125.3432780913447, -1110.5017197730208, -1115.754379720018, -1129.0983711598362, -1173.7348048370845, -1126.885548458761, -1113.1615773632022, -1116.6037460093196, -1129.0760194153809, -1176.104089749347, -1128.785446737462, -1113.6086122523084, -1117.0284291539704, -1128.718391504096, -1174.5171158930202, -1128.0254874259815, -1112.1333971182582, -1116.8272634538728, -1126.9526036921268, -1170.7620228245287, -1126.9526036921268, -1113.3850948077554, -1116.559042520409, -1128.6960397596408, -1173.6677496037184, -1128.7630949930067, -1113.206280852113, -1117.1625396207023, -1129.0760194153809, -1175.522944393509, -1129.1207229042916, -1114.3238680748782, -1118.1907198656463, -1129.4336473266658, -1174.7629850820285, -1130.9312142051715, -1114.1003506303252, -1118.749513477029, -1129.2771851154787, -1174.8523920598498, -1132.0935049168475, -1114.1450541192357, -1117.4978157875319, -1129.880682215772, -1175.3441304378666, -1130.1936066381463, -1110.2558505840125, -1114.882661686261, -1127.2208246255905, -1172.3713484253108, -1128.8748537152833, -1112.2451558405348, -1113.6756674856745, -1125.2538711135235, -1173.0419007589699, -1130.7300485050737, -1112.3122110739007, -1114.2791645859677, -1126.6620310142077, -1173.6677496037184, -1131.5123595610094, -1113.7427227190403, -1116.2237663535793, -1127.4219903256883, -1174.2488949595565, -1130.9088624607161, -1112.714542474096, -1118.6824582436632, -1128.5395775484535, -1172.9524937811486, -1130.3724205937888, -1112.2451558405348, -1116.1567111202135, -1125.1197606467915, -1172.0360722584812, -1129.2324816265682, -1112.5804320073644, -1116.7155047315962, -1124.7621327355066, -1172.7960315699615, -1132.0264496834816, -1111.8428244403392, -1115.307344830912, -1122.4822548010654, -1169.0856419903805, -1129.7242200045848, -1111.529900017965, -1116.6708012426855, -1124.493911802043, -1170.337339679878, -1129.1207229042916, -1108.177138349669, -1112.4463215406324, -1123.3092693459118, -1171.4325751581878, -1131.6911735166518, -1110.7028854731186, -1113.5415570189425, -1124.0915804018475, -1173.623046114808, -1132.942871206149, -1113.3850948077554, -1114.167405863691, -1123.8010077239285, -1172.304293191945, -1131.266490372001, -1110.4123127951996, -1114.3238680748782, -1123.6445455127414, -1171.521982136009, -1130.6853450161632, -1110.6358302397527, -1115.7096762311073, -1124.113932146303, -1169.5997321128527, -1131.4900078165542, -1111.2616790845013, -1114.7261994750738, -1123.0634001569033, -1171.7231478361068, -1132.0040979390262, -1111.3734378067777, -1115.329696575367, -1124.560967035409, -1169.3091594349337, -1129.8583304713168, -1111.5522517624202, -1113.8321296968616, -1120.2470803555348, -1170.3820431687884, -1131.4676560720989, -1110.9264029176716, -1115.9555454201156, -1124.5386152909537, -1171.879610047294, -1134.172217151191, -1110.9040511732164, -1114.592089008342, -1122.4822548010654, -1171.7678513250175, -1135.0662869294033, -1112.200452351624, -1116.2908215869454, -1123.465731557099, -1168.8621245458276, -1134.6639555292077, -1112.8039494519173, -1115.7767314644732, -1124.1809873796687, -1171.6784443471963, -1134.105161917825, -1111.6640104846967, -1115.4861587865544, -1122.817530967895, -1170.5608571244309, -1135.1333421627692, -1112.8263011963727, -1115.7096762311073, -1122.8845862012608, -1170.5832088688862, -1136.3403363633558, -1113.6980192301296, -1116.491987287043, -1126.237347869557, -1171.8349065583834, -1136.1838741521685, -1114.2121093526018, -1117.6766297431743, -1125.5444437914425, -1171.7678513250175, -1140.3189468764003, -1115.754379720018, -1117.3413535763448, -1126.3714583362887, -1173.8242118149058, -1138.3072898754228, -1115.0614756419034, -1117.1625396207023, -1124.0915804018475, -1171.521982136009, -1135.55802530742, -1112.1333971182582, -1116.5143390314984, -1124.0915804018475, -1169.4432699016654], [-7609.986675976119, -7643.491940914624, -7648.118752016873, -7490.784822795967, -7307.075835117797, -7604.1975741621945, -7645.36948744887, -7649.236339239638, -7486.9179710051985, -7295.140003578664, -7600.6212950493455, -7645.213025237683, -7648.409324694792, -7482.179401180673, -7280.790183638357, -7598.050844436985, -7648.431676439247, -7650.353926462403, -7474.7139185326005, -7266.574474164781, -7592.418204834248, -7649.146932261817, -7649.549263662013, -7468.634244040757, -7249.877721056667, -7584.8856669528095, -7647.358792705392, -7650.644499140322, -7461.928720704165, -7233.963279004488, -7578.515419783047, -7648.632842139345, -7650.264519484583, -7456.9219299461765, -7221.535709087338, -7573.776849958522, -7648.677545628256, -7650.488036929136, -7455.33495608985, -7210.80687174879, -7568.8594661783545, -7650.957423562697, -7648.230510739149, -7447.310679830394, -7198.714577998469, -7562.399812030771, -7649.213987495183, -7650.644499140322, -7445.857816440799, -7189.483307538428, -7559.561140484946, -7649.482208428647, -7649.079877028451, -7442.1921303501285, -7176.787516687813, -7553.63792820429, -7651.247996240616, -7648.319917716971, -7433.966688390576, -7163.823504903735, -7546.261852534039, -7652.365583463381, -7651.9185485742755, -7433.407894779193, -7155.553359455271, -7543.691401921678, -7653.32670847496, -7650.6892026292335, -7431.195072078118, -7146.679716906514, -7538.483445463592, -7653.550225919513, -7647.336440960938, -7429.317525543872, -7139.035420302799, -7531.420294215714, -7652.633804396845, -7649.7504293621105, -7425.338915030828, -7132.575766155215, -7529.095712792363, -7653.527874175057, -7650.08570552894, -7423.70723768559, -7125.0432282737775, -7522.747817367055, -7653.773743364066, -7648.744600861622, -7417.113473071275, -7113.867356046124, -7516.936363808676, -7652.477342185658, -7648.677545628256, -7415.682961426135, -7103.742015807869, -7511.504889906037, -7655.18190326475, -7651.516217174079, -7417.135824815729, -7099.495184361361, -7506.140471236762, -7655.114848031384, -7652.27617648556, -7416.75584515999, -7097.662341316026, -7507.146299737251, -7656.7912288655325, -7651.6279758963565, -7414.654781181191, -7087.916980733512, -7497.646808343746, -7656.478304443158, -7651.516217174079, -7411.883164868733, -7081.367919608107, -7495.679854831679, -7656.902987587809, -7650.935071818241, -7412.106682313286, -7077.813992239713, -7492.081223974375, -7656.724173632166, -7651.002127051607, -7409.312714256373, -7069.320329346697, -7486.470936116092, -7655.517179431579, -7652.6561561413, -7412.486661969026, -7066.481657800872, -7483.788726781456, -7658.646423655323, -7652.164417763283, -7408.7315689005345, -7057.585663507661, -7475.786802266455, -7657.573539921468, -7653.080839285951, -7409.826804378844, -7053.830570439169, -7472.501095831525, -7659.9651765781855, -7653.952557319708, -7407.636333422224, -7047.773247691781, -7467.226084140073, -7656.567711420979, -7649.459856684191, -7403.65772290918, -7041.782980177758, -7460.878188714766, -7656.746525376621, -7651.1585892627945, -7405.51291769897, -7035.77036091928, -7457.078392157364, -7657.685298643744, -7650.778609607055, -7404.060054309375, -7032.328192273163, -7452.004546166008, -7656.27713874306, -7650.264519484583, -7403.456557209081, -7027.72373291537, -7447.578900763858, -7656.634766654345, -7653.505522430602, -7406.138766543719, -7023.052218324211, -7440.716915216079, -7654.310185230993, -7650.018650295574, -7404.127109542741, -7017.978372332856, -7439.174644848663, -7659.249920755616, -7651.024478796063, -7404.171813031651, -7015.631439165049, -7436.179511091651, -7657.953519577208, -7651.829141596454, -7405.110586298774, -7010.043503051223, -7427.909365643188, -7657.864112599387, -7650.957423562697, -7404.149461287197, -7007.182479760943, -7425.51772898647, -7660.434563211747, -7654.444295697725, -7407.278705510939, -7008.545936172716, -7423.662534196679, -7657.618243410378, -7652.320879974471, -7406.496394455004, -7004.410863448485, -7418.6557434386905, -7657.953519577208, -7653.125542774862, -7408.262182266973, -7002.086282025133, -7415.37003700376, -7659.518141689079, -7655.628938153856, -7409.536231700926, -6998.286485467731, -7410.385597990227, -7656.299490487515, -7651.449161940714, -7407.479871211037, -6996.1407180000215, -7407.949257844599, -7657.75235387711, -7651.695031129722, -7410.586763690325, -6994.799613332702, -7403.367150231261, -7656.61241490989, -7652.700859630211, -7410.810281134878, -6992.832659820636, -7402.964818831065, -7660.523970189568, -7654.712516631189, -7414.788891647922, -6995.894848811013, -7492.9082385192205, -6996.274828466753, -7276.990387080955, -7659.227569011161, -7670.381089494359, -7495.143412964751, -6996.185421488932, -7275.671634158091, -7660.434563211747, -7671.744545906133, -7496.752738565534, -6997.124194756055, -7271.62596841168, -7658.042926555029, -7668.8835226158535, -7497.803270554933, -6999.33701745713, -7269.927235833077, -7655.695993387222, -7666.424830725769, -7497.266828688005, -6997.794747089714, -7264.6298723971695, -7654.824275353465, -7667.855342370909, -7500.619590356302, -6999.918162812968, -7264.406354952616, -7656.388897465336, -7666.80481038151, -7502.050102001442, -7002.62272389206, -7259.779543850368, -7653.773743364066, -7666.491885959135, -7502.452433401637, -7003.874421581558, -7259.891302572644, -7653.572577663967, -7665.284891758549, -7504.285276446972, -7003.0697587811665, -7253.811628080801, -7653.147894519317, -7666.693051659233, -7508.330942193383, -7006.891907083024, -7250.548273390326, -7651.1585892627945, -7665.955444092208, -7509.180308482684, -7005.059064037689, -7246.279090199362, -7651.18094100725, -7667.765935393088, -7508.777977082489, -7003.807366348192, -7240.780561063357, -7649.661022384289, -7663.8990836023195, -7506.788671825966, -7003.025055292256, -7232.890395270633, -7631.265536697571, -7642.7096298586885, -7491.410671640715, -6995.246648221809, -7218.987610219433, -7608.824385264443, -7619.620277836357, -7479.966578479598, -6994.106709254588, -7214.003171205899, -7607.50563234158, -7622.41424589327, -7483.676968059179, -6995.850145322102, -7214.04787469481, -7612.311257399471, -7629.052713996496, -7490.650712329235, -6998.755872101292, -7212.483252582938, -7615.127577200839, -7633.2548419540935, -7495.143412964751, -7001.594543647117, -7211.030389193344, -7616.9380685017195, -7634.126559987851, -7498.0714914883965, -7002.376854703052, -7207.09648216921, -7616.714551057166, -7634.998278021608, -7497.825622299389, -7001.326322713652, -7201.039159421821, -7611.1266149433395, -7625.230565694638, -7489.667235573201, -6995.604276133094, -7191.003226161388, -7595.212172891162, -7613.674713811245, -7484.839258770855, -6997.90650581199, -7191.830240706235, -7597.447347336692, -7617.586269090923, -7491.321264662894, -7001.706302369393, -7189.5503627717935, -7600.531888071524, -7617.429806879736, -7490.494250118048, -7000.678122124448, -7183.4483365354945, -7600.084853182418, -7619.910850514276, -7494.7857850534665, -7001.371026202563, -7179.872057422645, -7600.6212950493455, -7621.36371390387, -7495.143412964751, -6999.761700601781, -7176.161667843065, -7600.956571216175, -7621.140196459317, -7496.506869376525, -7000.5440116577165, -7171.691318952003, -7597.424995592237, -7619.039132480519, -7495.635151342768, -7001.52748841375, -7168.763240428358, -7594.340454857404, -7615.373446389848, -7494.562267608913, -7002.1309855140435, -7164.650519448581, -7592.59701878989, -7613.875879511343, -7496.529221120981, -7007.070721038666, -7168.137391583609, -7595.256876380072, -7616.401626634793, -7500.977218267587, -7008.657694894993, -7162.102420580676, -7593.31227461246, -7616.960420246175, -7502.228915957084, -7008.836508850635, -7160.157818813064, -7595.726263013633, -7619.12853945834, -7505.089939247363, -7011.0046280628, -7155.776876899824, -7594.7427862576, -7616.736902801622, -7504.86642180281, -7012.658657152493, -7152.535873953805, -7594.6310275353235, -7620.6484580813, -7507.794500326455, -7014.580907175649, -7149.764257641346, -7594.116937412851, -7619.530870858535, -7509.806157327433, -7017.307819999197, -7149.65249891907, -7592.261742623061, -7619.910850514276, -7512.734235851078, -7020.81704387868, -7147.663193662548, -7591.568838544946, -7617.742731302111, -7511.326075950394, -7024.639192180538, -7146.009164572855, -7589.579533288424, -7618.949725502697, -7514.790596340967, -7026.24851778132, -7143.5951761716815, -7593.6922542682005, -7621.207251692683, -7517.651619631246, -7030.227128294365, -7143.751638382869, -7590.607713533368, -7617.295696413004, -7516.15405275274, -7030.607107950104, -7138.789551113791, -7591.367672844848, -7619.352056902892, -7518.9703725541085, -7033.557538218205, -7137.560205168749, -7590.138326899806, -7621.36371390387, -7521.272602233005, -7033.8257591516685, -7134.229795244908, -7588.7078152546665, -7618.0556557244845, -7520.3785324547935, -7034.876291141069, -7131.838158588191, -7586.316178597949, -7619.463815625169, -7523.641887145268, -7038.609032465105, -7128.463045175439, -7586.606751275868, -7619.240298180616, -7525.094750534863, -7039.927785387968, -7125.9820015409, -7584.93037044172, -7618.905022013787, -7524.737122623578, -7041.850035411124, -7122.942164294978, -7583.924541941231, -7618.390931891315, -7526.391151713271, -7043.951099389923, -7123.523309650816, -7584.013948919052, -7616.155757445784, -7525.921765079709, -7045.158093590509, -7116.929545036501, -7578.9624546721525, -7616.111053956874, -7525.0723987904075, -7041.447704010929, -7110.671056589014, -7580.080041894918, -7617.340399901915, -7527.44168370267, -7042.364125533596, -7110.3134286777295, -7579.565951772446, -7615.619315578857, -7528.0675325474185, -7044.062858112199, -7106.938315264978, -7578.224847105128, -7617.519213857558, -7530.369762226315, -7045.985108135356, -7102.512669862827, -7578.828344205421, -7619.821443536454, -7533.63311691679, -7051.058954126711, -7102.087986718177, -7577.755460471566, -7616.960420246175, -7533.320192494416, -7053.6070529946155, -7099.338722150174, -7575.632044748312, -7620.424940636747, -7537.455265218648, -7054.992861150845, -7099.115204705621, -7577.062556393452, -7619.776740047543, -7537.790541385477, -7057.093925129643, -7095.203649425942, -7576.324948826426, -7621.408417392781, -7539.8692536198205, -7059.552617019727, -7092.119108691109, -7575.721451726134, -7620.112016214373, -7538.326983252405, -7058.345622819141, -7088.140498178065, -7570.245274334583, -7614.725245800644, -7537.321154751916, -7060.089058886655, -7085.525344076794, -7567.719527211133, -7607.326818385937, -7527.44168370267, -7057.719773974392, -7076.450535827939, -7547.11121882334, -7586.897323953787, -7512.622477128802, -7056.199855351431, -7071.130820647576, -7535.801236128955, -7577.867219193843, -7508.576811382391, -7055.082268128666, -7070.504971802828, -7548.273509535016, -7599.861335737865, -7532.448474460659, -7065.274663600286, -7074.215361382408, -7570.312329567949, -7628.918603529764, -7557.661242206245, -7074.036547426766, -7075.377652094085, -7586.9420274426975, -7646.84470258292, -7569.127687111818, -7078.328082362185, -7075.40000383854, -7597.670864781245, -7662.580330679457, -7581.443498306692, -7082.150230664043, -7071.555503792228, -7601.425957849737, -7668.8835226158535, -7585.5338675420135, -7087.604056311137, -7074.170657893498, -7602.901172983787, -7673.443278484736, -7592.7534810010775, -7093.25904765833, -7074.282416615774, -7607.1927079192055, -7678.003034353618, -7596.821498491943, -7096.030663970789, -7072.695442759448, -7606.768024774555, -7679.321787276482, -7599.056672937474, -7099.517536105816, -7071.957835192423, -7609.003199220086, -7684.038005356551, -7603.2588008950715, -7103.093815218665, -7070.795544480747, -7608.019722464052, -7683.121583833884, -7604.555202073479, -7107.1394809650765, -7068.001576423833, -7606.097472440895, -7684.507391990112, -7608.176184675239, -7108.324123421207, -7063.3524135771295, -7606.678617796733, -7685.580275723967, -7607.55033583049, -7108.88291703259, -7063.866503699602, -7606.008065463075, -7684.641502456845, -7610.456062609681, -7113.576783368205, -7063.531227532772, -7607.12565268584, -7688.486002503158, -7613.250030666594, -7116.326047936207, -7060.6478524980375, -7604.398739862292, -7686.1390693353505, -7613.808824277977, -7122.293963705774, -7061.519570531795, -7605.203402662683, -7688.754223436621, -7616.669847568256, -7124.059751517743, -7058.256215841319, -7603.035283450518, -7690.162383337305, -7618.323876657949, -7128.954783553456, -7058.5914920081495, -7602.4988415835915, -7691.101156604428, -7620.313181914471, -7130.027667287311, -7054.925805917479, -7601.403606105281, -7689.268313559093, -7619.687333069723, -7131.860510332645, -7051.5506925047275, -7599.950742715686, -7690.028272870573, -7622.79422554901, -7133.916870822534, -7048.712020958904, -7599.749577015588, -7690.520011248591, -7622.570708104457, -7136.420266201529, -7048.399096536529, -7599.235486893116, -7691.6599502158115, -7624.872937783353, -7142.2987749932745, -7048.130875603066, -7596.329760113927, -7690.0729763594845, -7626.951650017697, -7148.5796151852155, -7050.902491915524, -7598.0955479258955, -7691.794060682543, -7627.689257584722, -7147.685545407003, -7044.308727301208, -7596.709739769667, -7693.738662450155, -7629.589155863423, -7149.049001818777, -7041.380648777563, -7592.574667045435, -7694.252752572626, -7631.287888442027, -7150.188940785997, -7038.832549909658, -7592.194687389695, -7693.693958961244, -7630.393818663814, -7151.150065797576, -7034.652773696515, -7589.7583472440665, -7692.710482205211, -7630.41617040827, -7153.318185009741, -7032.261137039797, -7587.970207687642, -7694.878601417376, -7635.020629766063, -7155.84393213319, -7030.003610849812, -7587.076137909429, -7695.1244706063835, -7636.518196644569, -7159.911949624056, -7028.1931195489315, -7583.052823907474, -7690.877639159876, -7634.595946621412, -7160.291929279796, -7025.130930558555, -7581.264684351049, -7691.101156604428, -7635.333554188437, -7164.985795615411, -7024.2592125247975, -7580.236504106106, -7692.643426971845, -7636.205272222194, -7166.952749127478, -7021.91227935699, -7578.805992460966, -7692.554019994023, -7638.194577478716, -7171.557208485271, -7021.7334654013475, -7578.40366106077, -7694.051586872529, -7637.904004800797, -7171.84778116319, -7019.095959555621, -7576.392004059792, -7695.303284562026, -7641.346173446915, -7174.619397475648, -7016.883136854546, -7575.743803470588, -7695.1244706063835, -7643.51429265908, -7179.6932434670025, -7016.346694987619, -7574.134477869807, -7693.537496750057, -7641.413228680281, -7178.843877177701, -7013.262154252787, -7573.195704602684, -7696.130299106872, -7645.1683217487725, -7184.610627247171, -7014.625610664561, -7571.698137724178, -7698.18665959676, -7648.208158994694, -7185.370586558651, -7009.19413676192, -7570.044108634485, -7699.103081119429, -7648.968118306175, -7187.896333682101, -7006.847203594113, -7570.960530157153, -7702.701711976732]]
