[[877.3953768486234, 876.3671966036793, 876.4566035815005, 879.4964408274222, 879.8317169942519, 878.6917780270312, 878.088280926738, 878.825888493763, 879.5187925718776, 879.764661760886, 875.9872169479391, 874.60140879171, 879.8540687387073, 883.1397751736373, 880.9493042170172, 878.6470745381206, 878.2223913934698, 878.669426282576, 879.8317169942519, 877.7753565043637, 877.1048041707045, 876.6801210260536, 877.5965425487212, 878.1776879045592, 877.3283216152576, 875.3837198476458, 874.5790570472548, 874.9143332140843, 876.6577692815983, 877.6412460376318, 875.3390163587352, 874.8025744918078, 875.2049058920034, 874.8025744918078, 874.1096704136933, 872.3438826017241, 872.7909174908302, 874.7578710028972, 874.5790570472548, 873.5285250578553, 872.5226965573665, 872.3438826017241, 873.0814901687492, 875.3613681031904, 875.2719611253692, 874.0649669247827, 874.2214291359699, 875.4060715921011, 876.3224931147687, 876.7695280038748, 876.054272181305, 874.9366849585397, 875.8084029922967, 875.5401820588329, 874.7802227473525, 874.020263435872, 873.2379523799364, 874.5343535583442, 876.4119000925899, 876.4789553259559, 873.2603041243916, 871.7850889903414, 874.1543739026039, 874.9590367029949, 874.6908157695312, 873.1932488910257, 873.0144349353833, 872.0980134127157, 873.9085047135956, 872.5226965573665, 871.9415512015286, 872.9697314464727, 874.1990773915145, 875.4507750810117, 875.1602024030927, 872.0309581793498, 872.7462140019196, 874.5343535583442, 877.0601006817939, 876.7695280038748, 874.4225948360676, 873.7073390134977, 876.3224931147687, 877.2836181263469, 876.5683623037771, 874.377891347157, 873.4614698244894, 875.473126825467, 875.3613681031904, 874.3555396027017, 873.863801224685, 873.5285250578553, 875.0260919363609, 877.4177285930788, 875.7189960144754, 873.9979116914168, 873.1932488910257, 873.3720628466682, 873.9085047135956, 876.0319204368498, 874.1320221581486, 872.4779930684559, 873.8190977357743, 875.5848855477435, 875.8754582256626, 874.1543739026039, 873.0814901687492, 873.9979116914168, 876.7695280038748, 877.0377489373385, 874.8025744918078, 874.9366849585397, 875.2049058920034, 876.3895483481347, 873.8190977357743, 873.9308564580508, 871.5839232902435, 872.3438826017241, 873.1932488910257, 875.3166646142798, 873.796745991319, 872.1427169016263, 873.5732285467659, 875.2049058920034, 876.3001413703134, 875.249609380914, 874.7578710028972, 874.5343535583442, 874.2884843693357, 876.7695280038748, 875.6519407811095, 873.7073390134977, 875.0931471697268, 876.8812867261514, 877.5071355709, 877.0824524262491, 874.9813884474503, 874.7131675139866, 876.3224931147687, 876.6577692815983, 873.9979116914168, 872.9697314464727, 874.1320221581486, 875.2719611253692, 875.7413477589307, 873.7743942468637, 872.4556413240006, 873.3497111022128, 874.377891347157, 874.8249262362631, 873.215600635481, 873.1485454021151, 873.4167663355788, 875.4954785699223, 875.3613681031904, 875.0931471697268, 873.9979116914168, 875.5625338032883, 876.3224931147687, 876.0989756702156, 873.9979116914168, 873.5285250578553, 875.3166646142798, 875.5848855477435, 874.9366849585397, 873.7520425024084, 873.8190977357743, 874.377891347157, 875.1602024030927, 876.7918797483302, 875.4954785699223, 873.6402837801319, 875.0484436808161, 874.60140879171, 874.7802227473525, 874.4449465805229, 871.5392198013329, 872.5674000462772, 873.8190977357743, 874.4225948360676, 874.8249262362631, 873.8190977357743, 873.3497111022128, 873.863801224685, 874.3331878582463, 872.0309581793498, 871.6062750346989, 873.7296907579531, 874.1096704136933, 874.1320221581486, 874.1320221581486, 872.2991791128135, 873.0814901687492, 874.7802227473525, 875.6072372921989, 872.9250279575621, 871.0698331677715, 872.4779930684559, 874.1096704136933, 873.0144349353833, 872.0086064348944, 871.0474814233162, 872.6791587685536, 873.2379523799364, 872.7238622574642, 872.5450483018218, 869.6616732670872, 869.3711005891682, 872.0309581793498, 870.1981151340145, 869.4828593114447, 870.1310599006487, 871.5839232902435, 873.3050076133022, 872.9026762131067, 870.958074445495, 868.2982168553135, 868.5217342998666, 872.2321238794475, 871.9639029459838, 872.0756616682604, 869.3263971002576, 867.9182371995732, 868.9464174445174, 870.0193011783721, 870.1087081561933, 870.3098738562911, 870.086356411738, 871.0027779344056, 869.7734319893638, 870.1310599006487, 872.4332895795453, 875.0484436808161, 876.0766239257604, 873.9085047135956, 872.2321238794475, 873.3720628466682, 874.5343535583442, 873.0367866798385, 871.9862546904392, 870.6898535120313, 869.7287285004531, 871.1592401455928, 872.7462140019196, 871.896847712618, 871.4945163124223, 872.8579727241961, 874.9590367029949, 875.249609380914, 872.5674000462772, 869.9969494339168, 870.2204668784699, 872.8579727241961, 872.5897517907324, 872.5226965573665, 871.7403855014308, 872.2321238794475, 874.9813884474503, 875.7189960144754, 875.1154989141821, 873.1932488910257, 873.9308564580508, 873.3720628466682, 872.0309581793498, 870.2875221118358, 868.2535133664029, 869.5722662892659, 871.0698331677715, 870.5780947897548, 872.2544756239029, 871.3157023567799, 870.6227982786654, 872.9697314464727, 874.5120018138888, 871.4498128235117, 870.3322256007464, 869.862838967185, 874.0426151803274, 878.669426282576, 878.669426282576, 877.3730251041682, 875.4954785699223, 876.1436791591262, 877.2389146374363, 877.4624320819894, 876.3895483481347, 874.4672983249782, 874.9366849585397, 877.0377489373385, 875.3166646142798, 874.6237605361654, 876.0766239257604, 876.5460105593218, 877.8200599932743, 876.702472770509, 875.6966442700201, 874.7578710028972, 876.8142314927854, 878.4682605824781, 875.7189960144754, 873.1708971465704, 872.5226965573665, 873.6626355245871, 876.1436791591262, 873.3944145911235, 872.2321238794475, 873.5732285467659, 874.8249262362631, 875.6519407811095, 874.9143332140843, 875.0037401919055, 875.3613681031904, 877.6188942931765, 879.2282198939586, 879.5858478052435, 880.0999379277156, 879.1164611716821, 881.2845803838469, 883.0056647069055, 881.1281181726597, 879.2282198939586, 877.3506733597128, 879.8317169942519, 880.4799175834559, 878.9599989604949, 877.3283216152576, 877.216562892981, 878.4906123269335, 881.5304495728552, 882.2680571398804, 882.1562984176038, 882.7821472623524, 882.9162577290842, 883.475051340467, 880.7704902613748, 878.0659291822826, 878.669426282576, 879.0717576827715, 879.6305512941541, 878.669426282576, 876.0989756702156, 874.668464025076, 872.9697314464727, 871.1145366566822, 871.4721645679671, 869.3263971002576, 868.4993825554112, 872.2321238794475, 872.7909174908302, 869.7510802449084, 867.4041470771011, 866.6665395100761, 868.5664377887772, 868.3876238331347, 868.4323273220454, 868.5217342998666, 868.5440860443218, 868.4323273220454, 871.9191994570732, 871.4498128235117, 868.9464174445174, 867.605312777199, 870.3545773452017, 869.5722662892659, 868.0076441773945, 866.4877255544336, 867.4264988215565, 866.0406906653275, 868.7228999999643, 869.7510802449084, 867.8735337106626, 867.1806296325481, 870.5780947897548, 871.7403855014308, 870.3098738562911, 868.5217342998666, 868.6111412776878, 870.3098738562911, 871.0027779344056, 868.0970511552157, 868.4323273220454, 866.8677052101738, 867.7841267328414, 870.3992808341123, 868.7676034888749, 869.3263971002576, 868.3429203442241, 870.2204668784699, 871.2933506123246, 869.9969494339168, 869.4605075669895, 869.6840250115425, 870.443984323023, 871.6509785236095, 871.9862546904392, 871.3827575901458, 870.1087081561933, 872.4556413240006, 874.3108361137911, 874.2884843693357, 873.3497111022128, 873.9085047135956, 873.796745991319, 874.377891347157, 871.4721645679671, 869.9075424560956, 870.2204668784699, 871.0027779344056, 869.2369901224364, 869.5052110559001, 872.0309581793498, 871.8521442237073, 873.5285250578553, 874.8919814696291, 875.249609380914, 871.5168680568777, 871.7850889903414, 874.2661326248805, 874.6908157695312, 874.2661326248805, 873.9755599469614, 873.5508768023107, 874.3108361137911, 874.6908157695312, 874.8472779807184, 872.9026762131067, 873.9755599469614, 874.9143332140843, 875.3166646142798, 875.9201617145732, 874.9366849585397, 874.5790570472548, 876.2107343924922, 875.8084029922967, 875.9201617145732, 874.1990773915145, 872.4556413240006, 872.701510513009, 873.0144349353833, 872.7909174908302, 871.181591890048, 871.4721645679671, 874.2437808804251, 873.2603041243916, 872.7909174908302, 872.8132692352855, 871.896847712618, 874.8696297251737, 876.7248245149642, 874.5343535583442, 873.3497111022128, 874.7802227473525, 876.4566035815005, 878.2894466268357, 877.1495076596151, 875.6072372921989, 877.1495076596151, 876.7248245149642, 876.9706937039726, 877.1271559151597, 874.60140879171, 873.5285250578553, 874.5790570472548, 873.6179320356765, 874.1320221581486, 871.0251296788609, 870.4886878119336, 873.3720628466682, 875.2272576364586, 873.1038419132045, 871.0474814233162, 870.1757633895593, 872.41093783509, 873.9755599469614, 873.5732285467659, 872.9697314464727, 871.3157023567799, 873.0144349353833, 873.0814901687492, 873.0144349353833, 871.896847712618, 873.7296907579531, 875.2049058920034, 875.9201617145732, 876.054272181305, 873.1932488910257, 873.9308564580508, 874.4672983249782, 876.3001413703134, 874.8249262362631, 873.2603041243916, 873.5955802912213, 873.5285250578553, 874.5343535583442, 875.5401820588329, 874.8025744918078, 873.1038419132045, 874.1990773915145, 874.4002430916123, 874.5343535583442, 873.5508768023107, 873.1261936576598, 873.7743942468637, 874.5343535583442, 873.4614698244894, 873.9308564580508, 875.3166646142798, 875.3166646142798, 876.5460105593218, 876.9706937039726, 874.9590367029949, 872.634455279643, 871.9639029459838, 874.0426151803274, 876.3895483481347, 874.9813884474503, 874.4225948360676, 875.3837198476458, 875.2719611253692, 874.8249262362631, 874.9366849585397, 874.087318669238, 874.9813884474503, 874.5343535583442, 872.634455279643, 871.6062750346989, 871.3827575901458, 873.1261936576598, 875.3390163587352, 874.60140879171, 872.9250279575621, 871.0698331677715, 871.0251296788609, 873.0144349353833, 872.0756616682604, 870.5557430452994, 871.2709988678693, 870.8463157232185, 871.5392198013329, 872.5226965573665, 869.4158040780788, 868.7899552333303, 870.4216325785676, 872.2321238794475, 872.9697314464727, 871.5839232902435, 871.8521442237073, 872.0756616682604, 874.9366849585397, 874.9143332140843, 872.8579727241961, 873.3944145911235, 874.7578710028972, 877.1048041707045, 877.9988739489168, 876.702472770509, 875.7636995033861, 876.4119000925899, 876.121327414671, 874.2437808804251, 873.863801224685, 872.6791587685536, 870.3098738562911, 869.2369901224364, 870.4663360674782, 871.6956820125201, 872.41093783509, 873.6849872690425, 872.5674000462772, 872.5226965573665, 870.443984323023, 871.181591890048, 873.9979116914168, 874.7578710028972, 874.1543739026039, 872.8579727241961, 871.5168680568777, 873.5732285467659, 874.4225948360676, 872.3885860906347, 871.4498128235117, 872.7685657463749, 874.1990773915145, 876.0319204368498, 874.4225948360676, 873.1485454021151, 873.2603041243916, 873.6402837801319, 874.9366849585397, 872.7462140019196, 872.1874203905369, 872.5674000462772, 875.5848855477435, 874.8249262362631, 874.087318669238, 873.9308564580508, 873.3944145911235, 875.0260919363609, 876.5013070704111, 875.3613681031904, 873.7743942468637, 873.1485454021151, 874.6908157695312, 875.4954785699223, 874.1320221581486, 873.2603041243916, 873.0591384242939, 876.0319204368498, 876.6130657926877, 876.5236588148665, 876.925990215062, 874.2437808804251, 875.5848855477435, 877.9541704600061, 877.4624320819894, 874.8696297251737, 873.863801224685, 874.2661326248805, 876.4789553259559, 875.6966442700201, 875.9201617145732, 875.3613681031904, 875.9201617145732, 878.021225693372, 878.8705919826737, 876.3895483481347, 876.1660309035816, 877.5741908042659, 878.9376472160396, 879.9658274609837, 877.6635977820871, 879.3846821051458, 881.5304495728552, 882.245705395425, 880.5693245612771, 878.3341501157463, 879.0494059383161, 879.0941094272267, 879.3399786162352, 877.9094669710955, 875.8531064812073, 874.9143332140843, 875.473126825467, 877.9318187155508, 876.6801210260536, 874.1990773915145, 874.1767256470592, 873.282655868847, 875.5178303143776, 873.3273593577576, 872.5897517907324, 872.7685657463749, 872.3215308572687, 873.796745991319, 873.4838215689447, 871.8074407347967, 872.4779930684559, 874.4225948360676, 876.7248245149642, 875.8754582256626, 873.3497111022128, 871.8521442237073, 874.1320221581486, 874.1320221581486, 872.7462140019196, 872.3662343461793, 872.5674000462772, 872.7685657463749, 874.8472779807184, 875.1154989141821, 872.4779930684559, 873.3050076133022, 873.4614698244894, 873.1485454021151, 875.473126825467, 873.1261936576598, 870.7122052564866, 872.3215308572687, 875.2049058920034, 873.7073390134977, 871.0474814233162, 871.7180337569754, 873.282655868847, 875.8307547367519, 874.5567053027994, 872.9473797020173, 872.4556413240006, 872.5674000462772, 872.2991791128135, 871.4498128235117, 869.5275628003553, 869.3487488447129, 871.5839232902435, 872.9473797020173, 872.8132692352855, 871.0474814233162, 870.1087081561933, 870.0193011783721, 872.4332895795453, 871.6956820125201, 868.4546790665006, 868.7676034888749, 870.667501767576, 872.1427169016263, 873.4167663355788, 872.1650686460816, 871.0921849122268, 872.5226965573665, 873.6849872690425, 872.5674000462772, 871.181591890048, 872.2321238794475, 870.8016122343079, 872.41093783509, 873.6402837801319, 871.2933506123246, 870.2428186229251, 871.6062750346989, 873.3050076133022, 874.9590367029949, 873.0814901687492, 870.3545773452017, 872.4332895795453, 873.4614698244894, 872.4556413240006, 871.5168680568777, 871.0921849122268, 871.1368884011374, 873.1932488910257, 876.0319204368498, 873.1261936576598, 872.4779930684559, 874.4225948360676, 875.6295890366541, 874.4672983249782, 872.7909174908302, 871.9415512015286, 871.6733302680648, 874.3331878582463, 873.863801224685, 871.2262953789586, 872.7462140019196, 873.3944145911235, 874.8025744918078, 873.5732285467659, 873.3720628466682, 872.2768273683581, 872.0309581793498, 872.3438826017241, 872.0086064348944], [-5467.3931559792945, -5469.717737402647, -5472.757574648568, -5477.540847962004, -5472.399946737283, -5466.946121090188, -5470.008310080566, -5473.137554304309, -5472.578760692926, -5472.154077548275, -5471.46117347016, -5469.203647280175, -5470.768269392046, -5475.193914794197, -5475.9091706167665, -5470.8576763698675, -5472.377594992829, -5474.880990371823, -5475.0821560719205, -5475.640949683303, -5471.304711258974, -5472.489353715105, -5473.741051404602, -5476.982054350621, -5474.9703973496435, -5472.13172580382, -5471.841153125901, -5474.255141527074, -5475.9091706167665, -5475.775060150035, -5475.596246194393, -5475.663301427759, -5473.361071748862, -5476.155039805775, -5478.233752040119, -5475.529190961027, -5476.6691299282475, -5475.193914794197, -5478.479621229127, -5474.70217641618, -5473.696347915691, -5477.98788285111, -5481.206534052674, -5479.664263685258, -5478.904304373777, -5477.317330517451, -5476.937350861711, -5481.050071841487, -5481.564161963959, -5478.032586340021, -5474.948045605189, -5479.328987518428, -5478.814897395957, -5479.3066357739735, -5481.564161963959, -5475.663301427759, -5472.399946737283, -5478.5466764624925, -5483.1287840758305, -5478.345510762395, -5474.925693860733, -5476.870295628345, -5477.563199706459, -5481.251237541585, -5483.575818964937, -5476.356205505873, -5476.490315972605, -5478.457269484672, -5479.641911940803, -5477.876124128834, -5477.22792353963, -5480.066595085454, -5477.965531106655, -5481.921789875244, -5483.933446876222, -5477.563199706459, -5475.708004916669, -5482.0111968530655, -5487.241505055607, -5477.831420639923, -5473.249313026585, -5477.674958428736, -5483.441708498205, -5483.978150365133, -5480.960664863666, -5477.60790319537, -5478.278455529029, -5480.066595085454, -5482.234714297619, -5481.541810219504, -5474.255141527074, -5474.299845015985, -5480.044243340998, -5483.933446876222, -5482.033548597521, -5473.629292682325, -5473.495182215594, -5478.70313867368, -5481.787679408512, -5479.79837415199, -5475.752708405579, -5475.037452583009, -5478.032586340021, -5481.340644519406, -5483.374653264839, -5476.17739155023, -5472.355243248373, -5477.451440984183, -5480.111298574365, -5478.770193907046, -5479.999539852088, -5480.759499163568, -5478.70313867368, -5481.407699752772, -5486.503897488582, -5477.205571795174, -5474.0316240825205, -5475.9091706167665, -5479.284284029518, -5481.407699752772, -5479.396042751795, -5479.619560196347, -5483.911095131766, -5485.699234688192, -5481.027720097032, -5480.2454090410965, -5478.32315901794, -5477.116164817353, -5481.005368352577, -5483.687577687214, -5479.3066357739735, -5475.708004916669, -5481.094775330398, -5485.498068988093, -5483.978150365133, -5476.870295628345, -5474.009272338066, -5480.178353807731, -5482.793507909001, -5483.262894542563, -5481.407699752772, -5482.4805834866265, -5487.04033935551, -5484.089909087409, -5480.4242229967385, -5479.0160630960545, -5478.949007862689, -5484.134612576319, -5486.168621321753, -5487.912057389267, -5479.910132874266, -5481.742975919602, -5485.60982771037, -5484.201667809685, -5484.134612576319, -5482.3017695309845, -5479.574856707437, -5481.765327664057, -5487.442670755705, -5487.621484711348, -5484.671054443247, -5484.1793160652305, -5483.03937709801, -5484.045205598499, -5487.397967266795, -5483.307598031473, -5479.4854497296155, -5479.127821818331, -5484.939275376711, -5485.833345154923, -5480.267760785551, -5480.983016608121, -5486.36978702185, -5483.2405427981075, -5479.127821818331, -5483.307598031473, -5484.872220143345, -5485.833345154923, -5486.101566088387, -5484.380481765328, -5482.502935231082, -5482.882914886823, -5481.050071841487, -5480.334816018917, -5486.034510855021, -5484.425185254238, -5482.078252086431, -5485.721586432646, -5489.275513801041, -5487.196801566697, -5482.212362553163, -5479.105470073876, -5482.033548597521, -5484.268723043051, -5484.246371298596, -5484.022853854043, -5482.145307319797, -5480.826554396935, -5480.625388696836, -5479.932484618722, -5480.334816018917, -5478.233752040119, -5474.590417693904, -5478.233752040119, -5472.198781037186, -5467.974301335133, -5463.436897210705, -5461.55935067646, -5459.74885937558, -5490.214287068163, -5484.760461421069, -5488.046167855999, -5494.595228981403, -5498.886763916822, -5500.607848239881, -5491.555391735482, -5491.376577779839, -5499.512612761571, -5505.5475837645035, -5507.492185532115, -5511.023761156054, -5517.639877514825, -5525.172415396263, -5534.895424234322, -5535.47656959016, -5536.840026001933, -5542.718534793679, -5546.607738328903, -5549.200540685719, -5546.294813906528, -5542.249148160118, -5546.898311006822, -5550.876921519866, -5556.9118925227995, -5549.468761619182, -5543.657308060802, -5542.874997004867, -5546.741848795635, -5549.200540685719, -5548.150008696319, -5544.305508650006, -5543.456142360705, -5547.2782906625625, -5549.245244174629, -5546.3395173954395, -5544.216101672185, -5547.8594360184, -5550.608700586403, -5551.1004389644195, -5546.495979606626, -5544.931357494755, -5543.836122016445, -5546.406572628805, -5551.949805253721, -5546.898311006822, -5544.149046438819, -5548.418229629783, -5549.647575574824, -5545.400744128317, -5542.42796211576, -5540.371601625872, -5544.19374992773, -5549.401706385816, -5550.76516279759, -5549.580520341458, -5548.507636607604, -5547.4571046182045, -5553.425020387772, -5555.570787855481, -5547.837084273945, -5545.736020295146, -5545.490151106138, -5548.5746918409695, -5550.899273264322, -5546.943014495732, -5544.327860394462, -5549.692279063735, -5553.603834343414, -5553.067392476487, -5550.474590119671, -5548.127656951864, -5552.128619209364, -5556.889540778344, -5559.817619301989, -5555.459029133204, -5555.660194833302, -5563.10332573692, -5560.0187850020875, -5558.454162890215, -5553.715593065691, -5553.2685581765845, -5554.76612505509, -5558.7894390570455, -5559.795267557534, -5551.659232575802, -5550.116962208386, -5553.067392476487, -5556.330747166961, -5560.868151291389, -5562.231607703163, -5560.421116402283, -5557.761258812101, -5560.465819891193, -5562.723346081179, -5560.331709424461, -5555.7943053000345, -5557.224816945174, -5560.264654191095, -5563.215084459196, -5556.844837289434, -5553.223854687674, -5557.537741367548, -5558.677680334768, -5562.499828636626, -5558.185941956752, -5553.380316898861, -5556.308395422506, -5560.666985591291, -5562.2539594476175, -5553.782648299057, -5554.564959354992, -5556.62131984488, -5555.3249186664725, -5558.3200524234835, -5561.471648391682, -5557.8506657899225, -5557.269520434084, -5558.1412384678415, -5560.063488490998, -5559.035308246053, -5551.949805253721, -5555.302566922017, -5561.270482691584, -5560.130543724364, -5555.235511688651, -5553.045040732031, -5554.341441910439, -5559.504694879615, -5560.063488490998, -5556.934244267255, -5555.43667738875, -5559.348232668428, -5562.410421658805, -5564.779706571067, -5563.997395515132, -5563.639767603847, -5563.080973992464, -5564.667947848791, -5568.1771717282745, -5564.019747259587, -5561.024613502576, -5559.571750112981, -5560.801096058023, -5563.550360626025, -5561.248130947129, -5560.130543724364, -5560.912854780299, -5562.991567014643, -5568.847724061933, -5565.271444949084, -5566.813715316501, -5564.064450748498, -5562.321014680983, -5566.880770549867, -5565.696128093735, -5560.130543724364, -5560.465819891193, -5562.946863525733, -5564.667947848791, -5558.543569868037, -5559.571750112981, -5562.723346081179, -5561.158723969308, -5563.885636792856, -5563.058622248009, -5561.873979791878, -5562.522180381082, -5560.443468146738, -5559.996433257632, -5558.297700679029, -5558.00712800111, -5557.29187217854, -5557.470686134182, -5563.282139692562, -5561.650462347325, -5559.638805346347, -5558.990604757143, -5560.823447802478, -5566.1878664717515, -5560.756392569112, -5555.771953555579, -5554.76612505509, -5557.761258812101, -5560.4881716356485, -5559.839971046445, -5559.683508835257, -5558.431811145761, -5558.00712800111, -5559.459991390704, -5558.744735568134, -5553.2685581765845, -5554.676718077269, -5559.951729768722, -5556.57661635597, -5557.560093112003, -5557.023651245076, -5559.348232668428, -5561.4269449027715, -5562.76804957009, -5559.52704662407, -5555.704898322213, -5559.459991390704, -5560.778744313568, -5558.387107656849, -5554.542607610537, -5551.2121976866965, -5554.609662843903, -5557.2024652007185, -5557.493037878638, -5556.330747166961, -5553.514427365592, -5556.420154144783, -5560.152895468819, -5561.225779202674, -5557.001299500621, -5552.866226776388, -5552.866226776388, -5558.409459401305, -5560.801096058023, -5559.281177435062, -5557.135409967353, -5555.391973899838, -5557.67185183428, -5559.191770457241, -5561.382241413861, -5557.783610556557, -5557.582444856459, -5565.159686226808, -5563.773878070579, -5558.565921612492, -5557.895369278833, -5559.705860579713, -5560.1975989577295, -5562.835104803456, -5565.3608519269055, -5560.130543724364, -5557.358927411906, -5562.566883869992, -5567.551322883525, -5564.377375170872, -5556.330747166961, -5559.035308246053, -5563.550360626025, -5564.1315059818635, -5556.151933211319, -5548.686450563247, -5549.088781963442, -5550.966328497688, -5548.619395329881, -5537.734095780146, -5527.809921241989, -5526.424113085761, -5522.691371761724, -5514.018894913065, -5503.044188385509, -5495.556353992982, -5491.868316157856, -5491.331874290929, -5492.002426624587, -5480.51362997456, -5474.590417693904, -5479.217228796152, -5478.971359607143, -5480.46892648565, -5478.747842162591, -5476.758536906068, -5479.373691007339, -5481.742975919602, -5483.75463292058, -5483.352301520384, -5484.402833509784, -5483.1287840758305, -5484.246371298596, -5484.045205598499, -5480.848906141389, -5479.910132874266, -5480.46892648565, -5486.593304466403, -5484.760461421069, -5481.854734641878, -5478.680786929225, -5482.100603830887, -5484.939275376711, -5489.811955667968, -5485.207496310174, -5484.872220143345, -5483.03937709801, -5482.391176508806, -5486.816821910957, -5484.380481765328, -5481.094775330398, -5483.642874198303, -5489.744900434602, -5489.275513801041, -5489.387272523317, -5482.190010808708, -5480.044243340998, -5486.548600977493, -5491.153060335286, -5487.599132966892, -5484.022853854043, -5481.653568941781, -5481.094775330398, -5488.537906234015, -5485.498068988093, -5479.552504962981, -5480.111298574365, -5484.246371298596, -5488.8955341453, -5485.162792821264, -5479.08311832942, -5481.675920686236, -5488.828478911934, -5484.715757932157, -5482.32412127544, -5482.078252086431, -5483.464060242661, -5487.465022500161, -5488.694368445203, -5486.772118422046, -5483.531115476027, -5483.03937709801, -5489.834307412423, -5493.120013847353, -5486.079214343931, -5480.804202652479, -5482.0111968530655, -5485.498068988093, -5487.956760878177, -5485.22984805463, -5485.65453119928, -5487.0626910999645, -5488.850830656389, -5487.777946922534, -5488.224981811641, -5486.548600977493, -5485.922752132744, -5484.738109676613, -5489.342569034407, -5489.409624267772, -5487.219153311152, -5485.788641666012, -5485.431013754727, -5485.207496310174, -5483.03937709801, -5484.380481765328, -5481.452403241683, -5479.686615429713, -5484.089909087409, -5485.721586432646, -5482.547638719993, -5480.781850908023, -5486.459193999672, -5494.550525492493, -5489.901362645789, -5483.08408058692, -5484.671054443247, -5485.498068988093, -5484.715757932157, -5486.928580633233, -5484.425185254238, -5485.699234688192, -5490.482508001627, -5491.980074880133, -5488.917885889756, -5487.397967266795, -5487.912057389267, -5491.689502202214, -5488.157926578275, -5485.810993410468, -5477.451440984183, -5476.55737120597, -5478.814897395957, -5479.396042751795, -5475.596246194393, -5465.448554211683, -5461.738164632102, -5465.582664678414, -5469.337757746906, -5461.089964042898, -5453.020984294532, -5454.384440706306, -5459.994728564588, -5459.592397164392, -5458.787734364001, -5457.156057018764, -5454.518551173038, -5456.329042473918, -5459.100658786376, -5455.189103506697, -5447.589510391893, -5448.684745870202, -5455.636138395803, -5456.932539574211, -5454.607958150859, -5452.171618005231, -5450.584644148904, -5452.842170338889, -5459.570045419937, -5457.089001785398, -5449.578815648415, -5452.842170338889, -5455.837304095901, -5457.156057018764, -5453.535074417005, -5451.635176138303, -5453.17744650572, -5451.702231371669, -5454.809123850957, -5453.579777905915, -5450.942272060189, -5452.082211027409, -5457.983071563611, -5456.038469795999, -5456.910187829756, -5451.881045327312, -5451.635176138303, -5455.211455251152, -5458.743030875091, -5453.356260461362, -5451.009327293555, -5448.438876681194, -5450.718754615636, -5452.730411616613, -5455.434972695705, -5453.579777905915, -5450.070554026432, -5453.803295350468, -5455.725545373624, -5452.596301149882, -5453.311556972451, -5453.691536628192, -5455.03264129551, -5455.323213973429, -5452.618652894336, -5450.495237171082, -5449.400001692772, -5454.809123850957, -5461.1123157873535, -5458.9889000641, -5451.0763825269205, -5449.556463903959, -5454.205626750663, -5459.011251808554, -5455.41262095125, -5450.338774959895, -5453.915054072744, -5453.557426161459, -5453.378612205817, -5456.396097707284, -5454.853827339867, -5453.110391272354, -5451.858693582856, -5454.1832750062085, -5455.569083162437, -5450.405830193261, -5450.964623804644, -5458.720679130635, -5459.480638442116, -5454.809123850957, -5452.886873827801, -5452.529245916516, -5457.312519229951, -5458.497161686082, -5457.670147141236, -5452.328080216418, -5454.0715162839315, -5456.552559918471, -5459.167714019742, -5457.468981441139, -5455.0102895510545, -5453.17744650572, -5457.379574463317, -5457.424277952227, -5454.876179084323, -5454.920882573233, -5456.574911662926, -5456.641966896292, -5458.9889000641, -5459.502990186571, -5457.22311225213, -5454.406792450762, -5457.379574463317, -5461.402888465273, -5462.565179176949, -5459.0559552974655, -5455.904359329267, -5459.257120997563, -5462.922807088234, -5460.106487286865, -5457.871312841334, -5457.468981441139, -5456.999594807577, -5460.262949498052, -5459.458286697661, -5456.016118051543, -5457.3572227188615, -5466.253217012074, -5462.788696621501, -5457.759554119058, -5457.714850630146, -5463.03456581051, -5466.32027224544, -5462.632234410315, -5460.441763453694, -5455.502027929071, -5454.69736512868, -5461.179371020719, -5465.359147233862, -5461.134667531809, -5458.27364424153, -5457.647795396781, -5460.486466942605, -5463.369841977339, -5460.84409485389, -5458.206589008163, -5457.893664585789, -5460.575873920426, -5462.431068710216, -5461.782868121013, -5458.564216919448, -5456.977243063122, -5462.2299030101185, -5465.001519322577, -5467.2143420236525, -5458.877141341823, -5456.1278767738195, -5459.458286697661, -5468.823667624434, -5516.030551914043, -5520.612659527381, -5471.930560103722, -5474.568065949448, -5517.930450192744, -5537.085895190942, -5538.449351602716, -5538.672869047269, -5539.231662658652, -5544.9090057503, -5540.304546392506]]
[[971.3844622831897, 964.053090101849, 908.0396184968495, 902.2281649384696, 962.9802063679941, 970.4456890160667, 971.5856279832874, 971.4291657721003, 971.3174070498237, 972.2561803169466, 972.4126425281338, 969.5292674933992, 928.6702786290979, 908.8219295527852, 964.1872005685808, 970.7362616939857, 969.9092471491393, 970.4009855271561, 970.8703721607176, 972.0550146168489, 971.6750349611086, 968.7693081819187, 969.596322726765, 970.1998198270584, 971.0268343719047, 971.1609448386365, 968.1434593371702, 922.0988657592376, 905.2456504399361, 962.4437645010668, 970.8033169273516, 970.5127442494327, 969.0375291153824, 970.5574477383433, 971.1832965830919, 971.5856279832874, 966.6905959475752, 920.1319122471706, 904.5303946173663, 964.7459941799634, 972.278532061402, 971.7644419389298, 971.5856279832874, 972.3902907836784, 972.7255669505081, 971.0715378608153, 968.6351977151869, 941.6342904131759, 908.8666330416958, 964.5895319687763, 973.1502500951589, 970.4680407605221, 971.1609448386365, 972.3455872947678, 973.1726018396142, 971.9656076390277, 969.2610465599355, 922.858825070718, 902.8540137832182, 963.7178139350193, 972.6585117171421, 971.7197384500192, 969.6857297045863, 971.0938896052706, 973.0608431173376, 970.982130882994, 968.6351977151869, 928.3350024622682, 903.2339934389584, 963.2707790459132, 974.1113751067371, 972.0326628723935, 969.9092471491393, 970.4903925049773, 972.7032152060527, 973.1055466062483, 971.8314971722958, 970.8703721607176, 972.1220698502148, 974.1560785956477, 970.8033169273516, 967.9199418926171, 924.1105227602152, 902.183461449559, 963.3825377681898, 973.7313954509968, 972.1444215946701, 971.8538489167511, 973.9549128955499, 974.6478169736645, 972.7702704394187, 969.9315988935947, 931.5313019193771, 903.9939527504389, 962.8684476457177, 972.1891250835807, 971.1609448386365, 971.697386705564, 973.6866919620862, 974.0666716178265, 973.7090437065416, 973.7537471954522, 973.1502500951589, 974.6031134847539, 974.7148722070303, 973.887857662184, 969.5516192378544, 920.2883744583577, 898.9648102479947, 961.0579563448377, 970.5797994827985, 970.4233372716114, 970.0657093603265, 969.3951570266673, 971.2950553053685, 970.4009855271561, 966.9811686254941, 925.3175169608018, 902.0717027272824, 961.3261772783014, 969.4845640044886, 969.4622122600332, 968.7469564374634, 970.4680407605221, 971.5856279832874, 971.2727035609131, 970.0210058714159, 969.1045843487483, 970.4009855271561, 971.9879593834829, 971.1385930941813, 969.0598808598377, 934.4146769541118, 903.5469178613326, 962.4214127566115, 972.8373256727846, 974.469003018022, 973.4631745175332, 973.5302297508991, 973.9325611510947, 974.245485573469, 971.3174070498237, 931.017211796905, 901.8258335382741, 960.8344389002847, 969.9092471491393, 970.1327645936924, 970.6245029717091, 971.0044826274494, 972.502049505955, 971.1162413497259, 969.1492878376589, 930.4807699299777, 898.3613131477015, 958.9121888771283, 971.7420901944746, 970.1551163381478, 969.9315988935947, 970.9374273940834, 972.0103111279383, 971.3621105387343, 969.0375291153824, 924.8704820716956, 899.1659759480925, 962.2873022898797, 973.664340217631, 972.2561803169466, 973.0608431173376, 973.4855262619885, 974.7819274403963, 972.9714361395164, 970.4903925049773, 931.9336333195727, 899.4789003704668, 959.8733138887065, 972.8820291616952, 971.6526832166534, 970.4903925049773, 971.8538489167511, 975.2289623295025, 974.0666716178265, 972.6138082282315, 938.2591770004245, 907.5478801188326, 965.9976918694606, 974.1113751067371, 971.920904150117, 970.9150756496282, 970.6915582050751, 972.0550146168489, 973.1055466062483, 972.0550146168489, 971.4962210054662, 972.1444215946701, 971.4962210054662, 972.7702704394187, 970.5350959938879, 926.3009937168353, 892.2592869114027, 953.5477702078546, 972.3902907836784, 971.9432558945723, 969.6857297045863, 971.0268343719047, 973.0608431173376, 971.6079797277428, 969.1045843487483, 934.7499531209413, 894.5838683347546, 956.341738264768, 972.6808634615975, 969.8198401713181, 970.9150756496282, 972.6138082282315, 972.8149739283293, 973.4855262619885, 971.4068140276449, 971.4068140276449, 972.1667733391254, 974.2901890623796, 972.8149739283293, 971.2727035609131, 946.7975433823518, 900.7753015488746, 955.5147237199217, 972.7032152060527, 970.4903925049773, 969.0375291153824, 971.6079797277428, 972.3455872947678, 971.4291657721003, 970.4456890160667, 941.6789939020865, 901.311743415802, 959.2251132995026, 974.4466512735667, 973.2843605618907, 972.0997181057595, 973.8431541732734, 974.9607413960388, 974.8266309293069, 974.0219681289159, 945.7693631374077, 900.79765329333, 960.1638865666255, 976.8159361858293, 974.2678373179242, 974.401947784656, 975.2960175628684, 973.7984506843628, 974.8489826737622, 972.8149739283293, 973.7313954509968, 974.9383896515834, 976.9723983970164, 976.7488809524633, 974.4466512735667, 940.0696683013044, 898.9871619924501, 958.8004301548517, 974.6031134847539, 973.3737675397119, 973.5749332398098, 973.887857662184, 974.2007820845583, 973.1055466062483, 969.596322726765, 937.1862932665698, 892.8404322672407, 951.1561335511367, 969.1716395821143, 968.2328663149914, 968.0540523593489, 969.4622122600332, 971.7867936833852, 970.6021512272539, 968.6351977151869, 942.5283601913882, 896.2602491689026, 953.145438807659, 972.3902907836784, 895.7238073019753, 946.3281567487904, 972.9490843950612, 971.2727035609131, 970.0210058714159, 970.3115785493349, 972.6138082282315, 973.597284984265, 970.2668750604242, 972.2338285724913, 972.502049505955, 973.9549128955499, 974.3795960402008, 972.9267326506058, 953.503066718944, 900.7529498044194, 951.6255201846982, 975.4524797740555, 973.9102094066393, 975.631293729698, 976.1677355966253, 975.4524797740555, 974.6701687181197, 973.9102094066393, 948.4515724720446, 895.2097171795032, 947.5575026938324, 974.1560785956477, 971.5856279832874, 971.0715378608153, 971.4738692610109, 972.6361599726869, 973.5078780064438, 973.4184710286225, 961.3038255338462, 907.3243626742795, 948.8762556166954, 977.4864885194885, 976.2571425744466, 975.1172036072259, 976.503011763455, 977.307674563846, 974.0666716178265, 973.3961192841673, 949.0774213167932, 893.2651154118914, 948.2504067719468, 980.0792908763041, 978.4252617866114, 975.1842588405918, 975.4301280296003, 976.2347908299913, 973.2843605618907, 972.434994272589, 957.727546420997, 902.2505166829249, 946.66343291562, 973.8208024288181, 974.4466512735667, 972.8820291616952, 972.8373256727846, 974.5360582513879, 974.9607413960388, 974.7148722070303, 973.9549128955499, 975.1842588405918, 975.4971832629661, 976.0112733854382, 973.9325611510947, 948.8539038722402, 896.8413945247406, 948.4962759609552, 975.2736658184131, 973.1055466062483, 972.1444215946701, 972.0550146168489, 973.4408227730779, 972.434994272589, 971.9879593834829, 955.4700202310111, 899.2106794370031, 944.9647003370167, 975.0054448849494, 974.7819274403963, 972.3679390392232, 973.6196367287204, 977.598247241765, 977.4864885194885, 974.6254652292091, 953.5254184633993, 896.8860980136512, 943.3330229917792, 973.6196367287204, 973.1502500951589, 974.7819274403963, 976.3241978078125, 979.4534420315555, 979.4310902871002, 977.7547094529522, 978.1346891086923, 979.4087385426449, 979.9898838984828, 978.3805582977008, 976.0783286188041, 975.2736658184131, 976.1230321077147, 977.5758954973097, 976.1677355966253, 974.245485573469, 949.6362149281758, 892.6616183115982, 942.0366218133714, 975.0054448849494, 974.0443198733711, 974.3348925512902, 975.1842588405918, 977.084157119293, 976.6147704857315, 975.0725001183152, 958.1298778211925, 904.3292289172684, 949.1668282946144, 976.6371222301868, 976.5700669968209, 975.921866407617, 976.3912530411784, 977.6429507306756, 979.0958141202706, 977.4864885194885, 975.3854245406897, 977.6429507306756, 978.2240960865136, 977.9558751530499, 977.8441164307734, 951.5584649513323, 896.3049526578133, 942.0366218133714, 976.503011763455, 977.084157119293, 975.1842588405918, 973.7984506843628, 977.084157119293, 976.4583082745444, 974.245485573469, 957.3028632763462, 898.8977550146288, 943.5788921807876, 975.5642384963321, 975.340721051779, 976.6594739746421, 975.7430524519746, 978.7605379534409, 978.9170001646281, 978.8722966757175, 980.727491465508, 979.5652007538321, 980.436918787589, 981.6215612437203, 980.9733606545163, 964.0977935907596, 906.0503132403271, 949.5244562058994, 985.3766543122118, 984.3484740672677, 982.6050379997538, 983.8343839447957, 982.9403141665833, 983.1191281222258, 982.0462443883711, 967.2493895589578, 908.151377219126, 942.3271944912905, 978.9170001646281, 977.6205989862203, 973.9325611510947, 975.5418867518767, 977.4641367750331, 977.7547094529522, 977.6876542195862, 965.3941947691674, 909.6489440976316, 941.6566421576313, 978.0899856197817, 977.6429507306756, 976.9276949081058, 976.6371222301868, 979.1628693536364, 978.2017443420583, 976.9500466525611, 974.6478169736645, 974.5137065069326, 976.9500466525611, 978.5370205088878, 977.0618053748376, 965.5283052358992, 908.9113365306064, 940.5837584237765, 977.7323577084968, 977.9111716641393, 977.6429507306756, 976.1900873410807, 974.3348925512902, 974.7819274403963, 974.6031134847539, 957.9734156100054, 897.2884294138468, 935.8228368547962, 973.5525814953544, 975.05014837386, 972.3902907836784, 973.1502500951589, 976.4136047856338, 975.5642384963321, 973.6866919620862, 966.6235407142092, 916.4438744120449, 936.3369269772681, 972.1444215946701, 970.9374273940834, 970.1998198270584, 969.596322726765, 971.0268343719047, 970.5127442494327, 968.3446250372679, 961.1697150671143, 905.1115399732042, 930.1454937631481, 969.8198401713181, 972.0550146168489, 970.1998198270584, 974.6701687181197, 974.3348925512902, 974.3348925512902, 973.597284984265, 974.7372239514857, 973.7537471954522, 973.597284984265, 975.2513140739578, 973.3514157952567, 958.6663196881199, 898.4507201255227, 933.4982554314441, 975.0725001183152, 974.7819274403963, 974.759575695941, 974.4466512735667, 975.1619070961365, 975.0054448849494, 972.6361599726869, 971.3621105387343, 971.4738692610109, 972.9267326506058, 972.0326628723935, 971.04918611636, 957.0793458317931, 896.8860980136512, 928.245595484447, 969.7527849379522, 969.372805282212, 968.1658110816254, 970.177468082603, 971.0715378608153, 971.4068140276449, 971.8762006612064, 974.8713344182175, 976.5924187412762, 976.4806600189996, 975.2736658184131, 974.6701687181197, 952.9666248520166, 892.9745427339725, 935.5546159213325, 974.3795960402008, 975.0725001183152, 974.0666716178265, 975.6536454741533, 975.7654041964298, 977.3970815416673, 975.3183693073237, 965.0142151134271, 905.603278351221, 932.537130419866, 974.8936861626728, 974.0443198733711, 973.1055466062483, 973.7984506843628, 975.0725001183152, 975.2513140739578, 974.6031134847539, 958.2863400323797, 898.4060166366121, 931.2854327303687, 974.8042791848516, 976.3241978078125, 974.1560785956477, 974.0443198733711, 975.7207007075192, 979.6546077316533, 977.7323577084968, 976.2347908299913, 976.0336251298935, 976.7935844413739, 978.7828896978963, 976.4583082745444, 961.0579563448377, 899.8365282817517, 927.7762088508856, 973.4631745175332, 974.5137065069326, 974.8489826737622, 974.5137065069326, 976.212439085536, 977.8664681752286, 974.4466512735667, 964.5448284798657, 908.0172667523941, 932.2242059974917, 972.9267326506058, 974.401947784656, 974.8489826737622, 975.9889216409829, 977.5311920083991, 980.1686978541253, 980.436918787589, 978.984055397994, 979.0958141202706, 980.5263257654102, 982.0015408994605, 980.1686978541253, 976.4806600189996, 927.5750431507878, 933.699421131542, 977.2629710749354, 976.9723983970164, 975.6089419852427, 976.0559768743489, 976.5700669968209, 976.7935844413739, 975.0725001183152, 967.5176104924216, 913.4934441439443, 931.0619152858156, 972.0773663613041, 972.9267326506058, 971.2503518164577, 971.3844622831897, 972.9937878839718, 973.5302297508991, 973.7090437065416, 962.5555232233434, 904.7762638063746, 927.5079879174219, 973.9325611510947, 981.1968780990694, 983.275590333413, 984.1026048782594, 984.3484740672677, 984.3931775561783, 983.9014391781616, 983.3202938223236, 984.080253133804, 983.9014391781616, 984.951971167561, 982.8732589332175, 979.5428490093767, 981.7780234549074, 983.3873490556896, 982.2027065995583, 981.0627676323376, 969.9763023825053, 910.3641999202014, 931.1066187747263, 978.0005786419605, 982.4485757885666, 980.2581048319465, 981.822726943818, 984.3261223228125, 984.7731572119186, 981.5768577548097, 972.9490843950612, 920.1095605027152, 931.955985064028, 977.4641367750331, 977.5311920083991, 977.8441164307734, 978.2017443420583, 978.5370205088878, 979.5428490093767, 977.7100059640416, 976.3465495522678, 976.3018460633572, 977.0618053748376, 978.2464478309689, 975.1395553516812, 959.8062586553406, 897.7578160474081, 920.6236506251873, 969.9763023825053, 971.4291657721003, 971.5185727499215, 971.2727035609131, 973.9996163844605, 977.084157119293, 974.6478169736645, 968.8140116708294, 913.0911127437488, 920.8695198141957, 972.4796977614997, 975.0054448849494, 973.9996163844605, 972.7255669505081, 974.2231338290136, 976.212439085536, 976.4583082745444, 970.3339302937902, 916.7344470899639, 924.6022611382319, 974.8936861626728, 976.8382879302845, 976.6594739746421, 975.0725001183152, 977.8441164307734, 978.5593722533432, 978.8052414423515, 978.984055397994, 980.5263257654102, 981.5768577548097, 980.3922152986784, 980.8839536766951, 970.758613438441, 909.5818888642656, 927.3962291951453, 976.3465495522678, 979.922828665117, 980.7051397210527, 980.6380844876868, 981.3309885658012, 981.822726943818, 982.3144653218347, 982.2921135773795, 983.8343839447957, 984.8402124452845, 984.9296194231057, 983.9908461559828, 979.9898838984828, 935.666374643609, 929.3631827072123, 979.9675321540276, 984.6166950007314, 981.889782177184, 981.1745263546142, 981.822726943818, 983.2308868445024, 982.6497414886644, 982.3368170662901, 981.6662647326309, 982.0685961328264, 982.7615002109409, 981.5545060103543, 972.9043809061505, 914.6557348556203, 926.7703803503967, 978.3358548087901, 980.3922152986784, 980.3698635542231, 980.7498432099633, 983.0967763777705, 982.403872299656, 980.2804565764019], [-5525.932374707744, -5523.965421195677, -5527.318182863973, -5529.9109852207885, -5531.699124777213, -5532.213214899685, -5531.989697455132, -5530.737999765635, -5535.945956223722, -5536.460046346194, -5536.236528901641, -5534.649555045314, -5533.934299222744, -5539.432828358749, -5539.745752781124, -5535.342459123428, -5535.677735290258, -5536.415342857283, -5535.565976567981, -5541.466837104183, -5539.589290569937, -5537.2423574021295, -5538.8293312584565, -5539.0081452140985, -5539.0081452140985, -5538.874034747367, -5531.721476521669, -5536.147121923819, -5543.657308060802, -5541.690354548736, -5535.968307968176, -5535.431866101249, -5543.411438871794, -5544.618433072381, -5543.724363294168, -5541.153912681808, -5536.795322513023, -5535.47656959016, -5540.192787670229, -5546.5183313510815, -5546.183055184252, -5537.443523102227, -5538.583462069448, -5541.0645057039865, -5545.400744128317, -5545.825427272967, -5542.38325862685, -5540.259842903596, -5544.126694694364, -5547.568863340481, -5544.23845341664, -5544.774895283567, -5542.606776071403, -5540.52806383706, -5544.260805161096, -5543.81377027199, -5539.678697547758, -5541.131560937352, -5547.971194740677, -5551.346308153428, -5544.506674350104, -5542.1150376933865, -5542.696183049225, -5544.439619116738, -5545.177226683763, -5543.992584227632, -5538.337592880439, -5542.38325862685, -5550.876921519866, -5549.714630808191, -5543.076162704964, -5540.036325459043, -5544.618433072381, -5543.389087127339, -5546.406572628805, -5547.077124962464, -5544.774895283567, -5545.177226683763, -5547.792380785034, -5547.255938918107, -5547.52415985157, -5545.825427272967, -5551.279252920062, -5550.318127908484, -5547.747677296124, -5547.837084273945, -5544.283156905551, -5546.361869139894, -5546.2277586731625, -5549.289947663539, -5548.708802307702, -5548.038249974043, -5552.374488398372, -5552.933282009755, -5546.093648206431, -5545.66896506178, -5545.043116217032, -5548.5746918409695, -5547.2782906625625, -5550.072258719476, -5550.943976753232, -5551.413363386794, -5553.201502943219, -5552.933282009755, -5549.759334297101, -5547.09947670692, -5543.366735382883, -5544.394915627828, -5552.19567444273, -5553.4473721322265, -5554.72142156618, -5549.468761619182, -5549.289947663539, -5553.559130854504, -5558.856494290411, -5555.637843088847, -5548.462933118693, -5551.033383731054, -5553.402668643316, -5553.67088957678, -5551.681584320258, -5546.607738328903, -5551.011031986598, -5554.564959354992, -5557.805962301012, -5558.498866379126, -5551.927453509266, -5550.072258719476, -5550.496941864127, -5552.888578520844, -5552.530950609559, -5548.977023241166, -5550.9216250087775, -5555.928415766766, -5556.2636919335955, -5552.530950609559, -5550.698107564224, -5554.117924465886, -5550.2734244195735, -5550.988680242143, -5552.933282009755, -5548.820561029978, -5546.9877179846435, -5554.028517488065, -5554.475552377171, -5551.994508742632, -5553.380316898861, -5552.95563375421, -5555.123752966375, -5553.246206432129, -5550.407534886305, -5549.3346511524505, -5550.653404075313, -5553.939110510244, -5553.201502943219, -5550.8098662865, -5547.1665319402855, -5549.021726730076, -5554.117924465886, -5555.548436111026, -5552.821523287478, -5549.558168597004, -5547.52415985157, -5548.2841191630505, -5551.323956408973, -5552.843875031934, -5546.115999950886, -5542.495017349126, -5549.357002896906, -5555.369622155384, -5552.083915720453, -5544.95370923921, -5545.780723784056, -5555.213159944196, -5560.041136746542, -5554.296738421529, -5548.753505796612, -5547.926491251766, -5548.932319752254, -5547.725325551668, -5551.011031986598, -5548.306470907506, -5550.094610463931, -5548.2841191630505, -5548.351174396417, -5551.2121976866965, -5551.301604664517, -5548.507636607604, -5545.736020295146, -5548.9099680078, -5549.088781963442, -5550.854569775412, -5549.424058130272, -5550.407534886305, -5552.933282009755, -5549.111133707897, -5552.374488398372, -5551.659232575802, -5551.145142453331, -5557.560093112003, -5552.374488398372, -5544.797247028023, -5548.641747074335, -5554.564959354992, -5555.235511688651, -5553.425020387772, -5550.563997097493, -5551.949805253721, -5553.223854687674, -5557.224816945174, -5557.358927411906, -5548.5746918409695, -5548.641747074335, -5552.061563975998, -5558.632976845858, -5554.00616574361, -5548.462933118693, -5551.614529086892, -5556.777782056068, -5556.0848779779535, -5552.598005842925, -5550.9216250087775, -5550.295776164028, -5555.816657044489, -5558.7894390570455, -5554.743773310634, -5551.435715131249, -5550.519293608581, -5552.665061076291, -5555.8613605334, -5556.0848779779535, -5548.775857541068, -5549.915796508289, -5551.413363386794, -5558.208293701207, -5553.179151198763, -5548.060601718498, -5550.675755819769, -5555.302566922017, -5557.962424512199, -5554.989642499643, -5554.3861453993495, -5548.753505796612, -5554.654366332814, -5555.3249186664725, -5552.665061076291, -5549.289947663539, -5547.948842996221, -5555.682546577757, -5555.391973899838, -5551.033383731054, -5552.933282009755, -5552.665061076291, -5553.603834343414, -5554.989642499643, -5557.113058222897, -5551.078087219964, -5550.139313952842, -5552.3297849094615, -5552.665061076291, -5553.894407021333, -5553.380316898861, -5553.693241321235, -5555.503732622115, -5556.800133800523, -5557.113058222897, -5554.341441910439, -5556.487209378149, -5560.3093576800065, -5561.873979791878, -5557.895369278833, -5554.453200632715, -5553.626186087869, -5556.889540778344, -5561.046965247031, -5558.543569868037, -5553.179151198763, -5551.927453509266, -5556.397802400327, -5563.773878070579, -5565.494962393637, -5633.287803326583, -5636.908785928344, -5639.3227743295165, -5631.700829470257, -5629.085675368986, -5629.73387595819, -5634.360687060438, -5634.695963227268, -5633.466617282226, -5628.906861413344, -5628.906861413344, -5634.651259738357, -5634.092466126975, -5630.784407947589, -5631.812588192533, -5631.186739347785, -5629.756227702645, -5630.44913178076, -5629.264489324629, -5626.358762545438, -5629.73387595819, -5631.052628881053, -5630.11385561393, -5624.2353468221845, -5622.268393310117, -5627.386942790383, -5632.416085292827, -5632.3937335483715, -5626.0011346341535, -5623.453035766249, -5626.604631734447, -5629.555062002548, -5629.443303280271, -5625.464692767227, -5624.727085200201, -5632.550195759559, -5632.997230648664, -5631.410256792338, -5625.196471833762, -5623.2965735550615, -5624.570622989014, -5629.085675368986, -5630.136207358385, -5625.419989278315, -5625.509396256137, -5627.856329423944, -5628.660992224335, -5628.102198612953, -5625.867024167422, -5627.319887557017, -5631.387905047883, -5635.634736494391, -5630.426780036304, -5627.744570701668, -5631.052628881053, -5632.170216103818, -5630.695000969768, -5633.0419341375755, -5627.833977679489, -5622.201338076751, -5629.309192813539, -5634.025410893609, -5630.940870158776, -5625.68821021178, -5627.297535812561, -5629.309192813539, -5631.790236448078, -5632.684306226291, -5627.968088146221, -5627.319887557017, -5632.729009715201, -5635.277108583106, -5635.344163816472, -5632.952527159754, -5632.2819748260945, -5629.219785835718, -5630.896166669866, -5631.119684114419, -5628.102198612953, -5629.935041658287, -5630.538538758581, -5634.360687060438, -5633.936003915787, -5626.604631734447, -5627.632811979391, -5627.58810849048, -5632.2819748260945, -5632.1031608704525, -5626.671686967813, -5621.73195144319, -5626.805797434545, -5631.879643425899, -5627.878681168399, -5626.828149179, -5626.962259645732, -5629.242137580173, -5630.091503869475, -5630.784407947589, -5629.867986424922, -5627.92338465731, -5629.7785794471, -5632.97487890421, -5634.830073694, -5630.87381492541, -5626.805797434545, -5629.085675368986, -5632.617250992925, -5631.656125981346, -5626.895204412366, -5629.666820724824, -5635.433570794293, -5635.902957427855, -5633.466617282226, -5629.219785835718, -5627.4092945348375, -5631.410256792338, -5641.133265630397, -5633.377210304405, -5628.415123035326, -5628.325716057506, -5630.672649225313, -5631.611422492436, -5629.599765491458, -5627.074018368008, -5625.487044511681, -5632.125512614908, -5633.421913793316, -5629.085675368986, -5626.515224756626, -5630.471483525215, -5632.840768437478, -5631.387905047883, -5627.141073601374, -5629.130378857896, -5629.510358513637, -5631.1643876033295, -5631.991402148175, -5631.030277136598, -5629.353896302449, -5628.996268391164, -5631.723181214712, -5635.344163816472, -5634.181873104796, -5632.125512614908, -5630.315021314028, -5632.125512614908, -5635.299460327561, -5635.701791727757, -5629.867986424922, -5628.437474779782, -5632.684306226291, -5631.387905047883, -5634.2712800826175, -5633.0419341375755, -5627.744570701668, -5631.1643876033295, -5635.008887649642, -5633.39956204886, -5633.868948682421, -5632.170216103818, -5632.214919592729, -5639.345126073972, -5639.076905140509, -5635.634736494391, -5634.11481787143, -5635.433570794293, -5638.026373151109, -5636.9758411617095, -5633.958355660243, -5629.197434091263, -5629.68917246928, -5639.099256884963, -5638.361649317939, -5632.460788781737, -5630.87381492541, -5635.411219049838, -5636.707620228246, -5636.528806272603, -5632.997230648664, -5633.623079493414, -5639.993326663176, -5639.255719096151, -5636.752323717156, -5630.538538758581, -5627.029314879098, -5632.192567848274, -5637.825207451011, -5637.221710350717, -5633.444265537771, -5633.3325068154945, -5639.099256884963, -5637.981669662198, -5635.880605683399, -5634.695963227268, -5634.405390549349, -5634.472445782715, -5637.065248139531, -5637.601690006458, -5629.5774137470025, -5627.677515468302, -5632.97487890421, -5635.612384749936, -5630.2256143362065, -5617.0157333631205, -5605.549288457548, -5605.459881479726, -5607.53859371407, -5596.072148808497, -5585.29860798104, -5576.179096243274, -5571.373471185383, -5566.456087405216, -5564.332671681961, -5558.00712800111, -5556.598968100425, -5555.8613605334, -5561.091668735942, -5566.1878664717515, -5561.806924558512, -5556.2636919335955, -5557.470686134182, -5566.634901360858, -5568.95948278421, -5565.383203671361, -5561.091668735942, -5561.583407113959, -5571.1723054852855, -5566.724308338679, -5559.3705844128835, -5562.723346081179, -5563.528008881571, -5568.378337428372, -5568.288930450551, -5562.76804957009, -5565.204389715718, -5568.490096150648, -5567.998357772632, -5570.591160129447, -5568.467744406194, -5563.706822837213, -5565.137334482352, -5570.702918851724, -5567.528971139071, -5562.43277340326, -5565.092630993442, -5568.95948278421, -5571.3511194409275, -5569.071241506486, -5566.344328682939, -5568.512447895104, -5568.62420661738, -5568.311282195006, -5567.171343227786, -5566.05375600502, -5565.472610649182, -5571.552285141026, -5573.765107842101, -5570.769974085089, -5566.523142638582, -5566.344328682939, -5571.619340374392, -5569.67473860678, -5568.311282195006, -5566.791363572045, -5563.505657137115, -5567.953654283721, -5570.702918851724, -5567.774840328078, -5563.729174581668, -5562.790401314545, -5562.43277340326, -5569.026538017576, -5572.7592793416125, -5570.211180473707, -5564.712651337702, -5566.500790894126, -5568.735965339657, -5567.8642473059, -5562.477476892171, -5562.3657181698945, -5568.378337428372, -5572.044023519043, -5571.1723054852855, -5568.1771717282745, -5568.534799639559, -5565.807886816012, -5569.0041862731205, -5571.909913052311, -5568.087764750453, -5567.059584505509, -5572.044023519043, -5576.402613687827, -5571.395822929839, -5567.2383984611515, -5570.8817328073665, -5575.061509020509, -5571.932264796766, -5572.781631086067, -5569.518276395593, -5565.606721115914, -5566.746660083135, -5572.401651430328, -5573.876866564377, -5566.634901360858, -5565.629072860369, -5565.606721115914, -5573.273369464085, -5577.9225323107885, -5567.841895561444, -5565.517314138093, -5570.747622340635, -5571.3511194409275, -5573.429831675271, -5567.506619394615, -5565.629072860369, -5572.178133985774, -5572.871038063889, -5573.72040435319, -5569.71944209569, -5566.9478257832325, -5570.680567107269, -5574.77093634259, -5573.787459586556, -5566.456087405216, -5565.316148437995, -5567.059584505509, -5569.920607795788, -5572.58046538597, -5564.220912959685, -5566.567846127492, -5571.932264796766, -5573.3404246974505, -5574.279197964573, -5570.278235707073, -5567.484267650159, -5570.769974085089, -5574.748584598135, -5568.423040917282, -5566.9478257832325, -5568.0654130059975, -5567.506619394615, -5568.847724061933, -5572.133430496863, -5571.082898507464, -5572.7592793416125, -5572.871038063889, -5574.860343320411, -5573.139258997352, -5566.634901360858, -5565.003224015621, -5567.14899148333, -5573.161610741808, -5572.222837474685, -5571.462878163205, -5569.853552562422, -5566.456087405216, -5568.087764750453, -5573.496886908637, -5567.4172124167935, -5564.712651337702, -5565.696128093735, -5564.176209470775, -5565.71847983819, -5566.366680427394, -5567.774840328078, -5565.629072860369, -5565.830238560467, -5565.740831582646, -5562.723346081179, -5560.130543724364, -5560.62228210238, -5567.10428799442, -5562.522180381082, -5555.995471000132, -5555.593139599936, -5555.749601811123, -5556.666023333791, -5558.610625101403, -5553.492075621138, -5546.0489447175205, -5544.149046438819, -5545.736020295146, -5540.170435925775, -5533.576671311459, -5526.4464648302155, -5522.244336872618, -5521.327915349951, -5518.533947293037, -5506.128729120342, -5497.903287160789, -5495.377540037339, -5492.270647558052, -5490.661321957269, -5486.034510855021, -5485.676882943736, -5489.521382990049, -5491.756557435579, -5491.354226035384, -5493.097662102898, -5498.70794996118, -5498.193859838708, -5499.154984850286, -5503.737092463624, -5498.618542983359, -5498.618542983359, -5507.201612854196, -5516.0529036584985, -5515.494110047115, -5511.537851278526, -5513.437749557227, -5517.349304836906, -5522.71372350618, -5525.440636329728, -5522.199633383708, -5520.769121738568, -5528.346363108917, -5533.24139514463, -5535.834197501445, -5529.016915442577, -5529.441598587227, -5535.163645167786, -5537.66704054678, -5538.471703347172, -5536.9517847242105, -5535.945956223722, -5535.565976567981, -5542.204444671207, -5545.646613317324, -5540.617470814881, -5538.00231671361, -5539.611642314392, -5546.831255773456, -5550.519293608581, -5544.1713981832745, -5540.773933026067, -5539.701049292213, -5548.529988352059, -5548.529988352059, -5545.937185995243, -5543.702011549713, -5548.977023241166, -5554.76612505509, -5552.0392122315425, -5548.9099680078, -5548.775857541068, -5552.106267464908, -5551.681584320258, -5551.055735475509, -5548.217063929685, -5550.9216250087775, -5553.603834343414, -5551.48041862016, -5551.569825597981, -5553.201502943219, -5546.607738328903, -5549.893444763833, -5557.761258812101, -5561.002261758121, -5549.647575574824, -5547.390049384839, -5553.134447709853, -5556.0848779779535, -5555.7943053000345, -5552.0392122315425, -5549.692279063735, -5552.016860487087, -5559.236473946152, -5557.29187217854, -5556.554264611515]]
[[975.3854245406897, 951.5808166957876, 904.217470194992, 959.9627208665278, 977.8664681752286, 975.4971832629661, 974.6478169736645, 976.7488809524633, 978.693482720075, 978.5593722533432, 976.5924187412762, 975.8771629187064, 978.4923170199772, 980.3698635542231, 980.1910495985807, 979.0287588869046, 949.6138631837206, 902.4963858719333, 960.8120871558294, 983.8120322003404, 981.9344856660946, 981.7780234549074, 980.8839536766951, 981.1745263546142, 982.7391484664856, 981.889782177184, 980.4145670431337, 980.9510089100611, 983.0520728888599, 982.9626659110387, 981.3980437991672, 953.1007353187484, 909.4254266530785, 966.8917616476729, 983.3649973112342, 981.7333199659968, 983.3649973112342, 983.2532385889577, 984.7061019785526, 985.0637298898375, 983.0744246333152, 982.5156310219326, 983.4097008001448, 984.728453723008, 984.728453723008, 983.1861833555918, 982.7615002109409, 982.8285554443069, 983.6108665002427, 983.275590333413, 981.7556717104521, 954.0618603303267, 904.1057114727154, 958.6439679436646, 981.2192298435248, 979.0734623758152, 978.5146687644326, 979.1405176091812, 979.5652007538321, 979.922828665117, 978.3358548087901, 950.1950085395586, 900.8200050377852, 956.5205522204104, 981.1074711212482, 979.9898838984828, 977.7547094529522, 979.1405176091812, 982.0015408994605, 981.2639333324354, 980.2134013430359, 979.6546077316533, 979.6546077316533, 980.8616019322399, 982.2027065995583, 982.2250583440135, 957.0346423428825, 900.1271009596708, 951.2008370400473, 978.0452821308711, 976.435956530089, 976.8382879302845, 977.9782268975052, 977.9558751530499, 978.1123373642371, 977.9782268975052, 952.921921363106, 901.9599440050059, 955.6264824421982, 976.9723983970164, 977.8664681752286, 976.7935844413739, 977.017101885927, 979.4087385426449, 980.4816222764996, 977.3523780527566, 962.9131511346283, 909.4477783975337, 954.955930108539, 979.4087385426449, 977.9782268975052, 976.4136047856338, 977.6205989862203, 979.4310902871002, 979.6322559871979, 976.1230321077147, 955.3135580198239, 902.7199033164864, 954.2853777748797, 978.8499449312621, 977.1735640971142, 975.631293729698, 976.0336251298935, 977.6429507306756, 979.341683309279, 976.7488809524633, 954.9782818529942, 903.1669382055925, 954.1065638192373, 977.6429507306756, 975.854811174251, 975.1619070961365, 977.0618053748376, 979.05111063136, 978.7158344645303, 978.469965275522, 978.5370205088878, 977.9111716641393, 979.9451804095722, 978.693482720075, 977.0618053748376, 949.6362149281758, 897.2884294138468, 949.8150288838183, 976.7488809524633, 975.5418867518767, 974.6254652292091, 976.6594739746421, 977.821764686318, 977.5311920083991, 977.1065088637482, 954.9782818529942, 898.3836648921567, 946.1046393042374, 979.274628075913, 980.436918787589, 982.6497414886644, 981.5321542658991, 980.5933809987762, 980.2134013430359, 979.4087385426449, 953.2795492743909, 901.5799643492657, 953.9501016080501, 980.2134013430359, 979.4310902871002, 979.9004769206616, 981.0404158878823, 981.308636821346, 980.4816222764996, 979.8110699428404, 955.5370754643769, 903.9939527504389, 953.2795492743909, 979.8110699428404, 979.9004769206616, 978.8722966757175, 979.9004769206616, 981.6439129881755, 982.2027065995583, 979.922828665117, 952.7654591519189, 901.9152405160953, 956.8558283872401, 980.7498432099633, 979.0287588869046, 979.3640350537343, 979.8110699428404, 980.5263257654102, 980.2581048319465, 978.4476135310666, 950.1279533061926, 897.0425602248383, 949.2562352724357, 979.922828665117, 978.1346891086923, 977.6205989862203, 979.0064071424493, 981.0404158878823, 981.7109682215415, 979.4310902871002, 950.6643951731199, 898.0483887253272, 947.1998747825473, 979.9898838984828, 980.7945466988739, 980.7498432099633, 981.9121339216392, 981.822726943818, 982.6050379997538, 980.7498432099633, 952.5195899629105, 898.5848305922545, 947.1328195491815, 979.6769594761086, 978.3358548087901, 958.7557266659411, 904.5527463618215, 952.0725550738043, 981.6439129881755, 981.1745263546142, 981.0627676323376, 980.0345873873935, 981.5545060103543, 982.7391484664856, 980.3475118097678, 956.1182208202149, 902.1611097051036, 949.9491393505501, 980.0345873873935, 979.207572842547, 979.7440147094745, 980.727491465508, 981.4650990325331, 981.7333199659968, 979.7663664539298, 959.7392034219747, 903.0775312277713, 947.7810201383854, 982.8285554443069, 980.9733606545163, 980.436918787589, 982.470927533022, 983.9461426670722, 984.5049362784549, 977.5758954973097, 925.9433658055503, 943.9141683476173, 984.2814188339019, 986.1813171126029, 983.6332182446979, 984.5496397673655, 985.5107647789437, 985.9801514125052, 984.3931775561783, 982.6497414886644, 983.566163011332, 988.14827062467, 988.7517677249632, 985.6225235012203, 984.1920118560806, 985.3990060566672, 986.3377793237901, 987.1424421241811, 986.2036688570582, 985.9577996680498, 986.8518694462621, 986.4048345571559, 987.2989043353683, 986.7848142128962, 984.1696601116253, 986.2483723459688, 986.9859799129939, 987.2318491020023, 985.7342822234967, 984.2143636005359, 984.1026048782594, 985.7342822234967, 986.918924679628, 985.2201921010247, 985.24254384548, 986.4271863016113, 986.5612967683431, 987.2318491020023, 985.1084333787481, 983.566163011332, 983.8343839447957, 984.2814188339019, 986.1813171126029, 986.3601310682453, 985.3319508233012, 986.7401107239856, 988.9752851695163, 989.8022997143627, 990.696369492575, 988.4164915581337, 989.0870438917929, 990.1375758811922, 990.5846107702984, 990.2269828590134, 979.6993112205639, 920.8695198141957, 937.1639415221146, 985.9130961791392, 986.114261879237, 984.6837502340974, 982.8062036998515, 984.9072676786504, 986.7624624684408, 984.5719915118208, 982.5379827663878, 983.9684944115276, 985.2201921010247, 986.4495380460666, 987.276552590913, 973.4408227730779, 912.2417464544471, 936.0910577882598, 984.0131979004382, 985.8460409457733, 984.8849159341951, 985.8683926902286, 987.8129944578403, 988.0588636468487, 987.7459392244745, 986.7848142128962, 987.4777182910108, 989.6458375031755, 990.1375758811922, 986.4718897905219, 973.6196367287204, 911.1688627205924, 933.8111798538184, 982.7615002109409, 983.9461426670722, 978.3135030643348, 920.8471680697404, 935.9122438326174, 985.466061290033, 986.0695583903264, 985.4437095455778, 985.0860816342929, 987.4777182910108, 988.7070642360526, 986.7848142128962, 984.4155293006337, 941.1872555240698, 937.3204037333016, 988.1259188802146, 988.5058985359549, 986.0919101347816, 986.1589653681476, 988.9082299361504, 988.9752851695163, 987.5894770132873, 980.727491465508, 923.8870053156621, 939.019136311905, 987.5224217799214, 989.3999683141672, 989.3552648252565, 989.8246514588179, 991.4116253151448, 989.6011340142649, 986.695407235075, 977.5758954973097, 918.9025663021287, 937.3204037333016, 984.1249566227146, 984.5943432562761, 985.0637298898375, 984.728453723008, 986.1813171126029, 987.0977386352705, 984.5049362784549, 985.2201921010247, 984.9966746564717, 986.8518694462621, 987.2094973575471, 986.6060002572538, 976.9500466525611, 918.2990692018353, 936.2922234883575, 985.24254384548, 985.24254384548, 984.14730836717, 985.3543025677566, 986.695407235075, 987.567125268832, 987.2094973575471, 984.0131979004382, 984.9966746564717, 986.7401107239856, 987.0306834019045, 984.2143636005359, 983.566163011332, 983.566163011332, 984.9072676786504, 985.1084333787481, 982.5379827663878, 980.9733606545163, 982.4262240441113, 983.6108665002427, 983.4320525446002, 984.5496397673655, 979.3640350537343, 925.8316070832739, 930.436066441067, 983.0520728888599, 986.9412764240833, 983.1861833555918, 983.4097008001448, 985.7789857124073, 985.3543025677566, 984.2590670894465, 984.6166950007314, 985.5778200123096, 985.4884130344884, 986.6730554906196, 987.8129944578403, 987.5894770132873, 989.0870438917929, 990.8081282148514, 991.9033636931615, 991.1881078705917, 983.6332182446979, 935.0405257988604, 936.2698717439023, 985.5554682678543, 985.0637298898375, 985.1084333787481, 985.9354479235946, 987.8353462022957, 990.3610933257453, 987.6788839911085, 986.9636281685387, 988.081215391304, 990.1599276256476, 991.2328113595023, 990.6740177481196, 981.6662647326309, 925.2281099829805, 932.0453920418493, 986.9636281685387, 987.8576979467509, 985.6672269901309, 987.5224217799214, 989.7128927365414, 991.5904392707872, 989.5787822698096, 981.1521746101588, 924.3787436936789, 929.2290722404805, 980.1910495985807, 985.533116523399, 981.889782177184, 932.4253716975894, 929.8996245741397, 983.2085351000471, 984.8402124452845, 980.2804565764019, 979.922828665117, 982.0462443883711, 982.2027065995583, 979.4087385426449, 970.6245029717091, 909.6936475865422, 917.4273511680784, 975.4748315185109, 977.9558751530499, 978.3805582977008, 978.5593722533432, 980.5263257654102, 982.0462443883711, 982.627389744209, 973.8208024288181, 915.147473233637, 919.7742843358857, 978.0676338753265, 983.3873490556896, 981.6662647326309, 980.503974020955, 981.6439129881755, 981.822726943818, 979.5204972649215, 970.982130882994, 911.3476766762349, 915.8180255672963, 974.3348925512902, 980.8839536766951, 978.0005786419605, 978.8722966757175, 980.14634610967, 978.5146687644326, 978.4252617866114, 973.0384913728824, 918.857862813218, 917.3826476791678, 972.3232355503126, 977.5311920083991, 978.3582065532454, 980.4816222764996, 982.3144653218347, 984.2143636005359, 984.0355496448934, 983.2308868445024, 943.9365200920726, 928.6926303735531, 982.113299621737, 986.4048345571559, 985.1307851232035, 983.9461426670722, 987.1424421241811, 986.6730554906196, 986.114261879237, 983.9461426670722, 983.6108665002427, 984.9966746564717, 984.6837502340974, 983.6332182446979, 980.3698635542231, 932.9618135645168, 925.8316070832739, 979.9451804095722, 982.985017655494, 982.9626659110387, 983.2085351000471, 984.4602327895443, 985.9130961791392, 985.1084333787481, 982.7615002109409, 983.1638316111364, 982.6497414886644, 981.7333199659968, 982.4262240441113, 978.693482720075, 928.5138164179107, 923.8646535712069, 979.05111063136, 984.1696601116253, 983.7673287114297, 984.2367153449912, 984.1696601116253, 983.7226252225191, 983.6779217336085, 981.7780234549074, 981.822726943818, 982.7838519553962, 982.3144653218347, 981.7109682215415, 977.4641367750331, 924.4234471825895, 917.8520343127292, 977.0394536303824, 982.4485757885666, 983.6108665002427, 983.4991077779661, 982.8509071887621, 984.2143636005359, 984.2590670894465, 982.2250583440135, 983.5438112668767, 985.8907444346839, 989.5564305253542, 988.371788069223, 980.8392501877845, 926.5692146502989, 922.858825070718, 980.0345873873935, 984.8849159341951, 982.0462443883711, 983.0073693999493, 985.6895787345861, 985.6672269901309, 985.0190264009269, 982.1803548551029, 932.2689094864023, 919.9083948026175, 978.2017443420583, 986.4718897905219, 984.4155293006337, 983.3202938223236, 983.6779217336085, 986.2930758348795, 985.8013374568627, 984.1920118560806, 949.9267876060949, 924.2669849714024, 979.341683309279, 983.8790874337063, 983.6332182446979, 982.985017655494, 983.856735689251, 985.3543025677566, 985.0190264009269, 981.6439129881755, 932.246557741947, 922.4341419260671, 979.7216629650192, 984.6837502340974, 983.4544042890554, 984.0131979004382, 983.8343839447957, 984.3708258117231, 984.0579013893488, 981.1745263546142, 980.7945466988739, 982.5156310219326, 984.5719915118208, 985.2872473343906, 983.3873490556896, 946.66343291562, 923.1046942597263, 980.2134013430359, 985.7119304790415, 985.309599078846, 986.2707240904241, 988.4388433025889, 987.7012357355638, 987.8576979467509, 987.2318491020023, 986.8965729351727, 987.1424421241811, 984.6390467451868, 983.7673287114297, 981.6886164770862, 937.8791973446844, 926.5021594169331, 984.4825845339996, 989.0870438917929, 988.5282502804101, 989.3552648252565, 989.5787822698096, 991.0763491483151, 989.6905409920861, 988.6847124915973, 989.2211543585247, 991.2775148484129, 992.0598259043487, 992.2386398599912, 986.628352001709, 937.1192380332039, 924.4234471825895, 984.661398489642, 993.1103578937481, 991.1881078705917, 990.5399072813877, 993.0656544048375, 993.9597241830497, 992.372750326723, 991.0316456594045, 950.5526364508435, 927.3515257062347, 984.14730836717, 991.5233840374214, 989.9364101810945, 991.9704189265275, 994.5408695388877, 995.3455323392789, 996.0384364173933, 995.0549596613598, 961.0132528559271, 922.8141215818074, 977.084157119293, 986.2930758348795, 986.3601310682453, 987.1871456130917, 989.0423404028822, 990.1822793701028, 989.534078780899, 986.1366136236923, 943.9588718365279, 922.635307626165, 982.6497414886644, 989.3552648252565, 986.3377793237901, 987.6341805021979, 988.3047328358571, 990.696369492575, 989.6458375031755, 988.8411747027844, 989.9364101810945, 991.6574945041532, 991.7021979930638, 989.3552648252565, 985.466061290033, 939.8237991122961, 920.4671884140001, 981.0851193767929, 989.24350610298, 988.081215391304, 989.7128927365414, 989.9364101810945, 992.1045293932593, 991.5904392707872, 990.3163898368347, 962.9802063679941, 928.0667815288045, 982.6720932331197, 991.4786805485107, 990.3163898368347, 989.6905409920861, 992.1045293932593, 992.5515642823655, 993.2221166160247, 992.5739160268207, 962.9355028790835, 929.9666798075057, 985.5107647789437, 993.7138549940414, 992.7527299824632, 995.1220148947257, 994.3844073277006, 993.1550613826587, 992.7750817269185, 992.2609916044464, 950.7314504064859, 925.9210140610951, 984.3484740672677, 992.8421369602844, 991.9927706709827, 992.5962677712761, 992.953895682561, 995.2784771059129, 993.6691515051308, 993.2444683604799, 962.600226712254, 926.9715460504945, 985.1754886121141, 996.2619538619464, 995.1667183836364, 994.5408695388877, 997.5136515514436, 999.5923637857871, 998.3853695852006, 997.0889684067928, 994.0938346497816, 993.691503249586, 994.7420352389855, 994.6079247722537, 992.3280468378124, 963.1590203236366, 925.9210140610951, 982.403872299656, 992.082177648804, 990.6740177481196, 991.7692532264297, 992.082177648804, 991.7692532264297, 992.372750326723, 990.1375758811922, 951.7819823958854, 919.3943046801454, 978.8275931868069, 989.7352444809967, 989.0870438917929, 987.7235874800191, 989.534078780899, 990.4728520480219, 991.3669218262341], [-5554.140276210342, -5553.983813999154, -5557.135409967353, -5557.8506657899225, -5557.67185183428, -5554.140276210342, -5554.877883777366, -5558.744735568134, -5558.364755912395, -5559.281177435062, -5557.783610556557, -5553.536779110048, -5554.2073314437075, -5552.307433165006, -5550.496941864127, -5550.742811053135, -5553.894407021333, -5558.700032079224, -5564.399726915327, -5562.43277340326, -5557.247168689629, -5551.413363386794, -5554.632014588358, -5558.923549523777, -5555.503732622115, -5552.57565409847, -5553.67088957678, -5557.515389623093, -5557.783610556557, -5556.218988444685, -5554.833180288456, -5556.397802400327, -5559.012956501599, -5560.555226869014, -5560.175247213274, -5553.134447709853, -5553.380316898861, -5556.2636919335955, -5555.839008788945, -5558.588273356948, -5554.140276210342, -5552.419191887283, -5555.749601811123, -5560.264654191095, -5560.376412913372, -5556.129581466864, -5552.218026187185, -5554.453200632715, -5560.041136746542, -5559.52704662407, -5553.2685581765845, -5553.626186087869, -5558.476514634671, -5557.2024652007185, -5557.962424512199, -5558.342404167939, -5554.76612505509, -5554.229683188162, -5556.57661635597, -5556.062526233498, -5551.033383731054, -5550.38518314185, -5559.415287901794, -5562.164552469797, -5556.666023333791, -5552.106267464908, -5551.659232575802, -5557.515389623093, -5559.996433257632, -5557.113058222897, -5554.0955727214305, -5554.542607610537, -5555.660194833302, -5557.917721023288, -5556.666023333791, -5553.2685581765845, -5557.940072767744, -5559.728212324168, -5559.8623227909, -5558.923549523777, -5551.435715131249, -5552.530950609559, -5557.157761711808, -5561.449296647227, -5557.157761711808, -5555.883712277855, -5553.626186087869, -5557.403630900816, -5559.974081513176, -5560.644633846836, -5555.43667738875, -5552.933282009755, -5555.570787855481, -5560.555226869014, -5556.062526233498, -5552.57565409847, -5551.368659897883, -5554.0955727214305, -5561.002261758121, -5562.879808292367, -5557.269520434084, -5555.123752966375, -5554.274386677073, -5557.560093112003, -5558.09653497893, -5551.882750020355, -5553.536779110048, -5558.677680334768, -5560.890503035844, -5563.215084459196, -5557.425982645272, -5557.247168689629, -5558.632976845858, -5559.0800117349645, -5559.14706696833, -5553.000337243121, -5548.9099680078, -5556.62131984488, -5560.823447802478, -5559.012956501599, -5555.7943053000345, -5555.190808199741, -5558.0294797455645, -5564.735003082157, -5557.560093112003, -5548.820561029978, -5553.313261665495, -5557.627148345369, -5560.398764657827, -5558.565921612492, -5555.168456455285, -5555.48138087766, -5559.594101857437, -5562.700994336724, -5561.315186180495, -5553.089744220942, -5549.9828517416545, -5555.950767511221, -5561.538703625048, -5560.935206524755, -5553.492075621138, -5551.52512210907, -5559.415287901794, -5564.153857726319, -5559.705860579713, -5554.632014588358, -5552.9779854986655, -5551.435715131249, -5553.536779110048, -5557.895369278833, -5555.079049477465, -5550.251072675118, -5552.173322698274, -5557.873017534378, -5557.627148345369, -5557.560093112003, -5553.603834343414, -5552.888578520844, -5558.476514634671, -5555.570787855481, -5547.233587173651, -5548.731154052157, -5556.800133800523, -5560.4881716356485, -5558.0294797455645, -5556.598968100425, -5554.542607610537, -5557.247168689629, -5559.638805346347, -5557.962424512199, -5557.001299500621, -5551.301604664517, -5553.402668643316, -5561.359889669406, -5560.24230244664, -5555.883712277855, -5551.726287809168, -5554.05086923252, -5561.29283443604, -5558.364755912395, -5552.553302354015, -5552.262729676096, -5555.883712277855, -5561.695165836235, -5560.264654191095, -5551.636880831347, -5552.374488398372, -5554.877883777366, -5560.3093576800065, -5558.8117908015, -5555.168456455285, -5555.503732622115, -5558.00712800111, -5559.772915813079, -5554.564959354992, -5551.8603982759005, -5553.492075621138, -5555.43667738875, -5559.124715223875, -5559.504694879615, -5551.703936064713, -5551.972156998177, -5554.609662843903, -5558.8117908015, -5555.503732622115, -5552.173322698274, -5553.380316898861, -5559.661157090803, -5562.05279374752, -5559.035308246053, -5555.43667738875, -5549.580520341458, -5551.055735475509, -5558.297700679029, -5559.705860579713, -5556.9118925227995, -5553.827351787967, -5555.8613605334, -5562.835104803456, -5561.33753792495, -5555.3249186664725, -5551.547473853526, -5554.073220976976, -5559.683508835257, -5557.135409967353, -5553.536779110048, -5554.967290755188, -5556.800133800523, -5558.05183149002, -5558.074183234476, -5549.848741274923, -5551.346308153428, -5561.158723969308, -5562.700994336724, -5559.839971046445, -5554.497904121627, -5556.9118925227995, -5560.868151291389, -5560.510523380104, -5558.990604757143, -5555.123752966375, -5556.397802400327, -5562.030442003065, -5562.164552469797, -5561.449296647227, -5559.839971046445, -5563.036270503553, -5570.457049662716, -5577.2743317215845, -5578.794250344545, -5577.587256143958, -5581.431756190272, -5593.166422029308, -5599.15668954333, -5600.698959910746, -5601.01188433312, -5605.303419268539, -5613.685323439279, -5619.5414804865695, -5619.340314786472, -5621.441378765271, -5627.722218957212, -5629.935041658287, -5629.152730602352, -5625.799968934056, -5624.794140433567, -5624.168291588819, -5625.978782889698, -5628.616288735425, -5626.783445690089, -5625.710561956234, -5621.933117143288, -5626.068189867519, -5628.392771290872, -5623.318925299517, -5626.068189867519, -5625.7776171896, -5625.867024167422, -5629.845634680466, -5625.665858467324, -5621.709599698735, -5623.050704366053, -5625.151768344852, -5624.682381711291, -5620.659067709335, -5623.1848148327845, -5626.135245100885, -5623.0060008771425, -5623.698904955257, -5622.670724710313, -5621.374323531905, -5623.1848148327845, -5627.610460234936, -5626.917556156821, -5624.548271244558, -5621.374323531905, -5623.1848148327845, -5626.358762545438, -5623.8777189109, -5622.8271869215, -5620.9496403872545, -5622.626021221402, -5625.3529340449495, -5621.709599698735, -5621.039047365075, -5617.1945473187625, -5617.73098918569, -5625.978782889698, -5628.146902101863, -5618.803872919545, -5617.820396163511, -5622.469559010215, -5625.799968934056, -5626.649335223357, -5619.094445597464, -5616.233422307185, -5622.916593899321, -5624.838843922477, -5622.49191075467, -5621.173157831808, -5616.3675327739165, -5619.2509078086505, -5622.603669476947, -5621.73195144319, -5623.430684021793, -5622.581317732492, -5622.49191075467, -5624.503567755648, -5621.933117143288, -5619.586183975481, -5620.1896810757735, -5619.630887464391, -5621.150806087352, -5622.268393310117, -5619.5414804865695, -5616.121663584908, -5617.239250807674, -5624.078884610997, -5621.217861320718, -5615.719332184713, -5613.059474594531, -5620.659067709335, -5625.1741200893075, -5623.833015421988, -5621.8884136543775, -5617.619230463413, -5615.898146140355, -5619.809701420034, -5619.720294442212, -5613.171233316807, -5614.020599606109, -5615.786387418078, -5616.63575370738, -5615.652276951347, -5610.600782704447, -5609.0361605925755, -5617.775692674601, -5623.16246308833, -5621.106102598442, -5616.144015329363, -5613.774730417101, -5615.473462995704, -5620.770826431612, -5622.938945643777, -5616.792215918567, -5612.478329238693, -5616.568698474014, -5622.8271869215, -5621.39667527636, -5616.948678129755, -5611.897183882855, -5613.305343783539, -5622.201338076751, -5622.670724710313, -5618.826224664, -5617.39571301886, -5616.322829285005, -5618.714465941724, -5621.530785743093, -5618.535651986081, -5613.998247861654, -5617.261602552128, -5618.937983386277, -5622.0672276100195, -5622.000172376654, -5618.714465941724, -5617.574526974503, -5620.055570609042, -5621.977820632198, -5620.033218864586, -5617.127492085397, -5616.859271151933, -5623.095407854964, -5627.6998672127565, -5619.228556064196, -5613.238288550173, -5618.826224664, -5624.034181122087, -5622.290745054573, -5616.926326385299, -5614.624096706402, -5617.976858374698, -5619.385018275383, -5621.7766549321, -5620.904936898343, -5621.374323531905, -5623.1848148327845, -5624.2353468221845, -5623.497739255159, -5619.16150083083, -5619.608535719935, -5620.502605498148, -5624.816492178023, -5625.129416600396, -5618.781521175089, -5616.523994985103, -5619.720294442212, -5625.196471833762, -5624.794140433567, -5620.144977586863, -5617.619230463413, -5622.3578002879385, -5627.5210532571145, -5629.376248046905, -5622.223689821207, -5617.663933952324, -5621.374323531905, -5622.670724710313, -5626.336410800983, -5626.872852667911, -5621.039047365075, -5618.803872919545, -5621.620192720913, -5627.297535812561, -5624.682381711291, -5618.937983386277, -5619.653239208847, -5622.380152032394, -5624.592974733469, -5622.1789863322965, -5621.217861320718, -5622.871890410411, -5628.549233502059, -5629.845634680466, -5627.610460234936, -5621.933117143288, -5620.815529920523, -5623.654201466346, -5621.821358421012, -5615.562869973525, -5614.758207173134, -5617.73098918569, -5606.309247769028, -5597.927343598288, -5590.506564439126, -5584.404538202827, -5573.832163075467, -5569.562979884503, -5564.2432647041405, -5555.771953555579, -5550.832218030956, -5553.33561340995, -5549.580520341458, -5540.2374911591405, -5533.420209100272, -5532.794360255523, -5540.058677203498, -5547.077124962464, -5545.423095872771, -5540.863340003889, -5539.231662658652, -5545.758372039601, -5551.905101764811, -5550.541645353037, -5546.160703439797, -5545.646613317324, -5545.512502850593, -5552.106267464908, -5557.068354733987, -5548.485284863149, -5545.937185995243, -5548.015898229587, -5552.642709331836, -5555.8613605334, -5551.1004389644195, -5544.8195987724785, -5548.150008696319, -5553.089744220942, -5551.301604664517, -5550.608700586403, -5548.23941567414, -5548.038249974043, -5554.0955727214305, -5552.732116309657, -5546.741848795635, -5544.931357494755, -5546.361869139894, -5549.3346511524505, -5554.0955727214305, -5552.754468054112, -5550.04990697502, -5547.725325551668, -5548.150008696319, -5553.559130854504, -5548.753505796612, -5543.590252827436, -5546.898311006822, -5553.313261665495, -5553.201502943219, -5547.390049384839, -5544.886654005844, -5549.960499997199, -5553.715593065691, -5550.966328497688, -5551.234549431151, -5550.295776164028, -5547.52415985157, -5549.871093019377, -5554.900235521822, -5548.865264518889, -5543.836122016445, -5546.563034839993, -5551.368659897883, -5552.598005842925, -5548.798209285523, -5545.043116217032, -5547.792380785034, -5552.19567444273, -5553.782648299057, -5551.301604664517, -5548.686450563247, -5547.1665319402855, -5550.876921519866, -5552.061563975998, -5546.943014495732, -5547.613566829392, -5550.76516279759, -5550.698107564224, -5548.015898229587, -5548.418229629783, -5548.731154052157, -5546.250110417618, -5549.826389530467, -5549.267595919085, -5547.211235429196, -5544.506674350104, -5545.512502850593, -5546.943014495732, -5548.015898229587, -5550.094610463931, -5544.9090057503, -5544.439619116738, -5548.552340096515, -5550.005203486109, -5547.792380785034, -5545.981889484155, -5547.121828451375, -5550.184017441752, -5552.441543631738, -5552.754468054112, -5548.686450563247, -5543.254976660607, -5551.703936064713, -5555.347270410928, -5550.094610463931, -5547.054773218009, -5548.015898229587, -5550.206369186208, -5551.748639553623, -5549.245244174629, -5545.445447617227, -5548.172360440774, -5550.206369186208, -5548.865264518889, -5550.854569775412, -5550.653404075313, -5548.507636607604, -5549.647575574824, -5551.972156998177, -5550.072258719476, -5544.484322605649, -5544.104342949909, -5548.150008696319, -5551.793343042534, -5550.04990697502, -5545.1101714503975, -5547.635918573847, -5549.558168597004, -5550.094610463931, -5547.792380785034, -5546.004241228609, -5549.602872085914, -5550.832218030956, -5550.228720930662, -5547.345345895928, -5543.411438871794, -5544.774895283567, -5548.19471218523, -5549.133485452353, -5547.904139507311, -5546.250110417618, -5547.725325551668, -5551.882750020355, -5551.1004389644195, -5551.346308153428, -5547.591215084936, -5544.081991205453, -5545.043116217032, -5550.407534886305, -5548.127656951864, -5545.736020295146, -5549.021726730076, -5549.759334297101, -5546.071296461975, -5544.529026094559, -5544.931357494755, -5549.468761619182, -5552.106267464908, -5548.641747074335, -5542.495017349126, -5542.584424326948, -5549.2228924301735, -5546.76420054009, -5547.09947670692, -5545.445447617227, -5540.170435925775, -5542.897348749322, -5545.199578428219, -5542.7632382825905, -5541.71270629319, -5543.411438871794, -5544.730191794657, -5548.082953462953, -5548.2841191630505, -5545.557206339504, -5544.663136561291, -5541.243319659629, -5542.897348749322, -5545.62426157287, -5547.971194740677, -5543.322031893973, -5539.924566736766, -5544.1713981832745, -5550.563997097493, -5551.413363386794, -5548.306470907506, -5545.266633661585, -5546.853607517911, -5545.177226683763, -5540.662174303791, -5539.544587081026, -5545.71366855069, -5548.127656951864, -5543.009107471598, -5543.47849410516, -5545.825427272967, -5548.127656951864, -5547.613566829392, -5552.173322698274, -5548.507636607604, -5548.082953462953, -5548.865264518889, -5549.62522383037, -5551.748639553623, -5548.373526140872, -5539.321069636473, -5542.986755727143, -5549.580520341458, -5550.407534886305, -5547.926491251766, -5544.216101672185, -5546.451276117716, -5548.23941567414, -5555.682546577757, -5553.112095965397, -5541.913871993288, -5545.601909828414, -5546.943014495732, -5549.468761619182, -5547.792380785034, -5544.886654005844, -5546.071296461975, -5549.424058130272, -5550.876921519866, -5548.731154052157, -5546.831255773456, -5549.848741274923, -5549.893444763833, -5549.133485452353, -5545.490151106138, -5544.752543539113, -5544.394915627828, -5547.4571046182045, -5550.653404075313, -5545.71366855069, -5544.886654005844, -5546.719497051179, -5548.597043585425, -5549.401706385816, -5543.389087127339, -5544.886654005844, -5544.126694694364, -5544.931357494755, -5549.736982552646, -5548.306470907506, -5545.043116217032, -5548.19471218523, -5556.353098911417, -5553.045040732031, -5547.904139507311, -5542.986755727143, -5544.551377839015, -5546.697145306724, -5546.831255773456, -5543.81377027199, -5544.57372958347, -5548.731154052157, -5550.876921519866, -5555.883712277855, -5550.027555230565, -5543.791418527534, -5542.271499904573, -5547.546511596026, -5548.552340096515, -5546.3395173954395, -5545.66896506178, -5545.356040639405, -5547.077124962464, -5551.8603982759005, -5551.368659897883, -5545.512502850593, -5541.466837104183, -5544.730191794657, -5551.659232575802, -5547.725325551668, -5546.406572628805, -5546.205406928708, -5548.462933118693, -5545.221930172674, -5542.852645260411, -5546.808904029001, -5546.183055184252, -5545.937185995243, -5550.586348841947, -5547.591215084936, -5543.14321793833, -5548.462933118693, -5550.631052330858, -5547.635918573847, -5546.004241228609]]
[[981.5992094992649, 971.5632762388321, 919.6401738691538, 957.6381394431758, 989.1540991251587, 987.9471049245722, 988.0365119023934, 988.2153258580358, 989.3329130808012, 988.6400090026867, 986.4048345571559, 986.3377793237901, 986.1813171126029, 987.1871456130917, 988.5506020248655, 987.1200903797258, 966.9141133921282, 908.1066737302153, 949.8150288838183, 986.4495380460666, 985.2872473343906, 982.5603345108432, 982.4262240441113, 983.3202938223236, 983.4991077779661, 982.1356513661923, 966.757651180941, 905.8938510291399, 948.1609997941256, 985.4437095455778, 984.4155293006337, 982.4932792774772, 982.0238926439158, 984.4825845339996, 986.4718897905219, 985.4884130344884, 982.1580031106477, 937.9909560669608, 954.307729519335, 988.7070642360526, 988.2376776024912, 985.6895787345861, 986.628352001709, 988.9305816806057, 989.3105613363459, 987.5894770132873, 970.9597791385388, 913.2028714660254, 952.0278515848937, 989.3999683141672, 988.2600293469465, 986.695407235075, 986.1366136236923, 988.5729537693207, 989.0870438917929, 987.5894770132873, 975.4748315185109, 916.9356127900617, 952.407831240634, 987.1871456130917, 987.5894770132873, 986.7177589795302, 985.5554682678543, 985.8013374568627, 985.6672269901309, 984.9296194231057, 977.6876542195862, 924.2669849714024, 950.4185259841116, 987.5224217799214, 986.4942415349772, 985.1307851232035, 987.9471049245722, 988.3941398136783, 987.9918084134828, 984.6837502340974, 969.3057500488461, 910.5877173647544, 943.8694648587067, 981.1074711212482, 982.1356513661923, 979.341683309279, 980.5486775098656, 982.5379827663878, 982.5379827663878, 981.7556717104521, 977.017101885927, 928.8043890958297, 943.2212642695027, 981.3980437991672, 981.7780234549074, 981.7333199659968, 981.6886164770862, 983.275590333413, 984.2590670894465, 982.3815205552007, 981.4874507769885, 981.822726943818, 982.0015408994605, 981.6662647326309, 981.7780234549074, 968.6799012040975, 909.827758053274, 941.6789939020865, 983.7226252225191, 984.9296194231057, 983.1414798666812, 984.3261223228125, 984.8849159341951, 987.0977386352705, 983.9461426670722, 978.0676338753265, 928.2902989733576, 946.9987090824496, 983.6779217336085, 984.1026048782594, 983.4544042890554, 984.7061019785526, 984.6390467451868, 984.0131979004382, 982.3368170662901, 981.7109682215415, 981.7109682215415, 984.1696601116253, 984.5496397673655, 983.6332182446979, 972.3902907836784, 915.6168598671985, 946.0599358153268, 986.6060002572538, 985.9577996680498, 985.1084333787481, 986.2483723459688, 988.8635264472398, 988.5953055137761, 987.5447735243766, 986.7401107239856, 985.4437095455778, 986.047206645871, 987.1871456130917, 986.5165932794325, 972.4796977614997, 913.6946098440421, 943.3777264806898, 985.7789857124073, 986.3601310682453, 986.4718897905219, 987.4553665465554, 987.9024014356615, 987.500070035466, 985.6672269901309, 985.9577996680498, 986.8965729351727, 987.2094973575471, 986.695407235075, 984.4825845339996, 969.1939913265695, 908.1737289635813, 944.8752933591954, 986.5389450238878, 985.6895787345861, 984.437881045089, 985.8460409457733, 986.695407235075, 987.1647938686364, 987.7235874800191, 985.1307851232035, 943.6682991586089, 940.5167031904106, 986.1366136236923, 986.1813171126029, 985.1754886121141, 986.4942415349772, 988.7741194694186, 988.2153258580358, 986.3601310682453, 983.4991077779661, 941.4331247130782, 943.1765607805921, 985.6895787345861, 986.0025031569604, 983.856735689251, 984.951971167561, 986.695407235075, 988.9752851695163, 992.2162881155358, 991.8139567153403, 990.8304799593068, 989.5117270364436, 989.9140584366392, 989.8693549477285, 983.0967763777705, 923.8199500822963, 935.0628775433156, 989.6905409920861, 990.3163898368347, 989.1988026140693, 990.4281485591113, 992.1268811377146, 991.4339770596001, 991.7021979930638, 989.467023547533, 988.0588636468487, 989.2882095918906, 989.8693549477285, 989.3999683141672, 985.9801514125052, 939.1979502675474, 937.7227351334972, 989.3999683141672, 992.1715846266252, 991.1434043816811, 991.1657561261364, 992.1939363710806, 992.5068607934548, 990.7857764703962, 989.467023547533, 988.3494363247677, 991.5457357818766, 992.6409712601867, 989.6681892476308, 981.5545060103543, 925.5633861498102, 934.0346972983715, 989.6458375031755, 991.3892735706895, 988.5953055137761, 988.5729537693207, 990.3834450702007, 991.2551631039577, 990.4728520480219, 984.9072676786504, 929.631403640676, 933.6100141537207, 988.7070642360526, 991.0539974038599, 990.1822793701028, 990.3834450702007, 990.2716863479241, 989.9364101810945, 990.6069625147537, 988.5282502804101, 988.4611950470443, 992.1492328821699, 991.5904392707872, 990.9422386815833, 985.5554682678543, 932.9171100756062, 936.7839618663743, 989.5117270364436, 992.1715846266252, 989.8470032032733, 989.1540991251587, 990.3834450702007, 990.5399072813877, 988.8411747027844, 982.8285554443069, 930.0560867853269, 932.8724065866955, 984.1249566227146, 986.3377793237901, 985.8013374568627, 986.2036688570582, 987.8129944578403, 987.7906427133851, 986.4271863016113, 986.0248549014158, 986.1589653681476, 988.5282502804101, 989.2211543585247, 988.9752851695163, 980.2581048319465, 922.9482320485392, 928.1114850177152, 985.1978403565694, 991.5904392707872, 991.8810119487063, 993.3338753383011, 992.9985991714716, 993.1550613826587, 992.305695093357, 988.8411747027844, 988.2376776024912, 989.0199886584269, 989.3329130808012, 986.1813171126029, 980.0792908763041, 925.9433658055503, 926.5915663947543, 981.4874507769885, 985.3543025677566, 984.3484740672677, 985.6001717567649, 987.3659595687342, 986.9859799129939, 986.0695583903264, 987.4106630576448, 987.7459392244745, 990.115224136737, 991.4339770596001, 992.3503985822676, 983.0967763777705, 926.5915663947543, 929.7208106184972, 986.8071659573515, 988.4611950470443, 988.4388433025889, 988.4164915581337, 990.1375758811922, 990.1822793701028, 988.7070642360526, 981.1074711212482, 923.4623221710112, 924.1552262491258, 980.3698635542231, 984.8402124452845, 983.5438112668767, 985.6001717567649, 985.8013374568627, 986.1813171126029, 986.2260206015135, 985.0637298898375, 952.3854794961786, 930.1007902742375, 980.9286571656057, 985.3766543122118, 985.3990060566672, 985.5107647789437, 986.628352001709, 990.1599276256476, 988.0365119023934, 988.7070642360526, 987.4553665465554, 989.3999683141672, 992.1268811377146, 991.0092939149492, 985.3319508233012, 934.1688077651033, 926.792732094852, 984.0579013893488, 989.3999683141672, 987.2989043353683, 986.6060002572538, 989.0423404028822, 989.7128927365414, 987.5447735243766, 981.5321542658991, 927.664450128609, 924.892833816151, 983.7673287114297, 990.2493346034688, 989.5787822698096, 989.3105613363459, 990.6516660036643, 992.1939363710806, 991.6127910152426, 987.0306834019045, 940.8519793572402, 931.4418949415559, 986.1366136236923, 991.5457357818766, 991.2104596150471, 992.3280468378124, 995.2561253614576, 995.1220148947257, 994.5632212833431, 991.9257154376169, 950.4855812174775, 937.6109764112207, 990.8081282148514, 994.6302765167089, 993.0656544048375, 993.8479654607733, 993.7362067384967, 994.2279451165134, 990.9422386815833, 988.4388433025889, 988.1706223691252, 988.4388433025889, 988.3494363247677, 987.3436078242789, 985.2201921010247, 942.7071741470306, 927.7538571064302, 982.6497414886644, 988.1259188802146, 987.5894770132873, 988.1259188802146, 990.0258171589157, 992.7527299824632, 991.6798462486084, 992.7303782380079, 993.177413127114, 994.7420352389855, 994.9655526835386, 993.4009305716671, 988.9752851695163, 933.0735722867934, 922.2106244815141, 982.4485757885666, 989.1540991251587, 988.7517677249632, 991.2998665928683, 991.9927706709827, 994.6973317500749, 994.5855730277983, 990.2940380923794, 944.696479403553, 929.2290722404805, 986.7848142128962, 992.4398055600889, 990.2269828590134, 987.3883113131895, 988.4164915581337, 990.7187212370302, 988.4611950470443, 982.9403141665833, 931.017211796905, 921.3836099366678, 983.342645566779, 991.3892735706895, 990.1375758811922, 991.6127910152426, 994.3173520943346, 996.2619538619464, 994.2502968609688, 989.9364101810945, 943.1095055472261, 929.5196449183995, 985.9801514125052, 988.5282502804101, 988.8635264472398, 987.0977386352705, 987.3659595687342, 991.6574945041532, 993.1103578937481, 987.567125268832, 939.1979502675474, 923.7752465933856, 981.7780234549074, 990.1375758811922, 988.2823810914018, 986.4718897905219, 986.4718897905219, 987.7906427133851, 987.4106630576448, 985.3319508233012, 943.2212642695027, 923.9540605490281, 982.4932792774772, 988.9305816806057, 986.5612967683431, 987.9694566690275, 990.2716863479241, 991.0092939149492, 989.0423404028822, 988.4164915581337, 988.4611950470443, 991.3445700817789, 992.886840449195, 992.1715846266252, 988.5282502804101, 945.3893834816676, 923.9317088045727, 983.566163011332, 992.9091921936504, 993.1103578937481, 992.082177648804, 995.0326079169045, 995.9490294395721, 992.2162881155358, 989.1988026140693, 989.5117270364436, 989.24350610298, 989.534078780899, 988.4164915581337, 984.3484740672677, 933.3194414758017, 916.600336623232, 975.3183693073237, 985.1084333787481, 987.8129944578403, 987.6341805021979, 986.6730554906196, 989.8470032032733, 988.4164915581337, 986.8518694462621, 987.0753868908151, 987.4330148021002, 988.9976369139716, 988.6400090026867, 984.3261223228125, 939.3544124787346, 918.2990692018353, 980.7945466988739, 991.2775148484129, 991.568087526332, 992.3951020711783, 994.1161863942369, 995.0549596613598, 995.501994550466, 995.6808085061084, 993.1550613826587, 993.7138549940414, 992.886840449195, 990.9869421704939, 983.275590333413, 929.117313518204, 914.8792523001733, 979.2299245870024, 987.9024014356615, 985.6225235012203, 984.5272880229102, 986.918924679628, 987.3436078242789, 987.3883113131895, 983.3873490556896, 940.8519793572402, 920.4224849250895, 979.6099042427427, 989.1764508696141, 988.885878191695, 989.0870438917929, 989.9364101810945, 992.3280468378124, 990.8304799593068, 988.5953055137761, 967.5176104924216, 930.1901972520587, 983.856735689251, 995.5690497838319, 993.535041038399, 992.6633230046419, 994.4514625610665, 995.1667183836364, 993.177413127114, 989.6905409920861, 945.4564387150334, 921.2942029588465, 981.5992094992649, 991.0539974038599, 989.3552648252565, 989.3552648252565, 990.8751834482174, 991.0987008927705, 991.1434043816811, 987.4553665465554, 988.3270845803124, 988.9082299361504, 992.8197852158291, 991.501032292966, 989.2658578474353, 943.8918166031619, 918.4108279241119, 981.3309885658012, 993.1550613826587, 991.8810119487063, 991.2775148484129, 993.2668201049353, 993.4456340605777, 994.7196834945302, 992.886840449195, 949.9267876060949, 924.3787436936789, 985.3543025677566, 992.4621573045442, 989.9587619255498, 989.5787822698096, 989.0870438917929, 989.6458375031755, 990.1599276256476, 987.7682909689297, 944.9647003370167, 921.2271477254806, 980.727491465508, 989.8693549477285, 989.2211543585247, 988.9082299361504, 989.9587619255498, 991.0987008927705, 991.0092939149492, 989.8693549477285, 955.2017992975473, 924.311688460313, 982.6497414886644, 992.6633230046419, 989.6011340142649, 990.5622590258431, 992.5515642823655, 993.3785788272118, 993.5573927828542, 992.8197852158291, 992.3280468378124, 992.953895682561, 994.3173520943346, 994.6302765167089, 992.886840449195, 992.6409712601867, 993.8032619718626, 994.2279451165134, 993.4232823161224, 993.758558482952, 979.4087385426449, 936.2922234883575, 981.2192298435248, 993.3562270827565, 992.6633230046419, 992.1045293932593, 991.6574945041532, 993.6691515051308, 992.2609916044464, 988.5953055137761, 948.5856829387765, 923.3058599598241, 983.0967763777705, 992.6856747490973, 988.8411747027844, 985.0413781453823, 989.1093956362481, 992.4621573045442, 992.4398055600889, 989.0870438917929, 989.1540991251587, 992.0598259043487, 991.568087526332, 990.3834450702007, 989.7799479699073, 970.1327645936924, 929.2514239849359, 978.984055397994, 989.5564305253542, 988.5506020248655, 987.8576979467509, 988.9082299361504, 990.6069625147537, 989.3105613363459, 987.8129944578403, 954.7100609195305, 917.2932407013466, 976.435956530089, 988.1035671357594, 984.0355496448934, 983.2532385889577, 985.6672269901309, 987.9247531801169, 988.1929741135806, 985.3990060566672, 986.7624624684408, 988.8188229583292, 990.3163898368347, 989.6681892476308, 988.1035671357594, 951.8937411181619, 919.1931389800476, 977.6429507306756, 991.3222183373235, 989.8022997143627, 989.3999683141672, 992.9985991714716, 994.2950003498794, 993.1103578937481, 992.5962677712761, 961.4826394894886, 924.4905024159555, 983.856735689251, 993.9597241830497, 993.8703172052285, 991.8810119487063, 991.8139567153403, 990.4728520480219, 988.7070642360526, 987.3883113131895, 957.4146219986227, 920.6907058585532, 979.4534420315555, 990.33874158129, 990.5399072813877, 990.9645904260386, 992.2609916044464, 994.4961660499771, 993.6020962717648, 992.8421369602844, 991.9480671820721, 995.2337736170023, 996.2396021174911, 993.9597241830497, 992.2833433489018, 956.8781801316953, 917.7179238459973, 978.1346891086923, 993.7362067384967, 992.3280468378124, 991.9704189265275, 993.0656544048375, 993.7138549940414, 992.7750817269185, 992.5068607934548, 969.9315988935947, 924.5352059048661, 980.0345873873935, 995.1220148947257, 993.2668201049353, 993.2891718493905, 995.3455323392789, 995.8372707172956, 996.2396021174911, 994.2950003498794, 993.4456340605777, 994.4514625610665, 996.7983957288737, 994.7196834945302, 992.3951020711783, 974.9383896515834, 928.2232437399917, 980.9733606545163, 995.0773114058151, 992.9985991714716, 993.7138549940414, 992.0374741598933, 992.953895682561, 993.7362067384967, 993.2891718493905, 991.4116253151448, 992.4621573045442, 994.5185177944325, 995.3008288503682, 993.5126892939436, 952.5419417073658, 918.9472697910393, 981.0627676323376, 997.7371689959966, 996.1278433952145, 996.1278433952145, 997.6477620181754, 998.2065556295581, 997.4465963180777, 996.0831399063039, 977.1959158415694, 928.1114850177152, 979.7440147094745, 997.111320151248, 995.0549596613598, 995.6137532727425, 997.5360032958989, 998.273610862924, 996.2843056064017, 995.1220148947257, 995.2784771059129, 994.9432009390832, 995.6361050171978], [-5561.315186180495, -5563.259787948106, -5568.713613595201, -5565.137334482352, -5561.315186180495, -5559.705860579713, -5560.644633846836, -5564.1315059818635, -5568.311282195006, -5568.199523472729, -5561.046965247031, -5562.700994336724, -5569.026538017576, -5564.332671681961, -5563.662119348302, -5561.069316991487, -5560.085840235453, -5566.344328682939, -5569.741793840146, -5567.90895079481, -5564.220912959685, -5562.097497236431, -5567.014881016598, -5568.24422696164, -5566.277273449573, -5560.599930357925, -5563.90798853731, -5567.350157183428, -5568.110116494909, -5567.573674627981, -5567.19369497224, -5560.912854780299, -5559.057659990509, -5564.511485637604, -5566.9478257832325, -5566.836067060955, -5563.9526920262215, -5564.4220786597825, -5572.2898927080505, -5568.24422696164, -5562.030442003065, -5562.633939103358, -5562.835104803456, -5568.534799639559, -5569.607683373414, -5568.24422696164, -5562.991567014643, -5563.81858155949, -5568.534799639559, -5564.62324435988, -5561.873979791878, -5565.047927504531, -5565.606721115914, -5565.114982737897, -5564.667947848791, -5562.700994336724, -5562.812753059001, -5561.248130947129, -5566.05375600502, -5565.316148437995, -5559.504694879615, -5559.3705844128835, -5563.393898414838, -5564.377375170872, -5568.0654130059975, -5565.33850018245, -5568.646558361836, -5568.8253723174785, -5570.144125240341, -5566.344328682939, -5561.695165836235, -5564.95852052671, -5564.936168782255, -5567.461915905705, -5567.327805438973, -5569.786497329056, -5567.14899148333, -5568.199523472729, -5577.296683466039, -5571.708747352212, -5563.796229815034, -5560.465819891193, -5564.556189126514, -5569.473572906682, -5569.741793840146, -5569.853552562422, -5567.998357772632, -5568.601854872925, -5573.9886252866545, -5571.8205060744895, -5565.1820379712635, -5564.511485637604, -5565.29379669354, -5569.965311284699, -5574.413308431305, -5571.8652095634, -5570.345290940439, -5566.724308338679, -5567.976006028176, -5569.808849073512, -5565.1820379712635, -5562.835104803456, -5568.981834528665, -5574.368604942394, -5577.699014866235, -5568.713613595201, -5562.477476892171, -5565.696128093735, -5569.808849073512, -5567.4172124167935, -5566.836067060955, -5565.494962393637, -5565.517314138093, -5572.379299685872, -5574.1674392422965, -5566.858418805411, -5569.384165928861, -5571.0605467630085, -5566.031404260565, -5567.841895561444, -5566.925474038777, -5565.271444949084, -5567.730136839168, -5570.367642684894, -5569.853552562422, -5566.120811238386, -5568.288930450551, -5569.093593250942, -5575.217971231696, -5573.072203763986, -5564.019747259587, -5566.679604849769, -5570.702918851724, -5572.692224108247, -5574.8156398315, -5570.702918851724, -5566.590197871948, -5570.43469791826, -5568.534799639559, -5572.155782241319, -5574.860343320411, -5568.087764750453, -5572.312244452506, -5573.765107842101, -5570.4123461738045, -5569.585331628959, -5565.629072860369, -5569.808849073512, -5575.195619487241, -5573.206314230718, -5566.634901360858, -5563.14802922583, -5566.321976938484, -5569.920607795788, -5572.513410152604, -5570.926436296277, -5568.601854872925, -5568.62420661738, -5573.139258997352, -5572.1110787524085, -5570.747622340635, -5561.471648391682, -5563.282139692562, -5569.987663029154, -5572.7592793416125, -5570.300587451528, -5569.451221162227, -5569.540628140048, -5571.8205060744895, -5574.502715409126, -5573.608645630914, -5565.651424604825, -5569.205351973218, -5570.300587451528, -5569.071241506486, -5566.456087405216, -5565.897293793833, -5572.267540963596, -5578.257808477618, -5575.329729953973, -5569.160648484308, -5565.562017627003, -5568.020709517087, -5575.732061354168, -5575.374433442883, -5574.234494475662, -5573.608645630914, -5573.608645630914, -5576.827296832478, -5579.308340467017, -5574.39095668685, -5572.7592793416125, -5570.188828729252, -5573.943921797743, -5578.637788133358, -5575.1062125094195, -5569.630035117869, -5573.429831675271, -5575.799116587534, -5578.414270688805, -5581.431756190272, -5573.273369464085, -5569.473572906682, -5576.693186365746, -5580.537686412059, -5577.654311377324, -5573.563942142003, -5575.1062125094195, -5579.084823022464, -5580.045948034042, -5576.179096243274, -5571.52993339657, -5573.385128186361, -5576.715538110201, -5577.72136661069, -5579.285988722562, -5574.189790986752, -5571.14995374083, -5567.730136839168, -5570.859381062911, -5570.077070006975, -5564.176209470775, -5556.062526233498, -5550.429886630761, -5543.433790616249, -5533.911947478288, -5523.987772940132, -5521.797301983512, -5515.874089702856, -5510.800243711501, -5507.626295998847, -5503.6700372302585, -5501.814842440467, -5501.3231040624505, -5502.597153496404, -5499.691426717213, -5496.048092370998, -5501.636028484825, -5504.273534330551, -5507.268668087562, -5504.675865730746, -5500.56314475097, -5503.379464552339, -5510.867298944867, -5513.214232112674, -5506.665170987269, -5501.881897673834, -5509.056807643987, -5513.594211768414, -5510.755540222591, -5512.968362923666, -5511.113168133876, -5508.922697177255, -5519.249203115607, -5522.534909550537, -5508.855641943889, -5505.636990742325, -5510.174394866753, -5516.276421103051, -5518.846871715412, -5516.455235058694, -5510.688484989225, -5514.443578057716, -5523.026647928554, -5524.94889795171, -5518.645706015313, -5512.320162334462, -5513.393046068317, -5516.254069358596, -5516.723455992157, -5514.153005379797, -5513.750673979602, -5515.9411449362215, -5522.959592695188, -5526.222947385663, -5520.612659527381, -5511.627258256347, -5509.123862877353, -5518.623354270859, -5519.249203115607, -5511.627258256347, -5510.017932655565, -5514.443578057716, -5516.343476336418, -5515.784682725034, -5511.8507757009, -5507.022798898554, -5508.967400666166, -5512.18605186773, -5511.694313489713, -5509.347380321906, -5511.09081638942, -5510.643781500314, -5516.097607147409, -5518.601002526403, -5514.555336779993, -5512.52132803456, -5506.911040176277, -5511.001409411599, -5514.890612946822, -5510.1296913778415, -5508.699179732702, -5512.253107101096, -5515.382351324839, -5518.712761248679, -5514.600040268903, -5512.923659434755, -5511.314333833973, -5510.867298944867, -5515.874089702856, -5513.929487935244, -5509.414435555272, -5512.074293145453, -5516.276421103051, -5516.835214714434, -5519.115092648875, -5514.711798991179, -5519.651534515802, -5515.516461791571, -5514.264764102074, -5514.220060613163, -5510.1296913778415, -5511.962534423177, -5516.634049014336, -5516.0529036584985, -5513.348342579406, -5513.99654316861, -5513.594211768414, -5517.550470537004, -5517.729284492646, -5510.934354178233, -5506.732226220635, -5510.442615800216, -5515.7623309805795, -5515.158833880286, -5515.918793191766, -5511.426092556249, -5514.264764102074, -5521.596136283414, -5522.400799083805, -5516.388179825328, -5514.667095502269, -5515.8517379584, -5515.874089702856, -5516.097607147409, -5514.577688524448, -5512.096644889909, -5510.8896506893225, -5515.315296091473, -5516.455235058694, -5514.398874568806, -5510.621429755858, -5510.912002433777, -5517.841043214923, -5513.66126700178, -5507.559240765481, -5509.749711722102, -5513.035418157032, -5517.729284492646, -5516.254069358596, -5510.71083673368, -5510.688484989225, -5516.768159481068, -5518.355133337394, -5515.874089702856, -5513.102473390398, -5514.1753571242525, -5509.570897766459, -5511.873127445356, -5516.723455992157, -5514.8235577134565, -5512.431921056738, -5512.409569312283, -5513.258935601585, -5515.829386213945, -5517.9975054261095, -5515.985848425133, -5511.515499534071, -5516.455235058694, -5514.242412357618, -5510.934354178233, -5508.721531477157, -5510.509671033582, -5513.638915257325, -5519.629182771348, -5516.388179825328, -5510.666133244769, -5514.0635984019755, -5514.734150735635, -5516.678752503247, -5515.874089702856, -5512.878955945845, -5511.671961745258, -5513.147176879308, -5511.470796045161, -5507.782758210034, -5506.218136098163, -5507.872165187856, -5511.671961745258, -5514.42122631326, -5514.600040268903, -5513.594211768414, -5512.52132803456, -5516.2317176141405, -5519.852700215901, -5510.822595455957, -5506.084025631431, -5513.102473390398, -5517.505767048093, -5516.9022699478, -5512.9013076903, -5511.001409411599, -5510.733188478135, -5516.924621692255, -5518.1092641483865, -5512.163700123275, -5511.448444300705, -5517.326953092451, -5516.723455992157, -5515.359999580383, -5512.52132803456, -5514.600040268903, -5513.840080957423, -5519.271554860063, -5522.37844733935, -5515.561165280481, -5513.4153978127715, -5519.80799672699, -5525.597098540914, -5533.219043400174, -5540.908043492799, -5543.322031893973, -5547.948842996221, -5553.782648299057, -5560.711689080202, -5564.667947848791, -5564.802058315523, -5572.178133985774, -5577.520200910592, -5579.777727100579, -5576.782593343568, -5574.368604942394, -5578.257808477618, -5582.549343413037, -5582.705805624224, -5575.508543909615, -5573.653349119824, -5575.3967851873385, -5578.324863710984, -5581.543514912548, -5577.900180566333, -5572.893389808344, -5573.563942142003, -5577.296683466039, -5575.888523565355, -5573.318072952995, -5571.440526418749, -5568.870075806389, -5571.552285141026, -5576.469668921193, -5578.816602089, -5571.708747352212, -5567.14899148333, -5573.787459586556, -5577.587256143958, -5573.362776441905, -5569.965311284699, -5569.518276395593, -5571.842857818944, -5574.659177620313, -5569.585331628959, -5566.2996251940285, -5564.220912959685, -5564.980872271165, -5566.858418805411, -5556.95659601171, -5548.753505796612, -5552.9779854986655, -5554.676718077269, -5551.52512210907, -5549.960499997199, -5546.272462162074, -5546.9877179846435, -5551.145142453331, -5555.011994244099, -5556.129581466864, -5549.357002896906, -5549.848741274923, -5558.0294797455645, -5564.265616448595, -5559.392936157338, -5557.180113456263, -5562.678642592268, -5568.646558361836, -5566.1878664717515, -5559.683508835257, -5556.24134018914, -5559.728212324168, -5563.0139187590985, -5563.684471092757, -5561.382241413861, -5558.856494290411, -5563.1927327147405, -5566.9478257832325, -5568.087764750453, -5564.287968193051, -5561.941035025244, -5567.171343227786, -5570.4123461738045, -5570.524104896082, -5572.692224108247, -5568.1771717282745, -5562.566883869992, -5566.366680427394, -5571.708747352212, -5568.735965339657, -5564.444430404238, -5567.4172124167935, -5570.211180473707, -5569.9429595402435, -5568.62420661738, -5565.405555415816, -5565.606721115914, -5571.082898507464, -5569.384165928861, -5568.311282195006, -5565.159686226808, -5562.2539594476175, -5566.791363572045, -5570.725270596179, -5568.199523472729, -5564.220912959685, -5565.1820379712635, -5571.261712463107, -5575.776764843079, -5573.899218308833, -5565.33850018245, -5559.14706696833, -5569.183000228763, -5572.625168874881, -5565.941997282744, -5562.946863525733, -5566.031404260565, -5566.9478257832325, -5567.528971139071, -5565.852590304922, -5566.724308338679, -5566.679604849769, -5568.378337428372, -5570.546456640537, -5569.227703717674, -5565.383203671361, -5562.321014680983, -5566.38903217185, -5570.568808384992, -5570.144125240341, -5569.406517673317, -5570.05471826252, -5568.333633939461, -5569.317110695495, -5567.752488583624, -5562.76804957009, -5559.929378024266, -5573.183962486263, -5576.9837590436655, -5571.082898507464, -5565.1820379712635, -5565.941997282744, -5570.501753151626, -5573.899218308833, -5570.926436296277, -5565.629072860369, -5564.176209470775, -5563.460953648205, -5568.445392661738, -5570.144125240341, -5566.076107749475, -5565.494962393637, -5567.4172124167935, -5570.971139785188, -5567.976006028176, -5563.416250159294, -5564.645596104336, -5571.082898507464, -5569.361814184405, -5563.259787948106, -5564.265616448595, -5567.774840328078, -5569.0041862731205, -5571.954616541221, -5570.05471826252, -5565.964349027199, -5566.456087405216, -5566.210218216207, -5569.317110695495, -5570.255883962618, -5567.841895561444, -5568.870075806389, -5565.204389715718, -5567.8865990503555, -5562.611587358902, -5562.119848980886, -5571.440526418749, -5574.927398553777, -5574.748584598135, -5568.803020573023, -5565.941997282744, -5569.71944209569, -5568.646558361836, -5568.981834528665, -5567.327805438973, -5564.287968193051, -5565.1820379712635, -5571.753450841124, -5573.698052608735, -5571.127601996374, -5568.646558361836, -5568.400689172828, -5570.188828729252, -5572.9157415528, -5569.965311284699, -5567.528971139071, -5562.05279374752, -5567.730136839168, -5572.24518921914, -5569.630035117869, -5567.014881016598, -5566.76901182759, -5568.132468239363, -5571.194657229741, -5573.161610741808, -5569.831200817967, -5567.618378116891, -5569.227703717674, -5574.122735753386, -5570.4123461738045, -5569.987663029154, -5569.250055462129, -5569.026538017576, -5568.646558361836, -5569.697090351235, -5568.132468239363, -5567.797192072534, -5571.306415952017, -5569.630035117869, -5571.664043863302, -5569.987663029154, -5565.114982737897, -5567.953654283721, -5571.194657229741, -5570.792325829545, -5565.562017627003, -5565.629072860369, -5567.484267650159, -5569.473572906682, -5566.791363572045, -5564.600892615425, -5561.449296647227, -5565.852590304922, -5569.965311284699, -5568.512447895104, -5563.617415859391, -5561.494000136137, -5568.020709517087, -5573.00514853062, -5566.9478257832325, -5562.030442003065, -5562.231607703163, -5559.035308246053, -5562.276311192073, -5561.091668735942, -5563.080973992464, -5566.411383916305, -5569.786497329056, -5569.965311284699, -5564.936168782255, -5562.700994336724, -5565.852590304922, -5573.429831675271, -5570.099421751431, -5564.936168782255, -5563.170380970286, -5561.717517580691, -5563.170380970286, -5566.05375600502, -5569.2947589510395, -5566.366680427394, -5565.1820379712635, -5567.931302539266, -5567.797192072534, -5570.635863618358, -5567.841895561444, -5565.092630993442, -5561.471648391682, -5564.064450748498, -5567.8642473059, -5565.29379669354, -5564.042099004042, -5566.9478257832325, -5574.323901453484, -5567.730136839168, -5562.700994336724, -5568.423040917282, -5568.467744406194, -5568.020709517087, -5564.042099004042, -5567.797192072534, -5570.792325829545, -5566.903122294321, -5567.976006028176, -5569.205351973218, -5566.232569960663, -5564.824410059979, -5569.250055462129, -5572.736927597157, -5567.484267650159, -5565.003224015621, -5569.2947589510395, -5577.699014866235, -5574.212142731207, -5571.194657229741, -5570.814677574001, -5573.3404246974505, -5572.356947941416, -5573.943921797743, -5573.67570086428, -5568.914779295299, -5565.941997282744, -5570.38999442935, -5572.133430496863, -5570.971139785188, -5568.020709517087, -5568.95948278421, -5569.361814184405, -5573.206314230718, -5573.899218308833, -5570.501753151626, -5568.981834528665, -5571.775802585578, -5569.987663029154, -5569.987663029154, -5565.29379669354, -5564.1315059818635, -5570.926436296277, -5574.122735753386, -5574.681529364769, -5571.8205060744895, -5569.205351973218, -5569.518276395593, -5569.808849073512]]
