['beep', 0.0, 0.0, 0.0, 0.0, 0.0, 0.0, 0.0, 0.0]
['beep', 0.0, -3359.221322443643, 0.0, 0.0, 0.0, 0.0, -2898.0824825862032, 0.0]
['beep', 0.0, -3362.6858428342157, 0.0, 0.0, 0.0, 0.0, -2924.993982910393, 0.0]
['beep', 0.0, -3362.194104456199, 0.0, 0.0, 0.0, 0.0, -2931.855968458172, 0.0]
['beep', 0.0, -3359.5342468660174, 0.0, 0.0, 0.0, 0.0, -2909.3924652805886, 0.0]
['beep', 0.0, -3358.260197432065, 0.0, 0.0, 0.0, 0.0, -2889.5441162042757, 0.0]
['beep', 0.0, -3361.4341451447185, 0.0, 0.0, 0.0, 0.0, -2898.23894479739, 0.0]
['beep', 0.0, -3367.9385027812127, 0.0, 0.0, 0.0, 0.0, -2923.4293607985214, 0.0]
['beep', 0.0, -3366.776212069537, 0.0, 0.0, 0.0, 0.0, -2928.5479102787867, 0.0]
['beep', 0.0, -3359.646005588294, 0.0, 0.0, 0.0, 0.0, -2908.543098991287, 0.0]
['beep', 0.0, -3357.5896450984055, 0.0, 0.0, 0.0, 0.0, -2889.14178480408, 0.0]
['beep', 0.0, -3361.0988689778887, 0.0, 0.0, 0.0, 0.0, -2897.344875019178, 0.0]
['beep', 0.0, -3366.217418458154, 0.0, 0.0, 0.0, 0.0, -2923.4293607985214, 0.0]
['beep', 0.0, -3365.9939010136013, 0.0, 0.0, 0.0, 0.0, -2931.6771545025294, 0.0]
['beep', 0.0, -3359.8918747773023, 0.0, 0.0, 0.0, 0.0, -2912.119378104136, 0.0]
['beep', 0.0, -3356.717927064649, 0.0, 0.0, 0.0, 0.0, -2893.902706373061, 0.0]
['beep', 0.0, -3359.646005588294, 0.0, 0.0, 0.0, 0.0, -2902.217555310435, 0.0]
['beep', 0.0, -3364.138706223811, 0.0, 0.0, 0.0, 0.0, -2925.932756177516, 0.0]
['beep', 0.0, -3363.6022643568836, 0.0, 0.0, 0.0, 0.0, -2933.375887081133, 0.0]
['beep', 0.0, -3360.7859445555146, 0.0, 0.0, 0.0, 0.0, -2911.560584492753, 0.0]
['beep', 0.0, -3358.483714876618, 0.0, 0.0, 0.0, 0.0, -2892.1592703055467, 0.0]
['beep', 0.0, -3361.7470695670927, 0.0, 0.0, 0.0, 0.0, -2900.7199884319293, 0.0]
['beep', 0.0, -3365.5915696134057, 0.0, 0.0, 0.0, 0.0, -2923.2058433539682, 0.0]
['beep', 0.0, -3364.518685879551, 0.0, 0.0, 0.0, 0.0, -2931.3418783357, 0.0]
['beep', 0.0, -3359.71306082166, 0.0, 0.0, 0.0, 0.0, -2914.2874973163007, 0.0]
['beep', 0.0, -3358.6625288322603, 0.0, 0.0, 0.0, 0.0, -2895.0649970847367, 0.0]
['beep', 0.0, -3362.5070288785732, 0.0, 0.0, 0.0, 0.0, -2902.3963692660773, 0.0]
['beep', 0.0, -3366.5973981138945, 0.0, 0.0, 0.0, 0.0, -2926.9385846780046, 0.0]
['beep', 0.0, -3366.105659735878, 0.0, 0.0, 0.0, 0.0, -2934.091142903703, 0.0]
['beep', 0.0, -3360.897703277791, 0.0, 0.0, 0.0, 0.0, -2912.924040904527, 0.0]
['beep', 0.0, -3361.0094620000677, 0.0, 0.0, 0.0, 0.0, -2894.1262238176137, 0.0]
['beep', 0.0, -3362.3952701562966, 0.0, 0.0, 0.0, 0.0, -2902.508127988354, 0.0]
['beep', 0.0, -3365.479810891129, 0.0, 0.0, 0.0, 0.0, -2928.05617190077, 0.0]
['beep', 0.0, -3365.5915696134057, 0.0, 0.0, 0.0, 0.0, -2934.8063987262726, 0.0]
['beep', 0.0, -3361.1212207223443, 0.0, 0.0, 0.0, 0.0, -2913.14755834908, 0.0]
['beep', 0.0, -3357.097906720389, 0.0, 0.0, 0.0, 0.0, -2891.444014482977, 0.0]
['beep', 0.0, -3360.517723622051, 0.0, 0.0, 0.0, 0.0, -2900.3847122650996, 0.0]
['beep', 0.0, -3367.2679504475536, 0.0, 0.0, 0.0, 0.0, -2924.301078832278, 0.0]
['beep', 0.0, -3366.7538603250814, 0.0, 0.0, 0.0, 0.0, -2932.4594655584656, 0.0]
['beep', 0.0, -3361.9482352671907, 0.0, 0.0, 0.0, 0.0, -2912.566412993242, 0.0]
['beep', 0.0, -3359.37778465483, 0.0, 0.0, 0.0, 0.0, -2890.661703427041, 0.0]
['beep', 0.0, -3362.61878760085, 0.0, 0.0, 0.0, 0.0, -2898.149537819569, 0.0]
['beep', 0.0, -3366.0833079914223, 0.0, 0.0, 0.0, 0.0, -2925.306907332767, 0.0]
['beep', 0.0, -3363.0881742344113, 0.0, 0.0, 0.0, 0.0, -2933.308831847767, 0.0]
['beep', 0.0, -3359.71306082166, 0.0, 0.0, 0.0, 0.0, -2913.6840002160075, 0.0]
['beep', 0.0, -3357.5896450984055, 0.0, 0.0, 0.0, 0.0, -2894.8414796401835, 0.0]
['beep', 0.0, -3360.4730201331404, 0.0, 0.0, 0.0, 0.0, -2902.7763489218178, 0.0]
['beep', 0.0, -3366.8209155584477, 0.0, 0.0, 0.0, 0.0, -2926.2680323443456, 0.0]
['beep', 0.0, -3367.871447547847, 0.0, 0.0, 0.0, 0.0, -2932.370058580644, 0.0]
['beep', 0.0, -3362.7528980675816, 0.0, 0.0, 0.0, 0.0, -2911.7170467039405, 0.0]
['beep', 0.0, -3362.194104456199, 0.0, 0.0, 0.0, 0.0, -2891.019331338326, 0.0]
['beep', 0.0, -3363.1775812122323, 0.0, 0.0, 0.0, 0.0, -2898.842441897684, 0.0]
['beep', 0.0, -3367.446764403196, 0.0, 0.0, 0.0, 0.0, -2923.943450920993, 0.0]
['beep', 0.0, -3366.7315085806263, 0.0, 0.0, 0.0, 0.0, -2932.3253550917334, 0.0]
['beep', 0.0, -3361.836476544914, 0.0, 0.0, 0.0, 0.0, -2912.9687443934376, 0.0]
['beep', 0.0, -3359.7354125661154, 0.0, 0.0, 0.0, 0.0, -2893.321561017223, 0.0]
['beep', 0.0, -3361.389441655808, 0.0, 0.0, 0.0, 0.0, -2900.2953052872786, 0.0]
['beep', 0.0, -3367.0444330030004, 0.0, 0.0, 0.0, 0.0, -2924.7257619769293, 0.0]
['beep', 0.0, -3369.033738259523, 0.0, 0.0, 0.0, 0.0, -2933.15236963658, 0.0]
['beep', 0.0, -3362.61878760085, 0.0, 0.0, 0.0, 0.0, -2913.14755834908, 0.0]
['beep', 0.0, -3360.0706887329447, 0.0, 0.0, 0.0, 0.0, -2892.00280809436, 0.0]
['beep', 0.0, -3363.6916713347046, 0.0, 0.0, 0.0, 0.0, -2898.797738408773, 0.0]
['beep', 0.0, -3368.363185925864, 0.0, 0.0, 0.0, 0.0, -2922.7364567204067, 0.0]
['beep', 0.0, -3367.2455987030985, 0.0, 0.0, 0.0, 0.0, -2931.2301196134235, 0.0]
['beep', 0.0, -3361.9482352671907, 0.0, 0.0, 0.0, 0.0, -2911.7393984483956, 0.0]
['beep', 0.0, -3359.310729421464, 0.0, 0.0, 0.0, 0.0, -2892.919229617027, 0.0]
['beep', 0.0, -3363.132877723322, 0.0, 0.0, 0.0, 0.0, -2902.150500077069, 0.0]
['beep', 0.0, -3368.519648137051, 0.0, 0.0, 0.0, 0.0, -2928.0114684118594, 0.0]
['beep', 0.0, -3367.9832062701234, 0.0, 0.0, 0.0, 0.0, -2935.253433615379, 0.0]
['beep', 0.0, -3361.3447381668975, 0.0, 0.0, 0.0, 0.0, -2915.025104883326, 0.0]
['beep', 0.0, -3357.5002381205845, 0.0, 0.0, 0.0, 0.0, -2894.1485755620693, 0.0]
['beep', 0.0, -3365.122182979844, 0.0, 0.0, 0.0, 0.0, -2900.0270843538146, 0.0]
['beep', 0.0, -3372.6323691168272, 0.0, 0.0, 0.0, 0.0, -2924.5245962768313, 0.0]
['beep', 0.0, -3374.66637786226, 0.0, 0.0, 0.0, 0.0, -2931.9006719470826, 0.0]
['beep', 0.0, -3371.514781894062, 0.0, 0.0, 0.0, 0.0, -2911.560584492753, 0.0]
['beep', 0.0, -3370.128973737833, 0.0, 0.0, 0.0, 0.0, -2893.4556714839546, 0.0]
['beep', 0.0, -3373.034700517023, 0.0, 0.0, 0.0, 0.0, -2898.0377790972925, 0.0]
['beep', 0.0, -3376.7227383521486, 0.0, 0.0, 0.0, 0.0, -2922.535291020309, 0.0]
['beep', 0.0, -3376.610979629872, 0.0, 0.0, 0.0, 0.0, -2931.408933569066, 0.0]
['beep', 0.0, -3369.6595871042714, 0.0, 0.0, 0.0, 0.0, -2910.2641833143457, 0.0]
['beep', 0.0, -3368.43024115923, 0.0, 0.0, 0.0, 0.0, -2888.784156892795, 0.0]
['beep', 0.0, -3371.671244105249, 0.0, 0.0, 0.0, 0.0, -2894.640313940086, 0.0]
['beep', 0.0, -3376.1415929963105, 0.0, 0.0, 0.0, 0.0, -2918.735494462907, 0.0]
['beep', 0.0, -3376.5662761409612, 0.0, 0.0, 0.0, 0.0, -2928.6820207455185, 0.0]
['beep', 0.0, -3371.3359679384193, 0.0, 0.0, 0.0, 0.0, -2909.6830379585076, 0.0]
['beep', 0.0, -3368.8996277927913, 0.0, 0.0, 0.0, 0.0, -2889.767633648829, 0.0]
['beep', 0.0, -3373.705252850682, 0.0, 0.0, 0.0, 0.0, -2897.255468041357, 0.0]
['beep', 0.0, -3378.6002848863945, 0.0, 0.0, 0.0, 0.0, -2922.088256131203, 0.0]
['beep', 0.0, -3377.169773241255, 0.0, 0.0, 0.0, 0.0, -2930.760732979862, 0.0]
['beep', 0.0, -3371.9171132942574, 0.0, 0.0, 0.0, 0.0, -2911.158253092558, 0.0]
['beep', 0.0, -3370.2407324601095, 0.0, 0.0, 0.0, 0.0, -2889.7452819043738, 0.0]
['beep', 0.0, -3373.7276045951376, 0.0, 0.0, 0.0, 0.0, -2896.316694774234, 0.0]
['beep', 0.0, -3377.7285668526374, 0.0, 0.0, 0.0, 0.0, -2922.57999450922, 0.0]
['beep', 0.0, -3377.57210464145, 0.0, 0.0, 0.0, 0.0, -2931.6771545025294, 0.0]
['beep', 0.0, -3372.900590050291, 0.0, 0.0, 0.0, 0.0, -2912.901689160072, 0.0]
['beep', 0.0, -3368.9890347706123, 0.0, 0.0, 0.0, 0.0, -2893.053340083759, 0.0]
['beep', 0.0, -3371.067747004956, 0.0, 0.0, 0.0, 0.0, -2900.1388430760912, 0.0]
['beep', 0.0, -3375.4933924071065, 0.0, 0.0, 0.0, 0.0, -2924.5245962768313, 0.0]
['beep', 0.0, -3377.8179738304584, 0.0, 0.0, 0.0, 0.0, -2932.504169047376, 0.0]
['beep', 0.0, -3371.425374916241, 0.0, 0.0, 0.0, 0.0, -2913.7063519604626, 0.0]
['beep', 0.0, -3368.407889414774, 0.0, 0.0, 0.0, 0.0, -2892.1592703055467, 0.0]
['beep', 0.0, -3370.687767349216, 0.0, 0.0, 0.0, 0.0, -2898.4177587530326, 0.0]
['beep', 0.0, -3376.0968895074, 0.0, 0.0, 0.0, 0.0, -2923.407009054066, 0.0]
['beep', 0.0, -3377.6615116192716, 0.0, 0.0, 0.0, 0.0, -2933.2417766144013, 0.0]
['beep', 0.0, -3372.028872016534, 0.0, 0.0, 0.0, 0.0, -2915.092160116692, 0.0]
['beep', 0.0, -3369.2349039596206, 0.0, 0.0, 0.0, 0.0, -2895.221459295924, 0.0]
['beep', 0.0, -3372.587665627917, 0.0, 0.0, 0.0, 0.0, -2902.2846105438007, 0.0]
['beep', 0.0, -3378.3767674418414, 0.0, 0.0, 0.0, 0.0, -2925.9774596664265, 0.0]
['beep', 0.0, -3378.6226366308497, 0.0, 0.0, 0.0, 0.0, -2934.6499365150853, 0.0]
['beep', 0.0, -3373.258217961576, 0.0, 0.0, 0.0, 0.0, -2915.2709740723344, 0.0]
['beep', 0.0, -3368.81022081497, 0.0, 0.0, 0.0, 0.0, -2893.7685959063288, 0.0]
['beep', 0.0, -3371.6265406163384, 0.0, 0.0, 0.0, 0.0, -2898.529517475309, 0.0]
['beep', 0.0, -3376.8568488188803, 0.0, 0.0, 0.0, 0.0, -2922.982325909415, 0.0]
['beep', 0.0, -3377.5050494080842, 0.0, 0.0, 0.0, 0.0, -2933.018259169848, 0.0]
['beep', 0.0, -3372.7664795835594, 0.0, 0.0, 0.0, 0.0, -2914.0192763828372, 0.0]
['beep', 0.0, -3370.1736772267436, 0.0, 0.0, 0.0, 0.0, -2892.896877872572, 0.0]
['beep', 0.0, -3373.772308084048, 0.0, 0.0, 0.0, 0.0, -2899.2671250423346, 0.0]
['beep', 0.0, -3378.197953486199, 0.0, 0.0, 0.0, 0.0, -2924.4351892990103, 0.0]
['beep', 0.0, -3379.829630831436, 0.0, 0.0, 0.0, 0.0, -2933.085314403214, 0.0]
['beep', 0.0, -3373.4593836616737, 0.0, 0.0, 0.0, 0.0, -2912.789930437795, 0.0]
['beep', 0.0, -3368.117316736855, 0.0, 0.0, 0.0, 0.0, -2892.04751158327, 0.0]
['beep', 0.0, -3371.090098749411, 0.0, 0.0, 0.0, 0.0, -2897.590744208186, 0.0]
['beep', 0.0, -3375.9180755517577, 0.0, 0.0, 0.0, 0.0, -2923.474064287432, 0.0]
['beep', 0.0, -3375.806316829481, 0.0, 0.0, 0.0, 0.0, -2932.9065004475715, 0.0]
['beep', 0.0, -3371.6265406163384, 0.0, 0.0, 0.0, 0.0, -2914.220442082935, 0.0]
['beep', 0.0, -3367.580874869928, 0.0, 0.0, 0.0, 0.0, -2893.85800288415, 0.0]
['beep', 0.0, -3370.8665813048583, 0.0, 0.0, 0.0, 0.0, -2898.3954070085774, 0.0]
['beep', 0.0, -3375.6275028738387, 0.0, 0.0, 0.0, 0.0, -2921.596517753186, 0.0]
['beep', 0.0, -3376.81214532997, 0.0, 0.0, 0.0, 0.0, -2931.5877475247084, 0.0]
['beep', 0.0, -3372.364148183364, 0.0, 0.0, 0.0, 0.0, -2911.8064536817615, 0.0]
['beep', 0.0, -3366.3068254359755, 0.0, 0.0, 0.0, 0.0, -2890.281723771301, 0.0]
['beep', 0.0, -3368.81022081497, 0.0, 0.0, 0.0, 0.0, -2896.3613982631446, 0.0]
['beep', 0.0, -3373.5711423839502, 0.0, 0.0, 0.0, 0.0, -2921.998849153382, 0.0]
['beep', 0.0, -3375.359281940375, 0.0, 0.0, 0.0, 0.0, -2932.347706836189, 0.0]
['beep', 0.0, -3370.2407324601095, 0.0, 0.0, 0.0, 0.0, -2912.499357759876, 0.0]
['beep', 0.0, -3367.156191725277, 0.0, 0.0, 0.0, 0.0, -2891.064034827237, 0.0]
['beep', 0.0, -3370.8889330493134, 0.0, 0.0, 0.0, 0.0, -2895.601438951664, 0.0]
['beep', 0.0, -3376.610979629872, 0.0, 0.0, 0.0, 0.0, -2918.735494462907, 0.0]
['beep', 0.0, -3375.4710406626514, 0.0, 0.0, 0.0, 0.0, -2928.3243928342335, 0.0]
['beep', 0.0, -3371.5371336385174, 0.0, 0.0, 0.0, 0.0, -2910.867680414639, 0.0]
['beep', 0.0, -3366.99972951409, 0.0, 0.0, 0.0, 0.0, -2890.1699650490245, 0.0]
['beep', 0.0, -3370.1736772267436, 0.0, 0.0, 0.0, 0.0, -2896.6519709410636, 0.0]
['beep', 0.0, -3375.9180755517577, 0.0, 0.0, 0.0, 0.0, -2922.311773575756, 0.0]
['beep', 0.0, -3374.4652121621625, 0.0, 0.0, 0.0, 0.0, -2932.012430669359, 0.0]
['beep', 0.0, -3369.3690144263524, 0.0, 0.0, 0.0, 0.0, -2912.6558199710635, 0.0]
['beep', 0.0, -3368.027909759034, 0.0, 0.0, 0.0, 0.0, -2890.6840551714963, 0.0]
['beep', 0.0, -3369.748994082093, 0.0, 0.0, 0.0, 0.0, -2895.512031973843, 0.0]
['beep', 0.0, -3374.5322673955284, 0.0, 0.0, 0.0, 0.0, -2920.05424738577, 0.0]
['beep', 0.0, -3375.292226707009, 0.0, 0.0, 0.0, 0.0, -2927.8773579451276, 0.0]
['beep', 0.0, -3369.346662681897, 0.0, 0.0, 0.0, 0.0, -2908.610154224653, 0.0]
['beep', 0.0, -3366.217418458154, 0.0, 0.0, 0.0, 0.0, -2886.7501481473623, 0.0]
['beep', 0.0, -3369.1678487262548, 0.0, 0.0, 0.0, 0.0, -2893.1650988060355, 0.0]
['beep', 0.0, -3375.225171473643, 0.0, 0.0, 0.0, 0.0, -2917.6179072401414, 0.0]
['beep', 0.0, -3375.7616133405704, 0.0, 0.0, 0.0, 0.0, -2928.0114684118594, 0.0]
['beep', 0.0, -3368.43024115923, 0.0, 0.0, 0.0, 0.0, -2910.6888664589965, 0.0]
['beep', 0.0, -3367.133839980822, 0.0, 0.0, 0.0, 0.0, -2889.0076743373484, 0.0]
['beep', 0.0, -3372.006520272079, 0.0, 0.0, 0.0, 0.0, -2893.723892417418, 0.0]
['beep', 0.0, -3374.711081351171, 0.0, 0.0, 0.0, 0.0, -2918.9143084185494, 0.0]
['beep', 0.0, -3373.8840668063244, 0.0, 0.0, 0.0, 0.0, -2930.470160301943, 0.0]
['beep', 0.0, -3371.8500580608916, 0.0, 0.0, 0.0, 0.0, -2911.851157170672, 0.0]
['beep', 0.0, -3367.6926335922044, 0.0, 0.0, 0.0, 0.0, -2890.3040755157563, 0.0]
['beep', 0.0, -3370.2407324601095, 0.0, 0.0, 0.0, 0.0, -2896.3613982631446, 0.0]
['beep', 0.0, -3376.7003866076934, 0.0, 0.0, 0.0, 0.0, -2920.993020652893, 0.0]
['beep', 0.0, -3376.163944740766, 0.0, 0.0, 0.0, 0.0, -2932.012430669359, 0.0]
['beep', 0.0, -3372.945293539202, 0.0, 0.0, 0.0, 0.0, -2913.125206604625, 0.0]
['beep', 0.0, -3369.681938848727, 0.0, 0.0, 0.0, 0.0, -2891.600476694164, 0.0]
['beep', 0.0, -3371.514781894062, 0.0, 0.0, 0.0, 0.0, -2894.7520726623625, 0.0]
['beep', 0.0, -3375.515744151562, 0.0, 0.0, 0.0, 0.0, -2917.8637764291498, 0.0]
['beep', 0.0, -3375.0463575180006, 0.0, 0.0, 0.0, 0.0, -2927.899709689583, 0.0]
['beep', 0.0, -3372.1853342277213, 0.0, 0.0, 0.0, 0.0, -2910.219479825435, 0.0]
['beep', 0.0, -3368.832572559425, 0.0, 0.0, 0.0, 0.0, -2890.2146685379353, 0.0]
['beep', 0.0, -3371.1348022383218, 0.0, 0.0, 0.0, 0.0, -2895.020293595826, 0.0]
['beep', 0.0, -3375.8510203183914, 0.0, 0.0, 0.0, 0.0, -2918.1767008515244, 0.0]
['beep', 0.0, -3376.9909592856125, 0.0, 0.0, 0.0, 0.0, -2929.7102009904625, 0.0]
['beep', 0.0, -3373.2135144726653, 0.0, 0.0, 0.0, 0.0, -2913.214613582446, 0.0]
['beep', 0.0, -3368.452592903685, 0.0, 0.0, 0.0, 0.0, -2892.4274912390106, 0.0]
['beep', 0.0, -3370.352491182386, 0.0, 0.0, 0.0, 0.0, -2896.1602325630465, 0.0]
['beep', 0.0, -3374.062880761967, 0.0, 0.0, 0.0, 0.0, -2919.5848607522084, 0.0]
['beep', 0.0, -3375.806316829481, 0.0, 0.0, 0.0, 0.0, -2929.3525730791775, 0.0]
['beep', 0.0, -3370.8218778159476, 0.0, 0.0, 0.0, 0.0, -2911.024142625826, 0.0]
['beep', 0.0, -3365.9715492691457, 0.0, 0.0, 0.0, 0.0, -2889.2758952708123, 0.0]
['beep', 0.0, -3368.072613247945, 0.0, 0.0, 0.0, 0.0, -2893.0980435726697, 0.0]
['beep', 0.0, -3372.744127839104, 0.0, 0.0, 0.0, 0.0, -2917.506148517865, 0.0]
['beep', 0.0, -3373.4817354061292, 0.0, 0.0, 0.0, 0.0, -2930.2913463463005, 0.0]
['beep', 0.0, -3369.748994082093, 0.0, 0.0, 0.0, 0.0, -2911.895860659583, 0.0]
['beep', 0.0, -3366.8209155584477, 0.0, 0.0, 0.0, 0.0, -2889.030026081804, 0.0]
['beep', 0.0, -3368.1843719702215, 0.0, 0.0, 0.0, 0.0, -2894.4614999844434, 0.0]
['beep', 0.0, -3374.4428604177074, 0.0, 0.0, 0.0, 0.0, -2916.9473549064824, 0.0]
['beep', 0.0, -3374.956950540179, 0.0, 0.0, 0.0, 0.0, -2926.2009771109792, 0.0]
['beep', 0.0, -3370.1513254822885, 0.0, 0.0, 0.0, 0.0, -2908.118415846636, 0.0]
['beep', 0.0, -3367.0444330030004, 0.0, 0.0, 0.0, 0.0, -2886.6830929139965, 0.0]
['beep', 0.0, -3367.223246958643, 0.0, 0.0, 0.0, 0.0, -2893.4556714839546, 0.0]
['beep', 0.0, -3371.425374916241, 0.0, 0.0, 0.0, 0.0, -2919.67426773003, 0.0]
['beep', 0.0, -3371.939465038713, 0.0, 0.0, 0.0, 0.0, -2930.827788213228, 0.0]
['beep', 0.0, -3369.9054562932797, 0.0, 0.0, 0.0, 0.0, -2912.6111164821527, 0.0]
['beep', 0.0, -3367.066784747456, 0.0, 0.0, 0.0, 0.0, -2889.387653993089, 0.0]
['beep', 0.0, -3368.5867033704167, 0.0, 0.0, 0.0, 0.0, -2890.57229644922, 0.0]
['beep', 0.0, -3373.1241074948443, 0.0, 0.0, 0.0, 0.0, -2913.48283451591, 0.0]
['beep', 0.0, -3374.7557848400816, 0.0, 0.0, 0.0, 0.0, -2926.022163155337, 0.0]
['beep', 0.0, -3370.352491182386, 0.0, 0.0, 0.0, 0.0, -2909.4371687694993, 0.0]
['beep', 0.0, -3364.9433690242017, 0.0, 0.0, 0.0, 0.0, -2888.0465493257702, 0.0]
['beep', 0.0, -3367.871447547847, 0.0, 0.0, 0.0, 0.0, -2891.5110697163427, 0.0]
['beep', 0.0, -3375.247523218098, 0.0, 0.0, 0.0, 0.0, -2913.192261837991, 0.0]
['beep', 0.0, -3373.548790639495, 0.0, 0.0, 0.0, 0.0, -2923.027029398326, 0.0]
['beep', 0.0, -3365.815087057959, 0.0, 0.0, 0.0, 0.0, -2899.7812151648063, 0.0]
['beep', 0.0, -3362.4176219007522, 0.0, 0.0, 0.0, 0.0, -2871.506258428843, 0.0]
['beep', 0.0, -3363.781078312526, 0.0, 0.0, 0.0, 0.0, -2871.3050927287454, 0.0]
['beep', 0.0, -3367.0444330030004, 0.0, 0.0, 0.0, 0.0, -2887.1971830364687, 0.0]
['beep', 0.0, -3366.6644533472604, 0.0, 0.0, 0.0, 0.0, -2888.6500464260635, 0.0]
['beep', 0.0, -3359.7354125661154, 0.0, 0.0, 0.0, 0.0, -2865.4265839369996, 0.0]
['beep', 0.0, -3355.71209856416, 0.0, 0.0, 0.0, 0.0, -2834.9164527555054, 0.0]
['beep', 0.0, -3357.7908107985036, 0.0, 0.0, 0.0, 0.0, -2831.2731184092904, 0.0]
['beep', 0.0, -3364.138706223811, 0.0, 0.0, 0.0, 0.0, -2850.4956186408544, 0.0]
['beep', 0.0, -3365.837438802414, 0.0, 0.0, 0.0, 0.0, -2857.7822873332843, 0.0]
['beep', 0.0, -3361.52355212254, 0.0, 0.0, 0.0, 0.0, -2835.698763811441, 0.0]
['beep', 0.0, -3359.5565986104725, 0.0, 0.0, 0.0, 0.0, -2812.0953216666367, 0.0]
['beep', 0.0, -3362.61878760085, 0.0, 0.0, 0.0, 0.0, -2816.185690901958, 0.0]
['beep', 0.0, -3366.9773777696346, 0.0, 0.0, 0.0, 0.0, -2842.0690109812035, 0.0]
['beep', 0.0, -3367.2008952141878, 0.0, 0.0, 0.0, 0.0, -2856.195313476958, 0.0]
['beep', 0.0, -3361.5682556114502, 0.0, 0.0, 0.0, 0.0, -2840.929072013983, 0.0]
['beep', 0.0, -3357.991976498601, 0.0, 0.0, 0.0, 0.0, -2818.9349554699606, 0.0]
['beep', 0.0, -3358.6625288322603, 0.0, 0.0, 0.0, 0.0, -2822.51123458281, 0.0]
['beep', 0.0, -3364.7645550685593, 0.0, 0.0, 0.0, 0.0, -2846.539359872265, 0.0]
['beep', 0.0, -3366.8879707918136, 0.0, 0.0, 0.0, 0.0, -2858.497543155854, 0.0]
['beep', 0.0, -3362.4176219007522, 0.0, 0.0, 0.0, 0.0, -2841.5549208587317, 0.0]
['beep', 0.0, -3358.349604409886, 0.0, 0.0, 0.0, 0.0, -2819.5384525702543, 0.0]
['beep', 0.0, -3360.361261410864, 0.0, 0.0, 0.0, 0.0, -2824.8134642617065, 0.0]
['beep', 0.0, -3365.032776002023, 0.0, 0.0, 0.0, 0.0, -2849.8697697961056, 0.0]
['beep', 0.0, -3365.4351074022184, 0.0, 0.0, 0.0, 0.0, -2861.5597321462315, 0.0]
['beep', 0.0, -3361.8588282893693, 0.0, 0.0, 0.0, 0.0, -2844.840627293662, 0.0]
['beep', 0.0, -3356.5391131090064, 0.0, 0.0, 0.0, 0.0, -2823.0476764497375, 0.0]
['beep', 0.0, -3359.4001363992857, 0.0, 0.0, 0.0, 0.0, -2826.869824751595, 0.0]
['beep', 0.0, -3367.0220812585453, 0.0, 0.0, 0.0, 0.0, -2849.7133075849188, 0.0]
['beep', 0.0, -3365.9715492691457, 0.0, 0.0, 0.0, 0.0, -2861.7161943574183, 0.0]
['beep', 0.0, -3360.8529997888804, 0.0, 0.0, 0.0, 0.0, -2846.6511185945415, 0.0]
['beep', 0.0, -3357.1649619537548, 0.0, 0.0, 0.0, 0.0, -2827.4062666185223, 0.0]
['beep', 0.0, -3358.28254917652, 0.0, 0.0, 0.0, 0.0, -2830.2449381643464, 0.0]
['beep', 0.0, -3364.9433690242017, 0.0, 0.0, 0.0, 0.0, -2854.4965808983543, 0.0]
['beep', 0.0, -3365.7033283356823, 0.0, 0.0, 0.0, 0.0, -2867.795868849262, 0.0]
['beep', 0.0, -3360.8306480444253, 0.0, 0.0, 0.0, 0.0, -2851.8814267970833, 0.0]
['beep', 0.0, -3357.4331828872187, 0.0, 0.0, 0.0, 0.0, -2829.149702686036, 0.0]
['beep', 0.0, -3360.160095710766, 0.0, 0.0, 0.0, 0.0, -2830.6249178200865, 0.0]
['beep', 0.0, -3365.748031824593, 0.0, 0.0, 0.0, 0.0, -2854.7200983429075, 0.0]
['beep', 0.0, -3365.6362731023164, 0.0, 0.0, 0.0, 0.0, -2869.271083983312, 0.0]
['beep', 0.0, -3360.607130599872, 0.0, 0.0, 0.0, 0.0, -2853.5578076312313, 0.0]
['beep', 0.0, -3357.5449416094953, 0.0, 0.0, 0.0, 0.0, -2831.831912020673, 0.0]
['beep', 0.0, -3360.8306480444253, 0.0, 0.0, 0.0, 0.0, -2834.8717492665946, 0.0]
['beep', 0.0, -3364.80925855747, 0.0, 0.0, 0.0, 0.0, -2858.162266989025, 0.0]
['beep', 0.0, -3366.8209155584477, 0.0, 0.0, 0.0, 0.0, -2871.193334006469, 0.0]
['beep', 0.0, -3361.7247178226376, 0.0, 0.0, 0.0, 0.0, -2854.1389529870694, 0.0]
['beep', 0.0, -3357.9472730096904, 0.0, 0.0, 0.0, 0.0, -2831.2284149203797, 0.0]
['beep', 0.0, -3359.1766189547325, 0.0, 0.0, 0.0, 0.0, -2833.709458554919, 0.0]
['beep', 0.0, -3363.6022643568836, 0.0, 0.0, 0.0, 0.0, -2860.3750896901, 0.0]
['beep', 0.0, -3363.870485290347, 0.0, 0.0, 0.0, 0.0, -2872.176810762502, 0.0]
['beep', 0.0, -3360.9200550222463, 0.0, 0.0, 0.0, 0.0, -2854.630691365086, 0.0]
['beep', 0.0, -3359.33308116592, 0.0, 0.0, 0.0, 0.0, -2833.217720176902, 0.0]
['beep', 0.0, -3360.2047991996765, 0.0, 0.0, 0.0, 0.0, -2835.475246366888, 0.0]
['beep', 0.0, -3363.9822440126236, 0.0, 0.0, 0.0, 0.0, -2859.145743745058, 0.0]
['beep', 0.0, -3364.80925855747, 0.0, 0.0, 0.0, 0.0, -2871.3497962176557, 0.0]
['beep', 0.0, -3360.8529997888804, 0.0, 0.0, 0.0, 0.0, -2855.4353541654773, 0.0]
['beep', 0.0, -3356.673223575738, 0.0, 0.0, 0.0, 0.0, -2834.1341416995697, 0.0]
['beep', 0.0, -3357.7237555651377, 0.0, 0.0, 0.0, 0.0, -2836.1681504450025, 0.0]
['beep', 0.0, -3363.7363748236153, 0.0, 0.0, 0.0, 0.0, -2860.6433106235636, 0.0]
['beep', 0.0, -3364.608092857372, 0.0, 0.0, 0.0, 0.0, -2874.3672817191223, 0.0]
['beep', 0.0, -3359.1766189547325, 0.0, 0.0, 0.0, 0.0, -2857.6928803554633, 0.0]
['beep', 0.0, -3357.053203231478, 0.0, 0.0, 0.0, 0.0, -2833.508292854821, 0.0]
['beep', 0.0, -3357.1873136982103, 0.0, 0.0, 0.0, 0.0, -2837.4645516234104, 0.0]
['beep', 0.0, -3361.7470695670927, 0.0, 0.0, 0.0, 0.0, -2863.034947280282, 0.0]
['beep', 0.0, -3365.5915696134057, 0.0, 0.0, 0.0, 0.0, -2875.9095520865385, 0.0]
['beep', 0.0, -3360.8529997888804, 0.0, 0.0, 0.0, 0.0, -2859.570426889709, 0.0]
['beep', 0.0, -3356.002671242079, 0.0, 0.0, 0.0, 0.0, -2835.922281255994, 0.0]
['beep', 0.0, -3358.2154939431543, 0.0, 0.0, 0.0, 0.0, -2836.6822405674748, 0.0]
['beep', 0.0, -3363.4458021456962, 0.0, 0.0, 0.0, 0.0, -2861.7832495907846, 0.0]
['beep', 0.0, -3364.3175201794534, 0.0, 0.0, 0.0, 0.0, -2876.021310808815, 0.0]
['beep', 0.0, -3359.936578266213, 0.0, 0.0, 0.0, 0.0, -2859.3916129340664, 0.0]
['beep', 0.0, -3354.348642152386, 0.0, 0.0, 0.0, 0.0, -2836.414019634011, 0.0]
['beep', 0.0, -3357.097906720389, 0.0, 0.0, 0.0, 0.0, -2837.933938256972, 0.0]
['beep', 0.0, -3363.356395167875, 0.0, 0.0, 0.0, 0.0, -2861.7161943574183, 0.0]
['beep', 0.0, -3364.80925855747, 0.0, 0.0, 0.0, 0.0, -2875.797793364262, 0.0]
['beep', 0.0, -3359.288377677009, 0.0, 0.0, 0.0, 0.0, -2859.9727582899045, 0.0]
['beep', 0.0, -3357.254368931576, 0.0, 0.0, 0.0, 0.0, -2836.726944056385, 0.0]
['beep', 0.0, -3358.483714876618, 0.0, 0.0, 0.0, 0.0, -2836.279909167279, 0.0]
['beep', 0.0, -3363.0434707455006, 0.0, 0.0, 0.0, 0.0, -2859.6598338675303, 0.0]
['beep', 0.0, -3365.256293446576, 0.0, 0.0, 0.0, 0.0, -2872.735604373885, 0.0]
['beep', 0.0, -3358.8189910434476, 0.0, 0.0, 0.0, 0.0, -2857.156438488536, 0.0]
['beep', 0.0, -3355.8909125198024, 0.0, 0.0, 0.0, 0.0, -2836.4810748673767, 0.0]
['beep', 0.0, -3358.8860462768134, 0.0, 0.0, 0.0, 0.0, -2837.7774760457846, 0.0]
['beep', 0.0, -3362.574084111939, 0.0, 0.0, 0.0, 0.0, -2862.5208571578096, 0.0]
['beep', 0.0, -3361.836476544914, 0.0, 0.0, 0.0, 0.0, -2877.5859329206864, 0.0]
['beep', 0.0, -3359.0425084880007, 0.0, 0.0, 0.0, 0.0, -2861.067993768215, 0.0]
['beep', 0.0, -3355.8685607753473, 0.0, 0.0, 0.0, 0.0, -2836.70459231193, 0.0]
['beep', 0.0, -3358.908398021269, 0.0, 0.0, 0.0, 0.0, -2837.285737667768, 0.0]
['beep', 0.0, -3363.9598922681685, 0.0, 0.0, 0.0, 0.0, -2860.9338833014826, 0.0]
['beep', 0.0, -3364.965720768657, 0.0, 0.0, 0.0, 0.0, -2873.09323228517, 0.0]
['beep', 0.0, -3361.545903866995, 0.0, 0.0, 0.0, 0.0, -2858.162266989025, 0.0]
['beep', 0.0, -3355.5556363529727, 0.0, 0.0, 0.0, 0.0, -2833.865920766106, 0.0]
['beep', 0.0, -3355.689746819705, 0.0, 0.0, 0.0, 0.0, -2832.6142230766086, 0.0]
['beep', 0.0, -3362.641139345305, 0.0, 0.0, 0.0, 0.0, -2853.7813250757845, 0.0]
['beep', 0.0, -3365.18923821321, 0.0, 0.0, 0.0, 0.0, -2865.4265839369996, 0.0]
['beep', 0.0, -3359.064860232456, 0.0, 0.0, 0.0, 0.0, -2847.5898918616645, 0.0]
['beep', 0.0, -3351.2417496730986, 0.0, 0.0, 0.0, 0.0, -2824.634650306064, 0.0]
['beep', 0.0, -3354.2815869190204, 0.0, 0.0, 0.0, 0.0, -2824.0758566946815, 0.0]
['beep', 0.0, -3361.612959100361, 0.0, 0.0, 0.0, 0.0, -2846.159380216525, 0.0]
['beep', 0.0, -3361.635310844816, 0.0, 0.0, 0.0, 0.0, -2858.6316536225863, 0.0]
['beep', 0.0, -3356.069726475445, 0.0, 0.0, 0.0, 0.0, -2843.2313016928797, 0.0]
['beep', 0.0, -3352.381688640319, 0.0, 0.0, 0.0, 0.0, -2820.633688048564, 0.0]
['beep', 0.0, -3356.4720578756405, 0.0, 0.0, 0.0, 0.0, -2821.058371193215, 0.0]
['beep', 0.0, -3362.9540637676796, 0.0, 0.0, 0.0, 0.0, -2844.840627293662, 0.0]
['beep', 0.0, -3361.1212207223443, 0.0, 0.0, 0.0, 0.0, -2861.827953079695, 0.0]
['beep', 0.0, -3355.689746819705, 0.0, 0.0, 0.0, 0.0, -2848.5510168732426, 0.0]
['beep', 0.0, -3353.0522409739783, 0.0, 0.0, 0.0, 0.0, -2825.7075340399188, 0.0]
['beep', 0.0, -3355.5779880974283, 0.0, 0.0, 0.0, 0.0, -2824.835816006162, 0.0]
['beep', 0.0, -3362.4623253896625, 0.0, 0.0, 0.0, 0.0, -2847.701650583941, 0.0]
['beep', 0.0, -3364.876313790836, 0.0, 0.0, 0.0, 0.0, -2860.9562350459382, 0.0]
['beep', 0.0, -3360.0706887329447, 0.0, 0.0, 0.0, 0.0, -2846.0699732387034, 0.0]
['beep', 0.0, -3355.6003398418834, 0.0, 0.0, 0.0, 0.0, -2824.3664293726006, 0.0]
['beep', 0.0, -3355.8909125198024, 0.0, 0.0, 0.0, 0.0, -2826.1322171845695, 0.0]
['beep', 0.0, -3360.294206177498, 0.0, 0.0, 0.0, 0.0, -2849.5344936292763, 0.0]
['beep', 0.0, -3361.612959100361, 0.0, 0.0, 0.0, 0.0, -2864.1078310141365, 0.0]
['beep', 0.0, -3359.7801160550257, 0.0, 0.0, 0.0, 0.0, -2848.8639412956168, 0.0]
['beep', 0.0, -3357.097906720389, 0.0, 0.0, 0.0, 0.0, -2825.908699740017, 0.0]
['beep', 0.0, -3357.9472730096904, 0.0, 0.0, 0.0, 0.0, -2827.3615631296116, 0.0]
['beep', 0.0, -3363.199932956688, 0.0, 0.0, 0.0, 0.0, -2849.7133075849188, 0.0]
['beep', 0.0, -3364.0269475015343, 0.0, 0.0, 0.0, 0.0, -2862.9455403024604, 0.0]
['beep', 0.0, -3359.1989706991876, 0.0, 0.0, 0.0, 0.0, -2847.701650583941, 0.0]
['beep', 0.0, -3354.5945113413945, 0.0, 0.0, 0.0, 0.0, -2825.6851822954636, 0.0]
['beep', 0.0, -3356.9190927647464, 0.0, 0.0, 0.0, 0.0, -2828.188577674458, 0.0]
['beep', 0.0, -3362.1717527117435, 0.0, 0.0, 0.0, 0.0, -2851.7249645858965, 0.0]
['beep', 0.0, -3360.964758511157, 0.0, 0.0, 0.0, 0.0, -2865.247769981357, 0.0]
['beep', 0.0, -3355.1980084416878, 0.0, 0.0, 0.0, 0.0, -2849.445086651455, 0.0]
['beep', 0.0, -3351.3535083953752, 0.0, 0.0, 0.0, 0.0, -2824.947574728438, 0.0]
['beep', 0.0, -3354.773325297037, 0.0, 0.0, 0.0, 0.0, -2824.2993741392347, 0.0]
['beep', 0.0, -3359.33308116592, 0.0, 0.0, 0.0, 0.0, -2845.779400560785, 0.0]
['beep', 0.0, -3361.1435724667995, 0.0, 0.0, 0.0, 0.0, -2860.4868484123767, 0.0]
['beep', 0.0, -3358.9531015101793, 0.0, 0.0, 0.0, 0.0, -2847.5451883727537, 0.0]
['beep', 0.0, -3353.18635144071, 0.0, 0.0, 0.0, 0.0, -2826.2663276513017, 0.0]
['beep', 0.0, -3355.421525886241, 0.0, 0.0, 0.0, 0.0, -2827.0039352183267, 0.0]
['beep', 0.0, -3359.1542672102773, 0.0, 0.0, 0.0, 0.0, -2849.668604096008, 0.0]
['beep', 0.0, -3361.165924211255, 0.0, 0.0, 0.0, 0.0, -2864.934845558983, 0.0]
['beep', 0.0, -3356.80733404247, 0.0, 0.0, 0.0, 0.0, -2849.601548862642, 0.0]
['beep', 0.0, -3354.6615665747604, 0.0, 0.0, 0.0, 0.0, -2826.0875136956593, 0.0]
['beep', 0.0, -3357.5002381205845, 0.0, 0.0, 0.0, 0.0, -2827.7191910408965, 0.0]
['beep', 0.0, -3363.646967845794, 0.0, 0.0, 0.0, 0.0, -2850.629729107586, 0.0]
['beep', 0.0, -3364.585741112917, 0.0, 0.0, 0.0, 0.0, -2864.979549047893, 0.0]
['beep', 0.0, -3359.4895433771067, 0.0, 0.0, 0.0, 0.0, -2852.1719994750024, 0.0]
['beep', 0.0, -3354.192179941199, 0.0, 0.0, 0.0, 0.0, -2828.0544672077262, 0.0]
['beep', 0.0, -3355.645043330794, 0.0, 0.0, 0.0, 0.0, -2827.249804407335, 0.0]
['beep', 0.0, -3359.064860232456, 0.0, 0.0, 0.0, 0.0, -2850.048583751748, 0.0]
['beep', 0.0, -3360.1153922218555, 0.0, 0.0, 0.0, 0.0, -2863.1690577470135, 0.0]
['beep', 0.0, -3354.8180287859477, 0.0, 0.0, 0.0, 0.0, -2849.2662726958124, 0.0]
['beep', 0.0, -3351.577025839928, 0.0, 0.0, 0.0, 0.0, -2826.3333828846676, 0.0]
['beep', 0.0, -3353.3651653963525, 0.0, 0.0, 0.0, 0.0, -2826.3557346291227, 0.0]
['beep', 0.0, -3356.42735438673, 0.0, 0.0, 0.0, 0.0, -2850.629729107586, 0.0]
['beep', 0.0, -3358.774287554537, 0.0, 0.0, 0.0, 0.0, -2863.951368802949, 0.0]
['beep', 0.0, -3356.8296857869254, 0.0, 0.0, 0.0, 0.0, -2850.406211663033, 0.0]
['beep', 0.0, -3353.2534066740764, 0.0, 0.0, 0.0, 0.0, -2828.0768189521814, 0.0]
['beep', 0.0, -3355.086249719411, 0.0, 0.0, 0.0, 0.0, -2826.534548584765, 0.0]
['beep', 0.0, -3360.4953718775955, 0.0, 0.0, 0.0, 0.0, -2848.3051476842343, 0.0]
['beep', 0.0, -3362.1046974783776, 0.0, 0.0, 0.0, 0.0, -2862.342043202167, 0.0]
['beep', 0.0, -3358.0813834764226, 0.0, 0.0, 0.0, 0.0, -2848.930996528983, 0.0]
['beep', 0.0, -3351.6664328177494, 0.0, 0.0, 0.0, 0.0, -2826.802769518229, 0.0]
['beep', 0.0, -3354.035717730012, 0.0, 0.0, 0.0, 0.0, -2827.2721561517906, 0.0]
['beep', 0.0, -3359.1766189547325, 0.0, 0.0, 0.0, 0.0, -2850.5626738742203, 0.0]
['beep', 0.0, -3360.897703277791, 0.0, 0.0, 0.0, 0.0, -2865.627749637097, 0.0]
['beep', 0.0, -3356.963796253657, 0.0, 0.0, 0.0, 0.0, -2850.4285634074886, 0.0]
['beep', 0.0, -3352.225226429132, 0.0, 0.0, 0.0, 0.0, -2825.305202639723, 0.0]
['beep', 0.0, -3353.8569037743696, 0.0, 0.0, 0.0, 0.0, -2824.5005398393323, 0.0]
['beep', 0.0, -3360.5624271109614, 0.0, 0.0, 0.0, 0.0, -2847.768705817307, 0.0]
['beep', 0.0, -3361.836476544914, 0.0, 0.0, 0.0, 0.0, -2865.247769981357, 0.0]
['beep', 0.0, -3356.6061683423723, 0.0, 0.0, 0.0, 0.0, -2850.2050459629354, 0.0]
['beep', 0.0, -3352.2922816624978, 0.0, 0.0, 0.0, 0.0, -2826.2663276513017, 0.0]
['beep', 0.0, -3352.739316551604, 0.0, 0.0, 0.0, 0.0, -2825.6181270620978, 0.0]
['beep', 0.0, -3357.8578660318694, 0.0, 0.0, 0.0, 0.0, -2848.930996528983, 0.0]
['beep', 0.0, -3361.277682933531, 0.0, 0.0, 0.0, 0.0, -2860.419793179011, 0.0]
['beep', 0.0, -3356.9190927647464, 0.0, 0.0, 0.0, 0.0, -2845.891159283061, 0.0]
['beep', 0.0, -3353.476924118629, 0.0, 0.0, 0.0, 0.0, -2823.293545638746, 0.0]
['beep', 0.0, -3354.5721595969394, 0.0, 0.0, 0.0, 0.0, -2822.2653653938014, 0.0]
['beep', 0.0, -3358.8636945323583, 0.0, 0.0, 0.0, 0.0, -2847.344022672656, 0.0]
['beep', 0.0, -3359.936578266213, 0.0, 0.0, 0.0, 0.0, -2866.0077292928377, 0.0]
['beep', 0.0, -3355.37682239733, 0.0, 0.0, 0.0, 0.0, -2852.663737853019, 0.0]
['beep', 0.0, -3351.800543284481, 0.0, 0.0, 0.0, 0.0, -2826.735714284863, 0.0]
['beep', 0.0, -3353.812200285459, 0.0, 0.0, 0.0, 0.0, -2824.545243328243, 0.0]
['beep', 0.0, -3360.8529997888804, 0.0, 0.0, 0.0, 0.0, -2846.2934906832566, 0.0]
['beep', 0.0, -3363.4234504012406, 0.0, 0.0, 0.0, 0.0, -2861.5820838906866, 0.0]
['beep', 0.0, -3356.9190927647464, 0.0, 0.0, 0.0, 0.0, -2849.042755251259, 0.0]
['beep', 0.0, -3350.459438617163, 0.0, 0.0, 0.0, 0.0, -2823.4947113388434, 0.0]
['beep', 0.0, -3351.778191540026, 0.0, 0.0, 0.0, 0.0, -2818.8231967476845, 0.0]
['beep', 0.0, -3357.991976498601, 0.0, 0.0, 0.0, 0.0, -2840.0350022357707, 0.0]
['beep', 0.0, -3360.9200550222463, 0.0, 0.0, 0.0, 0.0, -2856.865865810617, 0.0]
['beep', 0.0, -3354.9074357637687, 0.0, 0.0, 0.0, 0.0, -2843.0301359927817, 0.0]
['beep', 0.0, -3351.3758601398304, 0.0, 0.0, 0.0, 0.0, -2820.2760601372793, 0.0]
['beep', 0.0, -3353.7898485410037, 0.0, 0.0, 0.0, 0.0, -2819.2031764034245, 0.0]
['beep', 0.0, -3361.6576625892717, 0.0, 0.0, 0.0, 0.0, -2842.2925284257567, 0.0]
['beep', 0.0, -3362.3058631784756, 0.0, 0.0, 0.0, 0.0, -2858.0728600112034, 0.0]
['beep', 0.0, -3357.8802177763246, 0.0, 0.0, 0.0, 0.0, -2843.767743559807, 0.0]
['beep', 0.0, -3354.348642152386, 0.0, 0.0, 0.0, 0.0, -2818.2420513918464, 0.0]
['beep', 0.0, -3354.8180287859477, 0.0, 0.0, 0.0, 0.0, -2814.419903089989, 0.0]
['beep', 0.0, -3360.1824474552213, 0.0, 0.0, 0.0, 0.0, -2837.4645516234104, 0.0]
['beep', 0.0, -3362.0152905005566, 0.0, 0.0, 0.0, 0.0, -2854.18365647598, 0.0]
['beep', 0.0, -3357.1426102092996, 0.0, 0.0, 0.0, 0.0, -2843.901854026539, 0.0]
['beep', 0.0, -3352.42639212923, 0.0, 0.0, 0.0, 0.0, -2821.8853857380614, 0.0]
['beep', 0.0, -3353.476924118629, 0.0, 0.0, 0.0, 0.0, -2819.5608043147095, 0.0]
['beep', 0.0, -3358.640177087805, 0.0, 0.0, 0.0, 0.0, -2842.0019557478377, 0.0]
['beep', 0.0, -3363.132877723322, 0.0, 0.0, 0.0, 0.0, -2856.865865810617, 0.0]
['beep', 0.0, -3357.7908107985036, 0.0, 0.0, 0.0, 0.0, -2841.7560865588293, 0.0]
['beep', 0.0, -3352.225226429132, 0.0, 0.0, 0.0, 0.0, -2818.5326240697655, 0.0]
['beep', 0.0, -3354.5721595969394, 0.0, 0.0, 0.0, 0.0, -2816.6774292799746, 0.0]
['beep', 0.0, -3358.8189910434476, 0.0, 0.0, 0.0, 0.0, -2840.280871424779, 0.0]
['beep', 0.0, -3362.194104456199, 0.0, 0.0, 0.0, 0.0, -2856.3741274326003, 0.0]
['beep', 0.0, -3356.5391131090064, 0.0, 0.0, 0.0, 0.0, -2845.220606949402, 0.0]
['beep', 0.0, -3351.845246773392, 0.0, 0.0, 0.0, 0.0, -2821.8183305046955, 0.0]
['beep', 0.0, -3352.6722613182383, 0.0, 0.0, 0.0, 0.0, -2819.806673503718, 0.0]
['beep', 0.0, -3359.37778465483, 0.0, 0.0, 0.0, 0.0, -2842.2031214479357, 0.0]
['beep', 0.0, -3362.6634910897606, 0.0, 0.0, 0.0, 0.0, -2857.7152320999185, 0.0]
['beep', 0.0, -3359.310729421464, 0.0, 0.0, 0.0, 0.0, -2844.5277028712876, 0.0]
['beep', 0.0, -3353.745145052093, 0.0, 0.0, 0.0, 0.0, -2820.767798515296, 0.0]
['beep', 0.0, -3355.354470652875, 0.0, 0.0, 0.0, 0.0, -2818.9796589588714, 0.0]
['beep', 0.0, -3359.958930010668, 0.0, 0.0, 0.0, 0.0, -2840.3032231692346, 0.0]
['beep', 0.0, -3360.9871102556126, 0.0, 0.0, 0.0, 0.0, -2857.08938325517, 0.0]
['beep', 0.0, -3355.8685607753473, 0.0, 0.0, 0.0, 0.0, -2843.544226115254, 0.0]
['beep', 0.0, -3351.3758601398304, 0.0, 0.0, 0.0, 0.0, -2819.9854874593602, 0.0]
['beep', 0.0, -3353.968662496646, 0.0, 0.0, 0.0, 0.0, -2819.381990359067, 0.0]
['beep', 0.0, -3357.701403820682, 0.0, 0.0, 0.0, 0.0, -2841.80079004774, 0.0]
['beep', 0.0, -3360.3389096664087, 0.0, 0.0, 0.0, 0.0, -2856.9999762773487, 0.0]
['beep', 0.0, -3357.2096654426655, 0.0, 0.0, 0.0, 0.0, -2844.125371471092, 0.0]
['beep', 0.0, -3354.3709938968414, 0.0, 0.0, 0.0, 0.0, -2820.4548740929217, 0.0]
['beep', 0.0, -3354.7286218081263, 0.0, 0.0, 0.0, 0.0, -2817.79501650274, 0.0]
['beep', 0.0, -3360.741241066604, 0.0, 0.0, 0.0, 0.0, -2840.549092358243, 0.0]
['beep', 0.0, -3362.216456200654, 0.0, 0.0, 0.0, 0.0, -2856.485886154877, 0.0]
['beep', 0.0, -3358.126086965333, 0.0, 0.0, 0.0, 0.0, -2845.220606949402, 0.0]
['beep', 0.0, -3353.18635144071, 0.0, 0.0, 0.0, 0.0, -2819.381990359067, 0.0]
['beep', 0.0, -3353.18635144071, 0.0, 0.0, 0.0, 0.0, -2816.6774292799746, 0.0]
['beep', 0.0, -3359.2436741880983, 0.0, 0.0, 0.0, 0.0, -2838.4703801238993, 0.0]
['beep', 0.0, -3361.4117934002634, 0.0, 0.0, 0.0, 0.0, -2855.6588716100305, 0.0]
['beep', 0.0, -3357.1426102092996, 0.0, 0.0, 0.0, 0.0, -2843.7230400708963, 0.0]
['beep', 0.0, -3353.2981101629866, 0.0, 0.0, 0.0, 0.0, -2819.069065936693, 0.0]
['beep', 0.0, -3355.6003398418834, 0.0, 0.0, 0.0, 0.0, -2816.3198013686897, 0.0]
['beep', 0.0, -3361.5012003780844, 0.0, 0.0, 0.0, 0.0, -2838.917415013005, 0.0]
['beep', 0.0, -3360.249502688587, 0.0, 0.0, 0.0, 0.0, -2856.0388512657705, 0.0]
['beep', 0.0, -3358.6625288322603, 0.0, 0.0, 0.0, 0.0, -2844.6841650824745, 0.0]
['beep', 0.0, -3354.9521392526794, 0.0, 0.0, 0.0, 0.0, -2819.3372868701563, 0.0]
['beep', 0.0, -3353.52162760754, 0.0, 0.0, 0.0, 0.0, -2816.2080426464136, 0.0]
['beep', 0.0, -3359.33308116592, 0.0, 0.0, 0.0, 0.0, -2839.1185807131033, 0.0]
['beep', 0.0, -3359.8918747773023, 0.0, 0.0, 0.0, 0.0, -2857.826990822195, 0.0]
['beep', 0.0, -3355.8238572864366, 0.0, 0.0, 0.0, 0.0, -2845.08649648267, 0.0]
['beep', 0.0, -3351.5323223510177, 0.0, 0.0, 0.0, 0.0, -2820.5442810707427, 0.0]
['beep', 0.0, -3352.225226429132, 0.0, 0.0, 0.0, 0.0, -2818.4879205808547, 0.0]
['beep', 0.0, -3357.321424164942, 0.0, 0.0, 0.0, 0.0, -2840.504388869332, 0.0]
['beep', 0.0, -3359.4895433771067, 0.0, 0.0, 0.0, 0.0, -2856.0388512657705, 0.0]
['beep', 0.0, -3354.1474764522886, 0.0, 0.0, 0.0, 0.0, -2842.4936941258543, 0.0]
['beep', 0.0, -3349.677127561227, 0.0, 0.0, 0.0, 0.0, -2818.9573072144162, 0.0]
['beep', 0.0, -3351.219397928643, 0.0, 0.0, 0.0, 0.0, -2814.933993212461, 0.0]
['beep', 0.0, -3355.8685607753473, 0.0, 0.0, 0.0, 0.0, -2835.542301600254, 0.0]
['beep', 0.0, -3357.321424164942, 0.0, 0.0, 0.0, 0.0, -2853.2001797199464, 0.0]
['beep', 0.0, -3354.393345641297, 0.0, 0.0, 0.0, 0.0, -2842.9407290149607, 0.0]
['beep', 0.0, -3349.453610116674, 0.0, 0.0, 0.0, 0.0, -2818.376161858578, 0.0]
['beep', 0.0, -3354.3709938968414, 0.0, 0.0, 0.0, 0.0, -2815.0681036791925, 0.0]
['beep', 0.0, -3363.0211190010455, 0.0, 0.0, 0.0, 0.0, -2838.1351039570695, 0.0]
['beep', 0.0, -3364.742203324104, 0.0, 0.0, 0.0, 0.0, -2854.2954151982567, 0.0]
['beep', 0.0, -3357.768459054048, 0.0, 0.0, 0.0, 0.0, -2841.9796040033825, 0.0]
['beep', 0.0, -3352.359336895864, 0.0, 0.0, 0.0, 0.0, -2820.253708392824, 0.0]
['beep', 0.0, -3353.2981101629866, 0.0, 0.0, 0.0, 0.0, -2817.727961269374, 0.0]
['beep', 0.0, -3357.8131625429587, 0.0, 0.0, 0.0, 0.0, -2838.582138846176, 0.0]
['beep', 0.0, -3361.9482352671907, 0.0, 0.0, 0.0, 0.0, -2855.7482785878515, 0.0]
['beep', 0.0, -3357.701403820682, 0.0, 0.0, 0.0, 0.0, -2843.0077842483265, 0.0]
['beep', 0.0, -3353.7004415631823, 0.0, 0.0, 0.0, 0.0, -2817.2585746358127, 0.0]
['beep', 0.0, -3356.2038369421766, 0.0, 0.0, 0.0, 0.0, -2814.4646065788993, 0.0]
['beep', 0.0, -3360.517723622051, 0.0, 0.0, 0.0, 0.0, -2837.7551243013295, 0.0]
['beep', 0.0, -3362.23880794511, 0.0, 0.0, 0.0, 0.0, -2854.3848221760777, 0.0]
['beep', 0.0, -3358.394307898797, 0.0, 0.0, 0.0, 0.0, -2844.6171098491086, 0.0]
['beep', 0.0, -3354.058069474467, 0.0, 0.0, 0.0, 0.0, -2820.5889845596535, 0.0]
['beep', 0.0, -3355.8685607753473, 0.0, 0.0, 0.0, 0.0, -2815.828062990673, 0.0]
['beep', 0.0, -3360.4506683886852, 0.0, 0.0, 0.0, 0.0, -2837.7774760457846, 0.0]
['beep', 0.0, -3362.551732367484, 0.0, 0.0, 0.0, 0.0, -2854.2954151982567, 0.0]
['beep', 0.0, -3358.3719561543417, 0.0, 0.0, 0.0, 0.0, -2843.700688326441, 0.0]
['beep', 0.0, -3355.153304952777, 0.0, 0.0, 0.0, 0.0, -2819.829025248173, 0.0]
['beep', 0.0, -3356.8520375313806, 0.0, 0.0, 0.0, 0.0, -2816.185690901958, 0.0]
['beep', 0.0, -3360.7188893221487, 0.0, 0.0, 0.0, 0.0, -2838.6491940795418, 0.0]
['beep', 0.0, -3363.646967845794, 0.0, 0.0, 0.0, 0.0, -2855.9717960324047, 0.0]
['beep', 0.0, -3360.1824474552213, 0.0, 0.0, 0.0, 0.0, -2844.572406360198, 0.0]
['beep', 0.0, -3354.058069474467, 0.0, 0.0, 0.0, 0.0, -2818.353810114123, 0.0]
['beep', 0.0, -3354.5274561080287, 0.0, 0.0, 0.0, 0.0, -2815.5598420572096, 0.0]
['beep', 0.0, -3359.623653843839, 0.0, 0.0, 0.0, 0.0, -2836.1457987005474, 0.0]
['beep', 0.0, -3360.584778855417, 0.0, 0.0, 0.0, 0.0, -2853.513104142321, 0.0]
['beep', 0.0, -3358.394307898797, 0.0, 0.0, 0.0, 0.0, -2841.3984586475444, 0.0]
['beep', 0.0, -3353.2981101629866, 0.0, 0.0, 0.0, 0.0, -2816.498615324332, 0.0]
['beep', 0.0, -3354.482752619118, 0.0, 0.0, 0.0, 0.0, -2814.2634408788017, 0.0]
['beep', 0.0, -3360.0483369884896, 0.0, 0.0, 0.0, 0.0, -2834.9164527555054, 0.0]
['beep', 0.0, -3361.970587011646, 0.0, 0.0, 0.0, 0.0, -2852.060240752726, 0.0]
['beep', 0.0, -3356.650871831283, 0.0, 0.0, 0.0, 0.0, -2842.9854325038714, 0.0]
['beep', 0.0, -3353.678089818727, 0.0, 0.0, 0.0, 0.0, -2818.443217091944, 0.0]
['beep', 0.0, -3355.153304952777, 0.0, 0.0, 0.0, 0.0, -2814.1069786676144, 0.0]
['beep', 0.0, -3360.607130599872, 0.0, 0.0, 0.0, 0.0, -2835.98933648936, 0.0]
['beep', 0.0, -3361.7917730560034, 0.0, 0.0, 0.0, 0.0, -2853.4236971644996, 0.0]
['beep', 0.0, -3357.4778863761294, 0.0, 0.0, 0.0, 0.0, -2843.2760051817904, 0.0]
['beep', 0.0, -3353.3428136518974, 0.0, 0.0, 0.0, 0.0, -2819.381990359067, 0.0]
['beep', 0.0, -3355.2650636750536, 0.0, 0.0, 0.0, 0.0, -2814.285792623257, 0.0]
['beep', 0.0, -3358.5060666210734, 0.0, 0.0, 0.0, 0.0, -2834.6258800775863, 0.0]
['beep', 0.0, -3360.4953718775955, 0.0, 0.0, 0.0, 0.0, -2855.189484976469, 0.0]
['beep', 0.0, -3356.673223575738, 0.0, 0.0, 0.0, 0.0, -2844.9970895048486, 0.0]
['beep', 0.0, -3352.3146334069534, 0.0, 0.0, 0.0, 0.0, -2818.644382792042, 0.0]
['beep', 0.0, -3352.3146334069534, 0.0, 0.0, 0.0, 0.0, -2815.0234001902822, 0.0]
['beep', 0.0, -3357.8578660318694, 0.0, 0.0, 0.0, 0.0, -2835.2740806667903, 0.0]
['beep', 0.0, -3360.8529997888804, 0.0, 0.0, 0.0, 0.0, -2852.8425518086615, 0.0]
['beep', 0.0, -3356.583816597917, 0.0, 0.0, 0.0, 0.0, -2842.51604587031, 0.0]
['beep', 0.0, -3349.90064500578, 0.0, 0.0, 0.0, 0.0, -2818.756141514318, 0.0]
['beep', 0.0, -3350.23592117261, 0.0, 0.0, 0.0, 0.0, -2816.8785949800726, 0.0]
['beep', 0.0, -3355.5332846085175, 0.0, 0.0, 0.0, 0.0, -2837.1963306899465, 0.0]
['beep', 0.0, -3359.8248195439364, 0.0, 0.0, 0.0, 0.0, -2853.960139031427, 0.0]
['beep', 0.0, -3357.8802177763246, 0.0, 0.0, 0.0, 0.0, -2842.7172115704075, 0.0]
['beep', 0.0, -3352.0240607290343, 0.0, 0.0, 0.0, 0.0, -2817.124464169081, 0.0]
['beep', 0.0, -3355.37682239733, 0.0, 0.0, 0.0, 0.0, -2812.6988187669303, 0.0]
['beep', 0.0, -3362.4623253896625, 0.0, 0.0, 0.0, 0.0, -2834.447066121944, 0.0]
['beep', 0.0, -3365.6362731023164, 0.0, 0.0, 0.0, 0.0, -2852.797848319751, 0.0]
['beep', 0.0, -3361.970587011646, 0.0, 0.0, 0.0, 0.0, -2842.6278045925865, 0.0]
['beep', 0.0, -3357.366127653853, 0.0, 0.0, 0.0, 0.0, -2818.5549758142206, 0.0]
['beep', 0.0, -3357.1426102092996, 0.0, 0.0, 0.0, 0.0, -2813.481129822866, 0.0]
['beep', 0.0, -3361.590607355906, 0.0, 0.0, 0.0, 0.0, -2835.5646533447093, 0.0]
['beep', 0.0, -3362.5070288785732, 0.0, 0.0, 0.0, 0.0, -2855.1447814875582, 0.0]
['beep', 0.0, -3358.1484387097885, 0.0, 0.0, 0.0, 0.0, -2844.2371301933686, 0.0]
['beep', 0.0, -3352.6722613182383, 0.0, 0.0, 0.0, 0.0, -2819.2925833812455, 0.0]
['beep', 0.0, -3351.8228950289367, 0.0, 0.0, 0.0, 0.0, -2813.995219945338, 0.0]
['beep', 0.0, -3354.8627322748584, 0.0, 0.0, 0.0, 0.0, -2835.7434673003518, 0.0]
['beep', 0.0, -3357.1426102092996, 0.0, 0.0, 0.0, 0.0, -2853.7813250757845, 0.0]
['beep', 0.0, -3354.125124707833, 0.0, 0.0, 0.0, 0.0, -2842.761915059318, 0.0]
['beep', 0.0, -3348.4701333606404, 0.0, 0.0, 0.0, 0.0, -2818.443217091944, 0.0]
['beep', 0.0, -3349.095982205389, 0.0, 0.0, 0.0, 0.0, -2814.732827512363, 0.0]
['beep', 0.0, -3354.2145316856545, 0.0, 0.0, 0.0, 0.0, -2836.570481845198, 0.0]
['beep', 0.0, -3356.2038369421766, 0.0, 0.0, 0.0, 0.0, -2854.831857065184, 0.0]
['beep', 0.0, -3353.6110345853613, 0.0, 0.0, 0.0, 0.0, -2844.70651682693, 0.0]
['beep', 0.0, -3350.23592117261, 0.0, 0.0, 0.0, 0.0, -2818.9796589588714, 0.0]
['beep', 0.0, -3349.7665345390483, 0.0, 0.0, 0.0, 0.0, -2815.179862401469, 0.0]
['beep', 0.0, -3354.482752619118, 0.0, 0.0, 0.0, 0.0, -2837.285737667768, 0.0]
['beep', 0.0, -3358.99780499909, 0.0, 0.0, 0.0, 0.0, -2854.9436157874607, 0.0]
['beep', 0.0, -3355.5779880974283, 0.0, 0.0, 0.0, 0.0, -2844.840627293662, 0.0]
['beep', 0.0, -3350.906473506269, 0.0, 0.0, 0.0, 0.0, -2819.60550780362, 0.0]
['beep', 0.0, -3353.454572374174, 0.0, 0.0, 0.0, 0.0, -2815.090455423648, 0.0]
['beep', 0.0, -3358.4390113877075, 0.0, 0.0, 0.0, 0.0, -2835.117618455603, 0.0]
['beep', 0.0, -3360.5624271109614, 0.0, 0.0, 0.0, 0.0, -2854.7871535762733, 0.0]
['beep', 0.0, -3356.717927064649, 0.0, 0.0, 0.0, 0.0, -2845.4888278828657, 0.0]
['beep', 0.0, -3351.219397928643, 0.0, 0.0, 0.0, 0.0, -2820.611336304109, 0.0]
['beep', 0.0, -3351.062935717456, 0.0, 0.0, 0.0, 0.0, -2816.2303943908687, 0.0]
['beep', 0.0, -3357.299072420487, 0.0, 0.0, 0.0, 0.0, -2836.7716475452958, 0.0]
['beep', 0.0, -3358.5060666210734, 0.0, 0.0, 0.0, 0.0, -2853.4460489089547, 0.0]
['beep', 0.0, -3355.2427119305985, 0.0, 0.0, 0.0, 0.0, -2843.0524877372372, 0.0]
['beep', 0.0, -3350.5041421060732, 0.0, 0.0, 0.0, 0.0, -2818.5549758142206, 0.0]
['beep', 0.0, -3350.5935490838947, 0.0, 0.0, 0.0, 0.0, -2814.3528478566227, 0.0]
['beep', 0.0, -3355.130953208322, 0.0, 0.0, 0.0, 0.0, -2836.3022609117343, 0.0]
['beep', 0.0, -3358.640177087805, 0.0, 0.0, 0.0, 0.0, -2853.580159375687, 0.0]
['beep', 0.0, -3356.4050026422747, 0.0, 0.0, 0.0, 0.0, -2842.158417959025, 0.0]
['beep', 0.0, -3350.6829560617157, 0.0, 0.0, 0.0, 0.0, -2817.2585746358127, 0.0]
['beep', 0.0, -3350.3476798948864, 0.0, 0.0, 0.0, 0.0, -2813.6822955229636, 0.0]
['beep', 0.0, -3355.488581119607, 0.0, 0.0, 0.0, 0.0, -2834.89410101105, 0.0]
['beep', 0.0, -3359.914226521758, 0.0, 0.0, 0.0, 0.0, -2852.350813430645, 0.0]
['beep', 0.0, -3357.5896450984055, 0.0, 0.0, 0.0, 0.0, -2843.186598203969, 0.0]
['beep', 0.0, -3353.8569037743696, 0.0, 0.0, 0.0, 0.0, -2819.806673503718, 0.0]
['beep', 0.0, -3355.153304952777, 0.0, 0.0, 0.0, 0.0, -2814.84458623464, 0.0]
['beep', 0.0, -3359.7577643105706, 0.0, 0.0, 0.0, 0.0, -2835.341135900156, 0.0]
['beep', 0.0, -3362.6858428342157, 0.0, 0.0, 0.0, 0.0, -2852.8202000642063, 0.0]
['beep', 0.0, -3359.623653843839, 0.0, 0.0, 0.0, 0.0, -2843.5218743707987, 0.0]
['beep', 0.0, -3353.812200285459, 0.0, 0.0, 0.0, 0.0, -2818.4879205808547, 0.0]
['beep', 0.0, -3352.47109561814, 0.0, 0.0, 0.0, 0.0, -2813.8164059896953, 0.0]
['beep', 0.0, -3357.611996842861, 0.0, 0.0, 0.0, 0.0, -2834.111789955114, 0.0]
['beep', 0.0, -3361.7470695670927, 0.0, 0.0, 0.0, 0.0, -2852.730793086385, 0.0]
['beep', 0.0, -3359.310729421464, 0.0, 0.0, 0.0, 0.0, -2842.2925284257567, 0.0]
['beep', 0.0, -3355.041546230501, 0.0, 0.0, 0.0, 0.0, -2817.727961269374, 0.0]
['beep', 0.0, -3353.745145052093, 0.0, 0.0, 0.0, 0.0, -2814.3081443677124, 0.0]
['beep', 0.0, -3358.6625288322603, 0.0, 0.0, 0.0, 0.0, -2834.4694178663995, 0.0]
['beep', 0.0, -3361.300034677987, 0.0, 0.0, 0.0, 0.0, -2852.283758197279, 0.0]
['beep', 0.0, -3355.935616008713, 0.0, 0.0, 0.0, 0.0, -2842.851322037139, 0.0]
['beep', 0.0, -3350.9958804840903, 0.0, 0.0, 0.0, 0.0, -2819.0467141922372, 0.0]
['beep', 0.0, -3352.5605025959617, 0.0, 0.0, 0.0, 0.0, -2814.799882745729, 0.0]
['beep', 0.0, -3357.7237555651377, 0.0, 0.0, 0.0, 0.0, -2834.022382977293, 0.0]
['beep', 0.0, -3361.7023660781824, 0.0, 0.0, 0.0, 0.0, -2852.015537263815, 0.0]
['beep', 0.0, -3355.2650636750536, 0.0, 0.0, 0.0, 0.0, -2842.605452848131, 0.0]
['beep', 0.0, -3349.7665345390483, 0.0, 0.0, 0.0, 0.0, -2818.5996793031313, 0.0]
['beep', 0.0, -3351.6217293288387, 0.0, 0.0, 0.0, 0.0, -2811.3353623551566, 0.0]
['beep', 0.0, -3357.5449416094953, 0.0, 0.0, 0.0, 0.0, -2831.675449809486, 0.0]
['beep', 0.0, -3358.908398021269, 0.0, 0.0, 0.0, 0.0, -2850.5179703853096, 0.0]
['beep', 0.0, -3355.086249719411, 0.0, 0.0, 0.0, 0.0, -2841.0408307362595, 0.0]
['beep', 0.0, -3351.129990950822, 0.0, 0.0, 0.0, 0.0, -2815.872766479584, 0.0]
['beep', 0.0, -3350.6606043172605, 0.0, 0.0, 0.0, 0.0, -2811.3353623551566, 0.0]
['beep', 0.0, -3355.5556363529727, 0.0, 0.0, 0.0, 0.0, -2831.5636910872095, 0.0]
['beep', 0.0, -3358.550770109984, 0.0, 0.0, 0.0, 0.0, -2849.7133075849188, 0.0]
['beep', 0.0, -3355.086249719411, 0.0, 0.0, 0.0, 0.0, -2840.3702784026004, 0.0]
['beep', 0.0, -3350.3700316393415, 0.0, 0.0, 0.0, 0.0, -2814.4646065788993, 0.0]
['beep', 0.0, -3351.3311566509196, 0.0, 0.0, 0.0, 0.0, -2809.5025193098213, 0.0]
['beep', 0.0, -3355.1086014638668, 0.0, 0.0, 0.0, 0.0, -2828.3673916301004, 0.0]
['beep', 0.0, -3357.5225898650397, 0.0, 0.0, 0.0, 0.0, -2847.8581127951284, 0.0]
['beep', 0.0, -3354.8627322748584, 0.0, 0.0, 0.0, 0.0, -2839.1185807131033, 0.0]
['beep', 0.0, -3350.571197339439, 0.0, 0.0, 0.0, 0.0, -2814.6210687900866, 0.0]
['beep', 0.0, -3348.268967660543, 0.0, 0.0, 0.0, 0.0, -2809.2342983763574, 0.0]
['beep', 0.0, -3353.096944462889, 0.0, 0.0, 0.0, 0.0, -2830.6025660756313, 0.0]
['beep', 0.0, -3357.8355142874143, 0.0, 0.0, 0.0, 0.0, -2850.4509151519437, 0.0]
['beep', 0.0, -3353.3428136518974, 0.0, 0.0, 0.0, 0.0, -2840.549092358243, 0.0]
['beep', 0.0, -3349.3418513943975, 0.0, 0.0, 0.0, 0.0, -2816.6774292799746, 0.0]
['beep', 0.0, -3349.163037438755, 0.0, 0.0, 0.0, 0.0, -2810.664810021497, 0.0]
['beep', 0.0, -3353.767496796548, 0.0, 0.0, 0.0, 0.0, -2828.9708887303937, 0.0]
['beep', 0.0, -3359.1095637213666, 0.0, 0.0, 0.0, 0.0, -2846.9416912724605, 0.0]
['beep', 0.0, -3355.5556363529727, 0.0, 0.0, 0.0, 0.0, -2839.5879673466648, 0.0]
['beep', 0.0, -3349.163037438755, 0.0, 0.0, 0.0, 0.0, -2816.3645048576004, 0.0]
['beep', 0.0, -3348.492485105096, 0.0, 0.0, 0.0, 0.0, -2810.597754788131, 0.0]
['beep', 0.0, -3353.834552029914, 0.0, 0.0, 0.0, 0.0, -2831.742505042852, 0.0]
['beep', 0.0, -3356.941444509202, 0.0, 0.0, 0.0, 0.0, -2850.1603424740247, 0.0]
['beep', 0.0, -3353.1416479517998, 0.0, 0.0, 0.0, 0.0, -2839.967947002405, 0.0]
['beep', 0.0, -3350.101810705878, 0.0, 0.0, 0.0, 0.0, -2814.12933041207, 0.0]
['beep', 0.0, -3350.571197339439, 0.0, 0.0, 0.0, 0.0, -2806.797958230729, 0.0]
['beep', 0.0, -3355.488581119607, 0.0, 0.0, 0.0, 0.0, -2827.920356740994, 0.0]
['beep', 0.0, -3357.991976498601, 0.0, 0.0, 0.0, 0.0, -2847.8804645395835, 0.0]
['beep', 0.0, -3352.6275578293275, 0.0, 0.0, 0.0, 0.0, -2839.4315051354774, 0.0]
['beep', 0.0, -3348.3136711494535, 0.0, 0.0, 0.0, 0.0, -2816.029228690771, 0.0]
['beep', 0.0, -3349.7218310501376, 0.0, 0.0, 0.0, 0.0, -2809.5248710542764, 0.0]
['beep', 0.0, -3352.0464124734895, 0.0, 0.0, 0.0, 0.0, -2829.484978852866, 0.0]
['beep', 0.0, -3354.6168630858497, 0.0, 0.0, 0.0, 0.0, -2847.701650583941, 0.0]
['beep', 0.0, -3353.2087031851656, 0.0, 0.0, 0.0, 0.0, -2838.537435357265, 0.0]
['beep', 0.0, -3348.246615916087, 0.0, 0.0, 0.0, 0.0, -2812.7211705113855, 0.0]
['beep', 0.0, -3349.3642031388526, 0.0, 0.0, 0.0, 0.0, -2807.4014553310226, 0.0]
['beep', 0.0, -3353.8569037743696, 0.0, 0.0, 0.0, 0.0, -2827.7191910408965, 0.0]
['beep', 0.0, -3355.1980084416878, 0.0, 0.0, 0.0, 0.0, -2847.187560461469, 0.0]
['beep', 0.0, -3351.6664328177494, 0.0, 0.0, 0.0, 0.0, -2837.4645516234104, 0.0]
['beep', 0.0, -3347.1066769488666, 0.0, 0.0, 0.0, 0.0, -2812.4305978334664, 0.0]
['beep', 0.0, -3348.0454502159896, 0.0, 0.0, 0.0, 0.0, -2805.2556878633127, 0.0]
['beep', 0.0, -3351.7558397955704, 0.0, 0.0, 0.0, 0.0, -2825.4393131064553, 0.0]
['beep', 0.0, -3355.354470652875, 0.0, 0.0, 0.0, 0.0, -2845.153551716036, 0.0]
['beep', 0.0, -3353.409868885263, 0.0, 0.0, 0.0, 0.0, -2836.995164989849, 0.0]
['beep', 0.0, -3349.453610116674, 0.0, 0.0, 0.0, 0.0, -2811.6929902664415, 0.0]
['beep', 0.0, -3348.7607060385594, 0.0, 0.0, 0.0, 0.0, -2805.188632629947, 0.0]
['beep', 0.0, -3353.2757584185315, 0.0, 0.0, 0.0, 0.0, -2825.908699740017, 0.0]
['beep', 0.0, -3356.0920782199, 0.0, 0.0, 0.0, 0.0, -2846.382897661078, 0.0]
['beep', 0.0, -3354.1698281967438, 0.0, 0.0, 0.0, 0.0, -2838.828008035184, 0.0]
['beep', 0.0, -3348.492485105096, 0.0, 0.0, 0.0, 0.0, -2815.9845252018604, 0.0]
['beep', 0.0, -3350.3029764059756, 0.0, 0.0, 0.0, 0.0, -2809.8824989655614, 0.0]
['beep', 0.0, -3354.5274561080287, 0.0, 0.0, 0.0, 0.0, -2827.9874119743604, 0.0]
['beep', 0.0, -3358.0143282430568, 0.0, 0.0, 0.0, 0.0, -2848.1039819841367, 0.0]
['beep', 0.0, -3355.153304952777, 0.0, 0.0, 0.0, 0.0, -2840.347926658145, 0.0]
['beep', 0.0, -3348.3807263828194, 0.0, 0.0, 0.0, 0.0, -2814.3304961121676, 0.0]
['beep', 0.0, -3349.7218310501376, 0.0, 0.0, 0.0, 0.0, -2807.021475675282, 0.0]
['beep', 0.0, -3355.8685607753473, 0.0, 0.0, 0.0, 0.0, -2826.6463073070418, 0.0]
['beep', 0.0, -3359.1095637213666, 0.0, 0.0, 0.0, 0.0, -2846.695822083452, 0.0]
['beep', 0.0, -3355.488581119607, 0.0, 0.0, 0.0, 0.0, -2840.1691127025024, 0.0]
['beep', 0.0, -3347.9783949826237, 0.0, 0.0, 0.0, 0.0, -2817.2362228913576, 0.0]
['beep', 0.0, -3347.6654705602496, 0.0, 0.0, 0.0, 0.0, -2811.60358328862, 0.0]
['beep', 0.0, -3352.9181305072466, 0.0, 0.0, 0.0, 0.0, -2830.803731775729, 0.0]
['beep', 0.0, -3358.7295840656266, 0.0, 0.0, 0.0, 0.0, -2848.4839616398767, 0.0]
['beep', 0.0, -3355.5556363529727, 0.0, 0.0, 0.0, 0.0, -2841.4878656253654, 0.0]
['beep', 0.0, -3349.0065752275677, 0.0, 0.0, 0.0, 0.0, -2817.415036847, 0.0]
['beep', 0.0, -3348.7607060385594, 0.0, 0.0, 0.0, 0.0, -2808.1167111535924, 0.0]
['beep', 0.0, -3354.706270063671, 0.0, 0.0, 0.0, 0.0, -2827.2945078962457, 0.0]
['beep', 0.0, -3358.975453254635, 0.0, 0.0, 0.0, 0.0, -2848.059278495226, 0.0]
['beep', 0.0, -3355.2427119305985, 0.0, 0.0, 0.0, 0.0, -2841.510217369821, 0.0]
['beep', 0.0, -3349.4312583722185, 0.0, 0.0, 0.0, 0.0, -2818.152644414025, 0.0]
['beep', 0.0, -3349.543017094495, 0.0, 0.0, 0.0, 0.0, -2811.4918245663434, 0.0]
['beep', 0.0, -3355.8238572864366, 0.0, 0.0, 0.0, 0.0, -2830.535510842265, 0.0]
['beep', 0.0, -3360.3389096664087, 0.0, 0.0, 0.0, 0.0, -2848.036926750771, 0.0]
['beep', 0.0, -3354.99684274159, 0.0, 0.0, 0.0, 0.0, -2843.499522626343, 0.0]
['beep', 0.0, -3350.526493850529, 0.0, 0.0, 0.0, 0.0, -2819.0467141922372, 0.0]
['beep', 0.0, -3351.219397928643, 0.0, 0.0, 0.0, 0.0, -2809.994257687838, 0.0]
['beep', 0.0, -3354.750973552582, 0.0, 0.0, 0.0, 0.0, -2829.3732201305893, 0.0]
['beep', 0.0, -3358.327252665431, 0.0, 0.0, 0.0, 0.0, -2848.148685473047, 0.0]
['beep', 0.0, -3355.9132642642576, 0.0, 0.0, 0.0, 0.0, -2839.0962289686477, 0.0]
['beep', 0.0, -3349.207740927666, 0.0, 0.0, 0.0, 0.0, -2814.241089134346, 0.0]
['beep', 0.0, -3347.620767071339, 0.0, 0.0, 0.0, 0.0, -2808.094359409137, 0.0]
['beep', 0.0, -3353.0075374850676, 0.0, 0.0, 0.0, 0.0, -2828.0991706966365, 0.0]
['beep', 0.0, -3356.2038369421766, 0.0, 0.0, 0.0, 0.0, -2846.3605459166224, 0.0]
['beep', 0.0, -3352.2922816624978, 0.0, 0.0, 0.0, 0.0, -2839.923243513494, 0.0]
['beep', 0.0, -3348.559540338462, 0.0, 0.0, 0.0, 0.0, -2814.6657722789973, 0.0]
['beep', 0.0, -3351.062935717456, 0.0, 0.0, 0.0, 0.0, -2806.149757641525, 0.0]
['beep', 0.0, -3357.053203231478, 0.0, 0.0, 0.0, 0.0, -2824.5005398393323, 0.0]
['beep', 0.0, -3358.707232321171, 0.0, 0.0, 0.0, 0.0, -2844.773572060296, 0.0]
['beep', 0.0, -3355.1756566972326, 0.0, 0.0, 0.0, 0.0, -2838.4703801238993, 0.0]
['beep', 0.0, -3348.4477816161852, 0.0, 0.0, 0.0, 0.0, -2814.88928972355, 0.0]
['beep', 0.0, -3348.291319404998, 0.0, 0.0, 0.0, 0.0, -2807.736731497852, 0.0]
['beep', 0.0, -3355.399174141786, 0.0, 0.0, 0.0, 0.0, -2827.0486387072374, 0.0]
['beep', 0.0, -3359.064860232456, 0.0, 0.0, 0.0, 0.0, -2847.6569470950303, 0.0]
['beep', 0.0, -3354.0804212189223, 0.0, 0.0, 0.0, 0.0, -2841.3761069030893, 0.0]
['beep', 0.0, -3348.6936508051936, 0.0, 0.0, 0.0, 0.0, -2817.2809263802683, 0.0]
['beep', 0.0, -3350.459438617163, 0.0, 0.0, 0.0, 0.0, -2807.7590832423075, 0.0]
['beep', 0.0, -3355.3321189084195, 0.0, 0.0, 0.0, 0.0, -2827.450970107433, 0.0]
['beep', 0.0, -3358.260197432065, 0.0, 0.0, 0.0, 0.0, -2847.99222326186, 0.0]
['beep', 0.0, -3355.1980084416878, 0.0, 0.0, 0.0, 0.0, -2842.0690109812035, 0.0]
['beep', 0.0, -3350.3700316393415, 0.0, 0.0, 0.0, 0.0, -2818.9349554699606, 0.0]
['beep', 0.0, -3351.2417496730986, 0.0, 0.0, 0.0, 0.0, -2810.6871617659526, 0.0]
['beep', 0.0, -3356.382650897819, 0.0, 0.0, 0.0, 0.0, -2830.3343451421674, 0.0]
['beep', 0.0, -3360.674185833238, 0.0, 0.0, 0.0, 0.0, -2849.5344936292763, 0.0]
['beep', 0.0, -3356.8743892758357, 0.0, 0.0, 0.0, 0.0, -2842.4936941258543, 0.0]
['beep', 0.0, -3351.174694439733, 0.0, 0.0, 0.0, 0.0, -2817.5938508026425, 0.0]
['beep', 0.0, -3350.9511769951796, 0.0, 0.0, 0.0, 0.0, -2809.3907605875447, 0.0]
['beep', 0.0, -3354.9521392526794, 0.0, 0.0, 0.0, 0.0, -2828.0991706966365, 0.0]
['beep', 0.0, -3356.673223575738, 0.0, 0.0, 0.0, 0.0, -2848.416906406511, 0.0]
['beep', 0.0, -3353.7004415631823, 0.0, 0.0, 0.0, 0.0, -2841.80079004774, 0.0]
['beep', 0.0, -3346.6596420597607, 0.0, 0.0, 0.0, 0.0, -2817.3703333580893, 0.0]
['beep', 0.0, -3345.318537392442, 0.0, 0.0, 0.0, 0.0, -2809.1001879096257, 0.0]
['beep', 0.0, -3351.2417496730986, 0.0, 0.0, 0.0, 0.0, -2826.735714284863, 0.0]
['beep', 0.0, -3356.2485404310873, 0.0, 0.0, 0.0, 0.0, -2847.3663744171113, 0.0]
['beep', 0.0, -3355.2650636750536, 0.0, 0.0, 0.0, 0.0, -2840.929072013983, 0.0]
['beep', 0.0, -3352.739316551604, 0.0, 0.0, 0.0, 0.0, -2816.409208346511, 0.0]
['beep', 0.0, -3352.6946130626934, 0.0, 0.0, 0.0, 0.0, -2809.0107809318047, 0.0]
['beep', 0.0, -3356.4720578756405, 0.0, 0.0, 0.0, 0.0, -2828.1438741855472, 0.0]
['beep', 0.0, -3358.036679987512, 0.0, 0.0, 0.0, 0.0, -2849.2215692069017, 0.0]
['beep', 0.0, -3355.063897974956, 0.0, 0.0, 0.0, 0.0, -2843.0077842483265, 0.0]
['beep', 0.0, -3349.878293261325, 0.0, 0.0, 0.0, 0.0, -2816.6103740466087, 0.0]
['beep', 0.0, -3350.3700316393415, 0.0, 0.0, 0.0, 0.0, -2807.736731497852, 0.0]
['beep', 0.0, -3355.421525886241, 0.0, 0.0, 0.0, 0.0, -2825.7522375288295, 0.0]
['beep', 0.0, -3359.2436741880983, 0.0, 0.0, 0.0, 0.0, -2847.8581127951284, 0.0]
['beep', 0.0, -3355.3321189084195, 0.0, 0.0, 0.0, 0.0, -2842.091362725659, 0.0]
['beep', 0.0, -3350.0571072169673, 0.0, 0.0, 0.0, 0.0, -2816.6550775355195, 0.0]
['beep', 0.0, -3351.1076392063665, 0.0, 0.0, 0.0, 0.0, -2808.7872634872515, 0.0]
['beep', 0.0, -3355.443877630696, 0.0, 0.0, 0.0, 0.0, -2825.5287200842763, 0.0]
['beep', 0.0, -3358.5731218544393, 0.0, 0.0, 0.0, 0.0, -2845.3994209050443, 0.0]
['beep', 0.0, -3355.37682239733, 0.0, 0.0, 0.0, 0.0, -2841.219644691902, 0.0]
['beep', 0.0, -3350.928825250724, 0.0, 0.0, 0.0, 0.0, -2816.3645048576004, 0.0]
['beep', 0.0, -3348.894816505291, 0.0, 0.0, 0.0, 0.0, -2808.608449531609, 0.0]
['beep', 0.0, -3354.2592351745648, 0.0, 0.0, 0.0, 0.0, -2828.926185241483, 0.0]
['beep', 0.0, -3356.0920782199, 0.0, 0.0, 0.0, 0.0, -2848.640423851064, 0.0]
['beep', 0.0, -3354.1474764522886, 0.0, 0.0, 0.0, 0.0, -2843.7230400708963, 0.0]
['beep', 0.0, -3348.6265955718277, 0.0, 0.0, 0.0, 0.0, -2818.4655688363996, 0.0]
['beep', 0.0, -3348.872464760836, 0.0, 0.0, 0.0, 0.0, -2807.356751842112, 0.0]
['beep', 0.0, -3354.683918319216, 0.0, 0.0, 0.0, 0.0, -2824.567595072698, 0.0]
['beep', 0.0, -3359.1542672102773, 0.0, 0.0, 0.0, 0.0, -2845.8464557941506, 0.0]
['beep', 0.0, -3357.5449416094953, 0.0, 0.0, 0.0, 0.0, -2841.152589458536, 0.0]
['beep', 0.0, -3353.096944462889, 0.0, 0.0, 0.0, 0.0, -2817.6609060360083, 0.0]
['beep', 0.0, -3352.2922816624978, 0.0, 0.0, 0.0, 0.0, -2807.4238070754777, 0.0]
['beep', 0.0, -3354.2145316856545, 0.0, 0.0, 0.0, 0.0, -2827.4062666185223, 0.0]
['beep', 0.0, -3358.1037352208778, 0.0, 0.0, 0.0, 0.0, -2848.6180721066085, 0.0]
['beep', 0.0, -3354.706270063671, 0.0, 0.0, 0.0, 0.0, -2842.4042871480333, 0.0]
['beep', 0.0, -3349.4312583722185, 0.0, 0.0, 0.0, 0.0, -2816.744484513341, 0.0]
['beep', 0.0, -3348.0454502159896, 0.0, 0.0, 0.0, 0.0, -2807.692028008941, 0.0]
['beep', 0.0, -3352.5605025959617, 0.0, 0.0, 0.0, 0.0, -2826.668659051497, 0.0]
['beep', 0.0, -3356.6955753201933, 0.0, 0.0, 0.0, 0.0, -2848.1039819841367, 0.0]
['beep', 0.0, -3356.025022986534, 0.0, 0.0, 0.0, 0.0, -2843.2760051817904, 0.0]
['beep', 0.0, -3350.2806246615205, 0.0, 0.0, 0.0, 0.0, -2817.705609524919, 0.0]
['beep', 0.0, -3349.4759618611292, 0.0, 0.0, 0.0, 0.0, -2807.6249727755753, 0.0]
['beep', 0.0, -3354.3709938968414, 0.0, 0.0, 0.0, 0.0, -2826.3557346291227, 0.0]
['beep', 0.0, -3357.9249212652353, 0.0, 0.0, 0.0, 0.0, -2847.478133139388, 0.0]
['beep', 0.0, -3354.438049130207, 0.0, 0.0, 0.0, 0.0, -2845.824104049695, 0.0]
['beep', 0.0, -3347.8889880048023, 0.0, 0.0, 0.0, 0.0, -2820.924260726483, 0.0]
['beep', 0.0, -3347.7995810269813, 0.0, 0.0, 0.0, 0.0, -2809.2342983763574, 0.0]
['beep', 0.0, -3352.2922816624978, 0.0, 0.0, 0.0, 0.0, -2826.802769518229, 0.0]
['beep', 0.0, -3356.0473747309898, 0.0, 0.0, 0.0, 0.0, -2847.9028162840386, 0.0]
['beep', 0.0, -3352.9181305072466, 0.0, 0.0, 0.0, 0.0, -2842.448990636944, 0.0]
['beep', 0.0, -3347.6654705602496, 0.0, 0.0, 0.0, 0.0, -2817.9738304583825, 0.0]
['beep', 0.0, -3346.7937525264924, 0.0, 0.0, 0.0, 0.0, -2810.5306995547653, 0.0]
['beep', 0.0, -3351.3311566509196, 0.0, 0.0, 0.0, 0.0, -2829.0826474526702, 0.0]
['beep', 0.0, -3355.2203601861434, 0.0, 0.0, 0.0, 0.0, -2848.2157407064133, 0.0]
['beep', 0.0, -3352.3369851514085, 0.0, 0.0, 0.0, 0.0, -2842.9183772705055, 0.0]
['beep', 0.0, -3347.9783949826237, 0.0, 0.0, 0.0, 0.0, -2818.085589180659, 0.0]
['beep', 0.0, -3347.33019439342, 0.0, 0.0, 0.0, 0.0, -2806.417978574989, 0.0]
['beep', 0.0, -3352.9181305072466, 0.0, 0.0, 0.0, 0.0, -2825.193443917447, 0.0]
['beep', 0.0, -3356.6955753201933, 0.0, 0.0, 0.0, 0.0, -2847.4557813949327, 0.0]
['beep', 0.0, -3352.47109561814, 0.0, 0.0, 0.0, 0.0, -2842.963080759416, 0.0]
['beep', 0.0, -3347.1737321822325, 0.0, 0.0, 0.0, 0.0, -2817.504443824821, 0.0]
['beep', 0.0, -3346.0784967039226, 0.0, 0.0, 0.0, 0.0, -2807.155586142014, 0.0]
['beep', 0.0, -3350.191217683699, 0.0, 0.0, 0.0, 0.0, -2825.260499150813, 0.0]
['beep', 0.0, -3354.5051043635735, 0.0, 0.0, 0.0, 0.0, -2846.740525572363, 0.0]
['beep', 0.0, -3354.3039386634755, 0.0, 0.0, 0.0, 0.0, -2840.347926658145, 0.0]
['beep', 0.0, -3349.6547758167717, 0.0, 0.0, 0.0, 0.0, -2814.5987170456315, 0.0]
['beep', 0.0, -3347.1066769488666, 0.0, 0.0, 0.0, 0.0, -2804.9427634409385, 0.0]
['beep', 0.0, -3352.448743873685, 0.0, 0.0, 0.0, 0.0, -2823.8523392501284, 0.0]
['beep', 0.0, -3356.42735438673, 0.0, 0.0, 0.0, 0.0, -2845.6005866051423, 0.0]
['beep', 0.0, -3355.130953208322, 0.0, 0.0, 0.0, 0.0, -2841.733734814374, 0.0]
['beep', 0.0, -3349.7218310501376, 0.0, 0.0, 0.0, 0.0, -2818.5996793031313, 0.0]
['beep', 0.0, -3348.5371885940062, 0.0, 0.0, 0.0, 0.0, -2808.7425599983408, 0.0]
['beep', 0.0, -3354.393345641297, 0.0, 0.0, 0.0, 0.0, -2825.4616648509104, 0.0]
['beep', 0.0, -3358.550770109984, 0.0, 0.0, 0.0, 0.0, -2846.2040837054356, 0.0]
['beep', 0.0, -3354.8627322748584, 0.0, 0.0, 0.0, 0.0, -2841.152589458536, 0.0]
['beep', 0.0, -3349.4312583722185, 0.0, 0.0, 0.0, 0.0, -2817.415036847, 0.0]
['beep', 0.0, -3348.4701333606404, 0.0, 0.0, 0.0, 0.0, -2806.3062198527123, 0.0]
['beep', 0.0, -3352.1134677068553, 0.0, 0.0, 0.0, 0.0, -2825.863996251106, 0.0]
['beep', 0.0, -3355.9579677531683, 0.0, 0.0, 0.0, 0.0, -2847.2099122059244, 0.0]
['beep', 0.0, -3353.9239590077354, 0.0, 0.0, 0.0, 0.0, -2841.9796040033825, 0.0]
['beep', 0.0, -3350.0571072169673, 0.0, 0.0, 0.0, 0.0, -2818.2644031363016, 0.0]
['beep', 0.0, -3350.9735287396347, 0.0, 0.0, 0.0, 0.0, -2809.3684088430896, 0.0]
['beep', 0.0, -3355.734450308615, 0.0, 0.0, 0.0, 0.0, -2827.920356740994, 0.0]
['beep', 0.0, -3360.4730201331404, 0.0, 0.0, 0.0, 0.0, -2848.081630239681, 0.0]
['beep', 0.0, -3357.388479398308, 0.0, 0.0, 0.0, 0.0, -2842.806618548229, 0.0]
['beep', 0.0, -3351.264101417554, 0.0, 0.0, 0.0, 0.0, -2818.376161858578, 0.0]
['beep', 0.0, -3349.833589772414, 0.0, 0.0, 0.0, 0.0, -2808.384932087056, 0.0]
['beep', 0.0, -3353.454572374174, 0.0, 0.0, 0.0, 0.0, -2827.540377085254, 0.0]
['beep', 0.0, -3357.6343485873163, 0.0, 0.0, 0.0, 0.0, -2849.1992174624465, 0.0]
['beep', 0.0, -3356.226188686632, 0.0, 0.0, 0.0, 0.0, -2845.2429586938574, 0.0]
['beep', 0.0, -3352.1134677068553, 0.0, 0.0, 0.0, 0.0, -2819.829025248173, 0.0]
['beep', 0.0, -3351.219397928643, 0.0, 0.0, 0.0, 0.0, -2808.7425599983408, 0.0]
['beep', 0.0, -3356.0920782199, 0.0, 0.0, 0.0, 0.0, -2825.7298857843743, 0.0]
['beep', 0.0, -3359.37778465483, 0.0, 0.0, 0.0, 0.0, -2847.9698715174045, 0.0]
['beep', 0.0, -3356.4944096200957, 0.0, 0.0, 0.0, 0.0, -2844.9076825270276, 0.0]
['beep', 0.0, -3351.219397928643, 0.0, 0.0, 0.0, 0.0, -2819.2255281478797, 0.0]
['beep', 0.0, -3348.492485105096, 0.0, 0.0, 0.0, 0.0, -2808.69785650943, 0.0]
['beep', 0.0, -3354.460400874663, 0.0, 0.0, 0.0, 0.0, -2827.2721561517906, 0.0]
['beep', 0.0, -3357.254368931576, 0.0, 0.0, 0.0, 0.0, -2847.8804645395835, 0.0]
['beep', 0.0, -3353.812200285459, 0.0, 0.0, 0.0, 0.0, -2843.477170881888, 0.0]
['beep', 0.0, -3348.492485105096, 0.0, 0.0, 0.0, 0.0, -2820.343115370645, 0.0]
['beep', 0.0, -3348.0230984715345, 0.0, 0.0, 0.0, 0.0, -2809.547222798732, 0.0]
['beep', 0.0, -3353.90160726328, 0.0, 0.0, 0.0, 0.0, -2825.2381474063573, 0.0]
['beep', 0.0, -3357.4778863761294, 0.0, 0.0, 0.0, 0.0, -2847.2099122059244, 0.0]
['beep', 0.0, -3355.6003398418834, 0.0, 0.0, 0.0, 0.0, -2845.757048816329, 0.0]
['beep', 0.0, -3350.6382525728054, 0.0, 0.0, 0.0, 0.0, -2818.443217091944, 0.0]
['beep', 0.0, -3349.8559415168693, 0.0, 0.0, 0.0, 0.0, -2806.350923341623, 0.0]
['beep', 0.0, -3354.5274561080287, 0.0, 0.0, 0.0, 0.0, -2825.573423573187, 0.0]
['beep', 0.0, -3358.774287554537, 0.0, 0.0, 0.0, 0.0, -2846.5840633611756, 0.0]
['beep', 0.0, -3356.3379474089083, 0.0, 0.0, 0.0, 0.0, -2843.499522626343, 0.0]
['beep', 0.0, -3351.264101417554, 0.0, 0.0, 0.0, 0.0, -2820.2760601372793, 0.0]
['beep', 0.0, -3351.3982118842855, 0.0, 0.0, 0.0, 0.0, -2807.289696608746, 0.0]
['beep', 0.0, -3355.9803194976234, 0.0, 0.0, 0.0, 0.0, -2823.98644971686, 0.0]
['beep', 0.0, -3359.1542672102773, 0.0, 0.0, 0.0, 0.0, -2845.757048816329, 0.0]
['beep', 0.0, -3356.069726475445, 0.0, 0.0, 0.0, 0.0, -2841.823141792195, 0.0]
['beep', 0.0, -3351.778191540026, 0.0, 0.0, 0.0, 0.0, -2816.6327257910643, 0.0]
['beep', 0.0, -3349.7218310501376, 0.0, 0.0, 0.0, 0.0, -2805.8144814746956, 0.0]
['beep', 0.0, -3352.739316551604, 0.0, 0.0, 0.0, 0.0, -2823.5170630832986, 0.0]
['beep', 0.0, -3355.2650636750536, 0.0, 0.0, 0.0, 0.0, -2845.5558831162316, 0.0]
['beep', 0.0, -3354.750973552582, 0.0, 0.0, 0.0, 0.0, -2840.549092358243, 0.0]
['beep', 0.0, -3347.7548775380706, 0.0, 0.0, 0.0, 0.0, -2817.0127054468044, 0.0]
['beep', 0.0, -3347.1513804377773, 0.0, 0.0, 0.0, 0.0, -2806.350923341623, 0.0]
['beep', 0.0, -3352.6722613182383, 0.0, 0.0, 0.0, 0.0, -2823.1594351720137, 0.0]
['beep', 0.0, -3357.2767206760313, 0.0, 0.0, 0.0, 0.0, -2843.6559848375305, 0.0]
['beep', 0.0, -3356.315595664453, 0.0, 0.0, 0.0, 0.0, -2839.7220778133965, 0.0]
['beep', 0.0, -3350.5041421060732, 0.0, 0.0, 0.0, 0.0, -2816.1409874130472, 0.0]
['beep', 0.0, -3351.7558397955704, 0.0, 0.0, 0.0, 0.0, -2805.9038884525166, 0.0]
['beep', 0.0, -3355.935616008713, 0.0, 0.0, 0.0, 0.0, -2823.315897383201, 0.0]
['beep', 0.0, -3357.701403820682, 0.0, 0.0, 0.0, 0.0, -2846.695822083452, 0.0]
['beep', 0.0, -3357.254368931576, 0.0, 0.0, 0.0, 0.0, -2845.824104049695, 0.0]
['beep', 0.0, -3352.3369851514085, 0.0, 0.0, 0.0, 0.0, -2819.1808246589694, 0.0]
['beep', 0.0, -3352.448743873685, 0.0, 0.0, 0.0, 0.0, -2806.2615163638015, 0.0]
['beep', 0.0, -3356.2038369421766, 0.0, 0.0, 0.0, 0.0, -2820.9466124709384, 0.0]
['beep', 0.0, -3358.684880576716, 0.0, 0.0, 0.0, 0.0, -2844.192426704458, 0.0]
['beep', 0.0, -3356.4944096200957, 0.0, 0.0, 0.0, 0.0, -2842.7172115704075, 0.0]
['beep', 0.0, -3351.0852874619113, 0.0, 0.0, 0.0, 0.0, -2819.471397336888, 0.0]
['beep', 0.0, -3349.207740927666, 0.0, 0.0, 0.0, 0.0, -2807.580269286665, 0.0]
['beep', 0.0, -3352.2028746846768, 0.0, 0.0, 0.0, 0.0, -2825.0146299618045, 0.0]
['beep', 0.0, -3356.673223575738, 0.0, 0.0, 0.0, 0.0, -2847.433429650477, 0.0]
['beep', 0.0, -3356.4720578756405, 0.0, 0.0, 0.0, 0.0, -2843.834798793173, 0.0]
['beep', 0.0, -3350.548845594984, 0.0, 0.0, 0.0, 0.0, -2819.761970014807, 0.0]
['beep', 0.0, -3350.861770017358, 0.0, 0.0, 0.0, 0.0, -2807.60262103112, 0.0]
['beep', 0.0, -3354.058069474467, 0.0, 0.0, 0.0, 0.0, -2823.4500078499327, 0.0]
['beep', 0.0, -3357.4331828872187, 0.0, 0.0, 0.0, 0.0, -2846.4276011499887, 0.0]
['beep', 0.0, -3354.6392148303053, 0.0, 0.0, 0.0, 0.0, -2844.415944149011, 0.0]
['beep', 0.0, -3347.9783949826237, 0.0, 0.0, 0.0, 0.0, -2819.8737287370836, 0.0]
['beep', 0.0, -3347.5984153268832, 0.0, 0.0, 0.0, 0.0, -2808.094359409137, 0.0]
['beep', 0.0, -3352.5605025959617, 0.0, 0.0, 0.0, 0.0, -2824.4558363504216, 0.0]
['beep', 0.0, -3356.8967410202913, 0.0, 0.0, 0.0, 0.0, -2845.9358627719716, 0.0]
['beep', 0.0, -3353.9910142411013, 0.0, 0.0, 0.0, 0.0, -2842.6948598259523, 0.0]
['beep', 0.0, -3349.4759618611292, 0.0, 0.0, 0.0, 0.0, -2818.800845003229, 0.0]
['beep', 0.0, -3347.4419531156964, 0.0, 0.0, 0.0, 0.0, -2806.1721093859805, 0.0]
['beep', 0.0, -3352.42639212923, 0.0, 0.0, 0.0, 0.0, -2823.4500078499327, 0.0]
['beep', 0.0, -3356.650871831283, 0.0, 0.0, 0.0, 0.0, -2844.9076825270276, 0.0]
['beep', 0.0, -3353.90160726328, 0.0, 0.0, 0.0, 0.0, -2842.1137144701142, 0.0]
['beep', 0.0, -3349.967700239146, 0.0, 0.0, 0.0, 0.0, -2817.6162025470976, 0.0]
['beep', 0.0, -3348.201912427177, 0.0, 0.0, 0.0, 0.0, -2805.2556878633127, 0.0]
['beep', 0.0, -3352.739316551604, 0.0, 0.0, 0.0, 0.0, -2821.3936473600447, 0.0]
['beep', 0.0, -3357.4778863761294, 0.0, 0.0, 0.0, 0.0, -2844.2371301933686, 0.0]
['beep', 0.0, -3356.583816597917, 0.0, 0.0, 0.0, 0.0, -2842.963080759416, 0.0]
['beep', 0.0, -3352.2028746846768, 0.0, 0.0, 0.0, 0.0, -2819.5831560591646, 0.0]
['beep', 0.0, -3350.3923833837966, 0.0, 0.0, 0.0, 0.0, -2808.2061181314134, 0.0]
['beep', 0.0, -3355.041546230501, 0.0, 0.0, 0.0, 0.0, -2824.5005398393323, 0.0]
['beep', 0.0, -3359.4671916326515, 0.0, 0.0, 0.0, 0.0, -2846.7181738279073, 0.0]
['beep', 0.0, -3356.025022986534, 0.0, 0.0, 0.0, 0.0, -2843.0748394816924, 0.0]
['beep', 0.0, -3350.5041421060732, 0.0, 0.0, 0.0, 0.0, -2819.2031764034245, 0.0]
['beep', 0.0, -3348.492485105096, 0.0, 0.0, 0.0, 0.0, -2807.312048353201, 0.0]
['beep', 0.0, -3353.7004415631823, 0.0, 0.0, 0.0, 0.0, -2825.640478806553, 0.0]
['beep', 0.0, -3357.701403820682, 0.0, 0.0, 0.0, 0.0, -2847.433429650477, 0.0]
['beep', 0.0, -3354.415697385752, 0.0, 0.0, 0.0, 0.0, -2844.728868571385, 0.0]
['beep', 0.0, -3350.772363039537, 0.0, 0.0, 0.0, 0.0, -2821.1924816599467, 0.0]
['beep', 0.0, -3350.124162450333, 0.0, 0.0, 0.0, 0.0, -2807.7143797533968, 0.0]
['beep', 0.0, -3353.5663310964505, 0.0, 0.0, 0.0, 0.0, -2823.8746909945835, 0.0]
['beep', 0.0, -3357.1649619537548, 0.0, 0.0, 0.0, 0.0, -2847.5675401172093, 0.0]
['beep', 0.0, -3355.2650636750536, 0.0, 0.0, 0.0, 0.0, -2845.131199971581, 0.0]
['beep', 0.0, -3349.8559415168693, 0.0, 0.0, 0.0, 0.0, -2819.4937490813436, 0.0]
['beep', 0.0, -3349.2747961610316, 0.0, 0.0, 0.0, 0.0, -2807.1332343975587, 0.0]
['beep', 0.0, -3353.9239590077354, 0.0, 0.0, 0.0, 0.0, -2823.6511735500308, 0.0]
['beep', 0.0, -3356.941444509202, 0.0, 0.0, 0.0, 0.0, -2845.5558831162316, 0.0]
['beep', 0.0, -3354.549807852484, 0.0, 0.0, 0.0, 0.0, -2843.2313016928797, 0.0]
['beep', 0.0, -3349.7888862835034, 0.0, 0.0, 0.0, 0.0, -2819.6502112925305, 0.0]
['beep', 0.0, -3347.4643048601515, 0.0, 0.0, 0.0, 0.0, -2808.1390628980475, 0.0]
['beep', 0.0, -3351.7558397955704, 0.0, 0.0, 0.0, 0.0, -2823.628821805575, 0.0]
['beep', 0.0, -3357.343775909397, 0.0, 0.0, 0.0, 0.0, -2845.3994209050443, 0.0]
['beep', 0.0, -3357.1649619537548, 0.0, 0.0, 0.0, 0.0, -2842.6948598259523, 0.0]
['beep', 0.0, -3350.124162450333, 0.0, 0.0, 0.0, 0.0, -2819.60550780362, 0.0]
['beep', 0.0, -3348.939519994202, 0.0, 0.0, 0.0, 0.0, -2807.0438274197377, 0.0]
['beep', 0.0, -3353.52162760754, 0.0, 0.0, 0.0, 0.0, -2823.8523392501284, 0.0]
['beep', 0.0, -3358.61782534335, 0.0, 0.0, 0.0, 0.0, -2845.9582145164272, 0.0]
['beep', 0.0, -3356.2708921755425, 0.0, 0.0, 0.0, 0.0, -2843.1418947150582, 0.0]
['beep', 0.0, -3349.3865548833082, 0.0, 0.0, 0.0, 0.0, -2818.867900236595, 0.0]
['beep', 0.0, -3346.4808281041182, 0.0, 0.0, 0.0, 0.0, -2807.312048353201, 0.0]
['beep', 0.0, -3350.772363039537, 0.0, 0.0, 0.0, 0.0, -2822.51123458281, 0.0]
['beep', 0.0, -3354.192179941199, 0.0, 0.0, 0.0, 0.0, -2844.2594819378237, 0.0]
['beep', 0.0, -3353.2534066740764, 0.0, 0.0, 0.0, 0.0, -2841.823141792195, 0.0]
['beep', 0.0, -3350.0794589614225, 0.0, 0.0, 0.0, 0.0, -2818.867900236595, 0.0]
['beep', 0.0, -3348.5371885940062, 0.0, 0.0, 0.0, 0.0, -2808.049655920226, 0.0]
['beep', 0.0, -3353.0075374850676, 0.0, 0.0, 0.0, 0.0, -2824.858167750617, 0.0]
['beep', 0.0, -3357.5896450984055, 0.0, 0.0, 0.0, 0.0, -2847.053449994737, 0.0]
['beep', 0.0, -3356.293243919998, 0.0, 0.0, 0.0, 0.0, -2845.0194412493042, 0.0]
['beep', 0.0, -3349.6547758167717, 0.0, 0.0, 0.0, 0.0, -2820.2760601372793, 0.0]
['beep', 0.0, -3348.4477816161852, 0.0, 0.0, 0.0, 0.0, -2805.635667519053, 0.0]
['beep', 0.0, -3352.2699299180426, 0.0, 0.0, 0.0, 0.0, -2820.4995775818325, 0.0]
['beep', 0.0, -3355.9132642642576, 0.0, 0.0, 0.0, 0.0, -2844.728868571385, 0.0]
['beep', 0.0, -3353.6110345853613, 0.0, 0.0, 0.0, 0.0, -2843.5889296041646, 0.0]
['beep', 0.0, -3349.8559415168693, 0.0, 0.0, 0.0, 0.0, -2819.672563036986, 0.0]
['beep', 0.0, -3346.7714007820373, 0.0, 0.0, 0.0, 0.0, -2805.680371007964, 0.0]
['beep', 0.0, -3349.9453484946907, 0.0, 0.0, 0.0, 0.0, -2818.711438025408, 0.0]
['beep', 0.0, -3355.37682239733, 0.0, 0.0, 0.0, 0.0, -2842.18076970348, 0.0]
['beep', 0.0, -3353.9239590077354, 0.0, 0.0, 0.0, 0.0, -2840.3702784026004, 0.0]
['beep', 0.0, -3349.18538918321, 0.0, 0.0, 0.0, 0.0, -2816.2303943908687, 0.0]
['beep', 0.0, -3348.246615916087, 0.0, 0.0, 0.0, 0.0, -2806.082702408159, 0.0]
['beep', 0.0, -3352.739316551604, 0.0, 0.0, 0.0, 0.0, -2820.477225837377, 0.0]
['beep', 0.0, -3357.254368931576, 0.0, 0.0, 0.0, 0.0, -2843.5889296041646, 0.0]
['beep', 0.0, -3356.6061683423723, 0.0, 0.0, 0.0, 0.0, -2841.9796040033825, 0.0]
['beep', 0.0, -3351.062935717456, 0.0, 0.0, 0.0, 0.0, -2817.482092080366, 0.0]
['beep', 0.0, -3351.0182322285455, 0.0, 0.0, 0.0, 0.0, -2803.780472729263, 0.0]
['beep', 0.0, -3354.5721595969394, 0.0, 0.0, 0.0, 0.0, -2820.767798515296, 0.0]
['beep', 0.0, -3357.254368931576, 0.0, 0.0, 0.0, 0.0, -2846.18173196098, 0.0]
['beep', 0.0, -3354.3039386634755, 0.0, 0.0, 0.0, 0.0, -2847.187560461469, 0.0]
['beep', 0.0, -3347.6878223047047, 0.0, 0.0, 0.0, 0.0, -2823.22649040538, 0.0]
['beep', 0.0, -3346.033793215012, 0.0, 0.0, 0.0, 0.0, -2808.4743390648773, 0.0]
['beep', 0.0, -3349.878293261325, 0.0, 0.0, 0.0, 0.0, -2822.3994758605336, 0.0]
['beep', 0.0, -3355.689746819705, 0.0, 0.0, 0.0, 0.0, -2845.2876621827677, 0.0]
['beep', 0.0, -3354.840380530403, 0.0, 0.0, 0.0, 0.0, -2843.901854026539, 0.0]
['beep', 0.0, -3348.3136711494535, 0.0, 0.0, 0.0, 0.0, -2818.711438025408, 0.0]
['beep', 0.0, -3347.866636260347, 0.0, 0.0, 0.0, 0.0, -2804.5851355296536, 0.0]
['beep', 0.0, -3352.6275578293275, 0.0, 0.0, 0.0, 0.0, -2819.471397336888, 0.0]
['beep', 0.0, -3357.254368931576, 0.0, 0.0, 0.0, 0.0, -2842.225473192391, 0.0]
['beep', 0.0, -3355.063897974956, 0.0, 0.0, 0.0, 0.0, -2842.538397614765, 0.0]
['beep', 0.0, -3350.325328150431, 0.0, 0.0, 0.0, 0.0, -2819.717266525897, 0.0]
['beep', 0.0, -3348.6265955718277, 0.0, 0.0, 0.0, 0.0, -2807.1779378864694, 0.0]
['beep', 0.0, -3352.448743873685, 0.0, 0.0, 0.0, 0.0, -2823.1817869164693, 0.0]
['beep', 0.0, -3357.8355142874143, 0.0, 0.0, 0.0, 0.0, -2845.9582145164272, 0.0]
['beep', 0.0, -3354.549807852484, 0.0, 0.0, 0.0, 0.0, -2846.18173196098, 0.0]
['beep', 0.0, -3348.939519994202, 0.0, 0.0, 0.0, 0.0, -2822.220661904891, 0.0]
['beep', 0.0, -3346.99491822659, 0.0, 0.0, 0.0, 0.0, -2806.9767721863714, 0.0]
['beep', 0.0, -3349.543017094495, 0.0, 0.0, 0.0, 0.0, -2821.281888637768, 0.0]
['beep', 0.0, -3354.773325297037, 0.0, 0.0, 0.0, 0.0, -2843.834798793173, 0.0]
['beep', 0.0, -3352.3146334069534, 0.0, 0.0, 0.0, 0.0, -2843.5889296041646, 0.0]
['beep', 0.0, -3347.3078426489647, 0.0, 0.0, 0.0, 0.0, -2822.444179349444, 0.0]
['beep', 0.0, -3346.838456015403, 0.0, 0.0, 0.0, 0.0, -2807.312048353201, 0.0]
['beep', 0.0, -3352.784020040515, 0.0, 0.0, 0.0, 0.0, -2821.6842200379638, 0.0]
['beep', 0.0, -3357.656700331772, 0.0, 0.0, 0.0, 0.0, -2845.80175230524, 0.0]
['beep', 0.0, -3356.5391131090064, 0.0, 0.0, 0.0, 0.0, -2846.964043016916, 0.0]
['beep', 0.0, -3349.811238027959, 0.0, 0.0, 0.0, 0.0, -2822.935917727461, 0.0]
['beep', 0.0, -3348.3136711494535, 0.0, 0.0, 0.0, 0.0, -2807.647324520031, 0.0]
['beep', 0.0, -3353.52162760754, 0.0, 0.0, 0.0, 0.0, -2821.4159991045, 0.0]
['beep', 0.0, -3358.059031731967, 0.0, 0.0, 0.0, 0.0, -2845.3100139272233, 0.0]
['beep', 0.0, -3355.354470652875, 0.0, 0.0, 0.0, 0.0, -2846.695822083452, 0.0]
['beep', 0.0, -3349.3865548833082, 0.0, 0.0, 0.0, 0.0, -2822.8465107496395, 0.0]
['beep', 0.0, -3347.218435671143, 0.0, 0.0, 0.0, 0.0, -2808.0720076646817, 0.0]
['beep', 0.0, -3350.526493850529, 0.0, 0.0, 0.0, 0.0, -2822.8241590051844, 0.0]
['beep', 0.0, -3354.683918319216, 0.0, 0.0, 0.0, 0.0, -2846.695822083452, 0.0]
['beep', 0.0, -3353.0075374850676, 0.0, 0.0, 0.0, 0.0, -2846.539359872265, 0.0]
['beep', 0.0, -3348.7383542941043, 0.0, 0.0, 0.0, 0.0, -2822.6229933050863, 0.0]
['beep', 0.0, -3346.927862993224, 0.0, 0.0, 0.0, 0.0, -2807.93789719795, 0.0]
['beep', 0.0, -3351.778191540026, 0.0, 0.0, 0.0, 0.0, -2822.7124002829078, 0.0]
['beep', 0.0, -3356.8743892758357, 0.0, 0.0, 0.0, 0.0, -2846.025269749793, 0.0]
['beep', 0.0, -3354.795677041492, 0.0, 0.0, 0.0, 0.0, -2845.6452900940526, 0.0]
['beep', 0.0, -3348.0678019604447, 0.0, 0.0, 0.0, 0.0, -2822.7794555162736, 0.0]
['beep', 0.0, -3346.5702350819392, 0.0, 0.0, 0.0, 0.0, -2807.580269286665, 0.0]
['beep', 0.0, -3351.7334880511153, 0.0, 0.0, 0.0, 0.0, -2821.9747927158824, 0.0]
['beep', 0.0, -3356.650871831283, 0.0, 0.0, 0.0, 0.0, -2845.6452900940526, 0.0]
['beep', 0.0, -3355.8685607753473, 0.0, 0.0, 0.0, 0.0, -2846.2934906832566, 0.0]
['beep', 0.0, -3348.4254298717296, 0.0, 0.0, 0.0, 0.0, -2823.7629322723074, 0.0]
['beep', 0.0, -3347.866636260347, 0.0, 0.0, 0.0, 0.0, -2809.971905943383, 0.0]
['beep', 0.0, -3352.6499095737827, 0.0, 0.0, 0.0, 0.0, -2823.22649040538, 0.0]
['beep', 0.0, -3356.9190927647464, 0.0, 0.0, 0.0, 0.0, -2847.2322639503795, 0.0]
['beep', 0.0, -3356.025022986534, 0.0, 0.0, 0.0, 0.0, -2848.8415895511616, 0.0]
['beep', 0.0, -3351.6440810732943, 0.0, 0.0, 0.0, 0.0, -2825.640478806553, 0.0]
['beep', 0.0, -3349.9900519836015, 0.0, 0.0, 0.0, 0.0, -2809.6813332654638, 0.0]
['beep', 0.0, -3354.9297875082243, 0.0, 0.0, 0.0, 0.0, -2823.002972960827, 0.0]
['beep', 0.0, -3359.9812817551237, 0.0, 0.0, 0.0, 0.0, -2848.5286651287875, 0.0]
['beep', 0.0, -3357.0755549759338, 0.0, 0.0, 0.0, 0.0, -2848.439258150966, 0.0]
['beep', 0.0, -3352.1805229402216, 0.0, 0.0, 0.0, 0.0, -2824.925222983983, 0.0]
['beep', 0.0, -3351.264101417554, 0.0, 0.0, 0.0, 0.0, -2811.581231544165, 0.0]
['beep', 0.0, -3354.5945113413945, 0.0, 0.0, 0.0, 0.0, -2828.501502096832, 0.0]
['beep', 0.0, -3357.701403820682, 0.0, 0.0, 0.0, 0.0, -2851.926130285994, 0.0]
['beep', 0.0, -3355.5332846085175, 0.0, 0.0, 0.0, 0.0, -2851.0991157411477, 0.0]
['beep', 0.0, -3349.90064500578, 0.0, 0.0, 0.0, 0.0, -2826.959231729416, 0.0]
['beep', 0.0, -3350.0124037280566, 0.0, 0.0, 0.0, 0.0, -2811.245955377335, 0.0]
['beep', 0.0, -3354.3039386634755, 0.0, 0.0, 0.0, 0.0, -2824.969926472894, 0.0]
['beep', 0.0, -3358.930749765724, 0.0, 0.0, 0.0, 0.0, -2848.5510168732426, 0.0]
['beep', 0.0, -3356.360299153364, 0.0, 0.0, 0.0, 0.0, -2850.1826942184803, 0.0]
['beep', 0.0, -3351.8899502623026, 0.0, 0.0, 0.0, 0.0, -2827.473321851888, 0.0]
['beep', 0.0, -3349.878293261325, 0.0, 0.0, 0.0, 0.0, -2813.1011501671255, 0.0]
['beep', 0.0, -3355.153304952777, 0.0, 0.0, 0.0, 0.0, -2827.1380456850584, 0.0]
['beep', 0.0, -3361.7247178226376, 0.0, 0.0, 0.0, 0.0, -2848.5957203621533, 0.0]
['beep', 0.0, -3359.71306082166, 0.0, 0.0, 0.0, 0.0, -2851.8143715637175, 0.0]
['beep', 0.0, -3354.5945113413945, 0.0, 0.0, 0.0, 0.0, -2827.473321851888, 0.0]
['beep', 0.0, -3351.174694439733, 0.0, 0.0, 0.0, 0.0, -2813.1682054004914, 0.0]
['beep', 0.0, -3354.750973552582, 0.0, 0.0, 0.0, 0.0, -2826.4674933513993, 0.0]
['beep', 0.0, -3359.958930010668, 0.0, 0.0, 0.0, 0.0, -2850.5850256186754, 0.0]
['beep', 0.0, -3357.991976498601, 0.0, 0.0, 0.0, 0.0, -2851.970833774905, 0.0]
['beep', 0.0, -3351.7334880511153, 0.0, 0.0, 0.0, 0.0, -2828.70266779693, 0.0]
['beep', 0.0, -3350.7053078061713, 0.0, 0.0, 0.0, 0.0, -2813.838757734151, 0.0]
['beep', 0.0, -3356.717927064649, 0.0, 0.0, 0.0, 0.0, -2825.908699740017, 0.0]
['beep', 0.0, -3359.1766189547325, 0.0, 0.0, 0.0, 0.0, -2851.322633185701, 0.0]
['beep', 0.0, -3357.8578660318694, 0.0, 0.0, 0.0, 0.0, -2851.8367233081726, 0.0]
['beep', 0.0, -3353.1416479517998, 0.0, 0.0, 0.0, 0.0, -2827.026286962782, 0.0]
['beep', 0.0, -3351.6664328177494, 0.0, 0.0, 0.0, 0.0, -2813.0340949337597, 0.0]
['beep', 0.0, -3356.516761364551, 0.0, 0.0, 0.0, 0.0, -2827.026286962782, 0.0]
['beep', 0.0, -3360.4953718775955, 0.0, 0.0, 0.0, 0.0, -2850.696784340952, 0.0]
['beep', 0.0, -3359.355432910375, 0.0, 0.0, 0.0, 0.0, -2852.4625721529214, 0.0]
['beep', 0.0, -3354.0133659855564, 0.0, 0.0, 0.0, 0.0, -2829.820255019695, 0.0]
['beep', 0.0, -3352.9181305072466, 0.0, 0.0, 0.0, 0.0, -2815.7163042683965, 0.0]
['beep', 0.0, -3357.5225898650397, 0.0, 0.0, 0.0, 0.0, -2827.4286183629774, 0.0]
['beep', 0.0, -3360.003633499579, 0.0, 0.0, 0.0, 0.0, -2849.6239006070973, 0.0]
['beep', 0.0, -3356.7626305535596, 0.0, 0.0, 0.0, 0.0, -2852.4402204084663, 0.0]
['beep', 0.0, -3351.9570054956685, 0.0, 0.0, 0.0, 0.0, -2829.484978852866, 0.0]
['beep', 0.0, -3351.3088049064645, 0.0, 0.0, 0.0, 0.0, -2814.12933041207, 0.0]
['beep', 0.0, -3354.795677041492, 0.0, 0.0, 0.0, 0.0, -2827.4062666185223, 0.0]
['beep', 0.0, -3360.1824474552213, 0.0, 0.0, 0.0, 0.0, -2851.121467485603, 0.0]
['beep', 0.0, -3358.1037352208778, 0.0, 0.0, 0.0, 0.0, -2852.6190343641088, 0.0]
['beep', 0.0, -3352.3369851514085, 0.0, 0.0, 0.0, 0.0, -2830.0437724642484, 0.0]
['beep', 0.0, -3352.1134677068553, 0.0, 0.0, 0.0, 0.0, -2815.090455423648, 0.0]
['beep', 0.0, -3356.025022986534, 0.0, 0.0, 0.0, 0.0, -2826.51219684031, 0.0]
['beep', 0.0, -3359.8918747773023, 0.0, 0.0, 0.0, 0.0, -2851.2332262078794, 0.0]
['beep', 0.0, -3358.684880576716, 0.0, 0.0, 0.0, 0.0, -2855.5247611432983, 0.0]
['beep', 0.0, -3355.130953208322, 0.0, 0.0, 0.0, 0.0, -2831.764856787307, 0.0]
['beep', 0.0, -3352.42639212923, 0.0, 0.0, 0.0, 0.0, -2816.0068769463155, 0.0]
['beep', 0.0, -3354.8180287859477, 0.0, 0.0, 0.0, 0.0, -2828.568557330198, 0.0]
['beep', 0.0, -3359.5118951215622, 0.0, 0.0, 0.0, 0.0, -2852.931958786483, 0.0]
['beep', 0.0, -3358.975453254635, 0.0, 0.0, 0.0, 0.0, -2855.2341884653797, 0.0]
['beep', 0.0, -3354.1698281967438, 0.0, 0.0, 0.0, 0.0, -2831.451932364933, 0.0]
['beep', 0.0, -3353.6333863298164, 0.0, 0.0, 0.0, 0.0, -2815.0234001902822, 0.0]
['beep', 0.0, -3356.0920782199, 0.0, 0.0, 0.0, 0.0, -2826.4227898624886, 0.0]
['beep', 0.0, -3358.1037352208778, 0.0, 0.0, 0.0, 0.0, -2850.830894807684, 0.0]
['beep', 0.0, -3357.343775909397, 0.0, 0.0, 0.0, 0.0, -2854.4518774094436, 0.0]
['beep', 0.0, -3353.18635144071, 0.0, 0.0, 0.0, 0.0, -2832.636574821064, 0.0]
['beep', 0.0, -3350.928825250724, 0.0, 0.0, 0.0, 0.0, -2816.766836257796, 0.0]
['beep', 0.0, -3355.2427119305985, 0.0, 0.0, 0.0, 0.0, -2828.188577674458, 0.0]
['beep', 0.0, -3360.584778855417, 0.0, 0.0, 0.0, 0.0, -2853.1778279754913, 0.0]
['beep', 0.0, -3357.9472730096904, 0.0, 0.0, 0.0, 0.0, -2855.1000779986475, 0.0]
['beep', 0.0, -3351.8899502623026, 0.0, 0.0, 0.0, 0.0, -2832.189539931958, 0.0]
['beep', 0.0, -3351.6887845622045, 0.0, 0.0, 0.0, 0.0, -2815.6939525239413, 0.0]
['beep', 0.0, -3354.99684274159, 0.0, 0.0, 0.0, 0.0, -2828.188577674458, 0.0]
['beep', 0.0, -3359.221322443643, 0.0, 0.0, 0.0, 0.0, -2851.948482030449, 0.0]
['beep', 0.0, -3358.707232321171, 0.0, 0.0, 0.0, 0.0, -2853.7813250757845, 0.0]
['beep', 0.0, -3354.683918319216, 0.0, 0.0, 0.0, 0.0, -2831.7201532983963, 0.0]
['beep', 0.0, -3350.548845594984, 0.0, 0.0, 0.0, 0.0, -2815.4927868238437, 0.0]
['beep', 0.0, -3354.549807852484, 0.0, 0.0, 0.0, 0.0, -2828.6803160524746, 0.0]
['beep', 0.0, -3358.8860462768134, 0.0, 0.0, 0.0, 0.0, -2853.1107727421254, 0.0]
['beep', 0.0, -3358.3719561543417, 0.0, 0.0, 0.0, 0.0, -2854.7871535762733, 0.0]
['beep', 0.0, -3354.8180287859477, 0.0, 0.0, 0.0, 0.0, -2832.3683538876003, 0.0]
['beep', 0.0, -3354.5945113413945, 0.0, 0.0, 0.0, 0.0, -2816.2303943908687, 0.0]
['beep', 0.0, -3355.689746819705, 0.0, 0.0, 0.0, 0.0, -2827.2051009184243, 0.0]
['beep', 0.0, -3358.7966392989924, 0.0, 0.0, 0.0, 0.0, -2851.0097087633267, 0.0]
['beep', 0.0, -3355.510932864062, 0.0, 0.0, 0.0, 0.0, -2853.535455886776, 0.0]
['beep', 0.0, -3351.7334880511153, 0.0, 0.0, 0.0, 0.0, -2831.541339342754, 0.0]
['beep', 0.0, -3352.6722613182383, 0.0, 0.0, 0.0, 0.0, -2816.0068769463155, 0.0]
['beep', 0.0, -3353.90160726328, 0.0, 0.0, 0.0, 0.0, -2826.6239555625866, 0.0]
['beep', 0.0, -3359.064860232456, 0.0, 0.0, 0.0, 0.0, -2850.003880262838, 0.0]
['beep', 0.0, -3357.8802177763246, 0.0, 0.0, 0.0, 0.0, -2853.7142698424186, 0.0]
['beep', 0.0, -3351.219397928643, 0.0, 0.0, 0.0, 0.0, -2832.033077720771, 0.0]
['beep', 0.0, -3350.3029764059756, 0.0, 0.0, 0.0, 0.0, -2814.799882745729, 0.0]
['beep', 0.0, -3355.130953208322, 0.0, 0.0, 0.0, 0.0, -2827.6968392964413, 0.0]
['beep', 0.0, -3358.8636945323583, 0.0, 0.0, 0.0, 0.0, -2851.2332262078794, 0.0]
['beep', 0.0, -3358.1484387097885, 0.0, 0.0, 0.0, 0.0, -2855.6812233544856, 0.0]
['beep', 0.0, -3352.381688640319, 0.0, 0.0, 0.0, 0.0, -2832.3012986542344, 0.0]
['beep', 0.0, -3350.3476798948864, 0.0, 0.0, 0.0, 0.0, -2812.832929233662, 0.0]
['beep', 0.0, -3353.8792555188247, 0.0, 0.0, 0.0, 0.0, -2825.4393131064553, 0.0]
['beep', 0.0, -3359.1766189547325, 0.0, 0.0, 0.0, 0.0, -2847.8804645395835, 0.0]
['beep', 0.0, -3358.7966392989924, 0.0, 0.0, 0.0, 0.0, -2850.9426535299604, 0.0]
['beep', 0.0, -3354.5721595969394, 0.0, 0.0, 0.0, 0.0, -2830.4908073533547, 0.0]
['beep', 0.0, -3350.9735287396347, 0.0, 0.0, 0.0, 0.0, -2813.1011501671255, 0.0]
['beep', 0.0, -3353.074592718434, 0.0, 0.0, 0.0, 0.0, -2826.0651619512037, 0.0]
['beep', 0.0, -3358.2154939431543, 0.0, 0.0, 0.0, 0.0, -2850.763839574318, 0.0]
['beep', 0.0, -3358.126086965333, 0.0, 0.0, 0.0, 0.0, -2853.222531464402, 0.0]
['beep', 0.0, -3354.750973552582, 0.0, 0.0, 0.0, 0.0, -2830.669621308997, 0.0]
['beep', 0.0, -3352.873427018336, 0.0, 0.0, 0.0, 0.0, -2813.6599437785085, 0.0]
['beep', 0.0, -3356.382650897819, 0.0, 0.0, 0.0, 0.0, -2825.506368339821, 0.0]
['beep', 0.0, -3361.4341451447185, 0.0, 0.0, 0.0, 0.0, -2850.696784340952, 0.0]
['beep', 0.0, -3360.607130599872, 0.0, 0.0, 0.0, 0.0, -2854.965967531916, 0.0]
['beep', 0.0, -3355.063897974956, 0.0, 0.0, 0.0, 0.0, -2833.5529963437316, 0.0]
['beep', 0.0, -3352.068764217945, 0.0, 0.0, 0.0, 0.0, -2815.1128071681032, 0.0]
['beep', 0.0, -3357.656700331772, 0.0, 0.0, 0.0, 0.0, -2825.573423573187, 0.0]
['beep', 0.0, -3363.4458021456962, 0.0, 0.0, 0.0, 0.0, -2851.032060507782, 0.0]
['beep', 0.0, -3362.1717527117435, 0.0, 0.0, 0.0, 0.0, -2854.4518774094436, 0.0]
['beep', 0.0, -3356.7626305535596, 0.0, 0.0, 0.0, 0.0, -2831.6083945761197, 0.0]
['beep', 0.0, -3354.8627322748584, 0.0, 0.0, 0.0, 0.0, -2812.877632722573, 0.0]
['beep', 0.0, -3358.2154939431543, 0.0, 0.0, 0.0, 0.0, -2823.4500078499327, 0.0]
['beep', 0.0, -3361.5682556114502, 0.0, 0.0, 0.0, 0.0, -2849.9368250294715, 0.0]
['beep', 0.0, -3361.612959100361, 0.0, 0.0, 0.0, 0.0, -2854.273063453801, 0.0]
['beep', 0.0, -3356.6061683423723, 0.0, 0.0, 0.0, 0.0, -2831.2284149203797, 0.0]
['beep', 0.0, -3353.7227933076374, 0.0, 0.0, 0.0, 0.0, -2813.7269990118743, 0.0]
['beep', 0.0, -3356.449706131185, 0.0, 0.0, 0.0, 0.0, -2825.551071828732, 0.0]
['beep', 0.0, -3363.289339934509, 0.0, 0.0, 0.0, 0.0, -2850.5626738742203, 0.0]
['beep', 0.0, -3363.7363748236153, 0.0, 0.0, 0.0, 0.0, -2854.1166012426143, 0.0]
['beep', 0.0, -3357.8578660318694, 0.0, 0.0, 0.0, 0.0, -2832.6812783099745, 0.0]
['beep', 0.0, -3355.8685607753473, 0.0, 0.0, 0.0, 0.0, -2813.6822955229636, 0.0]
['beep', 0.0, -3358.416659643252, 0.0, 0.0, 0.0, 0.0, -2824.2323189058684, 0.0]
['beep', 0.0, -3361.4117934002634, 0.0, 0.0, 0.0, 0.0, -2849.8697697961056, 0.0]
['beep', 0.0, -3360.897703277791, 0.0, 0.0, 0.0, 0.0, -2855.0553745097372, 0.0]
['beep', 0.0, -3354.102772963378, 0.0, 0.0, 0.0, 0.0, -2835.542301600254, 0.0]
['beep', 0.0, -3352.381688640319, 0.0, 0.0, 0.0, 0.0, -2817.1691676579917, 0.0]
['beep', 0.0, -3356.226188686632, 0.0, 0.0, 0.0, 0.0, -2827.249804407335, 0.0]
['beep', 0.0, -3360.5624271109614, 0.0, 0.0, 0.0, 0.0, -2850.607377363131, 0.0]
['beep', 0.0, -3359.914226521758, 0.0, 0.0, 0.0, 0.0, -2855.3906506765666, 0.0]
['beep', 0.0, -3355.2203601861434, 0.0, 0.0, 0.0, 0.0, -2833.776513788285, 0.0]
['beep', 0.0, -3354.326290407931, 0.0, 0.0, 0.0, 0.0, -2815.60454554612, 0.0]
['beep', 0.0, -3358.349604409886, 0.0, 0.0, 0.0, 0.0, -2827.0709904516925, 0.0]
['beep', 0.0, -3360.964758511157, 0.0, 0.0, 0.0, 0.0, -2851.5908541191643, 0.0]
['beep', 0.0, -3359.288377677009, 0.0, 0.0, 0.0, 0.0, -2856.6423483660637, 0.0]
['beep', 0.0, -3355.8685607753473, 0.0, 0.0, 0.0, 0.0, -2834.447066121944, 0.0]
['beep', 0.0, -3352.80637178497, 0.0, 0.0, 0.0, 0.0, -2816.252746135324, 0.0]
['beep', 0.0, -3356.315595664453, 0.0, 0.0, 0.0, 0.0, -2826.154568929025, 0.0]
['beep', 0.0, -3362.5070288785732, 0.0, 0.0, 0.0, 0.0, -2847.5898918616645, 0.0]
['beep', 0.0, -3360.942406766702, 0.0, 0.0, 0.0, 0.0, -2853.6472146090528, 0.0]
['beep', 0.0, -3354.2368834301096, 0.0, 0.0, 0.0, 0.0, -2832.9494992434384, 0.0]
['beep', 0.0, -3350.1465141947883, 0.0, 0.0, 0.0, 0.0, -2817.3703333580893, 0.0]
['beep', 0.0, -3354.3709938968414, 0.0, 0.0, 0.0, 0.0, -2829.0826474526702, 0.0]
['beep', 0.0, -3359.958930010668, 0.0, 0.0, 0.0, 0.0, -2853.378993675589, 0.0]
['beep', 0.0, -3359.7801160550257, 0.0, 0.0, 0.0, 0.0, -2858.3187292002117, 0.0]
['beep', 0.0, -3353.5886828409057, 0.0, 0.0, 0.0, 0.0, -2835.251728922335, 0.0]
['beep', 0.0, -3350.839418272903, 0.0, 0.0, 0.0, 0.0, -2816.096283924137, 0.0]
['beep', 0.0, -3355.2650636750536, 0.0, 0.0, 0.0, 0.0, -2826.1769206734803, 0.0]
['beep', 0.0, -3360.607130599872, 0.0, 0.0, 0.0, 0.0, -2848.439258150966, 0.0]
['beep', 0.0, -3359.266025932554, 0.0, 0.0, 0.0, 0.0, -2853.513104142321, 0.0]
['beep', 0.0, -3354.8180287859477, 0.0, 0.0, 0.0, 0.0, -2831.787208531762, 0.0]
['beep', 0.0, -3352.448743873685, 0.0, 0.0, 0.0, 0.0, -2814.1069786676144, 0.0]
['beep', 0.0, -3356.516761364551, 0.0, 0.0, 0.0, 0.0, -2824.835816006162, 0.0]
['beep', 0.0, -3361.18827595571, 0.0, 0.0, 0.0, 0.0, -2851.8143715637175, 0.0]
['beep', 0.0, -3359.1989706991876, 0.0, 0.0, 0.0, 0.0, -2856.441182665966, 0.0]
['beep', 0.0, -3354.0804212189223, 0.0, 0.0, 0.0, 0.0, -2834.737638799863, 0.0]
['beep', 0.0, -3350.325328150431, 0.0, 0.0, 0.0, 0.0, -2817.2585746358127, 0.0]
['beep', 0.0, -3354.2592351745648, 0.0, 0.0, 0.0, 0.0, -2827.4286183629774, 0.0]
['beep', 0.0, -3360.3389096664087, 0.0, 0.0, 0.0, 0.0, -2851.1661709745135, 0.0]
['beep', 0.0, -3361.277682933531, 0.0, 0.0, 0.0, 0.0, -2856.3517756881447, 0.0]
['beep', 0.0, -3354.6392148303053, 0.0, 0.0, 0.0, 0.0, -2834.111789955114, 0.0]
['beep', 0.0, -3353.096944462889, 0.0, 0.0, 0.0, 0.0, -2815.515138568299, 0.0]
['beep', 0.0, -3356.516761364551, 0.0, 0.0, 0.0, 0.0, -2823.4947113388434, 0.0]
['beep', 0.0, -3359.623653843839, 0.0, 0.0, 0.0, 0.0, -2849.065106995715, 0.0]
['beep', 0.0, -3360.1824474552213, 0.0, 0.0, 0.0, 0.0, -2854.228359964891, 0.0]
['beep', 0.0, -3354.482752619118, 0.0, 0.0, 0.0, 0.0, -2833.8435690216506, 0.0]
['beep', 0.0, -3351.845246773392, 0.0, 0.0, 0.0, 0.0, -2815.805711246218, 0.0]
['beep', 0.0, -3354.795677041492, 0.0, 0.0, 0.0, 0.0, -2825.79694101774, 0.0]
['beep', 0.0, -3359.4448398881964, 0.0, 0.0, 0.0, 0.0, -2848.8862930400724, 0.0]
['beep', 0.0, -3360.7635928110594, 0.0, 0.0, 0.0, 0.0, -2854.228359964891, 0.0]
['beep', 0.0, -3355.689746819705, 0.0, 0.0, 0.0, 0.0, -2833.2624236658125, 0.0]
['beep', 0.0, -3351.9123020067577, 0.0, 0.0, 0.0, 0.0, -2815.6939525239413, 0.0]
['beep', 0.0, -3353.7227933076374, 0.0, 0.0, 0.0, 0.0, -2825.573423573187, 0.0]
['beep', 0.0, -3359.71306082166, 0.0, 0.0, 0.0, 0.0, -2849.7133075849188, 0.0]
['beep', 0.0, -3360.674185833238, 0.0, 0.0, 0.0, 0.0, -2854.921264043005, 0.0]
['beep', 0.0, -3355.488581119607, 0.0, 0.0, 0.0, 0.0, -2832.6812783099745, 0.0]
['beep', 0.0, -3352.716964807149, 0.0, 0.0, 0.0, 0.0, -2813.7269990118743, 0.0]
['beep', 0.0, -3356.2708921755425, 0.0, 0.0, 0.0, 0.0, -2824.187615416958, 0.0]
['beep', 0.0, -3361.612959100361, 0.0, 0.0, 0.0, 0.0, -2848.148685473047, 0.0]
['beep', 0.0, -3361.4117934002634, 0.0, 0.0, 0.0, 0.0, -2853.8036768202396, 0.0]
['beep', 0.0, -3356.8296857869254, 0.0, 0.0, 0.0, 0.0, -2831.675449809486, 0.0]
['beep', 0.0, -3353.3651653963525, 0.0, 0.0, 0.0, 0.0, -2813.212908889402, 0.0]
['beep', 0.0, -3355.779153797526, 0.0, 0.0, 0.0, 0.0, -2823.338249127656, 0.0]
['beep', 0.0, -3359.869523032847, 0.0, 0.0, 0.0, 0.0, -2847.634595350575, 0.0]
['beep', 0.0, -3359.869523032847, 0.0, 0.0, 0.0, 0.0, -2854.0942494981587, 0.0]
['beep', 0.0, -3355.443877630696, 0.0, 0.0, 0.0, 0.0, -2833.8212172771955, 0.0]
['beep', 0.0, -3351.174694439733, 0.0, 0.0, 0.0, 0.0, -2815.5821938016647, 0.0]
['beep', 0.0, -3354.706270063671, 0.0, 0.0, 0.0, 0.0, -2825.6181270620978, 0.0]
['beep', 0.0, -3360.607130599872, 0.0, 0.0, 0.0, 0.0, -2848.9757000178934, 0.0]
['beep', 0.0, -3358.2154939431543, 0.0, 0.0, 0.0, 0.0, -2856.0835547546812, 0.0]
['beep', 0.0, -3352.9404822517017, 0.0, 0.0, 0.0, 0.0, -2834.961156244416, 0.0]
['beep', 0.0, -3349.1183339498443, 0.0, 0.0, 0.0, 0.0, -2814.531661812265, 0.0]
['beep', 0.0, -3352.873427018336, 0.0, 0.0, 0.0, 0.0, -2822.667696793997, 0.0]
['beep', 0.0, -3356.8296857869254, 0.0, 0.0, 0.0, 0.0, -2847.031098250282, 0.0]
['beep', 0.0, -3356.650871831283, 0.0, 0.0, 0.0, 0.0, -2854.228359964891, 0.0]
['beep', 0.0, -3353.409868885263, 0.0, 0.0, 0.0, 0.0, -2834.2235486773907, 0.0]
['beep', 0.0, -3350.772363039537, 0.0, 0.0, 0.0, 0.0, -2814.9786967013715, 0.0]
['beep', 0.0, -3355.041546230501, 0.0, 0.0, 0.0, 0.0, -2826.243975906846, 0.0]
['beep', 0.0, -3360.0483369884896, 0.0, 0.0, 0.0, 0.0, -2850.7414878298628, 0.0]
['beep', 0.0, -3360.003633499579, 0.0, 0.0, 0.0, 0.0, -2856.3070721992344, 0.0]
['beep', 0.0, -3356.6955753201933, 0.0, 0.0, 0.0, 0.0, -2834.5141213553097, 0.0]
['beep', 0.0, -3354.035717730012, 0.0, 0.0, 0.0, 0.0, -2816.1409874130472, 0.0]
['beep', 0.0, -3354.5721595969394, 0.0, 0.0, 0.0, 0.0, -2824.4334846059664, 0.0]
['beep', 0.0, -3360.383613155319, 0.0, 0.0, 0.0, 0.0, -2849.1098104846255, 0.0]
['beep', 0.0, -3361.1212207223443, 0.0, 0.0, 0.0, 0.0, -2855.7482785878515, 0.0]
['beep', 0.0, -3356.0920782199, 0.0, 0.0, 0.0, 0.0, -2834.8717492665946, 0.0]
['beep', 0.0, -3354.683918319216, 0.0, 0.0, 0.0, 0.0, -2815.135158912559, 0.0]
['beep', 0.0, -3356.4944096200957, 0.0, 0.0, 0.0, 0.0, -2823.8523392501284, 0.0]
['beep', 0.0, -3360.003633499579, 0.0, 0.0, 0.0, 0.0, -2848.081630239681, 0.0]
['beep', 0.0, -3360.0483369884896, 0.0, 0.0, 0.0, 0.0, -2854.6977465984523, 0.0]
['beep', 0.0, -3353.8792555188247, 0.0, 0.0, 0.0, 0.0, -2832.2118916764134, 0.0]
['beep', 0.0, -3351.2417496730986, 0.0, 0.0, 0.0, 0.0, -2813.0564466782153, 0.0]
['beep', 0.0, -3356.293243919998, 0.0, 0.0, 0.0, 0.0, -2820.343115370645, 0.0]
['beep', 0.0, -3360.0483369884896, 0.0, 0.0, 0.0, 0.0, -2846.0029180053375, 0.0]
['beep', 0.0, -3360.160095710766, 0.0, 0.0, 0.0, 0.0, -2853.893083798061, 0.0]
['beep', 0.0, -3355.488581119607, 0.0, 0.0, 0.0, 0.0, -2831.8542637651285, 0.0]
['beep', 0.0, -3352.6052060848724, 0.0, 0.0, 0.0, 0.0, -2812.899984467028, 0.0]
['beep', 0.0, -3356.382650897819, 0.0, 0.0, 0.0, 0.0, -2822.2653653938014, 0.0]
['beep', 0.0, -3360.8306480444253, 0.0, 0.0, 0.0, 0.0, -2846.8746360390946, 0.0]
['beep', 0.0, -3359.869523032847, 0.0, 0.0, 0.0, 0.0, -2852.887255297572, 0.0]
['beep', 0.0, -3354.683918319216, 0.0, 0.0, 0.0, 0.0, -2833.374182388089, 0.0]
['beep', 0.0, -3352.448743873685, 0.0, 0.0, 0.0, 0.0, -2812.609411789109, 0.0]
['beep', 0.0, -3356.0920782199, 0.0, 0.0, 0.0, 0.0, -2821.706571782419, 0.0]
['beep', 0.0, -3360.160095710766, 0.0, 0.0, 0.0, 0.0, -2846.6511185945415, 0.0]
['beep', 0.0, -3358.260197432065, 0.0, 0.0, 0.0, 0.0, -2854.89891229855, 0.0]
['beep', 0.0, -3354.102772963378, 0.0, 0.0, 0.0, 0.0, -2834.447066121944, 0.0]
['beep', 0.0, -3352.3369851514085, 0.0, 0.0, 0.0, 0.0, -2816.3421531131453, 0.0]
['beep', 0.0, -3355.5779880974283, 0.0, 0.0, 0.0, 0.0, -2823.7182287833966, 0.0]
['beep', 0.0, -3360.7188893221487, 0.0, 0.0, 0.0, 0.0, -2848.2604441953235, 0.0]
['beep', 0.0, -3360.4730201331404, 0.0, 0.0, 0.0, 0.0, -2854.7424500873626, 0.0]
['beep', 0.0, -3354.8180287859477, 0.0, 0.0, 0.0, 0.0, -2837.218682434402, 0.0]
['beep', 0.0, -3351.9570054956685, 0.0, 0.0, 0.0, 0.0, -2818.2420513918464, 0.0]
['beep', 0.0, -3356.1367817088108, 0.0, 0.0, 0.0, 0.0, -2826.288679395757, 0.0]
['beep', 0.0, -3360.517723622051, 0.0, 0.0, 0.0, 0.0, -2850.920301785505, 0.0]
['beep', 0.0, -3360.517723622051, 0.0, 0.0, 0.0, 0.0, -2857.245845466357, 0.0]
['beep', 0.0, -3354.348642152386, 0.0, 0.0, 0.0, 0.0, -2835.0729149666927, 0.0]
['beep', 0.0, -3351.420563628741, 0.0, 0.0, 0.0, 0.0, -2815.8504147351287, 0.0]
['beep', 0.0, -3356.069726475445, 0.0, 0.0, 0.0, 0.0, -2825.4169613619997, 0.0]
['beep', 0.0, -3358.61782534335, 0.0, 0.0, 0.0, 0.0, -2850.3615081741227, 0.0]
['beep', 0.0, -3357.8355142874143, 0.0, 0.0, 0.0, 0.0, -2856.6647001105193, 0.0]
['beep', 0.0, -3353.5886828409057, 0.0, 0.0, 0.0, 0.0, -2837.218682434402, 0.0]
['beep', 0.0, -3350.6382525728054, 0.0, 0.0, 0.0, 0.0, -2818.219699647391, 0.0]
['beep', 0.0, -3353.029889229523, 0.0, 0.0, 0.0, 0.0, -2825.059333450715, 0.0]
['beep', 0.0, -3358.059031731967, 0.0, 0.0, 0.0, 0.0, -2849.4227349069997, 0.0]
['beep', 0.0, -3359.0425084880007, 0.0, 0.0, 0.0, 0.0, -2856.843514066162, 0.0]
['beep', 0.0, -3354.683918319216, 0.0, 0.0, 0.0, 0.0, -2836.257557422824, 0.0]
['beep', 0.0, -3351.6664328177494, 0.0, 0.0, 0.0, 0.0, -2816.9680019578936, 0.0]
['beep', 0.0, -3352.9628339961573, 0.0, 0.0, 0.0, 0.0, -2826.4674933513993, 0.0]
['beep', 0.0, -3358.349604409886, 0.0, 0.0, 0.0, 0.0, -2852.641386108564, 0.0]
['beep', 0.0, -3355.645043330794, 0.0, 0.0, 0.0, 0.0, -2858.9445780449605, 0.0]
['beep', 0.0, -3350.906473506269, 0.0, 0.0, 0.0, 0.0, -2837.352792901134, 0.0]
['beep', 0.0, -3348.939519994202, 0.0, 0.0, 0.0, 0.0, -2816.0515804352262, 0.0]
['beep', 0.0, -3353.074592718434, 0.0, 0.0, 0.0, 0.0, -2824.8805194950723, 0.0]
['beep', 0.0, -3358.193142198699, 0.0, 0.0, 0.0, 0.0, -2849.4674383959104, 0.0]
['beep', 0.0, -3359.9812817551237, 0.0, 0.0, 0.0, 0.0, -2857.737583844374, 0.0]
['beep', 0.0, -3353.2310549296208, 0.0, 0.0, 0.0, 0.0, -2837.3304411566787, 0.0]
['beep', 0.0, -3350.7947147839923, 0.0, 0.0, 0.0, 0.0, -2817.5267955692766, 0.0]
['beep', 0.0, -3354.6392148303053, 0.0, 0.0, 0.0, 0.0, -2825.0146299618045, 0.0]
['beep', 0.0, -3358.8413427879027, 0.0, 0.0, 0.0, 0.0, -2849.288624440268, 0.0]
['beep', 0.0, -3358.394307898797, 0.0, 0.0, 0.0, 0.0, -2856.128258243592, 0.0]
['beep', 0.0, -3352.6946130626934, 0.0, 0.0, 0.0, 0.0, -2835.698763811441, 0.0]
['beep', 0.0, -3348.358374638364, 0.0, 0.0, 0.0, 0.0, -2817.415036847, 0.0]
['beep', 0.0, -3351.6887845622045, 0.0, 0.0, 0.0, 0.0, -2823.60647006112, 0.0]
['beep', 0.0, -3357.254368931576, 0.0, 0.0, 0.0, 0.0, -2848.282795939779, 0.0]
['beep', 0.0, -3357.343775909397, 0.0, 0.0, 0.0, 0.0, -2856.4635344104213, 0.0]
['beep', 0.0, -3353.1416479517998, 0.0, 0.0, 0.0, 0.0, -2837.1963306899465, 0.0]
['beep', 0.0, -3350.5935490838947, 0.0, 0.0, 0.0, 0.0, -2815.9174699684945, 0.0]
['beep', 0.0, -3354.192179941199, 0.0, 0.0, 0.0, 0.0, -2822.7124002829078, 0.0]
['beep', 0.0, -3357.90256952078, 0.0, 0.0, 0.0, 0.0, -2847.8804645395835, 0.0]
['beep', 0.0, -3357.2096654426655, 0.0, 0.0, 0.0, 0.0, -2856.3741274326003, 0.0]
['beep', 0.0, -3351.264101417554, 0.0, 0.0, 0.0, 0.0, -2836.3693161451, 0.0]
['beep', 0.0, -3350.1465141947883, 0.0, 0.0, 0.0, 0.0, -2818.5326240697655, 0.0]
['beep', 0.0, -3353.074592718434, 0.0, 0.0, 0.0, 0.0, -2825.863996251106, 0.0]
['beep', 0.0, -3357.030851487023, 0.0, 0.0, 0.0, 0.0, -2850.9426535299604, 0.0]
['beep', 0.0, -3357.2096654426655, 0.0, 0.0, 0.0, 0.0, -2859.637482123075, 0.0]
['beep', 0.0, -3353.476924118629, 0.0, 0.0, 0.0, 0.0, -2838.2021591904354, 0.0]
['beep', 0.0, -3349.6547758167717, 0.0, 0.0, 0.0, 0.0, -2817.996182202838, 0.0]
['beep', 0.0, -3351.4429153731962, 0.0, 0.0, 0.0, 0.0, -2825.4393131064553, 0.0]
['beep', 0.0, -3358.1707904542436, 0.0, 0.0, 0.0, 0.0, -2849.1098104846255, 0.0]
['beep', 0.0, -3358.5060666210734, 0.0, 0.0, 0.0, 0.0, -2858.1399152445692, 0.0]
['beep', 0.0, -3352.784020040515, 0.0, 0.0, 0.0, 0.0, -2838.157455701525, 0.0]
['beep', 0.0, -3351.3088049064645, 0.0, 0.0, 0.0, 0.0, -2817.638554291553, 0.0]
['beep', 0.0, -3354.482752619118, 0.0, 0.0, 0.0, 0.0, -2826.579252073676, 0.0]
['beep', 0.0, -3360.6965375776936, 0.0, 0.0, 0.0, 0.0, -2850.7861913187735, 0.0]
['beep', 0.0, -3359.422488143741, 0.0, 0.0, 0.0, 0.0, -2860.4868484123767, 0.0]
['beep', 0.0, -3352.4040403847744, 0.0, 0.0, 0.0, 0.0, -2841.532569114276, 0.0]
['beep', 0.0, -3349.4759618611292, 0.0, 0.0, 0.0, 0.0, -2820.70074328193, 0.0]
['beep', 0.0, -3353.163999696255, 0.0, 0.0, 0.0, 0.0, -2825.9757549733827, 0.0]
['beep', 0.0, -3358.550770109984, 0.0, 0.0, 0.0, 0.0, -2849.6239006070973, 0.0]
['beep', 0.0, -3358.483714876618, 0.0, 0.0, 0.0, 0.0, -2859.3022059562454, 0.0]
['beep', 0.0, -3353.029889229523, 0.0, 0.0, 0.0, 0.0, -2840.482037124877, 0.0]
['beep', 0.0, -3349.744182794593, 0.0, 0.0, 0.0, 0.0, -2819.2478798923353, 0.0]
['beep', 0.0, -3353.1416479517998, 0.0, 0.0, 0.0, 0.0, -2825.0816851951704, 0.0]
['beep', 0.0, -3359.1766189547325, 0.0, 0.0, 0.0, 0.0, -2849.2215692069017, 0.0]
['beep', 0.0, -3358.930749765724, 0.0, 0.0, 0.0, 0.0, -2857.871694311106, 0.0]
['beep', 0.0, -3351.6217293288387, 0.0, 0.0, 0.0, 0.0, -2837.6880690679636, 0.0]
['beep', 0.0, -3349.0512787164785, 0.0, 0.0, 0.0, 0.0, -2816.6774292799746, 0.0]
['beep', 0.0, -3352.582854340417, 0.0, 0.0, 0.0, 0.0, -2823.7852840167625, 0.0]
['beep', 0.0, -3358.327252665431, 0.0, 0.0, 0.0, 0.0, -2848.9086447845275, 0.0]
['beep', 0.0, -3358.1484387097885, 0.0, 0.0, 0.0, 0.0, -2858.117563500114, 0.0]
['beep', 0.0, -3351.8899502623026, 0.0, 0.0, 0.0, 0.0, -2839.7444295578516, 0.0]
['beep', 0.0, -3350.101810705878, 0.0, 0.0, 0.0, 0.0, -2818.5326240697655, 0.0]
['beep', 0.0, -3354.2815869190204, 0.0, 0.0, 0.0, 0.0, -2825.282850895268, 0.0]
['beep', 0.0, -3358.5954735988944, 0.0, 0.0, 0.0, 0.0, -2849.892121540561, 0.0]
['beep', 0.0, -3358.3049009209753, 0.0, 0.0, 0.0, 0.0, -2858.4304879224883, 0.0]
['beep', 0.0, -3351.9123020067577, 0.0, 0.0, 0.0, 0.0, -2839.0068219908267, 0.0]
['beep', 0.0, -3351.3982118842855, 0.0, 0.0, 0.0, 0.0, -2818.13029266957, 0.0]
['beep', 0.0, -3354.348642152386, 0.0, 0.0, 0.0, 0.0, -2823.4500078499327, 0.0]
['beep', 0.0, -3358.2154939431543, 0.0, 0.0, 0.0, 0.0, -2846.695822083452, 0.0]
['beep', 0.0, -3358.0143282430568, 0.0, 0.0, 0.0, 0.0, -2855.9717960324047, 0.0]
['beep', 0.0, -3352.716964807149, 0.0, 0.0, 0.0, 0.0, -2837.7104208124188, 0.0]
['beep', 0.0, -3349.230092672121, 0.0, 0.0, 0.0, 0.0, -2817.929126969472, 0.0]
['beep', 0.0, -3352.6275578293275, 0.0, 0.0, 0.0, 0.0, -2825.2381474063573, 0.0]
['beep', 0.0, -3357.2767206760313, 0.0, 0.0, 0.0, 0.0, -2849.6239006070973, 0.0]
['beep', 0.0, -3356.9861479981123, 0.0, 0.0, 0.0, 0.0, -2859.4586681674327, 0.0]
['beep', 0.0, -3351.934653751213, 0.0, 0.0, 0.0, 0.0, -2840.929072013983, 0.0]
['beep', 0.0, -3348.850113016381, 0.0, 0.0, 0.0, 0.0, -2820.611336304109, 0.0]
['beep', 0.0, -3353.745145052093, 0.0, 0.0, 0.0, 0.0, -2827.830949763173, 0.0]
['beep', 0.0, -3358.7966392989924, 0.0, 0.0, 0.0, 0.0, -2851.1438192300584, 0.0]
['beep', 0.0, -3358.5954735988944, 0.0, 0.0, 0.0, 0.0, -2858.475191411399, 0.0]
['beep', 0.0, -3355.71209856416, 0.0, 0.0, 0.0, 0.0, -2840.7726098027956, 0.0]
['beep', 0.0, -3352.47109561814, 0.0, 0.0, 0.0, 0.0, -2820.477225837377, 0.0]
['beep', 0.0, -3351.286453162009, 0.0, 0.0, 0.0, 0.0, -2826.6910107959525, 0.0]
['beep', 0.0, -3353.3651653963525, 0.0, 0.0, 0.0, 0.0, -2849.4227349069997, 0.0]
['beep', 0.0, -3353.2757584185315, 0.0, 0.0, 0.0, 0.0, -2858.2069704779356, 0.0]
['beep', 0.0, -3349.4759618611292, 0.0, 0.0, 0.0, 0.0, -2839.99029874686, 0.0]
['beep', 0.0, -3348.559540338462, 0.0, 0.0, 0.0, 0.0, -2819.5608043147095, 0.0]
['beep', 0.0, -3351.6887845622045, 0.0, 0.0, 0.0, 0.0, -2825.305202639723, 0.0]
['beep', 0.0, -3356.6285200868274, 0.0, 0.0, 0.0, 0.0, -2849.5791971181866, 0.0]
['beep', 0.0, -3356.8743892758357, 0.0, 0.0, 0.0, 0.0, -2859.637482123075, 0.0]
['beep', 0.0, -3351.5993775843835, 0.0, 0.0, 0.0, 0.0, -2841.0631824807147, 0.0]
['beep', 0.0, -3347.5984153268832, 0.0, 0.0, 0.0, 0.0, -2821.03601944876, 0.0]
['beep', 0.0, -3349.319499649942, 0.0, 0.0, 0.0, 0.0, -2826.243975906846, 0.0]
['beep', 0.0, -3355.8685607753473, 0.0, 0.0, 0.0, 0.0, -2849.7803628182846, 0.0]
['beep', 0.0, -3356.5614648534615, 0.0, 0.0, 0.0, 0.0, -2860.4868484123767, 0.0]
['beep', 0.0, -3352.0464124734895, 0.0, 0.0, 0.0, 0.0, -2843.4324673929773, 0.0]
['beep', 0.0, -3350.928825250724, 0.0, 0.0, 0.0, 0.0, -2821.1701299154915, 0.0]
['beep', 0.0, -3351.800543284481, 0.0, 0.0, 0.0, 0.0, -2827.1380456850584, 0.0]
['beep', 0.0, -3355.734450308615, 0.0, 0.0, 0.0, 0.0, -2851.546150630254, 0.0]
['beep', 0.0, -3356.293243919998, 0.0, 0.0, 0.0, 0.0, -2861.403269935044, 0.0]
['beep', 0.0, -3350.9511769951796, 0.0, 0.0, 0.0, 0.0, -2843.7453918153515, 0.0]
['beep', 0.0, -3346.681993804216, 0.0, 0.0, 0.0, 0.0, -2821.1924816599467, 0.0]
['beep', 0.0, -3348.8277612719253, 0.0, 0.0, 0.0, 0.0, -2827.4062666185223, 0.0]
['beep', 0.0, -3356.1144299643556, 0.0, 0.0, 0.0, 0.0, -2852.3284616861897, 0.0]
['beep', 0.0, -3357.053203231478, 0.0, 0.0, 0.0, 0.0, -2861.827953079695, 0.0]
['beep', 0.0, -3352.9181305072466, 0.0, 0.0, 0.0, 0.0, -2842.0466592367484, 0.0]
['beep', 0.0, -3350.0794589614225, 0.0, 0.0, 0.0, 0.0, -2821.326592126679, 0.0]
['beep', 0.0, -3352.0464124734895, 0.0, 0.0, 0.0, 0.0, -2826.89217649605, 0.0]
['beep', 0.0, -3357.5672933539504, 0.0, 0.0, 0.0, 0.0, -2850.3615081741227, 0.0]
['beep', 0.0, -3355.1980084416878, 0.0, 0.0, 0.0, 0.0, -2861.2915112127675, 0.0]
['beep', 0.0, -3349.811238027959, 0.0, 0.0, 0.0, 0.0, -2843.499522626343, 0.0]
['beep', 0.0, -3347.0396217155007, 0.0, 0.0, 0.0, 0.0, -2821.5054060823213, 0.0]
['beep', 0.0, -3350.4370868727074, 0.0, 0.0, 0.0, 0.0, -2826.735714284863, 0.0]
['beep', 0.0, -3355.2203601861434, 0.0, 0.0, 0.0, 0.0, -2853.244883208857, 0.0]
['beep', 0.0, -3355.2650636750536, 0.0, 0.0, 0.0, 0.0, -2861.7832495907846, 0.0]
['beep', 0.0, -3350.906473506269, 0.0, 0.0, 0.0, 0.0, -2842.9407290149607, 0.0]
['beep', 0.0, -3348.0454502159896, 0.0, 0.0, 0.0, 0.0, -2822.7794555162736, 0.0]
['beep', 0.0, -3351.487618862107, 0.0, 0.0, 0.0, 0.0, -2827.853301507628, 0.0]
['beep', 0.0, -3355.801505541981, 0.0, 0.0, 0.0, 0.0, -2853.08842099767, 0.0]
['beep', 0.0, -3355.779153797526, 0.0, 0.0, 0.0, 0.0, -2864.4207554365107, 0.0]
['beep', 0.0, -3351.8899502623026, 0.0, 0.0, 0.0, 0.0, -2844.9076825270276, 0.0]
['beep', 0.0, -3348.9842234831126, 0.0, 0.0, 0.0, 0.0, -2821.572461315687, 0.0]
['beep', 0.0, -3353.2534066740764, 0.0, 0.0, 0.0, 0.0, -2827.830949763173, 0.0]
['beep', 0.0, -3358.1037352208778, 0.0, 0.0, 0.0, 0.0, -2851.7249645858965, 0.0]
['beep', 0.0, -3357.4331828872187, 0.0, 0.0, 0.0, 0.0, -2861.313862957223, 0.0]
['beep', 0.0, -3354.5051043635735, 0.0, 0.0, 0.0, 0.0, -2843.857150537628, 0.0]
['beep', 0.0, -3351.197046184188, 0.0, 0.0, 0.0, 0.0, -2822.7794555162736, 0.0]
['beep', 0.0, -3353.7898485410037, 0.0, 0.0, 0.0, 0.0, -2830.222586419891, 0.0]
['beep', 0.0, -3358.28254917652, 0.0, 0.0, 0.0, 0.0, -2854.876560554095, 0.0]
['beep', 0.0, -3359.5565986104725, 0.0, 0.0, 0.0, 0.0, -2863.6160926361194, 0.0]
['beep', 0.0, -3353.968662496646, 0.0, 0.0, 0.0, 0.0, -2845.3100139272233, 0.0]
['beep', 0.0, -3347.933691493713, 0.0, 0.0, 0.0, 0.0, -2822.51123458281, 0.0]
['beep', 0.0, -3351.3088049064645, 0.0, 0.0, 0.0, 0.0, -2826.6463073070418, 0.0]
['beep', 0.0, -3355.645043330794, 0.0, 0.0, 0.0, 0.0, -2850.540322129765, 0.0]
['beep', 0.0, -3356.3379474089083, 0.0, 0.0, 0.0, 0.0, -2860.9338833014826, 0.0]
['beep', 0.0, -3352.42639212923, 0.0, 0.0, 0.0, 0.0, -2843.119542970603, 0.0]
['beep', 0.0, -3349.0736304609336, 0.0, 0.0, 0.0, 0.0, -2822.2430136493463, 0.0]
['beep', 0.0, -3351.8899502623026, 0.0, 0.0, 0.0, 0.0, -2826.959231729416, 0.0]
['beep', 0.0, -3356.002671242079, 0.0, 0.0, 0.0, 0.0, -2850.093287240659, 0.0]
['beep', 0.0, -3355.689746819705, 0.0, 0.0, 0.0, 0.0, -2862.5208571578096, 0.0]
['beep', 0.0, -3353.5886828409057, 0.0, 0.0, 0.0, 0.0, -2843.790095304262, 0.0]
['beep', 0.0, -3349.4089066277634, 0.0, 0.0, 0.0, 0.0, -2823.539414827754, 0.0]
['beep', 0.0, -3351.4429153731962, 0.0, 0.0, 0.0, 0.0, -2829.6414410640527, 0.0]
['beep', 0.0, -3356.8296857869254, 0.0, 0.0, 0.0, 0.0, -2852.9766622753937, 0.0]
['beep', 0.0, -3357.2096654426655, 0.0, 0.0, 0.0, 0.0, -2862.0738222687037, 0.0]
['beep', 0.0, -3352.359336895864, 0.0, 0.0, 0.0, 0.0, -2843.3877639040666, 0.0]
['beep', 0.0, -3347.3972496267857, 0.0, 0.0, 0.0, 0.0, -2822.4888828383546, 0.0]
['beep', 0.0, -3349.3865548833082, 0.0, 0.0, 0.0, 0.0, -2827.853301507628, 0.0]
['beep', 0.0, -3354.3709938968414, 0.0, 0.0, 0.0, 0.0, -2852.507275641832, 0.0]
['beep', 0.0, -3354.9744909971346, 0.0, 0.0, 0.0, 0.0, -2864.1301827585917, 0.0]
['beep', 0.0, -3353.5663310964505, 0.0, 0.0, 0.0, 0.0, -2845.4217726495, 0.0]
['beep', 0.0, -3352.001708984579, 0.0, 0.0, 0.0, 0.0, -2822.4665310938994, 0.0]
['beep', 0.0, -3354.035717730012, 0.0, 0.0, 0.0, 0.0, -2828.479150352377, 0.0]
['beep', 0.0, -3359.578950354928, 0.0, 0.0, 0.0, 0.0, -2852.0825924971814, 0.0]
['beep', 0.0, -3358.5284183655285, 0.0, 0.0, 0.0, 0.0, -2863.347871702656, 0.0]
['beep', 0.0, -3352.9851857406125, 0.0, 0.0, 0.0, 0.0, -2844.795923804751, 0.0]
['beep', 0.0, -3351.3982118842855, 0.0, 0.0, 0.0, 0.0, -2822.8465107496395, 0.0]
['beep', 0.0, -3353.3651653963525, 0.0, 0.0, 0.0, 0.0, -2826.6463073070418, 0.0]
['beep', 0.0, -3358.8413427879027, 0.0, 0.0, 0.0, 0.0, -2851.2332262078794, 0.0]
['beep', 0.0, -3357.9472730096904, 0.0, 0.0, 0.0, 0.0, -2863.6831478694858, 0.0]
['beep', 0.0, -3352.2922816624978, 0.0, 0.0, 0.0, 0.0, -2849.08745874017, 0.0]
['beep', 0.0, -3349.8559415168693, 0.0, 0.0, 0.0, 0.0, -2826.243975906846, 0.0]
['beep', 0.0, -3352.225226429132, 0.0, 0.0, 0.0, 0.0, -2830.3343451421674, 0.0]
['beep', 0.0, -3357.768459054048, 0.0, 0.0, 0.0, 0.0, -2854.7871535762733, 0.0]
['beep', 0.0, -3359.266025932554, 0.0, 0.0, 0.0, 0.0, -2866.7676886043178, 0.0]
['beep', 0.0, -3354.8180287859477, 0.0, 0.0, 0.0, 0.0, -2848.4839616398767, 0.0]
['beep', 0.0, -3351.3088049064645, 0.0, 0.0, 0.0, 0.0, -2826.9145282405057, 0.0]
['beep', 0.0, -3354.750973552582, 0.0, 0.0, 0.0, 0.0, -2830.5578625867206, 0.0]
['beep', 0.0, -3359.1542672102773, 0.0, 0.0, 0.0, 0.0, -2853.1778279754913, 0.0]
['beep', 0.0, -3358.3719561543417, 0.0, 0.0, 0.0, 0.0, -2866.94650255996, 0.0]
['beep', 0.0, -3355.5779880974283, 0.0, 0.0, 0.0, 0.0, -2850.607377363131, 0.0]
['beep', 0.0, -3351.3535083953752, 0.0, 0.0, 0.0, 0.0, -2827.518025340799, 0.0]
['beep', 0.0, -3352.9181305072466, 0.0, 0.0, 0.0, 0.0, -2831.161359687014, 0.0]
['beep', 0.0, -3357.679052076227, 0.0, 0.0, 0.0, 0.0, -2854.541284387265, 0.0]
['beep', 0.0, -3359.0872119769115, 0.0, 0.0, 0.0, 0.0, -2865.985377548382, 0.0]
['beep', 0.0, -3355.041546230501, 0.0, 0.0, 0.0, 0.0, -2847.388726161567, 0.0]
['beep', 0.0, -3350.0571072169673, 0.0, 0.0, 0.0, 0.0, -2824.992278217349, 0.0]
['beep', 0.0, -3352.068764217945, 0.0, 0.0, 0.0, 0.0, -2829.216757919402, 0.0]
['beep', 0.0, -3358.394307898797, 0.0, 0.0, 0.0, 0.0, -2853.5578076312313, 0.0]
['beep', 0.0, -3360.964758511157, 0.0, 0.0, 0.0, 0.0, -2866.18654324848, 0.0]
['beep', 0.0, -3356.2708921755425, 0.0, 0.0, 0.0, 0.0, -2850.5626738742203, 0.0]
['beep', 0.0, -3352.3369851514085, 0.0, 0.0, 0.0, 0.0, -2828.993240474849, 0.0]
['beep', 0.0, -3354.840380530403, 0.0, 0.0, 0.0, 0.0, -2831.2060631759246, 0.0]
['beep', 0.0, -3361.1435724667995, 0.0, 0.0, 0.0, 0.0, -2852.4849238973766, 0.0]
['beep', 0.0, -3360.651834088783, 0.0, 0.0, 0.0, 0.0, -2864.8230868367064, 0.0]
['beep', 0.0, -3355.0191944860453, 0.0, 0.0, 0.0, 0.0, -2848.5286651287875, 0.0]
['beep', 0.0, -3351.6887845622045, 0.0, 0.0, 0.0, 0.0, -2827.0039352183267, 0.0]
['beep', 0.0, -3352.6275578293275, 0.0, 0.0, 0.0, 0.0, -2832.8824440100725, 0.0]
['beep', 0.0, -3358.707232321171, 0.0, 0.0, 0.0, 0.0, -2856.7764588327955, 0.0]
['beep', 0.0, -3360.003633499579, 0.0, 0.0, 0.0, 0.0, -2867.862924082628, 0.0]
['beep', 0.0, -3354.795677041492, 0.0, 0.0, 0.0, 0.0, -2851.2108744634243, 0.0]
['beep', 0.0, -3350.213569428154, 0.0, 0.0, 0.0, 0.0, -2827.026286962782, 0.0]
['beep', 0.0, -3352.5605025959617, 0.0, 0.0, 0.0, 0.0, -2831.6530980650305, 0.0]
['beep', 0.0, -3358.6625288322603, 0.0, 0.0, 0.0, 0.0, -2855.837685565673, 0.0]
['beep', 0.0, -3360.316557921953, 0.0, 0.0, 0.0, 0.0, -2867.7511653603515, 0.0]
['beep', 0.0, -3355.9579677531683, 0.0, 0.0, 0.0, 0.0, -2850.89795004105, 0.0]
['beep', 0.0, -3353.812200285459, 0.0, 0.0, 0.0, 0.0, -2829.3061648972234, 0.0]
['beep', 0.0, -3355.7568020530707, 0.0, 0.0, 0.0, 0.0, -2832.725981798885, 0.0]
['beep', 0.0, -3359.5342468660174, 0.0, 0.0, 0.0, 0.0, -2855.792982076762, 0.0]
['beep', 0.0, -3362.864656789858, 0.0, 0.0, 0.0, 0.0, -2867.862924082628, 0.0]
['beep', 0.0, -3357.8355142874143, 0.0, 0.0, 0.0, 0.0, -2850.2721011963013, 0.0]
['beep', 0.0, -3352.3146334069534, 0.0, 0.0, 0.0, 0.0, -2826.7580660293183, 0.0]
['beep', 0.0, -3354.192179941199, 0.0, 0.0, 0.0, 0.0, -2828.792074774751, 0.0]
['beep', 0.0, -3359.668357332749, 0.0, 0.0, 0.0, 0.0, -2852.2390547083683, 0.0]
['beep', 0.0, -3360.674185833238, 0.0, 0.0, 0.0, 0.0, -2863.6160926361194, 0.0]
['beep', 0.0, -3356.2708921755425, 0.0, 0.0, 0.0, 0.0, -2847.99222326186, 0.0]
['beep', 0.0, -3352.582854340417, 0.0, 0.0, 0.0, 0.0, -2827.4956735963433, 0.0]
['beep', 0.0, -3354.415697385752, 0.0, 0.0, 0.0, 0.0, -2829.5967375751425, 0.0]
['beep', 0.0, -3359.914226521758, 0.0, 0.0, 0.0, 0.0, -2853.3342901866786, 0.0]
['beep', 0.0, -3361.322386422442, 0.0, 0.0, 0.0, 0.0, -2865.2701217258123, 0.0]
['beep', 0.0, -3356.8743892758357, 0.0, 0.0, 0.0, 0.0, -2846.8522842946395, 0.0]
['beep', 0.0, -3352.068764217945, 0.0, 0.0, 0.0, 0.0, -2824.478188094877, 0.0]
['beep', 0.0, -3353.968662496646, 0.0, 0.0, 0.0, 0.0, -2827.4956735963433, 0.0]
['beep', 0.0, -3359.33308116592, 0.0, 0.0, 0.0, 0.0, -2851.6802610969858, 0.0]
['beep', 0.0, -3360.271854433043, 0.0, 0.0, 0.0, 0.0, -2864.3984036920556, 0.0]
['beep', 0.0, -3354.9297875082243, 0.0, 0.0, 0.0, 0.0, -2848.8639412956168, 0.0]
['beep', 0.0, -3350.5041421060732, 0.0, 0.0, 0.0, 0.0, -2825.573423573187, 0.0]
['beep', 0.0, -3355.287415419509, 0.0, 0.0, 0.0, 0.0, -2827.3392113851564, 0.0]
['beep', 0.0, -3358.975453254635, 0.0, 0.0, 0.0, 0.0, -2851.4790953968877, 0.0]
['beep', 0.0, -3357.611996842861, 0.0, 0.0, 0.0, 0.0, -2864.8007350922508, 0.0]
['beep', 0.0, -3353.074592718434, 0.0, 0.0, 0.0, 0.0, -2850.339156429667, 0.0]
['beep', 0.0, -3350.0124037280566, 0.0, 0.0, 0.0, 0.0, -2827.316859640701, 0.0]
['beep', 0.0, -3351.778191540026, 0.0, 0.0, 0.0, 0.0, -2829.3285166416786, 0.0]
['beep', 0.0, -3356.8296857869254, 0.0, 0.0, 0.0, 0.0, -2852.216702963913, 0.0]
['beep', 0.0, -3357.097906720389, 0.0, 0.0, 0.0, 0.0, -2865.627749637097, 0.0]
['beep', 0.0, -3354.0804212189223, 0.0, 0.0, 0.0, 0.0, -2850.674432596497, 0.0]
['beep', 0.0, -3351.3758601398304, 0.0, 0.0, 0.0, 0.0, -2827.0486387072374, 0.0]
['beep', 0.0, -3353.678089818727, 0.0, 0.0, 0.0, 0.0, -2829.6190893195976, 0.0]
['beep', 0.0, -3359.221322443643, 0.0, 0.0, 0.0, 0.0, -2853.4013454200444, 0.0]
['beep', 0.0, -3360.517723622051, 0.0, 0.0, 0.0, 0.0, -2866.7676886043178, 0.0]
['beep', 0.0, -3355.2203601861434, 0.0, 0.0, 0.0, 0.0, -2850.9426535299604, 0.0]
['beep', 0.0, -3350.9511769951796, 0.0, 0.0, 0.0, 0.0, -2829.0826474526702, 0.0]
['beep', 0.0, -3354.8180287859477, 0.0, 0.0, 0.0, 0.0, -2829.2391096638576, 0.0]
['beep', 0.0, -3358.4390113877075, 0.0, 0.0, 0.0, 0.0, -2853.0660692532147, 0.0]
['beep', 0.0, -3358.1484387097885, 0.0, 0.0, 0.0, 0.0, -2867.1029647711475, 0.0]
['beep', 0.0, -3353.6333863298164, 0.0, 0.0, 0.0, 0.0, -2850.830894807684, 0.0]
['beep', 0.0, -3350.459438617163, 0.0, 0.0, 0.0, 0.0, -2828.70266779693, 0.0]
['beep', 0.0, -3352.0911159624, 0.0, 0.0, 0.0, 0.0, -2832.1671881875027, 0.0]
['beep', 0.0, -3357.8131625429587, 0.0, 0.0, 0.0, 0.0, -2854.854208809639, 0.0]
['beep', 0.0, -3359.4895433771067, 0.0, 0.0, 0.0, 0.0, -2867.214723493424, 0.0]
['beep', 0.0, -3354.683918319216, 0.0, 0.0, 0.0, 0.0, -2849.2215692069017, 0.0]
['beep', 0.0, -3350.2806246615205, 0.0, 0.0, 0.0, 0.0, -2826.6239555625866, 0.0]
['beep', 0.0, -3351.9570054956685, 0.0, 0.0, 0.0, 0.0, -2828.7473712858405, 0.0]
['beep', 0.0, -3357.1649619537548, 0.0, 0.0, 0.0, 0.0, -2851.7920198192624, 0.0]
['beep', 0.0, -3357.679052076227, 0.0, 0.0, 0.0, 0.0, -2868.153496760547, 0.0]
['beep', 0.0, -3352.582854340417, 0.0, 0.0, 0.0, 0.0, -2852.5296273862873, 0.0]
['beep', 0.0, -3349.543017094495, 0.0, 0.0, 0.0, 0.0, -2829.864958508606, 0.0]
['beep', 0.0, -3351.0182322285455, 0.0, 0.0, 0.0, 0.0, -2831.1390079425587, 0.0]
['beep', 0.0, -3356.1367817088108, 0.0, 0.0, 0.0, 0.0, -2852.931958786483, 0.0]
['beep', 0.0, -3357.768459054048, 0.0, 0.0, 0.0, 0.0, -2866.253598481846, 0.0]
['beep', 0.0, -3353.5663310964505, 0.0, 0.0, 0.0, 0.0, -2851.8814267970833, 0.0]
['beep', 0.0, -3350.481790361618, 0.0, 0.0, 0.0, 0.0, -2829.529682341776, 0.0]
['beep', 0.0, -3351.6887845622045, 0.0, 0.0, 0.0, 0.0, -2831.9883742318602, 0.0]
['beep', 0.0, -3356.4720578756405, 0.0, 0.0, 0.0, 0.0, -2855.413002421022, 0.0]
['beep', 0.0, -3358.327252665431, 0.0, 0.0, 0.0, 0.0, -2867.1476682600583, 0.0]
['beep', 0.0, -3354.482752619118, 0.0, 0.0, 0.0, 0.0, -2850.1826942184803, 0.0]
['beep', 0.0, -3351.3311566509196, 0.0, 0.0, 0.0, 0.0, -2828.792074774751, 0.0]
['beep', 0.0, -3355.153304952777, 0.0, 0.0, 0.0, 0.0, -2829.0379439637595, 0.0]
['beep', 0.0, -3360.7188893221487, 0.0, 0.0, 0.0, 0.0, -2854.228359964891, 0.0]
['beep', 0.0, -3360.6294823443277, 0.0, 0.0, 0.0, 0.0, -2868.578179905198, 0.0]
['beep', 0.0, -3355.1756566972326, 0.0, 0.0, 0.0, 0.0, -2853.6472146090528, 0.0]
['beep', 0.0, -3351.5993775843835, 0.0, 0.0, 0.0, 0.0, -2831.250766664835, 0.0]
['beep', 0.0, -3354.8180287859477, 0.0, 0.0, 0.0, 0.0, -2833.0389062212594, 0.0]
['beep', 0.0, -3358.327252665431, 0.0, 0.0, 0.0, 0.0, -2856.932921043983, 0.0]
['beep', 0.0, -3358.9531015101793, 0.0, 0.0, 0.0, 0.0, -2869.5840084056867, 0.0]
['beep', 0.0, -3355.1756566972326, 0.0, 0.0, 0.0, 0.0, -2855.122429743103, 0.0]
['beep', 0.0, -3353.029889229523, 0.0, 0.0, 0.0, 0.0, -2831.3625253871114, 0.0]
['beep', 0.0, -3353.8792555188247, 0.0, 0.0, 0.0, 0.0, -2830.6249178200865, 0.0]
['beep', 0.0, -3358.260197432065, 0.0, 0.0, 0.0, 0.0, -2853.7813250757845, 0.0]
['beep', 0.0, -3358.930749765724, 0.0, 0.0, 0.0, 0.0, -2868.3546624606447, 0.0]
['beep', 0.0, -3354.7286218081263, 0.0, 0.0, 0.0, 0.0, -2853.893083798061, 0.0]
['beep', 0.0, -3352.0911159624, 0.0, 0.0, 0.0, 0.0, -2829.932013741972, 0.0]
['beep', 0.0, -3353.9463107521906, 0.0, 0.0, 0.0, 0.0, -2831.541339342754, 0.0]
['beep', 0.0, -3359.578950354928, 0.0, 0.0, 0.0, 0.0, -2855.0777262541924, 0.0]
['beep', 0.0, -3360.4506683886852, 0.0, 0.0, 0.0, 0.0, -2868.7793456052955, 0.0]
['beep', 0.0, -3356.4720578756405, 0.0, 0.0, 0.0, 0.0, -2854.228359964891, 0.0]
['beep', 0.0, -3351.6217293288387, 0.0, 0.0, 0.0, 0.0, -2831.451932364933, 0.0]
['beep', 0.0, -3352.2922816624978, 0.0, 0.0, 0.0, 0.0, -2832.793037032251, 0.0]
['beep', 0.0, -3358.1037352208778, 0.0, 0.0, 0.0, 0.0, -2854.9436157874607, 0.0]
['beep', 0.0, -3359.4671916326515, 0.0, 0.0, 0.0, 0.0, -2869.0922700276697, 0.0]
['beep', 0.0, -3355.645043330794, 0.0, 0.0, 0.0, 0.0, -2853.4460489089547, 0.0]
['beep', 0.0, -3352.1805229402216, 0.0, 0.0, 0.0, 0.0, -2831.5636910872095, 0.0]
['beep', 0.0, -3354.0804212189223, 0.0, 0.0, 0.0, 0.0, -2833.508292854821, 0.0]
['beep', 0.0, -3358.640177087805, 0.0, 0.0, 0.0, 0.0, -2855.9717960324047, 0.0]
['beep', 0.0, -3359.355432910375, 0.0, 0.0, 0.0, 0.0, -2869.896932828061, 0.0]
['beep', 0.0, -3355.9803194976234, 0.0, 0.0, 0.0, 0.0, -2854.317766942712, 0.0]
['beep', 0.0, -3350.772363039537, 0.0, 0.0, 0.0, 0.0, -2830.6025660756313, 0.0]
['beep', 0.0, -3353.2981101629866, 0.0, 0.0, 0.0, 0.0, -2830.9601939869162, 0.0]
['beep', 0.0, -3358.707232321171, 0.0, 0.0, 0.0, 0.0, -2854.921264043005, 0.0]
['beep', 0.0, -3360.3389096664087, 0.0, 0.0, 0.0, 0.0, -2870.0533950392482, 0.0]
['beep', 0.0, -3357.455534631674, 0.0, 0.0, 0.0, 0.0, -2856.3070721992344, 0.0]
['beep', 0.0, -3353.0075374850676, 0.0, 0.0, 0.0, 0.0, -2832.4577608654217, 0.0]
['beep', 0.0, -3352.9628339961573, 0.0, 0.0, 0.0, 0.0, -2834.603528333131, 0.0]
['beep', 0.0, -3358.8413427879027, 0.0, 0.0, 0.0, 0.0, -2857.156438488536, 0.0]
['beep', 0.0, -3361.6576625892717, 0.0, 0.0, 0.0, 0.0, -2870.6568921395415, 0.0]
['beep', 0.0, -3355.130953208322, 0.0, 0.0, 0.0, 0.0, -2856.485886154877, 0.0]
['beep', 0.0, -3352.158171195766, 0.0, 0.0, 0.0, 0.0, -2831.407228876022, 0.0]
['beep', 0.0, -3354.2592351745648, 0.0, 0.0, 0.0, 0.0, -2830.2896416532567, 0.0]
['beep', 0.0, -3358.1037352208778, 0.0, 0.0, 0.0, 0.0, -2854.7871535762733, 0.0]
['beep', 0.0, -3359.4448398881964, 0.0, 0.0, 0.0, 0.0, -2871.3497962176557, 0.0]
