[[-1093.9167253871829, -1094.1849463206465, -1093.3132282868896, -1091.0557020969036, -1094.8107951653953, -1094.3861120207443, -1087.434719495144, -1093.0897108423367, -1104.26558306999, -1094.8778503987612, -1081.69032117013, -1091.5474404749204, -1084.4842892270433, -1083.0537775819037, -1101.3151528018896, -1099.16938533418, -1094.207298065102, -1087.434719495144, -1073.755451888496, -1084.6407514382306, -1092.1509375752137, -1087.2559055395016, -1095.816623665884, -1090.563963718887, -1082.6737979261634, -1080.7068444140964, -1083.6349229377417, -1081.3103415143898, -1074.761280388985, -1087.9711613620714, -1103.5056237585097, -1099.5046615010097, -1087.010036350493, -1081.466803725577, -1089.0887485848366, -1085.3783590052556, -1090.0498735964147, -1092.396806764222, -1089.4463764961215, -1089.9604666185935, -1087.0547398394037, -1077.532896701443, -1078.2481525240128, -1090.4522049966104, -1099.4599580120992, -1096.1966033216243, -1089.625190451764, -1089.8263561518618, -1096.0401411104372, -1089.759300918496, -1083.3219985153673, -1079.1198705577697, -1085.8924491277278, -1091.5697922193758, -1094.0508358539148, -1092.2179928085795, -1089.915763129683, -1094.5872777208422, -1094.2743532984678, -1087.7252921730628, -1088.7311206735517, -1087.2335537950462, -1091.4356817526439, -1090.586315463342, -1090.9215916301719, -1087.8370508953394, -1082.562039203887, -1079.5222019579653, -1095.5260509879652, -1095.7719201769735, -1094.7660916764846, -1101.4716150130766, -1095.4813474990544, -1088.619361951275, -1087.9041061287053, -1086.2500770390127, -1086.2277252945573, -1086.7418154170293, -1088.0605683398926, -1087.0547398394037, -1086.2724287834678, -1089.8934113852276, -1090.07222534087, -1086.339484016834, -1088.105271828803, -1087.300609028412, -1087.2112020505908, -1087.2112020505908, -1086.9876846060379, -1088.6417136957305, -1087.9041061287053, -1088.7087689290963, -1087.3453125173228, -1088.753472418007, -1090.586315463342, -1091.368626519278, -1089.111100329292, -1087.5688299618757, -1087.948809617616, -1088.462899740088, -1092.0838823418478, -1088.6417136957305, -1087.5464782174204, -1086.8982776282166, -1087.8817543842501, -1088.6640654401858, -1089.6028387073086, -1089.625190451764, -1089.4463764961215, -1088.2840857844456, -1088.97698986256, -1090.9662951190824, -1090.9886468635377, -1088.462899740088, -1087.9041061287053, -1088.5746584623646, -1089.111100329292, -1094.78844342094, -1096.9565626331048, -1087.367664261778, -1088.4405479956326, -1083.1208328152698, -1091.7933096639288, -1089.7369491740405, -1089.334617773845, -1088.7311206735517, -1085.2442485385238, -1090.273391040968, -1094.497870743021, -1084.1043095713032, -1090.586315463342, -1092.687379442141, -1084.4172339936774, -1091.8156614083841, -1090.8992398857165, -1084.685454927141, -1093.9390771316382, -1089.8934113852276, -1095.2801817989566, -1089.2899142849344, -1090.4969084855209, -1095.011960865493, -1086.1159665722807, -1089.334617773845, -1087.3229607728674, -1089.334617773845, -1092.9332486311494, -1099.6164202232862, -1094.78844342094, -1090.7427776745294, -1094.8107951653953, -1098.07414985587, -1097.4483010111214, -1096.4424725106326, -1095.593106221331, -1092.530917230954, -1091.234516052546, -1094.8331469098505, -1093.5367457314428, -1091.3462747748226, -1090.273391040968, -1090.206335807602, -1091.525088730465, -1092.6426759532305, -1090.4745567410657, -1091.078053841359, -1092.7991381644176, -1092.5532689754093, -1092.7097311865964, -1093.6038009648087, -1092.687379442141, -1090.4075015076996, -1092.530917230954, -1090.9439433746272, -1090.0051701075042, -1093.1344143312472, -1094.006132365004, -1091.2568677970014, -1089.111100329292, -1090.4745567410657, -1091.1898125636355, -1089.1334520737473, -1091.592143963831, -1090.3851497632445, -1090.8992398857165, -1090.4745567410657, -1094.6990364431188, -1094.5649259763868, -1095.3472370323227, -1090.4969084855209, -1084.372530504767, -1085.3783590052556, -1088.5076032289987, -1088.239382295535, -1088.9322863736495, -1089.5804869628535, -1094.5649259763868, -1092.9108968866942, -1090.6757224411635, -1091.4580334970992, -1087.7699956619736, -1087.2782572839567, -1088.1276235732585, -1089.781652662951, -1091.6368474527417, -1089.3793212627556, -1091.3015712859121, -1090.586315463342, -1093.1120625867918, -1088.5746584623646, -1088.1946788066243, -1088.306437528901, -1090.07222534087, -1087.434719495144, -1086.5406497169315, -1086.8312223948506, -1086.2277252945573, -1088.3287892733563, -1088.306437528901, -1087.591181706331, -1088.306437528901, -1089.334617773845, -1088.3287892733563, -1086.853574139306, -1087.3229607728674, -1087.658236939697, -1086.4288909946551, -1087.2335537950462, -1088.3958445067221, -1090.3627980187891, -1092.3744550197669, -1089.1781555626578, -1087.9041061287053, -1089.2005073071132, -1089.6922456851298, -1089.5804869628535, -1087.6805886841523, -1086.1159665722807, -1090.0275218519596, -1091.592143963831, -1091.3015712859121, -1087.434719495144, -1087.1888503061355, -1090.8098329078953, -1090.139280574236, -1089.9604666185935, -1089.6698939406747, -1092.240344553035, -1089.5357834739427, -1085.981856105549, -1088.105271828803, -1091.9050683862054, -1088.7311206735517, -1087.6805886841523, -1091.9274201306607, -1093.8273184093616, -1091.234516052546, -1088.9546381181049, -1089.8040044074064, -1090.7427776745294, -1093.8720218982724, -1096.3083620439008, -1094.6096294652975, -1091.7486061750183, -1088.9993416070154, -1086.7194636725742, -1087.5017747285099, -1086.9876846060379, -1089.4463764961215, -1091.7933096639288, -1089.267562540479, -1091.1898125636355, -1088.6417136957305, -1087.2112020505908, -1089.7369491740405, -1091.0557020969036, -1090.586315463342, -1091.5697922193758, -1093.6485044537192, -1091.2568677970014, -1091.4580334970992, -1093.045007353426, -1090.1839840631467, -1088.8875828847388, -1088.8875828847388, -1088.6640654401858, -1087.434719495144, -1088.9322863736495, -1089.2452107960237, -1089.0216933514707, -1088.6417136957305, -1087.948809617616, -1090.8768881412611, -1088.0158648509819, -1086.6077049502976, -1092.687379442141, -1095.5707544768757, -1098.431777767155, -1101.270449312979, -1105.494929015032, -1111.3063825734118, -1114.949716919627, -1119.7329902330625, -1126.6173275252972, -1130.7076967606183, -1134.9098247182162, -1139.5142840760093, -1140.65422304323, -1141.1906649101575, -1145.9962899680484, -1152.7912202824618, -1153.5288278494868, -1156.5686650954087, -1156.9486447511488, -1160.1449442082578, -1160.4802203750874, -1159.7426128080622, -1159.0944122188585, -1159.8543715303388, -1160.7037378196405, -1160.4131651417215, -1158.6920808186628, -1159.1167639633136, -1162.0895459758694, -1162.9612640096266, -1162.4248221426992, -1161.240179686568, -1160.9272552641935, -1159.653205830241, -1157.7533075515398, -1157.1274587067912, -1155.6969470616516, -1156.6357203287746, -1157.6415488292635, -1159.0273569854924, -1159.6085023413304, -1159.9661302526154, -1160.5025721195427, -1160.524923863998, -1159.9661302526154, -1162.558932609431, -1162.8718570318053, -1161.7319180645845, -1162.2236564426014, -1163.7435750655623, -1163.005967498537, -1161.8883802757716, -1161.1507727087467, -1160.077888974892, -1157.9097697627271, -1158.9603017521265, -1156.5686650954087, -1156.0769267173919, -1156.3451476508556, -1156.680423817685, -1156.1886854396685, -1155.2722639170008, -1155.8310575283836, -1157.842714529361, -1156.0769267173919, -1155.5181331060091, -1156.6133685843192, -1157.03805172897, -1156.300444161945, -1157.105106962336, -1157.5297901069869, -1157.6415488292635, -1158.8038395409394, -1158.8038395409394, -1155.9428162506601, -1157.462734873621, -1160.1449442082578, -1159.1167639633136, -1156.9262930066936, -1156.523961606498, -1156.009871484026, -1156.0545749729365, -1157.3062726624337, -1158.7144325631182, -1156.7921825399617, -1156.009871484026, -1156.2780924174897, -1158.915598263216, -1161.0613657309254, -1160.100240719347, -1158.2450459295567, -1156.881589517783, -1157.1945139401573, -1158.4238598851991, -1158.5356186074757, -1160.748441308551, -1162.1789529536907, -1160.815496541917, -1161.5307523644867, -1161.1507727087467, -1160.0331854859812, -1157.7533075515398, -1157.5521418514422, -1155.9651679951153, -1152.433592371177, -1153.2159034271126, -1154.4676011166098, -1158.5132668630204, -1159.9884819970707, -1162.0895459758694, -1161.9777872535929, -1160.748441308551, -1159.139115707769, -1158.2897494184672, -1160.1225924638024, -1161.5307523644867, -1158.0215284850035, -1158.4238598851991, -1160.9943104975594, -1160.5472756084532, -1161.3295866643891, -1161.262531431023, -1161.4860488755762, -1159.8320197858834, -1160.6590343307298, -1159.3179296634114, -1159.429688385688, -1160.100240719347, -1160.1896476971683, -1162.1118977203248, -1161.75426980904, -1160.2790546749895, -1160.4802203750874, -1159.4743918745985, -1158.8708947743053, -1157.6415488292635, -1160.3237581639003, -1159.8543715303388, -1158.6920808186628, -1159.4743918745985, -1158.8708947743053, -1159.2061709411348, -1159.8543715303388, -1160.4802203750874, -1159.072060474403, -1154.84758077235, -1155.4063743837328, -1159.0944122188585, -1159.9661302526154, -1162.201304698146, -1160.882551775283, -1158.5356186074757, -1157.5297901069869, -1159.3179296634114, -1160.100240719347, -1157.462734873621, -1158.4238598851991, -1158.8038395409394, -1157.3733278957998, -1158.2226941851013, -1159.072060474403, -1159.8543715303388, -1160.077888974892, -1162.6036360983417, -1168.0127582565258, -1167.7892408119728, -1153.260606916023, -1145.6833655456742, -1145.3257376343893, -1140.430705598677, -1128.6736880151855, -1126.2149961251016, -1121.722295489585, -1112.200452351624, -1107.17130984918, -1104.7126179590962, -1100.7340074460517, -1098.0517981114147, -1092.016827108482, -1090.7651294189848, -1096.6436382107304, -1099.3929027787333, -1096.8895073997387, -1093.045007353426, -1091.3015712859121, -1093.2461730535238, -1095.9954376215264, -1100.398731279222, -1097.6047632223085, -1092.463861997588, -1090.6757224411635, -1091.5474404749204, -1091.4803852415546, -1090.4522049966104, -1091.9274201306607, -1094.2520015540126, -1093.3132282868896, -1095.2801817989566, -1094.363760276289, -1093.69320794263, -1097.850632411317, -1097.4483010111214, -1096.59893472182, -1093.983780620549, -1091.7039026861075, -1090.9439433746272, -1096.5095277439987, -1097.6718184556746, -1095.3919405212332, -1095.5260509879652, -1095.9060306437052, -1094.5872777208422, -1094.1625945761914, -1092.3521032753115, -1094.5202224874763, -1096.0401411104372, -1095.950734132616, -1097.2918387999343, -1093.8273184093616, -1092.1956410641244, -1091.9721236195712, -1095.950734132616, -1096.0401411104372, -1094.207298065102, -1093.2685247979791, -1094.6096294652975, -1092.3521032753115, -1092.039178852937, -1095.011960865493, -1094.2743532984678, -1092.0838823418478, -1091.234516052546, -1091.3239230303673, -1092.1956410641244, -1093.045007353426, -1094.5202224874763, -1092.463861997588, -1089.7145974295852, -1092.240344553035, -1092.1285858307583, -1090.4075015076996, -1090.8992398857165, -1089.558135218398, -1088.9322863736495, -1090.6757224411635, -1091.1898125636355, -1092.1956410641244, -1093.983780620549, -1094.5202224874763, -1093.7155596870853, -1092.530917230954, -1087.9264578731606, -1087.9041061287053, -1089.111100329292, -1089.111100329292, -1089.5134317294874, -1087.9935131065265, -1088.9993416070154, -1090.720425930074, -1092.1956410641244, -1093.0897108423367, -1090.2957427854233, -1090.2510392965125, -1090.0945770853255, -1088.9546381181049, -1090.2957427854233, -1091.525088730465, -1090.07222534087, -1090.78748116344, -1089.781652662951, -1091.1004055858143, -1094.3414085318338, -1093.045007353426, -1091.0333503524485, -1088.9099346291941, -1089.8263561518618, -1090.7651294189848, -1091.8156614083841, -1091.9274201306607, -1092.4862137420432, -1092.687379442141, -1091.1898125636355, -1088.753472418007, -1093.1344143312472, -1093.1567660757025, -1092.173289319669, -1092.240344553035, -1092.2626962974903, -1088.462899740088, -1092.7991381644176, -1093.6038009648087, -1095.0343126099483, -1095.9283823881606, -1095.1907748211354, -1094.9896091210378, -1093.9167253871829, -1094.6990364431188, -1093.1344143312472, -1094.5649259763868, -1095.1684230766803, -1095.7272166880628, -1096.0624928548925, -1094.6319812097527, -1093.4696904980767, -1095.6154579657864, -1097.0236178664707, -1095.3695887767778, -1095.7719201769735, -1095.7048649436076, -1096.621286466275, -1094.7660916764846, -1094.2520015540126, -1093.7155596870853, -1093.201469564613, -1091.1004055858143, -1092.016827108482, -1094.654332954208, -1093.179117820158, -1092.3073997864008, -1094.497870743021, -1094.430815509655, -1093.0226556089706, -1092.687379442141, -1094.8554986543058, -1096.0624928548925, -1097.0683213553812, -1095.3695887767778, -1092.687379442141, -1093.7826149204511, -1094.430815509655, -1094.5425742319314, -1096.3754172772667, -1094.6990364431188, -1093.1344143312472, -1094.4755189985656, -1097.5824114778534, -1096.3307137883562, -1096.397769021722, -1095.9283823881606, -1095.5707544768757, -1096.8224521663728, -1096.8671556552836, -1095.2801817989566, -1094.0731875983702, -1095.9283823881606, -1096.755396933007, -1096.4424725106326, -1096.241306810535, -1096.1518998327138, -1095.950734132616, -1095.146071332225, -1094.2743532984678, -1092.1956410641244, -1092.7097311865964, -1092.530917230954, -1090.0275218519596, -1091.7933096639288, -1091.6368474527417, -1089.6922456851298, -1089.401673007211, -1093.6485044537192, -1095.146071332225, -1096.4871759995433, -1094.7213881875741, -1094.6319812097527, -1094.8107951653953, -1093.6485044537192, -1093.2685247979791, -1094.207298065102, -1092.463861997588, -1090.0498735964147, -1089.4687282405769, -1090.4745567410657, -1090.8098329078953, -1090.07222534087, -1091.659199197197, -1092.463861997588, -1090.2510392965125, -1091.525088730465, -1091.4356817526439, -1090.206335807602, -1091.726254430563, -1091.7933096639288, -1090.6757224411635, -1089.5357834739427, -1089.915763129683, -1090.854536396806, -1092.9332486311494, -1090.8098329078953, -1091.2568677970014, -1091.5027369860097, -1093.3802835202555, -1093.179117820158, -1093.0897108423367, -1092.2850480419456, -1091.4803852415546, -1092.1956410641244, -1091.9050683862054, -1092.0838823418478, -1091.8380131528395, -1093.3579317758004, -1092.7991381644176, -1092.2626962974903, -1090.0498735964147, -1090.07222534087, -1089.4910799850322, -1089.4687282405769, -1091.7709579194734, -1093.69320794263, -1094.8331469098505, -1094.78844342094, -1092.3744550197669, -1092.7320829310518, -1091.7039026861075, -1090.5192602299762, -1091.3462747748226, -1092.3073997864008, -1092.173289319669, -1093.3802835202555, -1093.4696904980767, -1092.5756207198644, -1095.1237195877695, -1095.3248852878673, -1092.3521032753115, -1093.201469564613, -1092.1062340863032, -1091.7486061750183, -1091.212164308091, -1093.3802835202555, -1095.011960865493, -1092.3297515308561, -1092.5979724643198, -1093.626152709264, -1093.69320794263, -1092.2179928085795, -1093.0897108423367, -1093.0897108423367, -1092.97795212006, -1092.821489908873, -1094.0284841094594, -1095.1013678433142, -1094.0731875983702, -1094.3861120207443, -1096.9342108886494, -1096.9342108886494, -1095.660161454697, -1093.2685247979791, -1092.1956410641244, -1091.4133300081885, -1092.5979724643198, -1093.6485044537192, -1092.754434675507, -1093.0003038645154, -1093.2685247979791, -1094.1178910872807], [-3935.784570668289, -3931.940070621976, -3933.5493962227583, -3937.7291724359006, -3938.1762073250065, -3937.7738759248114, -3934.622279956613, -3925.3463060076606, -3917.523195448303, -3919.6689629160123, -3915.2880210027724, -3943.942957394476, -3946.8933876625765, -3917.791416381767, -3911.4435209564595, -3933.370582267116, -3924.7875123962776, -3929.816654898722, -3950.4696667754256, -3943.227701571906, -3934.5552247232467, -3932.454160744448, -3939.4055532700486, -3935.449294501459, -3938.578538725202, -3939.0255736143085, -3936.5668817242245, -3940.299623048261, -3948.5697684967245, -3943.205349827451, -3925.905099619043, -3936.455123001948, -3935.3151840347273, -3938.1538555805514, -3937.1256753356074, -3938.8914631475764, -3937.5280067358026, -3941.260748059839, -3935.8292741571995, -3931.3812770105933, -3944.6582132170456, -3951.587253998191, -3948.1450853520737, -3930.196634554462, -3938.4444282584705, -3951.4307917870037, -3951.386088298093, -3945.753448695356, -3938.042096858275, -3937.68446894699, -3941.7077829489454, -3944.25588181685, -3944.099419605663, -3942.557149238247, -3939.316146292227, -3937.952689880454, -3938.489131747381, -3939.0926288476744, -3936.097495090663, -3931.6271461996016, -3941.0819341041965, -3949.1956173414733, -3946.714573706934, -3943.6747364610123, -3942.6018527271576, -3942.177169582507, -3944.680564961501, -3943.6747364610123, -3941.037230615286, -3941.5960242266688, -3943.518274249825, -3940.8584166596434, -3945.552282995258, -3947.8545126741546, -3942.4006870270596, -3941.886596904588, -3945.4405242729813, -3945.0828963616964, -3939.964346881431, -3940.0761056037077, -3945.798152184266, -3944.680564961501, -3945.328765550705, -3948.122733607618, -3946.2228353289174, -3945.68639346199, -3947.9215679075205, -3944.389992283582, -3939.517311992325, -3943.071239360719, -3948.1897888409844, -3949.776762697311, -3951.4307917870037, -3949.620300486124, -3946.44635277347, -3943.205349827451, -3940.9925271263755, -3946.111076606641, -3946.8933876625765, -3944.166474839029, -3942.490094004881, -3945.2840620617944, -3946.424001029015, -3948.5921202411796, -3948.5250650078137, -3946.3792975401043, -3946.044021373275, -3948.1897888409844, -3948.5921202411796, -3948.8826929190986, -3947.094553362674, -3946.9157394070317, -3948.9497481524645, -3949.262672574839, -3950.0896871196855, -3948.122733607618, -3947.362774296138, -3946.9380911514872, -3945.708745206445, -3947.765105696333, -3949.6650039750343, -3946.513408006836, -3945.9993178843642, -3946.7816289403, -3948.6368237300903, -3949.1509138525626, -3946.2451870733726, -3942.8924254050767, -3944.4346957724924, -3946.40164928456, -3945.9993178843642, -3944.233530072395, -3943.6076812276465, -3942.847721916166, -3943.1829980829953, -3945.842855673177, -3944.25588181685, -3943.451219016459, -3945.172303339518, -3945.6640417175345, -3947.6309952296015, -3946.6922219624785, -3944.166474839029, -3946.424001029015, -3947.6980504629673, -3944.7252684504115, -3940.679602704001, -3944.3229370502163, -3947.3404225516824, -3944.9711376394202, -3944.613509728135, -3944.7252684504115, -3944.837027172688, -3945.395820784071, -3947.2510155738614, -3945.105248106152, -3946.3345940511936, -3944.881730661599, -3941.4395620154814, -3941.5066172488473, -3941.976003882409, -3944.3452887946714, -3946.3792975401043, -3945.418172528526, -3943.4735707609143, -3943.6747364610123, -3943.3171085497274, -3942.1548178380513, -3943.428867272004, -3943.9876608833865, -3944.0323643722973, -3941.5960242266688, -3943.49592250537, -3942.490094004881, -3944.881730661599, -3942.3112800492386, -3943.3171085497274, -3948.614471985635, -3945.842855673177, -3944.613509728135, -3944.457047516948, -3942.199521326962, -3941.976003882409, -3941.484265504392, -3941.7301346934005, -3943.87590216111, -3941.0819341041965, -3943.071239360719, -3944.0770678612075, -3944.479399261403, -3942.199521326962, -3944.5688062392246, -3946.111076606641, -3944.3676405391266, -3942.6689079605235, -3942.7359631938893, -3943.428867272004, -3942.221873071417, -3942.7583149383445, -3947.072201618219, -3948.1450853520737, -3946.356945795649, -3944.837027172688, -3943.6523847165568, -3943.6747364610123, -3943.451219016459, -3944.457047516948, -3945.395820784071, -3931.9177188775207, -3935.941032879476, -3937.393896269071, -3936.4104195130376, -3934.6669834455233, -3936.1198468351186, -3937.30448929125, -3935.9186811350205, -3932.5659194667246, -3934.9128526345316, -3936.075143346208, -3934.5999282121575, -3938.042096858275, -3936.1198468351186, -3932.5659194667246, -3933.9964311118642, -3937.4609515024367, -3935.382239268093, -3935.806922412744, -3936.0527916017527, -3934.041134600775, -3931.2918700327723, -3933.124713078107, -3932.9906026113754, -3933.6611549450345, -3936.700992190956, -3935.8963293905654, -3934.3764107676043, -3934.39876251206, -3933.817617156222, -3932.5435677222695, -3936.2763090463054, -3937.617413713624, -3934.644631701068, -3935.4045910125487, -3933.1470648225627, -3933.839968900677, -3935.806922412744, -3934.689335189979, -3935.2257770569063, -3935.672811946012, -3936.5668817242245, -3935.9186811350205, -3933.9517276229535, -3935.2257770569063, -3935.2704805458166, -3936.8574544021435, -3937.8185794137216, -3937.5056549913475, -3936.5221782353137, -3935.9633846239312, -3933.974079367409, -3932.789436911278, -3930.2860415322834, -3932.2753467888056, -3936.075143346208, -3937.1703788245177, -3936.745695679867, -3932.878843889099, -3932.677678189001, -3933.7952654117666, -3933.2588235448393, -3933.459989244937, -3931.3812770105933, -3933.2588235448393, -3932.387105511082, -3933.124713078107, -3933.482340989392, -3933.4376375004817, -3934.2199485564174, -3931.49303573287, -3932.2082915554397, -3932.5659194667246, -3933.839968900677, -3934.488169489881, -3933.7952654117666, -3932.8341404001885, -3933.2364718003837, -3932.476512488903, -3932.230643299895, -3932.521215977814, -3931.7612566663333, -3933.2588235448393, -3932.4094572555373, -3932.5882712111797, -3934.3764107676043, -3936.723343935412, -3936.298660790761, -3931.358925266138, -3932.007125855342, -3936.1198468351186, -3936.9021578910542, -3937.706820691445, -3938.556186980747, -3935.069314845719, -3935.5163497348253, -3937.237434057884, -3936.298660790761, -3939.9866986258867, -3941.774838182311, -3944.2782335613056, -3944.680564961501, -3946.2451870733726, -3946.2228353289174, -3948.6591754745455, -3945.3511172951603, -3944.680564961501, -3947.6309952296015, -3948.413306285537, -3948.5697684967245, -3949.642652230579, -3949.977928397409, -3949.1956173414733, -3950.5367220087915, -3949.8214661862216, -3948.368602796627, -3951.1625708535403, -3950.0896871196855, -3948.9273964080094, -3948.5027132633586, -3948.614471985635, -3948.1450853520737, -3948.078030118708, -3949.2850243192943, -3947.675698718512, -3950.4696667754256, -3950.06733537523, -3945.7310969509003, -3949.8885214195875, -3952.235454587395, -3951.0508121312637, -3951.7884196982886, -3949.7991144417665, -3946.6028149846575, -3947.720402207423, -3949.039155130286, -3947.139256851585, -3947.720402207423, -3948.480361518903, -3949.106210363652, -3946.8933876625765, -3946.513408006836, -3951.2072743424505, -3951.989585398386, -3951.5425505092803, -3949.642652230579, -3948.8379894301884, -3948.7932859412776, -3946.5804632402023, -3945.5969864841686, -3948.480361518903, -3949.5308935083026, -3950.044983630775, -3950.3132045642383, -3948.8379894301884, -3947.4968847628697, -3948.0556783742522, -3948.8603411746435, -3948.2791958188054, -3949.642652230579, -3949.2179690859284, -3947.720402207423, -3946.6698702180233, -3946.9380911514872, -3949.3744312971157, -3950.3132045642383, -3950.1120388641407, -3950.939053408987, -3949.262672574839, -3947.1839603404956, -3947.4074777850483, -3947.005146384853, -3950.335556308694, -3949.8661696751324, -3950.0226318863192, -3950.5143702643363, -3950.8272946867105, -3952.995413898875, -3953.8894836770874, -3951.2072743424505, -3951.9225301650204, -3951.3413848091827, -3949.977928397409, -3951.8107714427438, -3952.883655176599, -3952.034288887297, -3951.1625708535403, -3950.357908053149, -3948.748582452367, -3950.268501075328, -3953.621262743624, -3951.028460386808, -3950.5590737532466, -3952.1460476095735, -3951.7213644649228, -3952.3695650541267, -3951.87782667611, -3953.040117387786, -3952.5707307542243, -3954.1800563550064, -3952.5260272653136, -3949.68735571949, -3950.2014458419617, -3950.715535964434, -3951.8331231871994, -3952.2801580763053, -3953.1518761100624, -3953.6659662325346, -3954.4259255440147, -3953.621262743624, -3952.302509820761, -3952.6601377320458, -3952.548379009769, -3951.609605742646, -3949.8885214195875, -3950.5367220087915, -3954.515332521836, -3954.9847191553977, -3954.06829763273, -3951.87782667611, -3950.693184219979, -3953.3977452990707, -3953.4424487879814, -3954.0906493771854, -3954.202408099462, -3952.950710409965, -3953.844780188177, -3953.5989109991688, -3951.944881909476, -3951.5425505092803, -3951.1402191090847, -3953.6659662325346, -3955.0964778776743, -3954.6270912441128, -3952.391916798582, -3953.3977452990707, -3951.944881909476, -3953.8894836770874, -3955.901140678065, -3956.3928790560817, -3955.811733700244, -3955.588216255691, -3953.934187165998, -3953.934187165998, -3955.3870505555933, -3955.319995322227, -3954.7164982219338, -3954.3812220551044, -3954.5376842662913, -3955.5658645112358, -3954.7612017108445, -3957.7339837234003, -3958.6504052460677, -3954.1800563550064, -3952.1236958651184, -3951.095515620174, -3949.039155130286, -3949.8214661862216, -3949.754410952856, -3954.1577046105513, -3954.2471115883723, -3950.3132045642383, -3947.675698718512, -3948.5697684967245, -3949.128562108107, -3949.1732655970177, -3950.648480731068, -3946.356945795649, -3944.188826583484, -3950.044983630775, -3952.928358665509, -3948.726230707912, -3945.3734690396154, -3943.585329483191, -3946.2898905622833, -3948.5921202411796, -3948.748582452367, -3947.4745330184146, -3947.005146384853, -3946.9604428959424, -3947.4074777850483, -3947.720402207423, -3945.172303339518, -3943.898253905565, -3943.6523847165568, -3947.3404225516824, -3949.2850243192943, -3949.3073760637494, -3948.390954541082, -3947.295719062772, -3947.0498498737634, -3948.2791958188054, -3948.033326629797, -3946.2898905622833, -3946.1781318400067, -3949.7320592084006, -3950.357908053149, -3947.5639399962356, -3945.775800439811, -3946.2228353289174, -3946.6922219624785, -3944.457047516948, -3944.233530072395, -3949.553245252758, -3949.262672574839, -3947.228663829406, -3947.3404225516824, -3946.0887248621852, -3946.2675388178277, -3946.9380911514872, -3947.9886231408864, -3947.519236507325, -3946.1781318400067, -3944.4346957724924, -3944.4123440280373, -3947.4745330184146, -3947.9215679075205, -3948.681527219001, -3948.5027132633586, -3947.429829529504, -3948.703878963456, -3948.815637685733, -3947.094553362674, -3946.9380911514872, -3950.290852819783, -3952.4366202874926, -3950.8719981756212, -3946.1781318400067, -3947.362774296138, -3950.8496464311656, -3949.9332249084982, -3947.8321609296995, -3946.759277195845, -3949.4638382749367, -3949.642652230579, -3948.5250650078137, -3952.97306215442, -3954.7164982219338, -3950.693184219979, -3948.1897888409844, -3948.3462510521713, -3949.3744312971157, -3948.5250650078137, -3947.2733673183166, -3946.9604428959424, -3949.8661696751324, -3951.944881909476, -3951.1402191090847, -3950.000280141864, -3947.6980504629673, -3947.139256851585, -3948.3015475632606, -3951.676660976012, -3949.1732655970177, -3948.5250650078137, -3949.5308935083026, -3949.553245252758, -3948.6368237300903, -3947.072201618219, -3948.100381863163, -3949.5308935083026, -3949.754410952856, -3948.703878963456, -3947.519236507325, -3945.842855673177, -3947.5639399962356, -3948.6368237300903, -3948.413306285537, -3947.9439196519756, -3952.034288887297, -3951.073163875719, -3947.9662713964312, -3947.3180708072273, -3946.5581114957467, -3945.5746347397135, -3948.5697684967245, -3949.8885214195875, -3949.419134786026, -3949.5085417638475, -3948.748582452367, -3949.709707463945, -3951.7660679538335, -3952.6601377320458, -3949.9332249084982, -3948.5474167522693, -3947.809809185244, -3949.8214661862216, -3950.8943499200764, -3949.776762697311, -3949.754410952856, -3950.000280141864, -3948.5027132633586, -3947.385126040593, -3946.3345940511936, -3949.2403208303836, -3948.815637685733, -3948.167437096529, -3950.380259797604, -3951.006108642353, -3951.1402191090847, -3950.5590737532466, -3950.983756897898, -3951.2072743424505, -3951.319033064727, -3950.1120388641407, -3949.5085417638475, -3950.134390608596, -3950.1567423530514, -3949.68735571949, -3950.1567423530514, -3950.1567423530514, -3953.0624691322414, -3954.4482772884703, -3953.621262743624, -3951.4978470203696, -3950.044983630775, -3950.581425497702, -3949.3744312971157, -3948.8603411746435, -3950.7825911978, -3951.8554749316545, -3954.7164982219338, -3954.560036010747, -3951.6990127204676, -3951.8554749316545, -3949.262672574839, -3950.357908053149, -3952.995413898875, -3952.2131028429394, -3954.1577046105513, -3956.3481755671714, -3954.604739499657, -3953.554207510258, -3950.5367220087915, -3952.950710409965, -3954.872960433121, -3954.06829763273, -3955.007070899853, -3952.8165999432326, -3951.7213644649228, -3951.0508121312637, -3953.330690065705, -3957.6445767455793, -3953.040117387786, -3951.7213644649228, -3954.560036010747, -3955.2752918333167, -3953.8224284437215, -3952.7718964543224, -3949.7320592084006, -3950.626128986613, -3955.3870505555933, -3956.750506967367, -3954.8282569442104, -3955.8564371891543, -3955.5658645112358, -3955.7893819557885, -3954.8282569442104, -3952.101344120663, -3950.7825911978, -3953.4648005324366, -3954.805905199755, -3954.6941464774786, -3954.001242399364, -3951.363736553638, -3952.324861565216, -3954.224759843917, -3953.5318557658024, -3950.0896871196855, -3952.3695650541267, -3956.1246581226183, -3956.169361611529, -3956.3928790560817, -3954.001242399364, -3951.87782667611, -3951.296681320272, -3952.011937142842, -3952.25780633185, -3953.3977452990707, -3953.867131932632, -3953.710669721445, -3955.319995322227, -3955.454105788959, -3953.710669721445, -3955.610568000146, -3953.9565389104537, -3952.4142685430375, -3953.285986576794, -3954.7388499663894, -3955.610568000146, -3957.9575011679535, -3957.3093005787496, -3956.236416844895, -3955.208236599951, -3953.777724954811, -3952.995413898875, -3953.0624691322414, -3957.1528383675623, -3955.8564371891543, -3953.8224284437215, -3954.6717947330235, -3954.560036010747, -3956.191713355984, -3956.862265689643, -3954.1577046105513, -3953.867131932632, -3954.202408099462, -3953.7553732103556, -3953.487152276892, -3955.4988092778694, -3954.917663922032, -3954.0235941438195, -3958.225722101417, -3959.767992468833, -3955.7223267224226, -3952.7048412209565, -3953.6883179769898, -3953.867131932632, -3953.9565389104537, -3955.0741261332187, -3955.4988092778694, -3956.9516726674647, -3956.191713355984, -3954.1800563550064, -3954.269463332828, -3956.7281552229115, -3957.0857831341964, -3957.130486623107, -3958.158666868051, -3958.0469081457745, -3956.0576028892524, -3956.1470098670734, -3954.001242399364, -3953.3977452990707, -3956.616396500635, -3958.516294779336, -3955.4988092778694, -3956.5046377783583, -3957.3987075565706, -3956.0576028892524, -3956.3034720782607, -3956.3481755671714]]
[[-1088.2840857844456, -1087.5464782174204, -1089.8487078963171, -1090.429853252155, -1088.3511410178114, -1086.495946228021, -1085.981856105549, -1088.105271828803, -1091.4580334970992, -1089.2899142849344, -1087.7252921730628, -1085.3113037718897, -1086.1830218056466, -1092.1062340863032, -1090.429853252155, -1086.6077049502976, -1085.981856105549, -1088.0158648509819, -1087.9264578731606, -1088.3734927622668, -1085.7583386609958, -1082.2938182704233, -1085.2666002829792, -1088.3734927622668, -1088.5523067179092, -1086.8982776282166, -1088.4852514845434, -1087.814699150884, -1085.1548415607026, -1086.3171322723786, -1088.7758241624624, -1087.4570712395991, -1086.78651890594, -1088.5076032289987, -1091.8603648972946, -1090.0275218519596, -1088.6640654401858, -1090.1839840631467, -1088.9099346291941, -1085.4901177275322, -1087.5241264729652, -1086.7641671614847, -1086.5406497169315, -1085.4230624941663, -1088.3511410178114, -1089.3569695183003, -1089.6922456851298, -1089.558135218398, -1087.7476439175182, -1087.8594026397948, -1088.7758241624624, -1090.586315463342, -1091.1898125636355, -1089.4687282405769, -1088.5523067179092, -1088.0829200843477, -1088.4405479956326, -1089.0887485848366, -1088.1276235732585, -1089.2899142849344, -1087.3453125173228, -1087.2112020505908, -1086.0936148278254, -1085.6689316831746, -1088.3287892733563, -1087.5464782174204, -1087.2112020505908, -1088.6640654401858, -1087.9711613620714, -1090.0051701075042, -1092.530917230954, -1088.8875828847388, -1083.5455159599205, -1088.3958445067221, -1089.8487078963171, -1090.139280574236, -1089.111100329292, -1090.8992398857165, -1092.3744550197669, -1089.6922456851298, -1090.0498735964147, -1091.3015712859121, -1089.8487078963171, -1083.5231642154652, -1091.6815509416522, -1092.97795212006, -1092.3297515308561, -1087.3229607728674, -1085.4230624941663, -1086.5406497169315, -1087.2112020505908, -1087.6135334507865, -1088.5523067179092, -1088.3287892733563, -1089.6028387073086, -1089.9604666185935, -1086.7194636725742, -1086.9429811171271, -1087.077091583859, -1086.2500770390127, -1086.495946228021, -1084.4842892270433, -1089.334617773845, -1088.105271828803, -1089.4240247516661, -1089.8263561518618, -1089.5804869628535, -1090.0051701075042, -1091.8156614083841, -1091.078053841359, -1090.1169288297808, -1088.7981759069175, -1088.172327062169, -1087.6805886841523, -1089.6922456851298, -1091.9274201306607, -1088.9099346291941, -1090.07222534087, -1092.754434675507, -1089.334617773845, -1084.5960479493199, -1084.9983793495155, -1085.8700973832724, -1089.2228590515685, -1090.6310189522528, -1089.7145974295852, -1093.9167253871829, -1095.4813474990544, -1093.0226556089706, -1089.8040044074064, -1091.2792195414568, -1088.8875828847388, -1086.5406497169315, -1090.6757224411635, -1089.7145974295852, -1090.0945770853255, -1090.7427776745294, -1090.3627980187891, -1088.6417136957305, -1087.4123677506886, -1089.044045095926, -1088.4852514845434, -1089.2452107960237, -1087.2782572839567, -1086.9653328615825, -1090.5192602299762, -1092.463861997588, -1086.9206293726718, -1086.5630014613869, -1086.7194636725742, -1086.4735944835656, -1086.5182979724764, -1090.6757224411635, -1088.59701020682, -1089.334617773845, -1089.6475421962193, -1089.5357834739427, -1088.753472418007, -1087.3900160062333, -1083.3443502598227, -1084.886620627239, -1085.6689316831746, -1088.2840857844456, -1087.4794229840545, -1087.1888503061355, -1088.8875828847388, -1085.2666002829792, -1087.4123677506886, -1087.4570712395991, -1088.7087689290963, -1087.8817543842501, -1087.814699150884, -1089.8934113852276, -1089.111100329292, -1087.814699150884, -1086.8982776282166, -1082.494983970521, -1085.2442485385238, -1088.0382165954372, -1086.3841875057444, -1088.3287892733563, -1089.7369491740405, -1089.5804869628535, -1086.0489113389149, -1084.0372543379372, -1085.1548415607026, -1085.1324898162472, -1085.2666002829792, -1085.0877863273367, -1084.6407514382306, -1087.010036350493, -1084.886620627239, -1084.4842892270433, -1085.8924491277278, -1086.495946228021, -1086.3171322723786, -1086.1606700611915, -1084.4619374825882, -1085.2218967940685, -1084.752510160507, -1089.9604666185935, -1091.5697922193758, -1090.78748116344, -1088.7311206735517, -1089.2228590515685, -1091.1674608191802, -1088.172327062169, -1088.239382295535, -1090.5192602299762, -1085.199545049613, -1086.9429811171271, -1089.9381148741384, -1090.139280574236, -1091.1674608191802, -1091.1004055858143, -1089.4240247516661, -1090.9662951190824, -1094.2520015540126, -1093.0897108423367, -1091.2568677970014, -1092.1285858307583, -1091.234516052546, -1092.5532689754093, -1092.5085654864986, -1090.6086672077975, -1091.1898125636355, -1090.8098329078953, -1090.563963718887, -1090.4969084855209, -1087.948809617616, -1087.434719495144, -1090.4522049966104, -1090.6086672077975, -1090.8992398857165, -1091.592143963831, -1087.0994433283142, -1090.7427776745294, -1092.463861997588, -1090.1169288297808, -1095.9060306437052, -1092.5756207198644, -1091.6815509416522, -1090.0051701075042, -1090.07222534087, -1089.6698939406747, -1089.5804869628535, -1089.8040044074064, -1090.1839840631467, -1092.8885451422389, -1091.4133300081885, -1090.139280574236, -1086.8759258837613, -1090.7427776745294, -1090.6980741856187, -1088.7311206735517, -1089.4240247516661, -1090.0051701075042, -1089.1334520737473, -1091.6815509416522, -1089.0887485848366, -1089.7145974295852, -1091.9050683862054, -1091.1451090747248, -1091.8603648972946, -1089.915763129683, -1087.7699956619736, -1090.1169288297808, -1089.5804869628535, -1086.78651890594, -1089.334617773845, -1090.3851497632445, -1090.4075015076996, -1089.267562540479, -1090.3180945298784, -1091.7933096639288, -1091.9050683862054, -1089.0216933514707, -1091.9721236195712, -1092.016827108482, -1091.9050683862054, -1090.7427776745294, -1088.6864171846412, -1086.5630014613869, -1089.0216933514707, -1088.8428793958283, -1094.7437399320293, -1098.3200190448783, -1084.1937165491245, -1077.0635100678815, -1074.8730391112613, -1073.6436931662195, -1067.1616872741804, -1062.4678209385659, -1057.4833819250325, -1051.4037074331889, -1047.8497800647951, -1040.406649161178, -1035.8692450367505, -1032.1812072016248, -1031.465951379055, -1027.1967681880915, -1023.4416751195998, -1020.8265210183289, -1019.9995064734825, -1019.4407128620999, -1019.6195268177423, -1015.4173988601445, -1015.663268049153, -1020.401837873678, -1019.8430442622954, -1016.8702622497395, -1017.4961110944881, -1019.239547162002, -1019.016029717449, -1021.5194250964433, -1017.0267244609266, -1018.6807535506193, -1019.3960093731893, -1017.5855180723094, -1020.0442099623931, -1022.9722884860383, -1022.5029018524768, -1019.3960093731893, -1020.7371140405077, -1020.5583000848652, -1020.8935762516948, -1019.7759890289294, -1020.8712245072395, -1021.564128585354, -1022.8605297637617, -1022.3911431302004, -1018.211366917058, -1022.8828815082171, -1022.5029018524768, -1022.3017361523791, -1018.8148640173512, -1017.6972767945858, -1022.7264192970299, -1022.9946402304936, -1022.4805501080216, -1021.3406111408009, -1018.9713262285384, -1021.9217564966389, -1021.7652942854518, -1021.2288524185244, -1022.1676256856473, -1023.9781169865272, -1025.1627594426584, -1022.9275849971277, -1020.9606314850607, -1022.659364063664, -1022.5699570858428, -1022.8605297637617, -1021.3853146297115, -1023.82165477534, -1024.2910414089015, -1024.8051315313735, -1022.7934745303959, -1021.5417768408987, -1024.760428042463, -1023.9781169865272, -1021.7652942854518, -1027.1520646991808, -1026.0344774764153, -1023.240509419502, -1025.5203873539433, -1024.8721867647394, -1022.0111634744601, -1025.922718754139, -1023.7769512864294, -1024.6486693201864, -1023.2852129084126, -1021.4523698630775, -1023.7098960530635, -1026.3250501543343, -1027.1073612102703, -1027.4873408660103, -1023.307564652868, -1023.1063989527702, -1023.1287506972255, -1021.7205907965412, -1021.787646029907, -1023.1287506972255, -1024.3580966422674, -1022.7711227859405, -1020.7594657849629, -1020.6253553182311, -1021.6758873076305, -1021.6535355631752, -1024.91689025365, -1026.950898999083, -1023.5757855863317, -1022.7264192970299, -1024.2016344310803, -1024.3133931533569, -1023.016991974949, -1022.5923088302981, -1021.1841489296138, -1020.2900791514015, -1024.0898757088037, -1023.888710008706, -1023.82165477534, -1023.0393437194043, -1021.6758873076305, -1021.8770530077283, -1022.8158262748511, -1023.2181576750468, -1024.8274832758289, -1024.2016344310803, -1022.3017361523791, -1022.8381780193065, -1026.6379745767088, -1025.4756838650328, -1024.693372809097, -1024.983945487016, -1024.4251518756332, -1022.8158262748511, -1023.2852129084126, -1020.6253553182311, -1018.8595675062618, -1020.8265210183289, -1023.9781169865272, -1023.240509419502, -1021.787646029907, -1021.6088320742646, -1020.0442099623931, -1020.9382797406054, -1020.3794861292228, -1019.1948436730914, -1021.6982390520858, -1018.2337186615132, -1019.1054366952702, -1018.7925122728959, -1019.3289541398233, -1022.3464396412897, -1019.1948436730914, -1017.9878494725049, -1019.597175073287, -1021.6982390520858, -1020.0442099623931, -1022.0782187078261, -1020.2230239180356, -1020.1559686846697, -1020.7371140405077, -1019.8430442622954, -1020.3124308958568, -1019.6865820511082, -1020.4465413625886, -1019.4854163510105, -1021.2959076518903, -1021.6758873076305, -1020.9159279961501, -1019.4854163510105, -1018.0549047058707, -1017.2055384165691, -1017.7643320279518, -1018.8372157618065, -1020.8935762516948, -1021.854701263273, -1022.435846619111, -1019.4407128620999, -1016.2220616605356, -1014.6350878042088, -1020.9382797406054, -1023.8440065197954, -1021.7429425409964, -1018.6136983172535, -1018.4795878505216, -1018.0996081947814, -1016.7138000385523, -1014.0315907039155, -1017.7643320279518, -1023.5534338418763, -1029.0519629778819, -1034.1481607136918, -1042.5524166288874, -1046.7768963309404, -1051.8060388333845, -1061.2831784824346, -1066.7817076184401, -1069.888600097728, -1072.7496233880072, -1075.5435914449206, -1077.242324023524, -1080.9080101141942, -1083.5455159599205, -1085.847745638817, -1086.5853532058422, -1085.8030421499066, -1085.1548415607026, -1087.0547398394037, -1083.232591537546, -1083.657274682197, -1084.014902593482, -1084.3054752714008, -1086.0042078500041, -1085.981856105549, -1086.652408439208, -1085.8253938943617, -1089.4463764961215, -1086.8982776282166, -1085.7806904054512, -1088.8875828847388, -1089.8934113852276, -1088.2840857844456, -1087.0994433283142, -1088.4405479956326, -1090.5192602299762, -1084.8642688827836, -1084.9760276050602, -1084.9536758606048, -1083.5455159599205, -1082.2491147815126, -1084.3054752714008, -1088.9099346291941, -1088.2840857844456, -1085.6689316831746, -1083.0090740929932, -1082.6737979261634, -1087.434719495144, -1088.97698986256, -1084.7078066715965, -1082.3385217593338, -1087.6135334507865, -1090.0945770853255, -1089.5134317294874, -1088.0382165954372, -1086.0712630833702, -1084.5513444604094, -1087.5017747285099, -1087.3900160062333, -1088.306437528901, -1086.205373550102, -1082.6514461817083, -1086.9876846060379, -1086.2724287834678, -1085.7136351720853, -1087.0547398394037, -1088.0158648509819, -1083.1878880486356, -1081.1985827921133, -1081.69032117013, -1083.366702004278, -1084.2160682935796, -1081.757376403496, -1081.757376403496, -1084.5960479493199, -1085.6689316831746, -1085.7806904054512, -1085.4230624941663, -1082.0479490814148, -1083.8584403822947, -1083.7466816600183, -1082.3161700148785, -1083.3219985153673, -1085.3113037718897, -1085.6465799387192, -1081.0644723253813, -1084.8419171383282, -1084.7301584160518, -1083.5678677043759, -1083.210239793091, -1084.7078066715965, -1086.0489113389149, -1087.1664985616803, -1084.1937165491245, -1083.7913851489288, -1083.724329915563, -1086.4288909946551, -1084.886620627239, -1086.78651890594, -1087.2782572839567, -1085.1101380717919, -1087.9041061287053, -1087.1888503061355, -1087.0547398394037, -1088.0605683398926, -1086.652408439208, -1087.5688299618757, -1088.5076032289987, -1087.7252921730628, -1087.8817543842501, -1088.820527651373, -1086.2724287834678, -1083.88079212675, -1085.2666002829792, -1087.5464782174204, -1087.0994433283142, -1088.5076032289987, -1086.78651890594, -1085.981856105549, -1086.0042078500041, -1088.9099346291941, -1088.9546381181049, -1090.139280574236, -1088.2840857844456, -1082.8973153707166, -1082.1820595481468, -1086.652408439208, -1085.7136351720853, -1086.339484016834, -1085.0207310939707, -1087.2112020505908, -1086.7194636725742, -1083.7466816600183, -1083.3890537487334, -1085.4901177275322, -1085.0877863273367, -1081.8691351257723, -1083.2549432820015, -1085.8253938943617, -1081.7350246590406, -1084.1490130602137, -1085.2889520274343, -1083.0314258374485, -1085.6689316831746, -1088.4852514845434, -1086.0265595944595, -1085.4230624941663, -1086.1159665722807, -1085.8700973832724, -1085.333655516345, -1084.886620627239, -1085.8253938943617, -1083.2772950264568, -1083.590219448831, -1084.6631031826857, -1083.1878880486356, -1085.043082838426, -1089.5804869628535, -1088.2617340399902, -1084.2831235269457, -1082.8749636262612, -1084.5513444604094, -1085.7136351720853, -1085.1548415607026, -1085.199545049613, -1087.814699150884, -1088.6864171846412, -1088.4181962511775, -1086.9876846060379, -1084.6183996937752, -1086.78651890594, -1087.658236939697, -1084.394882249222, -1085.9595043610937, -1085.0877863273367, -1089.334617773845, -1086.8982776282166, -1085.3113037718897, -1083.7913851489288, -1085.981856105549, -1085.7806904054512, -1084.2607717824903, -1084.5513444604094, -1086.339484016834, -1084.5513444604094, -1084.4172339936774, -1085.6689316831746, -1090.1169288297808, -1089.044045095926, -1087.658236939697, -1084.9983793495155, -1085.3560072608004, -1083.7466816600183, -1085.7806904054512, -1086.361835761289, -1085.7136351720853, -1084.0596060823925, -1087.7029404286077, -1086.6300566947527, -1083.433757237644, -1086.2277252945573, -1088.0605683398926, -1091.3909782637334, -1085.333655516345, -1086.0042078500041, -1083.9254956156608, -1084.372530504767, -1085.2666002829792, -1085.557172960898, -1086.0489113389149, -1086.7641671614847, -1089.044045095926, -1086.8312223948506, -1083.2549432820015, -1084.9313241161494, -1085.8253938943617, -1087.3900160062333, -1087.8370508953394, -1084.9313241161494, -1082.852611881806, -1083.5008124710098, -1086.4512427391103, -1085.043082838426, -1086.138318316736, -1087.3229607728674, -1087.6135334507865, -1082.6514461817083, -1087.4570712395991, -1085.7583386609958, -1087.5241264729652, -1088.6864171846412, -1088.97698986256, -1086.5630014613869, -1084.7078066715965, -1085.2442485385238, -1084.819565393873, -1085.199545049613, -1087.2335537950462, -1088.306437528901, -1089.5134317294874, -1088.2617340399902, -1086.9206293726718, -1088.9099346291941, -1088.0158648509819, -1087.6135334507865, -1089.8263561518618, -1089.111100329292, -1087.948809617616, -1083.88079212675, -1082.8749636262612, -1084.1937165491245, -1089.781652662951, -1087.8817543842501, -1085.2889520274343, -1087.2782572839567, -1086.0489113389149, -1086.6747601836635, -1084.238420038035, -1087.0994433283142, -1090.1839840631467, -1083.6349229377417, -1085.6689316831746, -1087.591181706331, -1085.2218967940685, -1083.2549432820015, -1086.1830218056466, -1086.339484016834, -1089.7369491740405, -1086.9653328615825, -1085.8700973832724, -1087.2559055395016, -1085.3560072608004, -1083.2549432820015, -1084.4395857381328, -1084.9983793495155, -1088.9993416070154, -1089.0887485848366, -1084.9760276050602], [-3967.524047794825, -3964.126582637618, -3962.874884948121, -3966.026480916319, -3969.1110216511515, -3968.7980972287774, -3965.35592858266, -3965.579446027213, -3968.26165536185, -3966.361757083149, -3964.014823915342, -3964.551265782269, -3963.366623326138, -3965.937073938498, -3968.038137917297, -3968.485172806403, -3966.741736738889, -3966.9205506945314, -3965.288873349294, -3963.2325128594057, -3964.774783226822, -3968.485172806403, -3967.233475116906, -3967.7028617504675, -3967.7475652393778, -3966.3394053386937, -3963.2772163483164, -3963.6348442596013, -3962.5396087812915, -3962.9642919259422, -3966.1829431275064, -3967.032309416808, -3968.284007106305, -3969.7592222403555, -3968.5969315286798, -3966.585274527702, -3965.2218181159283, -3965.4006320715707, -3965.5123907938473, -3967.680510006012, -3967.680510006012, -3964.5065622933585, -3964.685376249001, -3966.3394053386937, -3965.870018705132, -3966.1605913830513, -3967.4346408170036, -3966.227646616417, -3966.875847205621, -3967.032309416808, -3968.4404693174924, -3968.194600128484, -3965.7806117273108, -3966.4958675498806, -3966.004129171864, -3967.1217163946294, -3968.775745484322, -3964.2159896154394, -3961.779649469811, -3964.551265782269, -3968.4404693174924, -3968.5969315286798, -3966.518219294336, -3966.361757083149, -3966.875847205621, -3966.7640884833445, -3968.8204489732325, -3967.009957672353, -3967.322882094727, -3966.4511640609703, -3964.2830448488053, -3966.07118440523, -3966.026480916319, -3965.0877076491965, -3966.9205506945314, -3967.524047794825, -3966.7193849944338, -3967.591103028191, -3967.099364650174, -3966.4288123165147, -3967.322882094727, -3966.1158878941405, -3965.0877076491965, -3966.004129171864, -3964.774783226822, -3966.674681505523, -3968.3063588507607, -3966.9205506945314, -3967.971082683931, -3966.518219294336, -3964.8418384601882, -3966.3394053386937, -3966.294701849783, -3964.5065622933585, -3963.657196004057, -3965.0877076491965, -3967.300530350272, -3968.1275448951183, -3968.97691118442, -3967.4793443059143, -3966.6970332499786, -3965.8476669606766, -3966.5629227832464, -3966.674681505523, -3965.333576838205, -3966.384108827604, -3968.7980972287774, -3967.2111233724504, -3966.4288123165147, -3966.4064605720596, -3967.300530350272, -3967.4346408170036, -3966.942902438987, -3967.8593239616544, -3967.635806517101, -3967.635806517101, -3968.3734140841266, -3966.8534954611655, -3965.4006320715707, -3965.6017977716683, -3967.635806517101, -3968.3063588507607, -3966.317053594238, -3966.1605913830513, -3966.2499983608723, -3966.227646616417, -3966.4511640609703, -3967.7699169838334, -3966.652329761068, -3966.294701849783, -3969.3345390957047, -3966.808791972255, -3966.1382396385957, -3965.6912047494898, -3967.524047794825, -3965.959425682953, -3966.6970332499786, -3968.284007106305, -3968.775745484322, -3968.328710595216, -3969.0216146733305, -3968.6863385065008, -3966.004129171864, -3967.4122890725484, -3968.5969315286798, -3966.4958675498806, -3967.8593239616544, -3969.5357047958023, -3968.4181175730373, -3966.07118440523, -3966.741736738889, -3967.7475652393778, -3964.9312454380092, -3967.4122890725484, -3967.591103028191, -3966.4735158054254, -3968.4181175730373, -3970.3180158517384, -3969.267483862339, -3968.1275448951183, -3970.4744780629253, -3968.1498966395734, -3968.1051931506627, -3967.8593239616544, -3968.1275448951183, -3970.0721466627297, -3970.206257129462, -3969.222780373428, -3971.2791408633166, -3970.7650507408443, -3967.8146204727436, -3967.635806517101, -3969.781573984811, -3968.1275448951183, -3966.5405710387913, -3966.4735158054254, -3968.7533937398666, -3970.899161207576, -3972.3743763416264, -3970.7650507408443, -3968.887504206599, -3968.909855951054, -3965.5347425383025, -3966.585274527702, -3968.865152462143, -3968.3734140841266, -3968.4181175730373, -3969.1110216511515, -3967.5687512837353, -3968.194600128484, -3969.7145187514448, -3969.0216146733305, -3966.07118440523, -3967.3452338391826, -3969.5357047958023, -3968.7086902509564, -3967.233475116906, -3966.7864402277996, -3968.5298762953134, -3968.842800717688, -3968.7533937398666, -3966.4735158054254, -3967.1217163946294, -3971.4132513300483, -3970.6756437630233, -3967.009957672353, -3965.914722194043, -3965.3782803271156, -3965.4453355604815, -3968.1051931506627, -3969.938036195998, -3969.803925729266, -3970.0497949182745, -3969.893332707087, -3966.7864402277996, -3965.914722194043, -3964.908893693554, -3967.233475116906, -3968.999262928875, -3971.7038240079673, -3969.2451321178837, -3967.635806517101, -3967.4346408170036, -3969.1110216511515, -3970.206257129462, -3969.7368704959003, -3968.887504206599, -3969.267483862339, -3968.1051931506627, -3969.870980962632, -3967.635806517101, -3964.551265782269, -3969.423946073526, -3970.7874024852995, -3970.876809463121, -3972.508486808358, -3971.7261757524225, -3971.256789118861, -3968.8204489732325, -3965.870018705132, -3966.1829431275064, -3967.7922687282885, -3969.1110216511515, -3968.6639867620456, -3968.64163501759, -3972.173210641529, -3971.7038240079673, -3970.161553640551, -3969.3345390957047, -3968.932207695509, -3971.0779751632185, -3970.1839053850063, -3970.3180158517384, -3969.0886699066964, -3969.491001306892, -3970.139201896096, -3967.7922687282885, -3967.4122890725484, -3974.006053686864, -3971.256789118861, -3968.574579784224, -3968.239303617395, -3969.870980962632, -3969.200428628973, -3968.7980972287774, -3970.0944984071853, -3970.228608873917, -3969.1110216511515, -3970.4297745740146, -3969.4015943290706, -3969.558056540258, -3968.0604896617524, -3966.965254183442, -3967.92637919502, -3968.6863385065008, -3967.7475652393778, -3971.614417030146, -3973.491963564392, -3969.491001306892, -3967.524047794825, -3968.0604896617524, -3966.965254183442, -3968.5969315286798, -3970.83210597421, -3969.267483862339, -3969.0663181622413, -3971.2791408633166, -3968.887504206599, -3969.222780373428, -3970.0497949182745, -3969.8262774737213, -3968.7533937398666, -3968.7980972287774, -3968.97691118442, -3968.194600128484, -3967.389937328093, -3971.1450303965844, -3973.871943220132, -3970.809754229755, -3967.948730939476, -3972.754355997367, -3975.4365653320037, -3973.3802048421153, -3970.3180158517384, -3969.7145187514448, -3973.0225769308304, -3973.447260075481, -3973.514315308847, -3972.173210641529, -3972.486135063903, -3976.777669999322, -3977.5599810552576, -3974.095460664685, -3972.3296728527157, -3972.9555216974645, -3972.217914130439, -3973.6707775200343, -3975.481268820914, -3973.4025565865704, -3974.0507571757744, -3976.5541525547687, -3974.676606020523, -3971.7038240079673, -3973.514315308847, -3974.721309509434, -3974.877771720621, -3975.3024548652716, -3978.07407117773, -3978.7893270002996, -3976.8000217437775, -3973.849591475677, -3976.2635798768497, -3974.8554199761656, -3974.45308857597, -3978.096422922185, -3976.844725232688, -3974.766012998344, -3976.2412281323946, -3976.0177106878414, -3977.5376293108025, -3979.4598793339587, -3977.090594421696, -3978.1858299000064, -3980.4880595789027, -3978.1411264110957, -3975.838896732199, -3973.5590187977577, -3976.5094490658585, -3980.868039234643, -3980.3092456232603, -3978.5658095557465, -3977.068242677241, -3976.8670769771434, -3978.610513044657, -3978.007015944364, -3978.1187746666405, -3976.621207788135, -3977.805850244266, -3978.968140955942, -3977.7387950109, -3978.007015944364, -3977.001187443875, -3976.8223734882326, -3978.364643855649, -3978.2528851333723, -3978.4316990890147, -3978.096422922185, -3979.54928631178, -3979.7504520118778, -3977.7387950109, -3976.97883569942, -3977.068242677241, -3974.386033342604, -3975.5706757987355, -3975.2353996319057, -3976.710614765956, -3979.5269345673246, -3981.4044811015706, -3981.7397572684004, -3979.258713633861, -3979.7951555007885, -3980.3986526010817, -3977.9846641999084, -3976.0177106878414, -3976.062414176752, -3977.5376293108025, -3980.935094468009, -3983.0138067023527, -3979.9516177119754, -3977.8729054776322, -3978.230533388917, -3980.2198386454393, -3982.4773648354253, -3982.544420068791, -3979.1469549115845, -3979.5716380562353, -3980.331597367716, -3978.744623511389, -3981.4268328460257, -3980.3986526010817, -3977.716443266445, -3979.839858989699, -3980.5998183011793, -3980.8233357457325, -3981.7174055239448, -3981.2480188903833, -3979.4375275895036, -3978.968140955942, -3978.364643855649, -3980.6668735345456, -3982.0526816907745, -3980.845687490188, -3979.8622107341544, -3979.772803756333, -3978.1411264110957, -3979.325768867227, -3977.9176089665425, -3978.007015944364, -3979.012844444853, -3979.4598793339587, -3979.772803756333, -3981.650350290579, -3980.26454213435, -3977.291760121794, -3978.968140955942, -3978.945789211487, -3976.1518211545736, -3976.8670769771434, -3978.230533388917, -3978.6328647891123, -3980.2198386454393, -3979.54928631178, -3978.990492700397, -3977.7611467553556, -3976.2188763879394, -3975.4365653320037, -3973.938998453498, -3974.9448269539866, -3977.1576496550624, -3979.5269345673246, -3977.291760121794, -3977.068242677241, -3979.4822310784143, -3978.744623511389, -3976.97883569942, -3973.3131496087494, -3972.0614519192522, -3974.7883647428, -3977.381167099615, -3980.041024689797, -3981.1139084236515, -3979.5269345673246, -3980.041024689797, -3979.3704723561377, -3976.196524643484, -3975.615379287646, -3976.755318254867, -3976.8000217437775, -3975.905951965565, -3977.8729054776322, -3980.2421903898944, -3976.129469410118, -3978.45405083347, -3980.5327630678134, -3979.2140101449504, -3976.2859316213053, -3977.2023531439727, -3976.621207788135, -3977.8282019887215, -3980.2198386454393, -3982.2761991353277, -3981.3821293571154, -3980.7562805123666, -3981.292722379294, -3978.7669752558445, -3978.9234374670314, -3979.392824100593, -3978.163478155551, -3978.029367688819, -3979.2140101449504, -3979.9516177119754, -3980.4657078344476, -3981.1139084236515, -3981.1586119125623, -3981.203315401473, -3981.1586119125623, -3982.6338270466126, -3983.7290625249225, -3981.002149701375, -3979.303417122772, -3978.6328647891123, -3978.8563822336655, -3980.555114812269, -3980.130431667618, -3978.4987543223806, -3978.7893270002996, -3980.1527834120734, -3983.6620072915566, -3983.4384898470034, -3980.3092456232603, -3979.996321200886, -3977.649388033079, -3978.8787339781206, -3979.5939898006905, -3979.057547933763, -3978.0517194332747, -3978.8116787447548, -3979.5939898006905, -3978.386995600104, -3980.26454213435, -3979.4822310784143, -3977.3141118662493, -3976.0847659212072, -3974.1178124091402, -3977.1800013995176, -3977.5376293108025, -3978.4093473445596, -3981.4938880793916, -3979.7951555007885, -3978.1858299000064, -3975.9506554544755, -3976.5094490658585, -3977.336463610705, -3978.4316990890147, -3980.130431667618, -3980.421004345537, -3980.6892252790008, -3977.69409152199, -3977.381167099615, -3976.8223734882326, -3976.97883569942, -3978.5434578112913, -3979.102251422674, -3978.6328647891123, -3977.425870588526, -3976.6659112770453, -3976.2859316213053, -3976.97883569942, -3978.744623511389, -3979.035196189308, -3978.5434578112913, -3976.688263021501, -3976.4647455769477, -3976.442393832492, -3977.9176089665425, -3980.2198386454393, -3978.1858299000064, -3975.749489754378, -3975.5259723098247, -3974.2742746203276, -3974.743661253889, -3979.1469549115845, -3979.325768867227, -3977.8729054776322, -3977.5599810552576, -3978.297588622283, -3978.8787339781206, -3979.303417122772, -3976.621207788135, -3975.615379287646, -3974.2742746203276, -3976.062414176752, -3979.4375275895036, -3977.805850244266, -3974.4977920648807, -3977.9623124554532, -3980.331597367716, -3978.1187746666405, -3973.4025565865704, -3976.5988560436795, -3980.421004345537, -3977.9176089665425, -3976.755318254867, -3976.5318008103136, -3976.352986854671, -3976.777669999322, -3979.772803756333, -3978.364643855649, -3975.078937420719, -3977.2023531439727, -3978.386995600104, -3975.5706757987355, -3973.6707775200343, -3975.101289165174, -3978.4764025779255, -3978.1411264110957, -3978.945789211487, -3979.4375275895036, -3977.7387950109, -3975.5706757987355, -3977.4035188440707, -3979.2810653783163, -3979.035196189308, -3978.8340304892104, -3978.677568278023, -3977.8729054776322, -3980.331597367716, -3982.0526816907745, -3978.655216533568, -3977.090594421696, -3976.621207788135, -3976.487097321403, -3976.397690343582, -3977.783498499811, -3978.1411264110957, -3978.8563822336655, -3980.868039234643, -3979.4598793339587, -3978.699920022478, -3975.9283037100204, -3975.5930275431906, -3976.844725232688, -3978.2081816444615, -3978.990492700397, -3979.1469549115845, -3978.8116787447548, -3978.45405083347, -3979.2140101449504, -3976.8670769771434, -3974.6989577649783, -3974.229571131417, -3976.397690343582, -3978.588161300202, -3979.7504520118778, -3977.1129461661517, -3978.1411264110957, -3981.0468531902857, -3979.5269345673246, -3977.5376293108025, -3974.9895304428974, -3975.9506554544755, -3978.2528851333723, -3977.2023531439727, -3976.688263021501, -3974.6989577649783, -3976.8670769771434, -3980.0857281787075, -3979.973969456431, -3978.319940366738, -3980.130431667618, -3977.9846641999084, -3975.3024548652716, -3973.2907978642943, -3975.5036205653696, -3975.9953589433862, -3978.8563822336655, -3979.0798996782187, -3975.749489754378, -3975.8612484766545, -3978.588161300202, -3979.035196189308, -3977.649388033079, -3976.129469410118, -3975.615379287646, -3975.458917076459, -3979.839858989699, -3981.7844607573106, -3979.839858989699, -3975.838896732199, -3975.8836002211096, -3973.447260075481, -3974.0507571757744, -3976.710614765956, -3976.062414176752, -3977.9176089665425, -3980.8903909790984, -3982.231495646417, -3978.8787339781206, -3977.0235391883302, -3976.732966510411, -3977.090594421696, -3977.69409152199, -3976.397690343582, -3976.2412281323946, -3976.420042088037, -3978.8787339781206, -3980.130431667618, -3978.4316990890147, -3980.97979795692, -3981.0915566791964, -3977.6270362886235, -3976.487097321403, -3975.816544987744, -3975.3471583541823, -3977.9846641999084, -3979.035196189308, -3977.8282019887215, -3977.6270362886235, -3978.901085722576, -3978.8787339781206, -3977.3141118662493, -3976.196524643484, -3976.129469410118, -3978.297588622283, -3977.4705740774366, -3975.8612484766545, -3976.8670769771434, -3980.64452179009, -3980.4433560899924, -3981.605646801668, -3981.650350290579, -3978.9234374670314, -3978.610513044657, -3978.319940366738, -3978.7222717669338, -3978.677568278023, -3979.325768867227, -3979.6610450340568, -3980.063376434252, -3977.9623124554532, -3980.5327630678134, -3982.320902624238, -3980.197486900984, -3982.320902624238, -3982.7902892577995, -3980.912742723554, -3978.45405083347, -3979.057547933763, -3980.041024689797, -3979.258713633861, -3980.1080799231627, -3979.5939898006905, -3978.029367688819, -3980.5327630678134, -3980.7562805123666, -3980.1080799231627, -3978.8787339781206, -3979.705748522967, -3980.912742723554, -3980.711577023456, -3982.611475302157, -3981.560943312758, -3980.1751351565285, -3980.711577023456, -3978.1411264110957, -3976.420042088037, -3976.688263021501, -3978.1187746666405, -3979.638693289601, -3977.6270362886235, -3980.1527834120734, -3981.0468531902857, -3980.1751351565285, -3978.45405083347, -3977.9176089665425, -3978.5434578112913, -3976.129469410118, -3976.2412281323946, -3981.2480188903833, -3980.97979795692]]
[[-1087.300609028412, -1085.557172960898, -1087.6358851952416, -1087.5017747285099, -1087.1888503061355, -1088.105271828803, -1086.652408439208, -1083.590219448831, -1084.2160682935796, -1084.4172339936774, -1082.4726322260658, -1081.7126729145853, -1083.88079212675, -1084.171364804669, -1082.3161700148785, -1082.2267630370573, -1081.5338589589428, -1081.3773967477557, -1083.0537775819037, -1084.394882249222, -1085.7806904054512, -1082.3161700148785, -1079.8798298692502, -1078.0022833350042, -1081.109175814292, -1080.5056787139988, -1080.4162717361776, -1081.8244316368618, -1080.8633066252837, -1081.2432862810238, -1081.8914868702277, -1081.980893848049, -1080.8633066252837, -1081.69032117013, -1082.8749636262612, -1084.1043095713032, -1084.9089723716943, -1085.4901177275322, -1084.8642688827836, -1082.9643706040824, -1083.4784607265547, -1084.9313241161494, -1085.5124694719875, -1084.7748619049623, -1084.7748619049623, -1084.9536758606048, -1084.7301584160518, -1086.78651890594, -1086.0489113389149, -1084.394882249222, -1086.4512427391103, -1083.5678677043759, -1084.4395857381328, -1085.1101380717919, -1085.7806904054512, -1087.2112020505908, -1083.4784607265547, -1080.2374577805351, -1081.4891554700323, -1083.5678677043759, -1088.1499753177138, -1087.0547398394037, -1086.2277252945573, -1086.652408439208, -1084.7301584160518, -1083.9254956156608, -1083.8137368933842, -1084.7301584160518, -1084.819565393873, -1084.8642688827836, -1081.7797281479511, -1082.3608735037892, -1082.5843909483422, -1080.8856583697388, -1081.2879897699345, -1083.7690334044735, -1085.1101380717919, -1086.5406497169315, -1086.8982776282166, -1084.4842892270433, -1083.9925508490267, -1084.6631031826857, -1083.6349229377417, -1083.5455159599205, -1083.7466816600183, -1084.7748619049623, -1080.2598095249903, -1081.8914868702277, -1081.0197688364708, -1083.3443502598227, -1085.3560072608004, -1084.7301584160518, -1081.2879897699345, -1082.629094437253, -1081.176231047658, -1079.142222302225, -1080.1256990582585, -1083.3219985153673, -1084.6631031826857, -1085.6018764498087, -1086.495946228021, -1082.3161700148785, -1078.2258007795574, -1083.6125711932864, -1082.6514461817083, -1080.4162717361776, -1083.0314258374485, -1084.6631031826857, -1083.2996467709122, -1082.8302601373507, -1082.1820595481468, -1080.9080101141942, -1079.3433880023229, -1081.176231047658, -1083.143184559725, -1081.6456176812194, -1082.137356059236, -1080.3939199917222, -1081.69032117013, -1082.4726322260658, -1082.629094437253, -1081.7350246590406, -1081.176231047658, -1079.656312424697, -1079.5669054468758, -1081.69032117013, -1083.88079212675, -1082.0032455925043, -1080.170402547169, -1080.818603136373, -1081.2209345365686, -1082.2491147815126, -1086.3171322723786, -1083.7690334044735, -1079.656312424697, -1079.2763327689568, -1082.4726322260658, -1084.5066409714987, -1083.433757237644, -1083.9701991045713, -1083.433757237644, -1084.014902593482, -1083.9254956156608, -1081.8244316368618, -1081.4444519811216, -1079.3880914912334, -1082.0926525703255, -1081.2879897699345, -1083.8360886378396, -1083.5678677043759, -1082.3385217593338, -1083.9701991045713, -1081.466803725577, -1079.946885102616, -1083.366702004278, -1083.210239793091, -1081.1985827921133, -1081.3773967477557, -1080.6174374362752, -1083.433757237644, -1082.4055769926997, -1079.8351263803395, -1078.6057804352977, -1082.7408531595295, -1082.2267630370573, -1082.3161700148785, -1078.1587455461915, -1079.9692368470714, -1081.7126729145853, -1083.4114054931886, -1082.2938182704233, -1078.851649624306, -1078.561076946387, -1081.5115072144874, -1081.4891554700323, -1083.4784607265547, -1081.980893848049, -1079.723367658063, -1082.2044112926021, -1082.1820595481468, -1081.4221002366662, -1082.5396874594317, -1080.3939199917222, -1081.980893848049, -1081.757376403496, -1081.2656380254791, -1082.6737979261634, -1083.4784607265547, -1085.177193305158, -1081.8914868702277, -1080.6844926696413, -1079.8127746358841, -1081.2432862810238, -1081.7350246590406, -1081.466803725577, -1082.0926525703255, -1081.913838614683, -1081.980893848049, -1082.919667115172, -1080.1927542916244, -1082.3832252482446, -1080.460975225088, -1079.9021816137054, -1081.2209345365686, -1081.623265936764, -1081.2432862810238, -1081.0868240698367, -1079.365739746778, -1080.2821612694456, -1080.7515479030071, -1082.427928737155, -1082.7408531595295, -1083.2549432820015, -1081.2656380254791, -1080.148050802714, -1082.7408531595295, -1081.9361903591384, -1083.3219985153673, -1082.4726322260658, -1082.4055769926997, -1079.1869257911355, -1079.8351263803395, -1080.662140925186, -1081.5785624478535, -1082.271466525968, -1079.0751670688592, -1076.59412343432, -1076.7058821565965, -1077.3317310013451, -1083.5008124710098, -1081.9585421035936, -1078.9634083465826, -1079.4104432356887, -1077.7787658904513, -1078.9634083465826, -1081.7350246590406, -1081.2879897699345, -1082.2267630370573, -1081.9585421035936, -1080.3492165028115, -1079.365739746778, -1080.6397891807305, -1080.1256990582585, -1080.7068444140964, -1081.9361903591384, -1079.7010159136078, -1080.0809955693478, -1081.1538793032025, -1082.5396874594317, -1081.69032117013, -1082.1820595481468, -1081.4221002366662, -1080.662140925186, -1082.1597078036914, -1082.852611881806, -1080.0362920804373, -1076.750585645507, -1078.6504839242082, -1078.0022833350042, -1076.6388269232307, -1081.9585421035936, -1079.7680711469736, -1076.1470885452138, -1078.337559501834, -1081.6679694256748, -1081.757376403496, -1081.5785624478535, -1079.4551467245992, -1082.5173357149763, -1085.1101380717919, -1080.952713603105, -1078.8740013687614, -1084.014902593482, -1085.9371526166383, -1086.4065392501998, -1085.4230624941663, -1084.9089723716943, -1083.7690334044735, -1081.757376403496, -1083.433757237644, -1082.562039203887, -1082.4055769926997, -1084.2607717824903, -1085.199545049613, -1080.3268647583564, -1080.0809955693478, -1082.7408531595295, -1086.0042078500041, -1083.88079212675, -1083.5455159599205, -1083.2549432820015, -1082.4055769926997, -1084.3054752714008, -1085.8253938943617, -1085.8700973832724, -1083.6349229377417, -1083.210239793091, -1085.3560072608004, -1083.0537775819037, -1085.8030421499066, -1085.1548415607026, -1082.9643706040824, -1087.3900160062333, -1088.5746584623646, -1086.7194636725742, -1085.043082838426, -1084.528992715954, -1085.557172960898, -1083.4784607265547, -1084.0819578268479, -1084.372530504767, -1086.205373550102, -1085.1101380717919, -1085.1324898162472, -1084.3278270158562, -1084.4619374825882, -1084.1266613157584, -1084.5513444604094, -1087.4123677506886, -1086.9206293726718, -1078.4493182241104, -1082.2491147815126, -1080.7515479030071, -1080.9080101141942, -1085.3783590052556, -1083.0537775819037, -1078.985760091038, -1081.2879897699345, -1083.210239793091, -1081.6456176812194, -1080.2821612694456, -1081.5338589589428, -1083.2772950264568, -1085.3783590052556, -1084.1266613157584, -1083.5231642154652, -1083.210239793091, -1082.1820595481468, -1082.5843909483422, -1083.6349229377417, -1084.014902593482, -1080.9974170920154, -1081.6456176812194, -1081.399748492211, -1083.366702004278, -1083.0314258374485, -1084.4172339936774, -1083.076129326359, -1082.8079083928953, -1081.1985827921133, -1080.2151060360798, -1079.8351263803395, -1083.9925508490267, -1081.5785624478535, -1082.494983970521, -1082.7408531595295, -1081.3550450033003, -1079.9245333581607, -1082.2938182704233, -1081.3550450033003, -1078.8740013687614, -1081.9585421035936, -1085.8924491277278, -1082.2267630370573, -1082.5843909483422, -1080.3939199917222, -1080.3939199917222, -1080.5056787139988, -1079.0751670688592, -1080.97506534756, -1081.6679694256748, -1083.590219448831, -1082.2491147815126, -1082.6737979261634, -1081.0644723253813, -1082.0255973369597, -1081.8691351257723, -1081.9361903591384, -1079.9915885915266, -1080.7068444140964, -1080.148050802714, -1081.9361903591384, -1080.4162717361776, -1081.2432862810238, -1081.6009141923087, -1080.3268647583564, -1079.5222019579653, -1082.1820595481468, -1082.8749636262612, -1081.2432862810238, -1080.8856583697388, -1081.913838614683, -1081.69032117013, -1080.1927542916244, -1080.460975225088, -1083.3219985153673, -1083.143184559725, -1082.3161700148785, -1080.7291961585518, -1081.0197688364708, -1082.5173357149763, -1080.4162717361776, -1077.4881932125322, -1080.013940335982, -1080.6174374362752, -1083.3443502598227, -1083.7913851489288, -1084.528992715954, -1081.0644723253813, -1080.2374577805351, -1078.5163734574764, -1081.5785624478535, -1081.8691351257723, -1083.0090740929932, -1082.4055769926997, -1082.3385217593338, -1083.2772950264568, -1083.5678677043759, -1082.2491147815126, -1080.3492165028115, -1080.952713603105, -1079.9245333581607, -1081.2656380254791, -1084.4172339936774, -1085.4454142386217, -1083.9701991045713, -1082.6067426927975, -1083.657274682197, -1085.6018764498087, -1082.0255973369597, -1083.0984810708144, -1079.1198705577697, -1077.979931590549, -1077.175268790158, -1081.0197688364708, -1083.0314258374485, -1084.5513444604094, -1084.0372543379372, -1082.5396874594317, -1080.3492165028115, -1078.8069461353955, -1080.952713603105, -1081.0644723253813, -1081.0197688364708, -1078.3599112462891, -1079.1645740466804, -1081.5115072144874, -1079.723367658063, -1080.3939199917222, -1081.2432862810238, -1081.0644723253813, -1079.7457194025183, -1078.3822629907445, -1081.3550450033003, -1080.528030458454, -1080.2151060360798, -1083.9925508490267, -1084.4172339936774, -1081.7350246590406, -1080.5056787139988, -1082.0703008258702, -1080.9974170920154, -1080.6174374362752, -1080.0586438248927, -1081.4444519811216, -1079.9915885915266, -1081.8467833813172, -1082.137356059236, -1082.562039203887, -1082.5843909483422, -1080.3715682472669, -1079.8351263803395, -1081.109175814292, -1079.8574781247949, -1080.3939199917222, -1081.8020798924065, -1080.97506534756, -1083.1208328152698, -1080.3268647583564, -1080.8856583697388, -1080.6174374362752, -1081.0644723253813, -1082.3161700148785, -1082.7185014150741, -1083.1208328152698, -1081.7350246590406, -1082.3385217593338, -1083.1878880486356, -1083.366702004278, -1080.952713603105, -1078.561076946387, -1079.6786641691524, -1079.4104432356887, -1080.9080101141942, -1080.7068444140964, -1081.1315275587474, -1082.2938182704233, -1083.2772950264568, -1080.97506534756, -1079.6786641691524, -1080.013940335982, -1080.6174374362752, -1078.494021713021, -1077.555248445898, -1077.3540827458005, -1079.3433880023229, -1077.9575798460937, -1078.2928560129233, -1080.0809955693478, -1080.170402547169, -1078.6728356686635, -1079.1645740466804, -1082.852611881806, -1081.4891554700323, -1081.4444519811216, -1077.979931590549, -1078.6504839242082, -1076.7729373899624, -1077.1976205346132, -1080.2821612694456, -1078.7845943909401, -1078.9634083465826, -1077.3317310013451, -1079.790422891429, -1081.623265936764, -1079.8798298692502, -1080.3939199917222, -1079.0304635799484, -1080.662140925186, -1078.4269664796552, -1078.3822629907445, -1079.2316292800463, -1080.3268647583564, -1082.427928737155, -1081.0868240698367, -1079.7457194025183, -1079.4551467245992, -1080.148050802714, -1081.2432862810238, -1077.532896701443, -1078.717539157574, -1083.2549432820015, -1081.466803725577, -1081.466803725577, -1082.137356059236, -1080.952713603105, -1080.59508569182, -1077.5105449569876, -1079.3210362578675, -1078.4269664796552, -1077.7787658904513, -1077.7787658904513, -1078.7845943909401, -1081.0421205809262, -1078.046986823915, -1080.7068444140964, -1082.0032455925043, -1083.1878880486356, -1080.7962513919176, -1078.4493182241104, -1080.7291961585518, -1080.3492165028115, -1077.4211379791664, -1079.7457194025183, -1078.046986823915, -1080.9080101141942, -1079.8351263803395, -1078.6728356686635, -1080.2374577805351, -1081.5562107033982, -1080.818603136373, -1078.3152077573786, -1080.7291961585518, -1081.8020798924065, -1079.2316292800463, -1078.6728356686635, -1082.1597078036914, -1081.6679694256748, -1082.4502804816104, -1082.3832252482446, -1078.9410566021272, -1078.717539157574, -1081.913838614683, -1082.0703008258702, -1080.6844926696413, -1078.7845943909401, -1081.6456176812194, -1081.0197688364708, -1083.143184559725, -1082.6514461817083, -1083.2549432820015, -1080.8633066252837, -1078.8292978798506, -1078.9634083465826, -1081.913838614683, -1083.724329915563, -1080.3268647583564, -1081.0644723253813, -1082.6961496706188, -1080.1927542916244, -1080.1927542916244, -1079.8351263803395, -1082.3385217593338, -1082.3608735037892, -1081.9361903591384, -1082.137356059236, -1081.7350246590406, -1079.2316292800463, -1078.3822629907445, -1080.9080101141942, -1080.818603136373, -1082.1597078036914, -1081.5338589589428, -1081.8020798924065, -1078.8292978798506, -1079.4104432356887, -1080.170402547169, -1082.5396874594317, -1081.5338589589428, -1078.8963531132167, -1079.4774984690546, -1080.0809955693478, -1082.7185014150741, -1080.460975225088, -1076.4376612231329, -1078.4493182241104, -1082.271466525968, -1079.7010159136078, -1078.2481525240128, -1078.1810972906467, -1075.6553501671972, -1076.4823647120434, -1080.9303618586496, -1081.3550450033003, -1082.5396874594317, -1081.8020798924065, -1078.4046147351999, -1081.0868240698367, -1081.5785624478535, -1077.8234693793618, -1080.4386234806327, -1079.8351263803395, -1083.1208328152698, -1082.8749636262612, -1080.8633066252837, -1078.8963531132167, -1082.0032455925043, -1080.9080101141942, -1081.4444519811216, -1083.2772950264568, -1080.7291961585518, -1081.0421205809262, -1080.5056787139988, -1078.2481525240128, -1080.8633066252837, -1082.8973153707166, -1083.8584403822947, -1085.6689316831746, -1084.6631031826857, -1083.7466816600183, -1080.6174374362752, -1082.137356059236, -1079.4104432356887, -1079.2986845134121, -1081.8244316368618, -1082.3608735037892, -1082.629094437253, -1081.623265936764, -1078.4716699685657, -1078.7845943909401, -1076.8399926233283, -1081.8467833813172, -1082.562039203887, -1083.7690334044735, -1081.4444519811216, -1080.7291961585518, -1082.0032455925043, -1078.1587455461915, -1076.3929577342221, -1079.008111835493, -1080.9303618586496, -1080.9303618586496, -1080.9974170920154, -1080.97506534756, -1078.8069461353955, -1079.49985021351, -1079.3210362578675, -1081.0197688364708, -1080.7291961585518, -1081.5785624478535, -1083.4561089820993, -1083.2549432820015, -1083.7019781711076, -1083.433757237644, -1082.0703008258702, -1082.7408531595295, -1078.6728356686635, -1075.8341641228396, -1076.0353298229372, -1079.6339606802417, -1079.3880914912334, -1076.2141437785797, -1080.818603136373, -1081.466803725577, -1082.6961496706188, -1082.9867223485378, -1085.3113037718897, -1085.3560072608004, -1085.2218967940685, -1080.013940335982, -1078.2481525240128, -1079.0528153244038, -1080.8633066252837, -1081.0421205809262, -1082.6961496706188, -1082.137356059236, -1080.7515479030071, -1080.0586438248927, -1077.5999519348088, -1078.985760091038, -1080.4162717361776, -1079.9915885915266, -1083.7466816600183, -1083.433757237644, -1082.8973153707166, -1084.372530504767, -1083.433757237644, -1082.9643706040824, -1079.9692368470714, -1079.1869257911355, -1081.623265936764, -1084.394882249222, -1081.5115072144874, -1082.0255973369597, -1081.69032117013, -1081.3550450033003, -1081.7350246590406, -1078.695187413119, -1080.8633066252837, -1079.142222302225, -1083.8137368933842, -1084.5960479493199, -1081.3550450033003, -1082.2938182704233, -1084.4842892270433, -1081.913838614683, -1081.1538793032025, -1080.6174374362752, -1080.7291961585518, -1080.528030458454], [-3983.1255654246293, -3985.003111958875, -3984.5337253253133, -3983.4608415914586, -3983.17026891354, -3982.0750334352297, -3982.7232340244336, -3983.237324146906, -3983.0138067023527, -3984.131393925118, -3983.6620072915566, -3985.494850336892, -3984.9584084699645, -3984.6231323031348, -3985.1819259145173, -3983.572600313735, -3982.3432543686936, -3983.5949520581908, -3984.0643386917523, -3982.387957857604, -3982.2091439019614, -3985.6289608036236, -3984.913704981054, -3984.2431526473947, -3983.3937863580927, -3983.93022822502, -3982.83499274671, -3984.287856136305, -3984.779594514322, -3983.6620072915566, -3982.7679375133444, -3983.93022822502, -3985.226629403428, -3985.0478154477855, -3986.0089404593637, -3984.801946258777, -3984.936056725509, -3983.93022822502, -3982.9914549578975, -3984.198449158484, -3984.6231323031348, -3984.578428814224, -3985.0925189366963, -3986.6347893041125, -3986.1206991816402, -3985.6960160369895, -3986.5900858152017, -3985.3607398701597, -3984.712539280956, -3984.220800902939, -3985.830126503721, -3988.2441149048946, -3987.6406178046013, -3988.2888183938053, -3985.584257314713, -3984.220800902939, -3984.287856136305, -3986.2995131372827, -3987.6406178046013, -3985.6960160369895, -3985.2713328923387, -3986.6571410485676, -3985.9195334815427, -3986.7912515152993, -3989.160536427562, -3990.971027728442, -3985.9642369704534, -3982.6561787910678, -3983.192620657995, -3982.0526816907745, -3985.3607398701597, -3987.394748615593, -3987.752376526878, -3987.3723968711374, -3986.679492793023, -3987.461803848959, -3988.9370189830092, -3985.3383881257046, -3983.1479171690844, -3989.2722951498386, -3990.8816207506206, -3986.7018445374783, -3984.131393925118, -3986.0536439482744, -3986.9253619820315, -3985.874829992632, -3988.154707927073, -3986.8583067486657, -3985.6289608036236, -3986.0089404593637, -3986.3442166261934, -3987.6182660601457, -3988.221763160439, -3987.5959143156906, -3985.7407195259, -3985.3383881257046, -3986.83595500421, -3989.3169986387493, -3987.9311904825204, -3986.4112718595593, -3986.880658493121, -3987.0818241932184, -3988.065300949252, -3987.260638148861, -3986.2771613928276, -3987.797080015788, -3988.0876526937072, -3987.6853212935116, -3986.903010237576, -3987.104175937674, -3987.752376526878, -3988.0876526937072, -3986.143050926096, -3986.4336236040144, -3989.294646894294, -3989.5852195722127, -3986.5006788373807, -3985.159574170062, -3987.037120704308, -3988.4676323494477, -3985.9642369704534, -3987.260638148861, -3988.0205974603414, -3987.3053416377716, -3988.5570393272687, -3986.3665683706486, -3985.807774759266, -3985.2713328923387, -3989.2722951498386, -3990.6357515616123, -3988.9593707274644, -3986.4112718595593, -3985.6289608036236, -3987.752376526878, -3989.6075713166683, -3988.5346875828136, -3987.1488794265842, -3988.199411415984, -3988.9370189830092, -3987.3053416377716, -3986.6571410485676, -3989.0264259608302, -3988.735853282911, -3986.7241962819335, -3987.484155593414, -3988.2664666493497, -3986.7018445374783, -3986.768899770844, -3987.819431760244, -3987.774728271333, -3986.187754415006, -3987.5735625712355, -3990.83691726171, -3990.032254461319, -3986.7018445374783, -3987.9535422269755, -3988.6017428161795, -3990.032254461319, -3991.261600406361, -3987.797080015788, -3986.612437559657, -3988.154707927073, -3988.713501538456, -3987.5735625712355, -3989.764033527855, -3990.367530628149, -3986.9924172153974, -3987.0147689598525, -3987.707673037967, -3984.4666700919474, -3985.517202081347, -3987.797080015788, -3989.2722951498386, -3989.674626550034, -3989.2722951498386, -3986.254809648372, -3985.450146847981, -3987.6853212935116, -3988.422928860537, -3985.517202081347, -3984.6901875365006, -3985.427795103526, -3986.6571410485676, -3988.489984093903, -3989.0487777052854, -3989.875792250132, -3988.3782253716263, -3987.0147689598525, -3989.384053872115, -3989.0264259608302, -3985.070167192241, -3986.545382326291, -3989.3169986387493, -3992.1109666956627, -3990.1440131835957, -3988.0429492047965, -3989.294646894294, -3988.6911497940005, -3988.802908516277, -3988.847612005188, -3989.4958125943917, -3987.6406178046013, -3987.6629695490565, -3991.3063038952714, -3991.2392486619055, -3989.138184683107, -3988.6911497940005, -3988.132356182618, -3989.138184683107, -3987.864135249154, -3989.2052399164727, -3989.7416817834, -3989.6299230611235, -3989.2052399164727, -3989.093481194196, -3988.110004438163, -3990.367530628149, -3989.6969782944893, -3988.422928860537, -3989.1158329386517, -3988.802908516277, -3988.489984093903, -3991.038082961808, -3991.9321527400202, -3991.5968765731905, -3992.2003736734837, -3993.4967748518916, -3993.675588807534, -3989.9651992279532, -3987.2159346599506, -3989.2499434053834, -4000.2693534218497, -3999.643504577101, -3999.710559810467, -3997.9224202540427, -3995.5307835973244, -3991.060434706263, -3993.4967748518916, -3995.55313534178, -3996.9836469869197, -3998.3918068876037, -3999.844670277199, -4001.386940644615, -3998.257696420872, -3996.4472051199923, -3996.916591753554, -3995.5978388306903, -3993.943809740998, -3996.0225219753415, -3998.034178976319, -4000.6493330775897, -3999.3305801547267, -3995.955466741975, -3996.1566324420733, -3998.7941382877993, -3996.64837082009, -3994.346141141193, -3997.8553650206763, -3996.849536520188, -3990.2781236503274, -3989.2052399164727, -3987.5288590823247, -3984.9584084699645, -3978.6328647891123, -3971.0332716743083, -3966.272350105328, -3960.9526349249645, -3953.5989109991688, -3946.2228353289174, -3946.133428351096, -3942.803018427255, -3939.584367225691, -3939.3832015255934, -3941.1489893375624, -3942.3783352826044, -3943.2724050608167, -3943.831198672199, -3943.49592250537, -3945.5746347397135, -3946.1781318400067, -3944.4123440280373, -3945.6640417175345, -3948.8603411746435, -3949.419134786026, -3949.620300486124, -3947.429829529504, -3948.122733607618, -3949.6650039750343, -3950.5143702643363, -3952.3695650541267, -3951.87782667611, -3950.134390608596, -3950.2014458419617, -3949.2179690859284, -3956.0799546337075, -3958.6504052460677, -3952.906006921054, -3948.9273964080094, -3952.101344120663, -3953.4200970435263, -3953.5318557658024, -3954.269463332828, -3955.4764575334143, -3956.6387482450905, -3955.4317540445036, -3955.4094023000484, -3961.332614580705, -3964.774783226822, -3960.192675613484, -3957.7339837234003, -3960.4385448024923, -3964.394803571082, -3966.6299780166128, -3958.7621639683443, -3953.3977452990707, -3952.5036755208585, -3954.850608688666, -3951.2519778313613, -3952.7942481987775, -3958.1810186125067, -3952.8165999432326, -3946.5357597512916, -3946.0216696288194, -3945.775800439811, -3942.199521326962, -3942.221873071417, -3942.557149238247, -3940.321974792716, -3937.1480270800625, -3936.1869020684844, -3938.332669536194, -3939.0255736143085, -3939.4949602478696, -3938.3103177917387, -3938.422076514015, -3938.3773730251046, -3938.6679457030236, -3943.49592250537, -3943.227701571906, -3941.4172102710263, -3940.0984573481633, -3938.8914631475764, -3940.6348992150906, -3940.8584166596434, -3941.4395620154814, -3942.132466093596, -3942.4677422604254, -3939.9866986258867, -3941.976003882409, -3943.205349827451, -3942.847721916166, -3943.49592250537, -3942.937128893987, -3942.937128893987, -3942.6689079605235, -3945.4405242729813, -3944.8593789171437, -3945.0158411283305, -3945.9546143954535, -3946.44635277347, -3946.5581114957467, -3944.233530072395, -3942.221873071417, -3946.2451870733726, -3946.803980684755, -3944.25588181685, -3947.6086434851463, -3949.910873164043, -3948.4356580299927, -3946.6251667291126, -3945.7310969509003, -3948.100381863163, -3947.9662713964312, -3947.3180708072273, -3946.0216696288194, -3946.1781318400067, -3948.458009774448, -3948.614471985635, -3949.776762697311, -3949.6650039750343, -3951.8554749316545, -3953.263634832339, -3948.8603411746435, -3945.2393585728837, -3947.6980504629673, -3951.520198764825, -3950.268501075328, -3949.128562108107, -3949.620300486124, -3949.5085417638475, -3950.5590737532466, -3950.8272946867105, -3952.347213309671, -3950.1567423530514, -3949.4414865304816, -3948.2568440743503, -3947.5862917406907, -3947.765105696333, -3947.809809185244, -3950.268501075328, -3949.910873164043, -3953.1295243656073, -3953.710669721445, -3950.626128986613, -3948.97209989692, -3949.1956173414733, -3948.614471985635, -3948.5027132633586, -3952.302509820761, -3953.196579598973, -3953.285986576794, -3952.235454587395, -3951.9225301650204, -3952.034288887297, -3950.290852819783, -3948.5921202411796, -3948.2791958188054, -3951.6319574871013, -3952.1683993540287, -3951.2072743424505, -3951.743716209378, -3953.040117387786, -3953.0848208766965, -3952.4366202874926, -3952.2801580763053, -3950.8272946867105, -3954.291815077283, -3954.1577046105513, -3957.130486623107, -3958.203370356962, -3957.7339837234003, -3957.0187279008305, -3961.064393647241, -3966.4288123165147, -3966.8311437167104, -3965.668853005034, -3963.612492515146, -3964.551265782269, -3965.0877076491965, -3962.7854779703, -3962.4054983145597, -3960.326786080216, -3957.845742445677, -3961.846704703177, -3965.624149516124, -3970.6309402741126, -3973.201390886473, -3974.676606020523, -3976.9117804660536, -3980.1080799231627, -3983.0138067023527, -3984.8913532365987, -3989.0264259608302, -3990.6357515616123, -3992.446242862492, -3993.519126596347, -3994.8825830081205, -3993.988513229908, -3997.1401091981065, -4001.0516644777854, -3998.4141586320593, -3998.0118272318637, -4000.3811121441263, -4002.258658678372, -4001.901030767087, -4002.9515627564865, -4003.2868389233163, -4002.83980403421, -4002.5939348452016, -4002.6162865896567, -4002.906859267576, -4004.5385366128135, -4007.734836069922, -4007.578373858735, -4008.941830270509, -4007.8242430477435, -4008.7630163148665, -4009.321809926249, -4007.9136500255645, -4006.2372691914165, -4007.623077347646, -4010.4393971490144, -4008.383036659126, -4006.259620935872, -4009.5676791152573, -4012.6298681056346, -4012.607516361179, -4009.679437837534, -4011.1546529715843, -4012.6745715945453, -4012.3616471721707, -4012.4063506610814, -4009.992362259908, -4009.3665134151597, -4010.9534872714867, -4010.975839015942, -4010.8864320381203, -4015.580298373735, -4018.351914686193, -4014.932097784531, -4009.634734348623, -4009.925307026542, -4012.1828332165283, -4014.3062489397826, -4014.5968216177016, -4014.5297663843357, -4011.4005221605926, -4012.6298681056346, -4014.5297663843357, -4015.714408840467, -4015.7591123293773, -4015.356780929182, -4016.474368151947, -4017.480196652436, -4015.5355948848246, -4015.9826297739305, -4014.820339062255, -4012.294591938805, -4012.1828332165283, -4015.446187907003, -4017.5919553747126, -4018.12839724164, -4018.9554117864864, -4018.486025152925, -4018.3742664306483, -4017.189623974517, -4016.3179059407603, -4016.3626094296706, -4018.0836937527292, -4019.447150164503, -4016.3179059407603, -4016.809644318777, -4020.028295520341, -4020.2741647093494, -4017.100216996696, -4016.6531821075896, -4016.6531821075896, -4013.6804000950337, -4012.6745715945453, -4016.0273332628412, -4017.3684379301594, -4019.7600745868776, -4017.7484175859, -4016.5861268742237, -4017.2119757189726, -4018.8213013197546, -4017.6590106080785, -4016.429664663037, -4013.5909931172127, -4016.474368151947, -4019.2012809754947, -4016.6978855965003, -4016.6978855965003, -4019.2236327199503, -4020.050647264796, -4015.133263484629, -4012.741626827911, -4015.5355948848246, -4017.2343274634277, -4017.7260658414443, -4017.480196652436, -4015.6920570960115, -4016.742589085411, -4017.41314141907, -4015.7591123293773, -4016.474368151947, -4017.2790309523384, -4018.8660048086654, -4017.457844907981, -4016.4073129185813, -4016.072036751752, -4017.614307119168, -4016.5414233853135, -4016.474368151947, -4018.2178042194614, -4019.93888854252, -4019.2683362088605, -4016.2732024518496, -4015.6920570960115, -4016.474368151947, -4014.0827314952294, -4016.675533852045, -4017.2119757189726, -4014.9768012734417, -4016.183795474028, -4020.050647264796, -4018.5530803862907, -4017.3460861857043, -4016.764940829866, -4015.781464073833, -4016.429664663037, -4015.803815818288, -4017.703714096989, -4018.709542597478, -4018.486025152925, -4020.452978664992, -4020.4976821539026, -4016.9214030410535, -4015.870871051654, -4018.1507489860956, -4021.6599728655788, -4019.4695019089586, -4017.971935030453, -4018.6648391085673, -4020.1847577315284, -4018.1507489860956, -4016.0273332628412, -4020.2294612204387, -4021.8834903101315, -4020.2071094759835, -4019.3353914422264, -4017.4354931635257, -4015.423836162548, -4018.418969919559, -4018.2401559639165, -4016.764940829866, -4017.770769330355, -4020.1400542426177, -4018.329562941738, -4019.8941850536094, -4021.1682344875617, -4019.9165367980645, -4016.764940829866, -4016.5414233853135, -4018.2178042194614, -4019.648315864601, -4018.0836937527292, -4017.4354931635257, -4017.8601763081765, -4018.2178042194614, -4019.715371097967, -4019.648315864601, -4017.9942867749082, -4016.139091985118, -4017.167272230062, -4019.156577486584, -4018.709542597478, -4015.1779669735397, -4013.255716950383, -4017.189623974517, -4020.4976821539026, -4021.4364554210256, -4021.2352897209275, -4018.8883565531205, -4017.904879797087, -4018.106045497185, -4017.6590106080785, -4014.9768012734417, -4016.6084786186793, -4017.8825280526316, -4018.2178042194614, -4021.5035106543914, -4021.771731587855, -4020.7659030873665, -4017.41314141907, -4016.4967198964027, -4016.0496850072964, -4017.3013826967936, -4020.2741647093494, -4021.347048443204, -4021.101179254196, -4020.2071094759835, -4019.961240286975, -4020.8329583207324, -4022.263469965872, -4017.5249001413467, -4016.6978855965003, -4016.161443729573, -4019.357743186682, -4022.1070077546847, -4021.347048443204, -4021.056475765285, -4020.5200338983577, -4021.838786821221, -4018.3072111972824, -4016.3179059407603, -4019.648315864601, -4022.7775600883438, -4021.391751932115, -4019.380094931137, -4019.961240286975, -4023.1351879996287, -4020.4976821539026, -4019.2012809754947, -4021.5705658877573, -4019.2236327199503, -4018.2625077083717, -4020.609440876179, -4021.056475765285, -4021.347048443204, -4021.8834903101315, -4020.6317926206343, -4021.995249032408, -4023.068132766263, -4021.2129379764724, -4021.838786821221, -4021.548214143302, -4020.2741647093494, -4019.961240286975, -4019.0224670198522, -4020.6317926206343, -4020.989420531919, -4022.12935949914, -4023.1575397440843, -4021.615269376668, -4021.2129379764724, -4018.9777635309415, -4017.2790309523384, -4020.4082751760816, -4021.928193799042, -4021.324696698749, -4019.000115275397, -4016.384961174126, -4019.7600745868776, -4024.386885689126, -4023.0904845107184, -4021.5705658877573, -4021.257641465383, -4020.989420531919, -4021.101179254196, -4021.682324610034, -4023.023429277352, -4022.5316908993354, -4020.900013554098, -4020.296516453805, -4022.4646356659696, -4022.866967066165, -4023.60457463319, -4023.9845542889307, -4022.4646356659696, -4021.3694001876597, -4020.3412199427153, -4024.1410165001175, -4024.252775222394, -4023.314001955271, -4023.4704641664584, -4023.1798914885394, -4022.12935949914, -4021.8164350767656, -4020.989420531919, -4021.548214143302, -4024.2751269668493, -4024.6327548781346, -4025.236251978428, -4025.5938798897128, -4022.352876943693, -4021.615269376668, -4021.7493798433998, -4020.385923431626, -4023.068132766263]]
