['beep', 0.0, 239.92362498326602, 0.0, 0.0, 0.0, 0.0, -2267.182143590706, 0.0]
['beep', 0.0, 182.5914004554034, 0.0, 0.0, 0.0, 0.0, -2267.383309290804, 0.0]
['beep', 0.0, 147.5215134050266, 0.0, 0.0, 0.0, 0.0, -2266.9362744016976, 0.0]
['beep', 0.0, 196.00244712858762, 0.0, 0.0, 0.0, 0.0, -2266.757460446055, 0.0]
['beep', 0.0, 244.68454655224642, 0.0, 0.0, 0.0, 0.0, -2266.668053468234, 0.0]
['beep', 0.0, 247.70203205371286, 0.0, 0.0, 0.0, 0.0, -2267.83034417991, 0.0]
['beep', 0.0, 245.71272679719053, 0.0, 0.0, 0.0, 0.0, -2267.338605801893, 0.0]
['beep', 0.0, 245.73507854164583, 0.0, 0.0, 0.0, 0.0, -2266.7351087016, 0.0]
['beep', 0.0, 245.69037505273522, 0.0, 0.0, 0.0, 0.0, -2266.824515679421, 0.0]
['beep', 0.0, 244.72925004115703, 0.0, 0.0, 0.0, 0.0, -2267.9644546466416, 0.0]
['beep', 0.0, 239.74481102762354, 0.0, 0.0, 0.0, 0.0, -2267.740937202089, 0.0]
['beep', 0.0, 182.2561242885738, 0.0, 0.0, 0.0, 0.0, -2267.8973994132757, 0.0]
['beep', 0.0, 147.96854829413275, 0.0, 0.0, 0.0, 0.0, -2266.668053468234, 0.0]
['beep', 0.0, 197.12003435135298, 0.0, 0.0, 0.0, 0.0, -2266.6457017237785, 0.0]
['beep', 0.0, 243.47755235165982, 0.0, 0.0, 0.0, 0.0, -2267.383309290804, 0.0]
['beep', 0.0, 246.1597616862967, 0.0, 0.0, 0.0, 0.0, -2268.858524424854, 0.0]
['beep', 0.0, 245.06452620798663, 0.0, 0.0, 0.0, 0.0, -2268.411489535748, 0.0]
['beep', 0.0, 245.17628493026317, 0.0, 0.0, 0.0, 0.0, -2266.7798121905103, 0.0]
['beep', 0.0, 244.90806399679948, 0.0, 0.0, 0.0, 0.0, -2266.7351087016, 0.0]
['beep', 0.0, 244.9304157412548, 0.0, 0.0, 0.0, 0.0, -2267.338605801893, 0.0]
['beep', 0.0, 240.10243893890848, 0.0, 0.0, 0.0, 0.0, -2268.7467657025772, 0.0]
['beep', 0.0, 181.80908939946764, 0.0, 0.0, 0.0, 0.0, -2268.992634891586, 0.0]
['beep', 0.0, 146.96271979364394, 0.0, 0.0, 0.0, 0.0, -2265.6622249677453, 0.0]
['beep', 0.0, 192.3591127823726, 0.0, 0.0, 0.0, 0.0, -2265.6175214788345, 0.0]
['beep', 0.0, 239.99068021663194, 0.0, 0.0, 0.0, 0.0, -2267.8079924354547, 0.0]
['beep', 0.0, 244.9527674857101, 0.0, 0.0, 0.0, 0.0, -2268.1656203467396, 0.0]
['beep', 0.0, 244.70689829670172, 0.0, 0.0, 0.0, 0.0, -2268.500896513569, 0.0]
['beep', 0.0, 243.052869207009, 0.0, 0.0, 0.0, 0.0, -2267.696233713178, 0.0]
['beep', 0.0, 243.61166281839166, 0.0, 0.0, 0.0, 0.0, -2267.428012779714, 0.0]
['beep', 0.0, 243.32109014047268, 0.0, 0.0, 0.0, 0.0, -2268.0315098800074, 0.0]
['beep', 0.0, 238.44840984921575, 0.0, 0.0, 0.0, 0.0, -2268.5232482580245, 0.0]
['beep', 0.0, 181.09383357689782, 0.0, 0.0, 0.0, 0.0, -2268.8361726803987, 0.0]
['beep', 0.0, 144.52637964801548, 0.0, 0.0, 0.0, 0.0, -2267.9644546466416, 0.0]
['beep', 0.0, 188.022874358043, 0.0, 0.0, 0.0, 0.0, -2268.076213368918, 0.0]
['beep', 0.0, 240.46006685019339, 0.0, 0.0, 0.0, 0.0, -2268.143268602284, 0.0]
['beep', 0.0, 244.37162212987212, 0.0, 0.0, 0.0, 0.0, -2267.8973994132757, 0.0]
['beep', 0.0, 243.83518026294476, 0.0, 0.0, 0.0, 0.0, -2267.45036452417, 0.0]
['beep', 0.0, 244.57278782996988, 0.0, 0.0, 0.0, 0.0, -2266.6233499793234, 0.0]
['beep', 0.0, 244.10340119640844, 0.0, 0.0, 0.0, 0.0, -2267.2268470796166, 0.0]
['beep', 0.0, 244.2822151520509, 0.0, 0.0, 0.0, 0.0, -2267.2715505685273, 0.0]
['beep', 0.0, 239.78951451653415, 0.0, 0.0, 0.0, 0.0, -2266.2880738124936, 0.0]
['beep', 0.0, 179.73037716512408, 0.0, 0.0, 0.0, 0.0, -2267.2715505685273, 0.0]
['beep', 0.0, 146.69449886018026, 0.0, 0.0, 0.0, 0.0, -2267.428012779714, 0.0]
['beep', 0.0, 190.32510403693965, 0.0, 0.0, 0.0, 0.0, -2266.444536023681, 0.0]
['beep', 0.0, 240.72828778365707, 0.0, 0.0, 0.0, 0.0, -2266.377480790315, 0.0]
['beep', 0.0, 243.7234215406682, 0.0, 0.0, 0.0, 0.0, -2267.6515302242674, 0.0]
['beep', 0.0, 243.3881453738386, 0.0, 0.0, 0.0, 0.0, -2268.6126552358455, 0.0]
['beep', 0.0, 242.53877908453694, 0.0, 0.0, 0.0, 0.0, -2267.7185854576333, 0.0]
['beep', 0.0, 244.9304157412548, 0.0, 0.0, 0.0, 0.0, -2266.0645563679404, 0.0]
['beep', 0.0, 245.3327471414503, 0.0, 0.0, 0.0, 0.0, -2267.048033123974, 0.0]
['beep', 0.0, 240.5271220835593, 0.0, 0.0, 0.0, 0.0, -2268.366786046837, 0.0]
['beep', 0.0, 182.8819731333224, 0.0, 0.0, 0.0, 0.0, -2267.3609575463483, 0.0]
['beep', 0.0, 146.87331281582271, 0.0, 0.0, 0.0, 0.0, -2267.2491988240718, 0.0]
['beep', 0.0, 189.07340634744244, 0.0, 0.0, 0.0, 0.0, -2267.45036452417, 0.0]
['beep', 0.0, 240.1918459167297, 0.0, 0.0, 0.0, 0.0, -2268.1879720911948, 0.0]
['beep', 0.0, 244.90806399679948, 0.0, 0.0, 0.0, 0.0, -2268.567951746935, 0.0]
['beep', 0.0, 246.45033436421568, 0.0, 0.0, 0.0, 0.0, -2267.6738819687225, 0.0]
['beep', 0.0, 245.19863667471847, 0.0, 0.0, 0.0, 0.0, -2267.025681379519, 0.0]
['beep', 0.0, 244.9304157412548, 0.0, 0.0, 0.0, 0.0, -2266.9139226572424, 0.0]
['beep', 0.0, 246.27152040857322, 0.0, 0.0, 0.0, 0.0, -2268.076213368918, 0.0]
['beep', 0.0, 242.80700001800062, 0.0, 0.0, 0.0, 0.0, -2269.1714488472285, 0.0]
['beep', 0.0, 192.60498197138097, 0.0, 0.0, 0.0, 0.0, -2268.3891377912923, 0.0]
['beep', 0.0, 149.89079831728915, 0.0, 0.0, 0.0, 0.0, -2268.478544769114, 0.0]
['beep', 0.0, 193.7449209386016, 0.0, 0.0, 0.0, 0.0, -2269.6184837363344, 0.0]
['beep', 0.0, 243.27638665156206, 0.0, 0.0, 0.0, 0.0, -2268.478544769114, 0.0]
['beep', 0.0, 243.9469389852213, 0.0, 0.0, 0.0, 0.0, -2268.433841280203, 0.0]
['beep', 0.0, 243.49990409611513, 0.0, 0.0, 0.0, 0.0, -2267.6068267353567, 0.0]
['beep', 0.0, 244.6621948077911, 0.0, 0.0, 0.0, 0.0, -2266.8468674238766, 0.0]
['beep', 0.0, 245.35509888590562, 0.0, 0.0, 0.0, 0.0, -2266.757460446055, 0.0]
['beep', 0.0, 246.11505819738608, 0.0, 0.0, 0.0, 0.0, -2267.9421029021864, 0.0]
['beep', 0.0, 244.86336050788887, 0.0, 0.0, 0.0, 0.0, -2268.0091581355523, 0.0]
['beep', 0.0, 190.36980752585026, 0.0, 0.0, 0.0, 0.0, -2267.763288946544, 0.0]
['beep', 0.0, 146.2698157155294, 0.0, 0.0, 0.0, 0.0, -2266.8692191683317, 0.0]
['beep', 0.0, 192.49322324910443, 0.0, 0.0, 0.0, 0.0, -2266.2210185791278, 0.0]
['beep', 0.0, 243.00816571809838, 0.0, 0.0, 0.0, 0.0, -2267.3609575463483, 0.0]
['beep', 0.0, 247.2102936756961, 0.0, 0.0, 0.0, 0.0, -2267.852695924365, 0.0]
['beep', 0.0, 247.32205239797264, 0.0, 0.0, 0.0, 0.0, -2267.405661035259, 0.0]
['beep', 0.0, 247.4785146091598, 0.0, 0.0, 0.0, 0.0, -2267.2939023129825, 0.0]
['beep', 0.0, 246.1597616862967, 0.0, 0.0, 0.0, 0.0, -2266.3327773014043, 0.0]
['beep', 0.0, 245.891540752833, 0.0, 0.0, 0.0, 0.0, -2267.5621232464464, 0.0]
['beep', 0.0, 239.8342180054448, 0.0, 0.0, 0.0, 0.0, -2267.83034417991, 0.0]
['beep', 0.0, 182.2784760330291, 0.0, 0.0, 0.0, 0.0, -2267.5844749909015, 0.0]
['beep', 0.0, 147.23094072710762, 0.0, 0.0, 0.0, 0.0, -2266.0645563679404, 0.0]
['beep', 0.0, 194.54958373899268, 0.0, 0.0, 0.0, 0.0, -2266.2880738124936, 0.0]
['beep', 0.0, 243.0752209514643, 0.0, 0.0, 0.0, 0.0, -2267.182143590706, 0.0]
['beep', 0.0, 246.29387215302853, 0.0, 0.0, 0.0, 0.0, -2267.2044953351615, 0.0]
['beep', 0.0, 244.9527674857101, 0.0, 0.0, 0.0, 0.0, -2265.9975011345746, 0.0]
['beep', 0.0, 243.87988375185537, 0.0, 0.0, 0.0, 0.0, -2265.6845767122004, 0.0]
['beep', 0.0, 245.17628493026317, 0.0, 0.0, 0.0, 0.0, -2265.5504662454687, 0.0]
['beep', 0.0, 245.91389249728832, 0.0, 0.0, 0.0, 0.0, -2266.153963345762, 0.0]
['beep', 0.0, 241.62235756186934, 0.0, 0.0, 0.0, 0.0, -2267.11508835734, 0.0]
['beep', 0.0, 183.53017372252629, 0.0, 0.0, 0.0, 0.0, -2266.8468674238766, 0.0]
['beep', 0.0, 148.92967330571096, 0.0, 0.0, 0.0, 0.0, -2267.8750476688206, 0.0]
['beep', 0.0, 194.43782501671615, 0.0, 0.0, 0.0, 0.0, -2267.785640690999, 0.0]
['beep', 0.0, 245.10922969689724, 0.0, 0.0, 0.0, 0.0, -2268.5232482580245, 0.0]
['beep', 0.0, 246.8303140199559, 0.0, 0.0, 0.0, 0.0, -2268.1879720911948, 0.0]
['beep', 0.0, 246.182113430752, 0.0, 0.0, 0.0, 0.0, -2268.2326755801055, 0.0]
['beep', 0.0, 247.45616286470448, 0.0, 0.0, 0.0, 0.0, -2268.277379069016, 0.0]
['beep', 0.0, 247.41145937579387, 0.0, 0.0, 0.0, 0.0, -2268.120916857829, 0.0]
['beep', 0.0, 249.0654884654866, 0.0, 0.0, 0.0, 0.0, -2268.2326755801055, 0.0]
['beep', 0.0, 248.23847392064025, 0.0, 0.0, 0.0, 0.0, -2267.405661035259, 0.0]
['beep', 0.0, 204.54081351051494, 0.0, 0.0, 0.0, 0.0, -2266.377480790315, 0.0]
['beep', 0.0, 157.42333619872764, 0.0, 0.0, 0.0, 0.0, -2265.170486589728, 0.0]
['beep', 0.0, 205.21136584417414, 0.0, 0.0, 0.0, 0.0, -2263.6505679667675, 0.0]
['beep', 0.0, 251.07714546646423, 0.0, 0.0, 0.0, 0.0, -2265.5951697343794, 0.0]
['beep', 0.0, 249.4231163767715, 0.0, 0.0, 0.0, 0.0, -2265.5504662454687, 0.0]
['beep', 0.0, 248.1043634539084, 0.0, 0.0, 0.0, 0.0, -2263.918788900231, 0.0]
['beep', 0.0, 249.4231163767715, 0.0, 0.0, 0.0, 0.0, -2263.2929400554826, 0.0]
['beep', 0.0, 247.63497682034694, 0.0, 0.0, 0.0, 0.0, -2264.92461740072, 0.0]
['beep', 0.0, 246.8526657644112, 0.0, 0.0, 0.0, 0.0, -2265.5504662454687, 0.0]
['beep', 0.0, 242.0693924509755, 0.0, 0.0, 0.0, 0.0, -2265.1034313563623, 0.0]
['beep', 0.0, 181.83144114392294, 0.0, 0.0, 0.0, 0.0, -2264.522286000524, 0.0]
['beep', 0.0, 150.67310937322492, 0.0, 0.0, 0.0, 0.0, -2265.438707523192, 0.0]
['beep', 0.0, 195.84598491740047, 0.0, 0.0, 0.0, 0.0, -2265.6175214788345, 0.0]
['beep', 0.0, 245.53391284154807, 0.0, 0.0, 0.0, 0.0, -2265.9304459012087, 0.0]
['beep', 0.0, 249.4231163767715, 0.0, 0.0, 0.0, 0.0, -2266.8468674238766, 0.0]
['beep', 0.0, 250.07131696597543, 0.0, 0.0, 0.0, 0.0, -2266.533943001502, 0.0]
['beep', 0.0, 247.83614252044472, 0.0, 0.0, 0.0, 0.0, -2265.818687178932, 0.0]
['beep', 0.0, 246.33857564193914, 0.0, 0.0, 0.0, 0.0, -2265.170486589728, 0.0]
['beep', 0.0, 248.03730822054249, 0.0, 0.0, 0.0, 0.0, -2265.461059267647, 0.0]
['beep', 0.0, 242.87405525136654, 0.0, 0.0, 0.0, 0.0, -2265.2375418230945, 0.0]
['beep', 0.0, 186.16767956825254, 0.0, 0.0, 0.0, 0.0, -2264.499934256069, 0.0]
['beep', 0.0, 149.62257738382547, 0.0, 0.0, 0.0, 0.0, -2264.0305476225076, 0.0]
['beep', 0.0, 189.16281332526367, 0.0, 0.0, 0.0, 0.0, -2265.3269488009155, 0.0]
['beep', 0.0, 243.16462792928553, 0.0, 0.0, 0.0, 0.0, -2266.9586261461527, 0.0]
['beep', 0.0, 247.00912797559835, 0.0, 0.0, 0.0, 0.0, -2266.668053468234, 0.0]
['beep', 0.0, 247.12088669787488, 0.0, 0.0, 0.0, 0.0, -2265.3269488009155, 0.0]
['beep', 0.0, 246.4950378531263, 0.0, 0.0, 0.0, 0.0, -2266.109259856851, 0.0]
['beep', 0.0, 246.4950378531263, 0.0, 0.0, 0.0, 0.0, -2265.1034313563623, 0.0]
['beep', 0.0, 245.51156109709277, 0.0, 0.0, 0.0, 0.0, -2266.1316116013068, 0.0]
['beep', 0.0, 242.3823168733498, 0.0, 0.0, 0.0, 0.0, -2266.39983253477, 0.0]
['beep', 0.0, 190.01217961456533, 0.0, 0.0, 0.0, 0.0, -2265.885742412298, 0.0]
['beep', 0.0, 147.72267910512437, 0.0, 0.0, 0.0, 0.0, -2265.1928383341838, 0.0]
['beep', 0.0, 190.1909935702078, 0.0, 0.0, 0.0, 0.0, -2264.3211203004266, 0.0]
['beep', 0.0, 243.14227618483022, 0.0, 0.0, 0.0, 0.0, -2264.499934256069, 0.0]
['beep', 0.0, 246.31622389748384, 0.0, 0.0, 0.0, 0.0, -2265.528114501013, 0.0]
['beep', 0.0, 246.80796227550059, 0.0, 0.0, 0.0, 0.0, -2265.148134845273, 0.0]
['beep', 0.0, 247.2326454201514, 0.0, 0.0, 0.0, 0.0, -2265.438707523192, 0.0]
['beep', 0.0, 246.60679657540283, 0.0, 0.0, 0.0, 0.0, -2265.3940040342814, 0.0]
['beep', 0.0, 246.45033436421568, 0.0, 0.0, 0.0, 0.0, -2265.215190078639, 0.0]
['beep', 0.0, 238.76133427159004, 0.0, 0.0, 0.0, 0.0, -2265.729280201111, 0.0]
['beep', 0.0, 180.6915021767023, 0.0, 0.0, 0.0, 0.0, -2265.9527976456643, 0.0]
['beep', 0.0, 147.43210642720538, 0.0, 0.0, 0.0, 0.0, -2265.505762756558, 0.0]
['beep', 0.0, 189.34162728090612, 0.0, 0.0, 0.0, 0.0, -2265.5951697343794, 0.0]
['beep', 0.0, 242.4270203622604, 0.0, 0.0, 0.0, 0.0, -2265.3493005453706, 0.0]
['beep', 0.0, 244.9304157412548, 0.0, 0.0, 0.0, 0.0, -2265.7516319455663, 0.0]
['beep', 0.0, 245.48920935263746, 0.0, 0.0, 0.0, 0.0, -2265.371652289826, 0.0]
['beep', 0.0, 245.04217446353132, 0.0, 0.0, 0.0, 0.0, -2264.20936157815, 0.0]
['beep', 0.0, 245.8468372639224, 0.0, 0.0, 0.0, 0.0, -2263.6729197112227, 0.0]
['beep', 0.0, 246.02565121956485, 0.0, 0.0, 0.0, 0.0, -2264.2987685559715, 0.0]
['beep', 0.0, 242.98581397364308, 0.0, 0.0, 0.0, 0.0, -2265.5951697343794, 0.0]
['beep', 0.0, 192.3814645268279, 0.0, 0.0, 0.0, 0.0, -2263.896437155776, 0.0]
['beep', 0.0, 149.60022563937017, 0.0, 0.0, 0.0, 0.0, -2263.985844133597, 0.0]
['beep', 0.0, 190.70508369267986, 0.0, 0.0, 0.0, 0.0, -2264.5893412338905, 0.0]
['beep', 0.0, 242.78464827354532, 0.0, 0.0, 0.0, 0.0, -2265.483411012103, 0.0]
['beep', 0.0, 247.45616286470448, 0.0, 0.0, 0.0, 0.0, -2266.511591257047, 0.0]
['beep', 0.0, 245.95859598619893, 0.0, 0.0, 0.0, 0.0, -2265.058727867452, 0.0]
['beep', 0.0, 245.22098841917378, 0.0, 0.0, 0.0, 0.0, -2262.9800156331085, 0.0]
['beep', 0.0, 245.93624424174362, 0.0, 0.0, 0.0, 0.0, -2263.538809244491, 0.0]
['beep', 0.0, 245.8244855194671, 0.0, 0.0, 0.0, 0.0, -2264.768155189533, 0.0]
['beep', 0.0, 242.58348257344755, 0.0, 0.0, 0.0, 0.0, -2265.215190078639, 0.0]
['beep', 0.0, 189.49808949209327, 0.0, 0.0, 0.0, 0.0, -2264.477582511614, 0.0]
['beep', 0.0, 150.024908784021, 0.0, 0.0, 0.0, 0.0, -2263.82938192241, 0.0]
['beep', 0.0, 196.42713027323848, 0.0, 0.0, 0.0, 0.0, -2263.471754011125, 0.0]
['beep', 0.0, 243.47755235165982, 0.0, 0.0, 0.0, 0.0, -2265.1034313563623, 0.0]
['beep', 0.0, 246.00329947510954, 0.0, 0.0, 0.0, 0.0, -2265.505762756558, 0.0]
['beep', 0.0, 247.1879419312408, 0.0, 0.0, 0.0, 0.0, -2264.2540650670608, 0.0]
['beep', 0.0, 247.12088669787488, 0.0, 0.0, 0.0, 0.0, -2263.3152917999378, 0.0]
['beep', 0.0, 247.34440414242795, 0.0, 0.0, 0.0, 0.0, -2263.3599952888485, 0.0]
['beep', 0.0, 246.62914831985813, 0.0, 0.0, 0.0, 0.0, -2264.3434720448818, 0.0]
['beep', 0.0, 243.3881453738386, 0.0, 0.0, 0.0, 0.0, -2264.142306344784, 0.0]
['beep', 0.0, 191.4873947486156, 0.0, 0.0, 0.0, 0.0, -2263.4270505222144, 0.0]
['beep', 0.0, 151.9695105516327, 0.0, 0.0, 0.0, 0.0, -2263.538809244491, 0.0]
['beep', 0.0, 196.40477852878317, 0.0, 0.0, 0.0, 0.0, -2263.7399749445885, 0.0]
['beep', 0.0, 246.71855529767936, 0.0, 0.0, 0.0, 0.0, -2264.3211203004266, 0.0]
['beep', 0.0, 248.03730822054249, 0.0, 0.0, 0.0, 0.0, -2263.762326689044, 0.0]
['beep', 0.0, 247.85849426490003, 0.0, 0.0, 0.0, 0.0, -2262.7117946996445, 0.0]
['beep', 0.0, 248.439639620738, 0.0, 0.0, 0.0, 0.0, -2263.5835127334017, 0.0]
['beep', 0.0, 247.09853495341957, 0.0, 0.0, 0.0, 0.0, -2263.3152917999378, 0.0]
['beep', 0.0, 245.10922969689724, 0.0, 0.0, 0.0, 0.0, -2263.8740854113207, 0.0]
['beep', 0.0, 239.90127323881072, 0.0, 0.0, 0.0, 0.0, -2263.762326689044, 0.0]
['beep', 0.0, 184.20072605618552, 0.0, 0.0, 0.0, 0.0, -2263.82938192241, 0.0]
['beep', 0.0, 146.5380366489931, 0.0, 0.0, 0.0, 0.0, -2262.7788499330104, 0.0]
['beep', 0.0, 186.79352841300113, 0.0, 0.0, 0.0, 0.0, -2261.3930417767815, 0.0]
['beep', 0.0, 240.10243893890848, 0.0, 0.0, 0.0, 0.0, -2262.6447394662787, 0.0]
['beep', 0.0, 244.37162212987212, 0.0, 0.0, 0.0, 0.0, -2264.6563964672564, 0.0]
['beep', 0.0, 244.6621948077911, 0.0, 0.0, 0.0, 0.0, -2264.276416811516, 0.0]
['beep', 0.0, 244.34927038541682, 0.0, 0.0, 0.0, 0.0, -2263.5835127334017, 0.0]
['beep', 0.0, 244.17045642977436, 0.0, 0.0, 0.0, 0.0, -2264.1646580892393, 0.0]
['beep', 0.0, 243.83518026294476, 0.0, 0.0, 0.0, 0.0, -2264.7234517006223, 0.0]
['beep', 0.0, 241.35413662840566, 0.0, 0.0, 0.0, 0.0, -2265.3269488009155, 0.0]
['beep', 0.0, 189.40868251427204, 0.0, 0.0, 0.0, 0.0, -2265.416355778737, 0.0]
['beep', 0.0, 147.43210642720538, 0.0, 0.0, 0.0, 0.0, -2264.6116929783457, 0.0]
['beep', 0.0, 190.28040054802904, 0.0, 0.0, 0.0, 0.0, -2265.6175214788345, 0.0]
['beep', 0.0, 240.1694941722744, 0.0, 0.0, 0.0, 0.0, -2265.3045970564604, 0.0]
['beep', 0.0, 242.96346222918777, 0.0, 0.0, 0.0, 0.0, -2266.7127569571444, 0.0]
['beep', 0.0, 243.34344188492798, 0.0, 0.0, 0.0, 0.0, -2266.7798121905103, 0.0]
['beep', 0.0, 243.32109014047268, 0.0, 0.0, 0.0, 0.0, -2266.7127569571444, 0.0]
['beep', 0.0, 243.58931107393636, 0.0, 0.0, 0.0, 0.0, -2265.9304459012087, 0.0]
['beep', 0.0, 243.56695932948105, 0.0, 0.0, 0.0, 0.0, -2265.170486589728, 0.0]
['beep', 0.0, 242.58348257344755, 0.0, 0.0, 0.0, 0.0, -2264.768155189533, 0.0]
['beep', 0.0, 196.27066806205133, 0.0, 0.0, 0.0, 0.0, -2265.7516319455663, 0.0]
['beep', 0.0, 148.6838041167026, 0.0, 0.0, 0.0, 0.0, -2265.2598935675496, 0.0]
['beep', 0.0, 185.36301676786147, 0.0, 0.0, 0.0, 0.0, -2264.20936157815, 0.0]
['beep', 0.0, 241.75646802860118, 0.0, 0.0, 0.0, 0.0, -2265.125783100818, 0.0]
['beep', 0.0, 246.42798261976037, 0.0, 0.0, 0.0, 0.0, -2264.54463774498, 0.0]
['beep', 0.0, 246.07035470847546, 0.0, 0.0, 0.0, 0.0, -2264.276416811516, 0.0]
['beep', 0.0, 246.11505819738608, 0.0, 0.0, 0.0, 0.0, -2263.985844133597, 0.0]
['beep', 0.0, 245.80213377501178, 0.0, 0.0, 0.0, 0.0, -2262.1977045771723, 0.0]
['beep', 0.0, 246.45033436421568, 0.0, 0.0, 0.0, 0.0, -2263.270588311027, 0.0]
['beep', 0.0, 245.80213377501178, 0.0, 0.0, 0.0, 0.0, -2264.8128586784433, 0.0]
['beep', 0.0, 201.90330766478868, 0.0, 0.0, 0.0, 0.0, -2264.432879022703, 0.0]
['beep', 0.0, 152.39419369628357, 0.0, 0.0, 0.0, 0.0, -2263.2929400554826, 0.0]
['beep', 0.0, 192.18029882673014, 0.0, 0.0, 0.0, 0.0, -2262.6447394662787, 0.0]
['beep', 0.0, 242.15879942879673, 0.0, 0.0, 0.0, 0.0, -2264.2317133226056, 0.0]
['beep', 0.0, 245.891540752833, 0.0, 0.0, 0.0, 0.0, -2264.432879022703, 0.0]
['beep', 0.0, 246.11505819738608, 0.0, 0.0, 0.0, 0.0, -2263.471754011125, 0.0]
['beep', 0.0, 245.95859598619893, 0.0, 0.0, 0.0, 0.0, -2263.516457500036, 0.0]
['beep', 0.0, 244.9527674857101, 0.0, 0.0, 0.0, 0.0, -2262.9800156331085, 0.0]
['beep', 0.0, 245.5786163304587, 0.0, 0.0, 0.0, 0.0, -2263.896437155776, 0.0]
['beep', 0.0, 243.16462792928553, 0.0, 0.0, 0.0, 0.0, -2263.9634923891417, 0.0]
['beep', 0.0, 198.50584250758203, 0.0, 0.0, 0.0, 0.0, -2264.7234517006223, 0.0]
['beep', 0.0, 148.77321109452382, 0.0, 0.0, 0.0, 0.0, -2262.0412423659855, 0.0]
['beep', 0.0, 186.7488249240905, 0.0, 0.0, 0.0, 0.0, -2262.1977045771723, 0.0]
['beep', 0.0, 240.37065987237216, 0.0, 0.0, 0.0, 0.0, -2263.158829588751, 0.0]
['beep', 0.0, 243.9469389852213, 0.0, 0.0, 0.0, 0.0, -2263.11412609984, 0.0]
['beep', 0.0, 244.2822151520509, 0.0, 0.0, 0.0, 0.0, -2262.9800156331085, 0.0]
['beep', 0.0, 242.65053780681347, 0.0, 0.0, 0.0, 0.0, -2262.175352832717, 0.0]
['beep', 0.0, 242.76229652909, 0.0, 0.0, 0.0, 0.0, -2262.242408066083, 0.0]
['beep', 0.0, 242.87405525136654, 0.0, 0.0, 0.0, 0.0, -2263.6952714556783, 0.0]
['beep', 0.0, 240.05773544999786, 0.0, 0.0, 0.0, 0.0, -2264.4552307671584, 0.0]
['beep', 0.0, 190.57097322594802, 0.0, 0.0, 0.0, 0.0, -2264.1646580892393, 0.0]
['beep', 0.0, 145.8898360597892, 0.0, 0.0, 0.0, 0.0, -2262.7341464440997, 0.0]
['beep', 0.0, 188.2687435470514, 0.0, 0.0, 0.0, 0.0, -2263.6952714556783, 0.0]
['beep', 0.0, 240.23654940564032, 0.0, 0.0, 0.0, 0.0, -2265.1034313563623, 0.0]
['beep', 0.0, 243.56695932948105, 0.0, 0.0, 0.0, 0.0, -2263.851733666865, 0.0]
['beep', 0.0, 243.54460758502574, 0.0, 0.0, 0.0, 0.0, -2263.628216222312, 0.0]
['beep', 0.0, 242.0470407065202, 0.0, 0.0, 0.0, 0.0, -2264.3211203004266, 0.0]
['beep', 0.0, 241.55530232850342, 0.0, 0.0, 0.0, 0.0, -2263.248236566572, 0.0]
['beep', 0.0, 242.13644768434142, 0.0, 0.0, 0.0, 0.0, -2263.9411406446866, 0.0]
['beep', 0.0, 241.60000581741403, 0.0, 0.0, 0.0, 0.0, -2264.768155189533, 0.0]
['beep', 0.0, 195.75657793957924, 0.0, 0.0, 0.0, 0.0, -2263.605864477857, 0.0]
['beep', 0.0, 147.476809916116, 0.0, 0.0, 0.0, 0.0, -2262.823553421921, 0.0]
['beep', 0.0, 180.95972311016598, 0.0, 0.0, 0.0, 0.0, -2262.3318150439045, 0.0]
['beep', 0.0, 238.6272238048582, 0.0, 0.0, 0.0, 0.0, -2261.571855732424, 0.0]
['beep', 0.0, 243.87988375185537, 0.0, 0.0, 0.0, 0.0, -2262.0635941104406, 0.0]
['beep', 0.0, 243.3657936293833, 0.0, 0.0, 0.0, 0.0, -2263.3599952888485, 0.0]
['beep', 0.0, 242.24820640661795, 0.0, 0.0, 0.0, 0.0, -2263.3823470333036, 0.0]
['beep', 0.0, 242.31526163998387, 0.0, 0.0, 0.0, 0.0, -2262.6223877218235, 0.0]
['beep', 0.0, 243.14227618483022, 0.0, 0.0, 0.0, 0.0, -2262.868256910832, 0.0]
['beep', 0.0, 241.5329505840481, 0.0, 0.0, 0.0, 0.0, -2263.181181333206, 0.0]
['beep', 0.0, 188.9616476251659, 0.0, 0.0, 0.0, 0.0, -2262.823553421921, 0.0]
['beep', 0.0, 146.35922269335066, 0.0, 0.0, 0.0, 0.0, -2261.4153935212366, 0.0]
['beep', 0.0, 185.8324034014229, 0.0, 0.0, 0.0, 0.0, -2262.1306493438065, 0.0]
['beep', 0.0, 242.4493721067157, 0.0, 0.0, 0.0, 0.0, -2263.4494022666695, 0.0]
['beep', 0.0, 246.4950378531263, 0.0, 0.0, 0.0, 0.0, -2264.3211203004266, 0.0]
['beep', 0.0, 161.379594967317, 0.0, 0.0, 0.0, 0.0, -2259.5154952425355, 0.0]
['beep', 0.0, 227.89838646631082, 0.0, 0.0, 0.0, 0.0, -2260.186047576195, 0.0]
['beep', 0.0, 243.65636630730228, 0.0, 0.0, 0.0, 0.0, -2260.297806298471, 0.0]
['beep', 0.0, 229.7759330005566, 0.0, 0.0, 0.0, 0.0, -2259.962530131642, 0.0]
['beep', 0.0, 164.48648744660468, 0.0, 0.0, 0.0, 0.0, -2258.688480697689, 0.0]
['beep', 0.0, 172.64487417279176, 0.0, 0.0, 0.0, 0.0, -2257.6826521972007, 0.0]
['beep', 0.0, 234.38039235834987, 0.0, 0.0, 0.0, 0.0, -2258.01792836403, 0.0]
['beep', 0.0, 242.7399447846347, 0.0, 0.0, 0.0, 0.0, -2259.314329542438, 0.0]
['beep', 0.0, 245.46685760818215, 0.0, 0.0, 0.0, 0.0, -2259.5154952425355, 0.0]
['beep', 0.0, 244.86336050788887, 0.0, 0.0, 0.0, 0.0, -2257.213265563639, 0.0]
['beep', 0.0, 243.3881453738386, 0.0, 0.0, 0.0, 0.0, -2257.6826521972007, 0.0]
['beep', 0.0, 245.08687795244194, 0.0, 0.0, 0.0, 0.0, -2258.35320453086, 0.0]
['beep', 0.0, 245.15393318580786, 0.0, 0.0, 0.0, 0.0, -2256.6544719522562, 0.0]
['beep', 0.0, 209.5029007795931, 0.0, 0.0, 0.0, 0.0, -2257.8838178972983, 0.0]
['beep', 0.0, 150.76251635104614, 0.0, 0.0, 0.0, 0.0, -2259.314329542438, 0.0]
['beep', 0.0, 164.30767349096223, 0.0, 0.0, 0.0, 0.0, -2258.7778876755106, 0.0]
['beep', 0.0, 230.53589231203705, 0.0, 0.0, 0.0, 0.0, -2258.8002394199657, 0.0]
['beep', 0.0, 245.37745063036093, 0.0, 0.0, 0.0, 0.0, -2260.297806298471, 0.0]
['beep', 0.0, 246.2268169196626, 0.0, 0.0, 0.0, 0.0, -2260.342509787382, 0.0]
['beep', 0.0, 246.04800296402016, 0.0, 0.0, 0.0, 0.0, -2259.8507714093653, 0.0]
['beep', 0.0, 244.77395353006764, 0.0, 0.0, 0.0, 0.0, -2260.1189923428287, 0.0]
['beep', 0.0, 244.6174913188805, 0.0, 0.0, 0.0, 0.0, -2259.1578673312506, 0.0]
['beep', 0.0, 243.3881453738386, 0.0, 0.0, 0.0, 0.0, -2259.7390126870887, 0.0]
['beep', 0.0, 208.09474087890877, 0.0, 0.0, 0.0, 0.0, -2259.4707917536252, 0.0]
['beep', 0.0, 150.47194367312716, 0.0, 0.0, 0.0, 0.0, -2260.901303398765, 0.0]
['beep', 0.0, 164.37472872432815, 0.0, 0.0, 0.0, 0.0, -2259.895474898276, 0.0]
['beep', 0.0, 229.03832543353147, 0.0, 0.0, 0.0, 0.0, -2259.180219075706, 0.0]
['beep', 0.0, 243.47755235165982, 0.0, 0.0, 0.0, 0.0, -2259.537846986991, 0.0]
['beep', 0.0, 244.01399421858721, 0.0, 0.0, 0.0, 0.0, -2259.627253964812, 0.0]
['beep', 0.0, 243.85753200740007, 0.0, 0.0, 0.0, 0.0, -2258.8002394199657, 0.0]
['beep', 0.0, 244.6621948077911, 0.0, 0.0, 0.0, 0.0, -2258.8225911644213, 0.0]
['beep', 0.0, 243.11992444037492, 0.0, 0.0, 0.0, 0.0, -2260.2307510651053, 0.0]
['beep', 0.0, 242.53877908453694, 0.0, 0.0, 0.0, 0.0, -2260.610730720846, 0.0]
['beep', 0.0, 205.25606933308475, 0.0, 0.0, 0.0, 0.0, -2260.9683586321307, 0.0]
['beep', 0.0, 150.40488843976124, 0.0, 0.0, 0.0, 0.0, -2260.186047576195, 0.0]
['beep', 0.0, 161.4466502006829, 0.0, 0.0, 0.0, 0.0, -2259.180219075706, 0.0]
['beep', 0.0, 228.1889591442298, 0.0, 0.0, 0.0, 0.0, -2258.8672946533316, 0.0]
['beep', 0.0, 244.17045642977436, 0.0, 0.0, 0.0, 0.0, -2259.381384775804, 0.0]
['beep', 0.0, 235.31916562547275, 0.0, 0.0, 0.0, 0.0, -2259.403736520259, 0.0]
['beep', 0.0, 173.51659220654872, 0.0, 0.0, 0.0, 0.0, -2260.2307510651053, 0.0]
['beep', 0.0, 170.36499623835044, 0.0, 0.0, 0.0, 0.0, -2259.5154952425355, 0.0]
['beep', 0.0, 233.6204330468694, 0.0, 0.0, 0.0, 0.0, -2258.9119981422423, 0.0]
['beep', 0.0, 244.14810468531905, 0.0, 0.0, 0.0, 0.0, -2260.0072336205526, 0.0]
['beep', 0.0, 245.19863667471847, 0.0, 0.0, 0.0, 0.0, -2259.5154952425355, 0.0]
['beep', 0.0, 244.6621948077911, 0.0, 0.0, 0.0, 0.0, -2258.241445808583, 0.0]
['beep', 0.0, 244.3269186409615, 0.0, 0.0, 0.0, 0.0, -2258.01792836403, 0.0]
['beep', 0.0, 245.53391284154807, 0.0, 0.0, 0.0, 0.0, -2259.3590330313486, 0.0]
['beep', 0.0, 246.8303140199559, 0.0, 0.0, 0.0, 0.0, -2260.0742888539185, 0.0]
['beep', 0.0, 218.0412671615204, 0.0, 0.0, 0.0, 0.0, -2259.3590330313486, 0.0]
['beep', 0.0, 155.54578966448184, 0.0, 0.0, 0.0, 0.0, -2259.314329542438, 0.0]
['beep', 0.0, 167.81689737044542, 0.0, 0.0, 0.0, 0.0, -2259.671957453723, 0.0]
['beep', 0.0, 233.79924700251186, 0.0, 0.0, 0.0, 0.0, -2259.4484400091696, 0.0]
['beep', 0.0, 245.17628493026317, 0.0, 0.0, 0.0, 0.0, -2261.191876076684, 0.0]
['beep', 0.0, 247.1655901867855, 0.0, 0.0, 0.0, 0.0, -2261.5271522435132, 0.0]
['beep', 0.0, 246.29387215302853, 0.0, 0.0, 0.0, 0.0, -2260.0295853650077, 0.0]
['beep', 0.0, 246.27152040857322, 0.0, 0.0, 0.0, 0.0, -2260.1413440872843, 0.0]
['beep', 0.0, 245.35509888590562, 0.0, 0.0, 0.0, 0.0, -2260.7448411875775, 0.0]
['beep', 0.0, 245.51156109709277, 0.0, 0.0, 0.0, 0.0, -2261.0354138654966, 0.0]
['beep', 0.0, 214.75556072659026, 0.0, 0.0, 0.0, 0.0, -2259.962530131642, 0.0]
['beep', 0.0, 151.83540008490087, 0.0, 0.0, 0.0, 0.0, -2260.320158042927, 0.0]
['beep', 0.0, 168.73331889311302, 0.0, 0.0, 0.0, 0.0, -2259.023756864519, 0.0]
['beep', 0.0, 233.84395049142248, 0.0, 0.0, 0.0, 0.0, -2258.979053375608, 0.0]
['beep', 0.0, 244.86336050788887, 0.0, 0.0, 0.0, 0.0, -2260.4989719985692, 0.0]
['beep', 0.0, 237.82256100446713, 0.0, 0.0, 0.0, 0.0, -2261.63891096579, 0.0]
['beep', 0.0, 175.55060095198166, 0.0, 0.0, 0.0, 0.0, -2259.761364431544, 0.0]
['beep', 0.0, 170.83438287191188, 0.0, 0.0, 0.0, 0.0, -2259.1355155867955, 0.0]
['beep', 0.0, 234.42509584726048, 0.0, 0.0, 0.0, 0.0, -2260.342509787382, 0.0]
['beep', 0.0, 243.67871805175758, 0.0, 0.0, 0.0, 0.0, -2260.0295853650077, 0.0]
['beep', 0.0, 243.54460758502574, 0.0, 0.0, 0.0, 0.0, -2259.4707917536252, 0.0]
['beep', 0.0, 243.7681250295788, 0.0, 0.0, 0.0, 0.0, -2259.7837161759994, 0.0]
['beep', 0.0, 243.79047677403412, 0.0, 0.0, 0.0, 0.0, -2258.1520388307617, 0.0]
['beep', 0.0, 245.04217446353132, 0.0, 0.0, 0.0, 0.0, -2258.1073353418515, 0.0]
['beep', 0.0, 245.600968074914, 0.0, 0.0, 0.0, 0.0, -2258.8225911644213, 0.0]
['beep', 0.0, 224.54562479801476, 0.0, 0.0, 0.0, 0.0, -2258.576721975413, 0.0]
['beep', 0.0, 159.01031005505445, 0.0, 0.0, 0.0, 0.0, -2257.8838178972983, 0.0]
['beep', 0.0, 162.9442170791885, 0.0, 0.0, 0.0, 0.0, -2257.570893474924, 0.0]
['beep', 0.0, 230.0665056784756, 0.0, 0.0, 0.0, 0.0, -2257.3920795192817, 0.0]
['beep', 0.0, 245.04217446353132, 0.0, 0.0, 0.0, 0.0, -2258.1967423196725, 0.0]
['beep', 0.0, 244.84100876343356, 0.0, 0.0, 0.0, 0.0, -2258.442611508681, 0.0]
['beep', 0.0, 245.69037505273522, 0.0, 0.0, 0.0, 0.0, -2259.1131638423403, 0.0]
['beep', 0.0, 245.6680233082799, 0.0, 0.0, 0.0, 0.0, -2258.9119981422423, 0.0]
['beep', 0.0, 245.39980237481623, 0.0, 0.0, 0.0, 0.0, -2259.046108608974, 0.0]
['beep', 0.0, 244.3269186409615, 0.0, 0.0, 0.0, 0.0, -2259.5154952425355, 0.0]
['beep', 0.0, 210.68754323572438, 0.0, 0.0, 0.0, 0.0, -2258.1743905752173, 0.0]
['beep', 0.0, 151.67893787371372, 0.0, 0.0, 0.0, 0.0, -2256.676823696712, 0.0]
['beep', 0.0, 164.82176361343429, 0.0, 0.0, 0.0, 0.0, -2257.012099863541, 0.0]
['beep', 0.0, 232.03345919054263, 0.0, 0.0, 0.0, 0.0, -2256.92269288572, 0.0]
['beep', 0.0, 247.61262507589163, 0.0, 0.0, 0.0, 0.0, -2258.1296870863066, 0.0]
['beep', 0.0, 246.36092738639445, 0.0, 0.0, 0.0, 0.0, -2259.314329542438, 0.0]
['beep', 0.0, 246.4950378531263, 0.0, 0.0, 0.0, 0.0, -2258.0402801084856, 0.0]
['beep', 0.0, 247.32205239797264, 0.0, 0.0, 0.0, 0.0, -2258.599073719868, 0.0]
['beep', 0.0, 246.74090704213467, 0.0, 0.0, 0.0, 0.0, -2259.1355155867955, 0.0]
['beep', 0.0, 246.8526657644112, 0.0, 0.0, 0.0, 0.0, -2260.20839932065, 0.0]
['beep', 0.0, 215.2025956156964, 0.0, 0.0, 0.0, 0.0, -2260.0966405983736, 0.0]
['beep', 0.0, 152.93063556321093, 0.0, 0.0, 0.0, 0.0, -2259.537846986991, 0.0]
['beep', 0.0, 166.20757176966333, 0.0, 0.0, 0.0, 0.0, -2259.4707917536252, 0.0]
['beep', 0.0, 233.03928769103143, 0.0, 0.0, 0.0, 0.0, -2259.4484400091696, 0.0]
['beep', 0.0, 244.72925004115703, 0.0, 0.0, 0.0, 0.0, -2260.7448411875775, 0.0]
['beep', 0.0, 243.90223549631068, 0.0, 0.0, 0.0, 0.0, -2258.7108324421447, 0.0]
['beep', 0.0, 244.17045642977436, 0.0, 0.0, 0.0, 0.0, -2258.084983597396, 0.0]
['beep', 0.0, 244.37162212987212, 0.0, 0.0, 0.0, 0.0, -2258.6214254643232, 0.0]
['beep', 0.0, 245.69037505273522, 0.0, 0.0, 0.0, 0.0, -2258.979053375608, 0.0]
['beep', 0.0, 245.80213377501178, 0.0, 0.0, 0.0, 0.0, -2260.275454554016, 0.0]
['beep', 0.0, 216.02961016054277, 0.0, 0.0, 0.0, 0.0, -2259.8507714093653, 0.0]
['beep', 0.0, 152.95298730766623, 0.0, 0.0, 0.0, 0.0, -2258.241445808583, 0.0]
['beep', 0.0, 165.5593711804594, 0.0, 0.0, 0.0, 0.0, -2258.5543702309574, 0.0]
['beep', 0.0, 231.31820336797279, 0.0, 0.0, 0.0, 0.0, -2258.375556275315, 0.0]
['beep', 0.0, 244.46102910769335, 0.0, 0.0, 0.0, 0.0, -2259.694309198178, 0.0]
['beep', 0.0, 244.2598634075956, 0.0, 0.0, 0.0, 0.0, -2259.5154952425355, 0.0]
['beep', 0.0, 245.13158144135255, 0.0, 0.0, 0.0, 0.0, -2258.4873149975915, 0.0]
['beep', 0.0, 246.11505819738608, 0.0, 0.0, 0.0, 0.0, -2258.286149297494, 0.0]
['beep', 0.0, 246.80796227550059, 0.0, 0.0, 0.0, 0.0, -2258.286149297494, 0.0]
['beep', 0.0, 249.4007646323162, 0.0, 0.0, 0.0, 0.0, -2257.950873130664, 0.0]
['beep', 0.0, 238.76133427159004, 0.0, 0.0, 0.0, 0.0, -2257.794410919477, 0.0]
['beep', 0.0, 173.98597884011016, 0.0, 0.0, 0.0, 0.0, -2255.670995196223, 0.0]
['beep', 0.0, 170.5438101939929, 0.0, 0.0, 0.0, 0.0, -2255.4921812405805, 0.0]
['beep', 0.0, 235.65444179230235, 0.0, 0.0, 0.0, 0.0, -2256.118030085329, 0.0]
['beep', 0.0, 246.69620355322405, 0.0, 0.0, 0.0, 0.0, -2257.0344516079967, 0.0]
['beep', 0.0, 244.9527674857101, 0.0, 0.0, 0.0, 0.0, -2256.5650649744352, 0.0]
['beep', 0.0, 244.37162212987212, 0.0, 0.0, 0.0, 0.0, -2256.050974851963, 0.0]
['beep', 0.0, 243.924587240766, 0.0, 0.0, 0.0, 0.0, -2256.0956783408737, 0.0]
['beep', 0.0, 243.29873839601737, 0.0, 0.0, 0.0, 0.0, -2256.989748119086, 0.0]
['beep', 0.0, 244.6174913188805, 0.0, 0.0, 0.0, 0.0, -2257.8391144083876, 0.0]
['beep', 0.0, 224.0091829310874, 0.0, 0.0, 0.0, 0.0, -2258.219094064128, 0.0]
['beep', 0.0, 158.76444086604607, 0.0, 0.0, 0.0, 0.0, -2258.01792836403, 0.0]
['beep', 0.0, 168.59920842638118, 0.0, 0.0, 0.0, 0.0, -2258.241445808583, 0.0]
['beep', 0.0, 235.05094469200907, 0.0, 0.0, 0.0, 0.0, -2258.442611508681, 0.0]
['beep', 0.0, 246.62914831985813, 0.0, 0.0, 0.0, 0.0, -2257.5038382415582, 0.0]
['beep', 0.0, 245.77978203055645, 0.0, 0.0, 0.0, 0.0, -2257.1685620747285, 0.0]
['beep', 0.0, 246.00329947510954, 0.0, 0.0, 0.0, 0.0, -2257.5485417304685, 0.0]
['beep', 0.0, 244.6174913188805, 0.0, 0.0, 0.0, 0.0, -2257.1685620747285, 0.0]
['beep', 0.0, 244.81865701897826, 0.0, 0.0, 0.0, 0.0, -2258.599073719868, 0.0]
['beep', 0.0, 245.06452620798663, 0.0, 0.0, 0.0, 0.0, -2258.5543702309574, 0.0]
['beep', 0.0, 207.6477059898026, 0.0, 0.0, 0.0, 0.0, -2259.247274309072, 0.0]
['beep', 0.0, 148.7285076056132, 0.0, 0.0, 0.0, 0.0, -2258.442611508681, 0.0]
['beep', 0.0, 161.0666705449427, 0.0, 0.0, 0.0, 0.0, -2257.347376030371, 0.0]
['beep', 0.0, 227.76427599957896, 0.0, 0.0, 0.0, 0.0, -2258.1073353418515, 0.0]
['beep', 0.0, 244.23751166314028, 0.0, 0.0, 0.0, 0.0, -2259.2025708201613, 0.0]
['beep', 0.0, 243.7681250295788, 0.0, 0.0, 0.0, 0.0, -2259.0014051200637, 0.0]
['beep', 0.0, 244.12575294086375, 0.0, 0.0, 0.0, 0.0, -2257.213265563639, 0.0]
['beep', 0.0, 244.70689829670172, 0.0, 0.0, 0.0, 0.0, -2257.8167626639324, 0.0]
['beep', 0.0, 244.81865701897826, 0.0, 0.0, 0.0, 0.0, -2259.023756864519, 0.0]
['beep', 0.0, 246.74090704213467, 0.0, 0.0, 0.0, 0.0, -2258.7331841866, 0.0]
['beep', 0.0, 227.63016553284712, 0.0, 0.0, 0.0, 0.0, -2259.627253964812, 0.0]
['beep', 0.0, 161.0443188004874, 0.0, 0.0, 0.0, 0.0, -2258.6214254643232, 0.0]
['beep', 0.0, 167.03458631450968, 0.0, 0.0, 0.0, 0.0, -2258.241445808583, 0.0]
['beep', 0.0, 234.40274410280517, 0.0, 0.0, 0.0, 0.0, -2258.5096667420466, 0.0]
['beep', 0.0, 247.94790124272126, 0.0, 0.0, 0.0, 0.0, -2258.8002394199657, 0.0]
['beep', 0.0, 248.50669485410393, 0.0, 0.0, 0.0, 0.0, -2259.82841966491, 0.0]
['beep', 0.0, 248.3725843873721, 0.0, 0.0, 0.0, 0.0, -2259.627253964812, 0.0]
['beep', 0.0, 247.65732856480224, 0.0, 0.0, 0.0, 0.0, -2258.7555359310554, 0.0]
['beep', 0.0, 247.03147972005365, 0.0, 0.0, 0.0, 0.0, -2259.247274309072, 0.0]
['beep', 0.0, 247.72438379816816, 0.0, 0.0, 0.0, 0.0, -2260.186047576195, 0.0]
['beep', 0.0, 234.60390980290293, 0.0, 0.0, 0.0, 0.0, -2261.1695243322283, 0.0]
['beep', 0.0, 168.44274621519403, 0.0, 0.0, 0.0, 0.0, -2258.934349886698, 0.0]
['beep', 0.0, 165.06763280244266, 0.0, 0.0, 0.0, 0.0, -2257.8391144083876, 0.0]
['beep', 0.0, 231.87699697935548, 0.0, 0.0, 0.0, 0.0, -2259.895474898276, 0.0]
['beep', 0.0, 245.77978203055645, 0.0, 0.0, 0.0, 0.0, -2259.895474898276, 0.0]
['beep', 0.0, 246.8973692533218, 0.0, 0.0, 0.0, 0.0, -2258.979053375608, 0.0]
['beep', 0.0, 246.62914831985813, 0.0, 0.0, 0.0, 0.0, -2259.4260882647145, 0.0]
['beep', 0.0, 245.5786163304587, 0.0, 0.0, 0.0, 0.0, -2257.414431263737, 0.0]
['beep', 0.0, 245.2880436525397, 0.0, 0.0, 0.0, 0.0, -2257.6155969638344, 0.0]
['beep', 0.0, 245.6233198193693, 0.0, 0.0, 0.0, 0.0, -2259.0684603534296, 0.0]
['beep', 0.0, 232.70401152420183, 0.0, 0.0, 0.0, 0.0, -2259.247274309072, 0.0]
['beep', 0.0, 168.9568363376661, 0.0, 0.0, 0.0, 0.0, -2258.375556275315, 0.0]
['beep', 0.0, 171.1696590387415, 0.0, 0.0, 0.0, 0.0, -2258.5096667420466, 0.0]
['beep', 0.0, 236.0120697035873, 0.0, 0.0, 0.0, 0.0, -2259.3590330313486, 0.0]
['beep', 0.0, 247.56792158698102, 0.0, 0.0, 0.0, 0.0, -2259.5825504759014, 0.0]
['beep', 0.0, 248.21612217618494, 0.0, 0.0, 0.0, 0.0, -2260.0966405983736, 0.0]
['beep', 0.0, 246.80796227550059, 0.0, 0.0, 0.0, 0.0, -2262.3541667883596, 0.0]
['beep', 0.0, 247.83614252044472, 0.0, 0.0, 0.0, 0.0, -2261.3930417767815, 0.0]
['beep', 0.0, 248.7078605542017, 0.0, 0.0, 0.0, 0.0, -2261.63891096579, 0.0]
['beep', 0.0, 246.98677623114304, 0.0, 0.0, 0.0, 0.0, -2261.4377452656922, 0.0]
['beep', 0.0, 233.50867432459287, 0.0, 0.0, 0.0, 0.0, -2260.6777859542117, 0.0]
['beep', 0.0, 168.9568363376661, 0.0, 0.0, 0.0, 0.0, -2259.7390126870887, 0.0]
['beep', 0.0, 173.02485382853197, 0.0, 0.0, 0.0, 0.0, -2258.7778876755106, 0.0]
['beep', 0.0, 237.21906390417385, 0.0, 0.0, 0.0, 0.0, -2259.962530131642, 0.0]
['beep', 0.0, 248.79726753202291, 0.0, 0.0, 0.0, 0.0, -2260.4766202541136, 0.0]
['beep', 0.0, 248.3949361318274, 0.0, 0.0, 0.0, 0.0, -2260.0966405983736, 0.0]
['beep', 0.0, 247.07618320896427, 0.0, 0.0, 0.0, 0.0, -2259.7837161759994, 0.0]
['beep', 0.0, 245.51156109709277, 0.0, 0.0, 0.0, 0.0, -2260.4766202541136, 0.0]
['beep', 0.0, 245.55626458600338, 0.0, 0.0, 0.0, 0.0, -2259.5154952425355, 0.0]
['beep', 0.0, 247.1879419312408, 0.0, 0.0, 0.0, 0.0, -2259.917826642731, 0.0]
['beep', 0.0, 227.47370332165997, 0.0, 0.0, 0.0, 0.0, -2261.1024690988625, 0.0]
['beep', 0.0, 161.0666705449427, 0.0, 0.0, 0.0, 0.0, -2260.320158042927, 0.0]
['beep', 0.0, 169.53798169350407, 0.0, 0.0, 0.0, 0.0, -2259.4707917536252, 0.0]
['beep', 0.0, 233.8663022358778, 0.0, 0.0, 0.0, 0.0, -2261.0130621210415, 0.0]
['beep', 0.0, 245.93624424174362, 0.0, 0.0, 0.0, 0.0, -2261.884780154798, 0.0]
['beep', 0.0, 246.74090704213467, 0.0, 0.0, 0.0, 0.0, -2261.9071318992537, 0.0]
['beep', 0.0, 245.891540752833, 0.0, 0.0, 0.0, 0.0, -2261.6836144547005, 0.0]
['beep', 0.0, 246.45033436421568, 0.0, 0.0, 0.0, 0.0, -2261.0354138654966, 0.0]
['beep', 0.0, 246.74090704213467, 0.0, 0.0, 0.0, 0.0, -2259.1355155867955, 0.0]
['beep', 0.0, 246.38327913084976, 0.0, 0.0, 0.0, 0.0, -2259.671957453723, 0.0]
['beep', 0.0, 230.62529928985828, 0.0, 0.0, 0.0, 0.0, -2260.9683586321307, 0.0]
['beep', 0.0, 163.72652813512423, 0.0, 0.0, 0.0, 0.0, -2260.1636958317395, 0.0]
['beep', 0.0, 163.79358336849015, 0.0, 0.0, 0.0, 0.0, -2258.4202597642256, 0.0]
['beep', 0.0, 230.80411324550073, 0.0, 0.0, 0.0, 0.0, -2258.442611508681, 0.0]
['beep', 0.0, 245.2880436525397, 0.0, 0.0, 0.0, 0.0, -2259.336681286893, 0.0]
['beep', 0.0, 245.44450586372685, 0.0, 0.0, 0.0, 0.0, -2259.023756864519, 0.0]
['beep', 0.0, 245.69037505273522, 0.0, 0.0, 0.0, 0.0, -2258.688480697689, 0.0]
['beep', 0.0, 244.9304157412548, 0.0, 0.0, 0.0, 0.0, -2258.241445808583, 0.0]
['beep', 0.0, 245.2656919080844, 0.0, 0.0, 0.0, 0.0, -2259.0014051200637, 0.0]
['beep', 0.0, 246.5620930864922, 0.0, 0.0, 0.0, 0.0, -2259.1355155867955, 0.0]
['beep', 0.0, 232.9722324576655, 0.0, 0.0, 0.0, 0.0, -2259.1131638423403, 0.0]
['beep', 0.0, 166.56519968094824, 0.0, 0.0, 0.0, 0.0, -2257.794410919477, 0.0]
['beep', 0.0, 160.91020833375555, 0.0, 0.0, 0.0, 0.0, -2258.3979080197705, 0.0]
['beep', 0.0, 227.80897948848957, 0.0, 0.0, 0.0, 0.0, -2259.0908120978847, 0.0]
['beep', 0.0, 247.81379077598942, 0.0, 0.0, 0.0, 0.0, -2259.3590330313486, 0.0]
['beep', 0.0, 246.8526657644112, 0.0, 0.0, 0.0, 0.0, -2260.0742888539185, 0.0]
['beep', 0.0, 246.38327913084976, 0.0, 0.0, 0.0, 0.0, -2261.281283054505, 0.0]
['beep', 0.0, 246.5620930864922, 0.0, 0.0, 0.0, 0.0, -2260.4319167652034, 0.0]
['beep', 0.0, 246.96442448668773, 0.0, 0.0, 0.0, 0.0, -2258.688480697689, 0.0]
['beep', 0.0, 247.90319775381064, 0.0, 0.0, 0.0, 0.0, -2260.1636958317395, 0.0]
['beep', 0.0, 230.6700027787689, 0.0, 0.0, 0.0, 0.0, -2259.4931434980804, 0.0]
['beep', 0.0, 164.2406182575963, 0.0, 0.0, 0.0, 0.0, -2259.5154952425355, 0.0]
['beep', 0.0, 168.15217353727502, 0.0, 0.0, 0.0, 0.0, -2258.666128953234, 0.0]
['beep', 0.0, 233.2628051355845, 0.0, 0.0, 0.0, 0.0, -2258.35320453086, 0.0]
['beep', 0.0, 248.86432276538883, 0.0, 0.0, 0.0, 0.0, -2259.761364431544, 0.0]
['beep', 0.0, 248.19377043172963, 0.0, 0.0, 0.0, 0.0, -2259.984881876097, 0.0]
['beep', 0.0, 248.7525640431123, 0.0, 0.0, 0.0, 0.0, -2258.5096667420466, 0.0]
['beep', 0.0, 249.7583925436011, 0.0, 0.0, 0.0, 0.0, -2257.8391144083876, 0.0]
['beep', 0.0, 249.84779952142236, 0.0, 0.0, 0.0, 0.0, -2258.1296870863066, 0.0]
['beep', 0.0, 248.64080532083577, 0.0, 0.0, 0.0, 0.0, -2259.336681286893, 0.0]
['beep', 0.0, 238.06843019347554, 0.0, 0.0, 0.0, 0.0, -2259.7390126870887, 0.0]
['beep', 0.0, 173.20366778417443, 0.0, 0.0, 0.0, 0.0, -2260.1189923428287, 0.0]
['beep', 0.0, 165.2240950136298, 0.0, 0.0, 0.0, 0.0, -2259.2249225646165, 0.0]
['beep', 0.0, 233.15104641330797, 0.0, 0.0, 0.0, 0.0, -2258.5543702309574, 0.0]
['beep', 0.0, 247.83614252044472, 0.0, 0.0, 0.0, 0.0, -2260.4542685096585, 0.0]
['beep', 0.0, 247.61262507589163, 0.0, 0.0, 0.0, 0.0, -2259.917826642731, 0.0]
['beep', 0.0, 248.21612217618494, 0.0, 0.0, 0.0, 0.0, -2260.0072336205526, 0.0]
['beep', 0.0, 248.66315706529107, 0.0, 0.0, 0.0, 0.0, -2259.627253964812, 0.0]
['beep', 0.0, 249.17724718776313, 0.0, 0.0, 0.0, 0.0, -2260.1189923428287, 0.0]
['beep', 0.0, 248.0820117094531, 0.0, 0.0, 0.0, 0.0, -2260.54367548748, 0.0]
['beep', 0.0, 227.11607541037506, 0.0, 0.0, 0.0, 0.0, -2260.4319167652034, 0.0]
['beep', 0.0, 161.80427811196782, 0.0, 0.0, 0.0, 0.0, -2259.537846986991, 0.0]
['beep', 0.0, 165.5146676915488, 0.0, 0.0, 0.0, 0.0, -2258.9119981422423, 0.0]
['beep', 0.0, 231.698183023713, 0.0, 0.0, 0.0, 0.0, -2259.5601987314462, 0.0]
['beep', 0.0, 248.55139834301454, 0.0, 0.0, 0.0, 0.0, -2260.3648615318375, 0.0]
['beep', 0.0, 248.81961927647822, 0.0, 0.0, 0.0, 0.0, -2261.3259865434156, 0.0]
['beep', 0.0, 247.25499716460672, 0.0, 0.0, 0.0, 0.0, -2260.7895446764883, 0.0]
['beep', 0.0, 248.1267151983637, 0.0, 0.0, 0.0, 0.0, -2260.8342481653985, 0.0]
['beep', 0.0, 248.50669485410393, 0.0, 0.0, 0.0, 0.0, -2260.3648615318375, 0.0]
['beep', 0.0, 247.74673554262347, 0.0, 0.0, 0.0, 0.0, -2261.1248208433176, 0.0]
['beep', 0.0, 235.65444179230235, 0.0, 0.0, 0.0, 0.0, -2261.3706900323264, 0.0]
['beep', 0.0, 170.14147879379735, 0.0, 0.0, 0.0, 0.0, -2259.5601987314462, 0.0]
['beep', 0.0, 165.08998454689797, 0.0, 0.0, 0.0, 0.0, -2257.9732248751193, 0.0]
['beep', 0.0, 231.13938941233033, 0.0, 0.0, 0.0, 0.0, -2258.889646397787, 0.0]
['beep', 0.0, 247.27734890906203, 0.0, 0.0, 0.0, 0.0, -2259.761364431544, 0.0]
['beep', 0.0, 247.83614252044472, 0.0, 0.0, 0.0, 0.0, -2259.336681286893, 0.0]
['beep', 0.0, 246.31622389748384, 0.0, 0.0, 0.0, 0.0, -2259.8507714093653, 0.0]
['beep', 0.0, 244.9974709746207, 0.0, 0.0, 0.0, 0.0, -2258.7555359310554, 0.0]
['beep', 0.0, 245.600968074914, 0.0, 0.0, 0.0, 0.0, -2259.694309198178, 0.0]
['beep', 0.0, 246.4950378531263, 0.0, 0.0, 0.0, 0.0, -2260.633082465301, 0.0]
['beep', 0.0, 232.48049407964876, 0.0, 0.0, 0.0, 0.0, -2259.962530131642, 0.0]
['beep', 0.0, 167.34751073688398, 0.0, 0.0, 0.0, 0.0, -2258.1743905752173, 0.0]
['beep', 0.0, 162.45247870117174, 0.0, 0.0, 0.0, 0.0, -2257.9061696417534, 0.0]
['beep', 0.0, 228.70304926670187, 0.0, 0.0, 0.0, 0.0, -2258.9119981422423, 0.0]
['beep', 0.0, 247.45616286470448, 0.0, 0.0, 0.0, 0.0, -2258.8449429088764, 0.0]
['beep', 0.0, 246.78561053104528, 0.0, 0.0, 0.0, 0.0, -2258.8002394199657, 0.0]
['beep', 0.0, 246.1597616862967, 0.0, 0.0, 0.0, 0.0, -2259.180219075706, 0.0]
['beep', 0.0, 247.25499716460672, 0.0, 0.0, 0.0, 0.0, -2259.1578673312506, 0.0]
['beep', 0.0, 246.8973692533218, 0.0, 0.0, 0.0, 0.0, -2259.7166609426336, 0.0]
['beep', 0.0, 246.4950378531263, 0.0, 0.0, 0.0, 0.0, -2261.63891096579, 0.0]
['beep', 0.0, 223.27157536406224, 0.0, 0.0, 0.0, 0.0, -2261.6165592213347, 0.0]
['beep', 0.0, 157.46803968763825, 0.0, 0.0, 0.0, 0.0, -2260.856599909854, 0.0]
['beep', 0.0, 161.62546415632536, 0.0, 0.0, 0.0, 0.0, -2259.7166609426336, 0.0]
['beep', 0.0, 227.94308995522144, 0.0, 0.0, 0.0, 0.0, -2260.2307510651053, 0.0]
['beep', 0.0, 248.17141868727433, 0.0, 0.0, 0.0, 0.0, -2261.4824487546025, 0.0]
['beep', 0.0, 247.65732856480224, 0.0, 0.0, 0.0, 0.0, -2260.0742888539185, 0.0]
['beep', 0.0, 245.600968074914, 0.0, 0.0, 0.0, 0.0, -2259.694309198178, 0.0]
['beep', 0.0, 246.07035470847546, 0.0, 0.0, 0.0, 0.0, -2260.3648615318375, 0.0]
['beep', 0.0, 246.98677623114304, 0.0, 0.0, 0.0, 0.0, -2260.3872132762926, 0.0]
['beep', 0.0, 246.60679657540283, 0.0, 0.0, 0.0, 0.0, -2260.342509787382, 0.0]
['beep', 0.0, 226.66904052126893, 0.0, 0.0, 0.0, 0.0, -2260.633082465301, 0.0]
['beep', 0.0, 160.7313943781131, 0.0, 0.0, 0.0, 0.0, -2260.4766202541136, 0.0]
['beep', 0.0, 159.25617924406282, 0.0, 0.0, 0.0, 0.0, -2259.0014051200637, 0.0]
['beep', 0.0, 225.3949910873164, 0.0, 0.0, 0.0, 0.0, -2259.537846986991, 0.0]
['beep', 0.0, 246.02565121956485, 0.0, 0.0, 0.0, 0.0, -2260.8342481653985, 0.0]
['beep', 0.0, 245.73507854164583, 0.0, 0.0, 0.0, 0.0, -2260.6777859542117, 0.0]
['beep', 0.0, 246.07035470847546, 0.0, 0.0, 0.0, 0.0, -2260.92365514322, 0.0]
['beep', 0.0, 246.96442448668773, 0.0, 0.0, 0.0, 0.0, -2260.1413440872843, 0.0]
['beep', 0.0, 247.2326454201514, 0.0, 0.0, 0.0, 0.0, -2258.8002394199657, 0.0]
['beep', 0.0, 247.03147972005365, 0.0, 0.0, 0.0, 0.0, -2260.0742888539185, 0.0]
['beep', 0.0, 232.3016801240063, 0.0, 0.0, 0.0, 0.0, -2260.4542685096585, 0.0]
['beep', 0.0, 166.31933049193987, 0.0, 0.0, 0.0, 0.0, -2259.269626053527, 0.0]
['beep', 0.0, 160.61963565583656, 0.0, 0.0, 0.0, 0.0, -2258.442611508681, 0.0]
['beep', 0.0, 224.63503177583598, 0.0, 0.0, 0.0, 0.0, -2259.403736520259, 0.0]
['beep', 0.0, 246.58444483094752, 0.0, 0.0, 0.0, 0.0, -2260.0742888539185, 0.0]
['beep', 0.0, 246.5620930864922, 0.0, 0.0, 0.0, 0.0, -2260.92365514322, 0.0]
['beep', 0.0, 245.6233198193693, 0.0, 0.0, 0.0, 0.0, -2260.4542685096585, 0.0]
['beep', 0.0, 245.77978203055645, 0.0, 0.0, 0.0, 0.0, -2259.0014051200637, 0.0]
['beep', 0.0, 247.09853495341957, 0.0, 0.0, 0.0, 0.0, -2259.403736520259, 0.0]
['beep', 0.0, 247.56792158698102, 0.0, 0.0, 0.0, 0.0, -2260.0072336205526, 0.0]
['beep', 0.0, 238.53781682703698, 0.0, 0.0, 0.0, 0.0, -2259.962530131642, 0.0]
['beep', 0.0, 178.4786794756269, 0.0, 0.0, 0.0, 0.0, -2259.1355155867955, 0.0]
['beep', 0.0, 163.36890022383932, 0.0, 0.0, 0.0, 0.0, -2257.8838178972983, 0.0]
['beep', 0.0, 229.28419462253984, 0.0, 0.0, 0.0, 0.0, -2259.291977797983, 0.0]
['beep', 0.0, 247.81379077598942, 0.0, 0.0, 0.0, 0.0, -2258.8449429088764, 0.0]
['beep', 0.0, 248.57375008746985, 0.0, 0.0, 0.0, 0.0, -2258.8449429088764, 0.0]
['beep', 0.0, 248.79726753202291, 0.0, 0.0, 0.0, 0.0, -2257.2356173080943, 0.0]
['beep', 0.0, 247.88084600935534, 0.0, 0.0, 0.0, 0.0, -2258.01792836403, 0.0]
['beep', 0.0, 247.7914390315341, 0.0, 0.0, 0.0, 0.0, -2259.4707917536252, 0.0]
['beep', 0.0, 248.84197102093353, 0.0, 0.0, 0.0, 0.0, -2259.7166609426336, 0.0]
['beep', 0.0, 226.5796335434477, 0.0, 0.0, 0.0, 0.0, -2260.0742888539185, 0.0]
['beep', 0.0, 160.10554553336448, 0.0, 0.0, 0.0, 0.0, -2260.186047576195, 0.0]
['beep', 0.0, 161.35724322286168, 0.0, 0.0, 0.0, 0.0, -2260.0072336205526, 0.0]
['beep', 0.0, 228.70304926670187, 0.0, 0.0, 0.0, 0.0, -2260.0072336205526, 0.0]
['beep', 0.0, 248.7749157875676, 0.0, 0.0, 0.0, 0.0, -2260.3648615318375, 0.0]
['beep', 0.0, 246.8526657644112, 0.0, 0.0, 0.0, 0.0, -2259.7390126870887, 0.0]
['beep', 0.0, 247.41145937579387, 0.0, 0.0, 0.0, 0.0, -2260.0742888539185, 0.0]
['beep', 0.0, 248.01495647608718, 0.0, 0.0, 0.0, 0.0, -2258.889646397787, 0.0]
['beep', 0.0, 247.00912797559835, 0.0, 0.0, 0.0, 0.0, -2258.8225911644213, 0.0]
['beep', 0.0, 248.57375008746985, 0.0, 0.0, 0.0, 0.0, -2259.82841966491, 0.0]
['beep', 0.0, 233.44161909122695, 0.0, 0.0, 0.0, 0.0, -2259.8060679204546, 0.0]
['beep', 0.0, 166.05110955847616, 0.0, 0.0, 0.0, 0.0, -2258.330852786404, 0.0]
['beep', 0.0, 160.7760978670237, 0.0, 0.0, 0.0, 0.0, -2257.794410919477, 0.0]
['beep', 0.0, 228.1889591442298, 0.0, 0.0, 0.0, 0.0, -2258.7555359310554, 0.0]
['beep', 0.0, 248.86432276538883, 0.0, 0.0, 0.0, 0.0, -2259.8507714093653, 0.0]
['beep', 0.0, 248.3949361318274, 0.0, 0.0, 0.0, 0.0, -2259.917826642731, 0.0]
['beep', 0.0, 248.7078605542017, 0.0, 0.0, 0.0, 0.0, -2260.3648615318375, 0.0]
['beep', 0.0, 248.86432276538883, 0.0, 0.0, 0.0, 0.0, -2259.7166609426336, 0.0]
['beep', 0.0, 249.46781986568212, 0.0, 0.0, 0.0, 0.0, -2260.7448411875775, 0.0]
['beep', 0.0, 249.46781986568212, 0.0, 0.0, 0.0, 0.0, -2261.25893131005, 0.0]
['beep', 0.0, 235.69914528121296, 0.0, 0.0, 0.0, 0.0, -2260.856599909854, 0.0]
['beep', 0.0, 169.9626648381549, 0.0, 0.0, 0.0, 0.0, -2259.671957453723, 0.0]
['beep', 0.0, 161.26783624504046, 0.0, 0.0, 0.0, 0.0, -2260.253102809561, 0.0]
['beep', 0.0, 227.36194459938343, 0.0, 0.0, 0.0, 0.0, -2260.92365514322, 0.0]
['beep', 0.0, 252.06062222249776, 0.0, 0.0, 0.0, 0.0, -2260.297806298471, 0.0]
['beep', 0.0, 252.73117455615696, 0.0, 0.0, 0.0, 0.0, -2260.4766202541136, 0.0]
['beep', 0.0, 252.59706408942512, 0.0, 0.0, 0.0, 0.0, -2259.5601987314462, 0.0]
['beep', 0.0, 254.34050015693907, 0.0, 0.0, 0.0, 0.0, -2259.2249225646165, 0.0]
['beep', 0.0, 255.4357356352491, 0.0, 0.0, 0.0, 0.0, -2258.8002394199657, 0.0]
['beep', 0.0, 255.50279086861502, 0.0, 0.0, 0.0, 0.0, -2257.6155969638344, 0.0]
['beep', 0.0, 238.2919476380286, 0.0, 0.0, 0.0, 0.0, -2256.9003411412646, 0.0]
['beep', 0.0, 170.2308857716186, 0.0, 0.0, 0.0, 0.0, -2256.386251018793, 0.0]
['beep', 0.0, 167.0792898034203, 0.0, 0.0, 0.0, 0.0, -2256.475657996614, 0.0]
['beep', 0.0, 230.53589231203705, 0.0, 0.0, 0.0, 0.0, -2256.319195785427, 0.0]
['beep', 0.0, 250.36188964389441, 0.0, 0.0, 0.0, 0.0, -2257.436783008192, 0.0]
['beep', 0.0, 249.17724718776313, 0.0, 0.0, 0.0, 0.0, -2258.286149297494, 0.0]
['beep', 0.0, 249.7583925436011, 0.0, 0.0, 0.0, 0.0, -2258.1743905752173, 0.0]
['beep', 0.0, 248.99843323212068, 0.0, 0.0, 0.0, 0.0, -2258.286149297494, 0.0]
['beep', 0.0, 248.84197102093353, 0.0, 0.0, 0.0, 0.0, -2258.666128953234, 0.0]
['beep', 0.0, 249.02078497657598, 0.0, 0.0, 0.0, 0.0, -2258.7331841866, 0.0]
['beep', 0.0, 231.76523825707892, 0.0, 0.0, 0.0, 0.0, -2258.5320184865022, 0.0]
['beep', 0.0, 165.5146676915488, 0.0, 0.0, 0.0, 0.0, -2258.8002394199657, 0.0]
['beep', 0.0, 161.55840892295944, 0.0, 0.0, 0.0, 0.0, -2257.6155969638344, 0.0]
['beep', 0.0, 225.81967423196724, 0.0, 0.0, 0.0, 0.0, -2258.599073719868, 0.0]
['beep', 0.0, 250.40659313280503, 0.0, 0.0, 0.0, 0.0, -2259.8507714093653, 0.0]
['beep', 0.0, 250.80892453300055, 0.0, 0.0, 0.0, 0.0, -2260.342509787382, 0.0]
['beep', 0.0, 250.11602045488604, 0.0, 0.0, 0.0, 0.0, -2259.8060679204546, 0.0]
['beep', 0.0, 249.9595582436989, 0.0, 0.0, 0.0, 0.0, -2258.4202597642256, 0.0]
['beep', 0.0, 251.81475303348938, 0.0, 0.0, 0.0, 0.0, -2258.4873149975915, 0.0]
['beep', 0.0, 251.77004954457874, 0.0, 0.0, 0.0, 0.0, -2260.1413440872843, 0.0]
['beep', 0.0, 241.64470930632464, 0.0, 0.0, 0.0, 0.0, -2259.0684603534296, 0.0]
['beep', 0.0, 178.12105156434197, 0.0, 0.0, 0.0, 0.0, -2258.688480697689, 0.0]
['beep', 0.0, 163.79358336849015, 0.0, 0.0, 0.0, 0.0, -2259.4707917536252, 0.0]
['beep', 0.0, 230.11120916738622, 0.0, 0.0, 0.0, 0.0, -2257.5485417304685, 0.0]
['beep', 0.0, 250.78657278854524, 0.0, 0.0, 0.0, 0.0, -2257.727355686111, 0.0]
['beep', 0.0, 251.70299431121282, 0.0, 0.0, 0.0, 0.0, -2257.7720591750217, 0.0]
['beep', 0.0, 250.80892453300055, 0.0, 0.0, 0.0, 0.0, -2255.9168643852313, 0.0]
['beep', 0.0, 249.15489544330782, 0.0, 0.0, 0.0, 0.0, -2255.670995196223, 0.0]
['beep', 0.0, 247.5232180980704, 0.0, 0.0, 0.0, 0.0, -2256.721527185622, 0.0]
['beep', 0.0, 246.80796227550059, 0.0, 0.0, 0.0, 0.0, -2255.44747775167, 0.0]
['beep', 0.0, 248.3725843873721, 0.0, 0.0, 0.0, 0.0, -2253.212303306139, 0.0]
['beep', 0.0, 198.46113901867142, 0.0, 0.0, 0.0, 0.0, -2251.82649514991, 0.0]
['beep', 0.0, 164.35237697987284, 0.0, 0.0, 0.0, 0.0, -2254.8439806513766, 0.0]
['beep', 0.0, 222.91394745277734, 0.0, 0.0, 0.0, 0.0, -2257.056803352452, 0.0]
['beep', 0.0, 251.3230146554726, 0.0, 0.0, 0.0, 0.0, -2254.6428149512785, 0.0]
['beep', 0.0, 254.85459027941113, 0.0, 0.0, 0.0, 0.0, -2255.670995196223, 0.0]
['beep', 0.0, 258.02853799206474, 0.0, 0.0, 0.0, 0.0, -2254.419297506726, 0.0]
['beep', 0.0, 260.01784324858704, 0.0, 0.0, 0.0, 0.0, -2256.1850853186947, 0.0]
['beep', 0.0, 264.46584039519314, 0.0, 0.0, 0.0, 0.0, -2258.8225911644213, 0.0]
['beep', 0.0, 264.93522702875464, 0.0, 0.0, 0.0, 0.0, -2259.180219075706, 0.0]
['beep', 0.0, 259.8613810373999, 0.0, 0.0, 0.0, 0.0, -2260.566027231935, 0.0]
['beep', 0.0, 203.91496466576632, 0.0, 0.0, 0.0, 0.0, -2263.0470708664743, 0.0]
['beep', 0.0, 179.01512134255427, 0.0, 0.0, 0.0, 0.0, -2266.109259856851, 0.0]
['beep', 0.0, 249.31135765449497, 0.0, 0.0, 0.0, 0.0, -2268.120916857829, 0.0]
['beep', 0.0, 273.18302073276294, 0.0, 0.0, 0.0, 0.0, -2266.6233499793234, 0.0]
['beep', 0.0, 273.7641660886009, 0.0, 0.0, 0.0, 0.0, -2267.472716268625, 0.0]
['beep', 0.0, 273.987683533154, 0.0, 0.0, 0.0, 0.0, -2269.953759903164, 0.0]
['beep', 0.0, 275.6193608783914, 0.0, 0.0, 0.0, 0.0, -2271.2054575926613, 0.0]
['beep', 0.0, 277.67572136827965, 0.0, 0.0, 0.0, 0.0, -2273.597094249379, 0.0]
['beep', 0.0, 276.7816515900674, 0.0, 0.0, 0.0, 0.0, -2275.6534547392675, 0.0]
['beep', 0.0, 272.6465788658355, 0.0, 0.0, 0.0, 0.0, -2278.6485884962785, 0.0]
['beep', 0.0, 220.07527590695335, 0.0, 0.0, 0.0, 0.0, -2280.3026175859713, 0.0]
['beep', 0.0, 192.91790639375526, 0.0, 0.0, 0.0, 0.0, -2282.0684053979403, 0.0]
['beep', 0.0, 259.5261048705703, 0.0, 0.0, 0.0, 0.0, -2284.5494490324795, 0.0]
['beep', 0.0, 280.6932068697461, 0.0, 0.0, 0.0, 0.0, -2288.304542100971, 0.0]
['beep', 0.0, 278.8380120799556, 0.0, 0.0, 0.0, 0.0, -2292.3949113362924, 0.0]
['beep', 0.0, 276.17815448977404, 0.0, 0.0, 0.0, 0.0, -2297.021722438541, 0.0]
['beep', 0.0, 279.5532679025254, 0.0, 0.0, 0.0, 0.0, -2299.145138161795, 0.0]
['beep', 0.0, 280.1567650028187, 0.0, 0.0, 0.0, 0.0, -2301.6932370297, 0.0]
['beep', 0.0, 280.04500628054217, 0.0, 0.0, 0.0, 0.0, -2306.1635859207613, 0.0]
['beep', 0.0, 274.4347184222601, 0.0, 0.0, 0.0, 0.0, -2308.3540568773815, 0.0]
['beep', 0.0, 212.92271768125508, 0.0, 0.0, 0.0, 0.0, -2310.276306900538, 0.0]
['beep', 0.0, 199.80224368598982, 0.0, 0.0, 0.0, 0.0, -2312.6232400683452, 0.0]
['beep', 0.0, 265.4269654067714, 0.0, 0.0, 0.0, 0.0, -2316.1324639478285, 0.0]
['beep', 0.0, 288.69513138474605, 0.0, 0.0, 0.0, 0.0, -2319.6193360828565, 0.0]
['beep', 0.0, 288.3598552179164, 0.0, 0.0, 0.0, 0.0, -2324.492016374113, 0.0]
['beep', 0.0, 287.6445993953466, 0.0, 0.0, 0.0, 0.0, -2327.4200948977586, 0.0]
['beep', 0.0, 289.8350703519667, 0.0, 0.0, 0.0, 0.0, -2329.8787867878423, 0.0]
['beep', 0.0, 291.4443959527488, 0.0, 0.0, 0.0, 0.0, -2333.790342067521, 0.0]
['beep', 0.0, 293.7242738871901, 0.0, 0.0, 0.0, 0.0, -2336.852531057898, 0.0]
['beep', 0.0, 284.7165208717014, 0.0, 0.0, 0.0, 0.0, -2342.2169497271716, 0.0]
['beep', 0.0, 221.5504910410036, 0.0, 0.0, 0.0, 0.0, -2345.0779730174513, 0.0]
['beep', 0.0, 208.40766530128306, 0.0, 0.0, 0.0, 0.0, -2347.0896300184286, 0.0]
['beep', 0.0, 272.93715154375457, 0.0, 0.0, 0.0, 0.0, -2352.1634760097836, 0.0]
['beep', 0.0, 294.21601226520687, 0.0, 0.0, 0.0, 0.0, -2356.2538452451045, 0.0]
['beep', 0.0, 294.7301023876789, 0.0, 0.0, 0.0, 0.0, -2360.3218627359706, 0.0]
['beep', 0.0, 290.8185471080002, 0.0, 0.0, 0.0, 0.0, -2364.568694182479, 0.0]
['beep', 0.0, 290.43856745226, 0.0, 0.0, 0.0, 0.0, -2368.8378773734426, 0.0]
['beep', 0.0, 291.824375608489, 0.0, 0.0, 0.0, 0.0, -2372.9953018421297, 0.0]
['beep', 0.0, 292.6066866644248, 0.0, 0.0, 0.0, 0.0, -2378.627941444867, 0.0]
['beep', 0.0, 286.0799772834751, 0.0, 0.0, 0.0, 0.0, -2383.299456036026, 0.0]
['beep', 0.0, 220.2093863736852, 0.0, 0.0, 0.0, 0.0, -2388.0827293494617, 0.0]
['beep', 0.0, 201.2774588200401, 0.0, 0.0, 0.0, 0.0, -2391.6143049734005, 0.0]
['beep', 0.0, 265.8292968069669, 0.0, 0.0, 0.0, 0.0, -2395.9281916532746, 0.0]
['beep', 0.0, 290.63973315235773, 0.0, 0.0, 0.0, 0.0, -2401.851403933931, 0.0]
['beep', 0.0, 289.29862848503933, 0.0, 0.0, 0.0, 0.0, -2406.1876423582607, 0.0]
['beep', 0.0, 289.32098022949464, 0.0, 0.0, 0.0, 0.0, -2409.6521627488332, 0.0]
['beep', 0.0, 287.4881371841594, 0.0, 0.0, 0.0, 0.0, -2413.5190145396014, 0.0]
['beep', 0.0, 285.94586681674326, 0.0, 0.0, 0.0, 0.0, -2416.268279107604, 0.0]
['beep', 0.0, 287.4434336952488, 0.0, 0.0, 0.0, 0.0, -2419.822206475998, 0.0]
['beep', 0.0, 267.59508461893614, 0.0, 0.0, 0.0, 0.0, -2422.3479535994475, 0.0]
['beep', 0.0, 200.09281636390884, 0.0, 0.0, 0.0, 0.0, -2425.0972181674506, 0.0]
['beep', 0.0, 200.85277567538927, 0.0, 0.0, 0.0, 0.0, -2426.6394885348664, 0.0]
['beep', 0.0, 263.83999155044455, 0.0, 0.0, 0.0, 0.0, -2429.7910845030647, 0.0]
['beep', 0.0, 281.3190557144947, 0.0, 0.0, 0.0, 0.0, -2431.9592037152297, 0.0]
['beep', 0.0, 282.5260499150813, 0.0, 0.0, 0.0, 0.0, -2433.4791223381903, 0.0]
['beep', 0.0, 281.07318652548634, 0.0, 0.0, 0.0, 0.0, -2434.2837851385816, 0.0]
['beep', 0.0, 279.8438405804444, 0.0, 0.0, 0.0, 0.0, -2435.557834572534, 0.0]
['beep', 0.0, 280.80496559202265, 0.0, 0.0, 0.0, 0.0, -2436.2507386506486, 0.0]
['beep', 0.0, 280.6932068697461, 0.0, 0.0, 0.0, 0.0, -2437.077753195495, 0.0]
['beep', 0.0, 264.97993051766525, 0.0, 0.0, 0.0, 0.0, -2436.6530700508442, 0.0]
['beep', 0.0, 198.88582216332225, 0.0, 0.0, 0.0, 0.0, -2435.8037037615422, 0.0]
['beep', 0.0, 189.85571740337818, 0.0, 0.0, 0.0, 0.0, -2436.34014562847, 0.0]
['beep', 0.0, 251.94886350022122, 0.0, 0.0, 0.0, 0.0, -2437.2118636622267, 0.0]
['beep', 0.0, 281.050834781031, 0.0, 0.0, 0.0, 0.0, -2438.8435410074644, 0.0]
['beep', 0.0, 280.35793070291646, 0.0, 0.0, 0.0, 0.0, -2438.776485774098, 0.0]
['beep', 0.0, 280.8720208253886, 0.0, 0.0, 0.0, 0.0, -2438.2400439071707, 0.0]
['beep', 0.0, 280.82731733647796, 0.0, 0.0, 0.0, 0.0, -2437.9718229737073, 0.0]
['beep', 0.0, 280.4249859362824, 0.0, 0.0, 0.0, 0.0, -2438.1506369293497, 0.0]
['beep', 0.0, 281.09553826994164, 0.0, 0.0, 0.0, 0.0, -2438.821189263009, 0.0]
['beep', 0.0, 270.277293953573, 0.0, 0.0, 0.0, 0.0, -2438.441209607269, 0.0]
['beep', 0.0, 204.47375827714902, 0.0, 0.0, 0.0, 0.0, -2437.8377125069755, 0.0]
['beep', 0.0, 192.33676103791728, 0.0, 0.0, 0.0, 0.0, -2436.5189595841125, 0.0]
['beep', 0.0, 257.4920961251374, 0.0, 0.0, 0.0, 0.0, -2437.3236223845033, 0.0]
['beep', 0.0, 282.7048638707237, 0.0, 0.0, 0.0, 0.0, -2437.3459741289585, 0.0]
['beep', 0.0, 282.05666328151983, 0.0, 0.0, 0.0, 0.0, -2437.3236223845033, 0.0]
['beep', 0.0, 280.6708551252908, 0.0, 0.0, 0.0, 0.0, -2436.1613316728276, 0.0]
['beep', 0.0, 281.0061312921204, 0.0, 0.0, 0.0, 0.0, -2435.535482828079, 0.0]
['beep', 0.0, 284.7165208717014, 0.0, 0.0, 0.0, 0.0, -2437.2789188955926, 0.0]
['beep', 0.0, 281.631980136869, 0.0, 0.0, 0.0, 0.0, -2441.011660219629, 0.0]
['beep', 0.0, 255.56984610198094, 0.0, 0.0, 0.0, 0.0, -2442.889206753875, 0.0]
['beep', 0.0, 190.97330462614354, 0.0, 0.0, 0.0, 0.0, -2443.693869554266, 0.0]
['beep', 0.0, 187.0170458575542, 0.0, 0.0, 0.0, 0.0, -2442.91155849833, 0.0]
['beep', 0.0, 253.1558577008078, 0.0, 0.0, 0.0, 0.0, -2444.5432358435673, 0.0]
['beep', 0.0, 281.2743522255841, 0.0, 0.0, 0.0, 0.0, -2446.107857955439, 0.0]
['beep', 0.0, 280.82731733647796, 0.0, 0.0, 0.0, 0.0, -2446.621948077911, 0.0]
['beep', 0.0, 280.76026210311204, 0.0, 0.0, 0.0, 0.0, -2446.621948077911, 0.0]
['beep', 0.0, 280.24617198063993, 0.0, 0.0, 0.0, 0.0, -2446.599596333456, 0.0]
['beep', 0.0, 280.82731733647796, 0.0, 0.0, 0.0, 0.0, -2445.660823066333, 0.0]
['beep', 0.0, 280.8943725698439, 0.0, 0.0, 0.0, 0.0, -2447.3595556449363, 0.0]
['beep', 0.0, 271.05960500950874, 0.0, 0.0, 0.0, 0.0, -2447.873645767408, 0.0]
['beep', 0.0, 208.38531355682775, 0.0, 0.0, 0.0, 0.0, -2447.6724800673105, 0.0]
['beep', 0.0, 192.3591127823726, 0.0, 0.0, 0.0, 0.0, -2448.0301079785954, 0.0]
['beep', 0.0, 256.4862676246485, 0.0, 0.0, 0.0, 0.0, -2447.9630527452296, 0.0]
['beep', 0.0, 281.2967039700394, 0.0, 0.0, 0.0, 0.0, -2448.119514956417, 0.0]
['beep', 0.0, 282.41429119280474, 0.0, 0.0, 0.0, 0.0, -2448.2759771676037, 0.0]
['beep', 0.0, 282.2354772371623, 0.0, 0.0, 0.0, 0.0, -2448.2759771676037, 0.0]
['beep', 0.0, 281.6096283924137, 0.0, 0.0, 0.0, 0.0, -2447.113686455928, 0.0]
['beep', 0.0, 280.29087546955054, 0.0, 0.0, 0.0, 0.0, -2447.7395353006764, 0.0]
['beep', 0.0, 281.34140745895, 0.0, 0.0, 0.0, 0.0, -2447.4489626227573, 0.0]
['beep', 0.0, 269.36087243090543, 0.0, 0.0, 0.0, 0.0, -2447.6277765784, 0.0]
['beep', 0.0, 205.3678280553613, 0.0, 0.0, 0.0, 0.0, -2446.487837611179, 0.0]
['beep', 0.0, 191.68856044871336, 0.0, 0.0, 0.0, 0.0, -2446.7337068001875, 0.0]
['beep', 0.0, 255.32397691297257, 0.0, 0.0, 0.0, 0.0, -2446.6666515668217, 0.0]
['beep', 0.0, 280.1344132583634, 0.0, 0.0, 0.0, 0.0, -2446.823113778009, 0.0]
['beep', 0.0, 279.7991370915338, 0.0, 0.0, 0.0, 0.0, -2446.4431341222685, 0.0]
['beep', 0.0, 279.93324755826563, 0.0, 0.0, 0.0, 0.0, -2446.621948077911, 0.0]
['beep', 0.0, 279.4862126691595, 0.0, 0.0, 0.0, 0.0, -2445.7725817886094, 0.0]
['beep', 0.0, 279.97795104717625, 0.0, 0.0, 0.0, 0.0, -2446.0855062109836, 0.0]
['beep', 0.0, 281.0284830365757, 0.0, 0.0, 0.0, 0.0, -2445.973747488707, 0.0]
['beep', 0.0, 270.5008113981261, 0.0, 0.0, 0.0, 0.0, -2446.4207823778133, 0.0]
['beep', 0.0, 206.15013911129705, 0.0, 0.0, 0.0, 0.0, -2445.303195155048, 0.0]
['beep', 0.0, 190.861545903867, 0.0, 0.0, 0.0, 0.0, -2444.9902707326737, 0.0]
['beep', 0.0, 255.83806703544465, 0.0, 0.0, 0.0, 0.0, -2444.7667532881205, 0.0]
['beep', 0.0, 280.38028244737177, 0.0, 0.0, 0.0, 0.0, -2444.9679189882186, 0.0]
['beep', 0.0, 280.31322721400585, 0.0, 0.0, 0.0, 0.0, -2445.258491666137, 0.0]
['beep', 0.0, 279.06152952450867, 0.0, 0.0, 0.0, 0.0, -2443.9620904877297, 0.0]
['beep', 0.0, 279.28504696906174, 0.0, 0.0, 0.0, 0.0, -2443.582110831989, 0.0]
['beep', 0.0, 279.4862126691595, 0.0, 0.0, 0.0, 0.0, -2444.364421887925, 0.0]
['beep', 0.0, 280.1120615139081, 0.0, 0.0, 0.0, 0.0, -2443.693869554266, 0.0]
['beep', 0.0, 270.2549422091177, 0.0, 0.0, 0.0, 0.0, -2443.7832765320873, 0.0]
['beep', 0.0, 205.0996071218976, 0.0, 0.0, 0.0, 0.0, -2442.8221515205087, 0.0]
['beep', 0.0, 188.022874358043, 0.0, 0.0, 0.0, 0.0, -2442.4645236092238, 0.0]
['beep', 0.0, 250.11602045488604, 0.0, 0.0, 0.0, 0.0, -2442.91155849833, 0.0]
['beep', 0.0, 280.84966908093327, 0.0, 0.0, 0.0, 0.0, -2442.4868753536794, 0.0]
['beep', 0.0, 279.35210220242766, 0.0, 0.0, 0.0, 0.0, -2442.7103927982325, 0.0]
['beep', 0.0, 280.38028244737177, 0.0, 0.0, 0.0, 0.0, -2442.4421718647686, 0.0]
['beep', 0.0, 280.29087546955054, 0.0, 0.0, 0.0, 0.0, -2442.3751166314028, 0.0]
['beep', 0.0, 280.35793070291646, 0.0, 0.0, 0.0, 0.0, -2441.9951369756627, 0.0]
['beep', 0.0, 281.922552814788, 0.0, 0.0, 0.0, 0.0, -2442.2857096535813, 0.0]
['beep', 0.0, 271.6407503653467, 0.0, 0.0, 0.0, 0.0, -2443.5374073430785, 0.0]
['beep', 0.0, 206.9548019116881, 0.0, 0.0, 0.0, 0.0, -2442.7997997760535, 0.0]
['beep', 0.0, 194.12490059434185, 0.0, 0.0, 0.0, 0.0, -2442.1292474423944, 0.0]
['beep', 0.0, 257.9167792697882, 0.0, 0.0, 0.0, 0.0, -2442.4198201203135, 0.0]
['beep', 0.0, 280.6485033808355, 0.0, 0.0, 0.0, 0.0, -2442.620985820411, 0.0]
['beep', 0.0, 281.6543318813243, 0.0, 0.0, 0.0, 0.0, -2443.202131176249, 0.0]
['beep', 0.0, 281.76609060360084, 0.0, 0.0, 0.0, 0.0, -2442.2857096535813, 0.0]
['beep', 0.0, 281.18494524776287, 0.0, 0.0, 0.0, 0.0, -2442.308061398037, 0.0]
['beep', 0.0, 281.76609060360084, 0.0, 0.0, 0.0, 0.0, -2442.553930587045, 0.0]
['beep', 0.0, 280.80496559202265, 0.0, 0.0, 0.0, 0.0, -2442.620985820411, 0.0]
['beep', 0.0, 272.2889509545506, 0.0, 0.0, 0.0, 0.0, -2442.643337564866, 0.0]
['beep', 0.0, 213.28034559254, 0.0, 0.0, 0.0, 0.0, -2444.140904443372, 0.0]
['beep', 0.0, 189.72160693664634, 0.0, 0.0, 0.0, 0.0, -2444.789105032576, 0.0]
['beep', 0.0, 248.0596599649978, 0.0, 0.0, 0.0, 0.0, -2446.3537271444475, 0.0]
['beep', 0.0, 279.9108958138103, 0.0, 0.0, 0.0, 0.0, -2446.621948077911, 0.0]
['beep', 0.0, 280.8720208253886, 0.0, 0.0, 0.0, 0.0, -2446.5772445890007, 0.0]
['beep', 0.0, 280.29087546955054, 0.0, 0.0, 0.0, 0.0, -2446.331375399992, 0.0]
['beep', 0.0, 280.38028244737177, 0.0, 0.0, 0.0, 0.0, -2445.861988766431, 0.0]
['beep', 0.0, 279.7544336026232, 0.0, 0.0, 0.0, 0.0, -2446.5101893556343, 0.0]
['beep', 0.0, 280.02265453608686, 0.0, 0.0, 0.0, 0.0, -2447.2925004115705, 0.0]
['beep', 0.0, 270.9925497761428, 0.0, 0.0, 0.0, 0.0, -2446.6442998223665, 0.0]
['beep', 0.0, 204.92079316625515, 0.0, 0.0, 0.0, 0.0, -2445.8396370219752, 0.0]
['beep', 0.0, 189.2969237919955, 0.0, 0.0, 0.0, 0.0, -2445.0349742215844, 0.0]
['beep', 0.0, 254.49696236812622, 0.0, 0.0, 0.0, 0.0, -2444.9679189882186, 0.0]
['beep', 0.0, 280.26852372509524, 0.0, 0.0, 0.0, 0.0, -2446.1525614443494, 0.0]
['beep', 0.0, 279.97795104717625, 0.0, 0.0, 0.0, 0.0, -2447.0019277336514, 0.0]
['beep', 0.0, 279.1062330134193, 0.0, 0.0, 0.0, 0.0, -2447.3148521560256, 0.0]
['beep', 0.0, 279.01682603559806, 0.0, 0.0, 0.0, 0.0, -2446.979575989196, 0.0]
['beep', 0.0, 278.5697911464919, 0.0, 0.0, 0.0, 0.0, -2446.621948077911, 0.0]
['beep', 0.0, 278.1227562573858, 0.0, 0.0, 0.0, 0.0, -2446.5772445890007, 0.0]
['beep', 0.0, 272.4901166546484, 0.0, 0.0, 0.0, 0.0, -2447.270148667115, 0.0]
['beep', 0.0, 210.30756357998416, 0.0, 0.0, 0.0, 0.0, -2447.0913347114724, 0.0]
['beep', 0.0, 188.71577843615754, 0.0, 0.0, 0.0, 0.0, -2446.599596333456, 0.0]
['beep', 0.0, 251.03244197755362, 0.0, 0.0, 0.0, 0.0, -2446.4207823778133, 0.0]
['beep', 0.0, 279.4191574357936, 0.0, 0.0, 0.0, 0.0, -2447.3595556449363, 0.0]
['beep', 0.0, 279.4638609247042, 0.0, 0.0, 0.0, 0.0, -2447.940701000774, 0.0]
['beep', 0.0, 280.8720208253886, 0.0, 0.0, 0.0, 0.0, -2446.9348725002856, 0.0]
['beep', 0.0, 279.93324755826563, 0.0, 0.0, 0.0, 0.0, -2445.0796777104947, 0.0]
['beep', 0.0, 279.28504696906174, 0.0, 0.0, 0.0, 0.0, -2445.861988766431, 0.0]
['beep', 0.0, 278.5250876575813, 0.0, 0.0, 0.0, 0.0, -2446.4207823778133, 0.0]
['beep', 0.0, 268.1762299747741, 0.0, 0.0, 0.0, 0.0, -2446.756058544643, 0.0]
['beep', 0.0, 202.57385999844792, 0.0, 0.0, 0.0, 0.0, -2445.861988766431, 0.0]
['beep', 0.0, 186.48060399062683, 0.0, 0.0, 0.0, 0.0, -2445.9290439997967, 0.0]
['beep', 0.0, 252.37354664487205, 0.0, 0.0, 0.0, 0.0, -2446.890169011375, 0.0]
['beep', 0.0, 279.1956399912405, 0.0, 0.0, 0.0, 0.0, -2447.3595556449363, 0.0]
['beep', 0.0, 279.93324755826563, 0.0, 0.0, 0.0, 0.0, -2446.264320166626, 0.0]
['beep', 0.0, 281.83314583696676, 0.0, 0.0, 0.0, 0.0, -2444.431477121291, 0.0]
['beep', 0.0, 282.5931051484472, 0.0, 0.0, 0.0, 0.0, -2443.29153815407, 0.0]
['beep', 0.0, 284.13537551586336, 0.0, 0.0, 0.0, 0.0, -2442.91155849833, 0.0]
['beep', 0.0, 284.11302377140805, 0.0, 0.0, 0.0, 0.0, -2443.5150555986233, 0.0]
['beep', 0.0, 270.5455148870367, 0.0, 0.0, 0.0, 0.0, -2443.0903724539726, 0.0]
['beep', 0.0, 204.85373793288923, 0.0, 0.0, 0.0, 0.0, -2442.620985820411, 0.0]
['beep', 0.0, 188.2687435470514, 0.0, 0.0, 0.0, 0.0, -2443.24683466516, 0.0]
['beep', 0.0, 250.42894487726034, 0.0, 0.0, 0.0, 0.0, -2443.693869554266, 0.0]
['beep', 0.0, 278.8156603355003, 0.0, 0.0, 0.0, 0.0, -2444.654994565844, 0.0]
['beep', 0.0, 279.01682603559806, 0.0, 0.0, 0.0, 0.0, -2444.4761806102015, 0.0]
['beep', 0.0, 278.9050673133215, 0.0, 0.0, 0.0, 0.0, -2443.8056282765424, 0.0]
['beep', 0.0, 278.2345149796623, 0.0, 0.0, 0.0, 0.0, -2443.984442232185, 0.0]
['beep', 0.0, 278.5250876575813, 0.0, 0.0, 0.0, 0.0, -2443.000965476151, 0.0]
['beep', 0.0, 282.77191910408965, 0.0, 0.0, 0.0, 0.0, -2444.140904443372, 0.0]
['beep', 0.0, 275.23938122265116, 0.0, 0.0, 0.0, 0.0, -2449.9300062572966, 0.0]
['beep', 0.0, 201.9480111536993, 0.0, 0.0, 0.0, 0.0, -2445.884340510886, 0.0]
['beep', 0.0, 177.49520271959338, 0.0, 0.0, 0.0, 0.0, -2431.333354870481, 0.0]
['beep', 0.0, 242.20350291770734, 0.0, 0.0, 0.0, 0.0, -2417.7211424971993, 0.0]
['beep', 0.0, 271.2160672206959, 0.0, 0.0, 0.0, 0.0, -2407.9087266813194, 0.0]
['beep', 0.0, 267.7515468301233, 0.0, 0.0, 0.0, 0.0, -2395.3470462974365, 0.0]
['beep', 0.0, 266.94688402973225, 0.0, 0.0, 0.0, 0.0, -2380.0361013455513, 0.0]
['beep', 0.0, 266.7680700740898, 0.0, 0.0, 0.0, 0.0, -2364.523990693568, 0.0]
['beep', 0.0, 266.05281425152, 0.0, 0.0, 0.0, 0.0, -2347.1343335073393, 0.0]
['beep', 0.0, 263.10238398341943, 0.0, 0.0, 0.0, 0.0, -2331.309298432982, 0.0]
['beep', 0.0, 246.40563087530506, 0.0, 0.0, 0.0, 0.0, -2315.730132547633, 0.0]
['beep', 0.0, 181.07148183244252, 0.0, 0.0, 0.0, 0.0, -2298.988675950608, 0.0]
['beep', 0.0, 168.1074700483644, 0.0, 0.0, 0.0, 0.0, -2283.789489720999, 0.0]
['beep', 0.0, 223.0927614084198, 0.0, 0.0, 0.0, 0.0, -2270.110222114351, 0.0]
['beep', 0.0, 258.632035092358, 0.0, 0.0, 0.0, 0.0, -2258.666128953234, 0.0]
['beep', 0.0, 259.8166775484893, 0.0, 0.0, 0.0, 0.0, -2245.4338962356924, 0.0]
['beep', 0.0, 258.1402967143413, 0.0, 0.0, 0.0, 0.0, -2230.055896050441, 0.0]
['beep', 0.0, 256.665081580291, 0.0, 0.0, 0.0, 0.0, -2216.0413522769636, 0.0]
['beep', 0.0, 254.63107283485806, 0.0, 0.0, 0.0, 0.0, -2204.86548004931, 0.0]
['beep', 0.0, 256.8885990248441, 0.0, 0.0, 0.0, 0.0, -2193.533145610469, 0.0]
['beep', 0.0, 242.76229652909, 0.0, 0.0, 0.0, 0.0, -2179.9656367260977, 0.0]
['beep', 0.0, 173.98597884011016, 0.0, 0.0, 0.0, 0.0, -2169.8402964878437, 0.0]
['beep', 0.0, 158.67503388822485, 0.0, 0.0, 0.0, 0.0, -2163.805325484911, 0.0]
['beep', 0.0, 214.48733979312658, 0.0, 0.0, 0.0, 0.0, -2157.8821132042544, 0.0]
['beep', 0.0, 251.81475303348938, 0.0, 0.0, 0.0, 0.0, -2153.411764313193, 0.0]
['beep', 0.0, 249.35606114340558, 0.0, 0.0, 0.0, 0.0, -2146.7509444655116, 0.0]
['beep', 0.0, 219.78470322903433, 0.0, 0.0, 0.0, 0.0, -2143.8452176863216, 0.0]
['beep', 0.0, 161.4466502006829, 0.0, 0.0, 0.0, 0.0, -2140.380697295749, 0.0]
['beep', 0.0, 215.04613340450925, 0.0, 0.0, 0.0, 0.0, -2139.8889589177325, 0.0]
['beep', 0.0, 247.45616286470448, 0.0, 0.0, 0.0, 0.0, -2140.2242350845618, 0.0]
['beep', 0.0, 243.7010697962129, 0.0, 0.0, 0.0, 0.0, -2139.486627517537, 0.0]
['beep', 0.0, 244.6398430633358, 0.0, 0.0, 0.0, 0.0, -2141.5653397518804, 0.0]
['beep', 0.0, 241.64470930632464, 0.0, 0.0, 0.0, 0.0, -2141.967671152076, 0.0]
['beep', 0.0, 241.06356395048667, 0.0, 0.0, 0.0, 0.0, -2143.286424074939, 0.0]
['beep', 0.0, 241.97998547315427, 0.0, 0.0, 0.0, 0.0, -2146.192150854129, 0.0]
['beep', 0.0, 235.34151736992806, 0.0, 0.0, 0.0, 0.0, -2150.059002644897, 0.0]
['beep', 0.0, 174.25419977357387, 0.0, 0.0, 0.0, 0.0, -2152.5623980238915, 0.0]
['beep', 0.0, 147.63327212730314, 0.0, 0.0, 0.0, 0.0, -2156.1386771367406, 0.0]
['beep', 0.0, 204.3843512993278, 0.0, 0.0, 0.0, 0.0, -2162.218351628584, 0.0]
['beep', 0.0, 238.35900287139452, 0.0, 0.0, 0.0, 0.0, -2166.822810986377, 0.0]
['beep', 0.0, 240.4824185946487, 0.0, 0.0, 0.0, 0.0, -2170.443793588137, 0.0]
['beep', 0.0, 239.74481102762354, 0.0, 0.0, 0.0, 0.0, -2176.0093779575086, 0.0]
['beep', 0.0, 241.42119186177158, 0.0, 0.0, 0.0, 0.0, -2180.1668024261958, 0.0]
['beep', 0.0, 242.3823168733498, 0.0, 0.0, 0.0, 0.0, -2182.893715249743, 0.0]
['beep', 0.0, 243.0305174625537, 0.0, 0.0, 0.0, 0.0, -2188.3922443857487, 0.0]
['beep', 0.0, 235.117999925375, 0.0, 0.0, 0.0, 0.0, -2192.504965365525, 0.0]
['beep', 0.0, 170.83438287191188, 0.0, 0.0, 0.0, 0.0, -2195.6789130781785, 0.0]
['beep', 0.0, 151.83540008490087, 0.0, 0.0, 0.0, 0.0, -2197.95879101262, 0.0]
['beep', 0.0, 213.28034559254, 0.0, 0.0, 0.0, 0.0, -2201.602125358835, 0.0]
['beep', 0.0, 245.310395396995, 0.0, 0.0, 0.0, 0.0, -2206.474805650092, 0.0]
['beep', 0.0, 244.72925004115703, 0.0, 0.0, 0.0, 0.0, -2208.374703928793, 0.0]
['beep', 0.0, 246.40563087530506, 0.0, 0.0, 0.0, 0.0, -2210.0734365073963, 0.0]
['beep', 0.0, 244.9304157412548, 0.0, 0.0, 0.0, 0.0, -2213.403846431237, 0.0]
['beep', 0.0, 244.70689829670172, 0.0, 0.0, 0.0, 0.0, -2215.5496138989465, 0.0]
['beep', 0.0, 244.9304157412548, 0.0, 0.0, 0.0, 0.0, -2219.1705965007063, 0.0]
['beep', 0.0, 237.3531743709057, 0.0, 0.0, 0.0, 0.0, -2221.7410471130665, 0.0]
['beep', 0.0, 179.05982483146488, 0.0, 0.0, 0.0, 0.0, -2223.2609657360276, 0.0]
['beep', 0.0, 151.9471588071774, 0.0, 0.0, 0.0, 0.0, -2224.9596983146307, 0.0]
['beep', 0.0, 209.30173507949533, 0.0, 0.0, 0.0, 0.0, -2226.144340770762, 0.0]
['beep', 0.0, 245.600968074914, 0.0, 0.0, 0.0, 0.0, -2229.117122783318, 0.0]
['beep', 0.0, 245.73507854164583, 0.0, 0.0, 0.0, 0.0, -2230.704096639645, 0.0]
['beep', 0.0, 245.6233198193693, 0.0, 0.0, 0.0, 0.0, -2232.179311773695, 0.0]
['beep', 0.0, 245.48920935263746, 0.0, 0.0, 0.0, 0.0, -2232.313422240427, 0.0]
['beep', 0.0, 244.90806399679948, 0.0, 0.0, 0.0, 0.0, -2233.118085040818, 0.0]
['beep', 0.0, 245.24334016362909, 0.0, 0.0, 0.0, 0.0, -2235.599128675357, 0.0]
['beep', 0.0, 238.11313368238615, 0.0, 0.0, 0.0, 0.0, -2236.448494964659, 0.0]
['beep', 0.0, 178.12105156434197, 0.0, 0.0, 0.0, 0.0, -2236.247329264561, 0.0]
['beep', 0.0, 156.0598797869539, 0.0, 0.0, 0.0, 0.0, -2237.2308060205946, 0.0]
['beep', 0.0, 218.15302588379694, 0.0, 0.0, 0.0, 0.0, -2237.7225443986113, 0.0]
['beep', 0.0, 245.6680233082799, 0.0, 0.0, 0.0, 0.0, -2239.756553144044, 0.0]
['beep', 0.0, 246.04800296402016, 0.0, 0.0, 0.0, 0.0, -2240.315346755427, 0.0]
['beep', 0.0, 246.65150006431344, 0.0, 0.0, 0.0, 0.0, -2240.2259397776056, 0.0]
['beep', 0.0, 247.43381112024917, 0.0, 0.0, 0.0, 0.0, -2239.421276977215, 0.0]
['beep', 0.0, 246.2044651752073, 0.0, 0.0, 0.0, 0.0, -2239.6447944217675, 0.0]
['beep', 0.0, 247.74673554262347, 0.0, 0.0, 0.0, 0.0, -2240.8964921112647, 0.0]
['beep', 0.0, 241.28708139503973, 0.0, 0.0, 0.0, 0.0, -2242.7516869010556, 0.0]
['beep', 0.0, 179.52921146502632, 0.0, 0.0, 0.0, 0.0, -2241.1647130447286, 0.0]
['beep', 0.0, 153.42237394122768, 0.0, 0.0, 0.0, 0.0, -2239.421276977215, 0.0]
['beep', 0.0, 212.78860721452324, 0.0, 0.0, 0.0, 0.0, -2239.309518254938, 0.0]
['beep', 0.0, 247.00912797559835, 0.0, 0.0, 0.0, 0.0, -2240.449457222159, 0.0]
['beep', 0.0, 246.96442448668773, 0.0, 0.0, 0.0, 0.0, -2240.8741403668096, 0.0]
['beep', 0.0, 246.47268610867098, 0.0, 0.0, 0.0, 0.0, -2240.0024223330524, 0.0]
['beep', 0.0, 247.38910763133856, 0.0, 0.0, 0.0, 0.0, -2239.5777391884017, 0.0]
['beep', 0.0, 248.52904659855923, 0.0, 0.0, 0.0, 0.0, -2238.9965938325636, 0.0]
['beep', 0.0, 249.31135765449497, 0.0, 0.0, 0.0, 0.0, -2238.706021154645, 0.0]
['beep', 0.0, 242.18115117325203, 0.0, 0.0, 0.0, 0.0, -2238.6613176657343, 0.0]
['beep', 0.0, 180.22211554314086, 0.0, 0.0, 0.0, 0.0, -2237.342564742871, 0.0]
['beep', 0.0, 155.29992047547347, 0.0, 0.0, 0.0, 0.0, -2237.7448961430664, 0.0]
['beep', 0.0, 212.25216534759588, 0.0, 0.0, 0.0, 0.0, -2239.2201112771168, 0.0]
['beep', 0.0, 250.07131696597543, 0.0, 0.0, 0.0, 0.0, -2239.0412973214743, 0.0]
['beep', 0.0, 251.3006629110173, 0.0, 0.0, 0.0, 0.0, -2239.2201112771168, 0.0]
['beep', 0.0, 249.64663382132457, 0.0, 0.0, 0.0, 0.0, -2239.44362872167, 0.0]
['beep', 0.0, 250.04896522152012, 0.0, 0.0, 0.0, 0.0, -2238.3930967322704, 0.0]
['beep', 0.0, 250.6301105773581, 0.0, 0.0, 0.0, 0.0, -2238.862483365832, 0.0]
['beep', 0.0, 249.9372064992436, 0.0, 0.0, 0.0, 0.0, -2240.091829310874, 0.0]
['beep', 0.0, 245.6680233082799, 0.0, 0.0, 0.0, 0.0, -2240.2035880331505, 0.0]
['beep', 0.0, 186.43590050171622, 0.0, 0.0, 0.0, 0.0, -2239.2648147660275, 0.0]
['beep', 0.0, 159.65851064425834, 0.0, 0.0, 0.0, 0.0, -2237.8119513764327, 0.0]
['beep', 0.0, 219.6282410178472, 0.0, 0.0, 0.0, 0.0, -2236.6720124092117, 0.0]
['beep', 0.0, 250.2724826660732, 0.0, 0.0, 0.0, 0.0, -2238.5942624323684, 0.0]
['beep', 0.0, 249.62428207686926, 0.0, 0.0, 0.0, 0.0, -2238.1695792877176, 0.0]
['beep', 0.0, 249.28900591003966, 0.0, 0.0, 0.0, 0.0, -2238.6166141768235, 0.0]
['beep', 0.0, 249.80309603251175, 0.0, 0.0, 0.0, 0.0, -2238.2589862655386, 0.0]
['beep', 0.0, 254.85459027941113, 0.0, 0.0, 0.0, 0.0, -2237.454323465148, 0.0]
['beep', 0.0, 256.4639158801932, 0.0, 0.0, 0.0, 0.0, -2240.0024223330524, 0.0]
['beep', 0.0, 246.4950378531263, 0.0, 0.0, 0.0, 0.0, -2239.7118496551334, 0.0]
['beep', 0.0, 183.8878016338112, 0.0, 0.0, 0.0, 0.0, -2239.5777391884017, 0.0]
['beep', 0.0, 159.70321413316896, 0.0, 0.0, 0.0, 0.0, -2240.2035880331505, 0.0]
['beep', 0.0, 217.32601133895056, 0.0, 0.0, 0.0, 0.0, -2240.3600502443373, 0.0]
['beep', 0.0, 253.75935480110107, 0.0, 0.0, 0.0, 0.0, -2241.052954322452, 0.0]
['beep', 0.0, 255.03340423505358, 0.0, 0.0, 0.0, 0.0, -2242.282300267494, 0.0]
['beep', 0.0, 254.16168620129662, 0.0, 0.0, 0.0, 0.0, -2242.0364310784857, 0.0]
['beep', 0.0, 253.82641003446702, 0.0, 0.0, 0.0, 0.0, -2242.4834659675917, 0.0]
['beep', 0.0, 253.84876177892232, 0.0, 0.0, 0.0, 0.0, -2244.383364246293, 0.0]
['beep', 0.0, 253.75935480110107, 0.0, 0.0, 0.0, 0.0, -2242.8634456233317, 0.0]
['beep', 0.0, 247.03147972005365, 0.0, 0.0, 0.0, 0.0, -2241.5893961893794, 0.0]
['beep', 0.0, 185.765348168057, 0.0, 0.0, 0.0, 0.0, -2242.416410734226, 0.0]
['beep', 0.0, 158.5632751659483, 0.0, 0.0, 0.0, 0.0, -2243.355184001349, 0.0]
['beep', 0.0, 214.75556072659026, 0.0, 0.0, 0.0, 0.0, -2243.757515401544, 0.0]
['beep', 0.0, 252.08297396695306, 0.0, 0.0, 0.0, 0.0, -2245.3668410023265, 0.0]
['beep', 0.0, 254.00522399010947, 0.0, 0.0, 0.0, 0.0, -2244.8080473909436, 0.0]
['beep', 0.0, 253.26761642308432, 0.0, 0.0, 0.0, 0.0, -2243.8022188904547, 0.0]
['beep', 0.0, 252.99939548962064, 0.0, 0.0, 0.0, 0.0, -2241.7458584005667, 0.0]
['beep', 0.0, 254.34050015693907, 0.0, 0.0, 0.0, 0.0, -2242.0364310784857, 0.0]
['beep', 0.0, 254.8098867905005, 0.0, 0.0, 0.0, 0.0, -2244.5621782019352, 0.0]
['beep', 0.0, 247.1432384423302, 0.0, 0.0, 0.0, 0.0, -2246.1044485693515, 0.0]
['beep', 0.0, 185.56418246795923, 0.0, 0.0, 0.0, 0.0, -2244.7409921575777, 0.0]
['beep', 0.0, 161.46900194513822, 0.0, 0.0, 0.0, 0.0, -2243.4892944680805, 0.0]
['beep', 0.0, 218.82357821745615, 0.0, 0.0, 0.0, 0.0, -2242.639928178779, 0.0]
['beep', 0.0, 255.1004594684195, 0.0, 0.0, 0.0, 0.0, -2244.249253779561, 0.0]
['beep', 0.0, 256.79919204702287, 0.0, 0.0, 0.0, 0.0, -2244.472771224114, 0.0]
['beep', 0.0, 254.65342457931337, 0.0, 0.0, 0.0, 0.0, -2244.048088079463, 0.0]
['beep', 0.0, 254.20638969020723, 0.0, 0.0, 0.0, 0.0, -2242.639928178779, 0.0]
['beep', 0.0, 254.27344492357315, 0.0, 0.0, 0.0, 0.0, -2242.572872945413, 0.0]
['beep', 0.0, 255.1228112128748, 0.0, 0.0, 0.0, 0.0, -2243.4892944680805, 0.0]
['beep', 0.0, 246.69620355322405, 0.0, 0.0, 0.0, 0.0, -2243.981032846097, 0.0]
['beep', 0.0, 185.85475514587822, 0.0, 0.0, 0.0, 0.0, -2243.1316665567956, 0.0]
['beep', 0.0, 160.35141472237288, 0.0, 0.0, 0.0, 0.0, -2242.505817712047, 0.0]
['beep', 0.0, 216.4542933051936, 0.0, 0.0, 0.0, 0.0, -2242.081134567396, 0.0]
['beep', 0.0, 254.56401760149214, 0.0, 0.0, 0.0, 0.0, -2245.0762683244075, 0.0]
['beep', 0.0, 256.8662472803888, 0.0, 0.0, 0.0, 0.0, -2244.986861346586, 0.0]
['beep', 0.0, 258.1626484587966, 0.0, 0.0, 0.0, 0.0, -2242.572872945413, 0.0]
['beep', 0.0, 257.2909304250396, 0.0, 0.0, 0.0, 0.0, -2240.5165124555247, 0.0]
['beep', 0.0, 256.24039843564015, 0.0, 0.0, 0.0, 0.0, -2240.2482915220608, 0.0]
['beep', 0.0, 257.40268914731615, 0.0, 0.0, 0.0, 0.0, -2242.1928932896726, 0.0]
['beep', 0.0, 245.73507854164583, 0.0, 0.0, 0.0, 0.0, -2242.282300267494, 0.0]
['beep', 0.0, 181.0267783435319, 0.0, 0.0, 0.0, 0.0, -2242.505817712047, 0.0]
['beep', 0.0, 162.81010661245665, 0.0, 0.0, 0.0, 0.0, -2241.6117479338345, 0.0]
['beep', 0.0, 221.28227010753992, 0.0, 0.0, 0.0, 0.0, -2242.3270037564043, 0.0]
['beep', 0.0, 256.4415641357379, 0.0, 0.0, 0.0, 0.0, -2243.5563497014464, 0.0]
['beep', 0.0, 256.95565425821, 0.0, 0.0, 0.0, 0.0, -2242.8187421344214, 0.0]
['beep', 0.0, 255.0557559795089, 0.0, 0.0, 0.0, 0.0, -2243.601053190357, 0.0]
['beep', 0.0, 254.87694202386643, 0.0, 0.0, 0.0, 0.0, -2241.5893961893794, 0.0]
['beep', 0.0, 254.94399725723235, 0.0, 0.0, 0.0, 0.0, -2240.6059194333457, 0.0]
['beep', 0.0, 255.27927342406196, 0.0, 0.0, 0.0, 0.0, -2241.2317682780945, 0.0]
['beep', 0.0, 248.1043634539084, 0.0, 0.0, 0.0, 0.0, -2242.0364310784857, 0.0]
['beep', 0.0, 156.1045832758645, 0.0, 0.0, 0.0, 0.0, -2249.2336927930946, 0.0]
['beep', 0.0, 203.8032059434898, 0.0, 0.0, 0.0, 0.0, -2250.4183352492255, 0.0]
['beep', 0.0, 250.42894487726034, 0.0, 0.0, 0.0, 0.0, -2249.121934070818, 0.0]
['beep', 0.0, 252.5523606005145, 0.0, 0.0, 0.0, 0.0, -2248.9431201151756, 0.0]
['beep', 0.0, 252.8652850228888, 0.0, 0.0, 0.0, 0.0, -2249.054878837452, 0.0]
['beep', 0.0, 252.35119490041674, 0.0, 0.0, 0.0, 0.0, -2248.496085226069, 0.0]
['beep', 0.0, 252.26178792259552, 0.0, 0.0, 0.0, 0.0, -2248.54078871498, 0.0]
['beep', 0.0, 250.51835185508156, 0.0, 0.0, 0.0, 0.0, -2249.0772305819073, 0.0]
['beep', 0.0, 247.7914390315341, 0.0, 0.0, 0.0, 0.0, -2249.0325270929966, 0.0]
['beep', 0.0, 197.65647621828035, 0.0, 0.0, 0.0, 0.0, -2249.0772305819073, 0.0]
['beep', 0.0, 153.95881580815504, 0.0, 0.0, 0.0, 0.0, -2248.898416626265, 0.0]
['beep', 0.0, 196.04715061749826, 0.0, 0.0, 0.0, 0.0, -2249.6583759377454, 0.0]
['beep', 0.0, 248.30552915400617, 0.0, 0.0, 0.0, 0.0, -2250.4183352492255, 0.0]
['beep', 0.0, 251.6582908223022, 0.0, 0.0, 0.0, 0.0, -2250.887721882787, 0.0]
['beep', 0.0, 251.3006629110173, 0.0, 0.0, 0.0, 0.0, -2249.121934070818, 0.0]
['beep', 0.0, 250.9653867441877, 0.0, 0.0, 0.0, 0.0, -2250.373631760315, 0.0]
['beep', 0.0, 249.51252335459273, 0.0, 0.0, 0.0, 0.0, -2250.507742227047, 0.0]
['beep', 0.0, 249.51252335459273, 0.0, 0.0, 0.0, 0.0, -2250.530093971502, 0.0]
['beep', 0.0, 249.84779952142236, 0.0, 0.0, 0.0, 0.0, -2251.3124050274378, 0.0]
['beep', 0.0, 204.25024083259595, 0.0, 0.0, 0.0, 0.0, -2250.7089079271445, 0.0]
['beep', 0.0, 153.10944951885338, 0.0, 0.0, 0.0, 0.0, -2248.9654718596307, 0.0]
['beep', 0.0, 195.2871913060178, 0.0, 0.0, 0.0, 0.0, -2248.4513817371585, 0.0]
['beep', 0.0, 246.04800296402016, 0.0, 0.0, 0.0, 0.0, -2249.434858493192, 0.0]
['beep', 0.0, 249.9595582436989, 0.0, 0.0, 0.0, 0.0, -2249.546617215469, 0.0]
['beep', 0.0, 251.6359390778469, 0.0, 0.0, 0.0, 0.0, -2250.597149204868, 0.0]
['beep', 0.0, 249.9595582436989, 0.0, 0.0, 0.0, 0.0, -2249.6136724488347, 0.0]
['beep', 0.0, 249.80309603251175, 0.0, 0.0, 0.0, 0.0, -2248.853713137354, 0.0]
['beep', 0.0, 250.78657278854524, 0.0, 0.0, 0.0, 0.0, -2250.239521293583, 0.0]
['beep', 0.0, 248.81961927647822, 0.0, 0.0, 0.0, 0.0, -2250.507742227047, 0.0]
['beep', 0.0, 196.60594422888093, 0.0, 0.0, 0.0, 0.0, -2250.3289282714045, 0.0]
['beep', 0.0, 154.89758907527795, 0.0, 0.0, 0.0, 0.0, -2251.245349794072, 0.0]
['beep', 0.0, 199.24345007460715, 0.0, 0.0, 0.0, 0.0, -2249.9489486156644, 0.0]
['beep', 0.0, 247.38910763133856, 0.0, 0.0, 0.0, 0.0, -2249.3678032598264, 0.0]
['beep', 0.0, 250.76422104408994, 0.0, 0.0, 0.0, 0.0, -2251.245349794072, 0.0]
['beep', 0.0, 249.46781986568212, 0.0, 0.0, 0.0, 0.0, -2250.7312596716, 0.0]
['beep', 0.0, 248.68550880974638, 0.0, 0.0, 0.0, 0.0, -2249.6807276822005, 0.0]
['beep', 0.0, 249.87015126587767, 0.0, 0.0, 0.0, 0.0, -2249.7254311711113, 0.0]
['beep', 0.0, 248.61845357638046, 0.0, 0.0, 0.0, 0.0, -2250.0160038490303, 0.0]
['beep', 0.0, 245.48920935263746, 0.0, 0.0, 0.0, 0.0, -2250.1948178046728, 0.0]
['beep', 0.0, 193.61081047186977, 0.0, 0.0, 0.0, 0.0, -2248.9431201151756, 0.0]
['beep', 0.0, 154.80818209745672, 0.0, 0.0, 0.0, 0.0, -2249.0772305819073, 0.0]
['beep', 0.0, 201.56803149795908, 0.0, 0.0, 0.0, 0.0, -2248.0266985925077, 0.0]
['beep', 0.0, 250.51835185508156, 0.0, 0.0, 0.0, 0.0, -2250.1948178046728, 0.0]
['beep', 0.0, 252.5076571116039, 0.0, 0.0, 0.0, 0.0, -2251.8711986388207, 0.0]
['beep', 0.0, 252.41825013378266, 0.0, 0.0, 0.0, 0.0, -2250.1948178046728, 0.0]
['beep', 0.0, 251.8818082668553, 0.0, 0.0, 0.0, 0.0, -2249.7254311711113, 0.0]
['beep', 0.0, 250.6748140662687, 0.0, 0.0, 0.0, 0.0, -2248.7419544150775, 0.0]
['beep', 0.0, 250.85362802191116, 0.0, 0.0, 0.0, 0.0, -2249.8148381489323, 0.0]
['beep', 0.0, 246.5620930864922, 0.0, 0.0, 0.0, 0.0, -2249.3454515153708, 0.0]
['beep', 0.0, 195.46600526166026, 0.0, 0.0, 0.0, 0.0, -2249.6807276822005, 0.0]
['beep', 0.0, 155.45638268666062, 0.0, 0.0, 0.0, 0.0, -2249.3454515153708, 0.0]
['beep', 0.0, 200.04811287499822, 0.0, 0.0, 0.0, 0.0, -2249.6807276822005, 0.0]
['beep', 0.0, 248.35023264291678, 0.0, 0.0, 0.0, 0.0, -2250.8430183938767, 0.0]
['beep', 0.0, 250.13837219934135, 0.0, 0.0, 0.0, 0.0, -2251.82649514991, 0.0]
['beep', 0.0, 251.07714546646423, 0.0, 0.0, 0.0, 0.0, -2251.535922471991, 0.0]
['beep', 0.0, 251.36771814438322, 0.0, 0.0, 0.0, 0.0, -2249.7254311711113, 0.0]
['beep', 0.0, 252.2170844336849, 0.0, 0.0, 0.0, 0.0, -2249.837189893388, 0.0]
['beep', 0.0, 252.1947326892296, 0.0, 0.0, 0.0, 0.0, -2251.1335910717953, 0.0]
['beep', 0.0, 251.52418035557037, 0.0, 0.0, 0.0, 0.0, -2252.698213183667, 0.0]
['beep', 0.0, 209.05586589048696, 0.0, 0.0, 0.0, 0.0, -2250.3959835047704, 0.0]
['beep', 0.0, 158.20564725466338, 0.0, 0.0, 0.0, 0.0, -2251.088887582885, 0.0]
['beep', 0.0, 199.66813321925798, 0.0, 0.0, 0.0, 0.0, -2252.050012594463, 0.0]
['beep', 0.0, 249.13254369885252, 0.0, 0.0, 0.0, 0.0, -2250.887721882787, 0.0]
['beep', 0.0, 253.69229956773515, 0.0, 0.0, 0.0, 0.0, -2252.0276608500076, 0.0]
['beep', 0.0, 254.25109317911785, 0.0, 0.0, 0.0, 0.0, -2250.865370138332, 0.0]
['beep', 0.0, 252.15002920031898, 0.0, 0.0, 0.0, 0.0, -2251.2900532829826, 0.0]
['beep', 0.0, 252.5523606005145, 0.0, 0.0, 0.0, 0.0, -2251.9159021277314, 0.0]
['beep', 0.0, 252.66411932279104, 0.0, 0.0, 0.0, 0.0, -2252.094716083374, 0.0]
['beep', 0.0, 248.99843323212068, 0.0, 0.0, 0.0, 0.0, -2253.078192839407, 0.0]
['beep', 0.0, 198.50584250758203, 0.0, 0.0, 0.0, 0.0, -2253.078192839407, 0.0]
['beep', 0.0, 156.19399025368574, 0.0, 0.0, 0.0, 0.0, -2253.5475794729687, 0.0]
['beep', 0.0, 199.57872624143675, 0.0, 0.0, 0.0, 0.0, -2252.139419572284, 0.0]
['beep', 0.0, 249.26665416558436, 0.0, 0.0, 0.0, 0.0, -2251.759439916544, 0.0]
['beep', 0.0, 252.5747123449698, 0.0, 0.0, 0.0, 0.0, -2254.5534079734575, 0.0]
['beep', 0.0, 251.79240128903407, 0.0, 0.0, 0.0, 0.0, -2253.9722626176194, 0.0]
['beep', 0.0, 251.41242163329383, 0.0, 0.0, 0.0, 0.0, -2251.468867238625, 0.0]
['beep', 0.0, 252.10532571140837, 0.0, 0.0, 0.0, 0.0, -2250.9994806050636, 0.0]
['beep', 0.0, 253.62524433436923, 0.0, 0.0, 0.0, 0.0, -2252.0276608500076, 0.0]
['beep', 0.0, 249.4231163767715, 0.0, 0.0, 0.0, 0.0, -2252.2511782945608, 0.0]
['beep', 0.0, 194.0354936165206, 0.0, 0.0, 0.0, 0.0, -2251.4241637497144, 0.0]
['beep', 0.0, 154.98699605309918, 0.0, 0.0, 0.0, 0.0, -2250.865370138332, 0.0]
['beep', 0.0, 201.12099660885295, 0.0, 0.0, 0.0, 0.0, -2250.6865561826894, 0.0]
['beep', 0.0, 248.52904659855923, 0.0, 0.0, 0.0, 0.0, -2251.3347567718934, 0.0]
['beep', 0.0, 252.01591873358714, 0.0, 0.0, 0.0, 0.0, -2250.6418526937787, 0.0]
['beep', 0.0, 250.58540708844748, 0.0, 0.0, 0.0, 0.0, -2252.3629370168373, 0.0]
['beep', 0.0, 249.51252335459273, 0.0, 0.0, 0.0, 0.0, -2250.865370138332, 0.0]
['beep', 0.0, 250.987738488643, 0.0, 0.0, 0.0, 0.0, -2250.2842247824938, 0.0]
['beep', 0.0, 251.81475303348938, 0.0, 0.0, 0.0, 0.0, -2250.172466060217, 0.0]
['beep', 0.0, 250.92068325527708, 0.0, 0.0, 0.0, 0.0, -2250.485390482592, 0.0]
['beep', 0.0, 201.2551070755848, 0.0, 0.0, 0.0, 0.0, -2251.9606056166417, 0.0]
['beep', 0.0, 155.12110651983102, 0.0, 0.0, 0.0, 0.0, -2251.468867238625, 0.0]
['beep', 0.0, 196.04715061749826, 0.0, 0.0, 0.0, 0.0, -2250.597149204868, 0.0]
['beep', 0.0, 248.57375008746985, 0.0, 0.0, 0.0, 0.0, -2250.463038738136, 0.0]
['beep', 0.0, 251.70299431121282, 0.0, 0.0, 0.0, 0.0, -2251.1335910717953, 0.0]
['beep', 0.0, 250.18307568825196, 0.0, 0.0, 0.0, 0.0, -2249.9936521045747, 0.0]
['beep', 0.0, 249.64663382132457, 0.0, 0.0, 0.0, 0.0, -2249.2336927930946, 0.0]
['beep', 0.0, 250.18307568825196, 0.0, 0.0, 0.0, 0.0, -2251.7817916609993, 0.0]
['beep', 0.0, 250.47364836617095, 0.0, 0.0, 0.0, 0.0, -2251.245349794072, 0.0]
['beep', 0.0, 249.53487509904804, 0.0, 0.0, 0.0, 0.0, -2250.530093971502, 0.0]
['beep', 0.0, 199.4446157747049, 0.0, 0.0, 0.0, 0.0, -2250.6195009493235, 0.0]
['beep', 0.0, 154.24938848607405, 0.0, 0.0, 0.0, 0.0, -2249.1666375597283, 0.0]
['beep', 0.0, 191.28622904851784, 0.0, 0.0, 0.0, 0.0, -2249.479561982103, 0.0]
['beep', 0.0, 245.77978203055645, 0.0, 0.0, 0.0, 0.0, -2251.848846894365, 0.0]
['beep', 0.0, 250.69716581072402, 0.0, 0.0, 0.0, 0.0, -2251.2900532829826, 0.0]
['beep', 0.0, 251.6135873333916, 0.0, 0.0, 0.0, 0.0, -2252.6311579503013, 0.0]
['beep', 0.0, 251.43477337774914, 0.0, 0.0, 0.0, 0.0, -2251.2229980496168, 0.0]
['beep', 0.0, 251.81475303348938, 0.0, 0.0, 0.0, 0.0, -2250.6642044382343, 0.0]
['beep', 0.0, 252.46295362269328, 0.0, 0.0, 0.0, 0.0, -2251.9829573610973, 0.0]
['beep', 0.0, 250.54070359953687, 0.0, 0.0, 0.0, 0.0, -2251.848846894365, 0.0]
['beep', 0.0, 202.57385999844792, 0.0, 0.0, 0.0, 0.0, -2252.139419572284, 0.0]
['beep', 0.0, 157.82566759892316, 0.0, 0.0, 0.0, 0.0, -2250.798314904966, 0.0]
['beep', 0.0, 201.00923788657641, 0.0, 0.0, 0.0, 0.0, -2249.9489486156644, 0.0]
['beep', 0.0, 250.42894487726034, 0.0, 0.0, 0.0, 0.0, -2251.535922471991, 0.0]
['beep', 0.0, 251.81475303348938, 0.0, 0.0, 0.0, 0.0, -2253.3017102839603, 0.0]
['beep', 0.0, 253.44643037872677, 0.0, 0.0, 0.0, 0.0, -2251.11123932734, 0.0]
['beep', 0.0, 252.95469200071003, 0.0, 0.0, 0.0, 0.0, -2249.5913207043795, 0.0]
['beep', 0.0, 253.04409897853125, 0.0, 0.0, 0.0, 0.0, -2249.188989304184, 0.0]
['beep', 0.0, 252.5523606005145, 0.0, 0.0, 0.0, 0.0, -2248.764306159533, 0.0]
['beep', 0.0, 251.14420069983015, 0.0, 0.0, 0.0, 0.0, -2249.9042451267537, 0.0]
['beep', 0.0, 205.3678280553613, 0.0, 0.0, 0.0, 0.0, -2250.150114315762, 0.0]
['beep', 0.0, 157.78096411001255, 0.0, 0.0, 0.0, 0.0, -2249.792486404477, 0.0]
['beep', 0.0, 199.24345007460715, 0.0, 0.0, 0.0, 0.0, -2248.9654718596307, 0.0]
['beep', 0.0, 250.87597976636647, 0.0, 0.0, 0.0, 0.0, -2250.1948178046728, 0.0]
['beep', 0.0, 254.49696236812622, 0.0, 0.0, 0.0, 0.0, -2250.3065765269494, 0.0]
['beep', 0.0, 254.87694202386643, 0.0, 0.0, 0.0, 0.0, -2249.3007480264605, 0.0]
['beep', 0.0, 254.8098867905005, 0.0, 0.0, 0.0, 0.0, -2247.624367192312, 0.0]
['beep', 0.0, 255.23456993515134, 0.0, 0.0, 0.0, 0.0, -2247.020870092019, 0.0]
['beep', 0.0, 254.00522399010947, 0.0, 0.0, 0.0, 0.0, -2249.7477829155664, 0.0]
['beep', 0.0, 252.48530536714858, 0.0, 0.0, 0.0, 0.0, -2247.8031811479545, 0.0]
['beep', 0.0, 207.71476122316852, 0.0, 0.0, 0.0, 0.0, -2246.1938555471725, 0.0]
['beep', 0.0, 156.21634199814105, 0.0, 0.0, 0.0, 0.0, -2243.690460168178, 0.0]
['beep', 0.0, 200.89747916429988, 0.0, 0.0, 0.0, 0.0, -2242.572872945413, 0.0]
['beep', 0.0, 252.61941583388042, 0.0, 0.0, 0.0, 0.0, -2240.449457222159, 0.0]
['beep', 0.0, 254.38520364584969, 0.0, 0.0, 0.0, 0.0, -2238.124875798807, 0.0]
['beep', 0.0, 252.59706408942512, 0.0, 0.0, 0.0, 0.0, -2233.9674513301197, 0.0]
['beep', 0.0, 252.95469200071003, 0.0, 0.0, 0.0, 0.0, -2230.1676547727175, 0.0]
['beep', 0.0, 254.4746106236709, 0.0, 0.0, 0.0, 0.0, -2225.9431750706644, 0.0]
['beep', 0.0, 253.60289258991392, 0.0, 0.0, 0.0, 0.0, -2219.952907556642, 0.0]
['beep', 0.0, 250.0042617326095, 0.0, 0.0, 0.0, 0.0, -2214.968468543109, 0.0]
['beep', 0.0, 201.2551070755848, 0.0, 0.0, 0.0, 0.0, -2210.140491740762, 0.0]
['beep', 0.0, 160.57493216692595, 0.0, 0.0, 0.0, 0.0, -2202.607953859324, 0.0]
['beep', 0.0, 208.27355483455122, 0.0, 0.0, 0.0, 0.0, -2195.2542299335278, 0.0]
['beep', 0.0, 250.6524623218134, 0.0, 0.0, 0.0, 0.0, -2190.4262531311815, 0.0]
['beep', 0.0, 249.0654884654866, 0.0, 0.0, 0.0, 0.0, -2185.1288896952738, 0.0]
['beep', 0.0, 250.987738488643, 0.0, 0.0, 0.0, 0.0, -2178.9374564811537, 0.0]
['beep', 0.0, 249.55722684350334, 0.0, 0.0, 0.0, 0.0, -2173.081299433863, 0.0]
['beep', 0.0, 249.7583925436011, 0.0, 0.0, 0.0, 0.0, -2167.9851016980533, 0.0]
['beep', 0.0, 251.56888384448098, 0.0, 0.0, 0.0, 0.0, -2160.832543472355, 0.0]
['beep', 0.0, 251.39006988883853, 0.0, 0.0, 0.0, 0.0, -2154.082316646852, 0.0]
['beep', 0.0, 200.22692683064068, 0.0, 0.0, 0.0, 0.0, -2149.9472439226206, 0.0]
['beep', 0.0, 151.9024553182668, 0.0, 0.0, 0.0, 0.0, -2147.6897177326346, 0.0]
['beep', 0.0, 187.28526679101788, 0.0, 0.0, 0.0, 0.0, -2141.7888571964336, 0.0]
['beep', 0.0, 243.7681250295788, 0.0, 0.0, 0.0, 0.0, -2139.3078135618944, 0.0]
['beep', 0.0, 243.54460758502574, 0.0, 0.0, 0.0, 0.0, -2137.9890606390313, 0.0]
['beep', 0.0, 221.43873231872706, 0.0, 0.0, 0.0, 0.0, -2134.122208848263, 0.0]
['beep', 0.0, 155.25521698656286, 0.0, 0.0, 0.0, 0.0, -2132.3340692918387, 0.0]
['beep', 0.0, 187.6652464467581, 0.0, 0.0, 0.0, 0.0, -2131.864682658277, 0.0]
['beep', 0.0, 239.20836916069618, 0.0, 0.0, 0.0, 0.0, -2130.3000605464053, 0.0]
['beep', 0.0, 242.3823168733498, 0.0, 0.0, 0.0, 0.0, -2127.863720400777, 0.0]
['beep', 0.0, 243.61166281839166, 0.0, 0.0, 0.0, 0.0, -2126.433208755637, 0.0]
['beep', 0.0, 242.98581397364308, 0.0, 0.0, 0.0, 0.0, -2127.148464578207, 0.0]
['beep', 0.0, 244.01399421858721, 0.0, 0.0, 0.0, 0.0, -2128.8024936679, 0.0]
['beep', 0.0, 245.77978203055645, 0.0, 0.0, 0.0, 0.0, -2129.651859957202, 0.0]
['beep', 0.0, 246.33857564193914, 0.0, 0.0, 0.0, 0.0, -2132.7811041809446, 0.0]
['beep', 0.0, 210.68754323572438, 0.0, 0.0, 0.0, 0.0, -2134.0551536148973, 0.0]
['beep', 0.0, 153.64589138578074, 0.0, 0.0, 0.0, 0.0, -2136.0221071269643, 0.0]
['beep', 0.0, 194.9742668836435, 0.0, 0.0, 0.0, 0.0, -2140.4924560180257, 0.0]
['beep', 0.0, 241.82352326196713, 0.0, 0.0, 0.0, 0.0, -2147.265034587984, 0.0]
['beep', 0.0, 247.29970065351733, 0.0, 0.0, 0.0, 0.0, -2150.416630556182, 0.0]
['beep', 0.0, 250.3171861549838, 0.0, 0.0, 0.0, 0.0, -2153.791743968933, 0.0]
['beep', 0.0, 248.3949361318274, 0.0, 0.0, 0.0, 0.0, -2156.47395330357, 0.0]
['beep', 0.0, 247.70203205371286, 0.0, 0.0, 0.0, 0.0, -2159.7820114829556, 0.0]
['beep', 0.0, 249.0654884654866, 0.0, 0.0, 0.0, 0.0, -2164.632340029757, 0.0]
['beep', 0.0, 249.26665416558436, 0.0, 0.0, 0.0, 0.0, -2170.6226075437794, 0.0]
['beep', 0.0, 215.26965084906232, 0.0, 0.0, 0.0, 0.0, -2175.1153081792963, 0.0]
['beep', 0.0, 156.84219084288966, 0.0, 0.0, 0.0, 0.0, -2179.0268634589747, 0.0]
['beep', 0.0, 194.39312152780553, 0.0, 0.0, 0.0, 0.0, -2183.8771920057766, 0.0]
['beep', 0.0, 248.0820117094531, 0.0, 0.0, 0.0, 0.0, -2187.9452094966423, 0.0]
['beep', 0.0, 251.3230146554726, 0.0, 0.0, 0.0, 0.0, -2191.633247331768, 0.0]
['beep', 0.0, 251.54653210002567, 0.0, 0.0, 0.0, 0.0, -2197.2658869345055, 0.0]
['beep', 0.0, 251.8594565224, 0.0, 0.0, 0.0, 0.0, -2198.986971257564, 0.0]
['beep', 0.0, 251.6359390778469, 0.0, 0.0, 0.0, 0.0, -2200.5515933694355, 0.0]
['beep', 0.0, 252.28413966705082, 0.0, 0.0, 0.0, 0.0, -2204.798424815944, 0.0]
['beep', 0.0, 251.99356698913184, 0.0, 0.0, 0.0, 0.0, -2206.7877300724663, 0.0]
['beep', 0.0, 224.6573835202913, 0.0, 0.0, 0.0, 0.0, -2209.2240702180948, 0.0]
['beep', 0.0, 164.75470838006837, 0.0, 0.0, 0.0, 0.0, -2213.1356254977736, 0.0]
['beep', 0.0, 195.22013607265188, 0.0, 0.0, 0.0, 0.0, -2213.359142942327, 0.0]
['beep', 0.0, 250.74186929963463, 0.0, 0.0, 0.0, 0.0, -2216.1084075103295, 0.0]
['beep', 0.0, 256.3521571579167, 0.0, 0.0, 0.0, 0.0, -2218.3882854447706, 0.0]
['beep', 0.0, 255.92747401326588, 0.0, 0.0, 0.0, 0.0, -2219.952907556642, 0.0]
['beep', 0.0, 255.1004594684195, 0.0, 0.0, 0.0, 0.0, -2223.7750558585, 0.0]
['beep', 0.0, 254.58636934594745, 0.0, 0.0, 0.0, 0.0, -2225.2279192480946, 0.0]
['beep', 0.0, 254.60872109040275, 0.0, 0.0, 0.0, 0.0, -2227.083114037885, 0.0]
['beep', 0.0, 254.65342457931337, 0.0, 0.0, 0.0, 0.0, -2228.983012316586, 0.0]
['beep', 0.0, 206.5971740004032, 0.0, 0.0, 0.0, 0.0, -2229.698268139156, 0.0]
['beep', 0.0, 159.5467519219818, 0.0, 0.0, 0.0, 0.0, -2229.5865094168794, 0.0]
['beep', 0.0, 206.26189783357358, 0.0, 0.0, 0.0, 0.0, -2229.698268139156, 0.0]
['beep', 0.0, 255.34632865742788, 0.0, 0.0, 0.0, 0.0, -2232.53693968498, 0.0]
['beep', 0.0, 257.69326182523514, 0.0, 0.0, 0.0, 0.0, -2234.5262449415022, 0.0]
['beep', 0.0, 257.2015234472184, 0.0, 0.0, 0.0, 0.0, -2234.0121548190305, 0.0]
['beep', 0.0, 258.02853799206474, 0.0, 0.0, 0.0, 0.0, -2234.9732798306086, 0.0]
['beep', 0.0, 258.2073519477072, 0.0, 0.0, 0.0, 0.0, -2234.928576341698, 0.0]
['beep', 0.0, 257.5591513585033, 0.0, 0.0, 0.0, 0.0, -2236.20262577565, 0.0]
['beep', 0.0, 257.00035774712063, 0.0, 0.0, 0.0, 0.0, -2239.06364906593, 0.0]
['beep', 0.0, 216.119017138364, 0.0, 0.0, 0.0, 0.0, -2238.437800221181, 0.0]
['beep', 0.0, 162.89951359027788, 0.0, 0.0, 0.0, 0.0, -2236.8731781093097, 0.0]
['beep', 0.0, 198.7293599521351, 0.0, 0.0, 0.0, 0.0, -2237.096695553863, 0.0]
['beep', 0.0, 254.56401760149214, 0.0, 0.0, 0.0, 0.0, -2238.862483365832, 0.0]
['beep', 0.0, 259.2355321926513, 0.0, 0.0, 0.0, 0.0, -2239.2201112771168, 0.0]
['beep', 0.0, 259.2355321926513, 0.0, 0.0, 0.0, 0.0, -2239.890663610776, 0.0]
['beep', 0.0, 260.33076767096134, 0.0, 0.0, 0.0, 0.0, -2239.2424630215723, 0.0]
['beep', 0.0, 259.74962231512336, 0.0, 0.0, 0.0, 0.0, -2239.5777391884017, 0.0]
['beep', 0.0, 261.13543047135244, 0.0, 0.0, 0.0, 0.0, -2241.7458584005667, 0.0]
['beep', 0.0, 260.06254673749766, 0.0, 0.0, 0.0, 0.0, -2241.0082508335413, 0.0]
['beep', 0.0, 218.82357821745615, 0.0, 0.0, 0.0, 0.0, -2239.8459601218656, 0.0]
['beep', 0.0, 164.41943221323876, 0.0, 0.0, 0.0, 0.0, -2240.829436877899, 0.0]
['beep', 0.0, 198.90817390777755, 0.0, 0.0, 0.0, 0.0, -2241.343527000371, 0.0]
['beep', 0.0, 254.25109317911785, 0.0, 0.0, 0.0, 0.0, -2242.5505212009575, 0.0]
['beep', 0.0, 258.922607770277, 0.0, 0.0, 0.0, 0.0, -2243.4669427236254, 0.0]
['beep', 0.0, 256.9780060026653, 0.0, 0.0, 0.0, 0.0, -2243.377535745804, 0.0]
['beep', 0.0, 258.4979246256262, 0.0, 0.0, 0.0, 0.0, -2242.438762478681, 0.0]
['beep', 0.0, 259.03436649255354, 0.0, 0.0, 0.0, 0.0, -2243.288128767983, 0.0]
['beep', 0.0, 259.1461252148301, 0.0, 0.0, 0.0, 0.0, -2245.612710191335, 0.0]
['beep', 0.0, 256.77684030256756, 0.0, 0.0, 0.0, 0.0, -2243.9363293571864, 0.0]
['beep', 0.0, 211.64866824730257, 0.0, 0.0, 0.0, 0.0, -2244.4951229685694, 0.0]
['beep', 0.0, 162.51953393453766, 0.0, 0.0, 0.0, 0.0, -2243.891625868276, 0.0]
['beep', 0.0, 198.63995297431387, 0.0, 0.0, 0.0, 0.0, -2243.8022188904547, 0.0]
['beep', 0.0, 255.3910321463385, 0.0, 0.0, 0.0, 0.0, -2244.2269020351055, 0.0]
['beep', 0.0, 260.1296019708636, 0.0, 0.0, 0.0, 0.0, -2244.53982645748, 0.0]
['beep', 0.0, 257.5591513585033, 0.0, 0.0, 0.0, 0.0, -2245.25508228005, 0.0]
['beep', 0.0, 258.02853799206474, 0.0, 0.0, 0.0, 0.0, -2245.8809311247983, 0.0]
['beep', 0.0, 257.8944275253329, 0.0, 0.0, 0.0, 0.0, -2246.238559036083, 0.0]
['beep', 0.0, 258.2520554366178, 0.0, 0.0, 0.0, 0.0, -2246.931463114198, 0.0]
['beep', 0.0, 257.9391310142435, 0.0, 0.0, 0.0, 0.0, -2247.4232014922145, 0.0]
['beep', 0.0, 214.71085723767965, 0.0, 0.0, 0.0, 0.0, -2246.4844282250915, 0.0]
['beep', 0.0, 163.57006592393708, 0.0, 0.0, 0.0, 0.0, -2245.7915241469773, 0.0]
['beep', 0.0, 198.28232506302896, 0.0, 0.0, 0.0, 0.0, -2246.0820968248963, 0.0]
['beep', 0.0, 253.93816875674355, 0.0, 0.0, 0.0, 0.0, -2246.9091113697423, 0.0]
['beep', 0.0, 258.5649798589921, 0.0, 0.0, 0.0, 0.0, -2246.5514834584574, 0.0]
['beep', 0.0, 260.04019499304235, 0.0, 0.0, 0.0, 0.0, -2247.8478846368653, 0.0]
['beep', 0.0, 260.68839558224624, 0.0, 0.0, 0.0, 0.0, -2247.0655735809296, 0.0]
['beep', 0.0, 257.78266880305637, 0.0, 0.0, 0.0, 0.0, -2246.4844282250915, 0.0]
['beep', 0.0, 256.8885990248441, 0.0, 0.0, 0.0, 0.0, -2248.0266985925077, 0.0]
['beep', 0.0, 255.77101180207873, 0.0, 0.0, 0.0, 0.0, -2250.6418526937787, 0.0]
['beep', 0.0, 207.2677263340624, 0.0, 0.0, 0.0, 0.0, -2248.853713137354, 0.0]
['beep', 0.0, 162.0724990454315, 0.0, 0.0, 0.0, 0.0, -2247.222035792117, 0.0]
['beep', 0.0, 199.57872624143675, 0.0, 0.0, 0.0, 0.0, -2247.378498003304, 0.0]
['beep', 0.0, 255.70395656871278, 0.0, 0.0, 0.0, 0.0, -2248.7419544150775, 0.0]
['beep', 0.0, 259.41434614829376, 0.0, 0.0, 0.0, 0.0, -2250.150114315762, 0.0]
['beep', 0.0, 260.7778025600675, 0.0, 0.0, 0.0, 0.0, -2250.6195009493235, 0.0]
['beep', 0.0, 261.3589479159055, 0.0, 0.0, 0.0, 0.0, -2248.8090096484434, 0.0]
['beep', 0.0, 259.4814013816597, 0.0, 0.0, 0.0, 0.0, -2247.870236381321, 0.0]
['beep', 0.0, 259.01201474809824, 0.0, 0.0, 0.0, 0.0, -2247.4232014922145, 0.0]
['beep', 0.0, 258.76614555908986, 0.0, 0.0, 0.0, 0.0, -2247.9372916146867, 0.0]
['beep', 0.0, 216.58840377192544, 0.0, 0.0, 0.0, 0.0, -2250.172466060217, 0.0]
['beep', 0.0, 164.28532174650692, 0.0, 0.0, 0.0, 0.0, -2248.227864292606, 0.0]
['beep', 0.0, 198.30467680748427, 0.0, 0.0, 0.0, 0.0, -2248.20551254815, 0.0]
['beep', 0.0, 254.87694202386643, 0.0, 0.0, 0.0, 0.0, -2250.2842247824938, 0.0]
['beep', 0.0, 258.67673858126864, 0.0, 0.0, 0.0, 0.0, -2250.150114315762, 0.0]
['beep', 0.0, 259.41434614829376, 0.0, 0.0, 0.0, 0.0, -2247.378498003304, 0.0]
['beep', 0.0, 260.06254673749766, 0.0, 0.0, 0.0, 0.0, -2249.0101753485415, 0.0]
['beep', 0.0, 259.43669789274907, 0.0, 0.0, 0.0, 0.0, -2250.1054108268513, 0.0]
['beep', 0.0, 259.66021533730213, 0.0, 0.0, 0.0, 0.0, -2249.63602419329, 0.0]
['beep', 0.0, 259.9284362707658, 0.0, 0.0, 0.0, 0.0, -2251.759439916544, 0.0]
['beep', 0.0, 222.26574686357344, 0.0, 0.0, 0.0, 0.0, -2251.178294560706, 0.0]
['beep', 0.0, 165.02292931353205, 0.0, 0.0, 0.0, 0.0, -2250.3959835047704, 0.0]
['beep', 0.0, 195.48835700611556, 0.0, 0.0, 0.0, 0.0, -2249.859541637843, 0.0]
['beep', 0.0, 254.54166585703683, 0.0, 0.0, 0.0, 0.0, -2250.7759631605104, 0.0]
['beep', 0.0, 260.30841592650603, 0.0, 0.0, 0.0, 0.0, -2251.44651549417, 0.0]
['beep', 0.0, 261.0236717490759, 0.0, 0.0, 0.0, 0.0, -2251.2006463051616, 0.0]
['beep', 0.0, 258.40851764780496, 0.0, 0.0, 0.0, 0.0, -2250.3065765269494, 0.0]
['beep', 0.0, 258.31911066998373, 0.0, 0.0, 0.0, 0.0, -2250.440686993681, 0.0]
['beep', 0.0, 259.39199440383845, 0.0, 0.0, 0.0, 0.0, -2251.2900532829826, 0.0]
['beep', 0.0, 260.06254673749766, 0.0, 0.0, 0.0, 0.0, -2250.083059082396, 0.0]
['beep', 0.0, 214.75556072659026, 0.0, 0.0, 0.0, 0.0, -2252.3852887612925, 0.0]
['beep', 0.0, 164.82176361343429, 0.0, 0.0, 0.0, 0.0, -2251.088887582885, 0.0]
['beep', 0.0, 199.7128367081686, 0.0, 0.0, 0.0, 0.0, -2250.2618730380386, 0.0]
['beep', 0.0, 255.34632865742788, 0.0, 0.0, 0.0, 0.0, -2251.2900532829826, 0.0]
['beep', 0.0, 260.4648781376932, 0.0, 0.0, 0.0, 0.0, -2252.3629370168373, 0.0]
['beep', 0.0, 261.6942240827351, 0.0, 0.0, 0.0, 0.0, -2252.0276608500076, 0.0]
['beep', 0.0, 262.0295002495647, 0.0, 0.0, 0.0, 0.0, -2250.3289282714045, 0.0]
['beep', 0.0, 260.44252639323787, 0.0, 0.0, 0.0, 0.0, -2251.6700329387227, 0.0]
['beep', 0.0, 260.10725022640827, 0.0, 0.0, 0.0, 0.0, -2251.8711986388207, 0.0]
['beep', 0.0, 259.68256708175744, 0.0, 0.0, 0.0, 0.0, -2250.6642044382343, 0.0]
['beep', 0.0, 213.52621478154836, 0.0, 0.0, 0.0, 0.0, -2251.3124050274378, 0.0]
['beep', 0.0, 163.21243801265217, 0.0, 0.0, 0.0, 0.0, -2251.021832349519, 0.0]
['beep', 0.0, 197.43295877372728, 0.0, 0.0, 0.0, 0.0, -2249.7254311711113, 0.0]
['beep', 0.0, 255.88277052435527, 0.0, 0.0, 0.0, 0.0, -2252.139419572284, 0.0]
['beep', 0.0, 260.9342647712547, 0.0, 0.0, 0.0, 0.0, -2252.854675394854, 0.0]
['beep', 0.0, 259.1237734703748, 0.0, 0.0, 0.0, 0.0, -2250.798314904966, 0.0]
['beep', 0.0, 261.4260031492714, 0.0, 0.0, 0.0, 0.0, -2249.568968959924, 0.0]
['beep', 0.0, 262.20831420520716, 0.0, 0.0, 0.0, 0.0, -2250.239521293583, 0.0]
['beep', 0.0, 259.70491882621275, 0.0, 0.0, 0.0, 0.0, -2250.9100736272426, 0.0]
['beep', 0.0, 260.2637124375954, 0.0, 0.0, 0.0, 0.0, -2250.530093971502, 0.0]
['beep', 0.0, 229.55241555600352, 0.0, 0.0, 0.0, 0.0, -2250.9100736272426, 0.0]
['beep', 0.0, 167.4592694591605, 0.0, 0.0, 0.0, 0.0, -2249.792486404477, 0.0]
['beep', 0.0, 198.1035111073865, 0.0, 0.0, 0.0, 0.0, -2250.1948178046728, 0.0]
['beep', 0.0, 256.26275018009545, 0.0, 0.0, 0.0, 0.0, -2250.6865561826894, 0.0]
['beep', 0.0, 262.47653513867084, 0.0, 0.0, 0.0, 0.0, -2250.7312596716, 0.0]
['beep', 0.0, 261.0460234935312, 0.0, 0.0, 0.0, 0.0, -2250.574797460413, 0.0]
['beep', 0.0, 260.4872298821485, 0.0, 0.0, 0.0, 0.0, -2248.5854922038907, 0.0]
['beep', 0.0, 260.82250604897814, 0.0, 0.0, 0.0, 0.0, -2248.7866579039883, 0.0]
['beep', 0.0, 261.6495205938245, 0.0, 0.0, 0.0, 0.0, -2250.798314904966, 0.0]
['beep', 0.0, 259.4814013816597, 0.0, 0.0, 0.0, 0.0, -2251.468867238625, 0.0]
['beep', 0.0, 221.14815964080807, 0.0, 0.0, 0.0, 0.0, -2251.178294560706, 0.0]
['beep', 0.0, 167.14634503678622, 0.0, 0.0, 0.0, 0.0, -2251.2006463051616, 0.0]
['beep', 0.0, 198.0364558740206, 0.0, 0.0, 0.0, 0.0, -2250.8430183938767, 0.0]
['beep', 0.0, 254.7651833015899, 0.0, 0.0, 0.0, 0.0, -2250.954777116153, 0.0]
['beep', 0.0, 260.82250604897814, 0.0, 0.0, 0.0, 0.0, -2251.535922471991, 0.0]
['beep', 0.0, 260.04019499304235, 0.0, 0.0, 0.0, 0.0, -2252.429992250203, 0.0]
['beep', 0.0, 259.70491882621275, 0.0, 0.0, 0.0, 0.0, -2250.0383555934854, 0.0]
['beep', 0.0, 259.5931601039362, 0.0, 0.0, 0.0, 0.0, -2248.563140459435, 0.0]
['beep', 0.0, 258.4755728811709, 0.0, 0.0, 0.0, 0.0, -2247.602015447857, 0.0]
['beep', 0.0, 257.8944275253329, 0.0, 0.0, 0.0, 0.0, -2249.7477829155664, 0.0]
['beep', 0.0, 216.4542933051936, 0.0, 0.0, 0.0, 0.0, -2251.82649514991, 0.0]
['beep', 0.0, 164.48648744660468, 0.0, 0.0, 0.0, 0.0, -2250.530093971502, 0.0]
['beep', 0.0, 196.538888995515, 0.0, 0.0, 0.0, 0.0, -2249.5913207043795, 0.0]
['beep', 0.0, 254.98870074614297, 0.0, 0.0, 0.0, 0.0, -2250.0383555934854, 0.0]
['beep', 0.0, 260.86720953788875, 0.0, 0.0, 0.0, 0.0, -2250.239521293583, 0.0]
['beep', 0.0, 261.9177415272882, 0.0, 0.0, 0.0, 0.0, -2250.3959835047704, 0.0]
['beep', 0.0, 262.9682735166876, 0.0, 0.0, 0.0, 0.0, -2249.0772305819073, 0.0]
['beep', 0.0, 262.4094799053049, 0.0, 0.0, 0.0, 0.0, -2250.887721882787, 0.0]
['beep', 0.0, 260.4648781376932, 0.0, 0.0, 0.0, 0.0, -2252.5193992280247, 0.0]
['beep', 0.0, 261.0460234935312, 0.0, 0.0, 0.0, 0.0, -2253.3240620284155, 0.0]
['beep', 0.0, 233.17339815776327, 0.0, 0.0, 0.0, 0.0, -2254.084021339896, 0.0]
['beep', 0.0, 169.9403130936996, 0.0, 0.0, 0.0, 0.0, -2249.9042451267537, 0.0]
['beep', 0.0, 196.42713027323848, 0.0, 0.0, 0.0, 0.0, -2249.2560445375498, 0.0]
['beep', 0.0, 254.116982712386, 0.0, 0.0, 0.0, 0.0, -2248.7196026706224, 0.0]
['beep', 0.0, 260.04019499304235, 0.0, 0.0, 0.0, 0.0, -2249.412506748737, 0.0]
['beep', 0.0, 260.598988604425, 0.0, 0.0, 0.0, 0.0, -2250.2618730380386, 0.0]
['beep', 0.0, 260.01784324858704, 0.0, 0.0, 0.0, 0.0, -2249.837189893388, 0.0]
['beep', 0.0, 260.39782290432726, 0.0, 0.0, 0.0, 0.0, -2250.530093971502, 0.0]
['beep', 0.0, 261.0460234935312, 0.0, 0.0, 0.0, 0.0, -2250.865370138332, 0.0]
['beep', 0.0, 259.794325804034, 0.0, 0.0, 0.0, 0.0, -2250.7312596716, 0.0]
['beep', 0.0, 213.92854618174388, 0.0, 0.0, 0.0, 0.0, -2252.1617713167398, 0.0]
['beep', 0.0, 165.26879850254042, 0.0, 0.0, 0.0, 0.0, -2249.2560445375498, 0.0]
['beep', 0.0, 199.46696751916022, 0.0, 0.0, 0.0, 0.0, -2250.150114315762, 0.0]
['beep', 0.0, 256.9780060026653, 0.0, 0.0, 0.0, 0.0, -2250.083059082396, 0.0]
['beep', 0.0, 261.6942240827351, 0.0, 0.0, 0.0, 0.0, -2252.0723643389183, 0.0]
['beep', 0.0, 261.80598280501164, 0.0, 0.0, 0.0, 0.0, -2250.954777116153, 0.0]
['beep', 0.0, 262.2530176941178, 0.0, 0.0, 0.0, 0.0, -2250.4183352492255, 0.0]
['beep', 0.0, 261.20248570471836, 0.0, 0.0, 0.0, 0.0, -2252.8099719059437, 0.0]
['beep', 0.0, 261.9847967606541, 0.0, 0.0, 0.0, 0.0, -2250.6865561826894, 0.0]
['beep', 0.0, 261.47070663818204, 0.0, 0.0, 0.0, 0.0, -2250.9771288606084, 0.0]
['beep', 0.0, 225.19382538721865, 0.0, 0.0, 0.0, 0.0, -2251.401812005259, 0.0]
['beep', 0.0, 169.06859505994262, 0.0, 0.0, 0.0, 0.0, -2250.7759631605104, 0.0]
['beep', 0.0, 201.45627277568255, 0.0, 0.0, 0.0, 0.0, -2250.5524457159577, 0.0]
['beep', 0.0, 259.9284362707658, 0.0, 0.0, 0.0, 0.0, -2251.8711986388207, 0.0]
['beep', 0.0, 265.5610758735032, 0.0, 0.0, 0.0, 0.0, -2250.4183352492255, 0.0]
['beep', 0.0, 267.8633055523998, 0.0, 0.0, 0.0, 0.0, -2249.3678032598264, 0.0]
['beep', 0.0, 266.7457183296345, 0.0, 0.0, 0.0, 0.0, -2249.7030794266557, 0.0]
['beep', 0.0, 266.0751659959753, 0.0, 0.0, 0.0, 0.0, -2246.8197043919213, 0.0]
['beep', 0.0, 264.6223026063803, 0.0, 0.0, 0.0, 0.0, -2245.8362276358876, 0.0]
['beep', 0.0, 263.54941887252556, 0.0, 0.0, 0.0, 0.0, -2246.506779969547, 0.0]
['beep', 0.0, 223.8080172309896, 0.0, 0.0, 0.0, 0.0, -2247.8031811479545, 0.0]
['beep', 0.0, 167.88395260381134, 0.0, 0.0, 0.0, 0.0, -2248.563140459435, 0.0]
['beep', 0.0, 198.32702855193958, 0.0, 0.0, 0.0, 0.0, -2250.507742227047, 0.0]
['beep', 0.0, 256.57567460246975, 0.0, 0.0, 0.0, 0.0, -2249.121934070818, 0.0]
['beep', 0.0, 262.54359037203676, 0.0, 0.0, 0.0, 0.0, -2248.183160803695, 0.0]
['beep', 0.0, 263.50471538361495, 0.0, 0.0, 0.0, 0.0, -2248.406678248248, 0.0]
['beep', 0.0, 264.0411572505423, 0.0, 0.0, 0.0, 0.0, -2249.7477829155664, 0.0]
['beep', 0.0, 263.16943921678535, 0.0, 0.0, 0.0, 0.0, -2250.0160038490303, 0.0]
['beep', 0.0, 263.10238398341943, 0.0, 0.0, 0.0, 0.0, -2249.3007480264605, 0.0]
['beep', 0.0, 263.6164741058915, 0.0, 0.0, 0.0, 0.0, -2250.8430183938767, 0.0]
['beep', 0.0, 234.96153771418784, 0.0, 0.0, 0.0, 0.0, -2250.1054108268513, 0.0]
['beep', 0.0, 173.4048334842722, 0.0, 0.0, 0.0, 0.0, -2250.6642044382343, 0.0]
['beep', 0.0, 201.79154894251215, 0.0, 0.0, 0.0, 0.0, -2250.9324253716977, 0.0]
['beep', 0.0, 258.8108490480005, 0.0, 0.0, 0.0, 0.0, -2252.3629370168373, 0.0]
['beep', 0.0, 264.6670060952909, 0.0, 0.0, 0.0, 0.0, -2252.9664341171306, 0.0]
['beep', 0.0, 262.9906252611429, 0.0, 0.0, 0.0, 0.0, -2254.061669595441, 0.0]
['beep', 0.0, 262.0295002495647, 0.0, 0.0, 0.0, 0.0, -2250.1948178046728, 0.0]
['beep', 0.0, 261.9624450161988, 0.0, 0.0, 0.0, 0.0, -2249.501913726558, 0.0]
['beep', 0.0, 263.12473572787474, 0.0, 0.0, 0.0, 0.0, -2250.9100736272426, 0.0]
['beep', 0.0, 263.10238398341943, 0.0, 0.0, 0.0, 0.0, -2250.463038738136, 0.0]
['beep', 0.0, 224.88090096484436, 0.0, 0.0, 0.0, 0.0, -2253.2346550505945, 0.0]
['beep', 0.0, 168.88978110430017, 0.0, 0.0, 0.0, 0.0, -2254.754573673555, 0.0]
['beep', 0.0, 197.38825528481667, 0.0, 0.0, 0.0, 0.0, -2253.5252277285135, 0.0]
['beep', 0.0, 257.35798565840554, 0.0, 0.0, 0.0, 0.0, -2252.698213183667, 0.0]
['beep', 0.0, 264.3317299284613, 0.0, 0.0, 0.0, 0.0, -2252.20647480565, 0.0]
['beep', 0.0, 265.3822619178608, 0.0, 0.0, 0.0, 0.0, -2250.798314904966, 0.0]
['beep', 0.0, 265.7175380846904, 0.0, 0.0, 0.0, 0.0, -2250.0383555934854, 0.0]
['beep', 0.0, 265.24815145112893, 0.0, 0.0, 0.0, 0.0, -2249.7477829155664, 0.0]
['beep', 0.0, 266.00811076260936, 0.0, 0.0, 0.0, 0.0, -2250.485390482592, 0.0]
['beep', 0.0, 264.8011165620228, 0.0, 0.0, 0.0, 0.0, -2252.8099719059437, 0.0]
['beep', 0.0, 236.23558714814035, 0.0, 0.0, 0.0, 0.0, -2251.9382538721866, 0.0]
['beep', 0.0, 173.7848131400124, 0.0, 0.0, 0.0, 0.0, -2252.094716083374, 0.0]
['beep', 0.0, 198.12586285184182, 0.0, 0.0, 0.0, 0.0, -2252.094716083374, 0.0]
['beep', 0.0, 258.2744071810731, 0.0, 0.0, 0.0, 0.0, -2251.3124050274378, 0.0]
['beep', 0.0, 263.6835293392574, 0.0, 0.0, 0.0, 0.0, -2252.7429166725774, 0.0]
['beep', 0.0, 263.4153084057937, 0.0, 0.0, 0.0, 0.0, -2252.698213183667, 0.0]
['beep', 0.0, 263.2811979390619, 0.0, 0.0, 0.0, 0.0, -2252.5193992280247, 0.0]
['beep', 0.0, 263.86234329489986, 0.0, 0.0, 0.0, 0.0, -2252.6311579503013, 0.0]
['beep', 0.0, 265.8292968069669, 0.0, 0.0, 0.0, 0.0, -2252.5864544613905, 0.0]
['beep', 0.0, 264.7564130731122, 0.0, 0.0, 0.0, 0.0, -2254.955739373653, 0.0]
['beep', 0.0, 228.94891845571024, 0.0, 0.0, 0.0, 0.0, -2254.5310562290024, 0.0]
['beep', 0.0, 170.9014381052778, 0.0, 0.0, 0.0, 0.0, -2251.6700329387227, 0.0]
['beep', 0.0, 200.40574078628313, 0.0, 0.0, 0.0, 0.0, -2251.5806259609017, 0.0]
['beep', 0.0, 259.36964265938315, 0.0, 0.0, 0.0, 0.0, -2251.513570727536, 0.0]
['beep', 0.0, 263.3482531724278, 0.0, 0.0, 0.0, 0.0, -2252.2511782945608, 0.0]
['beep', 0.0, 264.71170958420157, 0.0, 0.0, 0.0, 0.0, -2253.279358539505, 0.0]
['beep', 0.0, 264.19761946172946, 0.0, 0.0, 0.0, 0.0, -2252.765268417033, 0.0]
['beep', 0.0, 264.4211369062825, 0.0, 0.0, 0.0, 0.0, -2251.468867238625, 0.0]
['beep', 0.0, 263.9517502727211, 0.0, 0.0, 0.0, 0.0, -2252.3182335279266, 0.0]
['beep', 0.0, 261.9400932717435, 0.0, 0.0, 0.0, 0.0, -2253.3017102839603, 0.0]
['beep', 0.0, 223.0927614084198, 0.0, 0.0, 0.0, 0.0, -2251.6923846831783, 0.0]
['beep', 0.0, 168.3533392373728, 0.0, 0.0, 0.0, 0.0, -2250.597149204868, 0.0]
['beep', 0.0, 196.58359248442562, 0.0, 0.0, 0.0, 0.0, -2250.9771288606084, 0.0]
['beep', 0.0, 260.71074732670155, 0.0, 0.0, 0.0, 0.0, -2249.479561982103, 0.0]
['beep', 0.0, 267.729195085668, 0.0, 0.0, 0.0, 0.0, -2249.63602419329, 0.0]
['beep', 0.0, 265.1587444733077, 0.0, 0.0, 0.0, 0.0, -2250.3512800158596, 0.0]
['beep', 0.0, 264.7787648175675, 0.0, 0.0, 0.0, 0.0, -2249.63602419329, 0.0]
['beep', 0.0, 264.95757877320995, 0.0, 0.0, 0.0, 0.0, -2250.172466060217, 0.0]
['beep', 0.0, 265.02463400657587, 0.0, 0.0, 0.0, 0.0, -2251.535922471991, 0.0]
['beep', 0.0, 265.4493171512267, 0.0, 0.0, 0.0, 0.0, -2251.021832349519, 0.0]
['beep', 0.0, 233.79924700251186, 0.0, 0.0, 0.0, 0.0, -2252.2288265501056, 0.0]
['beep', 0.0, 171.48258346111578, 0.0, 0.0, 0.0, 0.0, -2251.3124050274378, 0.0]
['beep', 0.0, 196.829461673434, 0.0, 0.0, 0.0, 0.0, -2249.792486404477, 0.0]
['beep', 0.0, 256.95565425821, 0.0, 0.0, 0.0, 0.0, -2251.178294560706, 0.0]
['beep', 0.0, 265.0916892399418, 0.0, 0.0, 0.0, 0.0, -2253.1005445838628, 0.0]
['beep', 0.0, 265.0469857510312, 0.0, 0.0, 0.0, 0.0, -2252.429992250203, 0.0]
['beep', 0.0, 264.7787648175675, 0.0, 0.0, 0.0, 0.0, -2252.0723643389183, 0.0]
['beep', 0.0, 264.48819213964845, 0.0, 0.0, 0.0, 0.0, -2251.2900532829826, 0.0]
['beep', 0.0, 265.67283459577976, 0.0, 0.0, 0.0, 0.0, -2251.9829573610973, 0.0]
['beep', 0.0, 264.309378184006, 0.0, 0.0, 0.0, 0.0, -2252.54175097248, 0.0]
['beep', 0.0, 225.3949910873164, 0.0, 0.0, 0.0, 0.0, -2251.804143405455, 0.0]
['beep', 0.0, 169.47092646013814, 0.0, 0.0, 0.0, 0.0, -2251.6253294498124, 0.0]
['beep', 0.0, 196.22596457314071, 0.0, 0.0, 0.0, 0.0, -2250.1948178046728, 0.0]
['beep', 0.0, 257.42504089177146, 0.0, 0.0, 0.0, 0.0, -2251.5806259609017, 0.0]
['beep', 0.0, 265.2257997066736, 0.0, 0.0, 0.0, 0.0, -2252.094716083374, 0.0]
['beep', 0.0, 265.67283459577976, 0.0, 0.0, 0.0, 0.0, -2251.1335910717953, 0.0]
['beep', 0.0, 265.4269654067714, 0.0, 0.0, 0.0, 0.0, -2251.535922471991, 0.0]
['beep', 0.0, 264.7340613286569, 0.0, 0.0, 0.0, 0.0, -2251.3347567718934, 0.0]
['beep', 0.0, 265.1140409843971, 0.0, 0.0, 0.0, 0.0, -2250.6865561826894, 0.0]
['beep', 0.0, 265.181096217763, 0.0, 0.0, 0.0, 0.0, -2251.9159021277314, 0.0]
['beep', 0.0, 228.1666073997745, 0.0, 0.0, 0.0, 0.0, -2252.2735300390164, 0.0]
['beep', 0.0, 170.5214584495376, 0.0, 0.0, 0.0, 0.0, -2252.2958817834715, 0.0]
['beep', 0.0, 200.00340938608758, 0.0, 0.0, 0.0, 0.0, -2251.6923846831783, 0.0]
['beep', 0.0, 260.35311941541664, 0.0, 0.0, 0.0, 0.0, -2250.798314904966, 0.0]
['beep', 0.0, 266.0751659959753, 0.0, 0.0, 0.0, 0.0, -2252.474695739114, 0.0]
['beep', 0.0, 265.00228226212056, 0.0, 0.0, 0.0, 0.0, -2253.3240620284155, 0.0]
['beep', 0.0, 264.5775991174697, 0.0, 0.0, 0.0, 0.0, -2249.837189893388, 0.0]
['beep', 0.0, 265.33755842895016, 0.0, 0.0, 0.0, 0.0, -2251.2006463051616, 0.0]
['beep', 0.0, 266.0751659959753, 0.0, 0.0, 0.0, 0.0, -2250.7759631605104, 0.0]
['beep', 0.0, 264.7340613286569, 0.0, 0.0, 0.0, 0.0, -2251.3124050274378, 0.0]
['beep', 0.0, 229.30654636699515, 0.0, 0.0, 0.0, 0.0, -2252.54175097248, 0.0]
['beep', 0.0, 171.12495554983087, 0.0, 0.0, 0.0, 0.0, -2251.9606056166417, 0.0]
['beep', 0.0, 202.57385999844792, 0.0, 0.0, 0.0, 0.0, -2250.507742227047, 0.0]
['beep', 0.0, 261.20248570471836, 0.0, 0.0, 0.0, 0.0, -2249.501913726558, 0.0]
['beep', 0.0, 264.3764334173719, 0.0, 0.0, 0.0, 0.0, -2250.954777116153, 0.0]
['beep', 0.0, 265.96340727369875, 0.0, 0.0, 0.0, 0.0, -2252.2958817834715, 0.0]
['beep', 0.0, 266.2092764627071, 0.0, 0.0, 0.0, 0.0, -2252.429992250203, 0.0]
['beep', 0.0, 266.56690437399203, 0.0, 0.0, 0.0, 0.0, -2250.0607073379406, 0.0]
['beep', 0.0, 266.8798287963663, 0.0, 0.0, 0.0, 0.0, -2249.9042451267537, 0.0]
['beep', 0.0, 267.729195085668, 0.0, 0.0, 0.0, 0.0, -2249.524265471013, 0.0]
['beep', 0.0, 232.41343884628284, 0.0, 0.0, 0.0, 0.0, -2250.3289282714045, 0.0]
['beep', 0.0, 172.4660602171493, 0.0, 0.0, 0.0, 0.0, -2251.088887582885, 0.0]
['beep', 0.0, 197.5000140070932, 0.0, 0.0, 0.0, 0.0, -2248.630195692801, 0.0]
['beep', 0.0, 258.922607770277, 0.0, 0.0, 0.0, 0.0, -2249.7254311711113, 0.0]
['beep', 0.0, 265.5387241290479, 0.0, 0.0, 0.0, 0.0, -2251.401812005259, 0.0]
['beep', 0.0, 267.0362910075535, 0.0, 0.0, 0.0, 0.0, -2250.127762571307, 0.0]
['beep', 0.0, 267.1704014742853, 0.0, 0.0, 0.0, 0.0, -2250.239521293583, 0.0]
['beep', 0.0, 265.4940206401373, 0.0, 0.0, 0.0, 0.0, -2249.5913207043795, 0.0]
['beep', 0.0, 265.67283459577976, 0.0, 0.0, 0.0, 0.0, -2247.82553289241, 0.0]
['beep', 0.0, 265.1363927288524, 0.0, 0.0, 0.0, 0.0, -2249.568968959924, 0.0]
['beep', 0.0, 231.9664039571767, 0.0, 0.0, 0.0, 0.0, -2248.6525474372565, 0.0]
['beep', 0.0, 174.61182768485878, 0.0, 0.0, 0.0, 0.0, -2248.6748991817117, 0.0]
['beep', 0.0, 201.2551070755848, 0.0, 0.0, 0.0, 0.0, -2248.987823604086, 0.0]
['beep', 0.0, 261.20248570471836, 0.0, 0.0, 0.0, 0.0, -2249.568968959924, 0.0]
['beep', 0.0, 268.1538782303188, 0.0, 0.0, 0.0, 0.0, -2249.278396282005, 0.0]
['beep', 0.0, 268.1315264858635, 0.0, 0.0, 0.0, 0.0, -2250.127762571307, 0.0]
['beep', 0.0, 267.1704014742853, 0.0, 0.0, 0.0, 0.0, -2250.4183352492255, 0.0]
['beep', 0.0, 267.61743636339145, 0.0, 0.0, 0.0, 0.0, -2249.926596871209, 0.0]
['beep', 0.0, 266.36573867389427, 0.0, 0.0, 0.0, 0.0, -2250.6195009493235, 0.0]
['beep', 0.0, 266.3880904183496, 0.0, 0.0, 0.0, 0.0, -2251.535922471991, 0.0]
['beep', 0.0, 233.5980813024141, 0.0, 0.0, 0.0, 0.0, -2251.0665358384294, 0.0]
['beep', 0.0, 174.3436067513951, 0.0, 0.0, 0.0, 0.0, -2248.831361392899, 0.0]
['beep', 0.0, 200.5845547419256, 0.0, 0.0, 0.0, 0.0, -2249.3007480264605, 0.0]
['beep', 0.0, 261.13543047135244, 0.0, 0.0, 0.0, 0.0, -2247.914939870231, 0.0]
['beep', 0.0, 266.65631135181326, 0.0, 0.0, 0.0, 0.0, -2249.054878837452, 0.0]
['beep', 0.0, 265.8292968069669, 0.0, 0.0, 0.0, 0.0, -2249.792486404477, 0.0]
['beep', 0.0, 266.7904218185451, 0.0, 0.0, 0.0, 0.0, -2249.9042451267537, 0.0]
['beep', 0.0, 266.34338692943896, 0.0, 0.0, 0.0, 0.0, -2250.6418526937787, 0.0]
['beep', 0.0, 265.5610758735032, 0.0, 0.0, 0.0, 0.0, -2249.412506748737, 0.0]
['beep', 0.0, 265.2257997066736, 0.0, 0.0, 0.0, 0.0, -2250.0160038490303, 0.0]
['beep', 0.0, 236.3920493593275, 0.0, 0.0, 0.0, 0.0, -2249.3007480264605, 0.0]
['beep', 0.0, 173.69540616219118, 0.0, 0.0, 0.0, 0.0, -2248.697250926167, 0.0]
['beep', 0.0, 194.6166389723586, 0.0, 0.0, 0.0, 0.0, -2249.1666375597283, 0.0]
['beep', 0.0, 259.07906998146416, 0.0, 0.0, 0.0, 0.0, -2250.127762571307, 0.0]
['beep', 0.0, 267.01393926309817, 0.0, 0.0, 0.0, 0.0, -2252.6758614392115, 0.0]
['beep', 0.0, 266.90218054082163, 0.0, 0.0, 0.0, 0.0, -2252.3629370168373, 0.0]
['beep', 0.0, 266.34338692943896, 0.0, 0.0, 0.0, 0.0, -2251.0665358384294, 0.0]
['beep', 0.0, 265.0916892399418, 0.0, 0.0, 0.0, 0.0, -2249.524265471013, 0.0]
['beep', 0.0, 264.3317299284613, 0.0, 0.0, 0.0, 0.0, -2251.155942816251, 0.0]
['beep', 0.0, 266.0751659959753, 0.0, 0.0, 0.0, 0.0, -2250.865370138332, 0.0]
['beep', 0.0, 230.24531963411806, 0.0, 0.0, 0.0, 0.0, -2250.3065765269494, 0.0]
['beep', 0.0, 172.7566328950683, 0.0, 0.0, 0.0, 0.0, -2250.6418526937787, 0.0]
['beep', 0.0, 194.37076978335023, 0.0, 0.0, 0.0, 0.0, -2251.2229980496168, 0.0]
['beep', 0.0, 255.59219784643625, 0.0, 0.0, 0.0, 0.0, -2249.792486404477, 0.0]
['beep', 0.0, 264.8234683064781, 0.0, 0.0, 0.0, 0.0, -2249.859541637843, 0.0]
['beep', 0.0, 264.2646746950954, 0.0, 0.0, 0.0, 0.0, -2249.7477829155664, 0.0]
['beep', 0.0, 264.2646746950954, 0.0, 0.0, 0.0, 0.0, -2249.121934070818, 0.0]
['beep', 0.0, 265.58342761795853, 0.0, 0.0, 0.0, 0.0, -2248.1384573147843, 0.0]
['beep', 0.0, 266.05281425152, 0.0, 0.0, 0.0, 0.0, -2249.121934070818, 0.0]
['beep', 0.0, 265.00228226212056, 0.0, 0.0, 0.0, 0.0, -2250.2842247824938, 0.0]
['beep', 0.0, 238.11313368238615, 0.0, 0.0, 0.0, 0.0, -2249.501913726558, 0.0]
['beep', 0.0, 175.26002827406268, 0.0, 0.0, 0.0, 0.0, -2249.121934070818, 0.0]
['beep', 0.0, 195.55541223948148, 0.0, 0.0, 0.0, 0.0, -2247.959643359142, 0.0]
['beep', 0.0, 256.7097850692016, 0.0, 0.0, 0.0, 0.0, -2250.373631760315, 0.0]
['beep', 0.0, 265.33755842895016, 0.0, 0.0, 0.0, 0.0, -2251.2900532829826, 0.0]
['beep', 0.0, 265.2257997066736, 0.0, 0.0, 0.0, 0.0, -2251.2006463051616, 0.0]
['beep', 0.0, 264.018805506087, 0.0, 0.0, 0.0, 0.0, -2251.535922471991, 0.0]
['beep', 0.0, 264.2870264395507, 0.0, 0.0, 0.0, 0.0, -2250.2842247824938, 0.0]
['beep', 0.0, 266.4551456517155, 0.0, 0.0, 0.0, 0.0, -2251.3124050274378, 0.0]
['beep', 0.0, 267.01393926309817, 0.0, 0.0, 0.0, 0.0, -2250.127762571307, 0.0]
['beep', 0.0, 235.5203313255705, 0.0, 0.0, 0.0, 0.0, -2250.6195009493235, 0.0]
['beep', 0.0, 172.91309510625544, 0.0, 0.0, 0.0, 0.0, -2250.463038738136, 0.0]
['beep', 0.0, 191.442691259705, 0.0, 0.0, 0.0, 0.0, -2251.2677015385275, 0.0]
['beep', 0.0, 255.77101180207873, 0.0, 0.0, 0.0, 0.0, -2252.094716083374, 0.0]
['beep', 0.0, 266.90218054082163, 0.0, 0.0, 0.0, 0.0, -2252.6758614392115, 0.0]
['beep', 0.0, 268.1538782303188, 0.0, 0.0, 0.0, 0.0, -2252.3182335279266, 0.0]
['beep', 0.0, 267.438622407749, 0.0, 0.0, 0.0, 0.0, -2251.245349794072, 0.0]
['beep', 0.0, 266.94688402973225, 0.0, 0.0, 0.0, 0.0, -2250.127762571307, 0.0]
['beep', 0.0, 268.33269218596126, 0.0, 0.0, 0.0, 0.0, -2249.859541637843, 0.0]
['beep', 0.0, 266.857477051911, 0.0, 0.0, 0.0, 0.0, -2251.893550383276, 0.0]
['beep', 0.0, 232.5922528019253, 0.0, 0.0, 0.0, 0.0, -2250.820666649421, 0.0]
['beep', 0.0, 174.47771721812694, 0.0, 0.0, 0.0, 0.0, -2250.440686993681, 0.0]
['beep', 0.0, 196.04715061749826, 0.0, 0.0, 0.0, 0.0, -2250.239521293583, 0.0]
['beep', 0.0, 258.2297036921625, 0.0, 0.0, 0.0, 0.0, -2249.0101753485415, 0.0]
['beep', 0.0, 267.0362910075535, 0.0, 0.0, 0.0, 0.0, -2250.3065765269494, 0.0]
['beep', 0.0, 267.1927532187406, 0.0, 0.0, 0.0, 0.0, -2251.0665358384294, 0.0]
['beep', 0.0, 267.1927532187406, 0.0, 0.0, 0.0, 0.0, -2250.530093971502, 0.0]
['beep', 0.0, 266.56690437399203, 0.0, 0.0, 0.0, 0.0, -2248.272567781516, 0.0]
['beep', 0.0, 266.56690437399203, 0.0, 0.0, 0.0, 0.0, -2248.9431201151756, 0.0]
['beep', 0.0, 267.4833258966596, 0.0, 0.0, 0.0, 0.0, -2250.2842247824938, 0.0]
['beep', 0.0, 244.75160178561234, 0.0, 0.0, 0.0, 0.0, -2249.501913726558, 0.0]
['beep', 0.0, 180.51268822105985, 0.0, 0.0, 0.0, 0.0, -2250.1948178046728, 0.0]
['beep', 0.0, 198.61760122985856, 0.0, 0.0, 0.0, 0.0, -2250.239521293583, 0.0]
['beep', 0.0, 260.35311941541664, 0.0, 0.0, 0.0, 0.0, -2251.0665358384294, 0.0]
['beep', 0.0, 267.1704014742853, 0.0, 0.0, 0.0, 0.0, -2252.5864544613905, 0.0]
['beep', 0.0, 265.5387241290479, 0.0, 0.0, 0.0, 0.0, -2250.7536114160553, 0.0]
['beep', 0.0, 266.1198694848859, 0.0, 0.0, 0.0, 0.0, -2248.227864292606, 0.0]
['beep', 0.0, 268.9585410307099, 0.0, 0.0, 0.0, 0.0, -2249.3901550042815, 0.0]
