['beep', 0.0, 754.7290032778983, 0.0, 0.0, 0.0, 0.0, -3176.4064045436867, 0.0]
['beep', 0.0, 755.1089829336385, 0.0, 0.0, 0.0, 0.0, -3176.965198155069, 0.0]
['beep', 0.0, 753.9913957108731, 0.0, 0.0, 0.0, 0.0, -3176.4064045436867, 0.0]
['beep', 0.0, 755.1313346780938, 0.0, 0.0, 0.0, 0.0, -3177.948674911103, 0.0]
['beep', 0.0, 755.9583492229401, 0.0, 0.0, 0.0, 0.0, -3177.4122330441755, 0.0]
['beep', 0.0, 756.0701079452167, 0.0, 0.0, 0.0, 0.0, -3178.2168958445664, 0.0]
['beep', 0.0, 755.5560178227446, 0.0, 0.0, 0.0, 0.0, -3178.1274888667454, 0.0]
['beep', 0.0, 754.4384305999793, 0.0, 0.0, 0.0, 0.0, -3176.0487766324018, 0.0]
['beep', 0.0, 754.3937271110686, 0.0, 0.0, 0.0, 0.0, -3175.5793899988403, 0.0]
['beep', 0.0, 753.9466922219625, 0.0, 0.0, 0.0, 0.0, -3176.4511080325974, 0.0]
['beep', 0.0, 755.4442591004681, 0.0, 0.0, 0.0, 0.0, -3177.211067344078, 0.0]
['beep', 0.0, 756.2936253897698, 0.0, 0.0, 0.0, 0.0, -3177.255770832988, 0.0]
['beep', 0.0, 755.2430934003703, 0.0, 0.0, 0.0, 0.0, -3177.1440121107116, 0.0]
['beep', 0.0, 755.4442591004681, 0.0, 0.0, 0.0, 0.0, -3174.752375453994, 0.0]
['beep', 0.0, 754.997224211362, 0.0, 0.0, 0.0, 0.0, -3176.875791177248, 0.0]
['beep', 0.0, 756.3383288786804, 0.0, 0.0, 0.0, 0.0, -3177.903971422192, 0.0]
['beep', 0.0, 757.0088812123396, 0.0, 0.0, 0.0, 0.0, -3177.568695255363, 0.0]
['beep', 0.0, 755.7795352672977, 0.0, 0.0, 0.0, 0.0, -3176.0487766324018, 0.0]
['beep', 0.0, 754.5054858333452, 0.0, 0.0, 0.0, 0.0, -3177.0322533884355, 0.0]
['beep', 0.0, 756.4053841120464, 0.0, 0.0, 0.0, 0.0, -3177.4345847886307, 0.0]
['beep', 0.0, 757.1206399346162, 0.0, 0.0, 0.0, 0.0, -3178.7756894559493, 0.0]
['beep', 0.0, 755.6901282894764, 0.0, 0.0, 0.0, 0.0, -3177.814564444371, 0.0]
['beep', 0.0, 755.5560178227446, 0.0, 0.0, 0.0, 0.0, -3177.8592679332814, 0.0]
['beep', 0.0, 754.2819683887922, 0.0, 0.0, 0.0, 0.0, -3177.6357504887287, 0.0]
['beep', 0.0, 754.8854654890854, 0.0, 0.0, 0.0, 0.0, -3176.1828870991335, 0.0]
['beep', 0.0, 756.0030527118507, 0.0, 0.0, 0.0, 0.0, -3175.847610932304, 0.0]
['beep', 0.0, 756.6959567899653, 0.0, 0.0, 0.0, 0.0, -3176.719328966061, 0.0]
['beep', 0.0, 755.9583492229401, 0.0, 0.0, 0.0, 0.0, -3176.965198155069, 0.0]
['beep', 0.0, 754.3043201332474, 0.0, 0.0, 0.0, 0.0, -3176.942846410614, 0.0]
['beep', 0.0, 756.1371631785826, 0.0, 0.0, 0.0, 0.0, -3177.255770832988, 0.0]
['beep', 0.0, 757.7464887793648, 0.0, 0.0, 0.0, 0.0, -3178.7756894559493, 0.0]
['beep', 0.0, 757.4112126125351, 0.0, 0.0, 0.0, 0.0, -3179.3121313228767, 0.0]
['beep', 0.0, 757.5676748237223, 0.0, 0.0, 0.0, 0.0, -3179.3568348117874, 0.0]
['beep', 0.0, 756.6289015565994, 0.0, 0.0, 0.0, 0.0, -3177.5016400219965, 0.0]
['beep', 0.0, 757.2994538902586, 0.0, 0.0, 0.0, 0.0, -3178.10513712229, 0.0]
['beep', 0.0, 757.9700062239178, 0.0, 0.0, 0.0, 0.0, -3177.0546051328906, 0.0]
['beep', 0.0, 757.9923579683731, 0.0, 0.0, 0.0, 0.0, -3178.7309859670386, 0.0]
['beep', 0.0, 757.3441573791692, 0.0, 0.0, 0.0, 0.0, -3178.462765033575, 0.0]
['beep', 0.0, 756.6959567899653, 0.0, 0.0, 0.0, 0.0, -3177.9933784000136, 0.0]
['beep', 0.0, 759.4228696135127, 0.0, 0.0, 0.0, 0.0, -3178.2839510779327, 0.0]
['beep', 0.0, 759.154648680049, 0.0, 0.0, 0.0, 0.0, -3178.6639307336727, 0.0]
['beep', 0.0, 759.7804975247976, 0.0, 0.0, 0.0, 0.0, -3179.178020856145, 0.0]
['beep', 0.0, 758.931131235496, 0.0, 0.0, 0.0, 0.0, -3177.971026655558, 0.0]
['beep', 0.0, 757.8582475016412, 0.0, 0.0, 0.0, 0.0, -3176.7863841994267, 0.0]
['beep', 0.0, 758.1711719240155, 0.0, 0.0, 0.0, 0.0, -3177.3451778108097, 0.0]
['beep', 0.0, 759.9369597359848, 0.0, 0.0, 0.0, 0.0, -3179.6027040007957, 0.0]
['beep', 0.0, 759.802849269253, 0.0, 0.0, 0.0, 0.0, -3180.005035400991, 0.0]
['beep', 0.0, 757.4782678459011, 0.0, 0.0, 0.0, 0.0, -3178.887448178226, 0.0]
['beep', 0.0, 755.6230730561106, 0.0, 0.0, 0.0, 0.0, -3178.4180615446644, 0.0]
['beep', 0.0, 755.8465905006636, 0.0, 0.0, 0.0, 0.0, -3178.0157301444688, 0.0]
['beep', 0.0, 756.7406602788759, 0.0, 0.0, 0.0, 0.0, -3178.261599333477, 0.0]
['beep', 0.0, 757.187695167982, 0.0, 0.0, 0.0, 0.0, -3180.005035400991, 0.0]
['beep', 0.0, 756.9194742345184, 0.0, 0.0, 0.0, 0.0, -3179.4015383006977, 0.0]
['beep', 0.0, 756.1148114341273, 0.0, 0.0, 0.0, 0.0, -3177.9933784000136, 0.0]
['beep', 0.0, 754.7737067668089, 0.0, 0.0, 0.0, 0.0, -3179.0662621338683, 0.0]
['beep', 0.0, 755.5783695672, 0.0, 0.0, 0.0, 0.0, -3179.5132970229743, 0.0]
['beep', 0.0, 755.4889625893787, 0.0, 0.0, 0.0, 0.0, -3179.5132970229743, 0.0]
['beep', 0.0, 754.3266718777028, 0.0, 0.0, 0.0, 0.0, -3180.0273871454465, 0.0]
['beep', 0.0, 752.7620497658313, 0.0, 0.0, 0.0, 0.0, -3180.4073668011865, 0.0]
['beep', 0.0, 753.0973259326609, 0.0, 0.0, 0.0, 0.0, -3178.932151667136, 0.0]
['beep', 0.0, 754.5501893222558, 0.0, 0.0, 0.0, 0.0, -3180.29560807891, 0.0]
['beep', 0.0, 756.0030527118507, 0.0, 0.0, 0.0, 0.0, -3183.2013348581, 0.0]
['beep', 0.0, 755.7795352672977, 0.0, 0.0, 0.0, 0.0, -3182.195506357611, 0.0]
['beep', 0.0, 756.9418259789737, 0.0, 0.0, 0.0, 0.0, -3180.563829012374, 0.0]
['beep', 0.0, 757.2771021458033, 0.0, 0.0, 0.0, 0.0, -3180.4744220345524, 0.0]
['beep', 0.0, 754.8854654890854, 0.0, 0.0, 0.0, 0.0, -3180.429718545642, 0.0]
['beep', 0.0, 755.0642794447278, 0.0, 0.0, 0.0, 0.0, -3179.6027040007957, 0.0]
['beep', 0.0, 755.734831778387, 0.0, 0.0, 0.0, 0.0, -3181.748471468505, 0.0]
['beep', 0.0, 753.9913957108731, 0.0, 0.0, 0.0, 0.0, -3181.6814162351393, 0.0]
['beep', 0.0, 753.1643811660268, 0.0, 0.0, 0.0, 0.0, -3181.457898790586, 0.0]
['beep', 0.0, 753.5890643106776, 0.0, 0.0, 0.0, 0.0, -3181.0332156459353, 0.0]
['beep', 0.0, 754.2819683887922, 0.0, 0.0, 0.0, 0.0, -3180.362663312276, 0.0]
['beep', 0.0, 755.6230730561106, 0.0, 0.0, 0.0, 0.0, -3180.1167941232675, 0.0]
['beep', 0.0, 755.1089829336385, 0.0, 0.0, 0.0, 0.0, -3178.6415789892176, 0.0]
['beep', 0.0, 756.6289015565994, 0.0, 0.0, 0.0, 0.0, -3179.490945278519, 0.0]
['beep', 0.0, 756.6959567899653, 0.0, 0.0, 0.0, 0.0, -3179.8932766787148, 0.0]
['beep', 0.0, 755.7795352672977, 0.0, 0.0, 0.0, 0.0, -3180.653235990195, 0.0]
['beep', 0.0, 756.0030527118507, 0.0, 0.0, 0.0, 0.0, -3180.3403115678207, 0.0]
['beep', 0.0, 756.6289015565994, 0.0, 0.0, 0.0, 0.0, -3178.842744689315, 0.0]
['beep', 0.0, 756.2936253897698, 0.0, 0.0, 0.0, 0.0, -3180.1167941232675, 0.0]
['beep', 0.0, 756.5394945787782, 0.0, 0.0, 0.0, 0.0, -3180.6755877346504, 0.0]
['beep', 0.0, 756.9194742345184, 0.0, 0.0, 0.0, 0.0, -3182.150802868701, 0.0]
['beep', 0.0, 756.3383288786804, 0.0, 0.0, 0.0, 0.0, -3181.904933679692, 0.0]
['beep', 0.0, 756.450087600957, 0.0, 0.0, 0.0, 0.0, -3179.781517956438, 0.0]
['beep', 0.0, 756.0701079452167, 0.0, 0.0, 0.0, 0.0, -3180.139145867723, 0.0]
['beep', 0.0, 757.2100469124374, 0.0, 0.0, 0.0, 0.0, -3181.793174957416, 0.0]
['beep', 0.0, 757.2100469124374, 0.0, 0.0, 0.0, 0.0, -3182.2178581020667, 0.0]
['beep', 0.0, 756.1818666674932, 0.0, 0.0, 0.0, 0.0, -3182.4413755466194, 0.0]
['beep', 0.0, 755.4442591004681, 0.0, 0.0, 0.0, 0.0, -3182.2849133354325, 0.0]
['beep', 0.0, 754.5725410667111, 0.0, 0.0, 0.0, 0.0, -3181.7037679795944, 0.0]
['beep', 0.0, 755.1983899114597, 0.0, 0.0, 0.0, 0.0, -3181.9943406575135, 0.0]
['beep', 0.0, 755.8689422451189, 0.0, 0.0, 0.0, 0.0, -3182.8660586912706, 0.0]
['beep', 0.0, 754.4607823444346, 0.0, 0.0, 0.0, 0.0, -3182.3743203132535, 0.0]
['beep', 0.0, 753.3431951216693, 0.0, 0.0, 0.0, 0.0, -3180.8320499458373, 0.0]
['beep', 0.0, 754.6842997889877, 0.0, 0.0, 0.0, 0.0, -3180.228552845544, 0.0]
['beep', 0.0, 754.8631137446301, 0.0, 0.0, 0.0, 0.0, -3181.882581935237, 0.0]
['beep', 0.0, 756.2265701564038, 0.0, 0.0, 0.0, 0.0, -3181.904933679692, 0.0]
['beep', 0.0, 759.5569800802446, 0.0, 0.0, 0.0, 0.0, -3181.9272854241476, 0.0]
['beep', 0.0, 760.6969190474653, 0.0, 0.0, 0.0, 0.0, -3181.212029601578, 0.0]
['beep', 0.0, 763.0885557041831, 0.0, 0.0, 0.0, 0.0, -3182.4190238021642, 0.0]
['beep', 0.0, 762.0156719703284, 0.0, 0.0, 0.0, 0.0, -3183.3801488137424, 0.0]
['beep', 0.0, 760.7416225363759, 0.0, 0.0, 0.0, 0.0, -3185.101233136801, 0.0]
['beep', 0.0, 761.993320225873, 0.0, 0.0, 0.0, 0.0, -3184.8330122033376, 0.0]
['beep', 0.0, 759.0205382133172, 0.0, 0.0, 0.0, 0.0, -3182.754299968994, 0.0]
['beep', 0.0, 758.9087794910407, 0.0, 0.0, 0.0, 0.0, -3181.815526701871, 0.0]
['beep', 0.0, 762.5968173261664, 0.0, 0.0, 0.0, 0.0, -3183.2460383470107, 0.0]
['beep', 0.0, 762.5074103483452, 0.0, 0.0, 0.0, 0.0, -3183.424852302653, 0.0]
['beep', 0.0, 760.8980847475631, 0.0, 0.0, 0.0, 0.0, -3183.804831958393, 0.0]
['beep', 0.0, 759.2664074023256, 0.0, 0.0, 0.0, 0.0, -3182.530782524441, 0.0]
['beep', 0.0, 759.3781661246021, 0.0, 0.0, 0.0, 0.0, -3182.3296168243432, 0.0]
['beep', 0.0, 759.9816632248954, 0.0, 0.0, 0.0, 0.0, -3183.491907536019, 0.0]
['beep', 0.0, 758.640558557577, 0.0, 0.0, 0.0, 0.0, -3183.0001691580023, 0.0]
['beep', 0.0, 758.7299655353983, 0.0, 0.0, 0.0, 0.0, -3183.3801488137424, 0.0]
['beep', 0.0, 757.6347300570882, 0.0, 0.0, 0.0, 0.0, -3183.8942389362146, 0.0]
['beep', 0.0, 759.9369597359848, 0.0, 0.0, 0.0, 0.0, -3184.810660458882, 0.0]
['beep', 0.0, 761.836858014686, 0.0, 0.0, 0.0, 0.0, -3185.5929715148177, 0.0]
['beep', 0.0, 760.9427882364737, 0.0, 0.0, 0.0, 0.0, -3185.7047302370943, 0.0]
['beep', 0.0, 761.7250992924094, 0.0, 0.0, 0.0, 0.0, -3184.5647912698737, 0.0]
['beep', 0.0, 758.8640760021301, 0.0, 0.0, 0.0, 0.0, -3183.3801488137424, 0.0]
['beep', 0.0, 757.2100469124374, 0.0, 0.0, 0.0, 0.0, -3181.8602301907817, 0.0]
['beep', 0.0, 759.6463870580658, 0.0, 0.0, 0.0, 0.0, -3183.2013348581, 0.0]
['beep', 0.0, 760.383994625091, 0.0, 0.0, 0.0, 0.0, -3185.39180581472, 0.0]
['beep', 0.0, 758.349985879658, 0.0, 0.0, 0.0, 0.0, -3184.4753842920527, 0.0]
['beep', 0.0, 756.4724393454122, 0.0, 0.0, 0.0, 0.0, -3183.6707214916614, 0.0]
['beep', 0.0, 759.2440556578703, 0.0, 0.0, 0.0, 0.0, -3185.3471023258094, 0.0]
['beep', 0.0, 759.1099451911384, 0.0, 0.0, 0.0, 0.0, -3185.4812127925416, 0.0]
['beep', 0.0, 758.9087794910407, 0.0, 0.0, 0.0, 0.0, -3185.72708198155, 0.0]
['beep', 0.0, 758.5287998353004, 0.0, 0.0, 0.0, 0.0, -3184.8330122033376, 0.0]
['beep', 0.0, 757.9700062239178, 0.0, 0.0, 0.0, 0.0, -3185.0565296478903, 0.0]
['beep', 0.0, 760.0934219471719, 0.0, 0.0, 0.0, 0.0, -3185.034177903435, 0.0]
['beep', 0.0, 761.479230103401, 0.0, 0.0, 0.0, 0.0, -3185.369454070265, 0.0]
['beep', 0.0, 760.3169393917251, 0.0, 0.0, 0.0, 0.0, -3186.710558737583, 0.0]
['beep', 0.0, 758.2605789018368, 0.0, 0.0, 0.0, 0.0, -3185.4812127925416, 0.0]
['beep', 0.0, 759.2664074023256, 0.0, 0.0, 0.0, 0.0, -3183.9612941695805, 0.0]
['beep', 0.0, 759.7581457803424, 0.0, 0.0, 0.0, 0.0, -3185.101233136801, 0.0]
['beep', 0.0, 760.3616428806357, 0.0, 0.0, 0.0, 0.0, -3187.112890137779, 0.0]
['beep', 0.0, 760.2051806694485, 0.0, 0.0, 0.0, 0.0, -3188.722215738561, 0.0]
['beep', 0.0, 757.76884052382, 0.0, 0.0, 0.0, 0.0, -3185.77178547046, 0.0]
['beep', 0.0, 758.2605789018368, 0.0, 0.0, 0.0, 0.0, -3186.129413381745, 0.0]
['beep', 0.0, 760.0487184582613, 0.0, 0.0, 0.0, 0.0, -3185.1906401146225, 0.0]
['beep', 0.0, 760.67456730301, 0.0, 0.0, 0.0, 0.0, -3186.2635238484772, 0.0]
['beep', 0.0, 759.8475527581636, 0.0, 0.0, 0.0, 0.0, -3186.1517651262006, 0.0]
['beep', 0.0, 759.2664074023256, 0.0, 0.0, 0.0, 0.0, -3186.2411721040216, 0.0]
['beep', 0.0, 759.0205382133172, 0.0, 0.0, 0.0, 0.0, -3184.5871430143293, 0.0]
['beep', 0.0, 759.512276591334, 0.0, 0.0, 0.0, 0.0, -3185.816488959371, 0.0]
['beep', 0.0, 760.026366713806, 0.0, 0.0, 0.0, 0.0, -3187.492869793519, 0.0]
['beep', 0.0, 760.8310295141971, 0.0, 0.0, 0.0, 0.0, -3185.77178547046, 0.0]
['beep', 0.0, 760.4286981140016, 0.0, 0.0, 0.0, 0.0, -3186.3082273373875, 0.0]
['beep', 0.0, 760.026366713806, 0.0, 0.0, 0.0, 0.0, -3187.3811110712422, 0.0]
['beep', 0.0, 760.8310295141971, 0.0, 0.0, 0.0, 0.0, -3186.6658552486724, 0.0]
['beep', 0.0, 761.7027475479541, 0.0, 0.0, 0.0, 0.0, -3186.062358148379, 0.0]
['beep', 0.0, 761.76980278132, 0.0, 0.0, 0.0, 0.0, -3187.358759326787, 0.0]
['beep', 0.0, 760.7416225363759, 0.0, 0.0, 0.0, 0.0, -3185.9505994261026, 0.0]
['beep', 0.0, 760.6969190474653, 0.0, 0.0, 0.0, 0.0, -3187.403462815698, 0.0]
['beep', 0.0, 759.1770004245044, 0.0, 0.0, 0.0, 0.0, -3186.375282570754, 0.0]
['beep', 0.0, 759.7134422914318, 0.0, 0.0, 0.0, 0.0, -3187.3140558378764, 0.0]
['beep', 0.0, 759.7581457803424, 0.0, 0.0, 0.0, 0.0, -3190.1080238947898, 0.0]
['beep', 0.0, 759.7581457803424, 0.0, 0.0, 0.0, 0.0, -3189.3480645833097, 0.0]
['beep', 0.0, 758.8193725132195, 0.0, 0.0, 0.0, 0.0, -3187.001131415502, 0.0]
['beep', 0.0, 759.4005178690575, 0.0, 0.0, 0.0, 0.0, -3185.7941372149157, 0.0]
['beep', 0.0, 759.9369597359848, 0.0, 0.0, 0.0, 0.0, -3186.9340761821363, 0.0]
['beep', 0.0, 760.2498841583591, 0.0, 0.0, 0.0, 0.0, -3187.716387238072, 0.0]
['beep', 0.0, 760.0040149693507, 0.0, 0.0, 0.0, 0.0, -3186.3529308262982, 0.0]
['beep', 0.0, 760.383994625091, 0.0, 0.0, 0.0, 0.0, -3186.084709892835, 0.0]
['beep', 0.0, 763.1109074486384, 0.0, 0.0, 0.0, 0.0, -3185.7047302370943, 0.0]
['beep', 0.0, 759.4452213579681, 0.0, 0.0, 0.0, 0.0, -3186.174116870656, 0.0]
['beep', 0.0, 754.0137474553285, 0.0, 0.0, 0.0, 0.0, -3185.5035645369967, 0.0]
['beep', 0.0, 751.9797387098955, 0.0, 0.0, 0.0, 0.0, -3187.001131415502, 0.0]
['beep', 0.0, 753.2761398883033, 0.0, 0.0, 0.0, 0.0, -3186.5988000153066, 0.0]
['beep', 0.0, 756.5394945787782, 0.0, 0.0, 0.0, 0.0, -3185.682378492639, 0.0]
['beep', 0.0, 757.9700062239178, 0.0, 0.0, 0.0, 0.0, -3185.6153232592733, 0.0]
['beep', 0.0, 757.031232956795, 0.0, 0.0, 0.0, 0.0, -3186.2188203595665, 0.0]
['beep', 0.0, 757.4559161014457, 0.0, 0.0, 0.0, 0.0, -3185.034177903435, 0.0]
['beep', 0.0, 758.5287998353004, 0.0, 0.0, 0.0, 0.0, -3185.369454070265, 0.0]
['beep', 0.0, 761.1439539365714, 0.0, 0.0, 0.0, 0.0, -3183.6483697472063, 0.0]
['beep', 0.0, 764.2061429269485, 0.0, 0.0, 0.0, 0.0, -3186.040006403924, 0.0]
['beep', 0.0, 763.7591080378423, 0.0, 0.0, 0.0, 0.0, -3185.369454070265, 0.0]
['beep', 0.0, 761.479230103401, 0.0, 0.0, 0.0, 0.0, -3181.9496371686027, 0.0]
['beep', 0.0, 759.0428899577726, 0.0, 0.0, 0.0, 0.0, -3181.2790848349437, 0.0]
['beep', 0.0, 758.9534829799513, 0.0, 0.0, 0.0, 0.0, -3184.520087780963, 0.0]
['beep', 0.0, 758.5958550686664, 0.0, 0.0, 0.0, 0.0, -3184.877715692248, 0.0]
['beep', 0.0, 757.9700062239178, 0.0, 0.0, 0.0, 0.0, -3184.5647912698737, 0.0]
['beep', 0.0, 756.1148114341273, 0.0, 0.0, 0.0, 0.0, -3185.2800470924435, 0.0]
['beep', 0.0, 755.8912939895743, 0.0, 0.0, 0.0, 0.0, -3183.268390091466, 0.0]
['beep', 0.0, 757.031232956795, 0.0, 0.0, 0.0, 0.0, -3184.162459869678, 0.0]
['beep', 0.0, 756.964177723429, 0.0, 0.0, 0.0, 0.0, -3186.1964686151114, 0.0]
['beep', 0.0, 756.6512533010547, 0.0, 0.0, 0.0, 0.0, -3186.844669204315, 0.0]
['beep', 0.0, 755.9583492229401, 0.0, 0.0, 0.0, 0.0, -3185.2800470924435, 0.0]
['beep', 0.0, 755.3101486337363, 0.0, 0.0, 0.0, 0.0, -3184.944770925614, 0.0]
['beep', 0.0, 755.5783695672, 0.0, 0.0, 0.0, 0.0, -3184.9894744145245, 0.0]
['beep', 0.0, 757.6347300570882, 0.0, 0.0, 0.0, 0.0, -3185.2576953479884, 0.0]
['beep', 0.0, 756.6959567899653, 0.0, 0.0, 0.0, 0.0, -3186.5093930374856, 0.0]
['beep', 0.0, 756.5841980676888, 0.0, 0.0, 0.0, 0.0, -3186.1964686151114, 0.0]
['beep', 0.0, 756.8971224900631, 0.0, 0.0, 0.0, 0.0, -3185.660026748184, 0.0]
['beep', 0.0, 755.734831778387, 0.0, 0.0, 0.0, 0.0, -3185.8835441927367, 0.0]
['beep', 0.0, 756.2265701564038, 0.0, 0.0, 0.0, 0.0, -3187.001131415502, 0.0]
['beep', 0.0, 756.7406602788759, 0.0, 0.0, 0.0, 0.0, -3188.7892709719267, 0.0]
['beep', 0.0, 756.0254044563061, 0.0, 0.0, 0.0, 0.0, -3187.8952011937145, 0.0]
['beep', 0.0, 755.2654451448257, 0.0, 0.0, 0.0, 0.0, -3186.419986059664, 0.0]
['beep', 0.0, 755.6677765450212, 0.0, 0.0, 0.0, 0.0, -3186.174116870656, 0.0]
['beep', 0.0, 756.7853637677865, 0.0, 0.0, 0.0, 0.0, -3186.2635238484772, 0.0]
['beep', 0.0, 756.4053841120464, 0.0, 0.0, 0.0, 0.0, -3187.112890137779, 0.0]
['beep', 0.0, 754.7960585112642, 0.0, 0.0, 0.0, 0.0, -3185.2800470924435, 0.0]
['beep', 0.0, 753.5890643106776, 0.0, 0.0, 0.0, 0.0, -3186.062358148379, 0.0]
['beep', 0.0, 754.1031544331497, 0.0, 0.0, 0.0, 0.0, -3184.8330122033376, 0.0]
['beep', 0.0, 756.0254044563061, 0.0, 0.0, 0.0, 0.0, -3185.0565296478903, 0.0]
['beep', 0.0, 756.5841980676888, 0.0, 0.0, 0.0, 0.0, -3187.001131415502, 0.0]
['beep', 0.0, 755.801887011753, 0.0, 0.0, 0.0, 0.0, -3186.397634315209, 0.0]
['beep', 0.0, 755.1760381670044, 0.0, 0.0, 0.0, 0.0, -3184.2965703364102, 0.0]
['beep', 0.0, 755.3325003781915, 0.0, 0.0, 0.0, 0.0, -3184.497736036508, 0.0]
['beep', 0.0, 755.734831778387, 0.0, 0.0, 0.0, 0.0, -3185.6376750037284, 0.0]
['beep', 0.0, 756.1148114341273, 0.0, 0.0, 0.0, 0.0, -3185.2576953479884, 0.0]
['beep', 0.0, 756.3606806231357, 0.0, 0.0, 0.0, 0.0, -3184.743605225516, 0.0]
['beep', 0.0, 755.1760381670044, 0.0, 0.0, 0.0, 0.0, -3186.419986059664, 0.0]
['beep', 0.0, 755.0642794447278, 0.0, 0.0, 0.0, 0.0, -3184.430680803142, 0.0]
['beep', 0.0, 755.0866311891832, 0.0, 0.0, 0.0, 0.0, -3183.3577970692872, 0.0]
['beep', 0.0, 755.6677765450212, 0.0, 0.0, 0.0, 0.0, -3185.168288370167, 0.0]
['beep', 0.0, 755.0195759558172, 0.0, 0.0, 0.0, 0.0, -3184.6318465032396, 0.0]
['beep', 0.0, 754.349023622158, 0.0, 0.0, 0.0, 0.0, -3184.430680803142, 0.0]
['beep', 0.0, 755.734831778387, 0.0, 0.0, 0.0, 0.0, -3185.145936625712, 0.0]
['beep', 0.0, 757.4112126125351, 0.0, 0.0, 0.0, 0.0, -3185.5035645369967, 0.0]
['beep', 0.0, 757.0088812123396, 0.0, 0.0, 0.0, 0.0, -3185.9282476816475, 0.0]
['beep', 0.0, 756.4053841120464, 0.0, 0.0, 0.0, 0.0, -3185.302398836899, 0.0]
['beep', 0.0, 756.67360504551, 0.0, 0.0, 0.0, 0.0, -3184.877715692248, 0.0]
['beep', 0.0, 758.6852620464877, 0.0, 0.0, 0.0, 0.0, -3184.7659569699717, 0.0]
['beep', 0.0, 760.3616428806357, 0.0, 0.0, 0.0, 0.0, -3185.39180581472, 0.0]
['beep', 0.0, 759.9369597359848, 0.0, 0.0, 0.0, 0.0, -3186.8223174598597, 0.0]
['beep', 0.0, 757.2771021458033, 0.0, 0.0, 0.0, 0.0, -3185.816488959371, 0.0]
['beep', 0.0, 758.3946893685686, 0.0, 0.0, 0.0, 0.0, -3184.2518668474995, 0.0]
['beep', 0.0, 759.6463870580658, 0.0, 0.0, 0.0, 0.0, -3182.7990034579043, 0.0]
['beep', 0.0, 758.7299655353983, 0.0, 0.0, 0.0, 0.0, -3184.229515103044, 0.0]
['beep', 0.0, 758.5958550686664, 0.0, 0.0, 0.0, 0.0, -3184.4753842920527, 0.0]
['beep', 0.0, 757.0088812123396, 0.0, 0.0, 0.0, 0.0, -3183.134279624734, 0.0]
['beep', 0.0, 757.9700062239178, 0.0, 0.0, 0.0, 0.0, -3181.904933679692, 0.0]
['beep', 0.0, 756.8524190011525, 0.0, 0.0, 0.0, 0.0, -3183.067224391368, 0.0]
['beep', 0.0, 757.254750401348, 0.0, 0.0, 0.0, 0.0, -3184.0507011474015, 0.0]
['beep', 0.0, 758.9087794910407, 0.0, 0.0, 0.0, 0.0, -3184.005997658491, 0.0]
['beep', 0.0, 758.0147097128284, 0.0, 0.0, 0.0, 0.0, -3185.034177903435, 0.0]
['beep', 0.0, 756.3383288786804, 0.0, 0.0, 0.0, 0.0, -3183.2460383470107, 0.0]
['beep', 0.0, 754.9525207224514, 0.0, 0.0, 0.0, 0.0, -3183.0895761358233, 0.0]
['beep', 0.0, 754.349023622158, 0.0, 0.0, 0.0, 0.0, -3185.1906401146225, 0.0]
['beep', 0.0, 755.1313346780938, 0.0, 0.0, 0.0, 0.0, -3185.2800470924435, 0.0]
['beep', 0.0, 754.1478579220603, 0.0, 0.0, 0.0, 0.0, -3184.743605225516, 0.0]
['beep', 0.0, 754.0137474553285, 0.0, 0.0, 0.0, 0.0, -3185.9953029150133, 0.0]
['beep', 0.0, 754.4384305999793, 0.0, 0.0, 0.0, 0.0, -3185.8835441927367, 0.0]
['beep', 0.0, 755.2430934003703, 0.0, 0.0, 0.0, 0.0, -3187.112890137779, 0.0]
['beep', 0.0, 756.1818666674932, 0.0, 0.0, 0.0, 0.0, -3186.062358148379, 0.0]
['beep', 0.0, 755.3548521226469, 0.0, 0.0, 0.0, 0.0, -3185.7047302370943, 0.0]
['beep', 0.0, 754.2819683887922, 0.0, 0.0, 0.0, 0.0, -3185.816488959371, 0.0]
['beep', 0.0, 753.5667125662223, 0.0, 0.0, 0.0, 0.0, -3185.9282476816475, 0.0]
['beep', 0.0, 754.2819683887922, 0.0, 0.0, 0.0, 0.0, -3186.174116870656, 0.0]
['beep', 0.0, 753.9019887330519, 0.0, 0.0, 0.0, 0.0, -3186.174116870656, 0.0]
['beep', 0.0, 754.416078855524, 0.0, 0.0, 0.0, 0.0, -3185.01182615898, 0.0]
['beep', 0.0, 754.1031544331497, 0.0, 0.0, 0.0, 0.0, -3183.7377767250273, 0.0]
['beep', 0.0, 753.76787826632, 0.0, 0.0, 0.0, 0.0, -3183.9165906806697, 0.0]
['beep', 0.0, 754.6842997889877, 0.0, 0.0, 0.0, 0.0, -3184.3412738253205, 0.0]
['beep', 0.0, 764.0049772268507, 0.0, 0.0, 0.0, 0.0, -3187.6716837491613, 0.0]
['beep', 0.0, 765.5695993387222, 0.0, 0.0, 0.0, 0.0, -3188.342236082821, 0.0]
['beep', 0.0, 764.9437504939737, 0.0, 0.0, 0.0, 0.0, -3185.9282476816475, 0.0]
['beep', 0.0, 763.736756293387, 0.0, 0.0, 0.0, 0.0, -3186.5540965263963, 0.0]
['beep', 0.0, 761.9486167369624, 0.0, 0.0, 0.0, 0.0, -3186.9564279265915, 0.0]
['beep', 0.0, 762.9544452374513, 0.0, 0.0, 0.0, 0.0, -3187.2917040934212, 0.0]
['beep', 0.0, 763.6920528044764, 0.0, 0.0, 0.0, 0.0, -3188.4092913161867, 0.0]
['beep', 0.0, 762.2615411593367, 0.0, 0.0, 0.0, 0.0, -3186.040006403924, 0.0]
['beep', 0.0, 762.3062446482473, 0.0, 0.0, 0.0, 0.0, -3186.777613970949, 0.0]
['beep', 0.0, 762.9767969819065, 0.0, 0.0, 0.0, 0.0, -3187.6046285157954, 0.0]
['beep', 0.0, 763.1779626820044, 0.0, 0.0, 0.0, 0.0, -3186.8223174598597, 0.0]
['beep', 0.0, 763.6249975711105, 0.0, 0.0, 0.0, 0.0, -3187.492869793519, 0.0]
['beep', 0.0, 762.3285963927027, 0.0, 0.0, 0.0, 0.0, -3186.040006403924, 0.0]
['beep', 0.0, 761.5686370812223, 0.0, 0.0, 0.0, 0.0, -3186.375282570754, 0.0]
['beep', 0.0, 762.9320934929959, 0.0, 0.0, 0.0, 0.0, -3185.660026748184, 0.0]
['beep', 0.0, 764.4520121159569, 0.0, 0.0, 0.0, 0.0, -3187.626980260251, 0.0]
['beep', 0.0, 765.5248958498116, 0.0, 0.0, 0.0, 0.0, -3188.5210500384633, 0.0]
['beep', 0.0, 764.5190673493228, 0.0, 0.0, 0.0, 0.0, -3186.2188203595665, 0.0]
['beep', 0.0, 763.4014801265574, 0.0, 0.0, 0.0, 0.0, -3186.5764482708514, 0.0]
['beep', 0.0, 763.5579423377445, 0.0, 0.0, 0.0, 0.0, -3186.040006403924, 0.0]
['beep', 0.0, 764.5190673493228, 0.0, 0.0, 0.0, 0.0, -3187.1575936266895, 0.0]
['beep', 0.0, 766.4189656280239, 0.0, 0.0, 0.0, 0.0, -3187.5599250268847, 0.0]
['beep', 0.0, 765.3460818941692, 0.0, 0.0, 0.0, 0.0, -3186.4423378041197, 0.0]
['beep', 0.0, 764.4073086270463, 0.0, 0.0, 0.0, 0.0, -3187.8057942158935, 0.0]
['beep', 0.0, 765.0555092162501, 0.0, 0.0, 0.0, 0.0, -3186.7329104820387, 0.0]
['beep', 0.0, 765.6366545720881, 0.0, 0.0, 0.0, 0.0, -3187.738738982527, 0.0]
['beep', 0.0, 764.2955499047697, 0.0, 0.0, 0.0, 0.0, -3186.5540965263963, 0.0]
['beep', 0.0, 763.6026458266551, 0.0, 0.0, 0.0, 0.0, -3185.8835441927367, 0.0]
['beep', 0.0, 762.7532795373535, 0.0, 0.0, 0.0, 0.0, -3186.2858755929324, 0.0]
['beep', 0.0, 761.5015818478563, 0.0, 0.0, 0.0, 0.0, -3186.419986059664, 0.0]
['beep', 0.0, 763.0438522152725, 0.0, 0.0, 0.0, 0.0, -3186.9340761821363, 0.0]
['beep', 0.0, 764.8543435161524, 0.0, 0.0, 0.0, 0.0, -3188.006959915991, 0.0]
['beep', 0.0, 765.5919510831775, 0.0, 0.0, 0.0, 0.0, -3187.001131415502, 0.0]
['beep', 0.0, 762.3956516260686, 0.0, 0.0, 0.0, 0.0, -3186.017654659469, 0.0]
['beep', 0.0, 761.7474510368647, 0.0, 0.0, 0.0, 0.0, -3186.911724437681, 0.0]
['beep', 0.0, 762.7309277928982, 0.0, 0.0, 0.0, 0.0, -3187.5152215379744, 0.0]
['beep', 0.0, 764.1167359491272, 0.0, 0.0, 0.0, 0.0, -3187.8057942158935, 0.0]
['beep', 0.0, 762.9544452374513, 0.0, 0.0, 0.0, 0.0, -3187.5375732824295, 0.0]
['beep', 0.0, 761.0545469587502, 0.0, 0.0, 0.0, 0.0, -3187.5822767713403, 0.0]
['beep', 0.0, 761.9262649925072, 0.0, 0.0, 0.0, 0.0, -3187.984608171536, 0.0]
['beep', 0.0, 762.0156719703284, 0.0, 0.0, 0.0, 0.0, -3188.364587827276, 0.0]
['beep', 0.0, 762.3062446482473, 0.0, 0.0, 0.0, 0.0, -3188.67751224965, 0.0]
['beep', 0.0, 762.9320934929959, 0.0, 0.0, 0.0, 0.0, -3188.096366893812, 0.0]
['beep', 0.0, 762.2838929037921, 0.0, 0.0, 0.0, 0.0, -3188.1857738716335, 0.0]
['beep', 0.0, 761.4345266144904, 0.0, 0.0, 0.0, 0.0, -3186.6658552486724, 0.0]
['beep', 0.0, 761.479230103401, 0.0, 0.0, 0.0, 0.0, -3187.939904682625, 0.0]
['beep', 0.0, 761.7921545257753, 0.0, 0.0, 0.0, 0.0, -3189.102195394301, 0.0]
['beep', 0.0, 760.3616428806357, 0.0, 0.0, 0.0, 0.0, -3189.616285516773, 0.0]
['beep', 0.0, 760.4734016029122, 0.0, 0.0, 0.0, 0.0, -3189.683340750139, 0.0]
['beep', 0.0, 760.7639742808312, 0.0, 0.0, 0.0, 0.0, -3188.4539948050974, 0.0]
['beep', 0.0, 761.7027475479541, 0.0, 0.0, 0.0, 0.0, -3191.069148906368, 0.0]
['beep', 0.0, 762.2391894148815, 0.0, 0.0, 0.0, 0.0, -3189.0574919053906, 0.0]
['beep', 0.0, 762.1050789481496, 0.0, 0.0, 0.0, 0.0, -3187.8952011937145, 0.0]
['beep', 0.0, 761.4345266144904, 0.0, 0.0, 0.0, 0.0, -3188.386939571731, 0.0]
['beep', 0.0, 762.8650382596301, 0.0, 0.0, 0.0, 0.0, -3188.096366893812, 0.0]
['beep', 0.0, 765.256674916348, 0.0, 0.0, 0.0, 0.0, -3188.9010296942033, 0.0]
['beep', 0.0, 763.9379219934848, 0.0, 0.0, 0.0, 0.0, -3189.236305861033, 0.0]
['beep', 0.0, 762.2391894148815, 0.0, 0.0, 0.0, 0.0, -3188.67751224965, 0.0]
['beep', 0.0, 762.2168376704261, 0.0, 0.0, 0.0, 0.0, -3188.5210500384633, 0.0]
['beep', 0.0, 763.0438522152725, 0.0, 0.0, 0.0, 0.0, -3187.6716837491613, 0.0]
['beep', 0.0, 763.2673696598256, 0.0, 0.0, 0.0, 0.0, -3188.5210500384633, 0.0]
['beep', 0.0, 763.5132388488339, 0.0, 0.0, 0.0, 0.0, -3189.616285516773, 0.0]
['beep', 0.0, 762.5074103483452, 0.0, 0.0, 0.0, 0.0, -3187.716387238072, 0.0]
['beep', 0.0, 760.7863260252865, 0.0, 0.0, 0.0, 0.0, -3185.4812127925416, 0.0]
['beep', 0.0, 760.6969190474653, 0.0, 0.0, 0.0, 0.0, -3186.5988000153066, 0.0]
['beep', 0.0, 761.2780644033032, 0.0, 0.0, 0.0, 0.0, -3186.8223174598597, 0.0]
['beep', 0.0, 762.350948137158, 0.0, 0.0, 0.0, 0.0, -3188.7669192274716, 0.0]
['beep', 0.0, 760.9204364920183, 0.0, 0.0, 0.0, 0.0, -3187.2470006045105, 0.0]
['beep', 0.0, 759.735794035887, 0.0, 0.0, 0.0, 0.0, -3188.1857738716335, 0.0]
['beep', 0.0, 760.0934219471719, 0.0, 0.0, 0.0, 0.0, -3187.5152215379744, 0.0]
['beep', 0.0, 762.2168376704261, 0.0, 0.0, 0.0, 0.0, -3188.386939571731, 0.0]
['beep', 0.0, 762.6638725595323, 0.0, 0.0, 0.0, 0.0, -3189.6386372612283, 0.0]
['beep', 0.0, 760.8757330031077, 0.0, 0.0, 0.0, 0.0, -3188.141070382723, 0.0]
['beep', 0.0, 760.8757330031077, 0.0, 0.0, 0.0, 0.0, -3187.8952011937145, 0.0]
['beep', 0.0, 761.0992504476608, 0.0, 0.0, 0.0, 0.0, -3187.045834904413, 0.0]
['beep', 0.0, 761.2110091699374, 0.0, 0.0, 0.0, 0.0, -3189.0574919053906, 0.0]
['beep', 0.0, 762.4180033705239, 0.0, 0.0, 0.0, 0.0, -3189.3480645833097, 0.0]
['beep', 0.0, 762.7309277928982, 0.0, 0.0, 0.0, 0.0, -3187.8281459603486, 0.0]
['beep', 0.0, 762.5297620928004, 0.0, 0.0, 0.0, 0.0, -3187.5599250268847, 0.0]
['beep', 0.0, 761.5239335923117, 0.0, 0.0, 0.0, 0.0, -3188.006959915991, 0.0]
['beep', 0.0, 762.4403551149792, 0.0, 0.0, 0.0, 0.0, -3189.169250627667, 0.0]
['beep', 0.0, 763.6249975711105, 0.0, 0.0, 0.0, 0.0, -3191.426776817653, 0.0]
['beep', 0.0, 762.3956516260686, 0.0, 0.0, 0.0, 0.0, -3189.884506450237, 0.0]
['beep', 0.0, 763.1779626820044, 0.0, 0.0, 0.0, 0.0, -3188.9904366720248, 0.0]
['beep', 0.0, 763.7814597822976, 0.0, 0.0, 0.0, 0.0, -3187.939904682625, 0.0]
['beep', 0.0, 763.446183615468, 0.0, 0.0, 0.0, 0.0, -3188.2304773605442, 0.0]
['beep', 0.0, 763.9379219934848, 0.0, 0.0, 0.0, 0.0, -3188.8339744608375, 0.0]
['beep', 0.0, 762.6638725595323, 0.0, 0.0, 0.0, 0.0, -3188.4986982940077, 0.0]
['beep', 0.0, 761.1216021921161, 0.0, 0.0, 0.0, 0.0, -3189.2810093499434, 0.0]
['beep', 0.0, 762.2838929037921, 0.0, 0.0, 0.0, 0.0, -3189.5492302834073, 0.0]
['beep', 0.0, 763.7591080378423, 0.0, 0.0, 0.0, 0.0, -3189.8621547057814, 0.0]
['beep', 0.0, 763.8261632712082, 0.0, 0.0, 0.0, 0.0, -3190.353893083798, 0.0]
['beep', 0.0, 763.2673696598256, 0.0, 0.0, 0.0, 0.0, -3188.8339744608375, 0.0]
['beep', 0.0, 763.7814597822976, 0.0, 0.0, 0.0, 0.0, -3188.4539948050974, 0.0]
['beep', 0.0, 762.9544452374513, 0.0, 0.0, 0.0, 0.0, -3187.8057942158935, 0.0]
['beep', 0.0, 762.1944859259709, 0.0, 0.0, 0.0, 0.0, -3187.5375732824295, 0.0]
['beep', 0.0, 763.6249975711105, 0.0, 0.0, 0.0, 0.0, -3189.616285516773, 0.0]
['beep', 0.0, 763.1779626820044, 0.0, 0.0, 0.0, 0.0, -3189.1468988832116, 0.0]
['beep', 0.0, 762.1721341815155, 0.0, 0.0, 0.0, 0.0, -3188.5210500384633, 0.0]
['beep', 0.0, 762.6191690706216, 0.0, 0.0, 0.0, 0.0, -3187.403462815698, 0.0]
['beep', 0.0, 763.736756293387, 0.0, 0.0, 0.0, 0.0, -3188.1187186382676, 0.0]
['beep', 0.0, 764.4743638604122, 0.0, 0.0, 0.0, 0.0, -3189.8174512168707, 0.0]
['beep', 0.0, 764.6308260715994, 0.0, 0.0, 0.0, 0.0, -3187.425814560153, 0.0]
['beep', 0.0, 763.3567766376468, 0.0, 0.0, 0.0, 0.0, -3186.5988000153066, 0.0]
['beep', 0.0, 762.9320934929959, 0.0, 0.0, 0.0, 0.0, -3187.068186648868, 0.0]
['beep', 0.0, 763.5355905932893, 0.0, 0.0, 0.0, 0.0, -3187.7610907269827, 0.0]
['beep', 0.0, 763.3344248931915, 0.0, 0.0, 0.0, 0.0, -3188.8116227163823, 0.0]
['beep', 0.0, 764.6531778160546, 0.0, 0.0, 0.0, 0.0, -3186.6658552486724, 0.0]
['beep', 0.0, 762.9991487263619, 0.0, 0.0, 0.0, 0.0, -3186.6658552486724, 0.0]
['beep', 0.0, 762.5521138372558, 0.0, 0.0, 0.0, 0.0, -3185.302398836899, 0.0]
['beep', 0.0, 763.7591080378423, 0.0, 0.0, 0.0, 0.0, -3185.8388407038265, 0.0]
['beep', 0.0, 764.9437504939737, 0.0, 0.0, 0.0, 0.0, -3187.6046285157954, 0.0]
['beep', 0.0, 764.8319917716971, 0.0, 0.0, 0.0, 0.0, -3186.8893726932256, 0.0]
['beep', 0.0, 762.9544452374513, 0.0, 0.0, 0.0, 0.0, -3186.8223174598597, 0.0]
['beep', 0.0, 763.1779626820044, 0.0, 0.0, 0.0, 0.0, -3187.8281459603486, 0.0]
['beep', 0.0, 763.8485150156636, 0.0, 0.0, 0.0, 0.0, -3188.67751224965, 0.0]
['beep', 0.0, 764.5637708382334, 0.0, 0.0, 0.0, 0.0, -3187.425814560153, 0.0]
['beep', 0.0, 762.9097417485407, 0.0, 0.0, 0.0, 0.0, -3187.716387238072, 0.0]
['beep', 0.0, 762.2838929037921, 0.0, 0.0, 0.0, 0.0, -3187.269352348966, 0.0]
['beep', 0.0, 763.0438522152725, 0.0, 0.0, 0.0, 0.0, -3186.9340761821363, 0.0]
['beep', 0.0, 763.446183615468, 0.0, 0.0, 0.0, 0.0, -3189.2810093499434, 0.0]
['beep', 0.0, 764.3179016492251, 0.0, 0.0, 0.0, 0.0, -3188.4092913161867, 0.0]
['beep', 0.0, 764.2508464158591, 0.0, 0.0, 0.0, 0.0, -3187.8504977048037, 0.0]
['beep', 0.0, 763.446183615468, 0.0, 0.0, 0.0, 0.0, -3187.001131415502, 0.0]
['beep', 0.0, 763.155610937549, 0.0, 0.0, 0.0, 0.0, -3187.8952011937145, 0.0]
['beep', 0.0, 762.9767969819065, 0.0, 0.0, 0.0, 0.0, -3186.8223174598597, 0.0]
['beep', 0.0, 762.7756312818088, 0.0, 0.0, 0.0, 0.0, -3188.386939571731, 0.0]
['beep', 0.0, 761.993320225873, 0.0, 0.0, 0.0, 0.0, -3188.29753259391, 0.0]
['beep', 0.0, 761.0545469587502, 0.0, 0.0, 0.0, 0.0, -3186.8223174598597, 0.0]
['beep', 0.0, 760.9874917253843, 0.0, 0.0, 0.0, 0.0, -3186.174116870656, 0.0]
['beep', 0.0, 761.5909888256775, 0.0, 0.0, 0.0, 0.0, -3187.6716837491613, 0.0]
['beep', 0.0, 762.8650382596301, 0.0, 0.0, 0.0, 0.0, -3186.6658552486724, 0.0]
['beep', 0.0, 761.2333609143926, 0.0, 0.0, 0.0, 0.0, -3184.788308714427, 0.0]
['beep', 0.0, 760.4734016029122, 0.0, 0.0, 0.0, 0.0, -3185.3247505813542, 0.0]
['beep', 0.0, 761.3227678922138, 0.0, 0.0, 0.0, 0.0, -3186.330579081843, 0.0]
['beep', 0.0, 761.6356923145881, 0.0, 0.0, 0.0, 0.0, -3185.5929715148177, 0.0]
['beep', 0.0, 761.993320225873, 0.0, 0.0, 0.0, 0.0, -3185.302398836899, 0.0]
['beep', 0.0, 760.9204364920183, 0.0, 0.0, 0.0, 0.0, -3184.5647912698737, 0.0]
['beep', 0.0, 760.5851603251888, 0.0, 0.0, 0.0, 0.0, -3183.3130935803765, 0.0]
['beep', 0.0, 760.3169393917251, 0.0, 0.0, 0.0, 0.0, -3185.5035645369967, 0.0]
['beep', 0.0, 760.5851603251888, 0.0, 0.0, 0.0, 0.0, -3185.8835441927367, 0.0]
['beep', 0.0, 762.4180033705239, 0.0, 0.0, 0.0, 0.0, -3183.9389424251253, 0.0]
['beep', 0.0, 761.1663056810268, 0.0, 0.0, 0.0, 0.0, -3183.156631369189, 0.0]
['beep', 0.0, 759.8252010137082, 0.0, 0.0, 0.0, 0.0, -3182.530782524441, 0.0]
['beep', 0.0, 760.8086777697418, 0.0, 0.0, 0.0, 0.0, -3183.156631369189, 0.0]
['beep', 0.0, 761.3674713811245, 0.0, 0.0, 0.0, 0.0, -3186.129413381745, 0.0]
['beep', 0.0, 761.479230103401, 0.0, 0.0, 0.0, 0.0, -3187.358759326787, 0.0]
['beep', 0.0, 760.4734016029122, 0.0, 0.0, 0.0, 0.0, -3186.8893726932256, 0.0]
['beep', 0.0, 760.4957533473676, 0.0, 0.0, 0.0, 0.0, -3185.72708198155, 0.0]
['beep', 0.0, 759.4452213579681, 0.0, 0.0, 0.0, 0.0, -3186.621151759762, 0.0]
['beep', 0.0, 760.383994625091, 0.0, 0.0, 0.0, 0.0, -3186.174116870656, 0.0]
['beep', 0.0, 761.8145062702306, 0.0, 0.0, 0.0, 0.0, -3184.140108125223, 0.0]
['beep', 0.0, 761.3227678922138, 0.0, 0.0, 0.0, 0.0, -3184.6765499921503, 0.0]
['beep', 0.0, 760.1381254360825, 0.0, 0.0, 0.0, 0.0, -3186.3082273373875, 0.0]
['beep', 0.0, 760.67456730301, 0.0, 0.0, 0.0, 0.0, -3184.877715692248, 0.0]
['beep', 0.0, 760.5851603251888, 0.0, 0.0, 0.0, 0.0, -3186.2635238484772, 0.0]
['beep', 0.0, 761.5239335923117, 0.0, 0.0, 0.0, 0.0, -3185.145936625712, 0.0]
['beep', 0.0, 761.6580440590435, 0.0, 0.0, 0.0, 0.0, -3185.4812127925416, 0.0]
['beep', 0.0, 760.8086777697418, 0.0, 0.0, 0.0, 0.0, -3183.3130935803765, 0.0]
['beep', 0.0, 760.1157736916273, 0.0, 0.0, 0.0, 0.0, -3183.9836459140356, 0.0]
['beep', 0.0, 760.9204364920183, 0.0, 0.0, 0.0, 0.0, -3185.369454070265, 0.0]
['beep', 0.0, 762.0380237147837, 0.0, 0.0, 0.0, 0.0, -3184.0507011474015, 0.0]
['beep', 0.0, 759.9816632248954, 0.0, 0.0, 0.0, 0.0, -3185.3247505813542, 0.0]
['beep', 0.0, 757.9253027350072, 0.0, 0.0, 0.0, 0.0, -3185.145936625712, 0.0]
['beep', 0.0, 758.8640760021301, 0.0, 0.0, 0.0, 0.0, -3184.8330122033376, 0.0]
['beep', 0.0, 760.4286981140016, 0.0, 0.0, 0.0, 0.0, -3185.436509303631, 0.0]
['beep', 0.0, 761.9262649925072, 0.0, 0.0, 0.0, 0.0, -3185.369454070265, 0.0]
['beep', 0.0, 761.5909888256775, 0.0, 0.0, 0.0, 0.0, -3185.0565296478903, 0.0]
['beep', 0.0, 761.188657425482, 0.0, 0.0, 0.0, 0.0, -3184.162459869678, 0.0]
['beep', 0.0, 762.7085760484429, 0.0, 0.0, 0.0, 0.0, -3182.463727291075, 0.0]
['beep', 0.0, 764.4967156048675, 0.0, 0.0, 0.0, 0.0, -3183.9389424251253, 0.0]
['beep', 0.0, 764.9661022384289, 0.0, 0.0, 0.0, 0.0, -3183.5366110249297, 0.0]
['beep', 0.0, 762.7979830262641, 0.0, 0.0, 0.0, 0.0, -3182.776651713449, 0.0]
['beep', 0.0, 761.0098434698396, 0.0, 0.0, 0.0, 0.0, -3181.3461400683095, 0.0]
['beep', 0.0, 761.2110091699374, 0.0, 0.0, 0.0, 0.0, -3182.3296168243432, 0.0]
['beep', 0.0, 760.8533812586525, 0.0, 0.0, 0.0, 0.0, -3182.5754860133516, 0.0]
['beep', 0.0, 761.5015818478563, 0.0, 0.0, 0.0, 0.0, -3183.2013348581, 0.0]
['beep', 0.0, 761.7250992924094, 0.0, 0.0, 0.0, 0.0, -3184.810660458882, 0.0]
['beep', 0.0, 760.026366713806, 0.0, 0.0, 0.0, 0.0, -3183.760128469483, 0.0]
['beep', 0.0, 759.802849269253, 0.0, 0.0, 0.0, 0.0, -3183.044872646913, 0.0]
['beep', 0.0, 762.060375459239, 0.0, 0.0, 0.0, 0.0, -3184.497736036508, 0.0]
['beep', 0.0, 763.446183615468, 0.0, 0.0, 0.0, 0.0, -3184.9000674367035, 0.0]
['beep', 0.0, 761.9709684814178, 0.0, 0.0, 0.0, 0.0, -3185.01182615898, 0.0]
['beep', 0.0, 760.1381254360825, 0.0, 0.0, 0.0, 0.0, -3183.3801488137424, 0.0]
['beep', 0.0, 759.4899248468787, 0.0, 0.0, 0.0, 0.0, -3184.0283494029463, 0.0]
['beep', 0.0, 760.8980847475631, 0.0, 0.0, 0.0, 0.0, -3185.4141575591752, 0.0]
['beep', 0.0, 761.5239335923117, 0.0, 0.0, 0.0, 0.0, -3186.2858755929324, 0.0]
['beep', 0.0, 762.2391894148815, 0.0, 0.0, 0.0, 0.0, -3184.877715692248, 0.0]
['beep', 0.0, 761.0992504476608, 0.0, 0.0, 0.0, 0.0, -3183.6707214916614, 0.0]
['beep', 0.0, 761.5462853367669, 0.0, 0.0, 0.0, 0.0, -3183.268390091466, 0.0]
['beep', 0.0, 761.3674713811245, 0.0, 0.0, 0.0, 0.0, -3184.8330122033376, 0.0]
['beep', 0.0, 762.7309277928982, 0.0, 0.0, 0.0, 0.0, -3183.715424980572, 0.0]
['beep', 0.0, 763.4908871043787, 0.0, 0.0, 0.0, 0.0, -3183.5813145138404, 0.0]
['beep', 0.0, 762.8426865151747, 0.0, 0.0, 0.0, 0.0, -3183.804831958393, 0.0]
['beep', 0.0, 762.350948137158, 0.0, 0.0, 0.0, 0.0, -3183.6930732361166, 0.0]
['beep', 0.0, 763.3791283821021, 0.0, 0.0, 0.0, 0.0, -3182.7990034579043, 0.0]
['beep', 0.0, 765.8154685277306, 0.0, 0.0, 0.0, 0.0, -3183.8942389362146, 0.0]
['beep', 0.0, 766.1060412056496, 0.0, 0.0, 0.0, 0.0, -3182.687244735628, 0.0]
['beep', 0.0, 762.9097417485407, 0.0, 0.0, 0.0, 0.0, -3183.156631369189, 0.0]
['beep', 0.0, 762.1274306926049, 0.0, 0.0, 0.0, 0.0, -3181.7037679795944, 0.0]
['beep', 0.0, 763.9379219934848, 0.0, 0.0, 0.0, 0.0, -3181.9719889130583, 0.0]
['beep', 0.0, 764.3849568825909, 0.0, 0.0, 0.0, 0.0, -3182.8884104357257, 0.0]
['beep', 0.0, 763.7144045489317, 0.0, 0.0, 0.0, 0.0, -3181.3908435572203, 0.0]
['beep', 0.0, 762.1721341815155, 0.0, 0.0, 0.0, 0.0, -3179.8932766787148, 0.0]
['beep', 0.0, 762.2168376704261, 0.0, 0.0, 0.0, 0.0, -3180.0273871454465, 0.0]
['beep', 0.0, 764.4073086270463, 0.0, 0.0, 0.0, 0.0, -3181.1226226237563, 0.0]
['beep', 0.0, 765.0108057273395, 0.0, 0.0, 0.0, 0.0, -3180.7426429680163, 0.0]
['beep', 0.0, 764.8543435161524, 0.0, 0.0, 0.0, 0.0, -3179.558000511885, 0.0]
['beep', 0.0, 763.736756293387, 0.0, 0.0, 0.0, 0.0, -3179.0439103894128, 0.0]
['beep', 0.0, 764.6531778160546, 0.0, 0.0, 0.0, 0.0, -3178.5745237558513, 0.0]
['beep', 0.0, 766.3519103946579, 0.0, 0.0, 0.0, 0.0, -3180.3403115678207, 0.0]
['beep', 0.0, 766.5977795836664, 0.0, 0.0, 0.0, 0.0, -3179.178020856145, 0.0]
['beep', 0.0, 766.9554074949513, 0.0, 0.0, 0.0, 0.0, -3179.6697592341616, 0.0]
['beep', 0.0, 767.3353871506914, 0.0, 0.0, 0.0, 0.0, -3179.6027040007957, 0.0]
['beep', 0.0, 766.2625034168367, 0.0, 0.0, 0.0, 0.0, -3179.6027040007957, 0.0]
['beep', 0.0, 766.9777592394065, 0.0, 0.0, 0.0, 0.0, -3180.29560807891, 0.0]
['beep', 0.0, 767.1118697061384, 0.0, 0.0, 0.0, 0.0, -3180.3403115678207, 0.0]
['beep', 0.0, 766.4189656280239, 0.0, 0.0, 0.0, 0.0, -3179.58035225634, 0.0]
['beep', 0.0, 764.5190673493228, 0.0, 0.0, 0.0, 0.0, -3179.0215586449576, 0.0]
['beep', 0.0, 763.9379219934848, 0.0, 0.0, 0.0, 0.0, -3178.932151667136, 0.0]
['beep', 0.0, 765.4578406164457, 0.0, 0.0, 0.0, 0.0, -3178.9545034115918, 0.0]
['beep', 0.0, 766.9330557504959, 0.0, 0.0, 0.0, 0.0, -3180.854401690293, 0.0]
['beep', 0.0, 765.6813580609987, 0.0, 0.0, 0.0, 0.0, -3178.261599333477, 0.0]
['beep', 0.0, 765.9719307389178, 0.0, 0.0, 0.0, 0.0, -3178.172192355656, 0.0]
['beep', 0.0, 765.5248958498116, 0.0, 0.0, 0.0, 0.0, -3179.6697592341616, 0.0]
['beep', 0.0, 765.7260615499093, 0.0, 0.0, 0.0, 0.0, -3179.4015383006977, 0.0]
['beep', 0.0, 766.5083726058451, 0.0, 0.0, 0.0, 0.0, -3180.4520702900973, 0.0]
['beep', 0.0, 767.1342214505937, 0.0, 0.0, 0.0, 0.0, -3180.6308842457397, 0.0]
['beep', 0.0, 767.3130354062362, 0.0, 0.0, 0.0, 0.0, -3178.619227244762, 0.0]
['beep', 0.0, 766.798945283764, 0.0, 0.0, 0.0, 0.0, -3177.568695255363, 0.0]
['beep', 0.0, 766.7318900503982, 0.0, 0.0, 0.0, 0.0, -3177.322826066354, 0.0]
['beep', 0.0, 767.96123599544, 0.0, 0.0, 0.0, 0.0, -3177.0546051328906, 0.0]
['beep', 0.0, 766.2401516723814, 0.0, 0.0, 0.0, 0.0, -3177.523991766452, 0.0]
['beep', 0.0, 765.9048755055518, 0.0, 0.0, 0.0, 0.0, -3177.3898812997204, 0.0]
['beep', 0.0, 766.5083726058451, 0.0, 0.0, 0.0, 0.0, -3177.4345847886307, 0.0]
['beep', 0.0, 765.0108057273395, 0.0, 0.0, 0.0, 0.0, -3178.239247589022, 0.0]
['beep', 0.0, 764.1837911824931, 0.0, 0.0, 0.0, 0.0, -3178.10513712229, 0.0]
['beep', 0.0, 764.8766952606077, 0.0, 0.0, 0.0, 0.0, -3177.814564444371, 0.0]
['beep', 0.0, 764.2731981603145, 0.0, 0.0, 0.0, 0.0, -3176.205238843589, 0.0]
['beep', 0.0, 764.2284946714037, 0.0, 0.0, 0.0, 0.0, -3176.4064045436867, 0.0]
['beep', 0.0, 766.6201313281216, 0.0, 0.0, 0.0, 0.0, -3177.7922126999156, 0.0]
['beep', 0.0, 765.9048755055518, 0.0, 0.0, 0.0, 0.0, -3178.0157301444688, 0.0]
['beep', 0.0, 765.0778609607055, 0.0, 0.0, 0.0, 0.0, -3179.334483067332, 0.0]
['beep', 0.0, 764.2955499047697, 0.0, 0.0, 0.0, 0.0, -3177.903971422192, 0.0]
['beep', 0.0, 765.3460818941692, 0.0, 0.0, 0.0, 0.0, -3177.1216603662565, 0.0]
['beep', 0.0, 765.7260615499093, 0.0, 0.0, 0.0, 0.0, -3178.395709800209, 0.0]
['beep', 0.0, 765.5025441053563, 0.0, 0.0, 0.0, 0.0, -3180.139145867723, 0.0]
['beep', 0.0, 766.86600051713, 0.0, 0.0, 0.0, 0.0, -3180.1167941232675, 0.0]
['beep', 0.0, 765.994282483373, 0.0, 0.0, 0.0, 0.0, -3176.361701054776, 0.0]
['beep', 0.0, 765.0108057273395, 0.0, 0.0, 0.0, 0.0, -3176.0487766324018, 0.0]
['beep', 0.0, 765.3684336386244, 0.0, 0.0, 0.0, 0.0, -3176.8310876883374, 0.0]
['beep', 0.0, 767.0895179616831, 0.0, 0.0, 0.0, 0.0, -3177.278122577444, 0.0]
['beep', 0.0, 767.2012766839596, 0.0, 0.0, 0.0, 0.0, -3178.328654566843, 0.0]
['beep', 0.0, 766.1730964390155, 0.0, 0.0, 0.0, 0.0, -3177.5463435109073, 0.0]
['beep', 0.0, 764.1614394380379, 0.0, 0.0, 0.0, 0.0, -3177.568695255363, 0.0]
['beep', 0.0, 764.0720324602166, 0.0, 0.0, 0.0, 0.0, -3176.0934801213125, 0.0]
['beep', 0.0, 765.3013784052586, 0.0, 0.0, 0.0, 0.0, -3175.2441138320105, 0.0]
['beep', 0.0, 764.7872882827864, 0.0, 0.0, 0.0, 0.0, -3176.5181632659633, 0.0]
['beep', 0.0, 762.9097417485407, 0.0, 0.0, 0.0, 0.0, -3177.3898812997204, 0.0]
['beep', 0.0, 762.0156719703284, 0.0, 0.0, 0.0, 0.0, -3174.081823120335, 0.0]
['beep', 0.0, 761.9709684814178, 0.0, 0.0, 0.0, 0.0, -3173.8359539313265, 0.0]
['beep', 0.0, 763.5132388488339, 0.0, 0.0, 0.0, 0.0, -3174.8194306873597, 0.0]
['beep', 0.0, 764.0496807157613, 0.0, 0.0, 0.0, 0.0, -3175.1547068541895, 0.0]
['beep', 0.0, 763.3567766376468, 0.0, 0.0, 0.0, 0.0, -3173.5230295089523, 0.0]
['beep', 0.0, 763.4014801265574, 0.0, 0.0, 0.0, 0.0, -3173.4783260200415, 0.0]
['beep', 0.0, 764.5637708382334, 0.0, 0.0, 0.0, 0.0, -3174.685320220628, 0.0]
['beep', 0.0, 763.96027373794, 0.0, 0.0, 0.0, 0.0, -3175.6687969766617, 0.0]
['beep', 0.0, 763.7814597822976, 0.0, 0.0, 0.0, 0.0, -3175.557038254385, 0.0]
['beep', 0.0, 762.7979830262641, 0.0, 0.0, 0.0, 0.0, -3176.8310876883374, 0.0]
['beep', 0.0, 762.5521138372558, 0.0, 0.0, 0.0, 0.0, -3176.0934801213125, 0.0]
['beep', 0.0, 764.4073086270463, 0.0, 0.0, 0.0, 0.0, -3175.4452795321085, 0.0]
['beep', 0.0, 766.9330557504959, 0.0, 0.0, 0.0, 0.0, -3175.557038254385, 0.0]
['beep', 0.0, 766.2401516723814, 0.0, 0.0, 0.0, 0.0, -3177.1216603662565, 0.0]
['beep', 0.0, 765.1672679385267, 0.0, 0.0, 0.0, 0.0, -3177.255770832988, 0.0]
['beep', 0.0, 764.8543435161524, 0.0, 0.0, 0.0, 0.0, -3175.1323551097344, 0.0]
['beep', 0.0, 765.6143028276329, 0.0, 0.0, 0.0, 0.0, -3176.4511080325974, 0.0]
['beep', 0.0, 764.9884539828843, 0.0, 0.0, 0.0, 0.0, -3177.4345847886307, 0.0]
['beep', 0.0, 762.9097417485407, 0.0, 0.0, 0.0, 0.0, -3176.7640324549716, 0.0]
['beep', 0.0, 763.0662039597278, 0.0, 0.0, 0.0, 0.0, -3176.1605353546784, 0.0]
['beep', 0.0, 763.4014801265574, 0.0, 0.0, 0.0, 0.0, -3176.3840527992315, 0.0]
['beep', 0.0, 765.6366545720881, 0.0, 0.0, 0.0, 0.0, -3175.4452795321085, 0.0]
['beep', 0.0, 765.5248958498116, 0.0, 0.0, 0.0, 0.0, -3177.166363855167, 0.0]
['beep', 0.0, 765.1449161940714, 0.0, 0.0, 0.0, 0.0, -3175.6687969766617, 0.0]
['beep', 0.0, 763.5579423377445, 0.0, 0.0, 0.0, 0.0, -3174.595913242807, 0.0]
['beep', 0.0, 763.5579423377445, 0.0, 0.0, 0.0, 0.0, -3174.4170992871645, 0.0]
['beep', 0.0, 765.3237301497138, 0.0, 0.0, 0.0, 0.0, -3175.6687969766617, 0.0]
['beep', 0.0, 765.8154685277306, 0.0, 0.0, 0.0, 0.0, -3177.00990164398, 0.0]
['beep', 0.0, 766.6201313281216, 0.0, 0.0, 0.0, 0.0, -3177.680453977639, 0.0]
['beep', 0.0, 764.2955499047697, 0.0, 0.0, 0.0, 0.0, -3176.272294076955, 0.0]
['beep', 0.0, 764.7649365383312, 0.0, 0.0, 0.0, 0.0, -3175.8252591878486, 0.0]
['beep', 0.0, 765.3460818941692, 0.0, 0.0, 0.0, 0.0, -3176.4734597770525, 0.0]
['beep', 0.0, 764.7202330494206, 0.0, 0.0, 0.0, 0.0, -3177.1440121107116, 0.0]
['beep', 0.0, 765.6813580609987, 0.0, 0.0, 0.0, 0.0, -3175.691148721117, 0.0]
['beep', 0.0, 764.6308260715994, 0.0, 0.0, 0.0, 0.0, -3175.4676312765637, 0.0]
['beep', 0.0, 763.8261632712082, 0.0, 0.0, 0.0, 0.0, -3175.4452795321085, 0.0]
['beep', 0.0, 763.8932185045742, 0.0, 0.0, 0.0, 0.0, -3176.3840527992315, 0.0]
['beep', 0.0, 764.9884539828843, 0.0, 0.0, 0.0, 0.0, -3175.4899830210193, 0.0]
['beep', 0.0, 764.5637708382334, 0.0, 0.0, 0.0, 0.0, -3175.1323551097344, 0.0]
['beep', 0.0, 763.3567766376468, 0.0, 0.0, 0.0, 0.0, -3175.624093487751, 0.0]
['beep', 0.0, 762.8203347707195, 0.0, 0.0, 0.0, 0.0, -3175.5123347654744, 0.0]
['beep', 0.0, 763.4908871043787, 0.0, 0.0, 0.0, 0.0, -3175.624093487751, 0.0]
['beep', 0.0, 766.5083726058451, 0.0, 0.0, 0.0, 0.0, -3175.8923144212145, 0.0]
['beep', 0.0, 766.061337716739, 0.0, 0.0, 0.0, 0.0, -3174.953541154092, 0.0]
['beep', 0.0, 764.7425847938758, 0.0, 0.0, 0.0, 0.0, -3174.238285331522, 0.0]
['beep', 0.0, 763.2003144264596, 0.0, 0.0, 0.0, 0.0, -3173.143049853212, 0.0]
['beep', 0.0, 765.2790266608032, 0.0, 0.0, 0.0, 0.0, -3173.053642875391, 0.0]
['beep', 0.0, 766.7095383059428, 0.0, 0.0, 0.0, 0.0, -3173.7912504424157, 0.0]
['beep', 0.0, 766.3072069057473, 0.0, 0.0, 0.0, 0.0, -3176.2499423324994, 0.0]
['beep', 0.0, 764.0049772268507, 0.0, 0.0, 0.0, 0.0, -3175.8699626767593, 0.0]
['beep', 0.0, 762.3732998816133, 0.0, 0.0, 0.0, 0.0, -3173.4783260200415, 0.0]
['beep', 0.0, 762.1944859259709, 0.0, 0.0, 0.0, 0.0, -3173.5677329978625, 0.0]
['beep', 0.0, 762.4180033705239, 0.0, 0.0, 0.0, 0.0, -3174.327692309343, 0.0]
['beep', 0.0, 763.1779626820044, 0.0, 0.0, 0.0, 0.0, -3173.34421555331, 0.0]
['beep', 0.0, 762.9320934929959, 0.0, 0.0, 0.0, 0.0, -3172.696014964106, 0.0]
['beep', 0.0, 762.7085760484429, 0.0, 0.0, 0.0, 0.0, -3173.947712653603, 0.0]
['beep', 0.0, 763.9379219934848, 0.0, 0.0, 0.0, 0.0, -3175.557038254385, 0.0]
['beep', 0.0, 763.5802940821999, 0.0, 0.0, 0.0, 0.0, -3175.6017417432954, 0.0]
['beep', 0.0, 762.7532795373535, 0.0, 0.0, 0.0, 0.0, -3174.327692309343, 0.0]
['beep', 0.0, 762.7309277928982, 0.0, 0.0, 0.0, 0.0, -3174.327692309343, 0.0]
['beep', 0.0, 761.2110091699374, 0.0, 0.0, 0.0, 0.0, -3174.595913242807, 0.0]
['beep', 0.0, 763.2673696598256, 0.0, 0.0, 0.0, 0.0, -3175.333520809832, 0.0]
['beep', 0.0, 764.3626051381357, 0.0, 0.0, 0.0, 0.0, -3175.1770585986446, 0.0]
['beep', 0.0, 763.9826254823954, 0.0, 0.0, 0.0, 0.0, -3174.4170992871645, 0.0]
['beep', 0.0, 764.2955499047697, 0.0, 0.0, 0.0, 0.0, -3174.1935818426114, 0.0]
['beep', 0.0, 764.4296603715015, 0.0, 0.0, 0.0, 0.0, -3172.137221352723, 0.0]
['beep', 0.0, 765.1672679385267, 0.0, 0.0, 0.0, 0.0, -3172.740718453016, 0.0]
['beep', 0.0, 764.9661022384289, 0.0, 0.0, 0.0, 0.0, -3174.305340564888, 0.0]
['beep', 0.0, 764.67552956051, 0.0, 0.0, 0.0, 0.0, -3174.081823120335, 0.0]
['beep', 0.0, 763.6697010600211, 0.0, 0.0, 0.0, 0.0, -3174.081823120335, 0.0]
['beep', 0.0, 762.5968173261664, 0.0, 0.0, 0.0, 0.0, -3174.014767886969, 0.0]
['beep', 0.0, 765.256674916348, 0.0, 0.0, 0.0, 0.0, -3174.305340564888, 0.0]
['beep', 0.0, 766.0166342278284, 0.0, 0.0, 0.0, 0.0, -3176.1605353546784, 0.0]
['beep', 0.0, 766.1283929501049, 0.0, 0.0, 0.0, 0.0, -3174.595913242807, 0.0]
['beep', 0.0, 764.899047005063, 0.0, 0.0, 0.0, 0.0, -3173.4783260200415, 0.0]
['beep', 0.0, 765.1225644496161, 0.0, 0.0, 0.0, 0.0, -3173.00893938648, 0.0]
['beep', 0.0, 766.2625034168367, 0.0, 0.0, 0.0, 0.0, -3175.646445232206, 0.0]
['beep', 0.0, 766.6201313281216, 0.0, 0.0, 0.0, 0.0, -3175.8252591878486, 0.0]
['beep', 0.0, 765.7037098054541, 0.0, 0.0, 0.0, 0.0, -3174.2606370759772, 0.0]
['beep', 0.0, 765.3460818941692, 0.0, 0.0, 0.0, 0.0, -3173.5230295089523, 0.0]
['beep', 0.0, 766.1283929501049, 0.0, 0.0, 0.0, 0.0, -3172.7630701974717, 0.0]
['beep', 0.0, 766.5083726058451, 0.0, 0.0, 0.0, 0.0, -3173.970064398058, 0.0]
['beep', 0.0, 767.2459801728702, 0.0, 0.0, 0.0, 0.0, -3175.3782242987427, 0.0]
['beep', 0.0, 766.9777592394065, 0.0, 0.0, 0.0, 0.0, -3175.6687969766617, 0.0]
['beep', 0.0, 766.798945283764, 0.0, 0.0, 0.0, 0.0, -3173.9924161425133, 0.0]
['beep', 0.0, 766.0389859722836, 0.0, 0.0, 0.0, 0.0, -3173.2548085754884, 0.0]
['beep', 0.0, 767.1118697061384, 0.0, 0.0, 0.0, 0.0, -3174.5735614983514, 0.0]
['beep', 0.0, 767.2683319173256, 0.0, 0.0, 0.0, 0.0, -3174.707671965083, 0.0]
['beep', 0.0, 767.7600702953423, 0.0, 0.0, 0.0, 0.0, -3173.813602186871, 0.0]
['beep', 0.0, 767.6259598286105, 0.0, 0.0, 0.0, 0.0, -3173.3218638088542, 0.0]
['beep', 0.0, 766.8436487726747, 0.0, 0.0, 0.0, 0.0, -3174.5288580094407, 0.0]
['beep', 0.0, 768.4753261179121, 0.0, 0.0, 0.0, 0.0, -3175.2441138320105, 0.0]
['beep', 0.0, 767.8047737842529, 0.0, 0.0, 0.0, 0.0, -3176.004073143491, 0.0]
['beep', 0.0, 767.447145872968, 0.0, 0.0, 0.0, 0.0, -3176.8981429217033, 0.0]
['beep', 0.0, 767.6259598286105, 0.0, 0.0, 0.0, 0.0, -3175.2217620875554, 0.0]
['beep', 0.0, 768.5423813512781, 0.0, 0.0, 0.0, 0.0, -3173.746546953505, 0.0]
['beep', 0.0, 768.1847534399931, 0.0, 0.0, 0.0, 0.0, -3175.8029074433935, 0.0]
['beep', 0.0, 770.218762185426, 0.0, 0.0, 0.0, 0.0, -3175.937017910125, 0.0]
['beep', 0.0, 770.3305209077026, 0.0, 0.0, 0.0, 0.0, -3174.9311894096363, 0.0]
['beep', 0.0, 768.6988435624652, 0.0, 0.0, 0.0, 0.0, -3175.1994103431, 0.0]
['beep', 0.0, 767.2012766839596, 0.0, 0.0, 0.0, 0.0, -3174.1935818426114, 0.0]
['beep', 0.0, 767.7377185508869, 0.0, 0.0, 0.0, 0.0, -3176.227590588044, 0.0]
['beep', 0.0, 767.8047737842529, 0.0, 0.0, 0.0, 0.0, -3176.875791177248, 0.0]
['beep', 0.0, 766.575427839211, 0.0, 0.0, 0.0, 0.0, -3176.205238843589, 0.0]
['beep', 0.0, 764.3402533936803, 0.0, 0.0, 0.0, 0.0, -3175.8699626767593, 0.0]
['beep', 0.0, 764.3402533936803, 0.0, 0.0, 0.0, 0.0, -3175.7582039544827, 0.0]
['beep', 0.0, 765.8378202721859, 0.0, 0.0, 0.0, 0.0, -3175.557038254385, 0.0]
['beep', 0.0, 766.1954481834708, 0.0, 0.0, 0.0, 0.0, -3175.042948131913, 0.0]
['beep', 0.0, 765.5025441053563, 0.0, 0.0, 0.0, 0.0, -3175.4676312765637, 0.0]
['beep', 0.0, 765.7931167832753, 0.0, 0.0, 0.0, 0.0, -3174.5065062649855, 0.0]
['beep', 0.0, 765.9048755055518, 0.0, 0.0, 0.0, 0.0, -3174.014767886969, 0.0]
['beep', 0.0, 766.3519103946579, 0.0, 0.0, 0.0, 0.0, -3176.339349310321, 0.0]
['beep', 0.0, 767.3353871506914, 0.0, 0.0, 0.0, 0.0, -3174.752375453994, 0.0]
['beep', 0.0, 769.0117679848395, 0.0, 0.0, 0.0, 0.0, -3174.707671965083, 0.0]
['beep', 0.0, 769.1011749626607, 0.0, 0.0, 0.0, 0.0, -3174.3500440537982, 0.0]
['beep', 0.0, 771.6492738305657, 0.0, 0.0, 0.0, 0.0, -3172.8748289197483, 0.0]
['beep', 0.0, 771.8280877862081, 0.0, 0.0, 0.0, 0.0, -3174.2159335870665, 0.0]
['beep', 0.0, 771.4704598749232, 0.0, 0.0, 0.0, 0.0, -3174.0594713758796, 0.0]
['beep', 0.0, 769.5705615962222, 0.0, 0.0, 0.0, 0.0, -3173.8583056757816, 0.0]
['beep', 0.0, 767.0448144727725, 0.0, 0.0, 0.0, 0.0, -3173.433622531131, 0.0]
['beep', 0.0, 766.4860208613898, 0.0, 0.0, 0.0, 0.0, -3173.366567297765, 0.0]
['beep', 0.0, 767.8718290176188, 0.0, 0.0, 0.0, 0.0, -3174.2829888204324, 0.0]
['beep', 0.0, 767.7377185508869, 0.0, 0.0, 0.0, 0.0, -3175.9593696545803, 0.0]
['beep', 0.0, 766.2177999279261, 0.0, 0.0, 0.0, 0.0, -3174.998244643002, 0.0]
['beep', 0.0, 765.4578406164457, 0.0, 0.0, 0.0, 0.0, -3175.333520809832, 0.0]
['beep', 0.0, 766.6648348170322, 0.0, 0.0, 0.0, 0.0, -3174.707671965083, 0.0]
['beep', 0.0, 767.9165325065294, 0.0, 0.0, 0.0, 0.0, -3175.557038254385, 0.0]
['beep', 0.0, 768.2294569289037, 0.0, 0.0, 0.0, 0.0, -3174.372395798254, 0.0]
['beep', 0.0, 767.2906836617808, 0.0, 0.0, 0.0, 0.0, -3175.266465576466, 0.0]
['beep', 0.0, 765.7260615499093, 0.0, 0.0, 0.0, 0.0, -3174.461802776075, 0.0]
['beep', 0.0, 765.994282483373, 0.0, 0.0, 0.0, 0.0, -3174.662968476173, 0.0]
['beep', 0.0, 766.5083726058451, 0.0, 0.0, 0.0, 0.0, -3175.981721399036, 0.0]
['beep', 0.0, 766.7542417948534, 0.0, 0.0, 0.0, 0.0, -3175.7582039544827, 0.0]
['beep', 0.0, 767.156573195049, 0.0, 0.0, 0.0, 0.0, -3175.4899830210193, 0.0]
['beep', 0.0, 767.1789249395043, 0.0, 0.0, 0.0, 0.0, -3173.9253609091475, 0.0]
['beep', 0.0, 766.8436487726747, 0.0, 0.0, 0.0, 0.0, -3172.8524771752927, 0.0]
['beep', 0.0, 769.2129336849373, 0.0, 0.0, 0.0, 0.0, -3173.970064398058, 0.0]
['beep', 0.0, 769.414099385035, 0.0, 0.0, 0.0, 0.0, -3174.2159335870665, 0.0]
['beep', 0.0, 767.6483115730657, 0.0, 0.0, 0.0, 0.0, -3172.405442286187, 0.0]
['beep', 0.0, 766.4189656280239, 0.0, 0.0, 0.0, 0.0, -3172.070166119357, 0.0]
['beep', 0.0, 766.9107040060406, 0.0, 0.0, 0.0, 0.0, -3174.2606370759772, 0.0]
['beep', 0.0, 766.7318900503982, 0.0, 0.0, 0.0, 0.0, -3174.5512097538963, 0.0]
['beep', 0.0, 766.1954481834708, 0.0, 0.0, 0.0, 0.0, -3173.970064398058, 0.0]
['beep', 0.0, 768.832954029197, 0.0, 0.0, 0.0, 0.0, -3173.1206981087566, 0.0]
['beep', 0.0, 768.2071051844484, 0.0, 0.0, 0.0, 0.0, -3172.986587642025, 0.0]
['beep', 0.0, 767.4247941285126, 0.0, 0.0, 0.0, 0.0, -3174.2606370759772, 0.0]
['beep', 0.0, 767.4247941285126, 0.0, 0.0, 0.0, 0.0, -3174.4394510316197, 0.0]
['beep', 0.0, 767.4918493618786, 0.0, 0.0, 0.0, 0.0, -3174.5288580094407, 0.0]
['beep', 0.0, 768.1176982066272, 0.0, 0.0, 0.0, 0.0, -3174.2159335870665, 0.0]
['beep', 0.0, 765.7484132943647, 0.0, 0.0, 0.0, 0.0, -3173.813602186871, 0.0]
['beep', 0.0, 765.6590063165435, 0.0, 0.0, 0.0, 0.0, -3174.8641341762705, 0.0]
['beep', 0.0, 766.6648348170322, 0.0, 0.0, 0.0, 0.0, -3174.752375453994, 0.0]
['beep', 0.0, 767.8941807620741, 0.0, 0.0, 0.0, 0.0, -3172.5395527529186, 0.0]
['beep', 0.0, 766.9777592394065, 0.0, 0.0, 0.0, 0.0, -3174.8641341762705, 0.0]
['beep', 0.0, 764.9437504939737, 0.0, 0.0, 0.0, 0.0, -3174.081823120335, 0.0]
['beep', 0.0, 765.6143028276329, 0.0, 0.0, 0.0, 0.0, -3171.846648674804, 0.0]
['beep', 0.0, 766.3295586502027, 0.0, 0.0, 0.0, 0.0, -3173.143049853212, 0.0]
['beep', 0.0, 766.7765935393088, 0.0, 0.0, 0.0, 0.0, -3174.461802776075, 0.0]
['beep', 0.0, 767.4694976174233, 0.0, 0.0, 0.0, 0.0, -3173.031291130935, 0.0]
['beep', 0.0, 765.6143028276329, 0.0, 0.0, 0.0, 0.0, -3172.785421941927, 0.0]
['beep', 0.0, 764.899047005063, 0.0, 0.0, 0.0, 0.0, -3172.092517863812, 0.0]
['beep', 0.0, 766.8883522615853, 0.0, 0.0, 0.0, 0.0, -3172.7630701974717, 0.0]
['beep', 0.0, 765.9495789944624, 0.0, 0.0, 0.0, 0.0, -3174.1488783537006, 0.0]
['beep', 0.0, 767.6930150619763, 0.0, 0.0, 0.0, 0.0, -3174.037119631424, 0.0]
['beep', 0.0, 767.4694976174233, 0.0, 0.0, 0.0, 0.0, -3171.9584073970805, 0.0]
['beep', 0.0, 767.4024423840574, 0.0, 0.0, 0.0, 0.0, -3171.041985874413, 0.0]
['beep', 0.0, 767.8494772731635, 0.0, 0.0, 0.0, 0.0, -3171.466669019064, 0.0]
['beep', 0.0, 768.3635673956356, 0.0, 0.0, 0.0, 0.0, -3171.8019451858936, 0.0]
['beep', 0.0, 767.7153668064317, 0.0, 0.0, 0.0, 0.0, -3173.455974275586, 0.0]
['beep', 0.0, 766.2848551612921, 0.0, 0.0, 0.0, 0.0, -3172.9195324086586, 0.0]
['beep', 0.0, 766.8436487726747, 0.0, 0.0, 0.0, 0.0, -3174.3500440537982, 0.0]
['beep', 0.0, 767.2012766839596, 0.0, 0.0, 0.0, 0.0, -3173.4112707866757, 0.0]
['beep', 0.0, 768.1400499510825, 0.0, 0.0, 0.0, 0.0, -3173.34421555331, 0.0]
['beep', 0.0, 768.0729947177166, 0.0, 0.0, 0.0, 0.0, -3173.366567297765, 0.0]
['beep', 0.0, 768.2741604178144, 0.0, 0.0, 0.0, 0.0, -3173.970064398058, 0.0]
['beep', 0.0, 767.8494772731635, 0.0, 0.0, 0.0, 0.0, -3173.38891904222, 0.0]
['beep', 0.0, 768.1400499510825, 0.0, 0.0, 0.0, 0.0, -3173.4112707866757, 0.0]
['beep', 0.0, 768.9223610070183, 0.0, 0.0, 0.0, 0.0, -3174.908837665181, 0.0]
['beep', 0.0, 767.6706633175211, 0.0, 0.0, 0.0, 0.0, -3174.305340564888, 0.0]
['beep', 0.0, 766.2401516723814, 0.0, 0.0, 0.0, 0.0, -3173.2771603199435, 0.0]
['beep', 0.0, 766.5083726058451, 0.0, 0.0, 0.0, 0.0, -3173.7018434645947, 0.0]
['beep', 0.0, 767.9165325065294, 0.0, 0.0, 0.0, 0.0, -3176.62992198824, 0.0]
['beep', 0.0, 767.8047737842529, 0.0, 0.0, 0.0, 0.0, -3177.4122330441755, 0.0]
['beep', 0.0, 765.7931167832753, 0.0, 0.0, 0.0, 0.0, -3175.8699626767593, 0.0]
['beep', 0.0, 765.5695993387222, 0.0, 0.0, 0.0, 0.0, -3175.780555698938, 0.0]
['beep', 0.0, 764.4520121159569, 0.0, 0.0, 0.0, 0.0, -3174.081823120335, 0.0]
['beep', 0.0, 765.2343231718926, 0.0, 0.0, 0.0, 0.0, -3174.1935818426114, 0.0]
['beep', 0.0, 766.7542417948534, 0.0, 0.0, 0.0, 0.0, -3174.5065062649855, 0.0]
['beep', 0.0, 765.6143028276329, 0.0, 0.0, 0.0, 0.0, -3175.8029074433935, 0.0]
['beep', 0.0, 764.7202330494206, 0.0, 0.0, 0.0, 0.0, -3174.9311894096363, 0.0]
['beep', 0.0, 765.2343231718926, 0.0, 0.0, 0.0, 0.0, -3174.305340564888, 0.0]
['beep', 0.0, 766.2848551612921, 0.0, 0.0, 0.0, 0.0, -3175.1994103431, 0.0]
['beep', 0.0, 766.7765935393088, 0.0, 0.0, 0.0, 0.0, -3176.227590588044, 0.0]
['beep', 0.0, 764.9661022384289, 0.0, 0.0, 0.0, 0.0, -3175.3782242987427, 0.0]
['beep', 0.0, 764.0720324602166, 0.0, 0.0, 0.0, 0.0, -3174.1935818426114, 0.0]
['beep', 0.0, 764.0049772268507, 0.0, 0.0, 0.0, 0.0, -3174.7747271984495, 0.0]
['beep', 0.0, 764.4967156048675, 0.0, 0.0, 0.0, 0.0, -3175.1994103431, 0.0]
['beep', 0.0, 765.0555092162501, 0.0, 0.0, 0.0, 0.0, -3176.361701054776, 0.0]
['beep', 0.0, 765.8378202721859, 0.0, 0.0, 0.0, 0.0, -3176.585218499329, 0.0]
['beep', 0.0, 765.6143028276329, 0.0, 0.0, 0.0, 0.0, -3176.562866754874, 0.0]
['beep', 0.0, 764.5414190937781, 0.0, 0.0, 0.0, 0.0, -3175.042948131913, 0.0]
['beep', 0.0, 764.5637708382334, 0.0, 0.0, 0.0, 0.0, -3174.4170992871645, 0.0]
['beep', 0.0, 765.3460818941692, 0.0, 0.0, 0.0, 0.0, -3174.171230098156, 0.0]
['beep', 0.0, 764.7872882827864, 0.0, 0.0, 0.0, 0.0, -3174.752375453994, 0.0]
['beep', 0.0, 765.4354888719904, 0.0, 0.0, 0.0, 0.0, -3174.7300237095387, 0.0]
['beep', 0.0, 765.1225644496161, 0.0, 0.0, 0.0, 0.0, -3173.880657420237, 0.0]
['beep', 0.0, 764.7425847938758, 0.0, 0.0, 0.0, 0.0, -3175.6017417432954, 0.0]
['beep', 0.0, 765.3237301497138, 0.0, 0.0, 0.0, 0.0, -3175.557038254385, 0.0]
['beep', 0.0, 764.9884539828843, 0.0, 0.0, 0.0, 0.0, -3174.5512097538963, 0.0]
['beep', 0.0, 764.3849568825909, 0.0, 0.0, 0.0, 0.0, -3174.998244643002, 0.0]
['beep', 0.0, 764.7872882827864, 0.0, 0.0, 0.0, 0.0, -3175.3782242987427, 0.0]
['beep', 0.0, 765.2790266608032, 0.0, 0.0, 0.0, 0.0, -3176.004073143491, 0.0]
['beep', 0.0, 766.4189656280239, 0.0, 0.0, 0.0, 0.0, -3176.853439432793, 0.0]
['beep', 0.0, 767.2012766839596, 0.0, 0.0, 0.0, 0.0, -3177.5463435109073, 0.0]
['beep', 0.0, 765.9048755055518, 0.0, 0.0, 0.0, 0.0, -3177.591046999818, 0.0]
['beep', 0.0, 764.0049772268507, 0.0, 0.0, 0.0, 0.0, -3177.1440121107116, 0.0]
['beep', 0.0, 764.1614394380379, 0.0, 0.0, 0.0, 0.0, -3177.4569365330863, 0.0]
['beep', 0.0, 766.4189656280239, 0.0, 0.0, 0.0, 0.0, -3177.0993086218014, 0.0]
['beep', 0.0, 765.1672679385267, 0.0, 0.0, 0.0, 0.0, -3177.211067344078, 0.0]
['beep', 0.0, 764.7425847938758, 0.0, 0.0, 0.0, 0.0, -3177.568695255363, 0.0]
['beep', 0.0, 764.2955499047697, 0.0, 0.0, 0.0, 0.0, -3176.1158318657676, 0.0]
['beep', 0.0, 764.7872882827864, 0.0, 0.0, 0.0, 0.0, -3176.316997565865, 0.0]
['beep', 0.0, 766.5530760947557, 0.0, 0.0, 0.0, 0.0, -3176.562866754874, 0.0]
['beep', 0.0, 766.9554074949513, 0.0, 0.0, 0.0, 0.0, -3176.1605353546784, 0.0]
['beep', 0.0, 765.3684336386244, 0.0, 0.0, 0.0, 0.0, -3177.3898812997204, 0.0]
['beep', 0.0, 764.9661022384289, 0.0, 0.0, 0.0, 0.0, -3176.5405150104184, 0.0]
['beep', 0.0, 766.642483072577, 0.0, 0.0, 0.0, 0.0, -3177.0546051328906, 0.0]
['beep', 0.0, 768.2741604178144, 0.0, 0.0, 0.0, 0.0, -3178.552172011396, 0.0]
['beep', 0.0, 768.3859191400909, 0.0, 0.0, 0.0, 0.0, -3177.7251574665497, 0.0]
['beep', 0.0, 768.2071051844484, 0.0, 0.0, 0.0, 0.0, -3176.4064045436867, 0.0]
['beep', 0.0, 768.251808673359, 0.0, 0.0, 0.0, 0.0, -3176.339349310321, 0.0]
['beep', 0.0, 767.96123599544, 0.0, 0.0, 0.0, 0.0, -3178.1274888667454, 0.0]
['beep', 0.0, 767.8494772731635, 0.0, 0.0, 0.0, 0.0, -3178.328654566843, 0.0]
['beep', 0.0, 768.1400499510825, 0.0, 0.0, 0.0, 0.0, -3177.233419088533, 0.0]
['beep', 0.0, 768.2071051844484, 0.0, 0.0, 0.0, 0.0, -3176.8981429217033, 0.0]
['beep', 0.0, 766.2848551612921, 0.0, 0.0, 0.0, 0.0, -3177.00990164398, 0.0]
['beep', 0.0, 767.2683319173256, 0.0, 0.0, 0.0, 0.0, -3177.1216603662565, 0.0]
['beep', 0.0, 768.5423813512781, 0.0, 0.0, 0.0, 0.0, -3178.10513712229, 0.0]
['beep', 0.0, 768.5870848401887, 0.0, 0.0, 0.0, 0.0, -3176.853439432793, 0.0]
['beep', 0.0, 768.4753261179121, 0.0, 0.0, 0.0, 0.0, -3176.1828870991335, 0.0]
['beep', 0.0, 768.4082708845463, 0.0, 0.0, 0.0, 0.0, -3176.0487766324018, 0.0]
['beep', 0.0, 769.4588028739456, 0.0, 0.0, 0.0, 0.0, -3175.5793899988403, 0.0]
['beep', 0.0, 770.1517069520602, 0.0, 0.0, 0.0, 0.0, -3175.3782242987427, 0.0]
['beep', 0.0, 769.7270238074093, 0.0, 0.0, 0.0, 0.0, -3176.585218499329, 0.0]
['beep', 0.0, 769.5929133406775, 0.0, 0.0, 0.0, 0.0, -3176.0487766324018, 0.0]
['beep', 0.0, 769.8834860185965, 0.0, 0.0, 0.0, 0.0, -3175.8699626767593, 0.0]
['beep', 0.0, 770.8222592857194, 0.0, 0.0, 0.0, 0.0, -3176.5405150104184, 0.0]
['beep', 0.0, 770.5093348633451, 0.0, 0.0, 0.0, 0.0, -3175.8923144212145, 0.0]
['beep', 0.0, 770.4869831188897, 0.0, 0.0, 0.0, 0.0, -3175.5793899988403, 0.0]
['beep', 0.0, 769.3693958961244, 0.0, 0.0, 0.0, 0.0, -3175.981721399036, 0.0]
['beep', 0.0, 768.028291228806, 0.0, 0.0, 0.0, 0.0, -3176.071128376857, 0.0]
['beep', 0.0, 769.414099385035, 0.0, 0.0, 0.0, 0.0, -3177.367529555265, 0.0]
['beep', 0.0, 769.8611342741411, 0.0, 0.0, 0.0, 0.0, -3177.568695255363, 0.0]
['beep', 0.0, 770.3975761410685, 0.0, 0.0, 0.0, 0.0, -3176.719328966061, 0.0]
['beep', 0.0, 769.5929133406775, 0.0, 0.0, 0.0, 0.0, -3174.618264987262, 0.0]
['beep', 0.0, 769.7493755518647, 0.0, 0.0, 0.0, 0.0, -3176.004073143491, 0.0]
['beep', 0.0, 769.6376168295881, 0.0, 0.0, 0.0, 0.0, -3176.004073143491, 0.0]
['beep', 0.0, 771.3139976637361, 0.0, 0.0, 0.0, 0.0, -3177.658102233184, 0.0]
['beep', 0.0, 772.1410122085824, 0.0, 0.0, 0.0, 0.0, -3177.211067344078, 0.0]
['beep', 0.0, 771.0010732413618, 0.0, 0.0, 0.0, 0.0, -3177.322826066354, 0.0]
['beep', 0.0, 770.8222592857194, 0.0, 0.0, 0.0, 0.0, -3176.7640324549716, 0.0]
['beep', 0.0, 770.6657970745322, 0.0, 0.0, 0.0, 0.0, -3176.0487766324018, 0.0]
['beep', 0.0, 771.0904802191831, 0.0, 0.0, 0.0, 0.0, -3176.361701054776, 0.0]
['beep', 0.0, 769.8834860185965, 0.0, 0.0, 0.0, 0.0, -3176.875791177248, 0.0]
['beep', 0.0, 769.1011749626607, 0.0, 0.0, 0.0, 0.0, -3176.562866754874, 0.0]
['beep', 0.0, 768.3412156511803, 0.0, 0.0, 0.0, 0.0, -3176.8087359438823, 0.0]
['beep', 0.0, 768.9447127514736, 0.0, 0.0, 0.0, 0.0, -3176.942846410614, 0.0]
['beep', 0.0, 769.9728929964177, 0.0, 0.0, 0.0, 0.0, -3177.568695255363, 0.0]
['beep', 0.0, 768.8106022847418, 0.0, 0.0, 0.0, 0.0, -3176.719328966061, 0.0]
['beep', 0.0, 769.0564714737501, 0.0, 0.0, 0.0, 0.0, -3176.0487766324018, 0.0]
['beep', 0.0, 769.8834860185965, 0.0, 0.0, 0.0, 0.0, -3175.1770585986446, 0.0]
['beep', 0.0, 771.8057360417529, 0.0, 0.0, 0.0, 0.0, -3177.591046999818, 0.0]
['beep', 0.0, 771.5598668527444, 0.0, 0.0, 0.0, 0.0, -3177.8369161888263, 0.0]
['beep', 0.0, 771.9845499973953, 0.0, 0.0, 0.0, 0.0, -3175.333520809832, 0.0]
['beep', 0.0, 770.6434453300769, 0.0, 0.0, 0.0, 0.0, -3175.333520809832, 0.0]
['beep', 0.0, 769.9281895075071, 0.0, 0.0, 0.0, 0.0, -3174.5735614983514, 0.0]
['beep', 0.0, 770.6210935856216, 0.0, 0.0, 0.0, 0.0, -3176.004073143491, 0.0]
['beep', 0.0, 771.5598668527444, 0.0, 0.0, 0.0, 0.0, -3176.5405150104184, 0.0]
['beep', 0.0, 772.0963087196718, 0.0, 0.0, 0.0, 0.0, -3175.691148721117, 0.0]
['beep', 0.0, 772.029253486306, 0.0, 0.0, 0.0, 0.0, -3176.562866754874, 0.0]
['beep', 0.0, 771.5598668527444, 0.0, 0.0, 0.0, 0.0, -3176.205238843589, 0.0]
['beep', 0.0, 772.4539366309568, 0.0, 0.0, 0.0, 0.0, -3174.0594713758796, 0.0]
['beep', 0.0, 772.2304191864038, 0.0, 0.0, 0.0, 0.0, -3173.9924161425133, 0.0]
['beep', 0.0, 772.3868813975909, 0.0, 0.0, 0.0, 0.0, -3173.5677329978625, 0.0]
['beep', 0.0, 772.4986401198674, 0.0, 0.0, 0.0, 0.0, -3174.10417486479, 0.0]
['beep', 0.0, 771.0457767302725, 0.0, 0.0, 0.0, 0.0, -3175.1100033652788, 0.0]
['beep', 0.0, 770.5987418411663, 0.0, 0.0, 0.0, 0.0, -3175.1770585986446, 0.0]
['beep', 0.0, 771.4928116193786, 0.0, 0.0, 0.0, 0.0, -3175.3782242987427, 0.0]
['beep', 0.0, 771.8057360417529, 0.0, 0.0, 0.0, 0.0, -3174.305340564888, 0.0]
['beep', 0.0, 772.0069017418506, 0.0, 0.0, 0.0, 0.0, -3174.752375453994, 0.0]
['beep', 0.0, 770.5540383522557, 0.0, 0.0, 0.0, 0.0, -3176.1605353546784, 0.0]
['beep', 0.0, 771.8951430195741, 0.0, 0.0, 0.0, 0.0, -3176.920494666159, 0.0]
['beep', 0.0, 772.9903784978842, 0.0, 0.0, 0.0, 0.0, -3178.10513712229, 0.0]
['beep', 0.0, 772.6327505865993, 0.0, 0.0, 0.0, 0.0, -3175.8923144212145, 0.0]
['beep', 0.0, 772.2080674419484, 0.0, 0.0, 0.0, 0.0, -3175.8029074433935, 0.0]
['beep', 0.0, 770.2634656743367, 0.0, 0.0, 0.0, 0.0, -3175.4676312765637, 0.0]
['beep', 0.0, 772.0516052307612, 0.0, 0.0, 0.0, 0.0, -3175.937017910125, 0.0]
['beep', 0.0, 774.1750209540154, 0.0, 0.0, 0.0, 0.0, -3176.205238843589, 0.0]
['beep', 0.0, 774.4655936319344, 0.0, 0.0, 0.0, 0.0, -3175.355872554287, 0.0]
['beep', 0.0, 773.3703581536244, 0.0, 0.0, 0.0, 0.0, -3176.6075702437843, 0.0]
['beep', 0.0, 772.0963087196718, 0.0, 0.0, 0.0, 0.0, -3176.5405150104184, 0.0]
['beep', 0.0, 773.3703581536244, 0.0, 0.0, 0.0, 0.0, -3176.62992198824, 0.0]
['beep', 0.0, 772.9903784978842, 0.0, 0.0, 0.0, 0.0, -3178.7086342225834, 0.0]
['beep', 0.0, 772.3421779086802, 0.0, 0.0, 0.0, 0.0, -3176.853439432793, 0.0]
['beep', 0.0, 771.5375151082892, 0.0, 0.0, 0.0, 0.0, -3174.461802776075, 0.0]
['beep', 0.0, 772.7668610533311, 0.0, 0.0, 0.0, 0.0, -3176.1158318657676, 0.0]
['beep', 0.0, 772.4986401198674, 0.0, 0.0, 0.0, 0.0, -3176.3840527992315, 0.0]
['beep', 0.0, 773.2809511758031, 0.0, 0.0, 0.0, 0.0, -3174.8864859207256, 0.0]
['beep', 0.0, 772.6774540755099, 0.0, 0.0, 0.0, 0.0, -3175.713500465572, 0.0]
['beep', 0.0, 771.3139976637361, 0.0, 0.0, 0.0, 0.0, -3174.5735614983514, 0.0]
['beep', 0.0, 772.2304191864038, 0.0, 0.0, 0.0, 0.0, -3176.2499423324994, 0.0]
['beep', 0.0, 773.9962069983729, 0.0, 0.0, 0.0, 0.0, -3176.1828870991335, 0.0]
['beep', 0.0, 773.9291517650071, 0.0, 0.0, 0.0, 0.0, -3175.8923144212145, 0.0]
['beep', 0.0, 772.7221575644205, 0.0, 0.0, 0.0, 0.0, -3174.8864859207256, 0.0]
['beep', 0.0, 772.3421779086802, 0.0, 0.0, 0.0, 0.0, -3176.004073143491, 0.0]
['beep', 0.0, 772.833916286697, 0.0, 0.0, 0.0, 0.0, -3176.0934801213125, 0.0]
['beep', 0.0, 773.638579087088, 0.0, 0.0, 0.0, 0.0, -3176.562866754874, 0.0]
['beep', 0.0, 774.9126285210406, 0.0, 0.0, 0.0, 0.0, -3177.680453977639, 0.0]
['beep', 0.0, 776.6113610996439, 0.0, 0.0, 0.0, 0.0, -3176.1605353546784, 0.0]
['beep', 0.0, 777.639541344588, 0.0, 0.0, 0.0, 0.0, -3174.8641341762705, 0.0]
['beep', 0.0, 778.3547971671578, 0.0, 0.0, 0.0, 0.0, -3173.813602186871, 0.0]
['beep', 0.0, 776.5219541218227, 0.0, 0.0, 0.0, 0.0, -3173.5230295089523, 0.0]
['beep', 0.0, 773.5044686203562, 0.0, 0.0, 0.0, 0.0, -3174.4394510316197, 0.0]
['beep', 0.0, 772.4092331420462, 0.0, 0.0, 0.0, 0.0, -3175.065299876368, 0.0]
['beep', 0.0, 772.1633639530378, 0.0, 0.0, 0.0, 0.0, -3172.8748289197483, 0.0]
['beep', 0.0, 771.2916459192808, 0.0, 0.0, 0.0, 0.0, -3174.1488783537006, 0.0]
['beep', 0.0, 772.8786197756076, 0.0, 0.0, 0.0, 0.0, -3174.7747271984495, 0.0]
['beep', 0.0, 772.6774540755099, 0.0, 0.0, 0.0, 0.0, -3175.1547068541895, 0.0]
['beep', 0.0, 771.2022389414595, 0.0, 0.0, 0.0, 0.0, -3173.5453812534074, 0.0]
['beep', 0.0, 770.86696277463, 0.0, 0.0, 0.0, 0.0, -3173.1877533421225, 0.0]
['beep', 0.0, 770.7775557968088, 0.0, 0.0, 0.0, 0.0, -3174.1935818426114, 0.0]
['beep', 0.0, 772.0963087196718, 0.0, 0.0, 0.0, 0.0, -3175.4899830210193, 0.0]
['beep', 0.0, 772.0516052307612, 0.0, 0.0, 0.0, 0.0, -3177.881619677737, 0.0]
['beep', 0.0, 771.1575354525489, 0.0, 0.0, 0.0, 0.0, -3176.6746254771506, 0.0]
['beep', 0.0, 771.6269220861104, 0.0, 0.0, 0.0, 0.0, -3175.8923144212145, 0.0]
['beep', 0.0, 771.9398465084847, 0.0, 0.0, 0.0, 0.0, -3176.8981429217033, 0.0]
['beep', 0.0, 774.1526692095601, 0.0, 0.0, 0.0, 0.0, -3177.00990164398, 0.0]
['beep', 0.0, 773.1691924535266, 0.0, 0.0, 0.0, 0.0, -3178.1274888667454, 0.0]
['beep', 0.0, 773.8173930427305, 0.0, 0.0, 0.0, 0.0, -3177.233419088533, 0.0]
['beep', 0.0, 772.5433436087781, 0.0, 0.0, 0.0, 0.0, -3177.680453977639, 0.0]
['beep', 0.0, 771.7163290639317, 0.0, 0.0, 0.0, 0.0, -3178.529820266941, 0.0]
['beep', 0.0, 772.029253486306, 0.0, 0.0, 0.0, 0.0, -3177.5463435109073, 0.0]
['beep', 0.0, 773.8620965316411, 0.0, 0.0, 0.0, 0.0, -3178.462765033575, 0.0]
['beep', 0.0, 773.1021372201607, 0.0, 0.0, 0.0, 0.0, -3178.887448178226, 0.0]
['beep', 0.0, 771.8951430195741, 0.0, 0.0, 0.0, 0.0, -3179.7368144675274, 0.0]
['beep', 0.0, 773.5491721092668, 0.0, 0.0, 0.0, 0.0, -3178.7533377114937, 0.0]
['beep', 0.0, 773.8397447871859, 0.0, 0.0, 0.0, 0.0, -3179.3121313228767, 0.0]
['beep', 0.0, 773.9515035094623, 0.0, 0.0, 0.0, 0.0, -3179.5132970229743, 0.0]
['beep', 0.0, 773.7950412982752, 0.0, 0.0, 0.0, 0.0, -3179.4462417896084, 0.0]
['beep', 0.0, 773.705634320454, 0.0, 0.0, 0.0, 0.0, -3178.1274888667454, 0.0]
['beep', 0.0, 771.8727912751187, 0.0, 0.0, 0.0, 0.0, -3180.1167941232675, 0.0]
['beep', 0.0, 771.4704598749232, 0.0, 0.0, 0.0, 0.0, -3180.8320499458373, 0.0]
['beep', 0.0, 773.8620965316411, 0.0, 0.0, 0.0, 0.0, -3180.496773779008, 0.0]
['beep', 0.0, 774.6891110764875, 0.0, 0.0, 0.0, 0.0, -3180.4744220345524, 0.0]
['beep', 0.0, 773.9068000205517, 0.0, 0.0, 0.0, 0.0, -3179.222724345055, 0.0]
['beep', 0.0, 774.2420761873814, 0.0, 0.0, 0.0, 0.0, -3179.3568348117874, 0.0]
['beep', 0.0, 774.3761866541132, 0.0, 0.0, 0.0, 0.0, -3178.976855156047, 0.0]
['beep', 0.0, 775.4714221324232, 0.0, 0.0, 0.0, 0.0, -3179.0886138783235, 0.0]
['beep', 0.0, 774.6220558431215, 0.0, 0.0, 0.0, 0.0, -3180.563829012374, 0.0]
['beep', 0.0, 774.7561663098534, 0.0, 0.0, 0.0, 0.0, -3180.6755877346504, 0.0]
['beep', 0.0, 773.6609308315434, 0.0, 0.0, 0.0, 0.0, -3181.3461400683095, 0.0]
['beep', 0.0, 774.510297120845, 0.0, 0.0, 0.0, 0.0, -3181.9496371686027, 0.0]
['beep', 0.0, 776.0302157438059, 0.0, 0.0, 0.0, 0.0, -3183.067224391368, 0.0]
['beep', 0.0, 774.3538349096578, 0.0, 0.0, 0.0, 0.0, -3182.240209846522, 0.0]
['beep', 0.0, 773.2362476868925, 0.0, 0.0, 0.0, 0.0, -3178.842744689315, 0.0]
['beep', 0.0, 773.3927098980797, 0.0, 0.0, 0.0, 0.0, -3179.5132970229743, 0.0]
['beep', 0.0, 773.3256546647137, 0.0, 0.0, 0.0, 0.0, -3179.3568348117874, 0.0]
['beep', 0.0, 775.1137942211383, 0.0, 0.0, 0.0, 0.0, -3180.586180756829, 0.0]
['beep', 0.0, 775.8066982992528, 0.0, 0.0, 0.0, 0.0, -3181.6814162351393, 0.0]
['beep', 0.0, 775.2255529434149, 0.0, 0.0, 0.0, 0.0, -3181.4131953016754, 0.0]
['beep', 0.0, 775.4714221324232, 0.0, 0.0, 0.0, 0.0, -3181.0555673903905, 0.0]
['beep', 0.0, 776.6784163330099, 0.0, 0.0, 0.0, 0.0, -3180.563829012374, 0.0]
['beep', 0.0, 776.0749192327165, 0.0, 0.0, 0.0, 0.0, -3181.435547046131, 0.0]
['beep', 0.0, 776.4101953995462, 0.0, 0.0, 0.0, 0.0, -3180.854401690293, 0.0]
['beep', 0.0, 774.3761866541132, 0.0, 0.0, 0.0, 0.0, -3180.1167941232675, 0.0]
['beep', 0.0, 774.6220558431215, 0.0, 0.0, 0.0, 0.0, -3180.586180756829, 0.0]
['beep', 0.0, 776.3654919106356, 0.0, 0.0, 0.0, 0.0, -3180.496773779008, 0.0]
['beep', 0.0, 777.8407070446858, 0.0, 0.0, 0.0, 0.0, -3181.6590644906837, 0.0]
['beep', 0.0, 776.0078639993505, 0.0, 0.0, 0.0, 0.0, -3180.7426429680163, 0.0]
['beep', 0.0, 775.1137942211383, 0.0, 0.0, 0.0, 0.0, -3180.4073668011865, 0.0]
['beep', 0.0, 774.1303174651048, 0.0, 0.0, 0.0, 0.0, -3181.502602279497, 0.0]
['beep', 0.0, 775.4490703879679, 0.0, 0.0, 0.0, 0.0, -3181.524954023952, 0.0]
['beep', 0.0, 776.1196227216271, 0.0, 0.0, 0.0, 0.0, -3180.6308842457397, 0.0]
['beep', 0.0, 774.6891110764875, 0.0, 0.0, 0.0, 0.0, -3180.3403115678207, 0.0]
['beep', 0.0, 774.8902767765852, 0.0, 0.0, 0.0, 0.0, -3178.7980412004044, 0.0]
['beep', 0.0, 774.86792503213, 0.0, 0.0, 0.0, 0.0, -3178.9992069005025, 0.0]
['beep', 0.0, 774.7338145653981, 0.0, 0.0, 0.0, 0.0, -3179.133317367234, 0.0]
['beep', 0.0, 775.4490703879679, 0.0, 0.0, 0.0, 0.0, -3180.4520702900973, 0.0]
['beep', 0.0, 775.4714221324232, 0.0, 0.0, 0.0, 0.0, -3182.3519685687984, 0.0]
['beep', 0.0, 775.1137942211383, 0.0, 0.0, 0.0, 0.0, -3181.815526701871, 0.0]
['beep', 0.0, 775.8514017881635, 0.0, 0.0, 0.0, 0.0, -3181.9719889130583, 0.0]
['beep', 0.0, 775.9184570215293, 0.0, 0.0, 0.0, 0.0, -3181.100270879301, 0.0]
['beep', 0.0, 776.5219541218227, 0.0, 0.0, 0.0, 0.0, -3181.4131953016754, 0.0]
['beep', 0.0, 774.800869798764, 0.0, 0.0, 0.0, 0.0, -3180.228552845544, 0.0]
['beep', 0.0, 773.4821168759009, 0.0, 0.0, 0.0, 0.0, -3179.870924934259, 0.0]
['beep', 0.0, 773.9515035094623, 0.0, 0.0, 0.0, 0.0, -3180.206201101089, 0.0]
['beep', 0.0, 774.2420761873814, 0.0, 0.0, 0.0, 0.0, -3181.0332156459353, 0.0]
['beep', 0.0, 775.5608291102444, 0.0, 0.0, 0.0, 0.0, -3180.9214569236588, 0.0]
['beep', 0.0, 775.9408087659847, 0.0, 0.0, 0.0, 0.0, -3180.586180756829, 0.0]
['beep', 0.0, 774.7785180543087, 0.0, 0.0, 0.0, 0.0, -3179.4462417896084, 0.0]
['beep', 0.0, 773.9068000205517, 0.0, 0.0, 0.0, 0.0, -3178.686282478128, 0.0]
['beep', 0.0, 775.1584977100489, 0.0, 0.0, 0.0, 0.0, -3178.7533377114937, 0.0]
['beep', 0.0, 774.5773523542109, 0.0, 0.0, 0.0, 0.0, -3181.4802505350413, 0.0]
['beep', 0.0, 774.6220558431215, 0.0, 0.0, 0.0, 0.0, -3180.8320499458373, 0.0]
['beep', 0.0, 773.5044686203562, 0.0, 0.0, 0.0, 0.0, -3181.7037679795944, 0.0]
['beep', 0.0, 773.3480064091691, 0.0, 0.0, 0.0, 0.0, -3181.212029601578, 0.0]
['beep', 0.0, 775.0020354988618, 0.0, 0.0, 0.0, 0.0, -3179.0439103894128, 0.0]
['beep', 0.0, 775.605532599155, 0.0, 0.0, 0.0, 0.0, -3178.686282478128, 0.0]
['beep', 0.0, 776.0972709771718, 0.0, 0.0, 0.0, 0.0, -3181.5696575128627, 0.0]
['beep', 0.0, 774.7114628209428, 0.0, 0.0, 0.0, 0.0, -3179.9826836565358, 0.0]
['beep', 0.0, 772.5209918643227, 0.0, 0.0, 0.0, 0.0, -3178.887448178226, 0.0]
['beep', 0.0, 773.415061642535, 0.0, 0.0, 0.0, 0.0, -3180.496773779008, 0.0]
['beep', 0.0, 774.7114628209428, 0.0, 0.0, 0.0, 0.0, -3180.2509045899997, 0.0]
['beep', 0.0, 774.3314831652026, 0.0, 0.0, 0.0, 0.0, -3179.647407489706, 0.0]
['beep', 0.0, 774.0185587428283, 0.0, 0.0, 0.0, 0.0, -3180.4744220345524, 0.0]
['beep', 0.0, 773.8620965316411, 0.0, 0.0, 0.0, 0.0, -3179.4685935340635, 0.0]
['beep', 0.0, 775.3596634101467, 0.0, 0.0, 0.0, 0.0, -3180.139145867723, 0.0]
['beep', 0.0, 775.3596634101467, 0.0, 0.0, 0.0, 0.0, -3180.0497388899016, 0.0]
['beep', 0.0, 775.0020354988618, 0.0, 0.0, 0.0, 0.0, -3178.5074685224854, 0.0]
['beep', 0.0, 773.8397447871859, 0.0, 0.0, 0.0, 0.0, -3178.3510063112985, 0.0]
['beep', 0.0, 772.8115645422417, 0.0, 0.0, 0.0, 0.0, -3178.194544100111, 0.0]
['beep', 0.0, 773.7726895538199, 0.0, 0.0, 0.0, 0.0, -3178.4851167780303, 0.0]
['beep', 0.0, 774.4879453763897, 0.0, 0.0, 0.0, 0.0, -3179.8932766787148, 0.0]
['beep', 0.0, 774.5550006097557, 0.0, 0.0, 0.0, 0.0, -3180.720291223561, 0.0]
['beep', 0.0, 773.5715238537222, 0.0, 0.0, 0.0, 0.0, -3178.82039294486, 0.0]
['beep', 0.0, 772.3645296531356, 0.0, 0.0, 0.0, 0.0, -3179.4238900451533, 0.0]
['beep', 0.0, 773.8844482760965, 0.0, 0.0, 0.0, 0.0, -3180.29560807891, 0.0]
['beep', 0.0, 776.4325471440014, 0.0, 0.0, 0.0, 0.0, -3181.234381346033, 0.0]
['beep', 0.0, 776.3654919106356, 0.0, 0.0, 0.0, 0.0, -3180.4744220345524, 0.0]
['beep', 0.0, 775.2926081767807, 0.0, 0.0, 0.0, 0.0, -3179.9826836565358, 0.0]
['beep', 0.0, 774.7114628209428, 0.0, 0.0, 0.0, 0.0, -3181.748471468505, 0.0]
['beep', 0.0, 774.7785180543087, 0.0, 0.0, 0.0, 0.0, -3182.10609937979, 0.0]
['beep', 0.0, 775.9631605104399, 0.0, 0.0, 0.0, 0.0, -3181.2790848349437, 0.0]
['beep', 0.0, 775.6949395769763, 0.0, 0.0, 0.0, 0.0, -3182.150802868701, 0.0]
['beep', 0.0, 774.9126285210406, 0.0, 0.0, 0.0, 0.0, -3181.4131953016754, 0.0]
['beep', 0.0, 774.5550006097557, 0.0, 0.0, 0.0, 0.0, -3180.273256334455, 0.0]
['beep', 0.0, 775.7172913214316, 0.0, 0.0, 0.0, 0.0, -3181.144974368212, 0.0]
['beep', 0.0, 776.2090296994484, 0.0, 0.0, 0.0, 0.0, -3182.128451124245, 0.0]
['beep', 0.0, 775.3149599212361, 0.0, 0.0, 0.0, 0.0, -3182.128451124245, 0.0]
['beep', 0.0, 772.7445093088758, 0.0, 0.0, 0.0, 0.0, -3180.228552845544, 0.0]
['beep', 0.0, 771.8727912751187, 0.0, 0.0, 0.0, 0.0, -3180.2509045899997, 0.0]
['beep', 0.0, 773.0127302423394, 0.0, 0.0, 0.0, 0.0, -3179.6921109786167, 0.0]
['beep', 0.0, 774.9796837544064, 0.0, 0.0, 0.0, 0.0, -3179.58035225634, 0.0]
['beep', 0.0, 774.9126285210406, 0.0, 0.0, 0.0, 0.0, -3181.100270879301, 0.0]
['beep', 0.0, 775.2926081767807, 0.0, 0.0, 0.0, 0.0, -3180.29560807891, 0.0]
['beep', 0.0, 773.1468407090713, 0.0, 0.0, 0.0, 0.0, -3182.150802868701, 0.0]
['beep', 0.0, 773.7279860649093, 0.0, 0.0, 0.0, 0.0, -3182.240209846522, 0.0]
['beep', 0.0, 774.7561663098534, 0.0, 0.0, 0.0, 0.0, -3180.9661604125695, 0.0]
['beep', 0.0, 773.7503378093646, 0.0, 0.0, 0.0, 0.0, -3181.100270879301, 0.0]
['beep', 0.0, 773.1691924535266, 0.0, 0.0, 0.0, 0.0, -3180.7426429680163, 0.0]
['beep', 0.0, 773.3256546647137, 0.0, 0.0, 0.0, 0.0, -3180.6755877346504, 0.0]
['beep', 0.0, 774.8455732876746, 0.0, 0.0, 0.0, 0.0, -3182.7095964800833, 0.0]
['beep', 0.0, 775.1137942211383, 0.0, 0.0, 0.0, 0.0, -3183.804831958393, 0.0]
['beep', 0.0, 774.3761866541132, 0.0, 0.0, 0.0, 0.0, -3182.553134268896, 0.0]
['beep', 0.0, 774.6444075875769, 0.0, 0.0, 0.0, 0.0, -3179.781517956438, 0.0]
['beep', 0.0, 775.0690907322277, 0.0, 0.0, 0.0, 0.0, -3180.072090634357, 0.0]
['beep', 0.0, 775.4043668990573, 0.0, 0.0, 0.0, 0.0, -3182.754299968994, 0.0]
['beep', 0.0, 775.605532599155, 0.0, 0.0, 0.0, 0.0, -3182.3072650798877, 0.0]
['beep', 0.0, 775.8737535326187, 0.0, 0.0, 0.0, 0.0, -3180.3403115678207, 0.0]
['beep', 0.0, 776.1196227216271, 0.0, 0.0, 0.0, 0.0, -3180.4520702900973, 0.0]
['beep', 0.0, 776.1419744660824, 0.0, 0.0, 0.0, 0.0, -3181.524954023952, 0.0]
['beep', 0.0, 777.5277826223115, 0.0, 0.0, 0.0, 0.0, -3170.10321260729, 0.0]
['beep', 0.0, 776.477250632912, 0.0, 0.0, 0.0, 0.0, -3169.6785294626393, 0.0]
['beep', 0.0, 775.2479046878701, 0.0, 0.0, 0.0, 0.0, -3168.762107939972, 0.0]
['beep', 0.0, 776.0749192327165, 0.0, 0.0, 0.0, 0.0, -3168.9632736400695, 0.0]
['beep', 0.0, 776.4325471440014, 0.0, 0.0, 0.0, 0.0, -3168.784459684427, 0.0]
['beep', 0.0, 775.0690907322277, 0.0, 0.0, 0.0, 0.0, -3170.013805629469, 0.0]
['beep', 0.0, 775.0467389877724, 0.0, 0.0, 0.0, 0.0, -3168.762107939972, 0.0]
['beep', 0.0, 775.5608291102444, 0.0, 0.0, 0.0, 0.0, -3168.6503492176953, 0.0]
['beep', 0.0, 777.125451222116, 0.0, 0.0, 0.0, 0.0, -3170.974930641047, 0.0]
['beep', 0.0, 778.2430384448813, 0.0, 0.0, 0.0, 0.0, -3170.8631719187706, 0.0]
['beep', 0.0, 778.4665558894344, 0.0, 0.0, 0.0, 0.0, -3170.6173027297623, 0.0]
['beep', 0.0, 777.8183553002305, 0.0, 0.0, 0.0, 0.0, -3170.5055440074857, 0.0]
['beep', 0.0, 776.834878544197, 0.0, 0.0, 0.0, 0.0, -3170.3490817962984, 0.0]
['beep', 0.0, 776.4548988884568, 0.0, 0.0, 0.0, 0.0, -3169.8349916738266, 0.0]
['beep', 0.0, 777.7960035557752, 0.0, 0.0, 0.0, 0.0, -3171.623131230251, 0.0]
['beep', 0.0, 777.8630587891411, 0.0, 0.0, 0.0, 0.0, -3173.2101050865776, 0.0]
['beep', 0.0, 777.4607273889455, 0.0, 0.0, 0.0, 0.0, -3171.3549102967872, 0.0]
['beep', 0.0, 778.220686700426, 0.0, 0.0, 0.0, 0.0, -3170.4161370296642, 0.0]
['beep', 0.0, 779.2041634564595, 0.0, 0.0, 0.0, 0.0, -3170.684357963128, 0.0]
['beep', 0.0, 779.3159221787361, 0.0, 0.0, 0.0, 0.0, -3171.7348899525273, 0.0]
['beep', 0.0, 777.9524657669623, 0.0, 0.0, 0.0, 0.0, -3172.8748289197483, 0.0]
['beep', 0.0, 778.0418727447835, 0.0, 0.0, 0.0, 0.0, -3172.8077736863825, 0.0]
['beep', 0.0, 778.2653901893366, 0.0, 0.0, 0.0, 0.0, -3172.696014964106, 0.0]
['beep', 0.0, 777.3042651777585, 0.0, 0.0, 0.0, 0.0, -3171.8690004192595, 0.0]
['beep', 0.0, 779.6511983455656, 0.0, 0.0, 0.0, 0.0, -3172.405442286187, 0.0]
['beep', 0.0, 779.8747157901187, 0.0, 0.0, 0.0, 0.0, -3172.718366708561, 0.0]
['beep', 0.0, 780.0982332346717, 0.0, 0.0, 0.0, 0.0, -3172.2489800749995, 0.0]
['beep', 0.0, 779.3382739231913, 0.0, 0.0, 0.0, 0.0, -3171.399613785698, 0.0]
['beep', 0.0, 780.6793785905098, 0.0, 0.0, 0.0, 0.0, -3169.879695162737, 0.0]
['beep', 0.0, 781.1934687129818, 0.0, 0.0, 0.0, 0.0, -3169.812639929371, 0.0]
['beep', 0.0, 780.2770471903143, 0.0, 0.0, 0.0, 0.0, -3170.527895751941, 0.0]
['beep', 0.0, 778.3324454227026, 0.0, 0.0, 0.0, 0.0, -3169.00797712898, 0.0]
['beep', 0.0, 777.4830791334009, 0.0, 0.0, 0.0, 0.0, -3168.6279974732397, 0.0]
['beep', 0.0, 778.3100936782472, 0.0, 0.0, 0.0, 0.0, -3168.6950527066056, 0.0]
['beep', 0.0, 779.6959018344762, 0.0, 0.0, 0.0, 0.0, -3168.9856253845246, 0.0]
['beep', 0.0, 779.3159221787361, 0.0, 0.0, 0.0, 0.0, -3169.119735851257, 0.0]
['beep', 0.0, 777.6842448334986, 0.0, 0.0, 0.0, 0.0, -3168.0021486284913, 0.0]
['beep', 0.0, 777.8183553002305, 0.0, 0.0, 0.0, 0.0, -3167.845686417304, 0.0]
['beep', 0.0, 778.5783146117109, 0.0, 0.0, 0.0, 0.0, -3170.4161370296642, 0.0]
['beep', 0.0, 778.0195210003283, 0.0, 0.0, 0.0, 0.0, -3170.170267840656, 0.0]
['beep', 0.0, 778.6900733339875, 0.0, 0.0, 0.0, 0.0, -3169.075032362346, 0.0]
['beep', 0.0, 777.4607273889455, 0.0, 0.0, 0.0, 0.0, -3169.7008812070944, 0.0]
['beep', 0.0, 776.3431401661802, 0.0, 0.0, 0.0, 0.0, -3169.4773637625417, 0.0]
['beep', 0.0, 776.186677954993, 0.0, 0.0, 0.0, 0.0, -3169.72323295155, 0.0]
['beep', 0.0, 777.6842448334986, 0.0, 0.0, 0.0, 0.0, -3169.1867910846227, 0.0]
['beep', 0.0, 777.8630587891411, 0.0, 0.0, 0.0, 0.0, -3170.684357963128, 0.0]
['beep', 0.0, 777.7736518113198, 0.0, 0.0, 0.0, 0.0, -3170.9525788965916, 0.0]
['beep', 0.0, 776.834878544197, 0.0, 0.0, 0.0, 0.0, -3169.0303288734353, 0.0]
['beep', 0.0, 778.5783146117109, 0.0, 0.0, 0.0, 0.0, -3169.8573434182817, 0.0]
['beep', 0.0, 780.0535297457611, 0.0, 0.0, 0.0, 0.0, -3169.6338259737286, 0.0]
['beep', 0.0, 783.0486635027723, 0.0, 0.0, 0.0, 0.0, -3169.164439340167, 0.0]
['beep', 0.0, 780.7240820794204, 0.0, 0.0, 0.0, 0.0, -3169.879695162737, 0.0]
['beep', 0.0, 774.0185587428283, 0.0, 0.0, 0.0, 0.0, -3170.7961166854047, 0.0]
['beep', 0.0, 771.4257563860126, 0.0, 0.0, 0.0, 0.0, -3170.527895751941, 0.0]
['beep', 0.0, 769.8387825296859, 0.0, 0.0, 0.0, 0.0, -3168.180962584134, 0.0]
['beep', 0.0, 769.1682301960267, 0.0, 0.0, 0.0, 0.0, -3168.8962184067036, 0.0]
['beep', 0.0, 769.3917476405798, 0.0, 0.0, 0.0, 0.0, -3168.560942239874, 0.0]
['beep', 0.0, 769.481154618401, 0.0, 0.0, 0.0, 0.0, -3168.4044800286865, 0.0]
['beep', 0.0, 771.671625575021, 0.0, 0.0, 0.0, 0.0, -3167.9350933951255, 0.0]
['beep', 0.0, 771.2692941748255, 0.0, 0.0, 0.0, 0.0, -3169.075032362346, 0.0]
['beep', 0.0, 770.4869831188897, 0.0, 0.0, 0.0, 0.0, -3169.522067251452, 0.0]
['beep', 0.0, 769.7493755518647, 0.0, 0.0, 0.0, 0.0, -3170.3267300518432, 0.0]
['beep', 0.0, 767.7377185508869, 0.0, 0.0, 0.0, 0.0, -3168.8291631733377, 0.0]
['beep', 0.0, 769.0341197292948, 0.0, 0.0, 0.0, 0.0, -3168.806811428882, 0.0]
['beep', 0.0, 768.4753261179121, 0.0, 0.0, 0.0, 0.0, -3170.7961166854047, 0.0]
['beep', 0.0, 769.4364511294904, 0.0, 0.0, 0.0, 0.0, -3169.8349916738266, 0.0]
['beep', 0.0, 767.8271255287082, 0.0, 0.0, 0.0, 0.0, -3168.9632736400695, 0.0]
['beep', 0.0, 768.1847534399931, 0.0, 0.0, 0.0, 0.0, -3168.0021486284913, 0.0]
['beep', 0.0, 768.9223610070183, 0.0, 0.0, 0.0, 0.0, -3169.745584696005, 0.0]
['beep', 0.0, 768.7435470513758, 0.0, 0.0, 0.0, 0.0, -3170.393785285209, 0.0]
['beep', 0.0, 768.8553057736524, 0.0, 0.0, 0.0, 0.0, -3168.9409218956143, 0.0]
['beep', 0.0, 768.251808673359, 0.0, 0.0, 0.0, 0.0, -3169.00797712898, 0.0]
['beep', 0.0, 766.0836894611942, 0.0, 0.0, 0.0, 0.0, -3168.560942239874, 0.0]
['beep', 0.0, 766.4189656280239, 0.0, 0.0, 0.0, 0.0, -3167.1527823391893, 0.0]
['beep', 0.0, 767.0671662172277, 0.0, 0.0, 0.0, 0.0, -3169.4103085291754, 0.0]
['beep', 0.0, 767.1789249395043, 0.0, 0.0, 0.0, 0.0, -3169.812639929371, 0.0]
['beep', 0.0, 766.6201313281216, 0.0, 0.0, 0.0, 0.0, -3168.180962584134, 0.0]
['beep', 0.0, 766.6201313281216, 0.0, 0.0, 0.0, 0.0, -3168.516238750963, 0.0]
['beep', 0.0, 768.6541400735546, 0.0, 0.0, 0.0, 0.0, -3168.717404451061, 0.0]
['beep', 0.0, 767.9835877398954, 0.0, 0.0, 0.0, 0.0, -3169.9691021405583, 0.0]
['beep', 0.0, 768.0729947177166, 0.0, 0.0, 0.0, 0.0, -3170.684357963128, 0.0]
['beep', 0.0, 768.1847534399931, 0.0, 0.0, 0.0, 0.0, -3169.1867910846227, 0.0]
['beep', 0.0, 766.1954481834708, 0.0, 0.0, 0.0, 0.0, -3168.806811428882, 0.0]
['beep', 0.0, 766.9554074949513, 0.0, 0.0, 0.0, 0.0, -3168.851514917793, 0.0]
['beep', 0.0, 768.4306226290015, 0.0, 0.0, 0.0, 0.0, -3167.9797968840357, 0.0]
['beep', 0.0, 768.6764918180099, 0.0, 0.0, 0.0, 0.0, -3168.4491835175972, 0.0]
['beep', 0.0, 767.96123599544, 0.0, 0.0, 0.0, 0.0, -3168.3821282842314, 0.0]
['beep', 0.0, 768.0729947177166, 0.0, 0.0, 0.0, 0.0, -3168.0021486284913, 0.0]
['beep', 0.0, 768.8106022847418, 0.0, 0.0, 0.0, 0.0, -3169.812639929371, 0.0]
['beep', 0.0, 769.2576371738479, 0.0, 0.0, 0.0, 0.0, -3170.9525788965916, 0.0]
['beep', 0.0, 768.832954029197, 0.0, 0.0, 0.0, 0.0, -3170.460840518575, 0.0]
['beep', 0.0, 768.3859191400909, 0.0, 0.0, 0.0, 0.0, -3169.4773637625417, 0.0]
['beep', 0.0, 769.0788232182055, 0.0, 0.0, 0.0, 0.0, -3167.175134083645, 0.0]
['beep', 0.0, 770.0846517186942, 0.0, 0.0, 0.0, 0.0, -3167.8903899062148, 0.0]
['beep', 0.0, 770.4422796299791, 0.0, 0.0, 0.0, 0.0, -3169.8349916738266, 0.0]
['beep', 0.0, 771.2469424303702, 0.0, 0.0, 0.0, 0.0, -3168.2927213064104, 0.0]
['beep', 0.0, 772.0069017418506, 0.0, 0.0, 0.0, 0.0, -3166.2810643054327, 0.0]
['beep', 0.0, 770.6657970745322, 0.0, 0.0, 0.0, 0.0, -3167.5104102504743, 0.0]
['beep', 0.0, 770.3752243966132, 0.0, 0.0, 0.0, 0.0, -3169.5444189959076, 0.0]
['beep', 0.0, 773.0574337312501, 0.0, 0.0, 0.0, 0.0, -3169.9467503961027, 0.0]
['beep', 0.0, 773.3256546647137, 0.0, 0.0, 0.0, 0.0, -3168.4491835175972, 0.0]
['beep', 0.0, 771.5375151082892, 0.0, 0.0, 0.0, 0.0, -3167.6445207172064, 0.0]
['beep', 0.0, 771.5151633638338, 0.0, 0.0, 0.0, 0.0, -3167.4210032726533, 0.0]
['beep', 0.0, 771.96219825294, 0.0, 0.0, 0.0, 0.0, -3167.2198375725557, 0.0]
['beep', 0.0, 773.9068000205517, 0.0, 0.0, 0.0, 0.0, -3166.0575468608795, 0.0]
['beep', 0.0, 772.900971520063, 0.0, 0.0, 0.0, 0.0, -3166.81750617236, 0.0]
['beep', 0.0, 773.1021372201607, 0.0, 0.0, 0.0, 0.0, -3164.850552660293, 0.0]
['beep', 0.0, 772.2751226753144, 0.0, 0.0, 0.0, 0.0, -3164.850552660293, 0.0]
['beep', 0.0, 771.3139976637361, 0.0, 0.0, 0.0, 0.0, -3165.8340294163263, 0.0]
['beep', 0.0, 772.3421779086802, 0.0, 0.0, 0.0, 0.0, -3165.565808482863, 0.0]
['beep', 0.0, 772.0516052307612, 0.0, 0.0, 0.0, 0.0, -3166.549285238896, 0.0]
['beep', 0.0, 770.1293552076048, 0.0, 0.0, 0.0, 0.0, -3165.0517183603906, 0.0]
['beep', 0.0, 770.1293552076048, 0.0, 0.0, 0.0, 0.0, -3163.6659102041617, 0.0]
['beep', 0.0, 772.3645296531356, 0.0, 0.0, 0.0, 0.0, -3165.0293666159355, 0.0]
['beep', 0.0, 773.6609308315434, 0.0, 0.0, 0.0, 0.0, -3164.8058491713823, 0.0]
['beep', 0.0, 772.8562680311524, 0.0, 0.0, 0.0, 0.0, -3165.4764015050414, 0.0]
['beep', 0.0, 772.0739569752166, 0.0, 0.0, 0.0, 0.0, -3165.8340294163263, 0.0]
['beep', 0.0, 770.1070034631496, 0.0, 0.0, 0.0, 0.0, -3166.0351951164243, 0.0]
['beep', 0.0, 771.5375151082892, 0.0, 0.0, 0.0, 0.0, -3165.0293666159355, 0.0]
['beep', 0.0, 773.1021372201607, 0.0, 0.0, 0.0, 0.0, -3165.856381160782, 0.0]
['beep', 0.0, 773.124488964616, 0.0, 0.0, 0.0, 0.0, -3163.9564828820808, 0.0]
['beep', 0.0, 770.0846517186942, 0.0, 0.0, 0.0, 0.0, -3162.525971236941, 0.0]
['beep', 0.0, 767.7153668064317, 0.0, 0.0, 0.0, 0.0, -3164.6046834712847, 0.0]
['beep', 0.0, 768.900009262563, 0.0, 0.0, 0.0, 0.0, -3165.3199392938545, 0.0]
['beep', 0.0, 776.5890093551886, 0.0, 0.0, 0.0, 0.0, -3164.5376282379184, 0.0]
['beep', 0.0, 779.4723843899231, 0.0, 0.0, 0.0, 0.0, -3163.3529857817875, 0.0]
['beep', 0.0, 780.9252477795181, 0.0, 0.0, 0.0, 0.0, -3164.358814282276, 0.0]
['beep', 0.0, 783.3615879251466, 0.0, 0.0, 0.0, 0.0, -3163.4870962485193, 0.0]
['beep', 0.0, 782.4004629135684, 0.0, 0.0, 0.0, 0.0, -3163.934131137625, 0.0]
['beep', 0.0, 781.3275791797137, 0.0, 0.0, 0.0, 0.0, -3162.7271369370387, 0.0]
['beep', 0.0, 783.0039600138617, 0.0, 0.0, 0.0, 0.0, -3163.0624131038685, 0.0]
['beep', 0.0, 782.3110559357472, 0.0, 0.0, 0.0, 0.0, -3163.1518200816895, 0.0]
['beep', 0.0, 780.7464338238757, 0.0, 0.0, 0.0, 0.0, -3163.263578803966, 0.0]
['beep', 0.0, 780.0311780013059, 0.0, 0.0, 0.0, 0.0, -3163.1965235706, 0.0]
['beep', 0.0, 781.126413479616, 0.0, 0.0, 0.0, 0.0, -3163.3753375262427, 0.0]
['beep', 0.0, 781.8863727910964, 0.0, 0.0, 0.0, 0.0, -3165.7222706940497, 0.0]
['beep', 0.0, 780.3217506792249, 0.0, 0.0, 0.0, 0.0, -3164.7611456824716, 0.0]
['beep', 0.0, 780.0311780013059, 0.0, 0.0, 0.0, 0.0, -3162.391860770209, 0.0]
['beep', 0.0, 780.6570268460545, 0.0, 0.0, 0.0, 0.0, -3162.9953578705026, 0.0]
['beep', 0.0, 781.349930924169, 0.0, 0.0, 0.0, 0.0, -3162.5706747258514, 0.0]
['beep', 0.0, 780.3441024236802, 0.0, 0.0, 0.0, 0.0, -3163.0847648483236, 0.0]
['beep', 0.0, 780.9475995239735, 0.0, 0.0, 0.0, 0.0, -3164.3811660267315, 0.0]
['beep', 0.0, 781.7746140688198, 0.0, 0.0, 0.0, 0.0, -3163.844724159804, 0.0]
['beep', 0.0, 782.2216489579259, 0.0, 0.0, 0.0, 0.0, -3162.950654381592, 0.0]
['beep', 0.0, 781.2158204574372, 0.0, 0.0, 0.0, 0.0, -3162.749488681494, 0.0]
['beep', 0.0, 781.1934687129818, 0.0, 0.0, 0.0, 0.0, -3161.654253203184, 0.0]
['beep', 0.0, 780.2993989347696, 0.0, 0.0, 0.0, 0.0, -3160.938997380614, 0.0]
['beep', 0.0, 779.0700529897276, 0.0, 0.0, 0.0, 0.0, -3160.9613491250693, 0.0]
['beep', 0.0, 779.4276809010125, 0.0, 0.0, 0.0, 0.0, -3163.0177096149578, 0.0]
['beep', 0.0, 779.2712186898254, 0.0, 0.0, 0.0, 0.0, -3164.9846631270248, 0.0]
['beep', 0.0, 779.8747157901187, 0.0, 0.0, 0.0, 0.0, -3162.9283026371363, 0.0]
['beep', 0.0, 779.8300123012081, 0.0, 0.0, 0.0, 0.0, -3162.391860770209, 0.0]
['beep', 0.0, 777.9077622780517, 0.0, 0.0, 0.0, 0.0, -3161.9001223921923, 0.0]
['beep', 0.0, 779.4723843899231, 0.0, 0.0, 0.0, 0.0, -3161.967177625558, 0.0]
['beep', 0.0, 779.8076605567528, 0.0, 0.0, 0.0, 0.0, -3163.4870962485193, 0.0]
['beep', 0.0, 779.8300123012081, 0.0, 0.0, 0.0, 0.0, -3163.1071165927788, 0.0]
['beep', 0.0, 780.3217506792249, 0.0, 0.0, 0.0, 0.0, -3162.3471572812987, 0.0]
['beep', 0.0, 781.1934687129818, 0.0, 0.0, 0.0, 0.0, -3160.916645636159, 0.0]
['beep', 0.0, 781.0370065017947, 0.0, 0.0, 0.0, 0.0, -3160.8272386583376, 0.0]
['beep', 0.0, 780.3664541681355, 0.0, 0.0, 0.0, 0.0, -3161.073107847346, 0.0]
['beep', 0.0, 779.1818117120042, 0.0, 0.0, 0.0, 0.0, -3161.4083840141757, 0.0]
['beep', 0.0, 776.834878544197, 0.0, 0.0, 0.0, 0.0, -3161.8107154143713, 0.0]
['beep', 0.0, 776.5219541218227, 0.0, 0.0, 0.0, 0.0, -3161.72130843655, 0.0]
['beep', 0.0, 776.3431401661802, 0.0, 0.0, 0.0, 0.0, -3163.4870962485193, 0.0]
['beep', 0.0, 778.444204144979, 0.0, 0.0, 0.0, 0.0, -3161.944825881103, 0.0]
['beep', 0.0, 778.4218524005238, 0.0, 0.0, 0.0, 0.0, -3162.011881114469, 0.0]
['beep', 0.0, 775.6278843436104, 0.0, 0.0, 0.0, 0.0, -3162.011881114469, 0.0]
['beep', 0.0, 776.0525674882612, 0.0, 0.0, 0.0, 0.0, -3161.1625148251674, 0.0]
['beep', 0.0, 777.7960035557752, 0.0, 0.0, 0.0, 0.0, -3161.1178113362566, 0.0]
['beep', 0.0, 778.1983349559707, 0.0, 0.0, 0.0, 0.0, -3161.318977036354, 0.0]
['beep', 0.0, 778.3771489116132, 0.0, 0.0, 0.0, 0.0, -3160.022575857947, 0.0]
['beep', 0.0, 778.0865762336941, 0.0, 0.0, 0.0, 0.0, -3159.173209568645, 0.0]
['beep', 0.0, 777.5948378556774, 0.0, 0.0, 0.0, 0.0, -3158.167381068156, 0.0]
['beep', 0.0, 778.8465355451746, 0.0, 0.0, 0.0, 0.0, -3157.3850700122202, 0.0]
['beep', 0.0, 778.8688872896299, 0.0, 0.0, 0.0, 0.0, -3159.2402648020106, 0.0]
['beep', 0.0, 777.639541344588, 0.0, 0.0, 0.0, 0.0, -3159.709651435572, 0.0]
['beep', 0.0, 777.6842448334986, 0.0, 0.0, 0.0, 0.0, -3159.9331688801253, 0.0]
['beep', 0.0, 777.7289483224092, 0.0, 0.0, 0.0, 0.0, -3159.2179130575555, 0.0]
['beep', 0.0, 778.4218524005238, 0.0, 0.0, 0.0, 0.0, -3159.396727013198, 0.0]
['beep', 0.0, 780.0535297457611, 0.0, 0.0, 0.0, 0.0, -3160.491962491508, 0.0]
['beep', 0.0, 781.5510966242667, 0.0, 0.0, 0.0, 0.0, -3159.687299691117, 0.0]
['beep', 0.0, 781.4840413909009, 0.0, 0.0, 0.0, 0.0, -3156.8709798897485, 0.0]
['beep', 0.0, 781.9757797689176, 0.0, 0.0, 0.0, 0.0, -3154.747564166494, 0.0]
['beep', 0.0, 782.9592565249511, 0.0, 0.0, 0.0, 0.0, -3156.178075811634, 0.0]
['beep', 0.0, 783.607457114155, 0.0, 0.0, 0.0, 0.0, -3156.2227793005445, 0.0]
['beep', 0.0, 781.5063931353561, 0.0, 0.0, 0.0, 0.0, -3156.982738612025, 0.0]
['beep', 0.0, 779.7182535789316, 0.0, 0.0, 0.0, 0.0, -3156.759221167472, 0.0]
['beep', 0.0, 778.6900733339875, 0.0, 0.0, 0.0, 0.0, -3155.5969304557957, 0.0]
['beep', 0.0, 778.0195210003283, 0.0, 0.0, 0.0, 0.0, -3156.6027589562846, 0.0]
['beep', 0.0, 778.1983349559707, 0.0, 0.0, 0.0, 0.0, -3156.111020578268, 0.0]
['beep', 0.0, 778.3547971671578, 0.0, 0.0, 0.0, 0.0, -3155.440468244609, 0.0]
['beep', 0.0, 778.220686700426, 0.0, 0.0, 0.0, 0.0, -3155.6416339447064, 0.0]
['beep', 0.0, 777.639541344588, 0.0, 0.0, 0.0, 0.0, -3155.440468244609, 0.0]
['beep', 0.0, 777.930114022507, 0.0, 0.0, 0.0, 0.0, -3157.943863623603, 0.0]
['beep', 0.0, 780.0088262568505, 0.0, 0.0, 0.0, 0.0, -3160.9613491250693, 0.0]
['beep', 0.0, 779.8747157901187, 0.0, 0.0, 0.0, 0.0, -3159.9555206245805, 0.0]
['beep', 0.0, 779.092404734183, 0.0, 0.0, 0.0, 0.0, -3158.5026572349857, 0.0]
['beep', 0.0, 778.7124250784427, 0.0, 0.0, 0.0, 0.0, -3157.206256056578, 0.0]
['beep', 0.0, 778.1536314670601, 0.0, 0.0, 0.0, 0.0, -3157.8544566457817, 0.0]
['beep', 0.0, 778.2430384448813, 0.0, 0.0, 0.0, 0.0, -3157.5638839678627, 0.0]
['beep', 0.0, 778.287741933792, 0.0, 0.0, 0.0, 0.0, -3157.653290945684, 0.0]
['beep', 0.0, 777.8183553002305, 0.0, 0.0, 0.0, 0.0, -3156.4462967450972, 0.0]
['beep', 0.0, 778.5559628672556, 0.0, 0.0, 0.0, 0.0, -3158.2791397904325, 0.0]
['beep', 0.0, 779.1147564786382, 0.0, 0.0, 0.0, 0.0, -3158.1897328126115, 0.0]
['beep', 0.0, 778.2653901893366, 0.0, 0.0, 0.0, 0.0, -3157.362718267765, 0.0]
['beep', 0.0, 778.511259378345, 0.0, 0.0, 0.0, 0.0, -3157.5191804789524, 0.0]
['beep', 0.0, 779.2712186898254, 0.0, 0.0, 0.0, 0.0, -3156.9156833786587, 0.0]
['beep', 0.0, 780.0311780013059, 0.0, 0.0, 0.0, 0.0, -3156.043965344902, 0.0]
['beep', 0.0, 779.7629570678422, 0.0, 0.0, 0.0, 0.0, -3155.8651513892596, 0.0]
['beep', 0.0, 782.2440007023813, 0.0, 0.0, 0.0, 0.0, -3156.4462967450972, 0.0]
['beep', 0.0, 782.7804425693087, 0.0, 0.0, 0.0, 0.0, -3157.8768083902373, 0.0]
['beep', 0.0, 781.5287448798115, 0.0, 0.0, 0.0, 0.0, -3157.34036652331, 0.0]
['beep', 0.0, 780.7911373127863, 0.0, 0.0, 0.0, 0.0, -3157.787401412416, 0.0]
['beep', 0.0, 780.9475995239735, 0.0, 0.0, 0.0, 0.0, -3157.8768083902373, 0.0]
['beep', 0.0, 780.9252477795181, 0.0, 0.0, 0.0, 0.0, -3157.943863623603, 0.0]
['beep', 0.0, 780.9475995239735, 0.0, 0.0, 0.0, 0.0, -3157.809753156871, 0.0]
['beep', 0.0, 779.2488669453701, 0.0, 0.0, 0.0, 0.0, -3158.3461950237984, 0.0]
['beep', 0.0, 779.606494856655, 0.0, 0.0, 0.0, 0.0, -3157.6085874567734, 0.0]
['beep', 0.0, 780.0535297457611, 0.0, 0.0, 0.0, 0.0, -3157.116849078757, 0.0]
['beep', 0.0, 780.5676198682332, 0.0, 0.0, 0.0, 0.0, -3156.423945000642, 0.0]
['beep', 0.0, 782.0651867467388, 0.0, 0.0, 0.0, 0.0, -3157.049793845391, 0.0]
['beep', 0.0, 780.8358408016969, 0.0, 0.0, 0.0, 0.0, -3155.552226966885, 0.0]
['beep', 0.0, 781.05935824625, 0.0, 0.0, 0.0, 0.0, -3155.8875031337147, 0.0]
['beep', 0.0, 780.5899716126886, 0.0, 0.0, 0.0, 0.0, -3155.6416339447064, 0.0]
['beep', 0.0, 780.3888059125908, 0.0, 0.0, 0.0, 0.0, -3156.3568897672762, 0.0]
['beep', 0.0, 782.8474978026745, 0.0, 0.0, 0.0, 0.0, -3157.8768083902373, 0.0]
['beep', 0.0, 783.1380704805936, 0.0, 0.0, 0.0, 0.0, -3156.982738612025, 0.0]
['beep', 0.0, 782.4898698913896, 0.0, 0.0, 0.0, 0.0, -3156.0886688338123, 0.0]
['beep', 0.0, 782.8027943137639, 0.0, 0.0, 0.0, 0.0, -3156.2227793005445, 0.0]
['beep', 0.0, 784.8368030591969, 0.0, 0.0, 0.0, 0.0, -3156.401593256187, 0.0]
['beep', 0.0, 785.2391344593924, 0.0, 0.0, 0.0, 0.0, -3154.9710816110473, 0.0]
['beep', 0.0, 783.7862710697974, 0.0, 0.0, 0.0, 0.0, -3155.5969304557957, 0.0]
['beep', 0.0, 783.0486635027723, 0.0, 0.0, 0.0, 0.0, -3156.3121862783655, 0.0]
['beep', 0.0, 783.7639193253422, 0.0, 0.0, 0.0, 0.0, -3157.072145589846, 0.0]
['beep', 0.0, 782.6463321025768, 0.0, 0.0, 0.0, 0.0, -3156.334538022821, 0.0]
['beep', 0.0, 783.026311758317, 0.0, 0.0, 0.0, 0.0, -3156.111020578268, 0.0]
['beep', 0.0, 781.3052274352584, 0.0, 0.0, 0.0, 0.0, -3154.5463984663966, 0.0]
['beep', 0.0, 783.093366991683, 0.0, 0.0, 0.0, 0.0, -3154.5463984663966, 0.0]
['beep', 0.0, 783.316884436236, 0.0, 0.0, 0.0, 0.0, -3156.3792415117314, 0.0]
['beep', 0.0, 782.5569251247556, 0.0, 0.0, 0.0, 0.0, -3157.206256056578, 0.0]
['beep', 0.0, 782.4004629135684, 0.0, 0.0, 0.0, 0.0, -3157.116849078757, 0.0]
['beep', 0.0, 782.6016286136662, 0.0, 0.0, 0.0, 0.0, -3156.491000234008, 0.0]
['beep', 0.0, 782.7133873359427, 0.0, 0.0, 0.0, 0.0, -3156.3792415117314, 0.0]
['beep', 0.0, 783.5180501363337, 0.0, 0.0, 0.0, 0.0, -3155.7086891780723, 0.0]
['beep', 0.0, 784.0544920032611, 0.0, 0.0, 0.0, 0.0, -3154.725212422039, 0.0]
['beep', 0.0, 782.7133873359427, 0.0, 0.0, 0.0, 0.0, -3154.09936357729, 0.0]
['beep', 0.0, 782.2663524468365, 0.0, 0.0, 0.0, 0.0, -3154.2558257884775, 0.0]
['beep', 0.0, 782.0428350022835, 0.0, 0.0, 0.0, 0.0, -3153.138238565712, 0.0]
['beep', 0.0, 781.1487652240712, 0.0, 0.0, 0.0, 0.0, -3154.591101955307, 0.0]
['beep', 0.0, 783.026311758317, 0.0, 0.0, 0.0, 0.0, -3154.6358054442176, 0.0]
['beep', 0.0, 784.0544920032611, 0.0, 0.0, 0.0, 0.0, -3155.172247311145, 0.0]
['beep', 0.0, 782.8027943137639, 0.0, 0.0, 0.0, 0.0, -3156.267482789455, 0.0]
['beep', 0.0, 782.735739080398, 0.0, 0.0, 0.0, 0.0, -3155.7086891780723, 0.0]
['beep', 0.0, 782.5792768692108, 0.0, 0.0, 0.0, 0.0, -3155.775744411438, 0.0]
['beep', 0.0, 783.1827739695042, 0.0, 0.0, 0.0, 0.0, -3156.7368694230163, 0.0]
['beep', 0.0, 783.607457114155, 0.0, 0.0, 0.0, 0.0, -3157.206256056578, 0.0]
['beep', 0.0, 781.1040617351606, 0.0, 0.0, 0.0, 0.0, -3156.423945000642, 0.0]
['beep', 0.0, 780.5229163793226, 0.0, 0.0, 0.0, 0.0, -3154.747564166494, 0.0]
['beep', 0.0, 781.640503602088, 0.0, 0.0, 0.0, 0.0, -3155.7086891780723, 0.0]
['beep', 0.0, 782.1098902356495, 0.0, 0.0, 0.0, 0.0, -3156.5357037229187, 0.0]
['beep', 0.0, 782.512221635845, 0.0, 0.0, 0.0, 0.0, -3155.14989556669, 0.0]
['beep', 0.0, 780.9923030128841, 0.0, 0.0, 0.0, 0.0, -3155.3063577778767, 0.0]
['beep', 0.0, 780.8358408016969, 0.0, 0.0, 0.0, 0.0, -3155.9322066226255, 0.0]
['beep', 0.0, 783.6745123475209, 0.0, 0.0, 0.0, 0.0, -3157.2733112899436, 0.0]
['beep', 0.0, 783.1157187361382, 0.0, 0.0, 0.0, 0.0, -3156.8262764008377, 0.0]
['beep', 0.0, 781.2605239463478, 0.0, 0.0, 0.0, 0.0, -3157.407421756676, 0.0]
['beep', 0.0, 781.0817099907053, 0.0, 0.0, 0.0, 0.0, -3156.781572911927, 0.0]
['beep', 0.0, 781.8193175577304, 0.0, 0.0, 0.0, 0.0, -3157.2509595454885, 0.0]
['beep', 0.0, 782.0651867467388, 0.0, 0.0, 0.0, 0.0, -3157.429773501131, 0.0]
['beep', 0.0, 782.1545937245601, 0.0, 0.0, 0.0, 0.0, -3157.72034617905, 0.0]
['beep', 0.0, 782.2663524468365, 0.0, 0.0, 0.0, 0.0, -3157.6085874567734, 0.0]
['beep', 0.0, 783.1157187361382, 0.0, 0.0, 0.0, 0.0, -3157.9885671125135, 0.0]
['beep', 0.0, 782.1322419801047, 0.0, 0.0, 0.0, 0.0, -3156.491000234008, 0.0]
['beep', 0.0, 781.7969658132752, 0.0, 0.0, 0.0, 0.0, -3157.34036652331, 0.0]
['beep', 0.0, 782.9592565249511, 0.0, 0.0, 0.0, 0.0, -3157.452125245586, 0.0]
['beep', 0.0, 783.6968640919762, 0.0, 0.0, 0.0, 0.0, -3157.496828734497, 0.0]
['beep', 0.0, 784.3897681700907, 0.0, 0.0, 0.0, 0.0, -3156.5804072118294, 0.0]
['beep', 0.0, 782.1769454690153, 0.0, 0.0, 0.0, 0.0, -3155.9322066226255, 0.0]
['beep', 0.0, 782.2216489579259, 0.0, 0.0, 0.0, 0.0, -3158.5473607238964, 0.0]
['beep', 0.0, 783.6745123475209, 0.0, 0.0, 0.0, 0.0, -3157.362718267765, 0.0]
['beep', 0.0, 783.6521606030656, 0.0, 0.0, 0.0, 0.0, -3158.05562234588, 0.0]
['beep', 0.0, 782.9145530360405, 0.0, 0.0, 0.0, 0.0, -3156.334538022821, 0.0]
['beep', 0.0, 783.830974558708, 0.0, 0.0, 0.0, 0.0, -3156.5133519784636, 0.0]
['beep', 0.0, 783.2721809473254, 0.0, 0.0, 0.0, 0.0, -3157.429773501131, 0.0]
['beep', 0.0, 783.5180501363337, 0.0, 0.0, 0.0, 0.0, -3157.6756426901393, 0.0]
['beep', 0.0, 782.3334076802025, 0.0, 0.0, 0.0, 0.0, -3158.2791397904325, 0.0]
['beep', 0.0, 782.9816082694064, 0.0, 0.0, 0.0, 0.0, -3158.525008979441, 0.0]
['beep', 0.0, 782.6686838470321, 0.0, 0.0, 0.0, 0.0, -3157.6085874567734, 0.0]
['beep', 0.0, 782.6463321025768, 0.0, 0.0, 0.0, 0.0, -3158.525008979441, 0.0]
['beep', 0.0, 784.4568234034567, 0.0, 0.0, 0.0, 0.0, -3159.6425962022063, 0.0]
['beep', 0.0, 785.4403001594902, 0.0, 0.0, 0.0, 0.0, -3158.81558165736, 0.0]
['beep', 0.0, 784.2333059589037, 0.0, 0.0, 0.0, 0.0, -3158.81558165736, 0.0]
['beep', 0.0, 783.4286431585125, 0.0, 0.0, 0.0, 0.0, -3156.781572911927, 0.0]
['beep', 0.0, 783.2721809473254, 0.0, 0.0, 0.0, 0.0, -3156.714517678561, 0.0]
['beep', 0.0, 784.2780094478143, 0.0, 0.0, 0.0, 0.0, -3159.083802590824, 0.0]
['beep', 0.0, 785.4179484150349, 0.0, 0.0, 0.0, 0.0, -3158.3238432793432, 0.0]
['beep', 0.0, 785.1497274815712, 0.0, 0.0, 0.0, 0.0, -3158.2120845570666, 0.0]
['beep', 0.0, 783.3392361806913, 0.0, 0.0, 0.0, 0.0, -3157.5415322234076, 0.0]
['beep', 0.0, 783.5180501363337, 0.0, 0.0, 0.0, 0.0, -3156.714517678561, 0.0]
['beep', 0.0, 784.9262100370181, 0.0, 0.0, 0.0, 0.0, -3156.4462967450972, 0.0]
['beep', 0.0, 786.3567216821577, 0.0, 0.0, 0.0, 0.0, -3157.3180147788544, 0.0]
['beep', 0.0, 785.3732449261242, 0.0, 0.0, 0.0, 0.0, -3157.452125245586, 0.0]
['beep', 0.0, 784.5015268923673, 0.0, 0.0, 0.0, 0.0, -3157.8991601346925, 0.0]
['beep', 0.0, 785.6414658595879, 0.0, 0.0, 0.0, 0.0, -3157.362718267765, 0.0]
['beep', 0.0, 786.6249426156214, 0.0, 0.0, 0.0, 0.0, -3156.3121862783655, 0.0]
['beep', 0.0, 785.3061896927584, 0.0, 0.0, 0.0, 0.0, -3156.982738612025, 0.0]
['beep', 0.0, 784.5238786368226, 0.0, 0.0, 0.0, 0.0, -3156.982738612025, 0.0]
['beep', 0.0, 784.5685821257332, 0.0, 0.0, 0.0, 0.0, -3157.2286078010334, 0.0]
['beep', 0.0, 785.1050239926606, 0.0, 0.0, 0.0, 0.0, -3157.049793845391, 0.0]
['beep', 0.0, 785.4403001594902, 0.0, 0.0, 0.0, 0.0, -3157.2286078010334, 0.0]
['beep', 0.0, 784.1215472366271, 0.0, 0.0, 0.0, 0.0, -3158.10032583479, 0.0]
['beep', 0.0, 784.6356373590992, 0.0, 0.0, 0.0, 0.0, -3158.301491534888, 0.0]
['beep', 0.0, 784.7473960813757, 0.0, 0.0, 0.0, 0.0, -3157.8991601346925, 0.0]
['beep', 0.0, 785.3732449261242, 0.0, 0.0, 0.0, 0.0, -3160.2907967914102, 0.0]
['beep', 0.0, 785.2614862038478, 0.0, 0.0, 0.0, 0.0, -3160.5143142359634, 0.0]
['beep', 0.0, 784.702692592465, 0.0, 0.0, 0.0, 0.0, -3159.2402648020106, 0.0]
['beep', 0.0, 785.5073553928561, 0.0, 0.0, 0.0, 0.0, -3158.2567880459774, 0.0]
['beep', 0.0, 784.4121199145461, 0.0, 0.0, 0.0, 0.0, -3157.943863623603, 0.0]
['beep', 0.0, 783.4733466474231, 0.0, 0.0, 0.0, 0.0, -3158.659119446173, 0.0]
['beep', 0.0, 785.3061896927584, 0.0, 0.0, 0.0, 0.0, -3160.559017724874, 0.0]
['beep', 0.0, 786.5355356378002, 0.0, 0.0, 0.0, 0.0, -3158.7932299129047, 0.0]
['beep', 0.0, 785.0156170148393, 0.0, 0.0, 0.0, 0.0, -3158.6144159572623, 0.0]
['beep', 0.0, 783.1604222250488, 0.0, 0.0, 0.0, 0.0, -3157.5638839678627, 0.0]
['beep', 0.0, 783.5627536252443, 0.0, 0.0, 0.0, 0.0, -3156.982738612025, 0.0]
['beep', 0.0, 783.5180501363337, 0.0, 0.0, 0.0, 0.0, -3158.43560200162, 0.0]
['beep', 0.0, 783.830974558708, 0.0, 0.0, 0.0, 0.0, -3158.2120845570666, 0.0]
['beep', 0.0, 783.0710152472276, 0.0, 0.0, 0.0, 0.0, -3157.943863623603, 0.0]
['beep', 0.0, 781.8193175577304, 0.0, 0.0, 0.0, 0.0, -3157.452125245586, 0.0]
['beep', 0.0, 783.3839396696019, 0.0, 0.0, 0.0, 0.0, -3156.8262764008377, 0.0]
['beep', 0.0, 787.0719775047276, 0.0, 0.0, 0.0, 0.0, -3159.5531892243853, 0.0]
['beep', 0.0, 786.0661490042388, 0.0, 0.0, 0.0, 0.0, -3159.776706668938, 0.0]
['beep', 0.0, 778.8912390340852, 0.0, 0.0, 0.0, 0.0, -3158.43560200162, 0.0]
['beep', 0.0, 775.4043668990573, 0.0, 0.0, 0.0, 0.0, -3158.9273403796365, 0.0]
['beep', 0.0, 773.9068000205517, 0.0, 0.0, 0.0, 0.0, -3158.8826368907257, 0.0]
['beep', 0.0, 773.9962069983729, 0.0, 0.0, 0.0, 0.0, -3159.8214101578487, 0.0]
['beep', 0.0, 774.7561663098534, 0.0, 0.0, 0.0, 0.0, -3161.4754392475415, 0.0]
['beep', 0.0, 776.9913407553842, 0.0, 0.0, 0.0, 0.0, -3158.5026572349857, 0.0]
['beep', 0.0, 776.6113610996439, 0.0, 0.0, 0.0, 0.0, -3159.329671779832, 0.0]
['beep', 0.0, 776.3431401661802, 0.0, 0.0, 0.0, 0.0, -3160.3802037692317, 0.0]
['beep', 0.0, 776.9242855220182, 0.0, 0.0, 0.0, 0.0, -3160.715479936061, 0.0]
['beep', 0.0, 777.4607273889455, 0.0, 0.0, 0.0, 0.0, -3160.693128191606, 0.0]
['beep', 0.0, 776.2984366772696, 0.0, 0.0, 0.0, 0.0, -3162.235398559022, 0.0]
['beep', 0.0, 775.4267186435126, 0.0, 0.0, 0.0, 0.0, -3159.7320031800277, 0.0]
['beep', 0.0, 778.6453698450769, 0.0, 0.0, 0.0, 0.0, -3160.357852024776, 0.0]
['beep', 0.0, 778.8912390340852, 0.0, 0.0, 0.0, 0.0, -3160.849590402793, 0.0]
['beep', 0.0, 778.444204144979, 0.0, 0.0, 0.0, 0.0, -3160.2460933024995, 0.0]
['beep', 0.0, 777.0807477332054, 0.0, 0.0, 0.0, 0.0, -3159.7320031800277, 0.0]
['beep', 0.0, 778.6453698450769, 0.0, 0.0, 0.0, 0.0, -3158.7038229350833, 0.0]
['beep', 0.0, 778.1983349559707, 0.0, 0.0, 0.0, 0.0, -3160.2237415580444, 0.0]
['beep', 0.0, 778.801832056264, 0.0, 0.0, 0.0, 0.0, -3160.8719421472483, 0.0]
['beep', 0.0, 779.7629570678422, 0.0, 0.0, 0.0, 0.0, -3161.8554189032816, 0.0]
['beep', 0.0, 777.5948378556774, 0.0, 0.0, 0.0, 0.0, -3163.4423927596085, 0.0]
['beep', 0.0, 776.4548988884568, 0.0, 0.0, 0.0, 0.0, -3161.296625291899, 0.0]
['beep', 0.0, 778.6230181006215, 0.0, 0.0, 0.0, 0.0, -3161.1848665696225, 0.0]
['beep', 0.0, 779.3159221787361, 0.0, 0.0, 0.0, 0.0, -3160.693128191606, 0.0]
['beep', 0.0, 778.4889076338897, 0.0, 0.0, 0.0, 0.0, -3161.430735758631, 0.0]
['beep', 0.0, 778.6677215895321, 0.0, 0.0, 0.0, 0.0, -3161.8107154143713, 0.0]
['beep', 0.0, 778.5783146117109, 0.0, 0.0, 0.0, 0.0, -3161.9001223921923, 0.0]
['beep', 0.0, 779.3159221787361, 0.0, 0.0, 0.0, 0.0, -3160.9613491250693, 0.0]
['beep', 0.0, 781.1487652240712, 0.0, 0.0, 0.0, 0.0, -3160.2237415580444, 0.0]
['beep', 0.0, 780.3441024236802, 0.0, 0.0, 0.0, 0.0, -3160.357852024776, 0.0]
['beep', 0.0, 780.768785568331, 0.0, 0.0, 0.0, 0.0, -3160.4472590025975, 0.0]
['beep', 0.0, 779.2265152009148, 0.0, 0.0, 0.0, 0.0, -3160.4696107470527, 0.0]
['beep', 0.0, 779.897067534574, 0.0, 0.0, 0.0, 0.0, -3162.1906950701114, 0.0]
['beep', 0.0, 782.2216489579259, 0.0, 0.0, 0.0, 0.0, -3162.905950892681, 0.0]
['beep', 0.0, 781.8863727910964, 0.0, 0.0, 0.0, 0.0, -3160.916645636159, 0.0]
['beep', 0.0, 780.478212890412, 0.0, 0.0, 0.0, 0.0, -3160.357852024776, 0.0]
['beep', 0.0, 780.3664541681355, 0.0, 0.0, 0.0, 0.0, -3161.6095497142733, 0.0]
['beep', 0.0, 780.7464338238757, 0.0, 0.0, 0.0, 0.0, -3161.6989566920947, 0.0]
['beep', 0.0, 780.3217506792249, 0.0, 0.0, 0.0, 0.0, -3161.564846225363, 0.0]
['beep', 0.0, 781.5063931353561, 0.0, 0.0, 0.0, 0.0, -3162.257750303477, 0.0]
['beep', 0.0, 782.9145530360405, 0.0, 0.0, 0.0, 0.0, -3161.967177625558, 0.0]
['beep', 0.0, 784.0321402588058, 0.0, 0.0, 0.0, 0.0, -3159.396727013198, 0.0]
['beep', 0.0, 785.3955966705796, 0.0, 0.0, 0.0, 0.0, -3159.396727013198, 0.0]
['beep', 0.0, 786.9602187824511, 0.0, 0.0, 0.0, 0.0, -3160.335500280321, 0.0]
['beep', 0.0, 788.0331025163058, 0.0, 0.0, 0.0, 0.0, -3158.949692124092, 0.0]
['beep', 0.0, 785.7308728374092, 0.0, 0.0, 0.0, 0.0, -3157.697994434595, 0.0]
['beep', 0.0, 782.445166402479, 0.0, 0.0, 0.0, 0.0, -3157.206256056578, 0.0]
['beep', 0.0, 781.6628553465433, 0.0, 0.0, 0.0, 0.0, -3158.43560200162, 0.0]
['beep', 0.0, 781.9087245355516, 0.0, 0.0, 0.0, 0.0, -3160.1790380691336, 0.0]
['beep', 0.0, 781.7969658132752, 0.0, 0.0, 0.0, 0.0, -3160.044927602402, 0.0]
['beep', 0.0, 780.478212890412, 0.0, 0.0, 0.0, 0.0, -3159.91081713567, 0.0]
['beep', 0.0, 779.4947361343785, 0.0, 0.0, 0.0, 0.0, -3161.296625291899, 0.0]
['beep', 0.0, 779.606494856655, 0.0, 0.0, 0.0, 0.0, -3163.040061359413, 0.0]
['beep', 0.0, 781.1711169685266, 0.0, 0.0, 0.0, 0.0, -3162.1906950701114, 0.0]
['beep', 0.0, 781.2381722018924, 0.0, 0.0, 0.0, 0.0, -3164.1129450932676, 0.0]
['beep', 0.0, 780.6570268460545, 0.0, 0.0, 0.0, 0.0, -3162.905950892681, 0.0]
['beep', 0.0, 778.6006663561662, 0.0, 0.0, 0.0, 0.0, -3160.8719421472483, 0.0]
['beep', 0.0, 779.4276809010125, 0.0, 0.0, 0.0, 0.0, -3161.877770647737, 0.0]
['beep', 0.0, 781.4840413909009, 0.0, 0.0, 0.0, 0.0, -3162.7047851925836, 0.0]
['beep', 0.0, 781.1487652240712, 0.0, 0.0, 0.0, 0.0, -3163.308282292877, 0.0]
['beep', 0.0, 780.4335094015014, 0.0, 0.0, 0.0, 0.0, -3163.285930548421, 0.0]
['beep', 0.0, 780.7017303349651, 0.0, 0.0, 0.0, 0.0, -3163.397689270698, 0.0]
['beep', 0.0, 779.8076605567528, 0.0, 0.0, 0.0, 0.0, -3164.135296837723, 0.0]
['beep', 0.0, 780.2099919569483, 0.0, 0.0, 0.0, 0.0, -3163.3753375262427, 0.0]
['beep', 0.0, 781.3052274352584, 0.0, 0.0, 0.0, 0.0, -3163.3753375262427, 0.0]
['beep', 0.0, 781.931076280007, 0.0, 0.0, 0.0, 0.0, -3164.6940904491057, 0.0]
['beep', 0.0, 781.9534280244623, 0.0, 0.0, 0.0, 0.0, -3164.7387939380164, 0.0]
['beep', 0.0, 782.0651867467388, 0.0, 0.0, 0.0, 0.0, -3164.269407304455, 0.0]
['beep', 0.0, 782.735739080398, 0.0, 0.0, 0.0, 0.0, -3165.0517183603906, 0.0]
['beep', 0.0, 783.8533263031634, 0.0, 0.0, 0.0, 0.0, -3164.336462537821, 0.0]
['beep', 0.0, 783.2051257139594, 0.0, 0.0, 0.0, 0.0, -3163.0847648483236, 0.0]
['beep', 0.0, 782.6686838470321, 0.0, 0.0, 0.0, 0.0, -3162.034232858924, 0.0]
['beep', 0.0, 784.5685821257332, 0.0, 0.0, 0.0, 0.0, -3163.1965235706, 0.0]
['beep', 0.0, 785.864983304141, 0.0, 0.0, 0.0, 0.0, -3165.6775672051394, 0.0]
['beep', 0.0, 784.8368030591969, 0.0, 0.0, 0.0, 0.0, -3165.00701487148, 0.0]
['beep', 0.0, 783.9650850254399, 0.0, 0.0, 0.0, 0.0, -3164.3811660267315, 0.0]
['beep', 0.0, 782.8698495471299, 0.0, 0.0, 0.0, 0.0, -3163.4870962485193, 0.0]
['beep', 0.0, 783.6521606030656, 0.0, 0.0, 0.0, 0.0, -3165.7669741829604, 0.0]
['beep', 0.0, 784.7920995702863, 0.0, 0.0, 0.0, 0.0, -3164.4705730045525, 0.0]
['beep', 0.0, 784.4568234034567, 0.0, 0.0, 0.0, 0.0, -3163.4423927596085, 0.0]
['beep', 0.0, 783.6968640919762, 0.0, 0.0, 0.0, 0.0, -3163.8670759042593, 0.0]
['beep', 0.0, 785.5744106262221, 0.0, 0.0, 0.0, 0.0, -3162.660081703673, 0.0]
['beep', 0.0, 784.5909338701886, 0.0, 0.0, 0.0, 0.0, -3163.91177939317, 0.0]
['beep', 0.0, 782.9592565249511, 0.0, 0.0, 0.0, 0.0, -3163.8000206708934, 0.0]
['beep', 0.0, 782.8251460582193, 0.0, 0.0, 0.0, 0.0, -3164.6940904491057, 0.0]
['beep', 0.0, 782.512221635845, 0.0, 0.0, 0.0, 0.0, -3165.3422910383097, 0.0]
['beep', 0.0, 783.1380704805936, 0.0, 0.0, 0.0, 0.0, -3166.0128433719688, 0.0]
['beep', 0.0, 784.2333059589037, 0.0, 0.0, 0.0, 0.0, -3165.6999189495946, 0.0]
['beep', 0.0, 786.0885007486941, 0.0, 0.0, 0.0, 0.0, -3164.202352071089, 0.0]
['beep', 0.0, 784.9709135259287, 0.0, 0.0, 0.0, 0.0, -3163.3529857817875, 0.0]
['beep', 0.0, 783.6521606030656, 0.0, 0.0, 0.0, 0.0, -3163.4200410151534, 0.0]
['beep', 0.0, 783.607457114155, 0.0, 0.0, 0.0, 0.0, -3163.6659102041617, 0.0]
['beep', 0.0, 783.0486635027723, 0.0, 0.0, 0.0, 0.0, -3164.6717387046506, 0.0]
['beep', 0.0, 785.5297071373114, 0.0, 0.0, 0.0, 0.0, -3164.8952561492038, 0.0]
['beep', 0.0, 785.0379687592947, 0.0, 0.0, 0.0, 0.0, -3165.297587549399, 0.0]
['beep', 0.0, 783.4509949029679, 0.0, 0.0, 0.0, 0.0, -3165.364642782765, 0.0]
['beep', 0.0, 783.0486635027723, 0.0, 0.0, 0.0, 0.0, -3165.7222706940497, 0.0]
['beep', 0.0, 783.8756780476186, 0.0, 0.0, 0.0, 0.0, -3165.163477082667, 0.0]
['beep', 0.0, 783.6745123475209, 0.0, 0.0, 0.0, 0.0, -3163.7553171819827, 0.0]
['beep', 0.0, 784.0097885143505, 0.0, 0.0, 0.0, 0.0, -3163.8223724153486, 0.0]
['beep', 0.0, 783.8086228142528, 0.0, 0.0, 0.0, 0.0, -3165.364642782765, 0.0]
['beep', 0.0, 784.5685821257332, 0.0, 0.0, 0.0, 0.0, -3164.7387939380164, 0.0]
['beep', 0.0, 785.1720792260265, 0.0, 0.0, 0.0, 0.0, -3165.364642782765, 0.0]
['beep', 0.0, 786.3567216821577, 0.0, 0.0, 0.0, 0.0, -3166.146953838701, 0.0]
['beep', 0.0, 786.1332042376047, 0.0, 0.0, 0.0, 0.0, -3165.6328637162287, 0.0]
['beep', 0.0, 784.9262100370181, 0.0, 0.0, 0.0, 0.0, -3163.8670759042593, 0.0]
['beep', 0.0, 784.6356373590992, 0.0, 0.0, 0.0, 0.0, -3164.3811660267315, 0.0]
['beep', 0.0, 784.3897681700907, 0.0, 0.0, 0.0, 0.0, -3163.598854970796, 0.0]
['beep', 0.0, 786.2673147043365, 0.0, 0.0, 0.0, 0.0, -3163.8223724153486, 0.0]
['beep', 0.0, 787.4966606493784, 0.0, 0.0, 0.0, 0.0, -3164.0235381154466, 0.0]
['beep', 0.0, 786.2449629598813, 0.0, 0.0, 0.0, 0.0, -3163.1071165927788, 0.0]
['beep', 0.0, 784.9709135259287, 0.0, 0.0, 0.0, 0.0, -3162.8388956593153, 0.0]
['beep', 0.0, 784.5685821257332, 0.0, 0.0, 0.0, 0.0, -3162.749488681494, 0.0]
['beep', 0.0, 785.9096867930516, 0.0, 0.0, 0.0, 0.0, -3162.369509025754, 0.0]
['beep', 0.0, 786.669646104532, 0.0, 0.0, 0.0, 0.0, -3163.643558459706, 0.0]
['beep', 0.0, 785.3955966705796, 0.0, 0.0, 0.0, 0.0, -3163.241227059511, 0.0]
['beep', 0.0, 784.188602469993, 0.0, 0.0, 0.0, 0.0, -3162.7271369370387, 0.0]
['beep', 0.0, 785.3061896927584, 0.0, 0.0, 0.0, 0.0, -3163.1965235706, 0.0]
['beep', 0.0, 786.1779077265153, 0.0, 0.0, 0.0, 0.0, -3163.9564828820808, 0.0]
['beep', 0.0, 786.5802391267108, 0.0, 0.0, 0.0, 0.0, -3164.6046834712847, 0.0]
['beep', 0.0, 784.3227129367249, 0.0, 0.0, 0.0, 0.0, -3163.4870962485193, 0.0]
['beep', 0.0, 784.4568234034567, 0.0, 0.0, 0.0, 0.0, -3163.2188753150554, 0.0]
['beep', 0.0, 784.4568234034567, 0.0, 0.0, 0.0, 0.0, -3164.62703521574, 0.0]
['beep', 0.0, 784.1215472366271, 0.0, 0.0, 0.0, 0.0, -3164.6940904491057, 0.0]
['beep', 0.0, 783.0039600138617, 0.0, 0.0, 0.0, 0.0, -3164.7164421935613, 0.0]
['beep', 0.0, 782.4898698913896, 0.0, 0.0, 0.0, 0.0, -3163.3753375262427, 0.0]
['beep', 0.0, 783.607457114155, 0.0, 0.0, 0.0, 0.0, -3162.1012880922904, 0.0]
['beep', 0.0, 782.7804425693087, 0.0, 0.0, 0.0, 0.0, -3162.5036194924855, 0.0]
['beep', 0.0, 783.9650850254399, 0.0, 0.0, 0.0, 0.0, -3164.4258695156423, 0.0]
['beep', 0.0, 783.6298088586103, 0.0, 0.0, 0.0, 0.0, -3165.5434567384073, 0.0]
['beep', 0.0, 781.126413479616, 0.0, 0.0, 0.0, 0.0, -3164.336462537821, 0.0]
['beep', 0.0, 780.4558611459568, 0.0, 0.0, 0.0, 0.0, -3164.3141107933657, 0.0]
['beep', 0.0, 781.931076280007, 0.0, 0.0, 0.0, 0.0, -3163.7553171819827, 0.0]
['beep', 0.0, 783.8533263031634, 0.0, 0.0, 0.0, 0.0, -3163.91177939317, 0.0]
['beep', 0.0, 783.4062914140573, 0.0, 0.0, 0.0, 0.0, -3163.53179973743, 0.0]
['beep', 0.0, 782.8251460582193, 0.0, 0.0, 0.0, 0.0, -3163.844724159804, 0.0]
['beep', 0.0, 782.7133873359427, 0.0, 0.0, 0.0, 0.0, -3164.29175904891, 0.0]
['beep', 0.0, 782.9369047804958, 0.0, 0.0, 0.0, 0.0, -3163.978834626536, 0.0]
['beep', 0.0, 782.3334076802025, 0.0, 0.0, 0.0, 0.0, -3164.269407304455, 0.0]
['beep', 0.0, 782.3110559357472, 0.0, 0.0, 0.0, 0.0, -3163.1071165927788, 0.0]
['beep', 0.0, 781.282875690803, 0.0, 0.0, 0.0, 0.0, -3163.8223724153486, 0.0]
['beep', 0.0, 782.0428350022835, 0.0, 0.0, 0.0, 0.0, -3164.5376282379184, 0.0]
['beep', 0.0, 782.8474978026745, 0.0, 0.0, 0.0, 0.0, -3165.0293666159355, 0.0]
['beep', 0.0, 782.9592565249511, 0.0, 0.0, 0.0, 0.0, -3165.2528840604887, 0.0]
['beep', 0.0, 782.2887041912919, 0.0, 0.0, 0.0, 0.0, -3165.9681398830585, 0.0]
['beep', 0.0, 782.7133873359427, 0.0, 0.0, 0.0, 0.0, -3165.275235804944, 0.0]
['beep', 0.0, 783.1157187361382, 0.0, 0.0, 0.0, 0.0, -3163.934131137625, 0.0]
['beep', 0.0, 782.6910355914874, 0.0, 0.0, 0.0, 0.0, -3165.2528840604887, 0.0]
['beep', 0.0, 785.2391344593924, 0.0, 0.0, 0.0, 0.0, -3166.169305583156, 0.0]
['beep', 0.0, 784.5909338701886, 0.0, 0.0, 0.0, 0.0, -3165.9904916275136, 0.0]
['beep', 0.0, 783.1604222250488, 0.0, 0.0, 0.0, 0.0, -3166.504581749986, 0.0]
['beep', 0.0, 782.1769454690153, 0.0, 0.0, 0.0, 0.0, -3166.5716369833517, 0.0]
['beep', 0.0, 782.2887041912919, 0.0, 0.0, 0.0, 0.0, -3167.7339276950274, 0.0]
['beep', 0.0, 783.9427332809846, 0.0, 0.0, 0.0, 0.0, -3167.622168972751, 0.0]
['beep', 0.0, 784.0768437477165, 0.0, 0.0, 0.0, 0.0, -3165.6328637162287, 0.0]
['beep', 0.0, 782.2663524468365, 0.0, 0.0, 0.0, 0.0, -3165.2528840604887, 0.0]
['beep', 0.0, 781.9981315133729, 0.0, 0.0, 0.0, 0.0, -3164.783497426927, 0.0]
['beep', 0.0, 782.8474978026745, 0.0, 0.0, 0.0, 0.0, -3166.7057474500834, 0.0]
['beep', 0.0, 783.6521606030656, 0.0, 0.0, 0.0, 0.0, -3168.560942239874, 0.0]
['beep', 0.0, 783.2051257139594, 0.0, 0.0, 0.0, 0.0, -3167.555113739385, 0.0]
['beep', 0.0, 782.6910355914874, 0.0, 0.0, 0.0, 0.0, -3166.4375265166195, 0.0]
['beep', 0.0, 782.1769454690153, 0.0, 0.0, 0.0, 0.0, -3167.488058506019, 0.0]
['beep', 0.0, 782.2663524468365, 0.0, 0.0, 0.0, 0.0, -3166.146953838701, 0.0]
['beep', 0.0, 784.546230381278, 0.0, 0.0, 0.0, 0.0, -3165.364642782765, 0.0]
['beep', 0.0, 784.9262100370181, 0.0, 0.0, 0.0, 0.0, -3165.0293666159355, 0.0]
['beep', 0.0, 783.607457114155, 0.0, 0.0, 0.0, 0.0, -3165.945788138603, 0.0]
['beep', 0.0, 782.8474978026745, 0.0, 0.0, 0.0, 0.0, -3166.146953838701, 0.0]
['beep', 0.0, 782.3781111691131, 0.0, 0.0, 0.0, 0.0, -3166.303416049888, 0.0]
['beep', 0.0, 783.2274774584148, 0.0, 0.0, 0.0, 0.0, -3167.4210032726533, 0.0]
['beep', 0.0, 783.0486635027723, 0.0, 0.0, 0.0, 0.0, -3167.555113739385, 0.0]
['beep', 0.0, 781.864021046641, 0.0, 0.0, 0.0, 0.0, -3167.5998172282957, 0.0]
['beep', 0.0, 781.931076280007, 0.0, 0.0, 0.0, 0.0, -3166.7057474500834, 0.0]
['beep', 0.0, 781.8416693021858, 0.0, 0.0, 0.0, 0.0, -3167.555113739385, 0.0]
['beep', 0.0, 783.0486635027723, 0.0, 0.0, 0.0, 0.0, -3167.622168972751, 0.0]
['beep', 0.0, 783.0039600138617, 0.0, 0.0, 0.0, 0.0, -3167.130430594734, 0.0]
['beep', 0.0, 781.4840413909009, 0.0, 0.0, 0.0, 0.0, -3168.225666073044, 0.0]
['beep', 0.0, 781.3275791797137, 0.0, 0.0, 0.0, 0.0, -3167.4210032726533, 0.0]
['beep', 0.0, 781.7746140688198, 0.0, 0.0, 0.0, 0.0, -3168.0021486284913, 0.0]
['beep', 0.0, 783.2945326917807, 0.0, 0.0, 0.0, 0.0, -3167.5998172282957, 0.0]
['beep', 0.0, 781.5958001131773, 0.0, 0.0, 0.0, 0.0, -3168.3821282842314, 0.0]
['beep', 0.0, 777.3266169222137, 0.0, 0.0, 0.0, 0.0, -3169.075032362346, 0.0]
['beep', 0.0, 777.9077622780517, 0.0, 0.0, 0.0, 0.0, -3167.175134083645, 0.0]
['beep', 0.0, 787.2731432048254, 0.0, 0.0, 0.0, 0.0, -3165.3869945272204, 0.0]
['beep', 0.0, 792.5481548962779, 0.0, 0.0, 0.0, 0.0, -3169.589122484818, 0.0]
['beep', 0.0, 793.285762463303, 0.0, 0.0, 0.0, 0.0, -3168.8291631733377, 0.0]
['beep', 0.0, 790.2235734729259, 0.0, 0.0, 0.0, 0.0, -3168.3821282842314, 0.0]
['beep', 0.0, 789.508317650356, 0.0, 0.0, 0.0, 0.0, -3167.8009829283933, 0.0]
['beep', 0.0, 790.9388292954957, 0.0, 0.0, 0.0, 0.0, -3168.0468521174016, 0.0]
['beep', 0.0, 790.8717740621298, 0.0, 0.0, 0.0, 0.0, -3169.00797712898, 0.0]
['beep', 0.0, 791.7881955847973, 0.0, 0.0, 0.0, 0.0, -3170.9525788965916, 0.0]
['beep', 0.0, 792.704617107465, 0.0, 0.0, 0.0, 0.0, -3169.142087595712, 0.0]
['beep', 0.0, 792.5034514073673, 0.0, 0.0, 0.0, 0.0, -3168.3821282842314, 0.0]
['beep', 0.0, 792.4363961740013, 0.0, 0.0, 0.0, 0.0, -3167.175134083645, 0.0]
['beep', 0.0, 792.9504862964734, 0.0, 0.0, 0.0, 0.0, -3166.884561405726, 0.0]
['beep', 0.0, 793.3975211855795, 0.0, 0.0, 0.0, 0.0, -3167.9574451395806, 0.0]
['beep', 0.0, 792.6822653630097, 0.0, 0.0, 0.0, 0.0, -3169.2761980624437, 0.0]
['beep', 0.0, 789.4859659059008, 0.0, 0.0, 0.0, 0.0, -3168.784459684427, 0.0]
['beep', 0.0, 790.7600153398532, 0.0, 0.0, 0.0, 0.0, -3168.471535262053, 0.0]
['beep', 0.0, 793.1069485076605, 0.0, 0.0, 0.0, 0.0, -3167.108078850279, 0.0]
['beep', 0.0, 793.1069485076605, 0.0, 0.0, 0.0, 0.0, -3168.0468521174016, 0.0]
['beep', 0.0, 792.6152101296437, 0.0, 0.0, 0.0, 0.0, -3168.851514917793, 0.0]
['beep', 0.0, 791.4305676735124, 0.0, 0.0, 0.0, 0.0, -3168.158610839678, 0.0]
['beep', 0.0, 790.2012217284706, 0.0, 0.0, 0.0, 0.0, -3168.6950527066056, 0.0]
['beep', 0.0, 790.6482566175767, 0.0, 0.0, 0.0, 0.0, -3169.3209015513544, 0.0]
['beep', 0.0, 791.7434920958867, 0.0, 0.0, 0.0, 0.0, -3170.0585091183793, 0.0]
['beep', 0.0, 791.4305676735124, 0.0, 0.0, 0.0, 0.0, -3167.175134083645, 0.0]
['beep', 0.0, 791.0952915066829, 0.0, 0.0, 0.0, 0.0, -3168.0245003729465, 0.0]
['beep', 0.0, 791.832899073708, 0.0, 0.0, 0.0, 0.0, -3169.499715506997, 0.0]
['beep', 0.0, 790.7153118509426, 0.0, 0.0, 0.0, 0.0, -3168.270369561955, 0.0]
['beep', 0.0, 790.0671112617388, 0.0, 0.0, 0.0, 0.0, -3170.43848877412, 0.0]
['beep', 0.0, 789.3071519502583, 0.0, 0.0, 0.0, 0.0, -3170.036157373924, 0.0]
['beep', 0.0, 790.6035531286661, 0.0, 0.0, 0.0, 0.0, -3168.7397561955163, 0.0]
['beep', 0.0, 792.0117130293504, 0.0, 0.0, 0.0, 0.0, -3169.9467503961027, 0.0]
['beep', 0.0, 791.6764368625209, 0.0, 0.0, 0.0, 0.0, -3170.8631719187706, 0.0]
['beep', 0.0, 792.1681752405376, 0.0, 0.0, 0.0, 0.0, -3170.8855236632257, 0.0]
['beep', 0.0, 790.5588496397555, 0.0, 0.0, 0.0, 0.0, -3169.499715506997, 0.0]
['beep', 0.0, 790.961181039951, 0.0, 0.0, 0.0, 0.0, -3168.6950527066056, 0.0]
['beep', 0.0, 790.089463006194, 0.0, 0.0, 0.0, 0.0, -3169.164439340167, 0.0]
['beep', 0.0, 791.1623467400487, 0.0, 0.0, 0.0, 0.0, -3169.231494573533, 0.0]
['beep', 0.0, 790.7823670843086, 0.0, 0.0, 0.0, 0.0, -3171.9584073970805, 0.0]
['beep', 0.0, 790.6035531286661, 0.0, 0.0, 0.0, 0.0, -3171.6454829747063, 0.0]
['beep', 0.0, 789.7988903282751, 0.0, 0.0, 0.0, 0.0, -3169.9243986516476, 0.0]
['beep', 0.0, 788.9048205500628, 0.0, 0.0, 0.0, 0.0, -3170.527895751941, 0.0]
['beep', 0.0, 790.4694426619343, 0.0, 0.0, 0.0, 0.0, -3170.9078754076813, 0.0]
