['beep', 0.0, 572.294065033682, 0.0, 0.0, 0.0, 0.0, -1985.4607564760158, 0.0]
['beep', 0.0, 572.3834720115033, 0.0, 0.0, 0.0, 0.0, -1986.3101227653174, 0.0]
['beep', 0.0, 573.456355745358, 0.0, 0.0, 0.0, 0.0, -1988.8135181443117, 0.0]
['beep', 0.0, 575.0209778572295, 0.0, 0.0, 0.0, 0.0, -1989.7522914114347, 0.0]
['beep', 0.0, 574.6633499459446, 0.0, 0.0, 0.0, 0.0, -1988.6123524442141, 0.0]
['beep', 0.0, 574.3727772680256, 0.0, 0.0, 0.0, 0.0, -1986.6901024210576, 0.0]
['beep', 0.0, 574.0822045901066, 0.0, 0.0, 0.0, 0.0, -1985.125480309186, 0.0]
['beep', 0.0, 574.2386668012938, 0.0, 0.0, 0.0, 0.0, -1987.383006499172, 0.0]
['beep', 0.0, 574.3504255235703, 0.0, 0.0, 0.0, 0.0, -1987.6065239437253, 0.0]
['beep', 0.0, 573.9033906344641, 0.0, 0.0, 0.0, 0.0, -1986.3995297431386, 0.0]
['beep', 0.0, 573.5010592342686, 0.0, 0.0, 0.0, 0.0, -1989.9534571115325, 0.0]
['beep', 0.0, 574.3057220346597, 0.0, 0.0, 0.0, 0.0, -1989.2829047778732, 0.0]
['beep', 0.0, 573.8139836566429, 0.0, 0.0, 0.0, 0.0, -1986.421881487594, 0.0]
['beep', 0.0, 574.0822045901066, 0.0, 0.0, 0.0, 0.0, -1986.0866053207644, 0.0]
['beep', 0.0, 575.9821028688077, 0.0, 0.0, 0.0, 0.0, -1986.3771779986835, 0.0]
['beep', 0.0, 576.1385650799948, 0.0, 0.0, 0.0, 0.0, -1985.8183843873007, 0.0]
['beep', 0.0, 575.1327365795061, 0.0, 0.0, 0.0, 0.0, -1985.8630878762112, 0.0]
['beep', 0.0, 576.7197104358328, 0.0, 0.0, 0.0, 0.0, -1986.5336402098706, 0.0]
['beep', 0.0, 577.6137802140452, 0.0, 0.0, 0.0, 0.0, -1986.287771020862, 0.0]
['beep', 0.0, 576.9208761359306, 0.0, 0.0, 0.0, 0.0, -1988.6347041886693, 0.0]
['beep', 0.0, 576.4291377579138, 0.0, 0.0, 0.0, 0.0, -1988.3664832552056, 0.0]
['beep', 0.0, 575.8703441465311, 0.0, 0.0, 0.0, 0.0, -1987.070082076798, 0.0]
['beep', 0.0, 575.5350679797016, 0.0, 0.0, 0.0, 0.0, -1987.2935995213509, 0.0]
['beep', 0.0, 576.6303034580116, 0.0, 0.0, 0.0, 0.0, -1988.2323727884739, 0.0]
['beep', 0.0, 576.8538209025646, 0.0, 0.0, 0.0, 0.0, -1989.7969949003452, 0.0]
['beep', 0.0, 577.0102831137518, 0.0, 0.0, 0.0, 0.0, -1990.132271067175, 0.0]
['beep', 0.0, 576.4738412468245, 0.0, 0.0, 0.0, 0.0, -1989.998160600443, 0.0]
['beep', 0.0, 576.7197104358328, 0.0, 0.0, 0.0, 0.0, -1988.7464629109459, 0.0]
['beep', 0.0, 576.87617264702, 0.0, 0.0, 0.0, 0.0, -1985.7066256650241, 0.0]
['beep', 0.0, 576.3844342690032, 0.0, 0.0, 0.0, 0.0, -1986.712454165513, 0.0]
['beep', 0.0, 577.2561523027603, 0.0, 0.0, 0.0, 0.0, -1987.003026843432, 0.0]
['beep', 0.0, 577.1220418360283, 0.0, 0.0, 0.0, 0.0, -1986.0866053207644, 0.0]
['beep', 0.0, 576.4514895023691, 0.0, 0.0, 0.0, 0.0, -1986.555991954326, 0.0]
['beep', 0.0, 575.7585854242546, 0.0, 0.0, 0.0, 0.0, -1988.321779766295, 0.0]
['beep', 0.0, 576.3173790356373, 0.0, 0.0, 0.0, 0.0, -1988.6570559331246, 0.0]
['beep', 0.0, 576.5185447357351, 0.0, 0.0, 0.0, 0.0, -1988.2323727884739, 0.0]
['beep', 0.0, 577.8820011475088, 0.0, 0.0, 0.0, 0.0, -1988.7688146554012, 0.0]
['beep', 0.0, 577.5243732362239, 0.0, 0.0, 0.0, 0.0, -1988.0535588328314, 0.0]
['beep', 0.0, 577.3232075361261, 0.0, 0.0, 0.0, 0.0, -1987.6065239437253, 0.0]
['beep', 0.0, 578.1055185920619, 0.0, 0.0, 0.0, 0.0, -1987.4500617325382, 0.0]
['beep', 0.0, 577.9267046364195, 0.0, 0.0, 0.0, 0.0, -1986.8689163767, 0.0]
['beep', 0.0, 577.4126145139473, 0.0, 0.0, 0.0, 0.0, -1987.874744877189, 0.0]
['beep', 0.0, 578.1949255698831, 0.0, 0.0, 0.0, 0.0, -1990.4004920006387, 0.0]
['beep', 0.0, 577.1667453249389, 0.0, 0.0, 0.0, 0.0, -1989.327608266784, 0.0]
['beep', 0.0, 577.0326348582071, 0.0, 0.0, 0.0, 0.0, -1988.098262321742, 0.0]
['beep', 0.0, 576.87617264702, 0.0, 0.0, 0.0, 0.0, -1986.2430675319515, 0.0]
['beep', 0.0, 577.1220418360283, 0.0, 0.0, 0.0, 0.0, -1986.1089570652196, 0.0]
['beep', 0.0, 577.6361319585004, 0.0, 0.0, 0.0, 0.0, -1987.2041925435296, 0.0]
['beep', 0.0, 577.2561523027603, 0.0, 0.0, 0.0, 0.0, -1990.132271067175, 0.0]
['beep', 0.0, 577.9714081253301, 0.0, 0.0, 0.0, 0.0, -1989.0817390777754, 0.0]
['beep', 0.0, 576.9655796248412, 0.0, 0.0, 0.0, 0.0, -1987.0924338212533, 0.0]
['beep', 0.0, 576.0715098466289, 0.0, 0.0, 0.0, 0.0, -1986.8912681211555, 0.0]
['beep', 0.0, 576.2726755467266, 0.0, 0.0, 0.0, 0.0, -1988.0535588328314, 0.0]
['beep', 0.0, 575.5350679797016, 0.0, 0.0, 0.0, 0.0, -1987.003026843432, 0.0]
['beep', 0.0, 575.7585854242546, 0.0, 0.0, 0.0, 0.0, -1987.0477303323426, 0.0]
['beep', 0.0, 573.8139836566429, 0.0, 0.0, 0.0, 0.0, -1987.4947652214487, 0.0]
['beep', 0.0, 572.87521038952, 0.0, 0.0, 0.0, 0.0, -1988.4335384885717, 0.0]
['beep', 0.0, 572.1823063114055, 0.0, 0.0, 0.0, 0.0, -1988.902925122133, 0.0]
['beep', 0.0, 572.003492355763, 0.0, 0.0, 0.0, 0.0, -1989.4170152446052, 0.0]
['beep', 0.0, 573.6128179565452, 0.0, 0.0, 0.0, 0.0, -1991.5627827123146, 0.0]
['beep', 0.0, 572.3387685225927, 0.0, 0.0, 0.0, 0.0, -1991.4286722455827, 0.0]
['beep', 0.0, 573.1210795785283, 0.0, 0.0, 0.0, 0.0, -1989.6405326891581, 0.0]
['beep', 0.0, 574.618646457034, 0.0, 0.0, 0.0, 0.0, -1990.6910646785577, 0.0]
['beep', 0.0, 573.5681144676346, 0.0, 0.0, 0.0, 0.0, -1990.6910646785577, 0.0]
['beep', 0.0, 572.2270098003161, 0.0, 0.0, 0.0, 0.0, -1990.3781402561833, 0.0]
['beep', 0.0, 573.6351697010005, 0.0, 0.0, 0.0, 0.0, -1990.8251751452894, 0.0]
['beep', 0.0, 573.7245766788217, 0.0, 0.0, 0.0, 0.0, -1989.8640501337113, 0.0]
['beep', 0.0, 573.0540243451625, 0.0, 0.0, 0.0, 0.0, -1989.0146838444095, 0.0]
['beep', 0.0, 572.294065033682, 0.0, 0.0, 0.0, 0.0, -1991.6745414345912, 0.0]
['beep', 0.0, 572.4505272448691, 0.0, 0.0, 0.0, 0.0, -1990.8475268897448, 0.0]
['beep', 0.0, 572.1599545669502, 0.0, 0.0, 0.0, 0.0, -1987.7629861549124, 0.0]
['beep', 0.0, 571.6235127000228, 0.0, 0.0, 0.0, 0.0, -1989.4617187335157, 0.0]
['beep', 0.0, 570.6623876884446, 0.0, 0.0, 0.0, 0.0, -1991.9204106235995, 0.0]
['beep', 0.0, 570.5059254772575, 0.0, 0.0, 0.0, 0.0, -1991.2498582899402, 0.0]
['beep', 0.0, 570.9306086219083, 0.0, 0.0, 0.0, 0.0, -1990.0875675782643, 0.0]
['beep', 0.0, 572.2717132892267, 0.0, 0.0, 0.0, 0.0, -1990.0205123448984, 0.0]
['beep', 0.0, 572.0481958446736, 0.0, 0.0, 0.0, 0.0, -1990.5569542118258, 0.0]
['beep', 0.0, 572.294065033682, 0.0, 0.0, 0.0, 0.0, -1990.802823400834, 0.0]
['beep', 0.0, 571.5788092111122, 0.0, 0.0, 0.0, 0.0, -1990.646361189647, 0.0]
['beep', 0.0, 572.8528586450647, 0.0, 0.0, 0.0, 0.0, -1990.1769745560855, 0.0]
['beep', 0.0, 572.87521038952, 0.0, 0.0, 0.0, 0.0, -1988.2323727884739, 0.0]
['beep', 0.0, 571.3776435110144, 0.0, 0.0, 0.0, 0.0, -1988.321779766295, 0.0]
['beep', 0.0, 572.2046580558608, 0.0, 0.0, 0.0, 0.0, -1990.48989897846, 0.0]
['beep', 0.0, 572.3387685225927, 0.0, 0.0, 0.0, 0.0, -1989.4393669890603, 0.0]
['beep', 0.0, 573.3445970230815, 0.0, 0.0, 0.0, 0.0, -1990.0205123448984, 0.0]
['beep', 0.0, 573.9033906344641, 0.0, 0.0, 0.0, 0.0, -1989.5734774557923, 0.0]
['beep', 0.0, 573.7245766788217, 0.0, 0.0, 0.0, 0.0, -1990.065215833809, 0.0]
['beep', 0.0, 573.8363354010983, 0.0, 0.0, 0.0, 0.0, -1990.5122507229153, 0.0]
['beep', 0.0, 574.3057220346597, 0.0, 0.0, 0.0, 0.0, -1991.6968931790464, 0.0]
['beep', 0.0, 573.3893005119921, 0.0, 0.0, 0.0, 0.0, -1991.7192449235017, 0.0]
['beep', 0.0, 573.4116522564474, 0.0, 0.0, 0.0, 0.0, -1988.969980355499, 0.0]
['beep', 0.0, 573.7245766788217, 0.0, 0.0, 0.0, 0.0, -1988.835869888767, 0.0]
['beep', 0.0, 573.6575214454558, 0.0, 0.0, 0.0, 0.0, -1990.4451954895492, 0.0]
['beep', 0.0, 574.2386668012938, 0.0, 0.0, 0.0, 0.0, -1992.769776912901, 0.0]
['beep', 0.0, 573.0763760896177, 0.0, 0.0, 0.0, 0.0, -1992.4121490016162, 0.0]
['beep', 0.0, 573.4116522564474, 0.0, 0.0, 0.0, 0.0, -1990.9816373564765, 0.0]
['beep', 0.0, 572.8305069006094, 0.0, 0.0, 0.0, 0.0, -1990.8475268897448, 0.0]
['beep', 0.0, 574.3504255235703, 0.0, 0.0, 0.0, 0.0, -1989.327608266784, 0.0]
['beep', 0.0, 574.2833702902044, 0.0, 0.0, 0.0, 0.0, -1989.77464315589, 0.0]
['beep', 0.0, 574.3504255235703, 0.0, 0.0, 0.0, 0.0, -1989.551125711337, 0.0]
['beep', 0.0, 573.5457627231792, 0.0, 0.0, 0.0, 0.0, -1990.646361189647, 0.0]
['beep', 0.0, 575.3562540240591, 0.0, 0.0, 0.0, 0.0, -1990.0428640893538, 0.0]
['beep', 0.0, 575.6244749575228, 0.0, 0.0, 0.0, 0.0, -1990.6910646785577, 0.0]
['beep', 0.0, 574.5292394792127, 0.0, 0.0, 0.0, 0.0, -1991.5627827123146, 0.0]
['beep', 0.0, 573.7916319121877, 0.0, 0.0, 0.0, 0.0, -1990.7581199119236, 0.0]
['beep', 0.0, 574.328073779115, 0.0, 0.0, 0.0, 0.0, -1989.6405326891581, 0.0]
['beep', 0.0, 573.6575214454558, 0.0, 0.0, 0.0, 0.0, -1989.484070477971, 0.0]
['beep', 0.0, 573.2775417897155, 0.0, 0.0, 0.0, 0.0, -1990.6910646785577, 0.0]
['beep', 0.0, 573.4787074898134, 0.0, 0.0, 0.0, 0.0, -1990.6687129341024, 0.0]
['beep', 0.0, 574.7304051793105, 0.0, 0.0, 0.0, 0.0, -1991.4063205011275, 0.0]
['beep', 0.0, 572.7410999227882, 0.0, 0.0, 0.0, 0.0, -1992.3674455127057, 0.0]
['beep', 0.0, 572.2717132892267, 0.0, 0.0, 0.0, 0.0, -1989.9311053670772, 0.0]
['beep', 0.0, 573.3893005119921, 0.0, 0.0, 0.0, 0.0, -1990.9816373564765, 0.0]
['beep', 0.0, 574.5515912236681, 0.0, 0.0, 0.0, 0.0, -1993.0156461019096, 0.0]
['beep', 0.0, 573.7245766788217, 0.0, 0.0, 0.0, 0.0, -1991.8533553902337, 0.0]
['beep', 0.0, 574.5068877347575, 0.0, 0.0, 0.0, 0.0, -1987.6065239437253, 0.0]
['beep', 0.0, 573.9927976122854, 0.0, 0.0, 0.0, 0.0, -1989.7522914114347, 0.0]
['beep', 0.0, 573.9927976122854, 0.0, 0.0, 0.0, 0.0, -1990.7581199119236, 0.0]
['beep', 0.0, 575.0209778572295, 0.0, 0.0, 0.0, 0.0, -1990.9816373564765, 0.0]
['beep', 0.0, 576.0491581021736, 0.0, 0.0, 0.0, 0.0, -1993.1721083130967, 0.0]
['beep', 0.0, 574.7527569237658, 0.0, 0.0, 0.0, 0.0, -1993.8873641356665, 0.0]
['beep', 0.0, 573.6798731899111, 0.0, 0.0, 0.0, 0.0, -1991.741596667957, 0.0]
['beep', 0.0, 573.6351697010005, 0.0, 0.0, 0.0, 0.0, -1989.7299396669794, 0.0]
['beep', 0.0, 574.8645156460424, 0.0, 0.0, 0.0, 0.0, -1989.8864018781665, 0.0]
['beep', 0.0, 575.5350679797016, 0.0, 0.0, 0.0, 0.0, -1992.099224579242, 0.0]
['beep', 0.0, 573.9257423789195, 0.0, 0.0, 0.0, 0.0, -1993.8650123912112, 0.0]
['beep', 0.0, 575.0880330905954, 0.0, 0.0, 0.0, 0.0, -1991.58513445677, 0.0]
['beep', 0.0, 573.9257423789195, 0.0, 0.0, 0.0, 0.0, -1991.8533553902337, 0.0]
['beep', 0.0, 574.2163150568384, 0.0, 0.0, 0.0, 0.0, -1993.5297362243816, 0.0]
['beep', 0.0, 574.5739429681233, 0.0, 0.0, 0.0, 0.0, -1992.5462594683481, 0.0]
['beep', 0.0, 574.0151493567407, 0.0, 0.0, 0.0, 0.0, -1990.2440297894514, 0.0]
['beep', 0.0, 574.3951290124809, 0.0, 0.0, 0.0, 0.0, -1990.5793059562811, 0.0]
['beep', 0.0, 574.9762743683189, 0.0, 0.0, 0.0, 0.0, -1992.5909629572586, 0.0]
['beep', 0.0, 574.1492598234726, 0.0, 0.0, 0.0, 0.0, -1994.3343990247727, 0.0]
['beep', 0.0, 573.4116522564474, 0.0, 0.0, 0.0, 0.0, -1994.937896125066, 0.0]
['beep', 0.0, 572.3387685225927, 0.0, 0.0, 0.0, 0.0, -1993.5744397132921, 0.0]
['beep', 0.0, 572.2270098003161, 0.0, 0.0, 0.0, 0.0, -1993.2391635464626, 0.0]
['beep', 0.0, 572.2270098003161, 0.0, 0.0, 0.0, 0.0, -1993.1050530797309, 0.0]
['beep', 0.0, 572.3834720115033, 0.0, 0.0, 0.0, 0.0, -1992.2780385348844, 0.0]
['beep', 0.0, 573.5010592342686, 0.0, 0.0, 0.0, 0.0, -1990.8475268897448, 0.0]
['beep', 0.0, 572.2717132892267, 0.0, 0.0, 0.0, 0.0, -1992.2333350459737, 0.0]
['beep', 0.0, 572.1376028224948, 0.0, 0.0, 0.0, 0.0, -1992.3674455127057, 0.0]
['beep', 0.0, 574.2833702902044, 0.0, 0.0, 0.0, 0.0, -1989.841698389256, 0.0]
['beep', 0.0, 574.0598528456513, 0.0, 0.0, 0.0, 0.0, -1992.613314701714, 0.0]
['beep', 0.0, 574.2386668012938, 0.0, 0.0, 0.0, 0.0, -1993.4403292465604, 0.0]
['beep', 0.0, 574.5515912236681, 0.0, 0.0, 0.0, 0.0, -1992.099224579242, 0.0]
['beep', 0.0, 573.523410978724, 0.0, 0.0, 0.0, 0.0, -1991.4733757344934, 0.0]
['beep', 0.0, 573.5010592342686, 0.0, 0.0, 0.0, 0.0, -1991.3392652677614, 0.0]
['beep', 0.0, 574.2386668012938, 0.0, 0.0, 0.0, 0.0, -1992.5462594683481, 0.0]
['beep', 0.0, 573.9704458678301, 0.0, 0.0, 0.0, 0.0, -1991.1380995676639, 0.0]
['beep', 0.0, 573.165783067439, 0.0, 0.0, 0.0, 0.0, -1991.2498582899402, 0.0]
['beep', 0.0, 573.0540243451625, 0.0, 0.0, 0.0, 0.0, -1991.294561778851, 0.0]
['beep', 0.0, 573.0987278340731, 0.0, 0.0, 0.0, 0.0, -1990.7134164230129, 0.0]
['beep', 0.0, 572.9422656228859, 0.0, 0.0, 0.0, 0.0, -1992.1886315570632, 0.0]
['beep', 0.0, 574.1716115679278, 0.0, 0.0, 0.0, 0.0, -1992.2780385348844, 0.0]
['beep', 0.0, 573.746928423277, 0.0, 0.0, 0.0, 0.0, -1990.7357681674682, 0.0]
['beep', 0.0, 573.5010592342686, 0.0, 0.0, 0.0, 0.0, -1988.2770762773844, 0.0]
['beep', 0.0, 574.037501101196, 0.0, 0.0, 0.0, 0.0, -1991.2051548010297, 0.0]
['beep', 0.0, 574.037501101196, 0.0, 0.0, 0.0, 0.0, -1991.8980588791442, 0.0]
['beep', 0.0, 573.9257423789195, 0.0, 0.0, 0.0, 0.0, -1992.3674455127057, 0.0]
['beep', 0.0, 574.7527569237658, 0.0, 0.0, 0.0, 0.0, -1991.6521896901359, 0.0]
['beep', 0.0, 574.0151493567407, 0.0, 0.0, 0.0, 0.0, -1991.2722100343956, 0.0]
['beep', 0.0, 573.456355745358, 0.0, 0.0, 0.0, 0.0, -1991.96511411251, 0.0]
['beep', 0.0, 573.8586871455535, 0.0, 0.0, 0.0, 0.0, -1993.4403292465604, 0.0]
['beep', 0.0, 574.7304051793105, 0.0, 0.0, 0.0, 0.0, -1990.1769745560855, 0.0]
['beep', 0.0, 574.6857016903999, 0.0, 0.0, 0.0, 0.0, -1990.5569542118258, 0.0]
['beep', 0.0, 575.3562540240591, 0.0, 0.0, 0.0, 0.0, -1990.2216780449962, 0.0]
['beep', 0.0, 574.4845359903021, 0.0, 0.0, 0.0, 0.0, -1992.1886315570632, 0.0]
['beep', 0.0, 574.1716115679278, 0.0, 0.0, 0.0, 0.0, -1992.1886315570632, 0.0]
['beep', 0.0, 573.9033906344641, 0.0, 0.0, 0.0, 0.0, -1991.0263408453873, 0.0]
['beep', 0.0, 574.0822045901066, 0.0, 0.0, 0.0, 0.0, -1990.780471656379, 0.0]
['beep', 0.0, 573.0540243451625, 0.0, 0.0, 0.0, 0.0, -1989.1487943111415, 0.0]
['beep', 0.0, 573.0093208562519, 0.0, 0.0, 0.0, 0.0, -1989.841698389256, 0.0]
['beep', 0.0, 574.4621842458469, 0.0, 0.0, 0.0, 0.0, -1991.518079223404, 0.0]
['beep', 0.0, 574.2386668012938, 0.0, 0.0, 0.0, 0.0, -1992.7921286573564, 0.0]
['beep', 0.0, 573.7916319121877, 0.0, 0.0, 0.0, 0.0, -1991.3392652677614, 0.0]
['beep', 0.0, 573.2998935341709, 0.0, 0.0, 0.0, 0.0, -1989.349960011239, 0.0]
['beep', 0.0, 573.5010592342686, 0.0, 0.0, 0.0, 0.0, -1989.1040908222308, 0.0]
['beep', 0.0, 572.9199138784306, 0.0, 0.0, 0.0, 0.0, -1992.0321693458761, 0.0]
['beep', 0.0, 573.6575214454558, 0.0, 0.0, 0.0, 0.0, -1991.8980588791442, 0.0]
['beep', 0.0, 573.5010592342686, 0.0, 0.0, 0.0, 0.0, -1990.2216780449962, 0.0]
['beep', 0.0, 572.1152510780396, 0.0, 0.0, 0.0, 0.0, -1991.2722100343956, 0.0]
['beep', 0.0, 571.7352714222993, 0.0, 0.0, 0.0, 0.0, -1990.2663815339067, 0.0]
['beep', 0.0, 572.87521038952, 0.0, 0.0, 0.0, 0.0, -1988.8805733776778, 0.0]
['beep', 0.0, 573.8586871455535, 0.0, 0.0, 0.0, 0.0, -1989.8193466448006, 0.0]
['beep', 0.0, 574.3057220346597, 0.0, 0.0, 0.0, 0.0, -1990.2216780449962, 0.0]
['beep', 0.0, 572.808155156154, 0.0, 0.0, 0.0, 0.0, -1990.1099193227196, 0.0]
['beep', 0.0, 571.1094225775507, 0.0, 0.0, 0.0, 0.0, -1989.9534571115325, 0.0]
['beep', 0.0, 571.6682161889335, 0.0, 0.0, 0.0, 0.0, -1991.9204106235995, 0.0]
['beep', 0.0, 573.6128179565452, 0.0, 0.0, 0.0, 0.0, -1992.8591838907223, 0.0]
['beep', 0.0, 574.7527569237658, 0.0, 0.0, 0.0, 0.0, -1992.3674455127057, 0.0]
['beep', 0.0, 574.5739429681233, 0.0, 0.0, 0.0, 0.0, -1991.1157478232085, 0.0]
['beep', 0.0, 577.4126145139473, 0.0, 0.0, 0.0, 0.0, -1990.3334367672728, 0.0]
['beep', 0.0, 579.2007540703719, 0.0, 0.0, 0.0, 0.0, -1990.4451954895492, 0.0]
['beep', 0.0, 579.7818994262099, 0.0, 0.0, 0.0, 0.0, -1988.7241111664905, 0.0]
['beep', 0.0, 579.6701407039334, 0.0, 0.0, 0.0, 0.0, -1988.9252768665883, 0.0]
['beep', 0.0, 577.7255389363216, 0.0, 0.0, 0.0, 0.0, -1989.3723117556945, 0.0]
['beep', 0.0, 576.0268063577183, 0.0, 0.0, 0.0, 0.0, -1989.2158495445074, 0.0]
['beep', 0.0, 573.6351697010005, 0.0, 0.0, 0.0, 0.0, -1990.132271067175, 0.0]
['beep', 0.0, 574.1269080790172, 0.0, 0.0, 0.0, 0.0, -1990.9592856120214, 0.0]
['beep', 0.0, 573.0093208562519, 0.0, 0.0, 0.0, 0.0, -1992.6803699350799, 0.0]
['beep', 0.0, 572.2493615447714, 0.0, 0.0, 0.0, 0.0, -1992.4121490016162, 0.0]
['beep', 0.0, 572.6069894560563, 0.0, 0.0, 0.0, 0.0, -1992.456852490527, 0.0]
['beep', 0.0, 573.6351697010005, 0.0, 0.0, 0.0, 0.0, -1991.4063205011275, 0.0]
['beep', 0.0, 574.909219134953, 0.0, 0.0, 0.0, 0.0, -1990.5346024673704, 0.0]
['beep', 0.0, 573.9033906344641, 0.0, 0.0, 0.0, 0.0, -1991.4733757344934, 0.0]
['beep', 0.0, 573.6128179565452, 0.0, 0.0, 0.0, 0.0, -1991.2722100343956, 0.0]
['beep', 0.0, 573.5457627231792, 0.0, 0.0, 0.0, 0.0, -1989.1487943111415, 0.0]
['beep', 0.0, 574.1939633123832, 0.0, 0.0, 0.0, 0.0, -1990.355788511728, 0.0]
['beep', 0.0, 574.4621842458469, 0.0, 0.0, 0.0, 0.0, -1992.456852490527, 0.0]
['beep', 0.0, 574.5739429681233, 0.0, 0.0, 0.0, 0.0, -1991.6298379456805, 0.0]
['beep', 0.0, 574.8198121571318, 0.0, 0.0, 0.0, 0.0, -1990.1769745560855, 0.0]
['beep', 0.0, 576.0938615910842, 0.0, 0.0, 0.0, 0.0, -1989.7969949003452, 0.0]
['beep', 0.0, 576.5408964801903, 0.0, 0.0, 0.0, 0.0, -1992.0321693458761, 0.0]
['beep', 0.0, 576.2503238022714, 0.0, 0.0, 0.0, 0.0, -1991.9204106235995, 0.0]
['beep', 0.0, 576.5632482246457, 0.0, 0.0, 0.0, 0.0, -1990.065215833809, 0.0]
['beep', 0.0, 576.87617264702, 0.0, 0.0, 0.0, 0.0, -1989.551125711337, 0.0]
['beep', 0.0, 577.5914284695898, 0.0, 0.0, 0.0, 0.0, -1989.9311053670772, 0.0]
['beep', 0.0, 577.8820011475088, 0.0, 0.0, 0.0, 0.0, -1989.6628844336135, 0.0]
['beep', 0.0, 577.5690767251346, 0.0, 0.0, 0.0, 0.0, -1990.288733278362, 0.0]
['beep', 0.0, 576.87617264702, 0.0, 0.0, 0.0, 0.0, -1990.8251751452894, 0.0]
['beep', 0.0, 576.5408964801903, 0.0, 0.0, 0.0, 0.0, -1989.1487943111415, 0.0]
['beep', 0.0, 576.3173790356373, 0.0, 0.0, 0.0, 0.0, -1990.936933867566, 0.0]
['beep', 0.0, 575.6021232130674, 0.0, 0.0, 0.0, 0.0, -1990.3781402561833, 0.0]
['beep', 0.0, 575.5797714686122, 0.0, 0.0, 0.0, 0.0, -1989.5064222224264, 0.0]
['beep', 0.0, 575.2221435573273, 0.0, 0.0, 0.0, 0.0, -1989.1711460555966, 0.0]
['beep', 0.0, 575.3115505351485, 0.0, 0.0, 0.0, 0.0, -1990.6687129341024, 0.0]
['beep', 0.0, 576.0491581021736, 0.0, 0.0, 0.0, 0.0, -1990.6016577007365, 0.0]
['beep', 0.0, 575.2444953017825, 0.0, 0.0, 0.0, 0.0, -1991.160451312119, 0.0]
['beep', 0.0, 575.8256406576205, 0.0, 0.0, 0.0, 0.0, -1988.7017594220354, 0.0]
['beep', 0.0, 574.5515912236681, 0.0, 0.0, 0.0, 0.0, -1988.321779766295, 0.0]
['beep', 0.0, 573.4340040009027, 0.0, 0.0, 0.0, 0.0, -1987.8970966216443, 0.0]
['beep', 0.0, 575.6244749575228, 0.0, 0.0, 0.0, 0.0, -1989.2829047778732, 0.0]
['beep', 0.0, 575.3115505351485, 0.0, 0.0, 0.0, 0.0, -1991.0486925898426, 0.0]
['beep', 0.0, 574.5962947125787, 0.0, 0.0, 0.0, 0.0, -1989.1040908222308, 0.0]
['beep', 0.0, 574.909219134953, 0.0, 0.0, 0.0, 0.0, -1989.998160600443, 0.0]
['beep', 0.0, 574.1492598234726, 0.0, 0.0, 0.0, 0.0, -1990.5793059562811, 0.0]
['beep', 0.0, 575.0880330905954, 0.0, 0.0, 0.0, 0.0, -1989.5064222224264, 0.0]
['beep', 0.0, 575.9150476354417, 0.0, 0.0, 0.0, 0.0, -1990.9592856120214, 0.0]
['beep', 0.0, 575.1774400684167, 0.0, 0.0, 0.0, 0.0, -1990.9816373564765, 0.0]
['beep', 0.0, 576.0268063577183, 0.0, 0.0, 0.0, 0.0, -1988.969980355499, 0.0]
['beep', 0.0, 575.9597511243524, 0.0, 0.0, 0.0, 0.0, -1989.7969949003452, 0.0]
['beep', 0.0, 574.5292394792127, 0.0, 0.0, 0.0, 0.0, -1989.0593873333203, 0.0]
['beep', 0.0, 575.0656813461401, 0.0, 0.0, 0.0, 0.0, -1989.4170152446052, 0.0]
['beep', 0.0, 575.6244749575228, 0.0, 0.0, 0.0, 0.0, -1991.0710443342978, 0.0]
['beep', 0.0, 576.5855999691009, 0.0, 0.0, 0.0, 0.0, -1988.2994280218397, 0.0]
['beep', 0.0, 576.6750069469222, 0.0, 0.0, 0.0, 0.0, -1988.2994280218397, 0.0]
['beep', 0.0, 575.8032889131653, 0.0, 0.0, 0.0, 0.0, -1989.2158495445074, 0.0]
['beep', 0.0, 576.227972057816, 0.0, 0.0, 0.0, 0.0, -1989.8193466448006, 0.0]
['beep', 0.0, 576.0938615910842, 0.0, 0.0, 0.0, 0.0, -1989.6628844336135, 0.0]
['beep', 0.0, 575.9597511243524, 0.0, 0.0, 0.0, 0.0, -1990.6910646785577, 0.0]
['beep', 0.0, 576.4067860134585, 0.0, 0.0, 0.0, 0.0, -1987.6288756881806, 0.0]
['beep', 0.0, 576.87617264702, 0.0, 0.0, 0.0, 0.0, -1988.522945466393, 0.0]
['beep', 0.0, 577.1443935804837, 0.0, 0.0, 0.0, 0.0, -1990.0205123448984, 0.0]
['beep', 0.0, 577.0549866026624, 0.0, 0.0, 0.0, 0.0, -1991.3392652677614, 0.0]
['beep', 0.0, 576.1385650799948, 0.0, 0.0, 0.0, 0.0, -1988.6347041886693, 0.0]
['beep', 0.0, 576.2056203133608, 0.0, 0.0, 0.0, 0.0, -1986.712454165513, 0.0]
['beep', 0.0, 573.9033906344641, 0.0, 0.0, 0.0, 0.0, -1991.5627827123146, 0.0]
['beep', 0.0, 574.7974604126764, 0.0, 0.0, 0.0, 0.0, -1991.6521896901359, 0.0]
['beep', 0.0, 574.5962947125787, 0.0, 0.0, 0.0, 0.0, -1991.808651901323, 0.0]
['beep', 0.0, 574.0598528456513, 0.0, 0.0, 0.0, 0.0, -1992.8144804018118, 0.0]
['beep', 0.0, 574.328073779115, 0.0, 0.0, 0.0, 0.0, -1992.7250734239906, 0.0]
['beep', 0.0, 574.8645156460424, 0.0, 0.0, 0.0, 0.0, -1991.3839687566722, 0.0]
['beep', 0.0, 574.5739429681233, 0.0, 0.0, 0.0, 0.0, -1992.3450937682503, 0.0]
['beep', 0.0, 574.8645156460424, 0.0, 0.0, 0.0, 0.0, -1991.6298379456805, 0.0]
['beep', 0.0, 575.6244749575228, 0.0, 0.0, 0.0, 0.0, -1993.0603495908201, 0.0]
['beep', 0.0, 573.8363354010983, 0.0, 0.0, 0.0, 0.0, -1991.1157478232085, 0.0]
['beep', 0.0, 572.9869691117965, 0.0, 0.0, 0.0, 0.0, -1990.1769745560855, 0.0]
['beep', 0.0, 572.9646173673412, 0.0, 0.0, 0.0, 0.0, -1992.0321693458761, 0.0]
['beep', 0.0, 574.0151493567407, 0.0, 0.0, 0.0, 0.0, -1992.0321693458761, 0.0]
['beep', 0.0, 574.9762743683189, 0.0, 0.0, 0.0, 0.0, -1991.8980588791442, 0.0]
['beep', 0.0, 574.4174807569362, 0.0, 0.0, 0.0, 0.0, -1992.3450937682503, 0.0]
['beep', 0.0, 573.7022249343664, 0.0, 0.0, 0.0, 0.0, -1991.808651901323, 0.0]
['beep', 0.0, 573.0763760896177, 0.0, 0.0, 0.0, 0.0, -1991.227506545485, 0.0]
['beep', 0.0, 573.3222452786262, 0.0, 0.0, 0.0, 0.0, -1990.1099193227196, 0.0]
['beep', 0.0, 572.8528586450647, 0.0, 0.0, 0.0, 0.0, -1990.5346024673704, 0.0]
['beep', 0.0, 573.2998935341709, 0.0, 0.0, 0.0, 0.0, -1992.3003902793398, 0.0]
['beep', 0.0, 573.2104865563497, 0.0, 0.0, 0.0, 0.0, -1991.1157478232085, 0.0]
['beep', 0.0, 573.523410978724, 0.0, 0.0, 0.0, 0.0, -1991.6745414345912, 0.0]
['beep', 0.0, 572.9199138784306, 0.0, 0.0, 0.0, 0.0, -1990.1769745560855, 0.0]
['beep', 0.0, 573.8363354010983, 0.0, 0.0, 0.0, 0.0, -1990.5346024673704, 0.0]
['beep', 0.0, 573.9927976122854, 0.0, 0.0, 0.0, 0.0, -1990.8922303786553, 0.0]
['beep', 0.0, 574.1716115679278, 0.0, 0.0, 0.0, 0.0, -1991.3839687566722, 0.0]
['beep', 0.0, 573.3222452786262, 0.0, 0.0, 0.0, 0.0, -1992.1215763236974, 0.0]
['beep', 0.0, 572.9422656228859, 0.0, 0.0, 0.0, 0.0, -1991.58513445677, 0.0]
['beep', 0.0, 574.9762743683189, 0.0, 0.0, 0.0, 0.0, -1991.6745414345912, 0.0]
['beep', 0.0, 574.5739429681233, 0.0, 0.0, 0.0, 0.0, -1992.903887379633, 0.0]
['beep', 0.0, 574.6409982014893, 0.0, 0.0, 0.0, 0.0, -1992.1886315570632, 0.0]
['beep', 0.0, 575.0209778572295, 0.0, 0.0, 0.0, 0.0, -1992.7027216795352, 0.0]
['beep', 0.0, 575.0656813461401, 0.0, 0.0, 0.0, 0.0, -1994.3120472803173, 0.0]
['beep', 0.0, 574.842163901587, 0.0, 0.0, 0.0, 0.0, -1994.0214746023983, 0.0]
['beep', 0.0, 574.618646457034, 0.0, 0.0, 0.0, 0.0, -1993.6414949466582, 0.0]
['beep', 0.0, 574.7080534348552, 0.0, 0.0, 0.0, 0.0, -1992.5909629572586, 0.0]
['beep', 0.0, 575.3562540240591, 0.0, 0.0, 0.0, 0.0, -1992.747425168446, 0.0]
['beep', 0.0, 575.3115505351485, 0.0, 0.0, 0.0, 0.0, -1993.4403292465604, 0.0]
['beep', 0.0, 576.6526552024669, 0.0, 0.0, 0.0, 0.0, -1995.6531519476357, 0.0]
['beep', 0.0, 576.1832685689054, 0.0, 0.0, 0.0, 0.0, -1996.4354630035716, 0.0]
['beep', 0.0, 577.6361319585004, 0.0, 0.0, 0.0, 0.0, -1994.9825996139766, 0.0]
['beep', 0.0, 578.1725738254278, 0.0, 0.0, 0.0, 0.0, -1994.9825996139766, 0.0]
['beep', 0.0, 579.7371959372992, 0.0, 0.0, 0.0, 0.0, -1994.2449920469514, 0.0]
['beep', 0.0, 579.8713064040311, 0.0, 0.0, 0.0, 0.0, -1992.9262391240884, 0.0]
['beep', 0.0, 576.6526552024669, 0.0, 0.0, 0.0, 0.0, -1991.8533553902337, 0.0]
['beep', 0.0, 575.2444953017825, 0.0, 0.0, 0.0, 0.0, -1992.1886315570632, 0.0]
['beep', 0.0, 575.4680127463356, 0.0, 0.0, 0.0, 0.0, -1994.2449920469514, 0.0]
['beep', 0.0, 574.0151493567407, 0.0, 0.0, 0.0, 0.0, -1994.9825996139766, 0.0]
['beep', 0.0, 574.909219134953, 0.0, 0.0, 0.0, 0.0, -1992.2109833015186, 0.0]
['beep', 0.0, 576.2056203133608, 0.0, 0.0, 0.0, 0.0, -1991.227506545485, 0.0]
['beep', 0.0, 575.6691784464334, 0.0, 0.0, 0.0, 0.0, -1990.7357681674682, 0.0]
['beep', 0.0, 575.8703441465311, 0.0, 0.0, 0.0, 0.0, -1991.3839687566722, 0.0]
['beep', 0.0, 575.423309257425, 0.0, 0.0, 0.0, 0.0, -1993.0156461019096, 0.0]
['beep', 0.0, 575.1774400684167, 0.0, 0.0, 0.0, 0.0, -1994.1108815802195, 0.0]
['beep', 0.0, 575.9597511243524, 0.0, 0.0, 0.0, 0.0, -1992.9485908685435, 0.0]
['beep', 0.0, 578.7760709257211, 0.0, 0.0, 0.0, 0.0, -1991.96511411251, 0.0]
['beep', 0.0, 577.5690767251346, 0.0, 0.0, 0.0, 0.0, -1991.8757071346888, 0.0]
['beep', 0.0, 576.0268063577183, 0.0, 0.0, 0.0, 0.0, -1991.2498582899402, 0.0]
['beep', 0.0, 576.5185447357351, 0.0, 0.0, 0.0, 0.0, -1991.9204106235995, 0.0]
['beep', 0.0, 576.7867656691988, 0.0, 0.0, 0.0, 0.0, -1992.0321693458761, 0.0]
['beep', 0.0, 576.4514895023691, 0.0, 0.0, 0.0, 0.0, -1992.0098176014208, 0.0]
['beep', 0.0, 574.842163901587, 0.0, 0.0, 0.0, 0.0, -1991.5627827123146, 0.0]
['beep', 0.0, 576.4961929912797, 0.0, 0.0, 0.0, 0.0, -1992.8144804018118, 0.0]
['beep', 0.0, 576.7644139247434, 0.0, 0.0, 0.0, 0.0, -1993.7532536689346, 0.0]
['beep', 0.0, 575.8926958909865, 0.0, 0.0, 0.0, 0.0, -1991.9874658569654, 0.0]
['beep', 0.0, 576.295027291182, 0.0, 0.0, 0.0, 0.0, -1992.2109833015186, 0.0]
['beep', 0.0, 577.3008557916709, 0.0, 0.0, 0.0, 0.0, -1993.3285705242838, 0.0]
['beep', 0.0, 577.0549866026624, 0.0, 0.0, 0.0, 0.0, -1995.2731722918957, 0.0]
['beep', 0.0, 576.3844342690032, 0.0, 0.0, 0.0, 0.0, -1993.4626809910158, 0.0]
['beep', 0.0, 576.9655796248412, 0.0, 0.0, 0.0, 0.0, -1991.7192449235017, 0.0]
['beep', 0.0, 576.5408964801903, 0.0, 0.0, 0.0, 0.0, -1991.942762368055, 0.0]
['beep', 0.0, 576.809117413654, 0.0, 0.0, 0.0, 0.0, -1991.7192449235017, 0.0]
['beep', 0.0, 576.5408964801903, 0.0, 0.0, 0.0, 0.0, -1992.4121490016162, 0.0]
['beep', 0.0, 577.3008557916709, 0.0, 0.0, 0.0, 0.0, -1992.5462594683481, 0.0]
['beep', 0.0, 577.4796697473133, 0.0, 0.0, 0.0, 0.0, -1992.747425168446, 0.0]
['beep', 0.0, 576.5185447357351, 0.0, 0.0, 0.0, 0.0, -1992.5015559794374, 0.0]
['beep', 0.0, 576.809117413654, 0.0, 0.0, 0.0, 0.0, -1991.5404309678593, 0.0]
['beep', 0.0, 577.3455592805815, 0.0, 0.0, 0.0, 0.0, -1992.7250734239906, 0.0]
['beep', 0.0, 576.6303034580116, 0.0, 0.0, 0.0, 0.0, -1993.7309019244794, 0.0]
['beep', 0.0, 576.0715098466289, 0.0, 0.0, 0.0, 0.0, -1992.6803699350799, 0.0]
['beep', 0.0, 575.3562540240591, 0.0, 0.0, 0.0, 0.0, -1991.6298379456805, 0.0]
['beep', 0.0, 574.7304051793105, 0.0, 0.0, 0.0, 0.0, -1993.1721083130967, 0.0]
['beep', 0.0, 575.2668470462379, 0.0, 0.0, 0.0, 0.0, -1991.3169135233063, 0.0]
['beep', 0.0, 575.490364490791, 0.0, 0.0, 0.0, 0.0, -1990.5569542118258, 0.0]
['beep', 0.0, 575.3562540240591, 0.0, 0.0, 0.0, 0.0, -1989.2829047778732, 0.0]
['beep', 0.0, 575.6915301908887, 0.0, 0.0, 0.0, 0.0, -1991.0486925898426, 0.0]
['beep', 0.0, 575.3115505351485, 0.0, 0.0, 0.0, 0.0, -1992.3450937682503, 0.0]
['beep', 0.0, 576.0715098466289, 0.0, 0.0, 0.0, 0.0, -1991.1828030565744, 0.0]
['beep', 0.0, 576.5185447357351, 0.0, 0.0, 0.0, 0.0, -1993.194460057552, 0.0]
['beep', 0.0, 576.004454613263, 0.0, 0.0, 0.0, 0.0, -1992.7027216795352, 0.0]
['beep', 0.0, 576.295027291182, 0.0, 0.0, 0.0, 0.0, -1992.1886315570632, 0.0]
['beep', 0.0, 577.3232075361261, 0.0, 0.0, 0.0, 0.0, -1992.1439280681525, 0.0]
['beep', 0.0, 576.6303034580116, 0.0, 0.0, 0.0, 0.0, -1992.3450937682503, 0.0]
['beep', 0.0, 576.9208761359306, 0.0, 0.0, 0.0, 0.0, -1993.4403292465604, 0.0]
['beep', 0.0, 576.9655796248412, 0.0, 0.0, 0.0, 0.0, -1992.3450937682503, 0.0]
['beep', 0.0, 577.1890970693943, 0.0, 0.0, 0.0, 0.0, -1992.5239077238928, 0.0]
['beep', 0.0, 576.5855999691009, 0.0, 0.0, 0.0, 0.0, -1992.255686790429, 0.0]
['beep', 0.0, 576.2056203133608, 0.0, 0.0, 0.0, 0.0, -1993.4403292465604, 0.0]
['beep', 0.0, 576.2056203133608, 0.0, 0.0, 0.0, 0.0, -1994.2449920469514, 0.0]
['beep', 0.0, 577.099690091573, 0.0, 0.0, 0.0, 0.0, -1993.6414949466582, 0.0]
['beep', 0.0, 578.0161116142407, 0.0, 0.0, 0.0, 0.0, -1993.3509222687392, 0.0]
['beep', 0.0, 576.1832685689054, 0.0, 0.0, 0.0, 0.0, -1991.741596667957, 0.0]
['beep', 0.0, 576.3620825245479, 0.0, 0.0, 0.0, 0.0, -1993.6414949466582, 0.0]
['beep', 0.0, 577.0102831137518, 0.0, 0.0, 0.0, 0.0, -1994.2673437914068, 0.0]
['beep', 0.0, 576.9432278803858, 0.0, 0.0, 0.0, 0.0, -1991.3616170122168, 0.0]
['beep', 0.0, 576.4067860134585, 0.0, 0.0, 0.0, 0.0, -1991.4957274789488, 0.0]
['beep', 0.0, 575.3115505351485, 0.0, 0.0, 0.0, 0.0, -1991.4733757344934, 0.0]
['beep', 0.0, 575.5127162352462, 0.0, 0.0, 0.0, 0.0, -1991.451023990038, 0.0]
['beep', 0.0, 576.6303034580116, 0.0, 0.0, 0.0, 0.0, -1992.1886315570632, 0.0]
['beep', 0.0, 577.9937598697853, 0.0, 0.0, 0.0, 0.0, -1992.0321693458761, 0.0]
['beep', 0.0, 577.2561523027603, 0.0, 0.0, 0.0, 0.0, -1991.3616170122168, 0.0]
['beep', 0.0, 577.2561523027603, 0.0, 0.0, 0.0, 0.0, -1990.3334367672728, 0.0]
['beep', 0.0, 577.2785040472155, 0.0, 0.0, 0.0, 0.0, -1990.3781402561833, 0.0]
['beep', 0.0, 576.6303034580116, 0.0, 0.0, 0.0, 0.0, -1990.5346024673704, 0.0]
['beep', 0.0, 577.8596494030535, 0.0, 0.0, 0.0, 0.0, -1990.8922303786553, 0.0]
['beep', 0.0, 578.1055185920619, 0.0, 0.0, 0.0, 0.0, -1988.9923320999542, 0.0]
['beep', 0.0, 578.1502220809725, 0.0, 0.0, 0.0, 0.0, -1990.2216780449962, 0.0]
['beep', 0.0, 578.4631465033468, 0.0, 0.0, 0.0, 0.0, -1990.0875675782643, 0.0]
['beep', 0.0, 578.9325331369082, 0.0, 0.0, 0.0, 0.0, -1989.4617187335157, 0.0]
['beep', 0.0, 578.0161116142407, 0.0, 0.0, 0.0, 0.0, -1989.9087536226218, 0.0]
['beep', 0.0, 578.1055185920619, 0.0, 0.0, 0.0, 0.0, -1989.5734774557923, 0.0]
['beep', 0.0, 579.0889953480954, 0.0, 0.0, 0.0, 0.0, -1990.1099193227196, 0.0]
['beep', 0.0, 580.0501203596735, 0.0, 0.0, 0.0, 0.0, -1989.9087536226218, 0.0]
['beep', 0.0, 579.5136784927462, 0.0, 0.0, 0.0, 0.0, -1990.646361189647, 0.0]
['beep', 0.0, 578.7313674368105, 0.0, 0.0, 0.0, 0.0, -1989.2158495445074, 0.0]
['beep', 0.0, 577.8372976585982, 0.0, 0.0, 0.0, 0.0, -1990.3781402561833, 0.0]
['beep', 0.0, 577.4349662584027, 0.0, 0.0, 0.0, 0.0, -1993.417977502105, 0.0]
['beep', 0.0, 576.87617264702, 0.0, 0.0, 0.0, 0.0, -1992.8144804018118, 0.0]
['beep', 0.0, 578.3066842921596, 0.0, 0.0, 0.0, 0.0, -1993.5073844799263, 0.0]
['beep', 0.0, 577.5243732362239, 0.0, 0.0, 0.0, 0.0, -1993.2168118020072, 0.0]
['beep', 0.0, 579.3795680260143, 0.0, 0.0, 0.0, 0.0, -1992.5686112128035, 0.0]
['beep', 0.0, 581.3018180491708, 0.0, 0.0, 0.0, 0.0, -1991.3392652677614, 0.0]
['beep', 0.0, 582.6652744609445, 0.0, 0.0, 0.0, 0.0, -1988.9476286110437, 0.0]
['beep', 0.0, 582.7099779498551, 0.0, 0.0, 0.0, 0.0, -1989.0146838444095, 0.0]
['beep', 0.0, 581.4806320048133, 0.0, 0.0, 0.0, 0.0, -1990.3334367672728, 0.0]
['beep', 0.0, 579.1784023259166, 0.0, 0.0, 0.0, 0.0, -1988.4558902330268, 0.0]
['beep', 0.0, 579.8713064040311, 0.0, 0.0, 0.0, 0.0, -1988.2547245329292, 0.0]
['beep', 0.0, 580.4301000154138, 0.0, 0.0, 0.0, 0.0, -1989.2158495445074, 0.0]
['beep', 0.0, 579.0889953480954, 0.0, 0.0, 0.0, 0.0, -1991.0710443342978, 0.0]
['beep', 0.0, 578.3960912699808, 0.0, 0.0, 0.0, 0.0, -1989.998160600443, 0.0]
['beep', 0.0, 579.2901610481931, 0.0, 0.0, 0.0, 0.0, -1988.388834999661, 0.0]
['beep', 0.0, 578.9548848813636, 0.0, 0.0, 0.0, 0.0, -1990.3334367672728, 0.0]
['beep', 0.0, 578.6866639478999, 0.0, 0.0, 0.0, 0.0, -1991.58513445677, 0.0]
['beep', 0.0, 578.0831668476065, 0.0, 0.0, 0.0, 0.0, -1992.8591838907223, 0.0]
['beep', 0.0, 578.7090156923551, 0.0, 0.0, 0.0, 0.0, -1993.4626809910158, 0.0]
['beep', 0.0, 579.0442918591848, 0.0, 0.0, 0.0, 0.0, -1990.936933867566, 0.0]
['beep', 0.0, 578.9548848813636, 0.0, 0.0, 0.0, 0.0, -1989.9534571115325, 0.0]
['beep', 0.0, 579.4689750038356, 0.0, 0.0, 0.0, 0.0, -1991.0486925898426, 0.0]
['beep', 0.0, 580.6759692044221, 0.0, 0.0, 0.0, 0.0, -1993.5297362243816, 0.0]
['beep', 0.0, 580.0501203596735, 0.0, 0.0, 0.0, 0.0, -1993.7532536689346, 0.0]
['beep', 0.0, 579.8266029151205, 0.0, 0.0, 0.0, 0.0, -1992.9262391240884, 0.0]
['beep', 0.0, 579.8489546595758, 0.0, 0.0, 0.0, 0.0, -1991.7639484124124, 0.0]
['beep', 0.0, 578.552553481168, 0.0, 0.0, 0.0, 0.0, -1993.5744397132921, 0.0]
['beep', 0.0, 580.3406930375926, 0.0, 0.0, 0.0, 0.0, -1993.3732740131945, 0.0]
['beep', 0.0, 580.3183412931372, 0.0, 0.0, 0.0, 0.0, -1993.0156461019096, 0.0]
['beep', 0.0, 579.2678093037379, 0.0, 0.0, 0.0, 0.0, -1993.5297362243816, 0.0]
['beep', 0.0, 577.9267046364195, 0.0, 0.0, 0.0, 0.0, -1993.5744397132921, 0.0]
['beep', 0.0, 579.2007540703719, 0.0, 0.0, 0.0, 0.0, -1993.261515290918, 0.0]
['beep', 0.0, 579.5807337261122, 0.0, 0.0, 0.0, 0.0, -1992.2333350459737, 0.0]
['beep', 0.0, 579.133698837006, 0.0, 0.0, 0.0, 0.0, -1991.9874658569654, 0.0]
['beep', 0.0, 578.7760709257211, 0.0, 0.0, 0.0, 0.0, -1990.48989897846, 0.0]
['beep', 0.0, 579.3795680260143, 0.0, 0.0, 0.0, 0.0, -1990.1993263005409, 0.0]
['beep', 0.0, 579.9383616373971, 0.0, 0.0, 0.0, 0.0, -1991.3616170122168, 0.0]
['beep', 0.0, 579.9830651263077, 0.0, 0.0, 0.0, 0.0, -1992.5239077238928, 0.0]
['beep', 0.0, 579.9383616373971, 0.0, 0.0, 0.0, 0.0, -1992.769776912901, 0.0]
['beep', 0.0, 580.4301000154138, 0.0, 0.0, 0.0, 0.0, -1992.747425168446, 0.0]
['beep', 0.0, 579.6701407039334, 0.0, 0.0, 0.0, 0.0, -1991.808651901323, 0.0]
['beep', 0.0, 579.3572162815591, 0.0, 0.0, 0.0, 0.0, -1991.808651901323, 0.0]
['beep', 0.0, 580.0501203596735, 0.0, 0.0, 0.0, 0.0, -1992.903887379633, 0.0]
['beep', 0.0, 579.6030854705674, 0.0, 0.0, 0.0, 0.0, -1992.5239077238928, 0.0]
['beep', 0.0, 580.4971552487797, 0.0, 0.0, 0.0, 0.0, -1991.6745414345912, 0.0]
['beep', 0.0, 579.3795680260143, 0.0, 0.0, 0.0, 0.0, -1992.255686790429, 0.0]
['beep', 0.0, 580.2065825708607, 0.0, 0.0, 0.0, 0.0, -1993.932067624577, 0.0]
['beep', 0.0, 579.6030854705674, 0.0, 0.0, 0.0, 0.0, -1991.0486925898426, 0.0]
['beep', 0.0, 579.3125127926485, 0.0, 0.0, 0.0, 0.0, -1988.545297210848, 0.0]
['beep', 0.0, 578.1055185920619, 0.0, 0.0, 0.0, 0.0, -1986.6453989321471, 0.0]
['beep', 0.0, 576.0268063577183, 0.0, 0.0, 0.0, 0.0, -1985.3266460092839, 0.0]
['beep', 0.0, 577.1443935804837, 0.0, 0.0, 0.0, 0.0, -1984.4325762310716, 0.0]
['beep', 0.0, 580.4077482709585, 0.0, 0.0, 0.0, 0.0, -1982.9573610970215, 0.0]
['beep', 0.0, 581.5700389826345, 0.0, 0.0, 0.0, 0.0, -1978.3081982503174, 0.0]
['beep', 0.0, 579.6030854705674, 0.0, 0.0, 0.0, 0.0, -1972.8320208587672, 0.0]
['beep', 0.0, 578.3737395255256, 0.0, 0.0, 0.0, 0.0, -1969.166334768097, 0.0]
['beep', 0.0, 576.4067860134585, 0.0, 0.0, 0.0, 0.0, -1962.6619771316025, 0.0]
['beep', 0.0, 576.3397307800926, 0.0, 0.0, 0.0, 0.0, -1955.263549716896, 0.0]
['beep', 0.0, 576.9655796248412, 0.0, 0.0, 0.0, 0.0, -1950.6590903591027, 0.0]
['beep', 0.0, 574.3504255235703, 0.0, 0.0, 0.0, 0.0, -1941.7854478103457, 0.0]
['beep', 0.0, 575.3339022796038, 0.0, 0.0, 0.0, 0.0, -1930.8554447717006, 0.0]
['beep', 0.0, 579.647788959478, 0.0, 0.0, 0.0, 0.0, -1923.747590034913, 0.0]
['beep', 0.0, 577.1667453249389, 0.0, 0.0, 0.0, 0.0, -1919.3666481216728, 0.0]
['beep', 0.0, 573.8139836566429, 0.0, 0.0, 0.0, 0.0, -1909.4424735835164, 0.0]
['beep', 0.0, 573.8810388900089, 0.0, 0.0, 0.0, 0.0, -1900.7699967348574, 0.0]
['beep', 0.0, 571.7352714222993, 0.0, 0.0, 0.0, 0.0, -1896.6125722661702, 0.0]
['beep', 0.0, 571.198829555372, 0.0, 0.0, 0.0, 0.0, -1890.1082146296758, 0.0]
['beep', 0.0, 568.8965998764753, 0.0, 0.0, 0.0, 0.0, -1883.335636059718, 0.0]
['beep', 0.0, 571.6682161889335, 0.0, 0.0, 0.0, 0.0, -1880.6087232361704, 0.0]
['beep', 0.0, 572.294065033682, 0.0, 0.0, 0.0, 0.0, -1876.7418714454022, 0.0]
['beep', 0.0, 570.3047597771597, 0.0, 0.0, 0.0, 0.0, -1870.5504382312822, 0.0]
['beep', 0.0, 570.4388702438915, 0.0, 0.0, 0.0, 0.0, -1868.427022508028, 0.0]
['beep', 0.0, 570.2153527993385, 0.0, 0.0, 0.0, 0.0, -1863.84491489469, 0.0]
['beep', 0.0, 568.9860068542965, 0.0, 0.0, 0.0, 0.0, -1861.520333471338, 0.0]
['beep', 0.0, 569.7012626768665, 0.0, 0.0, 0.0, 0.0, -1862.7049759274694, 0.0]
['beep', 0.0, 572.0928993335842, 0.0, 0.0, 0.0, 0.0, -1861.9897201048996, 0.0]
['beep', 0.0, 573.6351697010005, 0.0, 0.0, 0.0, 0.0, -1865.007205606366, 0.0]
['beep', 0.0, 573.8139836566429, 0.0, 0.0, 0.0, 0.0, -1869.0975748416872, 0.0]
['beep', 0.0, 572.6740446894222, 0.0, 0.0, 0.0, 0.0, -1873.299702799285, 0.0]
['beep', 0.0, 571.9587888668524, 0.0, 0.0, 0.0, 0.0, -1877.1218511011425, 0.0]
['beep', 0.0, 573.1434313229837, 0.0, 0.0, 0.0, 0.0, -1884.5426302603043, 0.0]
['beep', 0.0, 571.422346999925, 0.0, 0.0, 0.0, 0.0, -1889.7058832294804, 0.0]
['beep', 0.0, 572.2270098003161, 0.0, 0.0, 0.0, 0.0, -1895.1150053876647, 0.0]
['beep', 0.0, 574.9539226238636, 0.0, 0.0, 0.0, 0.0, -1902.4687293134607, 0.0]
['beep', 0.0, 575.9150476354417, 0.0, 0.0, 0.0, 0.0, -1909.1519009055974, 0.0]
['beep', 0.0, 574.7304051793105, 0.0, 0.0, 0.0, 0.0, -1916.4609213424828, 0.0]
['beep', 0.0, 576.1385650799948, 0.0, 0.0, 0.0, 0.0, -1924.2169766684744, 0.0]
['beep', 0.0, 577.8820011475088, 0.0, 0.0, 0.0, 0.0, -1930.1625406935862, 0.0]
['beep', 0.0, 578.0161116142407, 0.0, 0.0, 0.0, 0.0, -1936.778657052357, 0.0]
['beep', 0.0, 578.1502220809725, 0.0, 0.0, 0.0, 0.0, -1943.104200733209, 0.0]
['beep', 0.0, 577.9714081253301, 0.0, 0.0, 0.0, 0.0, -1947.3957356686278, 0.0]
['beep', 0.0, 577.4349662584027, 0.0, 0.0, 0.0, 0.0, -1952.424878171072, 0.0]
['beep', 0.0, 578.8207744146317, 0.0, 0.0, 0.0, 0.0, -1956.6940613620357, 0.0]
['beep', 0.0, 580.3183412931372, 0.0, 0.0, 0.0, 0.0, -1959.845657330234, 0.0]
['beep', 0.0, 580.3853965265032, 0.0, 0.0, 0.0, 0.0, -1962.5725701537813, 0.0]
['beep', 0.0, 581.3912250269921, 0.0, 0.0, 0.0, 0.0, -1965.5453521663371, 0.0]
['beep', 0.0, 581.8382599160982, 0.0, 0.0, 0.0, 0.0, -1969.099279534731, 0.0]
['beep', 0.0, 580.6759692044221, 0.0, 0.0, 0.0, 0.0, -1971.5579714248147, 0.0]
['beep', 0.0, 581.2347628158049, 0.0, 0.0, 0.0, 0.0, -1972.0050063139208, 0.0]
['beep', 0.0, 581.3688732825367, 0.0, 0.0, 0.0, 0.0, -1975.290712748851, 0.0]
['beep', 0.0, 581.1900593268942, 0.0, 0.0, 0.0, 0.0, -1977.5705906832923, 0.0]
['beep', 0.0, 581.2794663047155, 0.0, 0.0, 0.0, 0.0, -1979.5151924509041, 0.0]
['beep', 0.0, 581.7712046827322, 0.0, 0.0, 0.0, 0.0, -1980.6327796736693, 0.0]
['beep', 0.0, 582.0170738717406, 0.0, 0.0, 0.0, 0.0, -1981.705663407524, 0.0]
['beep', 0.0, 582.7993849276763, 0.0, 0.0, 0.0, 0.0, -1982.5550296968258, 0.0]
['beep', 0.0, 583.5593442391568, 0.0, 0.0, 0.0, 0.0, -1982.2644570189068, 0.0]
['beep', 0.0, 584.2969518061819, 0.0, 0.0, 0.0, 0.0, -1983.96318959751, 0.0]
['beep', 0.0, 583.2240680723272, 0.0, 0.0, 0.0, 0.0, -1984.1420035531526, 0.0]
['beep', 0.0, 583.648751216978, 0.0, 0.0, 0.0, 0.0, -1983.5608581973147, 0.0]
['beep', 0.0, 584.1628413394501, 0.0, 0.0, 0.0, 0.0, -1983.4714512194935, 0.0]
['beep', 0.0, 583.4475855168803, 0.0, 0.0, 0.0, 0.0, -1984.6560936756248, 0.0]
['beep', 0.0, 584.0957861060841, 0.0, 0.0, 0.0, 0.0, -1986.0419018318537, 0.0]
['beep', 0.0, 585.168669839939, 0.0, 0.0, 0.0, 0.0, -1986.9806750989767, 0.0]
['beep', 0.0, 584.1628413394501, 0.0, 0.0, 0.0, 0.0, -1987.4053582436275, 0.0]
['beep', 0.0, 583.8275651726204, 0.0, 0.0, 0.0, 0.0, -1990.355788511728, 0.0]
['beep', 0.0, 583.3805302835143, 0.0, 0.0, 0.0, 0.0, -1989.551125711337, 0.0]
['beep', 0.0, 583.8052134281652, 0.0, 0.0, 0.0, 0.0, -1987.2712477768957, 0.0]
['beep', 0.0, 583.7605099392546, 0.0, 0.0, 0.0, 0.0, -1989.2829047778732, 0.0]
['beep', 0.0, 584.453414017369, 0.0, 0.0, 0.0, 0.0, -1992.456852490527, 0.0]
['beep', 0.0, 584.6545797174668, 0.0, 0.0, 0.0, 0.0, -1988.7688146554012, 0.0]
['beep', 0.0, 582.3970535274808, 0.0, 0.0, 0.0, 0.0, -1989.0817390777754, 0.0]
['beep', 0.0, 583.3805302835143, 0.0, 0.0, 0.0, 0.0, -1990.7357681674682, 0.0]
['beep', 0.0, 584.1404895949947, 0.0, 0.0, 0.0, 0.0, -1992.0321693458761, 0.0]
['beep', 0.0, 583.7605099392546, 0.0, 0.0, 0.0, 0.0, -1991.8980588791442, 0.0]
['beep', 0.0, 583.2240680723272, 0.0, 0.0, 0.0, 0.0, -1990.4004920006387, 0.0]
['beep', 0.0, 582.6652744609445, 0.0, 0.0, 0.0, 0.0, -1992.3674455127057, 0.0]
['beep', 0.0, 582.3523500385702, 0.0, 0.0, 0.0, 0.0, -1993.9544193690324, 0.0]
['beep', 0.0, 582.8664401610423, 0.0, 0.0, 0.0, 0.0, -1995.4966897364486, 0.0]
['beep', 0.0, 584.4981175062796, 0.0, 0.0, 0.0, 0.0, -1992.0768728347866, 0.0]
['beep', 0.0, 584.8557454175645, 0.0, 0.0, 0.0, 0.0, -1992.5909629572586, 0.0]
['beep', 0.0, 584.4087105284584, 0.0, 0.0, 0.0, 0.0, -1991.518079223404, 0.0]
['beep', 0.0, 584.6098762285562, 0.0, 0.0, 0.0, 0.0, -1992.0098176014208, 0.0]
['beep', 0.0, 584.4310622729138, 0.0, 0.0, 0.0, 0.0, -1993.0156461019096, 0.0]
['beep', 0.0, 583.9169721504417, 0.0, 0.0, 0.0, 0.0, -1991.518079223404, 0.0]
['beep', 0.0, 584.5875244841009, 0.0, 0.0, 0.0, 0.0, -1991.4957274789488, 0.0]
['beep', 0.0, 584.8557454175645, 0.0, 0.0, 0.0, 0.0, -1991.6745414345912, 0.0]
['beep', 0.0, 583.2464198167825, 0.0, 0.0, 0.0, 0.0, -1993.7532536689346, 0.0]
['beep', 0.0, 584.3193035506372, 0.0, 0.0, 0.0, 0.0, -1994.9602478695213, 0.0]
['beep', 0.0, 584.453414017369, 0.0, 0.0, 0.0, 0.0, -1993.909715880122, 0.0]
['beep', 0.0, 584.520469250735, 0.0, 0.0, 0.0, 0.0, -1992.3450937682503, 0.0]
['beep', 0.0, 585.3474837955814, 0.0, 0.0, 0.0, 0.0, -1992.4345007460715, 0.0]
['beep', 0.0, 585.3027803066708, 0.0, 0.0, 0.0, 0.0, -1993.4626809910158, 0.0]
['beep', 0.0, 584.9004489064752, 0.0, 0.0, 0.0, 0.0, -1992.747425168446, 0.0]
['beep', 0.0, 584.1851930839053, 0.0, 0.0, 0.0, 0.0, -1992.9485908685435, 0.0]
['beep', 0.0, 584.229896572816, 0.0, 0.0, 0.0, 0.0, -1991.518079223404, 0.0]
['beep', 0.0, 583.2017163278718, 0.0, 0.0, 0.0, 0.0, -1993.6414949466582, 0.0]
['beep', 0.0, 583.8499169170758, 0.0, 0.0, 0.0, 0.0, -1995.004951358432, 0.0]
['beep', 0.0, 585.034559373207, 0.0, 0.0, 0.0, 0.0, -1994.9825996139766, 0.0]
['beep', 0.0, 584.1628413394501, 0.0, 0.0, 0.0, 0.0, -1995.2955240363508, 0.0]
['beep', 0.0, 584.6992832063775, 0.0, 0.0, 0.0, 0.0, -1994.066178091309, 0.0]
['beep', 0.0, 587.0238646297294, 0.0, 0.0, 0.0, 0.0, -1994.2449920469514, 0.0]
['beep', 0.0, 586.1521465959725, 0.0, 0.0, 0.0, 0.0, -1994.6920269360576, 0.0]
['beep', 0.0, 581.9947221272853, 0.0, 0.0, 0.0, 0.0, -1994.8931926361554, 0.0]
['beep', 0.0, 584.0734343616289, 0.0, 0.0, 0.0, 0.0, -1996.2119455590184, 0.0]
['beep', 0.0, 585.034559373207, 0.0, 0.0, 0.0, 0.0, -1998.1118438377196, 0.0]
['beep', 0.0, 583.9616756393523, 0.0, 0.0, 0.0, 0.0, -1998.4918234934598, 0.0]
['beep', 0.0, 582.5088122497574, 0.0, 0.0, 0.0, 0.0, -1999.9893903719653, 0.0]
['beep', 0.0, 583.4028820279697, 0.0, 0.0, 0.0, 0.0, -1999.2964862938509, 0.0]
['beep', 0.0, 584.6545797174668, 0.0, 0.0, 0.0, 0.0, -1998.4024165156386, 0.0]
['beep', 0.0, 583.872268661531, 0.0, 0.0, 0.0, 0.0, -1998.2459543044515, 0.0]
['beep', 0.0, 583.4252337724249, 0.0, 0.0, 0.0, 0.0, -1998.2683060489067, 0.0]
['beep', 0.0, 582.2182395718384, 0.0, 0.0, 0.0, 0.0, -1999.3635415272167, 0.0]
['beep', 0.0, 582.3970535274808, 0.0, 0.0, 0.0, 0.0, -2000.2352595609736, 0.0]
['beep', 0.0, 582.5982192275786, 0.0, 0.0, 0.0, 0.0, -1998.4918234934598, 0.0]
['beep', 0.0, 583.1123093500506, 0.0, 0.0, 0.0, 0.0, -1994.7814339138788, 0.0]
['beep', 0.0, 583.3134750501484, 0.0, 0.0, 0.0, 0.0, -1996.1448903256526, 0.0]
['beep', 0.0, 583.8946204059864, 0.0, 0.0, 0.0, 0.0, -1998.3800647711832, 0.0]
['beep', 0.0, 584.9675041398411, 0.0, 0.0, 0.0, 0.0, -1999.4082450161275, 0.0]
['beep', 0.0, 585.168669839939, 0.0, 0.0, 0.0, 0.0, -1999.229431060485, 0.0]
['beep', 0.0, 585.168669839939, 0.0, 0.0, 0.0, 0.0, -1999.609410716225, 0.0]
['beep', 0.0, 585.7051117068663, 0.0, 0.0, 0.0, 0.0, -2001.576364228292, 0.0]
['beep', 0.0, 584.6992832063775, 0.0, 0.0, 0.0, 0.0, -2000.5705357278034, 0.0]
['beep', 0.0, 584.520469250735, 0.0, 0.0, 0.0, 0.0, -1999.385893271672, 0.0]
['beep', 0.0, 585.9509808958746, 0.0, 0.0, 0.0, 0.0, -1999.5200037384038, 0.0]
['beep', 0.0, 586.5991814850786, 0.0, 0.0, 0.0, 0.0, -1998.9612101270213, 0.0]
['beep', 0.0, 585.101614606573, 0.0, 0.0, 0.0, 0.0, -2000.034093860876, 0.0]
['beep', 0.0, 585.97333264033, 0.0, 0.0, 0.0, 0.0, -1998.8941548936552, 0.0]
['beep', 0.0, 588.1414518524947, 0.0, 0.0, 0.0, 0.0, -1998.8270996602894, 0.0]
['beep', 0.0, 588.4096727859584, 0.0, 0.0, 0.0, 0.0, -1999.58705897177, 0.0]
['beep', 0.0, 586.7556436962657, 0.0, 0.0, 0.0, 0.0, -2000.1235008386973, 0.0]
['beep', 0.0, 587.4038442854696, 0.0, 0.0, 0.0, 0.0, -1999.8105764163229, 0.0]
['beep', 0.0, 587.6273617300227, 0.0, 0.0, 0.0, 0.0, -2003.833890418278, 0.0]
['beep', 0.0, 587.1579750964612, 0.0, 0.0, 0.0, 0.0, -2004.8620706632223, 0.0]
['beep', 0.0, 587.2473820742824, 0.0, 0.0, 0.0, 0.0, -1999.385893271672, 0.0]
['beep', 0.0, 587.8285274301204, 0.0, 0.0, 0.0, 0.0, -1999.0729688492977, 0.0]
['beep', 0.0, 587.2473820742824, 0.0, 0.0, 0.0, 0.0, -2000.3023147943397, 0.0]
['beep', 0.0, 586.8226989296317, 0.0, 0.0, 0.0, 0.0, -2000.5928874722586, 0.0]
['beep', 0.0, 587.4038442854696, 0.0, 0.0, 0.0, 0.0, -1999.6764659495911, 0.0]
['beep', 0.0, 587.2473820742824, 0.0, 0.0, 0.0, 0.0, -2000.5034804944373, 0.0]
['beep', 0.0, 587.9179344079416, 0.0, 0.0, 0.0, 0.0, -2000.7493496834459, 0.0]
['beep', 0.0, 586.9121059074529, 0.0, 0.0, 0.0, 0.0, -1999.6317624606804, 0.0]
['beep', 0.0, 587.8285274301204, 0.0, 0.0, 0.0, 0.0, -2000.101149094242, 0.0]
['beep', 0.0, 587.6273617300227, 0.0, 0.0, 0.0, 0.0, -2001.196384572552, 0.0]
['beep', 0.0, 586.777995440721, 0.0, 0.0, 0.0, 0.0, -2003.811538673823, 0.0]
['beep', 0.0, 586.3980157849808, 0.0, 0.0, 0.0, 0.0, -2003.0962828512531, 0.0]
['beep', 0.0, 586.4203675294361, 0.0, 0.0, 0.0, 0.0, -2001.9563438840323, 0.0]
['beep', 0.0, 586.8450506740869, 0.0, 0.0, 0.0, 0.0, -2004.035056118376, 0.0]
['beep', 0.0, 586.2862570627043, 0.0, 0.0, 0.0, 0.0, -2004.6385532186691, 0.0]
['beep', 0.0, 586.7109402073551, 0.0, 0.0, 0.0, 0.0, -2002.9621723845212, 0.0]
['beep', 0.0, 587.359140796559, 0.0, 0.0, 0.0, 0.0, -2003.0962828512531, 0.0]
['beep', 0.0, 588.1861553414053, 0.0, 0.0, 0.0, 0.0, -2002.9845241289765, 0.0]
['beep', 0.0, 587.0909198630953, 0.0, 0.0, 0.0, 0.0, -2007.8125009313228, 0.0]
['beep', 0.0, 587.1579750964612, 0.0, 0.0, 0.0, 0.0, -2009.198309087552, 0.0]
['beep', 0.0, 587.7167687078439, 0.0, 0.0, 0.0, 0.0, -2004.8620706632223, 0.0]
['beep', 0.0, 587.873230919031, 0.0, 0.0, 0.0, 0.0, -2002.7386549399682, 0.0]
['beep', 0.0, 586.2862570627043, 0.0, 0.0, 0.0, 0.0, -2004.5267944963928, 0.0]
['beep', 0.0, 585.5933529845897, 0.0, 0.0, 0.0, 0.0, -2004.6832567075799, 0.0]
['beep', 0.0, 585.7051117068663, 0.0, 0.0, 0.0, 0.0, -2004.7503119409457, 0.0]
['beep', 0.0, 585.9509808958746, 0.0, 0.0, 0.0, 0.0, -2005.4655677635155, 0.0]
['beep', 0.0, 585.034559373207, 0.0, 0.0, 0.0, 0.0, -2005.9126026526217, 0.0]
['beep', 0.0, 584.8780971620199, 0.0, 0.0, 0.0, 0.0, -2008.9524398985434, 0.0]
['beep', 0.0, 583.8499169170758, 0.0, 0.0, 0.0, 0.0, -2008.7959776873563, 0.0]
['beep', 0.0, 585.9956843847852, 0.0, 0.0, 0.0, 0.0, -2006.225527074996, 0.0]
['beep', 0.0, 587.7614721967545, 0.0, 0.0, 0.0, 0.0, -2006.2031753305407, 0.0]
['beep', 0.0, 589.5943152420897, 0.0, 0.0, 0.0, 0.0, -2006.583154986281, 0.0]
['beep', 0.0, 591.1589373539612, 0.0, 0.0, 0.0, 0.0, -2005.5996782302475, 0.0]
['beep', 0.0, 592.1200623655394, 0.0, 0.0, 0.0, 0.0, -2007.611335231225, 0.0]
['beep', 0.0, 591.1365856095059, 0.0, 0.0, 0.0, 0.0, -2009.9806201434876, 0.0]
['beep', 0.0, 590.0637018756512, 0.0, 0.0, 0.0, 0.0, -2008.6842189650797, 0.0]
['beep', 0.0, 587.9179344079416, 0.0, 0.0, 0.0, 0.0, -2007.7677974424123, 0.0]
['beep', 0.0, 585.325132051126, 0.0, 0.0, 0.0, 0.0, -2005.3314572967838, 0.0]
['beep', 0.0, 585.2580768177602, 0.0, 0.0, 0.0, 0.0, -2006.2478788194514, 0.0]
['beep', 0.0, 585.5933529845897, 0.0, 0.0, 0.0, 0.0, -2006.940782897566, 0.0]
['beep', 0.0, 586.0180361292406, 0.0, 0.0, 0.0, 0.0, -2007.6336869756803, 0.0]
['beep', 0.0, 585.4592425178579, 0.0, 0.0, 0.0, 0.0, -2009.645343976658, 0.0]
['beep', 0.0, 585.3474837955814, 0.0, 0.0, 0.0, 0.0, -2007.9466113980548, 0.0]
['beep', 0.0, 585.5933529845897, 0.0, 0.0, 0.0, 0.0, -2008.2148323315184, 0.0]
['beep', 0.0, 587.4708995188355, 0.0, 0.0, 0.0, 0.0, -2009.8018061878452, 0.0]
['beep', 0.0, 587.8061756856652, 0.0, 0.0, 0.0, 0.0, -2010.673524221602, 0.0]
['beep', 0.0, 586.8226989296317, 0.0, 0.0, 0.0, 0.0, -2012.0816841222866, 0.0]
['beep', 0.0, 586.8674024185423, 0.0, 0.0, 0.0, 0.0, -2012.193442844563, 0.0]
['beep', 0.0, 586.8674024185423, 0.0, 0.0, 0.0, 0.0, -2012.0146288889205, 0.0]
['beep', 0.0, 586.777995440721, 0.0, 0.0, 0.0, 0.0, -2011.2546695774402, 0.0]
['beep', 0.0, 586.5321262517126, 0.0, 0.0, 0.0, 0.0, -2011.031152132887, 0.0]
['beep', 0.0, 585.7051117068663, 0.0, 0.0, 0.0, 0.0, -2010.3382480547725, 0.0]
['beep', 0.0, 586.0403878736959, 0.0, 0.0, 0.0, 0.0, -2010.3605997992279, 0.0]
['beep', 0.0, 585.906277406964, 0.0, 0.0, 0.0, 0.0, -2013.579251000792, 0.0]
['beep', 0.0, 587.0238646297294, 0.0, 0.0, 0.0, 0.0, -2013.7133614675238, 0.0]
['beep', 0.0, 587.4485477743802, 0.0, 0.0, 0.0, 0.0, -2012.6628294781244, 0.0]
['beep', 0.0, 587.1579750964612, 0.0, 0.0, 0.0, 0.0, -2012.484015522482, 0.0]
['beep', 0.0, 586.9344576519081, 0.0, 0.0, 0.0, 0.0, -2012.8639951782222, 0.0]
['beep', 0.0, 587.2697338187378, 0.0, 0.0, 0.0, 0.0, -2013.579251000792, 0.0]
['beep', 0.0, 587.7614721967545, 0.0, 0.0, 0.0, 0.0, -2012.931050411588, 0.0]
['beep', 0.0, 587.4708995188355, 0.0, 0.0, 0.0, 0.0, -2011.3440765552614, 0.0]
['beep', 0.0, 587.7391204522992, 0.0, 0.0, 0.0, 0.0, -2012.193442844563, 0.0]
['beep', 0.0, 586.2639053182489, 0.0, 0.0, 0.0, 0.0, -2013.1992713450518, 0.0]
['beep', 0.0, 586.8003471851763, 0.0, 0.0, 0.0, 0.0, -2011.7240562110017, 0.0]
['beep', 0.0, 588.2979140636819, 0.0, 0.0, 0.0, 0.0, -2014.4733207790043, 0.0]
['beep', 0.0, 585.682759962411, 0.0, 0.0, 0.0, 0.0, -2013.9592306565323, 0.0]
['beep', 0.0, 586.1744983404277, 0.0, 0.0, 0.0, 0.0, -2011.5675939998143, 0.0]
['beep', 0.0, 587.2026785853718, 0.0, 0.0, 0.0, 0.0, -2012.0369806333758, 0.0]
['beep', 0.0, 586.5321262517126, 0.0, 0.0, 0.0, 0.0, -2013.3110300673284, 0.0]
['beep', 0.0, 586.8674024185423, 0.0, 0.0, 0.0, 0.0, -2015.7026667240461, 0.0]
['beep', 0.0, 586.8226989296317, 0.0, 0.0, 0.0, 0.0, -2015.1215213682083, 0.0]
['beep', 0.0, 588.2085070858607, 0.0, 0.0, 0.0, 0.0, -2013.802768445345, 0.0]
['beep', 0.0, 587.8285274301204, 0.0, 0.0, 0.0, 0.0, -2013.3110300673284, 0.0]
['beep', 0.0, 588.0967483635841, 0.0, 0.0, 0.0, 0.0, -2015.3450388127612, 0.0]
['beep', 0.0, 586.9344576519081, 0.0, 0.0, 0.0, 0.0, -2015.613259746225, 0.0]
['beep', 0.0, 586.4203675294361, 0.0, 0.0, 0.0, 0.0, -2014.093341123264, 0.0]
['beep', 0.0, 587.2026785853718, 0.0, 0.0, 0.0, 0.0, -2012.774588200401, 0.0]
['beep', 0.0, 588.0073413857629, 0.0, 0.0, 0.0, 0.0, -2013.579251000792, 0.0]
['beep', 0.0, 587.2473820742824, 0.0, 0.0, 0.0, 0.0, -2016.7979022023562, 0.0]
['beep', 0.0, 587.5156030077461, 0.0, 0.0, 0.0, 0.0, -2015.0544661348424, 0.0]
['beep', 0.0, 588.3649692970478, 0.0, 0.0, 0.0, 0.0, -2014.9203556681105, 0.0]
['beep', 0.0, 588.5884867416008, 0.0, 0.0, 0.0, 0.0, -2013.3110300673284, 0.0]
['beep', 0.0, 588.3649692970478, 0.0, 0.0, 0.0, 0.0, -2011.5228905109038, 0.0]
['beep', 0.0, 588.744948952788, 0.0, 0.0, 0.0, 0.0, -2012.931050411588, 0.0]
['beep', 0.0, 589.035521630707, 0.0, 0.0, 0.0, 0.0, -2014.450969034549, 0.0]
['beep', 0.0, 589.3484460530814, 0.0, 0.0, 0.0, 0.0, -2016.4402742910713, 0.0]
['beep', 0.0, 589.7731291977321, 0.0, 0.0, 0.0, 0.0, -2016.3732190577055, 0.0]
['beep', 0.0, 590.1084053645618, 0.0, 0.0, 0.0, 0.0, -2014.8756521792, 0.0]
['beep', 0.0, 589.907239664464, 0.0, 0.0, 0.0, 0.0, -2014.6521347346468, 0.0]
['beep', 0.0, 589.5049082642685, 0.0, 0.0, 0.0, 0.0, -2016.6861434800796, 0.0]
['beep', 0.0, 588.9684663973411, 0.0, 0.0, 0.0, 0.0, -2015.5909080017698, 0.0]
['beep', 0.0, 588.5661349971456, 0.0, 0.0, 0.0, 0.0, -2013.936878912077, 0.0]
['beep', 0.0, 588.8567076750645, 0.0, 0.0, 0.0, 0.0, -2014.8756521792, 0.0]
['beep', 0.0, 589.6390187310003, 0.0, 0.0, 0.0, 0.0, -2016.6190882467138, 0.0]
['beep', 0.0, 588.6108384860562, 0.0, 0.0, 0.0, 0.0, -2017.1555301136411, 0.0]
['beep', 0.0, 587.4708995188355, 0.0, 0.0, 0.0, 0.0, -2017.4461027915602, 0.0]
['beep', 0.0, 587.135623352006, 0.0, 0.0, 0.0, 0.0, -2016.6190882467138, 0.0]
['beep', 0.0, 586.8003471851763, 0.0, 0.0, 0.0, 0.0, -2015.322687068306, 0.0]
['beep', 0.0, 588.1414518524947, 0.0, 0.0, 0.0, 0.0, -2016.3955708021608, 0.0]
['beep', 0.0, 588.9684663973411, 0.0, 0.0, 0.0, 0.0, -2016.7755504579009, 0.0]
['beep', 0.0, 587.6944169633886, 0.0, 0.0, 0.0, 0.0, -2014.7638934569234, 0.0]
['beep', 0.0, 588.3649692970478, 0.0, 0.0, 0.0, 0.0, -2014.093341123264, 0.0]
['beep', 0.0, 587.8955826634864, 0.0, 0.0, 0.0, 0.0, -2014.6968382235575, 0.0]
['beep', 0.0, 587.7614721967545, 0.0, 0.0, 0.0, 0.0, -2014.7862452013787, 0.0]
['beep', 0.0, 588.3649692970478, 0.0, 0.0, 0.0, 0.0, -2015.6579632351356, 0.0]
['beep', 0.0, 587.8955826634864, 0.0, 0.0, 0.0, 0.0, -2015.5909080017698, 0.0]
['beep', 0.0, 587.8955826634864, 0.0, 0.0, 0.0, 0.0, -2017.5355097693814, 0.0]
['beep', 0.0, 588.0520448746735, 0.0, 0.0, 0.0, 0.0, -2017.6025650027473, 0.0]
['beep', 0.0, 588.0520448746735, 0.0, 0.0, 0.0, 0.0, -2017.289640580373, 0.0]
['beep', 0.0, 588.2085070858607, 0.0, 0.0, 0.0, 0.0, -2018.4742830365044, 0.0]
['beep', 0.0, 588.3426175525925, 0.0, 0.0, 0.0, 0.0, -2018.6978004810574, 0.0]
['beep', 0.0, 588.6555419749668, 0.0, 0.0, 0.0, 0.0, -2018.9436696700657, 0.0]
['beep', 0.0, 587.940286152397, 0.0, 0.0, 0.0, 0.0, -2017.3343440692836, 0.0]
['beep', 0.0, 587.3144373076484, 0.0, 0.0, 0.0, 0.0, -2016.7308469689904, 0.0]
['beep', 0.0, 587.3814925410143, 0.0, 0.0, 0.0, 0.0, -2016.708495224535, 0.0]
['beep', 0.0, 586.6215332295338, 0.0, 0.0, 0.0, 0.0, -2019.3907045591718, 0.0]
['beep', 0.0, 587.6050099855673, 0.0, 0.0, 0.0, 0.0, -2019.770684214912, 0.0]
['beep', 0.0, 588.7673006972433, 0.0, 0.0, 0.0, 0.0, -2018.317820825317, 0.0]
['beep', 0.0, 587.135623352006, 0.0, 0.0, 0.0, 0.0, -2017.8260824473005, 0.0]
['beep', 0.0, 588.6331902305114, 0.0, 0.0, 0.0, 0.0, -2019.1895388590742, 0.0]
['beep', 0.0, 588.5437832526902, 0.0, 0.0, 0.0, 0.0, -2019.480111536993, 0.0]
['beep', 0.0, 588.1414518524947, 0.0, 0.0, 0.0, 0.0, -2018.6978004810574, 0.0]
['beep', 0.0, 586.9791611408187, 0.0, 0.0, 0.0, 0.0, -2018.0719516363088, 0.0]
['beep', 0.0, 587.9626378968522, 0.0, 0.0, 0.0, 0.0, -2017.9601929140322, 0.0]
['beep', 0.0, 588.0073413857629, 0.0, 0.0, 0.0, 0.0, -2018.2731173364066, 0.0]
['beep', 0.0, 588.3873210415031, 0.0, 0.0, 0.0, 0.0, -2017.6696202361131, 0.0]
['beep', 0.0, 589.0802251196176, 0.0, 0.0, 0.0, 0.0, -2018.317820825317, 0.0]
['beep', 0.0, 588.2085070858607, 0.0, 0.0, 0.0, 0.0, -2019.2789458368954, 0.0]
['beep', 0.0, 588.7896524416986, 0.0, 0.0, 0.0, 0.0, -2018.3401725697724, 0.0]
['beep', 0.0, 590.7342542093104, 0.0, 0.0, 0.0, 0.0, -2020.418884804116, 0.0]
['beep', 0.0, 590.197812342383, 0.0, 0.0, 0.0, 0.0, -2021.1117888822305, 0.0]
['beep', 0.0, 589.6390187310003, 0.0, 0.0, 0.0, 0.0, -2020.418884804116, 0.0]
['beep', 0.0, 589.7060739643663, 0.0, 0.0, 0.0, 0.0, -2021.2011958600517, 0.0]
['beep', 0.0, 590.3319228091149, 0.0, 0.0, 0.0, 0.0, -2020.1953673595629, 0.0]
['beep', 0.0, 591.7400827097991, 0.0, 0.0, 0.0, 0.0, -2019.4354080480825, 0.0]
['beep', 0.0, 590.6224954870338, 0.0, 0.0, 0.0, 0.0, -2018.6307452476915, 0.0]
['beep', 0.0, 587.8955826634864, 0.0, 0.0, 0.0, 0.0, -2017.8260824473005, 0.0]
['beep', 0.0, 588.7673006972433, 0.0, 0.0, 0.0, 0.0, -2017.1108266247306, 0.0]
['beep', 0.0, 595.5398792672014, 0.0, 0.0, 0.0, 0.0, -2014.9427074125658, 0.0]
['beep', 0.0, 596.9256874234304, 0.0, 0.0, 0.0, 0.0, -2016.7531987134457, 0.0]
['beep', 0.0, 594.5116990222573, 0.0, 0.0, 0.0, 0.0, -2017.6696202361131, 0.0]
['beep', 0.0, 594.198774599883, 0.0, 0.0, 0.0, 0.0, -2016.9320126690882, 0.0]
['beep', 0.0, 593.9976088997852, 0.0, 0.0, 0.0, 0.0, -2015.4791492794932, 0.0]
['beep', 0.0, 593.908201921964, 0.0, 0.0, 0.0, 0.0, -2016.4626260355267, 0.0]
['beep', 0.0, 594.1764228554276, 0.0, 0.0, 0.0, 0.0, -2017.4908062804707, 0.0]
['beep', 0.0, 595.3163618226483, 0.0, 0.0, 0.0, 0.0, -2017.8931376806663, 0.0]
['beep', 0.0, 595.517527522746, 0.0, 0.0, 0.0, 0.0, -2016.999067902454, 0.0]
['beep', 0.0, 594.8469751890868, 0.0, 0.0, 0.0, 0.0, -2016.8202539468116, 0.0]
['beep', 0.0, 594.8469751890868, 0.0, 0.0, 0.0, 0.0, -2017.7813789583897, 0.0]
['beep', 0.0, 594.3105333221595, 0.0, 0.0, 0.0, 0.0, -2018.16135861413, 0.0]
['beep', 0.0, 594.9587339113634, 0.0, 0.0, 0.0, 0.0, -2018.004896402943, 0.0]
['beep', 0.0, 594.8693269335422, 0.0, 0.0, 0.0, 0.0, -2017.7143237250239, 0.0]
['beep', 0.0, 594.5340507667125, 0.0, 0.0, 0.0, 0.0, -2016.417922546616, 0.0]
['beep', 0.0, 594.6234577445338, 0.0, 0.0, 0.0, 0.0, -2017.513158024926, 0.0]
['beep', 0.0, 594.6905129778997, 0.0, 0.0, 0.0, 0.0, -2019.0777801367976, 0.0]
['beep', 0.0, 593.9752571553299, 0.0, 0.0, 0.0, 0.0, -2019.0777801367976, 0.0]
['beep', 0.0, 593.0364838882069, 0.0, 0.0, 0.0, 0.0, -2016.9543644135433, 0.0]
['beep', 0.0, 593.7070362218662, 0.0, 0.0, 0.0, 0.0, -2015.6579632351356, 0.0]
['beep', 0.0, 594.5787542556232, 0.0, 0.0, 0.0, 0.0, -2017.3790475581943, 0.0]
['beep', 0.0, 595.6292862450226, 0.0, 0.0, 0.0, 0.0, -2017.7143237250239, 0.0]
['beep', 0.0, 596.0763211341288, 0.0, 0.0, 0.0, 0.0, -2017.2672888359177, 0.0]
['beep', 0.0, 595.4057688004696, 0.0, 0.0, 0.0, 0.0, -2018.518986525415, 0.0]
['beep', 0.0, 595.8304519451203, 0.0, 0.0, 0.0, 0.0, -2019.5024632814484, 0.0]
['beep', 0.0, 597.1939083568941, 0.0, 0.0, 0.0, 0.0, -2017.6696202361131, 0.0]
['beep', 0.0, 596.5233560232349, 0.0, 0.0, 0.0, 0.0, -2016.4626260355267, 0.0]
['beep', 0.0, 596.6127630010561, 0.0, 0.0, 0.0, 0.0, -2015.546204512859, 0.0]
['beep', 0.0, 595.3163618226483, 0.0, 0.0, 0.0, 0.0, -2015.5685562573144, 0.0]
['beep', 0.0, 594.9810856558187, 0.0, 0.0, 0.0, 0.0, -2014.9427074125658, 0.0]
['beep', 0.0, 593.617629244045, 0.0, 0.0, 0.0, 0.0, -2017.1108266247306, 0.0]
['beep', 0.0, 594.2881815777042, 0.0, 0.0, 0.0, 0.0, -2015.9932394019652, 0.0]
['beep', 0.0, 595.4728240338354, 0.0, 0.0, 0.0, 0.0, -2018.0943033807641, 0.0]
['beep', 0.0, 595.1151961225505, 0.0, 0.0, 0.0, 0.0, -2017.1555301136411, 0.0]
['beep', 0.0, 594.6234577445338, 0.0, 0.0, 0.0, 0.0, -2017.1555301136411, 0.0]
['beep', 0.0, 596.2104316008606, 0.0, 0.0, 0.0, 0.0, -2018.2731173364066, 0.0]
['beep', 0.0, 598.7361787243103, 0.0, 0.0, 0.0, 0.0, -2017.8931376806663, 0.0]
['beep', 0.0, 596.4115973009583, 0.0, 0.0, 0.0, 0.0, -2018.5636900143256, 0.0]
['beep', 0.0, 591.3377513096036, 0.0, 0.0, 0.0, 0.0, -2018.809559203334, 0.0]
['beep', 0.0, 590.7342542093104, 0.0, 0.0, 0.0, 0.0, -2018.6978004810574, 0.0]
['beep', 0.0, 594.1540711109724, 0.0, 0.0, 0.0, 0.0, -2017.9378411695768, 0.0]
['beep', 0.0, 594.4669955333467, 0.0, 0.0, 0.0, 0.0, -2018.16135861413, 0.0]
['beep', 0.0, 593.7070362218662, 0.0, 0.0, 0.0, 0.0, -2019.1895388590742, 0.0]
['beep', 0.0, 593.7293879663215, 0.0, 0.0, 0.0, 0.0, -2018.0495998918534, 0.0]
['beep', 0.0, 594.0423123886958, 0.0, 0.0, 0.0, 0.0, -2017.9601929140322, 0.0]
['beep', 0.0, 592.9694286548411, 0.0, 0.0, 0.0, 0.0, -2019.2342423479847, 0.0]
['beep', 0.0, 592.1200623655394, 0.0, 0.0, 0.0, 0.0, -2018.966021414521, 0.0]
['beep', 0.0, 593.0588356326623, 0.0, 0.0, 0.0, 0.0, -2017.8260824473005, 0.0]
['beep', 0.0, 593.7964431996875, 0.0, 0.0, 0.0, 0.0, -2015.8814806796886, 0.0]
['beep', 0.0, 593.5058705217684, 0.0, 0.0, 0.0, 0.0, -2016.2614603354289, 0.0]
['beep', 0.0, 592.9694286548411, 0.0, 0.0, 0.0, 0.0, -2018.4072278031383, 0.0]
['beep', 0.0, 592.8576699325645, 0.0, 0.0, 0.0, 0.0, -2019.4130563036272, 0.0]
['beep', 0.0, 593.8411466885981, 0.0, 0.0, 0.0, 0.0, -2018.4295795475937, 0.0]
['beep', 0.0, 593.8634984330533, 0.0, 0.0, 0.0, 0.0, -2016.1497016131523, 0.0]
['beep', 0.0, 591.6059722430673, 0.0, 0.0, 0.0, 0.0, -2017.870785936211, 0.0]
['beep', 0.0, 591.360103054059, 0.0, 0.0, 0.0, 0.0, -2018.4072278031383, 0.0]
['beep', 0.0, 592.9694286548411, 0.0, 0.0, 0.0, 0.0, -2016.3955708021608, 0.0]
['beep', 0.0, 593.5729257551344, 0.0, 0.0, 0.0, 0.0, -2017.8931376806663, 0.0]
['beep', 0.0, 592.7906146991986, 0.0, 0.0, 0.0, 0.0, -2018.8766144366998, 0.0]
['beep', 0.0, 592.3659315545477, 0.0, 0.0, 0.0, 0.0, -2015.546204512859, 0.0]
['beep', 0.0, 593.8187949441427, 0.0, 0.0, 0.0, 0.0, -2016.484977779982, 0.0]
['beep', 0.0, 594.131719366517, 0.0, 0.0, 0.0, 0.0, -2016.6190882467138, 0.0]
['beep', 0.0, 595.5398792672014, 0.0, 0.0, 0.0, 0.0, -2016.8202539468116, 0.0]
['beep', 0.0, 594.8469751890868, 0.0, 0.0, 0.0, 0.0, -2015.9932394019652, 0.0]
['beep', 0.0, 593.8634984330533, 0.0, 0.0, 0.0, 0.0, -2015.4120940461273, 0.0]
['beep', 0.0, 593.908201921964, 0.0, 0.0, 0.0, 0.0, -2014.8756521792, 0.0]
['beep', 0.0, 593.4835187773132, 0.0, 0.0, 0.0, 0.0, -2017.6025650027473, 0.0]
['beep', 0.0, 594.2211263443382, 0.0, 0.0, 0.0, 0.0, -2017.6919719805685, 0.0]
['beep', 0.0, 594.7575682112656, 0.0, 0.0, 0.0, 0.0, -2015.8144254463227, 0.0]
['beep', 0.0, 593.3047048216707, 0.0, 0.0, 0.0, 0.0, -2016.3732190577055, 0.0]
['beep', 0.0, 594.0646641331512, 0.0, 0.0, 0.0, 0.0, -2016.3061638243396, 0.0]
['beep', 0.0, 593.908201921964, 0.0, 0.0, 0.0, 0.0, -2016.5743847578033, 0.0]
['beep', 0.0, 591.9636001543522, 0.0, 0.0, 0.0, 0.0, -2017.2672888359177, 0.0]
['beep', 0.0, 591.0918821205953, 0.0, 0.0, 0.0, 0.0, -2016.1273498686971, 0.0]
['beep', 0.0, 592.0083036432628, 0.0, 0.0, 0.0, 0.0, -2016.552033013348, 0.0]
['beep', 0.0, 592.5000420212796, 0.0, 0.0, 0.0, 0.0, -2017.4461027915602, 0.0]
['beep', 0.0, 592.5894489991008, 0.0, 0.0, 0.0, 0.0, -2017.1778818580965, 0.0]
['beep', 0.0, 594.5564025111679, 0.0, 0.0, 0.0, 0.0, -2017.6249167472026, 0.0]
['beep', 0.0, 595.6292862450226, 0.0, 0.0, 0.0, 0.0, -2016.552033013348, 0.0]
['beep', 0.0, 595.3163618226483, 0.0, 0.0, 0.0, 0.0, -2014.9874109014763, 0.0]
['beep', 0.0, 594.2211263443382, 0.0, 0.0, 0.0, 0.0, -2016.8873091801775, 0.0]
['beep', 0.0, 595.1151961225505, 0.0, 0.0, 0.0, 0.0, -2020.3071260818394, 0.0]
['beep', 0.0, 594.3999402999807, 0.0, 0.0, 0.0, 0.0, -2017.4013993026495, 0.0]
['beep', 0.0, 594.0870158776064, 0.0, 0.0, 0.0, 0.0, -2014.4956725234597, 0.0]
['beep', 0.0, 594.6234577445338, 0.0, 0.0, 0.0, 0.0, -2016.6861434800796, 0.0]
['beep', 0.0, 593.8634984330533, 0.0, 0.0, 0.0, 0.0, -2018.2731173364066, 0.0]
['beep', 0.0, 594.5564025111679, 0.0, 0.0, 0.0, 0.0, -2018.9436696700657, 0.0]
['beep', 0.0, 595.003437400274, 0.0, 0.0, 0.0, 0.0, -2019.7483324704567, 0.0]
['beep', 0.0, 595.5622310116566, 0.0, 0.0, 0.0, 0.0, -2018.966021414521, 0.0]
['beep', 0.0, 596.5457077676901, 0.0, 0.0, 0.0, 0.0, -2016.8873091801775, 0.0]
['beep', 0.0, 597.4621292903578, 0.0, 0.0, 0.0, 0.0, -2015.5015010239485, 0.0]
['beep', 0.0, 599.2726205912377, 0.0, 0.0, 0.0, 0.0, -2016.2391085909735, 0.0]
['beep', 0.0, 600.7701874697432, 0.0, 0.0, 0.0, 0.0, -2015.389742301672, 0.0]
['beep', 0.0, 600.4349113029136, 0.0, 0.0, 0.0, 0.0, -2014.2050998455406, 0.0]
['beep', 0.0, 597.551536268179, 0.0, 0.0, 0.0, 0.0, -2012.931050411588, 0.0]
['beep', 0.0, 595.7633967117545, 0.0, 0.0, 0.0, 0.0, -2014.2498033344514, 0.0]
['beep', 0.0, 596.8809839345198, 0.0, 0.0, 0.0, 0.0, -2016.8202539468116, 0.0]
['beep', 0.0, 594.0870158776064, 0.0, 0.0, 0.0, 0.0, -2018.004896402943, 0.0]
['beep', 0.0, 592.4776902768243, 0.0, 0.0, 0.0, 0.0, -2017.3119923248282, 0.0]
['beep', 0.0, 593.9752571553299, 0.0, 0.0, 0.0, 0.0, -2016.708495224535, 0.0]
['beep', 0.0, 593.3494083105813, 0.0, 0.0, 0.0, 0.0, -2016.7755504579009, 0.0]
['beep', 0.0, 593.3494083105813, 0.0, 0.0, 0.0, 0.0, -2017.4013993026495, 0.0]
['beep', 0.0, 593.5282222662238, 0.0, 0.0, 0.0, 0.0, -2017.8484341917556, 0.0]
['beep', 0.0, 593.617629244045, 0.0, 0.0, 0.0, 0.0, -2017.9378411695768, 0.0]
['beep', 0.0, 593.2600013327601, 0.0, 0.0, 0.0, 0.0, -2016.2391085909735, 0.0]
['beep', 0.0, 592.6565042324668, 0.0, 0.0, 0.0, 0.0, -2017.8484341917556, 0.0]
['beep', 0.0, 593.4164635439472, 0.0, 0.0, 0.0, 0.0, -2018.7201522255127, 0.0]
['beep', 0.0, 594.131719366517, 0.0, 0.0, 0.0, 0.0, -2016.194405102063, 0.0]
['beep', 0.0, 591.7177309653439, 0.0, 0.0, 0.0, 0.0, -2015.8814806796886, 0.0]
['beep', 0.0, 592.2988763211819, 0.0, 0.0, 0.0, 0.0, -2015.5685562573144, 0.0]
['beep', 0.0, 593.7740914552321, 0.0, 0.0, 0.0, 0.0, -2015.6356114906803, 0.0]
['beep', 0.0, 593.1482426104835, 0.0, 0.0, 0.0, 0.0, -2015.389742301672, 0.0]
['beep', 0.0, 592.8576699325645, 0.0, 0.0, 0.0, 0.0, -2013.9145271676216, 0.0]
['beep', 0.0, 593.5729257551344, 0.0, 0.0, 0.0, 0.0, -2015.0768178792976, 0.0]
['beep', 0.0, 594.0423123886958, 0.0, 0.0, 0.0, 0.0, -2016.060294635331, 0.0]
['beep', 0.0, 592.9023734214751, 0.0, 0.0, 0.0, 0.0, -2014.4956725234597, 0.0]
['beep', 0.0, 594.4222920444361, 0.0, 0.0, 0.0, 0.0, -2014.8309486902892, 0.0]
['beep', 0.0, 594.8693269335422, 0.0, 0.0, 0.0, 0.0, -2015.322687068306, 0.0]
['beep', 0.0, 593.6846844774109, 0.0, 0.0, 0.0, 0.0, -2014.8533004347446, 0.0]
['beep', 0.0, 594.7575682112656, 0.0, 0.0, 0.0, 0.0, -2014.0486376343536, 0.0]
['beep', 0.0, 594.4669955333467, 0.0, 0.0, 0.0, 0.0, -2014.2498033344514, 0.0]
['beep', 0.0, 594.3552368110701, 0.0, 0.0, 0.0, 0.0, -2015.7026667240461, 0.0]
['beep', 0.0, 594.1093676220618, 0.0, 0.0, 0.0, 0.0, -2015.389742301672, 0.0]
['beep', 0.0, 593.8634984330533, 0.0, 0.0, 0.0, 0.0, -2014.16039635663, 0.0]
['beep', 0.0, 593.0811873771175, 0.0, 0.0, 0.0, 0.0, -2015.032114390387, 0.0]
['beep', 0.0, 591.9636001543522, 0.0, 0.0, 0.0, 0.0, -2015.7026667240461, 0.0]
['beep', 0.0, 592.3212280656371, 0.0, 0.0, 0.0, 0.0, -2016.2838120798842, 0.0]
['beep', 0.0, 594.712864722355, 0.0, 0.0, 0.0, 0.0, -2015.322687068306, 0.0]
['beep', 0.0, 593.5729257551344, 0.0, 0.0, 0.0, 0.0, -2014.0709893788087, 0.0]
['beep', 0.0, 591.3824547985142, 0.0, 0.0, 0.0, 0.0, -2014.6297829901914, 0.0]
['beep', 0.0, 591.2259925873271, 0.0, 0.0, 0.0, 0.0, -2016.35086731325, 0.0]
['beep', 0.0, 591.7624344542545, 0.0, 0.0, 0.0, 0.0, -2015.613259746225, 0.0]
['beep', 0.0, 592.5223937657349, 0.0, 0.0, 0.0, 0.0, -2014.383913801183, 0.0]
['beep', 0.0, 592.5000420212796, 0.0, 0.0, 0.0, 0.0, -2014.8085969458339, 0.0]
['beep', 0.0, 593.5282222662238, 0.0, 0.0, 0.0, 0.0, -2015.322687068306, 0.0]
['beep', 0.0, 593.5729257551344, 0.0, 0.0, 0.0, 0.0, -2015.1215213682083, 0.0]
['beep', 0.0, 593.3717600550366, 0.0, 0.0, 0.0, 0.0, -2014.5403760123702, 0.0]
['beep', 0.0, 593.1705943549389, 0.0, 0.0, 0.0, 0.0, -2013.6016027452474, 0.0]
['beep', 0.0, 592.5000420212796, 0.0, 0.0, 0.0, 0.0, -2014.2721550789065, 0.0]
['beep', 0.0, 594.3552368110701, 0.0, 0.0, 0.0, 0.0, -2014.0262858898982, 0.0]
['beep', 0.0, 595.8081002006651, 0.0, 0.0, 0.0, 0.0, -2013.9815824009875, 0.0]
['beep', 0.0, 595.3163618226483, 0.0, 0.0, 0.0, 0.0, -2015.25563183494, 0.0]
['beep', 0.0, 596.9927426567963, 0.0, 0.0, 0.0, 0.0, -2016.0826463797864, 0.0]
['beep', 0.0, 596.8586321900644, 0.0, 0.0, 0.0, 0.0, -2015.680314979591, 0.0]
['beep', 0.0, 596.2104316008606, 0.0, 0.0, 0.0, 0.0, -2014.8309486902892, 0.0]
['beep', 0.0, 594.9587339113634, 0.0, 0.0, 0.0, 0.0, -2014.7638934569234, 0.0]
['beep', 0.0, 595.517527522746, 0.0, 0.0, 0.0, 0.0, -2015.5909080017698, 0.0]
['beep', 0.0, 597.1045013790729, 0.0, 0.0, 0.0, 0.0, -2016.2838120798842, 0.0]
['beep', 0.0, 598.6467717464891, 0.0, 0.0, 0.0, 0.0, -2015.0544661348424, 0.0]
['beep', 0.0, 597.1939083568941, 0.0, 0.0, 0.0, 0.0, -2012.1487393556524, 0.0]
['beep', 0.0, 595.9869141563075, 0.0, 0.0, 0.0, 0.0, -2011.7017044665463, 0.0]
['beep', 0.0, 597.8197572016427, 0.0, 0.0, 0.0, 0.0, -2012.3722568002054, 0.0]
['beep', 0.0, 596.6127630010561, 0.0, 0.0, 0.0, 0.0, -2013.2663265784176, 0.0]
['beep', 0.0, 596.1880798564052, 0.0, 0.0, 0.0, 0.0, -2013.3110300673284, 0.0]
['beep', 0.0, 596.2104316008606, 0.0, 0.0, 0.0, 0.0, -2012.126387611197, 0.0]
['beep', 0.0, 597.1045013790729, 0.0, 0.0, 0.0, 0.0, -2012.1487393556524, 0.0]
['beep', 0.0, 597.6409432460002, 0.0, 0.0, 0.0, 0.0, -2013.9815824009875, 0.0]
['beep', 0.0, 595.2716583337377, 0.0, 0.0, 0.0, 0.0, -2014.2721550789065, 0.0]
['beep', 0.0, 595.9198589229416, 0.0, 0.0, 0.0, 0.0, -2014.7862452013787, 0.0]
['beep', 0.0, 597.1939083568941, 0.0, 0.0, 0.0, 0.0, -2013.9815824009875, 0.0]
['beep', 0.0, 598.3338473241148, 0.0, 0.0, 0.0, 0.0, -2013.7133614675238, 0.0]
['beep', 0.0, 596.5904112566008, 0.0, 0.0, 0.0, 0.0, -2014.6297829901914, 0.0]
['beep', 0.0, 597.6632949904556, 0.0, 0.0, 0.0, 0.0, -2014.8756521792, 0.0]
['beep', 0.0, 596.389245556503, 0.0, 0.0, 0.0, 0.0, -2013.0875126227752, 0.0]
['beep', 0.0, 593.7293879663215, 0.0, 0.0, 0.0, 0.0, -2013.0428091338647, 0.0]
['beep', 0.0, 594.8022717001762, 0.0, 0.0, 0.0, 0.0, -2013.7133614675238, 0.0]
['beep', 0.0, 595.0928443780953, 0.0, 0.0, 0.0, 0.0, -2012.8192916893115, 0.0]
['beep', 0.0, 596.7021699788774, 0.0, 0.0, 0.0, 0.0, -2013.3557335562389, 0.0]
['beep', 0.0, 597.6409432460002, 0.0, 0.0, 0.0, 0.0, -2014.8085969458339, 0.0]
['beep', 0.0, 597.4174258014472, 0.0, 0.0, 0.0, 0.0, -2014.0262858898982, 0.0]
['beep', 0.0, 595.8528036895757, 0.0, 0.0, 0.0, 0.0, -2014.1380446121748, 0.0]
['beep', 0.0, 594.8469751890868, 0.0, 0.0, 0.0, 0.0, -2015.032114390387, 0.0]
['beep', 0.0, 594.9140304224528, 0.0, 0.0, 0.0, 0.0, -2015.1215213682083, 0.0]
['beep', 0.0, 594.712864722355, 0.0, 0.0, 0.0, 0.0, -2015.389742301672, 0.0]
['beep', 0.0, 595.0704926336399, 0.0, 0.0, 0.0, 0.0, -2015.2779835793954, 0.0]
['beep', 0.0, 595.875155434031, 0.0, 0.0, 0.0, 0.0, -2015.389742301672, 0.0]
['beep', 0.0, 597.9315159239193, 0.0, 0.0, 0.0, 0.0, -2017.0214196469094, 0.0]
['beep', 0.0, 595.517527522746, 0.0, 0.0, 0.0, 0.0, -2015.1215213682083, 0.0]
['beep', 0.0, 593.908201921964, 0.0, 0.0, 0.0, 0.0, -2013.9145271676216, 0.0]
['beep', 0.0, 594.3328850666148, 0.0, 0.0, 0.0, 0.0, -2014.227451589996, 0.0]
['beep', 0.0, 594.712864722355, 0.0, 0.0, 0.0, 0.0, -2014.7191899680126, 0.0]
['beep', 0.0, 594.4669955333467, 0.0, 0.0, 0.0, 0.0, -2013.579251000792, 0.0]
['beep', 0.0, 595.8081002006651, 0.0, 0.0, 0.0, 0.0, -2015.7697219574122, 0.0]
['beep', 0.0, 595.8975071784863, 0.0, 0.0, 0.0, 0.0, -2013.9815824009875, 0.0]
['beep', 0.0, 595.0704926336399, 0.0, 0.0, 0.0, 0.0, -2012.260498077929, 0.0]
['beep', 0.0, 593.5729257551344, 0.0, 0.0, 0.0, 0.0, -2014.6074312457363, 0.0]
['beep', 0.0, 594.6905129778997, 0.0, 0.0, 0.0, 0.0, -2015.5015010239485, 0.0]
['beep', 0.0, 594.4669955333467, 0.0, 0.0, 0.0, 0.0, -2014.6968382235575, 0.0]
['beep', 0.0, 593.0141321437517, 0.0, 0.0, 0.0, 0.0, -2014.4286172900938, 0.0]
['beep', 0.0, 595.5398792672014, 0.0, 0.0, 0.0, 0.0, -2015.9708876575098, 0.0]
['beep', 0.0, 596.3668938120477, 0.0, 0.0, 0.0, 0.0, -2016.194405102063, 0.0]
['beep', 0.0, 595.1375478670059, 0.0, 0.0, 0.0, 0.0, -2017.513158024926, 0.0]
['beep', 0.0, 596.8809839345198, 0.0, 0.0, 0.0, 0.0, -2016.5296812688925, 0.0]
['beep', 0.0, 597.4397775459025, 0.0, 0.0, 0.0, 0.0, -2015.9261841685993, 0.0]
['beep', 0.0, 596.8586321900644, 0.0, 0.0, 0.0, 0.0, -2015.5015010239485, 0.0]
['beep', 0.0, 593.2823530772154, 0.0, 0.0, 0.0, 0.0, -2015.25563183494, 0.0]
['beep', 0.0, 593.6846844774109, 0.0, 0.0, 0.0, 0.0, -2014.3168585678172, 0.0]
['beep', 0.0, 595.6963414783885, 0.0, 0.0, 0.0, 0.0, -2016.999067902454, 0.0]
['beep', 0.0, 594.5787542556232, 0.0, 0.0, 0.0, 0.0, -2018.5860417587808, 0.0]
['beep', 0.0, 595.2493065892824, 0.0, 0.0, 0.0, 0.0, -2016.864957435722, 0.0]
['beep', 0.0, 595.0481408891847, 0.0, 0.0, 0.0, 0.0, -2016.3285155687947, 0.0]
['beep', 0.0, 596.8139287011538, 0.0, 0.0, 0.0, 0.0, -2018.7872074588786, 0.0]
['beep', 0.0, 596.970390912341, 0.0, 0.0, 0.0, 0.0, -2018.1837103585854, 0.0]
['beep', 0.0, 595.0928443780953, 0.0, 0.0, 0.0, 0.0, -2017.6025650027473, 0.0]
['beep', 0.0, 595.361065311559, 0.0, 0.0, 0.0, 0.0, -2017.1555301136411, 0.0]
['beep', 0.0, 596.5233560232349, 0.0, 0.0, 0.0, 0.0, -2017.3790475581943, 0.0]
['beep', 0.0, 596.4339490454137, 0.0, 0.0, 0.0, 0.0, -2016.35086731325, 0.0]
['beep', 0.0, 599.0938066355952, 0.0, 0.0, 0.0, 0.0, -2017.7143237250239, 0.0]
['beep', 0.0, 598.9596961688634, 0.0, 0.0, 0.0, 0.0, -2018.8542626922444, 0.0]
['beep', 0.0, 595.4057688004696, 0.0, 0.0, 0.0, 0.0, -2016.999067902454, 0.0]
['beep', 0.0, 594.3775885555254, 0.0, 0.0, 0.0, 0.0, -2018.7201522255127, 0.0]
['beep', 0.0, 594.9587339113634, 0.0, 0.0, 0.0, 0.0, -2021.5364720268813, 0.0]
['beep', 0.0, 594.4222920444361, 0.0, 0.0, 0.0, 0.0, -2020.284774337384, 0.0]
['beep', 0.0, 595.0928443780953, 0.0, 0.0, 0.0, 0.0, -2019.9271464260992, 0.0]
['beep', 0.0, 594.1093676220618, 0.0, 0.0, 0.0, 0.0, -2021.223547604507, 0.0]
['beep', 0.0, 594.8693269335422, 0.0, 0.0, 0.0, 0.0, -2023.3693150722165, 0.0]
['beep', 0.0, 594.198774599883, 0.0, 0.0, 0.0, 0.0, -2023.682239494591, 0.0]
['beep', 0.0, 594.9587339113634, 0.0, 0.0, 0.0, 0.0, -2023.2799080943953, 0.0]
['beep', 0.0, 596.5457077676901, 0.0, 0.0, 0.0, 0.0, -2022.6987627385574, 0.0]
['beep', 0.0, 595.6739897339332, 0.0, 0.0, 0.0, 0.0, -2020.8882714376775, 0.0]
['beep', 0.0, 596.1433763674946, 0.0, 0.0, 0.0, 0.0, -2021.7599894714344, 0.0]
['beep', 0.0, 596.7245217233326, 0.0, 0.0, 0.0, 0.0, -2024.933937184088, 0.0]
['beep', 0.0, 597.5291845237238, 0.0, 0.0, 0.0, 0.0, -2022.2964313383618, 0.0]
['beep', 0.0, 597.4174258014472, 0.0, 0.0, 0.0, 0.0, -2021.5141202824261, 0.0]
['beep', 0.0, 597.4397775459025, 0.0, 0.0, 0.0, 0.0, -2022.2740795939064, 0.0]
['beep', 0.0, 596.8362804456092, 0.0, 0.0, 0.0, 0.0, -2021.6929342380686, 0.0]
['beep', 0.0, 597.4844810348131, 0.0, 0.0, 0.0, 0.0, -2020.1506638706524, 0.0]
['beep', 0.0, 598.5797165131231, 0.0, 0.0, 0.0, 0.0, -2023.7939982168673, 0.0]
['beep', 0.0, 598.423254301936, 0.0, 0.0, 0.0, 0.0, -2025.5821377732918, 0.0]
['beep', 0.0, 597.1492048679835, 0.0, 0.0, 0.0, 0.0, -2024.1516261281522, 0.0]
['beep', 0.0, 596.679818234422, 0.0, 0.0, 0.0, 0.0, -2022.8775766942, 0.0]
['beep', 0.0, 597.7303502238215, 0.0, 0.0, 0.0, 0.0, -2023.7939982168673, 0.0]
['beep', 0.0, 596.6351147455114, 0.0, 0.0, 0.0, 0.0, -2022.6987627385574, 0.0]
['beep', 0.0, 596.16572811195, 0.0, 0.0, 0.0, 0.0, -2021.8493964492557, 0.0]
['beep', 0.0, 596.6351147455114, 0.0, 0.0, 0.0, 0.0, -2023.481073794493, 0.0]
['beep', 0.0, 596.4786525343243, 0.0, 0.0, 0.0, 0.0, -2022.9222801831104, 0.0]
['beep', 0.0, 599.1161583800505, 0.0, 0.0, 0.0, 0.0, -2025.1351028841857, 0.0]
['beep', 0.0, 596.7021699788774, 0.0, 0.0, 0.0, 0.0, -2024.8221784618115, 0.0]
['beep', 0.0, 596.5010042787795, 0.0, 0.0, 0.0, 0.0, -2023.8834051946885, 0.0]
['beep', 0.0, 598.8479374465868, 0.0, 0.0, 0.0, 0.0, -2022.8105214608338, 0.0]
['beep', 0.0, 596.9927426567963, 0.0, 0.0, 0.0, 0.0, -2023.7716464724122, 0.0]
['beep', 0.0, 596.5457077676901, 0.0, 0.0, 0.0, 0.0, -2024.4198470616159, 0.0]
['beep', 0.0, 598.7585304687656, 0.0, 0.0, 0.0, 0.0, -2024.0398674058758, 0.0]
['beep', 0.0, 598.7585304687656, 0.0, 0.0, 0.0, 0.0, -2024.866881950722, 0.0]
['beep', 0.0, 596.9256874234304, 0.0, 0.0, 0.0, 0.0, -2024.5316057838925, 0.0]
['beep', 0.0, 595.4504722893802, 0.0, 0.0, 0.0, 0.0, -2022.743466227468, 0.0]
['beep', 0.0, 596.5680595121455, 0.0, 0.0, 0.0, 0.0, -2022.4305418050938, 0.0]
['beep', 0.0, 599.004399657774, 0.0, 0.0, 0.0, 0.0, -2023.6375360056802, 0.0]
['beep', 0.0, 598.5797165131231, 0.0, 0.0, 0.0, 0.0, -2023.2128528610294, 0.0]
['beep', 0.0, 599.1385101245058, 0.0, 0.0, 0.0, 0.0, -2023.8834051946885, 0.0]
['beep', 0.0, 599.4514345468801, 0.0, 0.0, 0.0, 0.0, -2022.9222801831104, 0.0]
['beep', 0.0, 599.1608618689611, 0.0, 0.0, 0.0, 0.0, -2023.7492947279568, 0.0]
['beep', 0.0, 601.6419055035002, 0.0, 0.0, 0.0, 0.0, -2023.5034255389485, 0.0]
['beep', 0.0, 599.8984694359863, 0.0, 0.0, 0.0, 0.0, -2021.9835069159874, 0.0]
['beep', 0.0, 600.5019665362795, 0.0, 0.0, 0.0, 0.0, -2022.0505621493535, 0.0]
['beep', 0.0, 602.6477340039891, 0.0, 0.0, 0.0, 0.0, -2022.2964313383618, 0.0]
['beep', 0.0, 600.5466700251901, 0.0, 0.0, 0.0, 0.0, -2021.938803427077, 0.0]
['beep', 0.0, 601.1278153810282, 0.0, 0.0, 0.0, 0.0, -2019.5248150259038, 0.0]
['beep', 0.0, 599.6973037358885, 0.0, 0.0, 0.0, 0.0, -2019.1224836257081, 0.0]
['beep', 0.0, 601.5748502701343, 0.0, 0.0, 0.0, 0.0, -2022.385838316183, 0.0]
['beep', 0.0, 599.9655246693521, 0.0, 0.0, 0.0, 0.0, -2024.062219150331, 0.0]
['beep', 0.0, 603.1394723820058, 0.0, 0.0, 0.0, 0.0, -2024.196329617063, 0.0]
['beep', 0.0, 602.7147892373549, 0.0, 0.0, 0.0, 0.0, -2023.9281086835992, 0.0]
['beep', 0.0, 602.2230508593382, 0.0, 0.0, 0.0, 0.0, -2022.6987627385574, 0.0]
['beep', 0.0, 600.2113938583606, 0.0, 0.0, 0.0, 0.0, -2021.9164516826215, 0.0]
['beep', 0.0, 600.3008008361818, 0.0, 0.0, 0.0, 0.0, -2021.3800098156942, 0.0]
['beep', 0.0, 602.133643881517, 0.0, 0.0, 0.0, 0.0, -2023.0787423942975, 0.0]
['beep', 0.0, 600.8372427031092, 0.0, 0.0, 0.0, 0.0, -2021.2458993489624, 0.0]
['beep', 0.0, 600.4349113029136, 0.0, 0.0, 0.0, 0.0, -2021.6035272602473, 0.0]
['beep', 0.0, 600.5019665362795, 0.0, 0.0, 0.0, 0.0, -2021.2011958600517, 0.0]
['beep', 0.0, 599.6526002469778, 0.0, 0.0, 0.0, 0.0, -2022.0505621493535, 0.0]
['beep', 0.0, 599.3396758246035, 0.0, 0.0, 0.0, 0.0, -2025.0233441619093, 0.0]
['beep', 0.0, 598.6020682575785, 0.0, 0.0, 0.0, 0.0, -2022.7658179719233, 0.0]
['beep', 0.0, 592.7012077213774, 0.0, 0.0, 0.0, 0.0, -2016.4402742910713, 0.0]
['beep', 0.0, 593.7070362218662, 0.0, 0.0, 0.0, 0.0, -2017.289640580373, 0.0]
['beep', 0.0, 593.0811873771175, 0.0, 0.0, 0.0, 0.0, -2016.060294635331, 0.0]
['beep', 0.0, 592.9694286548411, 0.0, 0.0, 0.0, 0.0, -2017.1331783691858, 0.0]
['beep', 0.0, 592.7235594658326, 0.0, 0.0, 0.0, 0.0, -2017.4461027915602, 0.0]
['beep', 0.0, 592.6341524880114, 0.0, 0.0, 0.0, 0.0, -2016.708495224535, 0.0]
['beep', 0.0, 592.1200623655394, 0.0, 0.0, 0.0, 0.0, -2017.222585347007, 0.0]
['beep', 0.0, 592.9917803992963, 0.0, 0.0, 0.0, 0.0, -2018.2507655919512, 0.0]
['beep', 0.0, 593.2152978438495, 0.0, 0.0, 0.0, 0.0, -2017.8931376806663, 0.0]
['beep', 0.0, 593.0588356326623, 0.0, 0.0, 0.0, 0.0, -2018.451931292049, 0.0]
['beep', 0.0, 593.3494083105813, 0.0, 0.0, 0.0, 0.0, -2016.9543644135433, 0.0]
['beep', 0.0, 592.2541728322713, 0.0, 0.0, 0.0, 0.0, -2018.4072278031383, 0.0]
['beep', 0.0, 592.7906146991986, 0.0, 0.0, 0.0, 0.0, -2019.0107249034318, 0.0]
['beep', 0.0, 592.745911210288, 0.0, 0.0, 0.0, 0.0, -2019.3012975813506, 0.0]
['beep', 0.0, 592.1871175989053, 0.0, 0.0, 0.0, 0.0, -2018.004896402943, 0.0]
['beep', 0.0, 592.16476585445, 0.0, 0.0, 0.0, 0.0, -2016.842605691267, 0.0]
['beep', 0.0, 592.455338532369, 0.0, 0.0, 0.0, 0.0, -2017.4013993026495, 0.0]
['beep', 0.0, 592.678855976922, 0.0, 0.0, 0.0, 0.0, -2017.5578615138368, 0.0]
['beep', 0.0, 592.9694286548411, 0.0, 0.0, 0.0, 0.0, -2016.842605691267, 0.0]
['beep', 0.0, 592.455338532369, 0.0, 0.0, 0.0, 0.0, -2016.5073295244372, 0.0]
['beep', 0.0, 591.3377513096036, 0.0, 0.0, 0.0, 0.0, -2016.6190882467138, 0.0]
['beep', 0.0, 593.394111799492, 0.0, 0.0, 0.0, 0.0, -2016.8873091801775, 0.0]
['beep', 0.0, 595.4057688004696, 0.0, 0.0, 0.0, 0.0, -2016.842605691267, 0.0]
['beep', 0.0, 593.394111799492, 0.0, 0.0, 0.0, 0.0, -2016.708495224535, 0.0]
['beep', 0.0, 592.8353181881092, 0.0, 0.0, 0.0, 0.0, -2016.8873091801775, 0.0]
['beep', 0.0, 593.2823530772154, 0.0, 0.0, 0.0, 0.0, -2016.8202539468116, 0.0]
['beep', 0.0, 593.8634984330533, 0.0, 0.0, 0.0, 0.0, -2017.9601929140322, 0.0]
['beep', 0.0, 594.5787542556232, 0.0, 0.0, 0.0, 0.0, -2018.966021414521, 0.0]
['beep', 0.0, 592.9023734214751, 0.0, 0.0, 0.0, 0.0, -2017.6696202361131, 0.0]
['beep', 0.0, 593.6623327329556, 0.0, 0.0, 0.0, 0.0, -2015.613259746225, 0.0]
['beep', 0.0, 593.2152978438495, 0.0, 0.0, 0.0, 0.0, -2016.8873091801775, 0.0]
['beep', 0.0, 593.4164635439472, 0.0, 0.0, 0.0, 0.0, -2017.6249167472026, 0.0]
['beep', 0.0, 593.4835187773132, 0.0, 0.0, 0.0, 0.0, -2016.9767161579987, 0.0]
['beep', 0.0, 593.4164635439472, 0.0, 0.0, 0.0, 0.0, -2016.9096609246328, 0.0]
['beep', 0.0, 593.0588356326623, 0.0, 0.0, 0.0, 0.0, -2016.194405102063, 0.0]
['beep', 0.0, 592.6341524880114, 0.0, 0.0, 0.0, 0.0, -2015.3673905572166, 0.0]
['beep', 0.0, 593.8411466885981, 0.0, 0.0, 0.0, 0.0, -2015.1662248571188, 0.0]
['beep', 0.0, 595.8304519451203, 0.0, 0.0, 0.0, 0.0, -2015.5685562573144, 0.0]
['beep', 0.0, 596.098672878584, 0.0, 0.0, 0.0, 0.0, -2016.7755504579009, 0.0]
['beep', 0.0, 593.550574010679, 0.0, 0.0, 0.0, 0.0, -2015.0768178792976, 0.0]
['beep', 0.0, 593.2376495883047, 0.0, 0.0, 0.0, 0.0, -2014.227451589996, 0.0]
['beep', 0.0, 594.4893472778019, 0.0, 0.0, 0.0, 0.0, -2015.4344457905825, 0.0]
['beep', 0.0, 594.1093676220618, 0.0, 0.0, 0.0, 0.0, -2016.1720533576076, 0.0]
['beep', 0.0, 593.1705943549389, 0.0, 0.0, 0.0, 0.0, -2016.6637917356245, 0.0]
['beep', 0.0, 594.6011060000785, 0.0, 0.0, 0.0, 0.0, -2014.2721550789065, 0.0]
['beep', 0.0, 594.6234577445338, 0.0, 0.0, 0.0, 0.0, -2013.2439748339625, 0.0]
['beep', 0.0, 593.8411466885981, 0.0, 0.0, 0.0, 0.0, -2014.3615620567277, 0.0]
['beep', 0.0, 593.5058705217684, 0.0, 0.0, 0.0, 0.0, -2015.8814806796886, 0.0]
['beep', 0.0, 594.0870158776064, 0.0, 0.0, 0.0, 0.0, -2014.383913801183, 0.0]
['beep', 0.0, 592.8353181881092, 0.0, 0.0, 0.0, 0.0, -2014.1380446121748, 0.0]
['beep', 0.0, 594.131719366517, 0.0, 0.0, 0.0, 0.0, -2014.2945068233619, 0.0]
['beep', 0.0, 594.6905129778997, 0.0, 0.0, 0.0, 0.0, -2015.322687068306, 0.0]
['beep', 0.0, 593.3494083105813, 0.0, 0.0, 0.0, 0.0, -2015.1438731126636, 0.0]
['beep', 0.0, 594.198774599883, 0.0, 0.0, 0.0, 0.0, -2014.383913801183, 0.0]
['beep', 0.0, 593.8187949441427, 0.0, 0.0, 0.0, 0.0, -2014.6074312457363, 0.0]
['beep', 0.0, 595.4057688004696, 0.0, 0.0, 0.0, 0.0, -2013.802768445345, 0.0]
['beep', 0.0, 596.2551350897712, 0.0, 0.0, 0.0, 0.0, -2015.2332800904849, 0.0]
['beep', 0.0, 597.0821496346175, 0.0, 0.0, 0.0, 0.0, -2014.8085969458339, 0.0]
['beep', 0.0, 597.9315159239193, 0.0, 0.0, 0.0, 0.0, -2013.0428091338647, 0.0]
['beep', 0.0, 597.1715566124388, 0.0, 0.0, 0.0, 0.0, -2013.579251000792, 0.0]
['beep', 0.0, 598.199736857383, 0.0, 0.0, 0.0, 0.0, -2014.227451589996, 0.0]
['beep', 0.0, 599.0938066355952, 0.0, 0.0, 0.0, 0.0, -2014.9874109014763, 0.0]
['beep', 0.0, 599.6749519914332, 0.0, 0.0, 0.0, 0.0, -2015.9932394019652, 0.0]
['beep', 0.0, 598.9820479133186, 0.0, 0.0, 0.0, 0.0, -2015.9932394019652, 0.0]
['beep', 0.0, 598.6691234909443, 0.0, 0.0, 0.0, 0.0, -2015.0097626459317, 0.0]
['beep', 0.0, 598.2444403462936, 0.0, 0.0, 0.0, 0.0, -2014.3392103122726, 0.0]
['beep', 0.0, 597.7079984793662, 0.0, 0.0, 0.0, 0.0, -2014.7638934569234, 0.0]
['beep', 0.0, 596.8586321900644, 0.0, 0.0, 0.0, 0.0, -2015.6579632351356, 0.0]
['beep', 0.0, 597.7527019682768, 0.0, 0.0, 0.0, 0.0, -2015.613259746225, 0.0]
['beep', 0.0, 596.7692252122432, 0.0, 0.0, 0.0, 0.0, -2015.0097626459317, 0.0]
['beep', 0.0, 597.1715566124388, 0.0, 0.0, 0.0, 0.0, -2013.936878912077, 0.0]
['beep', 0.0, 597.8644606905533, 0.0, 0.0, 0.0, 0.0, -2014.7191899680126, 0.0]
['beep', 0.0, 597.5068327792684, 0.0, 0.0, 0.0, 0.0, -2014.4733207790043, 0.0]
['beep', 0.0, 596.3668938120477, 0.0, 0.0, 0.0, 0.0, -2016.8202539468116, 0.0]
['beep', 0.0, 596.0092659007628, 0.0, 0.0, 0.0, 0.0, -2016.6637917356245, 0.0]
['beep', 0.0, 596.6351147455114, 0.0, 0.0, 0.0, 0.0, -2014.8085969458339, 0.0]
['beep', 0.0, 597.4844810348131, 0.0, 0.0, 0.0, 0.0, -2016.2838120798842, 0.0]
['beep', 0.0, 598.35619906857, 0.0, 0.0, 0.0, 0.0, -2018.16135861413, 0.0]
['beep', 0.0, 596.5904112566008, 0.0, 0.0, 0.0, 0.0, -2016.8202539468116, 0.0]
['beep', 0.0, 596.8586321900644, 0.0, 0.0, 0.0, 0.0, -2016.35086731325, 0.0]
['beep', 0.0, 597.0597978901623, 0.0, 0.0, 0.0, 0.0, -2016.8873091801775, 0.0]
['beep', 0.0, 598.6020682575785, 0.0, 0.0, 0.0, 0.0, -2017.6025650027473, 0.0]
['beep', 0.0, 598.8702891910422, 0.0, 0.0, 0.0, 0.0, -2017.1108266247306, 0.0]
['beep', 0.0, 600.1219868805393, 0.0, 0.0, 0.0, 0.0, -2015.2779835793954, 0.0]
['beep', 0.0, 601.619553759045, 0.0, 0.0, 0.0, 0.0, -2014.1156928677194, 0.0]
['beep', 0.0, 603.005361915274, 0.0, 0.0, 0.0, 0.0, -2012.7298847114903, 0.0]
['beep', 0.0, 602.7371409818103, 0.0, 0.0, 0.0, 0.0, -2012.3052015668395, 0.0]
['beep', 0.0, 601.5077950367684, 0.0, 0.0, 0.0, 0.0, -2013.5121957674262, 0.0]
['beep', 0.0, 599.9655246693521, 0.0, 0.0, 0.0, 0.0, -2011.5899457442697, 0.0]
['beep', 0.0, 599.1161583800505, 0.0, 0.0, 0.0, 0.0, -2011.5899457442697, 0.0]
['beep', 0.0, 597.2609635902601, 0.0, 0.0, 0.0, 0.0, -2011.96992540001, 0.0]
['beep', 0.0, 597.2609635902601, 0.0, 0.0, 0.0, 0.0, -2012.9757539004988, 0.0]
['beep', 0.0, 596.098672878584, 0.0, 0.0, 0.0, 0.0, -2014.8085969458339, 0.0]
['beep', 0.0, 597.1492048679835, 0.0, 0.0, 0.0, 0.0, -2013.579251000792, 0.0]
['beep', 0.0, 597.5962397570896, 0.0, 0.0, 0.0, 0.0, -2013.1992713450518, 0.0]
['beep', 0.0, 598.0879781351064, 0.0, 0.0, 0.0, 0.0, -2012.8416434337669, 0.0]
['beep', 0.0, 598.5573647686679, 0.0, 0.0, 0.0, 0.0, -2013.0204573894093, 0.0]
['beep', 0.0, 598.0656263906511, 0.0, 0.0, 0.0, 0.0, -2014.8085969458339, 0.0]
['beep', 0.0, 598.6691234909443, 0.0, 0.0, 0.0, 0.0, -2015.099169623753, 0.0]
['beep', 0.0, 598.199736857383, 0.0, 0.0, 0.0, 0.0, -2014.3615620567277, 0.0]
['beep', 0.0, 598.1550333684723, 0.0, 0.0, 0.0, 0.0, -2014.6521347346468, 0.0]
['beep', 0.0, 598.5573647686679, 0.0, 0.0, 0.0, 0.0, -2014.6521347346468, 0.0]
['beep', 0.0, 599.4514345468801, 0.0, 0.0, 0.0, 0.0, -2013.8251201898004, 0.0]
['beep', 0.0, 600.5466700251901, 0.0, 0.0, 0.0, 0.0, -2013.7580649564345, 0.0]
['beep', 0.0, 600.9490014253856, 0.0, 0.0, 0.0, 0.0, -2013.7357132119791, 0.0]
['beep', 0.0, 599.2949723356929, 0.0, 0.0, 0.0, 0.0, -2012.3052015668395, 0.0]
['beep', 0.0, 599.3620275690589, 0.0, 0.0, 0.0, 0.0, -2011.902870166644, 0.0]
['beep', 0.0, 601.3736845700365, 0.0, 0.0, 0.0, 0.0, -2011.321724810806, 0.0]
['beep', 0.0, 601.2842775922153, 0.0, 0.0, 0.0, 0.0, -2009.2430125764624, 0.0]
['beep', 0.0, 601.2842775922153, 0.0, 0.0, 0.0, 0.0, -2005.3091055523284, 0.0]
['beep', 0.0, 601.1278153810282, 0.0, 0.0, 0.0, 0.0, -2000.9728671279988, 0.0]
['beep', 0.0, 600.390207814003, 0.0, 0.0, 0.0, 0.0, -1998.15654732663, 0.0]
['beep', 0.0, 601.9548299258745, 0.0, 0.0, 0.0, 0.0, -1987.0477303323426, 0.0]
['beep', 0.0, 599.3396758246035, 0.0, 0.0, 0.0, 0.0, -1985.4384047315605, 0.0]
['beep', 0.0, 597.1492048679835, 0.0, 0.0, 0.0, 0.0, -1979.9622273400103, 0.0]
['beep', 0.0, 596.6574664899667, 0.0, 0.0, 0.0, 0.0, -1970.7533086244237, 0.0]
['beep', 0.0, 595.2493065892824, 0.0, 0.0, 0.0, 0.0, -1963.4666399319935, 0.0]
['beep', 0.0, 596.2104316008606, 0.0, 0.0, 0.0, 0.0, -1953.676575860569, 0.0]
['beep', 0.0, 592.4329867879137, 0.0, 0.0, 0.0, 0.0, -1945.00409901191, 0.0]
['beep', 0.0, 589.8848879200087, 0.0, 0.0, 0.0, 0.0, -1936.8010087968123, 0.0]
['beep', 0.0, 590.8907164204975, 0.0, 0.0, 0.0, 0.0, -1930.0507819713096, 0.0]
['beep', 0.0, 591.0024751427741, 0.0, 0.0, 0.0, 0.0, -1926.8991860031113, 0.0]
['beep', 0.0, 591.941248409897, 0.0, 0.0, 0.0, 0.0, -1922.294726645318, 0.0]
['beep', 0.0, 590.2201640868383, 0.0, 0.0, 0.0, 0.0, -1918.651392299103, 0.0]
['beep', 0.0, 589.907239664464, 0.0, 0.0, 0.0, 0.0, -1916.103293431198, 0.0]
['beep', 0.0, 594.3999402999807, 0.0, 0.0, 0.0, 0.0, -1911.9011654736003, 0.0]
['beep', 0.0, 593.1705943549389, 0.0, 0.0, 0.0, 0.0, -1911.4988340734046, 0.0]
['beep', 0.0, 591.4048065429696, 0.0, 0.0, 0.0, 0.0, -1911.52118581786, 0.0]
['beep', 0.0, 590.4436815313913, 0.0, 0.0, 0.0, 0.0, -1911.5658893067707, 0.0]
['beep', 0.0, 590.130757109017, 0.0, 0.0, 0.0, 0.0, -1912.1246829181532, 0.0]
['beep', 0.0, 592.1424141099947, 0.0, 0.0, 0.0, 0.0, -1914.941002719522, 0.0]
['beep', 0.0, 592.3882832990031, 0.0, 0.0, 0.0, 0.0, -1920.104255688698, 0.0]
['beep', 0.0, 593.7740914552321, 0.0, 0.0, 0.0, 0.0, -1925.0216394688655, 0.0]
['beep', 0.0, 595.1822513559165, 0.0, 0.0, 0.0, 0.0, -1929.134360448642, 0.0]
['beep', 0.0, 597.3056670791707, 0.0, 0.0, 0.0, 0.0, -1934.1187994621755, 0.0]
['beep', 0.0, 597.7974054571874, 0.0, 0.0, 0.0, 0.0, -1939.4608663869938, 0.0]
['beep', 0.0, 597.9985711572851, 0.0, 0.0, 0.0, 0.0, -1943.618290855681, 0.0]
['beep', 0.0, 597.0374461457069, 0.0, 0.0, 0.0, 0.0, -1947.9545292800105, 0.0]
['beep', 0.0, 594.4669955333467, 0.0, 0.0, 0.0, 0.0, -1952.938968293544, 0.0]
['beep', 0.0, 595.3163618226483, 0.0, 0.0, 0.0, 0.0, -1960.1362300081528, 0.0]
['beep', 0.0, 596.2998385786818, 0.0, 0.0, 0.0, 0.0, -1964.874799832678, 0.0]
['beep', 0.0, 596.7692252122432, 0.0, 0.0, 0.0, 0.0, -1967.9369888230551, 0.0]
['beep', 0.0, 598.8702891910422, 0.0, 0.0, 0.0, 0.0, -1974.0166633148986, 0.0]
['beep', 0.0, 598.713826979855, 0.0, 0.0, 0.0, 0.0, -1979.6045994287254, 0.0]
['beep', 0.0, 598.2220886018382, 0.0, 0.0, 0.0, 0.0, -1982.1750500410856, 0.0]
['beep', 0.0, 597.1268531235282, 0.0, 0.0, 0.0, 0.0, -1986.6453989321471, 0.0]
['beep', 0.0, 598.0656263906511, 0.0, 0.0, 0.0, 0.0, -1988.5005937219375, 0.0]
['beep', 0.0, 598.5573647686679, 0.0, 0.0, 0.0, 0.0, -1990.4675472340045, 0.0]
['beep', 0.0, 599.2726205912377, 0.0, 0.0, 0.0, 0.0, -1993.0603495908201, 0.0]
['beep', 0.0, 601.0160566587516, 0.0, 0.0, 0.0, 0.0, -1995.0496548473425, 0.0]
['beep', 0.0, 600.7925392141985, 0.0, 0.0, 0.0, 0.0, -1996.2342973034738, 0.0]
['beep', 0.0, 600.7701874697432, 0.0, 0.0, 0.0, 0.0, -1999.4305967605826, 0.0]
['beep', 0.0, 601.0607601476622, 0.0, 0.0, 0.0, 0.0, -2002.6268962176916, 0.0]
['beep', 0.0, 601.619553759045, 0.0, 0.0, 0.0, 0.0, -2003.3421520402615, 0.0]
['beep', 0.0, 600.2113938583606, 0.0, 0.0, 0.0, 0.0, -2001.6210677172028, 0.0]
['beep', 0.0, 600.5019665362795, 0.0, 0.0, 0.0, 0.0, -2003.006875873432, 0.0]
['beep', 0.0, 601.8877746925086, 0.0, 0.0, 0.0, 0.0, -2006.7843206863788, 0.0]
['beep', 0.0, 601.4407398034025, 0.0, 0.0, 0.0, 0.0, -2008.0136666314206, 0.0]
['beep', 0.0, 601.3066293366707, 0.0, 0.0, 0.0, 0.0, -2007.7230939535016, 0.0]
['beep', 0.0, 600.2113938583606, 0.0, 0.0, 0.0, 0.0, -2007.7230939535016, 0.0]
['beep', 0.0, 600.904297936475, 0.0, 0.0, 0.0, 0.0, -2007.5442799978591, 0.0]
['beep', 0.0, 602.4912717928019, 0.0, 0.0, 0.0, 0.0, -2006.7172654530127, 0.0]
['beep', 0.0, 602.4465683038912, 0.0, 0.0, 0.0, 0.0, -2008.2371840759736, 0.0]
['beep', 0.0, 601.2842775922153, 0.0, 0.0, 0.0, 0.0, -2008.1030736092418, 0.0]
['beep', 0.0, 600.0325799027181, 0.0, 0.0, 0.0, 0.0, -2007.7007422090462, 0.0]
['beep', 0.0, 599.4514345468801, 0.0, 0.0, 0.0, 0.0, -2009.2430125764624, 0.0]
['beep', 0.0, 600.0325799027181, 0.0, 0.0, 0.0, 0.0, -2010.5841172437808, 0.0]
['beep', 0.0, 600.5690217696455, 0.0, 0.0, 0.0, 0.0, -2011.5899457442697, 0.0]
['beep', 0.0, 601.6642572479556, 0.0, 0.0, 0.0, 0.0, -2010.0923788657642, 0.0]
['beep', 0.0, 600.4349113029136, 0.0, 0.0, 0.0, 0.0, -2010.6958759660574, 0.0]
['beep', 0.0, 598.5573647686679, 0.0, 0.0, 0.0, 0.0, -2010.0476753768535, 0.0]
['beep', 0.0, 599.7643589692544, 0.0, 0.0, 0.0, 0.0, -2008.840681176267, 0.0]
['beep', 0.0, 600.5466700251901, 0.0, 0.0, 0.0, 0.0, -2011.1205591107082, 0.0]
['beep', 0.0, 599.9431729248969, 0.0, 0.0, 0.0, 0.0, -2011.7240562110017, 0.0]
['beep', 0.0, 599.8314142026203, 0.0, 0.0, 0.0, 0.0, -2010.7405794549682, 0.0]
['beep', 0.0, 600.2560973472712, 0.0, 0.0, 0.0, 0.0, -2010.8523381772445, 0.0]
['beep', 0.0, 600.6584287474667, 0.0, 0.0, 0.0, 0.0, -2011.7911114443675, 0.0]
['beep', 0.0, 602.2454026037935, 0.0, 0.0, 0.0, 0.0, -2012.8192916893115, 0.0]
['beep', 0.0, 602.4018648149806, 0.0, 0.0, 0.0, 0.0, -2012.640477733669, 0.0]
['beep', 0.0, 601.9995334147851, 0.0, 0.0, 0.0, 0.0, -2012.126387611197, 0.0]
['beep', 0.0, 602.4465683038912, 0.0, 0.0, 0.0, 0.0, -2011.3664282997167, 0.0]
['beep', 0.0, 603.2065276153717, 0.0, 0.0, 0.0, 0.0, -2011.478187021993, 0.0]
['beep', 0.0, 603.4971002932907, 0.0, 0.0, 0.0, 0.0, -2011.321724810806, 0.0]
['beep', 0.0, 604.2347078603158, 0.0, 0.0, 0.0, 0.0, -2013.2663265784176, 0.0]
['beep', 0.0, 604.0335421602181, 0.0, 0.0, 0.0, 0.0, -2012.126387611197, 0.0]
['beep', 0.0, 603.4747485488354, 0.0, 0.0, 0.0, 0.0, -2010.7182277105128, 0.0]
['beep', 0.0, 602.424216559436, 0.0, 0.0, 0.0, 0.0, -2010.002971887943, 0.0]
['beep', 0.0, 601.6642572479556, 0.0, 0.0, 0.0, 0.0, -2010.002971887943, 0.0]
['beep', 0.0, 602.5136235372572, 0.0, 0.0, 0.0, 0.0, -2010.293544565862, 0.0]
['beep', 0.0, 601.9101264369639, 0.0, 0.0, 0.0, 0.0, -2008.7959776873563, 0.0]
['beep', 0.0, 601.5077950367684, 0.0, 0.0, 0.0, 0.0, -2008.907736409633, 0.0]
['beep', 0.0, 602.6030305150784, 0.0, 0.0, 0.0, 0.0, -2006.8513759197447, 0.0]
['beep', 0.0, 601.4630915478577, 0.0, 0.0, 0.0, 0.0, -2005.7114369525239, 0.0]
['beep', 0.0, 602.4018648149806, 0.0, 0.0, 0.0, 0.0, -2004.7056084520352, 0.0]
['beep', 0.0, 604.5252805382348, 0.0, 0.0, 0.0, 0.0, -1997.9553816265325, 0.0]
['beep', 0.0, 604.1453008824946, 0.0, 0.0, 0.0, 0.0, -1994.066178091309, 0.0]
['beep', 0.0, 604.4805770493242, 0.0, 0.0, 0.0, 0.0, -1990.132271067175, 0.0]
['beep', 0.0, 603.228879359827, 0.0, 0.0, 0.0, 0.0, -1983.0691198192978, 0.0]
['beep', 0.0, 600.390207814003, 0.0, 0.0, 0.0, 0.0, -1978.6434744171472, 0.0]
['beep', 0.0, 598.132681624017, 0.0, 0.0, 0.0, 0.0, -1968.2052097565188, 0.0]
['beep', 0.0, 595.517527522746, 0.0, 0.0, 0.0, 0.0, -1956.9175788065886, 0.0]
['beep', 0.0, 594.4222920444361, 0.0, 0.0, 0.0, 0.0, -1949.7203170919797, 0.0]
['beep', 0.0, 592.3882832990031, 0.0, 0.0, 0.0, 0.0, -1939.8631977871894, 0.0]
['beep', 0.0, 592.7235594658326, 0.0, 0.0, 0.0, 0.0, -1929.4472848710163, 0.0]
['beep', 0.0, 596.5233560232349, 0.0, 0.0, 0.0, 0.0, -1919.8360347552343, 0.0]
['beep', 0.0, 596.2551350897712, 0.0, 0.0, 0.0, 0.0, -1911.9011654736003, 0.0]
['beep', 0.0, 591.8294896876204, 0.0, 0.0, 0.0, 0.0, -1908.257831127385, 0.0]
['beep', 0.0, 590.2648675757489, 0.0, 0.0, 0.0, 0.0, -1904.1898136365194, 0.0]
['beep', 0.0, 590.130757109017, 0.0, 0.0, 0.0, 0.0, -1899.7641682343685, 0.0]
['beep', 0.0, 592.3212280656371, 0.0, 0.0, 0.0, 0.0, -1894.846784454201, 0.0]
['beep', 0.0, 596.7021699788774, 0.0, 0.0, 0.0, 0.0, -1891.13639487462, 0.0]
['beep', 0.0, 596.4563007898689, 0.0, 0.0, 0.0, 0.0, -1891.9187059305557, 0.0]
['beep', 0.0, 593.5282222662238, 0.0, 0.0, 0.0, 0.0, -1890.9128774300668, 0.0]
['beep', 0.0, 593.1705943549389, 0.0, 0.0, 0.0, 0.0, -1886.7554529613797, 0.0]
['beep', 0.0, 593.0364838882069, 0.0, 0.0, 0.0, 0.0, -1884.9226099160446, 0.0]
['beep', 0.0, 592.7012077213774, 0.0, 0.0, 0.0, 0.0, -1883.2685808263518, 0.0]
['beep', 0.0, 593.1705943549389, 0.0, 0.0, 0.0, 0.0, -1886.0625488832652, 0.0]
['beep', 0.0, 593.1258908660283, 0.0, 0.0, 0.0, 0.0, -1885.8613831831674, 0.0]
['beep', 0.0, 593.8634984330533, 0.0, 0.0, 0.0, 0.0, -1885.302589571785, 0.0]
['beep', 0.0, 595.8528036895757, 0.0, 0.0, 0.0, 0.0, -1886.7554529613797, 0.0]
['beep', 0.0, 596.389245556503, 0.0, 0.0, 0.0, 0.0, -1890.331732074229, 0.0]
['beep', 0.0, 596.3221903231371, 0.0, 0.0, 0.0, 0.0, -1894.779729220835, 0.0]
['beep', 0.0, 596.903335678975, 0.0, 0.0, 0.0, 0.0, -1898.356008333684, 0.0]
['beep', 0.0, 595.4057688004696, 0.0, 0.0, 0.0, 0.0, -1904.0780549142428, 0.0]
['beep', 0.0, 596.970390912341, 0.0, 0.0, 0.0, 0.0, -1907.4755200714494, 0.0]
['beep', 0.0, 599.1608618689611, 0.0, 0.0, 0.0, 0.0, -1913.4434358410165, 0.0]
['beep', 0.0, 598.9596961688634, 0.0, 0.0, 0.0, 0.0, -1918.1373021766308, 0.0]
['beep', 0.0, 598.199736857383, 0.0, 0.0, 0.0, 0.0, -1923.389962123628, 0.0]
['beep', 0.0, 597.5738880126344, 0.0, 0.0, 0.0, 0.0, -1928.910843004089, 0.0]
['beep', 0.0, 597.7527019682768, 0.0, 0.0, 0.0, 0.0, -1934.2082064399967, 0.0]
['beep', 0.0, 598.3114955796594, 0.0, 0.0, 0.0, 0.0, -1939.7961425538235, 0.0]
['beep', 0.0, 598.5126612797573, 0.0, 0.0, 0.0, 0.0, -1945.741706578935, 0.0]
['beep', 0.0, 598.5573647686679, 0.0, 0.0, 0.0, 0.0, -1951.2849392038513, 0.0]
['beep', 0.0, 598.7585304687656, 0.0, 0.0, 0.0, 0.0, -1955.5764741392702, 0.0]
['beep', 0.0, 600.2113938583606, 0.0, 0.0, 0.0, 0.0, -1960.2479887304294, 0.0]
['beep', 0.0, 600.0549316471734, 0.0, 0.0, 0.0, 0.0, -1965.1430207661417, 0.0]
['beep', 0.0, 600.5690217696455, 0.0, 0.0, 0.0, 0.0, -1969.3451487237394, 0.0]
['beep', 0.0, 601.0607601476622, 0.0, 0.0, 0.0, 0.0, -1971.870895847189, 0.0]
['beep', 0.0, 601.5077950367684, 0.0, 0.0, 0.0, 0.0, -1975.8271546157785, 0.0]
['beep', 0.0, 601.8877746925086, 0.0, 0.0, 0.0, 0.0, -1978.6658261616024, 0.0]
['beep', 0.0, 601.8877746925086, 0.0, 0.0, 0.0, 0.0, -1981.2809802628733, 0.0]
['beep', 0.0, 602.133643881517, 0.0, 0.0, 0.0, 0.0, -1983.8290791307784, 0.0]
['beep', 0.0, 602.8041962151761, 0.0, 0.0, 0.0, 0.0, -1987.6065239437253, 0.0]
['beep', 0.0, 602.2677543482488, 0.0, 0.0, 0.0, 0.0, -1990.0205123448984, 0.0]
['beep', 0.0, 602.35716132607, 0.0, 0.0, 0.0, 0.0, -1991.1157478232085, 0.0]
['beep', 0.0, 602.7371409818103, 0.0, 0.0, 0.0, 0.0, -1993.5073844799263, 0.0]
['beep', 0.0, 602.3348095816148, 0.0, 0.0, 0.0, 0.0, -1997.0613118483202, 0.0]
['beep', 0.0, 603.3853415710141, 0.0, 0.0, 0.0, 0.0, -1998.3353612822727, 0.0]
['beep', 0.0, 603.2959345931929, 0.0, 0.0, 0.0, 0.0, -1997.5530502263368, 0.0]
['beep', 0.0, 601.9771816703299, 0.0, 0.0, 0.0, 0.0, -1998.3800647711832, 0.0]
['beep', 0.0, 602.1112921370617, 0.0, 0.0, 0.0, 0.0, -1997.8436229042559, 0.0]
['beep', 0.0, 601.5077950367684, 0.0, 0.0, 0.0, 0.0, -1999.9223351385995, 0.0]
['beep', 0.0, 601.8877746925086, 0.0, 0.0, 0.0, 0.0, -2001.419902017105, 0.0]
['beep', 0.0, 601.619553759045, 0.0, 0.0, 0.0, 0.0, -2002.3810270286833, 0.0]
['beep', 0.0, 600.8148909586538, 0.0, 0.0, 0.0, 0.0, -2002.3363235397726, 0.0]
['beep', 0.0, 601.776015970232, 0.0, 0.0, 0.0, 0.0, -2002.358675284228, 0.0]
['beep', 0.0, 602.5136235372572, 0.0, 0.0, 0.0, 0.0, -2004.1244630961971, 0.0]
['beep', 0.0, 602.3795130705254, 0.0, 0.0, 0.0, 0.0, -2004.3703322852054, 0.0]
['beep', 0.0, 601.9101264369639, 0.0, 0.0, 0.0, 0.0, -2003.4092072736273, 0.0]
['beep', 0.0, 602.2901060927041, 0.0, 0.0, 0.0, 0.0, -2002.7610066844234, 0.0]
['beep', 0.0, 601.7313124813214, 0.0, 0.0, 0.0, 0.0, -2003.6550764626356, 0.0]
['beep', 0.0, 602.4018648149806, 0.0, 0.0, 0.0, 0.0, -2003.6103729737251, 0.0]
['beep', 0.0, 602.5136235372572, 0.0, 0.0, 0.0, 0.0, -2005.3091055523284, 0.0]
['beep', 0.0, 603.3406380821035, 0.0, 0.0, 0.0, 0.0, -2005.2196985745072, 0.0]
['beep', 0.0, 602.133643881517, 0.0, 0.0, 0.0, 0.0, -2005.2644020634177, 0.0]
['beep', 0.0, 601.5301467812237, 0.0, 0.0, 0.0, 0.0, -2005.6220299747026, 0.0]
['beep', 0.0, 602.9830101708186, 0.0, 0.0, 0.0, 0.0, -2004.839718918767, 0.0]
['beep', 0.0, 603.8994316934862, 0.0, 0.0, 0.0, 0.0, -2006.8737276642, 0.0]
['beep', 0.0, 603.8770799490309, 0.0, 0.0, 0.0, 0.0, -2006.4713962640044, 0.0]
['beep', 0.0, 603.1394723820058, 0.0, 0.0, 0.0, 0.0, -2005.4432160190602, 0.0]
['beep', 0.0, 602.1559956259723, 0.0, 0.0, 0.0, 0.0, -2005.644381719158, 0.0]
['beep', 0.0, 602.5583270261678, 0.0, 0.0, 0.0, 0.0, -2006.3372857972727, 0.0]
['beep', 0.0, 604.0111904157627, 0.0, 0.0, 0.0, 0.0, -2007.25370731994, 0.0]
['beep', 0.0, 602.6253822595337, 0.0, 0.0, 0.0, 0.0, -2006.7172654530127, 0.0]
['beep', 0.0, 603.4076933154695, 0.0, 0.0, 0.0, 0.0, -2006.8513759197447, 0.0]
['beep', 0.0, 603.3629898265589, 0.0, 0.0, 0.0, 0.0, -2007.0525416198425, 0.0]
['beep', 0.0, 603.9664869268521, 0.0, 0.0, 0.0, 0.0, -2008.6171637317138, 0.0]
['beep', 0.0, 603.8323764601203, 0.0, 0.0, 0.0, 0.0, -2007.7901491868674, 0.0]
['beep', 0.0, 602.8265479596315, 0.0, 0.0, 0.0, 0.0, -2007.1419485976637, 0.0]
['beep', 0.0, 603.5865072711119, 0.0, 0.0, 0.0, 0.0, -2006.5608032418256, 0.0]
['beep', 0.0, 603.8770799490309, 0.0, 0.0, 0.0, 0.0, -2007.678390464591, 0.0]
['beep', 0.0, 603.5641555266566, 0.0, 0.0, 0.0, 0.0, -2009.4441782765603, 0.0]
['beep', 0.0, 604.0111904157627, 0.0, 0.0, 0.0, 0.0, -2011.0088003884318, 0.0]
['beep', 0.0, 602.9159549374527, 0.0, 0.0, 0.0, 0.0, -2008.4607015205268, 0.0]
['beep', 0.0, 603.9217834379415, 0.0, 0.0, 0.0, 0.0, -2007.3207625533062, 0.0]
['beep', 0.0, 605.195832871894, 0.0, 0.0, 0.0, 0.0, -2008.9971433874541, 0.0]
['beep', 0.0, 603.5641555266566, 0.0, 0.0, 0.0, 0.0, -2009.1759573430966, 0.0]
['beep', 0.0, 602.9159549374527, 0.0, 0.0, 0.0, 0.0, -2010.2488410769513, 0.0]
['beep', 0.0, 604.7487979827879, 0.0, 0.0, 0.0, 0.0, -2009.6676957211132, 0.0]
['beep', 0.0, 605.4193503164471, 0.0, 0.0, 0.0, 0.0, -2007.678390464591, 0.0]
['beep', 0.0, 606.8051584726761, 0.0, 0.0, 0.0, 0.0, -2006.3819892861832, 0.0]
['beep', 0.0, 607.4533590618801, 0.0, 0.0, 0.0, 0.0, -2006.940782897566, 0.0]
['beep', 0.0, 608.7050567513772, 0.0, 0.0, 0.0, 0.0, -2007.8572044202335, 0.0]
['beep', 0.0, 605.7993299721874, 0.0, 0.0, 0.0, 0.0, -2007.5442799978591, 0.0]
['beep', 0.0, 604.7487979827879, 0.0, 0.0, 0.0, 0.0, -2007.6560387201357, 0.0]
['beep', 0.0, 603.6312107600226, 0.0, 0.0, 0.0, 0.0, -2007.0301898753871, 0.0]
['beep', 0.0, 602.6924374928997, 0.0, 0.0, 0.0, 0.0, -2010.002971887943, 0.0]
['beep', 0.0, 602.8488997040868, 0.0, 0.0, 0.0, 0.0, -2011.5452422553592, 0.0]
['beep', 0.0, 603.1171206375504, 0.0, 0.0, 0.0, 0.0, -2009.8018061878452, 0.0]
['beep', 0.0, 601.8877746925086, 0.0, 0.0, 0.0, 0.0, -2008.0583701203311, 0.0]
['beep', 0.0, 602.0665886481511, 0.0, 0.0, 0.0, 0.0, -2008.1701288426077, 0.0]
['beep', 0.0, 603.0277136597292, 0.0, 0.0, 0.0, 0.0, -2010.1817858435854, 0.0]
['beep', 0.0, 602.5583270261678, 0.0, 0.0, 0.0, 0.0, -2011.2770213218955, 0.0]
['beep', 0.0, 602.4912717928019, 0.0, 0.0, 0.0, 0.0, -2011.2993730663507, 0.0]
['beep', 0.0, 603.3629898265589, 0.0, 0.0, 0.0, 0.0, -2009.8465096767557, 0.0]
['beep', 0.0, 602.5136235372572, 0.0, 0.0, 0.0, 0.0, -2008.9971433874541, 0.0]
['beep', 0.0, 601.8207194591427, 0.0, 0.0, 0.0, 0.0, -2008.3712945427055, 0.0]
['beep', 0.0, 603.161824126461, 0.0, 0.0, 0.0, 0.0, -2010.2488410769513, 0.0]
['beep', 0.0, 603.2065276153717, 0.0, 0.0, 0.0, 0.0, -2011.9922771444653, 0.0]
['beep', 0.0, 603.0500654041846, 0.0, 0.0, 0.0, 0.0, -2009.7571026989344, 0.0]
['beep', 0.0, 602.5583270261678, 0.0, 0.0, 0.0, 0.0, -2009.7794544433898, 0.0]
['beep', 0.0, 602.8712514485421, 0.0, 0.0, 0.0, 0.0, -2010.1147306102193, 0.0]
['beep', 0.0, 604.9946671717962, 0.0, 0.0, 0.0, 0.0, -2010.1147306102193, 0.0]
['beep', 0.0, 604.4805770493242, 0.0, 0.0, 0.0, 0.0, -2011.1876143440743, 0.0]
['beep', 0.0, 603.519452037746, 0.0, 0.0, 0.0, 0.0, -2010.3829515436832, 0.0]
['beep', 0.0, 603.3629898265589, 0.0, 0.0, 0.0, 0.0, -2011.031152132887, 0.0]
['beep', 0.0, 602.8041962151761, 0.0, 0.0, 0.0, 0.0, -2011.2546695774402, 0.0]
['beep', 0.0, 602.8488997040868, 0.0, 0.0, 0.0, 0.0, -2011.612297488725, 0.0]
['beep', 0.0, 602.8936031929974, 0.0, 0.0, 0.0, 0.0, -2012.126387611197, 0.0]
['beep', 0.0, 602.5806787706231, 0.0, 0.0, 0.0, 0.0, -2011.6570009776356, 0.0]
['beep', 0.0, 602.9830101708186, 0.0, 0.0, 0.0, 0.0, -2010.964096899521, 0.0]
['beep', 0.0, 602.9606584263634, 0.0, 0.0, 0.0, 0.0, -2010.2041375880408, 0.0]
['beep', 0.0, 602.6924374928997, 0.0, 0.0, 0.0, 0.0, -2011.7464079554568, 0.0]
['beep', 0.0, 602.6924374928997, 0.0, 0.0, 0.0, 0.0, -2011.1205591107082, 0.0]
['beep', 0.0, 602.6924374928997, 0.0, 0.0, 0.0, 0.0, -2011.5228905109038, 0.0]
['beep', 0.0, 602.1559956259723, 0.0, 0.0, 0.0, 0.0, -2010.450006777049, 0.0]
['beep', 0.0, 603.0724171486398, 0.0, 0.0, 0.0, 0.0, -2011.478187021993, 0.0]
['beep', 0.0, 603.4523968043801, 0.0, 0.0, 0.0, 0.0, -2011.7017044665463, 0.0]
['beep', 0.0, 603.8547282045756, 0.0, 0.0, 0.0, 0.0, -2010.2041375880408, 0.0]
['beep', 0.0, 601.3960363144919, 0.0, 0.0, 0.0, 0.0, -2010.226489332496, 0.0]
['beep', 0.0, 601.9995334147851, 0.0, 0.0, 0.0, 0.0, -2010.807634688334, 0.0]
['beep', 0.0, 603.0947688930952, 0.0, 0.0, 0.0, 0.0, -2011.1429108551636, 0.0]
['beep', 0.0, 602.1783473704276, 0.0, 0.0, 0.0, 0.0, -2011.7464079554568, 0.0]
['beep', 0.0, 602.2230508593382, 0.0, 0.0, 0.0, 0.0, -2011.835814933278, 0.0]
['beep', 0.0, 602.9159549374527, 0.0, 0.0, 0.0, 0.0, -2013.8251201898004, 0.0]
['beep', 0.0, 601.5301467812237, 0.0, 0.0, 0.0, 0.0, -2011.9252219110992, 0.0]
['beep', 0.0, 601.5748502701343, 0.0, 0.0, 0.0, 0.0, -2010.450006777049, 0.0]
['beep', 0.0, 603.5641555266566, 0.0, 0.0, 0.0, 0.0, -2011.0088003884318, 0.0]
['beep', 0.0, 603.1841758709164, 0.0, 0.0, 0.0, 0.0, -2012.7075329670351, 0.0]
['beep', 0.0, 603.810024715665, 0.0, 0.0, 0.0, 0.0, -2013.579251000792, 0.0]
['beep', 0.0, 603.2959345931929, 0.0, 0.0, 0.0, 0.0, -2012.8639951782222, 0.0]
['beep', 0.0, 603.742969482299, 0.0, 0.0, 0.0, 0.0, -2012.0816841222866, 0.0]
['beep', 0.0, 603.7876729712096, 0.0, 0.0, 0.0, 0.0, -2012.9086986671327, 0.0]
['beep', 0.0, 603.1841758709164, 0.0, 0.0, 0.0, 0.0, -2013.8474719342557, 0.0]
['beep', 0.0, 601.7983677146874, 0.0, 0.0, 0.0, 0.0, -2012.6628294781244, 0.0]
['beep', 0.0, 602.4689200483466, 0.0, 0.0, 0.0, 0.0, -2011.96992540001, 0.0]
['beep', 0.0, 602.1783473704276, 0.0, 0.0, 0.0, 0.0, -2012.416960289116, 0.0]
['beep', 0.0, 602.35716132607, 0.0, 0.0, 0.0, 0.0, -2013.3333818117837, 0.0]
['beep', 0.0, 602.7818444707209, 0.0, 0.0, 0.0, 0.0, -2013.1769196005964, 0.0]
['beep', 0.0, 604.8382049606091, 0.0, 0.0, 0.0, 0.0, -2012.640477733669, 0.0]
['beep', 0.0, 604.6817427494219, 0.0, 0.0, 0.0, 0.0, -2011.7911114443675, 0.0]
['beep', 0.0, 603.3629898265589, 0.0, 0.0, 0.0, 0.0, -2012.7075329670351, 0.0]
['beep', 0.0, 603.9888386713075, 0.0, 0.0, 0.0, 0.0, -2013.3780853006942, 0.0]
['beep', 0.0, 605.1287776385282, 0.0, 0.0, 0.0, 0.0, -2014.6297829901914, 0.0]
['beep', 0.0, 603.5418037822013, 0.0, 0.0, 0.0, 0.0, -2012.3052015668395, 0.0]
['beep', 0.0, 602.8488997040868, 0.0, 0.0, 0.0, 0.0, -2011.1205591107082, 0.0]
['beep', 0.0, 603.6759142489332, 0.0, 0.0, 0.0, 0.0, -2012.416960289116, 0.0]
['beep', 0.0, 602.0218851592405, 0.0, 0.0, 0.0, 0.0, -2012.0369806333758, 0.0]
['beep', 0.0, 601.619553759045, 0.0, 0.0, 0.0, 0.0, -2011.902870166644, 0.0]
['beep', 0.0, 601.3289810811259, 0.0, 0.0, 0.0, 0.0, -2011.165262599619, 0.0]
['beep', 0.0, 600.4796147918242, 0.0, 0.0, 0.0, 0.0, -2012.484015522482, 0.0]
['beep', 0.0, 600.4349113029136, 0.0, 0.0, 0.0, 0.0, -2014.585079501281, 0.0]
['beep', 0.0, 601.1725188699388, 0.0, 0.0, 0.0, 0.0, -2013.936878912077, 0.0]
['beep', 0.0, 600.323152580637, 0.0, 0.0, 0.0, 0.0, -2012.931050411588, 0.0]
['beep', 0.0, 599.2279171023271, 0.0, 0.0, 0.0, 0.0, -2012.9086986671327, 0.0]
['beep', 0.0, 600.2113938583606, 0.0, 0.0, 0.0, 0.0, -2012.9086986671327, 0.0]
['beep', 0.0, 600.5243182807349, 0.0, 0.0, 0.0, 0.0, -2012.5734225003032, 0.0]
['beep', 0.0, 601.4407398034025, 0.0, 0.0, 0.0, 0.0, -2012.416960289116, 0.0]
['beep', 0.0, 601.0384084032069, 0.0, 0.0, 0.0, 0.0, -2012.8639951782222, 0.0]
['beep', 0.0, 601.5077950367684, 0.0, 0.0, 0.0, 0.0, -2013.7580649564345, 0.0]
['beep', 0.0, 600.5019665362795, 0.0, 0.0, 0.0, 0.0, -2013.6910097230686, 0.0]
['beep', 0.0, 600.16669036945, 0.0, 0.0, 0.0, 0.0, -2014.7191899680126, 0.0]
['beep', 0.0, 599.8984694359863, 0.0, 0.0, 0.0, 0.0, -2015.0097626459317, 0.0]
['beep', 0.0, 601.5748502701343, 0.0, 0.0, 0.0, 0.0, -2015.389742301672, 0.0]
['beep', 0.0, 599.5631932691566, 0.0, 0.0, 0.0, 0.0, -2014.3168585678172, 0.0]
['beep', 0.0, 598.8702891910422, 0.0, 0.0, 0.0, 0.0, -2013.646306234158, 0.0]
['beep', 0.0, 599.6526002469778, 0.0, 0.0, 0.0, 0.0, -2013.8251201898004, 0.0]
['beep', 0.0, 600.390207814003, 0.0, 0.0, 0.0, 0.0, -2016.3732190577055, 0.0]
['beep', 0.0, 600.5243182807349, 0.0, 0.0, 0.0, 0.0, -2017.06612313582, 0.0]
['beep', 0.0, 601.0607601476622, 0.0, 0.0, 0.0, 0.0, -2013.7580649564345, 0.0]
['beep', 0.0, 600.3008008361818, 0.0, 0.0, 0.0, 0.0, -2014.518024267915, 0.0]
['beep', 0.0, 601.7313124813214, 0.0, 0.0, 0.0, 0.0, -2015.5909080017698, 0.0]
['beep', 0.0, 602.35716132607, 0.0, 0.0, 0.0, 0.0, -2015.7026667240461, 0.0]
['beep', 0.0, 603.742969482299, 0.0, 0.0, 0.0, 0.0, -2016.552033013348, 0.0]
['beep', 0.0, 602.1783473704276, 0.0, 0.0, 0.0, 0.0, -2014.7638934569234, 0.0]
['beep', 0.0, 601.619553759045, 0.0, 0.0, 0.0, 0.0, -2013.9145271676216, 0.0]
['beep', 0.0, 601.6642572479556, 0.0, 0.0, 0.0, 0.0, -2014.585079501281, 0.0]
['beep', 0.0, 601.3289810811259, 0.0, 0.0, 0.0, 0.0, -2014.7638934569234, 0.0]
['beep', 0.0, 601.0160566587516, 0.0, 0.0, 0.0, 0.0, -2014.3615620567277, 0.0]
['beep', 0.0, 601.3513328255813, 0.0, 0.0, 0.0, 0.0, -2014.0039341454428, 0.0]
['beep', 0.0, 601.4630915478577, 0.0, 0.0, 0.0, 0.0, -2012.618125989214, 0.0]
['beep', 0.0, 601.0384084032069, 0.0, 0.0, 0.0, 0.0, -2013.646306234158, 0.0]
['beep', 0.0, 600.3678560695477, 0.0, 0.0, 0.0, 0.0, -2014.1827481010853, 0.0]
['beep', 0.0, 599.9878764138075, 0.0, 0.0, 0.0, 0.0, -2014.4733207790043, 0.0]
['beep', 0.0, 598.8479374465868, 0.0, 0.0, 0.0, 0.0, -2015.032114390387, 0.0]
['beep', 0.0, 598.7808822132209, 0.0, 0.0, 0.0, 0.0, -2014.093341123264, 0.0]
['beep', 0.0, 599.7867107137097, 0.0, 0.0, 0.0, 0.0, -2012.7298847114903, 0.0]
['beep', 0.0, 602.2230508593382, 0.0, 0.0, 0.0, 0.0, -2014.6521347346468, 0.0]
['beep', 0.0, 601.3960363144919, 0.0, 0.0, 0.0, 0.0, -2015.4567975350378, 0.0]
['beep', 0.0, 602.133643881517, 0.0, 0.0, 0.0, 0.0, -2015.032114390387, 0.0]
['beep', 0.0, 602.6253822595337, 0.0, 0.0, 0.0, 0.0, -2014.8756521792, 0.0]
['beep', 0.0, 601.2172223588494, 0.0, 0.0, 0.0, 0.0, -2014.9874109014763, 0.0]
['beep', 0.0, 601.9995334147851, 0.0, 0.0, 0.0, 0.0, -2015.3673905572166, 0.0]
['beep', 0.0, 601.6419055035002, 0.0, 0.0, 0.0, 0.0, -2015.2109283460295, 0.0]
['beep', 0.0, 601.8654229480533, 0.0, 0.0, 0.0, 0.0, -2014.6074312457363, 0.0]
['beep', 0.0, 602.2230508593382, 0.0, 0.0, 0.0, 0.0, -2013.0204573894093, 0.0]
['beep', 0.0, 602.4465683038912, 0.0, 0.0, 0.0, 0.0, -2013.3110300673284, 0.0]
['beep', 0.0, 603.1394723820058, 0.0, 0.0, 0.0, 0.0, -2014.2050998455406, 0.0]
['beep', 0.0, 602.4018648149806, 0.0, 0.0, 0.0, 0.0, -2015.4344457905825, 0.0]
['beep', 0.0, 601.9101264369639, 0.0, 0.0, 0.0, 0.0, -2016.5967365022584, 0.0]
['beep', 0.0, 601.4630915478577, 0.0, 0.0, 0.0, 0.0, -2015.032114390387, 0.0]
['beep', 0.0, 600.099635136084, 0.0, 0.0, 0.0, 0.0, -2014.4286172900938, 0.0]
['beep', 0.0, 600.1443386249946, 0.0, 0.0, 0.0, 0.0, -2016.3285155687947, 0.0]
['beep', 0.0, 600.8819461920198, 0.0, 0.0, 0.0, 0.0, -2015.9708876575098, 0.0]
['beep', 0.0, 601.1725188699388, 0.0, 0.0, 0.0, 0.0, -2015.1438731126636, 0.0]
['beep', 0.0, 601.2172223588494, 0.0, 0.0, 0.0, 0.0, -2013.6016027452474, 0.0]
['beep', 0.0, 600.9266496809304, 0.0, 0.0, 0.0, 0.0, -2013.9145271676216, 0.0]
['beep', 0.0, 601.3289810811259, 0.0, 0.0, 0.0, 0.0, -2015.5015010239485, 0.0]
['beep', 0.0, 600.9937049142962, 0.0, 0.0, 0.0, 0.0, -2015.099169623753, 0.0]
['beep', 0.0, 601.1501671254834, 0.0, 0.0, 0.0, 0.0, -2015.0544661348424, 0.0]
['beep', 0.0, 600.6137252585561, 0.0, 0.0, 0.0, 0.0, -2015.0544661348424, 0.0]
['beep', 0.0, 600.3678560695477, 0.0, 0.0, 0.0, 0.0, -2014.8533004347446, 0.0]
['beep', 0.0, 601.3736845700365, 0.0, 0.0, 0.0, 0.0, -2014.4956725234597, 0.0]
['beep', 0.0, 601.1501671254834, 0.0, 0.0, 0.0, 0.0, -2015.099169623753, 0.0]
['beep', 0.0, 599.7643589692544, 0.0, 0.0, 0.0, 0.0, -2016.1049981242418, 0.0]
['beep', 0.0, 598.4009025574807, 0.0, 0.0, 0.0, 0.0, -2014.9650591570212, 0.0]
['beep', 0.0, 598.8032339576762, 0.0, 0.0, 0.0, 0.0, -2014.6297829901914, 0.0]
['beep', 0.0, 598.1103298795617, 0.0, 0.0, 0.0, 0.0, -2015.7026667240461, 0.0]
['beep', 0.0, 598.3338473241148, 0.0, 0.0, 0.0, 0.0, -2014.7638934569234, 0.0]
['beep', 0.0, 599.0267514022293, 0.0, 0.0, 0.0, 0.0, -2013.6016027452474, 0.0]
['beep', 0.0, 598.4903095353019, 0.0, 0.0, 0.0, 0.0, -2013.936878912077, 0.0]
['beep', 0.0, 599.3173240801483, 0.0, 0.0, 0.0, 0.0, -2015.3673905572166, 0.0]
['beep', 0.0, 599.7867107137097, 0.0, 0.0, 0.0, 0.0, -2014.9874109014763, 0.0]
['beep', 0.0, 599.8984694359863, 0.0, 0.0, 0.0, 0.0, -2014.6074312457363, 0.0]
['beep', 0.0, 600.16669036945, 0.0, 0.0, 0.0, 0.0, -2015.680314979591, 0.0]
['beep', 0.0, 600.323152580637, 0.0, 0.0, 0.0, 0.0, -2014.6968382235575, 0.0]
['beep', 0.0, 600.0549316471734, 0.0, 0.0, 0.0, 0.0, -2015.1662248571188, 0.0]
['beep', 0.0, 600.2337456028158, 0.0, 0.0, 0.0, 0.0, -2014.8756521792, 0.0]
['beep', 0.0, 600.9490014253856, 0.0, 0.0, 0.0, 0.0, -2014.6297829901914, 0.0]
['beep', 0.0, 600.1219868805393, 0.0, 0.0, 0.0, 0.0, -2015.546204512859, 0.0]
['beep', 0.0, 599.7196554803438, 0.0, 0.0, 0.0, 0.0, -2015.322687068306, 0.0]
['beep', 0.0, 599.6749519914332, 0.0, 0.0, 0.0, 0.0, -2016.2167568465184, 0.0]
['beep', 0.0, 599.2726205912377, 0.0, 0.0, 0.0, 0.0, -2015.8591289352335, 0.0]
['beep', 0.0, 599.3843793135142, 0.0, 0.0, 0.0, 0.0, -2016.1497016131523, 0.0]
['beep', 0.0, 598.7808822132209, 0.0, 0.0, 0.0, 0.0, -2016.842605691267, 0.0]
['beep', 0.0, 598.1103298795617, 0.0, 0.0, 0.0, 0.0, -2017.9378411695768, 0.0]
['beep', 0.0, 599.004399657774, 0.0, 0.0, 0.0, 0.0, -2016.9543644135433, 0.0]
['beep', 0.0, 599.1161583800505, 0.0, 0.0, 0.0, 0.0, -2016.3955708021608, 0.0]
['beep', 0.0, 599.0491031466846, 0.0, 0.0, 0.0, 0.0, -2014.8756521792, 0.0]
['beep', 0.0, 600.0325799027181, 0.0, 0.0, 0.0, 0.0, -2014.4956725234597, 0.0]
['beep', 0.0, 600.5466700251901, 0.0, 0.0, 0.0, 0.0, -2015.0097626459317, 0.0]
['beep', 0.0, 600.2337456028158, 0.0, 0.0, 0.0, 0.0, -2016.2838120798842, 0.0]
['beep', 0.0, 600.1443386249946, 0.0, 0.0, 0.0, 0.0, -2016.5073295244372, 0.0]
['beep', 0.0, 600.2337456028158, 0.0, 0.0, 0.0, 0.0, -2015.9708876575098, 0.0]
['beep', 0.0, 600.099635136084, 0.0, 0.0, 0.0, 0.0, -2015.546204512859, 0.0]
['beep', 0.0, 599.8984694359863, 0.0, 0.0, 0.0, 0.0, -2015.2779835793954, 0.0]
['beep', 0.0, 600.9266496809304, 0.0, 0.0, 0.0, 0.0, -2016.037942890876, 0.0]
['beep', 0.0, 601.9101264369639, 0.0, 0.0, 0.0, 0.0, -2016.0155911464205, 0.0]
['beep', 0.0, 601.9548299258745, 0.0, 0.0, 0.0, 0.0, -2015.322687068306, 0.0]
['beep', 0.0, 601.3066293366707, 0.0, 0.0, 0.0, 0.0, -2016.0826463797864, 0.0]
['beep', 0.0, 601.3066293366707, 0.0, 0.0, 0.0, 0.0, -2016.552033013348, 0.0]
['beep', 0.0, 600.3455043250924, 0.0, 0.0, 0.0, 0.0, -2014.3392103122726, 0.0]
['beep', 0.0, 600.904297936475, 0.0, 0.0, 0.0, 0.0, -2013.9145271676216, 0.0]
['beep', 0.0, 602.1112921370617, 0.0, 0.0, 0.0, 0.0, -2015.7473702129569, 0.0]
['beep', 0.0, 603.5641555266566, 0.0, 0.0, 0.0, 0.0, -2014.8309486902892, 0.0]
['beep', 0.0, 602.2901060927041, 0.0, 0.0, 0.0, 0.0, -2014.3615620567277, 0.0]
['beep', 0.0, 602.4689200483466, 0.0, 0.0, 0.0, 0.0, -2014.8309486902892, 0.0]
['beep', 0.0, 603.4076933154695, 0.0, 0.0, 0.0, 0.0, -2015.3673905572166, 0.0]
['beep', 0.0, 604.2794113492264, 0.0, 0.0, 0.0, 0.0, -2015.836777190778, 0.0]
['beep', 0.0, 603.6312107600226, 0.0, 0.0, 0.0, 0.0, -2016.552033013348, 0.0]
['beep', 0.0, 602.7818444707209, 0.0, 0.0, 0.0, 0.0, -2014.7638934569234, 0.0]
['beep', 0.0, 602.6700857484443, 0.0, 0.0, 0.0, 0.0, -2015.546204512859, 0.0]
['beep', 0.0, 602.7371409818103, 0.0, 0.0, 0.0, 0.0, -2015.3003353238507, 0.0]
['beep', 0.0, 603.810024715665, 0.0, 0.0, 0.0, 0.0, -2013.4898440229708, 0.0]
['beep', 0.0, 602.6924374928997, 0.0, 0.0, 0.0, 0.0, -2015.613259746225, 0.0]
['beep', 0.0, 602.4465683038912, 0.0, 0.0, 0.0, 0.0, -2016.1720533576076, 0.0]
['beep', 0.0, 601.4183880589471, 0.0, 0.0, 0.0, 0.0, -2015.1215213682083, 0.0]
['beep', 0.0, 601.9324781814192, 0.0, 0.0, 0.0, 0.0, -2016.1720533576076, 0.0]
['beep', 0.0, 601.5972020145896, 0.0, 0.0, 0.0, 0.0, -2015.1438731126636, 0.0]
['beep', 0.0, 599.4737862913354, 0.0, 0.0, 0.0, 0.0, -2013.7357132119791, 0.0]
['beep', 0.0, 600.2337456028158, 0.0, 0.0, 0.0, 0.0, -2014.6074312457363, 0.0]
['beep', 0.0, 604.905260193975, 0.0, 0.0, 0.0, 0.0, -2013.3780853006942, 0.0]
['beep', 0.0, 605.6205160165449, 0.0, 0.0, 0.0, 0.0, -2014.3615620567277, 0.0]
['beep', 0.0, 602.35716132607, 0.0, 0.0, 0.0, 0.0, -2014.9427074125658, 0.0]
['beep', 0.0, 603.228879359827, 0.0, 0.0, 0.0, 0.0, -2014.6521347346468, 0.0]
['beep', 0.0, 602.5806787706231, 0.0, 0.0, 0.0, 0.0, -2014.8309486902892, 0.0]
['beep', 0.0, 603.9441351823968, 0.0, 0.0, 0.0, 0.0, -2013.7804167008899, 0.0]
['beep', 0.0, 606.2687166057488, 0.0, 0.0, 0.0, 0.0, -2013.4898440229708, 0.0]
['beep', 0.0, 608.615649773556, 0.0, 0.0, 0.0, 0.0, -2012.8192916893115, 0.0]
['beep', 0.0, 610.0908649076063, 0.0, 0.0, 0.0, 0.0, -2011.7911114443675, 0.0]
['beep', 0.0, 609.9344026964192, 0.0, 0.0, 0.0, 0.0, -2012.8863469226776, 0.0]
['beep', 0.0, 608.392132329003, 0.0, 0.0, 0.0, 0.0, -2011.5899457442697, 0.0]
['beep', 0.0, 607.810986973165, 0.0, 0.0, 0.0, 0.0, -2012.3499050557502, 0.0]
['beep', 0.0, 605.5534607831789, 0.0, 0.0, 0.0, 0.0, -2012.7969399448564, 0.0]
['beep', 0.0, 605.0840741496175, 0.0, 0.0, 0.0, 0.0, -2014.0262858898982, 0.0]
['beep', 0.0, 605.5758125276343, 0.0, 0.0, 0.0, 0.0, -2013.422788789605, 0.0]
['beep', 0.0, 605.26288810526, 0.0, 0.0, 0.0, 0.0, -2012.416960289116, 0.0]
['beep', 0.0, 605.3522950830812, 0.0, 0.0, 0.0, 0.0, -2012.7075329670351, 0.0]
['beep', 0.0, 605.7993299721874, 0.0, 0.0, 0.0, 0.0, -2013.2439748339625, 0.0]
['beep', 0.0, 605.9110886944638, 0.0, 0.0, 0.0, 0.0, -2013.3780853006942, 0.0]
['beep', 0.0, 605.5534607831789, 0.0, 0.0, 0.0, 0.0, -2013.6016027452474, 0.0]
['beep', 0.0, 605.3299433386259, 0.0, 0.0, 0.0, 0.0, -2014.4286172900938, 0.0]
['beep', 0.0, 604.3017630936818, 0.0, 0.0, 0.0, 0.0, -2016.552033013348, 0.0]
['beep', 0.0, 605.9110886944638, 0.0, 0.0, 0.0, 0.0, -2014.4286172900938, 0.0]
['beep', 0.0, 604.2570596047711, 0.0, 0.0, 0.0, 0.0, -2014.0709893788087, 0.0]
['beep', 0.0, 603.4076933154695, 0.0, 0.0, 0.0, 0.0, -2015.7026667240461, 0.0]
['beep', 0.0, 604.4358735604136, 0.0, 0.0, 0.0, 0.0, -2016.0155911464205, 0.0]
['beep', 0.0, 604.5699840271454, 0.0, 0.0, 0.0, 0.0, -2017.1555301136411, 0.0]
['beep', 0.0, 605.1511293829834, 0.0, 0.0, 0.0, 0.0, -2017.1778818580965, 0.0]
['beep', 0.0, 605.26288810526, 0.0, 0.0, 0.0, 0.0, -2015.2109283460295, 0.0]
['beep', 0.0, 605.2405363608046, 0.0, 0.0, 0.0, 0.0, -2014.2721550789065, 0.0]
['beep', 0.0, 605.5087572942683, 0.0, 0.0, 0.0, 0.0, -2015.2779835793954, 0.0]
['beep', 0.0, 605.6205160165449, 0.0, 0.0, 0.0, 0.0, -2016.4402742910713, 0.0]
['beep', 0.0, 605.8663852055532, 0.0, 0.0, 0.0, 0.0, -2014.7191899680126, 0.0]
['beep', 0.0, 605.9110886944638, 0.0, 0.0, 0.0, 0.0, -2014.0262858898982, 0.0]
['beep', 0.0, 605.5758125276343, 0.0, 0.0, 0.0, 0.0, -2014.383913801183, 0.0]
['beep', 0.0, 606.2910683502041, 0.0, 0.0, 0.0, 0.0, -2014.6968382235575, 0.0]
['beep', 0.0, 607.5874695286119, 0.0, 0.0, 0.0, 0.0, -2015.903832424144, 0.0]
['beep', 0.0, 606.7604549837655, 0.0, 0.0, 0.0, 0.0, -2016.5296812688925, 0.0]
['beep', 0.0, 606.5369375392124, 0.0, 0.0, 0.0, 0.0, -2014.7862452013787, 0.0]
['beep', 0.0, 606.8498619615867, 0.0, 0.0, 0.0, 0.0, -2013.3333818117837, 0.0]
['beep', 0.0, 606.0004956722851, 0.0, 0.0, 0.0, 0.0, -2012.8639951782222, 0.0]
['beep', 0.0, 606.7604549837655, 0.0, 0.0, 0.0, 0.0, -2013.2439748339625, 0.0]
['beep', 0.0, 606.2016613723829, 0.0, 0.0, 0.0, 0.0, -2013.2439748339625, 0.0]
['beep', 0.0, 605.4640538053577, 0.0, 0.0, 0.0, 0.0, -2013.2439748339625, 0.0]
['beep', 0.0, 606.5369375392124, 0.0, 0.0, 0.0, 0.0, -2013.2216230895071, 0.0]
['beep', 0.0, 607.5651177841565, 0.0, 0.0, 0.0, 0.0, -2013.6016027452474, 0.0]
['beep', 0.0, 607.2074898728716, 0.0, 0.0, 0.0, 0.0, -2015.7697219574122, 0.0]
['beep', 0.0, 606.1569578834723, 0.0, 0.0, 0.0, 0.0, -2014.898003923655, 0.0]
['beep', 0.0, 606.4922340503018, 0.0, 0.0, 0.0, 0.0, -2013.1992713450518, 0.0]
['beep', 0.0, 605.9781439278298, 0.0, 0.0, 0.0, 0.0, -2013.7580649564345, 0.0]
['beep', 0.0, 606.4698823058466, 0.0, 0.0, 0.0, 0.0, -2014.9650591570212, 0.0]
['beep', 0.0, 607.2968968506929, 0.0, 0.0, 0.0, 0.0, -2014.6968382235575, 0.0]
['beep', 0.0, 607.1404346395058, 0.0, 0.0, 0.0, 0.0, -2014.0709893788087, 0.0]
['beep', 0.0, 607.3863038285141, 0.0, 0.0, 0.0, 0.0, -2013.9815824009875, 0.0]
['beep', 0.0, 606.648696261489, 0.0, 0.0, 0.0, 0.0, -2013.802768445345, 0.0]
['beep', 0.0, 606.4475305613912, 0.0, 0.0, 0.0, 0.0, -2013.3780853006942, 0.0]
['beep', 0.0, 607.8780422065308, 0.0, 0.0, 0.0, 0.0, -2013.3780853006942, 0.0]
['beep', 0.0, 607.9898009288074, 0.0, 0.0, 0.0, 0.0, -2013.4898440229708, 0.0]
['beep', 0.0, 607.2521933617822, 0.0, 0.0, 0.0, 0.0, -2013.1545678561413, 0.0]
['beep', 0.0, 607.3416003396035, 0.0, 0.0, 0.0, 0.0, -2014.2498033344514, 0.0]
['beep', 0.0, 607.6992282508884, 0.0, 0.0, 0.0, 0.0, -2014.3168585678172, 0.0]
['beep', 0.0, 607.3192485951482, 0.0, 0.0, 0.0, 0.0, -2014.6297829901914, 0.0]
['beep', 0.0, 608.1686148844499, 0.0, 0.0, 0.0, 0.0, -2013.6910097230686, 0.0]
['beep', 0.0, 607.7662834842544, 0.0, 0.0, 0.0, 0.0, -2013.7804167008899, 0.0]
['beep', 0.0, 608.1909666289051, 0.0, 0.0, 0.0, 0.0, -2013.1098643672306, 0.0]
['beep', 0.0, 607.2521933617822, 0.0, 0.0, 0.0, 0.0, -2012.3052015668395, 0.0]
['beep', 0.0, 606.9169171949527, 0.0, 0.0, 0.0, 0.0, -2012.931050411588, 0.0]
['beep', 0.0, 607.4310073174247, 0.0, 0.0, 0.0, 0.0, -2013.8921754231662, 0.0]
