['beep', 0.0, 264.93522702875464, 0.0, 0.0, 0.0, 0.0, 1113.429798296666, 0.0]
['beep', 0.0, 233.2404533911292, 0.0, 0.0, 0.0, 0.0, 1062.9595593165827, 0.0]
['beep', 0.0, 267.28216019656185, 0.0, 0.0, 0.0, 0.0, 1081.69032117013, 0.0]
['beep', 0.0, 313.79614040805586, 0.0, 0.0, 0.0, 0.0, 1142.8893974887608, 0.0]
['beep', 0.0, 316.59010846496926, 0.0, 0.0, 0.0, 0.0, 1167.5210198785092, 0.0]
['beep', 0.0, 264.4211369062825, 0.0, 0.0, 0.0, 0.0, 1114.1450541192357, 0.0]
['beep', 0.0, 232.79341850202306, 0.0, 0.0, 0.0, 0.0, 1061.7972686049068, 0.0]
['beep', 0.0, 268.9138375417993, 0.0, 0.0, 0.0, 0.0, 1081.5785624478535, 0.0]
['beep', 0.0, 316.9700881207095, 0.0, 0.0, 0.0, 0.0, 1141.0342026989701, 0.0]
['beep', 0.0, 319.87581489989935, 0.0, 0.0, 0.0, 0.0, 1165.487011133076, 0.0]
['beep', 0.0, 269.2938171975395, 0.0, 0.0, 0.0, 0.0, 1116.2908215869454, 0.0]
['beep', 0.0, 236.90613948179956, 0.0, 0.0, 0.0, 0.0, 1064.7700506174626, 0.0]
['beep', 0.0, 269.49498289763727, 0.0, 0.0, 0.0, 0.0, 1083.4784607265547, 0.0]
['beep', 0.0, 317.7076956877346, 0.0, 0.0, 0.0, 0.0, 1143.7611155225177, 0.0]
['beep', 0.0, 319.6970009442569, 0.0, 0.0, 0.0, 0.0, 1167.1857437116796, 0.0]
['beep', 0.0, 266.0751659959753, 0.0, 0.0, 0.0, 0.0, 1115.3744000642778, 0.0]
['beep', 0.0, 231.20644464569625, 0.0, 0.0, 0.0, 0.0, 1064.3453674728116, 0.0]
['beep', 0.0, 264.93522702875464, 0.0, 0.0, 0.0, 0.0, 1082.919667115172, 0.0]
['beep', 0.0, 312.81266365202237, 0.0, 0.0, 0.0, 0.0, 1143.9175777337048, 0.0]
['beep', 0.0, 315.9866113646759, 0.0, 0.0, 0.0, 0.0, 1166.8281158003947, 0.0]
['beep', 0.0, 266.5222008850814, 0.0, 0.0, 0.0, 0.0, 1114.5026820305206, 0.0]
['beep', 0.0, 234.73802026963477, 0.0, 0.0, 0.0, 0.0, 1062.4901726830212, 0.0]
['beep', 0.0, 266.25397995161774, 0.0, 0.0, 0.0, 0.0, 1078.717539157574, 0.0]
['beep', 0.0, 313.12558807439666, 0.0, 0.0, 0.0, 0.0, 1140.7436300210513, 0.0]
['beep', 0.0, 316.791274165067, 0.0, 0.0, 0.0, 0.0, 1167.3422059228667, 0.0]
['beep', 0.0, 264.599950861925, 0.0, 0.0, 0.0, 0.0, 1118.07896114337, 0.0]
['beep', 0.0, 231.9217004682661, 0.0, 0.0, 0.0, 0.0, 1065.2617889954793, 0.0]
['beep', 0.0, 263.9964537616317, 0.0, 0.0, 0.0, 0.0, 1081.2879897699345, 0.0]
['beep', 0.0, 312.1644630628184, 0.0, 0.0, 0.0, 0.0, 1141.4588858436211, 0.0]
['beep', 0.0, 316.4783497426927, 0.0, 0.0, 0.0, 0.0, 1166.492839633565, 0.0]
['beep', 0.0, 265.60577936241384, 0.0, 0.0, 0.0, 0.0, 1115.5085105310095, 0.0]
['beep', 0.0, 232.279328379551, 0.0, 0.0, 0.0, 0.0, 1062.0654895383705, 0.0]
['beep', 0.0, 262.9459217722323, 0.0, 0.0, 0.0, 0.0, 1079.656312424697, 0.0]
['beep', 0.0, 311.24804154015084, 0.0, 0.0, 0.0, 0.0, 1140.4977608320428, 0.0]
['beep', 0.0, 315.1819485642849, 0.0, 0.0, 0.0, 0.0, 1165.7105285776292, 0.0]
['beep', 0.0, 263.43766015024903, 0.0, 0.0, 0.0, 0.0, 1116.491987287043, 0.0]
['beep', 0.0, 229.97709870065438, 0.0, 0.0, 0.0, 0.0, 1062.1548965161917, 0.0]
['beep', 0.0, 261.6048171049139, 0.0, 0.0, 0.0, 0.0, 1078.203449035102, 0.0]
['beep', 0.0, 311.4939107291592, 0.0, 0.0, 0.0, 0.0, 1139.4695805870988, 0.0]
['beep', 0.0, 316.83597765397764, 0.0, 0.0, 0.0, 0.0, 1163.721223321107, 0.0]
['beep', 0.0, 264.5775991174697, 0.0, 0.0, 0.0, 0.0, 1114.9273651751716, 0.0]
['beep', 0.0, 230.0665056784756, 0.0, 0.0, 0.0, 0.0, 1063.1830767611357, 0.0]
['beep', 0.0, 261.761279316101, 0.0, 0.0, 0.0, 0.0, 1078.695187413119, 0.0]
['beep', 0.0, 310.7115996732235, 0.0, 0.0, 0.0, 0.0, 1139.6260427982859, 0.0]
['beep', 0.0, 316.7242189317011, 0.0, 0.0, 0.0, 0.0, 1165.621121599808, 0.0]
['beep', 0.0, 264.71170958420157, 0.0, 0.0, 0.0, 0.0, 1115.977897164571, 0.0]
['beep', 0.0, 231.20644464569625, 0.0, 0.0, 0.0, 0.0, 1063.4512976945994, 0.0]
['beep', 0.0, 261.4260031492714, 0.0, 0.0, 0.0, 0.0, 1079.3433880023229, 0.0]
['beep', 0.0, 311.00217235114246, 0.0, 0.0, 0.0, 0.0, 1140.944795721149, 0.0]
['beep', 0.0, 317.9982683656536, 0.0, 0.0, 0.0, 0.0, 1166.9845780115818, 0.0]
['beep', 0.0, 264.71170958420157, 0.0, 0.0, 0.0, 0.0, 1117.2072431096128, 0.0]
['beep', 0.0, 229.57476730045883, 0.0, 0.0, 0.0, 0.0, 1063.49600118351, 0.0]
['beep', 0.0, 261.11307872689713, 0.0, 0.0, 0.0, 0.0, 1078.7622426464848, 0.0]
['beep', 0.0, 308.3646665054162, 0.0, 0.0, 0.0, 0.0, 1137.9049584752272, 0.0]
['beep', 0.0, 315.78544566457816, 0.0, 0.0, 0.0, 0.0, 1165.1517349662465, 0.0]
['beep', 0.0, 263.86234329489986, 0.0, 0.0, 0.0, 0.0, 1116.8719669427833, 0.0]
['beep', 0.0, 228.23366263314043, 0.0, 0.0, 0.0, 0.0, 1063.4289459501442, 0.0]
['beep', 0.0, 260.33076767096134, 0.0, 0.0, 0.0, 0.0, 1076.1917920341245, 0.0]
['beep', 0.0, 308.69994267224587, 0.0, 0.0, 0.0, 0.0, 1136.2956328744451, 0.0]
['beep', 0.0, 314.06436134151954, 0.0, 0.0, 0.0, 0.0, 1164.235313443579, 0.0]
['beep', 0.0, 263.3706049168831, 0.0, 0.0, 0.0, 0.0, 1115.6649727421968, 0.0]
['beep', 0.0, 227.92073821076613, 0.0, 0.0, 0.0, 0.0, 1062.1548965161917, 0.0]
['beep', 0.0, 259.07906998146416, 0.0, 0.0, 0.0, 0.0, 1075.2977222559123, 0.0]
['beep', 0.0, 309.146977561352, 0.0, 0.0, 0.0, 0.0, 1136.1168189188027, 0.0]
['beep', 0.0, 317.3947712653603, 0.0, 0.0, 0.0, 0.0, 1164.4811826325874, 0.0]
['beep', 0.0, 265.1587444733077, 0.0, 0.0, 0.0, 0.0, 1113.139225618747, 0.0]
['beep', 0.0, 229.68652602273536, 0.0, 0.0, 0.0, 0.0, 1059.3162249703676, 0.0]
['beep', 0.0, 259.2578839371066, 0.0, 0.0, 0.0, 0.0, 1074.78363213344, 0.0]
['beep', 0.0, 309.5493089615475, 0.0, 0.0, 0.0, 0.0, 1135.2227491405904, 0.0]
['beep', 0.0, 317.7523991766452, 0.0, 0.0, 0.0, 0.0, 1162.9612640096266, 0.0]
['beep', 0.0, 265.0469857510312, 0.0, 0.0, 0.0, 0.0, 1114.9720686640821, 0.0]
['beep', 0.0, 229.08302892244208, 0.0, 0.0, 0.0, 0.0, 1060.4114604486776, 0.0]
['beep', 0.0, 258.00618624760943, 0.0, 0.0, 0.0, 0.0, 1073.7331001440407, 0.0]
['beep', 0.0, 308.0740938274972, 0.0, 0.0, 0.0, 0.0, 1134.686307273663, 0.0]
['beep', 0.0, 316.94773637625417, 0.0, 0.0, 0.0, 0.0, 1161.8213250424058, 0.0]
['beep', 0.0, 265.35991017340547, 0.0, 0.0, 0.0, 0.0, 1113.206280852113, 0.0]
['beep', 0.0, 228.63599403333595, 0.0, 0.0, 0.0, 0.0, 1059.629149392742, 0.0]
['beep', 0.0, 258.5202763700815, 0.0, 0.0, 0.0, 0.0, 1073.4425274661216, 0.0]
['beep', 0.0, 308.3646665054162, 0.0, 0.0, 0.0, 0.0, 1136.8991299747383, 0.0]
['beep', 0.0, 317.0147916096201, 0.0, 0.0, 0.0, 0.0, 1164.6152930993192, 0.0]
['beep', 0.0, 264.599950861925, 0.0, 0.0, 0.0, 0.0, 1113.5415570189425, 0.0]
['beep', 0.0, 229.53006381154822, 0.0, 0.0, 0.0, 0.0, 1061.5513994158982, 0.0]
['beep', 0.0, 259.01201474809824, 0.0, 0.0, 0.0, 0.0, 1074.8730391112613, 0.0]
['beep', 0.0, 308.65523918333525, 0.0, 0.0, 0.0, 0.0, 1134.976879951582, 0.0]
['beep', 0.0, 316.2995357870502, 0.0, 0.0, 0.0, 0.0, 1162.9836157540817, 0.0]
['beep', 0.0, 263.7505845726233, 0.0, 0.0, 0.0, 0.0, 1114.1897576081465, 0.0]
['beep', 0.0, 228.5018835666041, 0.0, 0.0, 0.0, 0.0, 1060.3891087042223, 0.0]
['beep', 0.0, 256.0615844799977, 0.0, 0.0, 0.0, 0.0, 1072.146126287714, 0.0]
['beep', 0.0, 306.017733337609, 0.0, 0.0, 0.0, 0.0, 1134.0157549400037, 0.0]
['beep', 0.0, 315.2490037976508, 0.0, 0.0, 0.0, 0.0, 1163.4753541320986, 0.0]
['beep', 0.0, 264.44348865073783, 0.0, 0.0, 0.0, 0.0, 1115.5532140199202, 0.0]
['beep', 0.0, 227.94308995522144, 0.0, 0.0, 0.0, 0.0, 1061.9090273271831, 0.0]
['beep', 0.0, 256.95565425821, 0.0, 0.0, 0.0, 0.0, 1073.0848995548367, 0.0]
['beep', 0.0, 307.18002404928495, 0.0, 0.0, 0.0, 0.0, 1133.881644473272, 0.0]
['beep', 0.0, 315.8525008979441, 0.0, 0.0, 0.0, 0.0, 1163.3188919209115, 0.0]
['beep', 0.0, 263.43766015024903, 0.0, 0.0, 0.0, 0.0, 1116.3578768203113, 0.0]
['beep', 0.0, 227.5854620439365, 0.0, 0.0, 0.0, 0.0, 1059.7409081150186, 0.0]
['beep', 0.0, 257.00035774712063, 0.0, 0.0, 0.0, 0.0, 1070.693262898119, 0.0]
['beep', 0.0, 308.18585254977376, 0.0, 0.0, 0.0, 0.0, 1131.7135252611072, 0.0]
['beep', 0.0, 317.57358522100276, 0.0, 0.0, 0.0, 0.0, 1161.4189936422104, 0.0]
['beep', 0.0, 264.51054388410375, 0.0, 0.0, 0.0, 0.0, 1113.653315741219, 0.0]
['beep', 0.0, 227.63016553284712, 0.0, 0.0, 0.0, 0.0, 1060.0091290484822, 0.0]
['beep', 0.0, 256.57567460246975, 0.0, 0.0, 0.0, 0.0, 1071.341463487323, 0.0]
['beep', 0.0, 307.0235618380978, 0.0, 0.0, 0.0, 0.0, 1130.975917694082, 0.0]
['beep', 0.0, 315.45016949774856, 0.0, 0.0, 0.0, 0.0, 1160.7037378196405, 0.0]
['beep', 0.0, 263.6164741058915, 0.0, 0.0, 0.0, 0.0, 1114.525033774976, 0.0]
['beep', 0.0, 228.85951147788901, 0.0, 0.0, 0.0, 0.0, 1058.7574313589848, 0.0]
['beep', 0.0, 256.57567460246975, 0.0, 0.0, 0.0, 0.0, 1069.396861719711, 0.0]
['beep', 0.0, 306.6435821823576, 0.0, 0.0, 0.0, 0.0, 1130.4171240826993, 0.0]
['beep', 0.0, 317.4171230098156, 0.0, 0.0, 0.0, 0.0, 1161.240179686568, 0.0]
['beep', 0.0, 264.91287528429933, 0.0, 0.0, 0.0, 0.0, 1115.2179378530907, 0.0]
['beep', 0.0, 226.9596131991879, 0.0, 0.0, 0.0, 0.0, 1060.277349981946, 0.0]
['beep', 0.0, 254.96634900168766, 0.0, 0.0, 0.0, 0.0, 1069.6203791642642, 0.0]
['beep', 0.0, 305.50364321513695, 0.0, 0.0, 0.0, 0.0, 1130.5288828049759, 0.0]
['beep', 0.0, 315.04783809755304, 0.0, 0.0, 0.0, 0.0, 1159.1167639633136, 0.0]
['beep', 0.0, 265.24815145112893, 0.0, 0.0, 0.0, 0.0, 1112.6474872407302, 0.0]
['beep', 0.0, 229.64182253382475, 0.0, 0.0, 0.0, 0.0, 1059.6962046261078, 0.0]
['beep', 0.0, 255.56984610198094, 0.0, 0.0, 0.0, 0.0, 1069.7321378865406, 0.0]
['beep', 0.0, 305.3471810039498, 0.0, 0.0, 0.0, 0.0, 1130.0594961714144, 0.0]
['beep', 0.0, 315.5842799644804, 0.0, 0.0, 0.0, 0.0, 1160.9049035197381, 0.0]
['beep', 0.0, 264.3764334173719, 0.0, 0.0, 0.0, 0.0, 1115.6649727421968, 0.0]
['beep', 0.0, 227.29488936601751, 0.0, 0.0, 0.0, 0.0, 1059.3609284592783, 0.0]
['beep', 0.0, 253.46878212318208, 0.0, 0.0, 0.0, 0.0, 1066.5805419183423, 0.0]
['beep', 0.0, 303.76020714762296, 0.0, 0.0, 0.0, 0.0, 1128.3831153372664, 0.0]
['beep', 0.0, 314.73491367517875, 0.0, 0.0, 0.0, 0.0, 1159.8543715303388, 0.0]
['beep', 0.0, 265.4940206401373, 0.0, 0.0, 0.0, 0.0, 1113.6980192301296, 0.0]
['beep', 0.0, 229.32889811145046, 0.0, 0.0, 0.0, 0.0, 1058.2656929809682, 0.0]
['beep', 0.0, 255.7263083131681, 0.0, 0.0, 0.0, 0.0, 1068.0557570523927, 0.0]
['beep', 0.0, 306.86709962691066, 0.0, 0.0, 0.0, 0.0, 1130.5288828049759, 0.0]
['beep', 0.0, 317.3277160319944, 0.0, 0.0, 0.0, 0.0, 1159.586150596875, 0.0]
['beep', 0.0, 267.01393926309817, 0.0, 0.0, 0.0, 0.0, 1112.714542474096, 0.0]
['beep', 0.0, 229.57476730045883, 0.0, 0.0, 0.0, 0.0, 1057.3269197138452, 0.0]
['beep', 0.0, 254.60872109040275, 0.0, 0.0, 0.0, 0.0, 1064.5688849173648, 0.0]
['beep', 0.0, 305.52599495959225, 0.0, 0.0, 0.0, 0.0, 1126.3714583362887, 0.0]
['beep', 0.0, 317.1041985874413, 0.0, 0.0, 0.0, 0.0, 1158.6697290742075, 0.0]
['beep', 0.0, 266.3880904183496, 0.0, 0.0, 0.0, 0.0, 1112.0886936293475, 0.0]
['beep', 0.0, 228.63599403333595, 0.0, 0.0, 0.0, 0.0, 1057.4833819250325, 0.0]
['beep', 0.0, 254.7651833015899, 0.0, 0.0, 0.0, 0.0, 1064.5912366618202, 0.0]
['beep', 0.0, 305.0119048371202, 0.0, 0.0, 0.0, 0.0, 1125.0303536689703, 0.0]
['beep', 0.0, 315.8972043868547, 0.0, 0.0, 0.0, 0.0, 1158.4015081407438, 0.0]
['beep', 0.0, 266.94688402973225, 0.0, 0.0, 0.0, 0.0, 1110.7922924509398, 0.0]
['beep', 0.0, 229.64182253382475, 0.0, 0.0, 0.0, 0.0, 1057.1928092471135, 0.0]
['beep', 0.0, 254.22874143466254, 0.0, 0.0, 0.0, 0.0, 1065.9099895846832, 0.0]
['beep', 0.0, 305.16836704830735, 0.0, 0.0, 0.0, 0.0, 1126.3714583362887, 0.0]
['beep', 0.0, 316.4783497426927, 0.0, 0.0, 0.0, 0.0, 1160.3461099083556, 0.0]
['beep', 0.0, 266.1645729737965, 0.0, 0.0, 0.0, 0.0, 1115.3967518087331, 0.0]
['beep', 0.0, 229.93239521174377, 0.0, 0.0, 0.0, 0.0, 1059.7409081150186, 0.0]
['beep', 0.0, 254.27344492357315, 0.0, 0.0, 0.0, 0.0, 1065.239437251024, 0.0]
['beep', 0.0, 304.38605599237155, 0.0, 0.0, 0.0, 0.0, 1125.9244234471826, 0.0]
['beep', 0.0, 317.7523991766452, 0.0, 0.0, 0.0, 0.0, 1158.9379500076711, 0.0]
['beep', 0.0, 268.35504393041657, 0.0, 0.0, 0.0, 0.0, 1113.4074465522108, 0.0]
['beep', 0.0, 228.72540101115717, 0.0, 0.0, 0.0, 0.0, 1058.042175536415, 0.0]
['beep', 0.0, 253.82641003446702, 0.0, 0.0, 0.0, 0.0, 1065.530009928943, 0.0]
['beep', 0.0, 303.06730306950845, 0.0, 0.0, 0.0, 0.0, 1125.231519369068, 0.0]
['beep', 0.0, 315.8525008979441, 0.0, 0.0, 0.0, 0.0, 1159.4520401301434, 0.0]
['beep', 0.0, 266.61160786290264, 0.0, 0.0, 0.0, 0.0, 1116.0896558868476, 0.0]
['beep', 0.0, 227.83133123294488, 0.0, 0.0, 0.0, 0.0, 1059.1597627591805, 0.0]
['beep', 0.0, 251.56888384448098, 0.0, 0.0, 0.0, 0.0, 1067.3405012298228, 0.0]
['beep', 0.0, 303.2237652806956, 0.0, 0.0, 0.0, 0.0, 1127.3549350923224, 0.0]
['beep', 0.0, 315.3160590310167, 0.0, 0.0, 0.0, 0.0, 1159.6755575746963, 0.0]
['beep', 0.0, 264.6223026063803, 0.0, 0.0, 0.0, 0.0, 1116.491987287043, 0.0]
['beep', 0.0, 225.0373631760315, 0.0, 0.0, 0.0, 0.0, 1060.5679226598647, 0.0]
['beep', 0.0, 249.64663382132457, 0.0, 0.0, 0.0, 0.0, 1065.7982308624066, 0.0]
['beep', 0.0, 302.2179367802068, 0.0, 0.0, 0.0, 0.0, 1127.0643624144034, 0.0]
['beep', 0.0, 315.45016949774856, 0.0, 0.0, 0.0, 0.0, 1160.7037378196405, 0.0]
['beep', 0.0, 226.82550273245607, 0.0, 0.0, 0.0, 0.0, 1061.6184546492643, 0.0]
['beep', 0.0, 252.12767745586368, 0.0, 0.0, 0.0, 0.0, 1066.2452657515128, 0.0]
['beep', 0.0, 304.4531112257375, 0.0, 0.0, 0.0, 0.0, 1126.5949757808419, 0.0]
['beep', 0.0, 317.48417824318153, 0.0, 0.0, 0.0, 0.0, 1159.3626331523221, 0.0]
['beep', 0.0, 267.438622407749, 0.0, 0.0, 0.0, 0.0, 1116.6484494982303, 0.0]
['beep', 0.0, 229.61947078936944, 0.0, 0.0, 0.0, 0.0, 1062.3337104718341, 0.0]
['beep', 0.0, 252.08297396695306, 0.0, 0.0, 0.0, 0.0, 1067.2510942520016, 0.0]
['beep', 0.0, 302.4638059692152, 0.0, 0.0, 0.0, 0.0, 1127.4443420701436, 0.0]
['beep', 0.0, 315.628983453391, 0.0, 0.0, 0.0, 0.0, 1160.1225924638024, 0.0]
['beep', 0.0, 266.4104421628049, 0.0, 0.0, 0.0, 0.0, 1115.821434953384, 0.0]
['beep', 0.0, 229.55241555600352, 0.0, 0.0, 0.0, 0.0, 1060.8808470822391, 0.0]
['beep', 0.0, 253.37937514536085, 0.0, 0.0, 0.0, 0.0, 1066.0888035403257, 0.0]
['beep', 0.0, 302.9555443472319, 0.0, 0.0, 0.0, 0.0, 1127.5784525368754, 0.0]
['beep', 0.0, 317.28301254308377, 0.0, 0.0, 0.0, 0.0, 1162.1566012092353, 0.0]
['beep', 0.0, 267.32686368547246, 0.0, 0.0, 0.0, 0.0, 1119.4871210440542, 0.0]
['beep', 0.0, 236.25793889259566, 0.0, 0.0, 0.0, 0.0, 1053.6165301342644, 0.0]
['beep', 0.0, 290.66208489681304, 0.0, 0.0, 0.0, 0.0, 1108.3783040497667, 0.0]
['beep', 0.0, 336.2596435856394, 0.0, 0.0, 0.0, 0.0, 1142.7999905109396, 0.0]
['beep', 0.0, 350.56476003703597, 0.0, 0.0, 0.0, 0.0, 1078.8069461353955, 0.0]
['beep', 0.0, 255.88277052435527, 0.0, 0.0, 0.0, 0.0, 1057.4833819250325, 0.0]
['beep', 0.0, 236.4144011037828, 0.0, 0.0, 0.0, 0.0, 1055.0917452683145, 0.0]
['beep', 0.0, 288.58337266246946, 0.0, 0.0, 0.0, 0.0, 1109.8311674393615, 0.0]
['beep', 0.0, 337.3325273194942, 0.0, 0.0, 0.0, 0.0, 1142.4423625996546, 0.0]
['beep', 0.0, 352.4646583157371, 0.0, 0.0, 0.0, 0.0, 1079.1645740466804, 0.0]
['beep', 0.0, 256.9333025137547, 0.0, 0.0, 0.0, 0.0, 1056.499905168999, 0.0]
['beep', 0.0, 235.43092434774928, 0.0, 0.0, 0.0, 0.0, 1052.7001086115968, 0.0]
['beep', 0.0, 290.6173814079024, 0.0, 0.0, 0.0, 0.0, 1107.1489581047247, 0.0]
['beep', 0.0, 338.8971494313657, 0.0, 0.0, 0.0, 0.0, 1141.525941076987, 0.0]
['beep', 0.0, 354.65512927235716, 0.0, 0.0, 0.0, 0.0, 1076.884696112239, 0.0]
['beep', 0.0, 260.91191302679937, 0.0, 0.0, 0.0, 0.0, 1054.8682278237616, 0.0]
['beep', 0.0, 237.66609879327999, 0.0, 0.0, 0.0, 0.0, 1050.8002103328956, 0.0]
['beep', 0.0, 291.8914308418549, 0.0, 0.0, 0.0, 0.0, 1105.4502255261214, 0.0]
['beep', 0.0, 339.8806261873992, 0.0, 0.0, 0.0, 0.0, 1139.7601532650178, 0.0]
['beep', 0.0, 356.48797231769237, 0.0, 0.0, 0.0, 0.0, 1074.9624460890825, 0.0]
['beep', 0.0, 262.56594211649207, 0.0, 0.0, 0.0, 0.0, 1053.5718266453537, 0.0]
['beep', 0.0, 238.00137496010962, 0.0, 0.0, 0.0, 0.0, 1051.7613353444738, 0.0]
['beep', 0.0, 292.04789305304206, 0.0, 0.0, 0.0, 0.0, 1104.3549900478113, 0.0]
['beep', 0.0, 340.14884712086285, 0.0, 0.0, 0.0, 0.0, 1137.1226474192915, 0.0]
['beep', 0.0, 358.2761118741169, 0.0, 0.0, 0.0, 0.0, 1073.9566175885936, 0.0]
['beep', 0.0, 263.54941887252556, 0.0, 0.0, 0.0, 0.0, 1051.49311441101, 0.0]
['beep', 0.0, 236.7273255261571, 0.0, 0.0, 0.0, 0.0, 1050.241416721513, 0.0]
['beep', 0.0, 290.99736106364264, 0.0, 0.0, 0.0, 0.0, 1103.7067894586075, 0.0]
['beep', 0.0, 340.3276610765053, 0.0, 0.0, 0.0, 0.0, 1137.6814410306743, 0.0]
['beep', 0.0, 359.05842293005264, 0.0, 0.0, 0.0, 0.0, 1070.0003588200043, 0.0]
['beep', 0.0, 266.36573867389427, 0.0, 0.0, 0.0, 0.0, 1046.2181027195577, 0.0]
['beep', 0.0, 237.82256100446713, 0.0, 0.0, 0.0, 0.0, 1047.8944835537056, 0.0]
['beep', 0.0, 290.7738436190896, 0.0, 0.0, 0.0, 0.0, 1102.8127196803953, 0.0]
['beep', 0.0, 341.24408259917294, 0.0, 0.0, 0.0, 0.0, 1136.139170663258, 0.0]
['beep', 0.0, 361.94179796478727, 0.0, 0.0, 0.0, 0.0, 1070.559152431387, 0.0]
['beep', 0.0, 268.3773956748719, 0.0, 0.0, 0.0, 0.0, 1046.0616405083706, 0.0]
['beep', 0.0, 237.084953437442, 0.0, 0.0, 0.0, 0.0, 1049.1685329876582, 0.0]
['beep', 0.0, 291.37734071938286, 0.0, 0.0, 0.0, 0.0, 1104.5338040034537, 0.0]
['beep', 0.0, 342.4957802886701, 0.0, 0.0, 0.0, 0.0, 1136.9885369525596, 0.0]
['beep', 0.0, 363.21584739873975, 0.0, 0.0, 0.0, 0.0, 1071.4532222095993, 0.0]
['beep', 0.0, 270.5008113981261, 0.0, 0.0, 0.0, 0.0, 1047.1345242422253, 0.0]
['beep', 0.0, 237.86726449337777, 0.0, 0.0, 0.0, 0.0, 1048.5426841429096, 0.0]
['beep', 0.0, 293.6572186538242, 0.0, 0.0, 0.0, 0.0, 1103.3491615473226, 0.0]
['beep', 0.0, 344.5521407785584, 0.0, 0.0, 0.0, 0.0, 1136.9885369525596, 0.0]
['beep', 0.0, 365.7639462666448, 0.0, 0.0, 0.0, 0.0, 1072.7272716435518, 0.0]
['beep', 0.0, 274.6582358668132, 0.0, 0.0, 0.0, 0.0, 1045.8604748082728, 0.0]
['beep', 0.0, 239.2754243940621, 0.0, 0.0, 0.0, 0.0, 1049.235588221024, 0.0]
['beep', 0.0, 291.2655819971063, 0.0, 0.0, 0.0, 0.0, 1104.6008592368198, 0.0]
['beep', 0.0, 342.1158006329299, 0.0, 0.0, 0.0, 0.0, 1136.1838741521685, 0.0]
['beep', 0.0, 365.4510218442705, 0.0, 0.0, 0.0, 0.0, 1070.6262076647529, 0.0]
['beep', 0.0, 275.82052657848914, 0.0, 0.0, 0.0, 0.0, 1043.9158730406612, 0.0]
['beep', 0.0, 238.80603776050066, 0.0, 0.0, 0.0, 0.0, 1049.0567742653816, 0.0]
['beep', 0.0, 291.1538232748298, 0.0, 0.0, 0.0, 0.0, 1101.1810423351578, 0.0]
['beep', 0.0, 344.6191960119243, 0.0, 0.0, 0.0, 0.0, 1134.3063276179228, 0.0]
['beep', 0.0, 369.563742824047, 0.0, 0.0, 0.0, 0.0, 1070.6262076647529, 0.0]
['beep', 0.0, 280.00030279163155, 0.0, 0.0, 0.0, 0.0, 1043.0888584958147, 0.0]
['beep', 0.0, 239.05190694950903, 0.0, 0.0, 0.0, 0.0, 1048.5426841429096, 0.0]
['beep', 0.0, 292.2267070086845, 0.0, 0.0, 0.0, 0.0, 1102.3880365357443, 0.0]
['beep', 0.0, 344.9544721787539, 0.0, 0.0, 0.0, 0.0, 1135.17804565168, 0.0]
['beep', 0.0, 367.8426585009883, 0.0, 0.0, 0.0, 0.0, 1069.6427309087194, 0.0]
['beep', 0.0, 280.2014684917293, 0.0, 0.0, 0.0, 0.0, 1040.3172421833567, 0.0]
['beep', 0.0, 237.59904355991407, 0.0, 0.0, 0.0, 0.0, 1046.173399230647, 0.0]
['beep', 0.0, 290.05858779651976, 0.0, 0.0, 0.0, 0.0, 1100.331676045856, 0.0]
['beep', 0.0, 343.27809134460585, 0.0, 0.0, 0.0, 0.0, 1133.5463683064424, 0.0]
['beep', 0.0, 368.82613525702186, 0.0, 0.0, 0.0, 0.0, 1070.0003588200043, 0.0]
['beep', 0.0, 283.12954701537456, 0.0, 0.0, 0.0, 0.0, 1038.149122971192, 0.0]
['beep', 0.0, 238.06843019347554, 0.0, 0.0, 0.0, 0.0, 1046.240454464013, 0.0]
['beep', 0.0, 289.4997941851371, 0.0, 0.0, 0.0, 0.0, 1098.7894056784398, 0.0]
['beep', 0.0, 343.63571925589076, 0.0, 0.0, 0.0, 0.0, 1130.305365360423, 0.0]
['beep', 0.0, 368.7143765347453, 0.0, 0.0, 0.0, 0.0, 1070.7379663870295, 0.0]
['beep', 0.0, 284.64946563833547, 0.0, 0.0, 0.0, 0.0, 1037.2774049374348, 0.0]
['beep', 0.0, 237.88961623783308, 0.0, 0.0, 0.0, 0.0, 1045.1005154967922, 0.0]
['beep', 0.0, 289.6115529074136, 0.0, 0.0, 0.0, 0.0, 1100.398731279222, 0.0]
['beep', 0.0, 344.66389950083493, 0.0, 0.0, 0.0, 0.0, 1132.0264496834816, 0.0]
['beep', 0.0, 370.45781260225925, 0.0, 0.0, 0.0, 0.0, 1069.4415652086218, 0.0]
['beep', 0.0, 284.15772726031867, 0.0, 0.0, 0.0, 0.0, 1034.9751752585382, 0.0]
['beep', 0.0, 236.50380808160403, 0.0, 0.0, 0.0, 0.0, 1045.9275300416386, 0.0]
['beep', 0.0, 288.8739453403885, 0.0, 0.0, 0.0, 0.0, 1100.108158601303, 0.0]
['beep', 0.0, 345.8932454458768, 0.0, 0.0, 0.0, 0.0, 1132.6299467837748, 0.0]
['beep', 0.0, 373.3188358925386, 0.0, 0.0, 0.0, 0.0, 1070.559152431387, 0.0]
['beep', 0.0, 286.9740470616874, 0.0, 0.0, 0.0, 0.0, 1034.1705124581472, 0.0]
['beep', 0.0, 237.9343197267437, 0.0, 0.0, 0.0, 0.0, 1045.1228672412476, 0.0]
['beep', 0.0, 289.1868697627628, 0.0, 0.0, 0.0, 0.0, 1098.1412050892359, 0.0]
['beep', 0.0, 346.2955768460723, 0.0, 0.0, 0.0, 0.0, 1130.2383101270568, 0.0]
['beep', 0.0, 375.6881208048011, 0.0, 0.0, 0.0, 0.0, 1072.4143472211776, 0.0]
['beep', 0.0, 290.5950296634471, 0.0, 0.0, 0.0, 0.0, 1035.3775066587339, 0.0]
['beep', 0.0, 237.44258134872692, 0.0, 0.0, 0.0, 0.0, 1042.5971201177979, 0.0]
['beep', 0.0, 289.4550906962265, 0.0, 0.0, 0.0, 0.0, 1095.9954376215264, 0.0]
['beep', 0.0, 346.65320475735723, 0.0, 0.0, 0.0, 0.0, 1129.7689234934955, 0.0]
['beep', 0.0, 374.86110625995474, 0.0, 0.0, 0.0, 0.0, 1073.174306532658, 0.0]
['beep', 0.0, 289.2092215072181, 0.0, 0.0, 0.0, 0.0, 1033.7681810579516, 0.0]
['beep', 0.0, 237.64374704882468, 0.0, 0.0, 0.0, 0.0, 1043.0888584958147, 0.0]
['beep', 0.0, 290.03623605206445, 0.0, 0.0, 0.0, 0.0, 1096.5318794884538, 0.0]
['beep', 0.0, 346.67555650181254, 0.0, 0.0, 0.0, 0.0, 1128.0031356815261, 0.0]
['beep', 0.0, 378.4373853728039, 0.0, 0.0, 0.0, 0.0, 1071.788498376429, 0.0]
['beep', 0.0, 293.9924948206538, 0.0, 0.0, 0.0, 0.0, 1030.4824746230215, 0.0]
['beep', 0.0, 238.9624999716878, 0.0, 0.0, 0.0, 0.0, 1042.5077131399767, 0.0]
['beep', 0.0, 289.8797738408773, 0.0, 0.0, 0.0, 0.0, 1096.2636585549901, 0.0]
['beep', 0.0, 349.7600972366449, 0.0, 0.0, 0.0, 0.0, 1127.3772868367776, 0.0]
['beep', 0.0, 381.9466092522871, 0.0, 0.0, 0.0, 0.0, 1071.6096844207866, 0.0]
['beep', 0.0, 297.4793669556817, 0.0, 0.0, 0.0, 0.0, 1031.2647856789572, 0.0]
['beep', 0.0, 239.78951451653415, 0.0, 0.0, 0.0, 0.0, 1040.8313323058287, 0.0]
['beep', 0.0, 289.07511104048626, 0.0, 0.0, 0.0, 0.0, 1096.2189550660796, 0.0]
['beep', 0.0, 348.9330826917986, 0.0, 0.0, 0.0, 0.0, 1128.9419089486491, 0.0]
['beep', 0.0, 380.7396150517005, 0.0, 0.0, 0.0, 0.0, 1073.3978239772111, 0.0]
['beep', 0.0, 298.21697452270683, 0.0, 0.0, 0.0, 0.0, 1029.5213496114434, 0.0]
['beep', 0.0, 237.3531743709057, 0.0, 0.0, 0.0, 0.0, 1041.3230706838453, 0.0]
['beep', 0.0, 288.0916342844527, 0.0, 0.0, 0.0, 0.0, 1095.1013678433142, 0.0]
['beep', 0.0, 347.9049024468544, 0.0, 0.0, 0.0, 0.0, 1127.55610079242, 0.0]
['beep', 0.0, 379.8678970179435, 0.0, 0.0, 0.0, 0.0, 1074.8059838778954, 0.0]
['beep', 0.0, 301.5473844465476, 0.0, 0.0, 0.0, 0.0, 1029.6107565892646, 0.0]
['beep', 0.0, 240.30360463900624, 0.0, 0.0, 0.0, 0.0, 1041.2783671949348, 0.0]
['beep', 0.0, 289.8797738408773, 0.0, 0.0, 0.0, 0.0, 1098.2529638115125, 0.0]
['beep', 0.0, 349.78244898110023, 0.0, 0.0, 0.0, 0.0, 1130.5512345494312, 0.0]
['beep', 0.0, 379.9349522513094, 0.0, 0.0, 0.0, 0.0, 1074.0460245664149, 0.0]
['beep', 0.0, 301.43562572427106, 0.0, 0.0, 0.0, 0.0, 1029.9236810116388, 0.0]
['beep', 0.0, 238.9177964827772, 0.0, 0.0, 0.0, 0.0, 1041.4571811505773, 0.0]
['beep', 0.0, 287.1305092728745, 0.0, 0.0, 0.0, 0.0, 1095.7495684325181, 0.0]
['beep', 0.0, 345.2897483455835, 0.0, 0.0, 0.0, 0.0, 1125.3879815802552, 0.0]
['beep', 0.0, 373.96703648174247, 0.0, 0.0, 0.0, 0.0, 1070.6709111536636, 0.0]
['beep', 0.0, 299.468672212204, 0.0, 0.0, 0.0, 0.0, 1028.0908379663038, 0.0]
['beep', 0.0, 239.05190694950903, 0.0, 0.0, 0.0, 0.0, 1040.2948904389013, 0.0]
['beep', 0.0, 287.3987302063382, 0.0, 0.0, 0.0, 0.0, 1094.5202224874763, 0.0]
['beep', 0.0, 344.9321204342986, 0.0, 0.0, 0.0, 0.0, 1125.0080019245152, 0.0]
['beep', 0.0, 370.79308876908885, 0.0, 0.0, 0.0, 0.0, 1067.0946320408145, 0.0]
['beep', 0.0, 305.6824571707794, 0.0, 0.0, 0.0, 0.0, 1032.2035589460802, 0.0]
['beep', 0.0, 238.67192729376882, 0.0, 0.0, 0.0, 0.0, 1041.8595125507727, 0.0]
['beep', 0.0, 286.9740470616874, 0.0, 0.0, 0.0, 0.0, 1096.6436382107304, 0.0]
['beep', 0.0, 343.88158844489914, 0.0, 0.0, 0.0, 0.0, 1121.1858536226575, 0.0]
['beep', 0.0, 367.26151314515033, 0.0, 0.0, 0.0, 0.0, 1046.2851579529236, 0.0]
['beep', 0.0, 308.69994267224587, 0.0, 0.0, 0.0, 0.0, 1027.4649891215552, 0.0]
['beep', 0.0, 239.00720346059842, 0.0, 0.0, 0.0, 0.0, 1041.367774172756, 0.0]
['beep', 0.0, 286.63877089485777, 0.0, 0.0, 0.0, 0.0, 1095.7495684325181, 0.0]
['beep', 0.0, 339.3218325760165, 0.0, 0.0, 0.0, 0.0, 1114.525033774976, 0.0]
['beep', 0.0, 333.4656755287261, 0.0, 0.0, 0.0, 0.0, 1001.3805033422117, 0.0]
['beep', 0.0, 305.3024775150392, 0.0, 0.0, 0.0, 0.0, 1014.0762941928261, 0.0]
['beep', 0.0, 240.92945348375483, 0.0, 0.0, 0.0, 0.0, 1037.5232741264433, 0.0]
['beep', 0.0, 288.20339300672924, 0.0, 0.0, 0.0, 0.0, 1095.3695887767778, 0.0]
['beep', 0.0, 335.38792555188246, 0.0, 0.0, 0.0, 0.0, 1107.4842342715544, 0.0]
['beep', 0.0, 283.10719527091925, 0.0, 0.0, 0.0, 0.0, 950.4632294730222, 0.0]
['beep', 0.0, 291.1314715303745, 0.0, 0.0, 0.0, 0.0, 1005.3591138552564, 0.0]
['beep', 0.0, 240.99650871712075, 0.0, 0.0, 0.0, 0.0, 1037.500922381988, 0.0]
['beep', 0.0, 286.7728813615896, 0.0, 0.0, 0.0, 0.0, 1092.97795212006, 0.0]
['beep', 0.0, 330.7834661940892, 0.0, 0.0, 0.0, 0.0, 1097.5824114778534, 0.0]
['beep', 0.0, 257.73796531414575, 0.0, 0.0, 0.0, 0.0, 895.2320689239584, 0.0]
['beep', 0.0, 284.7165208717014, 0.0, 0.0, 0.0, 0.0, 990.8304799593068, 0.0]
['beep', 0.0, 241.24237790612912, 0.0, 0.0, 0.0, 0.0, 1037.791495059907, 0.0]
['beep', 0.0, 286.52701217258124, 0.0, 0.0, 0.0, 0.0, 1092.8438416533281, 0.0]
['beep', 0.0, 325.6202132249133, 0.0, 0.0, 0.0, 0.0, 1087.792347406429, 0.0]
['beep', 0.0, 234.7827237585454, 0.0, 0.0, 0.0, 0.0, 821.2924982658027, 0.0]
['beep', 0.0, 280.6485033808355, 0.0, 0.0, 0.0, 0.0, 974.3125408068348, 0.0]
['beep', 0.0, 241.08591569494197, 0.0, 0.0, 0.0, 0.0, 1037.9032537821834, 0.0]
['beep', 0.0, 286.50466042812593, 0.0, 0.0, 0.0, 0.0, 1092.9556003756047, 0.0]
['beep', 0.0, 324.83790216897756, 0.0, 0.0, 0.0, 0.0, 1076.1470885452138, 0.0]
['beep', 0.0, 213.52621478154836, 0.0, 0.0, 0.0, 0.0, 725.6493837415438, 0.0]
['beep', 0.0, 276.15580274531874, 0.0, 0.0, 0.0, 0.0, 943.601243925243, 0.0]
['beep', 0.0, 242.49407559562633, 0.0, 0.0, 0.0, 0.0, 1035.6457275921975, 0.0]
['beep', 0.0, 285.54353541654774, 0.0, 0.0, 0.0, 0.0, 1091.8156614083841, 0.0]
['beep', 0.0, 321.70865794523456, 0.0, 0.0, 0.0, 0.0, 1063.6077599057867, 0.0]
['beep', 0.0, 194.19195582770777, 0.0, 0.0, 0.0, 0.0, 649.4522868934021, 0.0]
['beep', 0.0, 266.61160786290264, 0.0, 0.0, 0.0, 0.0, 917.2708889568912, 0.0]
['beep', 0.0, 241.57765407295872, 0.0, 0.0, 0.0, 0.0, 1033.1870357021137, 0.0]
['beep', 0.0, 283.9565615602209, 0.0, 0.0, 0.0, 0.0, 1091.234516052546, 0.0]
['beep', 0.0, 318.91468988832116, 0.0, 0.0, 0.0, 0.0, 1054.242378979013, 0.0]
['beep', 0.0, 182.45728998867156, 0.0, 0.0, 0.0, 0.0, 604.324114838137, 0.0]
['beep', 0.0, 263.43766015024903, 0.0, 0.0, 0.0, 0.0, 904.0386562393495, 0.0]
['beep', 0.0, 242.87405525136654, 0.0, 0.0, 0.0, 0.0, 1033.567015357854, 0.0]
['beep', 0.0, 284.11302377140805, 0.0, 0.0, 0.0, 0.0, 1090.2957427854233, 0.0]
['beep', 0.0, 317.3500677764497, 0.0, 0.0, 0.0, 0.0, 1045.078163752337, 0.0]
['beep', 0.0, 170.29794100498452, 0.0, 0.0, 0.0, 0.0, 559.3747567385145, 0.0]
['beep', 0.0, 260.5095816266038, 0.0, 0.0, 0.0, 0.0, 885.2631908968915, 0.0]
['beep', 0.0, 246.31622389748384, 0.0, 0.0, 0.0, 0.0, 1033.790532802407, 0.0]
['beep', 0.0, 287.0634540395086, 0.0, 0.0, 0.0, 0.0, 1090.8768881412611, 0.0]
['beep', 0.0, 316.90303288734356, 0.0, 0.0, 0.0, 0.0, 1046.1957509751023, 0.0]
['beep', 0.0, 166.3863857253058, 0.0, 0.0, 0.0, 0.0, 548.1541810219504, 0.0]
['beep', 0.0, 258.4979246256262, 0.0, 0.0, 0.0, 0.0, 879.474089082967, 0.0]
['beep', 0.0, 244.9974709746207, 0.0, 0.0, 0.0, 0.0, 1034.9528235140829, 0.0]
['beep', 0.0, 284.3588929604164, 0.0, 0.0, 0.0, 0.0, 1093.201469564613, 0.0]
['beep', 0.0, 315.76309392012286, 0.0, 0.0, 0.0, 0.0, 1043.1335619847252, 0.0]
['beep', 0.0, 160.26200774455165, 0.0, 0.0, 0.0, 0.0, 527.0988377450511, 0.0]
['beep', 0.0, 254.4746106236709, 0.0, 0.0, 0.0, 0.0, 868.0076441773945, 0.0]
['beep', 0.0, 245.3327471414503, 0.0, 0.0, 0.0, 0.0, 1035.4892653810102, 0.0]
['beep', 0.0, 285.4764801831818, 0.0, 0.0, 0.0, 0.0, 1093.5143939869874, 0.0]
['beep', 0.0, 314.3325822749832, 0.0, 0.0, 0.0, 0.0, 1037.2997566818901, 0.0]
['beep', 0.0, 150.6507576287696, 0.0, 0.0, 0.0, 0.0, 495.24760189623856, 0.0]
['beep', 0.0, 250.987738488643, 0.0, 0.0, 0.0, 0.0, 848.6733852235539, 0.0]
['beep', 0.0, 245.8468372639224, 0.0, 0.0, 0.0, 0.0, 1033.9022915246835, 0.0]
['beep', 0.0, 284.6718173827908, 0.0, 0.0, 0.0, 0.0, 1094.140242831736, 0.0]
['beep', 0.0, 313.3491055189497, 0.0, 0.0, 0.0, 0.0, 1035.1092857252702, 0.0]
['beep', 0.0, 144.45932441464956, 0.0, 0.0, 0.0, 0.0, 478.3049795991158, 0.0]
['beep', 0.0, 247.12088669787488, 0.0, 0.0, 0.0, 0.0, 840.1350188416266, 0.0]
['beep', 0.0, 246.5620930864922, 0.0, 0.0, 0.0, 0.0, 1034.9975270029936, 0.0]
['beep', 0.0, 285.94586681674326, 0.0, 0.0, 0.0, 0.0, 1092.463861997588, 0.0]
['beep', 0.0, 311.33744851797206, 0.0, 0.0, 0.0, 0.0, 1029.4766461225327, 0.0]
['beep', 0.0, 136.41269641073902, 0.0, 0.0, 0.0, 0.0, 454.92505489886463, 0.0]
['beep', 0.0, 242.56113082899225, 0.0, 0.0, 0.0, 0.0, 829.1156088251602, 0.0]
['beep', 0.0, 246.62914831985813, 0.0, 0.0, 0.0, 0.0, 1037.2327014485243, 0.0]
['beep', 0.0, 284.06832028249744, 0.0, 0.0, 0.0, 0.0, 1094.5649259763868, 0.0]
['beep', 0.0, 307.20237579374026, 0.0, 0.0, 0.0, 0.0, 1023.7993030308847, 0.0]
['beep', 0.0, 126.37676315030613, 0.0, 0.0, 0.0, 0.0, 427.3877057299263, 0.0]
['beep', 0.0, 234.67096503626885, 0.0, 0.0, 0.0, 0.0, 808.8202248597414, 0.0]
['beep', 0.0, 244.6174913188805, 0.0, 0.0, 0.0, 0.0, 1035.9586520145717, 0.0]
['beep', 0.0, 282.39193944834943, 0.0, 0.0, 0.0, 0.0, 1093.4249870091662, 0.0]
['beep', 0.0, 305.23542228167327, 0.0, 0.0, 0.0, 0.0, 1019.3736576287339, 0.0]
['beep', 0.0, 120.78882703647936, 0.0, 0.0, 0.0, 0.0, 410.5568421550801, 0.0]
['beep', 0.0, 232.01110744608732, 0.0, 0.0, 0.0, 0.0, 796.6832276205097, 0.0]
['beep', 0.0, 246.31622389748384, 0.0, 0.0, 0.0, 0.0, 1037.8809020377282, 0.0]
['beep', 0.0, 281.922552814788, 0.0, 0.0, 0.0, 0.0, 1094.4755189985656, 0.0]
['beep', 0.0, 303.67080016980174, 0.0, 0.0, 0.0, 0.0, 1015.3279918823233, 0.0]
['beep', 0.0, 113.41275136622804, 0.0, 0.0, 0.0, 0.0, 387.64630408839037, 0.0]
['beep', 0.0, 225.59615678741417, 0.0, 0.0, 0.0, 0.0, 775.5161256213338, 0.0]
['beep', 0.0, 248.55139834301454, 0.0, 0.0, 0.0, 0.0, 1036.696259581597, 0.0]
['beep', 0.0, 282.83897433745557, 0.0, 0.0, 0.0, 0.0, 1094.2743532984678, 0.0]
['beep', 0.0, 301.01094257962023, 0.0, 0.0, 0.0, 0.0, 1007.8178057453401, 0.0]
['beep', 0.0, 104.71792277311359, 0.0, 0.0, 0.0, 0.0, 362.23237064270626, 0.0]
['beep', 0.0, 213.92854618174388, 0.0, 0.0, 0.0, 0.0, 752.7844015102866, 0.0]
['beep', 0.0, 245.35509888590562, 0.0, 0.0, 0.0, 0.0, 1037.009184003971, 0.0]
['beep', 0.0, 281.6990353702349, 0.0, 0.0, 0.0, 0.0, 1094.5202224874763, 0.0]
['beep', 0.0, 298.59695417844705, 0.0, 0.0, 0.0, 0.0, 1004.4426923325888, 0.0]
['beep', 0.0, 100.3146291154181, 0.0, 0.0, 0.0, 0.0, 347.8825507023991, 0.0]
['beep', 0.0, 209.05586589048696, 0.0, 0.0, 0.0, 0.0, 735.9088344465297, 0.0]
['beep', 0.0, 244.79630527452295, 0.0, 0.0, 0.0, 0.0, 1035.1316374697253, 0.0]
['beep', 0.0, 282.72721561517903, 0.0, 0.0, 0.0, 0.0, 1094.363760276289, 0.0]
['beep', 0.0, 303.5143379586146, 0.0, 0.0, 0.0, 0.0, 1000.4640818195442, 0.0]
['beep', 0.0, 96.67129476920304, 0.0, 0.0, 0.0, 0.0, 331.20814933874004, 0.0]
['beep', 0.0, 202.08212162043117, 0.0, 0.0, 0.0, 0.0, 717.6921627154545, 0.0]
['beep', 0.0, 246.29387215302853, 0.0, 0.0, 0.0, 0.0, 1036.629204348231, 0.0]
['beep', 0.0, 281.8778493258774, 0.0, 0.0, 0.0, 0.0, 1096.5095277439987, 0.0]
['beep', 0.0, 296.8088146220225, 0.0, 0.0, 0.0, 0.0, 995.7702154839296, 0.0]
['beep', 0.0, 90.74808248854667, 0.0, 0.0, 0.0, 0.0, 313.41616075231565, 0.0]
['beep', 0.0, 195.48835700611556, 0.0, 0.0, 0.0, 0.0, 696.0333223382619, 0.0]
['beep', 0.0, 245.15393318580786, 0.0, 0.0, 0.0, 0.0, 1035.1316374697253, 0.0]
['beep', 0.0, 279.7767853470785, 0.0, 0.0, 0.0, 0.0, 1094.6990364431188, 0.0]
['beep', 0.0, 296.7417593886566, 0.0, 0.0, 0.0, 0.0, 994.8090904723514, 0.0]
['beep', 0.0, 88.80348072093496, 0.0, 0.0, 0.0, 0.0, 306.48711997117044, 0.0]
['beep', 0.0, 191.35328428188376, 0.0, 0.0, 0.0, 0.0, 682.868144854086, 0.0]
['beep', 0.0, 245.24334016362909, 0.0, 0.0, 0.0, 0.0, 1034.751657813985, 0.0]
['beep', 0.0, 278.27921846857294, 0.0, 0.0, 0.0, 0.0, 1095.1907748211354, 0.0]
['beep', 0.0, 295.42300646579343, 0.0, 0.0, 0.0, 0.0, 992.0598259043487, 0.0]
['beep', 0.0, 85.47307079709421, 0.0, 0.0, 0.0, 0.0, 294.84186110995546, 0.0]
['beep', 0.0, 185.20655455667432, 0.0, 0.0, 0.0, 0.0, 663.5562376447008, 0.0]
['beep', 0.0, 247.12088669787488, 0.0, 0.0, 0.0, 0.0, 1033.9916985025047, 0.0]
['beep', 0.0, 282.213125492707, 0.0, 0.0, 0.0, 0.0, 1096.3083620439008, 0.0]
['beep', 0.0, 296.0041518216314, 0.0, 0.0, 0.0, 0.0, 988.7070642360526, 0.0]
['beep', 0.0, 81.6509224952367, 0.0, 0.0, 0.0, 0.0, 280.6485033808355, 0.0]
['beep', 0.0, 180.1103568208643, 0.0, 0.0, 0.0, 0.0, 640.8915687670194, 0.0]
['beep', 0.0, 247.1879419312408, 0.0, 0.0, 0.0, 0.0, 1032.91881476865, 0.0]
['beep', 0.0, 280.1567650028187, 0.0, 0.0, 0.0, 0.0, 1096.4424725106326, 0.0]
['beep', 0.0, 293.79132912055604, 0.0, 0.0, 0.0, 0.0, 984.6390467451868, 0.0]
['beep', 0.0, 79.32634107188477, 0.0, 0.0, 0.0, 0.0, 272.6912823547462, 0.0]
['beep', 0.0, 175.3270835074286, 0.0, 0.0, 0.0, 0.0, 626.5417488267123, 0.0]
['beep', 0.0, 247.41145937579387, 0.0, 0.0, 0.0, 0.0, 1029.1860734446136, 0.0]
['beep', 0.0, 280.58144814746953, 0.0, 0.0, 0.0, 0.0, 1091.659199197197, 0.0]
['beep', 0.0, 293.09842504244153, 0.0, 0.0, 0.0, 0.0, 978.402910042156, 0.0]
['beep', 0.0, 76.06298638140993, 0.0, 0.0, 0.0, 0.0, 262.9682735166876, 0.0]
['beep', 0.0, 168.77802238202364, 0.0, 0.0, 0.0, 0.0, 607.0286759172292, 0.0]
['beep', 0.0, 245.8468372639224, 0.0, 0.0, 0.0, 0.0, 1026.302698409879, 0.0]
['beep', 0.0, 279.1509365023299, 0.0, 0.0, 0.0, 0.0, 1092.9556003756047, 0.0]
['beep', 0.0, 291.95848607522083, 0.0, 0.0, 0.0, 0.0, 976.6371222301868, 0.0]
['beep', 0.0, 72.84433517984571, 0.0, 0.0, 0.0, 0.0, 252.28413966705082, 0.0]
['beep', 0.0, 160.88785658930024, 0.0, 0.0, 0.0, 0.0, 585.3027803066708, 0.0]
['beep', 0.0, 243.90223549631068, 0.0, 0.0, 0.0, 0.0, 1025.2521664204796, 0.0]
['beep', 0.0, 278.27921846857294, 0.0, 0.0, 0.0, 0.0, 1091.9497718751159, 0.0]
['beep', 0.0, 290.43856745226, 0.0, 0.0, 0.0, 0.0, 974.8266309293069, 0.0]
['beep', 0.0, 70.47505026758317, 0.0, 0.0, 0.0, 0.0, 246.5173895975816, 0.0]
['beep', 0.0, 155.63519664230307, 0.0, 0.0, 0.0, 0.0, 567.3096260201486, 0.0]
['beep', 0.0, 246.13740994184138, 0.0, 0.0, 0.0, 0.0, 1022.0111634744601, 0.0]
['beep', 0.0, 280.9390760587545, 0.0, 0.0, 0.0, 0.0, 1090.6533706967082, 0.0]
['beep', 0.0, 292.2714104975951, 0.0, 0.0, 0.0, 0.0, 970.6021512272539, 0.0]
['beep', 0.0, 68.6869107111586, 0.0, 0.0, 0.0, 0.0, 238.5825203159476, 0.0]
['beep', 0.0, 149.734336106102, 0.0, 0.0, 0.0, 0.0, 548.2882914886823, 0.0]
['beep', 0.0, 246.29387215302853, 0.0, 0.0, 0.0, 0.0, 1017.9207942391389, 0.0]
['beep', 0.0, 279.5309161580701, 0.0, 0.0, 0.0, 0.0, 1088.5299549734539, 0.0]
['beep', 0.0, 290.37151221889405, 0.0, 0.0, 0.0, 0.0, 966.6905959475752, 0.0]
['beep', 0.0, 65.4906112540497, 0.0, 0.0, 0.0, 0.0, 229.68652602273536, 0.0]
['beep', 0.0, 140.2795482015071, 0.0, 0.0, 0.0, 0.0, 524.6624975994226, 0.0]
['beep', 0.0, 243.47755235165982, 0.0, 0.0, 0.0, 0.0, 1014.1657011706474, 0.0]
['beep', 0.0, 278.03334927956456, 0.0, 0.0, 0.0, 0.0, 1086.8982776282166, 0.0]
['beep', 0.0, 288.56102091801415, 0.0, 0.0, 0.0, 0.0, 965.438898258078, 0.0]
['beep', 0.0, 64.39537577573965, 0.0, 0.0, 0.0, 0.0, 226.64668877681362, 0.0]
['beep', 0.0, 138.35729817835073, 0.0, 0.0, 0.0, 0.0, 513.6654393274116, 0.0]
['beep', 0.0, 247.1655901867855, 0.0, 0.0, 0.0, 0.0, 1012.9140034811502, 0.0]
['beep', 0.0, 280.6708551252908, 0.0, 0.0, 0.0, 0.0, 1087.9264578731606, 0.0]
['beep', 0.0, 290.2597534966175, 0.0, 0.0, 0.0, 0.0, 965.0589186023377, 0.0]
['beep', 0.0, 63.68011995316982, 0.0, 0.0, 0.0, 0.0, 223.04805791950918, 0.0]
['beep', 0.0, 133.41756265372786, 0.0, 0.0, 0.0, 0.0, 497.72864553077767, 0.0]
['beep', 0.0, 245.37745063036093, 0.0, 0.0, 0.0, 0.0, 1009.337724368301, 0.0]
['beep', 0.0, 279.1509365023299, 0.0, 0.0, 0.0, 0.0, 1088.619361951275, 0.0]
['beep', 0.0, 287.86811683989964, 0.0, 0.0, 0.0, 0.0, 961.2814737893908, 0.0]
['beep', 0.0, 60.93085538516705, 0.0, 0.0, 0.0, 0.0, 215.31435433797293, 0.0]
['beep', 0.0, 125.43798988318323, 0.0, 0.0, 0.0, 0.0, 476.1592121314064, 0.0]
['beep', 0.0, 241.8011715175118, 0.0, 0.0, 0.0, 0.0, 1005.4932243219882, 0.0]
['beep', 0.0, 277.7427766016456, 0.0, 0.0, 0.0, 0.0, 1087.2335537950462, 0.0]
['beep', 0.0, 287.1305092728745, 0.0, 0.0, 0.0, 0.0, 959.9403691220724, 0.0]
['beep', 0.0, 59.701509440125164, 0.0, 0.0, 0.0, 0.0, 211.53690952502603, 0.0]
['beep', 0.0, 121.48173111459388, 0.0, 0.0, 0.0, 0.0, 462.30113056911597, 0.0]
['beep', 0.0, 241.30943313949504, 0.0, 0.0, 0.0, 0.0, 1004.0850644213039, 0.0]
['beep', 0.0, 278.63684637985784, 0.0, 0.0, 0.0, 0.0, 1088.1499753177138, 0.0]
['beep', 0.0, 286.92934357277676, 0.0, 0.0, 0.0, 0.0, 957.2358080429802, 0.0]
['beep', 0.0, 58.248646050530205, 0.0, 0.0, 0.0, 0.0, 206.77598795604564, 0.0]
['beep', 0.0, 116.51964384551572, 0.0, 0.0, 0.0, 0.0, 443.65977569338986, 0.0]
['beep', 0.0, 242.0470407065202, 0.0, 0.0, 0.0, 0.0, 1000.307619608357, 0.0]
['beep', 0.0, 278.59214289094723, 0.0, 0.0, 0.0, 0.0, 1086.8982776282166, 0.0]
['beep', 0.0, 286.57171566149185, 0.0, 0.0, 0.0, 0.0, 952.988976596472, 0.0]
['beep', 0.0, 55.85700939381235, 0.0, 0.0, 0.0, 0.0, 199.77989194153452, 0.0]
['beep', 0.0, 106.99780070755492, 0.0, 0.0, 0.0, 0.0, 419.96692657076443, 0.0]
['beep', 0.0, 238.00137496010962, 0.0, 0.0, 0.0, 0.0, 994.0714829053263, 0.0]
['beep', 0.0, 276.69224461224616, 0.0, 0.0, 0.0, 0.0, 1086.2947805279232, 0.0]
['beep', 0.0, 283.6883406267572, 0.0, 0.0, 0.0, 0.0, 950.6420434286647, 0.0]
['beep', 0.0, 54.359442515306775, 0.0, 0.0, 0.0, 0.0, 195.75657793957924, 0.0]
['beep', 0.0, 102.30393437194043, 0.0, 0.0, 0.0, 0.0, 401.12440599494056, 0.0]
['beep', 0.0, 238.6048720604029, 0.0, 0.0, 0.0, 0.0, 987.5894770132873, 0.0]
['beep', 0.0, 276.826355078978, 0.0, 0.0, 0.0, 0.0, 1085.4230624941663, 0.0]
['beep', 0.0, 281.49786967013716, 0.0, 0.0, 0.0, 0.0, 946.3505084932457, 0.0]
['beep', 0.0, 52.25837853650791, 0.0, 0.0, 0.0, 0.0, 190.1239383368419, 0.0]
['beep', 0.0, 97.38655059177287, 0.0, 0.0, 0.0, 0.0, 384.87468777593233, 0.0]
['beep', 0.0, 237.3978778598163, 0.0, 0.0, 0.0, 0.0, 983.6555699891533, 0.0]
['beep', 0.0, 277.4969074126372, 0.0, 0.0, 0.0, 0.0, 1084.886620627239, 0.0]
['beep', 0.0, 281.9449045592433, 0.0, 0.0, 0.0, 0.0, 942.5954154247542, 0.0]
['beep', 0.0, 51.09608782483195, 0.0, 0.0, 0.0, 0.0, 184.93833362321064, 0.0]
['beep', 0.0, 90.59162027735952, 0.0, 0.0, 0.0, 0.0, 366.61331255594644, 0.0]
['beep', 0.0, 235.22975864765152, 0.0, 0.0, 0.0, 0.0, 979.1852210980918, 0.0]
['beep', 0.0, 276.8040033345227, 0.0, 0.0, 0.0, 0.0, 1087.8370508953394, 0.0]
['beep', 0.0, 280.2014684917293, 0.0, 0.0, 0.0, 0.0, 945.2329212704803, 0.0]
['beep', 0.0, 50.02320409097721, 0.0, 0.0, 0.0, 0.0, 183.2396010446073, 0.0]
['beep', 0.0, 87.21650686460816, 0.0, 0.0, 0.0, 0.0, 355.25862637265044, 0.0]
['beep', 0.0, 234.536854569537, 0.0, 0.0, 0.0, 0.0, 975.698348963064, 0.0]
['beep', 0.0, 274.9488085447322, 0.0, 0.0, 0.0, 0.0, 1085.5348212164429, 0.0]
['beep', 0.0, 277.7651283461009, 0.0, 0.0, 0.0, 0.0, 942.7742293803966, 0.0]
['beep', 0.0, 48.79385814593532, 0.0, 0.0, 0.0, 0.0, 180.62444694333638, 0.0]
['beep', 0.0, 82.23206785107469, 0.0, 0.0, 0.0, 0.0, 339.85827444294387, 0.0]
['beep', 0.0, 232.2569766350957, 0.0, 0.0, 0.0, 0.0, 969.082232604293, 0.0]
['beep', 0.0, 275.50760215611484, 0.0, 0.0, 0.0, 0.0, 1085.9595043610937, 0.0]
['beep', 0.0, 278.36862544639416, 0.0, 0.0, 0.0, 0.0, 939.309708989824, 0.0]
['beep', 0.0, 47.56451220089343, 0.0, 0.0, 0.0, 0.0, 176.2658567745515, 0.0]
['beep', 0.0, 77.5382015154602, 0.0, 0.0, 0.0, 0.0, 320.5463672335586, 0.0]
['beep', 0.0, 233.39691560231634, 0.0, 0.0, 0.0, 0.0, 962.9355028790835, 0.0]
['beep', 0.0, 277.4745556681819, 0.0, 0.0, 0.0, 0.0, 1084.171364804669, 0.0]
['beep', 0.0, 278.5697911464919, 0.0, 0.0, 0.0, 0.0, 936.9627758220167, 0.0]
['beep', 0.0, 46.58103544485992, 0.0, 0.0, 0.0, 0.0, 173.69540616219118, 0.0]
['beep', 0.0, 73.1349078577647, 0.0, 0.0, 0.0, 0.0, 308.4987769721481, 0.0]
['beep', 0.0, 231.49701732361524, 0.0, 0.0, 0.0, 0.0, 958.5769127102986, 0.0]
['beep', 0.0, 275.55230564502546, 0.0, 0.0, 0.0, 0.0, 1085.624228194264, 0.0]
['beep', 0.0, 276.55813414551426, 0.0, 0.0, 0.0, 0.0, 935.2193397545028, 0.0]
['beep', 0.0, 45.39639298872864, 0.0, 0.0, 0.0, 0.0, 170.94614159418842, 0.0]
['beep', 0.0, 67.70343395512509, 0.0, 0.0, 0.0, 0.0, 294.953619832232, 0.0]
['beep', 0.0, 228.32306961096165, 0.0, 0.0, 0.0, 0.0, 953.7042324190418, 0.0]
['beep', 0.0, 274.83704982245564, 0.0, 0.0, 0.0, 0.0, 1087.5241264729652, 0.0]
['beep', 0.0, 274.4347184222601, 0.0, 0.0, 0.0, 0.0, 935.8228368547962, 0.0]
['beep', 0.0, 43.87647436576776, 0.0, 0.0, 0.0, 0.0, 168.9568363376661, 0.0]
['beep', 0.0, 63.38954727525083, 0.0, 0.0, 0.0, 0.0, 284.5153551716036, 0.0]
['beep', 0.0, 225.26088062058457, 0.0, 0.0, 0.0, 0.0, 959.4262789996004, 0.0]
['beep', 0.0, 273.0936137549417, 0.0, 0.0, 0.0, 0.0, 1105.2267080815684, 0.0]
['beep', 0.0, 271.6407503653467, 0.0, 0.0, 0.0, 0.0, 953.503066718944, 0.0]
['beep', 0.0, 42.96005284310017, 0.0, 0.0, 0.0, 0.0, 171.41552822774986, 0.0]
['beep', 0.0, 57.645148950236916, 0.0, 0.0, 0.0, 0.0, 278.03334927956456, 0.0]
['beep', 0.0, 220.6117177738807, 0.0, 0.0, 0.0, 0.0, 987.1200903797258, 0.0]
['beep', 0.0, 268.73502358615684, 0.0, 0.0, 0.0, 0.0, 1148.1644091802132, 0.0]
['beep', 0.0, 268.31034044150596, 0.0, 0.0, 0.0, 0.0, 987.1871456130917, 0.0]
['beep', 0.0, 41.417782475683985, 0.0, 0.0, 0.0, 0.0, 174.88004861832246, 0.0]
['beep', 0.0, 53.085393081354276, 0.0, 0.0, 0.0, 0.0, 270.2996456980283, 0.0]
['beep', 0.0, 218.95768868418799, 0.0, 0.0, 0.0, 0.0, 1019.5301198399211, 0.0]
['beep', 0.0, 265.4940206401373, 0.0, 0.0, 0.0, 0.0, 1189.559839911442, 0.0]
['beep', 0.0, 261.0460234935312, 0.0, 0.0, 0.0, 0.0, 1011.1929191580915, 0.0]
['beep', 0.0, 38.86968360777898, 0.0, 0.0, 0.0, 0.0, 174.991807340599, 0.0]
['beep', 0.0, 47.58686394534874, 0.0, 0.0, 0.0, 0.0, 257.00035774712063, 0.0]
['beep', 0.0, 213.10153163689753, 0.0, 0.0, 0.0, 0.0, 1020.2230239180356, 0.0]
['beep', 0.0, 267.32686368547246, 0.0, 0.0, 0.0, 0.0, 1195.5054039365536, 0.0]
['beep', 0.0, 264.8681717953887, 0.0, 0.0, 0.0, 0.0, 1005.8061487443625, 0.0]
['beep', 0.0, 37.95326208511139, 0.0, 0.0, 0.0, 0.0, 168.73331889311302, 0.0]
['beep', 0.0, 44.23410227705268, 0.0, 0.0, 0.0, 0.0, 240.8176947614783, 0.0]
['beep', 0.0, 213.54856652600367, 0.0, 0.0, 0.0, 0.0, 1006.6108115447536, 0.0]
['beep', 0.0, 267.68449159675737, 0.0, 0.0, 0.0, 0.0, 1187.23525848809, 0.0]
['beep', 0.0, 261.9177415272882, 0.0, 0.0, 0.0, 0.0, 998.7206457520301, 0.0]
['beep', 0.0, 37.17095102917565, 0.0, 0.0, 0.0, 0.0, 167.63808341480296, 0.0]
['beep', 0.0, 42.15539004270912, 0.0, 0.0, 0.0, 0.0, 231.7428865126236, 0.0]
['beep', 0.0, 211.7604269695791, 0.0, 0.0, 0.0, 0.0, 995.3678840837341, 0.0]
['beep', 0.0, 267.7962503190339, 0.0, 0.0, 0.0, 0.0, 1182.8543165748497, 0.0]
['beep', 0.0, 260.86720953788875, 0.0, 0.0, 0.0, 0.0, 993.7138549940414, 0.0]
['beep', 0.0, 36.410991717695204, 0.0, 0.0, 0.0, 0.0, 164.64294965779183, 0.0]
['beep', 0.0, 39.60729117480412, 0.0, 0.0, 0.0, 0.0, 219.85175846240026, 0.0]
['beep', 0.0, 211.7380752251238, 0.0, 0.0, 0.0, 0.0, 990.4281485591113, 0.0]
['beep', 0.0, 267.95271253022105, 0.0, 0.0, 0.0, 0.0, 1188.397549199766, 0.0]
['beep', 0.0, 263.0576804945088, 0.0, 0.0, 0.0, 0.0, 999.3241428523235, 0.0]
['beep', 0.0, 37.126247540265034, 0.0, 0.0, 0.0, 0.0, 165.76053688055717, 0.0]
['beep', 0.0, 36.27688125096336, 0.0, 0.0, 0.0, 0.0, 212.0286479030428, 0.0]
['beep', 0.0, 207.603002500892, 0.0, 0.0, 0.0, 0.0, 985.4213578011224, 0.0]
['beep', 0.0, 269.0032445196205, 0.0, 0.0, 0.0, 0.0, 1189.3139707224334, 0.0]
['beep', 0.0, 261.0236717490759, 0.0, 0.0, 0.0, 0.0, 998.5865352852983, 0.0]
['beep', 0.0, 35.78514287294661, 0.0, 0.0, 0.0, 0.0, 163.54771417948177, 0.0]
['beep', 0.0, 34.287575994441035, 0.0, 0.0, 0.0, 0.0, 203.46792977666018, 0.0]
['beep', 0.0, 207.49124377861546, 0.0, 0.0, 0.0, 0.0, 991.4786805485107, 0.0]
['beep', 0.0, 266.96923577418755, 0.0, 0.0, 0.0, 0.0, 1210.0787413214136, 0.0]
['beep', 0.0, 260.82250604897814, 0.0, 0.0, 0.0, 0.0, 1013.8527767482731, 0.0]
['beep', 0.0, 34.84636960582371, 0.0, 0.0, 0.0, 0.0, 162.72069963463542, 0.0]
['beep', 0.0, 29.571357914371244, 0.0, 0.0, 0.0, 0.0, 195.75657793957924, 0.0]
['beep', 0.0, 201.41156928677194, 0.0, 0.0, 0.0, 0.0, 1017.4514076055775, 0.0]
['beep', 0.0, 264.3317299284613, 0.0, 0.0, 0.0, 0.0, 1263.9240937142486, 0.0]
['beep', 0.0, 260.2637124375954, 0.0, 0.0, 0.0, 0.0, 1057.371623202756, 0.0]
['beep', 0.0, 34.62285216127064, 0.0, 0.0, 0.0, 0.0, 169.20270552667446, 0.0]
['beep', 0.0, 27.336183468840538, 0.0, 0.0, 0.0, 0.0, 195.5777639839368, 0.0]
['beep', 0.0, 199.93635415272166, 0.0, 0.0, 0.0, 0.0, 1051.5154661554654, 0.0]
['beep', 0.0, 264.2646746950954, 0.0, 0.0, 0.0, 0.0, 1299.7315883316503, 0.0]
['beep', 0.0, 254.51931411258153, 0.0, 0.0, 0.0, 0.0, 1069.888600097728, 0.0]
['beep', 0.0, 32.834712604846075, 0.0, 0.0, 0.0, 0.0, 168.77802238202364, 0.0]
['beep', 0.0, 23.111703766787503, 0.0, 0.0, 0.0, 0.0, 181.07148183244252, 0.0]
['beep', 0.0, 192.0685401044536, 0.0, 0.0, 0.0, 0.0, 1024.0004687309824, 0.0]
['beep', 0.0, 260.86720953788875, 0.0, 0.0, 0.0, 0.0, 1277.782175276539, 0.0]
['beep', 0.0, 254.25109317911785, 0.0, 0.0, 0.0, 0.0, 1049.8390853213175, 0.0]
['beep', 0.0, 32.25356724900809, 0.0, 0.0, 0.0, 0.0, 162.25131300107398, 0.0]
['beep', 0.0, 20.429494432150655, 0.0, 0.0, 0.0, 0.0, 161.67016764523598, 0.0]
['beep', 0.0, 191.21917381515192, 0.0, 0.0, 0.0, 0.0, 980.1016426207594, 0.0]
['beep', 0.0, 259.1461252148301, 0.0, 0.0, 0.0, 0.0, 1239.0913056244024, 0.0]
['beep', 0.0, 252.32884315596144, 0.0, 0.0, 0.0, 0.0, 1021.5417768408987, 0.0]
['beep', 0.0, 32.588843415837694, 0.0, 0.0, 0.0, 0.0, 159.45734494416058, 0.0]
['beep', 0.0, 11.64525886121498, 0.0, 0.0, 0.0, 0.0, 122.55461484844862, 0.0]
['beep', 0.0, 181.45146148818273, 0.0, 0.0, 0.0, 0.0, 902.116406216193, 0.0]
['beep', 0.0, 263.79528806153394, 0.0, 0.0, 0.0, 0.0, 1195.0136655585368, 0.0]
['beep', 0.0, 261.6048171049139, 0.0, 0.0, 0.0, 0.0, 1002.9451254540832, 0.0]
['beep', 0.0, 37.68504115164771, 0.0, 0.0, 0.0, 0.0, 167.66043515925827, 0.0]
['beep', 0.0, 25.50334042350536, 0.0, 0.0, 0.0, 0.0, 166.69931014768008, 0.0]
['beep', 0.0, 200.56220299747028, 0.0, 0.0, 0.0, 0.0, 933.0288687978828, 0.0]
['beep', 0.0, 267.7962503190339, 0.0, 0.0, 0.0, 0.0, 1162.6483395872522, 0.0]
['beep', 0.0, 263.3035496835172, 0.0, 0.0, 0.0, 0.0, 975.2736658184131, 0.0]
['beep', 0.0, 37.84150336283486, 0.0, 0.0, 0.0, 0.0, 162.40777521226113, 0.0]
['beep', 0.0, 25.257471234496983, 0.0, 0.0, 0.0, 0.0, 156.0822315314092, 0.0]
['beep', 0.0, 203.8255576879451, 0.0, 0.0, 0.0, 0.0, 903.6586765836092, 0.0]
['beep', 0.0, 268.9808927751652, 0.0, 0.0, 0.0, 0.0, 1138.5308073199758, 0.0]
['beep', 0.0, 264.55524737301437, 0.0, 0.0, 0.0, 0.0, 958.6439679436646, 0.0]
['beep', 0.0, 38.57911092985999, 0.0, 0.0, 0.0, 0.0, 160.30671123346227, 0.0]
['beep', 0.0, 22.44115143312829, 0.0, 0.0, 0.0, 0.0, 147.65562387175845, 0.0]
['beep', 0.0, 201.23275533112948, 0.0, 0.0, 0.0, 0.0, 885.0396734523384, 0.0]
['beep', 0.0, 272.04308176554224, 0.0, 0.0, 0.0, 0.0, 1121.3199640893895, 0.0]
['beep', 0.0, 265.67283459577976, 0.0, 0.0, 0.0, 0.0, 945.0541073148379, 0.0]
['beep', 0.0, 37.95326208511139, 0.0, 0.0, 0.0, 0.0, 156.55161816497068, 0.0]
['beep', 0.0, 20.273032220963504, 0.0, 0.0, 0.0, 0.0, 137.44087665568313, 0.0]
['beep', 0.0, 198.17056634075243, 0.0, 0.0, 0.0, 0.0, 867.5159057993777, 0.0]
['beep', 0.0, 271.14901198732997, 0.0, 0.0, 0.0, 0.0, 1112.5357285184537, 0.0]
['beep', 0.0, 266.34338692943896, 0.0, 0.0, 0.0, 0.0, 933.8335315982738, 0.0]
['beep', 0.0, 37.21565451808626, 0.0, 0.0, 0.0, 0.0, 151.05308902896513, 0.0]
['beep', 0.0, 7.621944859259709, 0.0, 0.0, 0.0, 0.0, 92.4021115782394, 0.0]
['beep', 0.0, 180.24446728759617, 0.0, 0.0, 0.0, 0.0, 799.7901200997973, 0.0]
['beep', 0.0, 270.14318348684117, 0.0, 0.0, 0.0, 0.0, 1103.3715132917778, 0.0]
['beep', 0.0, 259.6378635928468, 0.0, 0.0, 0.0, 0.0, 919.5284151468773, 0.0]
['beep', 0.0, 33.25939574949691, 0.0, 0.0, 0.0, 0.0, 142.24650171357413, 0.0]
['beep', 0.0, 5.766750069469222, 0.0, 0.0, 0.0, 0.0, 85.29425684145176, 0.0]
['beep', 0.0, 177.78577539751237, 0.0, 0.0, 0.0, 0.0, 787.5637158827443, 0.0]
['beep', 0.0, 270.1878869757518, 0.0, 0.0, 0.0, 0.0, 1103.88560341425, 0.0]
['beep', 0.0, 261.18013396026305, 0.0, 0.0, 0.0, 0.0, 915.4156941671007, 0.0]
['beep', 0.0, 33.16998877167568, 0.0, 0.0, 0.0, 0.0, 139.2066644676524, 0.0]
['beep', 0.0, 4.4032936576954915, 0.0, 0.0, 0.0, 0.0, 79.19223060515293, 0.0]
['beep', 0.0, 175.86352537435596, 0.0, 0.0, 0.0, 0.0, 773.8844482760965, 0.0]
['beep', 0.0, 270.03142476456463, 0.0, 0.0, 0.0, 0.0, 1099.661123712197, 0.0]
['beep', 0.0, 258.78849730354517, 0.0, 0.0, 0.0, 0.0, 908.1737289635813, 0.0]
['beep', 0.0, 31.6500701487148, 0.0, 0.0, 0.0, 0.0, 134.71396383213568, 0.0]
['beep', 0.0, 3.1515959681982957, 0.0, 0.0, 0.0, 0.0, 71.92791365717812, 0.0]
['beep', 0.0, 172.98015033962136, 0.0, 0.0, 0.0, 0.0, 758.3946893685686, 0.0]
['beep', 0.0, 267.34921542992777, 0.0, 0.0, 0.0, 0.0, 1097.4930045000322, 0.0]
['beep', 0.0, 256.59802634692505, 0.0, 0.0, 0.0, 0.0, 905.8714992846847, 0.0]
['beep', 0.0, 31.27009049297458, 0.0, 0.0, 0.0, 0.0, 133.97635626511052, 0.0]
['beep', 0.0, 1.9669535120670214, 0.0, 0.0, 0.0, 0.0, 67.34580604384018, 0.0]
['beep', 0.0, 171.5943421833923, 0.0, 0.0, 0.0, 0.0, 748.2917008747698, 0.0]
['beep', 0.0, 271.03725326505344, 0.0, 0.0, 0.0, 0.0, 1095.458995754599, 0.0]
['beep', 0.0, 261.0907269824418, 0.0, 0.0, 0.0, 0.0, 901.2223364379807, 0.0]
['beep', 0.0, 31.51595968198296, 0.0, 0.0, 0.0, 0.0, 131.16003646374185, 0.0]
['beep', 0.0, 1.6987325786033367, 0.0, 0.0, 0.0, 0.0, 63.21073331960837, 0.0]
['beep', 0.0, 173.24837127308504, 0.0, 0.0, 0.0, 0.0, 737.898139703052, 0.0]
['beep', 0.0, 269.6514451088244, 0.0, 0.0, 0.0, 0.0, 1091.6815509416522, 0.0]
['beep', 0.0, 257.2909304250396, 0.0, 0.0, 0.0, 0.0, 894.9191445015841, 0.0]
['beep', 0.0, 30.018392803477386, 0.0, 0.0, 0.0, 0.0, 127.76257130653516, 0.0]
['beep', 0.0, 0.20116570009776358, 0.0, 0.0, 0.0, 0.0, 59.65680595121455, 0.0]
['beep', 0.0, 169.38151948231692, 0.0, 0.0, 0.0, 0.0, 731.3714303221024, 0.0]
['beep', 0.0, 270.03142476456463, 0.0, 0.0, 0.0, 0.0, 1090.854536396806, 0.0]
['beep', 0.0, 256.77684030256756, 0.0, 0.0, 0.0, 0.0, 890.9628857329948, 0.0]
['beep', 0.0, 29.72782012555839, 0.0, 0.0, 0.0, 0.0, 126.15324570575306, 0.0]
['beep', 0.0, -0.44703488910614125, 0.0, 0.0, 0.0, 0.0, 55.96876811608888, 0.0]
['beep', 0.0, 167.59337992589235, 0.0, 0.0, 0.0, 0.0, 720.709648216921, 0.0]
['beep', 0.0, 267.729195085668, 0.0, 0.0, 0.0, 0.0, 1085.8700973832724, 0.0]
['beep', 0.0, 256.75448855811226, 0.0, 0.0, 0.0, 0.0, 884.0114932073943, 0.0]
['beep', 0.0, 29.52665442546063, 0.0, 0.0, 0.0, 0.0, 123.58279509339275, 0.0]
['beep', 0.0, -1.2516976894971954, 0.0, 0.0, 0.0, 0.0, 53.06304133689897, 0.0]
['beep', 0.0, 165.00057756907674, 0.0, 0.0, 0.0, 0.0, 713.1547585910272, 0.0]
['beep', 0.0, 266.5222008850814, 0.0, 0.0, 0.0, 0.0, 1084.9760276050602, 0.0]
['beep', 0.0, 255.9721775021765, 0.0, 0.0, 0.0, 0.0, 883.5197548293776, 0.0]
['beep', 0.0, 28.811398602890804, 0.0, 0.0, 0.0, 0.0, 122.55461484844862, 0.0]
['beep', 0.0, -2.168119212164785, 0.0, 0.0, 0.0, 0.0, 49.799686646424135, 0.0]
['beep', 0.0, 163.54771417948177, 0.0, 0.0, 0.0, 0.0, 704.8846131425636, 0.0]
['beep', 0.0, 267.63978810784675, 0.0, 0.0, 0.0, 0.0, 1083.8137368933842, 0.0]
['beep', 0.0, 256.24039843564015, 0.0, 0.0, 0.0, 0.0, 883.0503681958161, 0.0]
['beep', 0.0, 28.856102091801418, 0.0, 0.0, 0.0, 0.0, 122.4652078706274, 0.0]
['beep', 0.0, -2.3692849122625486, 0.0, 0.0, 0.0, 0.0, 47.743326156535886, 0.0]
['beep', 0.0, 165.31350199145103, 0.0, 0.0, 0.0, 0.0, 699.7660636622982, 0.0]
['beep', 0.0, 268.69032009724623, 0.0, 0.0, 0.0, 0.0, 1081.3550450033003, 0.0]
['beep', 0.0, 256.4415641357379, 0.0, 0.0, 0.0, 0.0, 880.345807116724, 0.0]
['beep', 0.0, 28.90080558071203, 0.0, 0.0, 0.0, 0.0, 122.04052472597657, 0.0]
['beep', 0.0, -3.173947712653603, 0.0, 0.0, 0.0, 0.0, 44.90465461071189, 0.0]
['beep', 0.0, 162.74305137909073, 0.0, 0.0, 0.0, 0.0, 690.4677379688904, 0.0]
['beep', 0.0, 269.5396863865479, 0.0, 0.0, 0.0, 0.0, 1079.8351263803395, 0.0]
['beep', 0.0, 257.3132821694949, 0.0, 0.0, 0.0, 0.0, 878.0435774378274, 0.0]
['beep', 0.0, 28.721991625069574, 0.0, 0.0, 0.0, 0.0, 120.83353052538997, 0.0]
['beep', 0.0, -4.112720979776499, 0.0, 0.0, 0.0, 0.0, 41.887169109245434, 0.0]
['beep', 0.0, 161.98309206761027, 0.0, 0.0, 0.0, 0.0, 683.4939936988346, 0.0]
['beep', 0.0, 268.0644712524976, 0.0, 0.0, 0.0, 0.0, 1079.6339606802417, 0.0]
['beep', 0.0, 256.62037809138036, 0.0, 0.0, 0.0, 0.0, 878.9376472160396, 0.0]
['beep', 0.0, 28.789046858435498, 0.0, 0.0, 0.0, 0.0, 121.23586192558551, 0.0]
['beep', 0.0, -4.358590168784877, 0.0, 0.0, 0.0, 0.0, 40.05432606391025, 0.0]
['beep', 0.0, 161.98309206761027, 0.0, 0.0, 0.0, 0.0, 678.2636854962929, 0.0]
['beep', 0.0, 269.8973142978328, 0.0, 0.0, 0.0, 0.0, 1079.3880914912334, 0.0]
['beep', 0.0, 259.07906998146416, 0.0, 0.0, 0.0, 0.0, 877.4177285930788, 0.0]
['beep', 0.0, 29.07961953635449, 0.0, 0.0, 0.0, 0.0, 120.63236482529221, 0.0]
['beep', 0.0, -4.9397355246228605, 0.0, 0.0, 0.0, 0.0, 37.86385510729016, 0.0]
['beep', 0.0, 159.72556587762426, 0.0, 0.0, 0.0, 0.0, 672.6310458935554, 0.0]
['beep', 0.0, 267.8409538079445, 0.0, 0.0, 0.0, 0.0, 1076.4376612231329, 0.0]
['beep', 0.0, 257.02270949157594, 0.0, 0.0, 0.0, 0.0, 872.7685657463749, 0.0]
['beep', 0.0, 28.25260499150813, 0.0, 0.0, 0.0, 0.0, 118.44189386867212, 0.0]
['beep', 0.0, -5.654991347192687, 0.0, 0.0, 0.0, 0.0, 35.15929402819801, 0.0]
['beep', 0.0, 159.32323447742874, 0.0, 0.0, 0.0, 0.0, 665.5902463901338, 0.0]
['beep', 0.0, 267.8409538079445, 0.0, 0.0, 0.0, 0.0, 1077.0188065789707, 0.0]
['beep', 0.0, 256.4639158801932, 0.0, 0.0, 0.0, 0.0, 872.6568070240984, 0.0]
['beep', 0.0, 28.029087546955058, 0.0, 0.0, 0.0, 0.0, 118.57600433540397, 0.0]
['beep', 0.0, -6.39259891421782, 0.0, 0.0, 0.0, 0.0, 33.34880272731814, 0.0]
['beep', 0.0, 156.0375280424986, 0.0, 0.0, 0.0, 0.0, 659.2870544537371, 0.0]
['beep', 0.0, 266.34338692943896, 0.0, 0.0, 0.0, 0.0, 1074.627169922253, 0.0]
['beep', 0.0, 255.54749435752564, 0.0, 0.0, 0.0, 0.0, 870.5557430452994, 0.0]
['beep', 0.0, 27.872625335767907, 0.0, 0.0, 0.0, 0.0, 117.61487932382576, 0.0]
['beep', 0.0, -6.929040781145189, 0.0, 0.0, 0.0, 0.0, 31.35949747079581, 0.0]
['beep', 0.0, 155.0316995420098, 0.0, 0.0, 0.0, 0.0, 653.743821828821, 0.0]
['beep', 0.0, 267.5056776411149, 0.0, 0.0, 0.0, 0.0, 1075.1859635336357, 0.0]
['beep', 0.0, 256.79919204702287, 0.0, 0.0, 0.0, 0.0, 868.2982168553135, 0.0]
['beep', 0.0, 27.447942191117072, 0.0, 0.0, 0.0, 0.0, 116.31847814541796, 0.0]
['beep', 0.0, -7.6442966037150155, 0.0, 0.0, 0.0, 0.0, 28.990212558533262, 0.0]
['beep', 0.0, 154.4282024417165, 0.0, 0.0, 0.0, 0.0, 646.8371327921311, 0.0]
['beep', 0.0, 271.37252943188304, 0.0, 0.0, 0.0, 0.0, 1074.5377629444317, 0.0]
['beep', 0.0, 260.7554508156122, 0.0, 0.0, 0.0, 0.0, 870.1757633895593, 0.0]
['beep', 0.0, 28.54317766942712, 0.0, 0.0, 0.0, 0.0, 117.63723106828107, 0.0]
['beep', 0.0, -7.756055325991551, 0.0, 0.0, 0.0, 0.0, 27.49264568002769, 0.0]
['beep', 0.0, 156.0151762980433, 0.0, 0.0, 0.0, 0.0, 643.0149844902736, 0.0]
['beep', 0.0, 271.1937154762406, 0.0, 0.0, 0.0, 0.0, 1075.7000536561077, 0.0]
['beep', 0.0, 260.08489848195296, 0.0, 0.0, 0.0, 0.0, 870.6898535120313, 0.0]
['beep', 0.0, 28.498474180516506, 0.0, 0.0, 0.0, 0.0, 117.3913618792727, 0.0]
['beep', 0.0, -8.404255915195456, 0.0, 0.0, 0.0, 0.0, 25.57039565687128, 0.0]
['beep', 0.0, 153.24355998558522, 0.0, 0.0, 0.0, 0.0, 634.2978041527039, 0.0]
['beep', 0.0, 270.45610790921546, 0.0, 0.0, 0.0, 0.0, 1070.2238762645575, 0.0]
['beep', 0.0, 259.66021533730213, 0.0, 0.0, 0.0, 0.0, 867.5606092882883, 0.0]
['beep', 0.0, 28.23025324705282, 0.0, 0.0, 0.0, 0.0, 116.92197524571124, 0.0]
['beep', 0.0, -8.739532082025061, 0.0, 0.0, 0.0, 0.0, 23.82695958935733, 0.0]
['beep', 0.0, 152.61771114083663, 0.0, 0.0, 0.0, 0.0, 627.9499087273966, 0.0]
['beep', 0.0, 271.3278259429724, 0.0, 0.0, 0.0, 0.0, 1068.7710128749625, 0.0]
['beep', 0.0, 261.24718919362897, 0.0, 0.0, 0.0, 0.0, 867.538257543833, 0.0]
['beep', 0.0, 28.990212558533262, 0.0, 0.0, 0.0, 0.0, 118.08426595738722, 0.0]
['beep', 0.0, -9.320677437863045, 0.0, 0.0, 0.0, 0.0, 22.239985733030526, 0.0]
['beep', 0.0, 150.22607448411875, 0.0, 0.0, 0.0, 0.0, 623.9265947254413, 0.0]
['beep', 0.0, 270.41140442030485, 0.0, 0.0, 0.0, 0.0, 1069.0392338084262, 0.0]
['beep', 0.0, 260.5542851155144, 0.0, 0.0, 0.0, 0.0, 867.7170714994754, 0.0]
['beep', 0.0, 28.90080558071203, 0.0, 0.0, 0.0, 0.0, 118.12896944629783, 0.0]
['beep', 0.0, -9.745360582513879, 0.0, 0.0, 0.0, 0.0, 20.273032220963504, 0.0]
['beep', 0.0, 150.53899890649308, 0.0, 0.0, 0.0, 0.0, 616.774036499743, 0.0]
['beep', 0.0, 271.37252943188304, 0.0, 0.0, 0.0, 0.0, 1068.0557570523927, 0.0]
['beep', 0.0, 264.6223026063803, 0.0, 0.0, 0.0, 0.0, 867.6500162661096, 0.0]
['beep', 0.0, 29.571357914371244, 0.0, 0.0, 0.0, 0.0, 118.10661770184252, 0.0]
['beep', 0.0, -10.147691982709407, 0.0, 0.0, 0.0, 0.0, 18.686058364636704, 0.0]
['beep', 0.0, 149.64492912828078, 0.0, 0.0, 0.0, 0.0, 609.5991265295895, 0.0]
['beep', 0.0, 270.2325904646624, 0.0, 0.0, 0.0, 0.0, 1065.7311756290408, 0.0]
['beep', 0.0, 261.49305838263734, 0.0, 0.0, 0.0, 0.0, 867.5829610327436, 0.0]
['beep', 0.0, 29.14667476972041, 0.0, 0.0, 0.0, 0.0, 118.24072816857436, 0.0]
['beep', 0.0, -10.639430360726163, 0.0, 0.0, 0.0, 0.0, 17.009677530488673, 0.0]
['beep', 0.0, 147.36505119383946, 0.0, 0.0, 0.0, 0.0, 602.8488997040868, 0.0]
['beep', 0.0, 269.74085208664565, 0.0, 0.0, 0.0, 0.0, 1062.5795796608425, 0.0]
['beep', 0.0, 262.6777008387686, 0.0, 0.0, 0.0, 0.0, 865.7724697318638, 0.0]
['beep', 0.0, 29.4372474476394, 0.0, 0.0, 0.0, 0.0, 118.59835607985927, 0.0]
['beep', 0.0, -11.064113505376996, 0.0, 0.0, 0.0, 0.0, 15.534462396438409, 0.0]
['beep', 0.0, 146.91801630473333, 0.0, 0.0, 0.0, 0.0, 599.1161583800505, 0.0]
['beep', 0.0, 269.9196660422881, 0.0, 0.0, 0.0, 0.0, 1062.4901726830212, 0.0]
['beep', 0.0, 261.9177415272882, 0.0, 0.0, 0.0, 0.0, 862.6655772525761, 0.0]
['beep', 0.0, 28.744343369524884, 0.0, 0.0, 0.0, 0.0, 116.60905082333694, 0.0]
['beep', 0.0, -11.86877630576805, 0.0, 0.0, 0.0, 0.0, 12.762846083980333, 0.0]
['beep', 0.0, 144.48167615910486, 0.0, 0.0, 0.0, 0.0, 587.0462163741847, 0.0]
['beep', 0.0, 270.70197709822384, 0.0, 0.0, 0.0, 0.0, 1059.8303150928398, 0.0]
['beep', 0.0, 264.17526771727415, 0.0, 0.0, 0.0, 0.0, 861.9056179410957, 0.0]
['beep', 0.0, 29.258433491996946, 0.0, 0.0, 0.0, 0.0, 116.8102165234347, 0.0]
['beep', 0.0, -12.315811194874192, 0.0, 0.0, 0.0, 0.0, 11.600555372304365, 0.0]
['beep', 0.0, 142.29120520248475, 0.0, 0.0, 0.0, 0.0, 582.9558471388635, 0.0]
['beep', 0.0, 270.5231631425814, 0.0, 0.0, 0.0, 0.0, 1059.2044662480912, 0.0]
['beep', 0.0, 264.2423229506401, 0.0, 0.0, 0.0, 0.0, 861.1903621185259, 0.0]
['beep', 0.0, 29.01256430298857, 0.0, 0.0, 0.0, 0.0, 116.09496070086489, 0.0]
['beep', 0.0, -12.829901317346254, 0.0, 0.0, 0.0, 0.0, 10.147691982709407, 0.0]
['beep', 0.0, 139.85486505685628, 0.0, 0.0, 0.0, 0.0, 577.9267046364195, 0.0]
['beep', 0.0, 267.1033462409194, 0.0, 0.0, 0.0, 0.0, 1059.852666837295, 0.0]
['beep', 0.0, 261.58246536045857, 0.0, 0.0, 0.0, 0.0, 860.8997894406068, 0.0]
['beep', 0.0, 28.587881158337733, 0.0, 0.0, 0.0, 0.0, 115.8714432563118, 0.0]
['beep', 0.0, -13.120473995265245, 0.0, 0.0, 0.0, 0.0, 8.471311148561377, 0.0]
['beep', 0.0, 139.78780982349036, 0.0, 0.0, 0.0, 0.0, 569.2765795322156, 0.0]
['beep', 0.0, 268.1985817192294, 0.0, 0.0, 0.0, 0.0, 1056.0081667909822, 0.0]
['beep', 0.0, 261.3589479159055, 0.0, 0.0, 0.0, 0.0, 859.379870817646, 0.0]
['beep', 0.0, 28.699639880614267, 0.0, 0.0, 0.0, 0.0, 116.05025721195427, 0.0]
['beep', 0.0, -13.634564117737309, 0.0, 0.0, 0.0, 0.0, 7.130206481242953, 0.0]
['beep', 0.0, 137.41852491122782, 0.0, 0.0, 0.0, 0.0, 563.5098294627463, 0.0]
['beep', 0.0, 268.62326486388025, 0.0, 0.0, 0.0, 0.0, 1055.7399458575185, 0.0]
['beep', 0.0, 263.7058810837127, 0.0, 0.0, 0.0, 0.0, 860.3409958292242, 0.0]
['beep', 0.0, 29.124323025265102, 0.0, 0.0, 0.0, 0.0, 116.09496070086489, 0.0]
['beep', 0.0, -13.880433306745687, 0.0, 0.0, 0.0, 0.0, 6.169081469664749, 0.0]
['beep', 0.0, 136.74797257756862, 0.0, 0.0, 0.0, 0.0, 560.6041026835564, 0.0]
['beep', 0.0, 268.1762299747741, 0.0, 0.0, 0.0, 0.0, 1056.0081667909822, 0.0]
['beep', 0.0, 261.87303803837756, 0.0, 0.0, 0.0, 0.0, 861.8385627077297, 0.0]
['beep', 0.0, 28.856102091801418, 0.0, 0.0, 0.0, 0.0, 116.87727175680062, 0.0]
['beep', 0.0, -14.282764706941213, 0.0, 0.0, 0.0, 0.0, 4.760921568980405, 0.0]
['beep', 0.0, 136.45739989964963, 0.0, 0.0, 0.0, 0.0, 554.7702973807213, 0.0]
['beep', 0.0, 268.55620963051433, 0.0, 0.0, 0.0, 0.0, 1055.3599662017782, 0.0]
['beep', 0.0, 263.19179096124066, 0.0, 0.0, 0.0, 0.0, 860.2962923403136, 0.0]
['beep', 0.0, 28.856102091801418, 0.0, 0.0, 0.0, 0.0, 116.43023686769449, 0.0]
['beep', 0.0, -14.841558318323889, 0.0, 0.0, 0.0, 0.0, 3.241002946019524, 0.0]
['beep', 0.0, 133.08228648689825, 0.0, 0.0, 0.0, 0.0, 546.3436897210705, 0.0]
['beep', 0.0, 267.1704014742853, 0.0, 0.0, 0.0, 0.0, 1054.4435446791106, 0.0]
['beep', 0.0, 262.56594211649207, 0.0, 0.0, 0.0, 0.0, 861.346824329713, 0.0]
['beep', 0.0, 28.856102091801418, 0.0, 0.0, 0.0, 0.0, 116.85492001234532, 0.0]
['beep', 0.0, -15.221537974064109, 0.0, 0.0, 0.0, 0.0, 1.6987325786033367, 0.0]
['beep', 0.0, 130.82476029691225, 0.0, 0.0, 0.0, 0.0, 537.8723785725092, 0.0]
['beep', 0.0, 266.96923577418755, 0.0, 0.0, 0.0, 0.0, 1050.01789927696, 0.0]
['beep', 0.0, 265.35991017340547, 0.0, 0.0, 0.0, 0.0, 860.1621818735817, 0.0]
['beep', 0.0, 29.683116636647778, 0.0, 0.0, 0.0, 0.0, 117.12314094580901, 0.0]
['beep', 0.0, -15.512110651983102, 0.0, 0.0, 0.0, 0.0, 0.40233140019552716, 0.0]
['beep', 0.0, 132.05410624195412, 0.0, 0.0, 0.0, 0.0, 532.843236070065, 0.0]
['beep', 0.0, 268.80207881952276, 0.0, 0.0, 0.0, 0.0, 1048.8109050763733, 0.0]
['beep', 0.0, 262.83416304995575, 0.0, 0.0, 0.0, 0.0, 858.4410975505231, 0.0]
['beep', 0.0, 29.01256430298857, 0.0, 0.0, 0.0, 0.0, 116.72080954561348, 0.0]
['beep', 0.0, -15.914442052178629, 0.0, 0.0, 0.0, 0.0, -0.7599593114804402, 0.0]
['beep', 0.0, 128.96956550712176, 0.0, 0.0, 0.0, 0.0, 527.0094307672299, 0.0]
['beep', 0.0, 266.7457183296345, 0.0, 0.0, 0.0, 0.0, 1050.1520097436917, 0.0]
['beep', 0.0, 263.6164741058915, 0.0, 0.0, 0.0, 0.0, 858.1058213836934, 0.0]
['beep', 0.0, 29.21373000308633, 0.0, 0.0, 0.0, 0.0, 116.74316129006878, 0.0]
['beep', 0.0, -16.294421707918847, 0.0, 0.0, 0.0, 0.0, -2.101063978798864, 0.0]
['beep', 0.0, 126.53322536149328, 0.0, 0.0, 0.0, 0.0, 519.588651608068, 0.0]
['beep', 0.0, 266.61160786290264, 0.0, 0.0, 0.0, 0.0, 1047.693317853608, 0.0]
['beep', 0.0, 265.5163723845926, 0.0, 0.0, 0.0, 0.0, 857.9046556835957, 0.0]
['beep', 0.0, 29.37019221427348, 0.0, 0.0, 0.0, 0.0, 116.85492001234532, 0.0]
['beep', 0.0, -16.652049619203762, 0.0, 0.0, 0.0, 0.0, -3.173947712653603, 0.0]
['beep', 0.0, 125.0133067385324, 0.0, 0.0, 0.0, 0.0, 514.0007154942413, 0.0]
['beep', 0.0, 266.1422212293412, 0.0, 0.0, 0.0, 0.0, 1047.2909864534124, 0.0]
['beep', 0.0, 266.4104421628049, 0.0, 0.0, 0.0, 0.0, 859.9610161734839, 0.0]
['beep', 0.0, 29.83957884783493, 0.0, 0.0, 0.0, 0.0, 117.61487932382576, 0.0]
['beep', 0.0, -16.89791880821214, 0.0, 0.0, 0.0, 0.0, -4.269183190963649, 0.0]
['beep', 0.0, 124.74508580506871, 0.0, 0.0, 0.0, 0.0, 506.8034537796323, 0.0]
['beep', 0.0, 266.7680700740898, 0.0, 0.0, 0.0, 0.0, 1044.4076114186778, 0.0]
['beep', 0.0, 266.27633169607304, 0.0, 0.0, 0.0, 0.0, 859.1787051175481, 0.0]
['beep', 0.0, 30.152503270209227, 0.0, 0.0, 0.0, 0.0, 118.21837642411906, 0.0]
['beep', 0.0, -17.210843230586438, 0.0, 0.0, 0.0, 0.0, -5.297363435907774, 0.0]
['beep', 0.0, 124.25334742705196, 0.0, 0.0, 0.0, 0.0, 500.5673170766017, 0.0]
['beep', 0.0, 268.73502358615684, 0.0, 0.0, 0.0, 0.0, 1042.530064884432, 0.0]
['beep', 0.0, 267.5056776411149, 0.0, 0.0, 0.0, 0.0, 857.4799725389448, 0.0]
['beep', 0.0, 30.331317225851684, 0.0, 0.0, 0.0, 0.0, 118.0172107240213, 0.0]
['beep', 0.0, -17.479064164050122, 0.0, 0.0, 0.0, 0.0, -6.414950658673127, 0.0]
['beep', 0.0, 122.35344914835086, 0.0, 0.0, 0.0, 0.0, 494.26412514020507, 0.0]
['beep', 0.0, 267.68449159675737, 0.0, 0.0, 0.0, 0.0, 1039.981966016527, 0.0]
['beep', 0.0, 267.63978810784675, 0.0, 0.0, 0.0, 0.0, 857.9940626614169, 0.0]
['beep', 0.0, 30.53248292594945, 0.0, 0.0, 0.0, 0.0, 118.77717003550173, 0.0]
['beep', 0.0, -17.81434033087973, 0.0, 0.0, 0.0, 0.0, -7.286668692430102, 0.0]
['beep', 0.0, 121.81700728142349, 0.0, 0.0, 0.0, 0.0, 489.41379659340345, 0.0]
['beep', 0.0, 268.35504393041657, 0.0, 0.0, 0.0, 0.0, 1037.500922381988, 0.0]
['beep', 0.0, 267.61743636339145, 0.0, 0.0, 0.0, 0.0, 856.250626593903, 0.0]
['beep', 0.0, 30.59953815931537, 0.0, 0.0, 0.0, 0.0, 118.75481829104642, 0.0]
['beep', 0.0, -18.149616497709335, 0.0, 0.0, 0.0, 0.0, -8.538366381927299, 0.0]
['beep', 0.0, 119.35831539133972, 0.0, 0.0, 0.0, 0.0, 480.83072672256554, 0.0]
['beep', 0.0, 269.76320383110095, 0.0, 0.0, 0.0, 0.0, 1038.9314340271276, 0.0]
['beep', 0.0, 270.5231631425814, 0.0, 0.0, 0.0, 0.0, 861.0786033962493, 0.0]
['beep', 0.0, 31.024221303966204, 0.0, 0.0, 0.0, 0.0, 120.00651598054363, 0.0]
['beep', 0.0, -18.395485686717713, 0.0, 0.0, 0.0, 0.0, -9.477139649050194, 0.0]
['beep', 0.0, 116.98903047907717, 0.0, 0.0, 0.0, 0.0, 474.88516269745384, 0.0]
['beep', 0.0, 267.63978810784675, 0.0, 0.0, 0.0, 0.0, 1035.4892653810102, 0.0]
['beep', 0.0, 270.43375616476015, 0.0, 0.0, 0.0, 0.0, 857.0776411387493, 0.0]
['beep', 0.0, 31.068924792876818, 0.0, 0.0, 0.0, 0.0, 119.9394607471777, 0.0]
['beep', 0.0, -18.753113598002624, 0.0, 0.0, 0.0, 0.0, -10.460616405083705, 0.0]
['beep', 0.0, 116.02790546749897, 0.0, 0.0, 0.0, 0.0, 467.7549562162109, 0.0]
['beep', 0.0, 267.729195085668, 0.0, 0.0, 0.0, 0.0, 1034.01405024696, 0.0]
['beep', 0.0, 269.36087243090543, 0.0, 0.0, 0.0, 0.0, 858.1728766170594, 0.0]
['beep', 0.0, 30.934814326144974, 0.0, 0.0, 0.0, 0.0, 120.34179214737323, 0.0]
['beep', 0.0, -19.04368627592162, 0.0, 0.0, 0.0, 0.0, -11.533500138938445, 0.0]
['beep', 0.0, 113.18923392167497, 0.0, 0.0, 0.0, 0.0, 461.429412535359, 0.0]
['beep', 0.0, 266.94688402973225, 0.0, 0.0, 0.0, 0.0, 1033.0976287242925, 0.0]
['beep', 0.0, 271.03725326505344, 0.0, 0.0, 0.0, 0.0, 857.927007428051, 0.0]
['beep', 0.0, 31.068924792876818, 0.0, 0.0, 0.0, 0.0, 120.31944040291792, 0.0]
['beep', 0.0, -19.33425895384061, 0.0, 0.0, 0.0, 0.0, -12.40521817269542, 0.0]
['beep', 0.0, 111.02111470951019, 0.0, 0.0, 0.0, 0.0, 454.29920605411604, 0.0]
['beep', 0.0, 265.94105552924344, 0.0, 0.0, 0.0, 0.0, 1029.9907362450047, 0.0]
['beep', 0.0, 271.1937154762406, 0.0, 0.0, 0.0, 0.0, 857.0105859053834, 0.0]
['beep', 0.0, 31.337145726340502, 0.0, 0.0, 0.0, 0.0, 120.18532993618608, 0.0]
['beep', 0.0, -19.46836942057245, 0.0, 0.0, 0.0, 0.0, -13.32163969536301, 0.0]
['beep', 0.0, 110.21645190911913, 0.0, 0.0, 0.0, 0.0, 446.3419850280267, 0.0]
['beep', 0.0, 266.7904218185451, 0.0, 0.0, 0.0, 0.0, 1024.0004687309824, 0.0]
['beep', 0.0, 272.42306142128245, 0.0, 0.0, 0.0, 0.0, 856.1165161271712, 0.0]
['beep', 0.0, 31.918291082178484, 0.0, 0.0, 0.0, 0.0, 120.9005857587559, 0.0]
['beep', 0.0, -19.736590354036135, 0.0, 0.0, 0.0, 0.0, -13.835729817835071, 0.0]
['beep', 0.0, 110.17174842020852, 0.0, 0.0, 0.0, 0.0, 443.30214778210495, 0.0]
['beep', 0.0, 267.4833258966596, 0.0, 0.0, 0.0, 0.0, 1025.922718754139, 0.0]
['beep', 0.0, 272.37835793237184, 0.0, 0.0, 0.0, 0.0, 858.5528562727995, 0.0]
['beep', 0.0, 32.052401548910325, 0.0, 0.0, 0.0, 0.0, 122.75578054854638, 0.0]
['beep', 0.0, -19.87070082076798, 0.0, 0.0, 0.0, 0.0, -14.349819940307134, 0.0]
['beep', 0.0, 107.9365739746778, 0.0, 0.0, 0.0, 0.0, 439.56940645806867, 0.0]
['beep', 0.0, 266.4551456517155, 0.0, 0.0, 0.0, 0.0, 1026.369753643245, 0.0]
['beep', 0.0, 273.0489102660311, 0.0, 0.0, 0.0, 0.0, 861.5256382853554, 0.0]
['beep', 0.0, 32.61119516029301, 0.0, 0.0, 0.0, 0.0, 124.34275440487319, 0.0]
['beep', 0.0, -20.049514776410437, 0.0, 0.0, 0.0, 0.0, -14.886261807234504, 0.0]
['beep', 0.0, 107.10955942983145, 0.0, 0.0, 0.0, 0.0, 434.09322906651846, 0.0]
['beep', 0.0, 264.95757877320995, 0.0, 0.0, 0.0, 0.0, 1022.9946402304936, 0.0]
['beep', 0.0, 273.115965499397, 0.0, 0.0, 0.0, 0.0, 864.0513854088051, 0.0]
['beep', 0.0, 33.32645098286283, 0.0, 0.0, 0.0, 0.0, 126.08619047238714, 0.0]
['beep', 0.0, -20.205976987597584, 0.0, 0.0, 0.0, 0.0, -15.467407163072487, 0.0]
['beep', 0.0, 106.21548965161917, 0.0, 0.0, 0.0, 0.0, 430.494598209214, 0.0]
['beep', 0.0, 265.33755842895016, 0.0, 0.0, 0.0, 0.0, 1024.112227453259, 0.0]
['beep', 0.0, 273.49594515513724, 0.0, 0.0, 0.0, 0.0, 866.7335947434419, 0.0]
['beep', 0.0, 33.572320171871205, 0.0, 0.0, 0.0, 0.0, 127.65081258425863, 0.0]
['beep', 0.0, -20.31773570987412, 0.0, 0.0, 0.0, 0.0, -15.847386818812707, 0.0]
['beep', 0.0, 104.69557102865828, 0.0, 0.0, 0.0, 0.0, 426.5830429295353, 0.0]
['beep', 0.0, 265.00228226212056, 0.0, 0.0, 0.0, 0.0, 1023.2628611639574, 0.0]
['beep', 0.0, 275.3064364560171, 0.0, 0.0, 0.0, 0.0, 868.5440860443218, 0.0]
['beep', 0.0, 34.39933471671757, 0.0, 0.0, 0.0, 0.0, 128.83545504038992, 0.0]
['beep', 0.0, -20.541253154427192, 0.0, 0.0, 0.0, 0.0, -16.406180430195384, 0.0]
['beep', 0.0, 103.68974252816946, 0.0, 0.0, 0.0, 0.0, 421.173920771351, 0.0]
['beep', 0.0, 265.5610758735032, 0.0, 0.0, 0.0, 0.0, 1019.2171954175468, 0.0]
['beep', 0.0, 274.56882888899196, 0.0, 0.0, 0.0, 0.0, 867.024167421361, 0.0]
['beep', 0.0, 34.555796927904716, 0.0, 0.0, 0.0, 0.0, 129.28248992949605, 0.0]
['beep', 0.0, -20.653011876703726, 0.0, 0.0, 0.0, 0.0, -16.920270552667446, 0.0]
['beep', 0.0, 102.39334134976166, 0.0, 0.0, 0.0, 0.0, 419.0728567925521, 0.0]
['beep', 0.0, 265.91870378478814, 0.0, 0.0, 0.0, 0.0, 1021.5417768408987, 0.0]
['beep', 0.0, 276.73694810115677, 0.0, 0.0, 0.0, 0.0, 867.7394232439308, 0.0]
['beep', 0.0, 35.09223879483209, 0.0, 0.0, 0.0, 0.0, 130.19891145216363, 0.0]
['beep', 0.0, -20.78712234343557, 0.0, 0.0, 0.0, 0.0, -17.59082288632666, 0.0]
['beep', 0.0, 100.85107098234546, 0.0, 0.0, 0.0, 0.0, 410.2215659882505, 0.0]
['beep', 0.0, 264.17526771727415, 0.0, 0.0, 0.0, 0.0, 1015.9985442159825, 0.0]
['beep', 0.0, 276.0216922785869, 0.0, 0.0, 0.0, 0.0, 868.3876238331347, 0.0]
['beep', 0.0, 35.49457019502761, 0.0, 0.0, 0.0, 0.0, 131.49531263057145, 0.0]
['beep', 0.0, -20.898881065712104, 0.0, 0.0, 0.0, 0.0, -18.10491300879872, 0.0]
['beep', 0.0, 100.73931226006893, 0.0, 0.0, 0.0, 0.0, 406.7570455976779, 0.0]
['beep', 0.0, 267.57273287448083, 0.0, 0.0, 0.0, 0.0, 1016.8702622497395, 0.0]
['beep', 0.0, 279.66502662480195, 0.0, 0.0, 0.0, 0.0, 870.6898535120313, 0.0]
['beep', 0.0, 36.50039869551643, 0.0, 0.0, 0.0, 0.0, 132.74701032006865, 0.0]
['beep', 0.0, 99.39820759275051, 0.0, 0.0, 0.0, 0.0, 403.2031182292841, 0.0]
['beep', 0.0, 265.33755842895016, 0.0, 0.0, 0.0, 0.0, 1014.5009773374769, 0.0]
['beep', 0.0, 278.97212254668744, 0.0, 0.0, 0.0, 0.0, 872.3215308572687, 0.0]
['beep', 0.0, 37.08154405135442, 0.0, 0.0, 0.0, 0.0, 134.8257225544122, 0.0]
['beep', 0.0, -21.2118054880864, 0.0, 0.0, 0.0, 0.0, -18.86487232027916, 0.0]
['beep', 0.0, 99.30880061492928, 0.0, 0.0, 0.0, 0.0, 399.24685946069474, 0.0]
['beep', 0.0, 267.34921542992777, 0.0, 0.0, 0.0, 0.0, 1014.2774598929238, 0.0]
['beep', 0.0, 280.2014684917293, 0.0, 0.0, 0.0, 0.0, 874.4225948360676, 0.0]
['beep', 0.0, 37.61798591828179, 0.0, 0.0, 0.0, 0.0, 136.27858594400715, 0.0]
['beep', 0.0, -21.278860721452325, 0.0, 0.0, 0.0, 0.0, -19.267203720474686, 0.0]
['beep', 0.0, 99.06293142592091, 0.0, 0.0, 0.0, 0.0, 395.13413848091824, 0.0]
['beep', 0.0, 269.986721275654, 0.0, 0.0, 0.0, 0.0, 1014.5233290819323, 0.0]
['beep', 0.0, 283.80009934903376, 0.0, 0.0, 0.0, 0.0, 879.2729233828692, 0.0]
['beep', 0.0, 38.66851790768122, 0.0, 0.0, 0.0, 0.0, 138.46905690062727, 0.0]
['beep', 0.0, -21.368267699273552, 0.0, 0.0, 0.0, 0.0, -19.535424653938374, 0.0]
['beep', 0.0, 234.38039235834987, 0.0, 0.0, 0.0, 0.0, 907.3467144187349, 0.0]
['beep', 0.0, 296.56294543301414, 0.0, 0.0, 0.0, 0.0, 970.3115785493349, 0.0]
['beep', 0.0, 87.12709988678694, 0.0, 0.0, 0.0, 0.0, 273.7641660886009, 0.0]
['beep', 0.0, -23.446979933617108, 0.0, 0.0, 0.0, 0.0, -26.911500324189703, 0.0]
['beep', 0.0, 42.04363132043258, 0.0, 0.0, 0.0, 0.0, 199.62342973034737, 0.0]
['beep', 0.0, 233.82159874696717, 0.0, 0.0, 0.0, 0.0, 903.5916213502434, 0.0]
['beep', 0.0, 300.31803850150567, 0.0, 0.0, 0.0, 0.0, 969.8198401713181, 0.0]
['beep', 0.0, 88.08822489836514, 0.0, 0.0, 0.0, 0.0, 273.85357306642214, 0.0]
['beep', 0.0, -23.469331678072415, 0.0, 0.0, 0.0, 0.0, -26.956203813100316, 0.0]
['beep', 0.0, 40.41195397519517, 0.0, 0.0, 0.0, 0.0, 194.39312152780553, 0.0]
['beep', 0.0, 232.2569766350957, 0.0, 0.0, 0.0, 0.0, 899.2330311814584, 0.0]
['beep', 0.0, 297.6805326557795, 0.0, 0.0, 0.0, 0.0, 974.0890233622818, 0.0]
['beep', 0.0, 88.91523944321149, 0.0, 0.0, 0.0, 0.0, 279.1285847578746, 0.0]
['beep', 0.0, -23.335221211340574, 0.0, 0.0, 0.0, 0.0, -26.79974160191317, 0.0]
['beep', 0.0, 41.55189294241583, 0.0, 0.0, 0.0, 0.0, 196.1365575953195, 0.0]
['beep', 0.0, 232.56990105747, 0.0, 0.0, 0.0, 0.0, 899.9706387484836, 0.0]
['beep', 0.0, 297.792291378056, 0.0, 0.0, 0.0, 0.0, 974.2901890623796, 0.0]
['beep', 0.0, 91.03865516646566, 0.0, 0.0, 0.0, 0.0, 282.5707534039919, 0.0]
['beep', 0.0, -23.335221211340574, 0.0, 0.0, 0.0, 0.0, -26.732686368547245, 0.0]
['beep', 0.0, 40.63547141974824, 0.0, 0.0, 0.0, 0.0, 194.08019710543124, 0.0]
['beep', 0.0, 231.47466557915993, 0.0, 0.0, 0.0, 0.0, 898.2272026809696, 0.0]
['beep', 0.0, 297.5240704445923, 0.0, 0.0, 0.0, 0.0, 975.921866407617, 0.0]
['beep', 0.0, 92.96090518962207, 0.0, 0.0, 0.0, 0.0, 287.1081575284192, 0.0]
['beep', 0.0, -23.268165977974654, 0.0, 0.0, 0.0, 0.0, -26.531520668449485, 0.0]
['beep', 0.0, 40.70252665311416, 0.0, 0.0, 0.0, 0.0, 194.05784536097593, 0.0]
['beep', 0.0, 232.10051442390855, 0.0, 0.0, 0.0, 0.0, 898.115443958693, 0.0]
['beep', 0.0, 299.31221000101687, 0.0, 0.0, 0.0, 0.0, 978.5146687644326, 0.0]
['beep', 0.0, 94.9502104461444, 0.0, 0.0, 0.0, 0.0, 292.2714104975951, 0.0]
['beep', 0.0, -23.223462489064037, 0.0, 0.0, 0.0, 0.0, -26.39741020171764, 0.0]
['beep', 0.0, 40.72487839756947, 0.0, 0.0, 0.0, 0.0, 193.45434826068262, 0.0]
['beep', 0.0, 232.6369562908359, 0.0, 0.0, 0.0, 0.0, 896.4614148690004, 0.0]
['beep', 0.0, 299.53572744556993, 0.0, 0.0, 0.0, 0.0, 979.6099042427427, 0.0]
['beep', 0.0, 95.8889837132673, 0.0, 0.0, 0.0, 0.0, 294.77480587658954, 0.0]
['beep', 0.0, -23.178759000153423, 0.0, 0.0, 0.0, 0.0, -26.308003223896414, 0.0]
['beep', 0.0, 39.60729117480412, 0.0, 0.0, 0.0, 0.0, 190.57097322594802, 0.0]
['beep', 0.0, 230.75940975659012, 0.0, 0.0, 0.0, 0.0, 893.7121503009976, 0.0]
['beep', 0.0, 299.31221000101687, 0.0, 0.0, 0.0, 0.0, 980.14634610967, 0.0]
['beep', 0.0, 97.58771629187063, 0.0, 0.0, 0.0, 0.0, 299.58043093448055, 0.0]
['beep', 0.0, -23.178759000153423, 0.0, 0.0, 0.0, 0.0, -26.129189268253956, 0.0]
['beep', 0.0, 39.42847721916166, 0.0, 0.0, 0.0, 0.0, 189.72160693664634, 0.0]
['beep', 0.0, 230.3570783563946, 0.0, 0.0, 0.0, 0.0, 894.3379991457462, 0.0]
['beep', 0.0, 298.1275675448856, 0.0, 0.0, 0.0, 0.0, 983.9014391781616, 0.0]
['beep', 0.0, 98.88411747027844, 0.0, 0.0, 0.0, 0.0, 303.2908205140615, 0.0]
['beep', 0.0, -23.156407255698117, 0.0, 0.0, 0.0, 0.0, -25.972727057066805, 0.0]
['beep', 0.0, 38.69086965213653, 0.0, 0.0, 0.0, 0.0, 187.10645283537542, 0.0]
['beep', 0.0, 230.55824405649236, 0.0, 0.0, 0.0, 0.0, 890.3146851437909, 0.0]
['beep', 0.0, 302.8214338805001, 0.0, 0.0, 0.0, 0.0, 980.3698635542231, 0.0]
['beep', 0.0, 100.22522213759687, 0.0, 0.0, 0.0, 0.0, 303.2908205140615, 0.0]
['beep', 0.0, -23.111703766787503, 0.0, 0.0, 0.0, 0.0, -25.9503753126115, 0.0]
['beep', 0.0, 38.6014626743153, 0.0, 0.0, 0.0, 0.0, 183.8654498893559, 0.0]
['beep', 0.0, 230.0665056784756, 0.0, 0.0, 0.0, 0.0, 888.1242141871709, 0.0]
['beep', 0.0, 300.20627977922913, 0.0, 0.0, 0.0, 0.0, 983.4544042890554, 0.0]
['beep', 0.0, 101.11929191580916, 0.0, 0.0, 0.0, 0.0, 307.56000370502517, 0.0]
['beep', 0.0, -22.955241555600352, 0.0, 0.0, 0.0, 0.0, -25.838616590334965, 0.0]
['beep', 0.0, 38.13207604075385, 0.0, 0.0, 0.0, 0.0, 183.06078708896484, 0.0]
['beep', 0.0, 231.87699697935548, 0.0, 0.0, 0.0, 0.0, 888.9512287320172, 0.0]
['beep', 0.0, 302.32969550248333, 0.0, 0.0, 0.0, 0.0, 986.918924679628, 0.0]
['beep', 0.0, 102.01336169402144, 0.0, 0.0, 0.0, 0.0, 310.4433787397598, 0.0]
['beep', 0.0, -22.932889811145046, 0.0, 0.0, 0.0, 0.0, -25.682154379147814, 0.0]
['beep', 0.0, 36.74626788452481, 0.0, 0.0, 0.0, 0.0, 180.24446728759617, 0.0]
['beep', 0.0, 229.37360160036107, 0.0, 0.0, 0.0, 0.0, 885.7996327638189, 0.0]
['beep', 0.0, 300.5862594349694, 0.0, 0.0, 0.0, 0.0, 987.6788839911085, 0.0]
['beep', 0.0, 102.50510007203819, 0.0, 0.0, 0.0, 0.0, 312.9467741187542, 0.0]
['beep', 0.0, -22.932889811145046, 0.0, 0.0, 0.0, 0.0, -25.6374508902372, 0.0]
['beep', 0.0, 36.29923299541867, 0.0, 0.0, 0.0, 0.0, 177.71872016414645, 0.0]
['beep', 0.0, 229.5077120670929, 0.0, 0.0, 0.0, 0.0, 883.631513551654, 0.0]
['beep', 0.0, 301.65914316882413, 0.0, 0.0, 0.0, 0.0, 988.7964712138738, 0.0]
['beep', 0.0, 104.91908847321135, 0.0, 0.0, 0.0, 0.0, 318.1323788323854, 0.0]
['beep', 0.0, -22.798779344413205, 0.0, 0.0, 0.0, 0.0, -25.324526467862903, 0.0]
['beep', 0.0, 36.589805673337665, 0.0, 0.0, 0.0, 0.0, 177.11522306385316, 0.0]
['beep', 0.0, 228.94891845571024, 0.0, 0.0, 0.0, 0.0, 881.9551327175061, 0.0]
['beep', 0.0, 298.1946227782515, 0.0, 0.0, 0.0, 0.0, 990.2046311145582, 0.0]
['beep', 0.0, 105.3884751067728, 0.0, 0.0, 0.0, 0.0, 322.8485969124552, 0.0]
['beep', 0.0, -22.798779344413205, 0.0, 0.0, 0.0, 0.0, -25.12336076776514, 0.0]
['beep', 0.0, 35.606328917304154, 0.0, 0.0, 0.0, 0.0, 174.74593815159062, 0.0]
['beep', 0.0, 227.89838646631082, 0.0, 0.0, 0.0, 0.0, 880.5022693279111, 0.0]
['beep', 0.0, 299.55807919002524, 0.0, 0.0, 0.0, 0.0, 991.5457357818766, 0.0]
['beep', 0.0, 106.79663500745714, 0.0, 0.0, 0.0, 0.0, 325.2849370580837, 0.0]
['beep', 0.0, -22.73172411104728, 0.0, 0.0, 0.0, 0.0, -25.05630553439922, 0.0]
['beep', 0.0, 34.77931437245779, 0.0, 0.0, 0.0, 0.0, 173.18131603971912, 0.0]
['beep', 0.0, 225.6632120207801, 0.0, 0.0, 0.0, 0.0, 877.8200599932743, 0.0]
['beep', 0.0, 299.0886925564638, 0.0, 0.0, 0.0, 0.0, 994.6079247722537, 0.0]
['beep', 0.0, 107.9365739746778, 0.0, 0.0, 0.0, 0.0, 330.11291386043, 0.0]
['beep', 0.0, -22.642317133226054, 0.0, 0.0, 0.0, 0.0, -24.765732856480227, 0.0]
['beep', 0.0, 34.33227948335165, 0.0, 0.0, 0.0, 0.0, 172.98015033962136, 0.0]
['beep', 0.0, 224.83619747593374, 0.0, 0.0, 0.0, 0.0, 878.892943727129, 0.0]
['beep', 0.0, 299.4016169788381, 0.0, 0.0, 0.0, 0.0, 997.0666166623374, 0.0]
['beep', 0.0, 109.54589957545991, 0.0, 0.0, 0.0, 0.0, 333.6221377399132, 0.0]
['beep', 0.0, -22.552910155404827, 0.0, 0.0, 0.0, 0.0, -24.65397413420369, 0.0]
['beep', 0.0, 33.77348587196897, 0.0, 0.0, 0.0, 0.0, 170.32029274943983, 0.0]
['beep', 0.0, 225.59615678741417, 0.0, 0.0, 0.0, 0.0, 873.1708971465704, 0.0]
['beep', 0.0, 299.0886925564638, 0.0, 0.0, 0.0, 0.0, 993.7362067384967, 0.0]
['beep', 0.0, 110.32821063139566, 0.0, 0.0, 0.0, 0.0, 335.6114429964355, 0.0]
['beep', 0.0, -22.552910155404827, 0.0, 0.0, 0.0, 0.0, -24.49751192301654, 0.0]
['beep', 0.0, 33.08058179385445, 0.0, 0.0, 0.0, 0.0, 168.48744970410465, 0.0]
['beep', 0.0, 223.02570617505387, 0.0, 0.0, 0.0, 0.0, 873.2379523799364, 0.0]
['beep', 0.0, 296.697055899746, 0.0, 0.0, 0.0, 0.0, 996.306657350857, 0.0]
['beep', 0.0, 110.4399693536722, 0.0, 0.0, 0.0, 0.0, 339.0089081536422, 0.0]
['beep', 0.0, -22.463503177583597, 0.0, 0.0, 0.0, 0.0, -24.341049711829392, 0.0]
['beep', 0.0, 32.767657371480155, 0.0, 0.0, 0.0, 0.0, 165.60407466937002, 0.0]
['beep', 0.0, 222.1316363968416, 0.0, 0.0, 0.0, 0.0, 869.2369901224364, 0.0]
['beep', 0.0, 295.78063437707834, 0.0, 0.0, 0.0, 0.0, 998.0277416739157, 0.0]
['beep', 0.0, 111.82577750990123, 0.0, 0.0, 0.0, 0.0, 342.4957802886701, 0.0]
['beep', 0.0, -22.418799688672983, 0.0, 0.0, 0.0, 0.0, -24.162235756186934, 0.0]
['beep', 0.0, 32.54413992692708, 0.0, 0.0, 0.0, 0.0, 164.48648744660468, 0.0]
['beep', 0.0, 224.43386607573822, 0.0, 0.0, 0.0, 0.0, 869.4605075669895, 0.0]
['beep', 0.0, 299.26750651210625, 0.0, 0.0, 0.0, 0.0, 998.3183143518346, 0.0]
['beep', 0.0, 114.06095195543195, 0.0, 0.0, 0.0, 0.0, 344.79800996756677, 0.0]
['beep', 0.0, -22.396447944217677, 0.0, 0.0, 0.0, 0.0, -24.005773544999784, 0.0]
['beep', 0.0, 30.75600037050252, 0.0, 0.0, 0.0, 0.0, 161.80427811196782, 0.0]
['beep', 0.0, 221.79636023001197, 0.0, 0.0, 0.0, 0.0, 870.2875221118358, 0.0]
['beep', 0.0, 298.1275675448856, 0.0, 0.0, 0.0, 0.0, 1000.9334684531055, 0.0]
['beep', 0.0, 113.99389672206603, 0.0, 0.0, 0.0, 0.0, 348.86602745843265, 0.0]
['beep', 0.0, -22.329392710851756, 0.0, 0.0, 0.0, 0.0, -23.782256100446716, 0.0]
['beep', 0.0, 30.174855014664534, 0.0, 0.0, 0.0, 0.0, 158.8761995883226, 0.0]
['beep', 0.0, 219.85175846240026, 0.0, 0.0, 0.0, 0.0, 865.5042487984001, 0.0]
['beep', 0.0, 296.42883496628224, 0.0, 0.0, 0.0, 0.0, 1003.7721399989296, 0.0]
['beep', 0.0, 115.29029790047383, 0.0, 0.0, 0.0, 0.0, 353.0681554160304, 0.0]
['beep', 0.0, -22.21763398857522, 0.0, 0.0, 0.0, 0.0, -23.53638691143834, 0.0]
['beep', 0.0, 29.750171870013702, 0.0, 0.0, 0.0, 0.0, 159.77026936653488, 0.0]
['beep', 0.0, 218.55535728399246, 0.0, 0.0, 0.0, 0.0, 867.0688709102716, 0.0]
['beep', 0.0, 297.4123117223158, 0.0, 0.0, 0.0, 0.0, 1002.9227737096279, 0.0]
['beep', 0.0, 116.76551303452409, 0.0, 0.0, 0.0, 0.0, 355.8174199840331, 0.0]
['beep', 0.0, -22.1505787552093, 0.0, 0.0, 0.0, 0.0, -23.29051772242996, 0.0]
['beep', 0.0, 29.683116636647778, 0.0, 0.0, 0.0, 0.0, 157.53509492100417, 0.0]
['beep', 0.0, 218.39889507280532, 0.0, 0.0, 0.0, 0.0, 863.7608127308861, 0.0]
['beep', 0.0, 294.3277709874834, 0.0, 0.0, 0.0, 0.0, 1004.2862301214017, 0.0]
['beep', 0.0, 117.19019617917493, 0.0, 0.0, 0.0, 0.0, 358.9466642077761, 0.0]
['beep', 0.0, -22.08352352184338, 0.0, 0.0, 0.0, 0.0, -23.156407255698117, 0.0]
['beep', 0.0, 29.66076489219247, 0.0, 0.0, 0.0, 0.0, 155.34462396438408, 0.0]
['beep', 0.0, 220.8575869628891, 0.0, 0.0, 0.0, 0.0, 862.732632485942, 0.0]
['beep', 0.0, 296.98762857766496, 0.0, 0.0, 0.0, 0.0, 1006.8119772448513, 0.0]
['beep', 0.0, 118.55365259094866, 0.0, 0.0, 0.0, 0.0, 362.6570537873571, 0.0]
['beep', 0.0, -21.994116544022148, 0.0, 0.0, 0.0, 0.0, -22.932889811145046, 0.0]
['beep', 0.0, 28.476122436061196, 0.0, 0.0, 0.0, 0.0, 153.02004254103215, 0.0]
['beep', 0.0, 218.9800404286433, 0.0, 0.0, 0.0, 0.0, 860.4527545515007, 0.0]
['beep', 0.0, 297.65818091132417, 0.0, 0.0, 0.0, 0.0, 1007.1696051561363, 0.0]
['beep', 0.0, 120.09592295836485, 0.0, 0.0, 0.0, 0.0, 365.69689103327886, 0.0]
['beep', 0.0, -21.949413055111535, 0.0, 0.0, 0.0, 0.0, -22.687020622136668, 0.0]
['beep', 0.0, 27.582052657848916, 0.0, 0.0, 0.0, 0.0, 150.18137099520814, 0.0]
['beep', 0.0, 217.39306657231649, 0.0, 0.0, 0.0, 0.0, 858.0611178947828, 0.0]
['beep', 0.0, 297.4346634667711, 0.0, 0.0, 0.0, 0.0, 1009.7177040240413, 0.0]
['beep', 0.0, 121.23586192558551, 0.0, 0.0, 0.0, 0.0, 369.6084463129576, 0.0]
['beep', 0.0, -21.837654332835, 0.0, 0.0, 0.0, 0.0, -22.485854922038904, 0.0]
['beep', 0.0, 26.598575901815405, 0.0, 0.0, 0.0, 0.0, 147.00742328255456, 0.0]
['beep', 0.0, 214.1967671152076, 0.0, 0.0, 0.0, 0.0, 853.3225480702578, 0.0]
['beep', 0.0, 294.6853988987683, 0.0, 0.0, 0.0, 0.0, 1010.3659046132451, 0.0]
['beep', 0.0, 120.49825435856037, 0.0, 0.0, 0.0, 0.0, 370.1895916687956, 0.0]
['beep', 0.0, -21.837654332835, 0.0, 0.0, 0.0, 0.0, -22.44115143312829, 0.0]
['beep', 0.0, 26.308003223896414, 0.0, 0.0, 0.0, 0.0, 145.04046977048753, 0.0]
['beep', 0.0, 217.57188052795894, 0.0, 0.0, 0.0, 0.0, 851.6238154916543, 0.0]
['beep', 0.0, 296.87586985538843, 0.0, 0.0, 0.0, 0.0, 1007.1919569005915, 0.0]
['beep', 0.0, 121.1911584366749, 0.0, 0.0, 0.0, 0.0, 370.05548120206373, 0.0]
['beep', 0.0, -21.792950843924388, 0.0, 0.0, 0.0, 0.0, -22.329392710851756, 0.0]
['beep', 0.0, 24.676325878658997, 0.0, 0.0, 0.0, 0.0, 140.16778947923058, 0.0]
['beep', 0.0, 214.30852583748413, 0.0, 0.0, 0.0, 0.0, 845.5664927442662, 0.0]
['beep', 0.0, 295.4006547213381, 0.0, 0.0, 0.0, 0.0, 1011.7517127694742, 0.0]
['beep', 0.0, 122.42050438171678, 0.0, 0.0, 0.0, 0.0, 375.19638242678434, 0.0]
['beep', 0.0, -21.658840377192544, 0.0, 0.0, 0.0, 0.0, -22.061171777388072, 0.0]
['beep', 0.0, 24.58691890083777, 0.0, 0.0, 0.0, 0.0, 139.16196097874177, 0.0]
['beep', 0.0, 214.82261595995618, 0.0, 0.0, 0.0, 0.0, 845.3206235552578, 0.0]
['beep', 0.0, 297.1440907888521, 0.0, 0.0, 0.0, 0.0, 1011.9975819584826, 0.0]
['beep', 0.0, 123.7392573045799, 0.0, 0.0, 0.0, 0.0, 378.03505397260835, 0.0]
['beep', 0.0, -21.591785143826623, 0.0, 0.0, 0.0, 0.0, -21.882357821745615, 0.0]
['beep', 0.0, 24.542215411927156, 0.0, 0.0, 0.0, 0.0, 138.0443737559764, 0.0]
['beep', 0.0, 215.2249473601517, 0.0, 0.0, 0.0, 0.0, 844.314795054769, 0.0]
['beep', 0.0, 297.63582916686886, 0.0, 0.0, 0.0, 0.0, 1012.1987476585804, 0.0]
['beep', 0.0, 124.74508580506871, 0.0, 0.0, 0.0, 0.0, 379.8231935290329, 0.0]
['beep', 0.0, -21.54708165491601, 0.0, 0.0, 0.0, 0.0, -21.725895610558464, 0.0]
['beep', 0.0, 23.67049737817018, 0.0, 0.0, 0.0, 0.0, 136.79267606647923, 0.0]
['beep', 0.0, 213.70502873719082, 0.0, 0.0, 0.0, 0.0, 844.9182921550623, 0.0]
['beep', 0.0, 299.20045127874033, 0.0, 0.0, 0.0, 0.0, 1016.0432477048931, 0.0]
['beep', 0.0, 127.94138526217763, 0.0, 0.0, 0.0, 0.0, 386.61812384344626, 0.0]
['beep', 0.0, -21.368267699273552, 0.0, 0.0, 0.0, 0.0, -21.2118054880864, 0.0]
['beep', 0.0, 23.53638691143834, 0.0, 0.0, 0.0, 0.0, 135.87625454381163, 0.0]
['beep', 0.0, 212.22981360314057, 0.0, 0.0, 0.0, 0.0, 841.0737921087494, 0.0]
['beep', 0.0, 295.19948902124037, 0.0, 0.0, 0.0, 0.0, 1013.0704656923373, 0.0]
['beep', 0.0, 126.82379803941227, 0.0, 0.0, 0.0, 0.0, 388.4956703776921, 0.0]
['beep', 0.0, -21.32356421036294, 0.0, 0.0, 0.0, 0.0, -20.98828804353333, 0.0]
['beep', 0.0, 23.156407255698117, 0.0, 0.0, 0.0, 0.0, 134.08811498738706, 0.0]
['beep', 0.0, 212.07335139195342, 0.0, 0.0, 0.0, 0.0, 839.3974112746014, 0.0]
['beep', 0.0, 291.7573203751231, 0.0, 0.0, 0.0, 0.0, 1014.5009773374769, 0.0]
['beep', 0.0, 126.30970791694021, 0.0, 0.0, 0.0, 0.0, 389.9038302783764, 0.0]
['beep', 0.0, -21.2118054880864, 0.0, 0.0, 0.0, 0.0, -20.898881065712104, 0.0]
['beep', 0.0, 22.08352352184338, 0.0, 0.0, 0.0, 0.0, 131.60707135284798, 0.0]
['beep', 0.0, 209.94993566869923, 0.0, 0.0, 0.0, 0.0, 836.379925773135, 0.0]
['beep', 0.0, 291.9361343307655, 0.0, 0.0, 0.0, 0.0, 1013.2269279035245, 0.0]
['beep', 0.0, 127.47199862861618, 0.0, 0.0, 0.0, 0.0, 392.49663263519204, 0.0]
['beep', 0.0, -21.14475025472048, 0.0, 0.0, 0.0, 0.0, -20.585956643337806, 0.0]
['beep', 0.0, 21.61413688828193, 0.0, 0.0, 0.0, 0.0, 129.88598702978933, 0.0]
['beep', 0.0, 209.2346798461294, 0.0, 0.0, 0.0, 0.0, 833.6977164384981, 0.0]
['beep', 0.0, 292.6513901533354, 0.0, 0.0, 0.0, 0.0, 1016.0208959604379, 0.0]
['beep', 0.0, 128.61193759583685, 0.0, 0.0, 0.0, 0.0, 396.4752431482367, 0.0]
['beep', 0.0, -21.07769502135456, 0.0, 0.0, 0.0, 0.0, -20.407142687695348, 0.0]
['beep', 0.0, 20.809474087890877, 0.0, 0.0, 0.0, 0.0, 127.2261294396078, 0.0]
['beep', 0.0, 207.78181645653444, 0.0, 0.0, 0.0, 0.0, 833.0048123603837, 0.0]
['beep', 0.0, 291.5561546750253, 0.0, 0.0, 0.0, 0.0, 1018.4125326171556, 0.0]
['beep', 0.0, 128.50017887356032, 0.0, 0.0, 0.0, 0.0, 398.0622170045635, 0.0]
['beep', 0.0, -21.100046765809868, 0.0, 0.0, 0.0, 0.0, -20.205976987597584, 0.0]
['beep', 0.0, 19.311907209385303, 0.0, 0.0, 0.0, 0.0, 124.18629219368604, 0.0]
['beep', 0.0, 204.67492397724678, 0.0, 0.0, 0.0, 0.0, 825.4052192455792, 0.0]
['beep', 0.0, 290.99736106364264, 0.0, 0.0, 0.0, 0.0, 1015.1268261822256, 0.0]
['beep', 0.0, 130.24361494107424, 0.0, 0.0, 0.0, 0.0, 400.5209088946473, 0.0]
['beep', 0.0, -20.876529321256797, 0.0, 0.0, 0.0, 0.0, -19.848349076312672, 0.0]
['beep', 0.0, 19.066038020376926, 0.0, 0.0, 0.0, 0.0, 122.73342880409108, 0.0]
['beep', 0.0, 204.31729606596187, 0.0, 0.0, 0.0, 0.0, 822.0971610661937, 0.0]
['beep', 0.0, 291.4667476972041, 0.0, 0.0, 0.0, 0.0, 1014.4562738485663, 0.0]
['beep', 0.0, 131.71883007512452, 0.0, 0.0, 0.0, 0.0, 403.80661532957737, 0.0]
['beep', 0.0, -20.76477059898026, 0.0, 0.0, 0.0, 0.0, -19.602479887304295, 0.0]
['beep', 0.0, 18.686058364636704, 0.0, 0.0, 0.0, 0.0, 120.72177180311344, 0.0]
['beep', 0.0, 204.31729606596187, 0.0, 0.0, 0.0, 0.0, 820.8231116322413, 0.0]
['beep', 0.0, 291.9361343307655, 0.0, 0.0, 0.0, 0.0, 1015.3056401378681, 0.0]
['beep', 0.0, 132.23292019759657, 0.0, 0.0, 0.0, 0.0, 405.84062407501034, 0.0]
['beep', 0.0, -20.720067110069646, 0.0, 0.0, 0.0, 0.0, -19.446017676117144, 0.0]
['beep', 0.0, 17.970802542066878, 0.0, 0.0, 0.0, 0.0, 118.53130084649335, 0.0]
['beep', 0.0, 203.33381930992834, 0.0, 0.0, 0.0, 0.0, 819.3925999871016, 0.0]
['beep', 0.0, 294.08190179847503, 0.0, 0.0, 0.0, 0.0, 1018.4572361060663, 0.0]
['beep', 0.0, 135.1386469767865, 0.0, 0.0, 0.0, 0.0, 411.36150495547116, 0.0]
['beep', 0.0, -20.541253154427192, 0.0, 0.0, 0.0, 0.0, -18.976631042555695, 0.0]
['beep', 0.0, 18.171968242164642, 0.0, 0.0, 0.0, 0.0, 118.6877630576805, 0.0]
['beep', 0.0, 204.20553734368534, 0.0, 0.0, 0.0, 0.0, 818.8785098646296, 0.0]
['beep', 0.0, 292.5396314310588, 0.0, 0.0, 0.0, 0.0, 1018.0996081947814, 0.0]
['beep', 0.0, 135.56333012143733, 0.0, 0.0, 0.0, 0.0, 413.10494102298514, 0.0]
['beep', 0.0, -20.47419792106127, 0.0, 0.0, 0.0, 0.0, -18.70841010909201, 0.0]
['beep', 0.0, 17.680229864147886, 0.0, 0.0, 0.0, 0.0, 116.58669907888164, 0.0]
['beep', 0.0, 203.40087454329426, 0.0, 0.0, 0.0, 0.0, 816.0621900632609, 0.0]
['beep', 0.0, 292.07024479749737, 0.0, 0.0, 0.0, 0.0, 1019.4630646065551, 0.0]
['beep', 0.0, 135.87625454381163, 0.0, 0.0, 0.0, 0.0, 415.2730602351499, 0.0]
['beep', 0.0, -20.38479094324004, 0.0, 0.0, 0.0, 0.0, -18.551947897904864, 0.0]
['beep', 0.0, 16.987325786033367, 0.0, 0.0, 0.0, 0.0, 113.07747519939844, 0.0]
['beep', 0.0, 203.8255576879451, 0.0, 0.0, 0.0, 0.0, 811.3906754721016, 0.0]
['beep', 0.0, 292.2267070086845, 0.0, 0.0, 0.0, 0.0, 1019.5301198399211, 0.0]
['beep', 0.0, 137.57498712241497, 0.0, 0.0, 0.0, 0.0, 418.4470079478035, 0.0]
['beep', 0.0, -20.273032220963504, 0.0, 0.0, 0.0, 0.0, -18.239023475530562, 0.0]
['beep', 0.0, 16.60734613029315, 0.0, 0.0, 0.0, 0.0, 112.04929495445431, 0.0]
['beep', 0.0, 203.5349850100261, 0.0, 0.0, 0.0, 0.0, 808.2614312483587, 0.0]
['beep', 0.0, 293.6125151649136, 0.0, 0.0, 0.0, 0.0, 1015.6409163046976, 0.0]
['beep', 0.0, 138.6031673673591, 0.0, 0.0, 0.0, 0.0, 419.58694691502416, 0.0]
['beep', 0.0, -20.16127349868697, 0.0, 0.0, 0.0, 0.0, -17.926099053156264, 0.0]
['beep', 0.0, 15.936793796633935, 0.0, 0.0, 0.0, 0.0, 110.30585888694036, 0.0]
['beep', 0.0, 202.08212162043117, 0.0, 0.0, 0.0, 0.0, 807.3003062367804, 0.0]
['beep', 0.0, 294.0148465651091, 0.0, 0.0, 0.0, 0.0, 1020.4465413625886, 0.0]
['beep', 0.0, 139.72075459012444, 0.0, 0.0, 0.0, 0.0, 422.2468045052057, 0.0]
['beep', 0.0, -20.16127349868697, 0.0, 0.0, 0.0, 0.0, -17.7249333530585, 0.0]
['beep', 0.0, 15.042724018421653, 0.0, 0.0, 0.0, 0.0, 107.19896640765268, 0.0]
['beep', 0.0, 199.62342973034737, 0.0, 0.0, 0.0, 0.0, 801.7794253563196, 0.0]
['beep', 0.0, 291.53380293057, 0.0, 0.0, 0.0, 0.0, 1021.9888117300048, 0.0]
['beep', 0.0, 140.12308599031996, 0.0, 0.0, 0.0, 0.0, 427.18654002982856, 0.0]
['beep', 0.0, -19.9377560541339, 0.0, 0.0, 0.0, 0.0, -17.300250208407668, 0.0]
['beep', 0.0, 15.176834485153496, 0.0, 0.0, 0.0, 0.0, 106.64017279627, 0.0]
['beep', 0.0, 201.43392103122724, 0.0, 0.0, 0.0, 0.0, 802.0476462897833, 0.0]
['beep', 0.0, 293.74662563164543, 0.0, 0.0, 0.0, 0.0, 1023.9334134976166, 0.0]
['beep', 0.0, 141.57594937991493, 0.0, 0.0, 0.0, 0.0, 430.53930169812463, 0.0]
['beep', 0.0, -19.87070082076798, 0.0, 0.0, 0.0, 0.0, -17.03202927494398, 0.0]
['beep', 0.0, 14.68509610713674, 0.0, 0.0, 0.0, 0.0, 104.96379196212196, 0.0]
['beep', 0.0, 201.21040358667418, 0.0, 0.0, 0.0, 0.0, 798.0243322878281, 0.0]
['beep', 0.0, 293.567811676003, 0.0, 0.0, 0.0, 0.0, 1021.206500674069, 0.0]
['beep', 0.0, 141.26302495754064, 0.0, 0.0, 0.0, 0.0, 430.4051912313928, 0.0]
['beep', 0.0, -19.848349076312672, 0.0, 0.0, 0.0, 0.0, -17.03202927494398, 0.0]
['beep', 0.0, 13.813378073379765, 0.0, 0.0, 0.0, 0.0, 102.1921756496639, 0.0]
['beep', 0.0, 200.5845547419256, 0.0, 0.0, 0.0, 0.0, 796.7949863427862, 0.0]
['beep', 0.0, 293.52310818709236, 0.0, 0.0, 0.0, 0.0, 1024.5145588534544, 0.0]
['beep', 0.0, 142.96175753614398, 0.0, 0.0, 0.0, 0.0, 433.73560115523355, 0.0]
['beep', 0.0, -19.71423860958083, 0.0, 0.0, 0.0, 0.0, -16.652049619203762, 0.0]
['beep', 0.0, 13.634564117737309, 0.0, 0.0, 0.0, 0.0, 101.49927157154937, 0.0]
['beep', 0.0, 200.6739617197468, 0.0, 0.0, 0.0, 0.0, 796.0350270313057, 0.0]
['beep', 0.0, 293.9254395872879, 0.0, 0.0, 0.0, 0.0, 1025.63214607622, 0.0]
['beep', 0.0, 144.0346412699987, 0.0, 0.0, 0.0, 0.0, 437.6695081793676, 0.0]
['beep', 0.0, -19.602479887304295, 0.0, 0.0, 0.0, 0.0, -16.227366474552927, 0.0]
['beep', 0.0, 13.209880973086474, 0.0, 0.0, 0.0, 0.0, 99.7111320151248, 0.0]
['beep', 0.0, 199.77989194153452, 0.0, 0.0, 0.0, 0.0, 792.3916926850907, 0.0]
['beep', 0.0, 294.7301023876789, 0.0, 0.0, 0.0, 0.0, 1024.8051315313735, 0.0]
['beep', 0.0, 145.84513257087858, 0.0, 0.0, 0.0, 0.0, 439.2788337801497, 0.0]
['beep', 0.0, -19.423665931661837, 0.0, 0.0, 0.0, 0.0, -16.093256007821086, 0.0]
['beep', 0.0, 12.449921661606034, 0.0, 0.0, 0.0, 0.0, 97.56536454741533, 0.0]
['beep', 0.0, 198.46113901867142, 0.0, 0.0, 0.0, 0.0, 789.4859659059008, 0.0]
['beep', 0.0, 292.5396314310588, 0.0, 0.0, 0.0, 0.0, 1026.0568292208707, 0.0]
['beep', 0.0, 145.97924303761042, 0.0, 0.0, 0.0, 0.0, 443.5033134822027, 0.0]
['beep', 0.0, -19.311907209385303, 0.0, 0.0, 0.0, 0.0, -15.556814140893716, 0.0]
['beep', 0.0, 12.516976894971956, 0.0, 0.0, 0.0, 0.0, 97.1183296583092, 0.0]
['beep', 0.0, 199.64578147480267, 0.0, 0.0, 0.0, 0.0, 788.9271722945181, 0.0]
['beep', 0.0, 294.08190179847503, 0.0, 0.0, 0.0, 0.0, 1025.7662565429516, 0.0]
['beep', 0.0, 147.7897343384903, 0.0, 0.0, 0.0, 0.0, 446.6772611948563, 0.0]
['beep', 0.0, -19.24485197601938, 0.0, 0.0, 0.0, 0.0, -15.154482740698189, 0.0]
['beep', 0.0, 11.80172107240213, 0.0, 0.0, 0.0, 0.0, 95.95603894663321, 0.0]
['beep', 0.0, 196.98592388462114, 0.0, 0.0, 0.0, 0.0, 786.9378670379957, 0.0]
['beep', 0.0, 291.5561546750253, 0.0, 0.0, 0.0, 0.0, 1027.8002652883847, 0.0]
['beep', 0.0, 147.32034770492885, 0.0, 0.0, 0.0, 0.0, 450.0300228631524, 0.0]
['beep', 0.0, -19.088389764832232, 0.0, 0.0, 0.0, 0.0, -14.930965296145118, 0.0]
['beep', 0.0, 11.086465249832303, 0.0, 0.0, 0.0, 0.0, 93.27382961199638, 0.0]
['beep', 0.0, 195.9800953841323, 0.0, 0.0, 0.0, 0.0, 782.7133873359427, 0.0]
['beep', 0.0, 293.16548027580745, 0.0, 0.0, 0.0, 0.0, 1029.2531286779797, 0.0]
['beep', 0.0, 149.6672808727361, 0.0, 0.0, 0.0, 0.0, 454.72388919876687, 0.0]
['beep', 0.0, -18.86487232027916, 0.0, 0.0, 0.0, 0.0, -14.349819940307134, 0.0]
['beep', 0.0, 11.131168738742916, 0.0, 0.0, 0.0, 0.0, 93.11736740080923, 0.0]
['beep', 0.0, 196.04715061749826, 0.0, 0.0, 0.0, 0.0, 783.5180501363337, 0.0]
['beep', 0.0, 293.76897737610074, 0.0, 0.0, 0.0, 0.0, 1030.7059920675745, 0.0]
['beep', 0.0, 150.80721983995676, 0.0, 0.0, 0.0, 0.0, 456.623787477468, 0.0]
['beep', 0.0, -18.820168831368548, 0.0, 0.0, 0.0, 0.0, -14.148654240209371, 0.0]
['beep', 0.0, 10.862947805279232, 0.0, 0.0, 0.0, 0.0, 91.70920750012488, 0.0]
['beep', 0.0, 196.67299946224685, 0.0, 0.0, 0.0, 0.0, 782.8922012915851, 0.0]
['beep', 0.0, 292.7184453867013, 0.0, 0.0, 0.0, 0.0, 1033.1199804687478, 0.0]
['beep', 0.0, 150.15901925075283, 0.0, 0.0, 0.0, 0.0, 458.8589619229987, 0.0]
['beep', 0.0, -18.753113598002624, 0.0, 0.0, 0.0, 0.0, -13.9251367956563, 0.0]
['beep', 0.0, 9.767712326969187, 0.0, 0.0, 0.0, 0.0, 88.2670388540076, 0.0]
['beep', 0.0, 195.08602560592004, 0.0, 0.0, 0.0, 0.0, 776.4548988884568, 0.0]
['beep', 0.0, 293.21018376471807, 0.0, 0.0, 0.0, 0.0, 1032.8517595352841, 0.0]
['beep', 0.0, 152.43889718519418, 0.0, 0.0, 0.0, 0.0, 463.3740143029707, 0.0]
['beep', 0.0, -18.507244408994246, 0.0, 0.0, 0.0, 0.0, -13.388694928728931, 0.0]
['beep', 0.0, 9.58889837132673, 0.0, 0.0, 0.0, 0.0, 87.90941094272267, 0.0]
['beep', 0.0, 193.81197617196753, 0.0, 0.0, 0.0, 0.0, 776.2090296994484, 0.0]
['beep', 0.0, 291.9137825863102, 0.0, 0.0, 0.0, 0.0, 1033.1199804687478, 0.0]
['beep', 0.0, 152.64006288529194, 0.0, 0.0, 0.0, 0.0, 466.68207248235615, 0.0]
['beep', 0.0, -18.41783743117302, 0.0, 0.0, 0.0, 0.0, -12.919308295167482, 0.0]
['beep', 0.0, 8.761883826480368, 0.0, 0.0, 0.0, 0.0, 85.96480917511096, 0.0]
['beep', 0.0, 191.5097464930709, 0.0, 0.0, 0.0, 0.0, 771.0681284747277, 0.0]
['beep', 0.0, 290.5279744300812, 0.0, 0.0, 0.0, 0.0, 1033.3211461688454, 0.0]
['beep', 0.0, 152.8412285853897, 0.0, 0.0, 0.0, 0.0, 469.3195783280824, 0.0]
['beep', 0.0, -18.373133942262406, 0.0, 0.0, 0.0, 0.0, -12.606383872793183, 0.0]
['beep', 0.0, 8.44895940410607, 0.0, 0.0, 0.0, 0.0, 84.89192544125622, 0.0]
['beep', 0.0, 190.5262697370374, 0.0, 0.0, 0.0, 0.0, 770.5540383522557, 0.0]
['beep', 0.0, 288.6280761513801, 0.0, 0.0, 0.0, 0.0, 1033.6787740801303, 0.0]
['beep', 0.0, 154.00351929706565, 0.0, 0.0, 0.0, 0.0, 471.8676771959874, 0.0]
['beep', 0.0, -18.171968242164642, 0.0, 0.0, 0.0, 0.0, -12.226404217052963, 0.0]
['beep', 0.0, 8.113683237276463, 0.0, 0.0, 0.0, 0.0, 83.97550391858863, 0.0]
['beep', 0.0, 190.1462900812972, 0.0, 0.0, 0.0, 0.0, 769.8387825296859, 0.0]
['beep', 0.0, 289.857422096422, 0.0, 0.0, 0.0, 0.0, 1034.8187130473511, 0.0]
['beep', 0.0, 155.59049315339246, 0.0, 0.0, 0.0, 0.0, 474.7063487418114, 0.0]
['beep', 0.0, -17.970802542066878, 0.0, 0.0, 0.0, 0.0, -11.80172107240213, 0.0]
['beep', 0.0, 7.599593114804401, 0.0, 0.0, 0.0, 0.0, 81.9861986620663, 0.0]
['beep', 0.0, 188.82753715843407, 0.0, 0.0, 0.0, 0.0, 764.5190673493228, 0.0]
['beep', 0.0, 289.1645180183075, 0.0, 0.0, 0.0, 0.0, 1034.5504921138875, 0.0]
['beep', 0.0, 155.63519664230307, 0.0, 0.0, 0.0, 0.0, 477.67913075436724, 0.0]
['beep', 0.0, -17.859043819790344, 0.0, 0.0, 0.0, 0.0, -11.444093161117216, 0.0]
['beep', 0.0, 7.174909970153567, 0.0, 0.0, 0.0, 0.0, 80.98037016157748, 0.0]
['beep', 0.0, 187.6875981912134, 0.0, 0.0, 0.0, 0.0, 764.2284946714037, 0.0]
['beep', 0.0, 289.1421662738522, 0.0, 0.0, 0.0, 0.0, 1037.210349704069, 0.0]
['beep', 0.0, 156.77513560952374, 0.0, 0.0, 0.0, 0.0, 480.0484156666298, 0.0]
['beep', 0.0, -17.791988586424424, 0.0, 0.0, 0.0, 0.0, -11.26527920547476, 0.0]
['beep', 0.0, 6.727875081047426, 0.0, 0.0, 0.0, 0.0, 79.21458234960824, 0.0]
['beep', 0.0, 186.9946941130989, 0.0, 0.0, 0.0, 0.0, 761.0321952142949, 0.0]
['beep', 0.0, 289.5444976740477, 0.0, 0.0, 0.0, 0.0, 1038.4843991380214, 0.0]
['beep', 0.0, 157.78096411001255, 0.0, 0.0, 0.0, 0.0, 484.2058401353169, 0.0]
['beep', 0.0, -17.59082288632666, 0.0, 0.0, 0.0, 0.0, -10.706485594092083, 0.0]
['beep', 0.0, 6.750226825502733, 0.0, 0.0, 0.0, 0.0, 78.20875384911942, 0.0]
['beep', 0.0, 188.82753715843407, 0.0, 0.0, 0.0, 0.0, 759.7134422914318, 0.0]
['beep', 0.0, 289.99153256315384, 0.0, 0.0, 0.0, 0.0, 1038.2161782045578, 0.0]
['beep', 0.0, 158.76444086604607, 0.0, 0.0, 0.0, 0.0, 485.7928139916437, 0.0]
['beep', 0.0, -17.523767652960736, 0.0, 0.0, 0.0, 0.0, -10.460616405083705, 0.0]
['beep', 0.0, 6.0126192584776, 0.0, 0.0, 0.0, 0.0, 76.37591080378424, 0.0]
['beep', 0.0, 187.17350806874134, 0.0, 0.0, 0.0, 0.0, 756.5618463232335, 0.0]
['beep', 0.0, 290.34916047443875, 0.0, 0.0, 0.0, 0.0, 1037.5679776153538, 0.0]
['beep', 0.0, 159.8373245999008, 0.0, 0.0, 0.0, 0.0, 487.8938779704426, 0.0]
['beep', 0.0, -17.412008930684202, 0.0, 0.0, 0.0, 0.0, -10.058285004888178, 0.0]
['beep', 0.0, 5.565584369371458, 0.0, 0.0, 0.0, 0.0, 74.58777124735967, 0.0]
['beep', 0.0, 188.11228133586425, 0.0, 0.0, 0.0, 0.0, 751.2644828873257, 0.0]
['beep', 0.0, 292.2043552642292, 0.0, 0.0, 0.0, 0.0, 1036.3833351592225, 0.0]
['beep', 0.0, 161.35724322286168, 0.0, 0.0, 0.0, 0.0, 489.5032035712247, 0.0]
['beep', 0.0, -17.210843230586438, 0.0, 0.0, 0.0, 0.0, -9.745360582513879, 0.0]
['beep', 0.0, 5.073845991354704, 0.0, 0.0, 0.0, 0.0, 72.95609390212225, 0.0]
['beep', 0.0, 185.94416212369944, 0.0, 0.0, 0.0, 0.0, 749.5210468198118, 0.0]
['beep', 0.0, 291.1538232748298, 0.0, 0.0, 0.0, 0.0, 1038.2161782045578, 0.0]
['beep', 0.0, 161.69251938969128, 0.0, 0.0, 0.0, 0.0, 491.9842472057638, 0.0]
['beep', 0.0, -17.166139741675824, 0.0, 0.0, 0.0, 0.0, -9.454787904594887, 0.0]
['beep', 0.0, 4.649162846703869, 0.0, 0.0, 0.0, 0.0, 70.94443690114461, 0.0]
['beep', 0.0, 186.05592084597598, 0.0, 0.0, 0.0, 0.0, 743.7542967503425, 0.0]
['beep', 0.0, 291.7796721195784, 0.0, 0.0, 0.0, 0.0, 1036.4280386481332, 0.0]
['beep', 0.0, 163.25714150156278, 0.0, 0.0, 0.0, 0.0, 495.71698852980006, 0.0]
['beep', 0.0, -16.96497404157806, 0.0, 0.0, 0.0, 0.0, -8.963049526578132, 0.0]
['beep', 0.0, 4.492700635516719, 0.0, 0.0, 0.0, 0.0, 71.1679543456977, 0.0]
['beep', 0.0, 185.05009234548717, 0.0, 0.0, 0.0, 0.0, 745.9224159625073, 0.0]
['beep', 0.0, 290.5950296634471, 0.0, 0.0, 0.0, 0.0, 1039.2667101939571, 0.0]
['beep', 0.0, 163.52536243502647, 0.0, 0.0, 0.0, 0.0, 500.09793044304024, 0.0]
['beep', 0.0, -16.808511830390913, 0.0, 0.0, 0.0, 0.0, -8.314848937374228, 0.0]
['beep', 0.0, 4.045665746410578, 0.0, 0.0, 0.0, 0.0, 70.20682933411949, 0.0]
['beep', 0.0, 182.07731033293132, 0.0, 0.0, 0.0, 0.0, 744.3577938506357, 0.0]
['beep', 0.0, 288.18104126227394, 0.0, 0.0, 0.0, 0.0, 1039.7137450830633, 0.0]
['beep', 0.0, 163.3018449904734, 0.0, 0.0, 0.0, 0.0, 501.8860699994648, 0.0]
['beep', 0.0, -16.696753108114375, 0.0, 0.0, 0.0, 0.0, -8.091331492821157, 0.0]
['beep', 0.0, 3.598630857304437, 0.0, 0.0, 0.0, 0.0, 68.79866943343514, 0.0]
['beep', 0.0, 180.9820748546213, 0.0, 0.0, 0.0, 0.0, 741.2061978824376, 0.0]
['beep', 0.0, 286.52701217258124, 0.0, 0.0, 0.0, 0.0, 1038.0597159933707, 0.0]
['beep', 0.0, 164.97822582462143, 0.0, 0.0, 0.0, 0.0, 503.65185781143407, 0.0]
['beep', 0.0, -16.450883919105998, 0.0, 0.0, 0.0, 0.0, -7.577241370349094, 0.0]
['beep', 0.0, 3.643334346215051, 0.0, 0.0, 0.0, 0.0, 67.54697174393795, 0.0]
['beep', 0.0, 183.15019406678607, 0.0, 0.0, 0.0, 0.0, 739.2392443703704, 0.0]
['beep', 0.0, 288.24809649563986, 0.0, 0.0, 0.0, 0.0, 1041.211311961569, 0.0]
['beep', 0.0, 165.80524036946778, 0.0, 0.0, 0.0, 0.0, 507.29519215764907, 0.0]
['beep', 0.0, -16.339125196829464, 0.0, 0.0, 0.0, 0.0, -7.15255822569826, 0.0]
['beep', 0.0, 3.3527616682960595, 0.0, 0.0, 0.0, 0.0, 66.51879149899382, 0.0]
['beep', 0.0, 181.56322021045926, 0.0, 0.0, 0.0, 0.0, 735.5959100241554, 0.0]
['beep', 0.0, 286.0129220501092, 0.0, 0.0, 0.0, 0.0, 1039.2220067050466, 0.0]
['beep', 0.0, 165.71583339164656, 0.0, 0.0, 0.0, 0.0, 509.08333171407367, 0.0]
['beep', 0.0, -16.160311241187006, 0.0, 0.0, 0.0, 0.0, -6.861985547779268, 0.0]
['beep', 0.0, 2.838671545823997, 0.0, 0.0, 0.0, 0.0, 64.28361705346312, 0.0]
['beep', 0.0, 181.78673765501233, 0.0, 0.0, 0.0, 0.0, 730.3879535660689, 0.0]
['beep', 0.0, 287.3316749729723, 0.0, 0.0, 0.0, 0.0, 1036.986832259516, 0.0]
['beep', 0.0, 167.4369177147052, 0.0, 0.0, 0.0, 0.0, 512.3466864045484, 0.0]
['beep', 0.0, -16.003849029999856, 0.0, 0.0, 0.0, 0.0, -6.146729725209442, 0.0]
['beep', 0.0, 2.3692849122625486, 0.0, 0.0, 0.0, 0.0, 64.08245135336534, 0.0]
['beep', 0.0, 179.57391495393694, 0.0, 0.0, 0.0, 0.0, 731.5278925332896, 0.0]
['beep', 0.0, 286.61641915040246, 0.0, 0.0, 0.0, 0.0, 1040.9430910281053, 0.0]
['beep', 0.0, 168.53215319301526, 0.0, 0.0, 0.0, 0.0, 517.1299597179842, 0.0]
['beep', 0.0, -15.780331585446786, 0.0, 0.0, 0.0, 0.0, -5.6102878582820725, 0.0]
['beep', 0.0, 2.101063978798864, 0.0, 0.0, 0.0, 0.0, 62.339015285851396, 0.0]
['beep', 0.0, 180.49033647660454, 0.0, 0.0, 0.0, 0.0, 726.1858256084712, 0.0]
['beep', 0.0, 288.73983487365666, 0.0, 0.0, 0.0, 0.0, 1038.3949921602002, 0.0]
['beep', 0.0, 169.49327820459345, 0.0, 0.0, 0.0, 0.0, 516.6382213399675, 0.0]
['beep', 0.0, -15.668572863170251, 0.0, 0.0, 0.0, 0.0, -5.498529136005537, 0.0]
['beep', 0.0, 1.5422703674161873, 0.0, 0.0, 0.0, 0.0, 60.57322747388214, 0.0]
['beep', 0.0, 179.05982483146488, 0.0, 0.0, 0.0, 0.0, 721.9836976508734, 0.0]
['beep', 0.0, 288.0916342844527, 0.0, 0.0, 0.0, 0.0, 1036.0704107368483, 0.0]
['beep', 0.0, 170.72262414963535, 0.0, 0.0, 0.0, 0.0, 520.2145004528165, 0.0]
['beep', 0.0, -15.44505541861718, 0.0, 0.0, 0.0, 0.0, -4.693866335614483, 0.0]
['beep', 0.0, 1.3858081562290379, 0.0, 0.0, 0.0, 0.0, 59.92502688467823, 0.0]
['beep', 0.0, 178.05399633097605, 0.0, 0.0, 0.0, 0.0, 720.6649447280104, 0.0]
['beep', 0.0, 285.54353541654774, 0.0, 0.0, 0.0, 0.0, 1040.2278352055355, 0.0]
['beep', 0.0, 170.61086542735882, 0.0, 0.0, 0.0, 0.0, 525.0424772551629, 0.0]
['beep', 0.0, -15.288593207430031, 0.0, 0.0, 0.0, 0.0, -4.224479702053035, 0.0]
['beep', 0.0, 1.1399389672206601, 0.0, 0.0, 0.0, 0.0, 59.25447455101902, 0.0]
['beep', 0.0, 177.11522306385316, 0.0, 0.0, 0.0, 0.0, 721.0896278726611, 0.0]
['beep', 0.0, 285.1412040163522, 0.0, 0.0, 0.0, 0.0, 1041.2336637060241, 0.0]
['beep', 0.0, 171.41552822774986, 0.0, 0.0, 0.0, 0.0, 527.456465656336, 0.0]
['beep', 0.0, -15.132130996242882, 0.0, 0.0, 0.0, 0.0, -3.7550930684915866, 0.0]
['beep', 0.0, 0.5587936113826766, 0.0, 0.0, 0.0, 0.0, 58.02512860597714, 0.0]
['beep', 0.0, 174.58947594040347, 0.0, 0.0, 0.0, 0.0, 717.803921437731, 0.0]
['beep', 0.0, 283.80009934903376, 0.0, 0.0, 0.0, 0.0, 1041.7701055729515, 0.0]
['beep', 0.0, 172.4213567282387, 0.0, 0.0, 0.0, 0.0, 531.5468348916572, 0.0]
['beep', 0.0, -14.819206573868582, 0.0, 0.0, 0.0, 0.0, -2.9504302681005323, 0.0]
['beep', 0.0, 0.46938663356144833, 0.0, 0.0, 0.0, 0.0, 57.645148950236916, 0.0]
['beep', 0.0, 173.87422011783363, 0.0, 0.0, 0.0, 0.0, 716.7980929372422, 0.0]
['beep', 0.0, 283.77774760457845, 0.0, 0.0, 0.0, 0.0, 1042.083029995326, 0.0]
['beep', 0.0, 173.0695573174426, 0.0, 0.0, 0.0, 0.0, 535.1231140045064, 0.0]
['beep', 0.0, -14.662744362681433, 0.0, 0.0, 0.0, 0.0, -2.4363401456284697, 0.0]
['beep', 0.0, 0.20116570009776358, 0.0, 0.0, 0.0, 0.0, 56.3487477718291, 0.0]
['beep', 0.0, 175.3270835074286, 0.0, 0.0, 0.0, 0.0, 714.5182150028008, 0.0]
['beep', 0.0, 284.04596853804213, 0.0, 0.0, 0.0, 0.0, 1040.3395939278118, 0.0]
['beep', 0.0, 173.29307476199565, 0.0, 0.0, 0.0, 0.0, 534.8325413265874, 0.0]
['beep', 0.0, -14.61804087377082, 0.0, 0.0, 0.0, 0.0, -2.3245814233519346, 0.0]
['beep', 0.0, -0.715255822569826, 0.0, 0.0, 0.0, 0.0, 54.225332048574934, 0.0]
['beep', 0.0, 172.24254277259624, 0.0, 0.0, 0.0, 0.0, 708.4832439998679, 0.0]
['beep', 0.0, 282.3695877038941, 0.0, 0.0, 0.0, 0.0, 1040.4513526500884, 0.0]
['beep', 0.0, 174.00833058456547, 0.0, 0.0, 0.0, 0.0, 539.7722768512102, 0.0]
['beep', 0.0, -14.439226918128362, 0.0, 0.0, 0.0, 0.0, -1.4975668785055731, 0.0]
['beep', 0.0, -1.0281802449441249, 0.0, 0.0, 0.0, 0.0, 53.73359367055818, 0.0]
['beep', 0.0, 170.05207181597612, 0.0, 0.0, 0.0, 0.0, 708.3044300442255, 0.0]
['beep', 0.0, 281.52022141459247, 0.0, 0.0, 0.0, 0.0, 1041.434829406122, 0.0]
['beep', 0.0, 175.3270835074286, 0.0, 0.0, 0.0, 0.0, 541.2251402408052, 0.0]
['beep', 0.0, -14.238061218030598, 0.0, 0.0, 0.0, 0.0, -1.0281802449441249, 0.0]
['beep', 0.0, -1.2069942005865815, 0.0, 0.0, 0.0, 0.0, 52.54895121442691, 0.0]
['beep', 0.0, 169.6944439046912, 0.0, 0.0, 0.0, 0.0, 703.4988049863344, 0.0]
['beep', 0.0, 280.2238202361846, 0.0, 0.0, 0.0, 0.0, 1038.5514543713873, 0.0]
['beep', 0.0, 175.48354571861574, 0.0, 0.0, 0.0, 0.0, 542.7003553748555, 0.0]
['beep', 0.0, -14.08159900684345, 0.0, 0.0, 0.0, 0.0, -0.6705523336592119, 0.0]
['beep', 0.0, -1.6987325786033367, 0.0, 0.0, 0.0, 0.0, 50.38083200226212, 0.0]
['beep', 0.0, 169.6944439046912, 0.0, 0.0, 0.0, 0.0, 698.2237932948821, 0.0]
['beep', 0.0, 280.24617198063993, 0.0, 0.0, 0.0, 0.0, 1038.2161782045578, 0.0]
['beep', 0.0, 175.6400079298029, 0.0, 0.0, 0.0, 0.0, 545.1813990093946, 0.0]
['beep', 0.0, -13.880433306745687, 0.0, 0.0, 0.0, 0.0, -0.13411046673184238, 0.0]
['beep', 0.0, -1.721084323058644, 0.0, 0.0, 0.0, 0.0, 49.57616920187107, 0.0]
['beep', 0.0, 168.84507761538956, 0.0, 0.0, 0.0, 0.0, 696.2121362939043, 0.0]
['beep', 0.0, 280.5590964030142, 0.0, 0.0, 0.0, 0.0, 1039.1996549605913, 0.0]
['beep', 0.0, 177.83047888642298, 0.0, 0.0, 0.0, 0.0, 549.361175222537, 0.0]
['beep', 0.0, -13.612212373282, 0.0, 0.0, 0.0, 0.0, 0.5811453558379837, 0.0]
['beep', 0.0, -2.145767467709478, 0.0, 0.0, 0.0, 0.0, 48.525637212471636, 0.0]
['beep', 0.0, 167.30280724797336, 0.0, 0.0, 0.0, 0.0, 693.932258359463, 0.0]
['beep', 0.0, 278.34627370193886, 0.0, 0.0, 0.0, 0.0, 1039.400820660689, 0.0]
['beep', 0.0, 177.18227829721909, 0.0, 0.0, 0.0, 0.0, 550.8363903565872, 0.0]
['beep', 0.0, -13.500453651005467, 0.0, 0.0, 0.0, 0.0, 0.8493662893016684, 0.0]
['beep', 0.0, -2.190470956620092, 0.0, 0.0, 0.0, 0.0, 46.80455288941299, 0.0]
['beep', 0.0, 169.89560960478897, 0.0, 0.0, 0.0, 0.0, 690.8924211135413, 0.0]
['beep', 0.0, 279.8661923248997, 0.0, 0.0, 0.0, 0.0, 1041.591291617309, 0.0]
['beep', 0.0, 179.52921146502632, 0.0, 0.0, 0.0, 0.0, 557.4748584598135, 0.0]
['beep', 0.0, -13.16517748417586, 0.0, 0.0, 0.0, 0.0, 1.9893052565223286, 0.0]
['beep', 0.0, -2.7045610790921546, 0.0, 0.0, 0.0, 0.0, 47.07277382287668, 0.0]
['beep', 0.0, 167.21340027015214, 0.0, 0.0, 0.0, 0.0, 691.741787402843, 0.0]
['beep', 0.0, 279.97795104717625, 0.0, 0.0, 0.0, 0.0, 1044.340556185312, 0.0]
['beep', 0.0, 180.80326089897883, 0.0, 0.0, 0.0, 0.0, 561.6546346729559, 0.0]
['beep', 0.0, -12.874604806256869, 0.0, 0.0, 0.0, 0.0, 2.6151541012709263, 0.0]
['beep', 0.0, -2.81631980136869, 0.0, 0.0, 0.0, 0.0, 45.66461392219233, 0.0]
['beep', 0.0, 167.95100783717726, 0.0, 0.0, 0.0, 0.0, 688.5007844568235, 0.0]
['beep', 0.0, 281.922552814788, 0.0, 0.0, 0.0, 0.0, 1043.692355596108, 0.0]
['beep', 0.0, 181.9879033551101, 0.0, 0.0, 0.0, 0.0, 562.0793178176067, 0.0]
['beep', 0.0, -12.78519782843564, 0.0, 0.0, 0.0, 0.0, 2.7716163124580757, 0.0]
['beep', 0.0, -3.263354690474831, 0.0, 0.0, 0.0, 0.0, 43.94352959913368, 0.0]
['beep', 0.0, 167.25810375906275, 0.0, 0.0, 0.0, 0.0, 683.2704762542816, 0.0]
['beep', 0.0, 281.45316618122655, 0.0, 0.0, 0.0, 0.0, 1042.3959544177, 0.0]
['beep', 0.0, 183.03843534450954, 0.0, 0.0, 0.0, 0.0, 564.1580300519503, 0.0]
['beep', 0.0, -12.606383872793183, 0.0, 0.0, 0.0, 0.0, 3.308058179385445, 0.0]
['beep', 0.0, -3.7550930684915866, 0.0, 0.0, 0.0, 0.0, 43.340032498840394, 0.0]
['beep', 0.0, 164.75470838006837, 0.0, 0.0, 0.0, 0.0, 679.9400663304408, 0.0]
['beep', 0.0, 280.6485033808355, 0.0, 0.0, 0.0, 0.0, 1041.1219049837478, 0.0]
['beep', 0.0, 183.41841500024975, 0.0, 0.0, 0.0, 0.0, 567.4437364868804, 0.0]
['beep', 0.0, -12.382866428240114, 0.0, 0.0, 0.0, 0.0, 4.000962257499964, 0.0]
['beep', 0.0, -3.889203535223429, 0.0, 0.0, 0.0, 0.0, 42.62477667627057, 0.0]
['beep', 0.0, 163.81593511294545, 0.0, 0.0, 0.0, 0.0, 680.0741767971726, 0.0]
['beep', 0.0, 279.37445394688297, 0.0, 0.0, 0.0, 0.0, 1043.7817625739292, 0.0]
['beep', 0.0, 183.01608360005423, 0.0, 0.0, 0.0, 0.0, 568.650730687467, 0.0]
['beep', 0.0, -12.382866428240114, 0.0, 0.0, 0.0, 0.0, 4.291534935418956, 0.0]
['beep', 0.0, -4.358590168784877, 0.0, 0.0, 0.0, 0.0, 41.484837709049906, 0.0]
['beep', 0.0, 163.45830720166055, 0.0, 0.0, 0.0, 0.0, 677.1237465290722, 0.0]
['beep', 0.0, 279.26269522460643, 0.0, 0.0, 0.0, 0.0, 1041.591291617309, 0.0]
['beep', 0.0, 184.4465952451939, 0.0, 0.0, 0.0, 0.0, 572.1152510780396, 0.0]
['beep', 0.0, -11.891128050223358, 0.0, 0.0, 0.0, 0.0, 5.230308202541853, 0.0]
['beep', 0.0, -4.447997146606106, 0.0, 0.0, 0.0, 0.0, 40.99309933103315, 0.0]
['beep', 0.0, 162.13955427879742, 0.0, 0.0, 0.0, 0.0, 676.1626215174939, 0.0]
['beep', 0.0, 277.7874800905562, 0.0, 0.0, 0.0, 0.0, 1043.6476521071975, 0.0]
['beep', 0.0, 184.93833362321064, 0.0, 0.0, 0.0, 0.0, 576.7644139247434, 0.0]
['beep', 0.0, -11.757017583491516, 0.0, 0.0, 0.0, 0.0, 5.945564025111679, 0.0]
['beep', 0.0, -4.760921568980405, 0.0, 0.0, 0.0, 0.0, 39.78610513044657, 0.0]
['beep', 0.0, 161.89368508978905, 0.0, 0.0, 0.0, 0.0, 673.6592261384995, 0.0]
['beep', 0.0, 281.0061312921204, 0.0, 0.0, 0.0, 0.0, 1045.8828265527281, 0.0]
['beep', 0.0, 187.10645283537542, 0.0, 0.0, 0.0, 0.0, 579.133698837006, 0.0]
['beep', 0.0, -11.555851883393752, 0.0, 0.0, 0.0, 0.0, 6.280840191941285, 0.0]
['beep', 0.0, -5.230308202541853, 0.0, 0.0, 0.0, 0.0, 38.40029697421753, 0.0]
['beep', 0.0, 161.4019467117723, 0.0, 0.0, 0.0, 0.0, 670.6640923814884, 0.0]
['beep', 0.0, 278.30157021302824, 0.0, 0.0, 0.0, 0.0, 1045.4581434080771, 0.0]
['beep', 0.0, 187.0170458575542, 0.0, 0.0, 0.0, 0.0, 581.7265011938216, 0.0]
['beep', 0.0, -11.33233443884068, 0.0, 0.0, 0.0, 0.0, 6.929040781145189, 0.0]
['beep', 0.0, -5.364418669273695, 0.0, 0.0, 0.0, 0.0, 37.37211672927341, 0.0]
['beep', 0.0, 160.10554553336448, 0.0, 0.0, 0.0, 0.0, 667.0878132686393, 0.0]
['beep', 0.0, 275.26173296710647, 0.0, 0.0, 0.0, 0.0, 1043.2453207070018, 0.0]
['beep', 0.0, 186.12297607934192, 0.0, 0.0, 0.0, 0.0, 582.8440884165869, 0.0]
['beep', 0.0, -11.10881699428761, 0.0, 0.0, 0.0, 0.0, 7.577241370349094, 0.0]
['beep', 0.0, -5.677343091647994, 0.0, 0.0, 0.0, 0.0, 37.10389579580973, 0.0]
['beep', 0.0, 158.71973737713546, 0.0, 0.0, 0.0, 0.0, 666.1043365126058, 0.0]
['beep', 0.0, 275.23938122265116, 0.0, 0.0, 0.0, 0.0, 1044.787591074418, 0.0]
['beep', 0.0, 187.55348772448156, 0.0, 0.0, 0.0, 0.0, 585.5262977512239, 0.0]
['beep', 0.0, -11.04176176092169, 0.0, 0.0, 0.0, 0.0, 7.957221026089314, 0.0]
['beep', 0.0, -5.9902675140222925, 0.0, 0.0, 0.0, 0.0, 35.203997517108625, 0.0]
['beep', 0.0, 158.67503388822485, 0.0, 0.0, 0.0, 0.0, 660.3375864431365, 0.0]
['beep', 0.0, 275.14997424482993, 0.0, 0.0, 0.0, 0.0, 1045.6369573637196, 0.0]
['beep', 0.0, 187.64289470230278, 0.0, 0.0, 0.0, 0.0, 590.2648675757489, 0.0]
['beep', 0.0, -10.751189083002696, 0.0, 0.0, 0.0, 0.0, 8.918346037667519, 0.0]
['beep', 0.0, -6.303191936396591, 0.0, 0.0, 0.0, 0.0, 34.62285216127064, 0.0]
['beep', 0.0, 157.2892257319958, 0.0, 0.0, 0.0, 0.0, 659.1082404980947, 0.0]
['beep', 0.0, 276.2899132120506, 0.0, 0.0, 0.0, 0.0, 1046.620434119753, 0.0]
['beep', 0.0, 190.01217961456533, 0.0, 0.0, 0.0, 0.0, 593.1035391215729, 0.0]
['beep', 0.0, -10.482968149539012, 0.0, 0.0, 0.0, 0.0, 9.454787904594887, 0.0]
['beep', 0.0, -6.61611635877089, 0.0, 0.0, 0.0, 0.0, 33.751134127513666, 0.0]
['beep', 0.0, 156.19399025368574, 0.0, 0.0, 0.0, 0.0, 657.5436183862232, 0.0]
['beep', 0.0, 276.1110992564081, 0.0, 0.0, 0.0, 0.0, 1048.1850562316247, 0.0]
['beep', 0.0, 190.5039179925821, 0.0, 0.0, 0.0, 0.0, 596.6574664899667, 0.0]
['beep', 0.0, -10.304154193896556, 0.0, 0.0, 0.0, 0.0, 10.125340238254099, 0.0]
['beep', 0.0, -6.839633803323961, 0.0, 0.0, 0.0, 0.0, 32.834712604846075, 0.0]
['beep', 0.0, 156.3281007204176, 0.0, 0.0, 0.0, 0.0, 655.3754991740584, 0.0]
['beep', 0.0, 277.98864579065395, 0.0, 0.0, 0.0, 0.0, 1047.1792277311358, 0.0]
['beep', 0.0, 192.15794708227483, 0.0, 0.0, 0.0, 0.0, 597.8644606905533, 0.0]
['beep', 0.0, -10.035933260432872, 0.0, 0.0, 0.0, 0.0, 10.550023382904934, 0.0]
['beep', 0.0, -7.174909970153567, 0.0, 0.0, 0.0, 0.0, 31.71712538208072, 0.0]
['beep', 0.0, 154.87523733082264, 0.0, 0.0, 0.0, 0.0, 652.8050485616981, 0.0]
['beep', 0.0, 276.51343065660365, 0.0, 0.0, 0.0, 0.0, 1047.1345242422253, 0.0]
['beep', 0.0, 192.4038162712832, 0.0, 0.0, 0.0, 0.0, 599.5408415247014, 0.0]
['beep', 0.0, -9.96887802706695, 0.0, 0.0, 0.0, 0.0, 11.10881699428761, 0.0]
['beep', 0.0, -7.510186136983173, 0.0, 0.0, 0.0, 0.0, 30.577186414860062, 0.0]
['beep', 0.0, 155.81401059794553, 0.0, 0.0, 0.0, 0.0, 649.1170107265724, 0.0]
['beep', 0.0, 277.1392795013523, 0.0, 0.0, 0.0, 0.0, 1046.9110067976721, 0.0]
['beep', 0.0, 192.0908918489089, 0.0, 0.0, 0.0, 0.0, 599.9878764138075, 0.0]
['beep', 0.0, -9.879471049245721, 0.0, 0.0, 0.0, 0.0, 11.309982694385374, 0.0]
['beep', 0.0, -7.845462303812779, 0.0, 0.0, 0.0, 0.0, 28.699639880614267, 0.0]
['beep', 0.0, 154.04822278597626, 0.0, 0.0, 0.0, 0.0, 641.807990289687, 0.0]
['beep', 0.0, 276.3122649565059, 0.0, 0.0, 0.0, 0.0, 1044.497018396499, 0.0]
['beep', 0.0, 191.73326393762397, 0.0, 0.0, 0.0, 0.0, 602.2230508593382, 0.0]
['beep', 0.0, -9.924174538156336, 0.0, 0.0, 0.0, 0.0, 11.689962350125594, 0.0]
['beep', 0.0, -8.337200681829534, 0.0, 0.0, 0.0, 0.0, 27.62675614675953, 0.0]
['beep', 0.0, 152.01421404054332, 0.0, 0.0, 0.0, 0.0, 637.1811791874385, 0.0]
['beep', 0.0, 274.0547387665199, 0.0, 0.0, 0.0, 0.0, 1043.2453207070018, 0.0]
['beep', 0.0, 192.7390924381128, 0.0, 0.0, 0.0, 0.0, 604.6370392605113, 0.0]
['beep', 0.0, -9.566546626871423, 0.0, 0.0, 0.0, 0.0, 12.47227340606134, 0.0]
['beep', 0.0, -8.560718126382605, 0.0, 0.0, 0.0, 0.0, 26.665631135181325, 0.0]
['beep', 0.0, 151.00838554005452, 0.0, 0.0, 0.0, 0.0, 635.258929164282, 0.0]
['beep', 0.0, 275.23938122265116, 0.0, 0.0, 0.0, 0.0, 1043.5805968738314, 0.0]
['beep', 0.0, 194.3260662944396, 0.0, 0.0, 0.0, 0.0, 607.5874695286119, 0.0]
['beep', 0.0, -9.231270460041817, 0.0, 0.0, 0.0, 0.0, 13.209880973086474, 0.0]
['beep', 0.0, -8.851290804301597, 0.0, 0.0, 0.0, 0.0, 26.10683752379865, 0.0]
['beep', 0.0, 150.6284058843143, 0.0, 0.0, 0.0, 0.0, 634.4095628749803, 0.0]
['beep', 0.0, 274.23355272216236, 0.0, 0.0, 0.0, 0.0, 1046.4416201641106, 0.0]
['beep', 0.0, 194.79545292800105, 0.0, 0.0, 0.0, 0.0, 611.163748641461, 0.0]
['beep', 0.0, -8.985401271033439, 0.0, 0.0, 0.0, 0.0, 14.014543773477529, 0.0]
['beep', 0.0, -9.030104759944054, 0.0, 0.0, 0.0, 0.0, 25.905671823700885, 0.0]
['beep', 0.0, 147.8344378274009, 0.0, 0.0, 0.0, 0.0, 633.6496035634999, 0.0]
['beep', 0.0, 270.1878869757518, 0.0, 0.0, 0.0, 0.0, 1047.0898207533146, 0.0]
['beep', 0.0, 194.9519151391882, 0.0, 0.0, 0.0, 0.0, 615.6117457880671, 0.0]
['beep', 0.0, -8.583069870837912, 0.0, 0.0, 0.0, 0.0, 14.953317040600425, 0.0]
['beep', 0.0, -9.186566971131203, 0.0, 0.0, 0.0, 0.0, 25.05630553439922, 0.0]
['beep', 0.0, 147.92384480522213, 0.0, 0.0, 0.0, 0.0, 630.4980075953016, 0.0]
['beep', 0.0, 271.03725326505344, 0.0, 0.0, 0.0, 0.0, 1044.20644571858, 0.0]
['beep', 0.0, 195.957743639677, 0.0, 0.0, 0.0, 0.0, 615.2988213656928, 0.0]
['beep', 0.0, -8.404255915195456, 0.0, 0.0, 0.0, 0.0, 15.288593207430031, 0.0]
['beep', 0.0, -9.410084415684274, 0.0, 0.0, 0.0, 0.0, 23.849311333812636, 0.0]
['beep', 0.0, 147.99090003858805, 0.0, 0.0, 0.0, 0.0, 626.1170656820615, 0.0]
['beep', 0.0, 270.5455148870367, 0.0, 0.0, 0.0, 0.0, 1044.9664050300605, 0.0]
['beep', 0.0, 196.02479887304293, 0.0, 0.0, 0.0, 0.0, 619.612708045567, 0.0]
['beep', 0.0, -8.247793704008306, 0.0, 0.0, 0.0, 0.0, 16.182662985642313, 0.0]
['beep', 0.0, -9.58889837132673, 0.0, 0.0, 0.0, 0.0, 23.178759000153423, 0.0]
['beep', 0.0, 147.54386514948192, 0.0, 0.0, 0.0, 0.0, 624.7089057813771, 0.0]
['beep', 0.0, 270.3219974424836, 0.0, 0.0, 0.0, 0.0, 1046.598082375298, 0.0]
['beep', 0.0, 196.33772329541725, 0.0, 0.0, 0.0, 0.0, 622.2502138912934, 0.0]
['beep', 0.0, -8.024276259455236, 0.0, 0.0, 0.0, 0.0, 16.786160085935602, 0.0]
['beep', 0.0, -9.96887802706695, 0.0, 0.0, 0.0, 0.0, 22.172930499664606, 0.0]
['beep', 0.0, 145.68867035969143, 0.0, 0.0, 0.0, 0.0, 619.9479842123967, 0.0]
['beep', 0.0, 269.5843898754585, 0.0, 0.0, 0.0, 0.0, 1042.6641753511637, 0.0]
['beep', 0.0, 196.38242678432786, 0.0, 0.0, 0.0, 0.0, 622.1384551690168, 0.0]
['beep', 0.0, -7.9125175371787, 0.0, 0.0, 0.0, 0.0, 17.277898463952358, 0.0]
['beep', 0.0, -10.28180244944125, 0.0, 0.0, 0.0, 0.0, 20.876529321256797, 0.0]
