['beep', 0.0, -26995.29701415265, 0.0, 0.0, 0.0, 0.0, -30268.397065209996, 0.0]
['beep', 0.0, -26938.411824513892, 0.0, 0.0, 0.0, 0.0, -30309.211350585385, 0.0]
['beep', 0.0, -26944.446795516826, 0.0, 0.0, 0.0, 0.0, -30426.69211944248, 0.0]
['beep', 0.0, -26986.222205903796, 0.0, 0.0, 0.0, 0.0, -30441.913657416542, 0.0]
['beep', 0.0, -26988.81500826061, 0.0, 0.0, 0.0, 0.0, -30316.676833233458, 0.0]
['beep', 0.0, -26929.851106387512, 0.0, 0.0, 0.0, 0.0, -30206.996823191264, 0.0]
['beep', 0.0, -26872.295364415095, 0.0, 0.0, 0.0, 0.0, -30247.676998099923, 0.0]
['beep', 0.0, -26876.810416795066, 0.0, 0.0, 0.0, 0.0, -30364.62132509009, 0.0]
['beep', 0.0, -26919.412841726884, 0.0, 0.0, 0.0, 0.0, -30378.68057235248, 0.0]
['beep', 0.0, -26923.480859217747, 0.0, 0.0, 0.0, 0.0, -30253.108472002565, 0.0]
['beep', 0.0, -26865.70159980078, 0.0, 0.0, 0.0, 0.0, -30143.92020033839, 0.0]
['beep', 0.0, -26807.721174683713, 0.0, 0.0, 0.0, 0.0, -30184.488616524774, 0.0]
['beep', 0.0, -26811.252750307653, 0.0, 0.0, 0.0, 0.0, -30301.76821968177, 0.0]
['beep', 0.0, -26853.810471750556, 0.0, 0.0, 0.0, 0.0, -30317.235626844842, 0.0]
['beep', 0.0, -26859.376056119927, 0.0, 0.0, 0.0, 0.0, -30191.887043939478, 0.0]
['beep', 0.0, -26802.647328692357, 0.0, 0.0, 0.0, 0.0, -30082.13997866392, 0.0]
['beep', 0.0, -26743.95164775272, 0.0, 0.0, 0.0, 0.0, -30122.373118683474, 0.0]
['beep', 0.0, -26746.075063475975, 0.0, 0.0, 0.0, 0.0, -30239.36214916255, 0.0]
['beep', 0.0, -26788.29750875205, 0.0, 0.0, 0.0, 0.0, -30254.069597014142, 0.0]
['beep', 0.0, -26793.72898265469, 0.0, 0.0, 0.0, 0.0, -30128.184572241855, 0.0]
['beep', 0.0, -26737.20142092722, 0.0, 0.0, 0.0, 0.0, -30019.04100406659, 0.0]
['beep', 0.0, -26679.511568488073, 0.0, 0.0, 0.0, 0.0, -30059.81058595307, 0.0]
['beep', 0.0, -26681.746742933603, 0.0, 0.0, 0.0, 0.0, -30177.06783736561, 0.0]
['beep', 0.0, -26723.611560298392, 0.0, 0.0, 0.0, 0.0, -30192.043506150665, 0.0]
['beep', 0.0, -26729.870048745877, 0.0, 0.0, 0.0, 0.0, -30066.538461034117, 0.0]
['beep', 0.0, -26673.744818418603, 0.0, 0.0, 0.0, 0.0, -29956.657285291825, 0.0]
['beep', 0.0, -26615.205599690154, 0.0, 0.0, 0.0, 0.0, -29996.84572182247, 0.0]
['beep', 0.0, -26617.954864258154, 0.0, 0.0, 0.0, 0.0, -30114.43824940184, 0.0]
['beep', 0.0, -26660.534937445515, 0.0, 0.0, 0.0, 0.0, -30129.615083886994, 0.0]
['beep', 0.0, -26666.726370659635, 0.0, 0.0, 0.0, 0.0, -30004.378259703906, 0.0]
['beep', 0.0, -26610.578788587904, 0.0, 0.0, 0.0, 0.0, -29894.698249661717, 0.0]
['beep', 0.0, -26552.77717742648, 0.0, 0.0, 0.0, 0.0, -29935.62429375938, 0.0]
['beep', 0.0, -26555.906421650223, 0.0, 0.0, 0.0, 0.0, -30053.753263205683, 0.0]
['beep', 0.0, -26598.374736115307, 0.0, 0.0, 0.0, 0.0, -30069.37713257994, 0.0]
['beep', 0.0, -26604.253244907053, 0.0, 0.0, 0.0, 0.0, -29943.603866529927, 0.0]
['beep', 0.0, -26547.971552368588, 0.0, 0.0, 0.0, 0.0, -29833.700339043182, 0.0]
['beep', 0.0, -26490.57227260736, 0.0, 0.0, 0.0, 0.0, -29874.849900585403, 0.0]
['beep', 0.0, -26493.679165086647, 0.0, 0.0, 0.0, 0.0, -29992.777704331602, 0.0]
['beep', 0.0, -26535.745148151538, 0.0, 0.0, 0.0, 0.0, -30007.865131838935, 0.0]
['beep', 0.0, -26542.003636599024, 0.0, 0.0, 0.0, 0.0, -29881.62247915536, 0.0]
['beep', 0.0, -26486.81717953887, 0.0, 0.0, 0.0, 0.0, -29770.824881890403, 0.0]
['beep', 0.0, -26430.602542233773, 0.0, 0.0, 0.0, 0.0, -29811.795629476983, 0.0]
['beep', 0.0, -26435.028187635922, 0.0, 0.0, 0.0, 0.0, -29929.522267523083, 0.0]
['beep', 0.0, -26477.47415035655, 0.0, 0.0, 0.0, 0.0, -29945.68257876427, 0.0]
['beep', 0.0, -26482.793865536914, 0.0, 0.0, 0.0, 0.0, -29820.602216792373, 0.0]
['beep', 0.0, -26426.735690443005, 0.0, 0.0, 0.0, 0.0, -29710.139895694247, 0.0]
['beep', 0.0, -26370.0740182488, 0.0, 0.0, 0.0, 0.0, -29750.440090947162, 0.0]
['beep', 0.0, -26373.56089038383, 0.0, 0.0, 0.0, 0.0, -29869.19490923821, 0.0]
['beep', 0.0, -26415.47041123753, 0.0, 0.0, 0.0, 0.0, -29885.95871757969, 0.0]
['beep', 0.0, -26420.074870595323, 0.0, 0.0, 0.0, 0.0, -29761.660666663727, 0.0]
['beep', 0.0, -26364.396675157153, 0.0, 0.0, 0.0, 0.0, -29651.555973476887, 0.0]
['beep', 0.0, -26308.40555529661, 0.0, 0.0, 0.0, 0.0, -29691.87852047426, 0.0]
['beep', 0.0, -26311.87007568718, 0.0, 0.0, 0.0, 0.0, -29809.873379453824, 0.0]
['beep', 0.0, -26353.064340718312, 0.0, 0.0, 0.0, 0.0, -29826.681891284217, 0.0]
['beep', 0.0, -26357.64644833165, 0.0, 0.0, 0.0, 0.0, -29702.875578746272, 0.0]
['beep', 0.0, -26301.54356974883, 0.0, 0.0, 0.0, 0.0, -29592.726182070517, 0.0]
['beep', 0.0, -26245.328932443732, 0.0, 0.0, 0.0, 0.0, -29631.953493589583, 0.0]
['beep', 0.0, -26249.262839467865, 0.0, 0.0, 0.0, 0.0, -29749.546021168953, 0.0]
['beep', 0.0, -26291.48528474394, 0.0, 0.0, 0.0, 0.0, -29766.198070788156, 0.0]
['beep', 0.0, -26296.737944690936, 0.0, 0.0, 0.0, 0.0, -29642.257647783477, 0.0]
['beep', 0.0, -26240.858583552672, 0.0, 0.0, 0.0, 0.0, -29532.488230763465, 0.0]
['beep', 0.0, -26184.532187525296, 0.0, 0.0, 0.0, 0.0, -29571.894356238172, 0.0]
['beep', 0.0, -26188.443742804975, 0.0, 0.0, 0.0, 0.0, -29690.179787895657, 0.0]
['beep', 0.0, -26229.928580514024, 0.0, 0.0, 0.0, 0.0, -29707.033003214958, 0.0]
['beep', 0.0, -26234.935371272015, 0.0, 0.0, 0.0, 0.0, -29582.734952298993, 0.0]
['beep', 0.0, -26178.966603155925, 0.0, 0.0, 0.0, 0.0, -29472.473796900966, 0.0]
['beep', 0.0, -26122.282579217266, 0.0, 0.0, 0.0, 0.0, -29511.723460164485, 0.0]
['beep', 0.0, -26125.70239611893, 0.0, 0.0, 0.0, 0.0, -29629.047766810392, 0.0]
['beep', 0.0, -26167.589565228172, 0.0, 0.0, 0.0, 0.0, -29646.88445888573, 0.0]
['beep', 0.0, -26173.33396355319, 0.0, 0.0, 0.0, 0.0, -29524.106326592726, 0.0]
['beep', 0.0, -26117.812230326206, 0.0, 0.0, 0.0, 0.0, -29414.269854339345, 0.0]
['beep', 0.0, -26061.508186043287, 0.0, 0.0, 0.0, 0.0, -29453.944200747515, 0.0]
['beep', 0.0, -26064.83859596713, 0.0, 0.0, 0.0, 0.0, -29572.162577171635, 0.0]
['beep', 0.0, -26106.099916231626, 0.0, 0.0, 0.0, 0.0, -29590.51335936944, 0.0]
['beep', 0.0, -26111.88901804555, 0.0, 0.0, 0.0, 0.0, -29467.712875331985, 0.0]
['beep', 0.0, -26056.881374941036, 0.0, 0.0, 0.0, 0.0, -29358.23403098989, 0.0]
['beep', 0.0, -26000.62203414703, 0.0, 0.0, 0.0, 0.0, -29396.96960413094, 0.0]
['beep', 0.0, -26004.66769989344, 0.0, 0.0, 0.0, 0.0, -29514.22685554348, 0.0]
['beep', 0.0, -26046.688979469418, 0.0, 0.0, 0.0, 0.0, -29532.622341230195, 0.0]
['beep', 0.0, -26051.896935927503, 0.0, 0.0, 0.0, 0.0, -29409.732450214917, 0.0]
['beep', 0.0, -25995.99522304478, 0.0, 0.0, 0.0, 0.0, -29298.80074248323, 0.0]
['beep', 0.0, -25939.937047950873, 0.0, 0.0, 0.0, 0.0, -29336.32932142369, 0.0]
['beep', 0.0, -25944.407396841932, 0.0, 0.0, 0.0, 0.0, -29453.83244202524, 0.0]
['beep', 0.0, -25986.316917695633, 0.0, 0.0, 0.0, 0.0, -29472.004410267404, 0.0]
['beep', 0.0, -25990.85432182006, 0.0, 0.0, 0.0, 0.0, -29349.09216750767, 0.0]
['beep', 0.0, -25935.75727173773, 0.0, 0.0, 0.0, 0.0, -29237.6016661646, 0.0]
['beep', 0.0, -25880.88373909995, 0.0, 0.0, 0.0, 0.0, -29275.107893360604, 0.0]
['beep', 0.0, -25885.97993683576, 0.0, 0.0, 0.0, 0.0, -29392.76747617334, 0.0]
['beep', 0.0, -25928.224733856292, 0.0, 0.0, 0.0, 0.0, -29411.408831049066, 0.0]
['beep', 0.0, -25933.09741414755, 0.0, 0.0, 0.0, 0.0, -29288.071905144683, 0.0]
['beep', 0.0, -25878.112122787494, 0.0, 0.0, 0.0, 0.0, -29176.559052057157, 0.0]
['beep', 0.0, -25823.506811083178, 0.0, 0.0, 0.0, 0.0, -29214.177037975438, 0.0]
['beep', 0.0, -25828.223029163248, 0.0, 0.0, 0.0, 0.0, -29332.70833882193, 0.0]
['beep', 0.0, -25870.1549017614, 0.0, 0.0, 0.0, 0.0, -29352.064949520227, 0.0]
['beep', 0.0, -25874.826416352564, 0.0, 0.0, 0.0, 0.0, -29228.325692215647, 0.0]
['beep', 0.0, -25819.952883714785, 0.0, 0.0, 0.0, 0.0, -29116.857542617032, 0.0]
['beep', 0.0, -25765.034647588094, 0.0, 0.0, 0.0, 0.0, -29154.922563424418, 0.0]
['beep', 0.0, -25770.019086601627, 0.0, 0.0, 0.0, 0.0, -29273.587974737642, 0.0]
['beep', 0.0, -25811.861552221962, 0.0, 0.0, 0.0, 0.0, -29293.346916836133, 0.0]
['beep', 0.0, -25816.421308090845, 0.0, 0.0, 0.0, 0.0, -29171.86518572154, 0.0]
['beep', 0.0, -25760.6313539304, 0.0, 0.0, 0.0, 0.0, -29061.13464368995, 0.0]
['beep', 0.0, -25704.95315849223, 0.0, 0.0, 0.0, 0.0, -29098.86438833051, 0.0]
['beep', 0.0, -25709.267045172102, 0.0, 0.0, 0.0, 0.0, -29217.73096534383, 0.0]
['beep', 0.0, -25751.020103814615, 0.0, 0.0, 0.0, 0.0, -29237.78048012024, 0.0]
['beep', 0.0, -25755.49045270568, 0.0, 0.0, 0.0, 0.0, -29115.449382716346, 0.0]
['beep', 0.0, -25700.4157543678, 0.0, 0.0, 0.0, 0.0, -29004.092991840007, 0.0]
['beep', 0.0, -25645.40811126329, 0.0, 0.0, 0.0, 0.0, -29041.37570159146, 0.0]
['beep', 0.0, -25649.99021887663, 0.0, 0.0, 0.0, 0.0, -29159.124691382014, 0.0]
['beep', 0.0, -25691.810332752506, 0.0, 0.0, 0.0, 0.0, -29179.509482325255, 0.0]
['beep', 0.0, -25696.615957810398, 0.0, 0.0, 0.0, 0.0, -29058.050102955116, 0.0]
['beep', 0.0, -25641.54125947252, 0.0, 0.0, 0.0, 0.0, -28947.297209179073, 0.0]
['beep', 0.0, -25586.86889253484, 0.0, 0.0, 0.0, 0.0, -28984.065828808052, 0.0]
['beep', 0.0, -25591.69686933719, 0.0, 0.0, 0.0, 0.0, -29102.083039532074, 0.0]
['beep', 0.0, -25633.807555890984, 0.0, 0.0, 0.0, 0.0, -29122.46783047531, 0.0]
['beep', 0.0, -25638.210849548683, 0.0, 0.0, 0.0, 0.0, -29000.941395871807, 0.0]
['beep', 0.0, -25581.72799131012, 0.0, 0.0, 0.0, 0.0, -28889.517949762103, 0.0]
['beep', 0.0, -25525.513354005023, 0.0, 0.0, 0.0, 0.0, -28925.973644968708, 0.0]
['beep', 0.0, -25530.63190348529, 0.0, 0.0, 0.0, 0.0, -29044.281428370647, 0.0]
['beep', 0.0, -25572.20614817216, 0.0, 0.0, 0.0, 0.0, -29066.029675725662, 0.0]
['beep', 0.0, -25575.737723796097, 0.0, 0.0, 0.0, 0.0, -28946.15727021185, 0.0]
['beep', 0.0, -25519.05369985744, 0.0, 0.0, 0.0, 0.0, -28835.963170047187, 0.0]
['beep', 0.0, -25463.867242797285, 0.0, 0.0, 0.0, 0.0, -28872.19534780924, 0.0]
['beep', 0.0, -25469.38812367775, 0.0, 0.0, 0.0, 0.0, -28990.257262022173, 0.0]
['beep', 0.0, -25511.43175499818, 0.0, 0.0, 0.0, 0.0, -29012.02786112164, 0.0]
['beep', 0.0, -25515.276255044493, 0.0, 0.0, 0.0, 0.0, -28892.557787008023, 0.0]
['beep', 0.0, -25459.061617739397, 0.0, 0.0, 0.0, 0.0, -28780.821416475945, 0.0]
['beep', 0.0, -25404.79158220191, 0.0, 0.0, 0.0, 0.0, -28815.533675615035, 0.0]
['beep', 0.0, -25411.340643327316, 0.0, 0.0, 0.0, 0.0, -28932.366243882927, 0.0]
['beep', 0.0, -25453.33957115884, 0.0, 0.0, 0.0, 0.0, -28954.49447089368, 0.0]
['beep', 0.0, -25456.826443293863, 0.0, 0.0, 0.0, 0.0, -28835.51613515808, 0.0]
['beep', 0.0, -25400.79061994441, 0.0, 0.0, 0.0, 0.0, -28723.91387509273, 0.0]
['beep', 0.0, -25346.364122195737, 0.0, 0.0, 0.0, 0.0, -28759.341390054393, 0.0]
['beep', 0.0, -25353.270811232425, 0.0, 0.0, 0.0, 0.0, -28877.403304267325, 0.0]
['beep', 0.0, -25395.917939653154, 0.0, 0.0, 0.0, 0.0, -28899.799752211544, 0.0]
['beep', 0.0, -25399.605977488278, 0.0, 0.0, 0.0, 0.0, -28779.681477508722, 0.0]
['beep', 0.0, -25343.838375072286, 0.0, 0.0, 0.0, 0.0, -28667.408665109717, 0.0]
['beep', 0.0, -25291.043554668853, 0.0, 0.0, 0.0, 0.0, -28701.897406804255, 0.0]
['beep', 0.0, -25298.598444294745, 0.0, 0.0, 0.0, 0.0, -28818.79703030551, 0.0]
['beep', 0.0, -25341.044407015375, 0.0, 0.0, 0.0, 0.0, -28841.66286488329, 0.0]
['beep', 0.0, -25344.77714833941, 0.0, 0.0, 0.0, 0.0, -28721.991625069575, 0.0]
['beep', 0.0, -25289.590691279256, 0.0, 0.0, 0.0, 0.0, -28609.539998714925, 0.0]
['beep', 0.0, -25236.95233308701, 0.0, 0.0, 0.0, 0.0, -28643.782871220457, 0.0]
['beep', 0.0, -25244.48487096845, 0.0, 0.0, 0.0, 0.0, -28761.911840666755, 0.0]
['beep', 0.0, -25285.81324646631, 0.0, 0.0, 0.0, 0.0, -28785.045896177995, 0.0]
['beep', 0.0, -25287.780199978377, 0.0, 0.0, 0.0, 0.0, -28665.8663947423, 0.0]
['beep', 0.0, -25231.587914417734, 0.0, 0.0, 0.0, 0.0, -28554.062968976854, 0.0]
['beep', 0.0, -25179.08366669222, 0.0, 0.0, 0.0, 0.0, -28588.931690327132, 0.0]
['beep', 0.0, -25186.70561155148, 0.0, 0.0, 0.0, 0.0, -28707.06065977343, 0.0]
['beep', 0.0, -25227.94458007152, 0.0, 0.0, 0.0, 0.0, -28731.245247274073, 0.0]
['beep', 0.0, -25229.91153358359, 0.0, 0.0, 0.0, 0.0, -28613.295091783417, 0.0]
['beep', 0.0, -25173.808655000765, 0.0, 0.0, 0.0, 0.0, -28501.55872125134, 0.0]
['beep', 0.0, -25121.10324157515, 0.0, 0.0, 0.0, 0.0, -28535.64513154568, 0.0]
['beep', 0.0, -25169.27125087634, 0.0, 0.0, 0.0, 0.0, -28679.16568269321, 0.0]
['beep', 0.0, -25170.947631710485, 0.0, 0.0, 0.0, 0.0, -28560.880251035724, 0.0]
['beep', 0.0, -25114.844753127665, 0.0, 0.0, 0.0, 0.0, -28448.808604336813, 0.0]
['beep', 0.0, -25062.251098424327, 0.0, 0.0, 0.0, 0.0, -28483.25264254244, 0.0]
['beep', 0.0, -25069.53776711676, 0.0, 0.0, 0.0, 0.0, -28602.18627478913, 0.0]
['beep', 0.0, -25110.463811214428, 0.0, 0.0, 0.0, 0.0, -28626.370862289772, 0.0]
['beep', 0.0, -25112.386061237583, 0.0, 0.0, 0.0, 0.0, -28508.331299821297, 0.0]
['beep', 0.0, -25055.679685554467, 0.0, 0.0, 0.0, 0.0, -28395.566749044272, 0.0]
['beep', 0.0, -25002.7507546843, 0.0, 0.0, 0.0, 0.0, -28429.139069216144, 0.0]
['beep', 0.0, -25010.37269954356, 0.0, 0.0, 0.0, 0.0, -28547.625666573724, 0.0]
['beep', 0.0, -25051.65637155251, 0.0, 0.0, 0.0, 0.0, -28572.771379085945, 0.0]
['beep', 0.0, -25053.824490764677, 0.0, 0.0, 0.0, 0.0, -28455.15649976212, 0.0]
['beep', 0.0, -24997.319280781663, 0.0, 0.0, 0.0, 0.0, -28342.369597240642, 0.0]
['beep', 0.0, -24943.9880185113, 0.0, 0.0, 0.0, 0.0, -28376.23249009043, 0.0]
['beep', 0.0, -24951.498204648284, 0.0, 0.0, 0.0, 0.0, -28495.38963978167, 0.0]
['beep', 0.0, -16115.987731932133, 0.0, 0.0, 0.0, 0.0, -23478.40648632127, 0.0]
['beep', 0.0, -16160.422999909282, 0.0, 0.0, 0.0, 0.0, -23562.225528028674, 0.0]
['beep', 0.0, -16197.01280558262, 0.0, 0.0, 0.0, 0.0, -23515.5997890949, 0.0]
['beep', 0.0, -16162.971098777189, 0.0, 0.0, 0.0, 0.0, -23402.38820342877, 0.0]
['beep', 0.0, -16093.99361538811, 0.0, 0.0, 0.0, 0.0, -23377.33189789437, 0.0]
['beep', 0.0, -16073.117086066854, 0.0, 0.0, 0.0, 0.0, -23474.629041508324, 0.0]
['beep', 0.0, -16117.66411276628, 0.0, 0.0, 0.0, 0.0, -23558.7610076381, 0.0]
['beep', 0.0, -16153.963345761698, 0.0, 0.0, 0.0, 0.0, -23513.252855927094, 0.0]
['beep', 0.0, -16120.212211634185, 0.0, 0.0, 0.0, 0.0, -23400.197732472152, 0.0]
['beep', 0.0, -16051.324135222929, 0.0, 0.0, 0.0, 0.0, -23375.141426937753, 0.0]
['beep', 0.0, -16030.358198923852, 0.0, 0.0, 0.0, 0.0, -23472.12564612933, 0.0]
['beep', 0.0, -16075.08403957892, 0.0, 0.0, 0.0, 0.0, -23556.391722725835, 0.0]
['beep', 0.0, -16111.606790018892, 0.0, 0.0, 0.0, 0.0, -23510.88357101483, 0.0]
['beep', 0.0, -16077.810952402468, 0.0, 0.0, 0.0, 0.0, -23398.11902023781, 0.0]
['beep', 0.0, -16008.677006802203, 0.0, 0.0, 0.0, 0.0, -23372.369810625292, 0.0]
['beep', 0.0, -15988.0239949255, 0.0, 0.0, 0.0, 0.0, -23469.15286411677, 0.0]
['beep', 0.0, -16032.481614647106, 0.0, 0.0, 0.0, 0.0, -23553.888327346842, 0.0]
['beep', 0.0, -16069.272586020541, 0.0, 0.0, 0.0, 0.0, -23508.760155291577, 0.0]
['beep', 0.0, -16035.454396659661, 0.0, 0.0, 0.0, 0.0, -23395.481514392082, 0.0]
['beep', 0.0, -15965.985174892567, 0.0, 0.0, 0.0, 0.0, -23369.73230477957, 0.0]
['beep', 0.0, -15944.728665915569, 0.0, 0.0, 0.0, 0.0, -23465.956564659664, 0.0]
['beep', 0.0, -15988.739250748069, 0.0, 0.0, 0.0, 0.0, -23550.08853078944, 0.0]
['beep', 0.0, -16025.776091310514, 0.0, 0.0, 0.0, 0.0, -23505.005062223085, 0.0]
['beep', 0.0, -15992.69550951666, 0.0, 0.0, 0.0, 0.0, -23390.944110267654, 0.0]
['beep', 0.0, -15923.136880771743, 0.0, 0.0, 0.0, 0.0, -23363.272650631985, 0.0]
['beep', 0.0, -15901.299226438909, 0.0, 0.0, 0.0, 0.0, -23459.094579111887, 0.0]
['beep', 0.0, -15945.15334906022, 0.0, 0.0, 0.0, 0.0, -23545.03703654254, 0.0]
['beep', 0.0, -15981.720802989103, 0.0, 0.0, 0.0, 0.0, -23501.02645171004, 0.0]
['beep', 0.0, -15948.573165961883, 0.0, 0.0, 0.0, 0.0, -23386.831389287876, 0.0]
['beep', 0.0, -15879.215702917065, 0.0, 0.0, 0.0, 0.0, -23359.85283373032, 0.0]
['beep', 0.0, -15857.467455562051, 0.0, 0.0, 0.0, 0.0, -23456.367666288337, 0.0]
['beep', 0.0, -15901.053357249899, 0.0, 0.0, 0.0, 0.0, -23542.354827207902, 0.0]
['beep', 0.0, -15938.269011767987, 0.0, 0.0, 0.0, 0.0, -23498.880684242333, 0.0]
['beep', 0.0, -15905.926037541156, 0.0, 0.0, 0.0, 0.0, -23384.66327007571, 0.0]
['beep', 0.0, -15836.099187862777, 0.0, 0.0, 0.0, 0.0, -23356.52242380648, 0.0]
['beep', 0.0, -15813.32276026282, 0.0, 0.0, 0.0, 0.0, -23453.081959853407, 0.0]
['beep', 0.0, -15857.534510795416, 0.0, 0.0, 0.0, 0.0, -23539.51615566208, 0.0]
['beep', 0.0, -15895.174848458153, 0.0, 0.0, 0.0, 0.0, -23495.952605718685, 0.0]
['beep', 0.0, -15862.89892946469, 0.0, 0.0, 0.0, 0.0, -23382.20457818563, 0.0]
['beep', 0.0, -15794.167315264622, 0.0, 0.0, 0.0, 0.0, -23354.130787149763, 0.0]
['beep', 0.0, -15772.083791742778, 0.0, 0.0, 0.0, 0.0, -23451.137358085794, 0.0]
['beep', 0.0, -15816.139080064188, 0.0, 0.0, 0.0, 0.0, -23538.443271928227, 0.0]
['beep', 0.0, -15853.600603771283, 0.0, 0.0, 0.0, 0.0, -23495.572626062945, 0.0]
['beep', 0.0, -15821.123519077722, 0.0, 0.0, 0.0, 0.0, -23381.95870899662, 0.0]
['beep', 0.0, -15751.833111266269, 0.0, 0.0, 0.0, 0.0, -23354.264897616496, 0.0]
['beep', 0.0, -15729.615477277695, 0.0, 0.0, 0.0, 0.0, -23451.092654596887, 0.0]
['beep', 0.0, -15773.35784117673, 0.0, 0.0, 0.0, 0.0, -23538.309161461493, 0.0]
['beep', 0.0, -15810.55114395036, 0.0, 0.0, 0.0, 0.0, -23495.282053385028, 0.0]
['beep', 0.0, -15778.364631934719, 0.0, 0.0, 0.0, 0.0, -23381.131694451775, 0.0]
['beep', 0.0, -15709.409500290098, 0.0, 0.0, 0.0, 0.0, -23352.923792949176, 0.0]
['beep', 0.0, -15686.588369201228, 0.0, 0.0, 0.0, 0.0, -23449.662142951747, 0.0]
['beep', 0.0, -15729.995456933435, 0.0, 0.0, 0.0, 0.0, -23537.906830061296, 0.0]
['beep', 0.0, -15768.12753297419, 0.0, 0.0, 0.0, 0.0, -23495.617329551857, 0.0]
['beep', 0.0, -15736.633925036662, 0.0, 0.0, 0.0, 0.0, -23381.131694451775, 0.0]
['beep', 0.0, -15667.634089903127, 0.0, 0.0, 0.0, 0.0, -23352.6108685268, 0.0]
['beep', 0.0, -15644.880014047625, 0.0, 0.0, 0.0, 0.0, -23449.237459807096, 0.0]
['beep', 0.0, -15688.331805268743, 0.0, 0.0, 0.0, 0.0, -23537.37038819437, 0.0]
['beep', 0.0, -15726.665047009594, 0.0, 0.0, 0.0, 0.0, -23495.68438478522, 0.0]
['beep', 0.0, -15694.903218138603, 0.0, 0.0, 0.0, 0.0, -23381.645784574248, 0.0]
['beep', 0.0, -15625.344589393688, 0.0, 0.0, 0.0, 0.0, -23352.43205457116, 0.0]
['beep', 0.0, -15602.456403071452, 0.0, 0.0, 0.0, 0.0, -23449.170404573728, 0.0]
['beep', 0.0, -15646.087008248212, 0.0, 0.0, 0.0, 0.0, -23537.86212657239, 0.0]
['beep', 0.0, -15684.48730522243, 0.0, 0.0, 0.0, 0.0, -23496.51139933007, 0.0]
['beep', 0.0, -15653.23956647391, 0.0, 0.0, 0.0, 0.0, -23381.981060741076, 0.0]
['beep', 0.0, -15584.79852495176, 0.0, 0.0, 0.0, 0.0, -23352.18618538215, 0.0]
['beep', 0.0, -15561.709172929428, 0.0, 0.0, 0.0, 0.0, -23448.298686539973, 0.0]
['beep', 0.0, -15605.406833339553, 0.0, 0.0, 0.0, 0.0, -23536.878649816354, 0.0]
['beep', 0.0, -15643.695371591493, 0.0, 0.0, 0.0, 0.0, -23496.466695841158, 0.0]
['beep', 0.0, -15612.112356676145, 0.0, 0.0, 0.0, 0.0, -23383.545682852946, 0.0]
['beep', 0.0, -15542.263155253311, 0.0, 0.0, 0.0, 0.0, -23354.33195284986, 0.0]
['beep', 0.0, -15518.436195663953, 0.0, 0.0, 0.0, 0.0, -23450.377398774315, 0.0]
['beep', 0.0, -15562.335021774177, 0.0, 0.0, 0.0, 0.0, -23539.583210895446, 0.0]
['beep', 0.0, -15600.824725726216, 0.0, 0.0, 0.0, 0.0, -23499.61829180936, 0.0]
['beep', 0.0, -15569.979318377891, 0.0, 0.0, 0.0, 0.0, -23385.8702642763, 0.0]
['beep', 0.0, -15501.225352433366, 0.0, 0.0, 0.0, 0.0, -23355.203670883617, 0.0]
['beep', 0.0, -15478.091296922124, 0.0, 0.0, 0.0, 0.0, -23450.042122607487, 0.0]
['beep', 0.0, -15521.319570698688, 0.0, 0.0, 0.0, 0.0, -23539.762024851087, 0.0]
['beep', 0.0, -15560.479826984387, 0.0, 0.0, 0.0, 0.0, -23499.864160998364, 0.0]
['beep', 0.0, -15529.969695802893, 0.0, 0.0, 0.0, 0.0, -23386.09378172085, 0.0]
['beep', 0.0, -15460.969860669358, 0.0, 0.0, 0.0, 0.0, -23355.360133094804, 0.0]
['beep', 0.0, -15437.05349410218, 0.0, 0.0, 0.0, 0.0, -23450.198584818674, 0.0]
['beep', 0.0, -15479.521808567264, 0.0, 0.0, 0.0, 0.0, -23538.867955072878, 0.0]
['beep', 0.0, -15518.011512519302, 0.0, 0.0, 0.0, 0.0, -23499.03714645352, 0.0]
['beep', 0.0, -15487.411974359988, 0.0, 0.0, 0.0, 0.0, -23385.691450320657, 0.0]
['beep', 0.0, -15418.14391829299, 0.0, 0.0, 0.0, 0.0, -23354.48841506105, 0.0]
['beep', 0.0, -15393.914627303438, 0.0, 0.0, 0.0, 0.0, -23449.349218529373, 0.0]
['beep', 0.0, -15436.315886535156, 0.0, 0.0, 0.0, 0.0, -23539.113824261884, 0.0]
['beep', 0.0, -15474.649128276007, 0.0, 0.0, 0.0, 0.0, -23500.490009843114, 0.0]
['beep', 0.0, -15444.138997094513, 0.0, 0.0, 0.0, 0.0, -23386.78668579897, 0.0]
['beep', 0.0, -15375.049754983158, 0.0, 0.0, 0.0, 0.0, -23354.846042972335, 0.0]
['beep', 0.0, -15350.552243060141, 0.0, 0.0, 0.0, 0.0, -23449.796253418477, 0.0]
['beep', 0.0, -15393.177019736413, 0.0, 0.0, 0.0, 0.0, -23539.985542295643, 0.0]
['beep', 0.0, -15431.57731671063, 0.0, 0.0, 0.0, 0.0, -23501.339376132415, 0.0]
['beep', 0.0, -15400.731909362306, 0.0, 0.0, 0.0, 0.0, -23387.233720688073, 0.0]
['beep', 0.0, -15330.770949217196, 0.0, 0.0, 0.0, 0.0, -23355.315429605893, 0.0]
['beep', 0.0, -15306.02756810517, 0.0, 0.0, 0.0, 0.0, -23450.332695285404, 0.0]
['beep', 0.0, -15348.138254658968, 0.0, 0.0, 0.0, 0.0, -23541.684274874246, 0.0]
['beep', 0.0, -15386.85147605556, 0.0, 0.0, 0.0, 0.0, -23503.239274411117, 0.0]
['beep', 0.0, -15357.011897207725, 0.0, 0.0, 0.0, 0.0, -23388.284252677473, 0.0]
['beep', 0.0, -15287.07328880707, 0.0, 0.0, 0.0, 0.0, -23355.606002283814, 0.0]
['beep', 0.0, -15261.681707105841, 0.0, 0.0, 0.0, 0.0, -23450.35504702986, 0.0]
['beep', 0.0, -15303.524172726176, 0.0, 0.0, 0.0, 0.0, -23541.907792318798, 0.0]
['beep', 0.0, -15342.706780756329, 0.0, 0.0, 0.0, 0.0, -23503.976881978142, 0.0]
['beep', 0.0, -15312.576629230576, 0.0, 0.0, 0.0, 0.0, -23389.558302111425, 0.0]
['beep', 0.0, -15241.967468496261, 0.0, 0.0, 0.0, 0.0, -23357.32708660687, 0.0]
['beep', 0.0, -15215.905334461373, 0.0, 0.0, 0.0, 0.0, -23452.36670403084, 0.0]
['beep', 0.0, -15257.97131752626, 0.0, 0.0, 0.0, 0.0, -23543.18184175275, 0.0]
['beep', 0.0, -15296.952759856316, 0.0, 0.0, 0.0, 0.0, -23506.03324246803, 0.0]
['beep', 0.0, -15266.375573441455, 0.0, 0.0, 0.0, 0.0, -23393.29104343546, 0.0]
['beep', 0.0, -15196.235799340702, 0.0, 0.0, 0.0, 0.0, -23360.85866223081, 0.0]
['beep', 0.0, -15170.553644961554, 0.0, 0.0, 0.0, 0.0, -23454.82539592092, 0.0]
['beep', 0.0, -15212.306703604068, 0.0, 0.0, 0.0, 0.0, -23545.32760922046, 0.0]
['beep', 0.0, -15252.048105245603, 0.0, 0.0, 0.0, 0.0, -23508.380175635837, 0.0]
['beep', 0.0, -15223.236706642712, 0.0, 0.0, 0.0, 0.0, -23395.59327311436, 0.0]
['beep', 0.0, -15154.348630231456, 0.0, 0.0, 0.0, 0.0, -23362.33387736486, 0.0]
['beep', 0.0, -15128.979400274684, 0.0, 0.0, 0.0, 0.0, -23455.741817443588, 0.0]
['beep', 0.0, -15170.955976361749, 0.0, 0.0, 0.0, 0.0, -23547.27221098807, 0.0]
['beep', 0.0, -15210.853840214473, 0.0, 0.0, 0.0, 0.0, -23511.397661137304, 0.0]
['beep', 0.0, -15181.707165444752, 0.0, 0.0, 0.0, 0.0, -23397.895502793253, 0.0]
['beep', 0.0, -15112.081481466472, 0.0, 0.0, 0.0, 0.0, -23363.250298887528, 0.0]
['beep', 0.0, -15087.092231165438, 0.0, 0.0, 0.0, 0.0, -23456.03239012151, 0.0]
['beep', 0.0, -15129.202917719236, 0.0, 0.0, 0.0, 0.0, -23548.434501699747, 0.0]
['beep', 0.0, -15169.100781571959, 0.0, 0.0, 0.0, 0.0, -23513.40931813828, 0.0]
['beep', 0.0, -15140.423493435801, 0.0, 0.0, 0.0, 0.0, -23399.52718013849, 0.0]
['beep', 0.0, -15070.775457713064, 0.0, 0.0, 0.0, 0.0, -23364.636107043756, 0.0]
['beep', 0.0, -15044.512157978077, 0.0, 0.0, 0.0, 0.0, -23457.798177933477, 0.0]
['beep', 0.0, -15085.438202075746, 0.0, 0.0, 0.0, 0.0, -23550.155586022807, 0.0]
['beep', 0.0, -15124.66551359481, 0.0, 0.0, 0.0, 0.0, -23514.281036172037, 0.0]
['beep', 0.0, -15096.301149881025, 0.0, 0.0, 0.0, 0.0, -23399.54953188295, 0.0]
['beep', 0.0, -15027.323666491946, 0.0, 0.0, 0.0, 0.0, -23364.211423899105, 0.0]
['beep', 0.0, -15000.345110934391, 0.0, 0.0, 0.0, 0.0, -23457.86523316684, 0.0]
['beep', 0.0, -15041.360562009879, 0.0, 0.0, 0.0, 0.0, -23551.38493196785, 0.0]
['beep', 0.0, -15081.660757262798, 0.0, 0.0, 0.0, 0.0, -23516.918542017764, 0.0]
['beep', 0.0, -15053.83283541594, 0.0, 0.0, 0.0, 0.0, -23403.304624951437, 0.0]
['beep', 0.0, -14984.922407260228, 0.0, 0.0, 0.0, 0.0, -23367.787703011956, 0.0]
['beep', 0.0, -14958.815569736431, 0.0, 0.0, 0.0, 0.0, -23460.860366923855, 0.0]
['beep', 0.0, -15000.099241745382, 0.0, 0.0, 0.0, 0.0, -23554.625934913867, 0.0]
['beep', 0.0, -15040.377085253846, 0.0, 0.0, 0.0, 0.0, -23520.874800786354, 0.0]
['beep', 0.0, -15013.107957018372, 0.0, 0.0, 0.0, 0.0, -23406.567979641914, 0.0]
['beep', 0.0, -14944.19752886266, 0.0, 0.0, 0.0, 0.0, -23370.894595491245, 0.0]
['beep', 0.0, -14917.24132504956, 0.0, 0.0, 0.0, 0.0, -23464.302535569972, 0.0]
['beep', 0.0, -14958.033258680494, 0.0, 0.0, 0.0, 0.0, -23558.224565771172, 0.0]
['beep', 0.0, -14998.936951033707, 0.0, 0.0, 0.0, 0.0, -23524.182858965738, 0.0]
['beep', 0.0, -14971.243139653581, 0.0, 0.0, 0.0, 0.0, -23409.496058165558, 0.0]
['beep', 0.0, -14901.103365552828, 0.0, 0.0, 0.0, 0.0, -23372.906252492223, 0.0]
['beep', 0.0, -14873.230740217059, 0.0, 0.0, 0.0, 0.0, -23466.537710015502, 0.0]
['beep', 0.0, -14914.223839548093, 0.0, 0.0, 0.0, 0.0, -23561.46556871719, 0.0]
['beep', 0.0, -14955.351049345858, 0.0, 0.0, 0.0, 0.0, -23528.56380087898, 0.0]
['beep', 0.0, -14928.372493788302, 0.0, 0.0, 0.0, 0.0, -23414.011110545533, 0.0]
['beep', 0.0, -14859.260899932493, 0.0, 0.0, 0.0, 0.0, -23376.549586838435, 0.0]
['beep', 0.0, -14831.522385063457, 0.0, 0.0, 0.0, 0.0, -23468.996401905588, 0.0]
['beep', 0.0, -14871.889635549742, 0.0, 0.0, 0.0, 0.0, -23563.588984440445, 0.0]
['beep', 0.0, -14913.66504593671, 0.0, 0.0, 0.0, 0.0, -23530.441347413227, 0.0]
['beep', 0.0, -14887.289987479448, 0.0, 0.0, 0.0, 0.0, -23416.514505924526, 0.0]
['beep', 0.0, -14817.999579667996, 0.0, 0.0, 0.0, 0.0, -23379.835293273365, 0.0]
['beep', 0.0, -14790.126954332229, 0.0, 0.0, 0.0, 0.0, -23473.4891025411, 0.0]
['beep', 0.0, -14831.075350174351, 0.0, 0.0, 0.0, 0.0, -23568.84164438744, 0.0]
['beep', 0.0, -14872.761353583499, 0.0, 0.0, 0.0, 0.0, -23536.43161492725, 0.0]
['beep', 0.0, -14845.827501514854, 0.0, 0.0, 0.0, 0.0, -23421.409537960237, 0.0]
['beep', 0.0, -14775.888893114197, 0.0, 0.0, 0.0, 0.0, -23383.43392413067, 0.0]
['beep', 0.0, -14747.904509056152, 0.0, 0.0, 0.0, 0.0, -23475.97014617564, 0.0]
['beep', 0.0, -14788.428221753626, 0.0, 0.0, 0.0, 0.0, -23571.38974325535, 0.0]
['beep', 0.0, -14829.801300740399, 0.0, 0.0, 0.0, 0.0, -23538.979713795154, 0.0]
['beep', 0.0, -14803.336835305314, 0.0, 0.0, 0.0, 0.0, -23424.382319972792, 0.0]
['beep', 0.0, -14733.845261793766, 0.0, 0.0, 0.0, 0.0, -23386.09378172085, 0.0]
['beep', 0.0, -14705.704415524533, 0.0, 0.0, 0.0, 0.0, -23479.144093888295, 0.0]
['beep', 0.0, -14745.691686355078, 0.0, 0.0, 0.0, 0.0, -23576.150664824327, 0.0]
['beep', 0.0, -14787.556503719868, 0.0, 0.0, 0.0, 0.0, -23544.18767025324, 0.0]
['beep', 0.0, -14761.87434934072, 0.0, 0.0, 0.0, 0.0, -23428.74091014158, 0.0]
['beep', 0.0, -14692.472182806992, 0.0, 0.0, 0.0, 0.0, -23389.938281767165, 0.0]
['beep', 0.0, -14664.04076385984, 0.0, 0.0, 0.0, 0.0, -23482.11687590085, 0.0]
['beep', 0.0, -14704.363310857216, 0.0, 0.0, 0.0, 0.0, -23579.078743347975, 0.0]
['beep', 0.0, -14745.892852055176, 0.0, 0.0, 0.0, 0.0, -23548.61331565539, 0.0]
['beep', 0.0, -14719.607200575734, 0.0, 0.0, 0.0, 0.0, -23434.7311776556, 0.0]
['beep', 0.0, -14651.121455564673, 0.0, 0.0, 0.0, 0.0, -23396.375584170295, 0.0]
['beep', 0.0, -14623.204126739995, 0.0, 0.0, 0.0, 0.0, -23487.74951550359, 0.0]
['beep', 0.0, -14663.325508037271, 0.0, 0.0, 0.0, 0.0, -23583.90672015032, 0.0]
['beep', 0.0, -14704.542124812857, 0.0, 0.0, 0.0, 0.0, -23553.106016290905, 0.0]
['beep', 0.0, -14678.882322178164, 0.0, 0.0, 0.0, 0.0, -23438.799195146465, 0.0]
['beep', 0.0, -14610.150707978095, 0.0, 0.0, 0.0, 0.0, -23399.169552227206, 0.0]
['beep', 0.0, -14581.227550652928, 0.0, 0.0, 0.0, 0.0, -23490.275262627038, 0.0]
['beep', 0.0, -14621.639504628123, 0.0, 0.0, 0.0, 0.0, -23586.81244692951, 0.0]
['beep', 0.0, -14664.24192955994, 0.0, 0.0, 0.0, 0.0, -23556.481129703658, 0.0]
['beep', 0.0, -14639.319734492272, 0.0, 0.0, 0.0, 0.0, -23442.040198092487, 0.0]
['beep', 0.0, -14570.454009825471, 0.0, 0.0, 0.0, 0.0, -23402.41055517323, 0.0]
['beep', 0.0, -14541.508500755848, 0.0, 0.0, 0.0, 0.0, -23493.85154173989, 0.0]
['beep', 0.0, -14581.048736697287, 0.0, 0.0, 0.0, 0.0, -23591.305147565028, 0.0]
['beep', 0.0, -14622.935905806531, 0.0, 0.0, 0.0, 0.0, -23561.733789650654, 0.0]
['beep', 0.0, -14597.7454898054, 0.0, 0.0, 0.0, 0.0, -23446.331733027906, 0.0]
['beep', 0.0, -14528.633895949592, 0.0, 0.0, 0.0, 0.0, -23405.271578463507, 0.0]
['beep', 0.0, -14499.509572924326, 0.0, 0.0, 0.0, 0.0, -23496.399640607793, 0.0]
['beep', 0.0, -14538.7815879323, 0.0, 0.0, 0.0, 0.0, -23594.94848191124, 0.0]
['beep', 0.0, -14581.294605886294, 0.0, 0.0, 0.0, 0.0, -23566.584118197457, 0.0]
['beep', 0.0, -14556.573576518724, 0.0, 0.0, 0.0, 0.0, -23451.584392974903, 0.0]
['beep', 0.0, -14487.707851851923, 0.0, 0.0, 0.0, 0.0, -23410.524238410504, 0.0]
['beep', 0.0, -14458.04708695973, 0.0, 0.0, 0.0, 0.0, -23502.144038932805, 0.0]
['beep', 0.0, -14497.095584523153, 0.0, 0.0, 0.0, 0.0, -23601.631653503377, 0.0]
['beep', 0.0, -14538.289849554283, 0.0, 0.0, 0.0, 0.0, -23573.66962118979, 0.0]
['beep', 0.0, -14512.808860875233, 0.0, 0.0, 0.0, 0.0, -23458.98282038961, 0.0]
['beep', 0.0, -14444.054894930709, 0.0, 0.0, 0.0, 0.0, -23417.855610591843, 0.0]
['beep', 0.0, -14414.237667827329, 0.0, 0.0, 0.0, 0.0, -23509.363652391872, 0.0]
['beep', 0.0, -14453.33086887966, 0.0, 0.0, 0.0, 0.0, -23608.493639051158, 0.0]
['beep', 0.0, -14495.754479855834, 0.0, 0.0, 0.0, 0.0, -23580.442199759746, 0.0]
['beep', 0.0, -14471.34637491064, 0.0, 0.0, 0.0, 0.0, -23464.906032670264, 0.0]
['beep', 0.0, -14402.61476071057, 0.0, 0.0, 0.0, 0.0, -23422.9294565832, 0.0]
['beep', 0.0, -14372.03757429571, 0.0, 0.0, 0.0, 0.0, -23514.348091405405, 0.0]
['beep', 0.0, -14410.236705569829, 0.0, 0.0, 0.0, 0.0, -23614.640368776367, 0.0]
['beep', 0.0, -14452.61561305709, 0.0, 0.0, 0.0, 0.0, -23587.482999263168, 0.0]
['beep', 0.0, -14428.207508111896, 0.0, 0.0, 0.0, 0.0, -23471.611556006857, 0.0]
['beep', 0.0, -14359.364135189551, 0.0, 0.0, 0.0, 0.0, -23428.226820019107, 0.0]
['beep', 0.0, -14329.92688774191, 0.0, 0.0, 0.0, 0.0, -23518.416108896272, 0.0]
['beep', 0.0, -14368.595405649592, 0.0, 0.0, 0.0, 0.0, -23618.23899963367, 0.0]
['beep', 0.0, -14410.70609220339, 0.0, 0.0, 0.0, 0.0, -23590.925167909285, 0.0]
['beep', 0.0, -14386.633263425025, 0.0, 0.0, 0.0, 0.0, -23474.629041508324, 0.0]
['beep', 0.0, -14317.45461433585, 0.0, 0.0, 0.0, 0.0, -23430.819622375922, 0.0]
['beep', 0.0, -14286.139820353965, 0.0, 0.0, 0.0, 0.0, -23521.902981031297, 0.0]
['beep', 0.0, -14324.160137672441, 0.0, 0.0, 0.0, 0.0, -23623.089328180475, 0.0]
['beep', 0.0, -14367.097838771087, 0.0, 0.0, 0.0, 0.0, -23595.887255178364, 0.0]
['beep', 0.0, -14343.561451859649, 0.0, 0.0, 0.0, 0.0, -23479.434666566216, 0.0]
['beep', 0.0, -14274.807485915124, 0.0, 0.0, 0.0, 0.0, -23435.82641313391, 0.0]
['beep', 0.0, -14244.163244266898, 0.0, 0.0, 0.0, 0.0, -23526.7533095781, 0.0]
['beep', 0.0, -14282.20591332983, 0.0, 0.0, 0.0, 0.0, -23627.693787538265, 0.0]
['beep', 0.0, -14324.473062094816, 0.0, 0.0, 0.0, 0.0, -23601.743412225656, 0.0]
['beep', 0.0, -14300.511992038726, 0.0, 0.0, 0.0, 0.0, -23485.40258233578, 0.0]
['beep', 0.0, -14231.66861911638, 0.0, 0.0, 0.0, 0.0, -23440.363817258338, 0.0]
['beep', 0.0, -14201.38200537944, 0.0, 0.0, 0.0, 0.0, -23530.441347413227, 0.0]
['beep', 0.0, -14239.871709331479, 0.0, 0.0, 0.0, 0.0, -23632.544116085068, 0.0]
['beep', 0.0, -14282.787058685668, 0.0, 0.0, 0.0, 0.0, -23607.308996595028, 0.0]
['beep', 0.0, -14259.697706663335, 0.0, 0.0, 0.0, 0.0, -23490.901111471787, 0.0]
['beep', 0.0, -14190.630816296438, 0.0, 0.0, 0.0, 0.0, -23445.63882894979, 0.0]
['beep', 0.0, -14159.651298481382, 0.0, 0.0, 0.0, 0.0, -23536.31985620497, 0.0]
['beep', 0.0, -14197.962188477779, 0.0, 0.0, 0.0, 0.0, -23639.96489524423, 0.0]
['beep', 0.0, -14240.810482598601, 0.0, 0.0, 0.0, 0.0, -23615.176810643294, 0.0]
['beep', 0.0, -14217.631723598448, 0.0, 0.0, 0.0, 0.0, -23497.56193131947, 0.0]
['beep', 0.0, -14149.436551265306, 0.0, 0.0, 0.0, 0.0, -23451.204413319163, 0.0]
['beep', 0.0, -14118.479385194707, 0.0, 0.0, 0.0, 0.0, -23541.79603359652, 0.0]
['beep', 0.0, -14157.28201356912, 0.0, 0.0, 0.0, 0.0, -23645.329313913502, 0.0]
['beep', 0.0, -14201.203191423798, 0.0, 0.0, 0.0, 0.0, -23620.4741740792, 0.0]
['beep', 0.0, -14178.247949868197, 0.0, 0.0, 0.0, 0.0, -23503.619254066856, 0.0]
['beep', 0.0, -14109.583390901495, 0.0, 0.0, 0.0, 0.0, -23457.93228840021, 0.0]
['beep', 0.0, -14078.380355641886, 0.0, 0.0, 0.0, 0.0, -23548.50155693311, 0.0]
['beep', 0.0, -14116.17715551581, 0.0, 0.0, 0.0, 0.0, -23651.699561083267, 0.0]
['beep', 0.0, -14159.584243248017, 0.0, 0.0, 0.0, 0.0, -23627.6267323049, 0.0]
['beep', 0.0, -14136.539594714593, 0.0, 0.0, 0.0, 0.0, -23511.30825415948, 0.0]
['beep', 0.0, -14067.428000858785, 0.0, 0.0, 0.0, 0.0, -23465.241308837096, 0.0]
['beep', 0.0, -14036.046151643533, 0.0, 0.0, 0.0, 0.0, -23554.938859336242, 0.0]
['beep', 0.0, -14074.222931173199, 0.0, 0.0, 0.0, 0.0, -23658.762712331143, 0.0]
['beep', 0.0, -14117.115928782932, 0.0, 0.0, 0.0, 0.0, -23635.4274911198, 0.0]
['beep', 0.0, -14094.250094205154, 0.0, 0.0, 0.0, 0.0, -23518.729033318643, 0.0]
['beep', 0.0, -14025.58553523845, 0.0, 0.0, 0.0, 0.0, -23471.611556006857, 0.0]
['beep', 0.0, -13994.24838951211, 0.0, 0.0, 0.0, 0.0, -23560.929126850264, 0.0]
['beep', 0.0, -14031.911078919302, 0.0, 0.0, 0.0, 0.0, -23665.31177345655, 0.0]
['beep', 0.0, -14075.318166651508, 0.0, 0.0, 0.0, 0.0, -23642.87062202342, 0.0]
['beep', 0.0, -14053.301698363031, 0.0, 0.0, 0.0, 0.0, -23526.350978177903, 0.0]
['beep', 0.0, -13985.285339985532, 0.0, 0.0, 0.0, 0.0, -23478.540596788003, 0.0]
['beep', 0.0, -13953.836435536914, 0.0, 0.0, 0.0, 0.0, -23567.4111327423, 0.0]
['beep', 0.0, -13991.253255755099, 0.0, 0.0, 0.0, 0.0, -23671.4361514373, 0.0]
['beep', 0.0, -14034.705046976214, 0.0, 0.0, 0.0, 0.0, -23649.129110470905, 0.0]
['beep', 0.0, -14011.682750187249, 0.0, 0.0, 0.0, 0.0, -23533.07885325895, 0.0]
['beep', 0.0, -13942.57115633144, 0.0, 0.0, 0.0, 0.0, -23485.44728582469, 0.0]
['beep', 0.0, -13911.368121071831, 0.0, 0.0, 0.0, 0.0, -23574.541339223546, 0.0]
['beep', 0.0, -13949.433141879219, 0.0, 0.0, 0.0, 0.0, -23679.035744552108, 0.0]
['beep', 0.0, -13992.594360422418, 0.0, 0.0, 0.0, 0.0, -23657.39925591937, 0.0]
['beep', 0.0, -13970.689650856215, 0.0, 0.0, 0.0, 0.0, -23542.13130976335, 0.0]
['beep', 0.0, -13901.868629678325, 0.0, 0.0, 0.0, 0.0, -23494.566797562456, 0.0]
['beep', 0.0, -13870.062097318423, 0.0, 0.0, 0.0, 0.0, -23583.370278283393, 0.0]
['beep', 0.0, -13908.104766381357, 0.0, 0.0, 0.0, 0.0, -23688.199959778784, 0.0]
['beep', 0.0, -13952.33886865841, 0.0, 0.0, 0.0, 0.0, -23666.697581612778, 0.0]
['beep', 0.0, -13931.127063170323, 0.0, 0.0, 0.0, 0.0, -23550.736731378645, 0.0]
['beep', 0.0, -13863.043649559457, 0.0, 0.0, 0.0, 0.0, -23502.546370333002, 0.0]
['beep', 0.0, -13830.92419277718, 0.0, 0.0, 0.0, 0.0, -23590.031098131072, 0.0]
['beep', 0.0, -13868.45277171764, 0.0, 0.0, 0.0, 0.0, -23694.30198601508, 0.0]
['beep', 0.0, -13912.284542594498, 0.0, 0.0, 0.0, 0.0, -23672.374924704425, 0.0]
['beep', 0.0, -13890.156315583745, 0.0, 0.0, 0.0, 0.0, -23555.72117039218, 0.0]
['beep', 0.0, -13820.798852538926, 0.0, 0.0, 0.0, 0.0, -23506.636739568323, 0.0]
['beep', 0.0, -13788.29941610091, 0.0, 0.0, 0.0, 0.0, -23594.94848191124, 0.0]
['beep', 0.0, -13826.54325086394, 0.0, 0.0, 0.0, 0.0, -23699.934625617818, 0.0]
['beep', 0.0, -13870.978518841091, 0.0, 0.0, 0.0, 0.0, -23679.549834674577, 0.0]
['beep', 0.0, -13848.73853310806, 0.0, 0.0, 0.0, 0.0, -23564.080722818464, 0.0]
['beep', 0.0, -13779.269311340966, 0.0, 0.0, 0.0, 0.0, -23515.063347227973, 0.0]
['beep', 0.0, -13746.47930222503, 0.0, 0.0, 0.0, 0.0, -23602.793944215053, 0.0]
['beep', 0.0, -13783.694956743117, 0.0, 0.0, 0.0, 0.0, -23707.534218732624, 0.0]
['beep', 0.0, -13826.811471797404, 0.0, 0.0, 0.0, 0.0, -23687.21648302275, 0.0]
['beep', 0.0, -13805.264390142489, 0.0, 0.0, 0.0, 0.0, -23571.881481633365, 0.0]
['beep', 0.0, -13736.800996875883, 0.0, 0.0, 0.0, 0.0, -23522.126498475853, 0.0]
['beep', 0.0, -13703.966284271037, 0.0, 0.0, 0.0, 0.0, -23608.694804751256, 0.0]
['beep', 0.0, -13741.114883555758, 0.0, 0.0, 0.0, 0.0, -23714.485611258224, 0.0]
['beep', 0.0, -13785.371337577266, 0.0, 0.0, 0.0, 0.0, -23694.972538348742, 0.0]
['beep', 0.0, -13764.360697789276, 0.0, 0.0, 0.0, 0.0, -23578.94463288124, 0.0]
['beep', 0.0, -13695.964359756037, 0.0, 0.0, 0.0, 0.0, -23528.22852471215, 0.0]
['beep', 0.0, -13662.861426217727, 0.0, 0.0, 0.0, 0.0, -23615.33327285448, 0.0]
['beep', 0.0, -13699.406528402154, 0.0, 0.0, 0.0, 0.0, -23722.129907861938, 0.0]
['beep', 0.0, -13744.065313823858, 0.0, 0.0, 0.0, 0.0, -23703.443849497304, 0.0]
['beep', 0.0, -13723.971095558536, 0.0, 0.0, 0.0, 0.0, -23586.72303995169, 0.0]
['beep', 0.0, -13655.552405780842, 0.0, 0.0, 0.0, 0.0, -23535.85046957141, 0.0]
['beep', 0.0, -13622.494175731443, 0.0, 0.0, 0.0, 0.0, -23623.312845625027, 0.0]
['beep', 0.0, -13658.882815704683, 0.0, 0.0, 0.0, 0.0, -23730.26594284367, 0.0]
['beep', 0.0, -13703.00515925946, 0.0, 0.0, 0.0, 0.0, -23711.06579435656, 0.0]
['beep', 0.0, -13682.530961338398, 0.0, 0.0, 0.0, 0.0, -23593.629728988377, 0.0]
['beep', 0.0, -13614.022864582881, 0.0, 0.0, 0.0, 0.0, -23541.974847552163, 0.0]
['beep', 0.0, -13580.674061855563, 0.0, 0.0, 0.0, 0.0, -23629.079595694497, 0.0]
['beep', 0.0, -13617.085053573259, 0.0, 0.0, 0.0, 0.0, -23737.731425491744, 0.0]
['beep', 0.0, -13661.296804105856, 0.0, 0.0, 0.0, 0.0, -23720.297064816605, 0.0]
['beep', 0.0, -13641.023771884891, 0.0, 0.0, 0.0, 0.0, -23602.928054681786, 0.0]
['beep', 0.0, -13572.538026873832, 0.0, 0.0, 0.0, 0.0, -23550.17793776726, 0.0]
['beep', 0.0, -13538.697485768496, 0.0, 0.0, 0.0, 0.0, -23637.05916846504, 0.0]
['beep', 0.0, -13574.795553063817, 0.0, 0.0, 0.0, 0.0, -23744.951038950807, 0.0]
['beep', 0.0, -13619.499041974432, 0.0, 0.0, 0.0, 0.0, -23727.427271297845, 0.0]
['beep', 0.0, -13599.158954520102, 0.0, 0.0, 0.0, 0.0, -23611.600531530446, 0.0]
['beep', 0.0, -13530.382636831122, 0.0, 0.0, 0.0, 0.0, -23559.766836138588, 0.0]
['beep', 0.0, -13496.855020148161, 0.0, 0.0, 0.0, 0.0, -23646.268087180626, 0.0]
['beep', 0.0, -13532.953087443482, 0.0, 0.0, 0.0, 0.0, -23753.914088477384, 0.0]
['beep', 0.0, -13577.611872865185, 0.0, 0.0, 0.0, 0.0, -23736.859707457985, 0.0]
['beep', 0.0, -13557.763523788873, 0.0, 0.0, 0.0, 0.0, -23621.122374668405, 0.0]
['beep', 0.0, -13489.031909588804, 0.0, 0.0, 0.0, 0.0, -23568.931051365264, 0.0]
['beep', 0.0, -13455.683106861487, 0.0, 0.0, 0.0, 0.0, -23655.02997100711, 0.0]
['beep', 0.0, -13492.228209045912, 0.0, 0.0, 0.0, 0.0, -23763.055951959606, 0.0]
['beep', 0.0, -13536.752884000885, 0.0, 0.0, 0.0, 0.0, -23746.761530251686, 0.0]
['beep', 0.0, -13516.85983143566, 0.0, 0.0, 0.0, 0.0, -23630.95714222874, 0.0]
['beep', 0.0, -13448.485845146877, 0.0, 0.0, 0.0, 0.0, -23578.877577647876, 0.0]
['beep', 0.0, -13414.868821486096, 0.0, 0.0, 0.0, 0.0, -23664.842386822987, 0.0]
['beep', 0.0, -13451.70449634844, 0.0, 0.0, 0.0, 0.0, -23772.354277653012, 0.0]
['beep', 0.0, -13497.123241081625, 0.0, 0.0, 0.0, 0.0, -23756.015152456184, 0.0]
['beep', 0.0, -13477.967796083427, 0.0, 0.0, 0.0, 0.0, -23640.702502811255, 0.0]
['beep', 0.0, -13409.929085961472, 0.0, 0.0, 0.0, 0.0, -23588.555882997025, 0.0]
['beep', 0.0, -13376.64733846752, 0.0, 0.0, 0.0, 0.0, -23674.16306426085, 0.0]
['beep', 0.0, -13413.214792396402, 0.0, 0.0, 0.0, 0.0, -23782.390210913447, 0.0]
['beep', 0.0, -13458.253557473847, 0.0, 0.0, 0.0, 0.0, -23767.41454212839, 0.0]
['beep', 0.0, -13438.4722636309, 0.0, 0.0, 0.0, 0.0, -23651.811319805543, 0.0]
['beep', 0.0, -13370.098277342115, 0.0, 0.0, 0.0, 0.0, -23598.10007787944, 0.0]
['beep', 0.0, -13336.168329258959, 0.0, 0.0, 0.0, 0.0, -23683.036706809606, 0.0]
['beep', 0.0, -13372.378155276556, 0.0, 0.0, 0.0, 0.0, -23790.772115084186, 0.0]
['beep', 0.0, -13417.79690000974, 0.0, 0.0, 0.0, 0.0, -23775.6623358324, 0.0]
['beep', 0.0, -13398.4626410559, 0.0, 0.0, 0.0, 0.0, -23660.260279209648, 0.0]
['beep', 0.0, -13329.552212900187, 0.0, 0.0, 0.0, 0.0, -23605.945540183253, 0.0]
['beep', 0.0, -13295.130526439016, 0.0, 0.0, 0.0, 0.0, -23689.988099335205, 0.0]
['beep', 0.0, -13330.513337911767, 0.0, 0.0, 0.0, 0.0, -23798.170542498894, 0.0]
['beep', 0.0, -13375.820323922673, 0.0, 0.0, 0.0, 0.0, -23783.194873713837, 0.0]
['beep', 0.0, -13357.35778300259, 0.0, 0.0, 0.0, 0.0, -23667.68105836881, 0.0]
['beep', 0.0, -13289.542590325189, 0.0, 0.0, 0.0, 0.0, -23613.411022831326, 0.0]
['beep', 0.0, -13255.34442130857, 0.0, 0.0, 0.0, 0.0, -23697.78885815011, 0.0]
['beep', 0.0, -13290.86134324805, 0.0, 0.0, 0.0, 0.0, -23807.04418504765, 0.0]
['beep', 0.0, -13336.257736236781, 0.0, 0.0, 0.0, 0.0, -23792.7167168518, 0.0]
['beep', 0.0, -13317.817547061151, 0.0, 0.0, 0.0, 0.0, -23677.40406720687, 0.0]
['beep', 0.0, -13250.248223572758, 0.0, 0.0, 0.0, 0.0, -23622.843458991465, 0.0]
['beep', 0.0, -13215.938295833863, 0.0, 0.0, 0.0, 0.0, -23706.953073376786, 0.0]
['beep', 0.0, -13251.768142195719, 0.0, 0.0, 0.0, 0.0, -23816.297807252147, 0.0]
['beep', 0.0, -13297.544514840189, 0.0, 0.0, 0.0, 0.0, -23803.75847861272, 0.0]
['beep', 0.0, -13279.14902915347, 0.0, 0.0, 0.0, 0.0, -23689.29519525709, 0.0]
['beep', 0.0, -13210.976208564784, 0.0, 0.0, 0.0, 0.0, -23634.39931087486, 0.0]
['beep', 0.0, -13175.951025003318, 0.0, 0.0, 0.0, 0.0, -23718.441870026814, 0.0]
['beep', 0.0, -13211.199726009338, 0.0, 0.0, 0.0, 0.0, -23828.121880069004, 0.0]
['beep', 0.0, -13256.551415509155, 0.0, 0.0, 0.0, 0.0, -23814.599074673544, 0.0]
['beep', 0.0, -13238.155929822438, 0.0, 0.0, 0.0, 0.0, -23698.437058739313, 0.0]
['beep', 0.0, -13169.536074344645, 0.0, 0.0, 0.0, 0.0, -23642.69180806778, 0.0]
['beep', 0.0, -13133.482710538234, 0.0, 0.0, 0.0, 0.0, -23726.667311986366, 0.0]
['beep', 0.0, -13168.46319061079, 0.0, 0.0, 0.0, 0.0, -23836.90611563994, 0.0]
['beep', 0.0, -13213.94899057734, 0.0, 0.0, 0.0, 0.0, -23824.746766656255, 0.0]
['beep', 0.0, -13195.598208379533, 0.0, 0.0, 0.0, 0.0, -23710.26113155617, 0.0]
['beep', 0.0, -13127.470091279756, 0.0, 0.0, 0.0, 0.0, -23654.270011695626, 0.0]
['beep', 0.0, -13091.841410617997, 0.0, 0.0, 0.0, 0.0, -23737.03852141363, 0.0]
['beep', 0.0, -13126.441911034814, 0.0, 0.0, 0.0, 0.0, -23846.51736575572, 0.0]
['beep', 0.0, -13172.218283679282, 0.0, 0.0, 0.0, 0.0, -23834.536830727677, 0.0]
['beep', 0.0, -13154.381591603946, 0.0, 0.0, 0.0, 0.0, -23719.581808994033, 0.0]
['beep', 0.0, -13085.940550081796, 0.0, 0.0, 0.0, 0.0, -23663.702447855765, 0.0]
['beep', 0.0, -13050.20011069776, 0.0, 0.0, 0.0, 0.0, -23746.716826762775, 0.0]
['beep', 0.0, -13084.957073325762, 0.0, 0.0, 0.0, 0.0, -23856.799168205165, 0.0]
['beep', 0.0, -13130.956963414785, 0.0, 0.0, 0.0, 0.0, -23844.90804015494, 0.0]
['beep', 0.0, -13113.41084401737, 0.0, 0.0, 0.0, 0.0, -23729.483631787734, 0.0]
['beep', 0.0, -13045.126264706405, 0.0, 0.0, 0.0, 0.0, -23672.665497382342, 0.0]
['beep', 0.0, -13009.318770089003, 0.0, 0.0, 0.0, 0.0, -23755.74693152272, 0.0]
['beep', 0.0, -13043.874567016908, 0.0, 0.0, 0.0, 0.0, -23866.276307854216, 0.0]
['beep', 0.0, -13090.25443676167, 0.0, 0.0, 0.0, 0.0, -23855.413360048933, 0.0]
['beep', 0.0, -13072.797724342076, 0.0, 0.0, 0.0, 0.0, -23740.95007669331, 0.0]
['beep', 0.0, -13004.624903753389, 0.0, 0.0, 0.0, 0.0, -23683.908424843365, 0.0]
['beep', 0.0, -12968.593891691435, 0.0, 0.0, 0.0, 0.0, -23765.961678738797, 0.0]
['beep', 0.0, -13002.81441245251, 0.0, 0.0, 0.0, 0.0, -23875.753447503263, 0.0]
['beep', 0.0, -13049.261337430638, 0.0, 0.0, 0.0, 0.0, -23864.82344446462, 0.0]
['beep', 0.0, -13033.10102618945, 0.0, 0.0, 0.0, 0.0, -23749.84607098652, 0.0]
['beep', 0.0, -12965.7105166567, 0.0, 0.0, 0.0, 0.0, -23692.26797726965, 0.0]
['beep', 0.0, -12929.143062727817, 0.0, 0.0, 0.0, 0.0, -23774.4106381429, 0.0]
['beep', 0.0, -12963.207121277705, 0.0, 0.0, 0.0, 0.0, -23885.3870493635, 0.0]
['beep', 0.0, -13009.184659622271, 0.0, 0.0, 0.0, 0.0, -23874.613508536044, 0.0]
['beep', 0.0, -12992.376147791882, 0.0, 0.0, 0.0, 0.0, -23759.36791412448, 0.0]
['beep', 0.0, -12924.829176047942, 0.0, 0.0, 0.0, 0.0, -23701.27573028514, 0.0]
['beep', 0.0, -12888.485239563614, 0.0, 0.0, 0.0, 0.0, -23783.016059758196, 0.0]
['beep', 0.0, -12922.772815558055, 0.0, 0.0, 0.0, 0.0, -23894.774782034732, 0.0]
['beep', 0.0, -12969.42090623628, 0.0, 0.0, 0.0, 0.0, -23885.409401107958, 0.0]
['beep', 0.0, -12953.350001972914, 0.0, 0.0, 0.0, 0.0, -23771.12493170797, 0.0]
['beep', 0.0, -12885.825381973433, 0.0, 0.0, 0.0, 0.0, -23712.56336123507, 0.0]
['beep', 0.0, -12849.190872811185, 0.0, 0.0, 0.0, 0.0, -23793.99076628575, 0.0]
['beep', 0.0, -12883.41139357226, 0.0, 0.0, 0.0, 0.0, -23905.458915884366, 0.0]
['beep', 0.0, -12930.394760417315, 0.0, 0.0, 0.0, 0.0, -23896.607625080065, 0.0]
['beep', 0.0, -12914.525021854046, 0.0, 0.0, 0.0, 0.0, -23781.22792020177, 0.0]
['beep', 0.0, -12846.575718709913, 0.0, 0.0, 0.0, 0.0, -23721.727576461744, 0.0]
['beep', 0.0, -12809.650636869746, 0.0, 0.0, 0.0, 0.0, -23803.534961168167, 0.0]
['beep', 0.0, -12843.602936697358, 0.0, 0.0, 0.0, 0.0, -23916.25480845628, 0.0]
['beep', 0.0, -12889.73693725311, 0.0, 0.0, 0.0, 0.0, -23907.895256029995, 0.0]
['beep', 0.0, -12872.950777167176, 0.0, 0.0, 0.0, 0.0, -23792.94023429635, 0.0]
['beep', 0.0, -12805.403805423237, 0.0, 0.0, 0.0, 0.0, -23733.12696613395, 0.0]
['beep', 0.0, -12768.031688693964, 0.0, 0.0, 0.0, 0.0, -23813.392080472957, 0.0]
['beep', 0.0, -12801.358139676828, 0.0, 0.0, 0.0, 0.0, -23925.68724461642, 0.0]
['beep', 0.0, -12848.654430944256, 0.0, 0.0, 0.0, 0.0, -23918.244113712804, 0.0]
['beep', 0.0, -12832.896451103265, 0.0, 0.0, 0.0, 0.0, -23803.981996057275, 0.0]
['beep', 0.0, -12765.550645059426, 0.0, 0.0, 0.0, 0.0, -23744.191079639328, 0.0]
['beep', 0.0, -12728.692618452624, 0.0, 0.0, 0.0, 0.0, -23825.260856778725, 0.0]
['beep', 0.0, -12761.706145013111, 0.0, 0.0, 0.0, 0.0, -23937.868945344562, 0.0]
['beep', 0.0, -12808.220125224607, 0.0, 0.0, 0.0, 0.0, -23930.06818652966, 0.0]
['beep', 0.0, -12792.484497128069, 0.0, 0.0, 0.0, 0.0, -23815.71666189631, 0.0]
['beep', 0.0, -12724.691656195124, 0.0, 0.0, 0.0, 0.0, -23755.299896633613, 0.0]
['beep', 0.0, -12687.61011214377, 0.0, 0.0, 0.0, 0.0, -23835.967342372816, 0.0]
['beep', 0.0, -12721.160080571186, 0.0, 0.0, 0.0, 0.0, -23948.7542448943, 0.0]
['beep', 0.0, -12767.986985205054, 0.0, 0.0, 0.0, 0.0, -23941.646390157508, 0.0]
['beep', 0.0, -12752.497226297526, 0.0, 0.0, 0.0, 0.0, -23827.160755057426, 0.0]
['beep', 0.0, -12684.816144086855, 0.0, 0.0, 0.0, 0.0, -23765.894623505428, 0.0]
['beep', 0.0, -12646.684068046103, 0.0, 0.0, 0.0, 0.0, -23846.15973784444, 0.0]
['beep', 0.0, -12679.339966695306, 0.0, 0.0, 0.0, 0.0, -23959.617192699578, 0.0]
['beep', 0.0, -12726.189223073628, 0.0, 0.0, 0.0, 0.0, -23953.26929727427, 0.0]
['beep', 0.0, -12710.811222888378, 0.0, 0.0, 0.0, 0.0, -23838.96247612983, 0.0]
['beep', 0.0, -12643.755989522457, 0.0, 0.0, 0.0, 0.0, -23777.830455044565, 0.0]
['beep', 0.0, -12605.914486159621, 0.0, 0.0, 0.0, 0.0, -23857.737941472285, 0.0]
['beep', 0.0, -12638.391570853182, 0.0, 0.0, 0.0, 0.0, -23971.620079472075, 0.0]
['beep', 0.0, -12685.240827231506, 0.0, 0.0, 0.0, 0.0, -23966.814454414183, 0.0]
['beep', 0.0, -12671.114524735753, 0.0, 0.0, 0.0, 0.0, -23852.552336758654, 0.0]
['beep', 0.0, -12604.662788470125, 0.0, 0.0, 0.0, 0.0, -23790.213321472806, 0.0]
['beep', 0.0, -12567.380078718672, 0.0, 0.0, 0.0, 0.0, -23869.517310800235, 0.0]
['beep', 0.0, -12600.661826212625, 0.0, 0.0, 0.0, 0.0, -23984.159408111504, 0.0]
['beep', 0.0, -12647.891062246688, 0.0, 0.0, 0.0, 0.0, -23979.107913864606, 0.0]
['beep', 0.0, -12633.407131839649, 0.0, 0.0, 0.0, 0.0, -23864.085836897593, 0.0]
['beep', 0.0, -12566.016622306899, 0.0, 0.0, 0.0, 0.0, -23799.95868205532, 0.0]
['beep', 0.0, -12527.616325332681, 0.0, 0.0, 0.0, 0.0, -23878.234491137802, 0.0]
['beep', 0.0, -12560.24987223743, 0.0, 0.0, 0.0, 0.0, -23993.54714078273, 0.0]
['beep', 0.0, -12607.680273971591, 0.0, 0.0, 0.0, 0.0, -23989.724992480875, 0.0]
['beep', 0.0, -12593.35280577574, 0.0, 0.0, 0.0, 0.0, -23874.948784702872, 0.0]
['beep', 0.0, -12525.76113054289, 0.0, 0.0, 0.0, 0.0, -23811.693347894354, 0.0]
['beep', 0.0, -12487.316130079762, 0.0, 0.0, 0.0, 0.0, -23890.72911628832, 0.0]
['beep', 0.0, -12520.508470595894, 0.0, 0.0, 0.0, 0.0, -24006.242931633347, 0.0]
['beep', 0.0, -12567.827113607778, 0.0, 0.0, 0.0, 0.0, -24002.621949031585, 0.0]
['beep', 0.0, -12553.253776222919, 0.0, 0.0, 0.0, 0.0, -23888.002203464774, 0.0]
['beep', 0.0, -12485.885618434622, 0.0, 0.0, 0.0, 0.0, -23823.71858641131, 0.0]
['beep', 0.0, -12447.12769354912, 0.0, 0.0, 0.0, 0.0, -23902.30731991617, 0.0]
['beep', 0.0, -12479.157743353575, 0.0, 0.0, 0.0, 0.0, -24018.268170150302, 0.0]
['beep', 0.0, -12526.38697938764, 0.0, 0.0, 0.0, 0.0, -24014.33426312617, 0.0]
['beep', 0.0, -12512.014807702877, 0.0, 0.0, 0.0, 0.0, -23899.245130925792, 0.0]
['beep', 0.0, -12444.780760381313, 0.0, 0.0, 0.0, 0.0, -23835.185031316883, 0.0]
['beep', 0.0, -12405.776966306803, 0.0, 0.0, 0.0, 0.0, -23913.818468310652, 0.0]
['beep', 0.0, -12437.9858300669, 0.0, 0.0, 0.0, 0.0, -24029.600504589143, 0.0]
['beep', 0.0, -12486.220894601453, 0.0, 0.0, 0.0, 0.0, -24026.60537083213, 0.0]
['beep', 0.0, -12472.474571761439, 0.0, 0.0, 0.0, 0.0, -23912.142087476503, 0.0]
['beep', 0.0, -12405.084062228689, 0.0, 0.0, 0.0, 0.0, -23847.232621578292, 0.0]
['beep', 0.0, -12366.01321292081, 0.0, 0.0, 0.0, 0.0, -23924.904933560483, 0.0]
['beep', 0.0, -12397.529172602794, 0.0, 0.0, 0.0, 0.0, -24041.066949494714, 0.0]
['beep', 0.0, -12444.55724293676, 0.0, 0.0, 0.0, 0.0, -24038.89883028255, 0.0]
['beep', 0.0, -12431.07914103021, 0.0, 0.0, 0.0, 0.0, -23924.5473056492, 0.0]
['beep', 0.0, -12364.023907664288, 0.0, 0.0, 0.0, 0.0, -23859.6825432399, 0.0]
['beep', 0.0, -12325.1095205676, 0.0, 0.0, 0.0, 0.0, -23937.35485522209, 0.0]
['beep', 0.0, -12357.631308750071, 0.0, 0.0, 0.0, 0.0, -24053.650981623054, 0.0]
['beep', 0.0, -12405.776966306803, 0.0, 0.0, 0.0, 0.0, -24052.08635951118, 0.0]
['beep', 0.0, -12392.45532661144, 0.0, 0.0, 0.0, 0.0, -23937.69013138892, 0.0]
['beep', 0.0, -12324.751892656315, 0.0, 0.0, 0.0, 0.0, -23871.998354434774, 0.0]
['beep', 0.0, -12285.301063692697, 0.0, 0.0, 0.0, 0.0, -23949.201279783403, 0.0]
['beep', 0.0, -12316.280581507754, 0.0, 0.0, 0.0, 0.0, -24066.2797172403, 0.0]
['beep', 0.0, -12363.129837886077, 0.0, 0.0, 0.0, 0.0, -24065.184481761993, 0.0]
['beep', 0.0, -12349.942308657446, 0.0, 0.0, 0.0, 0.0, -23949.961239094882, 0.0]
['beep', 0.0, -12283.065889247167, 0.0, 0.0, 0.0, 0.0, -23882.52602607322, 0.0]
['beep', 0.0, -12243.480949816818, 0.0, 0.0, 0.0, 0.0, -23959.438378743933, 0.0]
['beep', 0.0, -12274.259301931776, 0.0, 0.0, 0.0, 0.0, -24077.165016790037, 0.0]
['beep', 0.0, -12321.53324145475, 0.0, 0.0, 0.0, 0.0, -24076.71798190093, 0.0]
['beep', 0.0, -12307.563401170184, 0.0, 0.0, 0.0, 0.0, -23961.405332256, 0.0]
['beep', 0.0, -12239.52469104823, 0.0, 0.0, 0.0, 0.0, -23893.277215156224, 0.0]
['beep', 0.0, -12199.693882428872, 0.0, 0.0, 0.0, 0.0, -23969.049628859717, 0.0]
['beep', 0.0, -12231.455711299863, 0.0, 0.0, 0.0, 0.0, -24086.66450818354, 0.0]
['beep', 0.0, -12279.467258389863, 0.0, 0.0, 0.0, 0.0, -24087.178598306014, 0.0]
['beep', 0.0, -12266.749115794793, 0.0, 0.0, 0.0, 0.0, -23972.670611461475, 0.0]
['beep', 0.0, -12199.738585917781, 0.0, 0.0, 0.0, 0.0, -23904.318976917148, 0.0]
['beep', 0.0, -12159.97483253179, 0.0, 0.0, 0.0, 0.0, -23979.912576664996, 0.0]
['beep', 0.0, -12191.13316430249, 0.0, 0.0, 0.0, 0.0, -24098.443877511487, 0.0]
['beep', 0.0, -12239.122359648032, 0.0, 0.0, 0.0, 0.0, -24099.740278689897, 0.0]
['beep', 0.0, -12226.985362408801, 0.0, 0.0, 0.0, 0.0, -23985.07582963417, 0.0]
['beep', 0.0, -12160.26540520971, 0.0, 0.0, 0.0, 0.0, -23915.852477056083, 0.0]
['beep', 0.0, -12120.59105880154, 0.0, 0.0, 0.0, 0.0, -23990.730820981364, 0.0]
['beep', 0.0, -12151.615280105505, 0.0, 0.0, 0.0, 0.0, -24108.748031705385, 0.0]
['beep', 0.0, -12199.60447545105, 0.0, 0.0, 0.0, 0.0, -24110.62557823963, 0.0]
['beep', 0.0, -12187.825106123104, 0.0, 0.0, 0.0, 0.0, -23996.341108839646, 0.0]
['beep', 0.0, -12121.440425090841, 0.0, 0.0, 0.0, 0.0, -23927.40832893948, 0.0]
['beep', 0.0, -12081.095526349012, 0.0, 0.0, 0.0, 0.0, -24002.42078333149, 0.0]
['beep', 0.0, -12111.78447148615, 0.0, 0.0, 0.0, 0.0, -24120.929732433528, 0.0]
['beep', 0.0, -12160.444219165352, 0.0, 0.0, 0.0, 0.0, -24123.05314815678, 0.0]
['beep', 0.0, -12148.821312048593, 0.0, 0.0, 0.0, 0.0, -24009.17101015699, 0.0]
['beep', 0.0, -12082.257817060688, 0.0, 0.0, 0.0, 0.0, -23940.417044212467, 0.0]
['beep', 0.0, -12042.270546230144, 0.0, 0.0, 0.0, 0.0, -24014.960111970915, 0.0]
['beep', 0.0, -12073.406526256387, 0.0, 0.0, 0.0, 0.0, -24133.826688984238, 0.0]
['beep', 0.0, -12121.865108235492, 0.0, 0.0, 0.0, 0.0, -24137.20180239699, 0.0]
['beep', 0.0, -12110.845698219026, 0.0, 0.0, 0.0, 0.0, -24023.342016141658, 0.0]
['beep', 0.0, -12044.282203231121, 0.0, 0.0, 0.0, 0.0, -23953.44811122991, 0.0]
['beep', 0.0, -12003.579676578007, 0.0, 0.0, 0.0, 0.0, -24027.99117898836, 0.0]
['beep', 0.0, -12034.313325204055, 0.0, 0.0, 0.0, 0.0, -24147.528308335342, 0.0]
['beep', 0.0, -12082.39192752742, 0.0, 0.0, 0.0, 0.0, -24151.037532214825, 0.0]
['beep', 0.0, -12070.701965177293, 0.0, 0.0, 0.0, 0.0, -24037.669484337508, 0.0]
['beep', 0.0, -12003.825545767015, 0.0, 0.0, 0.0, 0.0, -23967.708524192396, 0.0]
['beep', 0.0, -11962.541873758064, 0.0, 0.0, 0.0, 0.0, -24042.18453671748, 0.0]
['beep', 0.0, -11992.582618305996, 0.0, 0.0, 0.0, 0.0, -24161.609907342186, 0.0]
['beep', 0.0, -12040.86238632946, 0.0, 0.0, 0.0, 0.0, -24165.029724243846, 0.0]
['beep', 0.0, -12029.194775723789, 0.0, 0.0, 0.0, 0.0, -24050.61114437713, 0.0]
['beep', 0.0, -11962.139542357869, 0.0, 0.0, 0.0, 0.0, -23980.046687131726, 0.0]
['beep', 0.0, -11920.83351860446, 0.0, 0.0, 0.0, 0.0, -24054.32153395671, 0.0]
['beep', 0.0, -11951.41070501932, 0.0, 0.0, 0.0, 0.0, -24174.238642959433, 0.0]
['beep', 0.0, -12000.159859676345, 0.0, 0.0, 0.0, 0.0, -24179.06661976178, 0.0]
['beep', 0.0, -11989.207504893244, 0.0, 0.0, 0.0, 0.0, -24065.609164906644, 0.0]
['beep', 0.0, -11922.59930641643, 0.0, 0.0, 0.0, 0.0, -23993.94947218293, 0.0]
['beep', 0.0, -11880.980358240648, 0.0, 0.0, 0.0, 0.0, -24067.129083529602, 0.0]
['beep', 0.0, -11910.037626032547, 0.0, 0.0, 0.0, 0.0, -24187.31441346579, 0.0]
['beep', 0.0, -11958.026821378091, 0.0, 0.0, 0.0, 0.0, -24192.25414899041, 0.0]
['beep', 0.0, -11947.1191700839, 0.0, 0.0, 0.0, 0.0, -24078.99785983537, 0.0]
['beep', 0.0, -11880.712137307184, 0.0, 0.0, 0.0, 0.0, -24007.98636770086, 0.0]
['beep', 0.0, -11839.428465298231, 0.0, 0.0, 0.0, 0.0, -24081.121275558624, 0.0]
['beep', 0.0, -11869.044526701515, 0.0, 0.0, 0.0, 0.0, -24201.55247468382, 0.0]
['beep', 0.0, -11917.368998213888, 0.0, 0.0, 0.0, 0.0, -24207.07335556428, 0.0]
['beep', 0.0, -11906.953085297715, 0.0, 0.0, 0.0, 0.0, -24093.839418153697, 0.0]
['beep', 0.0, -11841.10484613238, 0.0, 0.0, 0.0, 0.0, -24022.112670196613, 0.0]
['beep', 0.0, -11799.53060144551, 0.0, 0.0, 0.0, 0.0, -24094.778191420817, 0.0]
['beep', 0.0, -11828.900793659783, 0.0, 0.0, 0.0, 0.0, -24215.07528007928, 0.0]
['beep', 0.0, -11877.06880296097, 0.0, 0.0, 0.0, 0.0, -24221.110251082213, 0.0]
['beep', 0.0, -11867.122276678358, 0.0, 0.0, 0.0, 0.0, -24107.898665416084, 0.0]
['beep', 0.0, -11801.47520321312, 0.0, 0.0, 0.0, 0.0, -24036.28367618128, 0.0]
['beep', 0.0, -11759.453923637144, 0.0, 0.0, 0.0, 0.0, -24109.083307872213, 0.0]
['beep', 0.0, -11788.645301895775, 0.0, 0.0, 0.0, 0.0, -24229.2686378084, 0.0]
['beep', 0.0, -11837.193290852701, 0.0, 0.0, 0.0, 0.0, -24234.85657392223, 0.0]
['beep', 0.0, -11826.442101769699, 0.0, 0.0, 0.0, 0.0, -24121.242656855902, 0.0]
['beep', 0.0, -11760.19153120417, 0.0, 0.0, 0.0, 0.0, -24048.04069376477, 0.0]
['beep', 0.0, -11718.594934772842, 0.0, 0.0, 0.0, 0.0, -24119.25335159938, 0.0]
['beep', 0.0, -11747.875720009295, 0.0, 0.0, 0.0, 0.0, -24240.198640847047, 0.0]
['beep', 0.0, -11796.490764199587, 0.0, 0.0, 0.0, 0.0, -24246.61359150572, 0.0]
['beep', 0.0, -11786.164258261235, 0.0, 0.0, 0.0, 0.0, -24132.44088082801, 0.0]
['beep', 0.0, -11720.114853395802, 0.0, 0.0, 0.0, 0.0, -24059.28362122579, 0.0]
['beep', 0.0, -11678.585312197842, 0.0, 0.0, 0.0, 0.0, -24130.853906971683, 0.0]
['beep', 0.0, -11707.597876500831, 0.0, 0.0, 0.0, 0.0, -24252.670914253107, 0.0]
['beep', 0.0, -11755.967051502115, 0.0, 0.0, 0.0, 0.0, -24260.672838768107, 0.0]
['beep', 0.0, -11746.311097897424, 0.0, 0.0, 0.0, 0.0, -24147.394197868613, 0.0]
['beep', 0.0, -11680.664024432186, 0.0, 0.0, 0.0, 0.0, -24073.588737677186, 0.0]
['beep', 0.0, -11638.374523922745, 0.0, 0.0, 0.0, 0.0, -24145.293133889812, 0.0]
['beep', 0.0, -11666.247149258514, 0.0, 0.0, 0.0, 0.0, -24267.601879549253, 0.0]
['beep', 0.0, -11714.638676004253, 0.0, 0.0, 0.0, 0.0, -24276.654336053653, 0.0]
['beep', 0.0, -11705.340350310846, 0.0, 0.0, 0.0, 0.0, -24163.621564343164, 0.0]
['beep', 0.0, -11639.581518123332, 0.0, 0.0, 0.0, 0.0, -24088.96673786244, 0.0]
['beep', 0.0, -11596.554410046865, 0.0, 0.0, 0.0, 0.0, -24160.089988719224, 0.0]
['beep', 0.0, -11624.494090615999, 0.0, 0.0, 0.0, 0.0, -24282.398734378665, 0.0]
['beep', 0.0, -11673.511466206488, 0.0, 0.0, 0.0, 0.0, -24290.95945250505, 0.0]
['beep', 0.0, -11664.548416679909, 0.0, 0.0, 0.0, 0.0, -24177.725515094462, 0.0]
['beep', 0.0, -11598.789584492397, 0.0, 0.0, 0.0, 0.0, -24102.847171169185, 0.0]
['beep', 0.0, -11556.008345604938, 0.0, 0.0, 0.0, 0.0, -24174.328049937256, 0.0]
['beep', 0.0, -11583.948026174072, 0.0, 0.0, 0.0, 0.0, -24296.65914734115, 0.0]
['beep', 0.0, -11632.674829086642, 0.0, 0.0, 0.0, 0.0, -24305.398679423175, 0.0]
['beep', 0.0, -11623.600020837786, 0.0, 0.0, 0.0, 0.0, -24192.12003852368, 0.0]
['beep', 0.0, -11558.109409583738, 0.0, 0.0, 0.0, 0.0, -24117.62167425414, 0.0]
['beep', 0.0, -11515.127004996182, 0.0, 0.0, 0.0, 0.0, -24188.722573366475, 0.0]
['beep', 0.0, -11543.223147776504, 0.0, 0.0, 0.0, 0.0, -24311.679519615118, 0.0]
['beep', 0.0, -11591.994654177983, 0.0, 0.0, 0.0, 0.0, -24321.357824964267, 0.0]
['beep', 0.0, -11582.495162784477, 0.0, 0.0, 0.0, 0.0, -24208.257998020414, 0.0]
['beep', 0.0, -11516.892792808152, 0.0, 0.0, 0.0, 0.0, -24133.223191883946, 0.0]
['beep', 0.0, -11473.329242864758, 0.0, 0.0, 0.0, 0.0, -24203.899407851626, 0.0]
['beep', 0.0, -11501.112461222705, 0.0, 0.0, 0.0, 0.0, -24326.29756048889, 0.0]
['beep', 0.0, -11551.202720547048, 0.0, 0.0, 0.0, 0.0, -24336.40054898269, 0.0]
['beep', 0.0, -11543.67018266561, 0.0, 0.0, 0.0, 0.0, -24223.94892262804, 0.0]
['beep', 0.0, -11478.380737111656, 0.0, 0.0, 0.0, 0.0, -24148.73530253593, 0.0]
['beep', 0.0, -11435.197166824004, 0.0, 0.0, 0.0, 0.0, -24218.584503958762, 0.0]
['beep', 0.0, -11462.578053781755, 0.0, 0.0, 0.0, 0.0, -24340.356807751275, 0.0]
['beep', 0.0, -11512.109519494716, 0.0, 0.0, 0.0, 0.0, -24350.77272066745, 0.0]
['beep', 0.0, -11504.129946724172, 0.0, 0.0, 0.0, 0.0, -24238.835184435273, 0.0]
['beep', 0.0, -11438.237004069926, 0.0, 0.0, 0.0, 0.0, -24162.995715498415, 0.0]
['beep', 0.0, -11394.87461982663, 0.0, 0.0, 0.0, 0.0, -24232.46493726551, 0.0]
['beep', 0.0, -11422.613134695666, 0.0, 0.0, 0.0, 0.0, -24355.332476536332, 0.0]
['beep', 0.0, -11471.943434708528, 0.0, 0.0, 0.0, 0.0, -24366.39659004171, 0.0]
['beep', 0.0, -11463.382716582146, 0.0, 0.0, 0.0, 0.0, -24253.967315431513, 0.0]
['beep', 0.0, -11396.930980316518, 0.0, 0.0, 0.0, 0.0, -24178.016087772383, 0.0]
['beep', 0.0, -11352.38395361709, 0.0, 0.0, 0.0, 0.0, -24247.351199072746, 0.0]
['beep', 0.0, -11379.161343474549, 0.0, 0.0, 0.0, 0.0, -24370.509311021488, 0.0]
['beep', 0.0, -11428.290477787314, 0.0, 0.0, 0.0, 0.0, -24382.601604771808, 0.0]
['beep', 0.0, -11420.087387572215, 0.0, 0.0, 0.0, 0.0, -24270.775827261907, 0.0]
['beep', 0.0, -11354.999107718362, 0.0, 0.0, 0.0, 0.0, -24193.058811790805, 0.0]
['beep', 0.0, -11311.435557774968, 0.0, 0.0, 0.0, 0.0, -24261.74572250196, 0.0]
['beep', 0.0, -11338.01178193233, 0.0, 0.0, 0.0, 0.0, -24385.77555248446, 0.0]
['beep', 0.0, -11386.984454033907, 0.0, 0.0, 0.0, 0.0, -24398.40428810171, 0.0]
['beep', 0.0, -11380.033061508306, 0.0, 0.0, 0.0, 0.0, -24285.907958258147, 0.0]
['beep', 0.0, -11315.592982243656, 0.0, 0.0, 0.0, 0.0, -24207.296873008832, 0.0]
['beep', 0.0, -11272.163542766993, 0.0, 0.0, 0.0, 0.0, -24275.268527897424, 0.0]
['beep', 0.0, -11298.717415179899, 0.0, 0.0, 0.0, 0.0, -24400.17007591368, 0.0]
['beep', 0.0, -11347.801846003753, 0.0, 0.0, 0.0, 0.0, -24413.73758479805, 0.0]
['beep', 0.0, -11340.448122077958, 0.0, 0.0, 0.0, 0.0, -24301.19655146558, 0.0]
['beep', 0.0, -11275.046917801728, 0.0, 0.0, 0.0, 0.0, -24222.56311447181, 0.0]
['beep', 0.0, -11230.298725402205, 0.0, 0.0, 0.0, 0.0, -24291.630004838706, 0.0]
['beep', 0.0, -11255.645603614523, 0.0, 0.0, 0.0, 0.0, -24417.067994721892, 0.0]
['beep', 0.0, -11304.350054782637, 0.0, 0.0, 0.0, 0.0, -24431.060186750914, 0.0]
['beep', 0.0, -11297.845697146142, 0.0, 0.0, 0.0, 0.0, -24318.452098185076, 0.0]
['beep', 0.0, -11233.137396948028, 0.0, 0.0, 0.0, 0.0, -24239.03635013537, 0.0]
['beep', 0.0, -11188.031576637219, 0.0, 0.0, 0.0, 0.0, -24306.940949790594, 0.0]
['beep', 0.0, -11213.423158338448, 0.0, 0.0, 0.0, 0.0, -24433.16125072971, 0.0]
['beep', 0.0, -11262.731106606854, 0.0, 0.0, 0.0, 0.0, -24448.15927125922, 0.0]
['beep', 0.0, -11256.360859437093, 0.0, 0.0, 0.0, 0.0, -24335.886458860215, 0.0]
['beep', 0.0, -11191.183172605417, 0.0, 0.0, 0.0, 0.0, -24256.157786388136, 0.0]
['beep', 0.0, -11145.809131361144, 0.0, 0.0, 0.0, 0.0, -24323.43653719861, 0.0]
['beep', 0.0, -11171.40187876247, 0.0, 0.0, 0.0, 0.0, -24449.142748015256, 0.0]
['beep', 0.0, -11221.402731108992, 0.0, 0.0, 0.0, 0.0, -24464.051361566944, 0.0]
['beep', 0.0, -11215.256001383783, 0.0, 0.0, 0.0, 0.0, -24351.331514278834, 0.0]
['beep', 0.0, -11150.63710816349, 0.0, 0.0, 0.0, 0.0, -24270.954641217548, 0.0]
['beep', 0.0, -11105.732453552777, 0.0, 0.0, 0.0, 0.0, -24338.211040283568, 0.0]
['beep', 0.0, -11131.794587587667, 0.0, 0.0, 0.0, 0.0, -24463.447864466652, 0.0]
['beep', 0.0, -11181.706032956366, 0.0, 0.0, 0.0, 0.0, -24478.535291973985, 0.0]
['beep', 0.0, -11175.715765442344, 0.0, 0.0, 0.0, 0.0, -24366.798921441907, 0.0]
['beep', 0.0, -11111.409796644426, 0.0, 0.0, 0.0, 0.0, -24286.354993147255, 0.0]
['beep', 0.0, -11065.812237955599, 0.0, 0.0, 0.0, 0.0, -24352.516156734964, 0.0]
['beep', 0.0, -11091.047357445641, 0.0, 0.0, 0.0, 0.0, -24478.267071040522, 0.0]
['beep', 0.0, -11140.757637114244, 0.0, 0.0, 0.0, 0.0, -24494.65089972626, 0.0]
['beep', 0.0, -11135.326163211605, 0.0, 0.0, 0.0, 0.0, -24383.07099140537, 0.0]
['beep', 0.0, -11071.355470580516, 0.0, 0.0, 0.0, 0.0, -24301.84475205478, 0.0]
['beep', 0.0, -11026.003781080697, 0.0, 0.0, 0.0, 0.0, -24367.514177264475, 0.0]
['beep', 0.0, -11050.769513937177, 0.0, 0.0, 0.0, 0.0, -24493.510960759042, 0.0]
['beep', 0.0, -11100.189220927861, 0.0, 0.0, 0.0, 0.0, -24509.827734211416, 0.0]
['beep', 0.0, -11095.294188892149, 0.0, 0.0, 0.0, 0.0, -24397.73373576805, 0.0]
['beep', 0.0, -11031.412903238881, 0.0, 0.0, 0.0, 0.0, -24316.261627228454, 0.0]
['beep', 0.0, -10985.122440471941, 0.0, 0.0, 0.0, 0.0, -24381.931052438147, 0.0]
['beep', 0.0, -11009.888173328422, 0.0, 0.0, 0.0, 0.0, -24507.74902197707, 0.0]
['beep', 0.0, -11059.777266952666, 0.0, 0.0, 0.0, 0.0, -24524.311664618454, 0.0]
['beep', 0.0, -11054.591662239036, 0.0, 0.0, 0.0, 0.0, -24412.88821850875, 0.0]
['beep', 0.0, -10990.21863820775, 0.0, 0.0, 0.0, 0.0, -24331.304351246876, 0.0]
['beep', 0.0, -10944.59872777447, 0.0, 0.0, 0.0, 0.0, -24396.280872378455, 0.0]
['beep', 0.0, -10969.207998419763, 0.0, 0.0, 0.0, 0.0, -24521.76356575055, 0.0]
['beep', 0.0, -11019.097092044007, 0.0, 0.0, 0.0, 0.0, -24539.175574681234, 0.0]
['beep', 0.0, -11013.956190819286, 0.0, 0.0, 0.0, 0.0, -24428.02034950499, 0.0]
['beep', 0.0, -10949.31494585454, 0.0, 0.0, 0.0, 0.0, -24345.67652293164, 0.0]
['beep', 0.0, -10903.695035421257, 0.0, 0.0, 0.0, 0.0, -24410.429526618664, 0.0]
['beep', 0.0, -10928.080788621997, 0.0, 0.0, 0.0, 0.0, -24537.499193847085, 0.0]
['beep', 0.0, -10977.567550846046, 0.0, 0.0, 0.0, 0.0, -24556.274659189545, 0.0]
['beep', 0.0, -10972.449001365781, 0.0, 0.0, 0.0, 0.0, -24445.767634602504, 0.0]
['beep', 0.0, -10907.58423895648, 0.0, 0.0, 0.0, 0.0, -24363.647325473707, 0.0]
['beep', 0.0, -10861.405534911817, 0.0, 0.0, 0.0, 0.0, -24429.07088149439, 0.0]
['beep', 0.0, -10885.835991601467, 0.0, 0.0, 0.0, 0.0, -24556.52052837855, 0.0]
['beep', 0.0, -10936.172120114818, 0.0, 0.0, 0.0, 0.0, -24575.43010418774, 0.0]
['beep', 0.0, -10932.104102623953, 0.0, 0.0, 0.0, 0.0, -24464.83367262288, 0.0]
['beep', 0.0, -10867.999299526133, 0.0, 0.0, 0.0, 0.0, -24382.221625116068, 0.0]
['beep', 0.0, -10821.217098381174, 0.0, 0.0, 0.0, 0.0, -24446.684056125174, 0.0]
['beep', 0.0, -10845.133464948352, 0.0, 0.0, 0.0, 0.0, -24573.664316375773, 0.0]
['beep', 0.0, -10895.06726206151, 0.0, 0.0, 0.0, 0.0, -24593.24444451862, 0.0]
['beep', 0.0, -10890.976892826187, 0.0, 0.0, 0.0, 0.0, -24482.603309464852, 0.0]
['beep', 0.0, -10827.117958917375, 0.0, 0.0, 0.0, 0.0, -24399.611282302296, 0.0]
['beep', 0.0, -10780.447516494694, 0.0, 0.0, 0.0, 0.0, -24463.85019586685, 0.0]
['beep', 0.0, -10804.52034527306, 0.0, 0.0, 0.0, 0.0, -24591.366897984375, 0.0]
['beep', 0.0, -10855.191749953241, 0.0, 0.0, 0.0, 0.0, -24611.483467994152, 0.0]
['beep', 0.0, -10851.190787695741, 0.0, 0.0, 0.0, 0.0, -24501.51288527404, 0.0]
['beep', 0.0, -10786.773060175547, 0.0, 0.0, 0.0, 0.0, -24418.58791334485, 0.0]
['beep', 0.0, -10739.722638097124, 0.0, 0.0, 0.0, 0.0, -24482.044515853468, 0.0]
['beep', 0.0, -10763.303728497474, 0.0, 0.0, 0.0, 0.0, -24608.622444703873, 0.0]
['beep', 0.0, -10813.483394799638, 0.0, 0.0, 0.0, 0.0, -24628.962532158203, 0.0]
['beep', 0.0, -10809.840060453424, 0.0, 0.0, 0.0, 0.0, -24518.90254246027, 0.0]
['beep', 0.0, -10745.981126544611, 0.0, 0.0, 0.0, 0.0, -24434.949390286136, 0.0]
['beep', 0.0, -10698.595428299359, 0.0, 0.0, 0.0, 0.0, -24497.489571272086, 0.0]
['beep', 0.0, -10721.662428577236, 0.0, 0.0, 0.0, 0.0, -24624.693348967237, 0.0]
['beep', 0.0, -10772.46794372415, 0.0, 0.0, 0.0, 0.0, -24645.949857944233, 0.0]
['beep', 0.0, -10768.958719844666, 0.0, 0.0, 0.0, 0.0, -24536.538068835507, 0.0]
['beep', 0.0, -10704.563344068927, 0.0, 0.0, 0.0, 0.0, -24452.11553002781, 0.0]
['beep', 0.0, -10657.62468071278, 0.0, 0.0, 0.0, 0.0, -24514.454545313663, 0.0]
['beep', 0.0, -10681.16106762422, 0.0, 0.0, 0.0, 0.0, -24642.150061386834, 0.0]
['beep', 0.0, -10731.608954859848, 0.0, 0.0, 0.0, 0.0, -24663.83125350848, 0.0]
['beep', 0.0, -10728.435007147194, 0.0, 0.0, 0.0, 0.0, -24554.41946439975, 0.0]
['beep', 0.0, -10664.598424982838, 0.0, 0.0, 0.0, 0.0, -24469.75105640305, 0.0]
['beep', 0.0, -10617.682113371147, 0.0, 0.0, 0.0, 0.0, -24531.86655424435, 0.0]
['beep', 0.0, -10641.151445049221, 0.0, 0.0, 0.0, 0.0, -24659.159738917322, 0.0]
['beep', 0.0, -10691.867553218312, 0.0, 0.0, 0.0, 0.0, -24681.422076394807, 0.0]
['beep', 0.0, -10689.319454350407, 0.0, 0.0, 0.0, 0.0, -24571.697362863706, 0.0]
['beep', 0.0, -10625.795796608425, 0.0, 0.0, 0.0, 0.0, -24486.000774622058, 0.0]
['beep', 0.0, -10578.544208829906, 0.0, 0.0, 0.0, 0.0, -24546.819871284948, 0.0]
['beep', 0.0, -10600.963008518578, 0.0, 0.0, 0.0, 0.0, -24674.783608291582, 0.0]
['beep', 0.0, -10651.276785287475, 0.0, 0.0, 0.0, 0.0, -24698.655271369847, 0.0]
['beep', 0.0, -10648.706334675115, 0.0, 0.0, 0.0, 0.0, -24588.63998516083, 0.0]
['beep', 0.0, -10585.361490888774, 0.0, 0.0, 0.0, 0.0, -24501.66934748523, 0.0]
['beep', 0.0, -10537.774626943425, 0.0, 0.0, 0.0, 0.0, -24562.689609848218, 0.0]
['beep', 0.0, -10560.461647565562, 0.0, 0.0, 0.0, 0.0, -24691.659175355337, 0.0]
['beep', 0.0, -10610.730720845548, 0.0, 0.0, 0.0, 0.0, -24716.357852978454, 0.0]
['beep', 0.0, -10608.29438069992, 0.0, 0.0, 0.0, 0.0, -24607.840133647936, 0.0]
['beep', 0.0, -10544.99424040249, 0.0, 0.0, 0.0, 0.0, -24521.025958183523, 0.0]
['beep', 0.0, -10497.630893901694, 0.0, 0.0, 0.0, 0.0, -24581.286261235033, 0.0]
['beep', 0.0, -10520.161452312643, 0.0, 0.0, 0.0, 0.0, -24710.099364530965, 0.0]
['beep', 0.0, -10570.497580825995, 0.0, 0.0, 0.0, 0.0, -24735.021559598634, 0.0]
['beep', 0.0, -10567.658909280171, 0.0, 0.0, 0.0, 0.0, -24626.570895501485, 0.0]
['beep', 0.0, -10503.665864904628, 0.0, 0.0, 0.0, 0.0, -24539.644961314796, 0.0]
['beep', 0.0, -10455.810780025815, 0.0, 0.0, 0.0, 0.0, -24599.39117424383, 0.0]
['beep', 0.0, -10478.207227970031, 0.0, 0.0, 0.0, 0.0, -24727.623132183926, 0.0]
['beep', 0.0, -10528.900984394668, 0.0, 0.0, 0.0, 0.0, -24752.455920273773, 0.0]
['beep', 0.0, -10526.688161693593, 0.0, 0.0, 0.0, 0.0, -24643.49116605415, 0.0]
['beep', 0.0, -10462.762172551415, 0.0, 0.0, 0.0, 0.0, -24555.402941155786, 0.0]
['beep', 0.0, -10414.437701039042, 0.0, 0.0, 0.0, 0.0, -24614.389194773343, 0.0]
['beep', 0.0, -10436.58827979425, 0.0, 0.0, 0.0, 0.0, -24742.867021902446, 0.0]
['beep', 0.0, -10487.259684474431, 0.0, 0.0, 0.0, 0.0, -24768.05743790358, 0.0]
['beep', 0.0, -10485.40448968464, 0.0, 0.0, 0.0, 0.0, -24660.16556741781, 0.0]
['beep', 0.0, -10422.193756365032, 0.0, 0.0, 0.0, 0.0, -24571.697362863706, 0.0]
['beep', 0.0, -10373.601063919195, 0.0, 0.0, 0.0, 0.0, -24629.655436236317, 0.0]
['beep', 0.0, -10394.946979874014, 0.0, 0.0, 0.0, 0.0, -24758.490891276706, 0.0]
['beep', 0.0, -10445.104294431721, 0.0, 0.0, 0.0, 0.0, -24785.022411945156, 0.0]
['beep', 0.0, -10443.517320575396, 0.0, 0.0, 0.0, 0.0, -24677.063486226023, 0.0]
['beep', 0.0, -10380.977139589446, 0.0, 0.0, 0.0, 0.0, -24588.52822643855, 0.0]
['beep', 0.0, -10333.211461688456, 0.0, 0.0, 0.0, 0.0, -24646.821575977992, 0.0]
['beep', 0.0, -10354.780895087826, 0.0, 0.0, 0.0, 0.0, -24776.03701067412, 0.0]
['beep', 0.0, -10404.424119523062, 0.0, 0.0, 0.0, 0.0, -24803.261435420685, 0.0]
['beep', 0.0, -10401.853668910702, 0.0, 0.0, 0.0, 0.0, -24695.74954459066, 0.0]
['beep', 0.0, -10338.62058384664, 0.0, 0.0, 0.0, 0.0, -24606.901360380813, 0.0]
['beep', 0.0, -10290.31846407872, 0.0, 0.0, 0.0, 0.0, -24664.948840731246, 0.0]
['beep', 0.0, -10311.642028289083, 0.0, 0.0, 0.0, 0.0, -24794.298385894108, 0.0]
['beep', 0.0, -10362.201674246988, 0.0, 0.0, 0.0, 0.0, -24821.29929319612, 0.0]
['beep', 0.0, -10360.368831201653, 0.0, 0.0, 0.0, 0.0, -24713.027443054612, 0.0]
['beep', 0.0, -10297.158097882044, 0.0, 0.0, 0.0, 0.0, -24624.15690710031, 0.0]
['beep', 0.0, -10248.587757180663, 0.0, 0.0, 0.0, 0.0, -24682.517311873118, 0.0]
['beep', 0.0, -10269.97837662439, 0.0, 0.0, 0.0, 0.0, -24813.163258214387, 0.0]
['beep', 0.0, -10320.962705726946, 0.0, 0.0, 0.0, 0.0, -24841.237049250252, 0.0]
['beep', 0.0, -10319.487490592897, 0.0, 0.0, 0.0, 0.0, -24733.412233997853, 0.0]
['beep', 0.0, -10256.41086774002, 0.0, 0.0, 0.0, 0.0, -24643.915849198802, 0.0]
['beep', 0.0, -10207.505250871809, 0.0, 0.0, 0.0, 0.0, -24701.65040512686, 0.0]
['beep', 0.0, -10228.761759848805, 0.0, 0.0, 0.0, 0.0, -24831.91637181239, 0.0]
['beep', 0.0, -10279.142591851067, 0.0, 0.0, 0.0, 0.0, -24859.900755870432, 0.0]
['beep', 0.0, -10278.203818583945, 0.0, 0.0, 0.0, 0.0, -24752.23240282922, 0.0]
['beep', 0.0, -10216.02126550928, 0.0, 0.0, 0.0, 0.0, -24662.668962796804, 0.0]
['beep', 0.0, -10167.339166085621, 0.0, 0.0, 0.0, 0.0, -24719.442393713285, 0.0]
['beep', 0.0, -10187.835715751138, 0.0, 0.0, 0.0, 0.0, -24849.64130516545, 0.0]
['beep', 0.0, -10238.015382053301, 0.0, 0.0, 0.0, 0.0, -24879.369125291007, 0.0]
['beep', 0.0, -10237.277774486278, 0.0, 0.0, 0.0, 0.0, -24772.52778679464, 0.0]
['beep', 0.0, -10174.469372566864, 0.0, 0.0, 0.0, 0.0, -24682.182035706286, 0.0]
['beep', 0.0, -10125.250831276278, 0.0, 0.0, 0.0, 0.0, -24738.17315556683, 0.0]
['beep', 0.0, -10146.037953619714, 0.0, 0.0, 0.0, 0.0, -24868.126197829988, 0.0]
['beep', 0.0, -10196.73171004435, 0.0, 0.0, 0.0, 0.0, -24897.809314466635, 0.0]
['beep', 0.0, -10196.642303066528, 0.0, 0.0, 0.0, 0.0, -24790.67740329235, 0.0]
['beep', 0.0, -10134.370343014043, 0.0, 0.0, 0.0, 0.0, -24700.152838248356, 0.0]
['beep', 0.0, -10085.420022656921, 0.0, 0.0, 0.0, 0.0, -24756.054551131077, 0.0]
['beep', 0.0, -10106.09538627808, 0.0, 0.0, 0.0, 0.0, -24885.58291024958, 0.0]
['beep', 0.0, -10156.543273513707, 0.0, 0.0, 0.0, 0.0, -24915.69071003088, 0.0]
['beep', 0.0, -10156.118590369057, 0.0, 0.0, 0.0, 0.0, -24809.51992386817, 0.0]
['beep', 0.0, -10093.80192682766, 0.0, 0.0, 0.0, 0.0, -24718.481268701707, 0.0]
['beep', 0.0, -10044.449275070343, 0.0, 0.0, 0.0, 0.0, -24773.690077506315, 0.0]
['beep', 0.0, -10065.258749158234, 0.0, 0.0, 0.0, 0.0, -24903.93369244739, 0.0]
['beep', 0.0, -10115.863098605048, 0.0, 0.0, 0.0, 0.0, -24934.868506773535, 0.0]
['beep', 0.0, -10115.19254627139, 0.0, 0.0, 0.0, 0.0, -24829.077700266567, 0.0]
['beep', 0.0, -10052.94293796336, 0.0, 0.0, 0.0, 0.0, -24738.59783871148, 0.0]
['beep', 0.0, -10003.366768761489, 0.0, 0.0, 0.0, 0.0, -24794.030164960644, 0.0]
['beep', 0.0, -10023.237469582256, 0.0, 0.0, 0.0, 0.0, -24924.094965946075, 0.0]
['beep', 0.0, -10073.618301584518, 0.0, 0.0, 0.0, 0.0, -24955.253297716776, 0.0]
['beep', 0.0, -10073.75241205125, 0.0, 0.0, 0.0, 0.0, -24849.909526098912, 0.0]
['beep', 0.0, -10011.07812059857, 0.0, 0.0, 0.0, 0.0, -24758.468539532252, 0.0]
['beep', 0.0, -9960.54082638512, 0.0, 0.0, 0.0, 0.0, -24812.917389025377, 0.0]
['beep', 0.0, -9980.031547550148, 0.0, 0.0, 0.0, 0.0, -24943.40687315546, 0.0]
['beep', 0.0, -10030.948821419337, 0.0, 0.0, 0.0, 0.0, -24975.571033426648, 0.0]
['beep', 0.0, -9968.63215787794, 0.0, 0.0, 0.0, 0.0, -24778.674516519848, 0.0]
['beep', 0.0, -9917.893697964395, 0.0, 0.0, 0.0, 0.0, -24832.273999723675, 0.0]
['beep', 0.0, -9936.646811562397, 0.0, 0.0, 0.0, 0.0, -24962.69642862039, 0.0]
['beep', 0.0, -9987.184105775847, 0.0, 0.0, 0.0, 0.0, -24994.972347613853, 0.0]
['beep', 0.0, -9987.11705054248, 0.0, 0.0, 0.0, 0.0, -24889.181541106886, 0.0]
['beep', 0.0, -9924.375703856434, 0.0, 0.0, 0.0, 0.0, -24797.114705695476, 0.0]
['beep', 0.0, -9873.927816620806, 0.0, 0.0, 0.0, 0.0, -24850.9153545994, 0.0]
['beep', 0.0, -9892.747985452173, 0.0, 0.0, 0.0, 0.0, -24981.203673029384, 0.0]
['beep', 0.0, -9943.039410476615, 0.0, 0.0, 0.0, 0.0, -25013.56899900067, 0.0]
['beep', 0.0, -9943.307631410078, 0.0, 0.0, 0.0, 0.0, -24908.20287563835, 0.0]
['beep', 0.0, -9881.080374846504, 0.0, 0.0, 0.0, 0.0, -24814.81728730408, 0.0]
['beep', 0.0, -9830.453673655233, 0.0, 0.0, 0.0, 0.0, -24867.567404218604, 0.0]
['beep', 0.0, -9849.340897719967, 0.0, 0.0, 0.0, 0.0, -24998.325109282152, 0.0]
['beep', 0.0, -9899.498212277676, 0.0, 0.0, 0.0, 0.0, -25032.255057365306, 0.0]
['beep', 0.0, -9900.079357633515, 0.0, 0.0, 0.0, 0.0, -24927.715948547837, 0.0]
['beep', 0.0, -4520.685019574764, 0.0, 0.0, 0.0, 0.0, -28202.782953117247, 0.0]
['beep', 0.0, -4568.271883520113, 0.0, 0.0, 0.0, 0.0, -28288.613651825628, 0.0]
['beep', 0.0, -4592.590581487487, 0.0, 0.0, 0.0, 0.0, -28232.197848820433, 0.0]
['beep', 0.0, -4545.696621620253, 0.0, 0.0, 0.0, 0.0, -28121.26614108874, 0.0]
['beep', 0.0, -4478.4402225542335, 0.0, 0.0, 0.0, 0.0, -28119.299187576675, 0.0]
['beep', 0.0, -4469.208952094192, 0.0, 0.0, 0.0, 0.0, -28238.29987505673, 0.0]
['beep', 0.0, -4516.237022428158, 0.0, 0.0, 0.0, 0.0, -28324.622312143125, 0.0]
['beep', 0.0, -4541.181569240281, 0.0, 0.0, 0.0, 0.0, -28269.74877950535, 0.0]
['beep', 0.0, -4495.069920428982, 0.0, 0.0, 0.0, 0.0, -28159.71114155187, 0.0]
['beep', 0.0, -4427.187672518215, 0.0, 0.0, 0.0, 0.0, -28156.85011826159, 0.0]
['beep', 0.0, -4417.487015424611, 0.0, 0.0, 0.0, 0.0, -28275.090846430165, 0.0]
['beep', 0.0, -4465.096231114416, 0.0, 0.0, 0.0, 0.0, -28361.1450625831, 0.0]
['beep', 0.0, -4489.996074437628, 0.0, 0.0, 0.0, 0.0, -28306.048012500767, 0.0]
['beep', 0.0, -4443.057411081482, 0.0, 0.0, 0.0, 0.0, -28195.988022802834, 0.0]
['beep', 0.0, -4375.733956782098, 0.0, 0.0, 0.0, 0.0, -28193.23875823483, 0.0]
['beep', 0.0, -4366.346224110869, 0.0, 0.0, 0.0, 0.0, -28312.21709397043, 0.0]
['beep', 0.0, -4413.709570611664, 0.0, 0.0, 0.0, 0.0, -28399.120676412665, 0.0]
['beep', 0.0, -4438.4082482347785, 0.0, 0.0, 0.0, 0.0, -28344.738882152902, 0.0]
['beep', 0.0, -4391.9166197677405, 0.0, 0.0, 0.0, 0.0, -28234.92476164398, 0.0]
['beep', 0.0, -4323.162653823216, 0.0, 0.0, 0.0, 0.0, -28231.706110442414, 0.0]
['beep', 0.0, -4312.389112995757, 0.0, 0.0, 0.0, 0.0, -28349.52215546634, 0.0]
['beep', 0.0, -4359.640700774276, 0.0, 0.0, 0.0, 0.0, -28436.02340650838, 0.0]
['beep', 0.0, -4384.764061542041, 0.0, 0.0, 0.0, 0.0, -28382.15570237109, 0.0]
['beep', 0.0, -4338.071267374905, 0.0, 0.0, 0.0, 0.0, -28271.98395395088, 0.0]
['beep', 0.0, -4270.099612486317, 0.0, 0.0, 0.0, 0.0, -28267.670067271003, 0.0]
['beep', 0.0, -4259.638996081233, 0.0, 0.0, 0.0, 0.0, -28385.530815783837, 0.0]
['beep', 0.0, -4306.912935604208, 0.0, 0.0, 0.0, 0.0, -28472.14382554815, 0.0]
['beep', 0.0, -4332.23746207207, 0.0, 0.0, 0.0, 0.0, -28418.67845281106, 0.0]
['beep', 0.0, -4286.416385938691, 0.0, 0.0, 0.0, 0.0, -28308.7302218354, 0.0]
['beep', 0.0, -4218.914117683664, 0.0, 0.0, 0.0, 0.0, -28304.192817710977, 0.0]
['beep', 0.0, -4208.609963489766, 0.0, 0.0, 0.0, 0.0, -28421.986510990446, 0.0]
['beep', 0.0, -4255.7944960349205, 0.0, 0.0, 0.0, 0.0, -28510.0300323999, 0.0]
['beep', 0.0, -4281.029615524962, 0.0, 0.0, 0.0, 0.0, -28457.279915485375, 0.0]
['beep', 0.0, -4235.275594624948, 0.0, 0.0, 0.0, 0.0, -28347.510498465363, 0.0]
['beep', 0.0, -4167.370994969725, 0.0, 0.0, 0.0, 0.0, -28342.32489375173, 0.0]
['beep', 0.0, -4155.993957041974, 0.0, 0.0, 0.0, 0.0, -28459.559793419816, 0.0]
['beep', 0.0, -4202.217364575549, 0.0, 0.0, 0.0, 0.0, -28547.290390406895, 0.0]
['beep', 0.0, -4227.8548154657865, 0.0, 0.0, 0.0, 0.0, -28494.674383959104, 0.0]
['beep', 0.0, -4182.167849799139, 0.0, 0.0, 0.0, 0.0, -28384.86026345018, 0.0]
['beep', 0.0, -4113.212718154517, 0.0, 0.0, 0.0, 0.0, -28379.42878954754, 0.0]
['beep', 0.0, -4101.701569760033, 0.0, 0.0, 0.0, 0.0, -28496.753096193446, 0.0]
['beep', 0.0, -4149.087268005284, 0.0, 0.0, 0.0, 0.0, -28585.66833563666, 0.0]
['beep', 0.0, -4174.7917741288875, 0.0, 0.0, 0.0, 0.0, -28533.924047222623, 0.0]
['beep', 0.0, -4128.791884039865, 0.0, 0.0, 0.0, 0.0, -28423.797002291325, 0.0]
['beep', 0.0, -4060.5073047289025, 0.0, 0.0, 0.0, 0.0, -28417.985548732944, 0.0]
['beep', 0.0, -4049.9125778570865, 0.0, 0.0, 0.0, 0.0, -28534.728710023013, 0.0]
['beep', 0.0, -4097.164165635606, 0.0, 0.0, 0.0, 0.0, -28622.99574887702, 0.0]
['beep', 0.0, -4122.935726992575, 0.0, 0.0, 0.0, 0.0, -28571.18440522962, 0.0]
['beep', 0.0, -4076.935836903553, 0.0, 0.0, 0.0, 0.0, -28461.191470765054, 0.0]
['beep', 0.0, -4008.7630163148665, 0.0, 0.0, 0.0, 0.0, -28454.083616028263, 0.0]
['beep', 0.0, -3997.6318475761236, 0.0, 0.0, 0.0, 0.0, -28569.820948817844, 0.0]
['beep', 0.0, -4045.03989756583, 0.0, 0.0, 0.0, 0.0, -28657.99858069403, 0.0]
['beep', 0.0, -4071.3255490452707, 0.0, 0.0, 0.0, 0.0, -28607.32717601385, 0.0]
['beep', 0.0, -4026.0185630343635, 0.0, 0.0, 0.0, 0.0, -28498.63064272769, 0.0]
['beep', 0.0, -3957.823390701222, 0.0, 0.0, 0.0, 0.0, -28492.618023469215, 0.0]
['beep', 0.0, -3946.06637311773, 0.0, 0.0, 0.0, 0.0, -28608.914149870176, 0.0]
['beep', 0.0, -3992.8485742626876, 0.0, 0.0, 0.0, 0.0, -28697.695278846655, 0.0]
['beep', 0.0, -4018.418969919559, 0.0, 0.0, 0.0, 0.0, -28647.649723011225, 0.0]
['beep', 0.0, -3973.111983908652, 0.0, 0.0, 0.0, 0.0, -28538.327340880318, 0.0]
['beep', 0.0, -3904.5815354086803, 0.0, 0.0, 0.0, 0.0, -28530.861858232245, 0.0]
['beep', 0.0, -3893.1597939920184, 0.0, 0.0, 0.0, 0.0, -28646.53213578846, 0.0]
['beep', 0.0, -3940.6572509595458, 0.0, 0.0, 0.0, 0.0, -28734.933285109197, 0.0]
['beep', 0.0, -3966.965254183442, 0.0, 0.0, 0.0, 0.0, -28684.753618807033, 0.0]
['beep', 0.0, -3921.1441780500627, 0.0, 0.0, 0.0, 0.0, -28575.9453267986, 0.0]
['beep', 0.0, -3852.4349155944487, 0.0, 0.0, 0.0, 0.0, -28568.345733683796, 0.0]
['beep', 0.0, -3840.320270099672, 0.0, 0.0, 0.0, 0.0, -28683.05488622843, 0.0]
['beep', 0.0, -3887.0354160112643, 0.0, 0.0, 0.0, 0.0, -28772.17129137174, 0.0]
['beep', 0.0, -3913.3657709796157, 0.0, 0.0, 0.0, 0.0, -28722.572770425413, 0.0]
['beep', 0.0, -3867.723508801879, 0.0, 0.0, 0.0, 0.0, -28613.742126672525, 0.0]
['beep', 0.0, -3798.8130806461672, 0.0, 0.0, 0.0, 0.0, -28606.053126579896, 0.0]
['beep', 0.0, -3786.631379918025, 0.0, 0.0, 0.0, 0.0, -28721.343424480372, 0.0]
['beep', 0.0, -3834.2629473522843, 0.0, 0.0, 0.0, 0.0, -28811.108030212883, 0.0]
['beep', 0.0, -3861.420316865482, 0.0, 0.0, 0.0, 0.0, -28762.60474474487, 0.0]
['beep', 0.0, -3816.7615314437785, 0.0, 0.0, 0.0, 0.0, -28653.841156225346, 0.0]
['beep', 0.0, -3748.499303877271, 0.0, 0.0, 0.0, 0.0, -28645.48160379906, 0.0]
['beep', 0.0, -3736.362306638039, 0.0, 0.0, 0.0, 0.0, -28760.146052854783, 0.0]
['beep', 0.0, -3782.7645281272567, 0.0, 0.0, 0.0, 0.0, -28850.00006556512, 0.0]
['beep', 0.0, -3809.005476117787, 0.0, 0.0, 0.0, 0.0, -28802.234387664128, 0.0]
['beep', 0.0, -3764.011414529254, 0.0, 0.0, 0.0, 0.0, -28693.828427055887, 0.0]
['beep', 0.0, -3695.2350968402743, 0.0, 0.0, 0.0, 0.0, -28685.021839740497, 0.0]
['beep', 0.0, -3682.606361223026, 0.0, 0.0, 0.0, 0.0, -28799.686288796223, 0.0]
['beep', 0.0, -3729.0532862011537, 0.0, 0.0, 0.0, 0.0, -28889.60735673992, 0.0]
['beep', 0.0, -3755.69656559188, 0.0, 0.0, 0.0, 0.0, -28842.266361983584, 0.0]
['beep', 0.0, -3711.0601319146317, 0.0, 0.0, 0.0, 0.0, -28733.81569788643, 0.0]
['beep', 0.0, -3641.792075847635, 0.0, 0.0, 0.0, 0.0, -28725.16557278223, 0.0]
['beep', 0.0, -3627.889290796434, 0.0, 0.0, 0.0, 0.0, -28838.80184159301, 0.0]
['beep', 0.0, -3673.82212565209, 0.0, 0.0, 0.0, 0.0, -28928.834668258987, 0.0]
['beep', 0.0, -3700.688922487369, 0.0, 0.0, 0.0, 0.0, -28882.164225836306, 0.0]
['beep', 0.0, -3656.1865992768526, 0.0, 0.0, 0.0, 0.0, -28773.668858250247, 0.0]
['beep', 0.0, -3587.0973571654986, 0.0, 0.0, 0.0, 0.0, -28764.01290464555, 0.0]
['beep', 0.0, -3573.3957378143955, 0.0, 0.0, 0.0, 0.0, -28878.207967067716, 0.0]
['beep', 0.0, -3619.7756075591574, 0.0, 0.0, 0.0, 0.0, -28969.7383606122, 0.0]
['beep', 0.0, -3646.6200526499815, 0.0, 0.0, 0.0, 0.0, -28922.687938533778, 0.0]
['beep', 0.0, -3602.251839906197, 0.0, 0.0, 0.0, 0.0, -28813.36555640287, 0.0]
['beep', 0.0, -3533.475522217217, 0.0, 0.0, 0.0, 0.0, -28803.530788842534, 0.0]
['beep', 0.0, -3520.2656412441306, 0.0, 0.0, 0.0, 0.0, -28917.882313475886, 0.0]
['beep', 0.0, -3566.667862733348, 0.0, 0.0, 0.0, 0.0, -29008.965672131264, 0.0]
['beep', 0.0, -3594.1605084133757, 0.0, 0.0, 0.0, 0.0, -28962.004657030662, 0.0]
['beep', 0.0, -3550.6193102144375, 0.0, 0.0, 0.0, 0.0, -28852.525812688567, 0.0]
['beep', 0.0, -3481.5300681030835, 0.0, 0.0, 0.0, 0.0, -28841.841678838933, 0.0]
['beep', 0.0, -3467.6943382852483, 0.0, 0.0, 0.0, 0.0, -28956.21555521674, 0.0]
['beep', 0.0, -3513.5154144186276, 0.0, 0.0, 0.0, 0.0, -29048.595315050523, 0.0]
['beep', 0.0, -3540.6504321873704, 0.0, 0.0, 0.0, 0.0, -29002.237797050217, 0.0]
['beep', 0.0, -3496.5727921215052, 0.0, 0.0, 0.0, 0.0, -28892.58013875248, 0.0]
['beep', 0.0, -3426.5671284874834, 0.0, 0.0, 0.0, 0.0, -28881.560728736014, 0.0]
['beep', 0.0, -3411.9490876137124, 0.0, 0.0, 0.0, 0.0, -28995.73343941372, 0.0]
['beep', 0.0, -3458.328957358475, 0.0, 0.0, 0.0, 0.0, -29087.93438529186, 0.0]
['beep', 0.0, -3486.581562349983, 0.0, 0.0, 0.0, 0.0, -29042.31447485858, 0.0]
['beep', 0.0, -3442.72743972867, 0.0, 0.0, 0.0, 0.0, -28932.746223538667, 0.0]
['beep', 0.0, -3373.0123487725677, 0.0, 0.0, 0.0, 0.0, -28921.793868755565, 0.0]
['beep', 0.0, -3358.3719561543417, 0.0, 0.0, 0.0, 0.0, -29036.391262577923, 0.0]
['beep', 0.0, -3403.902459609802, 0.0, 0.0, 0.0, 0.0, -29129.754499167742, 0.0]
['beep', 0.0, -3432.4232855347736, 0.0, 0.0, 0.0, 0.0, -29084.067533501093, 0.0]
['beep', 0.0, -3389.4408809472184, 0.0, 0.0, 0.0, 0.0, -28974.32046822554, 0.0]
['beep', 0.0, -3319.882252202303, 0.0, 0.0, 0.0, 0.0, -28961.95995354175, 0.0]
['beep', 0.0, -3305.197156095166, 0.0, 0.0, 0.0, 0.0, -29074.36687640749, 0.0]
['beep', 0.0, -3350.4370868727074, 0.0, 0.0, 0.0, 0.0, -29167.707761252852, 0.0]
['beep', 0.0, -3378.801450586492, 0.0, 0.0, 0.0, 0.0, -29123.496010720257, 0.0]
['beep', 0.0, -3335.0367349430007, 0.0, 0.0, 0.0, 0.0, -29014.061869867073, 0.0]
['beep', 0.0, -3264.561684675418, 0.0, 0.0, 0.0, 0.0, -29002.103686583483, 0.0]
['beep', 0.0, -3249.3848501902644, 0.0, 0.0, 0.0, 0.0, -29115.71760364981, 0.0]
['beep', 0.0, -3295.3623885348306, 0.0, 0.0, 0.0, 0.0, -29208.83497105062, 0.0]
['beep', 0.0, -3324.4420080711852, 0.0, 0.0, 0.0, 0.0, -29164.556165284655, 0.0]
['beep', 0.0, -3281.146679061256, 0.0, 0.0, 0.0, 0.0, -29054.51852733118, 0.0]
['beep', 0.0, -3211.1857189161447, 0.0, 0.0, 0.0, 0.0, -29041.532163802643, 0.0]
['beep', 0.0, -3195.8971257087146, 0.0, 0.0, 0.0, 0.0, -29154.81080470214, 0.0]
['beep', 0.0, -3241.494684397541, 0.0, 0.0, 0.0, 0.0, -29248.419910480967, 0.0]
['beep', 0.0, -3269.8813998557807, 0.0, 0.0, 0.0, 0.0, -29205.146933215492, 0.0]
['beep', 0.0, -3227.1895679461445, 0.0, 0.0, 0.0, 0.0, -29095.80219934013, 0.0]
['beep', 0.0, -3157.5638839678627, 0.0, 0.0, 0.0, 0.0, -29082.05587650012, 0.0]
['beep', 0.0, -3142.2529390159775, 0.0, 0.0, 0.0, 0.0, -29194.932185999416, 0.0]
['beep', 0.0, -3187.2470006045105, 0.0, 0.0, 0.0, 0.0, -29289.100085389626, 0.0]
['beep', 0.0, -3215.2760881514655, 0.0, 0.0, 0.0, 0.0, -29246.341198246624, 0.0]
['beep', 0.0, -3172.5172010084634, 0.0, 0.0, 0.0, 0.0, -29136.929409137894, 0.0]
['beep', 0.0, -3102.8915170301816, 0.0, 0.0, 0.0, 0.0, -29122.57958919759, 0.0]
['beep', 0.0, -3087.2005924225564, 0.0, 0.0, 0.0, 0.0, -29235.16532601897, 0.0]
['beep', 0.0, -3132.7310958780167, 0.0, 0.0, 0.0, 0.0, -29329.310873664723, 0.0]
['beep', 0.0, -3162.5706747258514, 0.0, 0.0, 0.0, 0.0, -29287.021373155283, 0.0]
['beep', 0.0, -3120.281174216411, 0.0, 0.0, 0.0, 0.0, -29177.363714857547, 0.0]
['beep', 0.0, -3050.1637518601124, 0.0, 0.0, 0.0, 0.0, -29162.6339152615, 0.0]
['beep', 0.0, -3034.2269580634784, 0.0, 0.0, 0.0, 0.0, -29274.683210215953, 0.0]
['beep', 0.0, -3079.8021650078495, 0.0, 0.0, 0.0, 0.0, -29369.499310195366, 0.0]
['beep', 0.0, -3108.904136288659, 0.0, 0.0, 0.0, 0.0, -29327.880362019583, 0.0]
['beep', 0.0, -3066.815801479316, 0.0, 0.0, 0.0, 0.0, -29218.222703721847, 0.0]
['beep', 0.0, -2997.145414012124, 0.0, 0.0, 0.0, 0.0, -29203.381145403524, 0.0]
['beep', 0.0, -2981.476841148954, 0.0, 0.0, 0.0, 0.0, -29315.34103338016, 0.0]
['beep', 0.0, -3027.0967515822354, 0.0, 0.0, 0.0, 0.0, -29410.425354293035, 0.0]
['beep', 0.0, -3056.489295540964, 0.0, 0.0, 0.0, 0.0, -29368.448778205966, 0.0]
['beep', 0.0, -3014.825643876272, 0.0, 0.0, 0.0, 0.0, -29258.58995420813, 0.0]
['beep', 0.0, -2944.797628497795, 0.0, 0.0, 0.0, 0.0, -29243.703692400897, 0.0]
['beep', 0.0, -2927.2291573559237, 0.0, 0.0, 0.0, 0.0, -29355.082435021694, 0.0]
['beep', 0.0, -2972.11146022218, 0.0, 0.0, 0.0, 0.0, -29449.36209313418, 0.0]
['beep', 0.0, -3001.5263559253644, 0.0, 0.0, 0.0, 0.0, -29408.838380436708, 0.0]
['beep', 0.0, -2959.5497798382976, 0.0, 0.0, 0.0, 0.0, -29302.913463463006, 0.0]
['beep', 0.0, -2889.6111714376416, 0.0, 0.0, 0.0, 0.0, -29290.485893545854, 0.0]
['beep', 0.0, -2873.3167497297227, 0.0, 0.0, 0.0, 0.0, -29398.020136120336, 0.0]
['beep', 0.0, -2918.2437560848903, 0.0, 0.0, 0.0, 0.0, -29486.1083610187, 0.0]
['beep', 0.0, -2947.3233756212444, 0.0, 0.0, 0.0, 0.0, -29444.712930287475, 0.0]
['beep', 0.0, -2904.922116389527, 0.0, 0.0, 0.0, 0.0, -29342.319588937713, 0.0]
['beep', 0.0, -2834.067086466204, 0.0, 0.0, 0.0, 0.0, -29330.786088798774, 0.0]
['beep', 0.0, -2816.900946724528, 0.0, 0.0, 0.0, 0.0, -29437.046281939303, 0.0]
['beep', 0.0, -2862.409098435533, 0.0, 0.0, 0.0, 0.0, -29525.693300449053, 0.0]
['beep', 0.0, -2892.2710290278233, 0.0, 0.0, 0.0, 0.0, -29485.728381362962, 0.0]
['beep', 0.0, -2850.2721011963013, 0.0, 0.0, 0.0, 0.0, -29382.977412101915, 0.0]
['beep', 0.0, -2779.662940461986, 0.0, 0.0, 0.0, 0.0, -29369.834586362194, 0.0]
['beep', 0.0, -2762.6309111870423, 0.0, 0.0, 0.0, 0.0, -29475.64774461362, 0.0]
['beep', 0.0, -2807.4238070754777, 0.0, 0.0, 0.0, 0.0, -29564.697094523563, 0.0]
['beep', 0.0, -2837.0398684787597, 0.0, 0.0, 0.0, 0.0, -29525.827410915783, 0.0]
['beep', 0.0, -2795.1750511139694, 0.0, 0.0, 0.0, 0.0, -29424.283435855323, 0.0]
['beep', 0.0, -2724.320021190646, 0.0, 0.0, 0.0, 0.0, -29411.699403726987, 0.0]
['beep', 0.0, -2707.332695404613, 0.0, 0.0, 0.0, 0.0, -29517.087878833758, 0.0]
['beep', 0.0, -2752.662033159975, 0.0, 0.0, 0.0, 0.0, -29605.801952576872, 0.0]
['beep', 0.0, -2782.702777707908, 0.0, 0.0, 0.0, 0.0, -29566.75345501345, 0.0]
['beep', 0.0, -2740.4579806873776, 0.0, 0.0, 0.0, 0.0, -29464.762445063883, 0.0]
['beep', 0.0, -2669.1112123860376, 0.0, 0.0, 0.0, 0.0, -29451.574915835252, 0.0]
['beep', 0.0, -2651.319223799613, 0.0, 0.0, 0.0, 0.0, -29556.583411286287, 0.0]
['beep', 0.0, -2696.514451088244, 0.0, 0.0, 0.0, 0.0, -29645.81157515187, 0.0]
['beep', 0.0, -2727.1810444809253, 0.0, 0.0, 0.0, 0.0, -29607.14305724419, 0.0]
['beep', 0.0, -2685.3832823495013, 0.0, 0.0, 0.0, 0.0, -29505.062640316803, 0.0]
['beep', 0.0, -2613.7906448591525, 0.0, 0.0, 0.0, 0.0, -29491.673945388073, 0.0]
['beep', 0.0, -2595.9539527838174, 0.0, 0.0, 0.0, 0.0, -29596.70479258356, 0.0]
['beep', 0.0, -2641.037421350172, 0.0, 0.0, 0.0, 0.0, -29685.68708726014, 0.0]
['beep', 0.0, -2671.0111106647387, 0.0, 0.0, 0.0, 0.0, -29647.331493774833, 0.0]
['beep', 0.0, -2628.878072366485, 0.0, 0.0, 0.0, 0.0, -29546.346312325757, 0.0]
['beep', 0.0, -2557.7995249986084, 0.0, 0.0, 0.0, 0.0, -29533.158783097126, 0.0]
['beep', 0.0, -2540.029888156639, 0.0, 0.0, 0.0, 0.0, -29638.211982037068, 0.0]
['beep', 0.0, -2585.515688123189, 0.0, 0.0, 0.0, 0.0, -29728.02129125849, 0.0]
['beep', 0.0, -2616.808130360619, 0.0, 0.0, 0.0, 0.0, -29689.82215998437, 0.0]
['beep', 0.0, -2575.546810096122, 0.0, 0.0, 0.0, 0.0, -29588.345240157276, 0.0]
['beep', 0.0, -2504.3341522615137, 0.0, 0.0, 0.0, 0.0, -29574.800083017362, 0.0]
['beep', 0.0, -2486.296294486081, 0.0, 0.0, 0.0, 0.0, -29679.58506102384, 0.0]
['beep', 0.0, -2530.2174723407593, 0.0, 0.0, 0.0, 0.0, -29769.662591178727, 0.0]
['beep', 0.0, -2560.0794029330496, 0.0, 0.0, 0.0, 0.0, -29732.446936660643, 0.0]
['beep', 0.0, -2518.751027435187, 0.0, 0.0, 0.0, 0.0, -29631.171182533646, 0.0]
['beep', 0.0, -2446.689003311277, 0.0, 0.0, 0.0, 0.0, -29617.04488003789, 0.0]
['beep', 0.0, -2427.1982821462493, 0.0, 0.0, 0.0, 0.0, -29720.868733032792, 0.0]
['beep', 0.0, -2471.3876809343915, 0.0, 0.0, 0.0, 0.0, -29810.990966676593, 0.0]
['beep', 0.0, -2501.942515604796, 0.0, 0.0, 0.0, 0.0, -29775.07171333691, 0.0]
['beep', 0.0, -2460.3459191734696, 0.0, 0.0, 0.0, 0.0, -29674.488863288032, 0.0]
['beep', 0.0, -2388.507412494113, 0.0, 0.0, 0.0, 0.0, -29659.982581136537, 0.0]
['beep', 0.0, -2369.597836684923, 0.0, 0.0, 0.0, 0.0, -29763.56056494243, 0.0]
['beep', 0.0, -2413.6754767507887, 0.0, 0.0, 0.0, 0.0, -29853.503984630584, 0.0]
['beep', 0.0, -2444.520884099112, 0.0, 0.0, 0.0, 0.0, -29817.160048146256, 0.0]
['beep', 0.0, -2403.57248825699, 0.0, 0.0, 0.0, 0.0, -29716.890122519748, 0.0]
['beep', 0.0, -2331.823388555454, 0.0, 0.0, 0.0, 0.0, -29702.808523512904, 0.0]
['beep', 0.0, -2312.1315016903286, 0.0, 0.0, 0.0, 0.0, -29805.738306729592, 0.0]
['beep', 0.0, -2356.343252222926, 0.0, 0.0, 0.0, 0.0, -29895.994650840123, 0.0]
['beep', 0.0, -2387.7474531826324, 0.0, 0.0, 0.0, 0.0, -29860.880060300835, 0.0]
['beep', 0.0, -2347.1343335073393, 0.0, 0.0, 0.0, 0.0, -29760.65483816324, 0.0]
['beep', 0.0, -2275.0052541500636, 0.0, 0.0, 0.0, 0.0, -29745.165079255712, 0.0]
['beep', 0.0, -2254.8439806513766, 0.0, 0.0, 0.0, 0.0, -29847.446661883198, 0.0]
['beep', 0.0, -2298.5863445504124, 0.0, 0.0, 0.0, 0.0, -29937.54654378254, 0.0]
['beep', 0.0, -2329.4317518987364, 0.0, 0.0, 0.0, 0.0, -29902.54371196553, 0.0]
['beep', 0.0, -2288.505707801069, 0.0, 0.0, 0.0, 0.0, -29802.497303783573, 0.0]
['beep', 0.0, -2216.6224976328012, 0.0, 0.0, 0.0, 0.0, -29787.074600109412, 0.0]
['beep', 0.0, -2197.310590423416, 0.0, 0.0, 0.0, 0.0, -29889.289127503533, 0.0]
['beep', 0.0, -2241.701154911656, 0.0, 0.0, 0.0, 0.0, -29979.0760849805, 0.0]
['beep', 0.0, -2273.217114593639, 0.0, 0.0, 0.0, 0.0, -29944.341474096953, 0.0]
['beep', 0.0, -2233.542768185469, 0.0, 0.0, 0.0, 0.0, -29845.256190926575, 0.0]
['beep', 0.0, -2162.4195173286816, 0.0, 0.0, 0.0, 0.0, -29829.900542485782, 0.0]
['beep', 0.0, -2143.062906630386, 0.0, 0.0, 0.0, 0.0, -29932.249180346633, 0.0]
['beep', 0.0, -2187.38641588526, 0.0, 0.0, 0.0, 0.0, -30022.66198666835, 0.0]
['beep', 0.0, -2218.5000441670472, 0.0, 0.0, 0.0, 0.0, -29988.866149051926, 0.0]
['beep', 0.0, -2177.8198692583883, 0.0, 0.0, 0.0, 0.0, -29888.73033389215, 0.0]
['beep', 0.0, -2106.1154730457633, 0.0, 0.0, 0.0, 0.0, -29872.43591218423, 0.0]
['beep', 0.0, -2086.1330135027188, 0.0, 0.0, 0.0, 0.0, -29974.337515155974, 0.0]
['beep', 0.0, -2129.651859957202, 0.0, 0.0, 0.0, 0.0, -30065.15265287789, 0.0]
['beep', 0.0, -2161.57015103938, 0.0, 0.0, 0.0, 0.0, -30031.66973968384, 0.0]
['beep', 0.0, -2121.873452886755, 0.0, 0.0, 0.0, 0.0, -29932.293883835544, 0.0]
['beep', 0.0, -2049.5655595738363, 0.0, 0.0, 0.0, 0.0, -29915.373613282874, 0.0]
['beep', 0.0, -2028.3314023412947, 0.0, 0.0, 0.0, 0.0, -30016.671719154325, 0.0]
['beep', 0.0, -2071.8502487957776, 0.0, 0.0, 0.0, 0.0, -30107.464505131782, 0.0]
['beep', 0.0, -2103.9473538335983, 0.0, 0.0, 0.0, 0.0, -30074.741551249215, 0.0]
['beep', 0.0, -2064.541228358892, 0.0, 0.0, 0.0, 0.0, -29975.276288423098, 0.0]
['beep', 0.0, -1992.3450937682503, 0.0, 0.0, 0.0, 0.0, -29958.579535314984, 0.0]
['beep', 0.0, -1970.8874190911556, 0.0, 0.0, 0.0, 0.0, -30059.274144086143, 0.0]
['beep', 0.0, -2013.8251201898004, 0.0, 0.0, 0.0, 0.0, -30150.40220623043, 0.0]
['beep', 0.0, -2046.324556627817, 0.0, 0.0, 0.0, 0.0, -30117.52279013667, 0.0]
['beep', 0.0, -2007.231355575485, 0.0, 0.0, 0.0, 0.0, -30017.342271487985, 0.0]
['beep', 0.0, -1935.3034419183068, 0.0, 0.0, 0.0, 0.0, -29999.863207323935, 0.0]
['beep', 0.0, -1914.4045608525946, 0.0, 0.0, 0.0, 0.0, -30101.47423761776, 0.0]
['beep', 0.0, -1957.7892968403455, 0.0, 0.0, 0.0, 0.0, -30194.055163151643, 0.0]
['beep', 0.0, -1989.998160600443, 0.0, 0.0, 0.0, 0.0, -30162.025113347187, 0.0]
['beep', 0.0, -1950.390869425639, 0.0, 0.0, 0.0, 0.0, -30061.71048423177, 0.0]
['beep', 0.0, -1877.9041621570782, 0.0, 0.0, 0.0, 0.0, -30043.694978200794, 0.0]
['beep', 0.0, -1856.5582462022599, 0.0, 0.0, 0.0, 0.0, -30144.54604918314, 0.0]
['beep', 0.0, -1899.808871723279, 0.0, 0.0, 0.0, 0.0, -30236.54582936118, 0.0]
['beep', 0.0, -1933.3141366617845, 0.0, 0.0, 0.0, 0.0, -30204.44872432336, 0.0]
['beep', 0.0, -1894.6903222430137, 0.0, 0.0, 0.0, 0.0, -30104.715240563783, 0.0]
['beep', 0.0, -1822.293021952274, 0.0, 0.0, 0.0, 0.0, -30085.872719987958, 0.0]
['beep', 0.0, -1800.5224228528052, 0.0, 0.0, 0.0, 0.0, -30185.762665958726, 0.0]
['beep', 0.0, -1844.108324540654, 0.0, 0.0, 0.0, 0.0, -30278.209481025875, 0.0]
['beep', 0.0, -1877.2559615678742, 0.0, 0.0, 0.0, 0.0, -30247.31937018864, 0.0]
['beep', 0.0, -1838.587443660193, 0.0, 0.0, 0.0, 0.0, -30147.004741073222, 0.0]
['beep', 0.0, -1765.8772189470792, 0.0, 0.0, 0.0, 0.0, -30128.05046177512, 0.0]
['beep', 0.0, -1743.7042884474147, 0.0, 0.0, 0.0, 0.0, -30228.052166468166, 0.0]
['beep', 0.0, -1786.3961203570511, 0.0, 0.0, 0.0, 0.0, -30320.744850724324, 0.0]
['beep', 0.0, -1818.8732050506121, 0.0, 0.0, 0.0, 0.0, -30289.94414686491, 0.0]
['beep', 0.0, -1779.2435621313527, 0.0, 0.0, 0.0, 0.0, -30190.188311360875, 0.0]
['beep', 0.0, -1705.5722124066608, 0.0, 0.0, 0.0, 0.0, -30171.189328573862, 0.0]
['beep', 0.0, -1682.3934534065072, 0.0, 0.0, 0.0, 0.0, -30271.28044024473, 0.0]
['beep', 0.0, -1725.241747527331, 0.0, 0.0, 0.0, 0.0, -30364.755435556825, 0.0]
['beep', 0.0, -1758.2552740878195, 0.0, 0.0, 0.0, 0.0, -30334.468821819883, 0.0]
['beep', 0.0, -1719.854977113602, 0.0, 0.0, 0.0, 0.0, -30235.003558993765, 0.0]
['beep', 0.0, -1647.5470838006836, 0.0, 0.0, 0.0, 0.0, -30215.64694829547, 0.0]
['beep', 0.0, -1624.8153596896364, 0.0, 0.0, 0.0, 0.0, -30315.358080310594, 0.0]
['beep', 0.0, -1666.8589910100688, 0.0, 0.0, 0.0, 0.0, -30408.296633755763, 0.0]
['beep', 0.0, -1699.8725175705574, 0.0, 0.0, 0.0, 0.0, -30378.747627585846, 0.0]
['beep', 0.0, -1662.0086624632672, 0.0, 0.0, 0.0, 0.0, -30278.14242579251, 0.0]
['beep', 0.0, -1589.9689900838125, 0.0, 0.0, 0.0, 0.0, -30257.71293136036, 0.0]
['beep', 0.0, -1567.2372659727653, 0.0, 0.0, 0.0, 0.0, -30357.96050524241, 0.0]
['beep', 0.0, -1609.638525204483, 0.0, 0.0, 0.0, 0.0, -30451.480204043415, 0.0]
['beep', 0.0, -1642.7414587427925, 0.0, 0.0, 0.0, 0.0, -30421.39475600657, 0.0]
['beep', 0.0, -1604.7881966576813, 0.0, 0.0, 0.0, 0.0, -30321.28129259125, 0.0]
['beep', 0.0, -1531.9215097333802, 0.0, 0.0, 0.0, 0.0, -30300.740039436823, 0.0]
['beep', 0.0, -1507.8263292105592, 0.0, 0.0, 0.0, 0.0, -30400.518226685315, 0.0]
['beep', 0.0, -1549.244111686243, 0.0, 0.0, 0.0, 0.0, -30495.066105731265, 0.0]
['beep', 0.0, -1582.2576382467316, 0.0, 0.0, 0.0, 0.0, -30466.455872828472, 0.0]
['beep', 0.0, -1544.5502453506288, 0.0, 0.0, 0.0, 0.0, -30365.694208823945, 0.0]
['beep', 0.0, -1471.4376892373193, 0.0, 0.0, 0.0, 0.0, -30343.789499257746, 0.0]
['beep', 0.0, -1447.0519360365793, 0.0, 0.0, 0.0, 0.0, -30442.628913239114, 0.0]
['beep', 0.0, -1488.6038289789951, 0.0, 0.0, 0.0, 0.0, -30536.930923096053, 0.0]
['beep', 0.0, -1522.1761491508662, 0.0, 0.0, 0.0, 0.0, -30507.426620415048, 0.0]
['beep', 0.0, -1484.893439399414, 0.0, 0.0, 0.0, 0.0, -30406.843770366166, 0.0]
['beep', 0.0, -1412.451435619764, 0.0, 0.0, 0.0, 0.0, -30385.78842708927, 0.0]
['beep', 0.0, -1389.6526562753506, 0.0, 0.0, 0.0, 0.0, -30485.432503871027, 0.0]
['beep', 0.0, -1432.1656742293446, 0.0, 0.0, 0.0, 0.0, -30580.67328699509, 0.0]
['beep', 0.0, -1465.8721048679479, 0.0, 0.0, 0.0, 0.0, -30553.068882592786, 0.0]
['beep', 0.0, -1428.7011538387721, 0.0, 0.0, 0.0, 0.0, -30453.000122666377, 0.0]
['beep', 0.0, -1356.482667503675, 0.0, 0.0, 0.0, 0.0, -30431.989482878387, 0.0]
['beep', 0.0, -1332.4768939586752, 0.0, 0.0, 0.0, 0.0, -30531.588856171235, 0.0]
['beep', 0.0, -1374.31935957901, 0.0, 0.0, 0.0, 0.0, -30627.008453250943, 0.0]
['beep', 0.0, -1408.1822524288002, 0.0, 0.0, 0.0, 0.0, -30598.95701395953, 0.0]
['beep', 0.0, -1371.0336531440798, 0.0, 0.0, 0.0, 0.0, -30498.64238484411, 0.0]
['beep', 0.0, -1297.7646348195833, 0.0, 0.0, 0.0, 0.0, -30476.357695622173, 0.0]
['beep', 0.0, -1273.2447711521115, 0.0, 0.0, 0.0, 0.0, -30575.15240611463, 0.0]
['beep', 0.0, -1314.4166844387871, 0.0, 0.0, 0.0, 0.0, -30671.421369483636, 0.0]
['beep', 0.0, -1348.1454668218455, 0.0, 0.0, 0.0, 0.0, -30645.02395928192, 0.0]
['beep', 0.0, -1311.0862745149464, 0.0, 0.0, 0.0, 0.0, -30544.686978422043, 0.0]
['beep', 0.0, -1238.1525323572794, 0.0, 0.0, 0.0, 0.0, -30521.575274655257, 0.0]
['beep', 0.0, -1213.9455931121818, 0.0, 0.0, 0.0, 0.0, -30620.615854336724, 0.0]
['beep', 0.0, -1255.7433552436062, 0.0, 0.0, 0.0, 0.0, -30717.488314806025, 0.0]
['beep', 0.0, -1289.8968207713153, 0.0, 0.0, 0.0, 0.0, -30690.934442393118, 0.0]
['beep', 0.0, -1253.5081807980753, 0.0, 0.0, 0.0, 0.0, -30590.91038595562, 0.0]
['beep', 0.0, -1180.4850316625873, 0.0, 0.0, 0.0, 0.0, -30567.821033933287, 0.0]
['beep', 0.0, -1155.205208683635, 0.0, 0.0, 0.0, 0.0, -30667.040427570395, 0.0]
['beep', 0.0, -1195.8406801033832, 0.0, 0.0, 0.0, 0.0, -30763.868184550785, 0.0]
['beep', 0.0, -1230.038849120003, 0.0, 0.0, 0.0, 0.0, -30738.118974938272, 0.0]
['beep', 0.0, -1194.3878167137882, 0.0, 0.0, 0.0, 0.0, -30637.469069656025, 0.0]
['beep', 0.0, -1121.9011094452273, 0.0, 0.0, 0.0, 0.0, -30612.97155773301, 0.0]
['beep', 0.0, -1096.7777486774623, 0.0, 0.0, 0.0, 0.0, -30710.73808798052, 0.0]
['beep', 0.0, -1138.396696853244, 0.0, 0.0, 0.0, 0.0, -30807.677603683187, 0.0]
['beep', 0.0, -1173.3101216924335, 0.0, 0.0, 0.0, 0.0, -30782.308373726413, 0.0]
['beep', 0.0, -1137.592034052853, 0.0, 0.0, 0.0, 0.0, -30681.859634144264, 0.0]
['beep', 0.0, -1064.881809339739, 0.0, 0.0, 0.0, 0.0, -30657.45152919907, 0.0]
['beep', 0.0, -1038.4396956491107, 0.0, 0.0, 0.0, 0.0, -30755.79920480242, 0.0]
['beep', 0.0, -1079.2539810245016, 0.0, 0.0, 0.0, 0.0, -30853.319865860925, 0.0]
['beep', 0.0, -1114.8379581973504, 0.0, 0.0, 0.0, 0.0, -30827.7271184596, 0.0]
['beep', 0.0, -1079.8351263803395, 0.0, 0.0, 0.0, 0.0, -30726.965454455076, 0.0]
['beep', 0.0, -1006.7672737559407, 0.0, 0.0, 0.0, 0.0, -30701.32800356484, 0.0]
['beep', 0.0, -980.14634610967, 0.0, 0.0, 0.0, 0.0, -30798.736905901067, 0.0]
['beep', 0.0, -1020.5806518293205, 0.0, 0.0, 0.0, 0.0, -30896.458732659667, 0.0]
['beep', 0.0, -1055.6728906241526, 0.0, 0.0, 0.0, 0.0, -30872.385903881303, 0.0]
['beep', 0.0, -1020.8488727627841, 0.0, 0.0, 0.0, 0.0, -30771.937164299154, 0.0]
['beep', 0.0, -948.2504067719468, 0.0, 0.0, 0.0, 0.0, -30746.52323085347, 0.0]
['beep', 0.0, -922.4341419260671, 0.0, 0.0, 0.0, 0.0, -30843.306284344948, 0.0]
['beep', 0.0, -962.3767092677009, 0.0, 0.0, 0.0, 0.0, -30941.810422159488, 0.0]
['beep', 0.0, -997.8712794627285, 0.0, 0.0, 0.0, 0.0, -30918.877532348342, 0.0]
['beep', 0.0, -962.9802063679941, 0.0, 0.0, 0.0, 0.0, -30818.898179399752, 0.0]
['beep', 0.0, -889.1970979210256, 0.0, 0.0, 0.0, 0.0, -30793.059562809416, 0.0]
['beep', 0.0, -861.2350656074365, 0.0, 0.0, 0.0, 0.0, -30890.02143025654, 0.0]
['beep', 0.0, -900.9317637600618, 0.0, 0.0, 0.0, 0.0, -30988.436161093257, 0.0]
['beep', 0.0, -936.0687060438045, 0.0, 0.0, 0.0, 0.0, -30965.190346859737, 0.0]
['beep', 0.0, -901.0882259712489, 0.0, 0.0, 0.0, 0.0, -30864.942772977683, 0.0]
['beep', 0.0, -827.8415593912076, 0.0, 0.0, 0.0, 0.0, -30838.99239766507, 0.0]
['beep', 0.0, -800.0136375443503, 0.0, 0.0, 0.0, 0.0, -30936.624817445856, 0.0]
['beep', 0.0, -839.4197630190567, 0.0, 0.0, 0.0, 0.0, -31036.268894227615, 0.0]
['beep', 0.0, -875.3390163587352, 0.0, 0.0, 0.0, 0.0, -31012.553693360533, 0.0]
['beep', 0.0, -841.3643647866685, 0.0, 0.0, 0.0, 0.0, -30911.322642722447, 0.0]
['beep', 0.0, -767.1789249395043, 0.0, 0.0, 0.0, 0.0, -30884.07586623143, 0.0]
['beep', 0.0, -738.546340292256, 0.0, 0.0, 0.0, 0.0, -30980.747161000632, 0.0]
['beep', 0.0, -777.639541344588, 0.0, 0.0, 0.0, 0.0, -31080.30183080457, 0.0]
['beep', 0.0, -813.4023324730794, 0.0, 0.0, 0.0, 0.0, -31057.681865415798, 0.0]
['beep', 0.0, -779.2935704342807, 0.0, 0.0, 0.0, 0.0, -30957.188422344738, 0.0]
['beep', 0.0, -705.4210550094909, 0.0, 0.0, 0.0, 0.0, -30929.919294109262, 0.0]
['beep', 0.0, -677.4813744403571, 0.0, 0.0, 0.0, 0.0, -31026.501181900643, 0.0]
['beep', 0.0, -716.8651481706081, 0.0, 0.0, 0.0, 0.0, -31125.474706348745, 0.0]
['beep', 0.0, -752.7173462769207, 0.0, 0.0, 0.0, 0.0, -31102.988851426704, 0.0]
['beep', 0.0, -718.8544534271305, 0.0, 0.0, 0.0, 0.0, -31002.450704866733, 0.0]
['beep', 0.0, -645.4289728914467, 0.0, 0.0, 0.0, 0.0, -30974.488672553143, 0.0]
['beep', 0.0, -617.1093126665727, 0.0, 0.0, 0.0, 0.0, -31071.24937430017, 0.0]
['beep', 0.0, -656.0684032521729, 0.0, 0.0, 0.0, 0.0, -31171.45224469331, 0.0]
['beep', 0.0, -692.0994153141279, 0.0, 0.0, 0.0, 0.0, -31150.3521979275, 0.0]
['beep', 0.0, -658.840019564631, 0.0, 0.0, 0.0, 0.0, -31050.059920556538, 0.0]
['beep', 0.0, -585.5933529845897, 0.0, 0.0, 0.0, 0.0, -31021.76261207612, 0.0]
['beep', 0.0, -556.938416592886, 0.0, 0.0, 0.0, 0.0, -31117.53983706711, 0.0]
['beep', 0.0, -596.4786525343243, 0.0, 0.0, 0.0, 0.0, -31217.250969082233, 0.0]
['beep', 0.0, -632.6661268074664, 0.0, 0.0, 0.0, 0.0, -31196.03916359415, 0.0]
['beep', 0.0, -599.518489780246, 0.0, 0.0, 0.0, 0.0, -31095.880996689917, 0.0]
['beep', 0.0, -525.9141952889199, 0.0, 0.0, 0.0, 0.0, -31067.494281231677, 0.0]
['beep', 0.0, -496.7898722636548, 0.0, 0.0, 0.0, 0.0, -31162.824471333563, 0.0]
['beep', 0.0, -535.4807419157913, 0.0, 0.0, 0.0, 0.0, -31262.75912079324, 0.0]
['beep', 0.0, -571.6905679333887, 0.0, 0.0, 0.0, 0.0, -31242.41903333891, 0.0]
['beep', 0.0, -538.4088204394366, 0.0, 0.0, 0.0, 0.0, -31142.104404223493, 0.0]
['beep', 0.0, -464.67041548137854, 0.0, 0.0, 0.0, 0.0, -31112.667156775853, 0.0]
['beep', 0.0, -435.38963024492625, 0.0, 0.0, 0.0, 0.0, -31207.438553266355, 0.0]
['beep', 0.0, -474.3487208305265, 0.0, 0.0, 0.0, 0.0, -31308.423734715434, 0.0]
['beep', 0.0, -511.00558173723005, 0.0, 0.0, 0.0, 0.0, -31288.485978661298, 0.0]
['beep', 0.0, -478.170869132384, 0.0, 0.0, 0.0, 0.0, -31187.724314656774, 0.0]
['beep', 0.0, -404.25365021868356, 0.0, 0.0, 0.0, 0.0, -31158.130604997947, 0.0]
['beep', 0.0, -374.0564434595637, 0.0, 0.0, 0.0, 0.0, -31252.924353232906, 0.0]
['beep', 0.0, -412.2555747336835, 0.0, 0.0, 0.0, 0.0, -31353.93188642644, 0.0]
['beep', 0.0, -448.9571391292977, 0.0, 0.0, 0.0, 0.0, -31334.552923983687, 0.0]
['beep', 0.0, -416.54710966910244, 0.0, 0.0, 0.0, 0.0, -31233.679501256884, 0.0]
['beep', 0.0, -343.23338785569524, 0.0, 0.0, 0.0, 0.0, -31203.370535775488, 0.0]
['beep', 0.0, -313.9078991303324, 0.0, 0.0, 0.0, 0.0, -31298.276042732723, 0.0]
['beep', 0.0, -352.4870100601924, 0.0, 0.0, 0.0, 0.0, -31399.395334648532, 0.0]
['beep', 0.0, -389.1662227113513, 0.0, 0.0, 0.0, 0.0, -31380.798683261717, 0.0]
['beep', 0.0, -357.15852465135157, 0.0, 0.0, 0.0, 0.0, -31281.467530902333, 0.0]
['beep', 0.0, -283.08484352646394, 0.0, 0.0, 0.0, 0.0, -31251.784414265683, 0.0]
['beep', 0.0, -252.2394361781402, 0.0, 0.0, 0.0, 0.0, -31346.06407237817, 0.0]
['beep', 0.0, -290.2821052410728, 0.0, 0.0, 0.0, 0.0, -31447.004550338337, 0.0]
['beep', 0.0, -326.9166144033211, 0.0, 0.0, 0.0, 0.0, -31429.212561751912, 0.0]
['beep', 0.0, -294.17130877629626, 0.0, 0.0, 0.0, 0.0, -31329.613188459065, 0.0]
['beep', 0.0, -220.05292416249804, 0.0, 0.0, 0.0, 0.0, -31299.2371677443, 0.0]
['beep', 0.0, -189.6098482143698, 0.0, 0.0, 0.0, 0.0, -31393.136846201047, 0.0]
['beep', 0.0, -227.67486902175773, 0.0, 0.0, 0.0, 0.0, -31493.585585783196, 0.0]
['beep', 0.0, -265.24815145112893, 0.0, 0.0, 0.0, 0.0, -31475.346562307666, 0.0]
['beep', 0.0, -232.81577024647837, 0.0, 0.0, 0.0, 0.0, -31376.529500070752, 0.0]
['beep', 0.0, -158.25035074357402, 0.0, 0.0, 0.0, 0.0, -31346.10877586708, 0.0]
['beep', 0.0, -126.77909455050165, 0.0, 0.0, 0.0, 0.0, -31439.337901990166, 0.0]
['beep', 0.0, -164.33002523541754, 0.0, 0.0, 0.0, 0.0, -31540.367786928153, 0.0]
['beep', 0.0, -201.47862452013786, 0.0, 0.0, 0.0, 0.0, -31523.76044079786, 0.0]
['beep', 0.0, -169.18035378221916, 0.0, 0.0, 0.0, 0.0, -31425.680986127973, 0.0]
['beep', 0.0, -95.10667265733156, 0.0, 0.0, 0.0, 0.0, -31395.39437239103, 0.0]
['beep', 0.0, -64.41772752019496, 0.0, 0.0, 0.0, 0.0, -31488.444684558475, 0.0]
['beep', 0.0, -102.50510007203819, 0.0, 0.0, 0.0, 0.0, -31589.54162472983, 0.0]
['beep', 0.0, -140.05603075695404, 0.0, 0.0, 0.0, 0.0, -31573.113092555177, 0.0]
['beep', 0.0, -107.55659431893758, 0.0, 0.0, 0.0, 0.0, -31475.078341374203, 0.0]
['beep', 0.0, -33.12528528276507, 0.0, 0.0, 0.0, 0.0, -31444.143527048058, 0.0]
['beep', 0.0, -1.8775465342457933, 0.0, 0.0, 0.0, 0.0, -31536.746804326394, 0.0]
['beep', 0.0, -40.12138129727618, 0.0, 0.0, 0.0, 0.0, -31637.93315147557, 0.0]
['beep', 0.0, -77.49349802654959, 0.0, 0.0, 0.0, 0.0, -31620.990529178445, 0.0]
['beep', 0.0, -45.61991043328172, 0.0, 0.0, 0.0, 0.0, -31522.2405221749, 0.0]
['beep', 0.0, 28.96786081407795, 0.0, 0.0, 0.0, 0.0, -31491.082190404202, 0.0]
['beep', 0.0, 60.34971002932907, 0.0, 0.0, 0.0, 0.0, -31583.081970582247, 0.0]
['beep', 0.0, 22.21763398857522, 0.0, 0.0, 0.0, 0.0, -31684.1789107536, 0.0]
['beep', 0.0, -15.176834485153496, 0.0, 0.0, 0.0, 0.0, -31668.867965801714, 0.0]
['beep', 0.0, 17.50141590850543, 0.0, 0.0, 0.0, 0.0, -31571.21319427648, 0.0]
['beep', 0.0, 92.31270460041817, 0.0, 0.0, 0.0, 0.0, -31540.3454351837, 0.0]
['beep', 0.0, 123.62749858230336, 0.0, 0.0, 0.0, 0.0, -31632.1664014061, 0.0]
['beep', 0.0, 86.14362313075343, 0.0, 0.0, 0.0, 0.0, -31732.861010177257, 0.0]
['beep', 0.0, 48.816209890390624, 0.0, 0.0, 0.0, 0.0, -31716.99127161399, 0.0]
['beep', 0.0, 81.40505330622833, 0.0, 0.0, 0.0, 0.0, -31619.49296229994, 0.0]
['beep', 0.0, 155.88106583131145, 0.0, 0.0, 0.0, 0.0, -31588.044057851323, 0.0]
['beep', 0.0, 187.3970255132944, 0.0, 0.0, 0.0, 0.0, -31680.021486284913, 0.0]
['beep', 0.0, 150.18137099520814, 0.0, 0.0, 0.0, 0.0, -31782.28071716794, 0.0]
['beep', 0.0, 112.51868158801575, 0.0, 0.0, 0.0, 0.0, -31768.400283861196, 0.0]
['beep', 0.0, 144.70519360365793, 0.0, 0.0, 0.0, 0.0, -31671.527823391894, 0.0]
['beep', 0.0, 219.60588927339188, 0.0, 0.0, 0.0, 0.0, -31639.54247707635, 0.0]
['beep', 0.0, 251.43477337774914, 0.0, 0.0, 0.0, 0.0, -31731.22933283202, 0.0]
['beep', 0.0, 213.97324967065452, 0.0, 0.0, 0.0, 0.0, -31833.376804992775, 0.0]
['beep', 0.0, 176.62348468583642, 0.0, 0.0, 0.0, 0.0, -31819.451668197118, 0.0]
['beep', 0.0, 209.36879031286125, 0.0, 0.0, 0.0, 0.0, -31723.249760061477, 0.0]
['beep', 0.0, 284.7165208717014, 0.0, 0.0, 0.0, 0.0, -31691.1303032792, 0.0]
['beep', 0.0, 317.48417824318153, 0.0, 0.0, 0.0, 0.0, -31781.923089256656, 0.0]
['beep', 0.0, 280.02265453608686, 0.0, 0.0, 0.0, 0.0, -31883.332953850386, 0.0]
['beep', 0.0, 241.66706105077995, 0.0, 0.0, 0.0, 0.0, -31868.871375187802, 0.0]
['beep', 0.0, 273.89827655533276, 0.0, 0.0, 0.0, 0.0, -31772.24478390751, 0.0]
['beep', 0.0, 349.7377454921896, 0.0, 0.0, 0.0, 0.0, -31740.12532712523, 0.0]
['beep', 0.0, 382.46069937475914, 0.0, 0.0, 0.0, 0.0, -31830.716947402594, 0.0]
['beep', 0.0, 344.8427134564774, 0.0, 0.0, 0.0, 0.0, -31932.775012585524, 0.0]
['beep', 0.0, 307.2470792826509, 0.0, 0.0, 0.0, 0.0, -31919.56513161244, 0.0]
['beep', 0.0, 339.2771290871059, 0.0, 0.0, 0.0, 0.0, -31822.91618858769, 0.0]
['beep', 0.0, 415.2730602351499, 0.0, 0.0, 0.0, 0.0, -31789.589737604827, 0.0]
['beep', 0.0, 448.48775249573623, 0.0, 0.0, 0.0, 0.0, -31879.242584615065, 0.0]
['beep', 0.0, 411.29444972210524, 0.0, 0.0, 0.0, 0.0, -31981.010077120078, 0.0]
['beep', 0.0, 372.51417309214753, 0.0, 0.0, 0.0, 0.0, -31968.157824058275, 0.0]
['beep', 0.0, 403.9854292852198, 0.0, 0.0, 0.0, 0.0, -31872.514709534018, 0.0]
['beep', 0.0, 479.1990493773281, 0.0, 0.0, 0.0, 0.0, -31839.992921351546, 0.0]
['beep', 0.0, 511.76554104871053, 0.0, 0.0, 0.0, 0.0, -31929.9363410397, 0.0]
['beep', 0.0, 474.4157760638924, 0.0, 0.0, 0.0, 0.0, -32032.061461456, 0.0]
['beep', 0.0, 436.6860314233341, 0.0, 0.0, 0.0, 0.0, -32019.6562432833, 0.0]
['beep', 0.0, 468.55961901660197, 0.0, 0.0, 0.0, 0.0, -31923.923721781222, 0.0]
['beep', 0.0, 544.1532187644505, 0.0, 0.0, 0.0, 0.0, -31890.887843476277, 0.0]
['beep', 0.0, 577.747890680777, 0.0, 0.0, 0.0, 0.0, -31979.80308291949, 0.0]
['beep', 0.0, 541.2027884963499, 0.0, 0.0, 0.0, 0.0, -32081.54822368005, 0.0]
['beep', 0.0, 503.07071245559604, 0.0, 0.0, 0.0, 0.0, -32069.522985163094, 0.0]
['beep', 0.0, 535.0337070266852, 0.0, 0.0, 0.0, 0.0, -31973.969277616656, 0.0]
['beep', 0.0, 610.8955277079973, 0.0, 0.0, 0.0, 0.0, -31940.79928884498, 0.0]
['beep', 0.0, 644.1325717130389, 0.0, 0.0, 0.0, 0.0, -32029.870990499378, 0.0]
['beep', 0.0, 606.939268939408, 0.0, 0.0, 0.0, 0.0, -32132.152573126863, 0.0]
['beep', 0.0, 568.4719167318245, 0.0, 0.0, 0.0, 0.0, -32121.535494510594, 0.0]
['beep', 0.0, 599.6078967580672, 0.0, 0.0, 0.0, 0.0, -32027.211132909197, 0.0]
['beep', 0.0, 675.4473656949241, 0.0, 0.0, 0.0, 0.0, -31993.459998781684, 0.0]
['beep', 0.0, 709.064389355706, 0.0, 0.0, 0.0, 0.0, -32081.145892279852, 0.0]
['beep', 0.0, 672.3628249600918, 0.0, 0.0, 0.0, 0.0, -32182.51105338467, 0.0]
['beep', 0.0, 633.8507692635977, 0.0, 0.0, 0.0, 0.0, -32171.536346857116, 0.0]
['beep', 0.0, 664.7855835897427, 0.0, 0.0, 0.0, 0.0, -32076.429674199782, 0.0]
['beep', 0.0, 740.2450728708593, 0.0, 0.0, 0.0, 0.0, -32042.43267088326, 0.0]
['beep', 0.0, 773.3927098980797, 0.0, 0.0, 0.0, 0.0, -32130.163267870343, 0.0]
['beep', 0.0, 736.4229245690018, 0.0, 0.0, 0.0, 0.0, -32232.646016197923, 0.0]
['beep', 0.0, 698.0226275947842, 0.0, 0.0, 0.0, 0.0, -32223.23593178224, 0.0]
['beep', 0.0, 729.0021454098398, 0.0, 0.0, 0.0, 0.0, -32128.77745971411, 0.0]
['beep', 0.0, 804.8863178356073, 0.0, 0.0, 0.0, 0.0, -32093.998145341655, 0.0]
['beep', 0.0, 838.3692310296573, 0.0, 0.0, 0.0, 0.0, -32181.013486506166, 0.0]
['beep', 0.0, 801.2876869783029, 0.0, 0.0, 0.0, 0.0, -32283.697400533845, 0.0]
['beep', 0.0, 762.7756312818088, 0.0, 0.0, 0.0, 0.0, -32274.62259228499, 0.0]
['beep', 0.0, 793.7775008413197, 0.0, 0.0, 0.0, 0.0, -32180.78996906161, 0.0]
['beep', 0.0, 869.2369901224364, 0.0, 0.0, 0.0, 0.0, -32146.301227367072, 0.0]
['beep', 0.0, 903.569269605788, 0.0, 0.0, 0.0, 0.0, -32233.22716155376, 0.0]
['beep', 0.0, 867.5606092882883, 0.0, 0.0, 0.0, 0.0, -32335.82166860362, 0.0]
['beep', 0.0, 828.5344634693222, 0.0, 0.0, 0.0, 0.0, -32326.903322565955, 0.0]
['beep', 0.0, 858.8210772062632, 0.0, 0.0, 0.0, 0.0, -32232.355443520006, 0.0]
['beep', 0.0, 934.4817321874776, 0.0, 0.0, 0.0, 0.0, -32197.017335536166, 0.0]
['beep', 0.0, 969.2833983043907, 0.0, 0.0, 0.0, 0.0, -32282.82568250009, 0.0]
['beep', 0.0, 932.5147786754106, 0.0, 0.0, 0.0, 0.0, -32384.816692449655, 0.0]
['beep', 0.0, 892.79572877833, 0.0, 0.0, 0.0, 0.0, -32376.479491767826, 0.0]
['beep', 0.0, 922.4341419260671, 0.0, 0.0, 0.0, 0.0, -32283.563290067115, 0.0]
['beep', 0.0, 997.6254102737201, 0.0, 0.0, 0.0, 0.0, -32249.00749313921, 0.0]
['beep', 0.0, 1031.8682827792506, 0.0, 0.0, 0.0, 0.0, -32335.195819758872, 0.0]
['beep', 0.0, 995.2337736170023, 0.0, 0.0, 0.0, 0.0, -32437.455050641904, 0.0]
['beep', 0.0, 956.051165586849, 0.0, 0.0, 0.0, 0.0, -32429.98956799383, 0.0]
['beep', 0.0, 986.0695583903264, 0.0, 0.0, 0.0, 0.0, -32337.788622115688, 0.0]
['beep', 0.0, 1062.1996000051022, 0.0, 0.0, 0.0, 0.0, -32302.96460425432, 0.0]
['beep', 0.0, 1097.6047632223085, 0.0, 0.0, 0.0, 0.0, -32388.571785518146, 0.0]
['beep', 0.0, 1062.1772482606468, 0.0, 0.0, 0.0, 0.0, -32490.853368145632, 0.0]
['beep', 0.0, 1023.1287506972255, 0.0, 0.0, 0.0, 0.0, -32483.231423286372, 0.0]
['beep', 0.0, 1052.633053378231, 0.0, 0.0, 0.0, 0.0, -32390.40462856348, 0.0]
['beep', 0.0, 1128.4501705706323, 0.0, 0.0, 0.0, 0.0, -32354.30656126816, 0.0]
['beep', 0.0, 1164.2800169324896, 0.0, 0.0, 0.0, 0.0, -32439.22083845387, 0.0]
['beep', 0.0, 1128.5842810373642, 0.0, 0.0, 0.0, 0.0, -32541.256551892347, 0.0]
['beep', 0.0, 1089.2228590515685, 0.0, 0.0, 0.0, 0.0, -32534.260455877837, 0.0]
['beep', 0.0, 1118.6377547547527, 0.0, 0.0, 0.0, 0.0, -32441.813640810688, 0.0]
['beep', 0.0, 1194.231354502601, 0.0, 0.0, 0.0, 0.0, -32405.492056070812, 0.0]
['beep', 0.0, 1230.1953113311902, 0.0, 0.0, 0.0, 0.0, -32490.361629767616, 0.0]
['beep', 0.0, 1194.2090027581457, 0.0, 0.0, 0.0, 0.0, -32592.68791588401, 0.0]
['beep', 0.0, 1153.75234529404, 0.0, 0.0, 0.0, 0.0, -32585.803578591775, 0.0]
['beep', 0.0, 1183.2566479750453, 0.0, 0.0, 0.0, 0.0, -32493.33441178017, 0.0]
['beep', 0.0, 1259.6102070343743, 0.0, 0.0, 0.0, 0.0, -32456.789309595744, 0.0]
['beep', 0.0, 1295.5294603740526, 0.0, 0.0, 0.0, 0.0, -32541.748290270367, 0.0]
['beep', 0.0, 1260.5713320459524, 0.0, 0.0, 0.0, 0.0, -32644.901590931608, 0.0]
['beep', 0.0, 1221.4110757602543, 0.0, 0.0, 0.0, 0.0, -32639.336006562236, 0.0]
['beep', 0.0, 1250.937730185715, 0.0, 0.0, 0.0, 0.0, -32547.7832612733, 0.0]
['beep', 0.0, 1327.3806962228653, 0.0, 0.0, 0.0, 0.0, -32511.52873176679, 0.0]
['beep', 0.0, 1363.5905222404626, 0.0, 0.0, 0.0, 0.0, -32595.34777347419, 0.0]
['beep', 0.0, 1327.6936206452394, 0.0, 0.0, 0.0, 0.0, -32697.785818312863, 0.0]
['beep', 0.0, 1287.616942836874, 0.0, 0.0, 0.0, 0.0, -32691.862606032206, 0.0]
['beep', 0.0, 1317.0094867956027, 0.0, 0.0, 0.0, 0.0, -32601.02511656584, 0.0]
['beep', 0.0, 1393.60891504394, 0.0, 0.0, 0.0, 0.0, -32565.128214970617, 0.0]
['beep', 0.0, 1430.4445899062862, 0.0, 0.0, 0.0, 0.0, -32648.23200085545, 0.0]
['beep', 0.0, 1394.8606127334372, 0.0, 0.0, 0.0, 0.0, -32750.75945267194, 0.0]
['beep', 0.0, 1354.4710105026975, 0.0, 0.0, 0.0, 0.0, -32745.43973749158, 0.0]
['beep', 0.0, 1383.9753131837026, 0.0, 0.0, 0.0, 0.0, -32654.334027091747, 0.0]
['beep', 0.0, 1461.2005902767887, 0.0, 0.0, 0.0, 0.0, -32617.721869673955, 0.0]
['beep', 0.0, 1498.3491895615089, 0.0, 0.0, 0.0, 0.0, -32701.18328347007, 0.0]
['beep', 0.0, 1462.8769711109367, 0.0, 0.0, 0.0, 0.0, -32803.95660447557, 0.0]
['beep', 0.0, 1422.0850374800013, 0.0, 0.0, 0.0, 0.0, -32799.26273813996, 0.0]
['beep', 0.0, 1450.9858430607133, 0.0, 0.0, 0.0, 0.0, -32708.335841695767, 0.0]
['beep', 0.0, 1527.7417335202376, 0.0, 0.0, 0.0, 0.0, -32670.919021477584, 0.0]
['beep', 0.0, 1564.5774083825838, 0.0, 0.0, 0.0, 0.0, -32753.15108932866, 0.0]
['beep', 0.0, 1528.8146172540926, 0.0, 0.0, 0.0, 0.0, -32855.991465567524, 0.0]
['beep', 0.0, 1488.2909045566207, 0.0, 0.0, 0.0, 0.0, -32851.40935795419, 0.0]
['beep', 0.0, 1517.5940415375283, 0.0, 0.0, 0.0, 0.0, -32760.01307487644, 0.0]
['beep', 0.0, 1594.2605250192316, 0.0, 0.0, 0.0, 0.0, -32722.640958147167, 0.0]
['beep', 0.0, 1630.8950341814798, 0.0, 0.0, 0.0, 0.0, -32804.31423238686, 0.0]
['beep', 0.0, 1595.534574453184, 0.0, 0.0, 0.0, 0.0, -32906.84168420335, 0.0]
['beep', 0.0, 1555.1673239668994, 0.0, 0.0, 0.0, 0.0, -32903.37716381278, 0.0]
['beep', 0.0, 1584.5151644367177, 0.0, 0.0, 0.0, 0.0, -32813.500799357986, 0.0]
['beep', 0.0, 1661.3157583851528, 0.0, 0.0, 0.0, 0.0, -32776.173386117625, 0.0]
['beep', 0.0, 1698.24084022532, 0.0, 0.0, 0.0, 0.0, -32858.49486094652, 0.0]
['beep', 0.0, 1662.3439386300968, 0.0, 0.0, 0.0, 0.0, -32961.13407148529, 0.0]
['beep', 0.0, 1621.2614323212424, 0.0, 0.0, 0.0, 0.0, -32958.362455172835, 0.0]
['beep', 0.0, 1649.5810925461165, 0.0, 0.0, 0.0, 0.0, -32868.15081455121, 0.0]
['beep', 0.0, 1726.6499074280152, 0.0, 0.0, 0.0, 0.0, -32830.44342165511, 0.0]
['beep', 0.0, 1763.530285779272, 0.0, 0.0, 0.0, 0.0, -32911.84847496134, 0.0]
['beep', 0.0, 1727.499273717317, 0.0, 0.0, 0.0, 0.0, -33014.845313411395, 0.0]
['beep', 0.0, 1686.5732296196497, 0.0, 0.0, 0.0, 0.0, -33012.900711643786, 0.0]
['beep', 0.0, 1715.5634421781829, 0.0, 0.0, 0.0, 0.0, -32923.29256812246, 0.0]
['beep', 0.0, 1793.0792919491878, 0.0, 0.0, 0.0, 0.0, -32884.93697463715, 0.0]
['beep', 0.0, 1831.07725752321, 0.0, 0.0, 0.0, 0.0, -32966.543193643476, 0.0]
['beep', 0.0, 1795.3591698836292, 0.0, 0.0, 0.0, 0.0, -33069.49532860462, 0.0]
['beep', 0.0, 1754.0084426413111, 0.0, 0.0, 0.0, 0.0, -33067.08134020345, 0.0]
['beep', 0.0, 1782.529268566283, 0.0, 0.0, 0.0, 0.0, -32977.517900171035, 0.0]
['beep', 0.0, 1860.0898218261984, 0.0, 0.0, 0.0, 0.0, -32939.63169331929, 0.0]
['beep', 0.0, 1898.2442496114077, 0.0, 0.0, 0.0, 0.0, -33020.16502859176, 0.0]
['beep', 0.0, 1863.4202317500392, 0.0, 0.0, 0.0, 0.0, -33122.60307343043, 0.0]
['beep', 0.0, 1822.4047806745507, 0.0, 0.0, 0.0, 0.0, -33120.569064685, 0.0]
['beep', 0.0, 1850.74679264388, 0.0, 0.0, 0.0, 0.0, -33031.67617698624, 0.0]
['beep', 0.0, 1928.1508836926084, 0.0, 0.0, 0.0, 0.0, -32992.49356895609, 0.0]
['beep', 0.0, 1966.4170702000943, 0.0, 0.0, 0.0, 0.0, -33071.55168909451, 0.0]
['beep', 0.0, 1931.548348849815, 0.0, 0.0, 0.0, 0.0, -33174.21325137773, 0.0]
['beep', 0.0, 1890.4211390520502, 0.0, 0.0, 0.0, 0.0, -33173.386236832885, 0.0]
['beep', 0.0, 1918.584337065737, 0.0, 0.0, 0.0, 0.0, -33084.5604043675, 0.0]
['beep', 0.0, 1996.3684077702055, 0.0, 0.0, 0.0, 0.0, -33045.51190680407, 0.0]
['beep', 0.0, 2034.768704744423, 0.0, 0.0, 0.0, 0.0, -33125.59820718744, 0.0]
['beep', 0.0, 1999.9893903719653, 0.0, 0.0, 0.0, 0.0, -33228.95267354878, 0.0]
['beep', 0.0, 1958.5939596407368, 0.0, 0.0, 0.0, 0.0, -33228.63974912641, 0.0]
['beep', 0.0, 1986.6230471876918, 0.0, 0.0, 0.0, 0.0, -33140.30565503903, 0.0]
['beep', 0.0, 2064.250655680973, 0.0, 0.0, 0.0, 0.0, -33101.27950922007, 0.0]
['beep', 0.0, 2102.98622882202, 0.0, 0.0, 0.0, 0.0, -33179.93529795829, 0.0]
['beep', 0.0, 2068.229266194018, 0.0, 0.0, 0.0, 0.0, -33282.529805008155, 0.0]
['beep', 0.0, 2026.5879662737807, 0.0, 0.0, 0.0, 0.0, -33282.28393581914, 0.0]
['beep', 0.0, 2055.6005305767694, 0.0, 0.0, 0.0, 0.0, -33193.83808300949, 0.0]
['beep', 0.0, 2133.7869326814334, 0.0, 0.0, 0.0, 0.0, -33153.49318426767, 0.0]
['beep', 0.0, 2172.5448575669357, 0.0, 0.0, 0.0, 0.0, -33231.65723462787, 0.0]
['beep', 0.0, 2137.18439783864, 0.0, 0.0, 0.0, 0.0, -33334.29644516664, 0.0]
