['beep', 0.0, 0.0, 0.0, 0.0, 0.0, 0.0, 0.0, 0.0]
['beep', 0.0, -18386.92496859133, 0.0, 0.0, 0.0, 0.0, -47805.329895654904, 0.0]
['beep', 0.0, -18613.951637023885, 0.0, 0.0, 0.0, 0.0, -47514.2654793579, 0.0]
['beep', 0.0, -19987.84631345824, 0.0, 0.0, 0.0, 0.0, -46466.6168649932, 0.0]
['beep', 0.0, -20563.73900934923, 0.0, 0.0, 0.0, 0.0, -46098.48363381429, 0.0]
['beep', 0.0, -19500.91356049938, 0.0, 0.0, 0.0, 0.0, -46906.90152727384, 0.0]
['beep', 0.0, -18215.04005373002, 0.0, 0.0, 0.0, 0.0, -47767.39898531425, 0.0]
['beep', 0.0, -18432.053140646596, 0.0, 0.0, 0.0, 0.0, -47482.52600223136, 0.0]
['beep', 0.0, -19803.91380833552, 0.0, 0.0, 0.0, 0.0, -46434.94444310003, 0.0]
['beep', 0.0, -20387.562559552498, 0.0, 0.0, 0.0, 0.0, -46060.08333684008, 0.0]
['beep', 0.0, -19330.92854391677, 0.0, 0.0, 0.0, 0.0, -46865.0143581646, 0.0]
['beep', 0.0, -18040.38352255625, 0.0, 0.0, 0.0, 0.0, -47730.22803428508, 0.0]
['beep', 0.0, -18247.27126923457, 0.0, 0.0, 0.0, 0.0, -47453.11110652818, 0.0]
['beep', 0.0, -19617.790832256178, 0.0, 0.0, 0.0, 0.0, -46406.37891368615, 0.0]
['beep', 0.0, -20210.71555742211, 0.0, 0.0, 0.0, 0.0, -46024.94639455633, 0.0]
['beep', 0.0, -19160.965879078612, 0.0, 0.0, 0.0, 0.0, -46824.66945942277, 0.0]
['beep', 0.0, -17866.978689071977, 0.0, 0.0, 0.0, 0.0, -47692.945324533626, 0.0]
['beep', 0.0, -18065.305717623916, 0.0, 0.0, 0.0, 0.0, -47422.53392011332, 0.0]
['beep', 0.0, -19435.9370393678, 0.0, 0.0, 0.0, 0.0, -46375.93583773802, 0.0]
['beep', 0.0, -20038.227145460503, 0.0, 0.0, 0.0, 0.0, -45987.417815615874, 0.0]
['beep', 0.0, -18996.09941197627, 0.0, 0.0, 0.0, 0.0, -46782.916400780254, 0.0]
['beep', 0.0, -17697.194838189465, 0.0, 0.0, 0.0, 0.0, -47656.579036304836, 0.0]
['beep', 0.0, -17885.195360803053, 0.0, 0.0, 0.0, 0.0, -47393.3872453436, 0.0]
['beep', 0.0, -19253.09976972339, 0.0, 0.0, 0.0, 0.0, -46346.45388680147, 0.0]
['beep', 0.0, -19862.900061953078, 0.0, 0.0, 0.0, 0.0, -45952.43733554332, 0.0]
['beep', 0.0, -18828.72954949493, 0.0, 0.0, 0.0, 0.0, -46744.337289850395, 0.0]
['beep', 0.0, -17528.617981507537, 0.0, 0.0, 0.0, 0.0, -47621.86677716575, 0.0]
['beep', 0.0, -17710.762347073836, 0.0, 0.0, 0.0, 0.0, -47365.671082219014, 0.0]
['beep', 0.0, -19081.77364847346, 0.0, 0.0, 0.0, 0.0, -46319.34122077718, 0.0]
['beep', 0.0, -19701.431060007937, 0.0, 0.0, 0.0, 0.0, -45919.2896985161, 0.0]
['beep', 0.0, -18671.97676562986, 0.0, 0.0, 0.0, 0.0, -46706.8757661433, 0.0]
['beep', 0.0, -17365.427895239343, 0.0, 0.0, 0.0, 0.0, -47587.84742210477, 0.0]
['beep', 0.0, -17536.441092066896, 0.0, 0.0, 0.0, 0.0, -47338.31254700572, 0.0]
['beep', 0.0, -18903.02674806437, 0.0, 0.0, 0.0, 0.0, -46292.63088615309, 0.0]
['beep', 0.0, -19528.62972362396, 0.0, 0.0, 0.0, 0.0, -45887.03613126709, 0.0]
['beep', 0.0, -18504.338682215057, 0.0, 0.0, 0.0, 0.0, -46671.627065137276, 0.0]
['beep', 0.0, -17192.44774489972, 0.0, 0.0, 0.0, 0.0, -47556.55497986734, 0.0]
['beep', 0.0, -17353.29089800011, 0.0, 0.0, 0.0, 0.0, -47313.3680001936, 0.0]
['beep', 0.0, -18717.32845512968, 0.0, 0.0, 0.0, 0.0, -46268.35689167463, 0.0]
['beep', 0.0, -19350.799244737536, 0.0, 0.0, 0.0, 0.0, -45855.76604077411, 0.0]
['beep', 0.0, -18333.906630743342, 0.0, 0.0, 0.0, 0.0, -46634.83609376384, 0.0]
['beep', 0.0, -17017.835917214863, 0.0, 0.0, 0.0, 0.0, -47523.36263935121, 0.0]
['beep', 0.0, -17169.15722717729, 0.0, 0.0, 0.0, 0.0, -47287.372921392074, 0.0]
['beep', 0.0, -18533.306543029135, 0.0, 0.0, 0.0, 0.0, -46243.12177218459, 0.0]
['beep', 0.0, -19177.707335675637, 0.0, 0.0, 0.0, 0.0, -45823.84774969194, 0.0]
['beep', 0.0, -18168.8389979409, 0.0, 0.0, 0.0, 0.0, -46598.26863983496, 0.0]
['beep', 0.0, -16849.43787448858, 0.0, 0.0, 0.0, 0.0, -47490.68438895755, 0.0]
['beep', 0.0, -16991.50556224651, 0.0, 0.0, 0.0, 0.0, -47261.44489782392, 0.0]
['beep', 0.0, -18351.609212351945, 0.0, 0.0, 0.0, 0.0, -46217.86430095009, 0.0]
['beep', 0.0, -19002.268493445932, 0.0, 0.0, 0.0, 0.0, -45792.89058362134, 0.0]
['beep', 0.0, -17999.479830203036, 0.0, 0.0, 0.0, 0.0, -46563.08699406231, 0.0]
['beep', 0.0, -16675.094267737182, 0.0, 0.0, 0.0, 0.0, -47459.03431880884, 0.0]
['beep', 0.0, -16807.595408868245, 0.0, 0.0, 0.0, 0.0, -47236.701516711895, 0.0]
['beep', 0.0, -18167.520245018037, 0.0, 0.0, 0.0, 0.0, -46193.83617566063, 0.0]
['beep', 0.0, -18827.656665761075, 0.0, 0.0, 0.0, 0.0, -45762.939246051224, 0.0]
['beep', 0.0, -17833.987514255943, 0.0, 0.0, 0.0, 0.0, -46528.866473301234, 0.0]
['beep', 0.0, -16509.26667562326, 0.0, 0.0, 0.0, 0.0, -47428.63594634962, 0.0]
['beep', 0.0, -16634.905831206543, 0.0, 0.0, 0.0, 0.0, -47213.992144345306, 0.0]
['beep', 0.0, -17994.987129567522, 0.0, 0.0, 0.0, 0.0, -46172.37850098354, 0.0]
['beep', 0.0, -18663.907785881496, 0.0, 0.0, 0.0, 0.0, -45735.603062582384, 0.0]
['beep', 0.0, -17675.781867001282, 0.0, 0.0, 0.0, 0.0, -46497.08229268579, 0.0]
['beep', 0.0, -16344.847243410022, 0.0, 0.0, 0.0, 0.0, -47401.14330066959, 0.0]
['beep', 0.0, -16459.936375610396, 0.0, 0.0, 0.0, 0.0, -47193.94262956889, 0.0]
['beep', 0.0, -17816.262580902887, 0.0, 0.0, 0.0, 0.0, -46152.75366935178, 0.0]
['beep', 0.0, -18492.13462974246, 0.0, 0.0, 0.0, 0.0, -45709.742094247595, 0.0]
['beep', 0.0, -17509.84251616508, 0.0, 0.0, 0.0, 0.0, -46466.370995804195, 0.0]
['beep', 0.0, -16174.258729727118, 0.0, 0.0, 0.0, 0.0, -47372.57777125571, 0.0]
['beep', 0.0, -16278.529617611126, 0.0, 0.0, 0.0, 0.0, -47171.747347324774, 0.0]
['beep', 0.0, -17631.950096124423, 0.0, 0.0, 0.0, 0.0, -46132.45828538636, 0.0]
['beep', 0.0, -18317.00871193513, 0.0, 0.0, 0.0, 0.0, -45683.14351834578, 0.0]
['beep', 0.0, -17345.445435696296, 0.0, 0.0, 0.0, 0.0, -46435.27971926686, 0.0]
['beep', 0.0, -16010.196925425163, 0.0, 0.0, 0.0, 0.0, -47345.7780296538, 0.0]
['beep', 0.0, -16109.058691150987, 0.0, 0.0, 0.0, 0.0, -47152.14486743747, 0.0]
['beep', 0.0, -17463.50734990923, 0.0, 0.0, 0.0, 0.0, -46113.12402643252, 0.0]
['beep', 0.0, -18157.55136699097, 0.0, 0.0, 0.0, 0.0, -45656.9249220997, 0.0]
['beep', 0.0, -17190.994881510127, 0.0, 0.0, 0.0, 0.0, -46403.51789039587, 0.0]
['beep', 0.0, -15848.66086824666, 0.0, 0.0, 0.0, 0.0, -47316.810168839715, 0.0]
['beep', 0.0, -15935.095064055333, 0.0, 0.0, 0.0, 0.0, -47130.19545438236, 0.0]
['beep', 0.0, -17284.89455996687, 0.0, 0.0, 0.0, 0.0, -46092.78393897819, 0.0]
['beep', 0.0, -17984.83943758481, 0.0, 0.0, 0.0, 0.0, -45631.75685784303, 0.0]
['beep', 0.0, -17024.541440551453, 0.0, 0.0, 0.0, 0.0, -46375.37704412664, 0.0]
['beep', 0.0, -15677.491209207918, 0.0, 0.0, 0.0, 0.0, -47292.84909878363, 0.0]
['beep', 0.0, -15753.263622911409, 0.0, 0.0, 0.0, 0.0, -47113.14107336296, 0.0]
['beep', 0.0, -17100.470316466133, 0.0, 0.0, 0.0, 0.0, -46077.20477309284, 0.0]
['beep', 0.0, -17808.86415348818, 0.0, 0.0, 0.0, 0.0, -45610.20977618811, 0.0]
['beep', 0.0, -16857.730371681497, 0.0, 0.0, 0.0, 0.0, -46349.069040902745, 0.0]
['beep', 0.0, -15509.853125793115, 0.0, 0.0, 0.0, 0.0, -47269.893857228024, 0.0]
['beep', 0.0, -15577.914187659526, 0.0, 0.0, 0.0, 0.0, -47096.80194816613, 0.0]
['beep', 0.0, -16923.265686424456, 0.0, 0.0, 0.0, 0.0, -46061.89382814096, 0.0]
['beep', 0.0, -17639.326171794673, 0.0, 0.0, 0.0, 0.0, -45588.68504627765, 0.0]
['beep', 0.0, -16693.64621563509, 0.0, 0.0, 0.0, 0.0, -46322.291651045285, 0.0]
['beep', 0.0, -15339.689295254862, 0.0, 0.0, 0.0, 0.0, -47246.02219414976, 0.0]
['beep', 0.0, -15396.61918838253, 0.0, 0.0, 0.0, 0.0, -47079.32288400208, 0.0]
['beep', 0.0, -16739.154367346095, 0.0, 0.0, 0.0, 0.0, -46045.06296456611, 0.0]
['beep', 0.0, -17462.613280131016, 0.0, 0.0, 0.0, 0.0, -45566.02037739997, 0.0]
['beep', 0.0, -16522.834184507632, 0.0, 0.0, 0.0, 0.0, -46295.76013037683, 0.0]
['beep', 0.0, -15164.071639069516, 0.0, 0.0, 0.0, 0.0, -47223.67044969445, 0.0]
['beep', 0.0, -15211.569096037043, 0.0, 0.0, 0.0, 0.0, -47064.92836057286, 0.0]
['beep', 0.0, -16550.527995887758, 0.0, 0.0, 0.0, 0.0, -46032.32247022659, 0.0]
['beep', 0.0, -17281.452391320752, 0.0, 0.0, 0.0, 0.0, -45547.44607775761, 0.0]
['beep', 0.0, -16350.301069057115, 0.0, 0.0, 0.0, 0.0, -46272.24609520985, 0.0]
['beep', 0.0, -14990.01860499604, 0.0, 0.0, 0.0, 0.0, -47203.10684479557, 0.0]
['beep', 0.0, -15029.245916515103, 0.0, 0.0, 0.0, 0.0, -47050.91381679938, 0.0]
['beep', 0.0, -16367.154284376418, 0.0, 0.0, 0.0, 0.0, -46020.140769498445, 0.0]
['beep', 0.0, -17105.991197346593, 0.0, 0.0, 0.0, 0.0, -45529.654089171185, 0.0]
['beep', 0.0, -16180.58427340797, 0.0, 0.0, 0.0, 0.0, -46249.648481565535, 0.0]
['beep', 0.0, -14816.054977900385, 0.0, 0.0, 0.0, 0.0, -47183.4373096749, 0.0]
['beep', 0.0, -14845.13459743674, 0.0, 0.0, 0.0, 0.0, -47038.32978467105, 0.0]
['beep', 0.0, -16179.846665840945, 0.0, 0.0, 0.0, 0.0, -46008.09317923703, 0.0]
['beep', 0.0, -16925.187936447615, 0.0, 0.0, 0.0, 0.0, -45511.21389999556, 0.0]
['beep', 0.0, -16007.246495157064, 0.0, 0.0, 0.0, 0.0, -46226.089742909644, 0.0]
['beep', 0.0, -14638.85034785871, 0.0, 0.0, 0.0, 0.0, -47162.78429779819, 0.0]
['beep', 0.0, -14657.692868434533, 0.0, 0.0, 0.0, 0.0, -47024.315240897566, 0.0]
['beep', 0.0, -15990.035651926477, 0.0, 0.0, 0.0, 0.0, -45995.37503664196, 0.0]
['beep', 0.0, -16744.384675548634, 0.0, 0.0, 0.0, 0.0, -45492.81841430884, 0.0]
['beep', 0.0, -15833.819309928336, 0.0, 0.0, 0.0, 0.0, -46202.28513506474, 0.0]
['beep', 0.0, -14462.495084106336, 0.0, 0.0, 0.0, 0.0, -47141.86306498803, 0.0]
['beep', 0.0, -14472.687479577957, 0.0, 0.0, 0.0, 0.0, -47011.105359924484, 0.0]
['beep', 0.0, -15803.666806658126, 0.0, 0.0, 0.0, 0.0, -45984.02035045867, 0.0]
['beep', 0.0, -16566.37538270657, 0.0, 0.0, 0.0, 0.0, -45476.05460596736, 0.0]
['beep', 0.0, -15664.773066612848, 0.0, 0.0, 0.0, 0.0, -46181.498012721306, 0.0]
['beep', 0.0, -14292.867695435012, 0.0, 0.0, 0.0, 0.0, -47124.65222175744, 0.0]
['beep', 0.0, -14296.689843736869, 0.0, 0.0, 0.0, 0.0, -47000.264763863655, 0.0]
['beep', 0.0, -15626.596287083185, 0.0, 0.0, 0.0, 0.0, -45975.23611488773, 0.0]
['beep', 0.0, -16396.52447659069, 0.0, 0.0, 0.0, 0.0, -45462.37533836071, 0.0]
['beep', 0.0, -15500.420689632976, 0.0, 0.0, 0.0, 0.0, -46162.9460648234, 0.0]
['beep', 0.0, -14122.770920130126, 0.0, 0.0, 0.0, 0.0, -47108.2683930717, 0.0]
['beep', 0.0, -14114.277257237109, 0.0, 0.0, 0.0, 0.0, -46991.27936259263, 0.0]
['beep', 0.0, -15439.266316803256, 0.0, 0.0, 0.0, 0.0, -45967.05537641709, 0.0]
['beep', 0.0, -16216.950561636755, 0.0, 0.0, 0.0, 0.0, -45447.62318702021, 0.0]
['beep', 0.0, -15329.139271871958, 0.0, 0.0, 0.0, 0.0, -46142.85184655808, 0.0]
['beep', 0.0, -13947.980278489624, 0.0, 0.0, 0.0, 0.0, -47092.51041323071, 0.0]
['beep', 0.0, -13929.674199780728, 0.0, 0.0, 0.0, 0.0, -46982.808051444066, 0.0]
['beep', 0.0, -15251.511663378677, 0.0, 0.0, 0.0, 0.0, -45959.92516993584, 0.0]
['beep', 0.0, -16036.504928649061, 0.0, 0.0, 0.0, 0.0, -45433.876864180194, 0.0]
['beep', 0.0, -15156.740266888175, 0.0, 0.0, 0.0, 0.0, -46124.52341610473, 0.0]
['beep', 0.0, -13774.396631049709, 0.0, 0.0, 0.0, 0.0, -47077.02065432318, 0.0]
['beep', 0.0, -13747.552185958886, 0.0, 0.0, 0.0, 0.0, -46974.58260948451, 0.0]
['beep', 0.0, -15067.847379189418, 0.0, 0.0, 0.0, 0.0, -45954.0466611441, 0.0]
['beep', 0.0, -15862.697763764592, 0.0, 0.0, 0.0, 0.0, -45422.65628846363, 0.0]
['beep', 0.0, -14992.29848293048, 0.0, 0.0, 0.0, 0.0, -46107.536090318696, 0.0]
['beep', 0.0, -13606.758547634907, 0.0, 0.0, 0.0, 0.0, -47062.46966868278, 0.0]
['beep', 0.0, -13570.705183828495, 0.0, 0.0, 0.0, 0.0, -46966.75949892515, 0.0]
['beep', 0.0, -14887.915836324197, 0.0, 0.0, 0.0, 0.0, -45947.34113780751, 0.0]
['beep', 0.0, -15688.980005857946, 0.0, 0.0, 0.0, 0.0, -45409.28994527936, 0.0]
['beep', 0.0, -14823.632219270734, 0.0, 0.0, 0.0, 0.0, -46088.98414242079, 0.0]
['beep', 0.0, -13433.487824617367, 0.0, 0.0, 0.0, 0.0, -47046.97990977525, 0.0]
['beep', 0.0, -13386.392699050033, 0.0, 0.0, 0.0, 0.0, -46959.24931278817, 0.0]
['beep', 0.0, -14698.931836954574, 0.0, 0.0, 0.0, 0.0, -45943.094306361, 0.0]
['beep', 0.0, -15507.461489136398, 0.0, 0.0, 0.0, 0.0, -45399.79045388585, 0.0]
['beep', 0.0, -14652.239042787438, 0.0, 0.0, 0.0, 0.0, -46074.12023235801, 0.0]
['beep', 0.0, -13263.234587101291, 0.0, 0.0, 0.0, 0.0, -47034.820560791566, 0.0]
['beep', 0.0, -13209.18806900836, 0.0, 0.0, 0.0, 0.0, -46954.04135633008, 0.0]
['beep', 0.0, -14520.944895856965, 0.0, 0.0, 0.0, 0.0, -45937.66283245836, 0.0]
['beep', 0.0, -15339.04109466566, 0.0, 0.0, 0.0, 0.0, -45387.876974091174, 0.0]
['beep', 0.0, -14491.574703642691, 0.0, 0.0, 0.0, 0.0, -46058.094031583554, 0.0]
['beep', 0.0, -13097.183477542816, 0.0, 0.0, 0.0, 0.0, -47022.080066452036, 0.0]
['beep', 0.0, -13031.938735477774, 0.0, 0.0, 0.0, 0.0, -46947.76051613814, 0.0]
['beep', 0.0, -14338.889937268488, 0.0, 0.0, 0.0, 0.0, -45934.37712602343, 0.0]
['beep', 0.0, -15161.277671012602, 0.0, 0.0, 0.0, 0.0, -45380.389139698644, 0.0]
['beep', 0.0, -14318.840422492078, 0.0, 0.0, 0.0, 0.0, -46045.06296456611, 0.0]
['beep', 0.0, -12921.007027746085, 0.0, 0.0, 0.0, 0.0, -47011.239470391214, 0.0]
['beep', 0.0, -12846.128683820807, 0.0, 0.0, 0.0, 0.0, -46943.580739925, 0.0]
['beep', 0.0, -14149.078923354022, 0.0, 0.0, 0.0, 0.0, -45931.985489366714, 0.0]
['beep', 0.0, -14979.557988590956, 0.0, 0.0, 0.0, 0.0, -45371.73901459444, 0.0]
['beep', 0.0, -14146.955507630768, 0.0, 0.0, 0.0, 0.0, -46031.00371730372, 0.0]
['beep', 0.0, -12748.8091884624, 0.0, 0.0, 0.0, 0.0, -47000.22006037475, 0.0]
['beep', 0.0, -12666.21949270004, 0.0, 0.0, 0.0, 0.0, -46940.60795791244, 0.0]
['beep', 0.0, -13967.493351399107, 0.0, 0.0, 0.0, 0.0, -45931.13612307741, 0.0]
['beep', 0.0, -14804.968512650552, 0.0, 0.0, 0.0, 0.0, -45365.32406393577, 0.0]
['beep', 0.0, -13978.803334093493, 0.0, 0.0, 0.0, 0.0, -46019.17964448687, 0.0]
['beep', 0.0, -12575.58316893377, 0.0, 0.0, 0.0, 0.0, -46990.36294106996, 0.0]
['beep', 0.0, -12481.437621288016, 0.0, 0.0, 0.0, 0.0, -46936.80816135504, 0.0]
['beep', 0.0, -13778.01761365147, 0.0, 0.0, 0.0, 0.0, -45928.47626548723, 0.0]
['beep', 0.0, -14621.997132539409, 0.0, 0.0, 0.0, 0.0, -45356.74099406493, 0.0]
['beep', 0.0, -13802.381015107754, 0.0, 0.0, 0.0, 0.0, -46006.17092921388, 0.0]
['beep', 0.0, -12395.629274324094, 0.0, 0.0, 0.0, 0.0, -46980.550525254075, 0.0]
['beep', 0.0, -12292.811249829681, 0.0, 0.0, 0.0, 0.0, -46933.34364096447, 0.0]
['beep', 0.0, -13585.949073547015, 0.0, 0.0, 0.0, 0.0, -45927.24691954219, 0.0]
['beep', 0.0, -14436.52235704927, 0.0, 0.0, 0.0, 0.0, -45350.72837480645, 0.0]
['beep', 0.0, -13625.2657920439, 0.0, 0.0, 0.0, 0.0, -45994.81624303058, 0.0]
['beep', 0.0, -12217.172946592922, 0.0, 0.0, 0.0, 0.0, -46971.69923444978, 0.0]
['beep', 0.0, -12104.386044071442, 0.0, 0.0, 0.0, 0.0, -46932.114295019426, 0.0]
['beep', 0.0, -13394.752251476319, 0.0, 0.0, 0.0, 0.0, -45928.23039629822, 0.0]
['beep', 0.0, -14252.679258904369, 0.0, 0.0, 0.0, 0.0, -45346.68270906004, 0.0]
['beep', 0.0, -13448.75406608034, 0.0, 0.0, 0.0, 0.0, -45985.96495222628, 0.0]
['beep', 0.0, -12037.911956061358, 0.0, 0.0, 0.0, 0.0, -46965.2842837911, 0.0]
['beep', 0.0, -11916.452576691221, 0.0, 0.0, 0.0, 0.0, -46932.33781246398, 0.0]
['beep', 0.0, -13202.884877071963, 0.0, 0.0, 0.0, 0.0, -45929.66090794336, 0.0]
['beep', 0.0, -14067.606814814428, 0.0, 0.0, 0.0, 0.0, -45342.54763633581, 0.0]
['beep', 0.0, -13270.588311027088, 0.0, 0.0, 0.0, 0.0, -45977.426585844354, 0.0]
['beep', 0.0, -11857.086343417925, 0.0, 0.0, 0.0, 0.0, -46959.87516163292, 0.0]
['beep', 0.0, -11726.08276916537, 0.0, 0.0, 0.0, 0.0, -46933.96948980922, 0.0]
['beep', 0.0, -13008.536459033068, 0.0, 0.0, 0.0, 0.0, -45933.52775973413, 0.0]
['beep', 0.0, -13879.829809645393, 0.0, 0.0, 0.0, 0.0, -45341.318290390765, 0.0]
['beep', 0.0, -13090.96969258424, 0.0, 0.0, 0.0, 0.0, -45970.51989680766, 0.0]
['beep', 0.0, -11674.003204584504, 0.0, 0.0, 0.0, 0.0, -46956.34358600898, 0.0]
['beep', 0.0, -11532.650772649142, 0.0, 0.0, 0.0, 0.0, -46938.97628056721, 0.0]
['beep', 0.0, -12811.86345957082, 0.0, 0.0, 0.0, 0.0, -45941.95436739378, 0.0]
['beep', 0.0, -13690.622292831218, 0.0, 0.0, 0.0, 0.0, -45344.58164508124, 0.0]
['beep', 0.0, -12910.07702470744, 0.0, 0.0, 0.0, 0.0, -45967.703577006294, 0.0]
['beep', 0.0, -11491.300045406824, 0.0, 0.0, 0.0, 0.0, -46954.130763307905, 0.0]
['beep', 0.0, -11340.515177311323, 0.0, 0.0, 0.0, 0.0, -46941.94906257976, 0.0]
['beep', 0.0, -12616.129233375697, 0.0, 0.0, 0.0, 0.0, -45945.95532965128, 0.0]
['beep', 0.0, -13501.839459161694, 0.0, 0.0, 0.0, 0.0, -45342.16765668007, 0.0]
['beep', 0.0, -12728.916135897176, 0.0, 0.0, 0.0, 0.0, -45959.81341121357, 0.0]
['beep', 0.0, -11307.90398215103, 0.0, 0.0, 0.0, 0.0, -46949.4816004612, 0.0]
['beep', 0.0, -11148.06665755113, 0.0, 0.0, 0.0, 0.0, -46945.72650739271, 0.0]
['beep', 0.0, -12420.50676590285, 0.0, 0.0, 0.0, 0.0, -45952.258521587675, 0.0]
['beep', 0.0, -13313.190735958904, 0.0, 0.0, 0.0, 0.0, -45343.486409602934, 0.0]
['beep', 0.0, -12548.448151165028, 0.0, 0.0, 0.0, 0.0, -45955.85715244498, 0.0]
['beep', 0.0, -11125.401988673448, 0.0, 0.0, 0.0, 0.0, -46947.73816439369, 0.0]
['beep', 0.0, -10957.182759902807, 0.0, 0.0, 0.0, 0.0, -46949.83922837248, 0.0]
['beep', 0.0, -12226.337161819598, 0.0, 0.0, 0.0, 0.0, -45958.36054782398, 0.0]
['beep', 0.0, -13126.039579634617, 0.0, 0.0, 0.0, 0.0, -45344.62634857016, 0.0]
['beep', 0.0, -12369.142457144555, 0.0, 0.0, 0.0, 0.0, -45951.990300654215, 0.0]
['beep', 0.0, -10944.59872777447, 0.0, 0.0, 0.0, 0.0, -46945.2794725036, 0.0]
['beep', 0.0, -10767.08117331042, 0.0, 0.0, 0.0, 0.0, -46954.30957726355, 0.0]
['beep', 0.0, -12031.876985058427, 0.0, 0.0, 0.0, 0.0, -45966.09425140551, 0.0]
['beep', 0.0, -12937.837891320933, 0.0, 0.0, 0.0, 0.0, -45347.86735151617, 0.0]
['beep', 0.0, -12188.406251478942, 0.0, 0.0, 0.0, 0.0, -45950.40332679789, 0.0]
['beep', 0.0, -10761.64969940778, 0.0, 0.0, 0.0, 0.0, -46946.799391126566, 0.0]
['beep', 0.0, -10574.856170994779, 0.0, 0.0, 0.0, 0.0, -46962.66912968983, 0.0]
['beep', 0.0, -11836.232165841124, 0.0, 0.0, 0.0, 0.0, -45975.9513707103, 0.0]
['beep', 0.0, -12749.211519862596, 0.0, 0.0, 0.0, 0.0, -45352.292996918324, 0.0]
['beep', 0.0, -12007.513583602142, 0.0, 0.0, 0.0, 0.0, -45948.95046340829, 0.0]
['beep', 0.0, -10578.611264063271, 0.0, 0.0, 0.0, 0.0, -46947.1793707823, 0.0]
['beep', 0.0, -10382.921741357059, 0.0, 0.0, 0.0, 0.0, -46969.82168791553, 0.0]
['beep', 0.0, -11640.386180923722, 0.0, 0.0, 0.0, 0.0, -45985.09323419252, 0.0]
['beep', 0.0, -12559.825189092779, 0.0, 0.0, 0.0, 0.0, -45355.91397952008, 0.0]
['beep', 0.0, -11825.458625013665, 0.0, 0.0, 0.0, 0.0, -45947.60935874097, 0.0]
['beep', 0.0, -10394.119965329166, 0.0, 0.0, 0.0, 0.0, -46947.80521962705, 0.0]
['beep', 0.0, -10188.819192507171, 0.0, 0.0, 0.0, 0.0, -46977.71185370825, 0.0]
['beep', 0.0, -11442.193262838515, 0.0, 0.0, 0.0, 0.0, -45996.13499595344, 0.0]
['beep', 0.0, -12368.293090855252, 0.0, 0.0, 0.0, 0.0, -45362.574799367765, 0.0]
['beep', 0.0, -11642.196672224603, 0.0, 0.0, 0.0, 0.0, -45948.72694596374, 0.0]
['beep', 0.0, -10209.941591017436, 0.0, 0.0, 0.0, 0.0, -46951.49325746218, 0.0]
['beep', 0.0, -9996.013044835692, 0.0, 0.0, 0.0, 0.0, -46989.223002102735, 0.0]
['beep', 0.0, -11245.877891287553, 0.0, 0.0, 0.0, 0.0, -46010.2612984492, 0.0]
['beep', 0.0, -12179.89023684147, 0.0, 0.0, 0.0, 0.0, -45370.889648305136, 0.0]
['beep', 0.0, -11463.472123559968, 0.0, 0.0, 0.0, 0.0, -45950.73860296472, 0.0]
['beep', 0.0, -10029.808882452116, 0.0, 0.0, 0.0, 0.0, -46954.60014994146, 0.0]
['beep', 0.0, -9804.905629742818, 0.0, 0.0, 0.0, 0.0, -46998.40956907387, 0.0]
['beep', 0.0, -11049.160188336396, 0.0, 0.0, 0.0, 0.0, -46021.99596428823, 0.0]
['beep', 0.0, -11988.782821748593, 0.0, 0.0, 0.0, 0.0, -45377.48341291946, 0.0]
['beep', 0.0, -11280.679557404466, 0.0, 0.0, 0.0, 0.0, -45951.967948909754, 0.0]
['beep', 0.0, -9844.937604062272, 0.0, 0.0, 0.0, 0.0, -46958.15407730986, 0.0]
['beep', 0.0, -9612.23359253807, 0.0, 0.0, 0.0, 0.0, -47008.49020582321, 0.0]
['beep', 0.0, -10852.867168529889, 0.0, 0.0, 0.0, 0.0, -46035.094086539044, 0.0]
['beep', 0.0, -11797.854220611362, 0.0, 0.0, 0.0, 0.0, -45386.37940721267, 0.0]
['beep', 0.0, -11096.724700537288, 0.0, 0.0, 0.0, 0.0, -45955.544228022605, 0.0]
['beep', 0.0, -9658.43464832719, 0.0, 0.0, 0.0, 0.0, -46963.429089001314, 0.0]
['beep', 0.0, -9415.381779120182, 0.0, 0.0, 0.0, 0.0, -47021.43186586283, 0.0]
['beep', 0.0, -10652.975517866078, 0.0, 0.0, 0.0, 0.0, -46049.91329311291, 0.0]
['beep', 0.0, -11605.383349106713, 0.0, 0.0, 0.0, 0.0, -45395.498918950434, 0.0]
['beep', 0.0, -10913.909782637333, 0.0, 0.0, 0.0, 0.0, -45959.14285887991, 0.0]
['beep', 0.0, -9477.564332194845, 0.0, 0.0, 0.0, 0.0, -46967.72062393673, 0.0]
['beep', 0.0, -2412.1779098722827, 0.0, 0.0, 0.0, 0.0, -46716.24114707007, 0.0]
['beep', 0.0, -2118.185415051629, 0.0, 0.0, 0.0, 0.0, -47002.656400520376, 0.0]
['beep', 0.0, -670.0829470256505, 0.0, 0.0, 0.0, 0.0, -48051.8919887414, 0.0]
['beep', 0.0, -11.377037927751294, 0.0, 0.0, 0.0, 0.0, -48427.7812752463, 0.0]
['beep', 0.0, -997.178375384614, 0.0, 0.0, 0.0, 0.0, -47622.313812054854, 0.0]
['beep', 0.0, -2204.954887027131, 0.0, 0.0, 0.0, 0.0, -46764.23034241561, 0.0]
['beep', 0.0, -1919.0984271882091, 0.0, 0.0, 0.0, 0.0, -47044.14123822942, 0.0]
['beep', 0.0, -471.97943591826396, 0.0, 0.0, 0.0, 0.0, -48093.779157850644, 0.0]
['beep', 0.0, 195.55541223948148, 0.0, 0.0, 0.0, 0.0, -48476.08339501422, 0.0]
['beep', 0.0, -783.6745123475209, 0.0, 0.0, 0.0, 0.0, -47674.885115013734, 0.0]
['beep', 0.0, -1997.0613118483202, 0.0, 0.0, 0.0, 0.0, -46812.57716567245, 0.0]
['beep', 0.0, -1723.1853870374428, 0.0, 0.0, 0.0, 0.0, -47085.38020674947, 0.0]
['beep', 0.0, -281.3190557144947, 0.0, 0.0, 0.0, 0.0, -48134.81696067059, 0.0]
['beep', 0.0, 390.39556865639315, 0.0, 0.0, 0.0, 0.0, -48523.02205837036, 0.0]
['beep', 0.0, -584.8110419286539, 0.0, 0.0, 0.0, 0.0, -47725.265947016, 0.0]
['beep', 0.0, -1802.9811147428888, 0.0, 0.0, 0.0, 0.0, -46859.62758775087, 0.0]
['beep', 0.0, -1536.0342307131566, 0.0, 0.0, 0.0, 0.0, -47127.17796888089, 0.0]
['beep', 0.0, -92.24564936705225, 0.0, 0.0, 0.0, 0.0, -48175.85476349053, 0.0]
['beep', 0.0, 589.9966466422852, 0.0, 0.0, 0.0, 0.0, -48569.7148525375, 0.0]
['beep', 0.0, -376.9398184942983, 0.0, 0.0, 0.0, 0.0, -47776.27262786301, 0.0]
['beep', 0.0, -1597.3003622651534, 0.0, 0.0, 0.0, 0.0, -46907.52737611859, 0.0]
['beep', 0.0, -1337.9530713502254, 0.0, 0.0, 0.0, 0.0, -47168.461640889844, 0.0]
['beep', 0.0, 104.91908847321135, 0.0, 0.0, 0.0, 0.0, -48216.691400610376, 0.0]
['beep', 0.0, 795.7221026089314, 0.0, 0.0, 0.0, 0.0, -48617.3240682273, 0.0]
['beep', 0.0, -164.8888188468002, 0.0, 0.0, 0.0, 0.0, -47829.06744826645, 0.0]
['beep', 0.0, -1388.6468277748618, 0.0, 0.0, 0.0, 0.0, -46957.30471102056, 0.0]
['beep', 0.0, -1137.6367375417635, 0.0, 0.0, 0.0, 0.0, -47212.53928095571, 0.0]
['beep', 0.0, 303.73785540316766, 0.0, 0.0, 0.0, 0.0, -48260.813744165156, 0.0]
['beep', 0.0, 1003.2356981320022, 0.0, 0.0, 0.0, 0.0, -48667.950769418574, 0.0]
['beep', 0.0, 50.514942468993965, 0.0, 0.0, 0.0, 0.0, -47883.58335299294, 0.0]
['beep', 0.0, -1177.5793048833973, 0.0, 0.0, 0.0, 0.0, -47007.77495000064, 0.0]
['beep', 0.0, -936.3145752328129, 0.0, 0.0, 0.0, 0.0, -47256.840438466126, 0.0]
['beep', 0.0, 502.5342705886687, 0.0, 0.0, 0.0, 0.0, -48305.405474353494, 0.0]
['beep', 0.0, 1207.329476753411, 0.0, 0.0, 0.0, 0.0, -48717.90691827618, 0.0]
['beep', 0.0, 258.9673112591876, 0.0, 0.0, 0.0, 0.0, -47937.09342921894, 0.0]
['beep', 0.0, -974.401947784656, 0.0, 0.0, 0.0, 0.0, -47057.44052618033, 0.0]
['beep', 0.0, -742.2790816162923, 0.0, 0.0, 0.0, 0.0, -47299.73343607586, 0.0]
['beep', 0.0, 695.4074734935133, 0.0, 0.0, 0.0, 0.0, -48347.31499520719, 0.0]
['beep', 0.0, 1409.0763222070125, 0.0, 0.0, 0.0, 0.0, -48766.253741533015, 0.0]
['beep', 0.0, 467.2408660937388, 0.0, 0.0, 0.0, 0.0, -47990.58115370049, 0.0]
['beep', 0.0, -768.9670644959289, 0.0, 0.0, 0.0, 0.0, -47108.201337838334, 0.0]
['beep', 0.0, -543.5050181752465, 0.0, 0.0, 0.0, 0.0, -47345.53216046478, 0.0]
['beep', 0.0, 894.2262404234697, 0.0, 0.0, 0.0, 0.0, -48393.24783006285, 0.0]
['beep', 0.0, 1616.6122694745386, 0.0, 0.0, 0.0, 0.0, -48817.640402035766, 0.0]
['beep', 0.0, 681.3258744866699, 0.0, 0.0, 0.0, 0.0, -48046.48286658322, 0.0]
['beep', 0.0, -559.0841840605956, 0.0, 0.0, 0.0, 0.0, -47161.71141406434, 0.0]
['beep', 0.0, -341.8475796994662, 0.0, 0.0, 0.0, 0.0, -47392.89550696558, 0.0]
['beep', 0.0, 1094.1178910872807, 0.0, 0.0, 0.0, 0.0, -48439.627699807614, 0.0]
['beep', 0.0, 1824.4387894199838, 0.0, 0.0, 0.0, 0.0, -48871.038719539494, 0.0]
['beep', 0.0, 896.9308015025618, 0.0, 0.0, 0.0, 0.0, -48104.060960300085, 0.0]
['beep', 0.0, -345.9379489347874, 0.0, 0.0, 0.0, 0.0, -47215.802635646185, 0.0]
['beep', 0.0, -137.61969061132558, 0.0, 0.0, 0.0, 0.0, -47440.63883312212, 0.0]
['beep', 0.0, 1297.4293586527538, 0.0, 0.0, 0.0, 0.0, -48487.75100561989, 0.0]
['beep', 0.0, 2035.483960566993, 0.0, 0.0, 0.0, 0.0, -48925.53227252153, 0.0]
['beep', 0.0, 1113.0945221298364, 0.0, 0.0, 0.0, 0.0, -48163.24837961774, 0.0]
['beep', 0.0, -134.98218476559936, 0.0, 0.0, 0.0, 0.0, -47271.68199678445, 0.0]
['beep', 0.0, 62.42842226367262, 0.0, 0.0, 0.0, 0.0, -47489.566801734785, 0.0]
['beep', 0.0, 1493.9682476482687, 0.0, 0.0, 0.0, 0.0, -48535.09200037623, 0.0]
['beep', 0.0, 2238.504855454547, 0.0, 0.0, 0.0, 0.0, -48977.54478186903, 0.0]
['beep', 0.0, 1322.3739054648765, 0.0, 0.0, 0.0, 0.0, -48218.61365063354, 0.0]
['beep', 0.0, 71.23500957906361, 0.0, 0.0, 0.0, 0.0, -47324.141541021054, 0.0]
['beep', 0.0, 261.18013396026305, 0.0, 0.0, 0.0, 0.0, -47536.84074125776, 0.0]
['beep', 0.0, 1692.4517384113956, 0.0, 0.0, 0.0, 0.0, -48582.47769862148, 0.0]
['beep', 0.0, 2446.91252075583, 0.0, 0.0, 0.0, 0.0, -49030.98780286167, 0.0]
['beep', 0.0, 1539.3199371480869, 0.0, 0.0, 0.0, 0.0, -48276.77288970624, 0.0]
['beep', 0.0, 285.63294239436897, 0.0, 0.0, 0.0, 0.0, -47378.92566668102, 0.0]
['beep', 0.0, 467.5761422605684, 0.0, 0.0, 0.0, 0.0, -47584.87464009222, 0.0]
['beep', 0.0, 1896.7913862218127, 0.0, 0.0, 0.0, 0.0, -48629.48341721099, 0.0]
['beep', 0.0, 2658.7176512143196, 0.0, 0.0, 0.0, 0.0, -49085.14607967688, 0.0]
['beep', 0.0, 1757.8752944320793, 0.0, 0.0, 0.0, 0.0, -48336.586157868645, 0.0]
['beep', 0.0, 499.5614885761129, 0.0, 0.0, 0.0, 0.0, -47435.85555980868, 0.0]
['beep', 0.0, 671.222885992871, 0.0, 0.0, 0.0, 0.0, -47635.61310000576, 0.0]
['beep', 0.0, 2097.2418304970065, 0.0, 0.0, 0.0, 0.0, -48679.19369687959, 0.0]
['beep', 0.0, 2865.024252536804, 0.0, 0.0, 0.0, 0.0, -49140.10901929248, 0.0]
['beep', 0.0, 1969.1216312791862, 0.0, 0.0, 0.0, 0.0, -48395.304190552735, 0.0]
['beep', 0.0, 707.0750840991836, 0.0, 0.0, 0.0, 0.0, -47490.84085116874, 0.0]
['beep', 0.0, 870.6451500231207, 0.0, 0.0, 0.0, 0.0, -47683.557591862394, 0.0]
['beep', 0.0, 2296.395873593792, 0.0, 0.0, 0.0, 0.0, -48726.91467129167, 0.0]
['beep', 0.0, 3073.498973071453, 0.0, 0.0, 0.0, 0.0, -49194.15553738541, 0.0]
['beep', 0.0, 2185.7770902844777, 0.0, 0.0, 0.0, 0.0, -48454.26809242584, 0.0]
['beep', 0.0, 921.9200518035951, 0.0, 0.0, 0.0, 0.0, -47548.88833151917, 0.0]
['beep', 0.0, 1077.756414145996, 0.0, 0.0, 0.0, 0.0, -47736.888854132754, 0.0]
['beep', 0.0, 2501.562535949056, 0.0, 0.0, 0.0, 0.0, -48779.664788206195, 0.0]
['beep', 0.0, 3285.684083185683, 0.0, 0.0, 0.0, 0.0, -49251.59952063555, 0.0]
['beep', 0.0, 2403.3266190679815, 0.0, 0.0, 0.0, 0.0, -48515.623630955655, 0.0]
['beep', 0.0, 1136.0274119409814, 0.0, 0.0, 0.0, 0.0, -47606.06409383585, 0.0]
['beep', 0.0, 1283.7947945350165, 0.0, 0.0, 0.0, 0.0, -47787.448500090664, 0.0]
['beep', 0.0, 2705.9915907372942, 0.0, 0.0, 0.0, 0.0, -48828.83862600788, 0.0]
['beep', 0.0, 3498.115062488921, 0.0, 0.0, 0.0, 0.0, -49307.545937007184, 0.0]
['beep', 0.0, 2623.692467652854, 0.0, 0.0, 0.0, 0.0, -48577.02387297439, 0.0]
['beep', 0.0, 1352.9287401352813, 0.0, 0.0, 0.0, 0.0, -47664.893885242214, 0.0]
['beep', 0.0, 1491.3754452914532, 0.0, 0.0, 0.0, 0.0, -47840.2433204941, 0.0]
['beep', 0.0, 2911.180604837013, 0.0, 0.0, 0.0, 0.0, -48882.19224002269, 0.0]
['beep', 0.0, 3710.8366144700785, 0.0, 0.0, 0.0, 0.0, -49366.979225513845, 0.0]
['beep', 0.0, 2843.454819137433, 0.0, 0.0, 0.0, 0.0, -48641.68746968359, 0.0]
['beep', 0.0, 1569.472440418296, 0.0, 0.0, 0.0, 0.0, -47726.763513894504, 0.0]
['beep', 0.0, 1699.8054623371916, 0.0, 0.0, 0.0, 0.0, -47895.161556620784, 0.0]
['beep', 0.0, 3119.0294765269136, 0.0, 0.0, 0.0, 0.0, -48935.05411565949, 0.0]
['beep', 0.0, 3926.843872886166, 0.0, 0.0, 0.0, 0.0, -49425.272575053285, 0.0]
['beep', 0.0, 3066.0558421678356, 0.0, 0.0, 0.0, 0.0, -48704.45116811409, 0.0]
['beep', 0.0, 1788.944219224956, 0.0, 0.0, 0.0, 0.0, -47787.090872179375, 0.0]
['beep', 0.0, 1910.202432894997, 0.0, 0.0, 0.0, 0.0, -47949.431592158275, 0.0]
['beep', 0.0, 3326.364258094342, 0.0, 0.0, 0.0, 0.0, -48988.54184014104, 0.0]
['beep', 0.0, 4142.113523735228, 0.0, 0.0, 0.0, 0.0, -49485.35406414915, 0.0]
['beep', 0.0, 3288.679216942694, 0.0, 0.0, 0.0, 0.0, -48768.44421248963, 0.0]
['beep', 0.0, 2007.9466113980548, 0.0, 0.0, 0.0, 0.0, -47847.485285697614, 0.0]
['beep', 0.0, 2120.7335139195343, 0.0, 0.0, 0.0, 0.0, -48003.41105501784, 0.0]
['beep', 0.0, 3534.9060338623567, 0.0, 0.0, 0.0, 0.0, -49042.00721287814, 0.0]
['beep', 0.0, 4357.740802495576, 0.0, 0.0, 0.0, 0.0, -49544.31796602225, 0.0]
['beep', 0.0, 3511.5261091621055, 0.0, 0.0, 0.0, 0.0, -48832.68312605419, 0.0]
['beep', 0.0, 2228.4242187052037, 0.0, 0.0, 0.0, 0.0, -47909.42196958327, 0.0]
['beep', 0.0, 2331.9351472777307, 0.0, 0.0, 0.0, 0.0, -48059.20100917829, 0.0]
['beep', 0.0, 3742.330222407606, 0.0, 0.0, 0.0, 0.0, -49096.1878414378, 0.0]
['beep', 0.0, 4568.987139342683, 0.0, 0.0, 0.0, 0.0, -49604.08653069574, 0.0]
['beep', 0.0, 3725.991097210777, 0.0, 0.0, 0.0, 0.0, -48897.614943696855, 0.0]
['beep', 0.0, 2435.8707589949086, 0.0, 0.0, 0.0, 0.0, -47971.671577891306, 0.0]
['beep', 0.0, 2526.7753036946424, 0.0, 0.0, 0.0, 0.0, -48114.56628019408, 0.0]
['beep', 0.0, 3932.789436911278, 0.0, 0.0, 0.0, 0.0, -49149.74262115272, 0.0]
['beep', 0.0, 4768.521162095209, 0.0, 0.0, 0.0, 0.0, -49663.0727843133, 0.0]
['beep', 0.0, 3935.2704805458166, 0.0, 0.0, 0.0, 0.0, -48961.38447062785, 0.0]
['beep', 0.0, 2645.0383836076717, 0.0, 0.0, 0.0, 0.0, -48032.31186059855, 0.0]
['beep', 0.0, 2730.131474749026, 0.0, 0.0, 0.0, 0.0, -48168.74690875375, 0.0]
['beep', 0.0, 4136.6373463436785, 0.0, 0.0, 0.0, 0.0, -49203.61032529001, 0.0]
['beep', 0.0, 4981.600341987651, 0.0, 0.0, 0.0, 0.0, -49724.22715714302, 0.0]
['beep', 0.0, 4156.709212864544, 0.0, 0.0, 0.0, 0.0, -49027.67974468228, 0.0]
['beep', 0.0, 2863.727851358396, 0.0, 0.0, 0.0, 0.0, -48095.85787008499, 0.0]
['beep', 0.0, 2939.0755819172364, 0.0, 0.0, 0.0, 0.0, -48226.772037359726, 0.0]
['beep', 0.0, 4339.591185997866, 0.0, 0.0, 0.0, 0.0, -49259.98142480629, 0.0]
['beep', 0.0, 5187.594018887761, 0.0, 0.0, 0.0, 0.0, -49784.62157066126, 0.0]
['beep', 0.0, 4365.362747354835, 0.0, 0.0, 0.0, 0.0, -49092.00806522466, 0.0]
['beep', 0.0, 3064.89355145616, 0.0, 0.0, 0.0, 0.0, -48157.83925745956, 0.0]
['beep', 0.0, 3130.004183054469, 0.0, 0.0, 0.0, 0.0, -48282.45023279789, 0.0]
['beep', 0.0, 4529.3351446789675, 0.0, 0.0, 0.0, 0.0, -49314.899660932984, 0.0]
['beep', 0.0, 5386.189268373164, 0.0, 0.0, 0.0, 0.0, -49846.22297838009, 0.0]
['beep', 0.0, 4573.278674278102, 0.0, 0.0, 0.0, 0.0, -49159.19740905731, 0.0]
['beep', 0.0, 3273.9270656021913, 0.0, 0.0, 0.0, 0.0, -48222.94988905786, 0.0]
['beep', 0.0, 3333.0921331753893, 0.0, 0.0, 0.0, 0.0, -48341.32472769317, 0.0]
['beep', 0.0, 4731.3725628104885, 0.0, 0.0, 0.0, 0.0, -49372.231885460846, 0.0]
['beep', 0.0, 5597.435605220271, 0.0, 0.0, 0.0, 0.0, -49908.78551111049, 0.0]
['beep', 0.0, 4793.644522862974, 0.0, 0.0, 0.0, 0.0, -49226.78908429016, 0.0]
['beep', 0.0, 3490.7389868186697, 0.0, 0.0, 0.0, 0.0, -48287.83700321162, 0.0]
['beep', 0.0, 3538.2587955306526, 0.0, 0.0, 0.0, 0.0, -48399.72983595489, 0.0]
['beep', 0.0, 4930.459550673909, 0.0, 0.0, 0.0, 0.0, -49429.25118556633, 0.0]
['beep', 0.0, 5799.942409985353, 0.0, 0.0, 0.0, 0.0, -49971.57156128545, 0.0]
['beep', 0.0, 4999.817013718726, 0.0, 0.0, 0.0, 0.0, -49293.62080021153, 0.0]
['beep', 0.0, 3694.497489273249, 0.0, 0.0, 0.0, 0.0, -48352.098268520625, 0.0]
['beep', 0.0, 3735.825864771112, 0.0, 0.0, 0.0, 0.0, -48457.55379886077, 0.0]
['beep', 0.0, 5128.96539318149, 0.0, 0.0, 0.0, 0.0, -49485.80109903826, 0.0]
['beep', 0.0, 6008.886517153564, 0.0, 0.0, 0.0, 0.0, -50034.20114924922, 0.0]
['beep', 0.0, 5218.372371002719, 0.0, 0.0, 0.0, 0.0, -49362.28535917823, 0.0]
['beep', 0.0, 3912.605811668135, 0.0, 0.0, 0.0, 0.0, -48418.86292920863, 0.0]
['beep', 0.0, 3947.295719062772, 0.0, 0.0, 0.0, 0.0, -48518.618764712664, 0.0]
['beep', 0.0, 5338.065962560888, 0.0, 0.0, 0.0, 0.0, -49546.24021604541, 0.0]
['beep', 0.0, 6224.826720336285, 0.0, 0.0, 0.0, 0.0, -50099.51294654763, 0.0]
['beep', 0.0, 5441.889815555789, 0.0, 0.0, 0.0, 0.0, -49432.000450134336, 0.0]
['beep', 0.0, 4134.133950964684, 0.0, 0.0, 0.0, 0.0, -48485.64994164109, 0.0]
['beep', 0.0, 4160.754878610955, 0.0, 0.0, 0.0, 0.0, -48578.879067764174, 0.0]
['beep', 0.0, 5549.759334297101, 0.0, 0.0, 0.0, 0.0, -49604.98060047396, 0.0]
['beep', 0.0, 6444.477313098588, 0.0, 0.0, 0.0, 0.0, -50164.19889500128, 0.0]
['beep', 0.0, 5668.6706147993345, 0.0, 0.0, 0.0, 0.0, -49501.08969224569, 0.0]
['beep', 0.0, 4357.427878073201, 0.0, 0.0, 0.0, 0.0, -48552.99574768493, 0.0]
['beep', 0.0, 4374.839887003885, 0.0, 0.0, 0.0, 0.0, -48640.279309782905, 0.0]
['beep', 0.0, 5760.670394977378, 0.0, 0.0, 0.0, 0.0, -49664.59270293626, 0.0]
['beep', 0.0, 6661.98213839318, 0.0, 0.0, 0.0, 0.0, -50228.63897426593, 0.0]
['beep', 0.0, 5893.283294830715, 0.0, 0.0, 0.0, 0.0, -49570.29069307932, 0.0]
['beep', 0.0, 4580.408880759344, 0.0, 0.0, 0.0, 0.0, -48619.89451883966, 0.0]
['beep', 0.0, 4589.081357608004, 0.0, 0.0, 0.0, 0.0, -48701.433682612624, 0.0]
['beep', 0.0, 5970.665034134989, 0.0, 0.0, 0.0, 0.0, -49724.60713679876, 0.0]
['beep', 0.0, 6877.40825145343, 0.0, 0.0, 0.0, 0.0, -50294.06253028662, 0.0]
['beep', 0.0, 6115.414931227557, 0.0, 0.0, 0.0, 0.0, -49641.8162753363, 0.0]
['beep', 0.0, 4800.104177010558, 0.0, 0.0, 0.0, 0.0, -48689.631961540224, 0.0]
['beep', 0.0, 4799.835956077094, 0.0, 0.0, 0.0, 0.0, -48764.37619499877, 0.0]
['beep', 0.0, 6179.117402925182, 0.0, 0.0, 0.0, 0.0, -49785.4038817172, 0.0]
['beep', 0.0, 7093.750786036348, 0.0, 0.0, 0.0, 0.0, -50360.603673530066, 0.0]
['beep', 0.0, 6339.871149047751, 0.0, 0.0, 0.0, 0.0, -49713.4312645711, 0.0]
['beep', 0.0, 5021.90053724057, 0.0, 0.0, 0.0, 0.0, -48758.69885190712, 0.0]
['beep', 0.0, 5012.736322013894, 0.0, 0.0, 0.0, 0.0, -48827.072838195905, 0.0]
['beep', 0.0, 6389.7825944164515, 0.0, 0.0, 0.0, 0.0, -49847.00528943602, 0.0]
['beep', 0.0, 7312.037922386876, 0.0, 0.0, 0.0, 0.0, -50427.636555151534, 0.0]
['beep', 0.0, 6565.154381412791, 0.0, 0.0, 0.0, 0.0, -49784.33099798334, 0.0]
['beep', 0.0, 5244.725077715526, 0.0, 0.0, 0.0, 0.0, -48827.072838195905, 0.0]
['beep', 0.0, 5227.715400185037, 0.0, 0.0, 0.0, 0.0, -48890.73060640462, 0.0]
['beep', 0.0, 6600.917172541282, 0.0, 0.0, 0.0, 0.0, -49910.30542973345, 0.0]
['beep', 0.0, 7527.709904636134, 0.0, 0.0, 0.0, 0.0, -50496.502279818335, 0.0]
['beep', 0.0, 6785.162602086378, 0.0, 0.0, 0.0, 0.0, -49858.650548297235, 0.0]
['beep', 0.0, 5459.279472742018, 0.0, 0.0, 0.0, 0.0, -48900.02893209802, 0.0]
['beep', 0.0, 5430.110446227843, 0.0, 0.0, 0.0, 0.0, -48956.757659525596, 0.0]
['beep', 0.0, 6797.925448170358, 0.0, 0.0, 0.0, 0.0, -49973.78438398652, 0.0]
['beep', 0.0, 7731.110779179428, 0.0, 0.0, 0.0, 0.0, -50565.859742863155, 0.0]
['beep', 0.0, 6996.744215100314, 0.0, 0.0, 0.0, 0.0, -49933.64065094479, 0.0]
['beep', 0.0, 5670.950492733776, 0.0, 0.0, 0.0, 0.0, -48972.31447366649, 0.0]
['beep', 0.0, 5637.311117328539, 0.0, 0.0, 0.0, 0.0, -49023.723485913695, 0.0]
['beep', 0.0, 7005.304933226697, 0.0, 0.0, 0.0, 0.0, -50039.11853302939, 0.0]
['beep', 0.0, 7947.699182951354, 0.0, 0.0, 0.0, 0.0, -50635.68659254153, 0.0]
['beep', 0.0, 7222.76505503238, 0.0, 0.0, 0.0, 0.0, -50007.982553003145, 0.0]
['beep', 0.0, 5895.183193109417, 0.0, 0.0, 0.0, 0.0, -49045.114105357425, 0.0]
['beep', 0.0, 5851.440829210381, 0.0, 0.0, 0.0, 0.0, -49089.996408223684, 0.0]
['beep', 0.0, 7213.869060739167, 0.0, 0.0, 0.0, 0.0, -50104.20681288324, 0.0]
['beep', 0.0, 8158.699650609452, 0.0, 0.0, 0.0, 0.0, -50705.804014897825, 0.0]
['beep', 0.0, 7435.955993647099, 0.0, 0.0, 0.0, 0.0, -50082.54797250604, 0.0]
['beep', 0.0, 6101.579201409722, 0.0, 0.0, 0.0, 0.0, -49117.2431847147, 0.0]
['beep', 0.0, 6045.5210263158115, 0.0, 0.0, 0.0, 0.0, -49155.91170262238, 0.0]
['beep', 0.0, 7402.361321730772, 0.0, 0.0, 0.0, 0.0, -50167.864581091955, 0.0]
['beep', 0.0, 8355.059725649324, 0.0, 0.0, 0.0, 0.0, -50775.787326787395, 0.0]
['beep', 0.0, 7642.664926369778, 0.0, 0.0, 0.0, 0.0, -50158.700365865276, 0.0]
['beep', 0.0, 6309.696294033086, 0.0, 0.0, 0.0, 0.0, -49191.40627281741, 0.0]
['beep', 0.0, 6249.458342726033, 0.0, 0.0, 0.0, 0.0, -49223.19045343286, 0.0]
['beep', 0.0, 7607.282114897027, 0.0, 0.0, 0.0, 0.0, -50232.81875047908, 0.0]
['beep', 0.0, 8569.547065442452, 0.0, 0.0, 0.0, 0.0, -50845.770638676964, 0.0]
['beep', 0.0, 7867.0540889566055, 0.0, 0.0, 0.0, 0.0, -50234.45042782431, 0.0]
['beep', 0.0, 6533.81723568645, 0.0, 0.0, 0.0, 0.0, -49266.19520976487, 0.0]
['beep', 0.0, 6465.130324975291, 0.0, 0.0, 0.0, 0.0, -49292.2349920553, 0.0]
['beep', 0.0, 7819.1543005888825, 0.0, 0.0, 0.0, 0.0, -50300.9245158344, 0.0]
['beep', 0.0, 8786.336634914474, 0.0, 0.0, 0.0, 0.0, -50919.531395379476, 0.0]
['beep', 0.0, 8088.202248597414, 0.0, 0.0, 0.0, 0.0, -50312.81564388462, 0.0]
['beep', 0.0, 6749.9586045692695, 0.0, 0.0, 0.0, 0.0, -49341.744106023805, 0.0]
['beep', 0.0, 6670.431097797286, 0.0, 0.0, 0.0, 0.0, -49361.83832428913, 0.0]
['beep', 0.0, 8020.454111153378, 0.0, 0.0, 0.0, 0.0, -50369.29850212318, 0.0]
['beep', 0.0, 8995.280742082685, 0.0, 0.0, 0.0, 0.0, -50993.87329743783, 0.0]
['beep', 0.0, 8307.294047748333, 0.0, 0.0, 0.0, 0.0, -50393.326627412636, 0.0]
['beep', 0.0, 6969.408031631474, 0.0, 0.0, 0.0, 0.0, -49420.44459825094, 0.0]
['beep', 0.0, 6883.823202112103, 0.0, 0.0, 0.0, 0.0, -49433.810941435215, 0.0]
['beep', 0.0, 8232.169834634047, 0.0, 0.0, 0.0, 0.0, -50438.16422678998, 0.0]
['beep', 0.0, 9214.908983100531, 0.0, 0.0, 0.0, 0.0, -51067.41053669579, 0.0]
['beep', 0.0, 8534.54423362544, 0.0, 0.0, 0.0, 0.0, -50471.37891905057, 0.0]
['beep', 0.0, 7194.266580851863, 0.0, 0.0, 0.0, 0.0, -49495.70292183196, 0.0]
['beep', 0.0, 7100.232791928386, 0.0, 0.0, 0.0, 0.0, -49502.743721335384, 0.0]
['beep', 0.0, 8445.070200570846, 0.0, 0.0, 0.0, 0.0, -50506.292343889756, 0.0]
['beep', 0.0, 9435.453645641046, 0.0, 0.0, 0.0, 0.0, -51141.484217820675, 0.0]
['beep', 0.0, 8763.314338125509, 0.0, 0.0, 0.0, 0.0, -50551.35346071166, 0.0]
['beep', 0.0, 7421.203842306596, 0.0, 0.0, 0.0, 0.0, -49574.04578614781, 0.0]
['beep', 0.0, 7318.654038745647, 0.0, 0.0, 0.0, 0.0, -49574.62693150365, 0.0]
['beep', 0.0, 8660.675127586737, 0.0, 0.0, 0.0, 0.0, -50575.850972634675, 0.0]
['beep', 0.0, 9656.91472970423, 0.0, 0.0, 0.0, 0.0, -51215.82611987903, 0.0]
['beep', 0.0, 8992.39736704795, 0.0, 0.0, 0.0, 0.0, -50630.25511863889, 0.0]
['beep', 0.0, 7649.348097961914, 0.0, 0.0, 0.0, 0.0, -49650.958138818525, 0.0]
['beep', 0.0, 7539.0422390749745, 0.0, 0.0, 0.0, 0.0, -49645.63842363816, 0.0]
['beep', 0.0, 8877.464697058762, 0.0, 0.0, 0.0, 0.0, -50644.8061042793, 0.0]
['beep', 0.0, 9877.928778878306, 0.0, 0.0, 0.0, 0.0, -51289.49746960372, 0.0]
['beep', 0.0, 9217.948820346453, 0.0, 0.0, 0.0, 0.0, -50709.62616319969, 0.0]
['beep', 0.0, 7870.362147135991, 0.0, 0.0, 0.0, 0.0, -49728.69750603408, 0.0]
['beep', 0.0, 7749.528616610601, 0.0, 0.0, 0.0, 0.0, -49716.940488450586, 0.0]
['beep', 0.0, 9083.27956000323, 0.0, 0.0, 0.0, 0.0, -50714.25297430193, 0.0]
['beep', 0.0, 10090.695034348373, 0.0, 0.0, 0.0, 0.0, -51364.1746478289, 0.0]
['beep', 0.0, 9440.661602099133, 0.0, 0.0, 0.0, 0.0, -50789.73481532751, 0.0]
['beep', 0.0, 8093.812536455695, 0.0, 0.0, 0.0, 0.0, -49807.28623953894, 0.0]
['beep', 0.0, 7966.854627949551, 0.0, 0.0, 0.0, 0.0, -49789.40484397469, 0.0]
['beep', 0.0, 9298.683321319024, 0.0, 0.0, 0.0, 0.0, -50784.593914102785, 0.0]
['beep', 0.0, 10313.631333545605, 0.0, 0.0, 0.0, 0.0, -51440.10352374358, 0.0]
['beep', 0.0, 9670.90692173325, 0.0, 0.0, 0.0, 0.0, -50871.296330844925, 0.0]
['beep', 0.0, 8321.196832799535, 0.0, 0.0, 0.0, 0.0, -49887.68546434468, 0.0]
['beep', 0.0, 8182.4372032209885, 0.0, 0.0, 0.0, 0.0, -49863.45617335512, 0.0]
['beep', 0.0, 9507.292152320404, 0.0, 0.0, 0.0, 0.0, -50855.67246147066, 0.0]
['beep', 0.0, 10525.99525761548, 0.0, 0.0, 0.0, 0.0, -51515.89828919152, 0.0]
['beep', 0.0, 9891.093956362482, 0.0, 0.0, 0.0, 0.0, -50953.349584740354, 0.0]
['beep', 0.0, 8540.445094161641, 0.0, 0.0, 0.0, 0.0, -49968.26350310606, 0.0]
['beep', 0.0, 8395.00229299096, 0.0, 0.0, 0.0, 0.0, -49938.0886480914, 0.0]
['beep', 0.0, 9719.007875801073, 0.0, 0.0, 0.0, 0.0, -50929.097942006345, 0.0]
['beep', 0.0, 10746.875196322822, 0.0, 0.0, 0.0, 0.0, -51594.39761571856, 0.0]
['beep', 0.0, 10121.160462040956, 0.0, 0.0, 0.0, 0.0, -51036.98981249212, 0.0]
['beep', 0.0, 8770.377489373384, 0.0, 0.0, 0.0, 0.0, -50050.562626190505, 0.0]
['beep', 0.0, 8617.51390904354, 0.0, 0.0, 0.0, 0.0, -50013.72695132816, 0.0]
['beep', 0.0, 9936.78092202913, 0.0, 0.0, 0.0, 0.0, -51001.67405625273, 0.0]
['beep', 0.0, 10970.862027509454, 0.0, 0.0, 0.0, 0.0, -51672.47225910095, 0.0]
['beep', 0.0, 10353.61860437615, 0.0, 0.0, 0.0, 0.0, -51120.719447221694, 0.0]
['beep', 0.0, 9000.667512496413, 0.0, 0.0, 0.0, 0.0, -50132.705287063756, 0.0]
['beep', 0.0, 8838.237385539698, 0.0, 0.0, 0.0, 0.0, -50090.03580689857, 0.0]
['beep', 0.0, 10153.995174645803, 0.0, 0.0, 0.0, 0.0, -51075.4571646997, 0.0]
['beep', 0.0, 11196.011149407763, 0.0, 0.0, 0.0, 0.0, -51750.94923388353, 0.0]
['beep', 0.0, 10587.171982189653, 0.0, 0.0, 0.0, 0.0, -51204.62789590692, 0.0]
['beep', 0.0, 9233.01389610933, 0.0, 0.0, 0.0, 0.0, -50214.02093339216, 0.0]
['beep', 0.0, 9062.090106259599, 0.0, 0.0, 0.0, 0.0, -50164.82474384603, 0.0]
['beep', 0.0, 10374.517485441862, 0.0, 0.0, 0.0, 0.0, -51148.63677604637, 0.0]
['beep', 0.0, 11421.383788750623, 0.0, 0.0, 0.0, 0.0, -51828.755656332454, 0.0]
['beep', 0.0, 10819.764234991579, 0.0, 0.0, 0.0, 0.0, -51287.26229515819, 0.0]
['beep', 0.0, 9466.120239033728, 0.0, 0.0, 0.0, 0.0, -50296.208297754325, 0.0]
['beep', 0.0, 9287.395690369092, 0.0, 0.0, 0.0, 0.0, -50241.200654649816, 0.0]
['beep', 0.0, 10595.933866016134, 0.0, 0.0, 0.0, 0.0, -51222.46458798225, 0.0]
['beep', 0.0, 11650.086838017325, 0.0, 0.0, 0.0, 0.0, -51908.596087526814, 0.0]
['beep', 0.0, 11057.162112851396, 0.0, 0.0, 0.0, 0.0, -51373.852953178044, 0.0]
['beep', 0.0, 9700.746500581086, 0.0, 0.0, 0.0, 0.0, -50380.7425952843, 0.0]
['beep', 0.0, 9514.332951823826, 0.0, 0.0, 0.0, 0.0, -50319.16353930993, 0.0]
['beep', 0.0, 10819.048979169009, 0.0, 0.0, 0.0, 0.0, -51298.080539474555, 0.0]
['beep', 0.0, 11878.767535539573, 0.0, 0.0, 0.0, 0.0, -51988.794146632456, 0.0]
['beep', 0.0, 11293.241237788348, 0.0, 0.0, 0.0, 0.0, -51459.86246584207, 0.0]
['beep', 0.0, 9935.663334806364, 0.0, 0.0, 0.0, 0.0, -50465.56746549219, 0.0]
['beep', 0.0, 9739.97381210015, 0.0, 0.0, 0.0, 0.0, -50397.95343851489, 0.0]
['beep', 0.0, 11040.46535974328, 0.0, 0.0, 0.0, 0.0, -51375.70814796784, 0.0]
['beep', 0.0, 12105.883610949948, 0.0, 0.0, 0.0, 0.0, -52071.65206332828, 0.0]
['beep', 0.0, 11528.359237713723, 0.0, 0.0, 0.0, 0.0, -51547.68246980697, 0.0]
['beep', 0.0, 10170.624872520551, 0.0, 0.0, 0.0, 0.0, -50552.649861890066, 0.0]
['beep', 0.0, 9967.983957288738, 0.0, 0.0, 0.0, 0.0, -50479.447898798935, 0.0]
['beep', 0.0, 11263.84869382962, 0.0, 0.0, 0.0, 0.0, -51453.782791350226, 0.0]
['beep', 0.0, 12334.899584639024, 0.0, 0.0, 0.0, 0.0, -52154.197055601726, 0.0]
['beep', 0.0, 11765.645356851264, 0.0, 0.0, 0.0, 0.0, -51636.46359878345, 0.0]
['beep', 0.0, 10406.703997457505, 0.0, 0.0, 0.0, 0.0, -50639.665203054574, 0.0]
['beep', 0.0, 10194.96592223238, 0.0, 0.0, 0.0, 0.0, -50560.00358581586, 0.0]
['beep', 0.0, 11486.069737204283, 0.0, 0.0, 0.0, 0.0, -51531.05277193222, 0.0]
['beep', 0.0, 12561.613328649204, 0.0, 0.0, 0.0, 0.0, -52234.596280407466, 0.0]
['beep', 0.0, 11999.466955598231, 0.0, 0.0, 0.0, 0.0, -51721.71315213599, 0.0]
['beep', 0.0, 10639.25154677052, 0.0, 0.0, 0.0, 0.0, -50723.81952092881, 0.0]
['beep', 0.0, 10417.075206884767, 0.0, 0.0, 0.0, 0.0, -50636.84888325321, 0.0]
['beep', 0.0, 11703.395748543233, 0.0, 0.0, 0.0, 0.0, -51605.64054317958, 0.0]
['beep', 0.0, 12784.48257261307, 0.0, 0.0, 0.0, 0.0, -52315.21902265776, 0.0]
['beep', 0.0, 12228.080597887112, 0.0, 0.0, 0.0, 0.0, -51808.43792062258, 0.0]
['beep', 0.0, 10865.406497169317, 0.0, 0.0, 0.0, 0.0, -50809.9407923151, 0.0]
['beep', 0.0, 10634.244756012531, 0.0, 0.0, 0.0, 0.0, -50718.052770859336, 0.0]
['beep', 0.0, 11915.69261737974, 0.0, 0.0, 0.0, 0.0, -51684.56455285127, 0.0]
['beep', 0.0, 13002.210915352216, 0.0, 0.0, 0.0, 0.0, -52397.94282888685, 0.0]
['beep', 0.0, 12454.280251774819, 0.0, 0.0, 0.0, 0.0, -51896.59320075431, 0.0]
['beep', 0.0, 11092.120241179497, 0.0, 0.0, 0.0, 0.0, -50896.732616035064, 0.0]
['beep', 0.0, 10855.214101697697, 0.0, 0.0, 0.0, 0.0, -50799.279010209924, 0.0]
['beep', 0.0, 12134.180919430366, 0.0, 0.0, 0.0, 0.0, -51764.159114856615, 0.0]
['beep', 0.0, 13227.605906439532, 0.0, 0.0, 0.0, 0.0, -52483.393547939486, 0.0]
['beep', 0.0, 12690.404080200682, 0.0, 0.0, 0.0, 0.0, -51988.41416697671, 0.0]
['beep', 0.0, 11328.936973683474, 0.0, 0.0, 0.0, 0.0, -50987.45834677915, 0.0]
['beep', 0.0, 11083.894799219943, 0.0, 0.0, 0.0, 0.0, -50883.098051917324, 0.0]
['beep', 0.0, 12357.83247445017, 0.0, 0.0, 0.0, 0.0, -51844.69245012909, 0.0]
['beep', 0.0, 13456.3760109396, 0.0, 0.0, 0.0, 0.0, -52568.28547338075, 0.0]
['beep', 0.0, 12924.918583025765, 0.0, 0.0, 0.0, 0.0, -52078.759918065065, 0.0]
['beep', 0.0, 11559.629328206698, 0.0, 0.0, 0.0, 0.0, -51077.088842044934, 0.0]
['beep', 0.0, 11302.561915226212, 0.0, 0.0, 0.0, 0.0, -50967.31942502492, 0.0]
['beep', 0.0, 12570.509322942415, 0.0, 0.0, 0.0, 0.0, -51926.47748309106, 0.0]
['beep', 0.0, 13674.484333334487, 0.0, 0.0, 0.0, 0.0, -52655.4796285009, 0.0]
['beep', 0.0, 13152.07936192505, 0.0, 0.0, 0.0, 0.0, -52171.83258197697, 0.0]
['beep', 0.0, 11786.81245885044, 0.0, 0.0, 0.0, 0.0, -51168.08279372249, 0.0]
['beep', 0.0, 11523.575964400288, 0.0, 0.0, 0.0, 0.0, -51050.82554230995, 0.0]
['beep', 0.0, 12789.57877034888, 0.0, 0.0, 0.0, 0.0, -52007.41314976373, 0.0]
['beep', 0.0, 13900.728690711105, 0.0, 0.0, 0.0, 0.0, -52740.84094057571, 0.0]
['beep', 0.0, 13386.258588583301, 0.0, 0.0, 0.0, 0.0, -52262.5359609766, 0.0]
['beep', 0.0, 12021.371665164432, 0.0, 0.0, 0.0, 0.0, -51258.20502736629, 0.0]
['beep', 0.0, 11750.46852236611, 0.0, 0.0, 0.0, 0.0, -51134.912804950814, 0.0]
['beep', 0.0, 13012.04568291255, 0.0, 0.0, 0.0, 0.0, -52089.511107148064, 0.0]
['beep', 0.0, 14127.88946961039, 0.0, 0.0, 0.0, 0.0, -52827.431598595576, 0.0]
['beep', 0.0, 13619.990780352447, 0.0, 0.0, 0.0, 0.0, -52354.826313832564, 0.0]
['beep', 0.0, 12252.689868532405, 0.0, 0.0, 0.0, 0.0, -51350.0706970776, 0.0]
['beep', 0.0, 11971.974309918203, 0.0, 0.0, 0.0, 0.0, -51222.017553093145, 0.0]
['beep', 0.0, 13227.605906439532, 0.0, 0.0, 0.0, 0.0, -52173.821887233484, 0.0]
['beep', 0.0, 14349.529367629215, 0.0, 0.0, 0.0, 0.0, -52916.61505897225, 0.0]
['beep', 0.0, 13851.063114531413, 0.0, 0.0, 0.0, 0.0, -52449.821227767614, 0.0]
['beep', 0.0, 12483.203409099986, 0.0, 0.0, 0.0, 0.0, -51442.62927086702, 0.0]
['beep', 0.0, 12194.1282980595, 0.0, 0.0, 0.0, 0.0, -51307.1106442345, 0.0]
['beep', 0.0, 13446.205967212436, 0.0, 0.0, 0.0, 0.0, -52256.21041729575, 0.0]
['beep', 0.0, 14574.097344171685, 0.0, 0.0, 0.0, 0.0, -53003.60804839231, 0.0]
['beep', 0.0, 14083.297739422052, 0.0, 0.0, 0.0, 0.0, -52542.49156027932, 0.0]
['beep', 0.0, 12716.309752024383, 0.0, 0.0, 0.0, 0.0, -51535.076085934175, 0.0]
['beep', 0.0, 12420.774986836313, 0.0, 0.0, 0.0, 0.0, -51393.83541272109, 0.0]
['beep', 0.0, 13669.119914665212, 0.0, 0.0, 0.0, 0.0, -52339.64947934741, 0.0]
['beep', 0.0, 14803.113317860762, 0.0, 0.0, 0.0, 0.0, -53092.52328783552, 0.0]
['beep', 0.0, 14319.443919592371, 0.0, 0.0, 0.0, 0.0, -52637.821750381205, 0.0]
['beep', 0.0, 12948.499673426113, 0.0, 0.0, 0.0, 0.0, -51628.84165392419, 0.0]
['beep', 0.0, 12642.392533110684, 0.0, 0.0, 0.0, 0.0, -51481.54365796372, 0.0]
['beep', 0.0, 13885.261283548032, 0.0, 0.0, 0.0, 0.0, -52425.54723328915, 0.0]
['beep', 0.0, 15024.797919368497, 0.0, 0.0, 0.0, 0.0, -53182.89139066832, 0.0]
['beep', 0.0, 14550.270384582327, 0.0, 0.0, 0.0, 0.0, -52733.95660328348, 0.0]
['beep', 0.0, 13179.728469816266, 0.0, 0.0, 0.0, 0.0, -51723.50129169242, 0.0]
['beep', 0.0, 12864.88179741881, 0.0, 0.0, 0.0, 0.0, -51568.60370261714, 0.0]
['beep', 0.0, 14103.816640832025, 0.0, 0.0, 0.0, 0.0, -52508.62866742953, 0.0]
['beep', 0.0, 15250.72935232274, 0.0, 0.0, 0.0, 0.0, -53270.510228933126, 0.0]
['beep', 0.0, 14785.857771141264, 0.0, 0.0, 0.0, 0.0, -52827.45395034003, 0.0]
['beep', 0.0, 13416.500498831332, 0.0, 0.0, 0.0, 0.0, -51816.64101083768, 0.0]
['beep', 0.0, 13094.68008216382, 0.0, 0.0, 0.0, 0.0, -51656.66957577105, 0.0]
['beep', 0.0, 14329.345742386073, 0.0, 0.0, 0.0, 0.0, -52594.906401027016, 0.0]
['beep', 0.0, 15480.639395790029, 0.0, 0.0, 0.0, 0.0, -53361.48182886623, 0.0]
['beep', 0.0, 15023.903849590284, 0.0, 0.0, 0.0, 0.0, -52924.169948598144, 0.0]
['beep', 0.0, 13653.138417379669, 0.0, 0.0, 0.0, 0.0, -51912.46293931758, 0.0]
['beep', 0.0, 13321.952619785383, 0.0, 0.0, 0.0, 0.0, -51745.71892568099, 0.0]
['beep', 0.0, 14549.286907826294, 0.0, 0.0, 0.0, 0.0, -52679.59716076817, 0.0]
['beep', 0.0, 15704.670930465572, 0.0, 0.0, 0.0, 0.0, -53450.10649563152, 0.0]
['beep', 0.0, 15255.199701213802, 0.0, 0.0, 0.0, 0.0, -53019.07545555538, 0.0]
['beep', 0.0, 13884.344862025364, 0.0, 0.0, 0.0, 0.0, -52007.56961197491, 0.0]
['beep', 0.0, 13545.827692249739, 0.0, 0.0, 0.0, 0.0, -51835.192958735584, 0.0]
['beep', 0.0, 14770.949157589575, 0.0, 0.0, 0.0, 0.0, -52767.372461244166, 0.0]
['beep', 0.0, 15933.955125088112, 0.0, 0.0, 0.0, 0.0, -53543.134456054504, 0.0]
['beep', 0.0, 15494.519829096775, 0.0, 0.0, 0.0, 0.0, -53117.9372212812, 0.0]
['beep', 0.0, 14124.447300964273, 0.0, 0.0, 0.0, 0.0, -52105.537307922525, 0.0]
['beep', 0.0, 13778.039965395925, 0.0, 0.0, 0.0, 0.0, -51926.70100053561, 0.0]
['beep', 0.0, 14998.378157422323, 0.0, 0.0, 0.0, 0.0, -52855.46068614253, 0.0]
['beep', 0.0, 16167.553206390527, 0.0, 0.0, 0.0, 0.0, -53636.43063741096, 0.0]
['beep', 0.0, 15736.812738992303, 0.0, 0.0, 0.0, 0.0, -53217.60364980742, 0.0]
['beep', 0.0, 14366.382582948518, 0.0, 0.0, 0.0, 0.0, -52204.175556203794, 0.0]
['beep', 0.0, 14012.15213682081, 0.0, 0.0, 0.0, 0.0, -52018.700780713654, 0.0]
['beep', 0.0, 15229.070511945549, 0.0, 0.0, 0.0, 0.0, -52943.70537325208, 0.0]
['beep', 0.0, 16403.76644179421, 0.0, 0.0, 0.0, 0.0, -53727.73751351089, 0.0]
['beep', 0.0, 15979.753849477036, 0.0, 0.0, 0.0, 0.0, -53313.76085445414, 0.0]
['beep', 0.0, 14607.669664343557, 0.0, 0.0, 0.0, 0.0, -52299.393987583404, 0.0]
['beep', 0.0, 14243.91737507789, 0.0, 0.0, 0.0, 0.0, -52109.091235290914, 0.0]
['beep', 0.0, 15453.459674532376, 0.0, 0.0, 0.0, 0.0, -53032.30768827292, 0.0]
['beep', 0.0, 16632.022456171806, 0.0, 0.0, 0.0, 0.0, -53821.19015707853, 0.0]
['beep', 0.0, 16216.950561636755, 0.0, 0.0, 0.0, 0.0, -53413.606096936004, 0.0]
['beep', 0.0, 14845.983963726041, 0.0, 0.0, 0.0, 0.0, -52398.43456726486, 0.0]
['beep', 0.0, 14474.252101689828, 0.0, 0.0, 0.0, 0.0, -52200.532221857575, 0.0]
['beep', 0.0, 15679.368755742164, 0.0, 0.0, 0.0, 0.0, -53120.127692237824, 0.0]
['beep', 0.0, 16863.675935706608, 0.0, 0.0, 0.0, 0.0, -53913.7263791235, 0.0]
['beep', 0.0, 16457.678849420412, 0.0, 0.0, 0.0, 0.0, -53511.57379288362, 0.0]
['beep', 0.0, 15086.488734065144, 0.0, 0.0, 0.0, 0.0, -52496.111690534555, 0.0]
['beep', 0.0, 14707.067871936308, 0.0, 0.0, 0.0, 0.0, -52292.956685180274, 0.0]
['beep', 0.0, 15908.29532245342, 0.0, 0.0, 0.0, 0.0, -53209.1099869144, 0.0]
['beep', 0.0, 17099.173915287724, 0.0, 0.0, 0.0, 0.0, -54006.68728431312, 0.0]
['beep', 0.0, 16701.178753516528, 0.0, 0.0, 0.0, 0.0, -53611.37433187656, 0.0]
['beep', 0.0, 15329.519251527698, 0.0, 0.0, 0.0, 0.0, -52595.50989812731, 0.0]
['beep', 0.0, 14940.28597358298, 0.0, 0.0, 0.0, 0.0, -52386.163459558906, 0.0]
['beep', 0.0, 16133.735017029647, 0.0, 0.0, 0.0, 0.0, -53299.50044149166, 0.0]
['beep', 0.0, 17328.592220376995, 0.0, 0.0, 0.0, 0.0, -54101.97277092609, 0.0]
['beep', 0.0, 16938.710741843075, 0.0, 0.0, 0.0, 0.0, -53712.314809836724, 0.0]
['beep', 0.0, 15566.514797987318, 0.0, 0.0, 0.0, 0.0, -52695.086919675705, 0.0]
['beep', 0.0, 15169.927796116806, 0.0, 0.0, 0.0, 0.0, -52479.45964091535, 0.0]
['beep', 0.0, 16360.538168017647, 0.0, 0.0, 0.0, 0.0, -53389.28739896863, 0.0]
['beep', 0.0, 17562.078542957133, 0.0, 0.0, 0.0, 0.0, -54195.961856360664, 0.0]
['beep', 0.0, 17181.428334883254, 0.0, 0.0, 0.0, 0.0, -53812.78590116333, 0.0]
['beep', 0.0, 15811.378158495208, 0.0, 0.0, 0.0, 0.0, -52795.84858368023, 0.0]
['beep', 0.0, 15407.348025721078, 0.0, 0.0, 0.0, 0.0, -52574.02987170576, 0.0]
['beep', 0.0, 16591.00700509632, 0.0, 0.0, 0.0, 0.0, -53481.01895821321, 0.0]
['beep', 0.0, 17794.693147503513, 0.0, 0.0, 0.0, 0.0, -54292.87902031887, 0.0]
['beep', 0.0, 17418.513288320697, 0.0, 0.0, 0.0, 0.0, -53916.07331229131, 0.0]
['beep', 0.0, 16042.361085696351, 0.0, 0.0, 0.0, 0.0, -52898.10781456326, 0.0]
['beep', 0.0, 15624.539926593296, 0.0, 0.0, 0.0, 0.0, -52669.11419261863, 0.0]
['beep', 0.0, 16799.48172563097, 0.0, 0.0, 0.0, 0.0, -53573.17520060244, 0.0]
['beep', 0.0, 18007.325292506852, 0.0, 0.0, 0.0, 0.0, -54389.30444589907, 0.0]
['beep', 0.0, 17640.98020088437, 0.0, 0.0, 0.0, 0.0, -54017.95256351859, 0.0]
['beep', 0.0, 16269.074829706531, 0.0, 0.0, 0.0, 0.0, -53000.948190802126, 0.0]
['beep', 0.0, 15848.504406035472, 0.0, 0.0, 0.0, 0.0, -52768.71356591149, 0.0]
['beep', 0.0, 17023.602667284333, 0.0, 0.0, 0.0, 0.0, -53670.13706804956, 0.0]
['beep', 0.0, 18239.001123786107, 0.0, 0.0, 0.0, 0.0, -54489.84259245904, 0.0]
['beep', 0.0, 17882.155523557132, 0.0, 0.0, 0.0, 0.0, -54123.89983223675, 0.0]
['beep', 0.0, 16511.434794835426, 0.0, 0.0, 0.0, 0.0, -53106.001389742065, 0.0]
['beep', 0.0, 16083.04126060501, 0.0, 0.0, 0.0, 0.0, -52866.59185488127, 0.0]
['beep', 0.0, 17252.104550850934, 0.0, 0.0, 0.0, 0.0, -53762.96386277245, 0.0]
['beep', 0.0, 18472.286280666147, 0.0, 0.0, 0.0, 0.0, -54585.88803838349, 0.0]
['beep', 0.0, 18123.286142740984, 0.0, 0.0, 0.0, 0.0, -54226.76256022007, 0.0]
['beep', 0.0, 16751.6042890077, 0.0, 0.0, 0.0, 0.0, -53207.99239969163, 0.0]
['beep', 0.0, 16314.806498862088, 0.0, 0.0, 0.0, 0.0, -52962.123210683254, 0.0]
['beep', 0.0, 17479.22062626131, 0.0, 0.0, 0.0, 0.0, -53856.0141749399, 0.0]
['beep', 0.0, 18705.347920101634, 0.0, 0.0, 0.0, 0.0, -54683.989844797834, 0.0]
['beep', 0.0, 18366.49547415918, 0.0, 0.0, 0.0, 0.0, -54331.14520682636, 0.0]
['beep', 0.0, 16996.17707683767, 0.0, 0.0, 0.0, 0.0, -53312.50915676465, 0.0]
['beep', 0.0, 16551.712638343888, 0.0, 0.0, 0.0, 0.0, -53061.29790083145, 0.0]
['beep', 0.0, 17711.097623240665, 0.0, 0.0, 0.0, 0.0, -53952.327841797814, 0.0]
['beep', 0.0, 18941.583507249776, 0.0, 0.0, 0.0, 0.0, -54783.92449425751, 0.0]
['beep', 0.0, 18609.92832302193, 0.0, 0.0, 0.0, 0.0, -54436.15370227739, 0.0]
['beep', 0.0, 17237.799434399538, 0.0, 0.0, 0.0, 0.0, -53416.84709988202, 0.0]
['beep', 0.0, 16783.99196672344, 0.0, 0.0, 0.0, 0.0, -53160.047907834996, 0.0]
['beep', 0.0, 17935.844413738778, 0.0, 0.0, 0.0, 0.0, -54047.345107477326, 0.0]
['beep', 0.0, 19167.827864626393, 0.0, 0.0, 0.0, 0.0, -54882.80861172779, 0.0]
['beep', 0.0, 18842.833500246226, 0.0, 0.0, 0.0, 0.0, -54541.02808726169, 0.0]
['beep', 0.0, 17471.665736635416, 0.0, 0.0, 0.0, 0.0, -53521.11798776603, 0.0]
['beep', 0.0, 17010.54924852243, 0.0, 0.0, 0.0, 0.0, -53258.14971424934, 0.0]
['beep', 0.0, 18159.183044336205, 0.0, 0.0, 0.0, 0.0, -54142.67529757921, 0.0]
['beep', 0.0, 19398.98960578318, 0.0, 0.0, 0.0, 0.0, -54982.47504025401, 0.0]
['beep', 0.0, 19084.701726997107, 0.0, 0.0, 0.0, 0.0, -54648.137646691524, 0.0]
['beep', 0.0, 17716.03735876529, 0.0, 0.0, 0.0, 0.0, -53629.23337569635, 0.0]
['beep', 0.0, 17249.243527560655, 0.0, 0.0, 0.0, 0.0, -53360.36424164346, 0.0]
['beep', 0.0, 18393.87636111693, 0.0, 0.0, 0.0, 0.0, -54241.31354586048, 0.0]
['beep', 0.0, 19638.868527277533, 0.0, 0.0, 0.0, 0.0, -55084.82367811486, 0.0]
['beep', 0.0, 19333.923677673778, 0.0, 0.0, 0.0, 0.0, -54755.940110199466, 0.0]
['beep', 0.0, 17965.79575130889, 0.0, 0.0, 0.0, 0.0, -53736.00765895935, 0.0]
['beep', 0.0, 17490.70942291134, 0.0, 0.0, 0.0, 0.0, -53461.32707134808, 0.0]
['beep', 0.0, 18629.955486053885, 0.0, 0.0, 0.0, 0.0, -54338.81185517453, 0.0]
['beep', 0.0, 19879.954442972477, 0.0, 0.0, 0.0, 0.0, -55186.59117061987, 0.0]
['beep', 0.0, 19582.609186483525, 0.0, 0.0, 0.0, 0.0, -54862.982614395936, 0.0]
['beep', 0.0, 18215.107108963384, 0.0, 0.0, 0.0, 0.0, -53843.78777072284, 0.0]
['beep', 0.0, 17732.063559539743, 0.0, 0.0, 0.0, 0.0, -53563.496895253294, 0.0]
['beep', 0.0, 18864.73820981243, 0.0, 0.0, 0.0, 0.0, -54437.27128950015, 0.0]
['beep', 0.0, 20118.894591199707, 0.0, 0.0, 0.0, 0.0, -55288.8504015029, 0.0]
['beep', 0.0, 19830.624142959612, 0.0, 0.0, 0.0, 0.0, -54971.90266512665, 0.0]
['beep', 0.0, 18464.016135217684, 0.0, 0.0, 0.0, 0.0, -53951.65728946416, 0.0]
['beep', 0.0, 17973.26123395696, 0.0, 0.0, 0.0, 0.0, -53664.727945891376, 0.0]
['beep', 0.0, 19101.085555682846, 0.0, 0.0, 0.0, 0.0, -54535.19428195886, 0.0]
['beep', 0.0, 20359.712285961188, 0.0, 0.0, 0.0, 0.0, -55391.400205063845, 0.0]
['beep', 0.0, 20080.06961108084, 0.0, 0.0, 0.0, 0.0, -55081.13564027973, 0.0]
['beep', 0.0, 18713.863934739107, 0.0, 0.0, 0.0, 0.0, -54061.5608169509, 0.0]
['beep', 0.0, 18215.21886768566, 0.0, 0.0, 0.0, 0.0, -53769.35646168667, 0.0]
['beep', 0.0, 19337.030570153067, 0.0, 0.0, 0.0, 0.0, -54636.53709131922, 0.0]
['beep', 0.0, 20599.345338266532, 0.0, 0.0, 0.0, 0.0, -55495.82755515904, 0.0]
['beep', 0.0, 20326.11761404486, 0.0, 0.0, 0.0, 0.0, -55191.329740444395, 0.0]
['beep', 0.0, 18959.71077200303, 0.0, 0.0, 0.0, 0.0, -54172.04548979348, 0.0]
['beep', 0.0, 18452.773207756665, 0.0, 0.0, 0.0, 0.0, -53873.98497748196, 0.0]
['beep', 0.0, 19569.0193258547, 0.0, 0.0, 0.0, 0.0, -54736.89642392355, 0.0]
['beep', 0.0, 20836.60910565962, 0.0, 0.0, 0.0, 0.0, -55600.05373955414, 0.0]
['beep', 0.0, 20573.3055559761, 0.0, 0.0, 0.0, 0.0, -55302.14968945381, 0.0]
['beep', 0.0, 19208.440984301687, 0.0, 0.0, 0.0, 0.0, -54281.6137411134, 0.0]
['beep', 0.0, 18693.970882173882, 0.0, 0.0, 0.0, 0.0, -53976.91476069865, 0.0]
['beep', 0.0, 19805.9254653365, 0.0, 0.0, 0.0, 0.0, -54836.38403849412, 0.0]
['beep', 0.0, 21079.103181255243, 0.0, 0.0, 0.0, 0.0, -55702.35767392608, 0.0]
['beep', 0.0, 20824.40505318702, 0.0, 0.0, 0.0, 0.0, -55409.70628377274, 0.0]
['beep', 0.0, 19459.38401930142, 0.0, 0.0, 0.0, 0.0, -54389.99734997718, 0.0]
['beep', 0.0, 18935.928515902582, 0.0, 0.0, 0.0, 0.0, -54079.911599148705, 0.0]
['beep', 0.0, 20039.568250127824, 0.0, 0.0, 0.0, 0.0, -54936.028115275876, 0.0]
['beep', 0.0, 21314.51175385854, 0.0, 0.0, 0.0, 0.0, -55806.58385832117, 0.0]
['beep', 0.0, 21066.98853576047, 0.0, 0.0, 0.0, 0.0, -55520.86150894898, 0.0]
['beep', 0.0, 19702.32512978615, 0.0, 0.0, 0.0, 0.0, -54501.42079608689, 0.0]
['beep', 0.0, 19171.381791994787, 0.0, 0.0, 0.0, 0.0, -54185.478888211124, 0.0]
['beep', 0.0, 20271.087619195892, 0.0, 0.0, 0.0, 0.0, -55037.952069992076, 0.0]
['beep', 0.0, 21552.088445674, 0.0, 0.0, 0.0, 0.0, -55912.307609594776, 0.0]
['beep', 0.0, 21314.422346880718, 0.0, 0.0, 0.0, 0.0, -55632.463769014335, 0.0]
['beep', 0.0, 19952.08352232975, 0.0, 0.0, 0.0, 0.0, -54613.22422185233, 0.0]
['beep', 0.0, 19413.920571079325, 0.0, 0.0, 0.0, 0.0, -54291.64967437383, 0.0]
['beep', 0.0, 20506.898523199383, 0.0, 0.0, 0.0, 0.0, -55140.45717006412, 0.0]
['beep', 0.0, 21790.8944834345, 0.0, 0.0, 0.0, 0.0, -56018.5230992464, 0.0]
['beep', 0.0, 21560.7385707782, 0.0, 0.0, 0.0, 0.0, -55745.22831979136, 0.0]
['beep', 0.0, 20198.444449716146, 0.0, 0.0, 0.0, 0.0, -54726.860490663115, 0.0]
['beep', 0.0, 19649.038571004698, 0.0, 0.0, 0.0, 0.0, -54399.09450997049, 0.0]
['beep', 0.0, 20732.271162542245, 0.0, 0.0, 0.0, 0.0, -55243.476360258624, 0.0]
['beep', 0.0, 22018.435241989522, 0.0, 0.0, 0.0, 0.0, -56125.83382437633, 0.0]
['beep', 0.0, 21796.303605592682, 0.0, 0.0, 0.0, 0.0, -55859.71395489144, 0.0]
['beep', 0.0, 20433.42833917479, 0.0, 0.0, 0.0, 0.0, -54841.70375367448, 0.0]
['beep', 0.0, 19875.685259781512, 0.0, 0.0, 0.0, 0.0, -54507.79104325665, 0.0]
['beep', 0.0, 20954.71572336146, 0.0, 0.0, 0.0, 0.0, -55348.32839349847, 0.0]
['beep', 0.0, 22247.49591916751, 0.0, 0.0, 0.0, 0.0, -56234.21743324011, 0.0]
['beep', 0.0, 22036.54015499832, 0.0, 0.0, 0.0, 0.0, -55973.52903765786, 0.0]
['beep', 0.0, 20678.33640317159, 0.0, 0.0, 0.0, 0.0, -54955.56353992982, 0.0]
['beep', 0.0, 20116.033567909428, 0.0, 0.0, 0.0, 0.0, -54615.638210253506, 0.0]
['beep', 0.0, 21191.554807609893, 0.0, 0.0, 0.0, 0.0, -55452.711040104754, 0.0]
['beep', 0.0, 22490.079401740957, 0.0, 0.0, 0.0, 0.0, -56342.62339384835, 0.0]
['beep', 0.0, 22288.645480709733, 0.0, 0.0, 0.0, 0.0, -56088.77463206943, 0.0]
['beep', 0.0, 20931.89459227259, 0.0, 0.0, 0.0, 0.0, -55071.41263144167, 0.0]
['beep', 0.0, 20361.031038884048, 0.0, 0.0, 0.0, 0.0, -54725.809958673715, 0.0]
['beep', 0.0, 21428.975037214164, 0.0, 0.0, 0.0, 0.0, -55558.09951521153, 0.0]
['beep', 0.0, 22730.047730213133, 0.0, 0.0, 0.0, 0.0, -56451.297575390054, 0.0]
['beep', 0.0, 22535.3193325185, 0.0, 0.0, 0.0, 0.0, -56203.79670903644, 0.0]
['beep', 0.0, 21177.406153369684, 0.0, 0.0, 0.0, 0.0, -55186.59117061987, 0.0]
['beep', 0.0, 20596.976053354272, 0.0, 0.0, 0.0, 0.0, -54834.95352684898, 0.0]
['beep', 0.0, 21657.879252180966, 0.0, 0.0, 0.0, 0.0, -55663.353879851566, 0.0]
['beep', 0.0, 22962.237651614865, 0.0, 0.0, 0.0, 0.0, -56559.54707378711, 0.0]
['beep', 0.0, 22776.405248213443, 0.0, 0.0, 0.0, 0.0, -56318.3941028588, 0.0]
['beep', 0.0, 21420.369615598873, 0.0, 0.0, 0.0, 0.0, -55301.725006309156, 0.0]
['beep', 0.0, 20833.70337888043, 0.0, 0.0, 0.0, 0.0, -54944.63353689117, 0.0]
['beep', 0.0, 21889.935063115965, 0.0, 0.0, 0.0, 0.0, -55769.39055554754, 0.0]
['beep', 0.0, 23200.239026574975, 0.0, 0.0, 0.0, 0.0, -56670.03174662969, 0.0]
['beep', 0.0, 23024.42020468953, 0.0, 0.0, 0.0, 0.0, -56435.13726414886, 0.0]
['beep', 0.0, 21671.156188387416, 0.0, 0.0, 0.0, 0.0, -55419.54105133308, 0.0]
['beep', 0.0, 21078.432628921586, 0.0, 0.0, 0.0, 0.0, -55057.263977201466, 0.0]
['beep', 0.0, 22130.03750205487, 0.0, 0.0, 0.0, 0.0, -55878.44471674499, 0.0]
['beep', 0.0, 23445.37060801633, 0.0, 0.0, 0.0, 0.0, -56782.84100089563, 0.0]
['beep', 0.0, 23279.297146713394, 0.0, 0.0, 0.0, 0.0, -56554.29441384011, 0.0]
['beep', 0.0, 21928.24595311236, 0.0, 0.0, 0.0, 0.0, -55537.89353822393, 0.0]
['beep', 0.0, 21326.715806331136, 0.0, 0.0, 0.0, 0.0, -55167.905112255234, 0.0]
['beep', 0.0, 22370.296403204968, 0.0, 0.0, 0.0, 0.0, -55984.34728197423, 0.0]
['beep', 0.0, 23688.199959778784, 0.0, 0.0, 0.0, 0.0, -56891.78340337079, 0.0]
['beep', 0.0, 23529.301408446005, 0.0, 0.0, 0.0, 0.0, -56670.23291232979, 0.0]
['beep', 0.0, 22177.736124722498, 0.0, 0.0, 0.0, 0.0, -55654.81551346964, 0.0]
['beep', 0.0, 21567.60055632598, 0.0, 0.0, 0.0, 0.0, -55279.52972406504, 0.0]
['beep', 0.0, 22606.04025197509, 0.0, 0.0, 0.0, 0.0, -56092.954408282574, 0.0]
['beep', 0.0, 23928.883544073527, 0.0, 0.0, 0.0, 0.0, -57003.69858785851, 0.0]
['beep', 0.0, 23778.880987033965, 0.0, 0.0, 0.0, 0.0, -56787.221942808865, 0.0]
['beep', 0.0, 22429.77439520054, 0.0, 0.0, 0.0, 0.0, -55772.16217186001, 0.0]
['beep', 0.0, 21814.4979255793, 0.0, 0.0, 0.0, 0.0, -55391.57901901949, 0.0]
['beep', 0.0, 22848.131996170523, 0.0, 0.0, 0.0, 0.0, -56201.382720635265, 0.0]
['beep', 0.0, 24174.03747725934, 0.0, 0.0, 0.0, 0.0, -57116.17256595762, 0.0]
['beep', 0.0, 24032.23801043487, 0.0, 0.0, 0.0, 0.0, -56906.7814239003, 0.0]
['beep', 0.0, 22684.62898547995, 0.0, 0.0, 0.0, 0.0, -55892.526315751835, 0.0]
['beep', 0.0, 22059.27187910937, 0.0, 0.0, 0.0, 0.0, -55505.68467446383, 0.0]
['beep', 0.0, 23083.741734473915, 0.0, 0.0, 0.0, 0.0, -56310.168660899246, 0.0]
['beep', 0.0, 24412.530590597464, 0.0, 0.0, 0.0, 0.0, -57227.81952951188, 0.0]
['beep', 0.0, 24279.314193643833, 0.0, 0.0, 0.0, 0.0, -57024.88804160214, 0.0]
['beep', 0.0, 22933.29214254524, 0.0, 0.0, 0.0, 0.0, -56011.66111369862, 0.0]
['beep', 0.0, 22301.587140749354, 0.0, 0.0, 0.0, 0.0, -55619.656219441444, 0.0]
['beep', 0.0, 23321.452536756104, 0.0, 0.0, 0.0, 0.0, -56419.73691221916, 0.0]
['beep', 0.0, 24656.16460516031, 0.0, 0.0, 0.0, 0.0, -57341.2322808781, 0.0]
['beep', 0.0, 24533.542935078494, 0.0, 0.0, 0.0, 0.0, -57145.34159247179, 0.0]
['beep', 0.0, 23190.6724799481, 0.0, 0.0, 0.0, 0.0, -56133.63458319123, 0.0]
['beep', 0.0, 22551.881975159882, 0.0, 0.0, 0.0, 0.0, -55736.08645630914, 0.0]
['beep', 0.0, 23565.868862374886, 0.0, 0.0, 0.0, 0.0, -56532.56851822955, 0.0]
['beep', 0.0, 24905.006576181244, 0.0, 0.0, 0.0, 0.0, -57457.2601863456, 0.0]
['beep', 0.0, 24790.587996314527, 0.0, 0.0, 0.0, 0.0, -57266.77862009747, 0.0]
['beep', 0.0, 23448.6339627068, 0.0, 0.0, 0.0, 0.0, -56254.937500350185, 0.0]
['beep', 0.0, 22801.99799561477, 0.0, 0.0, 0.0, 0.0, -55851.22029199843, 0.0]
['beep', 0.0, 23807.93825482586, 0.0, 0.0, 0.0, 0.0, -56642.986135838764, 0.0]
['beep', 0.0, 25147.902983177064, 0.0, 0.0, 0.0, 0.0, -57570.18119933381, 0.0]
['beep', 0.0, 25040.61460979159, 0.0, 0.0, 0.0, 0.0, -57385.645197110796, 0.0]
['beep', 0.0, 23700.336957018015, 0.0, 0.0, 0.0, 0.0, -56375.14518203082, 0.0]
['beep', 0.0, 23046.70489391147, 0.0, 0.0, 0.0, 0.0, -55965.6612236096, 0.0]
['beep', 0.0, 24047.884231553584, 0.0, 0.0, 0.0, 0.0, -56754.52134067075, 0.0]
['beep', 0.0, 25393.45924776307, 0.0, 0.0, 0.0, 0.0, -57686.07499433458, 0.0]
['beep', 0.0, 25297.324394860792, 0.0, 0.0, 0.0, 0.0, -57508.84801254845, 0.0]
['beep', 0.0, 23959.84071014413, 0.0, 0.0, 0.0, 0.0, -56498.83973584649, 0.0]
['beep', 0.0, 23299.100792300796, 0.0, 0.0, 0.0, 0.0, -56084.281931433914, 0.0]
['beep', 0.0, 24294.871007784728, 0.0, 0.0, 0.0, 0.0, -56867.97879552589, 0.0]
['beep', 0.0, 25644.89402114082, 0.0, 0.0, 0.0, 0.0, -57801.9911410798, 0.0]
['beep', 0.0, 25557.38694159829, 0.0, 0.0, 0.0, 0.0, -57630.93324076334, 0.0]
['beep', 0.0, 24222.1160795827, 0.0, 0.0, 0.0, 0.0, -56622.087254773054, 0.0]
['beep', 0.0, 23554.51417619159, 0.0, 0.0, 0.0, 0.0, -56202.1650316912, 0.0]
['beep', 0.0, 24543.511813105564, 0.0, 0.0, 0.0, 0.0, -56981.9503405035, 0.0]
['beep', 0.0, 25897.245216041236, 0.0, 0.0, 0.0, 0.0, -57919.69542738145, 0.0]
['beep', 0.0, 25818.120040669448, 0.0, 0.0, 0.0, 0.0, -57755.4324573794, 0.0]
['beep', 0.0, 24484.592614721372, 0.0, 0.0, 0.0, 0.0, -56747.88287256753, 0.0]
['beep', 0.0, 23810.262836249214, 0.0, 0.0, 0.0, 0.0, -56322.30565813847, 0.0]
['beep', 0.0, 24792.91257773788, 0.0, 0.0, 0.0, 0.0, -57097.687673293076, 0.0]
['beep', 0.0, 26150.646942931053, 0.0, 0.0, 0.0, 0.0, -58038.13732125012, 0.0]
['beep', 0.0, 26082.183549664445, 0.0, 0.0, 0.0, 0.0, -57880.06578446219, 0.0]
['beep', 0.0, 24751.22657432873, 0.0, 0.0, 0.0, 0.0, -56872.29268220576, 0.0]
['beep', 0.0, 24069.788941119783, 0.0, 0.0, 0.0, 0.0, -56440.747552007146, 0.0]
['beep', 0.0, 25046.828394750166, 0.0, 0.0, 0.0, 0.0, -57212.128604904254, 0.0]
['beep', 0.0, 26407.669652422628, 0.0, 0.0, 0.0, 0.0, -58156.19923546306, 0.0]
['beep', 0.0, 26346.73879703746, 0.0, 0.0, 0.0, 0.0, -58004.967332478445, 0.0]
['beep', 0.0, 25017.36879555807, 0.0, 0.0, 0.0, 0.0, -56999.116480245175, 0.0]
['beep', 0.0, 24328.19745876759, 0.0, 0.0, 0.0, 0.0, -56562.51985579966, 0.0]
['beep', 0.0, 25297.793781494354, 0.0, 0.0, 0.0, 0.0, -57329.45291155016, 0.0]
['beep', 0.0, 26661.786635135013, 0.0, 0.0, 0.0, 0.0, -58276.16104795469, 0.0]
['beep', 0.0, 26609.952939743154, 0.0, 0.0, 0.0, 0.0, -58130.76295027292, 0.0]
['beep', 0.0, 25282.52754003138, 0.0, 0.0, 0.0, 0.0, -57125.42618816211, 0.0]
['beep', 0.0, 24584.750781625604, 0.0, 0.0, 0.0, 0.0, -56682.21344735783, 0.0]
['beep', 0.0, 25547.596877526867, 0.0, 0.0, 0.0, 0.0, -57444.47498851717, 0.0]
['beep', 0.0, 26915.61304516948, 0.0, 0.0, 0.0, 0.0, -58394.96056973465, 0.0]
['beep', 0.0, 26872.31771615955, 0.0, 0.0, 0.0, 0.0, -58256.647975045205, 0.0]
['beep', 0.0, 25546.72515949311, 0.0, 0.0, 0.0, 0.0, -57253.05464900192, 0.0]
['beep', 0.0, 24842.376988217475, 0.0, 0.0, 0.0, 0.0, -56804.52219301727, 0.0]
['beep', 0.0, 25797.82465670403, 0.0, 0.0, 0.0, 0.0, -57561.86635039644, 0.0]
['beep', 0.0, 27167.5619086697, 0.0, 0.0, 0.0, 0.0, -58515.39176885984, 0.0]
['beep', 0.0, 27131.642655330023, 0.0, 0.0, 0.0, 0.0, -58383.248255640065, 0.0]
['beep', 0.0, 25807.72647949773, 0.0, 0.0, 0.0, 0.0, -57379.78904006351, 0.0]
['beep', 0.0, 25093.923520317498, 0.0, 0.0, 0.0, 0.0, -56925.422778776025, 0.0]
['beep', 0.0, 26040.67636021094, 0.0, 0.0, 0.0, 0.0, -57677.80484888612, 0.0]
['beep', 0.0, 27414.012243033918, 0.0, 0.0, 0.0, 0.0, -58633.90071796188, 0.0]
['beep', 0.0, 27387.167797943093, 0.0, 0.0, 0.0, 0.0, -58508.37332110087, 0.0]
['beep', 0.0, 26064.63743026703, 0.0, 0.0, 0.0, 0.0, -57506.99281775866, 0.0]
['beep', 0.0, 25343.59250588328, 0.0, 0.0, 0.0, 0.0, -57047.48565524646, 0.0]
['beep', 0.0, 26283.952746862502, 0.0, 0.0, 0.0, 0.0, -57795.665597398955, 0.0]
['beep', 0.0, 27660.41787390922, 0.0, 0.0, 0.0, 0.0, -58755.158931631915, 0.0]
['beep', 0.0, 27643.60936207883, 0.0, 0.0, 0.0, 0.0, -58636.44881682978, 0.0]
['beep', 0.0, 26325.39288108264, 0.0, 0.0, 0.0, 0.0, -57636.275307688156, 0.0]
['beep', 0.0, 25599.318814196446, 0.0, 0.0, 0.0, 0.0, -57171.291967784404, 0.0]
['beep', 0.0, 26534.694616162138, 0.0, 0.0, 0.0, 0.0, -57915.09096802366, 0.0]
['beep', 0.0, 27914.89248453289, 0.0, 0.0, 0.0, 0.0, -58877.53473252473, 0.0]
['beep', 0.0, 27907.337594907, 0.0, 0.0, 0.0, 0.0, -58765.06075442562, 0.0]
['beep', 0.0, 26591.110419167333, 0.0, 0.0, 0.0, 0.0, -57765.736611573295, 0.0]
['beep', 0.0, 25856.855613810494, 0.0, 0.0, 0.0, 0.0, -57295.813536144924, 0.0]
['beep', 0.0, 26785.05650580603, 0.0, 0.0, 0.0, 0.0, -58035.61157412668, 0.0]
['beep', 0.0, 28168.182452700432, 0.0, 0.0, 0.0, 0.0, -59000.37992005109, 0.0]
['beep', 0.0, 28168.361266656077, 0.0, 0.0, 0.0, 0.0, -58893.516229810266, 0.0]
['beep', 0.0, 26854.570431062035, 0.0, 0.0, 0.0, 0.0, -57895.622598603084, 0.0]
['beep', 0.0, 26114.30300644672, 0.0, 0.0, 0.0, 0.0, -57419.99982833861, 0.0]
['beep', 0.0, 27036.983017561797, 0.0, 0.0, 0.0, 0.0, -58154.589909862276, 0.0]
['beep', 0.0, 28423.9087610136, 0.0, 0.0, 0.0, 0.0, -59122.532203499344, 0.0]
['beep', 0.0, 28433.67647334057, 0.0, 0.0, 0.0, 0.0, -59022.575202295215, 0.0]
['beep', 0.0, 27122.590198825623, 0.0, 0.0, 0.0, 0.0, -58025.3968269106, 0.0]
['beep', 0.0, 26375.103160751245, 0.0, 0.0, 0.0, 0.0, -57543.33675424299, 0.0]
['beep', 0.0, 27290.87648282963, 0.0, 0.0, 0.0, 0.0, -58273.501190364506, 0.0]
['beep', 0.0, 28681.266746672005, 0.0, 0.0, 0.0, 0.0, -59243.61160321374, 0.0]
['beep', 0.0, 28700.265729459017, 0.0, 0.0, 0.0, 0.0, -59149.46605556799, 0.0]
['beep', 0.0, 27391.816960789798, 0.0, 0.0, 0.0, 0.0, -58153.60643310624, 0.0]
['beep', 0.0, 26638.384358690306, 0.0, 0.0, 0.0, 0.0, -57667.165418525394, 0.0]
['beep', 0.0, 27548.25682023249, 0.0, 0.0, 0.0, 0.0, -58393.06067145595, 0.0]
['beep', 0.0, 28940.994017242676, 0.0, 0.0, 0.0, 0.0, -59366.255625040016, 0.0]
['beep', 0.0, 28966.787930344097, 0.0, 0.0, 0.0, 0.0, -59279.26263561996, 0.0]
['beep', 0.0, 27660.015542509027, 0.0, 0.0, 0.0, 0.0, -58285.43702190364, 0.0]
['beep', 0.0, 26899.028050783643, 0.0, 0.0, 0.0, 0.0, -57794.72682413183, 0.0]
['beep', 0.0, 27801.166808744292, 0.0, 0.0, 0.0, 0.0, -58516.48700433815, 0.0]
['beep', 0.0, 29196.58621508911, 0.0, 0.0, 0.0, 0.0, -59492.27476027903, 0.0]
['beep', 0.0, 29232.036081795228, 0.0, 0.0, 0.0, 0.0, -59411.540259306465, 0.0]
['beep', 0.0, 27928.012958528157, 0.0, 0.0, 0.0, 0.0, -58418.787529324, 0.0]
['beep', 0.0, 27160.454053932914, 0.0, 0.0, 0.0, 0.0, -57921.88589833807, 0.0]
['beep', 0.0, 28057.071931013103, 0.0, 0.0, 0.0, 0.0, -58639.15337790888, 0.0]
['beep', 0.0, 29456.045264726316, 0.0, 0.0, 0.0, 0.0, -59618.13743330687, 0.0]
['beep', 0.0, 29500.74875363693, 0.0, 0.0, 0.0, 0.0, -59544.28726962653, 0.0]
['beep', 0.0, 28200.324261227164, 0.0, 0.0, 0.0, 0.0, -58553.36738268941, 0.0]
['beep', 0.0, 27425.27752223939, 0.0, 0.0, 0.0, 0.0, -58050.43078070054, 0.0]
['beep', 0.0, 28312.2841492038, 0.0, 0.0, 0.0, 0.0, -58762.579710791084, 0.0]
['beep', 0.0, 29713.179732940167, 0.0, 0.0, 0.0, 0.0, -59744.15656854589, 0.0]
['beep', 0.0, 29766.354532999343, 0.0, 0.0, 0.0, 0.0, -59676.56489331304, 0.0]
['beep', 0.0, 28468.366380735206, 0.0, 0.0, 0.0, 0.0, -58686.82964883205, 0.0]
['beep', 0.0, 27686.56941492193, 0.0, 0.0, 0.0, 0.0, -58178.729793874, 0.0]
['beep', 0.0, 28567.541070883402, 0.0, 0.0, 0.0, 0.0, -58885.98369192883, 0.0]
['beep', 0.0, 29971.118863954413, 0.0, 0.0, 0.0, 0.0, -59869.6839654069, 0.0]
['beep', 0.0, 30032.9884926067, 0.0, 0.0, 0.0, 0.0, -59807.68022628787, 0.0]
['beep', 0.0, 28737.213163043638, 0.0, 0.0, 0.0, 0.0, -58818.4814236738, 0.0]
['beep', 0.0, 27948.375397726944, 0.0, 0.0, 0.0, 0.0, -58305.19596400213, 0.0]
['beep', 0.0, 28823.04386175202, 0.0, 0.0, 0.0, 0.0, -59008.13597537708, 0.0]
['beep', 0.0, 30230.39909963597, 0.0, 0.0, 0.0, 0.0, -59994.89843784553, 0.0]
['beep', 0.0, 30300.650632459005, 0.0, 0.0, 0.0, 0.0, -59940.15901567448, 0.0]
['beep', 0.0, 29006.596387219, 0.0, 0.0, 0.0, 0.0, -58953.39655320604, 0.0]
['beep', 0.0, 28209.82375262067, 0.0, 0.0, 0.0, 0.0, -58435.08195103192, 0.0]
['beep', 0.0, 29075.41740839689, 0.0, 0.0, 0.0, 0.0, -59133.238689093436, 0.0]
['beep', 0.0, 30482.21385266946, 0.0, 0.0, 0.0, 0.0, -60122.48219519642, 0.0]
['beep', 0.0, 30559.014446617897, 0.0, 0.0, 0.0, 0.0, -60074.291834150776, 0.0]
['beep', 0.0, 29266.79304442323, 0.0, 0.0, 0.0, 0.0, -59088.714014138466, 0.0]
['beep', 0.0, 28463.33723823276, 0.0, 0.0, 0.0, 0.0, -58565.68319388428, 0.0]
['beep', 0.0, 29322.158315439025, 0.0, 0.0, 0.0, 0.0, -59259.30252782137, 0.0]
['beep', 0.0, 30732.732204524542, 0.0, 0.0, 0.0, 0.0, -60250.960022325526, 0.0]
['beep', 0.0, 30820.619263722812, 0.0, 0.0, 0.0, 0.0, -60208.804632282816, 0.0]
['beep', 0.0, 29533.13643135267, 0.0, 0.0, 0.0, 0.0, -59225.43963497158, 0.0]
['beep', 0.0, 28723.869171603823, 0.0, 0.0, 0.0, 0.0, -58697.223210003765, 0.0]
['beep', 0.0, 29577.415237118632, 0.0, 0.0, 0.0, 0.0, -59386.26043632752, 0.0]
['beep', 0.0, 30992.07949543947, 0.0, 0.0, 0.0, 0.0, -60380.980119822045, 0.0]
['beep', 0.0, 31089.264880331146, 0.0, 0.0, 0.0, 0.0, -60346.06669498285, 0.0]
['beep', 0.0, 29804.75482997356, 0.0, 0.0, 0.0, 0.0, -59363.84163663884, 0.0]
['beep', 0.0, 28989.005564332674, 0.0, 0.0, 0.0, 0.0, -58829.612592412544, 0.0]
['beep', 0.0, 29834.34853963239, 0.0, 0.0, 0.0, 0.0, -59513.35245530039, 0.0]
['beep', 0.0, 31249.28101888669, 0.0, 0.0, 0.0, 0.0, -60509.480298695606, 0.0]
['beep', 0.0, 31353.06016839268, 0.0, 0.0, 0.0, 0.0, -60480.959472770635, 0.0]
['beep', 0.0, 30069.779463980136, 0.0, 0.0, 0.0, 0.0, -59500.99194061661, 0.0]
['beep', 0.0, 29245.871811613062, 0.0, 0.0, 0.0, 0.0, -58961.8678643546, 0.0]
['beep', 0.0, 30085.11276067648, 0.0, 0.0, 0.0, 0.0, -59641.8749859184, 0.0]
['beep', 0.0, 31505.029678944313, 0.0, 0.0, 0.0, 0.0, -60641.82497761548, 0.0]
['beep', 0.0, 31619.69412800004, 0.0, 0.0, 0.0, 0.0, -60620.4567099162, 0.0]
['beep', 0.0, 30342.157821912508, 0.0, 0.0, 0.0, 0.0, -59643.05962837454, 0.0]
['beep', 0.0, 29512.88575087616, 0.0, 0.0, 0.0, 0.0, -59099.73342415493, 0.0]
['beep', 0.0, 30345.197659158428, 0.0, 0.0, 0.0, 0.0, -59774.59964449402, 0.0]
['beep', 0.0, 31767.48386233853, 0.0, 0.0, 0.0, 0.0, -60776.22601702524, 0.0]
['beep', 0.0, 31890.574919053906, 0.0, 0.0, 0.0, 0.0, -60760.579795906524, 0.0]
['beep', 0.0, 30615.81022927883, 0.0, 0.0, 0.0, 0.0, -59784.18854286535, 0.0]
['beep', 0.0, 29779.47500699461, 0.0, 0.0, 0.0, 0.0, -59234.603850198255, 0.0]
['beep', 0.0, 30604.187322162074, 0.0, 0.0, 0.0, 0.0, -59904.262114079254, 0.0]
['beep', 0.0, 32029.62512131037, 0.0, 0.0, 0.0, 0.0, -60908.41423373392, 0.0]
['beep', 0.0, 32162.483890352716, 0.0, 0.0, 0.0, 0.0, -60899.09355629606, 0.0]
['beep', 0.0, 30890.691982590197, 0.0, 0.0, 0.0, 0.0, -59924.37868408903, 0.0]
['beep', 0.0, 30047.383016035918, 0.0, 0.0, 0.0, 0.0, -59370.167180319695, 0.0]
['beep', 0.0, 30863.512261332544, 0.0, 0.0, 0.0, 0.0, -60034.84100518716, 0.0]
['beep', 0.0, 32287.608955813525, 0.0, 0.0, 0.0, 0.0, -61040.98243009835, 0.0]
['beep', 0.0, 32425.6533295695, 0.0, 0.0, 0.0, 0.0, -61038.38962774153, 0.0]
['beep', 0.0, 31155.56015438559, 0.0, 0.0, 0.0, 0.0, -60066.31226138023, 0.0]
['beep', 0.0, 30305.679774961445, 0.0, 0.0, 0.0, 0.0, -59506.87044940835, 0.0]
['beep', 0.0, 31116.31049112207, 0.0, 0.0, 0.0, 0.0, -60166.917463173566, 0.0]
['beep', 0.0, 32545.63749380559, 0.0, 0.0, 0.0, 0.0, -61175.24935904138, 0.0]
['beep', 0.0, 32695.438885145057, 0.0, 0.0, 0.0, 0.0, -61177.88686488711, 0.0]
['beep', 0.0, 31431.42538445299, 0.0, 0.0, 0.0, 0.0, -60206.99414098194, 0.0]
['beep', 0.0, 30575.688847981557, 0.0, 0.0, 0.0, 0.0, -59642.0761516185, 0.0]
['beep', 0.0, 31379.79285476123, 0.0, 0.0, 0.0, 0.0, -60297.67516823712, 0.0]
['beep', 0.0, 32811.93617724612, 0.0, 0.0, 0.0, 0.0, -61308.8680873952, 0.0]
['beep', 0.0, 32970.70061811216, 0.0, 0.0, 0.0, 0.0, -61318.524040999895, 0.0]
['beep', 0.0, 50875.65492101371, 0.0, 0.0, 0.0, 0.0, -70844.5246034294, 0.0]
['beep', 0.0, 49676.72970017549, 0.0, 0.0, 0.0, 0.0, -70002.48968630907, 0.0]
['beep', 0.0, 49955.88063667782, 0.0, 0.0, 0.0, 0.0, -70289.55314034858, 0.0]
['beep', 0.0, 51419.83049152261, 0.0, 0.0, 0.0, 0.0, -71364.13560678191, 0.0]
['beep', 0.0, 52133.924023380765, 0.0, 0.0, 0.0, 0.0, -71791.88094042313, 0.0]
['beep', 0.0, 51197.72120687023, 0.0, 0.0, 0.0, 0.0, -71030.9158004422, 0.0]
['beep', 0.0, 49995.30911389698, 0.0, 0.0, 0.0, 0.0, -70185.19284548674, 0.0]
['beep', 0.0, 50266.502829373225, 0.0, 0.0, 0.0, 0.0, -70465.77429363421, 0.0]
['beep', 0.0, 51728.508082450404, 0.0, 0.0, 0.0, 0.0, -71539.641504245, 0.0]
['beep', 0.0, 52449.50830334525, 0.0, 0.0, 0.0, 0.0, -71973.82414028933, 0.0]
['beep', 0.0, 51518.17816712597, 0.0, 0.0, 0.0, 0.0, -71216.92701779926, 0.0]
['beep', 0.0, 50310.84869037255, 0.0, 0.0, 0.0, 0.0, -70367.85130117551, 0.0]
['beep', 0.0, 50572.90054236657, 0.0, 0.0, 0.0, 0.0, -70642.6212957646, 0.0]
['beep', 0.0, 52034.21289136564, 0.0, 0.0, 0.0, 0.0, -71716.06382323072, 0.0]
['beep', 0.0, 52764.33262399824, 0.0, 0.0, 0.0, 0.0, -72155.76734015552, 0.0]
['beep', 0.0, 51840.55737740486, 0.0, 0.0, 0.0, 0.0, -71403.58643574553, 0.0]
['beep', 0.0, 50630.45628433899, 0.0, 0.0, 0.0, 0.0, -70551.56028885368, 0.0]
['beep', 0.0, 50884.0591769289, 0.0, 0.0, 0.0, 0.0, -70820.74234732895, 0.0]
['beep', 0.0, 52343.158703226894, 0.0, 0.0, 0.0, 0.0, -71894.60955793972, 0.0]
['beep', 0.0, 53079.55927605144, 0.0, 0.0, 0.0, 0.0, -72340.41510110082, 0.0]
['beep', 0.0, 52162.04251790554, 0.0, 0.0, 0.0, 0.0, -71591.98928975932, 0.0]
['beep', 0.0, 50948.52160793801, 0.0, 0.0, 0.0, 0.0, -70737.16917481055, 0.0]
['beep', 0.0, 51193.832003335, 0.0, 0.0, 0.0, 0.0, -71000.20450356061, 0.0]
['beep', 0.0, 52650.271672042814, 0.0, 0.0, 0.0, 0.0, -72073.44586532663, 0.0]
['beep', 0.0, 53392.841326337024, 0.0, 0.0, 0.0, 0.0, -72525.08521379056, 0.0]
['beep', 0.0, 52479.839620571096, 0.0, 0.0, 0.0, 0.0, -71781.48737925141, 0.0]
['beep', 0.0, 51261.69189950132, 0.0, 0.0, 0.0, 0.0, -70923.67213054563, 0.0]
['beep', 0.0, 51499.00037038331, 0.0, 0.0, 0.0, 0.0, -71181.0971714374, 0.0]
['beep', 0.0, 52955.82001874686, 0.0, 0.0, 0.0, 0.0, -72254.27147797006, 0.0]
['beep', 0.0, 53708.11268187913, 0.0, 0.0, 0.0, 0.0, -72712.72810849287, 0.0]
['beep', 0.0, 52803.44817679503, 0.0, 0.0, 0.0, 0.0, -71973.04182923339, 0.0]
['beep', 0.0, 51582.327673712694, 0.0, 0.0, 0.0, 0.0, -71110.62212116983, 0.0]
['beep', 0.0, 51810.58368809029, 0.0, 0.0, 0.0, 0.0, -71361.341638725, 0.0]
['beep', 0.0, 53266.39750795335, 0.0, 0.0, 0.0, 0.0, -72442.36140756148, 0.0]
['beep', 0.0, 54026.714447345075, 0.0, 0.0, 0.0, 0.0, -72936.80434665733, 0.0]
['beep', 0.0, 53128.06256151946, 0.0, 0.0, 0.0, 0.0, -72160.66237219123, 0.0]
['beep', 0.0, 51902.874040946255, 0.0, 0.0, 0.0, 0.0, -71282.52938777559, 0.0]
['beep', 0.0, 52122.390523241826, 0.0, 0.0, 0.0, 0.0, -71527.50450700575, 0.0]
['beep', 0.0, 53574.046918636195, 0.0, 0.0, 0.0, 0.0, -72619.40957539197, 0.0]
['beep', 0.0, 54337.49310225167, 0.0, 0.0, 0.0, 0.0, -73120.87096224677, 0.0]
['beep', 0.0, 53442.126922860974, 0.0, 0.0, 0.0, 0.0, -72339.69984527824, 0.0]
['beep', 0.0, 52213.20566096374, 0.0, 0.0, 0.0, 0.0, -71445.67477055488, 0.0]
['beep', 0.0, 52425.25666061124, 0.0, 0.0, 0.0, 0.0, -71686.47011357191, 0.0]
['beep', 0.0, 53877.09186996125, 0.0, 0.0, 0.0, 0.0, -72789.61810941913, 0.0]
['beep', 0.0, 54651.31159440418, 0.0, 0.0, 0.0, 0.0, -73288.12906600584, 0.0]
['beep', 0.0, 53764.81905756224, 0.0, 0.0, 0.0, 0.0, -72512.76940259569, 0.0]
['beep', 0.0, 52533.68497296393, 0.0, 0.0, 0.0, 0.0, -71603.79101083172, 0.0]
['beep', 0.0, 52737.55523414078, 0.0, 0.0, 0.0, 0.0, -71838.08199621225, 0.0]
['beep', 0.0, 54187.04351032299, 0.0, 0.0, 0.0, 0.0, -72945.25330606142, 0.0]
['beep', 0.0, 54968.393441247164, 0.0, 0.0, 0.0, 0.0, -73441.81966088053, 0.0]
['beep', 0.0, 54086.214791085105, 0.0, 0.0, 0.0, 0.0, -72676.11595107507, 0.0]
['beep', 0.0, 52849.33630816178, 0.0, 0.0, 0.0, 0.0, -71757.01221907284, 0.0]
['beep', 0.0, 53042.63419421127, 0.0, 0.0, 0.0, 0.0, -71986.40817241766, 0.0]
['beep', 0.0, 54488.43443255835, 0.0, 0.0, 0.0, 0.0, -73096.99929916851, 0.0]
['beep', 0.0, 55274.43352632922, 0.0, 0.0, 0.0, 0.0, -73592.49277025375, 0.0]
['beep', 0.0, 54398.558068103564, 0.0, 0.0, 0.0, 0.0, -72837.22732510894, 0.0]
['beep', 0.0, 53159.44441073471, 0.0, 0.0, 0.0, 0.0, -71907.43945925706, 0.0]
['beep', 0.0, 53346.08147693652, 0.0, 0.0, 0.0, 0.0, -72129.72755786509, 0.0]
['beep', 0.0, 54792.574619361716, 0.0, 0.0, 0.0, 0.0, -73241.4362718387, 0.0]
['beep', 0.0, 55589.43666093787, 0.0, 0.0, 0.0, 0.0, -73736.66152199049, 0.0]
['beep', 0.0, 54721.94310688294, 0.0, 0.0, 0.0, 0.0, -72991.20849266154, 0.0]
['beep', 0.0, 53481.19777216885, 0.0, 0.0, 0.0, 0.0, -72055.34095231783, 0.0]
['beep', 0.0, 53660.86109410061, 0.0, 0.0, 0.0, 0.0, -72271.95170783422, 0.0]
['beep', 0.0, 55105.409634758194, 0.0, 0.0, 0.0, 0.0, -73382.9228142408, 0.0]
['beep', 0.0, 55907.837260703716, 0.0, 0.0, 0.0, 0.0, -73878.34923009267, 0.0]
['beep', 0.0, 55045.99869799599, 0.0, 0.0, 0.0, 0.0, -73141.76984331249, 0.0]
['beep', 0.0, 53800.58184869074, 0.0, 0.0, 0.0, 0.0, -72200.60493953287, 0.0]
['beep', 0.0, 53969.5386850284, 0.0, 0.0, 0.0, 0.0, -72410.39841299038, 0.0]
['beep', 0.0, 55411.29325762907, 0.0, 0.0, 0.0, 0.0, -73518.1508681954, 0.0]
['beep', 0.0, 56221.588697622865, 0.0, 0.0, 0.0, 0.0, -74014.82898173678, 0.0]
['beep', 0.0, 55365.9192163848, 0.0, 0.0, 0.0, 0.0, -73287.5032171611, 0.0]
['beep', 0.0, 54117.171957155704, 0.0, 0.0, 0.0, 0.0, -72345.24307790317, 0.0]
['beep', 0.0, 54279.222104456676, 0.0, 0.0, 0.0, 0.0, -72545.53705996717, 0.0]
['beep', 0.0, 55720.52964216824, 0.0, 0.0, 0.0, 0.0, -73648.32742790312, 0.0]
['beep', 0.0, 56539.89989041089, 0.0, 0.0, 0.0, 0.0, -74147.33012286785, 0.0]
['beep', 0.0, 55693.5957900996, 0.0, 0.0, 0.0, 0.0, -73427.31337872904, 0.0]
['beep', 0.0, 54443.19450178081, 0.0, 0.0, 0.0, 0.0, -72486.68491681635, 0.0]
['beep', 0.0, 54596.77333793323, 0.0, 0.0, 0.0, 0.0, -72675.73597141933, 0.0]
['beep', 0.0, 56034.61635525422, 0.0, 0.0, 0.0, 0.0, -73772.24549916333, 0.0]
['beep', 0.0, 56858.948690765945, 0.0, 0.0, 0.0, 0.0, -74274.82447324091, 0.0]
['beep', 0.0, 56016.2208695675, 0.0, 0.0, 0.0, 0.0, -73560.30625823811, 0.0]
['beep', 0.0, 54759.82931373469, 0.0, 0.0, 0.0, 0.0, -72621.4882876263, 0.0]
['beep', 0.0, 54903.9086584936, 0.0, 0.0, 0.0, 0.0, -72804.437315993, 0.0]
['beep', 0.0, 56340.03059149154, 0.0, 0.0, 0.0, 0.0, -73891.71557327695, 0.0]
['beep', 0.0, 57172.72247942955, 0.0, 0.0, 0.0, 0.0, -74398.31786135648, 0.0]
['beep', 0.0, 56338.86830077986, 0.0, 0.0, 0.0, 0.0, -73689.3875824675, 0.0]
['beep', 0.0, 55081.98500656903, 0.0, 0.0, 0.0, 0.0, -72759.44325440445, 0.0]
['beep', 0.0, 55219.33647624689, 0.0, 0.0, 0.0, 0.0, -72926.96957909699, 0.0]
['beep', 0.0, 56654.16200806642, 0.0, 0.0, 0.0, 0.0, -74005.55300778784, 0.0]
['beep', 0.0, 57494.5205443526, 0.0, 0.0, 0.0, 0.0, -74516.91621743634, 0.0]
['beep', 0.0, 56667.01426112822, 0.0, 0.0, 0.0, 0.0, -73812.54569441626, 0.0]
['beep', 0.0, 55406.35352210445, 0.0, 0.0, 0.0, 0.0, -72899.2534159724, 0.0]
['beep', 0.0, 55533.89257596643, 0.0, 0.0, 0.0, 0.0, -73061.34826676229, 0.0]
['beep', 0.0, 56964.918311228554, 0.0, 0.0, 0.0, 0.0, -74108.52749449344, 0.0]
['beep', 0.0, 57810.976542350836, 0.0, 0.0, 0.0, 0.0, -74624.361053033, 0.0]
['beep', 0.0, 56988.700567329004, 0.0, 0.0, 0.0, 0.0, -73924.30441669279, 0.0]
['beep', 0.0, 55724.86588059257, 0.0, 0.0, 0.0, 0.0, -73008.30757716985, 0.0]
['beep', 0.0, 55844.73828610639, 0.0, 0.0, 0.0, 0.0, -73164.00982904552, 0.0]
['beep', 0.0, 57274.62408240129, 0.0, 0.0, 0.0, 0.0, -74209.80324862043, 0.0]
['beep', 0.0, 58128.997162460946, 0.0, 0.0, 0.0, 0.0, -74731.2917985072, 0.0]
['beep', 0.0, 57314.36548404283, 0.0, 0.0, 0.0, 0.0, -74035.95138024705, 0.0]
['beep', 0.0, 56048.40738158314, 0.0, 0.0, 0.0, 0.0, -73117.45114534511, 0.0]
['beep', 0.0, 56160.36726955978, 0.0, 0.0, 0.0, 0.0, -73267.18548145122, 0.0]
['beep', 0.0, 57588.86725769845, 0.0, 0.0, 0.0, 0.0, -74311.77190682554, 0.0]
['beep', 0.0, 58451.555186695485, 0.0, 0.0, 0.0, 0.0, -74838.20019223692, 0.0]
['beep', 0.0, 57644.79132232563, 0.0, 0.0, 0.0, 0.0, -74147.50893682349, 0.0]
['beep', 0.0, 56375.68162389775, 0.0, 0.0, 0.0, 0.0, -73226.19238212018, 0.0]
['beep', 0.0, 56477.20324721376, 0.0, 0.0, 0.0, 0.0, -73369.55647105652, 0.0]
['beep', 0.0, 57898.93065678247, 0.0, 0.0, 0.0, 0.0, -74412.9582539747, 0.0]
['beep', 0.0, 58763.764353247214, 0.0, 0.0, 0.0, 0.0, -74945.26504817785, 0.0]
['beep', 0.0, 57960.777933690304, 0.0, 0.0, 0.0, 0.0, -74259.40176956676, 0.0]
['beep', 0.0, 56686.773203226716, 0.0, 0.0, 0.0, 0.0, -73334.97832238417, 0.0]
['beep', 0.0, 56779.91292237198, 0.0, 0.0, 0.0, 0.0, -73471.86040542847, 0.0]
['beep', 0.0, 58202.80262265237, 0.0, 0.0, 0.0, 0.0, -74514.14460112389, 0.0]
['beep', 0.0, 59078.87924657813, 0.0, 0.0, 0.0, 0.0, -75052.06168318531, 0.0]
['beep', 0.0, 58286.33109168185, 0.0, 0.0, 0.0, 0.0, -74370.98167788764, 0.0]
['beep', 0.0, 57012.79574785182, 0.0, 0.0, 0.0, 0.0, -73444.05483532607, 0.0]
['beep', 0.0, 57099.8781442497, 0.0, 0.0, 0.0, 0.0, -73574.83489213407, 0.0]
['beep', 0.0, 58521.53849858505, 0.0, 0.0, 0.0, 0.0, -74615.88974188444, 0.0]
['beep', 0.0, 59404.700625503145, 0.0, 0.0, 0.0, 0.0, -75158.67950423712, 0.0]
['beep', 0.0, 58619.17091836583, 0.0, 0.0, 0.0, 0.0, -74482.15925480834, 0.0]
['beep', 0.0, 57342.55103380097, 0.0, 0.0, 0.0, 0.0, -73553.04194129014, 0.0]
['beep', 0.0, 57418.703427160195, 0.0, 0.0, 0.0, 0.0, -73676.98236429482, 0.0]
['beep', 0.0, 58833.27827850322, 0.0, 0.0, 0.0, 0.0, -74715.9361500664, 0.0]
['beep', 0.0, 59719.97198104525, 0.0, 0.0, 0.0, 0.0, -75264.06797934389, 0.0]
['beep', 0.0, 58939.180843732465, 0.0, 0.0, 0.0, 0.0, -74592.1521892729, 0.0]
['beep', 0.0, 57659.23054924376, 0.0, 0.0, 0.0, 0.0, -73660.33031467561, 0.0]
['beep', 0.0, 57727.917459954915, 0.0, 0.0, 0.0, 0.0, -73778.10165621062, 0.0]
['beep', 0.0, 59142.29114559784, 0.0, 0.0, 0.0, 0.0, -74815.26730242578, 0.0]
['beep', 0.0, 60039.0207814003, 0.0, 0.0, 0.0, 0.0, -75368.9870678171, 0.0]
['beep', 0.0, 59267.21504535855, 0.0, 0.0, 0.0, 0.0, -74702.14512373747, 0.0]
['beep', 0.0, 57985.36485259114, 0.0, 0.0, 0.0, 0.0, -73768.15512992801, 0.0]
['beep', 0.0, 58046.563928909774, 0.0, 0.0, 0.0, 0.0, -73880.20442488247, 0.0]
['beep', 0.0, 59459.17182674073, 0.0, 0.0, 0.0, 0.0, -74916.96773969743, 0.0]
['beep', 0.0, 60362.741096346515, 0.0, 0.0, 0.0, 0.0, -75476.1636824803, 0.0]
['beep', 0.0, 59596.83622084096, 0.0, 0.0, 0.0, 0.0, -74813.45681112491, 0.0]
['beep', 0.0, 58310.53803092695, 0.0, 0.0, 0.0, 0.0, -73876.22581436942, 0.0]
['beep', 0.0, 58361.94704317416, 0.0, 0.0, 0.0, 0.0, -73982.24013832095, 0.0]
['beep', 0.0, 59769.59285373603, 0.0, 0.0, 0.0, 0.0, -75017.28236881286, 0.0]
['beep', 0.0, 60677.0736786215, 0.0, 0.0, 0.0, 0.0, -75581.55215758708, 0.0]
['beep', 0.0, 59916.220297362845, 0.0, 0.0, 0.0, 0.0, -74923.181524656, 0.0]
['beep', 0.0, 58628.133967892405, 0.0, 0.0, 0.0, 0.0, -73983.715353455, 0.0]
['beep', 0.0, 58672.122200980455, 0.0, 0.0, 0.0, 0.0, -74083.31472674785, 0.0]
['beep', 0.0, 60078.94099699748, 0.0, 0.0, 0.0, 0.0, -75117.21701827252, 0.0]
['beep', 0.0, 60996.36834816556, 0.0, 0.0, 0.0, 0.0, -75687.18650188285, 0.0]
['beep', 0.0, 60245.841472845255, 0.0, 0.0, 0.0, 0.0, -75033.59914226523, 0.0]
['beep', 0.0, 58956.45874219642, 0.0, 0.0, 0.0, 0.0, -74091.33900300729, 0.0]
['beep', 0.0, 58992.46740251391, 0.0, 0.0, 0.0, 0.0, -74184.92575704167, 0.0]
['beep', 0.0, 60395.866381629276, 0.0, 0.0, 0.0, 0.0, -75217.3528334323, 0.0]
['beep', 0.0, 61318.76991018891, 0.0, 0.0, 0.0, 0.0, -75792.30675605616, 0.0]
['beep', 0.0, 60573.026308182045, 0.0, 0.0, 0.0, 0.0, -75143.79324242989, 0.0]
['beep', 0.0, 59278.74854549749, 0.0, 0.0, 0.0, 0.0, -74199.52144617098, 0.0]
['beep', 0.0, 59304.385996387726, 0.0, 0.0, 0.0, 0.0, -74286.5367873355, 0.0]
['beep', 0.0, 60704.76749000162, 0.0, 0.0, 0.0, 0.0, -75317.26513114752, 0.0]
['beep', 0.0, 61634.465948875666, 0.0, 0.0, 0.0, 0.0, -75897.0693823182, 0.0]
['beep', 0.0, 60897.1713062729, 0.0, 0.0, 0.0, 0.0, -75253.1156245608, 0.0]
['beep', 0.0, 59602.401805210335, 0.0, 0.0, 0.0, 0.0, -74306.60865385635, 0.0]
['beep', 0.0, 59621.46784323071, 0.0, 0.0, 0.0, 0.0, -74387.63372750685, 0.0]
['beep', 0.0, 61021.17878451095, 0.0, 0.0, 0.0, 0.0, -75416.9539114182, 0.0]
['beep', 0.0, 61958.7227056888, 0.0, 0.0, 0.0, 0.0, -76002.12258125814, 0.0]
['beep', 0.0, 61228.8041387563, 0.0, 0.0, 0.0, 0.0, -75362.68387588071, 0.0]
['beep', 0.0, 59932.2464981373, 0.0, 0.0, 0.0, 0.0, -74413.24882665263, 0.0]
['beep', 0.0, 59943.91410874297, 0.0, 0.0, 0.0, 0.0, -74488.4847984892, 0.0]
['beep', 0.0, 61338.23827960948, 0.0, 0.0, 0.0, 0.0, -75515.70391842174, 0.0]
['beep', 0.0, 62279.358479900184, 0.0, 0.0, 0.0, 0.0, -76105.83467553076, 0.0]
['beep', 0.0, 61554.84903512586, 0.0, 0.0, 0.0, 0.0, -75472.07331324498, 0.0]
['beep', 0.0, 60252.9716793265, 0.0, 0.0, 0.0, 0.0, -74521.1854006273, 0.0]
['beep', 0.0, 60251.34000198126, 0.0, 0.0, 0.0, 0.0, -74589.96171831629, 0.0]
['beep', 0.0, 61640.38916115632, 0.0, 0.0, 0.0, 0.0, -75614.83390508103, 0.0]
['beep', 0.0, 62588.572512694904, 0.0, 0.0, 0.0, 0.0, -76209.7926389924, 0.0]
['beep', 0.0, 61873.58491105854, 0.0, 0.0, 0.0, 0.0, -75581.66391630935, 0.0]
['beep', 0.0, 60574.054488426984, 0.0, 0.0, 0.0, 0.0, -74628.9655123908, 0.0]
['beep', 0.0, 60567.52777904604, 0.0, 0.0, 0.0, 0.0, -74690.34340266508, 0.0]
['beep', 0.0, 61955.816978909614, 0.0, 0.0, 0.0, 0.0, -75712.98041498428, 0.0]
['beep', 0.0, 62913.03043520814, 0.0, 0.0, 0.0, 0.0, -76313.6164919873, 0.0]
['beep', 0.0, 62207.07293833172, 0.0, 0.0, 0.0, 0.0, -75690.74042925125, 0.0]
['beep', 0.0, 60905.66496916592, 0.0, 0.0, 0.0, 0.0, -74735.71744390935, 0.0]
['beep', 0.0, 60890.890466080964, 0.0, 0.0, 0.0, 0.0, -74790.76979050276, 0.0]
['beep', 0.0, 62275.69279380951, 0.0, 0.0, 0.0, 0.0, -75811.73042198783, 0.0]
['beep', 0.0, 63237.22013678791, 0.0, 0.0, 0.0, 0.0, -76417.038013582, 0.0]
['beep', 0.0, 62536.40354113621, 0.0, 0.0, 0.0, 0.0, -75798.47583752582, 0.0]
['beep', 0.0, 61231.285182390835, 0.0, 0.0, 0.0, 0.0, -74841.2176777384, 0.0]
['beep', 0.0, 61207.100594890195, 0.0, 0.0, 0.0, 0.0, -74890.14564635105, 0.0]
['beep', 0.0, 62589.71245166212, 0.0, 0.0, 0.0, 0.0, -75909.47460049088, 0.0]
['beep', 0.0, 63560.15814067819, 0.0, 0.0, 0.0, 0.0, -76521.13008751036, 0.0]
['beep', 0.0, 62867.83520791951, 0.0, 0.0, 0.0, 0.0, -75907.93233012347, 0.0]
['beep', 0.0, 61562.26981428502, 0.0, 0.0, 0.0, 0.0, -74948.72956856842, 0.0]
['beep', 0.0, 61532.18436624818, 0.0, 0.0, 0.0, 0.0, -74991.82373187825, 0.0]
['beep', 0.0, 62912.605752063486, 0.0, 0.0, 0.0, 0.0, -76009.76687786185, 0.0]
['beep', 0.0, 63890.24870279416, 0.0, 0.0, 0.0, 0.0, -76625.60214109447, 0.0]
['beep', 0.0, 63205.3689009391, 0.0, 0.0, 0.0, 0.0, -76016.58415992072, 0.0]
['beep', 0.0, 61897.30011192562, 0.0, 0.0, 0.0, 0.0, -75054.69918903103, 0.0]
['beep', 0.0, 61859.01157367368, 0.0, 0.0, 0.0, 0.0, -75092.00425052694, 0.0]
['beep', 0.0, 63236.907212365535, 0.0, 0.0, 0.0, 0.0, -76108.00279474292, 0.0]
['beep', 0.0, 64221.34509341063, 0.0, 0.0, 0.0, 0.0, -76729.113069667, 0.0]
['beep', 0.0, 63543.97547769255, 0.0, 0.0, 0.0, 0.0, -76125.39245192915, 0.0]
['beep', 0.0, 62235.03497064531, 0.0, 0.0, 0.0, 0.0, -75161.67463799413, 0.0]
['beep', 0.0, 62188.11865903362, 0.0, 0.0, 0.0, 0.0, -75192.52004534246, 0.0]
['beep', 0.0, 63562.616832568274, 0.0, 0.0, 0.0, 0.0, -76206.73045000201, 0.0]
['beep', 0.0, 64553.380257294215, 0.0, 0.0, 0.0, 0.0, -76832.82516393962, 0.0]
['beep', 0.0, 63883.58788294648, 0.0, 0.0, 0.0, 0.0, -76233.70900555958, 0.0]
['beep', 0.0, 62572.05457354243, 0.0, 0.0, 0.0, 0.0, -75267.93483113465, 0.0]
['beep', 0.0, 62516.018750192976, 0.0, 0.0, 0.0, 0.0, -75292.43234305768, 0.0]
['beep', 0.0, 63887.05240333705, 0.0, 0.0, 0.0, 0.0, -76305.39105002774, 0.0]
['beep', 0.0, 64884.83427582196, 0.0, 0.0, 0.0, 0.0, -76937.45367973491, 0.0]
['beep', 0.0, 64222.39562540003, 0.0, 0.0, 0.0, 0.0, -76343.5231260685, 0.0]
['beep', 0.0, 62909.58826656202, 0.0, 0.0, 0.0, 0.0, -75375.15614928678, 0.0]
['beep', 0.0, 62846.42223673133, 0.0, 0.0, 0.0, 0.0, -75393.03754485102, 0.0]
['beep', 0.0, 64214.57251484067, 0.0, 0.0, 0.0, 0.0, -76403.31404248644, 0.0]
['beep', 0.0, 65218.85874496207, 0.0, 0.0, 0.0, 0.0, -77040.36111120715, 0.0]
['beep', 0.0, 64565.13727487771, 0.0, 0.0, 0.0, 0.0, -76451.72792097663, 0.0]
['beep', 0.0, 63250.0276863608, 0.0, 0.0, 0.0, 0.0, -75481.43869417175, 0.0]
['beep', 0.0, 63176.93748199195, 0.0, 0.0, 0.0, 0.0, -75493.06160128851, 0.0]
['beep', 0.0, 64541.06444609934, 0.0, 0.0, 0.0, 0.0, -76501.66171808979, 0.0]
['beep', 0.0, 65551.7209233905, 0.0, 0.0, 0.0, 0.0, -77143.7602810574, 0.0]
['beep', 0.0, 64904.34734873145, 0.0, 0.0, 0.0, 0.0, -76560.26799205161, 0.0]
['beep', 0.0, 63587.11434449129, 0.0, 0.0, 0.0, 0.0, -75587.63183207891, 0.0]
['beep', 0.0, 63505.99986386298, 0.0, 0.0, 0.0, 0.0, -75592.75038155918, 0.0]
['beep', 0.0, 64867.01993549108, 0.0, 0.0, 0.0, 0.0, -76599.58471054849, 0.0]
['beep', 0.0, 65883.86784599637, 0.0, 0.0, 0.0, 0.0, -77246.48889857398, 0.0]
['beep', 0.0, 65244.18327142993, 0.0, 0.0, 0.0, 0.0, -76668.36102823747, 0.0]
['beep', 0.0, 63925.855031711464, 0.0, 0.0, 0.0, 0.0, -75694.33906010856, 0.0]
['beep', 0.0, 63836.00101900113, 0.0, 0.0, 0.0, 0.0, -75693.19912114134, 0.0]
['beep', 0.0, 65193.265997560746, 0.0, 0.0, 0.0, 0.0, -76697.48535126273, 0.0]
['beep', 0.0, 66216.2829895357, 0.0, 0.0, 0.0, 0.0, -77349.41868179067, 0.0]
['beep', 0.0, 65583.61686272823, 0.0, 0.0, 0.0, 0.0, -76776.05173302314, 0.0]
['beep', 0.0, 64263.5675386867, 0.0, 0.0, 0.0, 0.0, -75800.33103231562, 0.0]
['beep', 0.0, 64165.577490994634, 0.0, 0.0, 0.0, 0.0, -75792.8431979231, 0.0]
['beep', 0.0, 65519.0650247413, 0.0, 0.0, 0.0, 0.0, -76795.09541929906, 0.0]
['beep', 0.0, 66548.94400226403, 0.0, 0.0, 0.0, 0.0, -77452.6837411742, 0.0]
['beep', 0.0, 65924.88329707185, 0.0, 0.0, 0.0, 0.0, -76884.70356282039, 0.0]
['beep', 0.0, 64603.157592196185, 0.0, 0.0, 0.0, 0.0, -75906.54652196723, 0.0]
['beep', 0.0, 64496.42801242209, 0.0, 0.0, 0.0, 0.0, -75892.21905377139, 0.0]
['beep', 0.0, 65846.60748798937, 0.0, 0.0, 0.0, 0.0, -76892.3478594241, 0.0]
['beep', 0.0, 66883.52726501552, 0.0, 0.0, 0.0, 0.0, -77555.43471043525, 0.0]
['beep', 0.0, 66267.15555991598, 0.0, 0.0, 0.0, 0.0, -76992.21545365041, 0.0]
['beep', 0.0, 64943.70877071724, 0.0, 0.0, 0.0, 0.0, -76011.84559009619, 0.0]
['beep', 0.0, 64828.194955372215, 0.0, 0.0, 0.0, 0.0, -75991.70666834195, 0.0]
['beep', 0.0, 66175.37929718249, 0.0, 0.0, 0.0, 0.0, -76990.673183283, 0.0]
['beep', 0.0, 67216.74707135523, 0.0, 0.0, 0.0, 0.0, -77658.16332795183, 0.0]
['beep', 0.0, 66606.94677912554, 0.0, 0.0, 0.0, 0.0, -77099.81675145826, 0.0]
['beep', 0.0, 65280.61661489208, 0.0, 0.0, 0.0, 0.0, -76116.47410589148, 0.0]
['beep', 0.0, 65157.36909596552, 0.0, 0.0, 0.0, 0.0, -76090.16610266759, 0.0]
['beep', 0.0, 66502.25120809689, 0.0, 0.0, 0.0, 0.0, -77087.45623677448, 0.0]
['beep', 0.0, 67551.30798236227, 0.0, 0.0, 0.0, 0.0, -77760.40020709041, 0.0]
['beep', 0.0, 66947.38619892433, 0.0, 0.0, 0.0, 0.0, -77206.65808995462, 0.0]
['beep', 0.0, 65619.55846781236, 0.0, 0.0, 0.0, 0.0, -76222.30961588737, 0.0]
['beep', 0.0, 65488.73370751545, 0.0, 0.0, 0.0, 0.0, -76189.74312421598, 0.0]
['beep', 0.0, 66829.57015390041, 0.0, 0.0, 0.0, 0.0, -77185.17806353308, 0.0]
['beep', 0.0, 67885.26539626901, 0.0, 0.0, 0.0, 0.0, -77863.17352809591, 0.0]
['beep', 0.0, 67290.15020014647, 0.0, 0.0, 0.0, 0.0, -77314.50525695148, 0.0]
['beep', 0.0, 65960.44492250025, 0.0, 0.0, 0.0, 0.0, -76327.67573924968, 0.0]
['beep', 0.0, 65820.94768535468, 0.0, 0.0, 0.0, 0.0, -76289.58836669783, 0.0]
['beep', 0.0, 67159.23603287173, 0.0, 0.0, 0.0, 0.0, -77282.58696586931, 0.0]
['beep', 0.0, 68221.23446717674, 0.0, 0.0, 0.0, 0.0, -77965.23159327885, 0.0]
['beep', 0.0, 67634.27765778037, 0.0, 0.0, 0.0, 0.0, -77421.59246463687, 0.0]
['beep', 0.0, 66303.9018278005, 0.0, 0.0, 0.0, 0.0, -76432.97480737863, 0.0]
['beep', 0.0, 66156.7155905623, 0.0, 0.0, 0.0, 0.0, -76388.02544927901, 0.0]
['beep', 0.0, 67490.86886535512, 0.0, 0.0, 0.0, 0.0, -77378.7665222605, 0.0]
['beep', 0.0, 68557.29294506228, 0.0, 0.0, 0.0, 0.0, -78065.79209158327, 0.0]
['beep', 0.0, 67976.01347875757, 0.0, 0.0, 0.0, 0.0, -77526.82447753244, 0.0]
['beep', 0.0, 66644.60946853274, 0.0, 0.0, 0.0, 0.0, -76537.13393654037, 0.0]
['beep', 0.0, 66488.81780967925, 0.0, 0.0, 0.0, 0.0, -76486.23901441562, 0.0]
['beep', 0.0, 67818.9030669812, 0.0, 0.0, 0.0, 0.0, -77475.0354856295, 0.0]
['beep', 0.0, 68893.30671945891, 0.0, 0.0, 0.0, 0.0, -78167.8501567662, 0.0]
['beep', 0.0, 68320.76678523622, 0.0, 0.0, 0.0, 0.0, -77634.78340325158, 0.0]
['beep', 0.0, 66987.01584184359, 0.0, 0.0, 0.0, 0.0, -76643.30472270308, 0.0]
['beep', 0.0, 66823.69164510866, 0.0, 0.0, 0.0, 0.0, -76586.64305050886, 0.0]
['beep', 0.0, 68149.79829189758, 0.0, 0.0, 0.0, 0.0, -77572.98082983265, 0.0]
['beep', 0.0, 69228.44877582179, 0.0, 0.0, 0.0, 0.0, -78269.88587020467, 0.0]
['beep', 0.0, 68662.90493761361, 0.0, 0.0, 0.0, 0.0, -77741.80355570359, 0.0]
['beep', 0.0, 67327.72348257584, 0.0, 0.0, 0.0, 0.0, -76748.2685146652, 0.0]
['beep', 0.0, 67154.22924211374, 0.0, 0.0, 0.0, 0.0, -76684.18606331183, 0.0]
['beep', 0.0, 68475.7090778004, 0.0, 0.0, 0.0, 0.0, -77667.88633678989, 0.0]
['beep', 0.0, 69561.55682343923, 0.0, 0.0, 0.0, 0.0, -78369.75346443099, 0.0]
['beep', 0.0, 69004.48429637961, 0.0, 0.0, 0.0, 0.0, -77847.23673429928, 0.0]
['beep', 0.0, 67669.45930355303, 0.0, 0.0, 0.0, 0.0, -76852.7405682493, 0.0]
['beep', 0.0, 67489.50540894335, 0.0, 0.0, 0.0, 0.0, -76783.9195470714, 0.0]
['beep', 0.0, 68807.7889451729, 0.0, 0.0, 0.0, 0.0, -77765.45170133731, 0.0]
['beep', 0.0, 69899.42579262564, 0.0, 0.0, 0.0, 0.0, -78472.03504705847, 0.0]
['beep', 0.0, 69350.53400403667, 0.0, 0.0, 0.0, 0.0, -77954.92743908495, 0.0]
['beep', 0.0, 68013.72087165367, 0.0, 0.0, 0.0, 0.0, -76958.19609858944, 0.0]
['beep', 0.0, 67824.89333449524, 0.0, 0.0, 0.0, 0.0, -76882.6919058194, 0.0]
['beep', 0.0, 69139.10885323392, 0.0, 0.0, 0.0, 0.0, -77861.65360947295, 0.0]
['beep', 0.0, 70236.08776761148, 0.0, 0.0, 0.0, 0.0, -78572.88611804081, 0.0]
['beep', 0.0, 69693.43211572553, 0.0, 0.0, 0.0, 0.0, -78059.71241709142, 0.0]
['beep', 0.0, 68356.35076240907, 0.0, 0.0, 0.0, 0.0, -77061.46115797295, 0.0]
['beep', 0.0, 68159.61070771345, 0.0, 0.0, 0.0, 0.0, -76979.34084884416, 0.0]
['beep', 0.0, 69469.46763628336, 0.0, 0.0, 0.0, 0.0, -77956.04502630771, 0.0]
['beep', 0.0, 70572.03448677475, 0.0, 0.0, 0.0, 0.0, -78672.55254656704, 0.0]
['beep', 0.0, 70036.71020707014, 0.0, 0.0, 0.0, 0.0, -78164.87737475365, 0.0]
['beep', 0.0, 68698.51126653091, 0.0, 0.0, 0.0, 0.0, -77165.41912143459, 0.0]
['beep', 0.0, 68494.99863326534, 0.0, 0.0, 0.0, 0.0, -77078.22496631443, 0.0]
['beep', 0.0, 69801.39104144467, 0.0, 0.0, 0.0, 0.0, -78052.82807979919, 0.0]
['beep', 0.0, 70909.25525537196, 0.0, 0.0, 0.0, 0.0, -78773.96241116076, 0.0]
['beep', 0.0, 70382.73756298274, 0.0, 0.0, 0.0, 0.0, -78271.71871325001, 0.0]
['beep', 0.0, 69044.56097418797, 0.0, 0.0, 0.0, 0.0, -77271.3440384083, 0.0]
['beep', 0.0, 68832.66643675166, 0.0, 0.0, 0.0, 0.0, -77178.33842972976, 0.0]
['beep', 0.0, 70134.47673731766, 0.0, 0.0, 0.0, 0.0, -78150.66166528007, 0.0]
['beep', 0.0, 71248.04064608105, 0.0, 0.0, 0.0, 0.0, -78876.44515948834, 0.0]
['beep', 0.0, 70728.76491889537, 0.0, 0.0, 0.0, 0.0, -78379.16354884667, 0.0]
['beep', 0.0, 69388.80019054415, 0.0, 0.0, 0.0, 0.0, -77376.4642925816, 0.0]
['beep', 0.0, 69168.94843208176, 0.0, 0.0, 0.0, 0.0, -77276.99902975548, 0.0]
['beep', 0.0, 70467.02599132371, 0.0, 0.0, 0.0, 0.0, -78246.93062864908, 0.0]
['beep', 0.0, 71586.15548445648, 0.0, 0.0, 0.0, 0.0, -78977.22917523733, 0.0]
['beep', 0.0, 71074.25583294104, 0.0, 0.0, 0.0, 0.0, -78484.73083790908, 0.0]
['beep', 0.0, 69733.35233132272, 0.0, 0.0, 0.0, 0.0, -77480.57871825442, 0.0]
['beep', 0.0, 69505.49864834531, 0.0, 0.0, 0.0, 0.0, -77375.19024314765, 0.0]
['beep', 0.0, 70798.79293427384, 0.0, 0.0, 0.0, 0.0, -78342.23846700651, 0.0]
['beep', 0.0, 71924.47148853201, 0.0, 0.0, 0.0, 0.0, -79078.39317064204, 0.0]
['beep', 0.0, 71421.87016270998, 0.0, 0.0, 0.0, 0.0, -78592.24272873912, 0.0]
['beep', 0.0, 70078.95500409068, 0.0, 0.0, 0.0, 0.0, -77585.67662068327, 0.0]
['beep', 0.0, 69841.5347744864, 0.0, 0.0, 0.0, 0.0, -77473.29204956199, 0.0]
['beep', 0.0, 71131.27513304653, 0.0, 0.0, 0.0, 0.0, -78438.0156919975, 0.0]
['beep', 0.0, 72261.1111117734, 0.0, 0.0, 0.0, 0.0, -79178.35017184618, 0.0]
['beep', 0.0, 71764.65651567657, 0.0, 0.0, 0.0, 0.0, -78696.82654104549, 0.0]
['beep', 0.0, 70421.42843263489, 0.0, 0.0, 0.0, 0.0, -77689.3887149559, 0.0]
['beep', 0.0, 70175.91687153779, 0.0, 0.0, 0.0, 0.0, -77570.43273096475, 0.0]
['beep', 0.0, 71461.34334341805, 0.0, 0.0, 0.0, 0.0, -78532.54121929899, 0.0]
['beep', 0.0, 72597.6389762925, 0.0, 0.0, 0.0, 0.0, -79278.73185619497, 0.0]
['beep', 0.0, 72109.49922913304, 0.0, 0.0, 0.0, 0.0, -78802.5502923191, 0.0]
['beep', 0.0, 70766.11468388018, 0.0, 0.0, 0.0, 0.0, -77793.8160650511, 0.0]
['beep', 0.0, 70513.20469536837, 0.0, 0.0, 0.0, 0.0, -77669.49566239068, 0.0]
['beep', 0.0, 71793.49026602392, 0.0, 0.0, 0.0, 0.0, -78628.56431347899, 0.0]
['beep', 0.0, 72934.6138757007, 0.0, 0.0, 0.0, 0.0, -79379.69468589958, 0.0]
['beep', 0.0, 72455.43717806783, 0.0, 0.0, 0.0, 0.0, -78909.86101744903, 0.0]
['beep', 0.0, 71110.86799035883, 0.0, 0.0, 0.0, 0.0, -77898.17635991292, 0.0]
['beep', 0.0, 70848.34675173125, 0.0, 0.0, 0.0, 0.0, -77765.74227401523, 0.0]
['beep', 0.0, 72124.31843570691, 0.0, 0.0, 0.0, 0.0, -78722.08401228, 0.0]
['beep', 0.0, 73271.45466464218, 0.0, 0.0, 0.0, 0.0, -79478.08706499185, 0.0]
['beep', 0.0, 72798.71526941244, 0.0, 0.0, 0.0, 0.0, -79012.63433845453, 0.0]
['beep', 0.0, 71453.47552936978, 0.0, 0.0, 0.0, 0.0, -78000.14501811803, 0.0]
['beep', 0.0, 71183.8464360054, 0.0, 0.0, 0.0, 0.0, -77862.79354844017, 0.0]
['beep', 0.0, 72456.5994687795, 0.0, 0.0, 0.0, 0.0, -78817.92829250435, 0.0]
['beep', 0.0, 73611.40234606294, 0.0, 0.0, 0.0, 0.0, -79580.07807494141, 0.0]
['beep', 0.0, 73148.38595967126, 0.0, 0.0, 0.0, 0.0, -79120.43680196248, 0.0]
['beep', 0.0, 71801.80511496129, 0.0, 0.0, 0.0, 0.0, -78105.91347288055, 0.0]
['beep', 0.0, 71523.21297207034, 0.0, 0.0, 0.0, 0.0, -77962.63879092202, 0.0]
['beep', 0.0, 72790.80275187525, 0.0, 0.0, 0.0, 0.0, -78914.55488378464, 0.0]
['beep', 0.0, 73949.62894316066, 0.0, 0.0, 0.0, 0.0, -79681.15266336831, 0.0]
['beep', 0.0, 73494.23450162822, 0.0, 0.0, 0.0, 0.0, -79226.13820149163, 0.0]
['beep', 0.0, 72147.6313051738, 0.0, 0.0, 0.0, 0.0, -78209.44675319752, 0.0]
['beep', 0.0, 71860.85842381221, 0.0, 0.0, 0.0, 0.0, -78059.33243743569, 0.0]
['beep', 0.0, 73124.26842740398, 0.0, 0.0, 0.0, 0.0, -79009.30392853069, 0.0]
['beep', 0.0, 74289.50956934805, 0.0, 0.0, 0.0, 0.0, -79781.7802169061, 0.0]
['beep', 0.0, 73841.69236918597, 0.0, 0.0, 0.0, 0.0, -79331.75019404295, 0.0]
['beep', 0.0, 72493.94923376432, 0.0, 0.0, 0.0, 0.0, -78313.47177189252, 0.0]
['beep', 0.0, 72198.57093078743, 0.0, 0.0, 0.0, 0.0, -78157.05426419429, 0.0]
['beep', 0.0, 73457.01884711014, 0.0, 0.0, 0.0, 0.0, -79104.14238025456, 0.0]
['beep', 0.0, 74626.95385538982, 0.0, 0.0, 0.0, 0.0, -79881.46899717677, 0.0]
['beep', 0.0, 74187.31739369838, 0.0, 0.0, 0.0, 0.0, -79436.91515170517, 0.0]
['beep', 0.0, 72839.26133385436, 0.0, 0.0, 0.0, 0.0, -78417.00505220951, 0.0]
['beep', 0.0, 72535.9705133403, 0.0, 0.0, 0.0, 0.0, -78254.70903571953, 0.0]
['beep', 0.0, 73789.14341797154, 0.0, 0.0, 0.0, 0.0, -79199.696087801, 0.0]
['beep', 0.0, 74963.3476094422, 0.0, 0.0, 0.0, 0.0, -79982.85651002605, 0.0]
['beep', 0.0, 74530.52842980962, 0.0, 0.0, 0.0, 0.0, -79542.63890297877, 0.0]
['beep', 0.0, 73181.91357635421, 0.0, 0.0, 0.0, 0.0, -78520.22540810412, 0.0]
['beep', 0.0, 72872.20780518149, 0.0, 0.0, 0.0, 0.0, -78351.60384793328, 0.0]
['beep', 0.0, 74122.497334778, 0.0, 0.0, 0.0, 0.0, -79294.0651528913, 0.0]
['beep', 0.0, 75301.97653794009, 0.0, 0.0, 0.0, 0.0, -80082.18766238543, 0.0]
['beep', 0.0, 74877.40515201153, 0.0, 0.0, 0.0, 0.0, -79647.08860481842, 0.0]
['beep', 0.0, 73527.82917354455, 0.0, 0.0, 0.0, 0.0, -78622.61874945388, 0.0]
['beep', 0.0, 73210.09912611236, 0.0, 0.0, 0.0, 0.0, -78448.27514270248, 0.0]
['beep', 0.0, 74455.76184460662, 0.0, 0.0, 0.0, 0.0, -79388.97065984854, 0.0]
['beep', 0.0, 75640.22548678226, 0.0, 0.0, 0.0, 0.0, -80183.1281403456, 0.0]
['beep', 0.0, 75222.58314163484, 0.0, 0.0, 0.0, 0.0, -79753.46055668122, 0.0]
['beep', 0.0, 73872.04603815627, 0.0, 0.0, 0.0, 0.0, -78726.91198908233, 0.0]
['beep', 0.0, 73544.70474060831, 0.0, 0.0, 0.0, 0.0, -78545.95226597217, 0.0]
['beep', 0.0, 74784.48895031083, 0.0, 0.0, 0.0, 0.0, -79483.69735285013, 0.0]
['beep', 0.0, 75974.24995592237, 0.0, 0.0, 0.0, 0.0, -80283.71099039448, 0.0]
['beep', 0.0, 75565.59301204598, 0.0, 0.0, 0.0, 0.0, -79859.11725272147, 0.0]
['beep', 0.0, 74216.91110335721, 0.0, 0.0, 0.0, 0.0, -78830.91465603288, 0.0]
['beep', 0.0, 73883.08779991721, 0.0, 0.0, 0.0, 0.0, -78643.87525843087, 0.0]
['beep', 0.0, 75118.64752991767, 0.0, 0.0, 0.0, 0.0, -79579.60868830785, 0.0]
['beep', 0.0, 76313.37062279829, 0.0, 0.0, 0.0, 0.0, -80385.1208549882, 0.0]
['beep', 0.0, 75913.76613542631, 0.0, 0.0, 0.0, 0.0, -79965.17628016189, 0.0]
['beep', 0.0, 74565.57596511555, 0.0, 0.0, 0.0, 0.0, -78934.60439856106, 0.0]
['beep', 0.0, 74223.79544064945, 0.0, 0.0, 0.0, 0.0, -78741.26180902265, 0.0]
['beep', 0.0, 75454.79541478102, 0.0, 0.0, 0.0, 0.0, -79674.4024365428, 0.0]
['beep', 0.0, 76655.41936819785, 0.0, 0.0, 0.0, 0.0, -80486.32955388183, 0.0]
['beep', 0.0, 76263.07919777384, 0.0, 0.0, 0.0, 0.0, -80071.34706632461, 0.0]
['beep', 0.0, 74913.59262628468, 0.0, 0.0, 0.0, 0.0, -79037.93651317793, 0.0]
['beep', 0.0, 74564.72659882625, 0.0, 0.0, 0.0, 0.0, -78838.69306310333, 0.0]
['beep', 0.0, 75792.53027350071, 0.0, 0.0, 0.0, 0.0, -79770.11260630043, 0.0]
['beep', 0.0, 76998.74216303136, 0.0, 0.0, 0.0, 0.0, -80588.1193981313, 0.0]
['beep', 0.0, 76613.0851641995, 0.0, 0.0, 0.0, 0.0, -80177.4731489984, 0.0]
['beep', 0.0, 75262.97274386558, 0.0, 0.0, 0.0, 0.0, -79141.64860745057, 0.0]
['beep', 0.0, 74906.10479189215, 0.0, 0.0, 0.0, 0.0, -78936.03491020619, 0.0]
['beep', 0.0, 76129.68398686458, 0.0, 0.0, 0.0, 0.0, -79865.50985163568, 0.0]
['beep', 0.0, 77341.28264680895, 0.0, 0.0, 0.0, 0.0, -80689.90924238077, 0.0]
['beep', 0.0, 76965.14749111504, 0.0, 0.0, 0.0, 0.0, -80284.0015630724, 0.0]
['beep', 0.0, 75616.04089928161, 0.0, 0.0, 0.0, 0.0, -79245.56186742328, 0.0]
['beep', 0.0, 75250.8133948819, 0.0, 0.0, 0.0, 0.0, -79033.1085363756, 0.0]
['beep', 0.0, 76468.40232234029, 0.0, 0.0, 0.0, 0.0, -79960.39300684846, 0.0]
['beep', 0.0, 77684.24781373117, 0.0, 0.0, 0.0, 0.0, -80791.65438314133, 0.0]
['beep', 0.0, 77315.1981610296, 0.0, 0.0, 0.0, 0.0, -80390.52997714639, 0.0]
['beep', 0.0, 75965.89040349609, 0.0, 0.0, 0.0, 0.0, -79349.36336867373, 0.0]
['beep', 0.0, 75593.33152691502, 0.0, 0.0, 0.0, 0.0, -79131.0762323232, 0.0]
['beep', 0.0, 76806.09247757107, 0.0, 0.0, 0.0, 0.0, -80056.41610102846, 0.0]
['beep', 0.0, 78026.63183529756, 0.0, 0.0, 0.0, 0.0, -80893.89126227991, 0.0]
['beep', 0.0, 77665.80762455554, 0.0, 0.0, 0.0, 0.0, -80497.5948330873, 0.0]
['beep', 0.0, 76317.77391645598, 0.0, 0.0, 0.0, 0.0, -79452.96370422408, 0.0]
['beep', 0.0, 75938.7777374718, 0.0, 0.0, 0.0, 0.0, -79227.72517534795, 0.0]
['beep', 0.0, 77147.02363574787, 0.0, 0.0, 0.0, 0.0, -80150.89692484104, 0.0]
['beep', 0.0, 78373.21798482156, 0.0, 0.0, 0.0, 0.0, -80995.50229257373, 0.0]
['beep', 0.0, 78020.97684395038, 0.0, 0.0, 0.0, 0.0, -80604.01148843902, 0.0]
['beep', 0.0, 76671.89260386142, 0.0, 0.0, 0.0, 0.0, -79556.38522581878, 0.0]
['beep', 0.0, 76283.97807883956, 0.0, 0.0, 0.0, 0.0, -79325.80463001784, 0.0]
['beep', 0.0, 77487.61951775783, 0.0, 0.0, 0.0, 0.0, -80247.41175739905, 0.0]
['beep', 0.0, 78718.86536107842, 0.0, 0.0, 0.0, 0.0, -81098.43207579042, 0.0]
['beep', 0.0, 78374.91671740016, 0.0, 0.0, 0.0, 0.0, -80711.67984148025, 0.0]
['beep', 0.0, 77025.8771808001, 0.0, 0.0, 0.0, 0.0, -79660.36554102488, 0.0]
['beep', 0.0, 76630.47482138572, 0.0, 0.0, 0.0, 0.0, -79423.1464771207, 0.0]
['beep', 0.0, 77830.20470502433, 0.0, 0.0, 0.0, 0.0, -80343.34544460123, 0.0]
['beep', 0.0, 79066.56909782518, 0.0, 0.0, 0.0, 0.0, -81201.22774854038, 0.0]
['beep', 0.0, 78729.48243969471, 0.0, 0.0, 0.0, 0.0, -80818.92351137681, 0.0]
['beep', 0.0, 77381.02404845048, 0.0, 0.0, 0.0, 0.0, -79764.43526320878, 0.0]
['beep', 0.0, 76978.69264825496, 0.0, 0.0, 0.0, 0.0, -79520.84595213484, 0.0]
['beep', 0.0, 78172.78989229082, 0.0, 0.0, 0.0, 0.0, -80439.1897248256, 0.0]
['beep', 0.0, 79412.84232292681, 0.0, 0.0, 0.0, 0.0, -81303.66579337906, 0.0]
['beep', 0.0, 79083.69053407795, 0.0, 0.0, 0.0, 0.0, -80926.36834697347, 0.0]
['beep', 0.0, 77736.30502656758, 0.0, 0.0, 0.0, 0.0, -79868.48263364824, 0.0]
['beep', 0.0, 77326.21757104607, 0.0, 0.0, 0.0, 0.0, -79618.16544749326, 0.0]
['beep', 0.0, 78515.4868382796, 0.0, 0.0, 0.0, 0.0, -80534.94459807214, 0.0]
['beep', 0.0, 79760.00961780663, 0.0, 0.0, 0.0, 0.0, -81405.76856205089, 0.0]
['beep', 0.0, 79438.34566335031, 0.0, 0.0, 0.0, 0.0, -81033.58966512558, 0.0]
['beep', 0.0, 78090.5801761842, 0.0, 0.0, 0.0, 0.0, -79971.7253412873, 0.0]
['beep', 0.0, 77673.85425255945, 0.0, 0.0, 0.0, 0.0, -79715.39553587385, 0.0]
['beep', 0.0, 78858.60846741301, 0.0, 0.0, 0.0, 0.0, -80630.76652655203, 0.0]
['beep', 0.0, 80107.15456094201, 0.0, 0.0, 0.0, 0.0, -81507.96073770056, 0.0]
['beep', 0.0, 79791.65968795535, 0.0, 0.0, 0.0, 0.0, -81140.85568676659, 0.0]
['beep', 0.0, 78442.70955833311, 0.0, 0.0, 0.0, 0.0, -80075.70565649339, 0.0]
['beep', 0.0, 78016.70766075942, 0.0, 0.0, 0.0, 0.0, -79813.07265914354, 0.0]
['beep', 0.0, 79194.0410964538, 0.0, 0.0, 0.0, 0.0, -80726.94608294322, 0.0]
['beep', 0.0, 80444.44238477258, 0.0, 0.0, 0.0, 0.0, -81609.72823020557, 0.0]
['beep', 0.0, 80136.68121536747, 0.0, 0.0, 0.0, 0.0, -81248.03230142979, 0.0]
['beep', 0.0, 78788.26752761216, 0.0, 0.0, 0.0, 0.0, -80179.70832344393, 0.0]
['beep', 0.0, 78354.71074041257, 0.0, 0.0, 0.0, 0.0, -79909.69925042383, 0.0]
['beep', 0.0, 79527.90910338273, 0.0, 0.0, 0.0, 0.0, -80822.23156955618, 0.0]
['beep', 0.0, 80784.72534236018, 0.0, 0.0, 0.0, 0.0, -81711.09339131038, 0.0]
['beep', 0.0, 80486.10603643728, 0.0, 0.0, 0.0, 0.0, -81355.4994887709, 0.0]
['beep', 0.0, 79139.01110160483, 0.0, 0.0, 0.0, 0.0, -80284.13567353913, 0.0]
['beep', 0.0, 78698.74879106865, 0.0, 0.0, 0.0, 0.0, -80007.80105683817, 0.0]
['beep', 0.0, 79868.30381969259, 0.0, 0.0, 0.0, 0.0, -80918.61229164747, 0.0]
['beep', 0.0, 81131.37854711754, 0.0, 0.0, 0.0, 0.0, -81812.4585524152, 0.0]
['beep', 0.0, 80840.9846831542, 0.0, 0.0, 0.0, 0.0, -81462.8325656453, 0.0]
['beep', 0.0, 79493.64387913274, 0.0, 0.0, 0.0, 0.0, -80388.29480270085, 0.0]
['beep', 0.0, 79045.96078943739, 0.0, 0.0, 0.0, 0.0, -80104.89703475202, 0.0]
['beep', 0.0, 80208.58677728019, 0.0, 0.0, 0.0, 0.0, -81013.58485383808, 0.0]
['beep', 0.0, 81473.87432740621, 0.0, 0.0, 0.0, 0.0, -81911.56618733004, 0.0]
['beep', 0.0, 81190.8118356242, 0.0, 0.0, 0.0, 0.0, -81568.86924134126, 0.0]
['beep', 0.0, 79844.40980486988, 0.0, 0.0, 0.0, 0.0, -80492.52098709595, 0.0]
['beep', 0.0, 79389.66356392665, 0.0, 0.0, 0.0, 0.0, -80202.84237895517, 0.0]
['beep', 0.0, 80549.22736277907, 0.0, 0.0, 0.0, 0.0, -81110.72553524084, 0.0]
['beep', 0.0, 81819.812276341, 0.0, 0.0, 0.0, 0.0, -82012.79723796812, 0.0]
['beep', 0.0, 81545.44461315211, 0.0, 0.0, 0.0, 0.0, -81676.7834635715, 0.0]
['beep', 0.0, 80199.86959694262, 0.0, 0.0, 0.0, 0.0, -80598.13297964729, 0.0]
['beep', 0.0, 79737.63552160688, 0.0, 0.0, 0.0, 0.0, -80300.47479873596, 0.0]
['beep', 0.0, 80890.2926314226, 0.0, 0.0, 0.0, 0.0, -81206.167484065, 0.0]
['beep', 0.0, 82165.14672817549, 0.0, 0.0, 0.0, 0.0, -82111.56959671613, 0.0]
['beep', 0.0, 81899.2280243907, 0.0, 0.0, 0.0, 0.0, -81782.77543577856, 0.0]
['beep', 0.0, 80554.99411284854, 0.0, 0.0, 0.0, 0.0, -80703.18617858723, 0.0]
['beep', 0.0, 80084.57929904215, 0.0, 0.0, 0.0, 0.0, -80398.64366038366, 0.0]
['beep', 0.0, 81232.25196984435, 0.0, 0.0, 0.0, 0.0, -81302.50350266737, 0.0]
['beep', 0.0, 82511.82228467731, 0.0, 0.0, 0.0, 0.0, -82210.27490023075, 0.0]
['beep', 0.0, 82254.6207612301, 0.0, 0.0, 0.0, 0.0, -81889.32620159701, 0.0]
['beep', 0.0, 80911.25856772168, 0.0, 0.0, 0.0, 0.0, -80808.10526706044, 0.0]
['beep', 0.0, 80433.17710556711, 0.0, 0.0, 0.0, 0.0, -80495.98550748653, 0.0]
['beep', 0.0, 81576.06650305587, 0.0, 0.0, 0.0, 0.0, -81398.03485846936, 0.0]
['beep', 0.0, 82860.46479469119, 0.0, 0.0, 0.0, 0.0, -82307.79556128927, 0.0]
['beep', 0.0, 82611.3993062257, 0.0, 0.0, 0.0, 0.0, -81994.71467670378, 0.0]
['beep', 0.0, 81269.26645866233, 0.0, 0.0, 0.0, 0.0, -80913.38198344494, 0.0]
['beep', 0.0, 80784.568880149, 0.0, 0.0, 0.0, 0.0, -80594.40023832324, 0.0]
['beep', 0.0, 81922.63030083542, 0.0, 0.0, 0.0, 0.0, -81494.0356009049, 0.0]
['beep', 0.0, 83211.16366519495, 0.0, 0.0, 0.0, 0.0, -82403.97511768046, 0.0]
['beep', 0.0, 82969.94363903328, 0.0, 0.0, 0.0, 0.0, -82099.20908203234, 0.0]
['beep', 0.0, 81628.90602694823, 0.0, 0.0, 0.0, 0.0, -81018.9716242518, 0.0]
['beep', 0.0, 81137.52527684275, 0.0, 0.0, 0.0, 0.0, -80692.88202439333, 0.0]
['beep', 0.0, 82269.81994745969, 0.0, 0.0, 0.0, 0.0, -81590.19280555163, 0.0]
['beep', 0.0, 83562.46603279901, 0.0, 0.0, 0.0, 0.0, -82499.84174964926, 0.0]
['beep', 0.0, 83329.87377999708, 0.0, 0.0, 0.0, 0.0, -82203.23410072734, 0.0]
['beep', 0.0, 81988.92557488986, 0.0, 0.0, 0.0, 0.0, -81123.73425051382, 0.0]
['beep', 0.0, 81489.229975847, 0.0, 0.0, 0.0, 0.0, -80790.04505754054, 0.0]
['beep', 0.0, 82617.45662897309, 0.0, 0.0, 0.0, 0.0, -81685.14301599778, 0.0]
['beep', 0.0, 83914.32719401446, 0.0, 0.0, 0.0, 0.0, -82594.5907943953, 0.0]
['beep', 0.0, 83687.9487261711, 0.0, 0.0, 0.0, 0.0, -82306.58856708868, 0.0]
['beep', 0.0, 82347.76048037535, 0.0, 0.0, 0.0, 0.0, -81229.927388421, 0.0]
['beep', 0.0, 81841.1134888069, 0.0, 0.0, 0.0, 0.0, -80889.77854130013, 0.0]
['beep', 0.0, 82962.29934242957, 0.0, 0.0, 0.0, 0.0, -81781.07670319996, 0.0]
['beep', 0.0, 84262.74618658378, 0.0, 0.0, 0.0, 0.0, -82689.3621908858, 0.0]
['beep', 0.0, 84045.10725082246, 0.0, 0.0, 0.0, 0.0, -82411.03826892833, 0.0]
['beep', 0.0, 82706.14835097175, 0.0, 0.0, 0.0, 0.0, -81336.96989261746, 0.0]
['beep', 0.0, 82192.43820815542, 0.0, 0.0, 0.0, 0.0, -80988.72971400377, 0.0]
['beep', 0.0, 83308.88549195355, 0.0, 0.0, 0.0, 0.0, -81876.31748632401, 0.0]
['beep', 0.0, 84614.2720716324, 0.0, 0.0, 0.0, 0.0, -82782.56896526444, 0.0]
['beep', 0.0, 84404.74681910835, 0.0, 0.0, 0.0, 0.0, -82513.11868585572, 0.0]
['beep', 0.0, 83066.95020996932, 0.0, 0.0, 0.0, 0.0, -81442.44777470206, 0.0]
['beep', 0.0, 82546.24397113848, 0.0, 0.0, 0.0, 0.0, -81087.23385181831, 0.0]
['beep', 0.0, 83657.01391184496, 0.0, 0.0, 0.0, 0.0, -81970.88771711443, 0.0]
['beep', 0.0, 84966.22263982566, 0.0, 0.0, 0.0, 0.0, -82874.50169020912, 0.0]
['beep', 0.0, 84764.47579437206, 0.0, 0.0, 0.0, 0.0, -82615.44497197212, 0.0]
['beep', 0.0, 83426.83564744421, 0.0, 0.0, 0.0, 0.0, -81548.68561609813, 0.0]
['beep', 0.0, 82898.57451898749, 0.0, 0.0, 0.0, 0.0, -81186.65441115551, 0.0]
['beep', 0.0, 84003.73417183569, 0.0, 0.0, 0.0, 0.0, -82066.10614849403, 0.0]
['beep', 0.0, 85316.7873998627, 0.0, 0.0, 0.0, 0.0, -82966.36735992043, 0.0]
['beep', 0.0, 85122.32722310153, 0.0, 0.0, 0.0, 0.0, -82716.89954005474, 0.0]
['beep', 0.0, 83786.20699479664, 0.0, 0.0, 0.0, 0.0, -81654.96816098312, 0.0]
['beep', 0.0, 83251.86619184806, 0.0, 0.0, 0.0, 0.0, -81286.87963329311, 0.0]
['beep', 0.0, 84352.2649231273, 0.0, 0.0, 0.0, 0.0, -82160.85519324007, 0.0]
['beep', 0.0, 85668.82737503378, 0.0, 0.0, 0.0, 0.0, -83057.22720113126, 0.0]
['beep', 0.0, 85482.88321291009, 0.0, 0.0, 0.0, 0.0, -82819.11406744887, 0.0]
['beep', 0.0, 84147.47824042776, 0.0, 0.0, 0.0, 0.0, -81761.65303726829, 0.0]
['beep', 0.0, 83604.84494028628, 0.0, 0.0, 0.0, 0.0, -81386.32254437478, 0.0]
['beep', 0.0, 84699.72279068505, 0.0, 0.0, 0.0, 0.0, -82254.55370599672, 0.0]
['beep', 0.0, 86020.44266706023, 0.0, 0.0, 0.0, 0.0, -83146.4777167413, 0.0]
['beep', 0.0, 85842.88040910727, 0.0, 0.0, 0.0, 0.0, -82920.68039425378, 0.0]
['beep', 0.0, 84509.33063141473, 0.0, 0.0, 0.0, 0.0, -81868.20380308674, 0.0]
['beep', 0.0, 83959.58947653645, 0.0, 0.0, 0.0, 0.0, -81486.39130430119, 0.0]
['beep', 0.0, 85047.24771347616, 0.0, 0.0, 0.0, 0.0, -82347.5816664197, 0.0]
['beep', 0.0, 86371.40975849745, 0.0, 0.0, 0.0, 0.0, -83235.08003176213, 0.0]
['beep', 0.0, 86202.0952942485, 0.0, 0.0, 0.0, 0.0, -83020.5479884801, 0.0]
['beep', 0.0, 84869.97602820111, 0.0, 0.0, 0.0, 0.0, -81974.62045843845, 0.0]
['beep', 0.0, 84313.1046668416, 0.0, 0.0, 0.0, 0.0, -81586.32595376087, 0.0]
['beep', 0.0, 85396.13609267904, 0.0, 0.0, 0.0, 0.0, -82440.47551637597, 0.0]
['beep', 0.0, 86724.74613484695, 0.0, 0.0, 0.0, 0.0, -83319.14494265855, 0.0]
['beep', 0.0, 86563.29948464627, 0.0, 0.0, 0.0, 0.0, -83116.45932393782, 0.0]
['beep', 0.0, 85231.89547442144, 0.0, 0.0, 0.0, 0.0, -82081.1712242569, 0.0]
['beep', 0.0, 84668.13977576968, 0.0, 0.0, 0.0, 0.0, -81687.46759742113, 0.0]
['beep', 0.0, 85744.97976839302, 0.0, 0.0, 0.0, 0.0, -82532.98938667648, 0.0]
['beep', 0.0, 87076.20496466219, 0.0, 0.0, 0.0, 0.0, -83391.92222260502, 0.0]
['beep', 0.0, 86923.1178668878, 0.0, 0.0, 0.0, 0.0, -83201.66417380144, 0.0]
['beep', 0.0, 85593.27847877485, 0.0, 0.0, 0.0, 0.0, -82187.11849297506, 0.0]
['beep', 0.0, 85022.45962887522, 0.0, 0.0, 0.0, 0.0, -81787.58106083644, 0.0]
['beep', 0.0, 86094.20342376274, 0.0, 0.0, 0.0, 0.0, -82624.27391103195, 0.0]
['beep', 0.0, 87429.69780322288, 0.0, 0.0, 0.0, 0.0, -83459.22332515995, 0.0]
['beep', 0.0, 87283.76326367418, 0.0, 0.0, 0.0, 0.0, -83280.76699742879, 0.0]
['beep', 0.0, 85954.4379656837, 0.0, 0.0, 0.0, 0.0, -82291.65760179253, 0.0]
['beep', 0.0, 85377.02535116975, 0.0, 0.0, 0.0, 0.0, -81887.64982076286, 0.0]
['beep', 0.0, 86443.71765181037, 0.0, 0.0, 0.0, 0.0, -82714.77612433149, 0.0]
['beep', 0.0, 87783.07888306129, 0.0, 0.0, 0.0, 0.0, -83520.89178811215, 0.0]
['beep', 0.0, 87646.0403378058, 0.0, 0.0, 0.0, 0.0, -83356.6288181101, 0.0]
['beep', 0.0, 86318.39142064947, 0.0, 0.0, 0.0, 0.0, -82397.78368446633, 0.0]
['beep', 0.0, 85733.55802697636, 0.0, 0.0, 0.0, 0.0, -81989.52907199015, 0.0]
['beep', 0.0, 86794.79650196987, 0.0, 0.0, 0.0, 0.0, -82804.22780564164, 0.0]
['beep', 0.0, 88137.04110825552, 0.0, 0.0, 0.0, 0.0, -83578.55928880683, 0.0]
['beep', 0.0, 88006.88690029227, 0.0, 0.0, 0.0, 0.0, -83427.17092361105, 0.0]
['beep', 0.0, 86680.46732908099, 0.0, 0.0, 0.0, 0.0, -82502.3227932838, 0.0]
['beep', 0.0, 86089.55426091603, 0.0, 0.0, 0.0, 0.0, -82090.84952960606, 0.0]
['beep', 0.0, 87144.55659920652, 0.0, 0.0, 0.0, 0.0, -82892.07016135099, 0.0]
['beep', 0.0, 88489.84104273809, 0.0, 0.0, 0.0, 0.0, -83632.76226911096, 0.0]
