['beep', 0.0, -78763.94882964478, 0.0, 0.0, 0.0, 0.0, -74086.15339829367, 0.0]
['beep', 0.0, -79005.16885580646, 0.0, 0.0, 0.0, 0.0, -74513.7869732126, 0.0]
['beep', 0.0, -78789.16159739037, 0.0, 0.0, 0.0, 0.0, -74168.87720452275, 0.0]
['beep', 0.0, -78409.89719747272, 0.0, 0.0, 0.0, 0.0, -73523.98467349824, 0.0]
['beep', 0.0, -78384.34915356031, 0.0, 0.0, 0.0, 0.0, -73461.51154774566, 0.0]
['beep', 0.0, -78744.94984685778, 0.0, 0.0, 0.0, 0.0, -74065.32157246133, 0.0]
['beep', 0.0, -78988.62856490954, 0.0, 0.0, 0.0, 0.0, -74496.17379858182, 0.0]
['beep', 0.0, -78775.16940536135, 0.0, 0.0, 0.0, 0.0, -74154.75090202701, 0.0]
['beep', 0.0, -78394.02745890945, 0.0, 0.0, 0.0, 0.0, -73507.71260353478, 0.0]
['beep', 0.0, -78364.0984730838, 0.0, 0.0, 0.0, 0.0, -73440.05387306857, 0.0]
['beep', 0.0, -78722.12871576891, 0.0, 0.0, 0.0, 0.0, -74041.04757798286, 0.0]
['beep', 0.0, -78966.5897448766, 0.0, 0.0, 0.0, 0.0, -74473.28561225958, 0.0]
['beep', 0.0, -78756.6398092079, 0.0, 0.0, 0.0, 0.0, -74135.997788429, 0.0]
['beep', 0.0, -78374.53673774442, 0.0, 0.0, 0.0, 0.0, -73487.97601318074, 0.0]
['beep', 0.0, -78344.07131005185, 0.0, 0.0, 0.0, 0.0, -73418.95382630275, 0.0]
['beep', 0.0, -78703.9790992712, 0.0, 0.0, 0.0, 0.0, -74021.40039460664, 0.0]
['beep', 0.0, -78949.75888130175, 0.0, 0.0, 0.0, 0.0, -74455.4265684398, 0.0]
['beep', 0.0, -78736.21031477574, 0.0, 0.0, 0.0, 0.0, -74115.50123876349, 0.0]
['beep', 0.0, -78354.62133343474, 0.0, 0.0, 0.0, 0.0, -73467.83709142651, 0.0]
['beep', 0.0, -78325.3852516872, 0.0, 0.0, 0.0, 0.0, -73399.01607024862, 0.0]
['beep', 0.0, -78685.85183451795, 0.0, 0.0, 0.0, 0.0, -74001.64145250815, 0.0]
['beep', 0.0, -78933.84443924957, 0.0, 0.0, 0.0, 0.0, -74438.55100137604, 0.0]
['beep', 0.0, -78721.86049483545, 0.0, 0.0, 0.0, 0.0, -74100.81614265635, 0.0]
['beep', 0.0, -78338.17044951564, 0.0, 0.0, 0.0, 0.0, -73450.87211738493, 0.0]
['beep', 0.0, -78305.62630958871, 0.0, 0.0, 0.0, 0.0, -73378.05013394954, 0.0]
['beep', 0.0, -78662.94129645124, 0.0, 0.0, 0.0, 0.0, -73977.18864407405, 0.0]
['beep', 0.0, -78911.40328781644, 0.0, 0.0, 0.0, 0.0, -74415.2604836536, 0.0]
['beep', 0.0, -78703.10738123744, 0.0, 0.0, 0.0, 0.0, -74081.8842151027, 0.0]
['beep', 0.0, -78322.50187665247, 0.0, 0.0, 0.0, 0.0, -73434.84591661047, 0.0]
['beep', 0.0, -78290.20360591455, 0.0, 0.0, 0.0, 0.0, -73361.35338084142, 0.0]
['beep', 0.0, -78645.43988054275, 0.0, 0.0, 0.0, 0.0, -73957.92144035357, 0.0]
['beep', 0.0, -78893.87952016348, 0.0, 0.0, 0.0, 0.0, -74396.57442528897, 0.0]
['beep', 0.0, -78687.327049652, 0.0, 0.0, 0.0, 0.0, -74065.72390386152, 0.0]
['beep', 0.0, -78305.80512354436, 0.0, 0.0, 0.0, 0.0, -73417.81388733553, 0.0]
['beep', 0.0, -78270.6234777717, 0.0, 0.0, 0.0, 0.0, -73340.67801722027, 0.0]
['beep', 0.0, -78626.77617392257, 0.0, 0.0, 0.0, 0.0, -73937.53664941034, 0.0]
['beep', 0.0, -78878.47916823378, 0.0, 0.0, 0.0, 0.0, -74380.16824485878, 0.0]
['beep', 0.0, -78670.49618607714, 0.0, 0.0, 0.0, 0.0, -74049.00479900895, 0.0]
['beep', 0.0, -78287.05200994635, 0.0, 0.0, 0.0, 0.0, -73398.9266632708, 0.0]
['beep', 0.0, -78250.79748043984, 0.0, 0.0, 0.0, 0.0, -73319.5109152211, 0.0]
['beep', 0.0, -78606.65960391279, 0.0, 0.0, 0.0, 0.0, -73915.85545728868, 0.0]
['beep', 0.0, -78858.13908077945, 0.0, 0.0, 0.0, 0.0, -74358.71057018168, 0.0]
['beep', 0.0, -78651.3630928234, 0.0, 0.0, 0.0, 0.0, -74029.44702261055, 0.0]
['beep', 0.0, -78270.2211463715, 0.0, 0.0, 0.0, 0.0, -73381.53700608457, 0.0]
['beep', 0.0, -78234.6148174542, 0.0, 0.0, 0.0, 0.0, -73302.07655454594, 0.0]
['beep', 0.0, -78591.08043802743, 0.0, 0.0, 0.0, 0.0, -73898.689317547, 0.0]
['beep', 0.0, -78840.28003695965, 0.0, 0.0, 0.0, 0.0, -74339.97980832813, 0.0]
['beep', 0.0, -78636.92386590528, 0.0, 0.0, 0.0, 0.0, -74014.71722301451, 0.0]
['beep', 0.0, -78255.0666636308, 0.0, 0.0, 0.0, 0.0, -73365.98019194367, 0.0]
['beep', 0.0, -78217.09104980124, 0.0, 0.0, 0.0, 0.0, -73283.41284792576, 0.0]
['beep', 0.0, -78574.33898143041, 0.0, 0.0, 0.0, 0.0, -73880.36088709366, 0.0]
['beep', 0.0, -78826.37725190846, 0.0, 0.0, 0.0, 0.0, -74324.98178779862, 0.0]
['beep', 0.0, -78622.5069907316, 0.0, 0.0, 0.0, 0.0, -74000.07683039628, 0.0]
['beep', 0.0, -78239.95688437902, 0.0, 0.0, 0.0, 0.0, -73350.49043303615, 0.0]
['beep', 0.0, -78203.36707870568, 0.0, 0.0, 0.0, 0.0, -73268.37012390734, 0.0]
['beep', 0.0, -78555.78703353251, 0.0, 0.0, 0.0, 0.0, -73860.11020661714, 0.0]
['beep', 0.0, -78806.86417899898, 0.0, 0.0, 0.0, 0.0, -74304.50758987757, 0.0]
['beep', 0.0, -78605.60907192339, 0.0, 0.0, 0.0, 0.0, -73983.08950461025, 0.0]
['beep', 0.0, -78222.14254404814, 0.0, 0.0, 0.0, 0.0, -73332.40787177181, 0.0]
['beep', 0.0, -78180.30007842781, 0.0, 0.0, 0.0, 0.0, -73244.1408329178, 0.0]
['beep', 0.0, -78533.8823239663, 0.0, 0.0, 0.0, 0.0, -73836.61852319461, 0.0]
['beep', 0.0, -78786.81466422256, 0.0, 0.0, 0.0, 0.0, -74283.40754311175, 0.0]
['beep', 0.0, -78582.58677513442, 0.0, 0.0, 0.0, 0.0, -73959.70957990999, 0.0]
['beep', 0.0, -78201.33306996025, 0.0, 0.0, 0.0, 0.0, -73311.12901105035, 0.0]
['beep', 0.0, -78161.45755785199, 0.0, 0.0, 0.0, 0.0, -73224.06896639692, 0.0]
['beep', 0.0, -78514.57041675692, 0.0, 0.0, 0.0, 0.0, -73815.76434561782, 0.0]
['beep', 0.0, -78768.79915819158, 0.0, 0.0, 0.0, 0.0, -74264.43091206919, 0.0]
['beep', 0.0, -78567.92403077174, 0.0, 0.0, 0.0, 0.0, -73944.86802159167, 0.0]
['beep', 0.0, -78185.32922093025, 0.0, 0.0, 0.0, 0.0, -73294.85694108688, 0.0]
['beep', 0.0, -78143.35264484318, 0.0, 0.0, 0.0, 0.0, -73204.80176267645, 0.0]
['beep', 0.0, -78497.96307062663, 0.0, 0.0, 0.0, 0.0, -73797.43591516446, 0.0]
['beep', 0.0, -78753.91289638435, 0.0, 0.0, 0.0, 0.0, -74248.56117350592, 0.0]
['beep', 0.0, -78554.11065269836, 0.0, 0.0, 0.0, 0.0, -73930.98758828493, 0.0]
['beep', 0.0, -78170.97940098995, 0.0, 0.0, 0.0, 0.0, -73280.1494932353, 0.0]
['beep', 0.0, -78127.88523768011, 0.0, 0.0, 0.0, 0.0, -73188.03795433497, 0.0]
['beep', 0.0, -78480.23813727357, 0.0, 0.0, 0.0, 0.0, -73778.03460097726, 0.0]
['beep', 0.0, -78736.52323919813, 0.0, 0.0, 0.0, 0.0, -74230.1209843303, 0.0]
['beep', 0.0, -78534.70933851115, 0.0, 0.0, 0.0, 0.0, -73911.31805316426, 0.0]
['beep', 0.0, -78149.72289201294, 0.0, 0.0, 0.0, 0.0, -73258.4906528581, 0.0]
['beep', 0.0, -78104.19238855748, 0.0, 0.0, 0.0, 0.0, -73163.09340752286, 0.0]
['beep', 0.0, -78455.13712825027, 0.0, 0.0, 0.0, 0.0, -73751.27956286426, 0.0]
['beep', 0.0, -78712.36100344194, 0.0, 0.0, 0.0, 0.0, -74204.93056832918, 0.0]
['beep', 0.0, -78515.50919002405, 0.0, 0.0, 0.0, 0.0, -73891.9390907215, 0.0]
['beep', 0.0, -78133.13789762711, 0.0, 0.0, 0.0, 0.0, -73241.59273404989, 0.0]
['beep', 0.0, -78086.9815453269, 0.0, 0.0, 0.0, 0.0, -73144.83203230286, 0.0]
['beep', 0.0, -78439.1109274758, 0.0, 0.0, 0.0, 0.0, -73733.84520218911, 0.0]
['beep', 0.0, -78697.65355559034, 0.0, 0.0, 0.0, 0.0, -74189.261995466, 0.0]
['beep', 0.0, -78502.61223347334, 0.0, 0.0, 0.0, 0.0, -73878.75156149287, 0.0]
['beep', 0.0, -78118.56456024224, 0.0, 0.0, 0.0, 0.0, -73226.75117573157, 0.0]
['beep', 0.0, -78069.45777767393, 0.0, 0.0, 0.0, 0.0, -73126.14597393823, 0.0]
['beep', 0.0, -78416.5580173204, 0.0, 0.0, 0.0, 0.0, -73709.59355945511, 0.0]
['beep', 0.0, -78676.39704661335, 0.0, 0.0, 0.0, 0.0, -74167.02200973297, 0.0]
['beep', 0.0, -78480.21578552912, 0.0, 0.0, 0.0, 0.0, -73856.22100308193, 0.0]
['beep', 0.0, -78097.19629254297, 0.0, 0.0, 0.0, 0.0, -73205.025280121, 0.0]
['beep', 0.0, -78046.63664658507, 0.0, 0.0, 0.0, 0.0, -73102.16255213768, 0.0]
['beep', 0.0, -78399.36952583428, 0.0, 0.0, 0.0, 0.0, -73690.72868713483, 0.0]
['beep', 0.0, -78662.62837202888, 0.0, 0.0, 0.0, 0.0, -74152.1580996702, 0.0]
['beep', 0.0, -78469.95633482414, 0.0, 0.0, 0.0, 0.0, -73845.62627621011, 0.0]
['beep', 0.0, -78082.82412085822, 0.0, 0.0, 0.0, 0.0, -73190.38488750278, 0.0]
['beep', 0.0, -78028.79995450974, 0.0, 0.0, 0.0, 0.0, -73083.14121760621, 0.0]
['beep', 0.0, -78378.6047552353, 0.0, 0.0, 0.0, 0.0, -73668.35459093507, 0.0]
['beep', 0.0, -78639.91899966229, 0.0, 0.0, 0.0, 0.0, -74128.48760229202, 0.0]
['beep', 0.0, -78447.80575606892, 0.0, 0.0, 0.0, 0.0, -73823.2745317548, 0.0]
['beep', 0.0, -78065.79209158327, 0.0, 0.0, 0.0, 0.0, -73172.99523031655, 0.0]
['beep', 0.0, -78013.44430606894, 0.0, 0.0, 0.0, 0.0, -73066.57857496483, 0.0]
['beep', 0.0, -78362.243278294, 0.0, 0.0, 0.0, 0.0, -73650.54025060419, 0.0]
['beep', 0.0, -78627.04439485603, 0.0, 0.0, 0.0, 0.0, -74114.76363119646, 0.0]
['beep', 0.0, -78434.93115126266, 0.0, 0.0, 0.0, 0.0, -73810.31051997072, 0.0]
['beep', 0.0, -78048.42478614149, 0.0, 0.0, 0.0, 0.0, -73155.42675917468, 0.0]
['beep', 0.0, -77993.32773605916, 0.0, 0.0, 0.0, 0.0, -73045.32206598784, 0.0]
['beep', 0.0, -78338.77394661594, 0.0, 0.0, 0.0, 0.0, -73625.41688983643, 0.0]
['beep', 0.0, -78603.32919398895, 0.0, 0.0, 0.0, 0.0, -74089.86378787326, 0.0]
['beep', 0.0, -78413.42877309666, 0.0, 0.0, 0.0, 0.0, -73788.5622726157, 0.0]
['beep', 0.0, -78029.64932079904, 0.0, 0.0, 0.0, 0.0, -73136.29366592094, 0.0]
['beep', 0.0, -77975.33458177264, 0.0, 0.0, 0.0, 0.0, -73025.98780703399, 0.0]
['beep', 0.0, -78323.17242898613, 0.0, 0.0, 0.0, 0.0, -73607.96017741683, 0.0]
['beep', 0.0, -78588.08530427043, 0.0, 0.0, 0.0, 0.0, -74073.50231093196, 0.0]
['beep', 0.0, -78398.9001392007, 0.0, 0.0, 0.0, 0.0, -73773.92187999748, 0.0]
['beep', 0.0, -78011.34324209014, 0.0, 0.0, 0.0, 0.0, -73117.69701453412, 0.0]
['beep', 0.0, -77954.48040419584, 0.0, 0.0, 0.0, 0.0, -73003.81487653434, 0.0]
['beep', 0.0, -78301.1336089532, 0.0, 0.0, 0.0, 0.0, -73583.93205212738, 0.0]
['beep', 0.0, -78566.2923534265, 0.0, 0.0, 0.0, 0.0, -74050.52471763191, 0.0]
['beep', 0.0, -78380.28113606943, 0.0, 0.0, 0.0, 0.0, -73755.21346988839, 0.0]
['beep', 0.0, -77995.1158756156, 0.0, 0.0, 0.0, 0.0, -73101.24613061502, 0.0]
['beep', 0.0, -77937.91776155446, 0.0, 0.0, 0.0, 0.0, -72986.00053620346, 0.0]
['beep', 0.0, -78283.60984130023, 0.0, 0.0, 0.0, 0.0, -73564.79895887362, 0.0]
['beep', 0.0, -78548.20979216216, 0.0, 0.0, 0.0, 0.0, -74031.5704383338, 0.0]
['beep', 0.0, -78360.7904149044, 0.0, 0.0, 0.0, 0.0, -73735.74510046782, 0.0]
['beep', 0.0, -77972.89824162702, 0.0, 0.0, 0.0, 0.0, -73078.93908964861, 0.0]
['beep', 0.0, -77915.43190663242, 0.0, 0.0, 0.0, 0.0, -72962.17357661409, 0.0]
['beep', 0.0, -78262.50979453443, 0.0, 0.0, 0.0, 0.0, -73541.91077255139, 0.0]
['beep', 0.0, -78532.31770185444, 0.0, 0.0, 0.0, 0.0, -74014.53840905886, 0.0]
['beep', 0.0, -78345.41241471916, 0.0, 0.0, 0.0, 0.0, -73720.27769330474, 0.0]
['beep', 0.0, -77956.78263387474, 0.0, 0.0, 0.0, 0.0, -73062.57761270733, 0.0]
['beep', 0.0, -77898.55633956866, 0.0, 0.0, 0.0, 0.0, -72944.2698293054, 0.0]
['beep', 0.0, -78247.42236702709, 0.0, 0.0, 0.0, 0.0, -73524.99050199873, 0.0]
['beep', 0.0, -78516.85029469136, 0.0, 0.0, 0.0, 0.0, -73997.93106292858, 0.0]
['beep', 0.0, -78331.7331471125, 0.0, 0.0, 0.0, 0.0, -73706.26314953127, 0.0]
['beep', 0.0, -77945.2938372247, 0.0, 0.0, 0.0, 0.0, -73050.77589163493, 0.0]
['beep', 0.0, -77882.82071147213, 0.0, 0.0, 0.0, 0.0, -72927.28250351937, 0.0]
['beep', 0.0, -78227.59636969524, 0.0, 0.0, 0.0, 0.0, -73503.51047557718, 0.0]
['beep', 0.0, -78498.34305028238, 0.0, 0.0, 0.0, 0.0, -73978.28387955236, 0.0]
['beep', 0.0, -78314.94698702657, 0.0, 0.0, 0.0, 0.0, -73689.20876851187, 0.0]
['beep', 0.0, -77926.60777886007, 0.0, 0.0, 0.0, 0.0, -73031.64279838119, 0.0]
['beep', 0.0, -77861.85477517305, 0.0, 0.0, 0.0, 0.0, -72905.1095730197, 0.0]
['beep', 0.0, -78208.39622120812, 0.0, 0.0, 0.0, 0.0, -73482.90216718939, 0.0]
['beep', 0.0, -78480.21578552912, 0.0, 0.0, 0.0, 0.0, -73959.32960025425, 0.0]
['beep', 0.0, -78295.4339141171, 0.0, 0.0, 0.0, 0.0, -73669.60628862456, 0.0]
['beep', 0.0, -77906.37945012802, 0.0, 0.0, 0.0, 0.0, -73011.0344899934, 0.0]
['beep', 0.0, -77841.33587376308, 0.0, 0.0, 0.0, 0.0, -72883.38367740913, 0.0]
['beep', 0.0, -78184.41279940758, 0.0, 0.0, 0.0, 0.0, -73457.26471629915, 0.0]
['beep', 0.0, -78457.99815154054, 0.0, 0.0, 0.0, 0.0, -73936.03908253183, 0.0]
['beep', 0.0, -78279.20654764253, 0.0, 0.0, 0.0, 0.0, -73652.99894249428, 0.0]
['beep', 0.0, -77890.82263598712, 0.0, 0.0, 0.0, 0.0, -72995.14239968568, 0.0]
['beep', 0.0, -77827.5224956897, 0.0, 0.0, 0.0, 0.0, -72868.22919466844, 0.0]
['beep', 0.0, -78171.24762192341, 0.0, 0.0, 0.0, 0.0, -73442.44550972528, 0.0]
['beep', 0.0, -78442.75426182202, 0.0, 0.0, 0.0, 0.0, -73919.78936431282, 0.0]
['beep', 0.0, -78262.97918116799, 0.0, 0.0, 0.0, 0.0, -73636.72687253081, 0.0]
['beep', 0.0, -77874.21528985683, 0.0, 0.0, 0.0, 0.0, -72978.3785913442, 0.0]
['beep', 0.0, -77807.71885010229, 0.0, 0.0, 0.0, 0.0, -72847.37501709163, 0.0]
['beep', 0.0, -78149.29820886829, 0.0, 0.0, 0.0, 0.0, -73418.79736409156, 0.0]
['beep', 0.0, -78422.79415402343, 0.0, 0.0, 0.0, 0.0, -73898.59991056919, 0.0]
['beep', 0.0, -78242.70614894702, 0.0, 0.0, 0.0, 0.0, -73616.05150890964, 0.0]
['beep', 0.0, -77854.00931286924, 0.0, 0.0, 0.0, 0.0, -72957.70322772303, 0.0]
['beep', 0.0, -77787.93755625935, 0.0, 0.0, 0.0, 0.0, -72826.25261858138, 0.0]
['beep', 0.0, -78129.18163885851, 0.0, 0.0, 0.0, 0.0, -73396.95970975872, 0.0]
['beep', 0.0, -78402.78934273594, 0.0, 0.0, 0.0, 0.0, -73877.5892707812, 0.0]
['beep', 0.0, -78227.99870109544, 0.0, 0.0, 0.0, 0.0, -73601.14289535796, 0.0]
['beep', 0.0, -77841.6711499299, 0.0, 0.0, 0.0, 0.0, -72944.96273338351, 0.0]
['beep', 0.0, -77772.13487292944, 0.0, 0.0, 0.0, 0.0, -72809.30999628425, 0.0]
['beep', 0.0, -78114.18361832901, 0.0, 0.0, 0.0, 0.0, -73380.24060490615, 0.0]
['beep', 0.0, -78390.98762166353, 0.0, 0.0, 0.0, 0.0, -73864.62525899711, 0.0]
['beep', 0.0, -78216.64401491213, 0.0, 0.0, 0.0, 0.0, -73589.5646917301, 0.0]
['beep', 0.0, -77828.1706962789, 0.0, 0.0, 0.0, 0.0, -72931.30581752132, 0.0]
['beep', 0.0, -77756.01926517716, 0.0, 0.0, 0.0, 0.0, -72791.94269084248, 0.0]
['beep', 0.0, -78094.82700763071, 0.0, 0.0, 0.0, 0.0, -73359.05115116252, 0.0]
['beep', 0.0, -78372.9497638881, 0.0, 0.0, 0.0, 0.0, -73845.42511051001, 0.0]
['beep', 0.0, -78199.16495074809, 0.0, 0.0, 0.0, 0.0, -73571.86211012151, 0.0]
['beep', 0.0, -77809.57404489208, 0.0, 0.0, 0.0, 0.0, -72912.4632969455, 0.0]
['beep', 0.0, -77737.04263413462, 0.0, 0.0, 0.0, 0.0, -72771.64730687706, 0.0]
['beep', 0.0, -78076.27505973281, 0.0, 0.0, 0.0, 0.0, -73338.57695324147, 0.0]
['beep', 0.0, -78355.56010670187, 0.0, 0.0, 0.0, 0.0, -73826.85081086765, 0.0]
['beep', 0.0, -78182.40114240661, 0.0, 0.0, 0.0, 0.0, -73554.83008084656, 0.0]
['beep', 0.0, -77792.49731212822, 0.0, 0.0, 0.0, 0.0, -72895.07363975927, 0.0]
['beep', 0.0, -77717.82013390305, 0.0, 0.0, 0.0, 0.0, -72751.28486767827, 0.0]
['beep', 0.0, -78057.2760769458, 0.0, 0.0, 0.0, 0.0, -73317.83453438694, 0.0]
['beep', 0.0, -78337.29873148189, 0.0, 0.0, 0.0, 0.0, -73807.40479319153, 0.0]
['beep', 0.0, -78168.31954339976, 0.0, 0.0, 0.0, 0.0, -73540.68142660636, 0.0]
['beep', 0.0, -77777.94632648783, 0.0, 0.0, 0.0, 0.0, -72880.36619190767, 0.0]
['beep', 0.0, -77703.2915000071, 0.0, 0.0, 0.0, 0.0, -72735.45983260391, 0.0]
['beep', 0.0, -78041.09341396016, 0.0, 0.0, 0.0, 0.0, -73299.88608358933, 0.0]
['beep', 0.0, -78320.08788825129, 0.0, 0.0, 0.0, 0.0, -73788.9646040159, 0.0]
['beep', 0.0, -78149.92405771304, 0.0, 0.0, 0.0, 0.0, -73521.97301649726, 0.0]
['beep', 0.0, -77759.88611696793, 0.0, 0.0, 0.0, 0.0, -72862.03776145432, 0.0]
['beep', 0.0, -77682.37026719694, 0.0, 0.0, 0.0, 0.0, -72713.35395733762, 0.0]
['beep', 0.0, -78019.72514626088, 0.0, 0.0, 0.0, 0.0, -73276.70732458918, 0.0]
['beep', 0.0, -78300.731277553, 0.0, 0.0, 0.0, 0.0, -73768.4680543504, 0.0]
['beep', 0.0, -78131.21564760395, 0.0, 0.0, 0.0, 0.0, -73503.01873719916, 0.0]
['beep', 0.0, -77742.31764582607, 0.0, 0.0, 0.0, 0.0, -72844.13401414562, 0.0]
['beep', 0.0, -77663.25952568764, 0.0, 0.0, 0.0, 0.0, -72693.03622162774, 0.0]
['beep', 0.0, -78000.92732917397, 0.0, 0.0, 0.0, 0.0, -73256.21077492366, 0.0]
['beep', 0.0, -78281.08409417678, 0.0, 0.0, 0.0, 0.0, -73747.79269072923, 0.0]
['beep', 0.0, -78112.59664447268, 0.0, 0.0, 0.0, 0.0, -73484.2432718567, 0.0]
['beep', 0.0, -77723.51982873915, 0.0, 0.0, 0.0, 0.0, -72824.93386565852, 0.0]
['beep', 0.0, -77645.9816272237, 0.0, 0.0, 0.0, 0.0, -72674.5513289632, 0.0]
['beep', 0.0, -77981.54836673122, 0.0, 0.0, 0.0, 0.0, -73235.13307990231, 0.0]
['beep', 0.0, -78264.1191201352, 0.0, 0.0, 0.0, 0.0, -73729.64307423151, 0.0]
['beep', 0.0, -78097.91154836555, 0.0, 0.0, 0.0, 0.0, -73469.20054783828, 0.0]
['beep', 0.0, -77707.56068319805, 0.0, 0.0, 0.0, 0.0, -72808.81825790624, 0.0]
['beep', 0.0, -77628.1225834039, 0.0, 0.0, 0.0, 0.0, -72655.55234617619, 0.0]
['beep', 0.0, -77962.81760487767, 0.0, 0.0, 0.0, 0.0, -73214.79299244798, 0.0]
['beep', 0.0, -78245.85774491522, 0.0, 0.0, 0.0, 0.0, -73710.30881527768, 0.0]
['beep', 0.0, -78081.55007142427, 0.0, 0.0, 0.0, 0.0, -73452.66025694135, 0.0]
['beep', 0.0, -77689.56752891155, 0.0, 0.0, 0.0, 0.0, -72790.60158617517, 0.0]
['beep', 0.0, -77606.0614116265, 0.0, 0.0, 0.0, 0.0, -72632.1947732204, 0.0]
['beep', 0.0, -77941.20346798938, 0.0, 0.0, 0.0, 0.0, -73191.16719855872, 0.0]
['beep', 0.0, -78225.45060222753, 0.0, 0.0, 0.0, 0.0, -73688.67232664494, 0.0]
['beep', 0.0, -78062.3275711927, 0.0, 0.0, 0.0, 0.0, -73433.37070147642, 0.0]
['beep', 0.0, -77673.67543860382, 0.0, 0.0, 0.0, 0.0, -72774.55303365625, 0.0]
['beep', 0.0, -77590.25872829661, 0.0, 0.0, 0.0, 0.0, -72615.27450266773, 0.0]
['beep', 0.0, -77924.08203173662, 0.0, 0.0, 0.0, 0.0, -73172.41408496072, 0.0]
['beep', 0.0, -78207.45744794101, 0.0, 0.0, 0.0, 0.0, -73669.65099211347, 0.0]
['beep', 0.0, -78045.7202250624, 0.0, 0.0, 0.0, 0.0, -73416.49513441266, 0.0]
['beep', 0.0, -77656.41989188432, 0.0, 0.0, 0.0, 0.0, -72756.93985902547, 0.0]
['beep', 0.0, -77570.74565538713, 0.0, 0.0, 0.0, 0.0, -72594.57678730211, 0.0]
['beep', 0.0, -77902.02085995923, 0.0, 0.0, 0.0, 0.0, -73148.74358758255, 0.0]
['beep', 0.0, -78189.44194191003, 0.0, 0.0, 0.0, 0.0, -73650.42849188192, 0.0]
['beep', 0.0, -78029.76107952131, 0.0, 0.0, 0.0, 0.0, -73400.02189874911, 0.0]
['beep', 0.0, -77637.08563293048, 0.0, 0.0, 0.0, 0.0, -72737.0691582047, 0.0]
['beep', 0.0, -77547.29867545351, 0.0, 0.0, 0.0, 0.0, -72569.72164746781, 0.0]
['beep', 0.0, -77881.18903412689, 0.0, 0.0, 0.0, 0.0, -73125.94480823813, 0.0]
['beep', 0.0, -78170.97940098995, 0.0, 0.0, 0.0, 0.0, -73630.69190152787, 0.0]
['beep', 0.0, -78009.15277113352, 0.0, 0.0, 0.0, 0.0, -73379.12301768339, 0.0]
['beep', 0.0, -77620.56769377801, 0.0, 0.0, 0.0, 0.0, -72720.32770160768, 0.0]
['beep', 0.0, -77536.12280322585, 0.0, 0.0, 0.0, 0.0, -72557.45053976185, 0.0]
['beep', 0.0, -77865.76633045272, 0.0, 0.0, 0.0, 0.0, -73108.73396500754, 0.0]
['beep', 0.0, -78152.76272925887, 0.0, 0.0, 0.0, 0.0, -73611.33529082958, 0.0]
['beep', 0.0, -77996.43462853845, 0.0, 0.0, 0.0, 0.0, -73366.33781985496, 0.0]
['beep', 0.0, -77605.63672848186, 0.0, 0.0, 0.0, 0.0, -72705.10616363361, 0.0]
['beep', 0.0, -77517.61555881686, 0.0, 0.0, 0.0, 0.0, -72537.6692459189, 0.0]
['beep', 0.0, -77851.5729727236, 0.0, 0.0, 0.0, 0.0, -73092.86422644428, 0.0]
['beep', 0.0, -78143.26323786537, 0.0, 0.0, 0.0, 0.0, -73600.69586046886, 0.0]
['beep', 0.0, -77984.52114874378, 0.0, 0.0, 0.0, 0.0, -73354.13376738236, 0.0]
['beep', 0.0, -77591.33161203047, 0.0, 0.0, 0.0, 0.0, -72690.62223322658, 0.0]
['beep', 0.0, -77499.8906254638, 0.0, 0.0, 0.0, 0.0, -72518.96083580982, 0.0]
['beep', 0.0, -77831.34464399156, 0.0, 0.0, 0.0, 0.0, -73070.91481338916, 0.0]
['beep', 0.0, -78119.95036839848, 0.0, 0.0, 0.0, 0.0, -73576.15364505693, 0.0]
['beep', 0.0, -77963.3540467446, 0.0, 0.0, 0.0, 0.0, -73332.74314793863, 0.0]
['beep', 0.0, -77572.1091117989, 0.0, 0.0, 0.0, 0.0, -72671.1091603171, 0.0]
['beep', 0.0, -77482.56802351095, 0.0, 0.0, 0.0, 0.0, -72500.364184423, 0.0]
['beep', 0.0, -77812.30095771563, 0.0, 0.0, 0.0, 0.0, -73050.21709802355, 0.0]
['beep', 0.0, -78102.82893214571, 0.0, 0.0, 0.0, 0.0, -73557.9146215814, 0.0]
['beep', 0.0, -77947.43960469242, 0.0, 0.0, 0.0, 0.0, -73316.56048495299, 0.0]
['beep', 0.0, -77556.12761451336, 0.0, 0.0, 0.0, 0.0, -72654.9488490759, 0.0]
['beep', 0.0, -77463.12200583483, 0.0, 0.0, 0.0, 0.0, -72479.7558760352, 0.0]
['beep', 0.0, -77793.77136156218, 0.0, 0.0, 0.0, 0.0, -73029.92171405813, 0.0]
['beep', 0.0, -78086.22158601542, 0.0, 0.0, 0.0, 0.0, -73540.27909520616, 0.0]
['beep', 0.0, -77931.36870042906, 0.0, 0.0, 0.0, 0.0, -73300.22135975616, 0.0]
['beep', 0.0, -77539.2967509385, 0.0, 0.0, 0.0, 0.0, -72637.71565410086, 0.0]
['beep', 0.0, -77444.43594747019, 0.0, 0.0, 0.0, 0.0, -72459.99693393671, 0.0]
['beep', 0.0, -77776.5605183316, 0.0, 0.0, 0.0, 0.0, -73010.94508301557, 0.0]
['beep', 0.0, -78070.44125442997, 0.0, 0.0, 0.0, 0.0, -73523.18001069785, 0.0]
['beep', 0.0, -77916.638900833, 0.0, 0.0, 0.0, 0.0, -73285.2009874822, 0.0]
['beep', 0.0, -77524.94693099821, 0.0, 0.0, 0.0, 0.0, -72623.16466846045, 0.0]
['beep', 0.0, -77429.37087170732, 0.0, 0.0, 0.0, 0.0, -72443.59075350652, 0.0]
['beep', 0.0, -77757.1592041444, 0.0, 0.0, 0.0, 0.0, -72989.73327752748, 0.0]
['beep', 0.0, -78049.9670565089, 0.0, 0.0, 0.0, 0.0, -73501.63292904293, 0.0]
['beep', 0.0, -77896.65644128996, 0.0, 0.0, 0.0, 0.0, -73265.01736223906, 0.0]
['beep', 0.0, -77505.88089297783, 0.0, 0.0, 0.0, 0.0, -72603.7410025288, 0.0]
['beep', 0.0, -77409.81309530891, 0.0, 0.0, 0.0, 0.0, -72422.82598290754, 0.0]
['beep', 0.0, -77737.95905565728, 0.0, 0.0, 0.0, 0.0, -72968.87909995069, 0.0]
['beep', 0.0, -78034.1196696901, 0.0, 0.0, 0.0, 0.0, -73484.55619627908, 0.0]
['beep', 0.0, -77884.00535392825, 0.0, 0.0, 0.0, 0.0, -73252.1874609217, 0.0]
['beep', 0.0, -77490.83816895941, 0.0, 0.0, 0.0, 0.0, -72588.36300234354, 0.0]
['beep', 0.0, -77392.80341777843, 0.0, 0.0, 0.0, 0.0, -72404.65401466537, 0.0]
['beep', 0.0, -77720.68115719332, 0.0, 0.0, 0.0, 0.0, -72949.85776541922, 0.0]
['beep', 0.0, -78017.22175088189, 0.0, 0.0, 0.0, 0.0, -73466.49598675918, 0.0]
['beep', 0.0, -77867.91209792043, 0.0, 0.0, 0.0, 0.0, -73235.62481828032, 0.0]
['beep', 0.0, -77476.8906804193, 0.0, 0.0, 0.0, 0.0, -72573.96847891432, 0.0]
['beep', 0.0, -77376.0172576925, 0.0, 0.0, 0.0, 0.0, -72386.57145340103, 0.0]
['beep', 0.0, -77702.39743022888, 0.0, 0.0, 0.0, 0.0, -72929.62943668717, 0.0]
['beep', 0.0, -77999.18389310646, 0.0, 0.0, 0.0, 0.0, -73447.04996908308, 0.0]
['beep', 0.0, -77849.60601921154, 0.0, 0.0, 0.0, 0.0, -73217.09522212687, 0.0]
['beep', 0.0, -77457.77993891001, 0.0, 0.0, 0.0, 0.0, -72554.74597868275, 0.0]
['beep', 0.0, -77357.15238537222, 0.0, 0.0, 0.0, 0.0, -72366.52193862462, 0.0]
['beep', 0.0, -77682.12439800792, 0.0, 0.0, 0.0, 0.0, -72907.56826490979, 0.0]
['beep', 0.0, -77977.77092191827, 0.0, 0.0, 0.0, 0.0, -73424.3853002054, 0.0]
['beep', 0.0, -77831.45640271383, 0.0, 0.0, 0.0, 0.0, -73198.54327422897, 0.0]
['beep', 0.0, -77441.66433115774, 0.0, 0.0, 0.0, 0.0, -72538.31744650811, 0.0]
['beep', 0.0, -77337.81812641837, 0.0, 0.0, 0.0, 0.0, -72346.07009244802, 0.0]
['beep', 0.0, -77659.6832465748, 0.0, 0.0, 0.0, 0.0, -72883.49543613142, 0.0]
['beep', 0.0, -77958.21314551987, 0.0, 0.0, 0.0, 0.0, -73403.70993658423, 0.0]
['beep', 0.0, -77816.12310601749, 0.0, 0.0, 0.0, 0.0, -73182.89705311025, 0.0]
['beep', 0.0, -77425.25815072753, 0.0, 0.0, 0.0, 0.0, -72521.44187944435, 0.0]
['beep', 0.0, -77321.03196633243, 0.0, 0.0, 0.0, 0.0, -72327.9204759503, 0.0]
['beep', 0.0, -77645.73575803469, 0.0, 0.0, 0.0, 0.0, -72867.62569756815, 0.0]
['beep', 0.0, -77946.59023840312, 0.0, 0.0, 0.0, 0.0, -73390.70122131125, 0.0]
['beep', 0.0, -77801.08038199907, 0.0, 0.0, 0.0, 0.0, -73167.42964594718, 0.0]
['beep', 0.0, -77407.71203133011, 0.0, 0.0, 0.0, 0.0, -72503.73929783575, 0.0]
['beep', 0.0, -77300.58012015584, 0.0, 0.0, 0.0, 0.0, -72306.37339429538, 0.0]
['beep', 0.0, -77624.16632463531, 0.0, 0.0, 0.0, 0.0, -72844.35753159017, 0.0]
['beep', 0.0, -77924.57377011464, 0.0, 0.0, 0.0, 0.0, -73367.63422103337, 0.0]
['beep', 0.0, -77780.33796314454, 0.0, 0.0, 0.0, 0.0, -73146.50841313701, 0.0]
['beep', 0.0, -77387.52840608697, 0.0, 0.0, 0.0, 0.0, -72483.06393421459, 0.0]
['beep', 0.0, -77281.91641353566, 0.0, 0.0, 0.0, 0.0, -72286.4132864968, 0.0]
['beep', 0.0, -77605.63672848186, 0.0, 0.0, 0.0, 0.0, -72824.0397958803, 0.0]
['beep', 0.0, -77906.35709838357, 0.0, 0.0, 0.0, 0.0, -73348.1658516128, 0.0]
['beep', 0.0, -77764.04354143662, 0.0, 0.0, 0.0, 0.0, -73129.78930828444, 0.0]
['beep', 0.0, -77369.9599349451, 0.0, 0.0, 0.0, 0.0, -72465.27194562816, 0.0]
['beep', 0.0, -77264.16912843814, 0.0, 0.0, 0.0, 0.0, -72267.61546940988, 0.0]
['beep', 0.0, -77586.43657999476, 0.0, 0.0, 0.0, 0.0, -72803.25267353686, 0.0]
['beep', 0.0, -77888.3862958415, 0.0, 0.0, 0.0, 0.0, -73328.89864789232, 0.0]
['beep', 0.0, -77748.7996517181, 0.0, 0.0, 0.0, 0.0, -73114.18779065464, 0.0]
['beep', 0.0, -77357.01827490548, 0.0, 0.0, 0.0, 0.0, -72451.97265767725, 0.0]
['beep', 0.0, -77246.46654682953, 0.0, 0.0, 0.0, 0.0, -72248.66119011179, 0.0]
['beep', 0.0, -77565.64945765132, 0.0, 0.0, 0.0, 0.0, -72780.61035640363, 0.0]
['beep', 0.0, -77866.70510371985, 0.0, 0.0, 0.0, 0.0, -73306.03281331454, 0.0]
['beep', 0.0, -77728.16899158586, 0.0, 0.0, 0.0, 0.0, -73093.22185435556, 0.0]
['beep', 0.0, -77335.8064694174, 0.0, 0.0, 0.0, 0.0, -72430.4926312557, 0.0]
['beep', 0.0, -77227.15463962014, 0.0, 0.0, 0.0, 0.0, -72228.11993695736, 0.0]
['beep', 0.0, -77547.83511732044, 0.0, 0.0, 0.0, 0.0, -72760.98552477188, 0.0]
['beep', 0.0, -77853.15994657994, 0.0, 0.0, 0.0, 0.0, -73291.21360674067, 0.0]
['beep', 0.0, -77716.32256702454, 0.0, 0.0, 0.0, 0.0, -73081.1966158386, 0.0]
['beep', 0.0, -77322.21660878857, 0.0, 0.0, 0.0, 0.0, -72416.72395667124, 0.0]
['beep', 0.0, -77208.24506381096, 0.0, 0.0, 0.0, 0.0, -72208.11512566985, 0.0]
['beep', 0.0, -77526.48920136562, 0.0, 0.0, 0.0, 0.0, -72737.80676577172, 0.0]
['beep', 0.0, -77830.29411200216, 0.0, 0.0, 0.0, 0.0, -73267.11842621784, 0.0]
['beep', 0.0, -77695.04370630308, 0.0, 0.0, 0.0, 0.0, -73059.67188592814, 0.0]
['beep', 0.0, -77302.81529460136, 0.0, 0.0, 0.0, 0.0, -72397.07677329502, 0.0]
['beep', 0.0, -77188.77669439038, 0.0, 0.0, 0.0, 0.0, -72187.30565158196, 0.0]
['beep', 0.0, -77508.22782614564, 0.0, 0.0, 0.0, 0.0, -72717.66784401749, 0.0]
['beep', 0.0, -77815.5643124061, 0.0, 0.0, 0.0, 0.0, -73251.11457718785, 0.0]
['beep', 0.0, -77681.49854916317, 0.0, 0.0, 0.0, 0.0, -73045.70204564359, 0.0]
['beep', 0.0, -77287.75021883848, 0.0, 0.0, 0.0, 0.0, -72381.6317178764, 0.0]
['beep', 0.0, -77174.22570874997, 0.0, 0.0, 0.0, 0.0, -72171.48061650762, 0.0]
['beep', 0.0, -77490.45818930367, 0.0, 0.0, 0.0, 0.0, -72697.99830889681, 0.0]
['beep', 0.0, -77796.61003310801, 0.0, 0.0, 0.0, 0.0, -73230.81919322243, 0.0]
['beep', 0.0, -77664.77944431061, 0.0, 0.0, 0.0, 0.0, -73028.55825764636, 0.0]
['beep', 0.0, -77270.36056165225, 0.0, 0.0, 0.0, 0.0, -72363.8844327789, 0.0]
['beep', 0.0, -77157.23838296394, 0.0, 0.0, 0.0, 0.0, -72153.53216571, 0.0]
['beep', 0.0, -77472.97912513961, 0.0, 0.0, 0.0, 0.0, -72679.04402959872, 0.0]
['beep', 0.0, -77779.7568177887, 0.0, 0.0, 0.0, 0.0, -73212.73663195809, 0.0]
['beep', 0.0, -77648.03798771359, 0.0, 0.0, 0.0, 0.0, -73011.57093186032, 0.0]
['beep', 0.0, -77253.86497424424, 0.0, 0.0, 0.0, 0.0, -72347.34414188197, 0.0]
['beep', 0.0, -77136.25009492041, 0.0, 0.0, 0.0, 0.0, -72131.47099393261, 0.0]
['beep', 0.0, -77453.08607257438, 0.0, 0.0, 0.0, 0.0, -72657.34048573262, 0.0]
['beep', 0.0, -77760.7578350017, 0.0, 0.0, 0.0, 0.0, -73192.53065497048, 0.0]
['beep', 0.0, -77631.60945553893, 0.0, 0.0, 0.0, 0.0, -72994.89653049667, 0.0]
['beep', 0.0, -77239.71632000402, 0.0, 0.0, 0.0, 0.0, -72332.81550798602, 0.0]
['beep', 0.0, -77119.59804530122, 0.0, 0.0, 0.0, 0.0, -72113.58959836836, 0.0]
['beep', 0.0, -77431.56134266393, 0.0, 0.0, 0.0, 0.0, -72633.93820928791, 0.0]
['beep', 0.0, -77741.13300336993, 0.0, 0.0, 0.0, 0.0, -73171.63177390478, 0.0]
['beep', 0.0, -77614.97975766419, 0.0, 0.0, 0.0, 0.0, -72977.90920471064, 0.0]
['beep', 0.0, -77221.72316571751, 0.0, 0.0, 0.0, 0.0, -72314.53178102158, 0.0]
['beep', 0.0, -77103.1024578932, 0.0, 0.0, 0.0, 0.0, -72095.77525803748, 0.0]
['beep', 0.0, -77418.03853726847, 0.0, 0.0, 0.0, 0.0, -72618.7390230583, 0.0]
['beep', 0.0, -77728.43721251932, 0.0, 0.0, 0.0, 0.0, -73157.68428536467, 0.0]
['beep', 0.0, -77601.27813831308, 0.0, 0.0, 0.0, 0.0, -72963.84995744824, 0.0]
['beep', 0.0, -77207.41804926611, 0.0, 0.0, 0.0, 0.0, -72299.93609189226, 0.0]
['beep', 0.0, -77082.09181810521, 0.0, 0.0, 0.0, 0.0, -72073.57997579337, 0.0]
['beep', 0.0, -77393.78689453447, 0.0, 0.0, 0.0, 0.0, -72592.47572332331, 0.0]
['beep', 0.0, -77707.44892447579, 0.0, 0.0, 0.0, 0.0, -73135.24313393154, 0.0]
['beep', 0.0, -77582.2121002927, 0.0, 0.0, 0.0, 0.0, -72944.42629151659, 0.0]
['beep', 0.0, -77189.04491532384, 0.0, 0.0, 0.0, 0.0, -72281.2053300387, 0.0]
['beep', 0.0, -77066.8926318756, 0.0, 0.0, 0.0, 0.0, -72057.15144361871, 0.0]
['beep', 0.0, -77379.14650191624, 0.0, 0.0, 0.0, 0.0, -72576.11424638203, 0.0]
['beep', 0.0, -77688.11466552195, 0.0, 0.0, 0.0, 0.0, -73114.81363949939, 0.0]
['beep', 0.0, -77562.38610296084, 0.0, 0.0, 0.0, 0.0, -72924.35442499572, 0.0]
['beep', 0.0, -77168.92834531407, 0.0, 0.0, 0.0, 0.0, -72261.02170479557, 0.0]
['beep', 0.0, -77047.08898628819, 0.0, 0.0, 0.0, 0.0, -72036.36432127528, 0.0]
['beep', 0.0, -77359.32050458438, 0.0, 0.0, 0.0, 0.0, -72554.56716472712, 0.0]
['beep', 0.0, -77671.082636247, 0.0, 0.0, 0.0, 0.0, -73096.59696776832, 0.0]
['beep', 0.0, -77548.7068353542, 0.0, 0.0, 0.0, 0.0, -72910.42928820006, 0.0]
['beep', 0.0, -77156.34431318573, 0.0, 0.0, 0.0, 0.0, -72248.25885871159, 0.0]
['beep', 0.0, -77030.74986109136, 0.0, 0.0, 0.0, 0.0, -72018.90760885568, 0.0]
['beep', 0.0, -77340.52268749746, 0.0, 0.0, 0.0, 0.0, -72534.0259115727, 0.0]
['beep', 0.0, -77651.94954299326, 0.0, 0.0, 0.0, 0.0, -73076.18982508061, 0.0]
['beep', 0.0, -77527.38327114383, 0.0, 0.0, 0.0, 0.0, -72888.74809607842, 0.0]
['beep', 0.0, -77134.79723153081, 0.0, 0.0, 0.0, 0.0, -72226.3541491454, 0.0]
['beep', 0.0, -77010.78975329277, 0.0, 0.0, 0.0, 0.0, -71997.60639638978, 0.0]
['beep', 0.0, -77321.30018726591, 0.0, 0.0, 0.0, 0.0, -72512.74705085123, 0.0]
['beep', 0.0, -77635.38690035188, 0.0, 0.0, 0.0, 0.0, -73058.26372602746, 0.0]
['beep', 0.0, -77513.9945762151, 0.0, 0.0, 0.0, 0.0, -72875.2476424274, 0.0]
['beep', 0.0, -77122.1014406802, 0.0, 0.0, 0.0, 0.0, -72213.5465995725, 0.0]
['beep', 0.0, -76994.65179379605, 0.0, 0.0, 0.0, 0.0, -71980.48496013701, 0.0]
['beep', 0.0, -77306.45862894757, 0.0, 0.0, 0.0, 0.0, -72496.38557390995, 0.0]
['beep', 0.0, -77619.60656876642, 0.0, 0.0, 0.0, 0.0, -73041.27640024143, 0.0]
['beep', 0.0, -77497.25311961808, 0.0, 0.0, 0.0, 0.0, -72858.05915094128, 0.0]
['beep', 0.0, -77103.21421661547, 0.0, 0.0, 0.0, 0.0, -72194.50291329657, 0.0]
['beep', 0.0, -76974.31170634172, 0.0, 0.0, 0.0, 0.0, -71959.00493371546, 0.0]
['beep', 0.0, -77282.51991063594, 0.0, 0.0, 0.0, 0.0, -72470.47990208626, 0.0]
['beep', 0.0, -77595.73490568816, 0.0, 0.0, 0.0, 0.0, -73015.97422551802, 0.0]
['beep', 0.0, -77477.56123275295, 0.0, 0.0, 0.0, 0.0, -72837.98728442041, 0.0]
['beep', 0.0, -77086.67392571854, 0.0, 0.0, 0.0, 0.0, -72177.51558751054, 0.0]
['beep', 0.0, -76957.27967706676, 0.0, 0.0, 0.0, 0.0, -71940.65415151765, 0.0]
['beep', 0.0, -77265.35377089426, 0.0, 0.0, 0.0, 0.0, -72451.59267802152, 0.0]
['beep', 0.0, -77579.73105665816, 0.0, 0.0, 0.0, 0.0, -72998.60692007624, 0.0]
['beep', 0.0, -77461.40092151177, 0.0, 0.0, 0.0, 0.0, -72821.35758654567, 0.0]
['beep', 0.0, -77067.11614932015, 0.0, 0.0, 0.0, 0.0, -72157.57783145641, 0.0]
['beep', 0.0, -76936.24668553432, 0.0, 0.0, 0.0, 0.0, -71918.5259245069, 0.0]
['beep', 0.0, -77242.62204678322, 0.0, 0.0, 0.0, 0.0, -72427.16222133186, 0.0]
['beep', 0.0, -77562.87784133886, 0.0, 0.0, 0.0, 0.0, -72980.59141404527, 0.0]
['beep', 0.0, -77448.2804475165, 0.0, 0.0, 0.0, 0.0, -72807.87948463911, 0.0]
['beep', 0.0, -77054.64387591409, 0.0, 0.0, 0.0, 0.0, -72144.8820406058, 0.0]
['beep', 0.0, -76921.91921733848, 0.0, 0.0, 0.0, 0.0, -71903.03616559938, 0.0]
['beep', 0.0, -77227.3781570647, 0.0, 0.0, 0.0, 0.0, -72410.08548856802, 0.0]
['beep', 0.0, -77542.53775388454, 0.0, 0.0, 0.0, 0.0, -72958.97727715698, 0.0]
['beep', 0.0, -77426.71101411713, 0.0, 0.0, 0.0, 0.0, -72785.99712681737, 0.0]
['beep', 0.0, -77034.41554718204, 0.0, 0.0, 0.0, 0.0, -72124.29608396246, 0.0]
['beep', 0.0, -76901.69088860642, 0.0, 0.0, 0.0, 0.0, -71881.55613917782, 0.0]
['beep', 0.0, -77206.63573821017, 0.0, 0.0, 0.0, 0.0, -72387.55493015706, 0.0]
['beep', 0.0, -77525.70689030968, 0.0, 0.0, 0.0, 0.0, -72940.9170676371, 0.0]
['beep', 0.0, -77412.56235987692, 0.0, 0.0, 0.0, 0.0, -72771.51319641032, 0.0]
['beep', 0.0, -77020.04337549728, 0.0, 0.0, 0.0, 0.0, -72109.5215808775, 0.0]
['beep', 0.0, -76882.62485058604, 0.0, 0.0, 0.0, 0.0, -71861.19369997903, 0.0]
['beep', 0.0, -77187.88262461218, 0.0, 0.0, 0.0, 0.0, -72366.92427002481, 0.0]
['beep', 0.0, -77506.9984802006, 0.0, 0.0, 0.0, 0.0, -72920.82284937178, 0.0]
['beep', 0.0, -77396.42440038019, 0.0, 0.0, 0.0, 0.0, -72754.99525725785, 0.0]
['beep', 0.0, -77004.7771340343, 0.0, 0.0, 0.0, 0.0, -72094.09887720333, 0.0]
['beep', 0.0, -76868.47619634583, 0.0, 0.0, 0.0, 0.0, -71845.97216200497, 0.0]
['beep', 0.0, -77170.73883661495, 0.0, 0.0, 0.0, 0.0, -72347.99234247117, 0.0]
['beep', 0.0, -77488.60299451387, 0.0, 0.0, 0.0, 0.0, -72900.97450029546, 0.0]
['beep', 0.0, -77376.30783037041, 0.0, 0.0, 0.0, 0.0, -72734.45400410343, 0.0]
['beep', 0.0, -76982.00070643434, 0.0, 0.0, 0.0, 0.0, -72070.89776645873, 0.0]
['beep', 0.0, -76845.56565827914, 0.0, 0.0, 0.0, 0.0, -71821.85462973769, 0.0]
['beep', 0.0, -77150.86813579418, 0.0, 0.0, 0.0, 0.0, -72326.2217433717, 0.0]
['beep', 0.0, -77471.50391000556, 0.0, 0.0, 0.0, 0.0, -72882.6013663532, 0.0]
['beep', 0.0, -77362.22623136357, 0.0, 0.0, 0.0, 0.0, -72719.85831497412, 0.0]
['beep', 0.0, -76967.49442428285, 0.0, 0.0, 0.0, 0.0, -72056.27972558496, 0.0]
['beep', 0.0, -76829.1818295934, 0.0, 0.0, 0.0, 0.0, -71804.3979173181, 0.0]
['beep', 0.0, -77130.03630996184, 0.0, 0.0, 0.0, 0.0, -72303.33355704947, 0.0]
['beep', 0.0, -77451.56615395143, 0.0, 0.0, 0.0, 0.0, -72861.1436916761, 0.0]
['beep', 0.0, -77343.11548985427, 0.0, 0.0, 0.0, 0.0, -72700.43464904245, 0.0]
['beep', 0.0, -76949.32245604068, 0.0, 0.0, 0.0, 0.0, -72037.79483292042, 0.0]
['beep', 0.0, -76808.37235550552, 0.0, 0.0, 0.0, 0.0, -71782.22498681843, 0.0]
['beep', 0.0, -77110.36677484117, 0.0, 0.0, 0.0, 0.0, -72281.78647539455, 0.0]
['beep', 0.0, -77433.05890954244, 0.0, 0.0, 0.0, 0.0, -72841.25063911089, 0.0]
['beep', 0.0, -77326.28462627943, 0.0, 0.0, 0.0, 0.0, -72683.33556453414, 0.0]
['beep', 0.0, -76933.69858666642, 0.0, 0.0, 0.0, 0.0, -72021.9474461016, 0.0]
['beep', 0.0, -76791.34032623057, 0.0, 0.0, 0.0, 0.0, -71764.05301857628, 0.0]
['beep', 0.0, -77091.81482694326, 0.0, 0.0, 0.0, 0.0, -72261.49109142912, 0.0]
['beep', 0.0, -77413.85876105532, 0.0, 0.0, 0.0, 0.0, -72820.77644118982, 0.0]
['beep', 0.0, -77309.87844584924, 0.0, 0.0, 0.0, 0.0, -72666.43764572593, 0.0]
['beep', 0.0, -76918.7005661369, 0.0, 0.0, 0.0, 0.0, -72006.56944591635, 0.0]
['beep', 0.0, -76776.87874756799, 0.0, 0.0, 0.0, 0.0, -71748.3844457131, 0.0]
['beep', 0.0, -77075.72157093544, 0.0, 0.0, 0.0, 0.0, -72243.58734412043, 0.0]
['beep', 0.0, -77400.33595565987, 0.0, 0.0, 0.0, 0.0, -72805.84547589367, 0.0]
['beep', 0.0, -77296.2438817315, 0.0, 0.0, 0.0, 0.0, -72652.31134323018, 0.0]
['beep', 0.0, -76905.66949911947, 0.0, 0.0, 0.0, 0.0, -71993.22545447653, 0.0]
['beep', 0.0, -76761.120767727, 0.0, 0.0, 0.0, 0.0, -71731.48652690489, 0.0]
['beep', 0.0, -77056.72258814843, 0.0, 0.0, 0.0, 0.0, -72222.55435258799, 0.0]
['beep', 0.0, -77380.73347577256, 0.0, 0.0, 0.0, 0.0, -72784.67837389451, 0.0]
['beep', 0.0, -77280.46355014606, 0.0, 0.0, 0.0, 0.0, -72636.151031989, 0.0]
['beep', 0.0, -76889.3527256671, 0.0, 0.0, 0.0, 0.0, -71976.6404600907, 0.0]
['beep', 0.0, -76743.37348262948, 0.0, 0.0, 0.0, 0.0, -71712.42048888451, 0.0]
['beep', 0.0, -77041.88102983011, 0.0, 0.0, 0.0, 0.0, -72205.76819250204, 0.0]
['beep', 0.0, -77367.56829828839, 0.0, 0.0, 0.0, 0.0, -72770.21679523191, 0.0]
['beep', 0.0, -77264.59381158279, 0.0, 0.0, 0.0, 0.0, -72619.96836900334, 0.0]
['beep', 0.0, -76871.35957138057, 0.0, 0.0, 0.0, 0.0, -71958.46849184853, 0.0]
['beep', 0.0, -76725.26856962068, 0.0, 0.0, 0.0, 0.0, -71693.30974737523, 0.0]
['beep', 0.0, -77021.8315150537, 0.0, 0.0, 0.0, 0.0, -72184.06464863595, 0.0]
['beep', 0.0, -77346.22238233357, 0.0, 0.0, 0.0, 0.0, -72747.44036763196, 0.0]
['beep', 0.0, -77248.05352068586, 0.0, 0.0, 0.0, 0.0, -72602.91398798395, 0.0]
['beep', 0.0, -76857.90382121847, 0.0, 0.0, 0.0, 0.0, -71944.54335505288, 0.0]
['beep', 0.0, -76710.24819734672, 0.0, 0.0, 0.0, 0.0, -71676.94827043395, 0.0]
['beep', 0.0, -77003.0784014557, 0.0, 0.0, 0.0, 0.0, -72163.27752629251, 0.0]
['beep', 0.0, -77328.98918735853, 0.0, 0.0, 0.0, 0.0, -72728.82136450069, 0.0]
['beep', 0.0, -77232.25083735595, 0.0, 0.0, 0.0, 0.0, -72586.77602848722, 0.0]
['beep', 0.0, -76841.49764078828, 0.0, 0.0, 0.0, 0.0, -71927.86895368922, 0.0]
['beep', 0.0, -76691.07040060406, 0.0, 0.0, 0.0, 0.0, -71656.58583123515, 0.0]
['beep', 0.0, -76987.81215999273, 0.0, 0.0, 0.0, 0.0, -72146.06668306193, 0.0]
['beep', 0.0, -77315.01934707396, 0.0, 0.0, 0.0, 0.0, -72713.37630908207, 0.0]
['beep', 0.0, -77216.53756100388, 0.0, 0.0, 0.0, 0.0, -72570.50395852375, 0.0]
['beep', 0.0, -76822.11867834553, 0.0, 0.0, 0.0, 0.0, -71908.19941856855, 0.0]
['beep', 0.0, -76673.03254282863, 0.0, 0.0, 0.0, 0.0, -71637.4080344925, 0.0]
['beep', 0.0, -76966.84622369365, 0.0, 0.0, 0.0, 0.0, -72123.29025546196, 0.0]
['beep', 0.0, -77294.92512880864, 0.0, 0.0, 0.0, 0.0, -72691.69511696043, 0.0]
['beep', 0.0, -77200.2207875515, 0.0, 0.0, 0.0, 0.0, -72553.69544669335, 0.0]
['beep', 0.0, -76808.57352120562, 0.0, 0.0, 0.0, 0.0, -71894.27428177289, 0.0]
['beep', 0.0, -76656.53695542061, 0.0, 0.0, 0.0, 0.0, -71619.70545288389, 0.0]
['beep', 0.0, -76947.28844729524, 0.0, 0.0, 0.0, 0.0, -72101.83258078487, 0.0]
['beep', 0.0, -77277.2448989445, 0.0, 0.0, 0.0, 0.0, -72672.6067271956, 0.0]
['beep', 0.0, -77183.61344142121, 0.0, 0.0, 0.0, 0.0, -72536.5740104406, 0.0]
['beep', 0.0, -76790.78153261919, 0.0, 0.0, 0.0, 0.0, -71876.19172050855, 0.0]
['beep', 0.0, -76637.22504821123, 0.0, 0.0, 0.0, 0.0, -71599.16419972946, 0.0]
['beep', 0.0, -76931.97750234336, 0.0, 0.0, 0.0, 0.0, -72084.4652753431, 0.0]
['beep', 0.0, -77262.3809888817, 0.0, 0.0, 0.0, 0.0, -72656.2452502543, 0.0]
['beep', 0.0, -77169.10715926971, 0.0, 0.0, 0.0, 0.0, -72521.59834165554, 0.0]
['beep', 0.0, -76775.49293941176, 0.0, 0.0, 0.0, 0.0, -71860.67960985657, 0.0]
['beep', 0.0, -76619.90244625836, 0.0, 0.0, 0.0, 0.0, -71580.81341753167, 0.0]
['beep', 0.0, -76910.27395847726, 0.0, 0.0, 0.0, 0.0, -72060.86183319829, 0.0]
['beep', 0.0, -77241.34799734926, 0.0, 0.0, 0.0, 0.0, -72633.6923400989, 0.0]
['beep', 0.0, -77153.55034512882, 0.0, 0.0, 0.0, 0.0, -72505.68389960336, 0.0]
['beep', 0.0, -76760.7184363268, 0.0, 0.0, 0.0, 0.0, -71845.77099630487, 0.0]
['beep', 0.0, -76601.35049836047, 0.0, 0.0, 0.0, 0.0, -71561.09917892209, 0.0]
['beep', 0.0, -76891.14086522351, 0.0, 0.0, 0.0, 0.0, -72039.89589689922, 0.0]
['beep', 0.0, -77225.74647971947, 0.0, 0.0, 0.0, 0.0, -72616.74971780178, 0.0]
['beep', 0.0, -77136.51831585387, 0.0, 0.0, 0.0, 0.0, -72488.2048354393, 0.0]
['beep', 0.0, -76746.30156115313, 0.0, 0.0, 0.0, 0.0, -71831.01884496438, 0.0]
['beep', 0.0, -76588.52059704311, 0.0, 0.0, 0.0, 0.0, -71547.06228340416, 0.0]
['beep', 0.0, -76875.82992027163, 0.0, 0.0, 0.0, 0.0, -72022.68505366863, 0.0]
['beep', 0.0, -77208.08860159977, 0.0, 0.0, 0.0, 0.0, -72597.54956931467, 0.0]
['beep', 0.0, -77119.86626623468, 0.0, 0.0, 0.0, 0.0, -72471.23986139773, 0.0]
['beep', 0.0, -76728.39781384442, 0.0, 0.0, 0.0, 0.0, -71812.86922846666, 0.0]
['beep', 0.0, -76567.30879155503, 0.0, 0.0, 0.0, 0.0, -71524.75524243775, 0.0]
['beep', 0.0, -76855.06514967265, 0.0, 0.0, 0.0, 0.0, -72000.0427365354, 0.0]
['beep', 0.0, -77185.55804318882, 0.0, 0.0, 0.0, 0.0, -72573.6332027475, 0.0]
['beep', 0.0, -77099.3473648247, 0.0, 0.0, 0.0, 0.0, -72450.27392509865, 0.0]
['beep', 0.0, -76709.01885140168, 0.0, 0.0, 0.0, 0.0, -71793.22204509044, 0.0]
['beep', 0.0, -76549.96383785771, 0.0, 0.0, 0.0, 0.0, -71506.13623930648, 0.0]
['beep', 0.0, -76835.55207676317, 0.0, 0.0, 0.0, 0.0, -71978.60741360276, 0.0]
['beep', 0.0, -77168.23544123596, 0.0, 0.0, 0.0, 0.0, -72554.9247926384, 0.0]
['beep', 0.0, -77083.61173672817, 0.0, 0.0, 0.0, 0.0, -72434.0465586241, 0.0]
['beep', 0.0, -76692.27739480465, 0.0, 0.0, 0.0, 0.0, -71776.23471930441, 0.0]
['beep', 0.0, -76530.29430273703, 0.0, 0.0, 0.0, 0.0, -71485.39382045197, 0.0]
['beep', 0.0, -76816.26252129824, 0.0, 0.0, 0.0, 0.0, -71957.39560811468, 0.0]
['beep', 0.0, -77149.99641776043, 0.0, 0.0, 0.0, 0.0, -72535.121147051, 0.0]
['beep', 0.0, -77068.07727433172, 0.0, 0.0, 0.0, 0.0, -72417.97565436074, 0.0]
['beep', 0.0, -76678.03933358662, 0.0, 0.0, 0.0, 0.0, -71761.59432668619, 0.0]
['beep', 0.0, -76515.3633374409, 0.0, 0.0, 0.0, 0.0, -71469.30056444414, 0.0]
['beep', 0.0, -76801.24214902427, 0.0, 0.0, 0.0, 0.0, -71940.40828232864, 0.0]
['beep', 0.0, -77136.98770248744, 0.0, 0.0, 0.0, 0.0, -72520.52545792169, 0.0]
['beep', 0.0, -77053.2357160134, 0.0, 0.0, 0.0, 0.0, -72402.59765417548, 0.0]
['beep', 0.0, -76661.32022873405, 0.0, 0.0, 0.0, 0.0, -71744.67405613352, 0.0]
['beep', 0.0, -76495.53734010903, 0.0, 0.0, 0.0, 0.0, -71448.26757291169, 0.0]
['beep', 0.0, -76777.370485946, 0.0, 0.0, 0.0, 0.0, -71914.68142446059, 0.0]
['beep', 0.0, -77115.30651036579, 0.0, 0.0, 0.0, 0.0, -72497.48080938826, 0.0]
['beep', 0.0, -77035.15315474906, 0.0, 0.0, 0.0, 0.0, -72384.15746499985, 0.0]
['beep', 0.0, -76644.087033759, 0.0, 0.0, 0.0, 0.0, -71727.17264022502, 0.0]
['beep', 0.0, -76476.96304046668, 0.0, 0.0, 0.0, 0.0, -71428.5086308132, 0.0]
['beep', 0.0, -76759.84671829305, 0.0, 0.0, 0.0, 0.0, -71895.1683515511, 0.0]
['beep', 0.0, -77096.82161770125, 0.0, 0.0, 0.0, 0.0, -72477.47599810077, 0.0]
['beep', 0.0, -77017.8752562851, 0.0, 0.0, 0.0, 0.0, -72366.34312466897, 0.0]
['beep', 0.0, -76626.49621087268, 0.0, 0.0, 0.0, 0.0, -71709.33594814967, 0.0]
['beep', 0.0, -76461.65209551479, 0.0, 0.0, 0.0, 0.0, -71412.08009863856, 0.0]
['beep', 0.0, -76741.89826749543, 0.0, 0.0, 0.0, 0.0, -71875.40940945261, 0.0]
['beep', 0.0, -77076.88386164712, 0.0, 0.0, 0.0, 0.0, -72456.10773040149, 0.0]
['beep', 0.0, -77003.23486366688, 0.0, 0.0, 0.0, 0.0, -72351.41215937283, 0.0]
['beep', 0.0, -76613.4874955997, 0.0, 0.0, 0.0, 0.0, -71696.28252938778, 0.0]
['beep', 0.0, -76444.10597611738, 0.0, 0.0, 0.0, 0.0, -71393.48344725174, 0.0]
['beep', 0.0, -76722.4075463304, 0.0, 0.0, 0.0, 0.0, -71854.01879000888, 0.0]
['beep', 0.0, -77059.56125969425, 0.0, 0.0, 0.0, 0.0, -72437.35461680348, 0.0]
['beep', 0.0, -76983.54297680175, 0.0, 0.0, 0.0, 0.0, -72331.22853412968, 0.0]
['beep', 0.0, -76594.04147792357, 0.0, 0.0, 0.0, 0.0, -71676.47888380037, 0.0]
['beep', 0.0, -76424.54819971898, 0.0, 0.0, 0.0, 0.0, -71372.74102839721, 0.0]
['beep', 0.0, -76706.89543567842, 0.0, 0.0, 0.0, 0.0, -71836.71853980048, 0.0]
['beep', 0.0, -77045.50201243187, 0.0, 0.0, 0.0, 0.0, -72421.77545091814, 0.0]
['beep', 0.0, -76972.07653189618, 0.0, 0.0, 0.0, 0.0, -72319.15859212383, 0.0]
['beep', 0.0, -76581.7256667287, 0.0, 0.0, 0.0, 0.0, -71663.80544469423, 0.0]
['beep', 0.0, -76409.57253093393, 0.0, 0.0, 0.0, 0.0, -71356.58071715603, 0.0]
['beep', 0.0, -76688.76817092516, 0.0, 0.0, 0.0, 0.0, -71816.62432153516, 0.0]
['beep', 0.0, -77028.89466630157, 0.0, 0.0, 0.0, 0.0, -72403.67053790933, 0.0]
['beep', 0.0, -76955.62564797708, 0.0, 0.0, 0.0, 0.0, -72302.26067331561, 0.0]
['beep', 0.0, -76564.87245140939, 0.0, 0.0, 0.0, 0.0, -71646.661656697, 0.0]
['beep', 0.0, -76391.31115571393, 0.0, 0.0, 0.0, 0.0, -71337.24645820218, 0.0]
['beep', 0.0, -76669.14333929341, 0.0, 0.0, 0.0, 0.0, -71795.18899860252, 0.0]
['beep', 0.0, -77010.83445678168, 0.0, 0.0, 0.0, 0.0, -72384.1351132554, 0.0]
['beep', 0.0, -76938.63832219105, 0.0, 0.0, 0.0, 0.0, -72284.80396089601, 0.0]
['beep', 0.0, -76549.76267215761, 0.0, 0.0, 0.0, 0.0, -71631.32836000065, 0.0]
['beep', 0.0, -76377.18485321819, 0.0, 0.0, 0.0, 0.0, -71322.09197546149, 0.0]
['beep', 0.0, -76654.21237399726, 0.0, 0.0, 0.0, 0.0, -71778.51459723886, 0.0]
['beep', 0.0, -76995.36704961861, 0.0, 0.0, 0.0, 0.0, -72367.41600840283, 0.0]
['beep', 0.0, -76922.9026940945, 0.0, 0.0, 0.0, 0.0, -72268.73305663266, 0.0]
['beep', 0.0, -76532.97651207168, 0.0, 0.0, 0.0, 0.0, -71614.27397898126, 0.0]
['beep', 0.0, -76357.85059426434, 0.0, 0.0, 0.0, 0.0, -71301.50601881815, 0.0]
['beep', 0.0, -76631.72651907522, 0.0, 0.0, 0.0, 0.0, -71753.95003008247, 0.0]
['beep', 0.0, -76972.74708422984, 0.0, 0.0, 0.0, 0.0, -72343.16436566882, 0.0]
['beep', 0.0, -76905.46833341937, 0.0, 0.0, 0.0, 0.0, -72250.96341979069, 0.0]
['beep', 0.0, -76516.0115380301, 0.0, 0.0, 0.0, 0.0, -71597.3984119175, 0.0]
['beep', 0.0, -76340.84091673385, 0.0, 0.0, 0.0, 0.0, -71283.51286453163, 0.0]
['beep', 0.0, -76615.1862281783, 0.0, 0.0, 0.0, 0.0, -71735.55454439575, 0.0]
['beep', 0.0, -76957.88317416706, 0.0, 0.0, 0.0, 0.0, -72326.825240472, 0.0]
['beep', 0.0, -76890.98440301233, 0.0, 0.0, 0.0, 0.0, -72235.96539926117, 0.0]
['beep', 0.0, -76499.82887504446, 0.0, 0.0, 0.0, 0.0, -71580.88047276503, 0.0]
['beep', 0.0, -76322.35602406932, 0.0, 0.0, 0.0, 0.0, -71263.75392243313, 0.0]
['beep', 0.0, -76598.04244018107, 0.0, 0.0, 0.0, 0.0, -71716.35439590865, 0.0]
['beep', 0.0, -76941.02995884776, 0.0, 0.0, 0.0, 0.0, -72308.49681001864, 0.0]
['beep', 0.0, -76874.44411211541, 0.0, 0.0, 0.0, 0.0, -72218.97807347514, 0.0]
['beep', 0.0, -76485.92608999326, 0.0, 0.0, 0.0, 0.0, -71566.75417026928, 0.0]
['beep', 0.0, -76306.55334073941, 0.0, 0.0, 0.0, 0.0, -71246.94541060274, 0.0]
['beep', 0.0, -76579.13286437189, 0.0, 0.0, 0.0, 0.0, -71695.7237357764, 0.0]
['beep', 0.0, -76921.38277547155, 0.0, 0.0, 0.0, 0.0, -72287.32970801946, 0.0]
['beep', 0.0, -76855.40042583949, 0.0, 0.0, 0.0, 0.0, -72199.57675928793, 0.0]
['beep', 0.0, -76467.21767988417, 0.0, 0.0, 0.0, 0.0, -71547.91164969346, 0.0]
['beep', 0.0, -76286.77204689647, 0.0, 0.0, 0.0, 0.0, -71226.1135847704, 0.0]
['beep', 0.0, -76559.77625367358, 0.0, 0.0, 0.0, 0.0, -71674.31076458821, 0.0]
['beep', 0.0, -76901.48972290632, 0.0, 0.0, 0.0, 0.0, -72265.84968159792, 0.0]
['beep', 0.0, -76839.35187332057, 0.0, 0.0, 0.0, 0.0, -72182.92470966873, 0.0]
['beep', 0.0, -76452.8455081994, 0.0, 0.0, 0.0, 0.0, -71533.3830157975, 0.0]
['beep', 0.0, -76271.61756415576, 0.0, 0.0, 0.0, 0.0, -71209.9085700403, 0.0]
['beep', 0.0, -76541.87250636489, 0.0, 0.0, 0.0, 0.0, -71654.57417423418, 0.0]
['beep', 0.0, -76887.8998622775, 0.0, 0.0, 0.0, 0.0, -72250.76225409059, 0.0]
['beep', 0.0, -76826.94665514787, 0.0, 0.0, 0.0, 0.0, -72170.25127056257, 0.0]
['beep', 0.0, -76439.54622024849, 0.0, 0.0, 0.0, 0.0, -71519.92726563542, 0.0]
['beep', 0.0, -76254.83140406983, 0.0, 0.0, 0.0, 0.0, -71191.96011924269, 0.0]
['beep', 0.0, -76521.5100671661, 0.0, 0.0, 0.0, 0.0, -71632.1106710566, 0.0]
['beep', 0.0, -76868.05151320118, 0.0, 0.0, 0.0, 0.0, -72229.28222766903, 0.0]
['beep', 0.0, -76808.59587295007, 0.0, 0.0, 0.0, 0.0, -72151.40874998675, 0.0]
['beep', 0.0, -76421.55306596197, 0.0, 0.0, 0.0, 0.0, -71501.68824215987, 0.0]
['beep', 0.0, -76235.25127592699, 0.0, 0.0, 0.0, 0.0, -71171.28475562153, 0.0]
['beep', 0.0, -76500.43237214474, 0.0, 0.0, 0.0, 0.0, -71609.04367077872, 0.0]
['beep', 0.0, -76844.09044314509, 0.0, 0.0, 0.0, 0.0, -72203.77888724553, 0.0]
['beep', 0.0, -76789.44042795186, 0.0, 0.0, 0.0, 0.0, -72131.76156661053, 0.0]
['beep', 0.0, -76402.64349015278, 0.0, 0.0, 0.0, 0.0, -71482.53279716168, 0.0]
['beep', 0.0, -76214.28533962791, 0.0, 0.0, 0.0, 0.0, -71149.13417686633, 0.0]
['beep', 0.0, -76481.00870621309, 0.0, 0.0, 0.0, 0.0, -71587.80951354618, 0.0]
['beep', 0.0, -76829.7406232048, 0.0, 0.0, 0.0, 0.0, -72187.99855566009, 0.0]
['beep', 0.0, -76776.67758186789, 0.0, 0.0, 0.0, 0.0, -72118.43992691516, 0.0]
['beep', 0.0, -76389.07598126841, 0.0, 0.0, 0.0, 0.0, -71468.6747155994, 0.0]
['beep', 0.0, -76200.40490632116, 0.0, 0.0, 0.0, 0.0, -71134.22556331463, 0.0]
['beep', 0.0, -76466.5471275505, 0.0, 0.0, 0.0, 0.0, -71571.4927400938, 0.0]
['beep', 0.0, -76814.18380906389, 0.0, 0.0, 0.0, 0.0, -72170.89947115177, 0.0]
['beep', 0.0, -76759.48909038176, 0.0, 0.0, 0.0, 0.0, -72100.71499356211, 0.0]
['beep', 0.0, -76371.26164093753, 0.0, 0.0, 0.0, 0.0, -71450.52509910168, 0.0]
['beep', 0.0, -76180.19892933356, 0.0, 0.0, 0.0, 0.0, -71112.79024038199, 0.0]
['beep', 0.0, -76444.01656913955, 0.0, 0.0, 0.0, 0.0, -71547.03993165969, 0.0]
['beep', 0.0, -76792.88259659799, 0.0, 0.0, 0.0, 0.0, -72148.0783400629, 0.0]
['beep', 0.0, -76737.53967732664, 0.0, 0.0, 0.0, 0.0, -72078.38560085125, 0.0]
['beep', 0.0, -76351.90503023923, 0.0, 0.0, 0.0, 0.0, -71431.10143317001, 0.0]
['beep', 0.0, -76163.65863843664, 0.0, 0.0, 0.0, 0.0, -71095.3335279624, 0.0]
['beep', 0.0, -76427.85625789837, 0.0, 0.0, 0.0, 0.0, -71529.15853609545, 0.0]
['beep', 0.0, -76775.76116034522, 0.0, 0.0, 0.0, 0.0, -72129.59344739837, 0.0]
['beep', 0.0, -76723.68159576436, 0.0, 0.0, 0.0, 0.0, -72064.08048439986, 0.0]
['beep', 0.0, -76338.49398356605, 0.0, 0.0, 0.0, 0.0, -71417.44451730783, 0.0]
['beep', 0.0, -76147.43127196208, 0.0, 0.0, 0.0, 0.0, -71078.03327775399, 0.0]
['beep', 0.0, -76406.51034194355, 0.0, 0.0, 0.0, 0.0, -71505.91272186193, 0.0]
['beep', 0.0, -76755.30931416861, 0.0, 0.0, 0.0, 0.0, -72107.53227562098, 0.0]
['beep', 0.0, -76706.58251125604, 0.0, 0.0, 0.0, 0.0, -72046.48966151354, 0.0]
['beep', 0.0, -76323.00422465852, 0.0, 0.0, 0.0, 0.0, -71401.97711014475, 0.0]
['beep', 0.0, -76128.63345487518, 0.0, 0.0, 0.0, 0.0, -71058.22963216658, 0.0]
['beep', 0.0, -76387.19843473416, 0.0, 0.0, 0.0, 0.0, -71484.49975067374, 0.0]
['beep', 0.0, -76739.30546513862, 0.0, 0.0, 0.0, 0.0, -72089.85204575682, 0.0]
['beep', 0.0, -76692.21033957128, 0.0, 0.0, 0.0, 0.0, -72031.69280668412, 0.0]
['beep', 0.0, -76303.62526221578, 0.0, 0.0, 0.0, 0.0, -71382.44168549082, 0.0]
['beep', 0.0, -76110.03680348836, 0.0, 0.0, 0.0, 0.0, -71038.44833832364, 0.0]
['beep', 0.0, -76370.7251990706, 0.0, 0.0, 0.0, 0.0, -71465.99250626475, 0.0]
['beep', 0.0, -76721.93815969685, 0.0, 0.0, 0.0, 0.0, -72070.89776645873, 0.0]
['beep', 0.0, -76675.13360680743, 0.0, 0.0, 0.0, 0.0, -72014.21374252006, 0.0]
['beep', 0.0, -76289.27544227547, 0.0, 0.0, 0.0, 0.0, -71367.82364461705, 0.0]
['beep', 0.0, -76096.37988762616, 0.0, 0.0, 0.0, 0.0, -71023.74089047205, 0.0]
['beep', 0.0, -76356.59889657485, 0.0, 0.0, 0.0, 0.0, -71450.16747119039, 0.0]
['beep', 0.0, -76707.6553949899, 0.0, 0.0, 0.0, 0.0, -72055.13978661773, 0.0]
['beep', 0.0, -76659.93442057782, 0.0, 0.0, 0.0, 0.0, -71998.52281791244, 0.0]
['beep', 0.0, -76274.63504965724, 0.0, 0.0, 0.0, 0.0, -71352.87032757644, 0.0]
['beep', 0.0, -76078.23027112846, 0.0, 0.0, 0.0, 0.0, -71004.36192802929, 0.0]
['beep', 0.0, -76334.40361433073, 0.0, 0.0, 0.0, 0.0, -71425.87112496748, 0.0]
['beep', 0.0, -76687.8517494025, 0.0, 0.0, 0.0, 0.0, -72033.68211194064, 0.0]
['beep', 0.0, -76643.41648142535, 0.0, 0.0, 0.0, 0.0, -71981.35667817076, 0.0]
['beep', 0.0, -76258.72060760506, 0.0, 0.0, 0.0, 0.0, -71336.75471982417, 0.0]
['beep', 0.0, -76060.17006160857, 0.0, 0.0, 0.0, 0.0, -70985.43000047565, 0.0]
['beep', 0.0, -76315.94107341065, 0.0, 0.0, 0.0, 0.0, -71405.68749972433, 0.0]
['beep', 0.0, -76666.17055728086, 0.0, 0.0, 0.0, 0.0, -72010.48100119604, 0.0]
['beep', 0.0, -76624.52925736061, 0.0, 0.0, 0.0, 0.0, -71962.00006747247, 0.0]
['beep', 0.0, -76241.06272948536, 0.0, 0.0, 0.0, 0.0, -71318.87332425993, 0.0]
['beep', 0.0, -76042.04279685531, 0.0, 0.0, 0.0, 0.0, -70966.14044501072, 0.0]
['beep', 0.0, -76297.94791912413, 0.0, 0.0, 0.0, 0.0, -71385.70504018129, 0.0]
['beep', 0.0, -76651.597219896, 0.0, 0.0, 0.0, 0.0, -71994.43244867712, 0.0]
['beep', 0.0, -76611.11821068743, 0.0, 0.0, 0.0, 0.0, -71948.09728242127, 0.0]
['beep', 0.0, -76226.13176418922, 0.0, 0.0, 0.0, 0.0, -71303.8306002415, 0.0]
['beep', 0.0, -76024.63078792463, 0.0, 0.0, 0.0, 0.0, -70947.72260757955, 0.0]
['beep', 0.0, -76279.86535785977, 0.0, 0.0, 0.0, 0.0, -71365.7002288938, 0.0]
['beep', 0.0, -76633.98404526521, 0.0, 0.0, 0.0, 0.0, -71975.27700367893, 0.0]
['beep', 0.0, -76594.9802511907, 0.0, 0.0, 0.0, 0.0, -71931.42288105762, 0.0]
['beep', 0.0, -76211.20079889307, 0.0, 0.0, 0.0, 0.0, -71288.56435877853, 0.0]
['beep', 0.0, -76008.31401447226, 0.0, 0.0, 0.0, 0.0, -70930.28824690441, 0.0]
['beep', 0.0, -76260.46404367257, 0.0, 0.0, 0.0, 0.0, -71344.33196119452, 0.0]
['beep', 0.0, -76613.57690257751, 0.0, 0.0, 0.0, 0.0, -71953.17112841262, 0.0]
['beep', 0.0, -76576.29419282606, 0.0, 0.0, 0.0, 0.0, -71912.2227325705, 0.0]
['beep', 0.0, -76191.41950505013, 0.0, 0.0, 0.0, 0.0, -71268.73836144667, 0.0]
['beep', 0.0, -75990.67848809702, 0.0, 0.0, 0.0, 0.0, -70911.62454028423, 0.0]
['beep', 0.0, -76243.58847660881, 0.0, 0.0, 0.0, 0.0, -71325.62355108542, 0.0]
['beep', 0.0, -76599.80822799304, 0.0, 0.0, 0.0, 0.0, -71937.97194218301, 0.0]
['beep', 0.0, -76563.93367814228, 0.0, 0.0, 0.0, 0.0, -71899.3704795087, 0.0]
['beep', 0.0, -76179.81894967782, 0.0, 0.0, 0.0, 0.0, -71256.84723339645, 0.0]
['beep', 0.0, -75972.26065066585, 0.0, 0.0, 0.0, 0.0, -70892.06676388583, 0.0]
['beep', 0.0, -76223.29309264339, 0.0, 0.0, 0.0, 0.0, -71303.33886186348, 0.0]
['beep', 0.0, -76579.69165798326, 0.0, 0.0, 0.0, 0.0, -71916.20134308355, 0.0]
['beep', 0.0, -76546.7675384006, 0.0, 0.0, 0.0, 0.0, -71881.64554615565, 0.0]
['beep', 0.0, -76163.83745239228, 0.0, 0.0, 0.0, 0.0, -71240.61986692189, 0.0]
['beep', 0.0, -75954.96040045744, 0.0, 0.0, 0.0, 0.0, -70873.80538866585, 0.0]
['beep', 0.0, -76204.27175811194, 0.0, 0.0, 0.0, 0.0, -71282.46233254223, 0.0]
['beep', 0.0, -76561.31852404101, 0.0, 0.0, 0.0, 0.0, -71896.19653179604, 0.0]
['beep', 0.0, -76528.39440445833, 0.0, 0.0, 0.0, 0.0, -71862.73597034645, 0.0]
['beep', 0.0, -76144.65965564962, 0.0, 0.0, 0.0, 0.0, -71221.33031145696, 0.0]
['beep', 0.0, -75937.23546710437, 0.0, 0.0, 0.0, 0.0, -70855.0746268123, 0.0]
['beep', 0.0, -76185.27277532492, 0.0, 0.0, 0.0, 0.0, -71261.42934100979, 0.0]
['beep', 0.0, -76541.22430577569, 0.0, 0.0, 0.0, 0.0, -71874.35887746321, 0.0]
['beep', 0.0, -76508.12137223738, 0.0, 0.0, 0.0, 0.0, -71841.94884800301, 0.0]
['beep', 0.0, -76125.50421065143, 0.0, 0.0, 0.0, 0.0, -71201.99605250312, 0.0]
['beep', 0.0, -75916.89537965004, 0.0, 0.0, 0.0, 0.0, -70833.63930387967, 0.0]
['beep', 0.0, -76165.26796403743, 0.0, 0.0, 0.0, 0.0, -71239.47992795467, 0.0]
['beep', 0.0, -76524.95223581222, 0.0, 0.0, 0.0, 0.0, -71856.54453713233, 0.0]
['beep', 0.0, -76494.82208428647, 0.0, 0.0, 0.0, 0.0, -71828.24722865192, 0.0]
['beep', 0.0, -76111.19909420003, 0.0, 0.0, 0.0, 0.0, -71187.4003633738, 0.0]
['beep', 0.0, -75900.95858585341, 0.0, 0.0, 0.0, 0.0, -70816.49551588245, 0.0]
['beep', 0.0, -76147.72184464001, 0.0, 0.0, 0.0, 0.0, -71219.78804108955, 0.0]
['beep', 0.0, -76505.79679081403, 0.0, 0.0, 0.0, 0.0, -71835.82447002226, 0.0]
['beep', 0.0, -76476.2030811552, 0.0, 0.0, 0.0, 0.0, -71809.09178365371, 0.0]
['beep', 0.0, -76096.49164634844, 0.0, 0.0, 0.0, 0.0, -71172.58115679993, 0.0]
['beep', 0.0, -75885.82645485718, 0.0, 0.0, 0.0, 0.0, -70800.3575563857, 0.0]
['beep', 0.0, -76130.4662979205, 0.0, 0.0, 0.0, 0.0, -71200.83376179145, 0.0]
['beep', 0.0, -76488.69770630571, 0.0, 0.0, 0.0, 0.0, -71817.205466891, 0.0]
['beep', 0.0, -76459.59573502491, 0.0, 0.0, 0.0, 0.0, -71791.90329216758, 0.0]
['beep', 0.0, -76079.12434090667, 0.0, 0.0, 0.0, 0.0, -71155.05738914697, 0.0]
['beep', 0.0, -75867.6097831261, 0.0, 0.0, 0.0, 0.0, -70781.13505615415, 0.0]
['beep', 0.0, -76112.24962618943, 0.0, 0.0, 0.0, 0.0, -71180.60543305939, 0.0]
['beep', 0.0, -76471.66567703077, 0.0, 0.0, 0.0, 0.0, -71798.43000154854, 0.0]
['beep', 0.0, -76444.70947321766, 0.0, 0.0, 0.0, 0.0, -71776.48058849342, 0.0]
['beep', 0.0, -76063.20989885449, 0.0, 0.0, 0.0, 0.0, -71139.07589186143, 0.0]
['beep', 0.0, -75850.22012593987, 0.0, 0.0, 0.0, 0.0, -70762.8513291897, 0.0]
['beep', 0.0, -76090.34491662323, 0.0, 0.0, 0.0, 0.0, -71156.73376998112, 0.0]
['beep', 0.0, -76451.12442387635, 0.0, 0.0, 0.0, 0.0, -71776.23471930441, 0.0]
['beep', 0.0, -76428.01272010956, 0.0, 0.0, 0.0, 0.0, -71759.29209700729, 0.0]
['beep', 0.0, -76046.49079400192, 0.0, 0.0, 0.0, 0.0, -71122.11091781985, 0.0]
['beep', 0.0, -75833.03163445374, 0.0, 0.0, 0.0, 0.0, -70744.5452504808, 0.0]
['beep', 0.0, -76074.58693678225, 0.0, 0.0, 0.0, 0.0, -71139.09824360588, 0.0]
['beep', 0.0, -76433.84652541239, 0.0, 0.0, 0.0, 0.0, -71757.39219872859, 0.0]
['beep', 0.0, -76412.65707166876, 0.0, 0.0, 0.0, 0.0, -71743.44471018847, 0.0]
['beep', 0.0, -76032.96798860646, 0.0, 0.0, 0.0, 0.0, -71108.47635370212, 0.0]
['beep', 0.0, -75813.18328537742, 0.0, 0.0, 0.0, 0.0, -70723.55696243727, 0.0]
['beep', 0.0, -76052.23519232693, 0.0, 0.0, 0.0, 0.0, -71114.69013866069, 0.0]
['beep', 0.0, -76415.67455717022, 0.0, 0.0, 0.0, 0.0, -71737.56620139674, 0.0]
['beep', 0.0, -76396.94379531668, 0.0, 0.0, 0.0, 0.0, -71727.19499196947, 0.0]
['beep', 0.0, -76017.70174714348, 0.0, 0.0, 0.0, 0.0, -71092.9865947946, 0.0]
['beep', 0.0, -75798.96757590385, 0.0, 0.0, 0.0, 0.0, -70708.3354244632, 0.0]
['beep', 0.0, -76037.72891017544, 0.0, 0.0, 0.0, 0.0, -71098.23925474158, 0.0]
['beep', 0.0, -76402.17410351922, 0.0, 0.0, 0.0, 0.0, -71722.34466342267, 0.0]
['beep', 0.0, -76384.00213527706, 0.0, 0.0, 0.0, 0.0, -71713.71689006292, 0.0]
['beep', 0.0, -76004.76008710386, 0.0, 0.0, 0.0, 0.0, -71079.93317603269, 0.0]
['beep', 0.0, -75785.22125306384, 0.0, 0.0, 0.0, 0.0, -70693.51621788934, 0.0]
['beep', 0.0, -76022.21679952345, 0.0, 0.0, 0.0, 0.0, -71080.80489406644, 0.0]
['beep', 0.0, -76383.3762864323, 0.0, 0.0, 0.0, 0.0, -71702.0269277128, 0.0]
['beep', 0.0, -76365.60664959034, 0.0, 0.0, 0.0, 0.0, -71694.94142472045, 0.0]
['beep', 0.0, -75987.30337468427, 0.0, 0.0, 0.0, 0.0, -71062.56587059092, 0.0]
['beep', 0.0, -75768.41274123345, 0.0, 0.0, 0.0, 0.0, -70675.85833976965, 0.0]
['beep', 0.0, -76002.1896364915, 0.0, 0.0, 0.0, 0.0, -71058.78842577797, 0.0]
['beep', 0.0, -76362.63386757778, 0.0, 0.0, 0.0, 0.0, -71679.5187210463, 0.0]
['beep', 0.0, -76350.36275987182, 0.0, 0.0, 0.0, 0.0, -71679.16109313502, 0.0]
['beep', 0.0, -75973.71351405543, 0.0, 0.0, 0.0, 0.0, -71048.77484426199, 0.0]
['beep', 0.0, -75749.97255205782, 0.0, 0.0, 0.0, 0.0, -70656.41232209353, 0.0]
['beep', 0.0, -75981.24605193688, 0.0, 0.0, 0.0, 0.0, -71035.74377724454, 0.0]
['beep', 0.0, -76344.99834120255, 0.0, 0.0, 0.0, 0.0, -71660.162110348, 0.0]
['beep', 0.0, -76333.82246897489, 0.0, 0.0, 0.0, 0.0, -71662.0173051378, 0.0]
['beep', 0.0, -75958.15669991454, 0.0, 0.0, 0.0, 0.0, -71033.19567837664, 0.0]
['beep', 0.0, -75733.76753732772, 0.0, 0.0, 0.0, 0.0, -70639.17912711849, 0.0]
['beep', 0.0, -75965.21985116242, 0.0, 0.0, 0.0, 0.0, -71017.75062295802, 0.0]
['beep', 0.0, -76326.66991074919, 0.0, 0.0, 0.0, 0.0, -71640.1125955716, 0.0]
['beep', 0.0, -76315.7175559661, 0.0, 0.0, 0.0, 0.0, -71643.42065375097, 0.0]
['beep', 0.0, -75939.13536538307, 0.0, 0.0, 0.0, 0.0, -71013.95082640063, 0.0]
['beep', 0.0, -75712.73454579528, 0.0, 0.0, 0.0, 0.0, -70617.14030708556, 0.0]
['beep', 0.0, -75944.32097009671, 0.0, 0.0, 0.0, 0.0, -70994.97419535807, 0.0]
['beep', 0.0, -76309.95080589662, 0.0, 0.0, 0.0, 0.0, -71621.78416511824, 0.0]
['beep', 0.0, -76297.03149760145, 0.0, 0.0, 0.0, 0.0, -71624.30991224169, 0.0]
['beep', 0.0, -75918.72822269538, 0.0, 0.0, 0.0, 0.0, -70993.4095732462, 0.0]
['beep', 0.0, -75694.22730138627, 0.0, 0.0, 0.0, 0.0, -70597.47077196489, 0.0]
['beep', 0.0, -75925.79137394326, 0.0, 0.0, 0.0, 0.0, -70974.27647999245, 0.0]
['beep', 0.0, -76291.57767195436, 0.0, 0.0, 0.0, 0.0, -71601.68994685292, 0.0]
['beep', 0.0, -76283.19576778362, 0.0, 0.0, 0.0, 0.0, -71609.82598183466, 0.0]
['beep', 0.0, -75908.13349582357, 0.0, 0.0, 0.0, 0.0, -70982.81484637439, 0.0]
['beep', 0.0, -75679.83277795705, 0.0, 0.0, 0.0, 0.0, -70582.20453050191, 0.0]
['beep', 0.0, -75907.93233012347, 0.0, 0.0, 0.0, 0.0, -70954.62929661624, 0.0]
['beep', 0.0, -76273.83038685685, 0.0, 0.0, 0.0, 0.0, -71582.40039138799, 0.0]
['beep', 0.0, -76267.63895364273, 0.0, 0.0, 0.0, 0.0, -71594.0009467603, 0.0]
['beep', 0.0, -75889.91682409249, 0.0, 0.0, 0.0, 0.0, -70964.70993336558, 0.0]
['beep', 0.0, -75658.28569630215, 0.0, 0.0, 0.0, 0.0, -70559.83043430214, 0.0]
['beep', 0.0, -75886.31819323519, 0.0, 0.0, 0.0, 0.0, -70931.04820621588, 0.0]
['beep', 0.0, -76253.78087208043, 0.0, 0.0, 0.0, 0.0, -71560.62979228853, 0.0]
['beep', 0.0, -76247.7459010775, 0.0, 0.0, 0.0, 0.0, -71573.5491005837, 0.0]
['beep', 0.0, -75875.38819019654, 0.0, 0.0, 0.0, 0.0, -70950.0471890029, 0.0]
['beep', 0.0, -75644.98640835124, 0.0, 0.0, 0.0, 0.0, -70545.5029661063, 0.0]
['beep', 0.0, -75870.91784130548, 0.0, 0.0, 0.0, 0.0, -70913.70325251856, 0.0]
['beep', 0.0, -76239.92279051815, 0.0, 0.0, 0.0, 0.0, -71545.16238512546, 0.0]
['beep', 0.0, -76235.92182826065, 0.0, 0.0, 0.0, 0.0, -71561.27799287773, 0.0]
['beep', 0.0, -75860.5019283893, 0.0, 0.0, 0.0, 0.0, -70935.02681672893, 0.0]
['beep', 0.0, -75628.33435873203, 0.0, 0.0, 0.0, 0.0, -70527.82273624215, 0.0]
['beep', 0.0, -75853.7069980749, 0.0, 0.0, 0.0, 0.0, -70894.39134530918, 0.0]
['beep', 0.0, -76220.25325539747, 0.0, 0.0, 0.0, 0.0, -71523.59295172608, 0.0]
['beep', 0.0, -76216.58756930681, 0.0, 0.0, 0.0, 0.0, -71541.20612635686, 0.0]
['beep', 0.0, -75841.45824211338, 0.0, 0.0, 0.0, 0.0, -70915.80431649736, 0.0]
['beep', 0.0, -75609.00009977819, 0.0, 0.0, 0.0, 0.0, -70507.72851797682, 0.0]
['beep', 0.0, -75835.26680889927, 0.0, 0.0, 0.0, 0.0, -70874.18536832159, 0.0]
['beep', 0.0, -76205.1881796346, 0.0, 0.0, 0.0, 0.0, -71507.0303090847, 0.0]
['beep', 0.0, -76203.24357786699, 0.0, 0.0, 0.0, 0.0, -71527.45980351685, 0.0]
['beep', 0.0, -75829.0977274296, 0.0, 0.0, 0.0, 0.0, -70903.39909832468, 0.0]
['beep', 0.0, -75594.67263158235, 0.0, 0.0, 0.0, 0.0, -70492.30581430267, 0.0]
['beep', 0.0, -75816.4466400679, 0.0, 0.0, 0.0, 0.0, -70853.21943202251, 0.0]
['beep', 0.0, -76185.38453404719, 0.0, 0.0, 0.0, 0.0, -71485.28206172968, 0.0]
['beep', 0.0, -76187.41854279263, 0.0, 0.0, 0.0, 0.0, -71511.0312713422, 0.0]
['beep', 0.0, -75815.53021854523, 0.0, 0.0, 0.0, 0.0, -70889.80923769585, 0.0]
['beep', 0.0, -75579.69696279729, 0.0, 0.0, 0.0, 0.0, -70476.39137225048, 0.0]
['beep', 0.0, -75800.889825927, 0.0, 0.0, 0.0, 0.0, -70835.67331262509, 0.0]
['beep', 0.0, -76169.69360943956, 0.0, 0.0, 0.0, 0.0, -71467.93710803236, 0.0]
['beep', 0.0, -76171.36999027371, 0.0, 0.0, 0.0, 0.0, -71494.49098044526, 0.0]
['beep', 0.0, -75798.65465148147, 0.0, 0.0, 0.0, 0.0, -70872.8219119098, 0.0]
['beep', 0.0, -75560.76503524365, 0.0, 0.0, 0.0, 0.0, -70456.4759679408, 0.0]
['beep', 0.0, -75779.94624137238, 0.0, 0.0, 0.0, 0.0, -70812.85218153622, 0.0]
['beep', 0.0, -76148.54885918486, 0.0, 0.0, 0.0, 0.0, -71445.13832868796, 0.0]
['beep', 0.0, -76153.37683598719, 0.0, 0.0, 0.0, 0.0, -71475.84962556954, 0.0]
['beep', 0.0, -75784.30483154117, 0.0, 0.0, 0.0, 0.0, -70858.31562975832, 0.0]
['beep', 0.0, -75543.50948852414, 0.0, 0.0, 0.0, 0.0, -70438.25929620973, 0.0]
['beep', 0.0, -75760.34376148507, 0.0, 0.0, 0.0, 0.0, -70791.48391383696, 0.0]
['beep', 0.0, -76129.8180973313, 0.0, 0.0, 0.0, 0.0, -71424.86529646699, 0.0]
['beep', 0.0, -76137.1718212571, 0.0, 0.0, 0.0, 0.0, -71459.15287246143, 0.0]
['beep', 0.0, -75767.16104354395, 0.0, 0.0, 0.0, 0.0, -70840.970676061, 0.0]
['beep', 0.0, -75527.0809563495, 0.0, 0.0, 0.0, 0.0, -70420.64612157895, 0.0]
['beep', 0.0, -75742.01533103173, 0.0, 0.0, 0.0, 0.0, -70771.0544194048, 0.0]
['beep', 0.0, -76111.17674245557, 0.0, 0.0, 0.0, 0.0, -71404.54756075711, 0.0]
['beep', 0.0, -76120.09508849324, 0.0, 0.0, 0.0, 0.0, -71441.53969783065, 0.0]
['beep', 0.0, -75750.64310439148, 0.0, 0.0, 0.0, 0.0, -70824.34097818626, 0.0]
['beep', 0.0, -75510.54066545256, 0.0, 0.0, 0.0, 0.0, -70403.368223115, 0.0]
['beep', 0.0, -75725.5197436237, 0.0, 0.0, 0.0, 0.0, -70752.703637207, 0.0]
['beep', 0.0, -76096.44694285953, 0.0, 0.0, 0.0, 0.0, -71388.0519733491, 0.0]
['beep', 0.0, -76104.38181214116, 0.0, 0.0, 0.0, 0.0, -71425.20057263381, 0.0]
['beep', 0.0, -75734.46044140583, 0.0, 0.0, 0.0, 0.0, -70808.13596345615, 0.0]
['beep', 0.0, -75493.03924954406, 0.0, 0.0, 0.0, 0.0, -70384.79392347264, 0.0]
['beep', 0.0, -75707.92892073738, 0.0, 0.0, 0.0, 0.0, -70733.12350906414, 0.0]
['beep', 0.0, -76078.69965776202, 0.0, 0.0, 0.0, 0.0, -71368.53890043961, 0.0]
['beep', 0.0, -76090.63548930114, 0.0, 0.0, 0.0, 0.0, -71410.80604920459, 0.0]
['beep', 0.0, -75720.28943542116, 0.0, 0.0, 0.0, 0.0, -70793.83084700476, 0.0]
['beep', 0.0, -75477.6165458699, 0.0, 0.0, 0.0, 0.0, -70368.43244653135, 0.0]
['beep', 0.0, -75690.29339436215, 0.0, 0.0, 0.0, 0.0, -70713.45397394347, 0.0]
['beep', 0.0, -76061.95820116499, 0.0, 0.0, 0.0, 0.0, -71350.1881182418, 0.0]
['beep', 0.0, -76075.92804144956, 0.0, 0.0, 0.0, 0.0, -71395.62921471945, 0.0]
['beep', 0.0, -75703.72679277978, 0.0, 0.0, 0.0, 0.0, -70777.1564456411, 0.0]
['beep', 0.0, -75457.14234794883, 0.0, 0.0, 0.0, 0.0, -70346.95242010981, 0.0]
['beep', 0.0, -75668.16516735138, 0.0, 0.0, 0.0, 0.0, -70689.38114516511, 0.0]
['beep', 0.0, -76043.22743931145, 0.0, 0.0, 0.0, 0.0, -71329.5351063651, 0.0]
['beep', 0.0, -76057.08552087373, 0.0, 0.0, 0.0, 0.0, -71376.18319704333, 0.0]
['beep', 0.0, -75688.16997863889, 0.0, 0.0, 0.0, 0.0, -70761.59963150021, 0.0]
['beep', 0.0, -75441.13849891884, 0.0, 0.0, 0.0, 0.0, -70330.16626002386, 0.0]
['beep', 0.0, -75653.21185031079, 0.0, 0.0, 0.0, 0.0, -70672.59498507917, 0.0]
['beep', 0.0, -76027.20123853699, 0.0, 0.0, 0.0, 0.0, -71311.98898696768, 0.0]
['beep', 0.0, -76040.83580265472, 0.0, 0.0, 0.0, 0.0, -71359.32998172403, 0.0]
['beep', 0.0, -75672.43435054236, 0.0, 0.0, 0.0, 0.0, -70745.61813421466, 0.0]
['beep', 0.0, -75424.48644929963, 0.0, 0.0, 0.0, 0.0, -70312.57543713754, 0.0]
['beep', 0.0, -75632.69294890082, 0.0, 0.0, 0.0, 0.0, -70649.9750196904, 0.0]
['beep', 0.0, -76004.8941975706, 0.0, 0.0, 0.0, 0.0, -71287.69264074476, 0.0]
['beep', 0.0, -76021.88152335663, 0.0, 0.0, 0.0, 0.0, -71339.66044660336, 0.0]
['beep', 0.0, -75656.67637070136, 0.0, 0.0, 0.0, 0.0, -70729.83780262922, 0.0]
['beep', 0.0, -75408.37084154735, 0.0, 0.0, 0.0, 0.0, -70295.49870437369, 0.0]
['beep', 0.0, -75613.76102134718, 0.0, 0.0, 0.0, 0.0, -70629.09849036914, 0.0]
['beep', 0.0, -75988.24214795139, 0.0, 0.0, 0.0, 0.0, -71269.2748033136, 0.0]
['beep', 0.0, -76007.75522086087, 0.0, 0.0, 0.0, 0.0, -71324.90829526285, 0.0]
['beep', 0.0, -75641.0525013271, 0.0, 0.0, 0.0, 0.0, -70713.9904158104, 0.0]
['beep', 0.0, -75390.8470738944, 0.0, 0.0, 0.0, 0.0, -70276.90205298687, 0.0]
['beep', 0.0, -75594.20324494877, 0.0, 0.0, 0.0, 0.0, -70607.4172982475, 0.0]
['beep', 0.0, -75968.17028143052, 0.0, 0.0, 0.0, 0.0, -71247.34774200294, 0.0]
['beep', 0.0, -75988.80094156277, 0.0, 0.0, 0.0, 0.0, -71305.30581537556, 0.0]
['beep', 0.0, -75622.61231215147, 0.0, 0.0, 0.0, 0.0, -70695.43846791249, 0.0]
['beep', 0.0, -75372.60805041887, 0.0, 0.0, 0.0, 0.0, -70257.72425624421, 0.0]
['beep', 0.0, -75578.19939591878, 0.0, 0.0, 0.0, 0.0, -70589.46884744988, 0.0]
['beep', 0.0, -75951.8758597226, 0.0, 0.0, 0.0, 0.0, -71229.37693946087, 0.0]
['beep', 0.0, -75974.11584545563, 0.0, 0.0, 0.0, 0.0, -71290.08427740149, 0.0]
['beep', 0.0, -75610.45296316779, 0.0, 0.0, 0.0, 0.0, -70683.2344154399, 0.0]
['beep', 0.0, -75357.81119558946, 0.0, 0.0, 0.0, 0.0, -70241.96627640323, 0.0]
['beep', 0.0, -75557.52403229762, 0.0, 0.0, 0.0, 0.0, -70567.0053442723, 0.0]
['beep', 0.0, -75932.54160076876, 0.0, 0.0, 0.0, 0.0, -71208.38865141734, 0.0]
['beep', 0.0, -75960.30246738225, 0.0, 0.0, 0.0, 0.0, -71275.823864439, 0.0]
['beep', 0.0, -75592.52686411462, 0.0, 0.0, 0.0, 0.0, -70665.30831638674, 0.0]
['beep', 0.0, -75338.11930872433, 0.0, 0.0, 0.0, 0.0, -70221.44737499325, 0.0]
['beep', 0.0, -75542.01192164564, 0.0, 0.0, 0.0, 0.0, -70549.54863185271, 0.0]
['beep', 0.0, -75916.89537965004, 0.0, 0.0, 0.0, 0.0, -71191.04369772002, 0.0]
['beep', 0.0, -75942.19755437346, 0.0, 0.0, 0.0, 0.0, -71257.00369560764, 0.0]
['beep', 0.0, -75578.71348604125, 0.0, 0.0, 0.0, 0.0, -70651.27142086881, 0.0]
['beep', 0.0, -75323.81419227293, 0.0, 0.0, 0.0, 0.0, -70206.24818876364, 0.0]
['beep', 0.0, -75524.1305260814, 0.0, 0.0, 0.0, 0.0, -70529.63322754303, 0.0]
['beep', 0.0, -75899.05868757471, 0.0, 0.0, 0.0, 0.0, -71171.44121783272, 0.0]
['beep', 0.0, -75925.47844952089, 0.0, 0.0, 0.0, 0.0, -71239.81520412149, 0.0]
['beep', 0.0, -75560.87679396592, 0.0, 0.0, 0.0, 0.0, -70633.45708053793, 0.0]
['beep', 0.0, -75304.74815425255, 0.0, 0.0, 0.0, 0.0, -70186.3104327095, 0.0]
['beep', 0.0, -75502.76225838212, 0.0, 0.0, 0.0, 0.0, -70506.38741330951, 0.0]
['beep', 0.0, -75879.43385594296, 0.0, 0.0, 0.0, 0.0, -71150.1400053668, 0.0]
['beep', 0.0, -75908.96051036842, 0.0, 0.0, 0.0, 0.0, -71222.69376786874, 0.0]
['beep', 0.0, -75547.331636826, 0.0, 0.0, 0.0, 0.0, -70619.93427514247, 0.0]
['beep', 0.0, -75288.20786335562, 0.0, 0.0, 0.0, 0.0, -70168.87607203437, 0.0]
['beep', 0.0, -75484.38912443985, 0.0, 0.0, 0.0, 0.0, -70486.20378806637, 0.0]
['beep', 0.0, -75861.39599816751, 0.0, 0.0, 0.0, 0.0, -71130.33635977941, 0.0]
['beep', 0.0, -75893.49310320534, 0.0, 0.0, 0.0, 0.0, -71206.53345662754, 0.0]
['beep', 0.0, -75531.03721511808, 0.0, 0.0, 0.0, 0.0, -70603.48339122336, 0.0]
['beep', 0.0, -75271.64522071424, 0.0, 0.0, 0.0, 0.0, -70151.48641484814, 0.0]
['beep', 0.0, -75467.29003993154, 0.0, 0.0, 0.0, 0.0, -70467.24950876826, 0.0]
['beep', 0.0, -75844.60983808158, 0.0, 0.0, 0.0, 0.0, -71111.9855775816, 0.0]
['beep', 0.0, -75878.11510302009, 0.0, 0.0, 0.0, 0.0, -71190.7084215532, 0.0]
['beep', 0.0, -75516.5756364555, 0.0, 0.0, 0.0, 0.0, -70589.17827477197, 0.0]
['beep', 0.0, -75255.77548215097, 0.0, 0.0, 0.0, 0.0, -70134.8567169734, 0.0]
['beep', 0.0, -75447.5087460886, 0.0, 0.0, 0.0, 0.0, -70445.54596490216, 0.0]
['beep', 0.0, -75825.5438000612, 0.0, 0.0, 0.0, 0.0, -71091.01964128252, 0.0]
['beep', 0.0, -75861.41834991197, 0.0, 0.0, 0.0, 0.0, -71173.51993006706, 0.0]
['beep', 0.0, -75501.33174673698, 0.0, 0.0, 0.0, 0.0, -70574.06849552017, 0.0]
['beep', 0.0, -75239.36930172078, 0.0, 0.0, 0.0, 0.0, -70117.73528072063, 0.0]
['beep', 0.0, -75431.86252496988, 0.0, 0.0, 0.0, 0.0, -70427.91043852693, 0.0]
['beep', 0.0, -75809.15997137547, 0.0, 0.0, 0.0, 0.0, -71072.8253212959, 0.0]
['beep', 0.0, -75844.67689331494, 0.0, 0.0, 0.0, 0.0, -71156.10792113637, 0.0]
['beep', 0.0, -75485.30554596252, 0.0, 0.0, 0.0, 0.0, -70557.79642555672, 0.0]
['beep', 0.0, -75223.49956315751, 0.0, 0.0, 0.0, 0.0, -70100.90441714578, 0.0]
['beep', 0.0, -75414.31640557246, 0.0, 0.0, 0.0, 0.0, -70408.57617957308, 0.0]
['beep', 0.0, -75789.9374711439, 0.0, 0.0, 0.0, 0.0, -71051.99349546355, 0.0]
['beep', 0.0, -75827.153125662, 0.0, 0.0, 0.0, 0.0, -71138.07006336094, 0.0]
['beep', 0.0, -75467.17828120927, 0.0, 0.0, 0.0, 0.0, -70539.646809059, 0.0]
['beep', 0.0, -75202.77949604744, 0.0, 0.0, 0.0, 0.0, -70079.46909421314, 0.0]
['beep', 0.0, -75391.96466111716, 0.0, 0.0, 0.0, 0.0, -70384.32453683908, 0.0]
['beep', 0.0, -75770.93848835689, 0.0, 0.0, 0.0, 0.0, -71031.16166963121, 0.0]
['beep', 0.0, -75811.90923594347, 0.0, 0.0, 0.0, 0.0, -71122.1332695643, 0.0]
['beep', 0.0, -75455.44361537023, 0.0, 0.0, 0.0, 0.0, -70527.8450879866, 0.0]
['beep', 0.0, -75191.13423718623, 0.0, 0.0, 0.0, 0.0, -70066.86271034036, 0.0]
['beep', 0.0, -75379.13475979981, 0.0, 0.0, 0.0, 0.0, -70369.37121979847, 0.0]
['beep', 0.0, -75756.52161318321, 0.0, 0.0, 0.0, 0.0, -71014.86724792329, 0.0]
['beep', 0.0, -75797.53706425871, 0.0, 0.0, 0.0, 0.0, -71107.00113856807, 0.0]
['beep', 0.0, -75440.62440879637, 0.0, 0.0, 0.0, 0.0, -70513.07058490165, 0.0]
['beep', 0.0, -75171.82232997684, 0.0, 0.0, 0.0, 0.0, -70046.8355473084, 0.0]
['beep', 0.0, -75355.53131765501, 0.0, 0.0, 0.0, 0.0, -70344.11374856398, 0.0]
['beep', 0.0, -75732.94052278287, 0.0, 0.0, 0.0, 0.0, -70989.72153541107, 0.0]
['beep', 0.0, -75776.66053493744, 0.0, 0.0, 0.0, 0.0, -71085.72227784661, 0.0]
['beep', 0.0, -75419.5020102861, 0.0, 0.0, 0.0, 0.0, -70491.90348290247, 0.0]
['beep', 0.0, -75153.40449254567, 0.0, 0.0, 0.0, 0.0, -70027.56834358792, 0.0]
['beep', 0.0, -75340.55564886995, 0.0, 0.0, 0.0, 0.0, -70327.19347801131, 0.0]
['beep', 0.0, -75717.80839178663, 0.0, 0.0, 0.0, 0.0, -70972.84596834732, 0.0]
['beep', 0.0, -75763.24948826426, 0.0, 0.0, 0.0, 0.0, -71071.79714105096, 0.0]
['beep', 0.0, -75405.08513511243, 0.0, 0.0, 0.0, 0.0, -70477.4866077288, 0.0]
['beep', 0.0, -75134.65137894766, 0.0, 0.0, 0.0, 0.0, -70007.9211602117, 0.0]
['beep', 0.0, -75319.36619512632, 0.0, 0.0, 0.0, 0.0, -70304.03707075561, 0.0]
['beep', 0.0, -75700.37403111148, 0.0, 0.0, 0.0, 0.0, -70953.69052334911, 0.0]
['beep', 0.0, -75745.50220316675, 0.0, 0.0, 0.0, 0.0, -71053.44635885315, 0.0]
['beep', 0.0, -75389.1930448047, 0.0, 0.0, 0.0, 0.0, -70461.57216567663, 0.0]
['beep', 0.0, -75121.77677414141, 0.0, 0.0, 0.0, 0.0, -69994.06307864941, 0.0]
['beep', 0.0, -75305.3740030973, 0.0, 0.0, 0.0, 0.0, -70288.01086998115, 0.0]
['beep', 0.0, -75683.78903672565, 0.0, 0.0, 0.0, 0.0, -70935.20563068458, 0.0]
['beep', 0.0, -75730.99592101526, 0.0, 0.0, 0.0, 0.0, -71038.40363483473, 0.0]
['beep', 0.0, -75374.53030044203, 0.0, 0.0, 0.0, 0.0, -70446.99882829176, 0.0]
['beep', 0.0, -75101.88372157619, 0.0, 0.0, 0.0, 0.0, -69973.43241851717, 0.0]
['beep', 0.0, -75283.55870050892, 0.0, 0.0, 0.0, 0.0, -70264.22861388071, 0.0]
['beep', 0.0, -75664.1642050939, 0.0, 0.0, 0.0, 0.0, -70913.8373629853, 0.0]
['beep', 0.0, -75714.79090628515, 0.0, 0.0, 0.0, 0.0, -71021.68452998216, 0.0]
['beep', 0.0, -75359.84520433488, 0.0, 0.0, 0.0, 0.0, -70432.26902869571, 0.0]
['beep', 0.0, -75085.56694812381, 0.0, 0.0, 0.0, 0.0, -69956.24392703104, 0.0]
['beep', 0.0, -75264.80558691092, 0.0, 0.0, 0.0, 0.0, -70243.35208455946, 0.0]
['beep', 0.0, -75646.43927174083, 0.0, 0.0, 0.0, 0.0, -70894.25723484246, 0.0]
['beep', 0.0, -75699.68112703337, 0.0, 0.0, 0.0, 0.0, -71005.99360537453, 0.0]
['beep', 0.0, -75345.80830881695, 0.0, 0.0, 0.0, 0.0, -70418.34389190005, 0.0]
['beep', 0.0, -75071.35123865024, 0.0, 0.0, 0.0, 0.0, -69941.08944429034, 0.0]
['beep', 0.0, -75246.8124326244, 0.0, 0.0, 0.0, 0.0, -70223.34727327195, 0.0]
['beep', 0.0, -75629.0496145546, 0.0, 0.0, 0.0, 0.0, -70875.01238286644, 0.0]
['beep', 0.0, -75684.90662394841, 0.0, 0.0, 0.0, 0.0, -70990.54854995591, 0.0]
['beep', 0.0, -75331.99493074357, 0.0, 0.0, 0.0, 0.0, -70404.64227254895, 0.0]
['beep', 0.0, -75056.17440416508, 0.0, 0.0, 0.0, 0.0, -69925.1079470048, 0.0]
['beep', 0.0, -75230.56271440539, 0.0, 0.0, 0.0, 0.0, -70205.24236026316, 0.0]
['beep', 0.0, -75610.96705329025, 0.0, 0.0, 0.0, 0.0, -70855.09697855676, 0.0]
['beep', 0.0, -75666.46643477278, 0.0, 0.0, 0.0, 0.0, -70971.63897414673, 0.0]
['beep', 0.0, -75314.1805904127, 0.0, 0.0, 0.0, 0.0, -70386.7608769847, 0.0]
['beep', 0.0, -75036.75073823342, 0.0, 0.0, 0.0, 0.0, -69904.79021129492, 0.0]
['beep', 0.0, -75210.33438567334, 0.0, 0.0, 0.0, 0.0, -70182.9129675523, 0.0]
['beep', 0.0, -75590.22463443574, 0.0, 0.0, 0.0, 0.0, -70832.52171665689, 0.0]
['beep', 0.0, -75648.71914967528, 0.0, 0.0, 0.0, 0.0, -70953.1540814822, 0.0]
['beep', 0.0, -75297.19326462667, 0.0, 0.0, 0.0, 0.0, -70369.63944073195, 0.0]
['beep', 0.0, -75018.84699092472, 0.0, 0.0, 0.0, 0.0, -69886.05944944137, 0.0]
['beep', 0.0, -75190.91071974167, 0.0, 0.0, 0.0, 0.0, -70161.54469985304, 0.0]
['beep', 0.0, -75573.2373086497, 0.0, 0.0, 0.0, 0.0, -70813.65684433661, 0.0]
['beep', 0.0, -75632.8047076231, 0.0, 0.0, 0.0, 0.0, -70936.54673535189, 0.0]
['beep', 0.0, -75282.15054060824, 0.0, 0.0, 0.0, 0.0, -70354.44025450233, 0.0]
['beep', 0.0, -75004.22895005095, 0.0, 0.0, 0.0, 0.0, -69870.56969053384, 0.0]
['beep', 0.0, -75174.50453931149, 0.0, 0.0, 0.0, 0.0, -70143.1045106774, 0.0]
['beep', 0.0, -75558.57456428702, 0.0, 0.0, 0.0, 0.0, -70797.1612569286, 0.0]
['beep', 0.0, -75616.91261731538, 0.0, 0.0, 0.0, 0.0, -70920.0958514328, 0.0]
['beep', 0.0, -75265.23027005557, 0.0, 0.0, 0.0, 0.0, -70337.76585313867, 0.0]
['beep', 0.0, -74985.02880156384, 0.0, 0.0, 0.0, 0.0, -69850.5872309908, 0.0]
['beep', 0.0, -75152.35396055627, 0.0, 0.0, 0.0, 0.0, -70118.98697841013, 0.0]
['beep', 0.0, -75535.28404656459, 0.0, 0.0, 0.0, 0.0, -70772.03789616084, 0.0]
['beep', 0.0, -75600.10410548498, 0.0, 0.0, 0.0, 0.0, -70902.66149075764, 0.0]
['beep', 0.0, -75249.69580765913, 0.0, 0.0, 0.0, 0.0, -70322.1419837644, 0.0]
['beep', 0.0, -74967.08035076623, 0.0, 0.0, 0.0, 0.0, -69831.78941390388, 0.0]
['beep', 0.0, -75135.54544872588, 0.0, 0.0, 0.0, 0.0, -70100.12210608985, 0.0]
['beep', 0.0, -75518.0284998451, 0.0, 0.0, 0.0, 0.0, -70752.92715465155, 0.0]
['beep', 0.0, -75582.64739306539, 0.0, 0.0, 0.0, 0.0, -70884.55657774885, 0.0]
['beep', 0.0, -75234.31780747388, 0.0, 0.0, 0.0, 0.0, -70306.62987311243, 0.0]
['beep', 0.0, -74952.90934478157, 0.0, 0.0, 0.0, 0.0, -69816.52317244091, 0.0]
['beep', 0.0, -75119.94393109607, 0.0, 0.0, 0.0, 0.0, -70082.4865797146, 0.0]
['beep', 0.0, -75501.30939499252, 0.0, 0.0, 0.0, 0.0, -70734.35285500919, 0.0]
['beep', 0.0, -75567.78348300261, 0.0, 0.0, 0.0, 0.0, -70868.9774118635, 0.0]
['beep', 0.0, -75222.58314163484, 0.0, 0.0, 0.0, 0.0, -70294.82815204003, 0.0]
['beep', 0.0, -74936.99490272939, 0.0, 0.0, 0.0, 0.0, -69799.84877107725, 0.0]
['beep', 0.0, -75100.83318958679, 0.0, 0.0, 0.0, 0.0, -70061.56534690445, 0.0]
['beep', 0.0, -75484.3667726954, 0.0, 0.0, 0.0, 0.0, -70715.59974141118, 0.0]
['beep', 0.0, -75551.84668920597, 0.0, 0.0, 0.0, 0.0, -70852.3253622443, 0.0]
['beep', 0.0, -75205.05937398189, 0.0, 0.0, 0.0, 0.0, -70277.28203264262, 0.0]
['beep', 0.0, -74920.38755659909, 0.0, 0.0, 0.0, 0.0, -69782.5708726133, 0.0]
['beep', 0.0, -75083.84586380076, 0.0, 0.0, 0.0, 0.0, -70042.56636411743, 0.0]
['beep', 0.0, -75463.89257477433, 0.0, 0.0, 0.0, 0.0, -70693.00212776687, 0.0]
['beep', 0.0, -75532.06539536302, 0.0, 0.0, 0.0, 0.0, -70831.87351606769, 0.0]
['beep', 0.0, -75188.89906274069, 0.0, 0.0, 0.0, 0.0, -70261.16642489034, 0.0]
['beep', 0.0, -74904.02607965781, 0.0, 0.0, 0.0, 0.0, -69765.18121542707, 0.0]
['beep', 0.0, -75067.03735197036, 0.0, 0.0, 0.0, 0.0, -70023.52267784151, 0.0]
['beep', 0.0, -75452.60494382441, 0.0, 0.0, 0.0, 0.0, -70679.74754330487, 0.0]
['beep', 0.0, -75523.30351153655, 0.0, 0.0, 0.0, 0.0, -70822.217562463, 0.0]
['beep', 0.0, -75177.32085911285, 0.0, 0.0, 0.0, 0.0, -70249.4317590513, 0.0]
['beep', 0.0, -74889.38568703958, 0.0, 0.0, 0.0, 0.0, -69749.78086349736, 0.0]
['beep', 0.0, -75050.02767443987, 0.0, 0.0, 0.0, 0.0, -70004.56839854342, 0.0]
['beep', 0.0, -75431.81782148097, 0.0, 0.0, 0.0, 0.0, -70656.92641221601, 0.0]
['beep', 0.0, -75503.76808688261, 0.0, 0.0, 0.0, 0.0, -70801.92217849758, 0.0]
['beep', 0.0, -75159.48416703752, 0.0, 0.0, 0.0, 0.0, -70231.4833082537, 0.0]
['beep', 0.0, -74869.49263447436, 0.0, 0.0, 0.0, 0.0, -69728.99374115393, 0.0]
['beep', 0.0, -75028.0112061514, 0.0, 0.0, 0.0, 0.0, -69980.54027325395, 0.0]
['beep', 0.0, -75410.58366424844, 0.0, 0.0, 0.0, 0.0, -70633.7700049603, 0.0]
['beep', 0.0, -75485.6184703849, 0.0, 0.0, 0.0, 0.0, -70783.07965792176, 0.0]
['beep', 0.0, -75144.01675987444, 0.0, 0.0, 0.0, 0.0, -70216.06060457953, 0.0]
['beep', 0.0, -74854.7181313894, 0.0, 0.0, 0.0, 0.0, -69713.4592787575, 0.0]
['beep', 0.0, -75010.26392105388, 0.0, 0.0, 0.0, 0.0, -69960.75897941101, 0.0]
['beep', 0.0, -75392.14347507281, 0.0, 0.0, 0.0, 0.0, -70613.36286227261, 0.0]
['beep', 0.0, -75470.10635973292, 0.0, 0.0, 0.0, 0.0, -70766.78523621384, 0.0]
['beep', 0.0, -75127.8788003777, 0.0, 0.0, 0.0, 0.0, -70199.78853461606, 0.0]
['beep', 0.0, -74836.79203233625, 0.0, 0.0, 0.0, 0.0, -69694.72851690394, 0.0]
['beep', 0.0, -74993.16483654558, 0.0, 0.0, 0.0, 0.0, -69941.67058964618, 0.0]
['beep', 0.0, -75378.1959865327, 0.0, 0.0, 0.0, 0.0, -70597.3143097537, 0.0]
['beep', 0.0, -75456.33768514845, 0.0, 0.0, 0.0, 0.0, -70752.18954708452, 0.0]
['beep', 0.0, -75115.49593394947, 0.0, 0.0, 0.0, 0.0, -70187.45037167674, 0.0]
['beep', 0.0, -74820.49761062833, 0.0, 0.0, 0.0, 0.0, -69677.67413588455, 0.0]
['beep', 0.0, -74971.5506996573, 0.0, 0.0, 0.0, 0.0, -69917.97774052355, 0.0]
['beep', 0.0, -75360.29223922399, 0.0, 0.0, 0.0, 0.0, -70577.46596067738, 0.0]
['beep', 0.0, -75441.31731287448, 0.0, 0.0, 0.0, 0.0, -70736.61038119918, 0.0]
['beep', 0.0, -75099.84971283075, 0.0, 0.0, 0.0, 0.0, -70171.82650230247, 0.0]
['beep', 0.0, -74805.23136916535, 0.0, 0.0, 0.0, 0.0, -69661.75969383237, 0.0]
['beep', 0.0, -74953.28932443731, 0.0, 0.0, 0.0, 0.0, -69897.90587400268, 0.0]
['beep', 0.0, -75339.10278548035, 0.0, 0.0, 0.0, 0.0, -70554.44366388842, 0.0]
['beep', 0.0, -75420.3066730865, 0.0, 0.0, 0.0, 0.0, -70714.68331988851, 0.0]
['beep', 0.0, -75081.34246842176, 0.0, 0.0, 0.0, 0.0, -70153.18514742675, 0.0]
['beep', 0.0, -74787.28291836774, 0.0, 0.0, 0.0, 0.0, -69643.11833895664, 0.0]
['beep', 0.0, -74937.62075157414, 0.0, 0.0, 0.0, 0.0, -69880.42680983864, 0.0]
['beep', 0.0, -75321.24374166057, 0.0, 0.0, 0.0, 0.0, -70534.68472178993, 0.0]
['beep', 0.0, -75405.26394906807, 0.0, 0.0, 0.0, 0.0, -70698.88063655862, 0.0]
['beep', 0.0, -75064.08692170226, 0.0, 0.0, 0.0, 0.0, -70135.92960070726, 0.0]
['beep', 0.0, -74767.12164486905, 0.0, 0.0, 0.0, 0.0, -69621.97358870192, 0.0]
['beep', 0.0, -74916.23013213041, 0.0, 0.0, 0.0, 0.0, -69856.93512641611, 0.0]
['beep', 0.0, -75301.70831700663, 0.0, 0.0, 0.0, 0.0, -70513.20469536837, 0.0]
['beep', 0.0, -75387.80723664847, 0.0, 0.0, 0.0, 0.0, -70680.77572354981, 0.0]
['beep', 0.0, -75052.17344190758, 0.0, 0.0, 0.0, 0.0, -70124.03847265703, 0.0]
['beep', 0.0, -74754.80583367418, 0.0, 0.0, 0.0, 0.0, -69609.0319286623, 0.0]
['beep', 0.0, -74900.00276565585, 0.0, 0.0, 0.0, 0.0, -69838.96432387404, 0.0]
['beep', 0.0, -75287.17968311068, 0.0, 0.0, 0.0, 0.0, -70496.61970098254, 0.0]
['beep', 0.0, -75374.75381788658, 0.0, 0.0, 0.0, 0.0, -70666.8282350097, 0.0]
['beep', 0.0, -75036.12488938867, 0.0, 0.0, 0.0, 0.0, -70107.98992013812, 0.0]
['beep', 0.0, -74737.34912125458, 0.0, 0.0, 0.0, 0.0, -69590.83760867568, 0.0]
['beep', 0.0, -74883.61893697012, 0.0, 0.0, 0.0, 0.0, -69820.45707946505, 0.0]
['beep', 0.0, -75269.18652882415, 0.0, 0.0, 0.0, 0.0, -70476.57018620613, 0.0]
['beep', 0.0, -75356.31362871095, 0.0, 0.0, 0.0, 0.0, -70647.65043826705, 0.0]
['beep', 0.0, -75021.21627583698, 0.0, 0.0, 0.0, 0.0, -70092.9918996086, 0.0]
['beep', 0.0, -74722.55226642518, 0.0, 0.0, 0.0, 0.0, -69575.21373930141, 0.0]
['beep', 0.0, -74864.97758209439, 0.0, 0.0, 0.0, 0.0, -69799.91582631062, 0.0]
['beep', 0.0, -75249.09231055884, 0.0, 0.0, 0.0, 0.0, -70454.59842140657, 0.0]
['beep', 0.0, -75339.7286343251, 0.0, 0.0, 0.0, 0.0, -70630.19372584745, 0.0]
['beep', 0.0, -75005.68181344055, 0.0, 0.0, 0.0, 0.0, -70077.43508546772, 0.0]
['beep', 0.0, -74703.30741444915, 0.0, 0.0, 0.0, 0.0, -69555.29833499173, 0.0]
['beep', 0.0, -74844.43632893996, 0.0, 0.0, 0.0, 0.0, -69777.36291615521, 0.0]
['beep', 0.0, -75229.758051605, 0.0, 0.0, 0.0, 0.0, -70433.2748571962, 0.0]
['beep', 0.0, -75320.50613409355, 0.0, 0.0, 0.0, 0.0, -70610.25596979332, 0.0]
['beep', 0.0, -74986.61577542017, 0.0, 0.0, 0.0, 0.0, -70058.27964046951, 0.0]
['beep', 0.0, -74687.81765554163, 0.0, 0.0, 0.0, 0.0, -69538.89215456154, 0.0]
['beep', 0.0, -74827.5160583873, 0.0, 0.0, 0.0, 0.0, -69758.38628511266, 0.0]
['beep', 0.0, -75213.32951943035, 0.0, 0.0, 0.0, 0.0, -70414.94642674284, 0.0]
['beep', 0.0, -75307.76563975401, 0.0, 0.0, 0.0, 0.0, -70596.75551614232, 0.0]
['beep', 0.0, -74976.51278692637, 0.0, 0.0, 0.0, 0.0, -70048.26605895354, 0.0]
['beep', 0.0, -74672.39495186746, 0.0, 0.0, 0.0, 0.0, -69522.84360204263, 0.0]
['beep', 0.0, -74810.19345643443, 0.0, 0.0, 0.0, 0.0, -69739.02967441436, 0.0]
['beep', 0.0, -75196.23043492204, 0.0, 0.0, 0.0, 0.0, -70395.612167789, 0.0]
['beep', 0.0, -75294.39929656974, 0.0, 0.0, 0.0, 0.0, -70582.58451015766, 0.0]
['beep', 0.0, -74963.21349897546, 0.0, 0.0, 0.0, 0.0, -70035.21264019163, 0.0]
['beep', 0.0, -74657.19576563785, 0.0, 0.0, 0.0, 0.0, -69506.99621522381, 0.0]
['beep', 0.0, -74793.72022077086, 0.0, 0.0, 0.0, 0.0, -69720.54478174982, 0.0]
['beep', 0.0, -75180.71832427006, 0.0, 0.0, 0.0, 0.0, -70378.13310362496, 0.0]
['beep', 0.0, -75277.30021206144, 0.0, 0.0, 0.0, 0.0, -70564.6584111045, 0.0]
['beep', 0.0, -74940.4370713755, 0.0, 0.0, 0.0, 0.0, -70012.34680561385, 0.0]
['beep', 0.0, -74634.84402118255, 0.0, 0.0, 0.0, 0.0, -69483.90686320148, 0.0]
['beep', 0.0, -74769.8485576926, 0.0, 0.0, 0.0, 0.0, -69694.61675818167, 0.0]
['beep', 0.0, -75155.95259141357, 0.0, 0.0, 0.0, 0.0, -70351.22160330077, 0.0]
['beep', 0.0, -75256.58014495137, 0.0, 0.0, 0.0, 0.0, -70543.26779166076, 0.0]
['beep', 0.0, -74926.9813212134, 0.0, 0.0, 0.0, 0.0, -69998.98046242958, 0.0]
['beep', 0.0, -74621.14240183144, 0.0, 0.0, 0.0, 0.0, -69469.57939500564, 0.0]
['beep', 0.0, -74753.26356330675, 0.0, 0.0, 0.0, 0.0, -69676.28832772831, 0.0]
['beep', 0.0, -75140.75340518396, 0.0, 0.0, 0.0, 0.0, -70334.16722228136, 0.0]
['beep', 0.0, -75242.92322908917, 0.0, 0.0, 0.0, 0.0, -70528.71680602035, 0.0]
['beep', 0.0, -74914.39728908507, 0.0, 0.0, 0.0, 0.0, -69986.32937506789, 0.0]
['beep', 0.0, -74608.11133481399, 0.0, 0.0, 0.0, 0.0, -69455.90012739899, 0.0]
['beep', 0.0, -74736.70092066537, 0.0, 0.0, 0.0, 0.0, -69657.78108331932, 0.0]
['beep', 0.0, -75122.62614043072, 0.0, 0.0, 0.0, 0.0, -70314.02830052713, 0.0]
['beep', 0.0, -75226.71821435908, 0.0, 0.0, 0.0, 0.0, -70511.84123895661, 0.0]
['beep', 0.0, -74900.06982088921, 0.0, 0.0, 0.0, 0.0, -69972.1136655943, 0.0]
['beep', 0.0, -74590.67697413886, 0.0, 0.0, 0.0, 0.0, -69437.7952143902, 0.0]
['beep', 0.0, -74719.2889117347, 0.0, 0.0, 0.0, 0.0, -69638.58093483221, 0.0]
['beep', 0.0, -75105.14707626666, 0.0, 0.0, 0.0, 0.0, -70294.5375793621, 0.0]
['beep', 0.0, -75211.76489731847, 0.0, 0.0, 0.0, 0.0, -70495.99385213779, 0.0]
['beep', 0.0, -74886.01057362683, 0.0, 0.0, 0.0, 0.0, -69958.09912182082, 0.0]
['beep', 0.0, -74575.83541582053, 0.0, 0.0, 0.0, 0.0, -69422.23840024929, 0.0]
['beep', 0.0, -74702.94978653787, 0.0, 0.0, 0.0, 0.0, -69620.1854491455, 0.0]
['beep', 0.0, -75088.00328826944, 0.0, 0.0, 0.0, 0.0, -70275.35978261946, 0.0]
['beep', 0.0, -75193.81644652087, 0.0, 0.0, 0.0, 0.0, -70477.33014551761, 0.0]
['beep', 0.0, -74868.71032341842, 0.0, 0.0, 0.0, 0.0, -69940.88827859024, 0.0]
['beep', 0.0, -74558.75868305667, 0.0, 0.0, 0.0, 0.0, -69404.55817038515, 0.0]
['beep', 0.0, -74684.33078340659, 0.0, 0.0, 0.0, 0.0, -69599.66654773553, 0.0]
['beep', 0.0, -75070.7700932944, 0.0, 0.0, 0.0, 0.0, -70256.2266893657, 0.0]
['beep', 0.0, -75178.46079808006, 0.0, 0.0, 0.0, 0.0, -70461.34864823206, 0.0]
['beep', 0.0, -74851.43242495447, 0.0, 0.0, 0.0, 0.0, -69923.6550836152, 0.0]
['beep', 0.0, -74535.40111010088, 0.0, 0.0, 0.0, 0.0, -69380.37358288451, 0.0]
['beep', 0.0, -74660.5708790506, 0.0, 0.0, 0.0, 0.0, -69573.8726346341, 0.0]
['beep', 0.0, -75048.59716279473, 0.0, 0.0, 0.0, 0.0, -70232.1315088429, 0.0]
['beep', 0.0, -75158.88066993722, 0.0, 0.0, 0.0, 0.0, -70441.12031950001, 0.0]
['beep', 0.0, -74836.52381140277, 0.0, 0.0, 0.0, 0.0, -69908.9029322747, 0.0]
['beep', 0.0, -74524.04642391759, 0.0, 0.0, 0.0, 0.0, -69368.48245483429, 0.0]
['beep', 0.0, -74648.23271611128, 0.0, 0.0, 0.0, 0.0, -69559.67927690498, 0.0]
['beep', 0.0, -75035.52139228838, 0.0, 0.0, 0.0, 0.0, -70217.13348831338, 0.0]
['beep', 0.0, -75145.87195466422, 0.0, 0.0, 0.0, 0.0, -70427.35164491554, 0.0]
['beep', 0.0, -74820.69877632843, 0.0, 0.0, 0.0, 0.0, -69892.80967626687, 0.0]
['beep', 0.0, -74506.12032486443, 0.0, 0.0, 0.0, 0.0, -69349.70698949182, 0.0]
['beep', 0.0, -74625.72450944479, 0.0, 0.0, 0.0, 0.0, -69535.3605789376, 0.0]
['beep', 0.0, -75013.66138621108, 0.0, 0.0, 0.0, 0.0, -70193.44063919075, 0.0]
['beep', 0.0, -75131.231562046, 0.0, 0.0, 0.0, 0.0, -70411.72777554128, 0.0]
['beep', 0.0, -74808.53942734473, 0.0, 0.0, 0.0, 0.0, -69880.58327204981, 0.0]
['beep', 0.0, -74492.0387258576, 0.0, 0.0, 0.0, 0.0, -69335.02189338469, 0.0]
['beep', 0.0, -74611.82172439358, 0.0, 0.0, 0.0, 0.0, -69519.58024735216, 0.0]
['beep', 0.0, -74996.56230170278, 0.0, 0.0, 0.0, 0.0, -70174.44165640374, 0.0]
['beep', 0.0, -75110.93617808059, 0.0, 0.0, 0.0, 0.0, -70390.80654273112, 0.0]
['beep', 0.0, -74789.40633409099, 0.0, 0.0, 0.0, 0.0, -69861.62899275172, 0.0]
['beep', 0.0, -74474.15733029334, 0.0, 0.0, 0.0, 0.0, -69316.49229723123, 0.0]
['beep', 0.0, -74594.18619801835, 0.0, 0.0, 0.0, 0.0, -69500.24598839831, 0.0]
['beep', 0.0, -74981.16194977307, 0.0, 0.0, 0.0, 0.0, -70157.11905445089, 0.0]
['beep', 0.0, -75098.66507037463, 0.0, 0.0, 0.0, 0.0, -70377.82017920258, 0.0]
['beep', 0.0, -74778.74455198582, 0.0, 0.0, 0.0, 0.0, -69851.07896936881, 0.0]
['beep', 0.0, -74460.16513826432, 0.0, 0.0, 0.0, 0.0, -69301.94131159084, 0.0]
['beep', 0.0, -74573.55553788609, 0.0, 0.0, 0.0, 0.0, -69477.67072649846, 0.0]
['beep', 0.0, -74957.938487284, 0.0, 0.0, 0.0, 0.0, -70131.99569368311, 0.0]
['beep', 0.0, -75078.90612827612, 0.0, 0.0, 0.0, 0.0, -70357.16716732588, 0.0]
['beep', 0.0, -74761.26548782176, 0.0, 0.0, 0.0, 0.0, -69833.5328499714, 0.0]
['beep', 0.0, -74443.96012353423, 0.0, 0.0, 0.0, 0.0, -69285.15515150489, 0.0]
['beep', 0.0, -74558.4010551454, 0.0, 0.0, 0.0, 0.0, -69460.75045594579, 0.0]
['beep', 0.0, -74944.68390282201, 0.0, 0.0, 0.0, 0.0, -70116.72945222014, 0.0]
['beep', 0.0, -75065.62919206968, 0.0, 0.0, 0.0, 0.0, -70343.13027180795, 0.0]
['beep', 0.0, -74747.00507485928, 0.0, 0.0, 0.0, 0.0, -69819.29478875337, 0.0]
['beep', 0.0, -74425.9222657588, 0.0, 0.0, 0.0, 0.0, -69266.4020379069, 0.0]
['beep', 0.0, -74539.22325840274, 0.0, 0.0, 0.0, 0.0, -69439.65040917997, 0.0]
['beep', 0.0, -74924.6790915345, 0.0, 0.0, 0.0, 0.0, -70094.75768742057, 0.0]
['beep', 0.0, -75046.60785753821, 0.0, 0.0, 0.0, 0.0, -70323.23721924273, 0.0]
['beep', 0.0, -74731.91764735195, 0.0, 0.0, 0.0, 0.0, -69803.98384380148, 0.0]
['beep', 0.0, -74411.28187314056, 0.0, 0.0, 0.0, 0.0, -69251.00168597719, 0.0]
['beep', 0.0, -74522.77237448364, 0.0, 0.0, 0.0, 0.0, -69421.41138570444, 0.0]
['beep', 0.0, -74909.85988496065, 0.0, 0.0, 0.0, 0.0, -70078.12798954583, 0.0]
['beep', 0.0, -75034.33674983225, 0.0, 0.0, 0.0, 0.0, -70310.25085571418, 0.0]
['beep', 0.0, -74718.77482161223, 0.0, 0.0, 0.0, 0.0, -69791.22099771751, 0.0]
['beep', 0.0, -74397.26732936708, 0.0, 0.0, 0.0, 0.0, -69236.67421778134, 0.0]
['beep', 0.0, -74505.04744113058, 0.0, 0.0, 0.0, 0.0, -69401.98771977279, 0.0]
['beep', 0.0, -74890.50327426234, 0.0, 0.0, 0.0, 0.0, -70056.782073591, 0.0]
['beep', 0.0, -75015.89656065662, 0.0, 0.0, 0.0, 0.0, -70290.96130024926, 0.0]
['beep', 0.0, -74702.59215862658, 0.0, 0.0, 0.0, 0.0, -69774.9712794985, 0.0]
['beep', 0.0, -74381.06231463699, 0.0, 0.0, 0.0, 0.0, -69219.91040943985, 0.0]
['beep', 0.0, -74487.76954266662, 0.0, 0.0, 0.0, 0.0, -69382.89933000796, 0.0]
['beep', 0.0, -74874.36531476562, 0.0, 0.0, 0.0, 0.0, -70038.67716058221, 0.0]
['beep', 0.0, -75002.3514035167, 0.0, 0.0, 0.0, 0.0, -70276.65618379787, 0.0]
['beep', 0.0, -74688.42115264191, 0.0, 0.0, 0.0, 0.0, -69760.84497700274, 0.0]
['beep', 0.0, -74362.66682895027, 0.0, 0.0, 0.0, 0.0, -69200.91142665285, 0.0]
['beep', 0.0, -74465.50720518913, 0.0, 0.0, 0.0, 0.0, -69358.9159082074, 0.0]
['beep', 0.0, -74852.8182331107, 0.0, 0.0, 0.0, 0.0, -70015.4760498376, 0.0]
['beep', 0.0, -74983.44182770752, 0.0, 0.0, 0.0, 0.0, -70256.94194518829, 0.0]
['beep', 0.0, -74670.71857103331, 0.0, 0.0, 0.0, 0.0, -69743.18709888305, 0.0]
['beep', 0.0, -74344.4501572192, 0.0, 0.0, 0.0, 0.0, -69182.18066479929, 0.0]
['beep', 0.0, -74447.33523694698, 0.0, 0.0, 0.0, 0.0, -69339.08991087555, 0.0]
['beep', 0.0, -74833.72984334586, 0.0, 0.0, 0.0, 0.0, -69994.4207065607, 0.0]
['beep', 0.0, -74961.0900832522, 0.0, 0.0, 0.0, 0.0, -70233.74083444367, 0.0]
['beep', 0.0, -74649.10443414503, 0.0, 0.0, 0.0, 0.0, -69721.52825850586, 0.0]
['beep', 0.0, -74324.6912151207, 0.0, 0.0, 0.0, 0.0, -69161.9299843228, 0.0]
['beep', 0.0, -74427.53159135957, 0.0, 0.0, 0.0, 0.0, -69317.47577398727, 0.0]
['beep', 0.0, -74813.23329368034, 0.0, 0.0, 0.0, 0.0, -69971.82309291638, 0.0]
['beep', 0.0, -74945.66737957805, 0.0, 0.0, 0.0, 0.0, -70217.49111622467, 0.0]
['beep', 0.0, -74635.58162874957, 0.0, 0.0, 0.0, 0.0, -69708.09486008821, 0.0]
['beep', 0.0, -74310.43080215821, 0.0, 0.0, 0.0, 0.0, -69147.22253647119, 0.0]
['beep', 0.0, -74410.49956208463, 0.0, 0.0, 0.0, 0.0, -69298.76736387819, 0.0]
['beep', 0.0, -74797.07298243916, 0.0, 0.0, 0.0, 0.0, -69953.71817990759, 0.0]
['beep', 0.0, -74933.0386439608, 0.0, 0.0, 0.0, 0.0, -70203.90125559583, 0.0]
['beep', 0.0, -74624.18223907736, 0.0, 0.0, 0.0, 0.0, -69696.85193262719, 0.0]
['beep', 0.0, -74294.47165661713, 0.0, 0.0, 0.0, 0.0, -69130.86105952991, 0.0]
['beep', 0.0, -74393.62399502087, 0.0, 0.0, 0.0, 0.0, -69280.17071249137, 0.0]
['beep', 0.0, -74779.25864210828, 0.0, 0.0, 0.0, 0.0, -69933.95923780909, 0.0]
['beep', 0.0, -74912.34092859518, 0.0, 0.0, 0.0, 0.0, -70182.48828440765, 0.0]
['beep', 0.0, -74605.45147722382, 0.0, 0.0, 0.0, 0.0, -69678.21057775147, 0.0]
['beep', 0.0, -74277.283165131, 0.0, 0.0, 0.0, 0.0, -69113.06907094349, 0.0]
['beep', 0.0, -74376.01082039009, 0.0, 0.0, 0.0, 0.0, -69260.92586051534, 0.0]
['beep', 0.0, -74764.21591808986, 0.0, 0.0, 0.0, 0.0, -69917.28483644544, 0.0]
['beep', 0.0, -74900.56155926724, 0.0, 0.0, 0.0, 0.0, -70170.08306623496, 0.0]
['beep', 0.0, -74594.63323290745, 0.0, 0.0, 0.0, 0.0, -69667.61585087965, 0.0]
['beep', 0.0, -74265.32498184741, 0.0, 0.0, 0.0, 0.0, -69100.99912893762, 0.0]
['beep', 0.0, -74360.99044811612, 0.0, 0.0, 0.0, 0.0, -69244.40792136287, 0.0]
['beep', 0.0, -74743.22763004633, 0.0, 0.0, 0.0, 0.0, -69894.32959488983, 0.0]
['beep', 0.0, -74880.60145146864, 0.0, 0.0, 0.0, 0.0, -70149.47475784717, 0.0]
['beep', 0.0, -74574.62842161994, 0.0, 0.0, 0.0, 0.0, -69647.72279831443, 0.0]
['beep', 0.0, -74244.4261007817, 0.0, 0.0, 0.0, 0.0, -69079.60850949389, 0.0]
['beep', 0.0, -74337.56581992697, 0.0, 0.0, 0.0, 0.0, -69219.26220885065, 0.0]
['beep', 0.0, -74722.37345246953, 0.0, 0.0, 0.0, 0.0, -69871.6425742677, 0.0]
['beep', 0.0, -74863.85999487161, 0.0, 0.0, 0.0, 0.0, -70131.99569368311, 0.0]
['beep', 0.0, -74560.92680226885, 0.0, 0.0, 0.0, 0.0, -69634.26704815234, 0.0]
['beep', 0.0, -74227.97521686259, 0.0, 0.0, 0.0, 0.0, -69062.77764591905, 0.0]
['beep', 0.0, -74318.9468167957, 0.0, 0.0, 0.0, 0.0, -69198.96682488524, 0.0]
['beep', 0.0, -74704.29089120518, 0.0, 0.0, 0.0, 0.0, -69851.61541123575, 0.0]
['beep', 0.0, -74846.98442780787, 0.0, 0.0, 0.0, 0.0, -70114.27076033005, 0.0]
['beep', 0.0, -74544.43121486083, 0.0, 0.0, 0.0, 0.0, -69617.95027469996, 0.0]
['beep', 0.0, -74211.39022247675, 0.0, 0.0, 0.0, 0.0, -69045.96913408865, 0.0]
['beep', 0.0, -74298.94200550819, 0.0, 0.0, 0.0, 0.0, -69177.44209497477, 0.0]
['beep', 0.0, -74683.41436188393, 0.0, 0.0, 0.0, 0.0, -69829.06250108033, 0.0]
['beep', 0.0, -74830.69000609995, 0.0, 0.0, 0.0, 0.0, -70097.46224849967, 0.0]
['beep', 0.0, -74529.20967688676, 0.0, 0.0, 0.0, 0.0, -69602.99695765936, 0.0]
['beep', 0.0, -74195.72164961358, 0.0, 0.0, 0.0, 0.0, -69029.60765714737, 0.0]
['beep', 0.0, -74283.5863570674, 0.0, 0.0, 0.0, 0.0, -69160.34301046646, 0.0]
['beep', 0.0, -74666.13646341997, 0.0, 0.0, 0.0, 0.0, -69810.06351829333, 0.0]
['beep', 0.0, -74810.77460179027, 0.0, 0.0, 0.0, 0.0, -70076.83158836742, 0.0]
['beep', 0.0, -74512.82584820103, 0.0, 0.0, 0.0, 0.0, -69586.76959118481, 0.0]
['beep', 0.0, -74179.20371046111, 0.0, 0.0, 0.0, 0.0, -69012.79914531698, 0.0]
['beep', 0.0, -74265.48144405859, 0.0, 0.0, 0.0, 0.0, -69140.53936487906, 0.0]
['beep', 0.0, -74650.37848357898, 0.0, 0.0, 0.0, 0.0, -69792.51739889591, 0.0]
['beep', 0.0, -74796.11185742759, 0.0, 0.0, 0.0, 0.0, -70061.63240213781, 0.0]
['beep', 0.0, -74497.11257184895, 0.0, 0.0, 0.0, 0.0, -69571.39159099956, 0.0]
['beep', 0.0, -74158.79656777342, 0.0, 0.0, 0.0, 0.0, -68992.05672646246, 0.0]
['beep', 0.0, -74241.9227054027, 0.0, 0.0, 0.0, 0.0, -69115.52776283358, 0.0]
['beep', 0.0, -74627.78086993466, 0.0, 0.0, 0.0, 0.0, -69768.28810790637, 0.0]
['beep', 0.0, -74777.78342697423, 0.0, 0.0, 0.0, 0.0, -70042.72282632862, 0.0]
['beep', 0.0, -74479.36528675143, 0.0, 0.0, 0.0, 0.0, -69553.91252683551, 0.0]
['beep', 0.0, -74142.43509083214, 0.0, 0.0, 0.0, 0.0, -68975.29291812098, 0.0]
['beep', 0.0, -74225.42711799468, 0.0, 0.0, 0.0, 0.0, -69097.42284982477, 0.0]
['beep', 0.0, -74609.56419820359, 0.0, 0.0, 0.0, 0.0, -69748.14918615212, 0.0]
['beep', 0.0, -74761.37724654404, 0.0, 0.0, 0.0, 0.0, -70025.73550054259, 0.0]
['beep', 0.0, -74465.84248135597, 0.0, 0.0, 0.0, 0.0, -69540.74734935134, 0.0]
['beep', 0.0, -74127.63823600272, 0.0, 0.0, 0.0, 0.0, -68960.29489759146, 0.0]
['beep', 0.0, -74206.02580380748, 0.0, 0.0, 0.0, 0.0, -69076.30045131451, 0.0]
['beep', 0.0, -74591.54869217261, 0.0, 0.0, 0.0, 0.0, -69728.36789230918, 0.0]
['beep', 0.0, -74744.99341785829, 0.0, 0.0, 0.0, 0.0, -70008.770526501, 0.0]
['beep', 0.0, -74448.98926603666, 0.0, 0.0, 0.0, 0.0, -69524.02824449877, 0.0]
['beep', 0.0, -74108.77336368244, 0.0, 0.0, 0.0, 0.0, -68940.84887991534, 0.0]
['beep', 0.0, -74188.56909138788, 0.0, 0.0, 0.0, 0.0, -69057.1003028274, 0.0]
['beep', 0.0, -74573.66729660837, 0.0, 0.0, 0.0, 0.0, -69708.74306067741, 0.0]
['beep', 0.0, -74725.54740018219, 0.0, 0.0, 0.0, 0.0, -69988.67630823569, 0.0]
['beep', 0.0, -74430.28085592757, 0.0, 0.0, 0.0, 0.0, -69505.56570357869, 0.0]
['beep', 0.0, -74090.48963671799, 0.0, 0.0, 0.0, 0.0, -68922.18517329516, 0.0]
['beep', 0.0, -74169.65951557869, 0.0, 0.0, 0.0, 0.0, -69036.62610490633, 0.0]
['beep', 0.0, -74555.31651441056, 0.0, 0.0, 0.0, 0.0, -69688.47002845646, 0.0]
['beep', 0.0, -74711.28698721969, 0.0, 0.0, 0.0, 0.0, -69973.58888072835, 0.0]
['beep', 0.0, -74416.82510576549, 0.0, 0.0, 0.0, 0.0, -69492.37817435004, 0.0]
['beep', 0.0, -74075.9386510776, 0.0, 0.0, 0.0, 0.0, -68907.32126323238, 0.0]
['beep', 0.0, -74151.66636129217, 0.0, 0.0, 0.0, 0.0, -69016.86716280784, 0.0]
['beep', 0.0, -74534.68585427832, 0.0, 0.0, 0.0, 0.0, -69666.07358051224, 0.0]
['beep', 0.0, -74691.41628639893, 0.0, 0.0, 0.0, 0.0, -69953.18173804066, 0.0]
['beep', 0.0, -74399.94953870172, 0.0, 0.0, 0.0, 0.0, -69475.81553170866, 0.0]
['beep', 0.0, -74057.94549679107, 0.0, 0.0, 0.0, 0.0, -68889.03753626795, 0.0]
['beep', 0.0, -74131.12510813774, 0.0, 0.0, 0.0, 0.0, -68994.71658405264, 0.0]
['beep', 0.0, -74517.69852849228, 0.0, 0.0, 0.0, 0.0, -69647.09694946969, 0.0]
['beep', 0.0, -74677.75937053673, 0.0, 0.0, 0.0, 0.0, -69938.85426984481, 0.0]
['beep', 0.0, -74386.18086411725, 0.0, 0.0, 0.0, 0.0, -69462.31507805765, 0.0]
['beep', 0.0, -74043.26040068394, 0.0, 0.0, 0.0, 0.0, -68873.92775701616, 0.0]
['beep', 0.0, -74114.51776200745, 0.0, 0.0, 0.0, 0.0, -68976.52226406602, 0.0]
['beep', 0.0, -74498.74424919418, 0.0, 0.0, 0.0, 0.0, -69626.39923410407, 0.0]
['beep', 0.0, -74658.15689064944, 0.0, 0.0, 0.0, 0.0, -69918.73769983504, 0.0]
['beep', 0.0, -74368.74650344212, 0.0, 0.0, 0.0, 0.0, -69445.10423482707, 0.0]
['beep', 0.0, -74026.56364757582, 0.0, 0.0, 0.0, 0.0, -68856.73926553002, 0.0]
['beep', 0.0, -74095.09409607579, 0.0, 0.0, 0.0, 0.0, -68955.39986555575, 0.0]
['beep', 0.0, -74478.15829255084, 0.0, 0.0, 0.0, 0.0, -69603.89102743758, 0.0]
['beep', 0.0, -74641.25897184122, 0.0, 0.0, 0.0, 0.0, -69900.85630427078, 0.0]
['beep', 0.0, -74354.17316605726, 0.0, 0.0, 0.0, 0.0, -69430.57560093113, 0.0]
['beep', 0.0, -74011.45386832402, 0.0, 0.0, 0.0, 0.0, -68841.31656185587, 0.0]
['beep', 0.0, -74076.76566562244, 0.0, 0.0, 0.0, 0.0, -68935.46210950162, 0.0]
['beep', 0.0, -74457.3264667185, 0.0, 0.0, 0.0, 0.0, -69581.18165507098, 0.0]
['beep', 0.0, -74622.0141198652, 0.0, 0.0, 0.0, 0.0, -69881.1420656612, 0.0]
['beep', 0.0, -74335.12947978133, 0.0, 0.0, 0.0, 0.0, -69412.04600477767, 0.0]
['beep', 0.0, -73991.963147159, 0.0, 0.0, 0.0, 0.0, -68821.62467499074, 0.0]
['beep', 0.0, -74057.40905492414, 0.0, 0.0, 0.0, 0.0, -68914.49617320254, 0.0]
['beep', 0.0, -74440.00386476563, 0.0, 0.0, 0.0, 0.0, -69562.24972751734, 0.0]
['beep', 0.0, -74606.23378827976, 0.0, 0.0, 0.0, 0.0, -69864.73588523101, 0.0]
['beep', 0.0, -74322.25487497507, 0.0, 0.0, 0.0, 0.0, -69399.35021392706, 0.0]
['beep', 0.0, -73974.99817311742, 0.0, 0.0, 0.0, 0.0, -68804.39148001569, 0.0]
['beep', 0.0, -74039.01356923743, 0.0, 0.0, 0.0, 0.0, -68894.53606540395, 0.0]
['beep', 0.0, -74422.1671726903, 0.0, 0.0, 0.0, 0.0, -69542.4684336744, 0.0]
['beep', 0.0, -74590.36404971649, 0.0, 0.0, 0.0, 0.0, -69848.17324258963, 0.0]
['beep', 0.0, -74303.70292707717, 0.0, 0.0, 0.0, 0.0, -69381.06648696262, 0.0]
['beep', 0.0, -73953.02640831786, 0.0, 0.0, 0.0, 0.0, -68782.10679079375, 0.0]
['beep', 0.0, -74017.04180443786, 0.0, 0.0, 0.0, 0.0, -68871.22319593707, 0.0]
['beep', 0.0, -74398.36256484539, 0.0, 0.0, 0.0, 0.0, -69517.0097967398, 0.0]
['beep', 0.0, -74568.28052619463, 0.0, 0.0, 0.0, 0.0, -69825.35211150076, 0.0]
['beep', 0.0, -74286.2909181465, 0.0, 0.0, 0.0, 0.0, -69363.85564373204, 0.0]
['beep', 0.0, -73938.6542366331, 0.0, 0.0, 0.0, 0.0, -68767.35463945326, 0.0]
['beep', 0.0, -73998.40044956213, 0.0, 0.0, 0.0, 0.0, -68850.99486720501, 0.0]
['beep', 0.0, -74382.17990185975, 0.0, 0.0, 0.0, 0.0, -69499.12840117555, 0.0]
['beep', 0.0, -74553.77424404315, 0.0, 0.0, 0.0, 0.0, -69810.28703573789, 0.0]
['beep', 0.0, -74270.73410400559, 0.0, 0.0, 0.0, 0.0, -69348.79056796916, 0.0]
['beep', 0.0, -73920.37050966866, 0.0, 0.0, 0.0, 0.0, -68748.981505511, 0.0]
['beep', 0.0, -73979.46852200848, 0.0, 0.0, 0.0, 0.0, -68830.45361405058, 0.0]
['beep', 0.0, -74362.48801499463, 0.0, 0.0, 0.0, 0.0, -69477.6036712651, 0.0]
['beep', 0.0, -74535.28935137861, 0.0, 0.0, 0.0, 0.0, -69790.99748027296, 0.0]
['beep', 0.0, -74254.0820543864, 0.0, 0.0, 0.0, 0.0, -69332.1161666055, 0.0]
['beep', 0.0, -73902.06443095976, 0.0, 0.0, 0.0, 0.0, -68730.20604016853, 0.0]
['beep', 0.0, -73958.23436477594, 0.0, 0.0, 0.0, 0.0, -68807.45366900608, 0.0]
['beep', 0.0, -74343.71254965218, 0.0, 0.0, 0.0, 0.0, -69456.74949368829, 0.0]
['beep', 0.0, -74519.84429595999, 0.0, 0.0, 0.0, 0.0, -69774.88187252068, 0.0]
['beep', 0.0, -74241.58742923588, 0.0, 0.0, 0.0, 0.0, -69320.09092808854, 0.0]
['beep', 0.0, -73890.15095116508, 0.0, 0.0, 0.0, 0.0, -68718.2255051405, 0.0]
['beep', 0.0, -73943.19164075752, 0.0, 0.0, 0.0, 0.0, -68791.0921920648, 0.0]
['beep', 0.0, -74321.33845345241, 0.0, 0.0, 0.0, 0.0, -69432.69901665438, 0.0]
['beep', 0.0, -74498.20780732726, 0.0, 0.0, 0.0, 0.0, -69752.59718329873, 0.0]
['beep', 0.0, -74221.78378364847, 0.0, 0.0, 0.0, 0.0, -69300.44374471232, 0.0]
['beep', 0.0, -73870.77198872232, 0.0, 0.0, 0.0, 0.0, -68698.51126653091, 0.0]
['beep', 0.0, -73921.89042829162, 0.0, 0.0, 0.0, 0.0, -68768.31576446483, 0.0]
['beep', 0.0, -74301.13247646482, 0.0, 0.0, 0.0, 0.0, -69410.95076929936, 0.0]
['beep', 0.0, -74479.63350768489, 0.0, 0.0, 0.0, 0.0, -69733.5087935339, 0.0]
['beep', 0.0, -74205.39995496273, 0.0, 0.0, 0.0, 0.0, -69284.39519219342, 0.0]
['beep', 0.0, -73853.80701468074, 0.0, 0.0, 0.0, 0.0, -68681.2110163225, 0.0]
['beep', 0.0, -73902.80203852679, 0.0, 0.0, 0.0, 0.0, -68747.5286421214, 0.0]
['beep', 0.0, -74283.87692974531, 0.0, 0.0, 0.0, 0.0, -69391.84002779008, 0.0]
['beep', 0.0, -74464.16610052182, 0.0, 0.0, 0.0, 0.0, -69717.37083403717, 0.0]
['beep', 0.0, -74190.33487919986, 0.0, 0.0, 0.0, 0.0, -69269.71009608627, 0.0]
['beep', 0.0, -73838.96545636242, 0.0, 0.0, 0.0, 0.0, -68666.28005102636, 0.0]
['beep', 0.0, -73889.03336394232, 0.0, 0.0, 0.0, 0.0, -68732.41886286961, 0.0]
['beep', 0.0, -74267.58250803739, 0.0, 0.0, 0.0, 0.0, -69373.75746652573, 0.0]
['beep', 0.0, -74447.93873404726, 0.0, 0.0, 0.0, 0.0, -69700.6517291846, 0.0]
['beep', 0.0, -74174.28632668094, 0.0, 0.0, 0.0, 0.0, -69254.28739241212, 0.0]
['beep', 0.0, -73821.44168870947, 0.0, 0.0, 0.0, 0.0, -68648.5551176733, 0.0]
['beep', 0.0, -73868.44740729898, 0.0, 0.0, 0.0, 0.0, -68710.2682841144, 0.0]
['beep', 0.0, -74247.86826942781, 0.0, 0.0, 0.0, 0.0, -69352.18803312637, 0.0]
['beep', 0.0, -74431.44314663926, 0.0, 0.0, 0.0, 0.0, -69683.37383072065, 0.0]
['beep', 0.0, -74159.19889917361, 0.0, 0.0, 0.0, 0.0, -69239.2446683937, 0.0]
['beep', 0.0, -73804.18614198997, 0.0, 0.0, 0.0, 0.0, -68630.96429478697, 0.0]
['beep', 0.0, -73849.87310765662, 0.0, 0.0, 0.0, 0.0, -68690.0176036379, 0.0]
['beep', 0.0, -74228.73517617407, 0.0, 0.0, 0.0, 0.0, -69331.28915206065, 0.0]
['beep', 0.0, -74412.55592257451, 0.0, 0.0, 0.0, 0.0, -69663.81605432225, 0.0]
['beep', 0.0, -74138.65764601919, 0.0, 0.0, 0.0, 0.0, -69219.0386914061, 0.0]
['beep', 0.0, -73781.20854868992, 0.0, 0.0, 0.0, 0.0, -68607.67377706454, 0.0]
['beep', 0.0, -73826.64964516755, 0.0, 0.0, 0.0, 0.0, -68665.25187078142, 0.0]
['beep', 0.0, -74209.5126759425, 0.0, 0.0, 0.0, 0.0, -69310.25616052821, 0.0]
['beep', 0.0, -74395.47918981066, 0.0, 0.0, 0.0, 0.0, -69646.06876922474, 0.0]
['beep', 0.0, -74124.66545399016, 0.0, 0.0, 0.0, 0.0, -69205.18060984381, 0.0]
['beep', 0.0, -73770.05502820671, 0.0, 0.0, 0.0, 0.0, -68596.25203564788, 0.0]
['beep', 0.0, -73812.29982522725, 0.0, 0.0, 0.0, 0.0, -68649.29272524032, 0.0]
['beep', 0.0, -74188.12205649877, 0.0, 0.0, 0.0, 0.0, -69286.87623582795, 0.0]
['beep', 0.0, -74375.18380584524, 0.0, 0.0, 0.0, 0.0, -69624.94637071448, 0.0]
['beep', 0.0, -74106.739354937, 0.0, 0.0, 0.0, 0.0, -69187.70154567975, 0.0]
['beep', 0.0, -73749.55847854119, 0.0, 0.0, 0.0, 0.0, -68575.64372726009, 0.0]
['beep', 0.0, -73787.98112725987, 0.0, 0.0, 0.0, 0.0, -68623.25294294988, 0.0]
['beep', 0.0, -74167.26787892198, 0.0, 0.0, 0.0, 0.0, -69264.01040125018, 0.0]
['beep', 0.0, -74357.41416900327, 0.0, 0.0, 0.0, 0.0, -69606.34971932766, 0.0]
['beep', 0.0, -74091.56252045186, 0.0, 0.0, 0.0, 0.0, -69172.56941468352, 0.0]
['beep', 0.0, -73732.61585624407, 0.0, 0.0, 0.0, 0.0, -68558.32112530722, 0.0]
['beep', 0.0, -73769.85386250661, 0.0, 0.0, 0.0, 0.0, -68603.5387043403, 0.0]
['beep', 0.0, -74147.64304729021, 0.0, 0.0, 0.0, 0.0, -69242.3962643619, 0.0]
['beep', 0.0, -74340.47154670615, 0.0, 0.0, 0.0, 0.0, -69588.49067550787, 0.0]
['beep', 0.0, -74075.26809874394, 0.0, 0.0, 0.0, 0.0, -69156.45380693124, 0.0]
['beep', 0.0, -73713.79568741271, 0.0, 0.0, 0.0, 0.0, -68539.14332856456, 0.0]
['beep', 0.0, -73749.55847854119, 0.0, 0.0, 0.0, 0.0, -68581.45518081846, 0.0]
['beep', 0.0, -74129.06874764786, 0.0, 0.0, 0.0, 0.0, -69221.76560422964, 0.0]
['beep', 0.0, -74321.56197089696, 0.0, 0.0, 0.0, 0.0, -69568.73173340938, 0.0]
['beep', 0.0, -74054.59273512277, 0.0, 0.0, 0.0, 0.0, -69135.91255377681, 0.0]
['beep', 0.0, -73696.13780929301, 0.0, 0.0, 0.0, 0.0, -68521.06076730022, 0.0]
['beep', 0.0, -73732.2582283328, 0.0, 0.0, 0.0, 0.0, -68562.59030849818, 0.0]
['beep', 0.0, -74110.8967794057, 0.0, 0.0, 0.0, 0.0, -69201.71608945324, 0.0]
['beep', 0.0, -74309.22380795763, 0.0, 0.0, 0.0, 0.0, -69555.72301813638, 0.0]
['beep', 0.0, -74046.4343483966, 0.0, 0.0, 0.0, 0.0, -69128.08944321745, 0.0]
['beep', 0.0, -73686.28068998823, 0.0, 0.0, 0.0, 0.0, -68510.98013055089, 0.0]
['beep', 0.0, -73718.78012642624, 0.0, 0.0, 0.0, 0.0, -68547.54758447976, 0.0]
['beep', 0.0, -74095.38466875372, 0.0, 0.0, 0.0, 0.0, -69184.326432267, 0.0]
['beep', 0.0, -74288.6825548032, 0.0, 0.0, 0.0, 0.0, -69534.13123299256, 0.0]
['beep', 0.0, -74027.39066212067, 0.0, 0.0, 0.0, 0.0, -69109.06810868598, 0.0]
['beep', 0.0, -73667.21465196785, 0.0, 0.0, 0.0, 0.0, -68491.57881636368, 0.0]
['beep', 0.0, -73696.13780929301, 0.0, 0.0, 0.0, 0.0, -68523.18418302348, 0.0]
['beep', 0.0, -74071.9376888201, 0.0, 0.0, 0.0, 0.0, -69158.68898137676, 0.0]
['beep', 0.0, -74272.25402262855, 0.0, 0.0, 0.0, 0.0, -69516.87568627307, 0.0]
['beep', 0.0, -74014.09137416976, 0.0, 0.0, 0.0, 0.0, -69096.0146899241, 0.0]
['beep', 0.0, -73651.61313433804, 0.0, 0.0, 0.0, 0.0, -68475.61967082259, 0.0]
['beep', 0.0, -73681.11743701904, 0.0, 0.0, 0.0, 0.0, -68506.55448514874, 0.0]
['beep', 0.0, -74056.11265374573, 0.0, 0.0, 0.0, 0.0, -69140.96404802371, 0.0]
['beep', 0.0, -74254.88671718678, 0.0, 0.0, 0.0, 0.0, -69498.59195930863, 0.0]
['beep', 0.0, -73999.49568504044, 0.0, 0.0, 0.0, 0.0, -69081.62016649487, 0.0]
['beep', 0.0, -73636.57041031962, 0.0, 0.0, 0.0, 0.0, -68460.35342935962, 0.0]
['beep', 0.0, -73662.8337100546, 0.0, 0.0, 0.0, 0.0, -68486.63908083906, 0.0]
['beep', 0.0, -74037.85127852575, 0.0, 0.0, 0.0, 0.0, -69120.69101580275, 0.0]
['beep', 0.0, -74239.66517921272, 0.0, 0.0, 0.0, 0.0, -69482.29753760071, 0.0]
['beep', 0.0, -73981.92721389857, 0.0, 0.0, 0.0, 0.0, -69064.11875058636, 0.0]
['beep', 0.0, -73618.01846242172, 0.0, 0.0, 0.0, 0.0, -68441.42150180596, 0.0]
['beep', 0.0, -73642.00188422226, 0.0, 0.0, 0.0, 0.0, -68463.97441196138, 0.0]
['beep', 0.0, -74016.93004571558, 0.0, 0.0, 0.0, 0.0, -69097.53460854705, 0.0]
['beep', 0.0, -74220.0179958365, 0.0, 0.0, 0.0, 0.0, -69461.66687746845, 0.0]
['beep', 0.0, -73962.12356831117, 0.0, 0.0, 0.0, 0.0, -69044.15864278778, 0.0]
['beep', 0.0, -73597.90189241194, 0.0, 0.0, 0.0, 0.0, -68420.74613818481, 0.0]
['beep', 0.0, -73621.43827932338, 0.0, 0.0, 0.0, 0.0, -68441.68972273944, 0.0]
['beep', 0.0, -73997.215807106, 0.0, 0.0, 0.0, 0.0, -69075.76400944758, 0.0]
['beep', 0.0, -74202.9636148171, 0.0, 0.0, 0.0, 0.0, -69443.71842667085, 0.0]
['beep', 0.0, -73949.42777746056, 0.0, 0.0, 0.0, 0.0, -69031.5969624039, 0.0]
['beep', 0.0, -73585.38491551697, 0.0, 0.0, 0.0, 0.0, -68407.82682988964, 0.0]
['beep', 0.0, -73605.99322390476, 0.0, 0.0, 0.0, 0.0, -68424.47887950884, 0.0]
['beep', 0.0, -73978.77561793037, 0.0, 0.0, 0.0, 0.0, -69055.2004045487, 0.0]
['beep', 0.0, -74184.59048087485, 0.0, 0.0, 0.0, 0.0, -69424.27240899473, 0.0]
['beep', 0.0, -73933.51333540838, 0.0, 0.0, 0.0, 0.0, -69015.70487209618, 0.0]
['beep', 0.0, -73567.10118855252, 0.0, 0.0, 0.0, 0.0, -68389.27488199173, 0.0]
['beep', 0.0, -73586.01076436172, 0.0, 0.0, 0.0, 0.0, -68402.90944610948, 0.0]
['beep', 0.0, -73958.30142000932, 0.0, 0.0, 0.0, 0.0, -69032.53573567102, 0.0]
['beep', 0.0, -74167.33493415534, 0.0, 0.0, 0.0, 0.0, -69405.8322198191, 0.0]
['beep', 0.0, -73918.04592824531, 0.0, 0.0, 0.0, 0.0, -69000.21511318865, 0.0]
['beep', 0.0, -73551.90200232292, 0.0, 0.0, 0.0, 0.0, -68373.69571610639, 0.0]
['beep', 0.0, -73566.87767110797, 0.0, 0.0, 0.0, 0.0, -68382.05526853267, 0.0]
['beep', 0.0, -73941.62701864565, 0.0, 0.0, 0.0, 0.0, -69013.82732556193, 0.0]
['beep', 0.0, -74150.77229151396, 0.0, 0.0, 0.0, 0.0, -69388.33080391059, 0.0]
['beep', 0.0, -73903.941977494, 0.0, 0.0, 0.0, 0.0, -68986.3346798819, 0.0]
['beep', 0.0, -73536.18872597083, 0.0, 0.0, 0.0, 0.0, -68357.80362579867, 0.0]
['beep', 0.0, -73550.18091799985, 0.0, 0.0, 0.0, 0.0, -68363.86094854605, 0.0]
['beep', 0.0, -73924.61734111517, 0.0, 0.0, 0.0, 0.0, -68994.96245324165, 0.0]
['beep', 0.0, -74134.83549771733, 0.0, 0.0, 0.0, 0.0, -69371.56699556911, 0.0]
['beep', 0.0, -73887.06641043024, 0.0, 0.0, 0.0, 0.0, -68969.48146456259, 0.0]
['beep', 0.0, -73520.60956008549, 0.0, 0.0, 0.0, 0.0, -68341.55390757966, 0.0]
['beep', 0.0, -73534.24412420322, 0.0, 0.0, 0.0, 0.0, -68346.09131170408, 0.0]
['beep', 0.0, -73905.90893100607, 0.0, 0.0, 0.0, 0.0, -68974.10827566484, 0.0]
['beep', 0.0, -74116.21649458606, 0.0, 0.0, 0.0, 0.0, -69351.96451568182, 0.0]
['beep', 0.0, -73870.39200906659, 0.0, 0.0, 0.0, 0.0, -68952.96352541013, 0.0]
['beep', 0.0, -73503.66693778837, 0.0, 0.0, 0.0, 0.0, -68324.4771748158, 0.0]
['beep', 0.0, -73517.01092922818, 0.0, 0.0, 0.0, 0.0, -68327.11468066153, 0.0]
['beep', 0.0, -73889.1898261535, 0.0, 0.0, 0.0, 0.0, -68955.26575508901, 0.0]
['beep', 0.0, -74102.58193046832, 0.0, 0.0, 0.0, 0.0, -69337.30177131912, 0.0]
['beep', 0.0, -73858.25501182735, 0.0, 0.0, 0.0, 0.0, -68941.00534212653, 0.0]
['beep', 0.0, -73487.95366143629, 0.0, 0.0, 0.0, 0.0, -68308.38391880797, 0.0]
['beep', 0.0, -73494.79329523961, 0.0, 0.0, 0.0, 0.0, -68303.2206658388, 0.0]
['beep', 0.0, -73866.01106715335, 0.0, 0.0, 0.0, 0.0, -68929.8741733878, 0.0]
['beep', 0.0, -74079.35846797925, 0.0, 0.0, 0.0, 0.0, -69312.9607216073, 0.0]
['beep', 0.0, -73839.21132555144, 0.0, 0.0, 0.0, 0.0, -68921.9169523617, 0.0]
['beep', 0.0, -73471.70394321728, 0.0, 0.0, 0.0, 0.0, -68291.8212761666, 0.0]
['beep', 0.0, -73480.10819913248, 0.0, 0.0, 0.0, 0.0, -68286.94859587534, 0.0]
['beep', 0.0, -73850.92363964602, 0.0, 0.0, 0.0, 0.0, -68912.68568190165, 0.0]
['beep', 0.0, -74064.94159280558, 0.0, 0.0, 0.0, 0.0, -69297.4039074664, 0.0]
['beep', 0.0, -73825.26383701133, 0.0, 0.0, 0.0, 0.0, -68907.83535335487, 0.0]
['beep', 0.0, -73455.52128023164, 0.0, 0.0, 0.0, 0.0, -68275.19157829185, 0.0]
['beep', 0.0, -73458.56111747755, 0.0, 0.0, 0.0, 0.0, -68263.54631943064, 0.0]
['beep', 0.0, -73828.1248603016, 0.0, 0.0, 0.0, 0.0, -68887.67407985617, 0.0]
['beep', 0.0, -74046.45670014105, 0.0, 0.0, 0.0, 0.0, -69277.86848281247, 0.0]
['beep', 0.0, -73808.85765658112, 0.0, 0.0, 0.0, 0.0, -68891.51857990249, 0.0]
['beep', 0.0, -73439.36096899044, 0.0, 0.0, 0.0, 0.0, -68258.53952867264, 0.0]
['beep', 0.0, -73441.32792250252, 0.0, 0.0, 0.0, 0.0, -68244.48028141026, 0.0]
['beep', 0.0, -73809.66231938152, 0.0, 0.0, 0.0, 0.0, -68866.99871623502, 0.0]
['beep', 0.0, -74030.3187406443, 0.0, 0.0, 0.0, 0.0, -69260.65763958188, 0.0]
['beep', 0.0, -73795.62542386359, 0.0, 0.0, 0.0, 0.0, -68878.39810590722, 0.0]
['beep', 0.0, -73425.59229440597, 0.0, 0.0, 0.0, 0.0, -68244.48028141026, 0.0]
['beep', 0.0, -73427.51454442913, 0.0, 0.0, 0.0, 0.0, -68229.01287424719, 0.0]
['beep', 0.0, -73796.69830759744, 0.0, 0.0, 0.0, 0.0, -68852.02304744995, 0.0]
['beep', 0.0, -74016.84063873776, 0.0, 0.0, 0.0, 0.0, -69246.24076440821, 0.0]
['beep', 0.0, -73778.54869109973, 0.0, 0.0, 0.0, 0.0, -68861.36607663227, 0.0]
['beep', 0.0, -73406.68271859678, 0.0, 0.0, 0.0, 0.0, -68225.12367071195, 0.0]
['beep', 0.0, -73406.97329127471, 0.0, 0.0, 0.0, 0.0, -68206.68348153633, 0.0]
['beep', 0.0, -73776.42527537647, 0.0, 0.0, 0.0, 0.0, -68829.6489512502, 0.0]
['beep', 0.0, -74000.5685687743, 0.0, 0.0, 0.0, 0.0, -69229.02992117761, 0.0]
['beep', 0.0, -73761.31549612469, 0.0, 0.0, 0.0, 0.0, -68844.46815782406, 0.0]
['beep', 0.0, -73389.80715153304, 0.0, 0.0, 0.0, 0.0, -68208.13634492592, 0.0]
['beep', 0.0, -73388.51075035462, 0.0, 0.0, 0.0, 0.0, -68186.56691152655, 0.0]
['beep', 0.0, -73756.26400187779, 0.0, 0.0, 0.0, 0.0, -68807.36426202825, 0.0]
['beep', 0.0, -73983.84946392172, 0.0, 0.0, 0.0, 0.0, -69211.14852561337, 0.0]
['beep', 0.0, -73752.68772276494, 0.0, 0.0, 0.0, 0.0, -68835.77332923094, 0.0]
['beep', 0.0, -73377.9160234828, 0.0, 0.0, 0.0, 0.0, -68195.88758896441, 0.0]
['beep', 0.0, -73371.83634899097, 0.0, 0.0, 0.0, 0.0, -68168.26083281766, 0.0]
['beep', 0.0, -73737.5555917687, 0.0, 0.0, 0.0, 0.0, -68786.44302921809, 0.0]
['beep', 0.0, -73962.54825145582, 0.0, 0.0, 0.0, 0.0, -69189.02029860263, 0.0]
['beep', 0.0, -73732.57115275516, 0.0, 0.0, 0.0, 0.0, -68815.81322143236, 0.0]
['beep', 0.0, -73360.97340118568, 0.0, 0.0, 0.0, 0.0, -68178.60969050047, 0.0]
['beep', 0.0, -73351.87624119238, 0.0, 0.0, 0.0, 0.0, -68146.71375116274, 0.0]
['beep', 0.0, -73718.44485025942, 0.0, 0.0, 0.0, 0.0, -68765.20887198554, 0.0]
['beep', 0.0, -73948.98074257145, 0.0, 0.0, 0.0, 0.0, -69174.1787402843, 0.0]
['beep', 0.0, -73716.99198686982, 0.0, 0.0, 0.0, 0.0, -68800.14464856918, 0.0]
['beep', 0.0, -73342.7567294546, 0.0, 0.0, 0.0, 0.0, -68159.9906873692, 0.0]
['beep', 0.0, -73335.40300552882, 0.0, 0.0, 0.0, 0.0, -68128.36296896494, 0.0]
['beep', 0.0, -73701.65869017347, 0.0, 0.0, 0.0, 0.0, -68746.23224094299, 0.0]
['beep', 0.0, -73930.2499807179, 0.0, 0.0, 0.0, 0.0, -69154.4197981858, 0.0]
['beep', 0.0, -73701.05519307317, 0.0, 0.0, 0.0, 0.0, -68784.31961349484, 0.0]
['beep', 0.0, -73324.92003737927, 0.0, 0.0, 0.0, 0.0, -68141.90812610486, 0.0]
['beep', 0.0, -73315.3087872635, 0.0, 0.0, 0.0, 0.0, -68106.59236986547, 0.0]
['beep', 0.0, -73682.65970738647, 0.0, 0.0, 0.0, 0.0, -68724.95338022153, 0.0]
['beep', 0.0, -73915.60958809967, 0.0, 0.0, 0.0, 0.0, -69138.75122532263, 0.0]
['beep', 0.0, -73688.00177431128, 0.0, 0.0, 0.0, 0.0, -68771.37795345522, 0.0]
['beep', 0.0, -73312.02308082856, 0.0, 0.0, 0.0, 0.0, -68128.76530036514, 0.0]
['beep', 0.0, -73298.5002754331, 0.0, 0.0, 0.0, 0.0, -68088.19688417875, 0.0]
['beep', 0.0, -73663.30309668816, 0.0, 0.0, 0.0, 0.0, -68703.40629856662, 0.0]
['beep', 0.0, -73896.63295705713, 0.0, 0.0, 0.0, 0.0, -69118.45584135722, 0.0]
['beep', 0.0, -73670.3438961916, 0.0, 0.0, 0.0, 0.0, -68753.76477882442, 0.0]
['beep', 0.0, -73293.94051956422, 0.0, 0.0, 0.0, 0.0, -68110.43686991178, 0.0]
['beep', 0.0, -73281.13296999133, 0.0, 0.0, 0.0, 0.0, -68069.13084615837, 0.0]
['beep', 0.0, -73644.03589296769, 0.0, 0.0, 0.0, 0.0, -68681.97097563399, 0.0]
['beep', 0.0, -73879.75738999336, 0.0, 0.0, 0.0, 0.0, -69100.48503881515, 0.0]
['beep', 0.0, -73655.05530298415, 0.0, 0.0, 0.0, 0.0, -68738.56559259482, 0.0]
['beep', 0.0, -73277.93667053423, 0.0, 0.0, 0.0, 0.0, -68094.00833773713, 0.0]
['beep', 0.0, -73262.29044941551, 0.0, 0.0, 0.0, 0.0, -68048.45548253722, 0.0]
['beep', 0.0, -73627.80852649314, 0.0, 0.0, 0.0, 0.0, -68663.41902773608, 0.0]
['beep', 0.0, -73863.30650607425, 0.0, 0.0, 0.0, 0.0, -69082.91656767328, 0.0]
['beep', 0.0, -73640.4819655993, 0.0, 0.0, 0.0, 0.0, -68724.05931044332, 0.0]
['beep', 0.0, -73261.91046975976, 0.0, 0.0, 0.0, 0.0, -68077.64686079584, 0.0]
['beep', 0.0, -73243.89496372879, 0.0, 0.0, 0.0, 0.0, -68028.3612642719, 0.0]
['beep', 0.0, -73606.06027913812, 0.0, 0.0, 0.0, 0.0, -68639.32384721325, 0.0]
['beep', 0.0, -73844.03930235378, 0.0, 0.0, 0.0, 0.0, -69062.24120405212, 0.0]
['beep', 0.0, -73624.43341308039, 0.0, 0.0, 0.0, 0.0, -68707.83194396878, 0.0]
['beep', 0.0, -73247.7394637751, 0.0, 0.0, 0.0, 0.0, -68063.07352341099, 0.0]
['beep', 0.0, -73229.29927459947, 0.0, 0.0, 0.0, 0.0, -68011.91038035278, 0.0]
['beep', 0.0, -73593.47624700979, 0.0, 0.0, 0.0, 0.0, -68624.41523366157, 0.0]
['beep', 0.0, -73833.60103769315, 0.0, 0.0, 0.0, 0.0, -69050.48418646863, 0.0]
['beep', 0.0, -73614.3751280755, 0.0, 0.0, 0.0, 0.0, -68697.70660373052, 0.0]
['beep', 0.0, -73238.64230378179, 0.0, 0.0, 0.0, 0.0, -68053.48462503965, 0.0]
['beep', 0.0, -73218.41397504974, 0.0, 0.0, 0.0, 0.0, -67999.16988601326, 0.0]
['beep', 0.0, -73579.95344161433, 0.0, 0.0, 0.0, 0.0, -68608.41138463156, 0.0]
['beep', 0.0, -73819.0724037972, 0.0, 0.0, 0.0, 0.0, -69034.52504092753, 0.0]
['beep', 0.0, -73602.84162793656, 0.0, 0.0, 0.0, 0.0, -68685.99428963594, 0.0]
['beep', 0.0, -73224.69481524167, 0.0, 0.0, 0.0, 0.0, -68039.20186033272, 0.0]
['beep', 0.0, -73196.91159688373, 0.0, 0.0, 0.0, 0.0, -67975.87936829083, 0.0]
['beep', 0.0, -73554.606563402, 0.0, 0.0, 0.0, 0.0, -68580.7846284848, 0.0]
['beep', 0.0, -73798.12881924259, 0.0, 0.0, 0.0, 0.0, -69012.41916566124, 0.0]
['beep', 0.0, -73582.05450559313, 0.0, 0.0, 0.0, 0.0, -68665.11776031468, 0.0]
['beep', 0.0, -73200.53257948549, 0.0, 0.0, 0.0, 0.0, -68014.5031827096, 0.0]
['beep', 0.0, -73176.28093675149, 0.0, 0.0, 0.0, 0.0, -67953.4382168577, 0.0]
['beep', 0.0, -73537.21690621578, 0.0, 0.0, 0.0, 0.0, -68561.1821485975, 0.0]
['beep', 0.0, -73782.54965335723, 0.0, 0.0, 0.0, 0.0, -68995.72241255312, 0.0]
['beep', 0.0, -73568.0176100752, 0.0, 0.0, 0.0, 0.0, -68650.99145781892, 0.0]
['beep', 0.0, -73188.48498922407, 0.0, 0.0, 0.0, 0.0, -68002.09796453691, 0.0]
['beep', 0.0, -73157.19254698665, 0.0, 0.0, 0.0, 0.0, -67932.51698404753, 0.0]
['beep', 0.0, -73517.36855713947, 0.0, 0.0, 0.0, 0.0, -68538.8751076311, 0.0]
['beep', 0.0, -73765.98701071585, 0.0, 0.0, 0.0, 0.0, -68977.77396175552, 0.0]
['beep', 0.0, -73553.60073490153, 0.0, 0.0, 0.0, 0.0, -68636.44047217852, 0.0]
['beep', 0.0, -73169.91068958172, 0.0, 0.0, 0.0, 0.0, -67983.1436852388, 0.0]
['beep', 0.0, -73138.57354385538, 0.0, 0.0, 0.0, 0.0, -67912.19924833767, 0.0]
['beep', 0.0, -73498.07900167454, 0.0, 0.0, 0.0, 0.0, -68517.19391550946, 0.0]
['beep', 0.0, -73746.60804827309, 0.0, 0.0, 0.0, 0.0, -68956.8750806898, 0.0]
['beep', 0.0, -73535.1605457259, 0.0, 0.0, 0.0, 0.0, -68617.73206206942, 0.0]
['beep', 0.0, -73154.95737254112, 0.0, 0.0, 0.0, 0.0, -67967.76568505356, 0.0]
['beep', 0.0, -73124.44724135962, 0.0, 0.0, 0.0, 0.0, -67896.30715802994, 0.0]
['beep', 0.0, -73483.8409404565, 0.0, 0.0, 0.0, 0.0, -68500.58656937917, 0.0]
['beep', 0.0, -73734.73927196732, 0.0, 0.0, 0.0, 0.0, -68943.70990320563, 0.0]
['beep', 0.0, -73526.62217934396, 0.0, 0.0, 0.0, 0.0, -68609.17134394305, 0.0]
['beep', 0.0, -73143.4685758911, 0.0, 0.0, 0.0, 0.0, -67955.62868781433, 0.0]
