['beep', 0.0, -1582.8164318581144, 0.0, 0.0, 0.0, 0.0, 625.5359203262235, 0.0]
['beep', 0.0, -1585.6327516594831, 0.0, 0.0, 0.0, 0.0, 621.423199346447, 0.0]
['beep', 0.0, -1590.4830802062847, 0.0, 0.0, 0.0, 0.0, 617.7798650002319, 0.0]
['beep', 0.0, -1592.2712197627093, 0.0, 0.0, 0.0, 0.0, 619.3221353676481, 0.0]
['beep', 0.0, -1588.0467400606562, 0.0, 0.0, 0.0, 0.0, 621.9596412133743, 0.0]
['beep', 0.0, -1584.2022400143433, 0.0, 0.0, 0.0, 0.0, 622.0713999356509, 0.0]
['beep', 0.0, -1586.6609319044271, 0.0, 0.0, 0.0, 0.0, 620.8644057350642, 0.0]
['beep', 0.0, -1591.4665569623182, 0.0, 0.0, 0.0, 0.0, 616.259946377271, 0.0]
['beep', 0.0, -1592.6064959295388, 0.0, 0.0, 0.0, 0.0, 616.1034841660838, 0.0]
['beep', 0.0, -1587.6891121493713, 0.0, 0.0, 0.0, 0.0, 620.0150394457626, 0.0]
['beep', 0.0, -1583.7105016363266, 0.0, 0.0, 0.0, 0.0, 621.065571435162, 0.0]
['beep', 0.0, -1587.8008708716477, 0.0, 0.0, 0.0, 0.0, 617.2657748777599, 0.0]
['beep', 0.0, -1592.4947372072622, 0.0, 0.0, 0.0, 0.0, 612.4154463309582, 0.0]
['beep', 0.0, -1592.1371092959773, 0.0, 0.0, 0.0, 0.0, 615.4329318324246, 0.0]
['beep', 0.0, -1587.5550016826394, 0.0, 0.0, 0.0, 0.0, 619.8362254901201, 0.0]
['beep', 0.0, -1584.604571414539, 0.0, 0.0, 0.0, 0.0, 621.1549784129833, 0.0]
['beep', 0.0, -1586.6385801599718, 0.0, 0.0, 0.0, 0.0, 617.7798650002319, 0.0]
['beep', 0.0, -1591.757129640237, 0.0, 0.0, 0.0, 0.0, 613.5106818092682, 0.0]
['beep', 0.0, -1592.9641238408237, 0.0, 0.0, 0.0, 0.0, 615.969373699352, 0.0]
['beep', 0.0, -1587.3985394714523, 0.0, 0.0, 0.0, 0.0, 620.3279638681369, 0.0]
['beep', 0.0, -1583.8222603586032, 0.0, 0.0, 0.0, 0.0, 621.6690685354554, 0.0]
['beep', 0.0, -1586.1021382930444, 0.0, 0.0, 0.0, 0.0, 618.6068795450783, 0.0]
['beep', 0.0, -1590.594838928561, 0.0, 0.0, 0.0, 0.0, 616.1034841660838, 0.0]
['beep', 0.0, -1591.757129640237, 0.0, 0.0, 0.0, 0.0, 616.3046498661816, 0.0]
['beep', 0.0, -1586.8844493489803, 0.0, 0.0, 0.0, 0.0, 620.8867574795196, 0.0]
['beep', 0.0, -1583.7105016363266, 0.0, 0.0, 0.0, 0.0, 622.6972487803995, 0.0]
['beep', 0.0, -1585.9680278263127, 0.0, 0.0, 0.0, 0.0, 618.8303969896314, 0.0]
['beep', 0.0, -1590.9748185843014, 0.0, 0.0, 0.0, 0.0, 614.874138221042, 0.0]
['beep', 0.0, -1591.7794813846924, 0.0, 0.0, 0.0, 0.0, 616.2822981217263, 0.0]
['beep', 0.0, -1588.2032022718433, 0.0, 0.0, 0.0, 0.0, 618.8527487340866, 0.0]
['beep', 0.0, -1584.828088859092, 0.0, 0.0, 0.0, 0.0, 620.8644057350642, 0.0]
['beep', 0.0, -1587.018559815712, 0.0, 0.0, 0.0, 0.0, 617.8245684891425, 0.0]
['beep', 0.0, -1591.086577306578, 0.0, 0.0, 0.0, 0.0, 612.9518881978855, 0.0]
['beep', 0.0, -1591.5783156845946, 0.0, 0.0, 0.0, 0.0, 615.1423591545057, 0.0]
['beep', 0.0, -1586.8397458600696, 0.0, 0.0, 0.0, 0.0, 617.7798650002319, 0.0]
['beep', 0.0, -1583.7775568696925, 0.0, 0.0, 0.0, 0.0, 620.4397225904135, 0.0]
['beep', 0.0, -1586.6385801599718, 0.0, 0.0, 0.0, 0.0, 617.6457545335, 0.0]
['beep', 0.0, -1590.9077633509355, 0.0, 0.0, 0.0, 0.0, 612.8624812200643, 0.0]
['beep', 0.0, -1591.2653912622204, 0.0, 0.0, 0.0, 0.0, 613.7565509982767, 0.0]
['beep', 0.0, -1586.9515045823462, 0.0, 0.0, 0.0, 0.0, 617.1093126665727, 0.0]
['beep', 0.0, -1584.0681295476115, 0.0, 0.0, 0.0, 0.0, 618.3163068671593, 0.0]
['beep', 0.0, -1585.6551034039383, 0.0, 0.0, 0.0, 0.0, 615.969373699352, 0.0]
['beep', 0.0, -1589.4325482168852, 0.0, 0.0, 0.0, 0.0, 613.2648126202599, 0.0]
['beep', 0.0, -1591.2206877733097, 0.0, 0.0, 0.0, 0.0, 613.4659783203576, 0.0]
['beep', 0.0, -1587.018559815712, 0.0, 0.0, 0.0, 0.0, 617.6010510445894, 0.0]
['beep', 0.0, -1583.1293562804885, 0.0, 0.0, 0.0, 0.0, 619.1209696675503, 0.0]
['beep', 0.0, -1583.8446121030584, 0.0, 0.0, 0.0, 0.0, 614.5165103097571, 0.0]
['beep', 0.0, -1588.627885416494, 0.0, 0.0, 0.0, 0.0, 612.3707428420475, 0.0]
['beep', 0.0, -1589.6784174058937, 0.0, 0.0, 0.0, 0.0, 613.3989230869918, 0.0]
['beep', 0.0, -1585.051606303645, 0.0, 0.0, 0.0, 0.0, 618.226899889338, 0.0]
['beep', 0.0, -1582.3023417356424, 0.0, 0.0, 0.0, 0.0, 620.2385568903156, 0.0]
['beep', 0.0, -1584.4257574588964, 0.0, 0.0, 0.0, 0.0, 617.7575132557766, 0.0]
['beep', 0.0, -1587.8008708716477, 0.0, 0.0, 0.0, 0.0, 613.6447922760001, 0.0]
['beep', 0.0, -1588.2926092496646, 0.0, 0.0, 0.0, 0.0, 614.4271033319359, 0.0]
['beep', 0.0, -1585.0069028147345, 0.0, 0.0, 0.0, 0.0, 618.7186382673548, 0.0]
['beep', 0.0, -1582.4141004579187, 0.0, 0.0, 0.0, 0.0, 618.6515830339889, 0.0]
['beep', 0.0, -1585.342178981564, 0.0, 0.0, 0.0, 0.0, 615.1870626434163, 0.0]
['beep', 0.0, -1588.5608301831282, 0.0, 0.0, 0.0, 0.0, 612.7507224977878, 0.0]
['beep', 0.0, -1588.7396441387707, 0.0, 0.0, 0.0, 0.0, 614.583565543123, 0.0]
['beep', 0.0, -1583.59874291405, 0.0, 0.0, 0.0, 0.0, 619.2327283898269, 0.0]
['beep', 0.0, -1581.3188649796089, 0.0, 0.0, 0.0, 0.0, 620.3056121236816, 0.0]
['beep', 0.0, -1583.5540394251395, 0.0, 0.0, 0.0, 0.0, 615.5446905547012, 0.0]
['beep', 0.0, -1588.985513327779, 0.0, 0.0, 0.0, 0.0, 611.7001905083883, 0.0]
['beep', 0.0, -1589.119623794511, 0.0, 0.0, 0.0, 0.0, 612.035466675218, 0.0]
['beep', 0.0, -1583.9787225697903, 0.0, 0.0, 0.0, 0.0, 616.9528504553855, 0.0]
['beep', 0.0, -1581.4976789352513, 0.0, 0.0, 0.0, 0.0, 620.3950191015028, 0.0]
['beep', 0.0, -1585.0292545591897, 0.0, 0.0, 0.0, 0.0, 617.0869609221174, 0.0]
['beep', 0.0, -1590.1031005505445, 0.0, 0.0, 0.0, 0.0, 613.5777370426342, 0.0]
['beep', 0.0, -1590.1925075283657, 0.0, 0.0, 0.0, 0.0, 614.650620776489, 0.0]
['beep', 0.0, -1586.4150627154188, 0.0, 0.0, 0.0, 0.0, 618.5845278006229, 0.0]
['beep', 0.0, -1583.442280702863, 0.0, 0.0, 0.0, 0.0, 620.7302952683324, 0.0]
['beep', 0.0, -1586.213897015321, 0.0, 0.0, 0.0, 0.0, 616.9752021998409, 0.0]
['beep', 0.0, -1590.080748806089, 0.0, 0.0, 0.0, 0.0, 614.4718068208465, 0.0]
['beep', 0.0, -1590.572487184106, 0.0, 0.0, 0.0, 0.0, 615.8799667215308, 0.0]
['beep', 0.0, -1585.4986411927512, 0.0, 0.0, 0.0, 0.0, 619.5009493232906, 0.0]
['beep', 0.0, -1582.1682312689104, 0.0, 0.0, 0.0, 0.0, 619.9032807234861, 0.0]
['beep', 0.0, -1585.4315859593853, 0.0, 0.0, 0.0, 0.0, 617.3328301111258, 0.0]
['beep', 0.0, -1590.8407081175696, 0.0, 0.0, 0.0, 0.0, 612.7507224977878, 0.0]
['beep', 0.0, -1590.3936732284635, 0.0, 0.0, 0.0, 0.0, 613.9577166983744, 0.0]
['beep', 0.0, -1587.1303185379886, 0.0, 0.0, 0.0, 0.0, 619.9479842123967, 0.0]
['beep', 0.0, -1583.442280702863, 0.0, 0.0, 0.0, 0.0, 620.5514813126899, 0.0]
['beep', 0.0, -1585.0069028147345, 0.0, 0.0, 0.0, 0.0, 617.3775336000364, 0.0]
['beep', 0.0, -1589.4996034502512, 0.0, 0.0, 0.0, 0.0, 614.0471236761956, 0.0]
['beep', 0.0, -1590.3042662506423, 0.0, 0.0, 0.0, 0.0, 616.7069812663772, 0.0]
['beep', 0.0, -1586.1244900374998, 0.0, 0.0, 0.0, 0.0, 620.0597429346732, 0.0]
['beep', 0.0, -1582.7493766247485, 0.0, 0.0, 0.0, 0.0, 620.842053990609, 0.0]
['beep', 0.0, -1586.1691935264105, 0.0, 0.0, 0.0, 0.0, 617.5339958112236, 0.0]
['beep', 0.0, -1591.4889087067734, 0.0, 0.0, 0.0, 0.0, 613.7789027427319, 0.0]
['beep', 0.0, -1590.952466839846, 0.0, 0.0, 0.0, 0.0, 613.9800684428297, 0.0]
['beep', 0.0, -1586.1915452708656, 0.0, 0.0, 0.0, 0.0, 616.9528504553855, 0.0]
['beep', 0.0, -1584.0457778031562, 0.0, 0.0, 0.0, 0.0, 619.5903563011118, 0.0]
['beep', 0.0, -1586.057434804134, 0.0, 0.0, 0.0, 0.0, 618.3163068671593, 0.0]
['beep', 0.0, -1590.7736528842036, 0.0, 0.0, 0.0, 0.0, 614.5165103097571, 0.0]
['beep', 0.0, -1591.9135918514244, 0.0, 0.0, 0.0, 0.0, 616.2152428883604, 0.0]
['beep', 0.0, -1587.532649938184, 0.0, 0.0, 0.0, 0.0, 619.7244667678436, 0.0]
['beep', 0.0, -1584.0681295476115, 0.0, 0.0, 0.0, 0.0, 619.6574115344777, 0.0]
['beep', 0.0, -1586.4597662043293, 0.0, 0.0, 0.0, 0.0, 615.7458562547989, 0.0]
['beep', 0.0, -1589.4548999613405, 0.0, 0.0, 0.0, 0.0, 612.3930945865029, 0.0]
['beep', 0.0, -1590.5501354396506, 0.0, 0.0, 0.0, 0.0, 615.4105800879694, 0.0]
['beep', 0.0, -1585.699806892849, 0.0, 0.0, 0.0, 0.0, 619.679763278933, 0.0]
['beep', 0.0, -1582.3693969690082, 0.0, 0.0, 0.0, 0.0, 622.4066761024804, 0.0]
['beep', 0.0, -1585.0739580481004, 0.0, 0.0, 0.0, 0.0, 618.3386586116146, 0.0]
['beep', 0.0, -1589.924286594902, 0.0, 0.0, 0.0, 0.0, 613.8236062316425, 0.0]
['beep', 0.0, -1590.0583970616337, 0.0, 0.0, 0.0, 0.0, 614.583565543123, 0.0]
['beep', 0.0, -1586.1915452708656, 0.0, 0.0, 0.0, 0.0, 619.4338940899246, 0.0]
['beep', 0.0, -1581.8776585909914, 0.0, 0.0, 0.0, 0.0, 621.5573098131788, 0.0]
['beep', 0.0, -1584.090481292067, 0.0, 0.0, 0.0, 0.0, 618.4504173338911, 0.0]
['beep', 0.0, -1588.4267197163965, 0.0, 0.0, 0.0, 0.0, 614.5165103097571, 0.0]
['beep', 0.0, -1588.0914435495667, 0.0, 0.0, 0.0, 0.0, 617.489292322313, 0.0]
['beep', 0.0, -1584.828088859092, 0.0, 0.0, 0.0, 0.0, 622.0266964467403, 0.0]
['beep', 0.0, -1581.765899868715, 0.0, 0.0, 0.0, 0.0, 621.9819929578297, 0.0]
['beep', 0.0, -1583.1293562804885, 0.0, 0.0, 0.0, 0.0, 619.5680045566564, 0.0]
['beep', 0.0, -1586.5268214376954, 0.0, 0.0, 0.0, 0.0, 617.0646091776621, 0.0]
['beep', 0.0, -1588.3596644830304, 0.0, 0.0, 0.0, 0.0, 616.9752021998409, 0.0]
['beep', 0.0, -1583.7552051252371, 0.0, 0.0, 0.0, 0.0, 620.7302952683324, 0.0]
['beep', 0.0, -1580.9165335794132, 0.0, 0.0, 0.0, 0.0, 621.5796615576342, 0.0]
['beep', 0.0, -1584.0010743142457, 0.0, 0.0, 0.0, 0.0, 618.1374929115168, 0.0]
['beep', 0.0, -1587.152670282444, 0.0, 0.0, 0.0, 0.0, 614.5388620542124, 0.0]
['beep', 0.0, -1587.9796848272902, 0.0, 0.0, 0.0, 0.0, 615.5446905547012, 0.0]
['beep', 0.0, -1586.0350830596785, 0.0, 0.0, 0.0, 0.0, 620.0820946791285, 0.0]
['beep', 0.0, -1582.9728940693014, 0.0, 0.0, 0.0, 0.0, 621.4008476019917, 0.0]
['beep', 0.0, -1584.9621993258238, 0.0, 0.0, 0.0, 0.0, 617.1763678999387, 0.0]
['beep', 0.0, -1589.4548999613405, 0.0, 0.0, 0.0, 0.0, 615.8799667215308, 0.0]
['beep', 0.0, -1589.924286594902, 0.0, 0.0, 0.0, 0.0, 616.1034841660838, 0.0]
['beep', 0.0, -1586.1244900374998, 0.0, 0.0, 0.0, 0.0, 619.6574115344777, 0.0]
['beep', 0.0, -1583.2634667472205, 0.0, 0.0, 0.0, 0.0, 621.9372894689191, 0.0]
['beep', 0.0, -1584.537516181173, 0.0, 0.0, 0.0, 0.0, 618.4504173338911, 0.0]
['beep', 0.0, -1588.7396441387707, 0.0, 0.0, 0.0, 0.0, 616.036428932718, 0.0]
['beep', 0.0, -1590.6842459063823, 0.0, 0.0, 0.0, 0.0, 618.4727690783465, 0.0]
['beep', 0.0, -1586.4597662043293, 0.0, 0.0, 0.0, 0.0, 621.7808272577319, 0.0]
['beep', 0.0, -1583.084652791578, 0.0, 0.0, 0.0, 0.0, 621.4455510909023, 0.0]
['beep', 0.0, -1585.2304202592875, 0.0, 0.0, 0.0, 0.0, 617.4445888334023, 0.0]
['beep', 0.0, -1590.2372110172762, 0.0, 0.0, 0.0, 0.0, 613.197757386894, 0.0]
['beep', 0.0, -1591.4218534734075, 0.0, 0.0, 0.0, 0.0, 615.3658765990588, 0.0]
['beep', 0.0, -1587.3985394714523, 0.0, 0.0, 0.0, 0.0, 619.7915220012095, 0.0]
['beep', 0.0, -1585.699806892849, 0.0, 0.0, 0.0, 0.0, 621.4455510909023, 0.0]
['beep', 0.0, -1587.5550016826394, 0.0, 0.0, 0.0, 0.0, 618.8303969896314, 0.0]
['beep', 0.0, -1591.377149984497, 0.0, 0.0, 0.0, 0.0, 615.5223388102459, 0.0]
['beep', 0.0, -1593.0758825631003, 0.0, 0.0, 0.0, 0.0, 615.8352632326202, 0.0]
['beep', 0.0, -1588.6949406498602, 0.0, 0.0, 0.0, 0.0, 618.9645074563632, 0.0]
['beep', 0.0, -1584.604571414539, 0.0, 0.0, 0.0, 0.0, 622.1831586579274, 0.0]
['beep', 0.0, -1586.3033039931422, 0.0, 0.0, 0.0, 0.0, 620.0150394457626, 0.0]
['beep', 0.0, -1590.3042662506423, 0.0, 0.0, 0.0, 0.0, 616.5281673107347, 0.0]
['beep', 0.0, -1591.3547982400416, 0.0, 0.0, 0.0, 0.0, 617.0422574332068, 0.0]
['beep', 0.0, -1587.9126295939243, 0.0, 0.0, 0.0, 0.0, 620.6185365460559, 0.0]
['beep', 0.0, -1584.5822196700835, 0.0, 0.0, 0.0, 0.0, 622.3396208691146, 0.0]
['beep', 0.0, -1586.213897015321, 0.0, 0.0, 0.0, 0.0, 619.2774318787375, 0.0]
['beep', 0.0, -1590.3936732284635, 0.0, 0.0, 0.0, 0.0, 617.6010510445894, 0.0]
['beep', 0.0, -1591.4218534734075, 0.0, 0.0, 0.0, 0.0, 617.131664411028, 0.0]
['beep', 0.0, -1587.5550016826394, 0.0, 0.0, 0.0, 0.0, 620.7973505016984, 0.0]
['beep', 0.0, -1585.342178981564, 0.0, 0.0, 0.0, 0.0, 624.0160017032625, 0.0]
['beep', 0.0, -1586.4374144598742, 0.0, 0.0, 0.0, 0.0, 620.6632400349665, 0.0]
['beep', 0.0, -1590.1254522949998, 0.0, 0.0, 0.0, 0.0, 617.6010510445894, 0.0]
['beep', 0.0, -1590.5054319507399, 0.0, 0.0, 0.0, 0.0, 618.5174725672571, 0.0]
['beep', 0.0, -1586.50446969324, 0.0, 0.0, 0.0, 0.0, 621.5349580687235, 0.0]
['beep', 0.0, -1585.1633650259216, 0.0, 0.0, 0.0, 0.0, 623.2560423917821, 0.0]
['beep', 0.0, -1586.9068010934354, 0.0, 0.0, 0.0, 0.0, 620.0597429346732, 0.0]
['beep', 0.0, -1590.9971703287567, 0.0, 0.0, 0.0, 0.0, 617.6457545335, 0.0]
['beep', 0.0, -1591.4889087067734, 0.0, 0.0, 0.0, 0.0, 618.293955122704, 0.0]
['beep', 0.0, -1587.8455743605584, 0.0, 0.0, 0.0, 0.0, 622.2502138912934, 0.0]
['beep', 0.0, -1584.761033625726, 0.0, 0.0, 0.0, 0.0, 624.7089057813771, 0.0]
['beep', 0.0, -1586.2586005042317, 0.0, 0.0, 0.0, 0.0, 621.7361237688212, 0.0]
['beep', 0.0, -1591.3324464955863, 0.0, 0.0, 0.0, 0.0, 617.9363272114191, 0.0]
['beep', 0.0, -1592.114757551522, 0.0, 0.0, 0.0, 0.0, 620.3503156125922, 0.0]
['beep', 0.0, -1587.890277849469, 0.0, 0.0, 0.0, 0.0, 623.5913185586118, 0.0]
['beep', 0.0, -1585.7445103817595, 0.0, 0.0, 0.0, 0.0, 621.4679028353576, 0.0]
['beep', 0.0, -1591.5783156845946, 0.0, 0.0, 0.0, 0.0, 618.8303969896314, 0.0]
['beep', 0.0, -1591.310094751131, 0.0, 0.0, 0.0, 0.0, 619.8809289790307, 0.0]
['beep', 0.0, -1587.8008708716477, 0.0, 0.0, 0.0, 0.0, 623.904242980986, 0.0]
['beep', 0.0, -1585.2304202592875, 0.0, 0.0, 0.0, 0.0, 625.3347546261257, 0.0]
['beep', 0.0, -1587.1079667935333, 0.0, 0.0, 0.0, 0.0, 621.9149377244637, 0.0]
['beep', 0.0, -1591.533612195684, 0.0, 0.0, 0.0, 0.0, 617.422237088947, 0.0]
['beep', 0.0, -1591.9135918514244, 0.0, 0.0, 0.0, 0.0, 615.9246702104414, 0.0]
['beep', 0.0, -1588.627885416494, 0.0, 0.0, 0.0, 0.0, 620.4844260793241, 0.0]
['beep', 0.0, -1585.2751237481982, 0.0, 0.0, 0.0, 0.0, 622.6748970359441, 0.0]
['beep', 0.0, -1586.5491731821505, 0.0, 0.0, 0.0, 0.0, 619.970335956852, 0.0]
['beep', 0.0, -1591.1759842843992, 0.0, 0.0, 0.0, 0.0, 615.7682079992543, 0.0]
['beep', 0.0, -1593.0982343075557, 0.0, 0.0, 0.0, 0.0, 616.9975539442962, 0.0]
['beep', 0.0, -1588.829051116592, 0.0, 0.0, 0.0, 0.0, 621.6020133020894, 0.0]
['beep', 0.0, -1585.7221586373043, 0.0, 0.0, 0.0, 0.0, 623.1219319250503, 0.0]
['beep', 0.0, -1583.5093359362288, 0.0, 0.0, 0.0, 0.0, 748.2917008747698, 0.0]
['beep', 0.0, -1579.9777603122902, 0.0, 0.0, 0.0, 0.0, 745.2965671177587, 0.0]
['beep', 0.0, -1585.0739580481004, 0.0, 0.0, 0.0, 0.0, 741.4297153269906, 0.0]
['beep', 0.0, -1589.1866790278768, 0.0, 0.0, 0.0, 0.0, 742.189674638471, 0.0]
['beep', 0.0, -1588.1584987829326, 0.0, 0.0, 0.0, 0.0, 746.7494305073536, 0.0]
['beep', 0.0, -1584.1575365254328, 0.0, 0.0, 0.0, 0.0, 748.8281427416972, 0.0]
['beep', 0.0, -1583.4199289584076, 0.0, 0.0, 0.0, 0.0, 746.6823752739878, 0.0]
['beep', 0.0, -1585.3198272371087, 0.0, 0.0, 0.0, 0.0, 743.1060961611386, 0.0]
['beep', 0.0, -1585.2080685148321, 0.0, 0.0, 0.0, 0.0, 744.1119246616274, 0.0]
['beep', 0.0, -1581.4529754463406, 0.0, 0.0, 0.0, 0.0, 749.7445642643648, 0.0]
['beep', 0.0, -1580.6259609014942, 0.0, 0.0, 0.0, 0.0, 751.5327038207894, 0.0]
['beep', 0.0, -1584.9621993258238, 0.0, 0.0, 0.0, 0.0, 748.9846049528844, 0.0]
['beep', 0.0, -1588.6725889054048, 0.0, 0.0, 0.0, 0.0, 745.5647880512224, 0.0]
['beep', 0.0, -1586.2809522486868, 0.0, 0.0, 0.0, 0.0, 746.2800438737922, 0.0]
['beep', 0.0, -1580.0671672901115, 0.0, 0.0, 0.0, 0.0, 750.0574886867391, 0.0]
['beep', 0.0, -1577.1614405109217, 0.0, 0.0, 0.0, 0.0, 752.6055875546441, 0.0]
['beep', 0.0, -1579.5977806565502, 0.0, 0.0, 0.0, 0.0, 750.4374683424793, 0.0]
['beep', 0.0, -1582.8611353470249, 0.0, 0.0, 0.0, 0.0, 745.9447677069626, 0.0]
['beep', 0.0, -1581.989417313268, 0.0, 0.0, 0.0, 0.0, 747.4646863299234, 0.0]
['beep', 0.0, -1578.1672690114106, 0.0, 0.0, 0.0, 0.0, 751.6444625430659, 0.0]
['beep', 0.0, -1575.1721352543993, 0.0, 0.0, 0.0, 0.0, 754.5501893222558, 0.0]
['beep', 0.0, -1577.6755306333937, 0.0, 0.0, 0.0, 0.0, 751.8232764987083, 0.0]
['beep', 0.0, -1584.0681295476115, 0.0, 0.0, 0.0, 0.0, 748.8728462306078, 0.0]
['beep', 0.0, -1585.9456760818573, 0.0, 0.0, 0.0, 0.0, 748.1352386635826, 0.0]
['beep', 0.0, -1582.3917487134636, 0.0, 0.0, 0.0, 0.0, 753.0079189548396, 0.0]
['beep', 0.0, -1578.3907864559635, 0.0, 0.0, 0.0, 0.0, 755.8689422451189, 0.0]
['beep', 0.0, -1582.1011760355445, 0.0, 0.0, 0.0, 0.0, 753.3878986105799, 0.0]
['beep', 0.0, -1585.3645307260194, 0.0, 0.0, 0.0, 0.0, 748.9846049528844, 0.0]
['beep', 0.0, -1584.4257574588964, 0.0, 0.0, 0.0, 0.0, 749.3869363530799, 0.0]
['beep', 0.0, -1580.3577399680305, 0.0, 0.0, 0.0, 0.0, 755.4442591004681, 0.0]
['beep', 0.0, -1577.049681788645, 0.0, 0.0, 0.0, 0.0, 759.3558143801469, 0.0]
['beep', 0.0, -1580.0448155456563, 0.0, 0.0, 0.0, 0.0, 756.2265701564038, 0.0]
['beep', 0.0, -1582.7270248802931, 0.0, 0.0, 0.0, 0.0, 753.1196776771162, 0.0]
['beep', 0.0, -1580.8047748571366, 0.0, 0.0, 0.0, 0.0, 754.5725410667111, 0.0]
['beep', 0.0, -1578.726062622793, 0.0, 0.0, 0.0, 0.0, 758.4617446019346, 0.0]
['beep', 0.0, -1579.083690534078, 0.0, 0.0, 0.0, 0.0, 760.7639742808312, 0.0]
['beep', 0.0, -1582.0788242910892, 0.0, 0.0, 0.0, 0.0, 760.2945876472697, 0.0]
['beep', 0.0, -1583.8446121030584, 0.0, 0.0, 0.0, 0.0, 757.5900265681776, 0.0]
['beep', 0.0, -1583.9787225697903, 0.0, 0.0, 0.0, 0.0, 757.7017852904542, 0.0]
['beep', 0.0, -1579.8436498455585, 0.0, 0.0, 0.0, 0.0, 764.608474327144, 0.0]
['beep', 0.0, -1576.2003154993433, 0.0, 0.0, 0.0, 0.0, 767.6483115730657, 0.0]
['beep', 0.0, -1577.764937611215, 0.0, 0.0, 0.0, 0.0, 765.9048755055518, 0.0]
['beep', 0.0, -1583.2634667472205, 0.0, 0.0, 0.0, 0.0, 763.2897214042808, 0.0]
['beep', 0.0, -1586.0127313152232, 0.0, 0.0, 0.0, 0.0, 765.2790266608032, 0.0]
['beep', 0.0, -1581.0059405572345, 0.0, 0.0, 0.0, 0.0, 770.1293552076048, 0.0]
['beep', 0.0, -1576.1556120104328, 0.0, 0.0, 0.0, 0.0, 771.6492738305657, 0.0]
['beep', 0.0, -1577.1614405109217, 0.0, 0.0, 0.0, 0.0, 771.2469424303702, 0.0]
['beep', 0.0, -1580.4024434569412, 0.0, 0.0, 0.0, 0.0, 770.7552040523534, 0.0]
['beep', 0.0, -1581.0953475350557, 0.0, 0.0, 0.0, 0.0, 769.1682301960267, 0.0]
['beep', 0.0, -1576.4461846883519, 0.0, 0.0, 0.0, 0.0, 774.510297120845, 0.0]
['beep', 0.0, -1576.1332602659775, 0.0, 0.0, 0.0, 0.0, 779.1371082230936, 0.0]
['beep', 0.0, -1577.2731992331983, 0.0, 0.0, 0.0, 0.0, 776.834878544197, 0.0]
['beep', 0.0, -1578.2343242447764, 0.0, 0.0, 0.0, 0.0, 774.1750209540154, 0.0]
['beep', 0.0, -1579.7989463566478, 0.0, 0.0, 0.0, 0.0, 775.091442476683, 0.0]
['beep', 0.0, -1576.7814608551814, 0.0, 0.0, 0.0, 0.0, 781.349930924169, 0.0]
['beep', 0.0, -1574.6133416430166, 0.0, 0.0, 0.0, 0.0, 784.702692592465, 0.0]
['beep', 0.0, -1575.730928865782, 0.0, 0.0, 0.0, 0.0, 784.1662507255377, 0.0]
['beep', 0.0, -1580.31303647912, 0.0, 0.0, 0.0, 0.0, 780.6123233571439, 0.0]
['beep', 0.0, -1580.961237068324, 0.0, 0.0, 0.0, 0.0, 781.1487652240712, 0.0]
['beep', 0.0, -1577.116737022011, 0.0, 0.0, 0.0, 0.0, 785.5297071373114, 0.0]
['beep', 0.0, -1577.6084754000278, 0.0, 0.0, 0.0, 0.0, 789.2624484613477, 0.0]
['beep', 0.0, -1578.9495800673462, 0.0, 0.0, 0.0, 0.0, 787.6531228605655, 0.0]
['beep', 0.0, -1580.5812574125837, 0.0, 0.0, 0.0, 0.0, 784.5015268923673, 0.0]
['beep', 0.0, -1580.827126601592, 0.0, 0.0, 0.0, 0.0, 785.6861693484985, 0.0]
['beep', 0.0, -1576.759109110726, 0.0, 0.0, 0.0, 0.0, 789.0389310167947, 0.0]
['beep', 0.0, -1572.5569811531284, 0.0, 0.0, 0.0, 0.0, 792.123471751627, 0.0]
['beep', 0.0, -1575.8426875880584, 0.0, 0.0, 0.0, 0.0, 789.8882973060963, 0.0]
['beep', 0.0, -1584.5151644367177, 0.0, 0.0, 0.0, 0.0, 786.1332042376047, 0.0]
['beep', 0.0, -1584.6939783923601, 0.0, 0.0, 0.0, 0.0, 785.6414658595879, 0.0]
['beep', 0.0, -1577.2284957442876, 0.0, 0.0, 0.0, 0.0, 789.575372883722, 0.0]
['beep', 0.0, -1571.9758357972903, 0.0, 0.0, 0.0, 0.0, 793.799852585775, 0.0]
['beep', 0.0, -1574.5909898985612, 0.0, 0.0, 0.0, 0.0, 790.15651823956, 0.0]
['beep', 0.0, -1581.6764928908938, 0.0, 0.0, 0.0, 0.0, 786.2896664487919, 0.0]
['beep', 0.0, -1583.3975772139522, 0.0, 0.0, 0.0, 0.0, 786.8708118046299, 0.0]
['beep', 0.0, -1580.1342225234775, 0.0, 0.0, 0.0, 0.0, 791.0505880177723, 0.0]
['beep', 0.0, -1573.9427893093575, 0.0, 0.0, 0.0, 0.0, 793.7775008413197, 0.0]
['beep', 0.0, -1573.8533823315363, 0.0, 0.0, 0.0, 0.0, 791.318808951236, 0.0]
['beep', 0.0, -1579.7542428677373, 0.0, 0.0, 0.0, 0.0, 787.5190123938337, 0.0]
['beep', 0.0, -1580.7153678793154, 0.0, 0.0, 0.0, 0.0, 787.8095850717527, 0.0]
['beep', 0.0, -1574.0992515205446, 0.0, 0.0, 0.0, 0.0, 792.4363961740013, 0.0]
['beep', 0.0, -1570.9029520634356, 0.0, 0.0, 0.0, 0.0, 794.9174398085404, 0.0]
['beep', 0.0, -1574.9709695543015, 0.0, 0.0, 0.0, 0.0, 791.5870298846996, 0.0]
['beep', 0.0, -1582.5929144135612, 0.0, 0.0, 0.0, 0.0, 787.831936816208, 0.0]
['beep', 0.0, -1583.084652791578, 0.0, 0.0, 0.0, 0.0, 788.3907304275907, 0.0]
['beep', 0.0, -1574.278065476187, 0.0, 0.0, 0.0, 0.0, 792.0340647738058, 0.0]
['beep', 0.0, -1570.2994549631424, 0.0, 0.0, 0.0, 0.0, 794.5598118972555, 0.0]
['beep', 0.0, -1573.7863270981702, 0.0, 0.0, 0.0, 0.0, 792.2352304739036, 0.0]
['beep', 0.0, -1580.1565742679327, 0.0, 0.0, 0.0, 0.0, 786.6025908711662, 0.0]
['beep', 0.0, -1584.0457778031562, 0.0, 0.0, 0.0, 0.0, 786.2002594709706, 0.0]
['beep', 0.0, -1581.8776585909914, 0.0, 0.0, 0.0, 0.0, 790.4470909174789, 0.0]
['beep', 0.0, -1578.1672690114106, 0.0, 0.0, 0.0, 0.0, 791.7434920958867, 0.0]
['beep', 0.0, -1577.563771911117, 0.0, 0.0, 0.0, 0.0, 788.6365996165991, 0.0]
['beep', 0.0, -1580.5142021792178, 0.0, 0.0, 0.0, 0.0, 784.7920995702863, 0.0]
['beep', 0.0, -1581.922362079902, 0.0, 0.0, 0.0, 0.0, 784.7473960813757, 0.0]
['beep', 0.0, -1579.1954492563546, 0.0, 0.0, 0.0, 0.0, 787.8542885606633, 0.0]
['beep', 0.0, -1579.1730975118992, 0.0, 0.0, 0.0, 0.0, 790.5812013842108, 0.0]
['beep', 0.0, -1581.631789401983, 0.0, 0.0, 0.0, 0.0, 786.4684804044343, 0.0]
['beep', 0.0, -1586.1468417819551, 0.0, 0.0, 0.0, 0.0, 782.2887041912919, 0.0]
['beep', 0.0, -1584.8504406035472, 0.0, 0.0, 0.0, 0.0, 784.0097885143505, 0.0]
['beep', 0.0, -1580.2012777568434, 0.0, 0.0, 0.0, 0.0, 785.6861693484985, 0.0]
['beep', 0.0, -1578.3684347115081, 0.0, 0.0, 0.0, 0.0, 786.7590530823533, 0.0]
['beep', 0.0, -1580.7377196237708, 0.0, 0.0, 0.0, 0.0, 784.8368030591969, 0.0]
['beep', 0.0, -1582.3693969690082, 0.0, 0.0, 0.0, 0.0, 780.7240820794204, 0.0]
['beep', 0.0, -1582.1682312689104, 0.0, 0.0, 0.0, 0.0, 779.5841431121997, 0.0]
['beep', 0.0, -1582.1682312689104, 0.0, 0.0, 0.0, 0.0, 783.3839396696019, 0.0]
['beep', 0.0, -1580.4024434569412, 0.0, 0.0, 0.0, 0.0, 786.5578873822556, 0.0]
['beep', 0.0, -1580.2906847346646, 0.0, 0.0, 0.0, 0.0, 782.8027943137639, 0.0]
['beep', 0.0, -1582.8611353470249, 0.0, 0.0, 0.0, 0.0, 779.4276809010125, 0.0]
['beep', 0.0, -1585.2080685148321, 0.0, 0.0, 0.0, 0.0, 779.2265152009148, 0.0]
['beep', 0.0, -1583.956370825335, 0.0, 0.0, 0.0, 0.0, 783.2721809473254, 0.0]
['beep', 0.0, -1580.5812574125837, 0.0, 0.0, 0.0, 0.0, 786.1332042376047, 0.0]
['beep', 0.0, -1579.2401527452653, 0.0, 0.0, 0.0, 0.0, 782.8027943137639, 0.0]
['beep', 0.0, -1582.4141004579187, 0.0, 0.0, 0.0, 0.0, 778.444204144979, 0.0]
['beep', 0.0, -1585.7445103817595, 0.0, 0.0, 0.0, 0.0, 778.7571285673533, 0.0]
['beep', 0.0, -1584.8727923480026, 0.0, 0.0, 0.0, 0.0, 783.3615879251466, 0.0]
['beep', 0.0, -1579.7765946121926, 0.0, 0.0, 0.0, 0.0, 786.4684804044343, 0.0]
['beep', 0.0, -1578.1002137780445, 0.0, 0.0, 0.0, 0.0, 784.9038582925629, 0.0]
['beep', 0.0, -1581.0729957906003, 0.0, 0.0, 0.0, 0.0, 780.4111576570461, 0.0]
['beep', 0.0, -1583.8222603586032, 0.0, 0.0, 0.0, 0.0, 780.6793785905098, 0.0]
['beep', 0.0, -1581.6764928908938, 0.0, 0.0, 0.0, 0.0, 786.1332042376047, 0.0]
['beep', 0.0, -1577.8543445890361, 0.0, 0.0, 0.0, 0.0, 788.5471926387779, 0.0]
['beep', 0.0, -1577.9437515668574, 0.0, 0.0, 0.0, 0.0, 785.1720792260265, 0.0]
['beep', 0.0, -1581.0953475350557, 0.0, 0.0, 0.0, 0.0, 780.1652884680377, 0.0]
['beep', 0.0, -1582.794080113659, 0.0, 0.0, 0.0, 0.0, 781.4840413909009, 0.0]
['beep', 0.0, -1581.5423824241618, 0.0, 0.0, 0.0, 0.0, 785.8873350485964, 0.0]
['beep', 0.0, -1579.7765946121926, 0.0, 0.0, 0.0, 0.0, 787.9213437940292, 0.0]
['beep', 0.0, -1579.508373678729, 0.0, 0.0, 0.0, 0.0, 784.1662507255377, 0.0]
['beep', 0.0, -1579.508373678729, 0.0, 0.0, 0.0, 0.0, 780.2546954458589, 0.0]
['beep', 0.0, -1579.5754289120948, 0.0, 0.0, 0.0, 0.0, 780.4335094015014, 0.0]
['beep', 0.0, -1580.2012777568434, 0.0, 0.0, 0.0, 0.0, 785.3285414372136, 0.0]
['beep', 0.0, -1580.7377196237708, 0.0, 0.0, 0.0, 0.0, 787.0719775047276, 0.0]
['beep', 0.0, -1580.9165335794132, 0.0, 0.0, 0.0, 0.0, 783.5180501363337, 0.0]
['beep', 0.0, -1581.631789401983, 0.0, 0.0, 0.0, 0.0, 779.5841431121997, 0.0]
['beep', 0.0, -1582.4811556912848, 0.0, 0.0, 0.0, 0.0, 779.9641227679399, 0.0]
['beep', 0.0, -1580.2012777568434, 0.0, 0.0, 0.0, 0.0, 784.0544920032611, 0.0]
['beep', 0.0, -1577.8543445890361, 0.0, 0.0, 0.0, 0.0, 787.6754746050209, 0.0]
['beep', 0.0, -1580.178926012388, 0.0, 0.0, 0.0, 0.0, 784.0768437477165, 0.0]
['beep', 0.0, -1583.8222603586032, 0.0, 0.0, 0.0, 0.0, 778.7347768228981, 0.0]
['beep', 0.0, -1583.1070045360334, 0.0, 0.0, 0.0, 0.0, 779.6288466011104, 0.0]
['beep', 0.0, -1579.731891123282, 0.0, 0.0, 0.0, 0.0, 784.8815065481075, 0.0]
['beep', 0.0, -1579.508373678729, 0.0, 0.0, 0.0, 0.0, 786.5578873822556, 0.0]
['beep', 0.0, -1581.5870859130725, 0.0, 0.0, 0.0, 0.0, 783.316884436236, 0.0]
['beep', 0.0, -1583.665798147416, 0.0, 0.0, 0.0, 0.0, 780.3217506792249, 0.0]
['beep', 0.0, -1583.8669638475137, 0.0, 0.0, 0.0, 0.0, 780.3888059125908, 0.0]
['beep', 0.0, -1580.4247952013966, 0.0, 0.0, 0.0, 0.0, 785.6414658595879, 0.0]
['beep', 0.0, -1577.049681788645, 0.0, 0.0, 0.0, 0.0, 788.6142478721438, 0.0]
['beep', 0.0, -1577.0720335331005, 0.0, 0.0, 0.0, 0.0, 784.4121199145461, 0.0]
['beep', 0.0, -1582.436452202374, 0.0, 0.0, 0.0, 0.0, 781.4393379019903, 0.0]
['beep', 0.0, -1584.761033625726, 0.0, 0.0, 0.0, 0.0, 782.512221635845, 0.0]
['beep', 0.0, -1581.3188649796089, 0.0, 0.0, 0.0, 0.0, 785.7979280707751, 0.0]
['beep', 0.0, -1576.0662050326116, 0.0, 0.0, 0.0, 0.0, 788.189564727493, 0.0]
['beep', 0.0, -1577.8990480779469, 0.0, 0.0, 0.0, 0.0, 785.8873350485964, 0.0]
['beep', 0.0, -1583.8222603586032, 0.0, 0.0, 0.0, 0.0, 782.9369047804958, 0.0]
['beep', 0.0, -1583.9340190808796, 0.0, 0.0, 0.0, 0.0, 782.0651867467388, 0.0]
['beep', 0.0, -1579.7095393788265, 0.0, 0.0, 0.0, 0.0, 785.0826722482053, 0.0]
['beep', 0.0, -1576.8708678330026, 0.0, 0.0, 0.0, 0.0, 787.5190123938337, 0.0]
['beep', 0.0, -1581.5200306797065, 0.0, 0.0, 0.0, 0.0, 784.3450646811801, 0.0]
['beep', 0.0, -1587.1973737713545, 0.0, 0.0, 0.0, 0.0, 781.4393379019903, 0.0]
['beep', 0.0, -1588.0243883162009, 0.0, 0.0, 0.0, 0.0, 781.05935824625, 0.0]
['beep', 0.0, -1579.3966149564524, 0.0, 0.0, 0.0, 0.0, 785.7979280707751, 0.0]
['beep', 0.0, -1573.7192718648043, 0.0, 0.0, 0.0, 0.0, 788.1448612385823, 0.0]
['beep', 0.0, -1576.0438532881562, 0.0, 0.0, 0.0, 0.0, 784.7920995702863, 0.0]
['beep', 0.0, -1583.151708024944, 0.0, 0.0, 0.0, 0.0, 781.8193175577304, 0.0]
['beep', 0.0, -1585.342178981564, 0.0, 0.0, 0.0, 0.0, 782.5792768692108, 0.0]
['beep', 0.0, -1580.8718300905027, 0.0, 0.0, 0.0, 0.0, 786.6025908711662, 0.0]
['beep', 0.0, -1574.8368590875698, 0.0, 0.0, 0.0, 0.0, 788.1448612385823, 0.0]
['beep', 0.0, -1575.6191701435055, 0.0, 0.0, 0.0, 0.0, 788.122509494127, 0.0]
['beep', 0.0, -1578.726062622793, 0.0, 0.0, 0.0, 0.0, 784.4121199145461, 0.0]
['beep', 0.0, -1581.117699279511, 0.0, 0.0, 0.0, 0.0, 784.1662507255377, 0.0]
['beep', 0.0, -1579.530725423184, 0.0, 0.0, 0.0, 0.0, 787.9213437940292, 0.0]
['beep', 0.0, -1577.6308271444832, 0.0, 0.0, 0.0, 0.0, 790.0000560283728, 0.0]
['beep', 0.0, -1579.2401527452653, 0.0, 0.0, 0.0, 0.0, 787.4296054160125, 0.0]
['beep', 0.0, -1582.5482109246507, 0.0, 0.0, 0.0, 0.0, 784.2780094478143, 0.0]
['beep', 0.0, -1581.0506440461452, 0.0, 0.0, 0.0, 0.0, 784.3003611922695, 0.0]
['beep', 0.0, -1579.5530771676395, 0.0, 0.0, 0.0, 0.0, 787.5860676271997, 0.0]
['beep', 0.0, -1580.3577399680305, 0.0, 0.0, 0.0, 0.0, 789.7765385838197, 0.0]
['beep', 0.0, -1580.3800917124859, 0.0, 0.0, 0.0, 0.0, 788.3236751942248, 0.0]
['beep', 0.0, -1582.8387836025697, 0.0, 0.0, 0.0, 0.0, 783.607457114155, 0.0]
['beep', 0.0, -1584.3139987366199, 0.0, 0.0, 0.0, 0.0, 783.2274774584148, 0.0]
['beep', 0.0, -1581.989417313268, 0.0, 0.0, 0.0, 0.0, 787.2284397159148, 0.0]
['beep', 0.0, -1578.0331585446786, 0.0, 0.0, 0.0, 0.0, 787.9660472829398, 0.0]
['beep', 0.0, -1578.6813591338826, 0.0, 0.0, 0.0, 0.0, 786.0214455153282, 0.0]
['beep', 0.0, -1582.6599696469273, 0.0, 0.0, 0.0, 0.0, 783.5180501363337, 0.0]
['beep', 0.0, -1583.59874291405, 0.0, 0.0, 0.0, 0.0, 782.4004629135684, 0.0]
['beep', 0.0, -1579.6871876343714, 0.0, 0.0, 0.0, 0.0, 786.0661490042388, 0.0]
['beep', 0.0, -1576.1779637548882, 0.0, 0.0, 0.0, 0.0, 789.0165792723393, 0.0]
['beep', 0.0, -1579.7095393788265, 0.0, 0.0, 0.0, 0.0, 787.7425298383868, 0.0]
['beep', 0.0, -1582.7717283692036, 0.0, 0.0, 0.0, 0.0, 784.702692592465, 0.0]
['beep', 0.0, -1582.2576382467316, 0.0, 0.0, 0.0, 0.0, 783.1827739695042, 0.0]
['beep', 0.0, -1579.6871876343714, 0.0, 0.0, 0.0, 0.0, 788.4577856609567, 0.0]
['beep', 0.0, -1577.250847488743, 0.0, 0.0, 0.0, 0.0, 792.190526984993, 0.0]
['beep', 0.0, -1580.1565742679327, 0.0, 0.0, 0.0, 0.0, 790.4694426619343, 0.0]
['beep', 0.0, -1584.1798882698881, 0.0, 0.0, 0.0, 0.0, 785.9543902819622, 0.0]
['beep', 0.0, -1584.4928126922623, 0.0, 0.0, 0.0, 0.0, 785.7755763263198, 0.0]
['beep', 0.0, -1582.0341208021787, 0.0, 0.0, 0.0, 0.0, 791.4529194179678, 0.0]
['beep', 0.0, -1577.8766963334915, 0.0, 0.0, 0.0, 0.0, 792.414044429546, 0.0]
['beep', 0.0, -1578.3237312225976, 0.0, 0.0, 0.0, 0.0, 789.6647798615433, 0.0]
['beep', 0.0, -1585.0963097925558, 0.0, 0.0, 0.0, 0.0, 785.6638176040433, 0.0]
['beep', 0.0, -1587.890277849469, 0.0, 0.0, 0.0, 0.0, 785.2391344593924, 0.0]
['beep', 0.0, -1585.4539377038407, 0.0, 0.0, 0.0, 0.0, 789.9330007950069, 0.0]
['beep', 0.0, -1579.9330568233797, 0.0, 0.0, 0.0, 0.0, 792.8163758297416, 0.0]
['beep', 0.0, -1580.8718300905027, 0.0, 0.0, 0.0, 0.0, 789.351855439169, 0.0]
['beep', 0.0, -1587.890277849469, 0.0, 0.0, 0.0, 0.0, 784.769747825831, 0.0]
['beep', 0.0, -1589.566658683617, 0.0, 0.0, 0.0, 0.0, 785.06032050375, 0.0]
['beep', 0.0, -1584.5598679256284, 0.0, 0.0, 0.0, 0.0, 788.8377653166968, 0.0]
['beep', 0.0, -1578.7484143672484, 0.0, 0.0, 0.0, 0.0, 791.5646781402443, 0.0]
['beep', 0.0, -1581.1400510239664, 0.0, 0.0, 0.0, 0.0, 789.4189106725348, 0.0]
['beep', 0.0, -1586.795042371159, 0.0, 0.0, 0.0, 0.0, 784.702692592465, 0.0]
['beep', 0.0, -1589.1419755389663, 0.0, 0.0, 0.0, 0.0, 785.8873350485964, 0.0]
['beep', 0.0, -1585.6774551483936, 0.0, 0.0, 0.0, 0.0, 790.4023874285683, 0.0]
['beep', 0.0, -1582.0788242910892, 0.0, 0.0, 0.0, 0.0, 793.3528176966689, 0.0]
['beep', 0.0, -1583.8222603586032, 0.0, 0.0, 0.0, 0.0, 791.0952915066829, 0.0]
['beep', 0.0, -1590.1925075283657, 0.0, 0.0, 0.0, 0.0, 785.7085210929539, 0.0]
['beep', 0.0, -1593.2546965187428, 0.0, 0.0, 0.0, 0.0, 785.8426315596857, 0.0]
['beep', 0.0, -1589.41019647243, 0.0, 0.0, 0.0, 0.0, 791.0952915066829, 0.0]
['beep', 0.0, -1581.341216724064, 0.0, 0.0, 0.0, 0.0, 791.8999543070739, 0.0]
['beep', 0.0, -1580.8494783460474, 0.0, 0.0, 0.0, 0.0, 791.4976229068784, 0.0]
['beep', 0.0, -1588.4267197163965, 0.0, 0.0, 0.0, 0.0, 787.5860676271997, 0.0]
['beep', 0.0, -1592.69590290736, 0.0, 0.0, 0.0, 0.0, 787.1837362270041, 0.0]
['beep', 0.0, -1590.3489697395528, 0.0, 0.0, 0.0, 0.0, 791.6987886069761, 0.0]
['beep', 0.0, -1585.2751237481982, 0.0, 0.0, 0.0, 0.0, 794.5598118972555, 0.0]
['beep', 0.0, -1585.6774551483936, 0.0, 0.0, 0.0, 0.0, 791.4305676735124, 0.0]
['beep', 0.0, -1591.1983360288546, 0.0, 0.0, 0.0, 0.0, 786.6249426156214, 0.0]
['beep', 0.0, -1591.019522073212, 0.0, 0.0, 0.0, 0.0, 787.4966606493784, 0.0]
['beep', 0.0, -1587.1079667935333, 0.0, 0.0, 0.0, 0.0, 792.3916926850907, 0.0]
['beep', 0.0, -1582.3693969690082, 0.0, 0.0, 0.0, 0.0, 795.0739020197275, 0.0]
['beep', 0.0, -1585.6774551483936, 0.0, 0.0, 0.0, 0.0, 791.2294019734147, 0.0]
['beep', 0.0, -1591.8241848736031, 0.0, 0.0, 0.0, 0.0, 786.2449629598813, 0.0]
['beep', 0.0, -1595.176946541899, 0.0, 0.0, 0.0, 0.0, 787.317846693736, 0.0]
['beep', 0.0, -1591.8688883625136, 0.0, 0.0, 0.0, 0.0, 791.8999543070739, 0.0]
['beep', 0.0, -1584.828088859092, 0.0, 0.0, 0.0, 0.0, 793.2410589743923, 0.0]
['beep', 0.0, -1583.665798147416, 0.0, 0.0, 0.0, 0.0, 789.8882973060963, 0.0]
['beep', 0.0, -1589.3878447279747, 0.0, 0.0, 0.0, 0.0, 786.513183893345, 0.0]
['beep', 0.0, -1590.6618941619272, 0.0, 0.0, 0.0, 0.0, 787.0272740158169, 0.0]
['beep', 0.0, -1587.8455743605584, 0.0, 0.0, 0.0, 0.0, 791.9893612848952, 0.0]
['beep', 0.0, -1585.699806892849, 0.0, 0.0, 0.0, 0.0, 794.6268671306213, 0.0]
['beep', 0.0, -1587.4655947048182, 0.0, 0.0, 0.0, 0.0, 791.318808951236, 0.0]
['beep', 0.0, -1592.7853098851813, 0.0, 0.0, 0.0, 0.0, 787.6531228605655, 0.0]
['beep', 0.0, -1593.2770482631981, 0.0, 0.0, 0.0, 0.0, 789.4412624169902, 0.0]
['beep', 0.0, -1588.8737546055027, 0.0, 0.0, 0.0, 0.0, 792.9504862964734, 0.0]
['beep', 0.0, -1585.6551034039383, 0.0, 0.0, 0.0, 0.0, 795.9679717979398, 0.0]
['beep', 0.0, -1587.4432429603628, 0.0, 0.0, 0.0, 0.0, 792.9504862964734, 0.0]
['beep', 0.0, -1594.796966886159, 0.0, 0.0, 0.0, 0.0, 788.4801374054119, 0.0]
['beep', 0.0, -1596.7862721426814, 0.0, 0.0, 0.0, 0.0, 789.1059862501605, 0.0]
['beep', 0.0, -1592.6064959295388, 0.0, 0.0, 0.0, 0.0, 792.9057828075628, 0.0]
['beep', 0.0, -1584.6269231589943, 0.0, 0.0, 0.0, 0.0, 796.34795145368, 0.0]
['beep', 0.0, -1585.2080685148321, 0.0, 0.0, 0.0, 0.0, 792.4587479184567, 0.0]
['beep', 0.0, -1592.539440696173, 0.0, 0.0, 0.0, 0.0, 787.5190123938337, 0.0]
['beep', 0.0, -1594.6181529305165, 0.0, 0.0, 0.0, 0.0, 788.4354339165013, 0.0]
['beep', 0.0, -1589.4548999613405, 0.0, 0.0, 0.0, 0.0, 791.2070502289594, 0.0]
['beep', 0.0, -1583.2634667472205, 0.0, 0.0, 0.0, 0.0, 795.2527159753699, 0.0]
['beep', 0.0, -1587.2197255158098, 0.0, 0.0, 0.0, 0.0, 793.5316316523114, 0.0]
['beep', 0.0, -1593.9252488524019, 0.0, 0.0, 0.0, 0.0, 789.4412624169902, 0.0]
['beep', 0.0, -1595.8027953866476, 0.0, 0.0, 0.0, 0.0, 788.5918961276885, 0.0]
['beep', 0.0, -1591.9359435958795, 0.0, 0.0, 0.0, 0.0, 791.7211403514315, 0.0]
['beep', 0.0, -1587.4432429603628, 0.0, 0.0, 0.0, 0.0, 795.1633089975487, 0.0]
['beep', 0.0, -1588.3820162274858, 0.0, 0.0, 0.0, 0.0, 794.2915909637918, 0.0]
['beep', 0.0, -1590.6171906730165, 0.0, 0.0, 0.0, 0.0, 788.6589513610544, 0.0]
['beep', 0.0, -1591.8465366180583, 0.0, 0.0, 0.0, 0.0, 788.3236751942248, 0.0]
['beep', 0.0, -1592.6511994184496, 0.0, 0.0, 0.0, 0.0, 791.4976229068784, 0.0]
['beep', 0.0, -1592.3606267405305, 0.0, 0.0, 0.0, 0.0, 795.2303642309147, 0.0]
['beep', 0.0, -1592.0253505737007, 0.0, 0.0, 0.0, 0.0, 794.1351287526046, 0.0]
['beep', 0.0, -1589.7231208948042, 0.0, 0.0, 0.0, 0.0, 789.6424281170879, 0.0]
['beep', 0.0, -1587.7114638938265, 0.0, 0.0, 0.0, 0.0, 790.2235734729259, 0.0]
['beep', 0.0, -1585.0963097925558, 0.0, 0.0, 0.0, 0.0, 795.3644746976465, 0.0]
['beep', 0.0, -1583.7552051252371, 0.0, 0.0, 0.0, 0.0, 796.6832276205097, 0.0]
['beep', 0.0, -1583.4646324473183, 0.0, 0.0, 0.0, 0.0, 795.4538816754678, 0.0]
['beep', 0.0, -1586.2809522486868, 0.0, 0.0, 0.0, 0.0, 792.1681752405376, 0.0]
['beep', 0.0, -1590.6618941619272, 0.0, 0.0, 0.0, 0.0, 791.8552508181633, 0.0]
['beep', 0.0, -1591.5783156845946, 0.0, 0.0, 0.0, 0.0, 795.9232683090291, 0.0]
['beep', 0.0, -1588.829051116592, 0.0, 0.0, 0.0, 0.0, 798.6054776436661, 0.0]
['beep', 0.0, -1589.1643272834215, 0.0, 0.0, 0.0, 0.0, 795.3644746976465, 0.0]
['beep', 0.0, -1593.8805453634914, 0.0, 0.0, 0.0, 0.0, 790.0447595172834, 0.0]
['beep', 0.0, -1596.0486645756562, 0.0, 0.0, 0.0, 0.0, 789.3295036947136, 0.0]
['beep', 0.0, -1595.3334087530864, 0.0, 0.0, 0.0, 0.0, 791.7211403514315, 0.0]
['beep', 0.0, -1592.8076616296366, 0.0, 0.0, 0.0, 0.0, 793.799852585775, 0.0]
['beep', 0.0, -1594.5958011860612, 0.0, 0.0, 0.0, 0.0, 793.285762463303, 0.0]
['beep', 0.0, -1598.2391355322761, 0.0, 0.0, 0.0, 0.0, 789.7988903282751, 0.0]
['beep', 0.0, -1597.278010520698, 0.0, 0.0, 0.0, 0.0, 789.0389310167947, 0.0]
['beep', 0.0, -1592.986475585279, 0.0, 0.0, 0.0, 0.0, 792.2128787294482, 0.0]
['beep', 0.0, -1591.310094751131, 0.0, 0.0, 0.0, 0.0, 794.3362944527024, 0.0]
['beep', 0.0, -1591.9135918514244, 0.0, 0.0, 0.0, 0.0, 792.056416518261, 0.0]
['beep', 0.0, -1594.953429097346, 0.0, 0.0, 0.0, 0.0, 789.0165792723393, 0.0]
['beep', 0.0, -1596.7192169093153, 0.0, 0.0, 0.0, 0.0, 788.0107507718504, 0.0]
['beep', 0.0, -1594.7522633972483, 0.0, 0.0, 0.0, 0.0, 790.4470909174789, 0.0]
['beep', 0.0, -1591.7794813846924, 0.0, 0.0, 0.0, 0.0, 793.3304659522136, 0.0]
['beep', 0.0, -1592.3382749960751, 0.0, 0.0, 0.0, 0.0, 792.123471751627, 0.0]
['beep', 0.0, -1596.1604232979325, 0.0, 0.0, 0.0, 0.0, 787.9213437940292, 0.0]
['beep', 0.0, -1597.1886035428768, 0.0, 0.0, 0.0, 0.0, 788.8154135722416, 0.0]
['beep', 0.0, -1591.734777895782, 0.0, 0.0, 0.0, 0.0, 792.5258031518225, 0.0]
['beep', 0.0, -1586.5268214376954, 0.0, 0.0, 0.0, 0.0, 795.5209369088336, 0.0]
['beep', 0.0, -1589.4548999613405, 0.0, 0.0, 0.0, 0.0, 792.6152101296437, 0.0]
['beep', 0.0, -1595.7357401532818, 0.0, 0.0, 0.0, 0.0, 788.9271722945181, 0.0]
['beep', 0.0, -1596.182775042388, 0.0, 0.0, 0.0, 0.0, 788.0778060052164, 0.0]
['beep', 0.0, -1593.701731407849, 0.0, 0.0, 0.0, 0.0, 793.0845967632052, 0.0]
['beep', 0.0, -1589.7007691503488, 0.0, 0.0, 0.0, 0.0, 796.4597101759566, 0.0]
['beep', 0.0, -1588.4267197163965, 0.0, 0.0, 0.0, 0.0, 792.8834310631074, 0.0]
['beep', 0.0, -1591.8241848736031, 0.0, 0.0, 0.0, 0.0, 787.898992049574, 0.0]
['beep', 0.0, -1594.9087256084354, 0.0, 0.0, 0.0, 0.0, 788.1001577496717, 0.0]
['beep', 0.0, -1592.2712197627093, 0.0, 0.0, 0.0, 0.0, 791.3635124401466, 0.0]
['beep', 0.0, -1588.7843476276814, 0.0, 0.0, 0.0, 0.0, 792.2799339628142, 0.0]
['beep', 0.0, -1588.6725889054048, 0.0, 0.0, 0.0, 0.0, 791.2741054623253, 0.0]
['beep', 0.0, -1591.8465366180583, 0.0, 0.0, 0.0, 0.0, 787.0049222713617, 0.0]
['beep', 0.0, -1595.4451674753627, 0.0, 0.0, 0.0, 0.0, 786.4237769155237, 0.0]
['beep', 0.0, -1593.9476005968572, 0.0, 0.0, 0.0, 0.0, 789.1059862501605, 0.0]
['beep', 0.0, -1588.627885416494, 0.0, 0.0, 0.0, 0.0, 792.771672340831, 0.0]
['beep', 0.0, -1587.4879464492735, 0.0, 0.0, 0.0, 0.0, 792.3246374517248, 0.0]
['beep', 0.0, -1591.6453709179607, 0.0, 0.0, 0.0, 0.0, 788.2566199608589, 0.0]
['beep', 0.0, -1596.2945337646645, 0.0, 0.0, 0.0, 0.0, 786.513183893345, 0.0]
['beep', 0.0, -1592.114757551522, 0.0, 0.0, 0.0, 0.0, 792.2352304739036, 0.0]
['beep', 0.0, -1586.2586005042317, 0.0, 0.0, 0.0, 0.0, 795.8785648201185, 0.0]
['beep', 0.0, -1587.8455743605584, 0.0, 0.0, 0.0, 0.0, 793.3528176966689, 0.0]
['beep', 0.0, -1593.2770482631981, 0.0, 0.0, 0.0, 0.0, 790.3800356841131, 0.0]
['beep', 0.0, -1596.0039610867454, 0.0, 0.0, 0.0, 0.0, 790.4023874285683, 0.0]
['beep', 0.0, -1592.5841441850835, 0.0, 0.0, 0.0, 0.0, 794.5821636417107, 0.0]
['beep', 0.0, -1587.9126295939243, 0.0, 0.0, 0.0, 0.0, 796.415006687046, 0.0]
['beep', 0.0, -1589.1643272834215, 0.0, 0.0, 0.0, 0.0, 793.6657421190432, 0.0]
['beep', 0.0, -1593.5452691966618, 0.0, 0.0, 0.0, 0.0, 790.1118147506494, 0.0]
['beep', 0.0, -1593.2546965187428, 0.0, 0.0, 0.0, 0.0, 788.994227527884, 0.0]
['beep', 0.0, -1588.5831819275836, 0.0, 0.0, 0.0, 0.0, 792.8834310631074, 0.0]
['beep', 0.0, -1583.9787225697903, 0.0, 0.0, 0.0, 0.0, 796.4597101759566, 0.0]
['beep', 0.0, -1585.2751237481982, 0.0, 0.0, 0.0, 0.0, 793.5539833967666, 0.0]
['beep', 0.0, -1592.047702318156, 0.0, 0.0, 0.0, 0.0, 788.4354339165013, 0.0]
['beep', 0.0, -1595.7133884088264, 0.0, 0.0, 0.0, 0.0, 789.5530211392667, 0.0]
['beep', 0.0, -1591.8241848736031, 0.0, 0.0, 0.0, 0.0, 793.576335141222, 0.0]
['beep', 0.0, -1586.9515045823462, 0.0, 0.0, 0.0, 0.0, 794.9174398085404, 0.0]
['beep', 0.0, -1587.8008708716477, 0.0, 0.0, 0.0, 0.0, 793.3304659522136, 0.0]
['beep', 0.0, -1593.1205860520108, 0.0, 0.0, 0.0, 0.0, 789.6424281170879, 0.0]
['beep', 0.0, -1596.1604232979325, 0.0, 0.0, 0.0, 0.0, 789.7094833504539, 0.0]
['beep', 0.0, -1593.3888069854745, 0.0, 0.0, 0.0, 0.0, 793.6880938634985, 0.0]
['beep', 0.0, -1588.6725889054048, 0.0, 0.0, 0.0, 0.0, 796.3926549425906, 0.0]
['beep', 0.0, -1589.0749203056002, 0.0, 0.0, 0.0, 0.0, 793.8445560746857, 0.0]
['beep', 0.0, -1593.2546965187428, 0.0, 0.0, 0.0, 0.0, 789.0389310167947, 0.0]
['beep', 0.0, -1594.5510976971505, 0.0, 0.0, 0.0, 0.0, 789.1506897390711, 0.0]
['beep', 0.0, -1591.5783156845946, 0.0, 0.0, 0.0, 0.0, 793.9116113080515, 0.0]
['beep', 0.0, -1587.7114638938265, 0.0, 0.0, 0.0, 0.0, 797.0632072762498, 0.0]
['beep', 0.0, -1587.7114638938265, 0.0, 0.0, 0.0, 0.0, 793.3304659522136, 0.0]
['beep', 0.0, -1592.986475585279, 0.0, 0.0, 0.0, 0.0, 788.6589513610544, 0.0]
['beep', 0.0, -1595.8027953866476, 0.0, 0.0, 0.0, 0.0, 788.4130821720461, 0.0]
['beep', 0.0, -1592.9194203519132, 0.0, 0.0, 0.0, 0.0, 790.9388292954957, 0.0]
['beep', 0.0, -1588.2926092496646, 0.0, 0.0, 0.0, 0.0, 794.1127770081494, 0.0]
['beep', 0.0, -1589.6784174058937, 0.0, 0.0, 0.0, 0.0, 792.2799339628142, 0.0]
['beep', 0.0, -1595.7357401532818, 0.0, 0.0, 0.0, 0.0, 787.6978263494761, 0.0]
['beep', 0.0, -1597.6132866875275, 0.0, 0.0, 0.0, 0.0, 785.7755763263198, 0.0]
['beep', 0.0, -1593.3888069854745, 0.0, 0.0, 0.0, 0.0, 788.3236751942248, 0.0]
['beep', 0.0, -1588.5161266942177, 0.0, 0.0, 0.0, 0.0, 791.5199746513337, 0.0]
['beep', 0.0, -1590.6395424174718, 0.0, 0.0, 0.0, 0.0, 789.1506897390711, 0.0]
['beep', 0.0, -1595.668684919916, 0.0, 0.0, 0.0, 0.0, 785.4179484150349, 0.0]
['beep', 0.0, -1596.2945337646645, 0.0, 0.0, 0.0, 0.0, 784.2556577033589, 0.0]
['beep', 0.0, -1592.181812784888, 0.0, 0.0, 0.0, 0.0, 787.4966606493784, 0.0]
['beep', 0.0, -1588.5608301831282, 0.0, 0.0, 0.0, 0.0, 790.6929601064874, 0.0]
['beep', 0.0, -1592.3829784849859, 0.0, 0.0, 0.0, 0.0, 788.7483583388756, 0.0]
['beep', 0.0, -1596.4509959758516, 0.0, 0.0, 0.0, 0.0, 784.4121199145461, 0.0]
['beep', 0.0, -1595.467519219818, 0.0, 0.0, 0.0, 0.0, 782.735739080398, 0.0]
['beep', 0.0, -1589.343141239064, 0.0, 0.0, 0.0, 0.0, 784.7250443369204, 0.0]
['beep', 0.0, -1586.4150627154188, 0.0, 0.0, 0.0, 0.0, 787.9660472829398, 0.0]
['beep', 0.0, -1589.41019647243, 0.0, 0.0, 0.0, 0.0, 785.5744106262221, 0.0]
['beep', 0.0, -1594.50639420824, 0.0, 0.0, 0.0, 0.0, 780.4558611459568, 0.0]
['beep', 0.0, -1596.4286442313964, 0.0, 0.0, 0.0, 0.0, 779.4723843899231, 0.0]
['beep', 0.0, -1591.5783156845946, 0.0, 0.0, 0.0, 0.0, 783.2051257139594, 0.0]
['beep', 0.0, -1587.5550016826394, 0.0, 0.0, 0.0, 0.0, 785.6191141151327, 0.0]
['beep', 0.0, -1588.9184580944132, 0.0, 0.0, 0.0, 0.0, 782.2887041912919, 0.0]
['beep', 0.0, -1592.8747168630025, 0.0, 0.0, 0.0, 0.0, 777.9077622780517, 0.0]
['beep', 0.0, -1595.8474988755584, 0.0, 0.0, 0.0, 0.0, 777.3936721555797, 0.0]
['beep', 0.0, -1593.344103496564, 0.0, 0.0, 0.0, 0.0, 781.0370065017947, 0.0]
['beep', 0.0, -1588.8514028610473, 0.0, 0.0, 0.0, 0.0, 782.735739080398, 0.0]
['beep', 0.0, -1589.1866790278768, 0.0, 0.0, 0.0, 0.0, 779.8747157901187, 0.0]
['beep', 0.0, -1593.4782139632957, 0.0, 0.0, 0.0, 0.0, 775.5608291102444, 0.0]
['beep', 0.0, -1594.1711180414104, 0.0, 0.0, 0.0, 0.0, 774.6891110764875, 0.0]
['beep', 0.0, -1590.9971703287567, 0.0, 0.0, 0.0, 0.0, 778.220686700426, 0.0]
['beep', 0.0, -1587.7561673827372, 0.0, 0.0, 0.0, 0.0, 781.864021046641, 0.0]
['beep', 0.0, -1588.761995883226, 0.0, 0.0, 0.0, 0.0, 779.673550090021, 0.0]
['beep', 0.0, -1593.567620941117, 0.0, 0.0, 0.0, 0.0, 774.4655936319344, 0.0]
['beep', 0.0, -1595.668684919916, 0.0, 0.0, 0.0, 0.0, 773.9962069983729, 0.0]
['beep', 0.0, -1591.6230191735053, 0.0, 0.0, 0.0, 0.0, 778.5336111228003, 0.0]
['beep', 0.0, -1588.0243883162009, 0.0, 0.0, 0.0, 0.0, 780.768785568331, 0.0]
['beep', 0.0, -1590.1254522949998, 0.0, 0.0, 0.0, 0.0, 777.9971692558729, 0.0]
['beep', 0.0, -1593.5229174522065, 0.0, 0.0, 0.0, 0.0, 774.9126285210406, 0.0]
['beep', 0.0, -1595.1098913085332, 0.0, 0.0, 0.0, 0.0, 774.1303174651048, 0.0]
['beep', 0.0, -1591.5783156845946, 0.0, 0.0, 0.0, 0.0, 778.0418727447835, 0.0]
['beep', 0.0, -1587.7338156382818, 0.0, 0.0, 0.0, 0.0, 781.5958001131773, 0.0]
['beep', 0.0, -1588.3373127385753, 0.0, 0.0, 0.0, 0.0, 779.2488669453701, 0.0]
['beep', 0.0, -1592.472385462807, 0.0, 0.0, 0.0, 0.0, 774.1079657206495, 0.0]
['beep', 0.0, -1594.9757808418015, 0.0, 0.0, 0.0, 0.0, 773.8397447871859, 0.0]
['beep', 0.0, -1592.0700540626115, 0.0, 0.0, 0.0, 0.0, 778.9806460119064, 0.0]
['beep', 0.0, -1587.7785191271926, 0.0, 0.0, 0.0, 0.0, 782.3110559357472, 0.0]
['beep', 0.0, -1589.1419755389663, 0.0, 0.0, 0.0, 0.0, 778.9582942674512, 0.0]
['beep', 0.0, -1594.1264145524997, 0.0, 0.0, 0.0, 0.0, 774.5550006097557, 0.0]
['beep', 0.0, -1596.2945337646645, 0.0, 0.0, 0.0, 0.0, 773.3927098980797, 0.0]
['beep', 0.0, -1593.4111587299299, 0.0, 0.0, 0.0, 0.0, 776.7007680774651, 0.0]
['beep', 0.0, -1589.41019647243, 0.0, 0.0, 0.0, 0.0, 779.6959018344762, 0.0]
['beep', 0.0, -1589.566658683617, 0.0, 0.0, 0.0, 0.0, 778.2430384448813, 0.0]
['beep', 0.0, -1594.3275802525975, 0.0, 0.0, 0.0, 0.0, 774.286779676292, 0.0]
['beep', 0.0, -1596.115719809022, 0.0, 0.0, 0.0, 0.0, 773.0574337312501, 0.0]
['beep', 0.0, -1592.0253505737007, 0.0, 0.0, 0.0, 0.0, 776.2090296994484, 0.0]
['beep', 0.0, -1587.6891121493713, 0.0, 0.0, 0.0, 0.0, 778.6453698450769, 0.0]
['beep', 0.0, -1589.7454726392596, 0.0, 0.0, 0.0, 0.0, 776.7454715663757, 0.0]
['beep', 0.0, -1594.6181529305165, 0.0, 0.0, 0.0, 0.0, 773.415061642535, 0.0]
['beep', 0.0, -1595.0651878196227, 0.0, 0.0, 0.0, 0.0, 772.4315848865015, 0.0]
['beep', 0.0, -1592.0253505737007, 0.0, 0.0, 0.0, 0.0, 776.4325471440014, 0.0]
['beep', 0.0, -1587.9349813383797, 0.0, 0.0, 0.0, 0.0, 778.7124250784427, 0.0]
['beep', 0.0, -1588.8066993721366, 0.0, 0.0, 0.0, 0.0, 776.7454715663757, 0.0]
['beep', 0.0, -1594.0817110635892, 0.0, 0.0, 0.0, 0.0, 773.7726895538199, 0.0]
['beep', 0.0, -1595.2216500308098, 0.0, 0.0, 0.0, 0.0, 772.8786197756076, 0.0]
['beep', 0.0, -1591.3547982400416, 0.0, 0.0, 0.0, 0.0, 777.0136924998394, 0.0]
['beep', 0.0, -1589.0749203056002, 0.0, 0.0, 0.0, 0.0, 780.545268123778, 0.0]
['beep', 0.0, -1589.4548999613405, 0.0, 0.0, 0.0, 0.0, 777.5724861112221, 0.0]
['beep', 0.0, -1592.7853098851813, 0.0, 0.0, 0.0, 0.0, 773.1021372201607, 0.0]
['beep', 0.0, -1595.6463331754605, 0.0, 0.0, 0.0, 0.0, 772.7892127977864, 0.0]
['beep', 0.0, -1591.757129640237, 0.0, 0.0, 0.0, 0.0, 776.9019337775629, 0.0]
['beep', 0.0, -1587.9126295939243, 0.0, 0.0, 0.0, 0.0, 779.2488669453701, 0.0]
['beep', 0.0, -1589.119623794511, 0.0, 0.0, 0.0, 0.0, 777.1925064554819, 0.0]
['beep', 0.0, -1592.8747168630025, 0.0, 0.0, 0.0, 0.0, 772.5880470976887, 0.0]
['beep', 0.0, -1593.7687866412148, 0.0, 0.0, 0.0, 0.0, 771.1798871970043, 0.0]
['beep', 0.0, -1590.4607284618294, 0.0, 0.0, 0.0, 0.0, 775.672587832521, 0.0]
['beep', 0.0, -1586.9515045823462, 0.0, 0.0, 0.0, 0.0, 778.4665558894344, 0.0]
['beep', 0.0, -1588.829051116592, 0.0, 0.0, 0.0, 0.0, 775.5831808546998, 0.0]
['beep', 0.0, -1593.701731407849, 0.0, 0.0, 0.0, 0.0, 771.6045703416551, 0.0]
['beep', 0.0, -1594.2605250192316, 0.0, 0.0, 0.0, 0.0, 770.8446110301746, 0.0]
['beep', 0.0, -1591.7794813846924, 0.0, 0.0, 0.0, 0.0, 775.0467389877724, 0.0]
['beep', 0.0, -1587.2420772602652, 0.0, 0.0, 0.0, 0.0, 776.320788421725, 0.0]
['beep', 0.0, -1587.957333082835, 0.0, 0.0, 0.0, 0.0, 773.7726895538199, 0.0]
['beep', 0.0, -1592.3159232516198, 0.0, 0.0, 0.0, 0.0, 770.285817418792, 0.0]
['beep', 0.0, -1594.3946354859634, 0.0, 0.0, 0.0, 0.0, 769.9281895075071, 0.0]
['beep', 0.0, -1591.734777895782, 0.0, 0.0, 0.0, 0.0, 773.2362476868925, 0.0]
['beep', 0.0, -1588.6725889054048, 0.0, 0.0, 0.0, 0.0, 774.9796837544064, 0.0]
['beep', 0.0, -1589.2984377501534, 0.0, 0.0, 0.0, 0.0, 771.6492738305657, 0.0]
['beep', 0.0, -1592.9194203519132, 0.0, 0.0, 0.0, 0.0, 767.2012766839596, 0.0]
['beep', 0.0, -1592.6288476739942, 0.0, 0.0, 0.0, 0.0, 767.3130354062362, 0.0]
['beep', 0.0, -1588.761995883226, 0.0, 0.0, 0.0, 0.0, 770.9116662635406, 0.0]
['beep', 0.0, -1583.6434464029608, 0.0, 0.0, 0.0, 0.0, 770.1964104409708, 0.0]
['beep', 0.0, -1583.0399493026673, 0.0, 0.0, 0.0, 0.0, 768.0729947177166, 0.0]
['beep', 0.0, -1587.666760404916, 0.0, 0.0, 0.0, 0.0, 763.5355905932893, 0.0]
['beep', 0.0, -1591.6453709179607, 0.0, 0.0, 0.0, 0.0, 758.417041113024, 0.0]
['beep', 0.0, -1589.4325482168852, 0.0, 0.0, 0.0, 0.0, 760.1381254360825, 0.0]
['beep', 0.0, -1580.7600713682261, 0.0, 0.0, 0.0, 0.0, 762.7979830262641, 0.0]
['beep', 0.0, -1578.6143039005167, 0.0, 0.0, 0.0, 0.0, 759.9593114804401, 0.0]
['beep', 0.0, -1584.7833853701813, 0.0, 0.0, 0.0, 0.0, 752.4938288323676, 0.0]
['beep', 0.0, -1587.8455743605584, 0.0, 0.0, 0.0, 0.0, 750.929206720496, 0.0]
['beep', 0.0, -1583.5316876806842, 0.0, 0.0, 0.0, 0.0, 754.9525207224514, 0.0]
['beep', 0.0, -1579.083690534078, 0.0, 0.0, 0.0, 0.0, 756.7853637677865, 0.0]
['beep', 0.0, -1580.1342225234775, 0.0, 0.0, 0.0, 0.0, 751.7115177764318, 0.0]
['beep', 0.0, -1585.6103999150278, 0.0, 0.0, 0.0, 0.0, 746.3023956182475, 0.0]
['beep', 0.0, -1587.1303185379886, 0.0, 0.0, 0.0, 0.0, 746.3023956182475, 0.0]
['beep', 0.0, -1583.4646324473183, 0.0, 0.0, 0.0, 0.0, 749.029308441795, 0.0]
['beep', 0.0, -1579.6201324010053, 0.0, 0.0, 0.0, 0.0, 751.4656485874234, 0.0]
['beep', 0.0, -1580.022463801201, 0.0, 0.0, 0.0, 0.0, 749.1634189085269, 0.0]
['beep', 0.0, -1585.2304202592875, 0.0, 0.0, 0.0, 0.0, 743.6872415169765, 0.0]
['beep', 0.0, -1587.7338156382818, 0.0, 0.0, 0.0, 0.0, 742.9049304610409, 0.0]
['beep', 0.0, -1583.442280702863, 0.0, 0.0, 0.0, 0.0, 746.9729479519067, 0.0]
['beep', 0.0, -1579.9777603122902, 0.0, 0.0, 0.0, 0.0, 750.2810061312922, 0.0]
['beep', 0.0, -1580.8718300905027, 0.0, 0.0, 0.0, 0.0, 748.0681834302168, 0.0]
['beep', 0.0, -1584.4257574588964, 0.0, 0.0, 0.0, 0.0, 743.7319450058872, 0.0]
['beep', 0.0, -1587.1303185379886, 0.0, 0.0, 0.0, 0.0, 742.0555641717392, 0.0]
['beep', 0.0, -1583.7105016363266, 0.0, 0.0, 0.0, 0.0, 746.1012299181498, 0.0]
['beep', 0.0, -1579.4636701898182, 0.0, 0.0, 0.0, 0.0, 748.7610875083313, 0.0]
['beep', 0.0, -1580.2906847346646, 0.0, 0.0, 0.0, 0.0, 746.704727018443, 0.0]
['beep', 0.0, -1584.9621993258238, 0.0, 0.0, 0.0, 0.0, 742.3237851052029, 0.0]
['beep', 0.0, -1587.085615049078, 0.0, 0.0, 0.0, 0.0, 741.5191223048118, 0.0]
['beep', 0.0, -1584.246943503254, 0.0, 0.0, 0.0, 0.0, 745.38597409558, 0.0]
['beep', 0.0, -1580.3353882235754, 0.0, 0.0, 0.0, 0.0, 748.7163840194207, 0.0]
['beep', 0.0, -1580.6483126459495, 0.0, 0.0, 0.0, 0.0, 744.9389392064738, 0.0]
['beep', 0.0, -1585.0739580481004, 0.0, 0.0, 0.0, 0.0, 740.1780176374933, 0.0]
['beep', 0.0, -1586.795042371159, 0.0, 0.0, 0.0, 0.0, 739.7309827483872, 0.0]
['beep', 0.0, -1584.2692952477094, 0.0, 0.0, 0.0, 0.0, 743.3072618612364, 0.0]
['beep', 0.0, -1580.2012777568434, 0.0, 0.0, 0.0, 0.0, 746.7941339962642, 0.0]
['beep', 0.0, -1580.245981245754, 0.0, 0.0, 0.0, 0.0, 744.6707182730102, 0.0]
['beep', 0.0, -1585.0069028147345, 0.0, 0.0, 0.0, 0.0, 741.0273839267951, 0.0]
['beep', 0.0, -1585.7668621262148, 0.0, 0.0, 0.0, 0.0, 740.2897763597699, 0.0]
['beep', 0.0, -1582.570562669106, 0.0, 0.0, 0.0, 0.0, 744.1119246616274, 0.0]
['beep', 0.0, -1578.7931178561591, 0.0, 0.0, 0.0, 0.0, 747.1517619075491, 0.0]
['beep', 0.0, -1578.5919521560613, 0.0, 0.0, 0.0, 0.0, 746.3470991071581, 0.0]
['beep', 0.0, -1582.5258591801953, 0.0, 0.0, 0.0, 0.0, 742.2343781273817, 0.0]
['beep', 0.0, -1584.7163301368155, 0.0, 0.0, 0.0, 0.0, 741.38501183808, 0.0]
['beep', 0.0, -1581.5423824241618, 0.0, 0.0, 0.0, 0.0, 745.7436020068649, 0.0]
['beep', 0.0, -1577.4520131888407, 0.0, 0.0, 0.0, 0.0, 748.7163840194207, 0.0]
['beep', 0.0, -1578.1449172669552, 0.0, 0.0, 0.0, 0.0, 747.2635206298257, 0.0]
['beep', 0.0, -1583.151708024944, 0.0, 0.0, 0.0, 0.0, 743.1955031389598, 0.0]
['beep', 0.0, -1585.051606303645, 0.0, 0.0, 0.0, 0.0, 742.0108606828286, 0.0]
['beep', 0.0, -1582.4811556912848, 0.0, 0.0, 0.0, 0.0, 745.609491540133, 0.0]
['beep', 0.0, -1578.8154696006143, 0.0, 0.0, 0.0, 0.0, 749.2528258863481, 0.0]
['beep', 0.0, -1579.888353334469, 0.0, 0.0, 0.0, 0.0, 748.4705148304123, 0.0]
['beep', 0.0, -1583.6434464029608, 0.0, 0.0, 0.0, 0.0, 743.8437037281637, 0.0]
['beep', 0.0, -1584.2245917587986, 0.0, 0.0, 0.0, 0.0, 742.8155234832196, 0.0]
['beep', 0.0, -1580.2012777568434, 0.0, 0.0, 0.0, 0.0, 747.1294101630939, 0.0]
['beep', 0.0, -1576.6920538773602, 0.0, 0.0, 0.0, 0.0, 749.3645846086246, 0.0]
['beep', 0.0, -1578.5248969226955, 0.0, 0.0, 0.0, 0.0, 747.5987967966553, 0.0]
['beep', 0.0, -1582.279989991187, 0.0, 0.0, 0.0, 0.0, 744.0448694282614, 0.0]
['beep', 0.0, -1585.051606303645, 0.0, 0.0, 0.0, 0.0, 743.7319450058872, 0.0]
['beep', 0.0, -1583.442280702863, 0.0, 0.0, 0.0, 0.0, 747.7329072633871, 0.0]
['beep', 0.0, -1579.6871876343714, 0.0, 0.0, 0.0, 0.0, 749.9233782200073, 0.0]
['beep', 0.0, -1578.703710878338, 0.0, 0.0, 0.0, 0.0, 747.9564247079402, 0.0]
['beep', 0.0, -1581.4976789352513, 0.0, 0.0, 0.0, 0.0, 743.3072618612364, 0.0]
['beep', 0.0, -1582.8164318581144, 0.0, 0.0, 0.0, 0.0, 742.9272822054961, 0.0]
['beep', 0.0, -1580.1342225234775, 0.0, 0.0, 0.0, 0.0, 746.7270787628984, 0.0]
['beep', 0.0, -1575.8426875880584, 0.0, 0.0, 0.0, 0.0, 750.0351369422838, 0.0]
['beep', 0.0, -1576.4014811994412, 0.0, 0.0, 0.0, 0.0, 747.9564247079402, 0.0]
['beep', 0.0, -1580.6259609014942, 0.0, 0.0, 0.0, 0.0, 744.0225176838062, 0.0]
['beep', 0.0, -1583.308170236131, 0.0, 0.0, 0.0, 0.0, 743.061392672228, 0.0]
['beep', 0.0, -1581.2965132351535, 0.0, 0.0, 0.0, 0.0, 746.6600235295324, 0.0]
['beep', 0.0, -1575.7756323546926, 0.0, 0.0, 0.0, 0.0, 751.3091863762363, 0.0]
['beep', 0.0, -1574.859210832025, 0.0, 0.0, 0.0, 0.0, 750.0351369422838, 0.0]
['beep', 0.0, -1578.3684347115081, 0.0, 0.0, 0.0, 0.0, 747.0623549297279, 0.0]
['beep', 0.0, -1580.8494783460474, 0.0, 0.0, 0.0, 0.0, 746.4365060849793, 0.0]
['beep', 0.0, -1577.4967166777512, 0.0, 0.0, 0.0, 0.0, 751.5327038207894, 0.0]
['beep', 0.0, -1567.21491422831, 0.0, 0.0, 0.0, 0.0, 756.6289015565994, 0.0]
['beep', 0.0, -1565.1362019939666, 0.0, 0.0, 0.0, 0.0, 755.9359974784849, 0.0]
['beep', 0.0, -1570.1206410075, 0.0, 0.0, 0.0, 0.0, 749.4539915864458, 0.0]
['beep', 0.0, -1576.1332602659775, 0.0, 0.0, 0.0, 0.0, 746.6153200406218, 0.0]
['beep', 0.0, -1579.1730975118992, 0.0, 0.0, 0.0, 0.0, 752.3373666211804, 0.0]
['beep', 0.0, -1575.306245721131, 0.0, 0.0, 0.0, 0.0, 754.8631137446301, 0.0]
['beep', 0.0, -1573.2498852312428, 0.0, 0.0, 0.0, 0.0, 750.3257096202028, 0.0]
['beep', 0.0, -1575.5297631656842, 0.0, 0.0, 0.0, 0.0, 744.5813112951889, 0.0]
['beep', 0.0, -1575.2615422322206, 0.0, 0.0, 0.0, 0.0, 744.2236833839039, 0.0]
['beep', 0.0, -1574.0321962871787, 0.0, 0.0, 0.0, 0.0, 747.352927607647, 0.0]
['beep', 0.0, -1571.2382282302653, 0.0, 0.0, 0.0, 0.0, 748.5152183193229, 0.0]
['beep', 0.0, -1569.2936264626535, 0.0, 0.0, 0.0, 0.0, 745.967119451418, 0.0]
['beep', 0.0, -1572.4675741753072, 0.0, 0.0, 0.0, 0.0, 740.3791833375911, 0.0]
['beep', 0.0, -1573.9204375649022, 0.0, 0.0, 0.0, 0.0, 738.1887123809711, 0.0]
['beep', 0.0, -1571.6405596304608, 0.0, 0.0, 0.0, 0.0, 741.4967705603565, 0.0]
['beep', 0.0, -1568.7795363401815, 0.0, 0.0, 0.0, 0.0, 744.8718839731079, 0.0]
['beep', 0.0, -1569.0254055291898, 0.0, 0.0, 0.0, 0.0, 739.8203897262084, 0.0]
['beep', 0.0, -1571.2605799747205, 0.0, 0.0, 0.0, 0.0, 734.0759914011945, 0.0]
['beep', 0.0, -1571.6405596304608, 0.0, 0.0, 0.0, 0.0, 733.4501425564459, 0.0]
['beep', 0.0, -1569.8077165851257, 0.0, 0.0, 0.0, 0.0, 736.6017385246442, 0.0]
['beep', 0.0, -1568.6901293623603, 0.0, 0.0, 0.0, 0.0, 738.7028025034431, 0.0]
['beep', 0.0, -1567.438431672863, 0.0, 0.0, 0.0, 0.0, 736.4899798023678, 0.0]
['beep', 0.0, -1569.40538518493, 0.0, 0.0, 0.0, 0.0, 732.6231280115996, 0.0]
['beep', 0.0, -1571.1935247413546, 0.0, 0.0, 0.0, 0.0, 730.320898332703, 0.0]
['beep', 0.0, -1568.3548531955307, 0.0, 0.0, 0.0, 0.0, 733.8748257010968, 0.0]
['beep', 0.0, -1564.733870593771, 0.0, 0.0, 0.0, 0.0, 736.28881410227, 0.0]
['beep', 0.0, -1565.1585537384217, 0.0, 0.0, 0.0, 0.0, 733.5395495342672, 0.0]
['beep', 0.0, -1569.2265712292876, 0.0, 0.0, 0.0, 0.0, 729.8515116991415, 0.0]
['beep', 0.0, -1571.7970218416478, 0.0, 0.0, 0.0, 0.0, 728.1751308649934, 0.0]
['beep', 0.0, -1569.40538518493, 0.0, 0.0, 0.0, 0.0, 731.1926163664599, 0.0]
['beep', 0.0, -1564.9797397827792, 0.0, 0.0, 0.0, 0.0, 734.3442123346582, 0.0]
['beep', 0.0, -1566.5667136391062, 0.0, 0.0, 0.0, 0.0, 732.3772588225912, 0.0]
['beep', 0.0, -1570.5900276410614, 0.0, 0.0, 0.0, 0.0, 727.2810610867812, 0.0]
['beep', 0.0, -1572.1993532418435, 0.0, 0.0, 0.0, 0.0, 726.7222674753986, 0.0]
['beep', 0.0, -1569.1818677403771, 0.0, 0.0, 0.0, 0.0, 731.0585058997281, 0.0]
['beep', 0.0, -1564.6891671048604, 0.0, 0.0, 0.0, 0.0, 732.3325553336806, 0.0]
['beep', 0.0, -1566.5667136391062, 0.0, 0.0, 0.0, 0.0, 730.6114710106219, 0.0]
['beep', 0.0, -1570.344158452053, 0.0, 0.0, 0.0, 0.0, 727.1916541089599, 0.0]
['beep', 0.0, -1572.2217049862988, 0.0, 0.0, 0.0, 0.0, 725.448218041446, 0.0]
['beep', 0.0, -1569.3383299515642, 0.0, 0.0, 0.0, 0.0, 729.8962151880521, 0.0]
['beep', 0.0, -1564.2868357046648, 0.0, 0.0, 0.0, 0.0, 733.5619012787225, 0.0]
['beep', 0.0, -1565.0467950161453, 0.0, 0.0, 0.0, 0.0, 731.8631687001191, 0.0]
['beep', 0.0, -1569.4500886738408, 0.0, 0.0, 0.0, 0.0, 727.2810610867812, 0.0]
['beep', 0.0, -1570.858248574525, 0.0, 0.0, 0.0, 0.0, 726.4987500308455, 0.0]
['beep', 0.0, -1568.1089840065222, 0.0, 0.0, 0.0, 0.0, 731.0361541552728, 0.0]
['beep', 0.0, -1564.7115188493156, 0.0, 0.0, 0.0, 0.0, 733.3160320897141, 0.0]
['beep', 0.0, -1564.376242682486, 0.0, 0.0, 0.0, 0.0, 731.0808576441834, 0.0]
['beep', 0.0, -1569.3159782071089, 0.0, 0.0, 0.0, 0.0, 727.6833924869767, 0.0]
['beep', 0.0, -1571.7523183527373, 0.0, 0.0, 0.0, 0.0, 726.8787296865856, 0.0]
['beep', 0.0, -1568.1760392398883, 0.0, 0.0, 0.0, 0.0, 730.030325654784, 0.0]
['beep', 0.0, -1564.219780471299, 0.0, 0.0, 0.0, 0.0, 733.159569878527, 0.0]
['beep', 0.0, -1564.7562223382263, 0.0, 0.0, 0.0, 0.0, 731.5725960222002, 0.0]
['beep', 0.0, -1568.6901293623603, 0.0, 0.0, 0.0, 0.0, 727.1693023645047, 0.0]
['beep', 0.0, -1569.2042194848323, 0.0, 0.0, 0.0, 0.0, 727.0128401533175, 0.0]
['beep', 0.0, -1563.7056903488267, 0.0, 0.0, 0.0, 0.0, 731.416133811013, 0.0]
['beep', 0.0, -1559.4365071578632, 0.0, 0.0, 0.0, 0.0, 734.0983431456499, 0.0]
['beep', 0.0, -1558.4977338907402, 0.0, 0.0, 0.0, 0.0, 732.1090378891275, 0.0]
['beep', 0.0, -1562.7222135927932, 0.0, 0.0, 0.0, 0.0, 728.5998140096443, 0.0]
['beep', 0.0, -1565.0691467606005, 0.0, 0.0, 0.0, 0.0, 730.6114710106219, 0.0]
['beep', 0.0, -1562.2081234703212, 0.0, 0.0, 0.0, 0.0, 734.6794885014879, 0.0]
['beep', 0.0, -1558.855361802025, 0.0, 0.0, 0.0, 0.0, 737.3393460916694, 0.0]
['beep', 0.0, -1559.0788792465783, 0.0, 0.0, 0.0, 0.0, 735.6853170019766, 0.0]
['beep', 0.0, -1562.8786758039805, 0.0, 0.0, 0.0, 0.0, 731.9302239334851, 0.0]
['beep', 0.0, -1565.0691467606005, 0.0, 0.0, 0.0, 0.0, 731.6172995111108, 0.0]
['beep', 0.0, -1563.281007204176, 0.0, 0.0, 0.0, 0.0, 736.6240902690996, 0.0]
['beep', 0.0, -1558.3636234240084, 0.0, 0.0, 0.0, 0.0, 739.351003092647, 0.0]
['beep', 0.0, -1558.1177542350001, 0.0, 0.0, 0.0, 0.0, 737.7863809807756, 0.0]
['beep', 0.0, -1562.8563240595252, 0.0, 0.0, 0.0, 0.0, 733.5619012787225, 0.0]
['beep', 0.0, -1566.7902310836591, 0.0, 0.0, 0.0, 0.0, 734.4559710569348, 0.0]
['beep', 0.0, -1564.9126845494134, 0.0, 0.0, 0.0, 0.0, 737.2946426027588, 0.0]
['beep', 0.0, -1560.2858734471647, 0.0, 0.0, 0.0, 0.0, 740.0215554263062, 0.0]
['beep', 0.0, -1560.8223153140923, 0.0, 0.0, 0.0, 0.0, 738.5910437811666, 0.0]
['beep', 0.0, -1564.666815360405, 0.0, 0.0, 0.0, 0.0, 733.3160320897141, 0.0]
['beep', 0.0, -1565.8961613054469, 0.0, 0.0, 0.0, 0.0, 732.2655001003146, 0.0]
['beep', 0.0, -1561.7387368367597, 0.0, 0.0, 0.0, 0.0, 736.9817181803845, 0.0]
['beep', 0.0, -1560.799963569637, 0.0, 0.0, 0.0, 0.0, 740.6027007821442, 0.0]
['beep', 0.0, -1562.9680827818017, 0.0, 0.0, 0.0, 0.0, 738.1887123809711, 0.0]
['beep', 0.0, -1563.9292077933799, 0.0, 0.0, 0.0, 0.0, 734.7018402459431, 0.0]
['beep', 0.0, -1566.1643822389105, 0.0, 0.0, 0.0, 0.0, 733.8748257010968, 0.0]
['beep', 0.0, -1566.3208444500976, 0.0, 0.0, 0.0, 0.0, 735.9088344465297, 0.0]
['beep', 0.0, -1562.632806614972, 0.0, 0.0, 0.0, 0.0, 739.9768519373956, 0.0]
['beep', 0.0, -1560.1964664693435, 0.0, 0.0, 0.0, 0.0, 738.2334158698817, 0.0]
['beep', 0.0, -1562.9680827818017, 0.0, 0.0, 0.0, 0.0, 733.5619012787225, 0.0]
['beep', 0.0, -1567.4607834173185, 0.0, 0.0, 0.0, 0.0, 733.1372181340716, 0.0]
['beep', 0.0, -1566.3655479390084, 0.0, 0.0, 0.0, 0.0, 737.5628635362225, 0.0]
['beep', 0.0, -1561.6269781144833, 0.0, 0.0, 0.0, 0.0, 740.1780176374933, 0.0]
['beep', 0.0, -1559.995300769246, 0.0, 0.0, 0.0, 0.0, 738.7922094812643, 0.0]
['beep', 0.0, -1564.7562223382263, 0.0, 0.0, 0.0, 0.0, 735.5959100241554, 0.0]
['beep', 0.0, -1568.5560188956285, 0.0, 0.0, 0.0, 0.0, 734.4112675680242, 0.0]
['beep', 0.0, -1565.8961613054469, 0.0, 0.0, 0.0, 0.0, 740.5579972932336, 0.0]
['beep', 0.0, -1560.8446670585474, 0.0, 0.0, 0.0, 0.0, 745.5200845623118, 0.0]
['beep', 0.0, -1560.0623560026118, 0.0, 0.0, 0.0, 0.0, 742.770819994309, 0.0]
['beep', 0.0, -1566.4549549168296, 0.0, 0.0, 0.0, 0.0, 738.3004711032476, 0.0]
['beep', 0.0, -1569.5171439072067, 0.0, 0.0, 0.0, 0.0, 737.965194936418, 0.0]
['beep', 0.0, -1564.3985944269414, 0.0, 0.0, 0.0, 0.0, 742.5025990608453, 0.0]
['beep', 0.0, -1561.246998458743, 0.0, 0.0, 0.0, 0.0, 745.8330089846861, 0.0]
['beep', 0.0, -1563.5492281376396, 0.0, 0.0, 0.0, 0.0, 743.284910116781, 0.0]
['beep', 0.0, -1566.8796380614804, 0.0, 0.0, 0.0, 0.0, 739.1498373925492, 0.0]
['beep', 0.0, -1568.2430944732541, 0.0, 0.0, 0.0, 0.0, 738.0098984253286, 0.0]
['beep', 0.0, -1567.7737078396926, 0.0, 0.0, 0.0, 0.0, 743.2625583723258, 0.0]
['beep', 0.0, -1563.9962630267457, 0.0, 0.0, 0.0, 0.0, 747.0176514408173, 0.0]
['beep', 0.0, -1564.219780471299, 0.0, 0.0, 0.0, 0.0, 744.0001659393508, 0.0]
['beep', 0.0, -1567.3266729505865, 0.0, 0.0, 0.0, 0.0, 739.7086310039319, 0.0]
['beep', 0.0, -1569.2265712292876, 0.0, 0.0, 0.0, 0.0, 739.7533344928426, 0.0]
['beep', 0.0, -1565.6055886275278, 0.0, 0.0, 0.0, 0.0, 743.1060961611386, 0.0]
['beep', 0.0, -1561.090536247556, 0.0, 0.0, 0.0, 0.0, 746.4588578294347, 0.0]
['beep', 0.0, -1561.6269781144833, 0.0, 0.0, 0.0, 0.0, 744.4472008284571, 0.0]
['beep', 0.0, -1566.2984927056425, 0.0, 0.0, 0.0, 0.0, 738.2781193587923, 0.0]
['beep', 0.0, -1568.8018880846369, 0.0, 0.0, 0.0, 0.0, 738.0769536586945, 0.0]
['beep', 0.0, -1564.1974287268436, 0.0, 0.0, 0.0, 0.0, 741.4297153269906, 0.0]
['beep', 0.0, -1558.83301005757, 0.0, 0.0, 0.0, 0.0, 744.804828739742, 0.0]
['beep', 0.0, -1560.2858734471647, 0.0, 0.0, 0.0, 0.0, 745.0506979287503, 0.0]
['beep', 0.0, -1564.6891671048604, 0.0, 0.0, 0.0, 0.0, 739.6639275150213, 0.0]
['beep', 0.0, -1567.0137485282123, 0.0, 0.0, 0.0, 0.0, 739.2615961148258, 0.0]
['beep', 0.0, -1564.9126845494134, 0.0, 0.0, 0.0, 0.0, 743.9554624504402, 0.0]
['beep', 0.0, -1561.0234810141899, 0.0, 0.0, 0.0, 0.0, 748.0681834302168, 0.0]
['beep', 0.0, -1561.5152193922067, 0.0, 0.0, 0.0, 0.0, 745.2295118843928, 0.0]
['beep', 0.0, -1563.6609868599162, 0.0, 0.0, 0.0, 0.0, 740.7815147377867, 0.0]
['beep', 0.0, -1565.4491264163407, 0.0, 0.0, 0.0, 0.0, 740.1556658930381, 0.0]
['beep', 0.0, -1561.3811089254748, 0.0, 0.0, 0.0, 0.0, 743.1731513945045, 0.0]
['beep', 0.0, -1557.5142571347067, 0.0, 0.0, 0.0, 0.0, 746.704727018443, 0.0]
['beep', 0.0, -1558.0059955127235, 0.0, 0.0, 0.0, 0.0, 744.6260147840995, 0.0]
['beep', 0.0, -1563.5492281376396, 0.0, 0.0, 0.0, 0.0, 741.4744188159012, 0.0]
['beep', 0.0, -1566.633768872472, 0.0, 0.0, 0.0, 0.0, 740.3568315931358, 0.0]
['beep', 0.0, -1565.471478160796, 0.0, 0.0, 0.0, 0.0, 742.6367095275772, 0.0]
['beep', 0.0, -1560.1294112359776, 0.0, 0.0, 0.0, 0.0, 747.1294101630939, 0.0]
['beep', 0.0, -1557.9165885349023, 0.0, 0.0, 0.0, 0.0, 746.3918025960687, 0.0]
['beep', 0.0, -1562.2081234703212, 0.0, 0.0, 0.0, 0.0, 741.4297153269906, 0.0]
['beep', 0.0, -1563.3704141819971, 0.0, 0.0, 0.0, 0.0, 740.1556658930381, 0.0]
['beep', 0.0, -1560.7105565918157, 0.0, 0.0, 0.0, 0.0, 743.4637240724235, 0.0]
['beep', 0.0, -1556.9107600344134, 0.0, 0.0, 0.0, 0.0, 746.190636895971, 0.0]
['beep', 0.0, -1556.7766495676817, 0.0, 0.0, 0.0, 0.0, 744.4472008284571, 0.0]
['beep', 0.0, -1562.8116205706144, 0.0, 0.0, 0.0, 0.0, 740.2450728708593, 0.0]
['beep', 0.0, -1565.1585537384217, 0.0, 0.0, 0.0, 0.0, 738.7475059923537, 0.0]
['beep', 0.0, -1562.5881031260615, 0.0, 0.0, 0.0, 0.0, 740.5356455487783, 0.0]
['beep', 0.0, -1558.341271679553, 0.0, 0.0, 0.0, 0.0, 741.8767502160968, 0.0]
['beep', 0.0, -1557.2683879456984, 0.0, 0.0, 0.0, 0.0, 739.9097967040296, 0.0]
['beep', 0.0, -1560.598797869539, 0.0, 0.0, 0.0, 0.0, 735.2382821128705, 0.0]
['beep', 0.0, -1564.3315391935753, 0.0, 0.0, 0.0, 0.0, 735.2606338573258, 0.0]
['beep', 0.0, -1561.2246467142877, 0.0, 0.0, 0.0, 0.0, 739.7086310039319, 0.0]
['beep', 0.0, -1555.055565244623, 0.0, 0.0, 0.0, 0.0, 742.8155234832196, 0.0]
['beep', 0.0, -1553.5132948772068, 0.0, 0.0, 0.0, 0.0, 742.189674638471, 0.0]
['beep', 0.0, -1558.6318443574721, 0.0, 0.0, 0.0, 0.0, 736.9593664359292, 0.0]
['beep', 0.0, -1562.3645856815083, 0.0, 0.0, 0.0, 0.0, 734.7688954793091, 0.0]
['beep', 0.0, -1561.6493298589385, 0.0, 0.0, 0.0, 0.0, 738.546340292256, 0.0]
['beep', 0.0, -1555.6590623449163, 0.0, 0.0, 0.0, 0.0, 741.38501183808, 0.0]
['beep', 0.0, -1552.3063006766201, 0.0, 0.0, 0.0, 0.0, 739.127485648094, 0.0]
['beep', 0.0, -1558.050699001634, 0.0, 0.0, 0.0, 0.0, 734.2101018679264, 0.0]
['beep', 0.0, -1560.5764461250837, 0.0, 0.0, 0.0, 0.0, 733.3160320897141, 0.0]
['beep', 0.0, -1556.5531321231285, 0.0, 0.0, 0.0, 0.0, 735.8864827020744, 0.0]
['beep', 0.0, -1552.4851146322626, 0.0, 0.0, 0.0, 0.0, 739.5298170482895, 0.0]
['beep', 0.0, -1553.6250535994834, 0.0, 0.0, 0.0, 0.0, 737.4064013250353, 0.0]
['beep', 0.0, -1558.1624577239106, 0.0, 0.0, 0.0, 0.0, 731.9525756779403, 0.0]
['beep', 0.0, -1559.995300769246, 0.0, 0.0, 0.0, 0.0, 730.7008779884432, 0.0]
['beep', 0.0, -1556.4190216563968, 0.0, 0.0, 0.0, 0.0, 734.3889158235688, 0.0]
['beep', 0.0, -1552.663928587905, 0.0, 0.0, 0.0, 0.0, 738.1887123809711, 0.0]
['beep', 0.0, -1554.3850129109637, 0.0, 0.0, 0.0, 0.0, 735.8417792131638, 0.0]
['beep', 0.0, -1558.9000652909358, 0.0, 0.0, 0.0, 0.0, 730.7902849662644, 0.0]
['beep', 0.0, -1559.637672857961, 0.0, 0.0, 0.0, 0.0, 729.9185669325075, 0.0]
['beep', 0.0, -1557.4919053902515, 0.0, 0.0, 0.0, 0.0, 734.835950712675, 0.0]
['beep', 0.0, -1554.4297163998745, 0.0, 0.0, 0.0, 0.0, 737.4958083028565, 0.0]
['beep', 0.0, -1553.5803501105727, 0.0, 0.0, 0.0, 0.0, 734.5677297792113, 0.0]
['beep', 0.0, -1558.4977338907402, 0.0, 0.0, 0.0, 0.0, 730.7679332218091, 0.0]
['beep', 0.0, -1561.0458327586452, 0.0, 0.0, 0.0, 0.0, 730.0973808881499, 0.0]
['beep', 0.0, -1557.1119257345113, 0.0, 0.0, 0.0, 0.0, 734.2324536123817, 0.0]
['beep', 0.0, -1554.0944402330447, 0.0, 0.0, 0.0, 0.0, 737.965194936418, 0.0]
['beep', 0.0, -1555.5026001337292, 0.0, 0.0, 0.0, 0.0, 735.7970757242532, 0.0]
['beep', 0.0, -1559.280044946676, 0.0, 0.0, 0.0, 0.0, 732.4666658004124, 0.0]
['beep', 0.0, -1559.9058937914247, 0.0, 0.0, 0.0, 0.0, 731.1032093886387, 0.0]
['beep', 0.0, -1555.3237861780867, 0.0, 0.0, 0.0, 0.0, 733.2266251118929, 0.0]
['beep', 0.0, -1550.2722919311873, 0.0, 0.0, 0.0, 0.0, 736.8252559691973, 0.0]
['beep', 0.0, -1551.21106519831, 0.0, 0.0, 0.0, 0.0, 737.5628635362225, 0.0]
['beep', 0.0, -1560.1964664693435, 0.0, 0.0, 0.0, 0.0, 733.3607355786247, 0.0]
['beep', 0.0, -1560.8670188030028, 0.0, 0.0, 0.0, 0.0, 731.1702646220047, 0.0]
['beep', 0.0, -1555.6143588560055, 0.0, 0.0, 0.0, 0.0, 735.9535379354403, 0.0]
['beep', 0.0, -1551.9263210208799, 0.0, 0.0, 0.0, 0.0, 740.2003693819487, 0.0]
['beep', 0.0, -1552.7086320768158, 0.0, 0.0, 0.0, 0.0, 739.3733548371023, 0.0]
['beep', 0.0, -1555.1449722224443, 0.0, 0.0, 0.0, 0.0, 735.7300204908872, 0.0]
['beep', 0.0, -1554.8096960556145, 0.0, 0.0, 0.0, 0.0, 736.28881410227, 0.0]
['beep', 0.0, -1554.2061989553213, 0.0, 0.0, 0.0, 0.0, 740.2003693819487, 0.0]
['beep', 0.0, -1554.7202890777933, 0.0, 0.0, 0.0, 0.0, 743.1060961611386, 0.0]
['beep', 0.0, -1556.1284489784778, 0.0, 0.0, 0.0, 0.0, 742.2567298718369, 0.0]
['beep', 0.0, -1556.8437048010476, 0.0, 0.0, 0.0, 0.0, 738.6804507589878, 0.0]
['beep', 0.0, -1557.6260158569833, 0.0, 0.0, 0.0, 0.0, 736.7805524802867, 0.0]
['beep', 0.0, -1557.4919053902515, 0.0, 0.0, 0.0, 0.0, 742.2343781273817, 0.0]
['beep', 0.0, -1555.4802483892738, 0.0, 0.0, 0.0, 0.0, 746.0118229403286, 0.0]
['beep', 0.0, -1554.5414751221508, 0.0, 0.0, 0.0, 0.0, 742.9272822054961, 0.0]
['beep', 0.0, -1556.6648908454051, 0.0, 0.0, 0.0, 0.0, 738.6133955256219, 0.0]
['beep', 0.0, -1560.1294112359776, 0.0, 0.0, 0.0, 0.0, 737.7193257474096, 0.0]
['beep', 0.0, -1556.731946078771, 0.0, 0.0, 0.0, 0.0, 742.0779159161945, 0.0]
['beep', 0.0, -1553.7144605773046, 0.0, 0.0, 0.0, 0.0, 746.2800438737922, 0.0]
['beep', 0.0, -1553.2003704548324, 0.0, 0.0, 0.0, 0.0, 743.4413723279682, 0.0]
['beep', 0.0, -1553.6250535994834, 0.0, 0.0, 0.0, 0.0, 738.9710234369068, 0.0]
['beep', 0.0, -1556.7766495676817, 0.0, 0.0, 0.0, 0.0, 737.6299187695884, 0.0]
['beep', 0.0, -1556.2625594452095, 0.0, 0.0, 0.0, 0.0, 740.9379769489739, 0.0]
['beep', 0.0, -1555.3908414114526, 0.0, 0.0, 0.0, 0.0, 743.2178548834152, 0.0]
['beep', 0.0, -1554.407364655419, 0.0, 0.0, 0.0, 0.0, 741.1391426490716, 0.0]
['beep', 0.0, -1556.888408289958, 0.0, 0.0, 0.0, 0.0, 737.965194936418, 0.0]
['beep', 0.0, -1558.3859751684638, 0.0, 0.0, 0.0, 0.0, 738.0769536586945, 0.0]
['beep', 0.0, -1552.64157684345, 0.0, 0.0, 0.0, 0.0, 742.2790816162923, 0.0]
['beep', 0.0, -1548.0594692301117, 0.0, 0.0, 0.0, 0.0, 745.7212502624095, 0.0]
['beep', 0.0, -1552.8427425435475, 0.0, 0.0, 0.0, 0.0, 743.2178548834152, 0.0]
['beep', 0.0, -1557.4695536457962, 0.0, 0.0, 0.0, 0.0, 740.2227211264039, 0.0]
['beep', 0.0, -1558.9224170353912, 0.0, 0.0, 0.0, 0.0, 740.5356455487783, 0.0]
['beep', 0.0, -1557.0672222456005, 0.0, 0.0, 0.0, 0.0, 742.9719856944067, 0.0]
['beep', 0.0, -1553.9379780218576, 0.0, 0.0, 0.0, 0.0, 746.7494305073536, 0.0]
['beep', 0.0, -1553.4238878993856, 0.0, 0.0, 0.0, 0.0, 746.2576921293369, 0.0]
['beep', 0.0, -1556.1731524673883, 0.0, 0.0, 0.0, 0.0, 742.5025990608453, 0.0]
['beep', 0.0, -1559.2353414577653, 0.0, 0.0, 0.0, 0.0, 740.7591629933314, 0.0]
['beep', 0.0, -1555.8155245561034, 0.0, 0.0, 0.0, 0.0, 746.2353403848816, 0.0]
['beep', 0.0, -1551.4792861317737, 0.0, 0.0, 0.0, 0.0, 749.7445642643648, 0.0]
['beep', 0.0, -1553.2674256881985, 0.0, 0.0, 0.0, 0.0, 748.5822735526889, 0.0]
['beep', 0.0, -1560.3976321694413, 0.0, 0.0, 0.0, 0.0, 745.5200845623118, 0.0]
['beep', 0.0, -1562.2081234703212, 0.0, 0.0, 0.0, 0.0, 743.284910116781, 0.0]
['beep', 0.0, -1555.2567309447206, 0.0, 0.0, 0.0, 0.0, 747.3305758631916, 0.0]
['beep', 0.0, -1552.8874460324582, 0.0, 0.0, 0.0, 0.0, 752.0244421988061, 0.0]
['beep', 0.0, -1556.6425391009498, 0.0, 0.0, 0.0, 0.0, 751.3315381206916, 0.0]
['beep', 0.0, -1557.8718850459916, 0.0, 0.0, 0.0, 0.0, 746.1682851515156, 0.0]
['beep', 0.0, -1556.5531321231285, 0.0, 0.0, 0.0, 0.0, 743.6201862836107, 0.0]
['beep', 0.0, -1558.6765478463826, 0.0, 0.0, 0.0, 0.0, 747.1294101630939, 0.0]
['beep', 0.0, -1560.2635217027096, 0.0, 0.0, 0.0, 0.0, 751.4880003318788, 0.0]
['beep', 0.0, -1558.7436030797487, 0.0, 0.0, 0.0, 0.0, 750.3257096202028, 0.0]
['beep', 0.0, -1557.5589606236174, 0.0, 0.0, 0.0, 0.0, 743.5754827947001, 0.0]
['beep', 0.0, -1560.4199839138967, 0.0, 0.0, 0.0, 0.0, 741.4297153269906, 0.0]
['beep', 0.0, -1559.3023966911312, 0.0, 0.0, 0.0, 0.0, 747.4423345854682, 0.0]
['beep', 0.0, -1554.8320478000699, 0.0, 0.0, 0.0, 0.0, 752.449125343457, 0.0]
['beep', 0.0, -1551.635748342961, 0.0, 0.0, 0.0, 0.0, 750.7950962537642, 0.0]
['beep', 0.0, -1555.5473036226397, 0.0, 0.0, 0.0, 0.0, 746.1682851515156, 0.0]
['beep', 0.0, -1554.5414751221508, 0.0, 0.0, 0.0, 0.0, 750.4598200869347, 0.0]
['beep', 0.0, -1549.244111686243, 0.0, 0.0, 0.0, 0.0, 754.0137474553285, 0.0]
['beep', 0.0, -1550.7863820536593, 0.0, 0.0, 0.0, 0.0, 753.4102503550351, 0.0]
['beep', 0.0, -1560.6211496139945, 0.0, 0.0, 0.0, 0.0, 749.6551572865436, 0.0]
['beep', 0.0, -1566.8796380614804, 0.0, 0.0, 0.0, 0.0, 747.6658520300213, 0.0]
['beep', 0.0, -1561.1352397364665, 0.0, 0.0, 0.0, 0.0, 751.1527241650491, 0.0]
['beep', 0.0, -1554.3626611665084, 0.0, 0.0, 0.0, 0.0, 753.9019887330519, 0.0]
['beep', 0.0, -1556.508428634218, 0.0, 0.0, 0.0, 0.0, 752.3150148767251, 0.0]
['beep', 0.0, -1562.4539926593295, 0.0, 0.0, 0.0, 0.0, 747.1741136520045, 0.0]
['beep', 0.0, -1564.1974287268436, 0.0, 0.0, 0.0, 0.0, 745.0283461842951, 0.0]
['beep', 0.0, -1562.7892688261593, 0.0, 0.0, 0.0, 0.0, 749.5210468198118, 0.0]
['beep', 0.0, -1558.1624577239106, 0.0, 0.0, 0.0, 0.0, 751.6444625430659, 0.0]
['beep', 0.0, -1558.3636234240084, 0.0, 0.0, 0.0, 0.0, 749.7222125199095, 0.0]
['beep', 0.0, -1562.5433996371507, 0.0, 0.0, 0.0, 0.0, 746.5035613183453, 0.0]
['beep', 0.0, -1505.9934861652239, 0.0, 0.0, 0.0, 0.0, 856.0718126382606, 0.0]
['beep', 0.0, -1510.3297245895535, 0.0, 0.0, 0.0, 0.0, 862.2632458523806, 0.0]
['beep', 0.0, -1510.1732623783664, 0.0, 0.0, 0.0, 0.0, 867.0688709102716, 0.0]
['beep', 0.0, -1513.414265324386, 0.0, 0.0, 0.0, 0.0, 868.9464174445174, 0.0]
['beep', 0.0, -1522.220852639777, 0.0, 0.0, 0.0, 0.0, 866.4206703210676, 0.0]
['beep', 0.0, -1529.1722451653775, 0.0, 0.0, 0.0, 0.0, 865.9959871764169, 0.0]
['beep', 0.0, -1531.832102755559, 0.0, 0.0, 0.0, 0.0, 870.5780947897548, 0.0]
['beep', 0.0, -1531.4521230998187, 0.0, 0.0, 0.0, 0.0, 875.5401820588329, 0.0]
['beep', 0.0, -1532.4579516003075, 0.0, 0.0, 0.0, 0.0, 875.3837198476458, 0.0]
['beep', 0.0, -1541.6221668269834, 0.0, 0.0, 0.0, 0.0, 870.443984323023, 0.0]
['beep', 0.0, -1549.668794830894, 0.0, 0.0, 0.0, 0.0, 868.991120933428, 0.0]
['beep', 0.0, -1552.3286524210755, 0.0, 0.0, 0.0, 0.0, 873.3720628466682, 0.0]
['beep', 0.0, -1552.6862803323604, 0.0, 0.0, 0.0, 0.0, 877.3953768486234, 0.0]
['beep', 0.0, -1554.764992566704, 0.0, 0.0, 0.0, 0.0, 875.9425134590285, 0.0]
['beep', 0.0, -1562.1410682369553, 0.0, 0.0, 0.0, 0.0, 872.3662343461793, 0.0]
['beep', 0.0, -1570.411213685419, 0.0, 0.0, 0.0, 0.0, 871.4498128235117, 0.0]
['beep', 0.0, -1570.2994549631424, 0.0, 0.0, 0.0, 0.0, 874.8696297251737, 0.0]
['beep', 0.0, -1571.5288009081842, 0.0, 0.0, 0.0, 0.0, 878.9599989604949, 0.0]
['beep', 0.0, -1575.5521149101396, 0.0, 0.0, 0.0, 0.0, 878.6917780270312, 0.0]
['beep', 0.0, -1580.6930161348603, 0.0, 0.0, 0.0, 0.0, 877.1495076596151, 0.0]
['beep', 0.0, -1586.571524926606, 0.0, 0.0, 0.0, 0.0, 872.7462140019196, 0.0]
['beep', 0.0, -1587.9126295939243, 0.0, 0.0, 0.0, 0.0, 876.7695280038748, 0.0]
['beep', 0.0, -1587.2420772602652, 0.0, 0.0, 0.0, 0.0, 881.6198565506764, 0.0]
['beep', 0.0, -1587.7338156382818, 0.0, 0.0, 0.0, 0.0, 879.8317169942519, 0.0]
['beep', 0.0, -1594.7522633972483, 0.0, 0.0, 0.0, 0.0, 877.3953768486234, 0.0]
['beep', 0.0, -1600.2060890443433, 0.0, 0.0, 0.0, 0.0, 872.8579727241961, 0.0]
['beep', 0.0, -1601.144862311466, 0.0, 0.0, 0.0, 0.0, 874.087318669238, 0.0]
['beep', 0.0, -1599.535536710684, 0.0, 0.0, 0.0, 0.0, 878.1776879045592, 0.0]
['beep', 0.0, -1599.9602198553348, 0.0, 0.0, 0.0, 0.0, 877.2612663818916, 0.0]
['beep', 0.0, -1606.598687958561, 0.0, 0.0, 0.0, 0.0, 871.3380541012352, 0.0]
['beep', 0.0, -1611.1360920829884, 0.0, 0.0, 0.0, 0.0, 869.7734319893638, 0.0]
['beep', 0.0, -1610.823167660614, 0.0, 0.0, 0.0, 0.0, 873.1038419132045, 0.0]
['beep', 0.0, -1608.9679728708236, 0.0, 0.0, 0.0, 0.0, 876.5683623037771, 0.0]
['beep', 0.0, -1607.7162751813264, 0.0, 0.0, 0.0, 0.0, 875.9872169479391, 0.0]
['beep', 0.0, -1613.5947839730723, 0.0, 0.0, 0.0, 0.0, 871.6286267791542, 0.0]
['beep', 0.0, -1620.4344177763962, 0.0, 0.0, 0.0, 0.0, 867.7617749883862, 0.0]
['beep', 0.0, -1621.3508392990636, 0.0, 0.0, 0.0, 0.0, 869.9522459450062, 0.0]
['beep', 0.0, -1617.6851532083933, 0.0, 0.0, 0.0, 0.0, 873.8861529691402, 0.0]
['beep', 0.0, -1618.1545398419548, 0.0, 0.0, 0.0, 0.0, 872.3885860906347, 0.0]
['beep', 0.0, -1623.8989381669687, 0.0, 0.0, 0.0, 0.0, 866.4206703210676, 0.0]
['beep', 0.0, -1628.4586940358513, 0.0, 0.0, 0.0, 0.0, 865.1019173982046, 0.0]
['beep', 0.0, -1628.8163219471362, 0.0, 0.0, 0.0, 0.0, 866.7782982323525, 0.0]
['beep', 0.0, -1624.569490500628, 0.0, 0.0, 0.0, 0.0, 870.6898535120313, 0.0]
['beep', 0.0, -1625.2176910898318, 0.0, 0.0, 0.0, 0.0, 870.1310599006487, 0.0]
['beep', 0.0, -1632.213787104343, 0.0, 0.0, 0.0, 0.0, 863.4702400529671, 0.0]
['beep', 0.0, -1634.5160167832396, 0.0, 0.0, 0.0, 0.0, 859.6704434955649, 0.0]
['beep', 0.0, -1632.3926010599855, 0.0, 0.0, 0.0, 0.0, 864.1407923866263, 0.0]
['beep', 0.0, -1630.6491649924715, 0.0, 0.0, 0.0, 0.0, 868.1641063885817, 0.0]
['beep', 0.0, -1629.4421707918848, 0.0, 0.0, 0.0, 0.0, 864.8560482091962, 0.0]
['beep', 0.0, -1632.3702493155301, 0.0, 0.0, 0.0, 0.0, 859.022242906361, 0.0]
['beep', 0.0, -1636.1700458729324, 0.0, 0.0, 0.0, 0.0, 857.1446963721153, 0.0]
['beep', 0.0, -1636.8629499510469, 0.0, 0.0, 0.0, 0.0, 858.731670228442, 0.0]
['beep', 0.0, -1632.8619876935468, 0.0, 0.0, 0.0, 0.0, 862.1738388745594, 0.0]
['beep', 0.0, -1631.9902696597899, 0.0, 0.0, 0.0, 0.0, 861.860914452185, 0.0]
['beep', 0.0, -1636.013583661745, 0.0, 0.0, 0.0, 0.0, 857.1446963721153, 0.0]
['beep', 0.0, -1639.2992900966753, 0.0, 0.0, 0.0, 0.0, 852.4061265475901, 0.0]
['beep', 0.0, -1636.6394325064937, 0.0, 0.0, 0.0, 0.0, 856.0718126382606, 0.0]
['beep', 0.0, -1630.6491649924715, 0.0, 0.0, 0.0, 0.0, 861.3244725852577, 0.0]
['beep', 0.0, -1631.9679179153345, 0.0, 0.0, 0.0, 0.0, 859.2681120953694, 0.0]
['beep', 0.0, -1636.1700458729324, 0.0, 0.0, 0.0, 0.0, 850.8862079246293, 0.0]
['beep', 0.0, -1639.7463249857815, 0.0, 0.0, 0.0, 0.0, 849.1427718571153, 0.0]
['beep', 0.0, -1639.1651796299434, 0.0, 0.0, 0.0, 0.0, 851.2438358359142, 0.0]
['beep', 0.0, -1635.1865691168987, 0.0, 0.0, 0.0, 0.0, 853.5907690037214, 0.0]
['beep', 0.0, -1634.113685383044, 0.0, 0.0, 0.0, 0.0, 852.2273125919477, 0.0]
['beep', 0.0, -1637.3770400735189, 0.0, 0.0, 0.0, 0.0, 847.734611956431, 0.0]
['beep', 0.0, -1640.573339530628, 0.0, 0.0, 0.0, 0.0, 843.8007049322969, 0.0]
['beep', 0.0, -1637.6899644958933, 0.0, 0.0, 0.0, 0.0, 845.2759200663472, 0.0]
['beep', 0.0, -1632.8843394380021, 0.0, 0.0, 0.0, 0.0, 849.3886410461237, 0.0]
['beep', 0.0, -1632.7055254823597, 0.0, 0.0, 0.0, 0.0, 850.506228268889, 0.0]
['beep', 0.0, -1638.2934615961865, 0.0, 0.0, 0.0, 0.0, 843.0183938763612, 0.0]
['beep', 0.0, -1642.2720721092312, 0.0, 0.0, 0.0, 0.0, 838.0339548628277, 0.0]
['beep', 0.0, -1640.9980226752787, 0.0, 0.0, 0.0, 0.0, 841.8337514202299, 0.0]
['beep', 0.0, -1636.9300051844127, 0.0, 0.0, 0.0, 0.0, 848.6510334790986, 0.0]
['beep', 0.0, -1633.7784092162144, 0.0, 0.0, 0.0, 0.0, 846.0358793778277, 0.0]
['beep', 0.0, -1635.6783074949155, 0.0, 0.0, 0.0, 0.0, 836.8716641511518, 0.0]
['beep', 0.0, -1639.8804354525132, 0.0, 0.0, 0.0, 0.0, 833.6753646940429, 0.0]
['beep', 0.0, -1639.3439935855858, 0.0, 0.0, 0.0, 0.0, 833.8765303941406, 0.0]
['beep', 0.0, -1635.857121450558, 0.0, 0.0, 0.0, 0.0, 839.1068385966825, 0.0]
['beep', 0.0, -1634.56072027215, 0.0, 0.0, 0.0, 0.0, 838.8162659187634, 0.0]
['beep', 0.0, -1637.4887987957954, 0.0, 0.0, 0.0, 0.0, 831.864873393163, 0.0]
['beep', 0.0, -1640.2380633637981, 0.0, 0.0, 0.0, 0.0, 829.6967541809981, 0.0]
['beep', 0.0, -1636.7511912287703, 0.0, 0.0, 0.0, 0.0, 828.2438907914033, 0.0]
['beep', 0.0, -1633.3537260715636, 0.0, 0.0, 0.0, 0.0, 831.1943210595037, 0.0]
['beep', 0.0, -1632.8843394380021, 0.0, 0.0, 0.0, 0.0, 829.1603123140708, 0.0]
['beep', 0.0, -1638.628737763016, 0.0, 0.0, 0.0, 0.0, 823.0806378222272, 0.0]
['beep', 0.0, -1642.1156098980439, 0.0, 0.0, 0.0, 0.0, 820.9572220989731, 0.0]
['beep', 0.0, -1643.3896593319964, 0.0, 0.0, 0.0, 0.0, 820.2643180208586, 0.0]
['beep', 0.0, -1636.6841359954044, 0.0, 0.0, 0.0, 0.0, 826.411047746068, 0.0]
['beep', 0.0, -1629.151598113966, 0.0, 0.0, 0.0, 0.0, 828.0650768357608, 0.0]
['beep', 0.0, -1632.6161185045385, 0.0, 0.0, 0.0, 0.0, 819.8396348762077, 0.0]
['beep', 0.0, -1636.4829702953066, 0.0, 0.0, 0.0, 0.0, 814.6763819070318, 0.0]
['beep', 0.0, -1633.376077816019, 0.0, 0.0, 0.0, 0.0, 817.5374051973112, 0.0]
['beep', 0.0, -1629.1068946250552, 0.0, 0.0, 0.0, 0.0, 818.4538267199787, 0.0]
['beep', 0.0, -1629.598633003072, 0.0, 0.0, 0.0, 0.0, 818.6996959089871, 0.0]
['beep', 0.0, -1633.1749121159212, 0.0, 0.0, 0.0, 0.0, 816.6880389080095, 0.0]
['beep', 0.0, -1635.3877348169965, 0.0, 0.0, 0.0, 0.0, 812.0835795502162, 0.0]
['beep', 0.0, -1633.733705727304, 0.0, 0.0, 0.0, 0.0, 814.1622917845598, 0.0]
['beep', 0.0, -1629.7327434698038, 0.0, 0.0, 0.0, 0.0, 818.5655854422553, 0.0]
['beep', 0.0, -1627.341106813086, 0.0, 0.0, 0.0, 0.0, 817.6491639195876, 0.0]
['beep', 0.0, -1631.0291446482117, 0.0, 0.0, 0.0, 0.0, 812.8882423506072, 0.0]
['beep', 0.0, -1633.6666504939378, 0.0, 0.0, 0.0, 0.0, 809.1107975376603, 0.0]
['beep', 0.0, -1632.1690836154323, 0.0, 0.0, 0.0, 0.0, 811.4353789610122, 0.0]
['beep', 0.0, -1625.7764847012145, 0.0, 0.0, 0.0, 0.0, 817.0009633303838, 0.0]
['beep', 0.0, -1624.2118625893431, 0.0, 0.0, 0.0, 0.0, 816.7774458858307, 0.0]
['beep', 0.0, -1629.0845428805999, 0.0, 0.0, 0.0, 0.0, 812.1953382724928, 0.0]
['beep', 0.0, -1631.3197173261306, 0.0, 0.0, 0.0, 0.0, 810.7201231384424, 0.0]
['beep', 0.0, -1624.435380033896, 0.0, 0.0, 0.0, 0.0, 813.1341115396157, 0.0]
['beep', 0.0, -1617.0593043636447, 0.0, 0.0, 0.0, 0.0, 815.8163208742525, 0.0]
['beep', 0.0, -1618.758036942248, 0.0, 0.0, 0.0, 0.0, 815.1457685405933, 0.0]
['beep', 0.0, -1627.1846446018988, 0.0, 0.0, 0.0, 0.0, 809.0213905598391, 0.0]
['beep', 0.0, -1632.0349731487006, 0.0, 0.0, 0.0, 0.0, 804.4616346909565, 0.0]
['beep', 0.0, -1632.4149528044406, 0.0, 0.0, 0.0, 0.0, 808.9766870709285, 0.0]
['beep', 0.0, -1628.1234178690218, 0.0, 0.0, 0.0, 0.0, 811.1001027941827, 0.0]
['beep', 0.0, -1624.502435267262, 0.0, 0.0, 0.0, 0.0, 811.1001027941827, 0.0]
['beep', 0.0, -1626.3576300570526, 0.0, 0.0, 0.0, 0.0, 806.1827190140151, 0.0]
['beep', 0.0, -1629.7550952142592, 0.0, 0.0, 0.0, 0.0, 802.1147015231493, 0.0]
['beep', 0.0, -1630.313888825642, 0.0, 0.0, 0.0, 0.0, 805.9144980805514, 0.0]
['beep', 0.0, -1626.0447056346782, 0.0, 0.0, 0.0, 0.0, 809.8037016157749, 0.0]
['beep', 0.0, -1621.9766881438122, 0.0, 0.0, 0.0, 0.0, 808.4402452040011, 0.0]
['beep', 0.0, -1623.474255022318, 0.0, 0.0, 0.0, 0.0, 803.3887509571017, 0.0]
['beep', 0.0, -1626.4246852904184, 0.0, 0.0, 0.0, 0.0, 800.3042102222694, 0.0]
['beep', 0.0, -1626.0223538902228, 0.0, 0.0, 0.0, 0.0, 803.187585257004, 0.0]
['beep', 0.0, -1621.1720253434212, 0.0, 0.0, 0.0, 0.0, 808.3731899706353, 0.0]
['beep', 0.0, -1620.9932113877787, 0.0, 0.0, 0.0, 0.0, 808.8872800931073, 0.0]
['beep', 0.0, -1626.5587957571502, 0.0, 0.0, 0.0, 0.0, 804.1263585241269, 0.0]
['beep', 0.0, -1629.6433364919826, 0.0, 0.0, 0.0, 0.0, 801.0418177892946, 0.0]
['beep', 0.0, -1629.9115574254463, 0.0, 0.0, 0.0, 0.0, 805.8474428471856, 0.0]
['beep', 0.0, -1628.7492667137703, 0.0, 0.0, 0.0, 0.0, 809.379018471124, 0.0]
['beep', 0.0, -1628.4586940358513, 0.0, 0.0, 0.0, 0.0, 808.5520039262777, 0.0]
['beep', 0.0, -1633.4878365382954, 0.0, 0.0, 0.0, 0.0, 804.9086695800627, 0.0]
['beep', 0.0, -1640.0592494081557, 0.0, 0.0, 0.0, 0.0, 800.7959486002861, 0.0]
['beep', 0.0, -1640.1710081304323, 0.0, 0.0, 0.0, 0.0, 804.4839864354118, 0.0]
['beep', 0.0, -1640.2604151082535, 0.0, 0.0, 0.0, 0.0, 808.3955417150905, 0.0]
['beep', 0.0, -1641.9591476868568, 0.0, 0.0, 0.0, 0.0, 806.2721259918363, 0.0]
['beep', 0.0, -1649.2681681237423, 0.0, 0.0, 0.0, 0.0, 799.9242305665291, 0.0]
['beep', 0.0, -1656.1972089048875, 0.0, 0.0, 0.0, 0.0, 799.9689340554397, 0.0]
['beep', 0.0, -1656.241912393798, 0.0, 0.0, 0.0, 0.0, 800.1477480110823, 0.0]
['beep', 0.0, -1655.5043048267728, 0.0, 0.0, 0.0, 0.0, 802.7852538568085, 0.0]
['beep', 0.0, -1657.0242234497339, 0.0, 0.0, 0.0, 0.0, 803.1428817680934, 0.0]
['beep', 0.0, -1663.5509328306835, 0.0, 0.0, 0.0, 0.0, 799.6783613775208, 0.0]
['beep', 0.0, -1668.892999755502, 0.0, 0.0, 0.0, 0.0, 797.1526142540711, 0.0]
['beep', 0.0, -1670.6140840785604, 0.0, 0.0, 0.0, 0.0, 800.5277276668224, 0.0]
['beep', 0.0, -1670.7034910563816, 0.0, 0.0, 0.0, 0.0, 804.5957451576884, 0.0]
['beep', 0.0, -1671.5528573456834, 0.0, 0.0, 0.0, 0.0, 803.6793236350208, 0.0]
['beep', 0.0, -1678.727767315837, 0.0, 0.0, 0.0, 0.0, 799.9242305665291, 0.0]
['beep', 0.0, -1687.3778924200408, 0.0, 0.0, 0.0, 0.0, 795.543288653289, 0.0]
['beep', 0.0, -1687.467299397862, 0.0, 0.0, 0.0, 0.0, 796.2585444758588, 0.0]
['beep', 0.0, -1689.14368023201, 0.0, 0.0, 0.0, 0.0, 802.0699980342387, 0.0]
['beep', 0.0, -1688.0484447537, 0.0, 0.0, 0.0, 0.0, 800.8630038336521, 0.0]
['beep', 0.0, -1694.1951744789094, 0.0, 0.0, 0.0, 0.0, 795.3421229531912, 0.0]
['beep', 0.0, -1701.1018635155992, 0.0, 0.0, 0.0, 0.0, 791.5646781402443, 0.0]
['beep', 0.0, -1699.827814081647, 0.0, 0.0, 0.0, 0.0, 793.0622450187499, 0.0]
['beep', 0.0, -1697.7043983583926, 0.0, 0.0, 0.0, 0.0, 795.6997508644761, 0.0]
['beep', 0.0, -1697.8161570806692, 0.0, 0.0, 0.0, 0.0, 796.1467857535823, 0.0]
['beep', 0.0, -1702.599430394105, 0.0, 0.0, 0.0, 0.0, 791.8776025626186, 0.0]
['beep', 0.0, -1709.6178781530714, 0.0, 0.0, 0.0, 0.0, 787.9213437940292, 0.0]
['beep', 0.0, -1709.7519886198031, 0.0, 0.0, 0.0, 0.0, 792.2128787294482, 0.0]
['beep', 0.0, -1704.1864042504317, 0.0, 0.0, 0.0, 0.0, 793.8892595635963, 0.0]
['beep', 0.0, -1704.8793083285461, 0.0, 0.0, 0.0, 0.0, 794.7386258528979, 0.0]
['beep', 0.0, -1708.7685118637696, 0.0, 0.0, 0.0, 0.0, 792.4363961740013, 0.0]
['beep', 0.0, -1712.9482880769121, 0.0, 0.0, 0.0, 0.0, 787.4296054160125, 0.0]
['beep', 0.0, -1711.4507211984064, 0.0, 0.0, 0.0, 0.0, 791.1623467400487, 0.0]
['beep', 0.0, -1705.5722124066608, 0.0, 0.0, 0.0, 0.0, 795.2303642309147, 0.0]
['beep', 0.0, -1703.2029274943982, 0.0, 0.0, 0.0, 0.0, 795.9903235423951, 0.0]
['beep', 0.0, -1703.7393693613255, 0.0, 0.0, 0.0, 0.0, 793.1740037410265, 0.0]
['beep', 0.0, -1705.6839711289372, 0.0, 0.0, 0.0, 0.0, 791.3411606956912, 0.0]
['beep', 0.0, -1705.1475292620098, 0.0, 0.0, 0.0, 0.0, 793.8892595635963, 0.0]
['beep', 0.0, -1699.045503025711, 0.0, 0.0, 0.0, 0.0, 799.8571753331632, 0.0]
['beep', 0.0, -1696.720921602359, 0.0, 0.0, 0.0, 0.0, 802.6511433900766, 0.0]
['beep', 0.0, -1698.4196541809624, 0.0, 0.0, 0.0, 0.0, 799.0972160216828, 0.0]
['beep', 0.0, -1699.8948693150128, 0.0, 0.0, 0.0, 0.0, 797.0185037873392, 0.0]
['beep', 0.0, -1697.6820466139372, 0.0, 0.0, 0.0, 0.0, 800.930059067018, 0.0]
['beep', 0.0, -1692.339979689119, 0.0, 0.0, 0.0, 0.0, 805.7580358693643, 0.0]
['beep', 0.0, -1691.043578510711, 0.0, 0.0, 0.0, 0.0, 806.7638643698531, 0.0]
['beep', 0.0, -1695.2457064683088, 0.0, 0.0, 0.0, 0.0, 802.0029428008727, 0.0]
['beep', 0.0, -1699.1572617479876, 0.0, 0.0, 0.0, 0.0, 800.6618381335543, 0.0]
['beep', 0.0, -1697.883212314035, 0.0, 0.0, 0.0, 0.0, 803.9028410795738, 0.0]
['beep', 0.0, -1693.9940087788116, 0.0, 0.0, 0.0, 0.0, 810.831881860719, 0.0]
['beep', 0.0, -1688.0037412647894, 0.0, 0.0, 0.0, 0.0, 809.7813498713195, 0.0]
['beep', 0.0, -1687.9590377758789, 0.0, 0.0, 0.0, 0.0, 806.9873818144061, 0.0]
['beep', 0.0, -1691.0212267662557, 0.0, 0.0, 0.0, 0.0, 805.3780562136241, 0.0]
['beep', 0.0, -1687.4002441644961, 0.0, 0.0, 0.0, 0.0, 807.2556027478698, 0.0]
['beep', 0.0, -1678.9736365048452, 0.0, 0.0, 0.0, 0.0, 814.3858092291129, 0.0]
['beep', 0.0, -1678.884229527024, 0.0, 0.0, 0.0, 0.0, 813.8046638732749, 0.0]
['beep', 0.0, -1683.6675028404597, 0.0, 0.0, 0.0, 0.0, 810.8542336051743, 0.0]
['beep', 0.0, -1683.4439853959068, 0.0, 0.0, 0.0, 0.0, 810.6754196495318, 0.0]
['beep', 0.0, -1676.6714068259487, 0.0, 0.0, 0.0, 0.0, 812.6870766505095, 0.0]
['beep', 0.0, -1671.9998922347895, 0.0, 0.0, 0.0, 0.0, 817.090370308205, 0.0]
['beep', 0.0, -1666.9260462434347, 0.0, 0.0, 0.0, 0.0, 819.5490621982888, 0.0]
['beep', 0.0, -1663.7073950418705, 0.0, 0.0, 0.0, 0.0, 818.252661019881, 0.0]
['beep', 0.0, -1664.020319464245, 0.0, 0.0, 0.0, 0.0, 816.3080592522692, 0.0]
['beep', 0.0, -1661.271054896242, 0.0, 0.0, 0.0, 0.0, 818.990268586906, 0.0]
['beep', 0.0, -1653.8055722481695, 0.0, 0.0, 0.0, 0.0, 824.6676116785541, 0.0]
['beep', 0.0, -1646.8988832114796, 0.0, 0.0, 0.0, 0.0, 827.4168762465569, 0.0]
['beep', 0.0, -1648.2623396232534, 0.0, 0.0, 0.0, 0.0, 825.025239589839, 0.0]
['beep', 0.0, -1648.3070431121641, 0.0, 0.0, 0.0, 0.0, 822.186568044015, 0.0]
['beep', 0.0, -1644.6860605104043, 0.0, 0.0, 0.0, 0.0, 824.9581843564731, 0.0]
['beep', 0.0, -1636.8629499510469, 0.0, 0.0, 0.0, 0.0, 832.4907222379115, 0.0]
['beep', 0.0, -1631.4538277928625, 0.0, 0.0, 0.0, 0.0, 834.860007150174, 0.0]
['beep', 0.0, -1633.8678161940356, 0.0, 0.0, 0.0, 0.0, 830.5014169813892, 0.0]
['beep', 0.0, -1633.5548917716615, 0.0, 0.0, 0.0, 0.0, 827.7745041578418, 0.0]
['beep', 0.0, -1628.793970202681, 0.0, 0.0, 0.0, 0.0, 831.3507832706908, 0.0]
['beep', 0.0, -1624.0554003781558, 0.0, 0.0, 0.0, 0.0, 835.4188007615568, 0.0]
['beep', 0.0, -1618.3557055420526, 0.0, 0.0, 0.0, 0.0, 835.3964490171014, 0.0]
['beep', 0.0, -1618.4004090309631, 0.0, 0.0, 0.0, 0.0, 831.5966524596993, 0.0]
['beep', 0.0, -1621.663763721438, 0.0, 0.0, 0.0, 0.0, 829.6073472031769, 0.0]
['beep', 0.0, -1615.114702596033, 0.0, 0.0, 0.0, 0.0, 831.4625419929674, 0.0]
['beep', 0.0, -1605.7716734137148, 0.0, 0.0, 0.0, 0.0, 835.6199664616545, 0.0]
['beep', 0.0, -1599.8037576441477, 0.0, 0.0, 0.0, 0.0, 835.1729315725484, 0.0]
['beep', 0.0, -1596.4509959758516, 0.0, 0.0, 0.0, 0.0, 830.2778995368361, 0.0]
['beep', 0.0, -1597.9709145988124, 0.0, 0.0, 0.0, 0.0, 829.6073472031769, 0.0]
['beep', 0.0, -1595.2663535197203, 0.0, 0.0, 0.0, 0.0, 830.9261001260401, 0.0]
['beep', 0.0, -1589.2984377501534, 0.0, 0.0, 0.0, 0.0, 832.7142396824646, 0.0]
['beep', 0.0, -1584.381053969986, 0.0, 0.0, 0.0, 0.0, 833.9212338830512, 0.0]
['beep', 0.0, -1584.1798882698881, 0.0, 0.0, 0.0, 0.0, 831.9542803709842, 0.0]
['beep', 0.0, -1584.403405714441, 0.0, 0.0, 0.0, 0.0, 828.1321320691267, 0.0]
['beep', 0.0, -1580.8718300905027, 0.0, 0.0, 0.0, 0.0, 829.6073472031769, 0.0]
['beep', 0.0, -1573.831030587081, 0.0, 0.0, 0.0, 0.0, 833.4518472494898, 0.0]
['beep', 0.0, -1569.3606816960196, 0.0, 0.0, 0.0, 0.0, 833.1165710826601, 0.0]
['beep', 0.0, -1570.5453241521507, 0.0, 0.0, 0.0, 0.0, 829.9873268589172, 0.0]
['beep', 0.0, -1569.6512543739384, 0.0, 0.0, 0.0, 0.0, 830.2331960479255, 0.0]
['beep', 0.0, -1566.0973270055447, 0.0, 0.0, 0.0, 0.0, 831.797818159797, 0.0]
['beep', 0.0, -1560.1070594915223, 0.0, 0.0, 0.0, 0.0, 836.9163676400624, 0.0]
['beep', 0.0, -1555.9719867672904, 0.0, 0.0, 0.0, 0.0, 836.0446496063054, 0.0]
['beep', 0.0, -1557.7377745792598, 0.0, 0.0, 0.0, 0.0, 832.2001495599926, 0.0]
['beep', 0.0, -1559.9729490247905, 0.0, 0.0, 0.0, 0.0, 830.2778995368361, 0.0]
['beep', 0.0, -1557.2683879456984, 0.0, 0.0, 0.0, 0.0, 832.3566117711797, 0.0]
['beep', 0.0, -1550.249940186732, 0.0, 0.0, 0.0, 0.0, 836.4916844954115, 0.0]
['beep', 0.0, -1546.3607366515084, 0.0, 0.0, 0.0, 0.0, 836.4469810065009, 0.0]
['beep', 0.0, -1548.0147657412012, 0.0, 0.0, 0.0, 0.0, 832.5130739823669, 0.0]
['beep', 0.0, -1549.9370157643577, 0.0, 0.0, 0.0, 0.0, 829.6744024365429, 0.0]
['beep', 0.0, -1547.277158174176, 0.0, 0.0, 0.0, 0.0, 830.0767338367384, 0.0]
['beep', 0.0, -1540.0128412262013, 0.0, 0.0, 0.0, 0.0, 833.4071437605792, 0.0]
['beep', 0.0, -1533.9778702232684, 0.0, 0.0, 0.0, 0.0, 834.122399583149, 0.0]
['beep', 0.0, -1535.4754371017739, 0.0, 0.0, 0.0, 0.0, 829.9649751144618, 0.0]
['beep', 0.0, -1539.1634749368995, 0.0, 0.0, 0.0, 0.0, 828.3109460247691, 0.0]
['beep', 0.0, -1535.2072161683102, 0.0, 0.0, 0.0, 0.0, 830.4567134924786, 0.0]
['beep', 0.0, -1528.993431209735, 0.0, 0.0, 0.0, 0.0, 833.3400885272132, 0.0]
['beep', 0.0, -1525.4171520968857, 0.0, 0.0, 0.0, 0.0, 834.0329926053278, 0.0]
['beep', 0.0, -1528.121713175978, 0.0, 0.0, 0.0, 0.0, 829.0038501028837, 0.0]
['beep', 0.0, -1531.7873992666482, 0.0, 0.0, 0.0, 0.0, 826.1204750681491, 0.0]
['beep', 0.0, -1529.0157829541902, 0.0, 0.0, 0.0, 0.0, 829.5179402253557, 0.0]
['beep', 0.0, -1523.5843090515507, 0.0, 0.0, 0.0, 0.0, 833.0495158492943, 0.0]
['beep', 0.0, -1521.706762517305, 0.0, 0.0, 0.0, 0.0, 832.6024809601881, 0.0]
['beep', 0.0, -1529.216948654288, 0.0, 0.0, 0.0, 0.0, 828.1321320691267, 0.0]
['beep', 0.0, -1533.799056267626, 0.0, 0.0, 0.0, 0.0, 824.9805361009284, 0.0]
['beep', 0.0, -1530.6921637883383, 0.0, 0.0, 0.0, 0.0, 826.1428268126043, 0.0]
['beep', 0.0, -1526.154759663911, 0.0, 0.0, 0.0, 0.0, 830.0096786033724, 0.0]
['beep', 0.0, -1524.3666201074864, 0.0, 0.0, 0.0, 0.0, 829.4732367364451, 0.0]
['beep', 0.0, -1528.6805067873606, 0.0, 0.0, 0.0, 0.0, 826.9698413574507, 0.0]
['beep', 0.0, -1533.8437597565367, 0.0, 0.0, 0.0, 0.0, 822.1642162995597, 0.0]
['beep', 0.0, -1532.1897306668438, 0.0, 0.0, 0.0, 0.0, 824.1982250449927, 0.0]
['beep', 0.0, -1527.3394021200422, 0.0, 0.0, 0.0, 0.0, 826.9251378685401, 0.0]
['beep', 0.0, -1526.668849786383, 0.0, 0.0, 0.0, 0.0, 826.5228064683446, 0.0]
['beep', 0.0, -1532.9049864894137, 0.0, 0.0, 0.0, 0.0, 822.7006581664871, 0.0]
['beep', 0.0, -1538.5599778366063, 0.0, 0.0, 0.0, 0.0, 818.0514953197832, 0.0]
['beep', 0.0, -1538.1129429475002, 0.0, 0.0, 0.0, 0.0, 820.1749110430374, 0.0]
['beep', 0.0, -1537.2859284026538, 0.0, 0.0, 0.0, 0.0, 823.3041552667803, 0.0]
['beep', 0.0, -1537.9341289918577, 0.0, 0.0, 0.0, 0.0, 822.2089197884703, 0.0]
['beep', 0.0, -1542.4715331162852, 0.0, 0.0, 0.0, 0.0, 817.671515664043, 0.0]
['beep', 0.0, -1549.02059424169, 0.0, 0.0, 0.0, 0.0, 812.7317801394202, 0.0]
['beep', 0.0, -1551.3004721761313, 0.0, 0.0, 0.0, 0.0, 814.2964022512916, 0.0]
['beep', 0.0, -1547.768896552193, 0.0, 0.0, 0.0, 0.0, 818.3644197421575, 0.0]
['beep', 0.0, -1551.0769547315783, 0.0, 0.0, 0.0, 0.0, 817.1350737971156, 0.0]
['beep', 0.0, -1558.3859751684638, 0.0, 0.0, 0.0, 0.0, 812.6200214171436, 0.0]
['beep', 0.0, -1563.571579882095, 0.0, 0.0, 0.0, 0.0, 809.9378120825068, 0.0]
['beep', 0.0, -1565.7620508387151, 0.0, 0.0, 0.0, 0.0, 811.1001027941827, 0.0]
['beep', 0.0, -1564.0409665156565, 0.0, 0.0, 0.0, 0.0, 816.3080592522692, 0.0]
['beep', 0.0, -1565.7620508387151, 0.0, 0.0, 0.0, 0.0, 815.9057278520737, 0.0]
['beep', 0.0, -1572.378167197486, 0.0, 0.0, 0.0, 0.0, 810.7201231384424, 0.0]
['beep', 0.0, -1579.508373678729, 0.0, 0.0, 0.0, 0.0, 807.8590998481632, 0.0]
['beep', 0.0, -1582.950542324846, 0.0, 0.0, 0.0, 0.0, 811.0106958163615, 0.0]
['beep', 0.0, -1580.469498690307, 0.0, 0.0, 0.0, 0.0, 815.4586929629676, 0.0]
['beep', 0.0, -1582.5482109246507, 0.0, 0.0, 0.0, 0.0, 814.5869749292106, 0.0]
['beep', 0.0, -1589.9689900838125, 0.0, 0.0, 0.0, 0.0, 809.6025359156771, 0.0]
['beep', 0.0, -1596.2945337646645, 0.0, 0.0, 0.0, 0.0, 808.864928348652, 0.0]
['beep', 0.0, -1598.954391354846, 0.0, 0.0, 0.0, 0.0, 810.3401434827023, 0.0]
['beep', 0.0, -1597.6803419208936, 0.0, 0.0, 0.0, 0.0, 812.1729865280374, 0.0]
['beep', 0.0, -1598.3061907656422, 0.0, 0.0, 0.0, 0.0, 812.217690016948, 0.0]
['beep', 0.0, -1606.3528187695526, 0.0, 0.0, 0.0, 0.0, 808.864928348652, 0.0]
['beep', 0.0, -1614.4665020068292, 0.0, 0.0, 0.0, 0.0, 802.6734951345319, 0.0]
['beep', 0.0, -1614.3547432845526, 0.0, 0.0, 0.0, 0.0, 804.9980765578839, 0.0]
['beep', 0.0, -1614.8688334070246, 0.0, 0.0, 0.0, 0.0, 808.7084661374648, 0.0]
['beep', 0.0, -1616.1875863298878, 0.0, 0.0, 0.0, 0.0, 808.2167277594481, 0.0]
['beep', 0.0, -1623.4519032778626, 0.0, 0.0, 0.0, 0.0, 802.4499776899788, 0.0]
['beep', 0.0, -1632.6384702489938, 0.0, 0.0, 0.0, 0.0, 800.415968944546, 0.0]
['beep', 0.0, -1633.8678161940356, 0.0, 0.0, 0.0, 0.0, 802.897012579085, 0.0]
['beep', 0.0, -1633.241967349287, 0.0, 0.0, 0.0, 0.0, 806.4956434363894, 0.0]
['beep', 0.0, -1635.208920861354, 0.0, 0.0, 0.0, 0.0, 806.6744573920319, 0.0]
['beep', 0.0, -1642.5402930426949, 0.0, 0.0, 0.0, 0.0, 802.4499776899788, 0.0]
['beep', 0.0, -1651.0563076801668, 0.0, 0.0, 0.0, 0.0, 799.4995474218783, 0.0]
['beep', 0.0, -1651.7492117582813, 0.0, 0.0, 0.0, 0.0, 801.8688323341408, 0.0]
['beep', 0.0, -1651.7715635027366, 0.0, 0.0, 0.0, 0.0, 806.7415126253978, 0.0]
['beep', 0.0, -1652.665633280949, 0.0, 0.0, 0.0, 0.0, 806.2721259918363, 0.0]
['beep', 0.0, -1656.3313193716192, 0.0, 0.0, 0.0, 0.0, 801.0641695337498, 0.0]
['beep', 0.0, -1664.0650229531554, 0.0, 0.0, 0.0, 0.0, 800.1477480110823, 0.0]
['beep', 0.0, -1666.0766799541332, 0.0, 0.0, 0.0, 0.0, 802.4276259455236, 0.0]
['beep', 0.0, -1661.4498688518845, 0.0, 0.0, 0.0, 0.0, 804.1934137574929, 0.0]
['beep', 0.0, -1662.5451043301946, 0.0, 0.0, 0.0, 0.0, 805.7133323804537, 0.0]
['beep', 0.0, -1668.8259445221358, 0.0, 0.0, 0.0, 0.0, 801.3323904672135, 0.0]
['beep', 0.0, -1674.5479911026946, 0.0, 0.0, 0.0, 0.0, 797.4655386764454, 0.0]
['beep', 0.0, -1675.1738399474432, 0.0, 0.0, 0.0, 0.0, 799.3877886996017, 0.0]
['beep', 0.0, -1673.117479457555, 0.0, 0.0, 0.0, 0.0, 800.5053759223672, 0.0]
['beep', 0.0, -1673.0727759686442, 0.0, 0.0, 0.0, 0.0, 799.5889543996996, 0.0]
['beep', 0.0, -1677.3866626485185, 0.0, 0.0, 0.0, 0.0, 797.4208351875347, 0.0]
['beep', 0.0, -1683.6451510960044, 0.0, 0.0, 0.0, 0.0, 793.576335141222, 0.0]
['beep', 0.0, -1682.6393225955158, 0.0, 0.0, 0.0, 0.0, 794.3586461971577, 0.0]
['beep', 0.0, -1680.0018167497894, 0.0, 0.0, 0.0, 0.0, 799.7454166108867, 0.0]
['beep', 0.0, -1680.5159068722614, 0.0, 0.0, 0.0, 0.0, 794.3362944527024, 0.0]
['beep', 0.0, -1684.405110407485, 0.0, 0.0, 0.0, 0.0, 789.0612827612499, 0.0]
['beep', 0.0, -1689.14368023201, 0.0, 0.0, 0.0, 0.0, 787.317846693736, 0.0]
['beep', 0.0, -1688.6072383650826, 0.0, 0.0, 0.0, 0.0, 790.089463006194, 0.0]
['beep', 0.0, -1682.95224701789, 0.0, 0.0, 0.0, 0.0, 791.9223060515292, 0.0]
['beep', 0.0, -1681.8793632840352, 0.0, 0.0, 0.0, 0.0, 793.509279907856, 0.0]
['beep', 0.0, -1686.372063919552, 0.0, 0.0, 0.0, 0.0, 788.5024891498673, 0.0]
['beep', 0.0, -1690.2612674547754, 0.0, 0.0, 0.0, 0.0, 783.2274774584148, 0.0]
['beep', 0.0, -1690.1495087324988, 0.0, 0.0, 0.0, 0.0, 787.4296054160125, 0.0]
['beep', 0.0, -1683.399281906996, 0.0, 0.0, 0.0, 0.0, 793.3304659522136, 0.0]
['beep', 0.0, -1681.0970522280995, 0.0, 0.0, 0.0, 0.0, 793.0622450187499, 0.0]
['beep', 0.0, -1684.9415522744123, 0.0, 0.0, 0.0, 0.0, 788.189564727493, 0.0]
['beep', 0.0, -1687.7131685868703, 0.0, 0.0, 0.0, 0.0, 784.9709135259287, 0.0]
['beep', 0.0, -1686.2379534528202, 0.0, 0.0, 0.0, 0.0, 787.9883990273952, 0.0]
['beep', 0.0, -1682.080528984133, 0.0, 0.0, 0.0, 0.0, 793.6880938634985, 0.0]
['beep', 0.0, -1679.688892327415, 0.0, 0.0, 0.0, 0.0, 793.8892595635963, 0.0]
['beep', 0.0, -1680.5606103611722, 0.0, 0.0, 0.0, 0.0, 790.4023874285683, 0.0]
['beep', 0.0, -1682.5275638732392, 0.0, 0.0, 0.0, 0.0, 788.3460269386801, 0.0]
['beep', 0.0, -1682.2593429397755, 0.0, 0.0, 0.0, 0.0, 788.7260065944204, 0.0]
['beep', 0.0, -1677.3643109040631, 0.0, 0.0, 0.0, 0.0, 792.2575822183588, 0.0]
['beep', 0.0, -1675.889095770013, 0.0, 0.0, 0.0, 0.0, 794.2245357304258, 0.0]
['beep', 0.0, -1678.8171742936581, 0.0, 0.0, 0.0, 0.0, 790.8717740621298, 0.0]
['beep', 0.0, -1681.4770318838398, 0.0, 0.0, 0.0, 0.0, 787.8542885606633, 0.0]
['beep', 0.0, -1677.6325318375268, 0.0, 0.0, 0.0, 0.0, 790.1118147506494, 0.0]
['beep', 0.0, -1671.7540230457812, 0.0, 0.0, 0.0, 0.0, 794.8056810862638, 0.0]
['beep', 0.0, -1670.6811393119265, 0.0, 0.0, 0.0, 0.0, 793.6657421190432, 0.0]
['beep', 0.0, -1674.7715085472475, 0.0, 0.0, 0.0, 0.0, 789.6647798615433, 0.0]
['beep', 0.0, -1679.979465005334, 0.0, 0.0, 0.0, 0.0, 787.9213437940292, 0.0]
['beep', 0.0, -1674.3915288915073, 0.0, 0.0, 0.0, 0.0, 791.8105473292527, 0.0]
['beep', 0.0, -1663.215656663854, 0.0, 0.0, 0.0, 0.0, 795.4091781865571, 0.0]
['beep', 0.0, -1660.1758194179322, 0.0, 0.0, 0.0, 0.0, 796.6385241315991, 0.0]
['beep', 0.0, -1663.014490963756, 0.0, 0.0, 0.0, 0.0, 794.962143297451, 0.0]
['beep', 0.0, -1665.0037962202784, 0.0, 0.0, 0.0, 0.0, 792.3246374517248, 0.0]
['beep', 0.0, -1662.500400841284, 0.0, 0.0, 0.0, 0.0, 795.1856607420041, 0.0]
['beep', 0.0, -1658.633549050516, 0.0, 0.0, 0.0, 0.0, 800.8183003447415, 0.0]
['beep', 0.0, -1656.9795199608232, 0.0, 0.0, 0.0, 0.0, 801.3323904672135, 0.0]
['beep', 0.0, -1657.2030374053763, 0.0, 0.0, 0.0, 0.0, 798.381960199113, 0.0]
['beep', 0.0, -1656.1301536715216, 0.0, 0.0, 0.0, 0.0, 797.510242165356, 0.0]
['beep', 0.0, -1651.5703978026388, 0.0, 0.0, 0.0, 0.0, 800.0359892888057, 0.0]
['beep', 0.0, -1642.048554664678, 0.0, 0.0, 0.0, 0.0, 804.9310213245179, 0.0]
['beep', 0.0, -1636.3041563396641, 0.0, 0.0, 0.0, 0.0, 807.1661957700486, 0.0]
['beep', 0.0, -1638.6510895074714, 0.0, 0.0, 0.0, 0.0, 805.3110009802582, 0.0]
['beep', 0.0, -1639.5898627745942, 0.0, 0.0, 0.0, 0.0, 803.3440474681911, 0.0]
['beep', 0.0, -1634.5830720166055, 0.0, 0.0, 0.0, 0.0, 806.4732916919342, 0.0]
['beep', 0.0, -1629.4868742807955, 0.0, 0.0, 0.0, 0.0, 810.4519022049788, 0.0]
['beep', 0.0, -1628.0116591467452, 0.0, 0.0, 0.0, 0.0, 812.3518004836799, 0.0]
['beep', 0.0, -1631.8114557041474, 0.0, 0.0, 0.0, 0.0, 809.5801841712218, 0.0]
['beep', 0.0, -1636.5947290175832, 0.0, 0.0, 0.0, 0.0, 808.3061347372693, 0.0]
['beep', 0.0, -1631.3644208150413, 0.0, 0.0, 0.0, 0.0, 809.8260533602302, 0.0]
['beep', 0.0, -1623.6754207224155, 0.0, 0.0, 0.0, 0.0, 813.8717191066407, 0.0]
['beep', 0.0, -1620.076789865111, 0.0, 0.0, 0.0, 0.0, 815.8163208742525, 0.0]
['beep', 0.0, -1619.406237531452, 0.0, 0.0, 0.0, 0.0, 813.4917394509006, 0.0]
['beep', 0.0, -1620.0991416095665, 0.0, 0.0, 0.0, 0.0, 809.8260533602302, 0.0]
['beep', 0.0, -1615.472330507318, 0.0, 0.0, 0.0, 0.0, 813.0223528173391, 0.0]
['beep', 0.0, -1606.531632725195, 0.0, 0.0, 0.0, 0.0, 819.8396348762077, 0.0]
['beep', 0.0, -1603.3576850125414, 0.0, 0.0, 0.0, 0.0, 821.0689808212496, 0.0]
['beep', 0.0, -1602.083635578589, 0.0, 0.0, 0.0, 0.0, 817.090370308205, 0.0]
['beep', 0.0, -1603.8047199016476, 0.0, 0.0, 0.0, 0.0, 817.6938674084982, 0.0]
['beep', 0.0, -1601.1001588225556, 0.0, 0.0, 0.0, 0.0, 819.6608209205652, 0.0]
['beep', 0.0, -1596.3839407424857, 0.0, 0.0, 0.0, 0.0, 823.9747076004396, 0.0]
['beep', 0.0, -1594.953429097346, 0.0, 0.0, 0.0, 0.0, 825.0028878453837, 0.0]
['beep', 0.0, -1598.0603215766337, 0.0, 0.0, 0.0, 0.0, 820.1749110430374, 0.0]
['beep', 0.0, -1601.1672140559215, 0.0, 0.0, 0.0, 0.0, 816.2410040189034, 0.0]
['beep', 0.0, -1599.759054155237, 0.0, 0.0, 0.0, 0.0, 818.5432336977999, 0.0]
['beep', 0.0, -1594.1040628080443, 0.0, 0.0, 0.0, 0.0, 823.5500244557887, 0.0]
['beep', 0.0, -1592.2935715071646, 0.0, 0.0, 0.0, 0.0, 824.6005564451882, 0.0]
['beep', 0.0, -1595.176946541899, 0.0, 0.0, 0.0, 0.0, 819.9513935984843, 0.0]
['beep', 0.0, -1599.088501821578, 0.0, 0.0, 0.0, 0.0, 816.5762801857329, 0.0]
['beep', 0.0, -1598.373245999008, 0.0, 0.0, 0.0, 0.0, 819.1020273091826, 0.0]
['beep', 0.0, -1593.992304085768, 0.0, 0.0, 0.0, 0.0, 823.0135825888614, 0.0]
['beep', 0.0, -1590.9748185843014, 0.0, 0.0, 0.0, 0.0, 823.572376200244, 0.0]
['beep', 0.0, -1595.3781122419969, 0.0, 0.0, 0.0, 0.0, 818.3420679977022, 0.0]
['beep', 0.0, -1600.6531239334495, 0.0, 0.0, 0.0, 0.0, 814.6987336514871, 0.0]
['beep', 0.0, -1601.4130832449298, 0.0, 0.0, 0.0, 0.0, 817.3138877527581, 0.0]
['beep', 0.0, -1594.148766296955, 0.0, 0.0, 0.0, 0.0, 821.4936639659005, 0.0]
['beep', 0.0, -1586.9515045823462, 0.0, 0.0, 0.0, 0.0, 824.2429285339033, 0.0]
['beep', 0.0, -1586.1021382930444, 0.0, 0.0, 0.0, 0.0, 818.476178464434, 0.0]
['beep', 0.0, -1585.8339173595807, 0.0, 0.0, 0.0, 0.0, 811.0553993052721, 0.0]
['beep', 0.0, -1582.2129347578211, 0.0, 0.0, 0.0, 0.0, 813.0447045617944, 0.0]
['beep', 0.0, -1578.3013794781423, 0.0, 0.0, 0.0, 0.0, 817.8950331085961, 0.0]
['beep', 0.0, -1576.31207422162, 0.0, 0.0, 0.0, 0.0, 815.63750691861, 0.0]
['beep', 0.0, -1576.893219577458, 0.0, 0.0, 0.0, 0.0, 807.9708585704396, 0.0]
['beep', 0.0, -1578.4131382004189, 0.0, 0.0, 0.0, 0.0, 803.6346201461101, 0.0]
['beep', 0.0, -1579.3966149564524, 0.0, 0.0, 0.0, 0.0, 803.4558061904677, 0.0]
['beep', 0.0, -1575.663873632416, 0.0, 0.0, 0.0, 0.0, 806.7191608809425, 0.0]
['beep', 0.0, -1573.4286991868853, 0.0, 0.0, 0.0, 0.0, 806.7638643698531, 0.0]
['beep', 0.0, -1576.535591666173, 0.0, 0.0, 0.0, 0.0, 801.3994457005795, 0.0]
['beep', 0.0, -1579.955408567835, 0.0, 0.0, 0.0, 0.0, 797.4878904209007, 0.0]
['beep', 0.0, -1579.3519114675416, 0.0, 0.0, 0.0, 0.0, 800.2595067333588, 0.0]
['beep', 0.0, -1574.3898241984637, 0.0, 0.0, 0.0, 0.0, 804.1487102685822, 0.0]
['beep', 0.0, -1572.087594519567, 0.0, 0.0, 0.0, 0.0, 804.1263585241269, 0.0]
['beep', 0.0, -1574.4568794318295, 0.0, 0.0, 0.0, 0.0, 799.6113061441548, 0.0]
['beep', 0.0, -1579.083690534078, 0.0, 0.0, 0.0, 0.0, 796.2361927314035, 0.0]
['beep', 0.0, -1578.0778620335893, 0.0, 0.0, 0.0, 0.0, 798.4266636880236, 0.0]
['beep', 0.0, -1573.316940464609, 0.0, 0.0, 0.0, 0.0, 802.4052742010682, 0.0]
['beep', 0.0, -1572.2217049862988, 0.0, 0.0, 0.0, 0.0, 803.2322887459146, 0.0]
['beep', 0.0, -1574.792155598659, 0.0, 0.0, 0.0, 0.0, 798.9854572994062, 0.0]
['beep', 0.0, -1577.3402544665641, 0.0, 0.0, 0.0, 0.0, 795.8785648201185, 0.0]
['beep', 0.0, -1576.4908881772624, 0.0, 0.0, 0.0, 0.0, 798.381960199113, 0.0]
['beep', 0.0, -1572.892257319958, 0.0, 0.0, 0.0, 0.0, 802.9640678124509, 0.0]
['beep', 0.0, -1570.858248574525, 0.0, 0.0, 0.0, 0.0, 803.3887509571017, 0.0]
['beep', 0.0, -1573.0934230200558, 0.0, 0.0, 0.0, 0.0, 798.6948846214873, 0.0]
['beep', 0.0, -1577.2284957442876, 0.0, 0.0, 0.0, 0.0, 794.6939223639873, 0.0]
['beep', 0.0, -1576.5132399217177, 0.0, 0.0, 0.0, 0.0, 797.0185037873392, 0.0]
['beep', 0.0, -1571.7970218416478, 0.0, 0.0, 0.0, 0.0, 800.5053759223672, 0.0]
['beep', 0.0, -1569.0254055291898, 0.0, 0.0, 0.0, 0.0, 800.4383206890012, 0.0]
['beep', 0.0, -1572.6910916198603, 0.0, 0.0, 0.0, 0.0, 796.3703031981354, 0.0]
['beep', 0.0, -1577.2061439998322, 0.0, 0.0, 0.0, 0.0, 793.3081142077583, 0.0]
['beep', 0.0, -1576.736757366271, 0.0, 0.0, 0.0, 0.0, 794.962143297451, 0.0]
['beep', 0.0, -1572.0428910306564, 0.0, 0.0, 0.0, 0.0, 797.8231665877303, 0.0]
['beep', 0.0, -1568.958350295824, 0.0, 0.0, 0.0, 0.0, 796.7055793649649, 0.0]
['beep', 0.0, -1568.31014970662, 0.0, 0.0, 0.0, 0.0, 791.6764368625209, 0.0]
['beep', 0.0, -1575.8426875880584, 0.0, 0.0, 0.0, 0.0, 790.089463006194, 0.0]
['beep', 0.0, -1584.6716266479048, 0.0, 0.0, 0.0, 0.0, 788.0331025163058, 0.0]
['beep', 0.0, -1583.665798147416, 0.0, 0.0, 0.0, 0.0, 785.06032050375, 0.0]
['beep', 0.0, -1585.7668621262148, 0.0, 0.0, 0.0, 0.0, 779.4276809010125, 0.0]
['beep', 0.0, -1591.9582953403349, 0.0, 0.0, 0.0, 0.0, 770.6657970745322, 0.0]
['beep', 0.0, -1598.4179494879186, 0.0, 0.0, 0.0, 0.0, 761.1216021921161, 0.0]
['beep', 0.0, -1601.1672140559215, 0.0, 0.0, 0.0, 0.0, 760.8757330031077, 0.0]
['beep', 0.0, -1598.2391355322761, 0.0, 0.0, 0.0, 0.0, 764.0943842046719, 0.0]
['beep', 0.0, -1594.2605250192316, 0.0, 0.0, 0.0, 0.0, 759.6240353136105, 0.0]
['beep', 0.0, -1597.635638431983, 0.0, 0.0, 0.0, 0.0, 752.6502910435547, 0.0]
['beep', 0.0, -1601.346028011564, 0.0, 0.0, 0.0, 0.0, 749.543398564267, 0.0]
['beep', 0.0, -1600.854289633547, 0.0, 0.0, 0.0, 0.0, 750.6833375314877, 0.0]
['beep', 0.0, -1596.0486645756562, 0.0, 0.0, 0.0, 0.0, 753.4996573328564, 0.0]
['beep', 0.0, -1593.3217517521086, 0.0, 0.0, 0.0, 0.0, 752.6055875546441, 0.0]
['beep', 0.0, -1595.5569261976393, 0.0, 0.0, 0.0, 0.0, 746.995299696362, 0.0]
['beep', 0.0, -1600.7648826557258, 0.0, 0.0, 0.0, 0.0, 743.3743170946022, 0.0]
['beep', 0.0, -1600.2284407887985, 0.0, 0.0, 0.0, 0.0, 744.156628150538, 0.0]
['beep', 0.0, -1595.2216500308098, 0.0, 0.0, 0.0, 0.0, 747.285872374281, 0.0]
['beep', 0.0, -1593.3217517521086, 0.0, 0.0, 0.0, 0.0, 747.1741136520045, 0.0]
['beep', 0.0, -1597.4568244763404, 0.0, 0.0, 0.0, 0.0, 741.9214537050074, 0.0]
['beep', 0.0, -1601.6142489450276, 0.0, 0.0, 0.0, 0.0, 738.6357472700772, 0.0]
['beep', 0.0, -1600.474309977807, 0.0, 0.0, 0.0, 0.0, 739.9768519373956, 0.0]
['beep', 0.0, -1596.0486645756562, 0.0, 0.0, 0.0, 0.0, 743.3072618612364, 0.0]
['beep', 0.0, -1594.8416703750695, 0.0, 0.0, 0.0, 0.0, 742.8378752276749, 0.0]
['beep', 0.0, -1596.8309756315919, 0.0, 0.0, 0.0, 0.0, 737.741677491865, 0.0]
['beep', 0.0, -1600.4296064888963, 0.0, 0.0, 0.0, 0.0, 733.8301222121862, 0.0]
['beep', 0.0, -1600.7425309112707, 0.0, 0.0, 0.0, 0.0, 733.2936803452588, 0.0]
['beep', 0.0, -1595.6910366643713, 0.0, 0.0, 0.0, 0.0, 735.3723925796023, 0.0]
['beep', 0.0, -1591.9359435958795, 0.0, 0.0, 0.0, 0.0, 733.964232678918, 0.0]
['beep', 0.0, -1595.4004639864522, 0.0, 0.0, 0.0, 0.0, 728.1304273760828, 0.0]
['beep', 0.0, -1600.183737299888, 0.0, 0.0, 0.0, 0.0, 723.2130435959153, 0.0]
['beep', 0.0, -1599.4908332217733, 0.0, 0.0, 0.0, 0.0, 722.5648430067114, 0.0]
['beep', 0.0, -1594.9757808418015, 0.0, 0.0, 0.0, 0.0, 724.9117761745186, 0.0]
['beep', 0.0, -1593.0982343075557, 0.0, 0.0, 0.0, 0.0, 723.19069185146, 0.0]
['beep', 0.0, -1595.4004639864522, 0.0, 0.0, 0.0, 0.0, 718.6309359825774, 0.0]
['beep', 0.0, -1599.9602198553348, 0.0, 0.0, 0.0, 0.0, 714.2499940693372, 0.0]
['beep', 0.0, -1599.401426243952, 0.0, 0.0, 0.0, 0.0, 713.7806074357758, 0.0]
['beep', 0.0, -1594.6852081638824, 0.0, 0.0, 0.0, 0.0, 715.9040231590299, 0.0]
['beep', 0.0, -1592.4276819738964, 0.0, 0.0, 0.0, 0.0, 715.9487266479405, 0.0]
['beep', 0.0, -1595.9145541089242, 0.0, 0.0, 0.0, 0.0, 709.5114242448121, 0.0]
['beep', 0.0, -1599.7814058996923, 0.0, 0.0, 0.0, 0.0, 703.9234881309853, 0.0]
['beep', 0.0, -1599.60259194405, 0.0, 0.0, 0.0, 0.0, 705.1304823315719, 0.0]
['beep', 0.0, -1594.953429097346, 0.0, 0.0, 0.0, 0.0, 708.3044300442255, 0.0]
['beep', 0.0, -1592.8747168630025, 0.0, 0.0, 0.0, 0.0, 706.9186218879964, 0.0]
['beep', 0.0, -1595.154594797444, 0.0, 0.0, 0.0, 0.0, 700.2354502958597, 0.0]
['beep', 0.0, -1597.7250454098041, 0.0, 0.0, 0.0, 0.0, 695.0498455822284, 0.0]
['beep', 0.0, -1598.0156180877232, 0.0, 0.0, 0.0, 0.0, 695.6533426825217, 0.0]
['beep', 0.0, -1595.1098913085332, 0.0, 0.0, 0.0, 0.0, 697.4414822389463, 0.0]
['beep', 0.0, -1592.69590290736, 0.0, 0.0, 0.0, 0.0, 696.6815229274658, 0.0]
['beep', 0.0, -1595.0875395640778, 0.0, 0.0, 0.0, 0.0, 691.6076769361111, 0.0]
['beep', 0.0, -1599.6249436885053, 0.0, 0.0, 0.0, 0.0, 686.6902931559436, 0.0]
['beep', 0.0, -1599.5802401995945, 0.0, 0.0, 0.0, 0.0, 687.0032175783178, 0.0]
['beep', 0.0, -1593.701731407849, 0.0, 0.0, 0.0, 0.0, 688.5007844568235, 0.0]
['beep', 0.0, -1591.243039517765, 0.0, 0.0, 0.0, 0.0, 688.4560809679128, 0.0]
['beep', 0.0, -1594.729911652793, 0.0, 0.0, 0.0, 0.0, 683.5610489322006, 0.0]
['beep', 0.0, -1600.1613855554326, 0.0, 0.0, 0.0, 0.0, 678.5542581742118, 0.0]
['beep', 0.0, -1599.9602198553348, 0.0, 0.0, 0.0, 0.0, 679.4259762079688, 0.0]
['beep', 0.0, -1594.1040628080443, 0.0, 0.0, 0.0, 0.0, 682.3093512427034, 0.0]
['beep', 0.0, -1592.6064959295388, 0.0, 0.0, 0.0, 0.0, 681.5717436756782, 0.0]
['beep', 0.0, -1595.0428360751673, 0.0, 0.0, 0.0, 0.0, 676.8778773400638, 0.0]
['beep', 0.0, -1598.7532256547483, 0.0, 0.0, 0.0, 0.0, 673.4133569494912, 0.0]
['beep', 0.0, -1598.149728554455, 0.0, 0.0, 0.0, 0.0, 673.8603918385974, 0.0]
['beep', 0.0, -1593.7911383856701, 0.0, 0.0, 0.0, 0.0, 676.386138962047, 0.0]
['beep', 0.0, -1590.9748185843014, 0.0, 0.0, 0.0, 0.0, 675.9614558173962, 0.0]
['beep', 0.0, -1594.1040628080443, 0.0, 0.0, 0.0, 0.0, 670.3735197035694, 0.0]
['beep', 0.0, -1597.5015279652512, 0.0, 0.0, 0.0, 0.0, 666.1043365126058, 0.0]
['beep', 0.0, -1597.7250454098041, 0.0, 0.0, 0.0, 0.0, 666.774888846265, 0.0]
['beep', 0.0, -1592.762958140726, 0.0, 0.0, 0.0, 0.0, 670.5970371481225, 0.0]
['beep', 0.0, -1590.3042662506423, 0.0, 0.0, 0.0, 0.0, 670.2394092368376, 0.0]
['beep', 0.0, -1594.662856419427, 0.0, 0.0, 0.0, 0.0, 664.9867492898404, 0.0]
['beep', 0.0, -1598.6861704213823, 0.0, 0.0, 0.0, 0.0, 661.9245602994633, 0.0]
['beep', 0.0, -1597.8815076209912, 0.0, 0.0, 0.0, 0.0, 662.8186300776756, 0.0]
['beep', 0.0, -1593.701731407849, 0.0, 0.0, 0.0, 0.0, 665.8808190680527, 0.0]
['beep', 0.0, -1591.377149984497, 0.0, 0.0, 0.0, 0.0, 666.3725574460694, 0.0]
['beep', 0.0, -1593.6793796633935, 0.0, 0.0, 0.0, 0.0, 661.7010428549103, 0.0]
['beep', 0.0, -1598.0603215766337, 0.0, 0.0, 0.0, 0.0, 658.6612056089886, 0.0]
['beep', 0.0, -1597.1886035428768, 0.0, 0.0, 0.0, 0.0, 660.1140689985834, 0.0]
['beep', 0.0, -1592.1371092959773, 0.0, 0.0, 0.0, 0.0, 663.7126998558879, 0.0]
['beep', 0.0, -1590.2595627617316, 0.0, 0.0, 0.0, 0.0, 663.9138655559857, 0.0]
['beep', 0.0, -1592.7853098851813, 0.0, 0.0, 0.0, 0.0, 660.22582772086, 0.0]
['beep', 0.0, -1597.434472731885, 0.0, 0.0, 0.0, 0.0, 656.582493374645, 0.0]
['beep', 0.0, -1596.8980308649577, 0.0, 0.0, 0.0, 0.0, 657.2306939638489, 0.0]
['beep', 0.0, -1592.2712197627093, 0.0, 0.0, 0.0, 0.0, 661.3657666880807, 0.0]
['beep', 0.0, -1589.276086005698, 0.0, 0.0, 0.0, 0.0, 661.2093044768935, 0.0]
['beep', 0.0, -1592.114757551522, 0.0, 0.0, 0.0, 0.0, 655.9789962743516, 0.0]
['beep', 0.0, -1596.1604232979325, 0.0, 0.0, 0.0, 0.0, 652.0227375057623, 0.0]
['beep', 0.0, -1595.176946541899, 0.0, 0.0, 0.0, 0.0, 654.1461532290165, 0.0]
['beep', 0.0, -1591.1312807954885, 0.0, 0.0, 0.0, 0.0, 657.3648044305808, 0.0]
['beep', 0.0, -1588.627885416494, 0.0, 0.0, 0.0, 0.0, 658.9070747979969, 0.0]
['beep', 0.0, -1591.6900744068712, 0.0, 0.0, 0.0, 0.0, 654.6602433514886, 0.0]
['beep', 0.0, -1596.3839407424857, 0.0, 0.0, 0.0, 0.0, 649.6087491045892, 0.0]
['beep', 0.0, -1596.3392372535752, 0.0, 0.0, 0.0, 0.0, 650.5922258606226, 0.0]
['beep', 0.0, -1591.1089290510333, 0.0, 0.0, 0.0, 0.0, 654.8614090515863, 0.0]
['beep', 0.0, -1588.0690918051114, 0.0, 0.0, 0.0, 0.0, 655.1072782405947, 0.0]
['beep', 0.0, -1590.9301150953909, 0.0, 0.0, 0.0, 0.0, 650.9722055163629, 0.0]
['beep', 0.0, -1594.796966886159, 0.0, 0.0, 0.0, 0.0, 647.0159467477736, 0.0]
['beep', 0.0, -1594.5958011860612, 0.0, 0.0, 0.0, 0.0, 647.9770717593517, 0.0]
['beep', 0.0, -1590.6395424174718, 0.0, 0.0, 0.0, 0.0, 651.4639438943797, 0.0]
['beep', 0.0, -1587.6220569160052, 0.0, 0.0, 0.0, 0.0, 651.5757026166561, 0.0]
['beep', 0.0, -1590.6618941619272, 0.0, 0.0, 0.0, 0.0, 646.5912636031227, 0.0]
['beep', 0.0, -1595.5792779420947, 0.0, 0.0, 0.0, 0.0, 642.679708323444, 0.0]
['beep', 0.0, -1594.1040628080443, 0.0, 0.0, 0.0, 0.0, 645.3842694025361, 0.0]
['beep', 0.0, -1589.8348796170808, 0.0, 0.0, 0.0, 0.0, 649.2958246822149, 0.0]
['beep', 0.0, -1587.4879464492735, 0.0, 0.0, 0.0, 0.0, 649.2511211933042, 0.0]
['beep', 0.0, -1590.6395424174718, 0.0, 0.0, 0.0, 0.0, 645.3842694025361, 0.0]
['beep', 0.0, -1594.8863738639802, 0.0, 0.0, 0.0, 0.0, 642.2103216898826, 0.0]
['beep', 0.0, -1593.8358418745806, 0.0, 0.0, 0.0, 0.0, 643.9090542684859, 0.0]
['beep', 0.0, -1590.1925075283657, 0.0, 0.0, 0.0, 0.0, 646.9265397699523, 0.0]
['beep', 0.0, -1588.471423205307, 0.0, 0.0, 0.0, 0.0, 646.5242083697568, 0.0]
['beep', 0.0, -1591.1983360288546, 0.0, 0.0, 0.0, 0.0, 641.3833071450362, 0.0]
['beep', 0.0, -1596.2274785312986, 0.0, 0.0, 0.0, 0.0, 639.1928361884161, 0.0]
['beep', 0.0, -1595.4004639864522, 0.0, 0.0, 0.0, 0.0, 641.5621211006786, 0.0]
['beep', 0.0, -1590.3713214840081, 0.0, 0.0, 0.0, 0.0, 645.7866008027316, 0.0]
['beep', 0.0, -1588.7396441387707, 0.0, 0.0, 0.0, 0.0, 646.323042669659, 0.0]
['beep', 0.0, -1591.6453709179607, 0.0, 0.0, 0.0, 0.0, 642.7467635568099, 0.0]
['beep', 0.0, -1595.0651878196227, 0.0, 0.0, 0.0, 0.0, 638.3434698991144, 0.0]
['beep', 0.0, -1594.7075599083378, 0.0, 0.0, 0.0, 0.0, 639.1704844439607, 0.0]
['beep', 0.0, -1590.281914506187, 0.0, 0.0, 0.0, 0.0, 643.4173158904691, 0.0]
['beep', 0.0, -1587.1303185379886, 0.0, 0.0, 0.0, 0.0, 643.5961298461116, 0.0]
['beep', 0.0, -1589.6560656614383, 0.0, 0.0, 0.0, 0.0, 640.5562926001897, 0.0]
['beep', 0.0, -1594.0593593191338, 0.0, 0.0, 0.0, 0.0, 637.7399727988211, 0.0]
['beep', 0.0, -1593.7911383856701, 0.0, 0.0, 0.0, 0.0, 638.0081937322848, 0.0]
['beep', 0.0, -1588.8961063499578, 0.0, 0.0, 0.0, 0.0, 642.0762112231507, 0.0]
['beep', 0.0, -1587.59970517155, 0.0, 0.0, 0.0, 0.0, 643.2608536792819, 0.0]
['beep', 0.0, -1590.7065976508377, 0.0, 0.0, 0.0, 0.0, 638.4328768769357, 0.0]
['beep', 0.0, -1595.3781122419969, 0.0, 0.0, 0.0, 0.0, 635.5271500977457, 0.0]
['beep', 0.0, -1593.9252488524019, 0.0, 0.0, 0.0, 0.0, 636.130647198039, 0.0]
['beep', 0.0, -1589.9019348504467, 0.0, 0.0, 0.0, 0.0, 641.8526937785977, 0.0]
['beep', 0.0, -1587.957333082835, 0.0, 0.0, 0.0, 0.0, 643.9090542684859, 0.0]
['beep', 0.0, -1592.3829784849859, 0.0, 0.0, 0.0, 0.0, 639.3940018885138, 0.0]
['beep', 0.0, -1595.7133884088264, 0.0, 0.0, 0.0, 0.0, 636.4659233648686, 0.0]
['beep', 0.0, -1594.729911652793, 0.0, 0.0, 0.0, 0.0, 636.1082954535837, 0.0]
['beep', 0.0, -1590.9077633509355, 0.0, 0.0, 0.0, 0.0, 640.131609455539, 0.0]
['beep', 0.0, -1588.8514028610473, 0.0, 0.0, 0.0, 0.0, 641.7856385452317, 0.0]
['beep', 0.0, -1591.3324464955863, 0.0, 0.0, 0.0, 0.0, 638.0081937322848, 0.0]
['beep', 0.0, -1594.7075599083378, 0.0, 0.0, 0.0, 0.0, 632.8225890186535, 0.0]
['beep', 0.0, -1594.1711180414104, 0.0, 0.0, 0.0, 0.0, 634.4095628749803, 0.0]
['beep', 0.0, -1590.281914506187, 0.0, 0.0, 0.0, 0.0, 639.4163536329692, 0.0]
['beep', 0.0, -1587.1303185379886, 0.0, 0.0, 0.0, 0.0, 638.9916704883183, 0.0]
['beep', 0.0, -1590.3042662506423, 0.0, 0.0, 0.0, 0.0, 634.4319146194357, 0.0]
['beep', 0.0, -1594.8193186306141, 0.0, 0.0, 0.0, 0.0, 630.8779872510419, 0.0]
['beep', 0.0, -1594.1934697858655, 0.0, 0.0, 0.0, 0.0, 632.2414436628155, 0.0]
['beep', 0.0, -1589.1866790278768, 0.0, 0.0, 0.0, 0.0, 638.2093594323826, 0.0]
['beep', 0.0, -1586.4374144598742, 0.0, 0.0, 0.0, 0.0, 639.7069263108881, 0.0]
['beep', 0.0, -1590.1254522949998, 0.0, 0.0, 0.0, 0.0, 635.3706878865586, 0.0]
['beep', 0.0, -1593.3217517521086, 0.0, 0.0, 0.0, 0.0, 631.3920773735139, 0.0]
['beep', 0.0, -1593.1652895409215, 0.0, 0.0, 0.0, 0.0, 633.3143273966704, 0.0]
['beep', 0.0, -1589.41019647243, 0.0, 0.0, 0.0, 0.0, 637.2035309318937, 0.0]
['beep', 0.0, -1586.9738563268015, 0.0, 0.0, 0.0, 0.0, 638.4999321103015, 0.0]
['beep', 0.0, -1590.9077633509355, 0.0, 0.0, 0.0, 0.0, 635.4600948643798, 0.0]
['beep', 0.0, -1594.4840424637846, 0.0, 0.0, 0.0, 0.0, 631.5261878402457, 0.0]
['beep', 0.0, -1594.1711180414104, 0.0, 0.0, 0.0, 0.0, 633.0908099521173, 0.0]
['beep', 0.0, -1589.4996034502512, 0.0, 0.0, 0.0, 0.0, 637.6505658209999, 0.0]
['beep', 0.0, -1586.057434804134, 0.0, 0.0, 0.0, 0.0, 637.6058623320893, 0.0]
['beep', 0.0, -1589.6113621725276, 0.0, 0.0, 0.0, 0.0, 633.4260861189468, 0.0]
['beep', 0.0, -1592.5617924406283, 0.0, 0.0, 0.0, 0.0, 630.4756558508464, 0.0]
['beep', 0.0, -1591.6230191735053, 0.0, 0.0, 0.0, 0.0, 631.0791529511396, 0.0]
['beep', 0.0, -1588.113795294022, 0.0, 0.0, 0.0, 0.0, 636.1529989424943, 0.0]
['beep', 0.0, -1585.4986411927512, 0.0, 0.0, 0.0, 0.0, 637.0694204651619, 0.0]
['beep', 0.0, -1588.0243883162009, 0.0, 0.0, 0.0, 0.0, 632.487312851824, 0.0]
['beep', 0.0, -1592.4500337183517, 0.0, 0.0, 0.0, 0.0, 629.4251238614469, 0.0]
['beep', 0.0, -1591.4442052178629, 0.0, 0.0, 0.0, 0.0, 631.1015046955949, 0.0]
['beep', 0.0, -1587.6891121493713, 0.0, 0.0, 0.0, 0.0, 635.4153913754692, 0.0]
['beep', 0.0, -1585.9456760818573, 0.0, 0.0, 0.0, 0.0, 636.421219875958, 0.0]
['beep', 0.0, -1587.9126295939243, 0.0, 0.0, 0.0, 0.0, 631.7944087737094, 0.0]
['beep', 0.0, -1592.3159232516198, 0.0, 0.0, 0.0, 0.0, 628.0616674496731, 0.0]
['beep', 0.0, -1591.5783156845946, 0.0, 0.0, 0.0, 0.0, 630.6097663175782, 0.0]
['beep', 0.0, -1587.1079667935333, 0.0, 0.0, 0.0, 0.0, 634.4766181083463, 0.0]
['beep', 0.0, -1586.9068010934354, 0.0, 0.0, 0.0, 0.0, 634.7671907862652, 0.0]
['beep', 0.0, -1589.633713916983, 0.0, 0.0, 0.0, 0.0, 630.0286209617402, 0.0]
['beep', 0.0, -1593.6123244300277, 0.0, 0.0, 0.0, 0.0, 627.6593360494776, 0.0]
['beep', 0.0, -1593.7687866412148, 0.0, 0.0, 0.0, 0.0, 629.6262895615447, 0.0]
['beep', 0.0, -1587.9349813383797, 0.0, 0.0, 0.0, 0.0, 633.0014029742961, 0.0]
['beep', 0.0, -1584.1575365254328, 0.0, 0.0, 0.0, 0.0, 632.8002372741983, 0.0]
['beep', 0.0, -1585.6551034039383, 0.0, 0.0, 0.0, 0.0, 629.9615657283742, 0.0]
['beep', 0.0, -1588.0020365717455, 0.0, 0.0, 0.0, 0.0, 629.0451442057067, 0.0]
['beep', 0.0, -1586.6385801599718, 0.0, 0.0, 0.0, 0.0, 631.8167605181648, 0.0]
['beep', 0.0, -1582.0341208021787, 0.0, 0.0, 0.0, 0.0, 635.5718535866563, 0.0]
