['beep', 0.0, -1527.3170503755869, 0.0, 0.0, 0.0, 0.0, 542.6109483970342, 0.0]
['beep', 0.0, -1529.8427974990366, 0.0, 0.0, 0.0, 0.0, 536.5759773941013, 0.0]
['beep', 0.0, -1535.0954574460338, 0.0, 0.0, 0.0, 0.0, 532.6644221144226, 0.0]
['beep', 0.0, -1535.251919657221, 0.0, 0.0, 0.0, 0.0, 534.5196169042131, 0.0]
['beep', 0.0, -1530.669812043883, 0.0, 0.0, 0.0, 0.0, 539.6605181289337, 0.0]
['beep', 0.0, -1527.1605881643998, 0.0, 0.0, 0.0, 0.0, 540.8898640739756, 0.0]
['beep', 0.0, -1530.5804050660618, 0.0, 0.0, 0.0, 0.0, 537.0230122832074, 0.0]
['beep', 0.0, -1535.0284022126677, 0.0, 0.0, 0.0, 0.0, 535.167817493417, 0.0]
['beep', 0.0, -1535.4307336128634, 0.0, 0.0, 0.0, 0.0, 537.2018262388499, 0.0]
['beep', 0.0, -1531.474474844274, 0.0, 0.0, 0.0, 0.0, 542.2533204857493, 0.0]
['beep', 0.0, -1528.8816724874584, 0.0, 0.0, 0.0, 0.0, 541.2698437297158, 0.0]
['beep', 0.0, -1531.0050882107125, 0.0, 0.0, 0.0, 0.0, 536.7771430941991, 0.0]
['beep', 0.0, -1535.5201405906846, 0.0, 0.0, 0.0, 0.0, 533.2902709591712, 0.0]
['beep', 0.0, -1536.3918586244415, 0.0, 0.0, 0.0, 0.0, 537.4700471723137, 0.0]
['beep', 0.0, -1531.7203440332823, 0.0, 0.0, 0.0, 0.0, 543.5497216641571, 0.0]
['beep', 0.0, -1528.3228788760757, 0.0, 0.0, 0.0, 0.0, 543.6614803864337, 0.0]
['beep', 0.0, -1530.155721921411, 0.0, 0.0, 0.0, 0.0, 536.1512942494505, 0.0]
['beep', 0.0, -1535.2742714016763, 0.0, 0.0, 0.0, 0.0, 533.0667535146181, 0.0]
['beep', 0.0, -1536.570672580084, 0.0, 0.0, 0.0, 0.0, 536.1959977383611, 0.0]
['beep', 0.0, -1532.3908963669417, 0.0, 0.0, 0.0, 0.0, 539.101724517551, 0.0]
['beep', 0.0, -1529.35105912102, 0.0, 0.0, 0.0, 0.0, 540.1746082514057, 0.0]
['beep', 0.0, -1530.8709777439808, 0.0, 0.0, 0.0, 0.0, 538.7217448618109, 0.0]
['beep', 0.0, -1535.6095475685058, 0.0, 0.0, 0.0, 0.0, 534.5419686486684, 0.0]
['beep', 0.0, -1535.8330650130588, 0.0, 0.0, 0.0, 0.0, 534.2737477152048, 0.0]
['beep', 0.0, -1532.480303344763, 0.0, 0.0, 0.0, 0.0, 539.4370006843807, 0.0]
['beep', 0.0, -1529.373410865475, 0.0, 0.0, 0.0, 0.0, 540.9122158184309, 0.0]
['beep', 0.0, -1531.6756405443718, 0.0, 0.0, 0.0, 0.0, 536.1289425049952, 0.0]
['beep', 0.0, -1535.3636783794975, 0.0, 0.0, 0.0, 0.0, 531.7256488472997, 0.0]
['beep', 0.0, -1535.7436580352376, 0.0, 0.0, 0.0, 0.0, 531.0998000025511, 0.0]
['beep', 0.0, -1532.0332684556568, 0.0, 0.0, 0.0, 0.0, 536.2183494828164, 0.0]
['beep', 0.0, -1528.9710794652797, 0.0, 0.0, 0.0, 0.0, 539.3699454510147, 0.0]
['beep', 0.0, -1531.7426957777377, 0.0, 0.0, 0.0, 0.0, 536.553625649646, 0.0]
['beep', 0.0, -1535.54249233514, 0.0, 0.0, 0.0, 0.0, 532.8208843256098, 0.0]
['beep', 0.0, -1535.92247199088, 0.0, 0.0, 0.0, 0.0, 535.4136866824254, 0.0]
['beep', 0.0, -1532.346192878031, 0.0, 0.0, 0.0, 0.0, 540.0628495291293, 0.0]
['beep', 0.0, -1530.1110184325003, 0.0, 0.0, 0.0, 0.0, 539.1464280064616, 0.0]
['beep', 0.0, -1531.7426957777377, 0.0, 0.0, 0.0, 0.0, 535.3466314490595, 0.0]
['beep', 0.0, -1535.989527224246, 0.0, 0.0, 0.0, 0.0, 531.6585936139338, 0.0]
['beep', 0.0, -1536.2577481577098, 0.0, 0.0, 0.0, 0.0, 533.3573261925371, 0.0]
['beep', 0.0, -1531.7426957777377, 0.0, 0.0, 0.0, 0.0, 539.3028902176488, 0.0]
['beep', 0.0, -1529.2840038876539, 0.0, 0.0, 0.0, 0.0, 541.0239745407074, 0.0]
['beep', 0.0, -1533.0390969561456, 0.0, 0.0, 0.0, 0.0, 537.9170820614198, 0.0]
['beep', 0.0, -1536.8165417690925, 0.0, 0.0, 0.0, 0.0, 533.558491892635, 0.0]
['beep', 0.0, -1535.564844079595, 0.0, 0.0, 0.0, 0.0, 535.2795762156935, 0.0]
['beep', 0.0, -1532.055620200112, 0.0, 0.0, 0.0, 0.0, 539.749925106755, 0.0]
['beep', 0.0, -1528.278175387165, 0.0, 0.0, 0.0, 0.0, 539.0793727730958, 0.0]
['beep', 0.0, -1530.8039225106147, 0.0, 0.0, 0.0, 0.0, 538.5429309061684, 0.0]
['beep', 0.0, -1535.050753957123, 0.0, 0.0, 0.0, 0.0, 534.5196169042131, 0.0]
['beep', 0.0, -1535.7213062907824, 0.0, 0.0, 0.0, 0.0, 535.748962849255, 0.0]
['beep', 0.0, -1532.4355998558522, 0.0, 0.0, 0.0, 0.0, 543.102686775051, 0.0]
['beep', 0.0, -1528.412285853897, 0.0, 0.0, 0.0, 0.0, 543.907349575442, 0.0]
['beep', 0.0, -1530.960384721802, 0.0, 0.0, 0.0, 0.0, 538.0735442726069, 0.0]
['beep', 0.0, -1534.603719068017, 0.0, 0.0, 0.0, 0.0, 533.0667535146181, 0.0]
['beep', 0.0, -1535.2966231461314, 0.0, 0.0, 0.0, 0.0, 533.5808436370902, 0.0]
['beep', 0.0, -1532.346192878031, 0.0, 0.0, 0.0, 0.0, 540.554587907146, 0.0]
['beep', 0.0, -1528.7699137651819, 0.0, 0.0, 0.0, 0.0, 541.2251402408052, 0.0]
['beep', 0.0, -1530.7592190217042, 0.0, 0.0, 0.0, 0.0, 534.6537273709449, 0.0]
['beep', 0.0, -1535.8107132686036, 0.0, 0.0, 0.0, 0.0, 532.9549947923416, 0.0]
['beep', 0.0, -1535.0284022126677, 0.0, 0.0, 0.0, 0.0, 534.2513959707494, 0.0]
['beep', 0.0, -1531.4297713553633, 0.0, 0.0, 0.0, 0.0, 537.9617855503304, 0.0]
['beep', 0.0, -1528.993431209735, 0.0, 0.0, 0.0, 0.0, 540.845160585065, 0.0]
['beep', 0.0, -1531.2509573997208, 0.0, 0.0, 0.0, 0.0, 537.3806401944925, 0.0]
['beep', 0.0, -1533.73200103426, 0.0, 0.0, 0.0, 0.0, 533.8043610816433, 0.0]
['beep', 0.0, -1534.089628945545, 0.0, 0.0, 0.0, 0.0, 533.5137884037243, 0.0]
['beep', 0.0, -1529.373410865475, 0.0, 0.0, 0.0, 0.0, 538.8111518396321, 0.0]
['beep', 0.0, -1526.2441666417321, 0.0, 0.0, 0.0, 0.0, 540.48753267378, 0.0]
['beep', 0.0, -1528.5016928317182, 0.0, 0.0, 0.0, 0.0, 535.5477971491572, 0.0]
['beep', 0.0, -1533.7096492898047, 0.0, 0.0, 0.0, 0.0, 530.7645238357215, 0.0]
['beep', 0.0, -1533.8884632454472, 0.0, 0.0, 0.0, 0.0, 532.3962011809589, 0.0]
['beep', 0.0, -1528.9710794652797, 0.0, 0.0, 0.0, 0.0, 537.8723785725092, 0.0]
['beep', 0.0, -1526.9370707198466, 0.0, 0.0, 0.0, 0.0, 541.4933611742689, 0.0]
['beep', 0.0, -1528.4793410872628, 0.0, 0.0, 0.0, 0.0, 536.330108205093, 0.0]
['beep', 0.0, -1531.988564966746, 0.0, 0.0, 0.0, 0.0, 531.524483147202, 0.0]
['beep', 0.0, -1533.8214080120813, 0.0, 0.0, 0.0, 0.0, 534.5196169042131, 0.0]
['beep', 0.0, -1528.121713175978, 0.0, 0.0, 0.0, 0.0, 540.1522565069505, 0.0]
['beep', 0.0, -1525.5512625636177, 0.0, 0.0, 0.0, 0.0, 541.426305940903, 0.0]
['beep', 0.0, -1528.345230620531, 0.0, 0.0, 0.0, 0.0, 536.7324396052885, 0.0]
['beep', 0.0, -1532.8602830005032, 0.0, 0.0, 0.0, 0.0, 532.4856081587801, 0.0]
['beep', 0.0, -1534.1566841789108, 0.0, 0.0, 0.0, 0.0, 533.714954103822, 0.0]
['beep', 0.0, -1531.2286056552657, 0.0, 0.0, 0.0, 0.0, 538.364116950526, 0.0]
['beep', 0.0, -1527.4511608423188, 0.0, 0.0, 0.0, 0.0, 538.8111518396321, 0.0]
['beep', 0.0, -1528.993431209735, 0.0, 0.0, 0.0, 0.0, 534.1172855040176, 0.0]
['beep', 0.0, -1532.8379312560478, 0.0, 0.0, 0.0, 0.0, 532.8208843256098, 0.0]
['beep', 0.0, -1532.9720417227795, 0.0, 0.0, 0.0, 0.0, 535.0560587711404, 0.0]
['beep', 0.0, -1528.702858531816, 0.0, 0.0, 0.0, 0.0, 540.8004570961543, 0.0]
['beep', 0.0, -1526.1100561750004, 0.0, 0.0, 0.0, 0.0, 543.0579832861404, 0.0]
['beep', 0.0, -1529.1945969098326, 0.0, 0.0, 0.0, 0.0, 537.8053233391432, 0.0]
['beep', 0.0, -1533.0390969561456, 0.0, 0.0, 0.0, 0.0, 533.6255471260008, 0.0]
['beep', 0.0, -1534.313146390098, 0.0, 0.0, 0.0, 0.0, 534.4078581819366, 0.0]
['beep', 0.0, -1531.2286056552657, 0.0, 0.0, 0.0, 0.0, 537.4700471723137, 0.0]
['beep', 0.0, -1528.6581550429053, 0.0, 0.0, 0.0, 0.0, 540.2863669736823, 0.0]
['beep', 0.0, -1529.9545562213132, 0.0, 0.0, 0.0, 0.0, 538.4758756728024, 0.0]
['beep', 0.0, -1535.0731057015785, 0.0, 0.0, 0.0, 0.0, 535.167817493417, 0.0]
['beep', 0.0, -1534.246091156732, 0.0, 0.0, 0.0, 0.0, 534.944300048864, 0.0]
['beep', 0.0, -1529.35105912102, 0.0, 0.0, 0.0, 0.0, 537.5147506612243, 0.0]
['beep', 0.0, -1526.6464980419278, 0.0, 0.0, 0.0, 0.0, 540.9345675628862, 0.0]
['beep', 0.0, -1528.6805067873606, 0.0, 0.0, 0.0, 0.0, 538.0511925281517, 0.0]
['beep', 0.0, -1533.5308353341622, 0.0, 0.0, 0.0, 0.0, 533.3126227036265, 0.0]
['beep', 0.0, -1535.5871958240505, 0.0, 0.0, 0.0, 0.0, 535.2572244712383, 0.0]
['beep', 0.0, -1531.3627161219974, 0.0, 0.0, 0.0, 0.0, 538.7664483507215, 0.0]
['beep', 0.0, -1527.8311404980589, 0.0, 0.0, 0.0, 0.0, 539.2805384731935, 0.0]
['beep', 0.0, -1529.7757422656707, 0.0, 0.0, 0.0, 0.0, 535.0337070266852, 0.0]
['beep', 0.0, -1533.575538823073, 0.0, 0.0, 0.0, 0.0, 532.5526633921461, 0.0]
['beep', 0.0, -1534.9836987237572, 0.0, 0.0, 0.0, 0.0, 535.3913349379701, 0.0]
['beep', 0.0, -1531.4521230998187, 0.0, 0.0, 0.0, 0.0, 540.2193117403164, 0.0]
['beep', 0.0, -1527.607623053506, 0.0, 0.0, 0.0, 0.0, 540.8898640739756, 0.0]
['beep', 0.0, -1529.5522248211175, 0.0, 0.0, 0.0, 0.0, 539.3252419621041, 0.0]
['beep', 0.0, -1534.4919603457404, 0.0, 0.0, 0.0, 0.0, 534.2290442262941, 0.0]
['beep', 0.0, -1535.117809190489, 0.0, 0.0, 0.0, 0.0, 532.262090714227, 0.0]
['beep', 0.0, -1531.340364377542, 0.0, 0.0, 0.0, 0.0, 541.2698437297158, 0.0]
['beep', 0.0, -1528.1887684093438, 0.0, 0.0, 0.0, 0.0, 542.9909280527745, 0.0]
['beep', 0.0, -1530.088666688045, 0.0, 0.0, 0.0, 0.0, 538.1405995059729, 0.0]
['beep', 0.0, -1533.9778702232684, 0.0, 0.0, 0.0, 0.0, 534.29609945966, 0.0]
['beep', 0.0, -1533.8661115009918, 0.0, 0.0, 0.0, 0.0, 533.5137884037243, 0.0]
['beep', 0.0, -1530.1780736658661, 0.0, 0.0, 0.0, 0.0, 537.5371024056795, 0.0]
['beep', 0.0, -1527.1829399088551, 0.0, 0.0, 0.0, 0.0, 538.4535239283472, 0.0]
['beep', 0.0, -1529.7757422656707, 0.0, 0.0, 0.0, 0.0, 535.5701488936126, 0.0]
['beep', 0.0, -1534.8048847681148, 0.0, 0.0, 0.0, 0.0, 531.0550965136405, 0.0]
['beep', 0.0, -1534.5813673235616, 0.0, 0.0, 0.0, 0.0, 532.6644221144226, 0.0]
['beep', 0.0, -1529.9545562213132, 0.0, 0.0, 0.0, 0.0, 537.5371024056795, 0.0]
['beep', 0.0, -1526.735905019749, 0.0, 0.0, 0.0, 0.0, 539.0793727730958, 0.0]
['beep', 0.0, -1529.373410865475, 0.0, 0.0, 0.0, 0.0, 534.9890035377746, 0.0]
['beep', 0.0, -1533.441428356341, 0.0, 0.0, 0.0, 0.0, 530.2727854577048, 0.0]
['beep', 0.0, -1534.1119806900003, 0.0, 0.0, 0.0, 0.0, 532.5303116476907, 0.0]
['beep', 0.0, -1531.1391986774445, 0.0, 0.0, 0.0, 0.0, 537.2912332166711, 0.0]
['beep', 0.0, -1527.9652509647908, 0.0, 0.0, 0.0, 0.0, 539.0793727730958, 0.0]
['beep', 0.0, -1529.8427974990366, 0.0, 0.0, 0.0, 0.0, 534.4972651597578, 0.0]
['beep', 0.0, -1534.7154777902936, 0.0, 0.0, 0.0, 0.0, 530.0492680131517, 0.0]
['beep', 0.0, -1535.2072161683102, 0.0, 0.0, 0.0, 0.0, 531.5468348916572, 0.0]
['beep', 0.0, -1530.893329488436, 0.0, 0.0, 0.0, 0.0, 536.4642186718248, 0.0]
['beep', 0.0, -1527.54056782014, 0.0, 0.0, 0.0, 0.0, 538.364116950526, 0.0]
['beep', 0.0, -1529.0828381875563, 0.0, 0.0, 0.0, 0.0, 533.6255471260008, 0.0]
['beep', 0.0, -1532.4355998558522, 0.0, 0.0, 0.0, 0.0, 531.6138901250232, 0.0]
['beep', 0.0, -1531.8991579889248, 0.0, 0.0, 0.0, 0.0, 533.4243814259031, 0.0]
['beep', 0.0, -1526.4229805973746, 0.0, 0.0, 0.0, 0.0, 537.0453640276628, 0.0]
['beep', 0.0, -1522.2655561286874, 0.0, 0.0, 0.0, 0.0, 541.0910297740734, 0.0]
['beep', 0.0, -1523.986640451746, 0.0, 0.0, 0.0, 0.0, 538.6770413729002, 0.0]
['beep', 0.0, -1529.507521332207, 0.0, 0.0, 0.0, 0.0, 536.3524599495482, 0.0]
['beep', 0.0, -1531.54153007764, 0.0, 0.0, 0.0, 0.0, 536.2183494828164, 0.0]
['beep', 0.0, -1528.702858531816, 0.0, 0.0, 0.0, 0.0, 540.3757739515036, 0.0]
['beep', 0.0, -1526.8476637420254, 0.0, 0.0, 0.0, 0.0, 543.2815007306934, 0.0]
['beep', 0.0, -1531.8097510111036, 0.0, 0.0, 0.0, 0.0, 537.4253436834031, 0.0]
['beep', 0.0, -1536.1236376909778, 0.0, 0.0, 0.0, 0.0, 532.843236070065, 0.0]
['beep', 0.0, -1536.3248033910756, 0.0, 0.0, 0.0, 0.0, 536.8665500720203, 0.0]
['beep', 0.0, -1531.0944951885338, 0.0, 0.0, 0.0, 0.0, 541.0463262851628, 0.0]
['beep', 0.0, -1528.8816724874584, 0.0, 0.0, 0.0, 0.0, 543.683832130889, 0.0]
['beep', 0.0, -1531.183902166355, 0.0, 0.0, 0.0, 0.0, 539.3028902176488, 0.0]
['beep', 0.0, -1534.6931260458382, 0.0, 0.0, 0.0, 0.0, 532.4632564143249, 0.0]
['beep', 0.0, -1535.184864423855, 0.0, 0.0, 0.0, 0.0, 533.9608232928305, 0.0]
['beep', 0.0, -1532.346192878031, 0.0, 0.0, 0.0, 0.0, 538.29706171716, 0.0]
['beep', 0.0, -1528.8369689985477, 0.0, 0.0, 0.0, 0.0, 539.0570210286404, 0.0]
['beep', 0.0, -1530.1333701769556, 0.0, 0.0, 0.0, 0.0, 534.4302099263919, 0.0]
['beep', 0.0, -1534.6484225569277, 0.0, 0.0, 0.0, 0.0, 532.10562850304, 0.0]
['beep', 0.0, -1533.955518478813, 0.0, 0.0, 0.0, 0.0, 533.8490645705539, 0.0]
['beep', 0.0, -1530.379239365964, 0.0, 0.0, 0.0, 0.0, 538.4311721838918, 0.0]
['beep', 0.0, -1527.8758439869696, 0.0, 0.0, 0.0, 0.0, 539.7052216178444, 0.0]
['beep', 0.0, -1528.859320743003, 0.0, 0.0, 0.0, 0.0, 535.9724802938081, 0.0]
['beep', 0.0, -1532.5697103225841, 0.0, 0.0, 0.0, 0.0, 530.6304133689897, 0.0]
['beep', 0.0, -1533.7767045231706, 0.0, 0.0, 0.0, 0.0, 531.5915383805678, 0.0]
['beep', 0.0, -1529.1275416764668, 0.0, 0.0, 0.0, 0.0, 536.7547913497438, 0.0]
['beep', 0.0, -1525.7747800081706, 0.0, 0.0, 0.0, 0.0, 538.8558553285427, 0.0]
['beep', 0.0, -1527.7193817757825, 0.0, 0.0, 0.0, 0.0, 533.9384715483751, 0.0]
['beep', 0.0, -1533.1285039339668, 0.0, 0.0, 0.0, 0.0, 528.7752185791992, 0.0]
['beep', 0.0, -1533.8214080120813, 0.0, 0.0, 0.0, 0.0, 531.8150558251209, 0.0]
['beep', 0.0, -1530.513349832696, 0.0, 0.0, 0.0, 0.0, 538.1853029948835, 0.0]
['beep', 0.0, -1528.4569893428074, 0.0, 0.0, 0.0, 0.0, 536.911253560931, 0.0]
['beep', 0.0, -1532.055620200112, 0.0, 0.0, 0.0, 0.0, 533.1785122368947, 0.0]
['beep', 0.0, -1531.1168469329891, 0.0, 0.0, 0.0, 0.0, 534.0055267817411, 0.0]
['beep', 0.0, -1527.6523265424164, 0.0, 0.0, 0.0, 0.0, 539.0570210286404, 0.0]
['beep', 0.0, -1524.63484104095, 0.0, 0.0, 0.0, 0.0, 539.7946285956656, 0.0]
['beep', 0.0, -1527.2052916533103, 0.0, 0.0, 0.0, 0.0, 535.5701488936126, 0.0]
['beep', 0.0, -1532.0779719445673, 0.0, 0.0, 0.0, 0.0, 530.8092273246322, 0.0]
['beep', 0.0, -1533.083800445056, 0.0, 0.0, 0.0, 0.0, 533.5808436370902, 0.0]
['beep', 0.0, -1529.0157829541902, 0.0, 0.0, 0.0, 0.0, 538.6546896284449, 0.0]
['beep', 0.0, -1526.2441666417321, 0.0, 0.0, 0.0, 0.0, 537.7382681057774, 0.0]
['beep', 0.0, -1528.568748065084, 0.0, 0.0, 0.0, 0.0, 534.4078581819366, 0.0]
['beep', 0.0, -1532.279137644665, 0.0, 0.0, 0.0, 0.0, 529.2893087016712, 0.0]
['beep', 0.0, -1532.9720417227795, 0.0, 0.0, 0.0, 0.0, 528.3505354345483, 0.0]
['beep', 0.0, -1529.8204457545812, 0.0, 0.0, 0.0, 0.0, 534.3855064374812, 0.0]
['beep', 0.0, -1526.2441666417321, 0.0, 0.0, 0.0, 0.0, 539.9063873179421, 0.0]
['beep', 0.0, -1534.2684429011874, 0.0, 0.0, 0.0, 0.0, 524.9307185328863, 0.0]
['beep', 0.0, -1530.9380329773467, 0.0, 0.0, 0.0, 0.0, 526.1824162223836, 0.0]
['beep', 0.0, -1527.6746782868718, 0.0, 0.0, 0.0, 0.0, 530.652765113445, 0.0]
['beep', 0.0, -1526.2665183861875, 0.0, 0.0, 0.0, 0.0, 532.2397389697718, 0.0]
['beep', 0.0, -1530.3568876215086, 0.0, 0.0, 0.0, 0.0, 525.9365470333752, 0.0]
['beep', 0.0, -1534.1119806900003, 0.0, 0.0, 0.0, 0.0, 523.9472417768528, 0.0]
['beep', 0.0, -1531.2509573997208, 0.0, 0.0, 0.0, 0.0, 526.9200237894087, 0.0]
['beep', 0.0, -1527.2946986311315, 0.0, 0.0, 0.0, 0.0, 529.9822127797858, 0.0]
['beep', 0.0, -1527.4288090978635, 0.0, 0.0, 0.0, 0.0, 529.7363435907774, 0.0]
['beep', 0.0, -1531.5862335665506, 0.0, 0.0, 0.0, 0.0, 525.6459743554562, 0.0]
['beep', 0.0, -1533.799056267626, 0.0, 0.0, 0.0, 0.0, 523.0978754875512, 0.0]
['beep', 0.0, -1531.2509573997208, 0.0, 0.0, 0.0, 0.0, 527.0541342561405, 0.0]
['beep', 0.0, -1528.3675823649862, 0.0, 0.0, 0.0, 0.0, 531.3903726804701, 0.0]
['beep', 0.0, -1527.3394021200422, 0.0, 0.0, 0.0, 0.0, 529.3116604461266, 0.0]
['beep', 0.0, -1530.893329488436, 0.0, 0.0, 0.0, 0.0, 523.5449103766573, 0.0]
['beep', 0.0, -1534.8272365125702, 0.0, 0.0, 0.0, 0.0, 522.2038057093389, 0.0]
['beep', 0.0, -1531.8991579889248, 0.0, 0.0, 0.0, 0.0, 525.1095324885288, 0.0]
['beep', 0.0, -1528.4346375983523, 0.0, 0.0, 0.0, 0.0, 530.6304133689897, 0.0]
['beep', 0.0, -1527.898195731425, 0.0, 0.0, 0.0, 0.0, 528.2611284567271, 0.0]
['beep', 0.0, -1530.7368672772488, 0.0, 0.0, 0.0, 0.0, 523.9919452657634, 0.0]
['beep', 0.0, -1534.603719068017, 0.0, 0.0, 0.0, 0.0, 523.0308202541853, 0.0]
['beep', 0.0, -1533.0167452116902, 0.0, 0.0, 0.0, 0.0, 525.847140055554, 0.0]
['beep', 0.0, -1528.3228788760757, 0.0, 0.0, 0.0, 0.0, 530.876282557998, 0.0]
['beep', 0.0, -1528.278175387165, 0.0, 0.0, 0.0, 0.0, 529.3116604461266, 0.0]
['beep', 0.0, -1532.7485242782266, 0.0, 0.0, 0.0, 0.0, 524.5283871326908, 0.0]
['beep', 0.0, -1535.184864423855, 0.0, 0.0, 0.0, 0.0, 525.3330499330818, 0.0]
['beep', 0.0, -1532.7261725337712, 0.0, 0.0, 0.0, 0.0, 526.8753203004981, 0.0]
['beep', 0.0, -1528.3005271316204, 0.0, 0.0, 0.0, 0.0, 531.3680209360148, 0.0]
['beep', 0.0, -1527.8311404980589, 0.0, 0.0, 0.0, 0.0, 530.9209860469086, 0.0]
['beep', 0.0, -1531.0497916996233, 0.0, 0.0, 0.0, 0.0, 525.4001051664478, 0.0]
['beep', 0.0, -1533.597890567528, 0.0, 0.0, 0.0, 0.0, 522.4943783872579, 0.0]
['beep', 0.0, -1531.697992288827, 0.0, 0.0, 0.0, 0.0, 527.1882447228724, 0.0]
['beep', 0.0, -1528.345230620531, 0.0, 0.0, 0.0, 0.0, 531.7256488472997, 0.0]
['beep', 0.0, -1527.406457353408, 0.0, 0.0, 0.0, 0.0, 530.4963029022579, 0.0]
['beep', 0.0, -1531.3627161219974, 0.0, 0.0, 0.0, 0.0, 524.9307185328863, 0.0]
['beep', 0.0, -1534.1119806900003, 0.0, 0.0, 0.0, 0.0, 522.6955440873556, 0.0]
['beep', 0.0, -1531.8991579889248, 0.0, 0.0, 0.0, 0.0, 526.9647272783193, 0.0]
['beep', 0.0, -1527.6299747979613, 0.0, 0.0, 0.0, 0.0, 530.4515994133473, 0.0]
['beep', 0.0, -1526.2218148972768, 0.0, 0.0, 0.0, 0.0, 528.2164249678165, 0.0]
['beep', 0.0, -1529.7533905212154, 0.0, 0.0, 0.0, 0.0, 523.231985954283, 0.0]
['beep', 0.0, -1533.6649458008942, 0.0, 0.0, 0.0, 0.0, 522.2485091982495, 0.0]
['beep', 0.0, -1532.6144138114946, 0.0, 0.0, 0.0, 0.0, 527.523520889702, 0.0]
['beep', 0.0, -1528.2111201537991, 0.0, 0.0, 0.0, 0.0, 531.9268145473975, 0.0]
['beep', 0.0, -1527.8758439869696, 0.0, 0.0, 0.0, 0.0, 530.3174889466154, 0.0]
['beep', 0.0, -1532.3685446224863, 0.0, 0.0, 0.0, 0.0, 525.1095324885288, 0.0]
['beep', 0.0, -1533.9331667343579, 0.0, 0.0, 0.0, 0.0, 522.3826196649813, 0.0]
['beep', 0.0, -1531.2956608886316, 0.0, 0.0, 0.0, 0.0, 526.6741546004004, 0.0]
['beep', 0.0, -1528.3005271316204, 0.0, 0.0, 0.0, 0.0, 530.1163232465176, 0.0]
['beep', 0.0, -1528.345230620531, 0.0, 0.0, 0.0, 0.0, 529.2669569572159, 0.0]
['beep', 0.0, -1531.2286056552657, 0.0, 0.0, 0.0, 0.0, 524.2154627103165, 0.0]
['beep', 0.0, -1534.2684429011874, 0.0, 0.0, 0.0, 0.0, 521.4438463978585, 0.0]
['beep', 0.0, -1532.5697103225841, 0.0, 0.0, 0.0, 0.0, 525.6683260999115, 0.0]
['beep', 0.0, -1528.546396320629, 0.0, 0.0, 0.0, 0.0, 530.652765113445, 0.0]
['beep', 0.0, -1527.6746782868718, 0.0, 0.0, 0.0, 0.0, 528.10466624554, 0.0]
['beep', 0.0, -1532.4579516003075, 0.0, 0.0, 0.0, 0.0, 523.299041187649, 0.0]
['beep', 0.0, -1534.3578498790087, 0.0, 0.0, 0.0, 0.0, 521.846177798054, 0.0]
['beep', 0.0, -1532.7485242782266, 0.0, 0.0, 0.0, 0.0, 526.6965063448556, 0.0]
['beep', 0.0, -1529.0157829541902, 0.0, 0.0, 0.0, 0.0, 529.8257505685987, 0.0]
['beep', 0.0, -1529.3957626099304, 0.0, 0.0, 0.0, 0.0, 529.1328464904841, 0.0]
['beep', 0.0, -1532.793227767137, 0.0, 0.0, 0.0, 0.0, 522.9861167652747, 0.0]
['beep', 0.0, -1535.8107132686036, 0.0, 0.0, 0.0, 0.0, 521.3991429089479, 0.0]
['beep', 0.0, -1533.4861318452517, 0.0, 0.0, 0.0, 0.0, 526.8306168115874, 0.0]
['beep', 0.0, -1528.2558236427099, 0.0, 0.0, 0.0, 0.0, 529.6916401018668, 0.0]
['beep', 0.0, -1528.3675823649862, 0.0, 0.0, 0.0, 0.0, 528.0823145010846, 0.0]
['beep', 0.0, -1532.055620200112, 0.0, 0.0, 0.0, 0.0, 520.7062388308333, 0.0]
['beep', 0.0, -1535.2742714016763, 0.0, 0.0, 0.0, 0.0, 519.074561485596, 0.0]
['beep', 0.0, -1531.7426957777377, 0.0, 0.0, 0.0, 0.0, 526.6741546004004, 0.0]
['beep', 0.0, -1526.8476637420254, 0.0, 0.0, 0.0, 0.0, 529.8257505685987, 0.0]
['beep', 0.0, -1526.2218148972768, 0.0, 0.0, 0.0, 0.0, 528.909329045931, 0.0]
['beep', 0.0, -1530.893329488436, 0.0, 0.0, 0.0, 0.0, 525.1318842329841, 0.0]
['beep', 0.0, -1533.3520213785198, 0.0, 0.0, 0.0, 0.0, 522.5390818761686, 0.0]
['beep', 0.0, -1532.2120824112992, 0.0, 0.0, 0.0, 0.0, 527.1435412339617, 0.0]
['beep', 0.0, -1528.993431209735, 0.0, 0.0, 0.0, 0.0, 531.1445034914617, 0.0]
['beep', 0.0, -1528.3899341094416, 0.0, 0.0, 0.0, 0.0, 529.4681226573138, 0.0]
['beep', 0.0, -1532.0109167112014, 0.0, 0.0, 0.0, 0.0, 524.7295528327886, 0.0]
['beep', 0.0, -1533.7096492898047, 0.0, 0.0, 0.0, 0.0, 522.9861167652747, 0.0]
['beep', 0.0, -1530.3345358770534, 0.0, 0.0, 0.0, 0.0, 525.6459743554562, 0.0]
['beep', 0.0, -1525.3277451190645, 0.0, 0.0, 0.0, 0.0, 528.5740528791014, 0.0]
['beep', 0.0, -1521.34913460602, 0.0, 0.0, 0.0, 0.0, 529.2446052127606, 0.0]
['beep', 0.0, -1525.1936346523328, 0.0, 0.0, 0.0, 0.0, 525.3554016775372, 0.0]
['beep', 0.0, -1528.0993614315225, 0.0, 0.0, 0.0, 0.0, 524.8636632995205, 0.0]
['beep', 0.0, -1526.0653526860897, 0.0, 0.0, 0.0, 0.0, 529.8928058019645, 0.0]
['beep', 0.0, -1524.478378829763, 0.0, 0.0, 0.0, 0.0, 532.7761808366992, 0.0]
['beep', 0.0, -1526.1100561750004, 0.0, 0.0, 0.0, 0.0, 532.7314773477885, 0.0]
['beep', 0.0, -1531.697992288827, 0.0, 0.0, 0.0, 0.0, 527.6129278675232, 0.0]
['beep', 0.0, -1535.4307336128634, 0.0, 0.0, 0.0, 0.0, 526.2494714557495, 0.0]
['beep', 0.0, -1533.8214080120813, 0.0, 0.0, 0.0, 0.0, 529.6245848685008, 0.0]
['beep', 0.0, -1529.7533905212154, 0.0, 0.0, 0.0, 0.0, 531.6585936139338, 0.0]
['beep', 0.0, -1528.7252102762714, 0.0, 0.0, 0.0, 0.0, 532.5973668810567, 0.0]
['beep', 0.0, -1531.7203440332823, 0.0, 0.0, 0.0, 0.0, 529.0210877682075, 0.0]
['beep', 0.0, -1533.7767045231706, 0.0, 0.0, 0.0, 0.0, 526.3612301780261, 0.0]
['beep', 0.0, -1532.480303344763, 0.0, 0.0, 0.0, 0.0, 530.5186546467131, 0.0]
['beep', 0.0, -1528.4346375983523, 0.0, 0.0, 0.0, 0.0, 532.1503319919506, 0.0]
['beep', 0.0, -1528.345230620531, 0.0, 0.0, 0.0, 0.0, 530.0492680131517, 0.0]
['beep', 0.0, -1532.4579516003075, 0.0, 0.0, 0.0, 0.0, 528.4622941568249, 0.0]
['beep', 0.0, -1534.246091156732, 0.0, 0.0, 0.0, 0.0, 523.9695935213082, 0.0]
['beep', 0.0, -1532.7261725337712, 0.0, 0.0, 0.0, 0.0, 527.7917418231657, 0.0]
['beep', 0.0, -1527.898195731425, 0.0, 0.0, 0.0, 0.0, 535.3019279601489, 0.0]
['beep', 0.0, -1527.9428992203354, 0.0, 0.0, 0.0, 0.0, 532.7985325811544, 0.0]
['beep', 0.0, -1531.54153007764, 0.0, 0.0, 0.0, 0.0, 526.0259540111964, 0.0]
['beep', 0.0, -1534.2907946456428, 0.0, 0.0, 0.0, 0.0, 524.7519045772439, 0.0]
['beep', 0.0, -1532.3685446224863, 0.0, 0.0, 0.0, 0.0, 529.8257505685987, 0.0]
['beep', 0.0, -1527.8534922425142, 0.0, 0.0, 0.0, 0.0, 532.9326430478862, 0.0]
['beep', 0.0, -1527.2723468866764, 0.0, 0.0, 0.0, 0.0, 531.7703523362103, 0.0]
['beep', 0.0, -1531.0050882107125, 0.0, 0.0, 0.0, 0.0, 527.814093567621, 0.0]
['beep', 0.0, -1533.4861318452517, 0.0, 0.0, 0.0, 0.0, 527.0317825116853, 0.0]
['beep', 0.0, -1531.832102755559, 0.0, 0.0, 0.0, 0.0, 529.8704540575093, 0.0]
['beep', 0.0, -1527.2723468866764, 0.0, 0.0, 0.0, 0.0, 533.4243814259031, 0.0]
['beep', 0.0, -1526.8476637420254, 0.0, 0.0, 0.0, 0.0, 532.8208843256098, 0.0]
['beep', 0.0, -1532.5473585781288, 0.0, 0.0, 0.0, 0.0, 527.9705557788081, 0.0]
['beep', 0.0, -1534.5813673235616, 0.0, 0.0, 0.0, 0.0, 524.5060353882355, 0.0]
['beep', 0.0, -1532.8379312560478, 0.0, 0.0, 0.0, 0.0, 529.8704540575093, 0.0]
['beep', 0.0, -1527.4958643312293, 0.0, 0.0, 0.0, 0.0, 533.4020296814477, 0.0]
['beep', 0.0, -1525.931242219358, 0.0, 0.0, 0.0, 0.0, 532.3738494365036, 0.0]
['beep', 0.0, -1529.3957626099304, 0.0, 0.0, 0.0, 0.0, 527.5682243786126, 0.0]
['beep', 0.0, -1533.3073178896093, 0.0, 0.0, 0.0, 0.0, 526.651802855945, 0.0]
['beep', 0.0, -1530.893329488436, 0.0, 0.0, 0.0, 0.0, 529.2222534683053, 0.0]
['beep', 0.0, -1525.7077247748048, 0.0, 0.0, 0.0, 0.0, 534.6313756264897, 0.0]
['beep', 0.0, -1525.2606898856986, 0.0, 0.0, 0.0, 0.0, 535.1231140045064, 0.0]
['beep', 0.0, -1528.0993614315225, 0.0, 0.0, 0.0, 0.0, 529.9375092908751, 0.0]
['beep', 0.0, -1531.2956608886316, 0.0, 0.0, 0.0, 0.0, 526.0483057556518, 0.0]
['beep', 0.0, -1529.373410865475, 0.0, 0.0, 0.0, 0.0, 528.909329045931, 0.0]
['beep', 0.0, -1525.9982974527238, 0.0, 0.0, 0.0, 0.0, 533.0220500257075, 0.0]
['beep', 0.0, -1525.1042276745115, 0.0, 0.0, 0.0, 0.0, 532.1726837364058, 0.0]
['beep', 0.0, -1529.1051899320114, 0.0, 0.0, 0.0, 0.0, 527.7470383342551, 0.0]
['beep', 0.0, -1532.0332684556568, 0.0, 0.0, 0.0, 0.0, 526.070657500107, 0.0]
['beep', 0.0, -1529.8204457545812, 0.0, 0.0, 0.0, 0.0, 530.0492680131517, 0.0]
['beep', 0.0, -1525.6630212858943, 0.0, 0.0, 0.0, 0.0, 533.7596575927327, 0.0]
['beep', 0.0, -1525.6183177969835, 0.0, 0.0, 0.0, 0.0, 531.8150558251209, 0.0]
['beep', 0.0, -1527.6299747979613, 0.0, 0.0, 0.0, 0.0, 526.5847476225791, 0.0]
['beep', 0.0, -1530.6251085549723, 0.0, 0.0, 0.0, 0.0, 525.8024365666433, 0.0]
['beep', 0.0, -1529.8875009879473, 0.0, 0.0, 0.0, 0.0, 530.8315790690874, 0.0]
['beep', 0.0, -1525.6630212858943, 0.0, 0.0, 0.0, 0.0, 533.1561604924393, 0.0]
['beep', 0.0, -1524.3219166185756, 0.0, 0.0, 0.0, 0.0, 531.457427913836, 0.0]
['beep', 0.0, -1527.0041259532127, 0.0, 0.0, 0.0, 0.0, 529.8704540575093, 0.0]
['beep', 0.0, -1530.535701577151, 0.0, 0.0, 0.0, 0.0, 527.1658929784171, 0.0]
['beep', 0.0, -1529.1498934209221, 0.0, 0.0, 0.0, 0.0, 529.0881430015735, 0.0]
['beep', 0.0, -1524.8807102299584, 0.0, 0.0, 0.0, 0.0, 534.4302099263919, 0.0]
['beep', 0.0, -1523.7631230071931, 0.0, 0.0, 0.0, 0.0, 534.2513959707494, 0.0]
['beep', 0.0, -1527.9652509647908, 0.0, 0.0, 0.0, 0.0, 528.0823145010846, 0.0]
['beep', 0.0, -1531.2956608886316, 0.0, 0.0, 0.0, 0.0, 525.8024365666433, 0.0]
['beep', 0.0, -1528.9040242319138, 0.0, 0.0, 0.0, 0.0, 531.3233174471042, 0.0]
['beep', 0.0, -1524.9477654633245, 0.0, 0.0, 0.0, 0.0, 536.0618872716293, 0.0]
['beep', 0.0, -1524.1654544073886, 0.0, 0.0, 0.0, 0.0, 535.7042593603444, 0.0]
['beep', 0.0, -1527.6523265424164, 0.0, 0.0, 0.0, 0.0, 529.3563639350372, 0.0]
['beep', 0.0, -1530.0663149435898, 0.0, 0.0, 0.0, 0.0, 527.7470383342551, 0.0]
['beep', 0.0, -1527.5852713090505, 0.0, 0.0, 0.0, 0.0, 531.0103930247299, 0.0]
['beep', 0.0, -1524.5901375520396, 0.0, 0.0, 0.0, 0.0, 534.944300048864, 0.0]
['beep', 0.0, -1523.8525299850144, 0.0, 0.0, 0.0, 0.0, 532.7314773477885, 0.0]
['beep', 0.0, -1526.4006288529192, 0.0, 0.0, 0.0, 0.0, 528.3058319456377, 0.0]
['beep', 0.0, -1529.7533905212154, 0.0, 0.0, 0.0, 0.0, 527.2552999562383, 0.0]
['beep', 0.0, -1529.4628178432963, 0.0, 0.0, 0.0, 0.0, 529.8257505685987, 0.0]
['beep', 0.0, -1525.439503841341, 0.0, 0.0, 0.0, 0.0, 533.0667535146181, 0.0]
['beep', 0.0, -1525.1042276745115, 0.0, 0.0, 0.0, 0.0, 531.7032971028444, 0.0]
['beep', 0.0, -1528.568748065084, 0.0, 0.0, 0.0, 0.0, 526.5176923892132, 0.0]
['beep', 0.0, -1531.8097510111036, 0.0, 0.0, 0.0, 0.0, 524.8413115550651, 0.0]
['beep', 0.0, -1530.4462945993298, 0.0, 0.0, 0.0, 0.0, 528.4622941568249, 0.0]
['beep', 0.0, -1527.2276433977656, 0.0, 0.0, 0.0, 0.0, 533.491436659269, 0.0]
['beep', 0.0, -1525.0818759300562, 0.0, 0.0, 0.0, 0.0, 531.3456691915595, 0.0]
['beep', 0.0, -1528.859320743003, 0.0, 0.0, 0.0, 0.0, 526.2941749446601, 0.0]
['beep', 0.0, -1533.597890567528, 0.0, 0.0, 0.0, 0.0, 525.4224569109031, 0.0]
['beep', 0.0, -1530.7592190217042, 0.0, 0.0, 0.0, 0.0, 528.1493697344506, 0.0]
['beep', 0.0, -1526.959422464302, 0.0, 0.0, 0.0, 0.0, 532.9326430478862, 0.0]
['beep', 0.0, -1525.953593963813, 0.0, 0.0, 0.0, 0.0, 531.7032971028444, 0.0]
['beep', 0.0, -1528.7922655096372, 0.0, 0.0, 0.0, 0.0, 525.9141952889199, 0.0]
['beep', 0.0, -1531.9215097333802, 0.0, 0.0, 0.0, 0.0, 524.9530702773417, 0.0]
['beep', 0.0, -1530.8039225106147, 0.0, 0.0, 0.0, 0.0, 529.19990172385, 0.0]
['beep', 0.0, -1527.4958643312293, 0.0, 0.0, 0.0, 0.0, 532.9326430478862, 0.0]
['beep', 0.0, -1527.473512586774, 0.0, 0.0, 0.0, 0.0, 532.0162215252187, 0.0]
['beep', 0.0, -1531.9438614778355, 0.0, 0.0, 0.0, 0.0, 527.5458726341573, 0.0]
['beep', 0.0, -1534.7825330236594, 0.0, 0.0, 0.0, 0.0, 525.2436429552606, 0.0]
['beep', 0.0, -1532.6144138114946, 0.0, 0.0, 0.0, 0.0, 527.3223551896042, 0.0]
['beep', 0.0, -1528.6358032984501, 0.0, 0.0, 0.0, 0.0, 530.4963029022579, 0.0]
['beep', 0.0, -1527.115884675489, 0.0, 0.0, 0.0, 0.0, 531.2562622137383, 0.0]
['beep', 0.0, -1531.5638818220953, 0.0, 0.0, 0.0, 0.0, 528.5740528791014, 0.0]
['beep', 0.0, -1534.894291745936, 0.0, 0.0, 0.0, 0.0, 524.9083667884311, 0.0]
['beep', 0.0, -1531.832102755559, 0.0, 0.0, 0.0, 0.0, 526.6294511114897, 0.0]
['beep', 0.0, -1527.4511608423188, 0.0, 0.0, 0.0, 0.0, 531.5021314027466, 0.0]
['beep', 0.0, -1527.92054747588, 0.0, 0.0, 0.0, 0.0, 530.4963029022579, 0.0]
['beep', 0.0, -1531.54153007764, 0.0, 0.0, 0.0, 0.0, 525.2436429552606, 0.0]
['beep', 0.0, -1535.2072161683102, 0.0, 0.0, 0.0, 0.0, 523.5672621211127, 0.0]
['beep', 0.0, -1532.7485242782266, 0.0, 0.0, 0.0, 0.0, 527.0988377450511, 0.0]
['beep', 0.0, -1529.0828381875563, 0.0, 0.0, 0.0, 0.0, 532.9549947923416, 0.0]
['beep', 0.0, -1527.7193817757825, 0.0, 0.0, 0.0, 0.0, 532.9996982812522, 0.0]
['beep', 0.0, -1530.8486259995254, 0.0, 0.0, 0.0, 0.0, 527.3447069340596, 0.0]
['beep', 0.0, -1533.0390969561456, 0.0, 0.0, 0.0, 0.0, 523.7907795656657, 0.0]
['beep', 0.0, -1530.7815707661596, 0.0, 0.0, 0.0, 0.0, 527.9705557788081, 0.0]
['beep', 0.0, -1527.0264776976678, 0.0, 0.0, 0.0, 0.0, 531.748000591755, 0.0]
['beep', 0.0, -1525.8865387304472, 0.0, 0.0, 0.0, 0.0, 531.7256488472997, 0.0]
['beep', 0.0, -1529.507521332207, 0.0, 0.0, 0.0, 0.0, 527.9258522898975, 0.0]
['beep', 0.0, -1532.9049864894137, 0.0, 0.0, 0.0, 0.0, 526.6741546004004, 0.0]
['beep', 0.0, -1530.6921637883383, 0.0, 0.0, 0.0, 0.0, 528.1493697344506, 0.0]
['beep', 0.0, -1527.2276433977656, 0.0, 0.0, 0.0, 0.0, 533.3796779369924, 0.0]
['beep', 0.0, -1526.1100561750004, 0.0, 0.0, 0.0, 0.0, 531.3233174471042, 0.0]
['beep', 0.0, -1529.8427974990366, 0.0, 0.0, 0.0, 0.0, 526.4729889003025, 0.0]
['beep', 0.0, -1533.3743731229752, 0.0, 0.0, 0.0, 0.0, 524.2825179436825, 0.0]
['beep', 0.0, -1531.5862335665506, 0.0, 0.0, 0.0, 0.0, 526.9870790227747, 0.0]
['beep', 0.0, -1528.278175387165, 0.0, 0.0, 0.0, 0.0, 532.038573269674, 0.0]
['beep', 0.0, -1527.093532931034, 0.0, 0.0, 0.0, 0.0, 532.329145947593, 0.0]
['beep', 0.0, -1528.3228788760757, 0.0, 0.0, 0.0, 0.0, 528.4622941568249, 0.0]
['beep', 0.0, -1532.346192878031, 0.0, 0.0, 0.0, 0.0, 525.3330499330818, 0.0]
['beep', 0.0, -1531.2956608886316, 0.0, 0.0, 0.0, 0.0, 529.8928058019645, 0.0]
['beep', 0.0, -1526.0430009416343, 0.0, 0.0, 0.0, 0.0, 534.3408029485706, 0.0]
['beep', 0.0, -1525.3277451190645, 0.0, 0.0, 0.0, 0.0, 533.9384715483751, 0.0]
['beep', 0.0, -1529.4404660988412, 0.0, 0.0, 0.0, 0.0, 529.8704540575093, 0.0]
['beep', 0.0, -1532.2344341557543, 0.0, 0.0, 0.0, 0.0, 527.7470383342551, 0.0]
['beep', 0.0, -1530.669812043883, 0.0, 0.0, 0.0, 0.0, 530.6080616245343, 0.0]
['beep', 0.0, -1526.601794553017, 0.0, 0.0, 0.0, 0.0, 533.1338087479841, 0.0]
['beep', 0.0, -1526.1994631528216, 0.0, 0.0, 0.0, 0.0, 533.9608232928305, 0.0]
['beep', 0.0, -1529.0157829541902, 0.0, 0.0, 0.0, 0.0, 529.490474401769, 0.0]
['beep', 0.0, -1531.4297713553633, 0.0, 0.0, 0.0, 0.0, 526.9200237894087, 0.0]
['beep', 0.0, -1528.993431209735, 0.0, 0.0, 0.0, 0.0, 528.8199220681098, 0.0]
['beep', 0.0, -1524.3666201074864, 0.0, 0.0, 0.0, 0.0, 534.2066924818388, 0.0]
['beep', 0.0, -1522.958460206802, 0.0, 0.0, 0.0, 0.0, 535.2795762156935, 0.0]
['beep', 0.0, -1525.9759457082685, 0.0, 0.0, 0.0, 0.0, 529.7586953352327, 0.0]
['beep', 0.0, -1529.3287073765646, 0.0, 0.0, 0.0, 0.0, 527.5905761230679, 0.0]
['beep', 0.0, -1529.060486443101, 0.0, 0.0, 0.0, 0.0, 529.6245848685008, 0.0]
['beep', 0.0, -1524.8136549965925, 0.0, 0.0, 0.0, 0.0, 533.5137884037243, 0.0]
['beep', 0.0, -1524.2995648741205, 0.0, 0.0, 0.0, 0.0, 533.5137884037243, 0.0]
['beep', 0.0, -1527.0488294421232, 0.0, 0.0, 0.0, 0.0, 529.8257505685987, 0.0]
['beep', 0.0, -1530.0663149435898, 0.0, 0.0, 0.0, 0.0, 527.6352796119785, 0.0]
['beep', 0.0, -1529.0157829541902, 0.0, 0.0, 0.0, 0.0, 529.0210877682075, 0.0]
['beep', 0.0, -1525.6630212858943, 0.0, 0.0, 0.0, 0.0, 534.0055267817411, 0.0]
['beep', 0.0, -1525.931242219358, 0.0, 0.0, 0.0, 0.0, 534.0055267817411, 0.0]
['beep', 0.0, -1529.060486443101, 0.0, 0.0, 0.0, 0.0, 527.814093567621, 0.0]
['beep', 0.0, -1532.4355998558522, 0.0, 0.0, 0.0, 0.0, 525.4671603998138, 0.0]
['beep', 0.0, -1530.5580533216064, 0.0, 0.0, 0.0, 0.0, 528.2834802011824, 0.0]
['beep', 0.0, -1527.0711811865785, 0.0, 0.0, 0.0, 0.0, 534.3855064374812, 0.0]
['beep', 0.0, -1525.5512625636177, 0.0, 0.0, 0.0, 0.0, 535.7042593603444, 0.0]
['beep', 0.0, -1528.5016928317182, 0.0, 0.0, 0.0, 0.0, 531.0103930247299, 0.0]
['beep', 0.0, -1531.4521230998187, 0.0, 0.0, 0.0, 0.0, 526.8976720449534, 0.0]
['beep', 0.0, -1530.669812043883, 0.0, 0.0, 0.0, 0.0, 530.4739511578025, 0.0]
['beep', 0.0, -1524.3219166185756, 0.0, 0.0, 0.0, 0.0, 535.0113552822298, 0.0]
['beep', 0.0, -1523.7184195182824, 0.0, 0.0, 0.0, 0.0, 534.944300048864, 0.0]
['beep', 0.0, -1528.7699137651819, 0.0, 0.0, 0.0, 0.0, 530.0939715020623, 0.0]
['beep', 0.0, -1531.0721434440784, 0.0, 0.0, 0.0, 0.0, 525.8918435444646, 0.0]
['beep', 0.0, -1529.574576565573, 0.0, 0.0, 0.0, 0.0, 529.8704540575093, 0.0]
['beep', 0.0, -1526.5794428085617, 0.0, 0.0, 0.0, 0.0, 535.9948320382633, 0.0]
['beep', 0.0, -1525.931242219358, 0.0, 0.0, 0.0, 0.0, 534.6760791154003, 0.0]
['beep', 0.0, -1528.345230620531, 0.0, 0.0, 0.0, 0.0, 529.0434395126629, 0.0]
['beep', 0.0, -1532.0332684556568, 0.0, 0.0, 0.0, 0.0, 526.8082650671322, 0.0]
['beep', 0.0, -1530.379239365964, 0.0, 0.0, 0.0, 0.0, 529.5798813795902, 0.0]
['beep', 0.0, -1525.931242219358, 0.0, 0.0, 0.0, 0.0, 534.7878378376768, 0.0]
['beep', 0.0, -1524.2325096407544, 0.0, 0.0, 0.0, 0.0, 535.5701488936126, 0.0]
['beep', 0.0, -1527.4511608423188, 0.0, 0.0, 0.0, 0.0, 530.2057302243388, 0.0]
['beep', 0.0, -1532.122675433478, 0.0, 0.0, 0.0, 0.0, 528.9316807903863, 0.0]
['beep', 0.0, -1530.2227771547768, 0.0, 0.0, 0.0, 0.0, 531.9044628029421, 0.0]
['beep', 0.0, -1527.898195731425, 0.0, 0.0, 0.0, 0.0, 534.8995965599534, 0.0]
['beep', 0.0, -1525.7524282637155, 0.0, 0.0, 0.0, 0.0, 533.8714163150092, 0.0]
['beep', 0.0, -1528.7699137651819, 0.0, 0.0, 0.0, 0.0, 528.0152592677188, 0.0]
['beep', 0.0, -1532.4132481113968, 0.0, 0.0, 0.0, 0.0, 525.6236226110009, 0.0]
['beep', 0.0, -1534.246091156732, 0.0, 0.0, 0.0, 0.0, 528.037611012174, 0.0]
['beep', 0.0, -1529.2840038876539, 0.0, 0.0, 0.0, 0.0, 535.5925006380678, 0.0]
['beep', 0.0, -1521.9526317063132, 0.0, 0.0, 0.0, 0.0, 536.0842390160846, 0.0]
['beep', 0.0, -1522.7796462511596, 0.0, 0.0, 0.0, 0.0, 530.4739511578025, 0.0]
['beep', 0.0, -1526.5123875751958, 0.0, 0.0, 0.0, 0.0, 528.2834802011824, 0.0]
['beep', 0.0, -1527.5629195645952, 0.0, 0.0, 0.0, 0.0, 531.9715180363081, 0.0]
['beep', 0.0, -1524.0313439406568, 0.0, 0.0, 0.0, 0.0, 536.5089221607354, 0.0]
['beep', 0.0, -1523.472550329274, 0.0, 0.0, 0.0, 0.0, 537.0900675165734, 0.0]
['beep', 0.0, -1526.1100561750004, 0.0, 0.0, 0.0, 0.0, 530.5410063911685, 0.0]
['beep', 0.0, -1528.054657942612, 0.0, 0.0, 0.0, 0.0, 525.847140055554, 0.0]
['beep', 0.0, -1526.2665183861875, 0.0, 0.0, 0.0, 0.0, 532.1950354808612, 0.0]
['beep', 0.0, -1522.3102596175981, 0.0, 0.0, 0.0, 0.0, 535.9724802938081, 0.0]
['beep', 0.0, -1521.215024139288, 0.0, 0.0, 0.0, 0.0, 537.8276750835986, 0.0]
['beep', 0.0, -1523.9642887072907, 0.0, 0.0, 0.0, 0.0, 533.4243814259031, 0.0]
['beep', 0.0, -1528.0323061981567, 0.0, 0.0, 0.0, 0.0, 530.29513720216, 0.0]
['beep', 0.0, -1525.3724486079752, 0.0, 0.0, 0.0, 0.0, 531.7256488472997, 0.0]
['beep', 0.0, -1519.896271216425, 0.0, 0.0, 0.0, 0.0, 535.2795762156935, 0.0]
['beep', 0.0, -1520.1421404054333, 0.0, 0.0, 0.0, 0.0, 535.6372041269784, 0.0]
['beep', 0.0, -1523.7631230071931, 0.0, 0.0, 0.0, 0.0, 531.9491662918527, 0.0]
['beep', 0.0, -1527.2946986311315, 0.0, 0.0, 0.0, 0.0, 528.842273812565, 0.0]
['beep', 0.0, -1526.4229805973746, 0.0, 0.0, 0.0, 0.0, 532.5973668810567, 0.0]
['beep', 0.0, -1520.9691549502797, 0.0, 0.0, 0.0, 0.0, 537.3359367055817, 0.0]
['beep', 0.0, -1520.052733427612, 0.0, 0.0, 0.0, 0.0, 537.4029919389477, 0.0]
['beep', 0.0, -1523.6290125404612, 0.0, 0.0, 0.0, 0.0, 531.5021314027466, 0.0]
['beep', 0.0, -1528.3005271316204, 0.0, 0.0, 0.0, 0.0, 527.9705557788081, 0.0]
['beep', 0.0, -1527.54056782014, 0.0, 0.0, 0.0, 0.0, 533.6702506149114, 0.0]
['beep', 0.0, -1521.7738177506708, 0.0, 0.0, 0.0, 0.0, 537.2912332166711, 0.0]
['beep', 0.0, -1520.9691549502797, 0.0, 0.0, 0.0, 0.0, 536.5983291385567, 0.0]
['beep', 0.0, -1525.931242219358, 0.0, 0.0, 0.0, 0.0, 531.1892069803723, 0.0]
['beep', 0.0, -1528.6805067873606, 0.0, 0.0, 0.0, 0.0, 528.9987360237523, 0.0]
['beep', 0.0, -1526.087704430545, 0.0, 0.0, 0.0, 0.0, 531.457427913836, 0.0]
['beep', 0.0, -1521.4608933282964, 0.0, 0.0, 0.0, 0.0, 536.911253560931, 0.0]
['beep', 0.0, -1521.1256171614668, 0.0, 0.0, 0.0, 0.0, 536.844198327565, 0.0]
['beep', 0.0, -1523.8525299850144, 0.0, 0.0, 0.0, 0.0, 531.8821110584869, 0.0]
['beep', 0.0, -1527.764085264693, 0.0, 0.0, 0.0, 0.0, 528.7975703236544, 0.0]
['beep', 0.0, -1526.2665183861875, 0.0, 0.0, 0.0, 0.0, 530.29513720216, 0.0]
['beep', 0.0, -1521.9526317063132, 0.0, 0.0, 0.0, 0.0, 535.8383698270762, 0.0]
['beep', 0.0, -1520.8573962280032, 0.0, 0.0, 0.0, 0.0, 536.4865704162801, 0.0]
['beep', 0.0, -1523.4278468403634, 0.0, 0.0, 0.0, 0.0, 531.8821110584869, 0.0]
['beep', 0.0, -1525.5512625636177, 0.0, 0.0, 0.0, 0.0, 527.7023348453445, 0.0]
['beep', 0.0, -1523.025515440168, 0.0, 0.0, 0.0, 0.0, 530.5410063911685, 0.0]
['beep', 0.0, -1517.795207237626, 0.0, 0.0, 0.0, 0.0, 534.5643203931237, 0.0]
['beep', 0.0, -1515.0682944140785, 0.0, 0.0, 0.0, 0.0, 537.134771005484, 0.0]
['beep', 0.0, -1516.9681926927797, 0.0, 0.0, 0.0, 0.0, 534.7654860932215, 0.0]
['beep', 0.0, -1518.8680909714808, 0.0, 0.0, 0.0, 0.0, 532.9773465367969, 0.0]
['beep', 0.0, -1517.8175589820814, 0.0, 0.0, 0.0, 0.0, 536.263052971727, 0.0]
['beep', 0.0, -1515.7835502366484, 0.0, 0.0, 0.0, 0.0, 540.1969599958611, 0.0]
['beep', 0.0, -1516.3646955924864, 0.0, 0.0, 0.0, 0.0, 539.5487594066572, 0.0]
['beep', 0.0, -1520.410361338897, 0.0, 0.0, 0.0, 0.0, 534.0278785261963, 0.0]
['beep', 0.0, -1525.640669541439, 0.0, 0.0, 0.0, 0.0, 531.3233174471042, 0.0]
['beep', 0.0, -1526.0430009416343, 0.0, 0.0, 0.0, 0.0, 534.7431343487661, 0.0]
['beep', 0.0, -1521.7961694951262, 0.0, 0.0, 0.0, 0.0, 537.6488611279561, 0.0]
['beep', 0.0, -1520.0080299387014, 0.0, 0.0, 0.0, 0.0, 537.4029919389477, 0.0]
['beep', 0.0, -1523.1372741624446, 0.0, 0.0, 0.0, 0.0, 533.4243814259031, 0.0]
['beep', 0.0, -1526.2218148972768, 0.0, 0.0, 0.0, 0.0, 531.7703523362103, 0.0]
['beep', 0.0, -1525.3277451190645, 0.0, 0.0, 0.0, 0.0, 532.619718625512, 0.0]
['beep', 0.0, -1519.762160749693, 0.0, 0.0, 0.0, 0.0, 537.1794744943946, 0.0]
['beep', 0.0, -1519.1363119049445, 0.0, 0.0, 0.0, 0.0, 536.7771430941991, 0.0]
['beep', 0.0, -1521.6844107728496, 0.0, 0.0, 0.0, 0.0, 530.6080616245343, 0.0]
['beep', 0.0, -1524.7465997632266, 0.0, 0.0, 0.0, 0.0, 528.1493697344506, 0.0]
['beep', 0.0, -1524.6124892964947, 0.0, 0.0, 0.0, 0.0, 530.0939715020623, 0.0]
['beep', 0.0, -1519.896271216425, 0.0, 0.0, 0.0, 0.0, 534.7207826043109, 0.0]
['beep', 0.0, -1519.091608416034, 0.0, 0.0, 0.0, 0.0, 536.3077564606376, 0.0]
['beep', 0.0, -1522.7572945067043, 0.0, 0.0, 0.0, 0.0, 530.6080616245343, 0.0]
['beep', 0.0, -1526.311221875098, 0.0, 0.0, 0.0, 0.0, 524.9977737662523, 0.0]
['beep', 0.0, -1525.2159863967881, 0.0, 0.0, 0.0, 0.0, 529.0434395126629, 0.0]
['beep', 0.0, -1520.4327130833524, 0.0, 0.0, 0.0, 0.0, 534.1843407373835, 0.0]
['beep', 0.0, -1518.0634281710898, 0.0, 0.0, 0.0, 0.0, 534.4525616708472, 0.0]
['beep', 0.0, -1521.9749834507686, 0.0, 0.0, 0.0, 0.0, 530.8092273246322, 0.0]
['beep', 0.0, -1526.0430009416343, 0.0, 0.0, 0.0, 0.0, 528.3505354345483, 0.0]
['beep', 0.0, -1524.4560270853076, 0.0, 0.0, 0.0, 0.0, 531.5468348916572, 0.0]
['beep', 0.0, -1520.3880095944417, 0.0, 0.0, 0.0, 0.0, 536.2854047161824, 0.0]
['beep', 0.0, -1518.2645938711876, 0.0, 0.0, 0.0, 0.0, 535.5701488936126, 0.0]
['beep', 0.0, -1521.6397072839388, 0.0, 0.0, 0.0, 0.0, 530.943337791364, 0.0]
['beep', 0.0, -1525.8194834970814, 0.0, 0.0, 0.0, 0.0, 527.6799831008891, 0.0]
['beep', 0.0, -1523.4278468403634, 0.0, 0.0, 0.0, 0.0, 530.5186546467131, 0.0]
['beep', 0.0, -1519.5162915606847, 0.0, 0.0, 0.0, 0.0, 536.5759773941013, 0.0]
['beep', 0.0, -1518.510463060196, 0.0, 0.0, 0.0, 0.0, 537.3582884500371, 0.0]
['beep', 0.0, -1521.6620590283942, 0.0, 0.0, 0.0, 0.0, 531.7927040806657, 0.0]
['beep', 0.0, -1524.5454340631288, 0.0, 0.0, 0.0, 0.0, 525.5118638887244, 0.0]
['beep', 0.0, -1522.8690532289809, 0.0, 0.0, 0.0, 0.0, 529.5128261462244, 0.0]
['beep', 0.0, -1518.510463060196, 0.0, 0.0, 0.0, 0.0, 534.0502302706517, 0.0]
['beep', 0.0, -1517.5716897930731, 0.0, 0.0, 0.0, 0.0, 536.4642186718248, 0.0]
['beep', 0.0, -1521.34913460602, 0.0, 0.0, 0.0, 0.0, 532.8879395589756, 0.0]
['beep', 0.0, -1523.9195852183802, 0.0, 0.0, 0.0, 0.0, 529.9151575464199, 0.0]
['beep', 0.0, -1522.6455357844277, 0.0, 0.0, 0.0, 0.0, 532.2397389697718, 0.0]
['beep', 0.0, -1517.7728554931707, 0.0, 0.0, 0.0, 0.0, 537.1571227499393, 0.0]
['beep', 0.0, -1517.1470066484221, 0.0, 0.0, 0.0, 0.0, 535.1454657489617, 0.0]
['beep', 0.0, -1520.9468032058244, 0.0, 0.0, 0.0, 0.0, 529.6022331240456, 0.0]
['beep', 0.0, -1523.025515440168, 0.0, 0.0, 0.0, 0.0, 527.456465656336, 0.0]
['beep', 0.0, -1520.6115270389948, 0.0, 0.0, 0.0, 0.0, 530.8315790690874, 0.0]
['beep', 0.0, -1517.5940415375283, 0.0, 0.0, 0.0, 0.0, 536.1959977383611, 0.0]
['beep', 0.0, -1515.3588670919976, 0.0, 0.0, 0.0, 0.0, 537.3135849611265, 0.0]
['beep', 0.0, -1516.8787857149584, 0.0, 0.0, 0.0, 0.0, 531.7032971028444, 0.0]
['beep', 0.0, -1521.2373758837434, 0.0, 0.0, 0.0, 0.0, 528.9316807903863, 0.0]
['beep', 0.0, -1520.7232857612714, 0.0, 0.0, 0.0, 0.0, 531.9044628029421, 0.0]
['beep', 0.0, -1516.6776200148608, 0.0, 0.0, 0.0, 0.0, 535.9054250604421, 0.0]
['beep', 0.0, -1514.2636316136875, 0.0, 0.0, 0.0, 0.0, 537.4253436834031, 0.0]
['beep', 0.0, -1516.6329165259501, 0.0, 0.0, 0.0, 0.0, 533.8043610816433, 0.0]
['beep', 0.0, -1520.276250872165, 0.0, 0.0, 0.0, 0.0, 529.6692883574115, 0.0]
['beep', 0.0, -1518.801035738115, 0.0, 0.0, 0.0, 0.0, 531.5021314027466, 0.0]
['beep', 0.0, -1515.2247566252659, 0.0, 0.0, 0.0, 0.0, 534.9219483044086, 0.0]
['beep', 0.0, -1512.8331199685479, 0.0, 0.0, 0.0, 0.0, 539.0123175397298, 0.0]
['beep', 0.0, -1517.1917101373328, 0.0, 0.0, 0.0, 0.0, 536.1065907605399, 0.0]
['beep', 0.0, -1520.6338787834502, 0.0, 0.0, 0.0, 0.0, 531.7256488472997, 0.0]
['beep', 0.0, -1519.896271216425, 0.0, 0.0, 0.0, 0.0, 532.1726837364058, 0.0]
['beep', 0.0, -1516.7893787371372, 0.0, 0.0, 0.0, 0.0, 536.5759773941013, 0.0]
['beep', 0.0, -1514.5318525471512, 0.0, 0.0, 0.0, 0.0, 538.587634395079, 0.0]
['beep', 0.0, -1518.9798496937574, 0.0, 0.0, 0.0, 0.0, 534.072582015107, 0.0]
['beep', 0.0, -1521.863224728492, 0.0, 0.0, 0.0, 0.0, 530.2057302243388, 0.0]
['beep', 0.0, -1521.0138584391902, 0.0, 0.0, 0.0, 0.0, 534.1843407373835, 0.0]
['beep', 0.0, -1516.6329165259501, 0.0, 0.0, 0.0, 0.0, 539.7052216178444, 0.0]
['beep', 0.0, -1515.2694601141764, 0.0, 0.0, 0.0, 0.0, 537.715916361322, 0.0]
['beep', 0.0, -1519.4939398162294, 0.0, 0.0, 0.0, 0.0, 532.1279802474952, 0.0]
['beep', 0.0, -1523.696067773827, 0.0, 0.0, 0.0, 0.0, 527.9035005454422, 0.0]
['beep', 0.0, -1522.3102596175981, 0.0, 0.0, 0.0, 0.0, 530.5633581356237, 0.0]
['beep', 0.0, -1517.1470066484221, 0.0, 0.0, 0.0, 0.0, 536.8665500720203, 0.0]
['beep', 0.0, -1515.9400124478357, 0.0, 0.0, 0.0, 0.0, 538.8558553285427, 0.0]
['beep', 0.0, -1519.471588071774, 0.0, 0.0, 0.0, 0.0, 534.2290442262941, 0.0]
['beep', 0.0, -1521.6844107728496, 0.0, 0.0, 0.0, 0.0, 529.0210877682075, 0.0]
['beep', 0.0, -1521.215024139288, 0.0, 0.0, 0.0, 0.0, 530.5633581356237, 0.0]
['beep', 0.0, -1517.5493380486178, 0.0, 0.0, 0.0, 0.0, 535.0784105155958, 0.0]
['beep', 0.0, -1515.9176607033803, 0.0, 0.0, 0.0, 0.0, 536.2854047161824, 0.0]
['beep', 0.0, -1518.309297360098, 0.0, 0.0, 0.0, 0.0, 532.1726837364058, 0.0]
['beep', 0.0, -1521.3938380949305, 0.0, 0.0, 0.0, 0.0, 528.2387767122718, 0.0]
['beep', 0.0, -1520.2091956387992, 0.0, 0.0, 0.0, 0.0, 531.2562622137383, 0.0]
['beep', 0.0, -1516.2529368702099, 0.0, 0.0, 0.0, 0.0, 535.9054250604421, 0.0]
['beep', 0.0, -1514.4200938248748, 0.0, 0.0, 0.0, 0.0, 535.5925006380678, 0.0]
['beep', 0.0, -1518.0634281710898, 0.0, 0.0, 0.0, 0.0, 528.5293493901908, 0.0]
['beep', 0.0, -1520.7232857612714, 0.0, 0.0, 0.0, 0.0, 527.3223551896042, 0.0]
['beep', 0.0, -1520.119788660978, 0.0, 0.0, 0.0, 0.0, 531.1221517470065, 0.0]
['beep', 0.0, -1516.6552682704055, 0.0, 0.0, 0.0, 0.0, 535.9948320382633, 0.0]
['beep', 0.0, -1515.9400124478357, 0.0, 0.0, 0.0, 0.0, 536.1959977383611, 0.0]
['beep', 0.0, -1518.957497949302, 0.0, 0.0, 0.0, 0.0, 531.7703523362103, 0.0]
['beep', 0.0, -1522.4220183398747, 0.0, 0.0, 0.0, 0.0, 528.1717214789059, 0.0]
['beep', 0.0, -1521.6173555394837, 0.0, 0.0, 0.0, 0.0, 529.5798813795902, 0.0]
['beep', 0.0, -1516.3199921035757, 0.0, 0.0, 0.0, 0.0, 535.681907615889, 0.0]
['beep', 0.0, -1514.2859833581429, 0.0, 0.0, 0.0, 0.0, 536.6653843719225, 0.0]
['beep', 0.0, -1517.281117115154, 0.0, 0.0, 0.0, 0.0, 531.9491662918527, 0.0]
['beep', 0.0, -1521.3044311171093, 0.0, 0.0, 0.0, 0.0, 529.5351778906796, 0.0]
['beep', 0.0, -1520.1868438943438, 0.0, 0.0, 0.0, 0.0, 532.2844424586824, 0.0]
['beep', 0.0, -1517.057599670601, 0.0, 0.0, 0.0, 0.0, 535.9054250604421, 0.0]
['beep', 0.0, -1514.3530385915087, 0.0, 0.0, 0.0, 0.0, 534.6760791154003, 0.0]
['beep', 0.0, -1518.9351462048467, 0.0, 0.0, 0.0, 0.0, 530.0045645242411, 0.0]
['beep', 0.0, -1522.2879078731428, 0.0, 0.0, 0.0, 0.0, 528.1717214789059, 0.0]
['beep', 0.0, -1520.5221200611736, 0.0, 0.0, 0.0, 0.0, 532.3962011809589, 0.0]
['beep', 0.0, -1515.247108369721, 0.0, 0.0, 0.0, 0.0, 536.7994948386544, 0.0]
['beep', 0.0, -1514.867128713981, 0.0, 0.0, 0.0, 0.0, 536.5089221607354, 0.0]
['beep', 0.0, -1517.8175589820814, 0.0, 0.0, 0.0, 0.0, 531.5915383805678, 0.0]
['beep', 0.0, -1521.7738177506708, 0.0, 0.0, 0.0, 0.0, 528.7528668347438, 0.0]
['beep', 0.0, -1520.0974369165226, 0.0, 0.0, 0.0, 0.0, 532.10562850304, 0.0]
['beep', 0.0, -1517.0352479261458, 0.0, 0.0, 0.0, 0.0, 535.4136866824254, 0.0]
['beep', 0.0, -1516.8564339705033, 0.0, 0.0, 0.0, 0.0, 534.4078581819366, 0.0]
['beep', 0.0, -1519.3821810939528, 0.0, 0.0, 0.0, 0.0, 531.4127244249254, 0.0]
['beep', 0.0, -1521.4608933282964, 0.0, 0.0, 0.0, 0.0, 528.1940732233612, 0.0]
['beep', 0.0, -1521.1032654170115, 0.0, 0.0, 0.0, 0.0, 532.038573269674, 0.0]
['beep', 0.0, -1517.996372937724, 0.0, 0.0, 0.0, 0.0, 537.5371024056795, 0.0]
['beep', 0.0, -1515.6941432588271, 0.0, 0.0, 0.0, 0.0, 537.067715772118, 0.0]
['beep', 0.0, -1517.7728554931707, 0.0, 0.0, 0.0, 0.0, 531.2786139581935, 0.0]
['beep', 0.0, -1521.1479689059222, 0.0, 0.0, 0.0, 0.0, 525.1765877218947, 0.0]
['beep', 0.0, -1519.6280502829613, 0.0, 0.0, 0.0, 0.0, 531.1668552359171, 0.0]
['beep', 0.0, -1516.0070676812015, 0.0, 0.0, 0.0, 0.0, 537.7382681057774, 0.0]
['beep', 0.0, -1514.5542042916065, 0.0, 0.0, 0.0, 0.0, 535.9054250604421, 0.0]
['beep', 0.0, -1517.3928758374307, 0.0, 0.0, 0.0, 0.0, 530.5857098800791, 0.0]
['beep', 0.0, -1520.25389912771, 0.0, 0.0, 0.0, 0.0, 528.2387767122718, 0.0]
['beep', 0.0, -1519.605698538506, 0.0, 0.0, 0.0, 0.0, 531.3456691915595, 0.0]
['beep', 0.0, -1516.3199921035757, 0.0, 0.0, 0.0, 0.0, 535.7713145937103, 0.0]
['beep', 0.0, -1514.7553699917044, 0.0, 0.0, 0.0, 0.0, 535.6595558714338, 0.0]
['beep', 0.0, -1517.5940415375283, 0.0, 0.0, 0.0, 0.0, 531.2115587248277, 0.0]
['beep', 0.0, -1519.896271216425, 0.0, 0.0, 0.0, 0.0, 527.6799831008891, 0.0]
['beep', 0.0, -1519.8515677275143, 0.0, 0.0, 0.0, 0.0, 529.9375092908751, 0.0]
['beep', 0.0, -1516.5658612925843, 0.0, 0.0, 0.0, 0.0, 534.5866721375791, 0.0]
['beep', 0.0, -1514.4871490582407, 0.0, 0.0, 0.0, 0.0, 534.9890035377746, 0.0]
['beep', 0.0, -1518.2645938711876, 0.0, 0.0, 0.0, 0.0, 531.5691866361126, 0.0]
['beep', 0.0, -1522.1761491508662, 0.0, 0.0, 0.0, 0.0, 529.8033988241433, 0.0]
['beep', 0.0, -1521.72911426176, 0.0, 0.0, 0.0, 0.0, 531.0327447691852, 0.0]
['beep', 0.0, -1517.281117115154, 0.0, 0.0, 0.0, 0.0, 535.8607215715315, 0.0]
['beep', 0.0, -1514.9565356918022, 0.0, 0.0, 0.0, 0.0, 535.9054250604421, 0.0]
['beep', 0.0, -1517.1917101373328, 0.0, 0.0, 0.0, 0.0, 531.2339104692829, 0.0]
['beep', 0.0, -1521.0809136725563, 0.0, 0.0, 0.0, 0.0, 526.8529685560428, 0.0]
['beep', 0.0, -1520.2315473832546, 0.0, 0.0, 0.0, 0.0, 530.2727854577048, 0.0]
['beep', 0.0, -1517.2140618817882, 0.0, 0.0, 0.0, 0.0, 535.6372041269784, 0.0]
['beep', 0.0, -1516.8564339705033, 0.0, 0.0, 0.0, 0.0, 536.9783087942968, 0.0]
['beep', 0.0, -1519.248070627221, 0.0, 0.0, 0.0, 0.0, 533.0891052590734, 0.0]
['beep', 0.0, -1523.025515440168, 0.0, 0.0, 0.0, 0.0, 528.8646255570204, 0.0]
['beep', 0.0, -1523.249032884721, 0.0, 0.0, 0.0, 0.0, 532.3962011809589, 0.0]
['beep', 0.0, -1517.4375793263412, 0.0, 0.0, 0.0, 0.0, 536.911253560931, 0.0]
['beep', 0.0, -1513.123692646467, 0.0, 0.0, 0.0, 0.0, 537.1124192610287, 0.0]
['beep', 0.0, -1516.4988060592182, 0.0, 0.0, 0.0, 0.0, 533.3126227036265, 0.0]
['beep', 0.0, -1525.9982974527238, 0.0, 0.0, 0.0, 0.0, 530.0045645242411, 0.0]
['beep', 0.0, -1529.2393003987434, 0.0, 0.0, 0.0, 0.0, 532.0162215252187, 0.0]
['beep', 0.0, -1525.7747800081706, 0.0, 0.0, 0.0, 0.0, 536.5312739051907, 0.0]
['beep', 0.0, -1523.673716029372, 0.0, 0.0, 0.0, 0.0, 537.0453640276628, 0.0]
['beep', 0.0, -1523.3607916069975, 0.0, 0.0, 0.0, 0.0, 529.7363435907774, 0.0]
['beep', 0.0, -1525.3724486079752, 0.0, 0.0, 0.0, 0.0, 525.9588987778305, 0.0]
['beep', 0.0, -1526.44533234183, 0.0, 0.0, 0.0, 0.0, 525.4224569109031, 0.0]
['beep', 0.0, -1522.377314850964, 0.0, 0.0, 0.0, 0.0, 532.262090714227, 0.0]
['beep', 0.0, -1521.5279485616625, 0.0, 0.0, 0.0, 0.0, 534.7654860932215, 0.0]
['beep', 0.0, -1523.181977651355, 0.0, 0.0, 0.0, 0.0, 528.4846459012801, 0.0]
['beep', 0.0, -1525.7077247748048, 0.0, 0.0, 0.0, 0.0, 526.2271197112942, 0.0]
['beep', 0.0, -1526.0206491971792, 0.0, 0.0, 0.0, 0.0, 529.6245848685008, 0.0]
['beep', 0.0, -1521.8408729840367, 0.0, 0.0, 0.0, 0.0, 533.714954103822, 0.0]
['beep', 0.0, -1519.7845124941484, 0.0, 0.0, 0.0, 0.0, 533.8043610816433, 0.0]
['beep', 0.0, -1523.0031636957126, 0.0, 0.0, 0.0, 0.0, 527.9482040343528, 0.0]
['beep', 0.0, -1526.2665183861875, 0.0, 0.0, 0.0, 0.0, 527.4117621674254, 0.0]
['beep', 0.0, -1525.9982974527238, 0.0, 0.0, 0.0, 0.0, 531.1668552359171, 0.0]
['beep', 0.0, -1522.4667218287852, 0.0, 0.0, 0.0, 0.0, 535.6372041269784, 0.0]
['beep', 0.0, -1520.119788660978, 0.0, 0.0, 0.0, 0.0, 534.3855064374812, 0.0]
['beep', 0.0, -1522.8690532289809, 0.0, 0.0, 0.0, 0.0, 529.4681226573138, 0.0]
['beep', 0.0, -1526.6241462974724, 0.0, 0.0, 0.0, 0.0, 526.2494714557495, 0.0]
['beep', 0.0, -1526.087704430545, 0.0, 0.0, 0.0, 0.0, 528.2611284567271, 0.0]
['beep', 0.0, -1522.4667218287852, 0.0, 0.0, 0.0, 0.0, 532.7091256033332, 0.0]
['beep', 0.0, -1520.767989250182, 0.0, 0.0, 0.0, 0.0, 533.6255471260008, 0.0]
['beep', 0.0, -1523.8078264961036, 0.0, 0.0, 0.0, 0.0, 530.138674990973, 0.0]
['beep', 0.0, -1528.1440649204333, 0.0, 0.0, 0.0, 0.0, 525.7800848221881, 0.0]
['beep', 0.0, -1526.4900358307405, 0.0, 0.0, 0.0, 0.0, 529.1551982349393, 0.0]
['beep', 0.0, -1521.7514660062154, 0.0, 0.0, 0.0, 0.0, 534.6760791154003, 0.0]
['beep', 0.0, -1520.3656578499863, 0.0, 0.0, 0.0, 0.0, 535.1231140045064, 0.0]
['beep', 0.0, -1522.7125910177936, 0.0, 0.0, 0.0, 0.0, 531.3903726804701, 0.0]
['beep', 0.0, -1526.4229805973746, 0.0, 0.0, 0.0, 0.0, 527.7693900787103, 0.0]
['beep', 0.0, -1525.8865387304472, 0.0, 0.0, 0.0, 0.0, 529.3787156794924, 0.0]
['beep', 0.0, -1521.9079282174025, 0.0, 0.0, 0.0, 0.0, 535.4360384268807, 0.0]
['beep', 0.0, -1519.4268845828635, 0.0, 0.0, 0.0, 0.0, 535.7042593603444, 0.0]
['beep', 0.0, -1522.4443700843299, 0.0, 0.0, 0.0, 0.0, 531.3009657026489, 0.0]
['beep', 0.0, -1526.2441666417321, 0.0, 0.0, 0.0, 0.0, 527.5682243786126, 0.0]
['beep', 0.0, -1525.2383381412433, 0.0, 0.0, 0.0, 0.0, 530.0492680131517, 0.0]
['beep', 0.0, -1520.6115270389948, 0.0, 0.0, 0.0, 0.0, 534.6984308598555, 0.0]
['beep', 0.0, -1517.8399107265368, 0.0, 0.0, 0.0, 0.0, 536.5089221607354, 0.0]
['beep', 0.0, -1520.4550648278075, 0.0, 0.0, 0.0, 0.0, 530.6080616245343, 0.0]
['beep', 0.0, -1523.7407712627378, 0.0, 0.0, 0.0, 0.0, 527.8364453120763, 0.0]
['beep', 0.0, -1523.3384398625421, 0.0, 0.0, 0.0, 0.0, 531.6809453583891, 0.0]
['beep', 0.0, -1519.9409747053355, 0.0, 0.0, 0.0, 0.0, 536.3077564606376, 0.0]
['beep', 0.0, -1517.929317704358, 0.0, 0.0, 0.0, 0.0, 537.2465297277605, 0.0]
['beep', 0.0, -1521.1703206503776, 0.0, 0.0, 0.0, 0.0, 530.4739511578025, 0.0]
['beep', 0.0, -1525.2159863967881, 0.0, 0.0, 0.0, 0.0, 527.6799831008891, 0.0]
['beep', 0.0, -1523.7407712627378, 0.0, 0.0, 0.0, 0.0, 530.8315790690874, 0.0]
['beep', 0.0, -1520.4997683167182, 0.0, 0.0, 0.0, 0.0, 535.4136866824254, 0.0]
['beep', 0.0, -1519.0469049271233, 0.0, 0.0, 0.0, 0.0, 536.844198327565, 0.0]
['beep', 0.0, -1521.5503003061176, 0.0, 0.0, 0.0, 0.0, 532.5303116476907, 0.0]
['beep', 0.0, -1525.6630212858943, 0.0, 0.0, 0.0, 0.0, 528.5293493901908, 0.0]
['beep', 0.0, -1525.3053933746094, 0.0, 0.0, 0.0, 0.0, 530.6974686023556, 0.0]
['beep', 0.0, -1521.6173555394837, 0.0, 0.0, 0.0, 0.0, 533.2679192147159, 0.0]
['beep', 0.0, -1520.0750851720675, 0.0, 0.0, 0.0, 0.0, 532.843236070065, 0.0]
['beep', 0.0, -1522.6231840399723, 0.0, 0.0, 0.0, 0.0, 529.490474401769, 0.0]
['beep', 0.0, -1526.9370707198466, 0.0, 0.0, 0.0, 0.0, 526.3388784335707, 0.0]
['beep', 0.0, -1526.378277108464, 0.0, 0.0, 0.0, 0.0, 529.8704540575093, 0.0]
['beep', 0.0, -1523.4949020737295, 0.0, 0.0, 0.0, 0.0, 534.5643203931237, 0.0]
['beep', 0.0, -1522.5561288066065, 0.0, 0.0, 0.0, 0.0, 534.7878378376768, 0.0]
['beep', 0.0, -1524.2548613852098, 0.0, 0.0, 0.0, 0.0, 529.7139918463221, 0.0]
['beep', 0.0, -1527.406457353408, 0.0, 0.0, 0.0, 0.0, 526.0036022667412, 0.0]
['beep', 0.0, -1525.3500968635199, 0.0, 0.0, 0.0, 0.0, 528.7975703236544, 0.0]
['beep', 0.0, -1521.34913460602, 0.0, 0.0, 0.0, 0.0, 535.2348727267829, 0.0]
['beep', 0.0, -1516.2529368702099, 0.0, 0.0, 0.0, 0.0, 537.9394338058751, 0.0]
['beep', 0.0, -1516.543509548129, 0.0, 0.0, 0.0, 0.0, 532.4632564143249, 0.0]
['beep', 0.0, -1519.5609950495952, 0.0, 0.0, 0.0, 0.0, 528.6411081124674, 0.0]
['beep', 0.0, -1518.3763525934642, 0.0, 0.0, 0.0, 0.0, 532.2173872253164, 0.0]
['beep', 0.0, -1515.9176607033803, 0.0, 0.0, 0.0, 0.0, 537.3359367055817, 0.0]
['beep', 0.0, -1514.1518728914111, 0.0, 0.0, 0.0, 0.0, 539.1240762620064, 0.0]
['beep', 0.0, -1518.801035738115, 0.0, 0.0, 0.0, 0.0, 533.2902709591712, 0.0]
['beep', 0.0, -1523.316088118087, 0.0, 0.0, 0.0, 0.0, 529.4010674239478, 0.0]
['beep', 0.0, -1523.1372741624446, 0.0, 0.0, 0.0, 0.0, 530.1610267354282, 0.0]
['beep', 0.0, -1519.7845124941484, 0.0, 0.0, 0.0, 0.0, 536.0171837827187, 0.0]
['beep', 0.0, -1519.0469049271233, 0.0, 0.0, 0.0, 0.0, 535.9501285493527, 0.0]
['beep', 0.0, -1520.7232857612714, 0.0, 0.0, 0.0, 0.0, 530.1833784798836, 0.0]
['beep', 0.0, -1524.6571927854054, 0.0, 0.0, 0.0, 0.0, 526.2941749446601, 0.0]
['beep', 0.0, -1522.8243497400701, 0.0, 0.0, 0.0, 0.0, 530.2504337132494, 0.0]
['beep', 0.0, -1519.1139601604891, 0.0, 0.0, 0.0, 0.0, 535.748962849255, 0.0]
['beep', 0.0, -1517.2587653706987, 0.0, 0.0, 0.0, 0.0, 535.8383698270762, 0.0]
['beep', 0.0, -1520.119788660978, 0.0, 0.0, 0.0, 0.0, 531.0327447691852, 0.0]
['beep', 0.0, -1523.5172538181846, 0.0, 0.0, 0.0, 0.0, 529.0434395126629, 0.0]
['beep', 0.0, -1524.5454340631288, 0.0, 0.0, 0.0, 0.0, 530.2057302243388, 0.0]
['beep', 0.0, -1521.5950037950283, 0.0, 0.0, 0.0, 0.0, 534.9666517933192, 0.0]
['beep', 0.0, -1519.024553182668, 0.0, 0.0, 0.0, 0.0, 535.681907615889, 0.0]
['beep', 0.0, -1521.5503003061176, 0.0, 0.0, 0.0, 0.0, 529.781047079688, 0.0]
['beep', 0.0, -1525.126579418967, 0.0, 0.0, 0.0, 0.0, 527.0317825116853, 0.0]
['beep', 0.0, -1523.8078264961036, 0.0, 0.0, 0.0, 0.0, 528.5069976457355, 0.0]
['beep', 0.0, -1519.4492363273189, 0.0, 0.0, 0.0, 0.0, 534.3855064374812, 0.0]
['beep', 0.0, -1518.3763525934642, 0.0, 0.0, 0.0, 0.0, 533.4020296814477, 0.0]
['beep', 0.0, -1519.3374776050423, 0.0, 0.0, 0.0, 0.0, 530.2727854577048, 0.0]
['beep', 0.0, -1522.4220183398747, 0.0, 0.0, 0.0, 0.0, 527.300003445149, 0.0]
['beep', 0.0, -1522.4667218287852, 0.0, 0.0, 0.0, 0.0, 529.5351778906796, 0.0]
['beep', 0.0, -1519.5833467940506, 0.0, 0.0, 0.0, 0.0, 533.6926023593668, 0.0]
['beep', 0.0, -1516.9458409483245, 0.0, 0.0, 0.0, 0.0, 534.3408029485706, 0.0]
['beep', 0.0, -1519.1586636493998, 0.0, 0.0, 0.0, 0.0, 529.6916401018668, 0.0]
['beep', 0.0, -1523.0702189290785, 0.0, 0.0, 0.0, 0.0, 525.9141952889199, 0.0]
['beep', 0.0, -1523.7184195182824, 0.0, 0.0, 0.0, 0.0, 528.8199220681098, 0.0]
['beep', 0.0, -1519.9409747053355, 0.0, 0.0, 0.0, 0.0, 532.6644221144226, 0.0]
['beep', 0.0, -1518.1081316600005, 0.0, 0.0, 0.0, 0.0, 534.4078581819366, 0.0]
['beep', 0.0, -1520.0080299387014, 0.0, 0.0, 0.0, 0.0, 532.038573269674, 0.0]
['beep', 0.0, -1524.0760474295673, 0.0, 0.0, 0.0, 0.0, 528.4622941568249, 0.0]
['beep', 0.0, -1523.025515440168, 0.0, 0.0, 0.0, 0.0, 529.5128261462244, 0.0]
['beep', 0.0, -1518.5998700380171, 0.0, 0.0, 0.0, 0.0, 534.1619889929282, 0.0]
['beep', 0.0, -1516.2305851257545, 0.0, 0.0, 0.0, 0.0, 535.1901692378723, 0.0]
['beep', 0.0, -1519.1810153938552, 0.0, 0.0, 0.0, 0.0, 529.5351778906796, 0.0]
['beep', 0.0, -1523.0925706735338, 0.0, 0.0, 0.0, 0.0, 526.9647272783193, 0.0]
['beep', 0.0, -1522.958460206802, 0.0, 0.0, 0.0, 0.0, 531.0327447691852, 0.0]
['beep', 0.0, -1519.2704223716764, 0.0, 0.0, 0.0, 0.0, 535.5254454047019, 0.0]
['beep', 0.0, -1516.6552682704055, 0.0, 0.0, 0.0, 0.0, 534.8325413265874, 0.0]
['beep', 0.0, -1518.666925271383, 0.0, 0.0, 0.0, 0.0, 530.6974686023556, 0.0]
['beep', 0.0, -1522.086742173045, 0.0, 0.0, 0.0, 0.0, 526.8529685560428, 0.0]
['beep', 0.0, -1521.863224728492, 0.0, 0.0, 0.0, 0.0, 528.3058319456377, 0.0]
['beep', 0.0, -1518.1975386378217, 0.0, 0.0, 0.0, 0.0, 534.0055267817411, 0.0]
['beep', 0.0, -1517.3928758374307, 0.0, 0.0, 0.0, 0.0, 537.7606198502326, 0.0]
['beep', 0.0, -1519.6951055163272, 0.0, 0.0, 0.0, 0.0, 532.0832767585846, 0.0]
['beep', 0.0, -1523.7407712627378, 0.0, 0.0, 0.0, 0.0, 527.7693900787103, 0.0]
['beep', 0.0, -1522.4220183398747, 0.0, 0.0, 0.0, 0.0, 530.5633581356237, 0.0]
['beep', 0.0, -1518.2422421267322, 0.0, 0.0, 0.0, 0.0, 534.4972651597578, 0.0]
['beep', 0.0, -1515.4035705809083, 0.0, 0.0, 0.0, 0.0, 536.8665500720203, 0.0]
['beep', 0.0, -1519.0692566715786, 0.0, 0.0, 0.0, 0.0, 532.9326430478862, 0.0]
['beep', 0.0, -1523.0702189290785, 0.0, 0.0, 0.0, 0.0, 527.1211894895065, 0.0]
['beep', 0.0, -1521.3267828615647, 0.0, 0.0, 0.0, 0.0, 529.1775499793947, 0.0]
['beep', 0.0, -1517.3705240929753, 0.0, 0.0, 0.0, 0.0, 534.4972651597578, 0.0]
['beep', 0.0, -1515.0459426696234, 0.0, 0.0, 0.0, 0.0, 537.3135849611265, 0.0]
['beep', 0.0, -1517.1693583928775, 0.0, 0.0, 0.0, 0.0, 533.714954103822, 0.0]
['beep', 0.0, -1521.3938380949305, 0.0, 0.0, 0.0, 0.0, 528.6411081124674, 0.0]
['beep', 0.0, -1521.1032654170115, 0.0, 0.0, 0.0, 0.0, 531.4350761693807, 0.0]
['beep', 0.0, -1516.7893787371372, 0.0, 0.0, 0.0, 0.0, 536.9336053053862, 0.0]
['beep', 0.0, -1514.5318525471512, 0.0, 0.0, 0.0, 0.0, 536.1736459939058, 0.0]
['beep', 0.0, -1519.0469049271233, 0.0, 0.0, 0.0, 0.0, 532.5526633921461, 0.0]
['beep', 0.0, -1525.7747800081706, 0.0, 0.0, 0.0, 0.0, 529.9375092908751, 0.0]
['beep', 0.0, -1522.8019979956148, 0.0, 0.0, 0.0, 0.0, 531.8150558251209, 0.0]
['beep', 0.0, -1512.0955124015227, 0.0, 0.0, 0.0, 0.0, 538.0958960170623, 0.0]
['beep', 0.0, -1506.7757972211598, 0.0, 0.0, 0.0, 0.0, 538.364116950526, 0.0]
['beep', 0.0, -1510.1732623783664, 0.0, 0.0, 0.0, 0.0, 534.6984308598555, 0.0]
['beep', 0.0, -1515.7388467477379, 0.0, 0.0, 0.0, 0.0, 530.1610267354282, 0.0]
['beep', 0.0, -1517.1023031595116, 0.0, 0.0, 0.0, 0.0, 533.6702506149114, 0.0]
['beep', 0.0, -1513.0789891575564, 0.0, 0.0, 0.0, 0.0, 537.3582884500371, 0.0]
['beep', 0.0, -1510.3967798229194, 0.0, 0.0, 0.0, 0.0, 539.8169803401208, 0.0]
['beep', 0.0, -1514.1071694025004, 0.0, 0.0, 0.0, 0.0, 535.3913349379701, 0.0]
['beep', 0.0, -1518.2422421267322, 0.0, 0.0, 0.0, 0.0, 530.9209860469086, 0.0]
['beep', 0.0, -1518.3316491045534, 0.0, 0.0, 0.0, 0.0, 533.1561604924393, 0.0]
['beep', 0.0, -1514.218928124777, 0.0, 0.0, 0.0, 0.0, 536.7324396052885, 0.0]
['beep', 0.0, -1512.7884164796374, 0.0, 0.0, 0.0, 0.0, 538.4311721838918, 0.0]
['beep', 0.0, -1514.3083351025982, 0.0, 0.0, 0.0, 0.0, 533.2902709591712, 0.0]
['beep', 0.0, -1517.8846142154473, 0.0, 0.0, 0.0, 0.0, 528.6411081124674, 0.0]
['beep', 0.0, -1517.9069659599027, 0.0, 0.0, 0.0, 0.0, 531.3233174471042, 0.0]
['beep', 0.0, -1514.1965763803216, 0.0, 0.0, 0.0, 0.0, 537.1124192610287, 0.0]
['beep', 0.0, -1512.1402158904334, 0.0, 0.0, 0.0, 0.0, 538.6323378839896, 0.0]
['beep', 0.0, -1515.8059019811037, 0.0, 0.0, 0.0, 0.0, 534.5643203931237, 0.0]
['beep', 0.0, -1519.829215983059, 0.0, 0.0, 0.0, 0.0, 530.0492680131517, 0.0]
['beep', 0.0, -1518.957497949302, 0.0, 0.0, 0.0, 0.0, 531.4350761693807, 0.0]
['beep', 0.0, -1515.4035705809083, 0.0, 0.0, 0.0, 0.0, 537.6712128724114, 0.0]
['beep', 0.0, -1513.1907478798328, 0.0, 0.0, 0.0, 0.0, 539.3699454510147, 0.0]
['beep', 0.0, -1515.4259223253634, 0.0, 0.0, 0.0, 0.0, 532.4632564143249, 0.0]
['beep', 0.0, -1520.410361338897, 0.0, 0.0, 0.0, 0.0, 527.7470383342551, 0.0]
['beep', 0.0, -1520.9691549502797, 0.0, 0.0, 0.0, 0.0, 530.7645238357215, 0.0]
['beep', 0.0, -1516.3199921035757, 0.0, 0.0, 0.0, 0.0, 539.1464280064616, 0.0]
['beep', 0.0, -1513.123692646467, 0.0, 0.0, 0.0, 0.0, 540.5992913960566, 0.0]
['beep', 0.0, -1515.4259223253634, 0.0, 0.0, 0.0, 0.0, 534.8995965599534, 0.0]
['beep', 0.0, -1519.0022014382128, 0.0, 0.0, 0.0, 0.0, 531.3903726804701, 0.0]
['beep', 0.0, -1518.44340782683, 0.0, 0.0, 0.0, 0.0, 533.2455674702605, 0.0]
['beep', 0.0, -1514.9788874362573, 0.0, 0.0, 0.0, 0.0, 537.4253436834031, 0.0]
['beep', 0.0, -1513.3248583465647, 0.0, 0.0, 0.0, 0.0, 536.844198327565, 0.0]
['beep', 0.0, -1515.2694601141764, 0.0, 0.0, 0.0, 0.0, 533.782009337188, 0.0]
['beep', 0.0, -1519.3598293494977, 0.0, 0.0, 0.0, 0.0, 530.4292476688919, 0.0]
['beep', 0.0, -1518.3316491045534, 0.0, 0.0, 0.0, 0.0, 531.8821110584869, 0.0]
['beep', 0.0, -1513.7495414912155, 0.0, 0.0, 0.0, 0.0, 536.7547913497438, 0.0]
['beep', 0.0, -1510.8214629675704, 0.0, 0.0, 0.0, 0.0, 538.878207072998, 0.0]
['beep', 0.0, -1513.570727535573, 0.0, 0.0, 0.0, 0.0, 533.2902709591712, 0.0]
['beep', 0.0, -1518.1081316600005, 0.0, 0.0, 0.0, 0.0, 529.7139918463221, 0.0]
['beep', 0.0, -1518.3763525934642, 0.0, 0.0, 0.0, 0.0, 531.9491662918527, 0.0]
['beep', 0.0, -1515.381218836453, 0.0, 0.0, 0.0, 0.0, 537.0900675165734, 0.0]
['beep', 0.0, -1512.408436823897, 0.0, 0.0, 0.0, 0.0, 537.4029919389477, 0.0]
['beep', 0.0, -1514.3530385915087, 0.0, 0.0, 0.0, 0.0, 533.558491892635, 0.0]
['beep', 0.0, -1517.9069659599027, 0.0, 0.0, 0.0, 0.0, 528.5517011346461, 0.0]
['beep', 0.0, -1518.286945615643, 0.0, 0.0, 0.0, 0.0, 529.1328464904841, 0.0]
['beep', 0.0, -1513.9060037024026, 0.0, 0.0, 0.0, 0.0, 535.9054250604421, 0.0]
['beep', 0.0, -1511.2237943677658, 0.0, 0.0, 0.0, 0.0, 536.3077564606376, 0.0]
['beep', 0.0, -1513.5930792800284, 0.0, 0.0, 0.0, 0.0, 532.329145947593, 0.0]
['beep', 0.0, -1516.6105647814948, 0.0, 0.0, 0.0, 0.0, 531.5915383805678, 0.0]
['beep', 0.0, -1515.53768104764, 0.0, 0.0, 0.0, 0.0, 532.7985325811544, 0.0]
['beep', 0.0, -1512.25197461271, 0.0, 0.0, 0.0, 0.0, 537.4029919389477, 0.0]
['beep', 0.0, -1510.5755937785618, 0.0, 0.0, 0.0, 0.0, 537.9170820614198, 0.0]
['beep', 0.0, -1513.861300213492, 0.0, 0.0, 0.0, 0.0, 533.2902709591712, 0.0]
['beep', 0.0, -1517.8175589820814, 0.0, 0.0, 0.0, 0.0, 528.8199220681098, 0.0]
['beep', 0.0, -1516.4541025703077, 0.0, 0.0, 0.0, 0.0, 530.9880412802746, 0.0]
['beep', 0.0, -1511.5590705345953, 0.0, 0.0, 0.0, 0.0, 538.0735442726069, 0.0]
['beep', 0.0, -1510.2403176117323, 0.0, 0.0, 0.0, 0.0, 539.1240762620064, 0.0]
['beep', 0.0, -1512.5872507795395, 0.0, 0.0, 0.0, 0.0, 535.2125209823276, 0.0]
['beep', 0.0, -1516.6105647814948, 0.0, 0.0, 0.0, 0.0, 531.0103930247299, 0.0]
['beep', 0.0, -1517.2140618817882, 0.0, 0.0, 0.0, 0.0, 533.3126227036265, 0.0]
['beep', 0.0, -1513.123692646467, 0.0, 0.0, 0.0, 0.0, 537.5371024056795, 0.0]
['beep', 0.0, -1511.603774023506, 0.0, 0.0, 0.0, 0.0, 538.9899657952745, 0.0]
['beep', 0.0, -1513.9730589357687, 0.0, 0.0, 0.0, 0.0, 534.5419686486684, 0.0]
['beep', 0.0, -1517.1693583928775, 0.0, 0.0, 0.0, 0.0, 531.1668552359171, 0.0]
['beep', 0.0, -1517.7728554931707, 0.0, 0.0, 0.0, 0.0, 534.6313756264897, 0.0]
['beep', 0.0, -1513.5930792800284, 0.0, 0.0, 0.0, 0.0, 538.5652826506237, 0.0]
['beep', 0.0, -1511.089683901034, 0.0, 0.0, 0.0, 0.0, 539.8616838290314, 0.0]
['beep', 0.0, -1513.4589688132965, 0.0, 0.0, 0.0, 0.0, 535.3242797046041, 0.0]
['beep', 0.0, -1517.482282815252, 0.0, 0.0, 0.0, 0.0, 529.9375092908751, 0.0]
['beep', 0.0, -1517.1023031595116, 0.0, 0.0, 0.0, 0.0, 530.9209860469086, 0.0]
['beep', 0.0, -1514.0177624246792, 0.0, 0.0, 0.0, 0.0, 536.911253560931, 0.0]
['beep', 0.0, -1510.799111223115, 0.0, 0.0, 0.0, 0.0, 536.8665500720203, 0.0]
['beep', 0.0, -1512.8107682240927, 0.0, 0.0, 0.0, 0.0, 531.3233174471042, 0.0]
['beep', 0.0, -1517.5269863041624, 0.0, 0.0, 0.0, 0.0, 530.2504337132494, 0.0]
['beep', 0.0, -1517.3258206040646, 0.0, 0.0, 0.0, 0.0, 532.7091256033332, 0.0]
['beep', 0.0, -1512.1402158904334, 0.0, 0.0, 0.0, 0.0, 538.520579161713, 0.0]
['beep', 0.0, -1510.1732623783664, 0.0, 0.0, 0.0, 0.0, 539.2581867287382, 0.0]
['beep', 0.0, -1512.7884164796374, 0.0, 0.0, 0.0, 0.0, 533.8043610816433, 0.0]
['beep', 0.0, -1516.7223235037713, 0.0, 0.0, 0.0, 0.0, 530.7421720912662, 0.0]
['beep', 0.0, -1517.7281520042602, 0.0, 0.0, 0.0, 0.0, 532.5079599032355, 0.0]
['beep', 0.0, -1512.9448786908245, 0.0, 0.0, 0.0, 0.0, 536.3524599495482, 0.0]
['beep', 0.0, -1510.9332216898467, 0.0, 0.0, 0.0, 0.0, 539.0346692841852, 0.0]
['beep', 0.0, -1512.4531403128076, 0.0, 0.0, 0.0, 0.0, 535.1231140045064, 0.0]
['beep', 0.0, -1516.2752886146652, 0.0, 0.0, 0.0, 0.0, 530.3845441799813, 0.0]
['beep', 0.0, -1516.699971759316, 0.0, 0.0, 0.0, 0.0, 531.3903726804701, 0.0]
['beep', 0.0, -1513.1013409020115, 0.0, 0.0, 0.0, 0.0, 537.2912332166711, 0.0]
['beep', 0.0, -1511.2237943677658, 0.0, 0.0, 0.0, 0.0, 539.3028902176488, 0.0]
['beep', 0.0, -1512.6543060129054, 0.0, 0.0, 0.0, 0.0, 533.5137884037243, 0.0]
['beep', 0.0, -1516.7223235037713, 0.0, 0.0, 0.0, 0.0, 529.7586953352327, 0.0]
['beep', 0.0, -1516.6329165259501, 0.0, 0.0, 0.0, 0.0, 532.2173872253164, 0.0]
['beep', 0.0, -1512.6990095018161, 0.0, 0.0, 0.0, 0.0, 536.4642186718248, 0.0]
['beep', 0.0, -1510.7320559897491, 0.0, 0.0, 0.0, 0.0, 539.0570210286404, 0.0]
['beep', 0.0, -1513.9060037024026, 0.0, 0.0, 0.0, 0.0, 533.491436659269, 0.0]
['beep', 0.0, -1517.638745026439, 0.0, 0.0, 0.0, 0.0, 532.10562850304, 0.0]
['beep', 0.0, -1518.7116287602937, 0.0, 0.0, 0.0, 0.0, 533.1561604924393, 0.0]
['beep', 0.0, -1514.6436112694278, 0.0, 0.0, 0.0, 0.0, 536.3748116940036, 0.0]
['beep', 0.0, -1511.6931810013273, 0.0, 0.0, 0.0, 0.0, 538.1629512504281, 0.0]
['beep', 0.0, -1514.5989077805173, 0.0, 0.0, 0.0, 0.0, 536.2183494828164, 0.0]
['beep', 0.0, -1519.2257188827657, 0.0, 0.0, 0.0, 0.0, 531.5468348916572, 0.0]
['beep', 0.0, -1517.929317704358, 0.0, 0.0, 0.0, 0.0, 532.4856081587801, 0.0]
['beep', 0.0, -1513.637782768939, 0.0, 0.0, 0.0, 0.0, 535.9501285493527, 0.0]
['beep', 0.0, -1511.5814222790507, 0.0, 0.0, 0.0, 0.0, 536.4865704162801, 0.0]
['beep', 0.0, -1512.6990095018161, 0.0, 0.0, 0.0, 0.0, 533.1785122368947, 0.0]
['beep', 0.0, -1514.9565356918022, 0.0, 0.0, 0.0, 0.0, 528.5740528791014, 0.0]
['beep', 0.0, -1516.029419425657, 0.0, 0.0, 0.0, 0.0, 531.457427913836, 0.0]
['beep', 0.0, -1511.5143670456848, 0.0, 0.0, 0.0, 0.0, 538.9676140508192, 0.0]
['beep', 0.0, -1508.7203989887714, 0.0, 0.0, 0.0, 0.0, 538.878207072998, 0.0]
['beep', 0.0, -1512.5648990350842, 0.0, 0.0, 0.0, 0.0, 533.7373058482774, 0.0]
['beep', 0.0, -1516.6552682704055, 0.0, 0.0, 0.0, 0.0, 528.037611012174, 0.0]
['beep', 0.0, -1517.6610967708943, 0.0, 0.0, 0.0, 0.0, 530.943337791364, 0.0]
['beep', 0.0, -1514.1518728914111, 0.0, 0.0, 0.0, 0.0, 537.1794744943946, 0.0]
['beep', 0.0, -1511.5814222790507, 0.0, 0.0, 0.0, 0.0, 539.0793727730958, 0.0]
['beep', 0.0, -1512.9672304352798, 0.0, 0.0, 0.0, 0.0, 536.6430326274673, 0.0]
['beep', 0.0, -1517.057599670601, 0.0, 0.0, 0.0, 0.0, 531.8150558251209, 0.0]
['beep', 0.0, -1516.7223235037713, 0.0, 0.0, 0.0, 0.0, 531.5021314027466, 0.0]
['beep', 0.0, -1513.2130996242881, 0.0, 0.0, 0.0, 0.0, 537.5371024056795, 0.0]
['beep', 0.0, -1510.6873525008384, 0.0, 0.0, 0.0, 0.0, 538.6993931173555, 0.0]
['beep', 0.0, -1511.8496432125144, 0.0, 0.0, 0.0, 0.0, 533.8267128260986, 0.0]
['beep', 0.0, -1516.834082226048, 0.0, 0.0, 0.0, 0.0, 530.5410063911685, 0.0]
['beep', 0.0, -1516.990544437235, 0.0, 0.0, 0.0, 0.0, 530.2727854577048, 0.0]
['beep', 0.0, -1513.2130996242881, 0.0, 0.0, 0.0, 0.0, 536.3524599495482, 0.0]
['beep', 0.0, -1510.7320559897491, 0.0, 0.0, 0.0, 0.0, 537.782971594688, 0.0]
['beep', 0.0, -1513.8389484690367, 0.0, 0.0, 0.0, 0.0, 533.9608232928305, 0.0]
['beep', 0.0, -1517.9516694488132, 0.0, 0.0, 0.0, 0.0, 529.2669569572159, 0.0]
['beep', 0.0, -1517.3928758374307, 0.0, 0.0, 0.0, 0.0, 531.8150558251209, 0.0]
['beep', 0.0, -1513.8836519579474, 0.0, 0.0, 0.0, 0.0, 536.911253560931, 0.0]
['beep', 0.0, -1510.6873525008384, 0.0, 0.0, 0.0, 0.0, 539.2581867287382, 0.0]
['beep', 0.0, -1514.6212595249724, 0.0, 0.0, 0.0, 0.0, 533.4020296814477, 0.0]
['beep', 0.0, -1518.6222217824725, 0.0, 0.0, 0.0, 0.0, 529.4234191684031, 0.0]
['beep', 0.0, -1518.801035738115, 0.0, 0.0, 0.0, 0.0, 531.6585936139338, 0.0]
['beep', 0.0, -1514.7553699917044, 0.0, 0.0, 0.0, 0.0, 536.8218465831097, 0.0]
['beep', 0.0, -1511.3579048344977, 0.0, 0.0, 0.0, 0.0, 539.0570210286404, 0.0]
['beep', 0.0, -1513.0789891575564, 0.0, 0.0, 0.0, 0.0, 535.1231140045064, 0.0]
['beep', 0.0, -1517.5940415375283, 0.0, 0.0, 0.0, 0.0, 531.1221517470065, 0.0]
['beep', 0.0, -1518.2198903822768, 0.0, 0.0, 0.0, 0.0, 531.9938697807634, 0.0]
['beep', 0.0, -1515.023590925168, 0.0, 0.0, 0.0, 0.0, 536.263052971727, 0.0]
['beep', 0.0, -1511.6931810013273, 0.0, 0.0, 0.0, 0.0, 538.7664483507215, 0.0]
['beep', 0.0, -1513.6154310244838, 0.0, 0.0, 0.0, 0.0, 535.1231140045064, 0.0]
['beep', 0.0, -1517.6163932819836, 0.0, 0.0, 0.0, 0.0, 530.4739511578025, 0.0]
['beep', 0.0, -1516.5211578036735, 0.0, 0.0, 0.0, 0.0, 533.8043610816433, 0.0]
['beep', 0.0, -1511.9166984458802, 0.0, 0.0, 0.0, 0.0, 536.7771430941991, 0.0]
['beep', 0.0, -1506.217003609777, 0.0, 0.0, 0.0, 0.0, 538.6546896284449, 0.0]
['beep', 0.0, -1507.2675355991764, 0.0, 0.0, 0.0, 0.0, 536.2854047161824, 0.0]
['beep', 0.0, -1512.8554717130032, 0.0, 0.0, 0.0, 0.0, 531.9715180363081, 0.0]
['beep', 0.0, -1514.44244556933, 0.0, 0.0, 0.0, 0.0, 533.4020296814477, 0.0]
['beep', 0.0, -1512.1625676348888, 0.0, 0.0, 0.0, 0.0, 537.715916361322, 0.0]
['beep', 0.0, -1511.4026083234082, 0.0, 0.0, 0.0, 0.0, 539.4370006843807, 0.0]
['beep', 0.0, -1514.6883147583385, 0.0, 0.0, 0.0, 0.0, 536.3524599495482, 0.0]
['beep', 0.0, -1518.1081316600005, 0.0, 0.0, 0.0, 0.0, 531.9044628029421, 0.0]
['beep', 0.0, -1517.638745026439, 0.0, 0.0, 0.0, 0.0, 531.7703523362103, 0.0]
['beep', 0.0, -1514.1965763803216, 0.0, 0.0, 0.0, 0.0, 538.1853029948835, 0.0]
['beep', 0.0, -1510.9108699453916, 0.0, 0.0, 0.0, 0.0, 538.6323378839896, 0.0]
['beep', 0.0, -1511.8719949569697, 0.0, 0.0, 0.0, 0.0, 533.3796779369924, 0.0]
['beep', 0.0, -1514.8224252250702, 0.0, 0.0, 0.0, 0.0, 530.6304133689897, 0.0]
['beep', 0.0, -1515.828253725559, 0.0, 0.0, 0.0, 0.0, 530.4515994133473, 0.0]
['beep', 0.0, -1512.5201955461737, 0.0, 0.0, 0.0, 0.0, 536.1736459939058, 0.0]
['beep', 0.0, -1510.217965867277, 0.0, 0.0, 0.0, 0.0, 539.4593524288359, 0.0]
['beep', 0.0, -1512.3413815905312, 0.0, 0.0, 0.0, 0.0, 534.6760791154003, 0.0]
['beep', 0.0, -1518.1975386378217, 0.0, 0.0, 0.0, 0.0, 528.6411081124674, 0.0]
['beep', 0.0, -1517.5940415375283, 0.0, 0.0, 0.0, 0.0, 530.0045645242411, 0.0]
['beep', 0.0, -1513.637782768939, 0.0, 0.0, 0.0, 0.0, 537.4923989167689, 0.0]
['beep', 0.0, -1510.955573434302, 0.0, 0.0, 0.0, 0.0, 539.8616838290314, 0.0]
['beep', 0.0, -1516.2529368702099, 0.0, 0.0, 0.0, 0.0, 530.4068959244366, 0.0]
['beep', 0.0, -1516.3870473369418, 0.0, 0.0, 0.0, 0.0, 532.0609250141293, 0.0]
['beep', 0.0, -1513.570727535573, 0.0, 0.0, 0.0, 0.0, 537.0900675165734, 0.0]
['beep', 0.0, -1510.2403176117323, 0.0, 0.0, 0.0, 0.0, 538.4982274172578, 0.0]
['beep', 0.0, -1511.9837536792463, 0.0, 0.0, 0.0, 0.0, 535.458390171336, 0.0]
['beep', 0.0, -1516.476454314763, 0.0, 0.0, 0.0, 0.0, 531.5021314027466, 0.0]
['beep', 0.0, -1517.3928758374307, 0.0, 0.0, 0.0, 0.0, 532.619718625512, 0.0]
['beep', 0.0, -1513.2354513687435, 0.0, 0.0, 0.0, 0.0, 536.8665500720203, 0.0]
['beep', 0.0, -1511.5367187901402, 0.0, 0.0, 0.0, 0.0, 539.0346692841852, 0.0]
['beep', 0.0, -1512.3637333349864, 0.0, 0.0, 0.0, 0.0, 533.6478988704562, 0.0]
['beep', 0.0, -1516.476454314763, 0.0, 0.0, 0.0, 0.0, 529.7363435907774, 0.0]
['beep', 0.0, -1516.8117304815926, 0.0, 0.0, 0.0, 0.0, 531.0327447691852, 0.0]
['beep', 0.0, -1513.2578031131989, 0.0, 0.0, 0.0, 0.0, 538.1629512504281, 0.0]
['beep', 0.0, -1511.1567391344, 0.0, 0.0, 0.0, 0.0, 538.2523582282494, 0.0]
['beep', 0.0, -1513.1907478798328, 0.0, 0.0, 0.0, 0.0, 533.6702506149114, 0.0]
['beep', 0.0, -1535.3636783794975, 0.0, 0.0, 0.0, 0.0, 684.2092495214044, 0.0]
['beep', 0.0, -1534.760181279204, 0.0, 0.0, 0.0, 0.0, 688.8137088791977, 0.0]
['beep', 0.0, -1531.1391986774445, 0.0, 0.0, 0.0, 0.0, 691.9206013584854, 0.0]
['beep', 0.0, -1531.2286056552657, 0.0, 0.0, 0.0, 0.0, 691.4065112360133, 0.0]
['beep', 0.0, -1534.7154777902936, 0.0, 0.0, 0.0, 0.0, 686.3997204780246, 0.0]
['beep', 0.0, -1536.861245258003, 0.0, 0.0, 0.0, 0.0, 684.7233396438766, 0.0]
['beep', 0.0, -1536.1683411798886, 0.0, 0.0, 0.0, 0.0, 688.0984530566279, 0.0]
['beep', 0.0, -1532.0779719445673, 0.0, 0.0, 0.0, 0.0, 691.2500490248262, 0.0]
['beep', 0.0, -1529.7086870323049, 0.0, 0.0, 0.0, 0.0, 691.1829937914603, 0.0]
['beep', 0.0, -1535.2072161683102, 0.0, 0.0, 0.0, 0.0, 685.3044849997145, 0.0]
['beep', 0.0, -1538.7834952811595, 0.0, 0.0, 0.0, 0.0, 682.5999239206224, 0.0]
['beep', 0.0, -1536.213044668799, 0.0, 0.0, 0.0, 0.0, 688.0984530566279, 0.0]
['beep', 0.0, -1530.2898323881427, 0.0, 0.0, 0.0, 0.0, 693.2617060258038, 0.0]
['beep', 0.0, -1531.4521230998187, 0.0, 0.0, 0.0, 0.0, 691.1159385580944, 0.0]
['beep', 0.0, -1537.151817935922, 0.0, 0.0, 0.0, 0.0, 684.8798018550638, 0.0]
['beep', 0.0, -1538.7834952811595, 0.0, 0.0, 0.0, 0.0, 684.097490799128, 0.0]
['beep', 0.0, -1534.2237394122767, 0.0, 0.0, 0.0, 0.0, 690.355979246614, 0.0]
['beep', 0.0, -1530.7592190217042, 0.0, 0.0, 0.0, 0.0, 691.9876565918513, 0.0]
['beep', 0.0, -1533.8214080120813, 0.0, 0.0, 0.0, 0.0, 689.1713367904827, 0.0]
['beep', 0.0, -1537.9341289918577, 0.0, 0.0, 0.0, 0.0, 686.4891274558458, 0.0]
['beep', 0.0, -1539.3199371480869, 0.0, 0.0, 0.0, 0.0, 687.2267350228709, 0.0]
['beep', 0.0, -1535.0954574460338, 0.0, 0.0, 0.0, 0.0, 691.8088426362089, 0.0]
['beep', 0.0, -1531.6532887999165, 0.0, 0.0, 0.0, 0.0, 695.5862874491557, 0.0]
['beep', 0.0, -1531.6756405443718, 0.0, 0.0, 0.0, 0.0, 695.2286595378708, 0.0]
['beep', 0.0, -1534.7154777902936, 0.0, 0.0, 0.0, 0.0, 690.6912554134435, 0.0]
['beep', 0.0, -1538.0011842252236, 0.0, 0.0, 0.0, 0.0, 688.6572466680107, 0.0]
['beep', 0.0, -1538.3364603920534, 0.0, 0.0, 0.0, 0.0, 692.1888222919491, 0.0]
['beep', 0.0, -1535.1625126793997, 0.0, 0.0, 0.0, 0.0, 696.0556740827172, 0.0]
['beep', 0.0, -1533.3520213785198, 0.0, 0.0, 0.0, 0.0, 697.3297235166698, 0.0]
['beep', 0.0, -1535.6318993129612, 0.0, 0.0, 0.0, 0.0, 691.7641391472982, 0.0]
['beep', 0.0, -1539.476399359274, 0.0, 0.0, 0.0, 0.0, 687.9866943343513, 0.0]
['beep', 0.0, -1537.151817935922, 0.0, 0.0, 0.0, 0.0, 692.9040781145189, 0.0]
['beep', 0.0, -1533.4637801007964, 0.0, 0.0, 0.0, 0.0, 697.9779241058736, 0.0]
['beep', 0.0, -1535.184864423855, 0.0, 0.0, 0.0, 0.0, 695.7203979158876, 0.0]
['beep', 0.0, -1539.4540476148186, 0.0, 0.0, 0.0, 0.0, 690.6689036689883, 0.0]
['beep', 0.0, -1540.7728005376819, 0.0, 0.0, 0.0, 0.0, 687.7631768897983, 0.0]
['beep', 0.0, -1538.4035156254192, 0.0, 0.0, 0.0, 0.0, 692.9040781145189, 0.0]
['beep', 0.0, -1535.92247199088, 0.0, 0.0, 0.0, 0.0, 695.8768601270748, 0.0]
['beep', 0.0, -1536.0342307131566, 0.0, 0.0, 0.0, 0.0, 694.6475141820329, 0.0]
['beep', 0.0, -1538.8058470256146, 0.0, 0.0, 0.0, 0.0, 691.4065112360133, 0.0]
['beep', 0.0, -1540.9516144933243, 0.0, 0.0, 0.0, 0.0, 688.321970501181, 0.0]
['beep', 0.0, -1539.6105098260057, 0.0, 0.0, 0.0, 0.0, 691.8535461251195, 0.0]
['beep', 0.0, -1535.6542510574163, 0.0, 0.0, 0.0, 0.0, 697.6649996834993, 0.0]
['beep', 0.0, -1535.766009779693, 0.0, 0.0, 0.0, 0.0, 697.128557816572, 0.0]
['beep', 0.0, -1539.7222685482823, 0.0, 0.0, 0.0, 0.0, 690.8253658801754, 0.0]
['beep', 0.0, -1542.4268296273744, 0.0, 0.0, 0.0, 0.0, 689.1713367904827, 0.0]
['beep', 0.0, -1541.0186697266902, 0.0, 0.0, 0.0, 0.0, 693.3064095147145, 0.0]
['beep', 0.0, -1536.4142103688969, 0.0, 0.0, 0.0, 0.0, 697.1509095610273, 0.0]
['beep', 0.0, -1536.280099902165, 0.0, 0.0, 0.0, 0.0, 697.2403165388486, 0.0]
['beep', 0.0, -1538.3811638809639, 0.0, 0.0, 0.0, 0.0, 692.3899879920468, 0.0]
['beep', 0.0, -1542.091553460545, 0.0, 0.0, 0.0, 0.0, 691.6300286805664, 0.0]
['beep', 0.0, -1540.5269313486733, 0.0, 0.0, 0.0, 0.0, 693.1499473035274, 0.0]
['beep', 0.0, -1539.0293644701678, 0.0, 0.0, 0.0, 0.0, 697.3967787500357, 0.0]
['beep', 0.0, -1538.4929226032405, 0.0, 0.0, 0.0, 0.0, 696.5027089718234, 0.0]
['beep', 0.0, -1542.1586086939108, 0.0, 0.0, 0.0, 0.0, 691.093586813639, 0.0]
['beep', 0.0, -1544.7067075618158, 0.0, 0.0, 0.0, 0.0, 689.126633301572, 0.0]
['beep', 0.0, -1543.5891203390504, 0.0, 0.0, 0.0, 0.0, 692.6582089255106, 0.0]
['beep', 0.0, -1540.281062159665, 0.0, 0.0, 0.0, 0.0, 695.0498455822284, 0.0]
['beep', 0.0, -1539.2975854036315, 0.0, 0.0, 0.0, 0.0, 694.6698659264882, 0.0]
['beep', 0.0, -1543.2985476611314, 0.0, 0.0, 0.0, 0.0, 690.3112757577034, 0.0]
['beep', 0.0, -1548.0594692301117, 0.0, 0.0, 0.0, 0.0, 686.3773687335693, 0.0]
['beep', 0.0, -1545.7572395512152, 0.0, 0.0, 0.0, 0.0, 689.5066129573123, 0.0]
['beep', 0.0, -1540.8398557710477, 0.0, 0.0, 0.0, 0.0, 695.4968804713345, 0.0]
['beep', 0.0, -1540.7280970487711, 0.0, 0.0, 0.0, 0.0, 694.0887205706503, 0.0]
['beep', 0.0, -1546.7407163072487, 0.0, 0.0, 0.0, 0.0, 688.6125431790999, 0.0]
['beep', 0.0, -1549.892312275447, 0.0, 0.0, 0.0, 0.0, 686.064444311195, 0.0]
['beep', 0.0, -1546.4277918848745, 0.0, 0.0, 0.0, 0.0, 689.5736681906782, 0.0]
['beep', 0.0, -1540.8398557710477, 0.0, 0.0, 0.0, 0.0, 693.7310926593653, 0.0]
['beep', 0.0, -1542.6503470719276, 0.0, 0.0, 0.0, 0.0, 693.1052438146168, 0.0]
['beep', 0.0, -1546.8077715406146, 0.0, 0.0, 0.0, 0.0, 688.4784327123681, 0.0]
['beep', 0.0, -1550.540512864651, 0.0, 0.0, 0.0, 0.0, 686.7573483893095, 0.0]
['beep', 0.0, -1548.0371174856566, 0.0, 0.0, 0.0, 0.0, 691.3841594915581, 0.0]
['beep', 0.0, -1542.6503470719276, 0.0, 0.0, 0.0, 0.0, 696.6815229274658, 0.0]
['beep', 0.0, -1541.5104081047068, 0.0, 0.0, 0.0, 0.0, 695.3180665156921, 0.0]
['beep', 0.0, -1545.2207976842878, 0.0, 0.0, 0.0, 0.0, 690.4230344799798, 0.0]
['beep', 0.0, -1546.2042744403213, 0.0, 0.0, 0.0, 0.0, 688.7019501569213, 0.0]
['beep', 0.0, -1544.4608383728075, 0.0, 0.0, 0.0, 0.0, 692.2782292697703, 0.0]
['beep', 0.0, -1541.0633732156007, 0.0, 0.0, 0.0, 0.0, 695.8768601270748, 0.0]
['beep', 0.0, -1540.8398557710477, 0.0, 0.0, 0.0, 0.0, 694.5581072042116, 0.0]
['beep', 0.0, -1545.5784255955728, 0.0, 0.0, 0.0, 0.0, 689.2607437683039, 0.0]
['beep', 0.0, -1549.4452773863409, 0.0, 0.0, 0.0, 0.0, 685.773871633276, 0.0]
['beep', 0.0, -1548.864132030503, 0.0, 0.0, 0.0, 0.0, 689.9089443575078, 0.0]
['beep', 0.0, -1543.857341272514, 0.0, 0.0, 0.0, 0.0, 694.1781275484715, 0.0]
['beep', 0.0, -1541.6892220603493, 0.0, 0.0, 0.0, 0.0, 694.6475141820329, 0.0]
['beep', 0.0, -1544.1032104615224, 0.0, 0.0, 0.0, 0.0, 687.6290664230664, 0.0]
['beep', 0.0, -1546.6736610738828, 0.0, 0.0, 0.0, 0.0, 685.483298955357, 0.0]
['beep', 0.0, -1545.2207976842878, 0.0, 0.0, 0.0, 0.0, 689.70777865741, 0.0]
['beep', 0.0, -1542.4491813718298, 0.0, 0.0, 0.0, 0.0, 694.1110723151055, 0.0]
['beep', 0.0, -1541.4657046157963, 0.0, 0.0, 0.0, 0.0, 693.6193339370888, 0.0]
['beep', 0.0, -1546.1148674625001, 0.0, 0.0, 0.0, 0.0, 688.8584123681084, 0.0]
['beep', 0.0, -1549.1323529639667, 0.0, 0.0, 0.0, 0.0, 685.1703745329827, 0.0]
['beep', 0.0, -1548.9311872638689, 0.0, 0.0, 0.0, 0.0, 688.3443222456362, 0.0]
['beep', 0.0, -1546.3830883959638, 0.0, 0.0, 0.0, 0.0, 694.2004792929267, 0.0]
['beep', 0.0, -1543.4326581278633, 0.0, 0.0, 0.0, 0.0, 694.6028106931223, 0.0]
['beep', 0.0, -1544.0808587170673, 0.0, 0.0, 0.0, 0.0, 689.6854269129548, 0.0]
['beep', 0.0, -1546.4501436293297, 0.0, 0.0, 0.0, 0.0, 686.2656100112928, 0.0]
['beep', 0.0, -1546.2042744403213, 0.0, 0.0, 0.0, 0.0, 689.1713367904827, 0.0]
['beep', 0.0, -1542.6503470719276, 0.0, 0.0, 0.0, 0.0, 694.8263281376753, 0.0]
['beep', 0.0, -1543.3656028944974, 0.0, 0.0, 0.0, 0.0, 693.7534444038206, 0.0]
['beep', 0.0, -1547.5900825965505, 0.0, 0.0, 0.0, 0.0, 688.2325635233598, 0.0]
['beep', 0.0, -1549.6240913419833, 0.0, 0.0, 0.0, 0.0, 686.3773687335693, 0.0]
['beep', 0.0, -1547.4336203853632, 0.0, 0.0, 0.0, 0.0, 690.1771652909715, 0.0]
['beep', 0.0, -1543.566768594595, 0.0, 0.0, 0.0, 0.0, 696.0109705938066, 0.0]
['beep', 0.0, -1543.0303267276677, 0.0, 0.0, 0.0, 0.0, 692.7923193922425, 0.0]
['beep', 0.0, -1547.4336203853632, 0.0, 0.0, 0.0, 0.0, 689.6407234240442, 0.0]
['beep', 0.0, -1549.8029052976258, 0.0, 0.0, 0.0, 0.0, 687.2043832784157, 0.0]
['beep', 0.0, -1549.5123326197067, 0.0, 0.0, 0.0, 0.0, 689.774833890776, 0.0]
['beep', 0.0, -1547.344213407542, 0.0, 0.0, 0.0, 0.0, 695.0051420933178, 0.0]
['beep', 0.0, -1543.857341272514, 0.0, 0.0, 0.0, 0.0, 696.1674328049937, 0.0]
['beep', 0.0, -1541.5327598491622, 0.0, 0.0, 0.0, 0.0, 691.8758978695748, 0.0]
['beep', 0.0, -1543.410306383408, 0.0, 0.0, 0.0, 0.0, 687.7855286342536, 0.0]
['beep', 0.0, -1543.5891203390504, 0.0, 0.0, 0.0, 0.0, 691.1382903025496, 0.0]
['beep', 0.0, -1541.6221668269834, 0.0, 0.0, 0.0, 0.0, 696.5697642051892, 0.0]
['beep', 0.0, -1540.5269313486733, 0.0, 0.0, 0.0, 0.0, 698.0226275947842, 0.0]
['beep', 0.0, -1543.7679342946929, 0.0, 0.0, 0.0, 0.0, 691.7194356583876, 0.0]
['beep', 0.0, -1546.0925157180448, 0.0, 0.0, 0.0, 0.0, 689.1713367904827, 0.0]
['beep', 0.0, -1543.0973819610338, 0.0, 0.0, 0.0, 0.0, 694.8263281376753, 0.0]
['beep', 0.0, -1537.8447220140365, 0.0, 0.0, 0.0, 0.0, 697.7320549168653, 0.0]
['beep', 0.0, -1537.151817935922, 0.0, 0.0, 0.0, 0.0, 695.0051420933178, 0.0]
['beep', 0.0, -1543.119733705489, 0.0, 0.0, 0.0, 0.0, 691.1829937914603, 0.0]
['beep', 0.0, -1545.8913500179472, 0.0, 0.0, 0.0, 0.0, 690.9594763469072, 0.0]
['beep', 0.0, -1545.9360535068577, 0.0, 0.0, 0.0, 0.0, 692.0323600807619, 0.0]
['beep', 0.0, -1542.2927191606427, 0.0, 0.0, 0.0, 0.0, 695.2063077934156, 0.0]
['beep', 0.0, -1535.0284022126677, 0.0, 0.0, 0.0, 0.0, 697.1732613054826, 0.0]
['beep', 0.0, -1536.7271347912713, 0.0, 0.0, 0.0, 0.0, 690.870069369086, 0.0]
['beep', 0.0, -1544.997280239735, 0.0, 0.0, 0.0, 0.0, 686.5785344336671, 0.0]
['beep', 0.0, -1545.2431494287432, 0.0, 0.0, 0.0, 0.0, 690.937124602452, 0.0]
['beep', 0.0, -1541.7562772937154, 0.0, 0.0, 0.0, 0.0, 697.9555723614184, 0.0]
['beep', 0.0, -1538.8505505145254, 0.0, 0.0, 0.0, 0.0, 698.000275850329, 0.0]
['beep', 0.0, -1539.6105098260057, 0.0, 0.0, 0.0, 0.0, 691.674732169477, 0.0]
['beep', 0.0, -1543.3208994055867, 0.0, 0.0, 0.0, 0.0, 688.2996187567256, 0.0]
['beep', 0.0, -1543.2538441722209, 0.0, 0.0, 0.0, 0.0, 693.0828920701614, 0.0]
['beep', 0.0, -1537.8223702695811, 0.0, 0.0, 0.0, 0.0, 699.2966770287368, 0.0]
['beep', 0.0, -1534.9613469793019, 0.0, 0.0, 0.0, 0.0, 697.9108688725078, 0.0]
['beep', 0.0, -1536.9730039802796, 0.0, 0.0, 0.0, 0.0, 693.9769618483737, 0.0]
['beep', 0.0, -1539.342288892542, 0.0, 0.0, 0.0, 0.0, 692.4346914809574, 0.0]
['beep', 0.0, -1537.7106115473048, 0.0, 0.0, 0.0, 0.0, 695.161604304505, 0.0]
['beep', 0.0, -1535.050753957123, 0.0, 0.0, 0.0, 0.0, 699.0284560952731, 0.0]
['beep', 0.0, -1535.0060504682126, 0.0, 0.0, 0.0, 0.0, 698.0896828281502, 0.0]
['beep', 0.0, -1537.8447220140365, 0.0, 0.0, 0.0, 0.0, 692.255877525315, 0.0]
['beep', 0.0, -1540.862207515503, 0.0, 0.0, 0.0, 0.0, 689.5289647017676, 0.0]
['beep', 0.0, -1540.0128412262013, 0.0, 0.0, 0.0, 0.0, 692.8370228811531, 0.0]
['beep', 0.0, -1537.5988528250282, 0.0, 0.0, 0.0, 0.0, 697.0167990942955, 0.0]
['beep', 0.0, -1535.92247199088, 0.0, 0.0, 0.0, 0.0, 698.3355520171585, 0.0]
['beep', 0.0, -1537.4870941027516, 0.0, 0.0, 0.0, 0.0, 692.9040781145189, 0.0]
['beep', 0.0, -1542.7174023052935, 0.0, 0.0, 0.0, 0.0, 689.484261212857, 0.0]
['beep', 0.0, -1544.3043761616202, 0.0, 0.0, 0.0, 0.0, 692.1888222919491, 0.0]
['beep', 0.0, -1539.632861570461, 0.0, 0.0, 0.0, 0.0, 697.2850200277592, 0.0]
['beep', 0.0, -1539.5881580815505, 0.0, 0.0, 0.0, 0.0, 697.70970317241, 0.0]
['beep', 0.0, -1541.2868906601539, 0.0, 0.0, 0.0, 0.0, 692.0547118252173, 0.0]
['beep', 0.0, -1538.8505505145254, 0.0, 0.0, 0.0, 0.0, 691.7864908917536, 0.0]
['beep', 0.0, -1537.1741696803774, 0.0, 0.0, 0.0, 0.0, 694.4910519708458, 0.0]
['beep', 0.0, -1537.0847627025562, 0.0, 0.0, 0.0, 0.0, 698.9614008619071, 0.0]
['beep', 0.0, -1536.1459894354332, 0.0, 0.0, 0.0, 0.0, 698.9166973729965, 0.0]
['beep', 0.0, -1538.962309236802, 0.0, 0.0, 0.0, 0.0, 695.0721973266837, 0.0]
['beep', 0.0, -1540.5045796042182, 0.0, 0.0, 0.0, 0.0, 692.3005810142256, 0.0]
['beep', 0.0, -1539.2752336591761, 0.0, 0.0, 0.0, 0.0, 694.8710316265859, 0.0]
['beep', 0.0, -1532.927338233869, 0.0, 0.0, 0.0, 0.0, 701.5765549631781, 0.0]
['beep', 0.0, -1529.5969283100283, 0.0, 0.0, 0.0, 0.0, 699.5648979622005, 0.0]
['beep', 0.0, -1534.9166434903914, 0.0, 0.0, 0.0, 0.0, 694.5581072042116, 0.0]
['beep', 0.0, -1539.990489481746, 0.0, 0.0, 0.0, 0.0, 691.4065112360133, 0.0]
['beep', 0.0, -1539.6552133149164, 0.0, 0.0, 0.0, 0.0, 695.8768601270748, 0.0]
['beep', 0.0, -1535.4307336128634, 0.0, 0.0, 0.0, 0.0, 699.3413805176474, 0.0]
['beep', 0.0, -1532.1450271779331, 0.0, 0.0, 0.0, 0.0, 700.0342845957618, 0.0]
['beep', 0.0, -1533.9778702232684, 0.0, 0.0, 0.0, 0.0, 694.9380868599519, 0.0]
['beep', 0.0, -1539.2975854036315, 0.0, 0.0, 0.0, 0.0, 692.9040781145189, 0.0]
['beep', 0.0, -1542.0021464827237, 0.0, 0.0, 0.0, 0.0, 695.6086391936111, 0.0]
['beep', 0.0, -1537.956480736313, 0.0, 0.0, 0.0, 0.0, 702.1800520634714, 0.0]
['beep', 0.0, -1532.63676555595, 0.0, 0.0, 0.0, 0.0, 702.4706247413903, 0.0]
['beep', 0.0, -1533.575538823073, 0.0, 0.0, 0.0, 0.0, 696.3238950161809, 0.0]
['beep', 0.0, -1539.0740679590783, 0.0, 0.0, 0.0, 0.0, 693.999313592829, 0.0]
['beep', 0.0, -1539.5434545926398, 0.0, 0.0, 0.0, 0.0, 697.0391508387507, 0.0]
['beep', 0.0, -1537.0847627025562, 0.0, 0.0, 0.0, 0.0, 701.7553689188205, 0.0]
['beep', 0.0, -1535.3189748905868, 0.0, 0.0, 0.0, 0.0, 702.2024038079267, 0.0]
['beep', 0.0, -1534.8272365125702, 0.0, 0.0, 0.0, 0.0, 697.6873514279547, 0.0]
['beep', 0.0, -1535.92247199088, 0.0, 0.0, 0.0, 0.0, 695.1169008155944, 0.0]
['beep', 0.0, -1535.564844079595, 0.0, 0.0, 0.0, 0.0, 698.4026072505245, 0.0]
['beep', 0.0, -1536.5259690911735, 0.0, 0.0, 0.0, 0.0, 703.4093980085132, 0.0]
['beep', 0.0, -1536.6153760689947, 0.0, 0.0, 0.0, 0.0, 701.1965753074379, 0.0]
['beep', 0.0, -1535.4307336128634, 0.0, 0.0, 0.0, 0.0, 695.7874531492536, 0.0]
['beep', 0.0, -1534.5590155791065, 0.0, 0.0, 0.0, 0.0, 692.5240984587787, 0.0]
['beep', 0.0, -1535.8554167575141, 0.0, 0.0, 0.0, 0.0, 695.7874531492536, 0.0]
['beep', 0.0, -1532.6814690448607, 0.0, 0.0, 0.0, 0.0, 699.8107671512088, 0.0]
['beep', 0.0, -1527.2723468866764, 0.0, 0.0, 0.0, 0.0, 701.0624648407061, 0.0]
['beep', 0.0, -1523.5172538181846, 0.0, 0.0, 0.0, 0.0, 698.3355520171585, 0.0]
['beep', 0.0, -1527.115884675489, 0.0, 0.0, 0.0, 0.0, 694.9604386044072, 0.0]
['beep', 0.0, -1531.2509573997208, 0.0, 0.0, 0.0, 0.0, 697.352075261125, 0.0]
['beep', 0.0, -1528.7252102762714, 0.0, 0.0, 0.0, 0.0, 702.2471072968373, 0.0]
['beep', 0.0, -1528.412285853897, 0.0, 0.0, 0.0, 0.0, 701.8000724077311, 0.0]
['beep', 0.0, -1533.0167452116902, 0.0, 0.0, 0.0, 0.0, 696.7262264163764, 0.0]
['beep', 0.0, -1537.5988528250282, 0.0, 0.0, 0.0, 0.0, 694.1557758040161, 0.0]
['beep', 0.0, -1536.1906929243437, 0.0, 0.0, 0.0, 0.0, 697.5755927056781, 0.0]
['beep', 0.0, -1529.8427974990366, 0.0, 0.0, 0.0, 0.0, 702.3588660191139, 0.0]
['beep', 0.0, -1528.4793410872628, 0.0, 0.0, 0.0, 0.0, 701.5318514742675, 0.0]
['beep', 0.0, -1531.0944951885338, 0.0, 0.0, 0.0, 0.0, 695.89921187153, 0.0]
['beep', 0.0, -1535.0284022126677, 0.0, 0.0, 0.0, 0.0, 693.0381885812508, 0.0]
['beep', 0.0, -1534.8272365125702, 0.0, 0.0, 0.0, 0.0, 697.1509095610273, 0.0]
['beep', 0.0, -1530.6251085549723, 0.0, 0.0, 0.0, 0.0, 703.610563708611, 0.0]
['beep', 0.0, -1530.4686463437852, 0.0, 0.0, 0.0, 0.0, 701.1965753074379, 0.0]
['beep', 0.0, -1531.474474844274, 0.0, 0.0, 0.0, 0.0, 695.385121749058, 0.0]
['beep', 0.0, -1532.3238411335756, 0.0, 0.0, 0.0, 0.0, 692.9264298589743, 0.0]
['beep', 0.0, -1531.474474844274, 0.0, 0.0, 0.0, 0.0, 696.7038746719212, 0.0]
['beep', 0.0, -1528.0993614315225, 0.0, 0.0, 0.0, 0.0, 702.4259212524797, 0.0]
['beep', 0.0, -1528.546396320629, 0.0, 0.0, 0.0, 0.0, 700.9730578628848, 0.0]
['beep', 0.0, -1532.2344341557543, 0.0, 0.0, 0.0, 0.0, 695.6086391936111, 0.0]
['beep', 0.0, -1536.5259690911735, 0.0, 0.0, 0.0, 0.0, 692.9264298589743, 0.0]
['beep', 0.0, -1535.0284022126677, 0.0, 0.0, 0.0, 0.0, 696.7262264163764, 0.0]
['beep', 0.0, -1527.7417335202376, 0.0, 0.0, 0.0, 0.0, 702.6047352081222, 0.0]
['beep', 0.0, -1526.5123875751958, 0.0, 0.0, 0.0, 0.0, 701.6883136854547, 0.0]
['beep', 0.0, -1532.2344341557543, 0.0, 0.0, 0.0, 0.0, 696.547412460734, 0.0]
['beep', 0.0, -1535.9671754797907, 0.0, 0.0, 0.0, 0.0, 694.3345897596586, 0.0]
['beep', 0.0, -1531.2956608886316, 0.0, 0.0, 0.0, 0.0, 698.80493865072, 0.0]
['beep', 0.0, -1526.0653526860897, 0.0, 0.0, 0.0, 0.0, 704.1023020866278, 0.0]
['beep', 0.0, -1528.8816724874584, 0.0, 0.0, 0.0, 0.0, 703.8787846420747, 0.0]
['beep', 0.0, -1534.2684429011874, 0.0, 0.0, 0.0, 0.0, 698.80493865072, 0.0]
['beep', 0.0, -1536.9506522358242, 0.0, 0.0, 0.0, 0.0, 696.5027089718234, 0.0]
['beep', 0.0, -1533.8661115009918, 0.0, 0.0, 0.0, 0.0, 700.2578020403149, 0.0]
['beep', 0.0, -1528.278175387165, 0.0, 0.0, 0.0, 0.0, 704.9293166314742, 0.0]
['beep', 0.0, -1526.378277108464, 0.0, 0.0, 0.0, 0.0, 705.1081305871166, 0.0]
['beep', 0.0, -1531.474474844274, 0.0, 0.0, 0.0, 0.0, 699.3637322621026, 0.0]
['beep', 0.0, -1537.5541493361175, 0.0, 0.0, 0.0, 0.0, 695.9886188493513, 0.0]
['beep', 0.0, -1536.1459894354332, 0.0, 0.0, 0.0, 0.0, 698.2684967837927, 0.0]
['beep', 0.0, -1528.568748065084, 0.0, 0.0, 0.0, 0.0, 704.0128951088066, 0.0]
['beep', 0.0, -1525.148931163422, 0.0, 0.0, 0.0, 0.0, 701.9118311300077, 0.0]
['beep', 0.0, -1528.7252102762714, 0.0, 0.0, 0.0, 0.0, 696.9944473498401, 0.0]
['beep', 0.0, -1534.089628945545, 0.0, 0.0, 0.0, 0.0, 694.0663688261949, 0.0]
['beep', 0.0, -1532.122675433478, 0.0, 0.0, 0.0, 0.0, 697.7320549168653, 0.0]
['beep', 0.0, -1524.4113235963969, 0.0, 0.0, 0.0, 0.0, 702.3812177635691, 0.0]
['beep', 0.0, -1523.8525299850144, 0.0, 0.0, 0.0, 0.0, 701.5765549631781, 0.0]
['beep', 0.0, -1529.7533905212154, 0.0, 0.0, 0.0, 0.0, 697.7320549168653, 0.0]
['beep', 0.0, -1533.4190766118857, 0.0, 0.0, 0.0, 0.0, 695.1169008155944, 0.0]
['beep', 0.0, -1531.5638818220953, 0.0, 0.0, 0.0, 0.0, 698.1343863170608, 0.0]
['beep', 0.0, -1528.1664166648886, 0.0, 0.0, 0.0, 0.0, 703.1411770750495, 0.0]
['beep', 0.0, -1527.6523265424164, 0.0, 0.0, 0.0, 0.0, 703.0517700972283, 0.0]
['beep', 0.0, -1530.3568876215086, 0.0, 0.0, 0.0, 0.0, 699.6990084289323, 0.0]
['beep', 0.0, -1531.3627161219974, 0.0, 0.0, 0.0, 0.0, 697.3967787500357, 0.0]
['beep', 0.0, -1528.054657942612, 0.0, 0.0, 0.0, 0.0, 699.9225258734854, 0.0]
['beep', 0.0, -1522.6455357844277, 0.0, 0.0, 0.0, 0.0, 706.4715869988903, 0.0]
['beep', 0.0, -1521.058561928101, 0.0, 0.0, 0.0, 0.0, 706.2927730432478, 0.0]
['beep', 0.0, -1526.892367230936, 0.0, 0.0, 0.0, 0.0, 700.481319484868, 0.0]
['beep', 0.0, -1531.474474844274, 0.0, 0.0, 0.0, 0.0, 696.7709299052871, 0.0]
['beep', 0.0, -1527.249995142221, 0.0, 0.0, 0.0, 0.0, 700.3025055292255, 0.0]
['beep', 0.0, -1521.6397072839388, 0.0, 0.0, 0.0, 0.0, 706.0469038542395, 0.0]
['beep', 0.0, -1523.4054950959082, 0.0, 0.0, 0.0, 0.0, 705.1081305871166, 0.0]
['beep', 0.0, -1526.154759663911, 0.0, 0.0, 0.0, 0.0, 700.6154299515999, 0.0]
['beep', 0.0, -1525.7300765192601, 0.0, 0.0, 0.0, 0.0, 698.7825869062647, 0.0]
['beep', 0.0, -1521.7961694951262, 0.0, 0.0, 0.0, 0.0, 702.9400113749518, 0.0]
['beep', 0.0, -1520.7903409946373, 0.0, 0.0, 0.0, 0.0, 707.4327120104685, 0.0]
['beep', 0.0, -1523.6513642849166, 0.0, 0.0, 0.0, 0.0, 707.9691538773959, 0.0]
['beep', 0.0, -1527.093532931034, 0.0, 0.0, 0.0, 0.0, 701.353037518625, 0.0]
['beep', 0.0, -1529.507521332207, 0.0, 0.0, 0.0, 0.0, 699.7884154067535, 0.0]
['beep', 0.0, -1528.993431209735, 0.0, 0.0, 0.0, 0.0, 702.6494386970328, 0.0]
['beep', 0.0, -1525.9982974527238, 0.0, 0.0, 0.0, 0.0, 708.125616088583, 0.0]
['beep', 0.0, -1524.5677858075842, 0.0, 0.0, 0.0, 0.0, 708.5055957443233, 0.0]
['beep', 0.0, -1524.9030619744137, 0.0, 0.0, 0.0, 0.0, 704.0799503421724, 0.0]
['beep', 0.0, -1528.121713175978, 0.0, 0.0, 0.0, 0.0, 701.420092751991, 0.0]
['beep', 0.0, -1529.0157829541902, 0.0, 0.0, 0.0, 0.0, 704.5046334868233, 0.0]
['beep', 0.0, -1526.8476637420254, 0.0, 0.0, 0.0, 0.0, 710.2713835562926, 0.0]
['beep', 0.0, -1526.5794428085617, 0.0, 0.0, 0.0, 0.0, 709.6231829670886, 0.0]
['beep', 0.0, -1530.2451288992322, 0.0, 0.0, 0.0, 0.0, 704.1693573199937, 0.0]
['beep', 0.0, -1533.8214080120813, 0.0, 0.0, 0.0, 0.0, 702.0459415967396, 0.0]
['beep', 0.0, -1532.8826347449583, 0.0, 0.0, 0.0, 0.0, 706.1139590876054, 0.0]
['beep', 0.0, -1529.0157829541902, 0.0, 0.0, 0.0, 0.0, 711.1654533345048, 0.0]
['beep', 0.0, -1525.5959660525282, 0.0, 0.0, 0.0, 0.0, 711.0983981011389, 0.0]
['beep', 0.0, -1524.63484104095, 0.0, 0.0, 0.0, 0.0, 707.0080288658177, 0.0]
['beep', 0.0, -1528.7922655096372, 0.0, 0.0, 0.0, 0.0, 702.3588660191139, 0.0]
['beep', 0.0, -1530.2004254103215, 0.0, 0.0, 0.0, 0.0, 705.4881102428568, 0.0]
['beep', 0.0, -1527.0264776976678, 0.0, 0.0, 0.0, 0.0, 711.4783777568791, 0.0]
['beep', 0.0, -1525.3053933746094, 0.0, 0.0, 0.0, 0.0, 711.4560260124238, 0.0]
['beep', 0.0, -1529.2616521431987, 0.0, 0.0, 0.0, 0.0, 706.3821800210691, 0.0]
['beep', 0.0, -1532.8379312560478, 0.0, 0.0, 0.0, 0.0, 703.7670259197981, 0.0]
['beep', 0.0, -1531.5191783331845, 0.0, 0.0, 0.0, 0.0, 706.6056974656221, 0.0]
['beep', 0.0, -1529.574576565573, 0.0, 0.0, 0.0, 0.0, 708.9526306334294, 0.0]
['beep', 0.0, -1528.6134515539948, 0.0, 0.0, 0.0, 0.0, 710.2490318118372, 0.0]
['beep', 0.0, -1528.7252102762714, 0.0, 0.0, 0.0, 0.0, 708.192671321949, 0.0]
['beep', 0.0, -1531.7426957777377, 0.0, 0.0, 0.0, 0.0, 703.7446741753429, 0.0]
['beep', 0.0, -1534.9389952348465, 0.0, 0.0, 0.0, 0.0, 704.8846131425636, 0.0]
['beep', 0.0, -1532.8155795115924, 0.0, 0.0, 0.0, 0.0, 710.7631219343093, 0.0]
['beep', 0.0, -1530.1110184325003, 0.0, 0.0, 0.0, 0.0, 712.1936335794489, 0.0]
['beep', 0.0, -1532.3685446224863, 0.0, 0.0, 0.0, 0.0, 707.4997672438344, 0.0]
['beep', 0.0, -1534.022573712179, 0.0, 0.0, 0.0, 0.0, 704.6387439535551, 0.0]
['beep', 0.0, -1534.4696086012852, 0.0, 0.0, 0.0, 0.0, 707.4103602660132, 0.0]
['beep', 0.0, -1531.4521230998187, 0.0, 0.0, 0.0, 0.0, 712.350095790636, 0.0]
['beep', 0.0, -1529.5969283100283, 0.0, 0.0, 0.0, 0.0, 712.5959649796445, 0.0]
['beep', 0.0, -1532.5473585781288, 0.0, 0.0, 0.0, 0.0, 707.0080288658177, 0.0]
['beep', 0.0, -1537.3082801471091, 0.0, 0.0, 0.0, 0.0, 702.515328230301, 0.0]
['beep', 0.0, -1535.698954546327, 0.0, 0.0, 0.0, 0.0, 704.9516683759294, 0.0]
['beep', 0.0, -1528.8816724874584, 0.0, 0.0, 0.0, 0.0, 710.4278457674797, 0.0]
['beep', 0.0, -1529.5522248211175, 0.0, 0.0, 0.0, 0.0, 709.5561277337227, 0.0]
['beep', 0.0, -1533.150855678422, 0.0, 0.0, 0.0, 0.0, 703.2305840528708, 0.0]
['beep', 0.0, -1535.4977888462292, 0.0, 0.0, 0.0, 0.0, 700.838947396153, 0.0]
['beep', 0.0, -1534.8495882570253, 0.0, 0.0, 0.0, 0.0, 705.0410753537507, 0.0]
['beep', 0.0, -1532.346192878031, 0.0, 0.0, 0.0, 0.0, 709.9808108783735, 0.0]
['beep', 0.0, -1530.8039225106147, 0.0, 0.0, 0.0, 0.0, 708.3044300442255, 0.0]
['beep', 0.0, -1532.055620200112, 0.0, 0.0, 0.0, 0.0, 704.7057991869211, 0.0]
['beep', 0.0, -1534.8495882570253, 0.0, 0.0, 0.0, 0.0, 702.001238107829, 0.0]
['beep', 0.0, -1535.4754371017739, 0.0, 0.0, 0.0, 0.0, 704.1693573199937, 0.0]
['beep', 0.0, -1532.8379312560478, 0.0, 0.0, 0.0, 0.0, 707.4103602660132, 0.0]
['beep', 0.0, -1531.5191783331845, 0.0, 0.0, 0.0, 0.0, 709.6902382004546, 0.0]
['beep', 0.0, -1536.1012859465225, 0.0, 0.0, 0.0, 0.0, 706.4715869988903, 0.0]
['beep', 0.0, -1539.342288892542, 0.0, 0.0, 0.0, 0.0, 701.8671276410971, 0.0]
['beep', 0.0, -1537.151817935922, 0.0, 0.0, 0.0, 0.0, 704.9293166314742, 0.0]
['beep', 0.0, -1532.1450271779331, 0.0, 0.0, 0.0, 0.0, 710.2490318118372, 0.0]
['beep', 0.0, -1529.6863352878495, 0.0, 0.0, 0.0, 0.0, 711.4783777568791, 0.0]
['beep', 0.0, -1534.5590155791065, 0.0, 0.0, 0.0, 0.0, 705.1751858204825, 0.0]
['beep', 0.0, -1537.8670737584919, 0.0, 0.0, 0.0, 0.0, 703.2529357973261, 0.0]
['beep', 0.0, -1538.1352946919556, 0.0, 0.0, 0.0, 0.0, 706.7845114212646, 0.0]
['beep', 0.0, -1533.7096492898047, 0.0, 0.0, 0.0, 0.0, 710.6960667009433, 0.0]
['beep', 0.0, -1529.1722451653775, 0.0, 0.0, 0.0, 0.0, 709.1090928446166, 0.0]
['beep', 0.0, -1531.765047522193, 0.0, 0.0, 0.0, 0.0, 704.6610956980105, 0.0]
['beep', 0.0, -1537.7776667806706, 0.0, 0.0, 0.0, 0.0, 702.224755552382, 0.0]
['beep', 0.0, -1537.73296329176, 0.0, 0.0, 0.0, 0.0, 705.8904416430523, 0.0]
['beep', 0.0, -1531.6756405443718, 0.0, 0.0, 0.0, 0.0, 711.7689504347981, 0.0]
['beep', 0.0, -1529.9992597102237, 0.0, 0.0, 0.0, 0.0, 711.2995638012367, 0.0]
['beep', 0.0, -1537.3082801471091, 0.0, 0.0, 0.0, 0.0, 706.5609939767115, 0.0]
['beep', 0.0, -1542.404477882919, 0.0, 0.0, 0.0, 0.0, 704.1470055755384, 0.0]
['beep', 0.0, -1541.5551115936175, 0.0, 0.0, 0.0, 0.0, 708.3044300442255, 0.0]
['beep', 0.0, -1535.4977888462292, 0.0, 0.0, 0.0, 0.0, 711.3666190346025, 0.0]
['beep', 0.0, -1530.6251085549723, 0.0, 0.0, 0.0, 0.0, 711.5230812457897, 0.0]
['beep', 0.0, -1534.9836987237572, 0.0, 0.0, 0.0, 0.0, 708.99733412234, 0.0]
['beep', 0.0, -1540.795152282137, 0.0, 0.0, 0.0, 0.0, 706.2704212987926, 0.0]
['beep', 0.0, -1539.4540476148186, 0.0, 0.0, 0.0, 0.0, 708.0138573663065, 0.0]
['beep', 0.0, -1535.6766028018717, 0.0, 0.0, 0.0, 0.0, 713.6464969690439, 0.0]
['beep', 0.0, -1535.8330650130588, 0.0, 0.0, 0.0, 0.0, 714.2052905804265, 0.0]
['beep', 0.0, -1539.0964197035337, 0.0, 0.0, 0.0, 0.0, 709.4667207559015, 0.0]
['beep', 0.0, -1539.3199371480869, 0.0, 0.0, 0.0, 0.0, 706.5609939767115, 0.0]
['beep', 0.0, -1535.54249233514, 0.0, 0.0, 0.0, 0.0, 709.3773137780803, 0.0]
['beep', 0.0, -1532.4579516003075, 0.0, 0.0, 0.0, 0.0, 714.8311394251751, 0.0]
['beep', 0.0, -1532.0109167112014, 0.0, 0.0, 0.0, 0.0, 716.351058048136, 0.0]
['beep', 0.0, -1534.894291745936, 0.0, 0.0, 0.0, 0.0, 710.8525289121305, 0.0]
['beep', 0.0, -1539.2975854036315, 0.0, 0.0, 0.0, 0.0, 705.8904416430523, 0.0]
['beep', 0.0, -1539.2752336591761, 0.0, 0.0, 0.0, 0.0, 709.645534711544, 0.0]
['beep', 0.0, -1536.1683411798886, 0.0, 0.0, 0.0, 0.0, 715.6134504811109, 0.0]
['beep', 0.0, -1532.502655089218, 0.0, 0.0, 0.0, 0.0, 717.222776081893, 0.0]
['beep', 0.0, -1533.0390969561456, 0.0, 0.0, 0.0, 0.0, 711.9030609015299, 0.0]
['beep', 0.0, -1537.7553150362153, 0.0, 0.0, 0.0, 0.0, 710.6290114675775, 0.0]
['beep', 0.0, -1535.4307336128634, 0.0, 0.0, 0.0, 0.0, 713.0429998687506, 0.0]
['beep', 0.0, -1531.0050882107125, 0.0, 0.0, 0.0, 0.0, 718.0721423711947, 0.0]
['beep', 0.0, -1528.3228788760757, 0.0, 0.0, 0.0, 0.0, 717.4462935264461, 0.0]
['beep', 0.0, -1532.793227767137, 0.0, 0.0, 0.0, 0.0, 711.7465986903428, 0.0]
['beep', 0.0, -1537.0624109581008, 0.0, 0.0, 0.0, 0.0, 709.5114242448121, 0.0]
['beep', 0.0, -1536.1012859465225, 0.0, 0.0, 0.0, 0.0, 712.7524271908317, 0.0]
['beep', 0.0, -1534.8048847681148, 0.0, 0.0, 0.0, 0.0, 716.99925863734, 0.0]
['beep', 0.0, -1532.7261725337712, 0.0, 0.0, 0.0, 0.0, 717.9156801600076, 0.0]
['beep', 0.0, -1532.0332684556568, 0.0, 0.0, 0.0, 0.0, 712.3724475350914, 0.0]
['beep', 0.0, -1532.1450271779331, 0.0, 0.0, 0.0, 0.0, 707.5221189882898, 0.0]
['beep', 0.0, -1532.9496899783244, 0.0, 0.0, 0.0, 0.0, 711.1878050789601, 0.0]
['beep', 0.0, -1530.8709777439808, 0.0, 0.0, 0.0, 0.0, 714.2052905804265, 0.0]
['beep', 0.0, -1530.088666688045, 0.0, 0.0, 0.0, 0.0, 713.5347382467673, 0.0]
['beep', 0.0, -1532.2567859002097, 0.0, 0.0, 0.0, 0.0, 707.8573951551193, 0.0]
['beep', 0.0, -1535.92247199088, 0.0, 0.0, 0.0, 0.0, 703.3423427751474, 0.0]
['beep', 0.0, -1532.7038207893158, 0.0, 0.0, 0.0, 0.0, 705.2645927983037, 0.0]
['beep', 0.0, -1527.6746782868718, 0.0, 0.0, 0.0, 0.0, 709.7572934338205, 0.0]
['beep', 0.0, -1528.993431209735, 0.0, 0.0, 0.0, 0.0, 709.7125899449098, 0.0]
['beep', 0.0, -1533.2626144006986, 0.0, 0.0, 0.0, 0.0, 704.772854420287, 0.0]
['beep', 0.0, -1536.1012859465225, 0.0, 0.0, 0.0, 0.0, 701.0624648407061, 0.0]
['beep', 0.0, -1533.6202423119835, 0.0, 0.0, 0.0, 0.0, 703.6999706864323, 0.0]
['beep', 0.0, -1527.6523265424164, 0.0, 0.0, 0.0, 0.0, 709.3549620336249, 0.0]
['beep', 0.0, -1526.601794553017, 0.0, 0.0, 0.0, 0.0, 710.1819765784713, 0.0]
['beep', 0.0, -1532.346192878031, 0.0, 0.0, 0.0, 0.0, 705.0410753537507, 0.0]
['beep', 0.0, -1535.251919657221, 0.0, 0.0, 0.0, 0.0, 701.5765549631781, 0.0]
['beep', 0.0, -1531.474474844274, 0.0, 0.0, 0.0, 0.0, 702.9176596304965, 0.0]
['beep', 0.0, -1527.6970300313271, 0.0, 0.0, 0.0, 0.0, 707.9915056218512, 0.0]
['beep', 0.0, -1526.8700154864807, 0.0, 0.0, 0.0, 0.0, 708.8855754000635, 0.0]
['beep', 0.0, -1529.3957626099304, 0.0, 0.0, 0.0, 0.0, 706.0022003653289, 0.0]
['beep', 0.0, -1532.7485242782266, 0.0, 0.0, 0.0, 0.0, 701.9118311300077, 0.0]
['beep', 0.0, -1531.7203440332823, 0.0, 0.0, 0.0, 0.0, 705.2645927983037, 0.0]
['beep', 0.0, -1528.6805067873606, 0.0, 0.0, 0.0, 0.0, 710.6513632120327, 0.0]
['beep', 0.0, -1528.1664166648886, 0.0, 0.0, 0.0, 0.0, 709.6678864559992, 0.0]
['beep', 0.0, -1530.0663149435898, 0.0, 0.0, 0.0, 0.0, 704.7057991869211, 0.0]
['beep', 0.0, -1532.7485242782266, 0.0, 0.0, 0.0, 0.0, 700.6824851849658, 0.0]
['beep', 0.0, -1532.480303344763, 0.0, 0.0, 0.0, 0.0, 702.5600317192116, 0.0]
['beep', 0.0, -1527.4511608423188, 0.0, 0.0, 0.0, 0.0, 706.6280492100775, 0.0]
['beep', 0.0, -1525.3724486079752, 0.0, 0.0, 0.0, 0.0, 706.9409736324518, 0.0]
['beep', 0.0, -1528.345230620531, 0.0, 0.0, 0.0, 0.0, 702.7835491637646, 0.0]
['beep', 0.0, -1532.1897306668438, 0.0, 0.0, 0.0, 0.0, 699.7884154067535, 0.0]
['beep', 0.0, -1531.4521230998187, 0.0, 0.0, 0.0, 0.0, 702.2694590412926, 0.0]
['beep', 0.0, -1528.2111201537991, 0.0, 0.0, 0.0, 0.0, 707.0527323547283, 0.0]
['beep', 0.0, -1525.6630212858943, 0.0, 0.0, 0.0, 0.0, 706.6727526989881, 0.0]
['beep', 0.0, -1528.546396320629, 0.0, 0.0, 0.0, 0.0, 701.1518718185273, 0.0]
['beep', 0.0, -1533.284966145154, 0.0, 0.0, 0.0, 0.0, 698.4696624838904, 0.0]
['beep', 0.0, -1532.2567859002097, 0.0, 0.0, 0.0, 0.0, 700.8165956516976, 0.0]
['beep', 0.0, -1527.1382364199444, 0.0, 0.0, 0.0, 0.0, 703.8117294087087, 0.0]
['beep', 0.0, -1524.8807102299584, 0.0, 0.0, 0.0, 0.0, 704.124653831083, 0.0]
['beep', 0.0, -1528.5016928317182, 0.0, 0.0, 0.0, 0.0, 699.1178630730943, 0.0]
['beep', 0.0, -1530.9156812328913, 0.0, 0.0, 0.0, 0.0, 696.2791915272703, 0.0]
['beep', 0.0, -1529.1722451653775, 0.0, 0.0, 0.0, 0.0, 702.2024038079267, 0.0]
['beep', 0.0, -1523.53960556264, 0.0, 0.0, 0.0, 0.0, 707.7456364328428, 0.0]
['beep', 0.0, -1519.4939398162294, 0.0, 0.0, 0.0, 0.0, 707.2315463103707, 0.0]
['beep', 0.0, -1521.9973351952237, 0.0, 0.0, 0.0, 0.0, 703.9458398754406, 0.0]
['beep', 0.0, -1526.087704430545, 0.0, 0.0, 0.0, 0.0, 701.3083340297144, 0.0]
['beep', 0.0, -1527.4958643312293, 0.0, 0.0, 0.0, 0.0, 702.4706247413903, 0.0]
['beep', 0.0, -1524.8136549965925, 0.0, 0.0, 0.0, 0.0, 707.0080288658177, 0.0]
['beep', 0.0, -1524.3219166185756, 0.0, 0.0, 0.0, 0.0, 705.7786829207759, 0.0]
['beep', 0.0, -1528.278175387165, 0.0, 0.0, 0.0, 0.0, 700.0342845957618, 0.0]
['beep', 0.0, -1534.1790359233662, 0.0, 0.0, 0.0, 0.0, 695.5415839602451, 0.0]
['beep', 0.0, -1534.1566841789108, 0.0, 0.0, 0.0, 0.0, 698.6708281839882, 0.0]
['beep', 0.0, -1526.1324079194555, 0.0, 0.0, 0.0, 0.0, 703.8340811531641, 0.0]
['beep', 0.0, -1521.215024139288, 0.0, 0.0, 0.0, 0.0, 700.7271886738764, 0.0]
['beep', 0.0, -1521.8408729840367, 0.0, 0.0, 0.0, 0.0, 693.5075752148123, 0.0]
['beep', 0.0, -1524.5677858075842, 0.0, 0.0, 0.0, 0.0, 688.3890257345469, 0.0]
['beep', 0.0, -1522.377314850964, 0.0, 0.0, 0.0, 0.0, 690.5347932022564, 0.0]
['beep', 0.0, -1516.3646955924864, 0.0, 0.0, 0.0, 0.0, 693.5299269592675, 0.0]
['beep', 0.0, -1515.3588670919976, 0.0, 0.0, 0.0, 0.0, 692.0770635696725, 0.0]
['beep', 0.0, -1518.5775182935618, 0.0, 0.0, 0.0, 0.0, 686.4444239669352, 0.0]
['beep', 0.0, -1522.3102596175981, 0.0, 0.0, 0.0, 0.0, 680.5212116862788, 0.0]
['beep', 0.0, -1521.6397072839388, 0.0, 0.0, 0.0, 0.0, 681.0129500642956, 0.0]
['beep', 0.0, -1517.0799514150563, 0.0, 0.0, 0.0, 0.0, 684.8350983661531, 0.0]
['beep', 0.0, -1515.090646158534, 0.0, 0.0, 0.0, 0.0, 684.5892291771447, 0.0]
['beep', 0.0, -1518.44340782683, 0.0, 0.0, 0.0, 0.0, 678.5542581742118, 0.0]
['beep', 0.0, -1521.058561928101, 0.0, 0.0, 0.0, 0.0, 673.7709848607761, 0.0]
['beep', 0.0, -1520.9020997169139, 0.0, 0.0, 0.0, 0.0, 675.223848250371, 0.0]
['beep', 0.0, -1517.281117115154, 0.0, 0.0, 0.0, 0.0, 679.6941971414325, 0.0]
['beep', 0.0, -1515.604736281006, 0.0, 0.0, 0.0, 0.0, 677.7272436293655, 0.0]
['beep', 0.0, -1519.2927741161316, 0.0, 0.0, 0.0, 0.0, 671.4911069263347, 0.0]
['beep', 0.0, -1522.8019979956148, 0.0, 0.0, 0.0, 0.0, 667.9371795579409, 0.0]
['beep', 0.0, -1521.3938380949305, 0.0, 0.0, 0.0, 0.0, 668.4065661915024, 0.0]
['beep', 0.0, -1517.3705240929753, 0.0, 0.0, 0.0, 0.0, 670.9546650594074, 0.0]
['beep', 0.0, -1516.0964746590228, 0.0, 0.0, 0.0, 0.0, 670.7982028482203, 0.0]
['beep', 0.0, -1519.471588071774, 0.0, 0.0, 0.0, 0.0, 665.9702260458739, 0.0]
['beep', 0.0, -1521.9749834507686, 0.0, 0.0, 0.0, 0.0, 660.6728626099662, 0.0]
['beep', 0.0, -1521.863224728492, 0.0, 0.0, 0.0, 0.0, 660.8516765656086, 0.0]
['beep', 0.0, -1517.5940415375283, 0.0, 0.0, 0.0, 0.0, 663.645644622522, 0.0]
['beep', 0.0, -1515.8059019811037, 0.0, 0.0, 0.0, 0.0, 662.6621678664885, 0.0]
['beep', 0.0, -1517.862262470992, 0.0, 0.0, 0.0, 0.0, 656.1578102299941, 0.0]
['beep', 0.0, -1521.6844107728496, 0.0, 0.0, 0.0, 0.0, 650.4134119049802, 0.0]
['beep', 0.0, -1520.3433061055312, 0.0, 0.0, 0.0, 0.0, 649.8322665491422, 0.0]
['beep', 0.0, -1512.900175201914, 0.0, 0.0, 0.0, 0.0, 651.933330527941, 0.0]
['beep', 0.0, -1513.8165967245814, 0.0, 0.0, 0.0, 0.0, 650.3016531827037, 0.0]
['beep', 0.0, -1525.5512625636177, 0.0, 0.0, 0.0, 0.0, 641.9421007564189, 0.0]
['beep', 0.0, -1532.7485242782266, 0.0, 0.0, 0.0, 0.0, 632.643775063011, 0.0]
['beep', 0.0, -1534.8719400014807, 0.0, 0.0, 0.0, 0.0, 630.0286209617402, 0.0]
['beep', 0.0, -1534.6260708124723, 0.0, 0.0, 0.0, 0.0, 630.3862488730251, 0.0]
['beep', 0.0, -1534.7154777902936, 0.0, 0.0, 0.0, 0.0, 626.3182313821592, 0.0]
['beep', 0.0, -1537.9788324807685, 0.0, 0.0, 0.0, 0.0, 617.6010510445894, 0.0]
['beep', 0.0, -1540.2363586707543, 0.0, 0.0, 0.0, 0.0, 611.3649143415588, 0.0]
['beep', 0.0, -1537.442390613841, 0.0, 0.0, 0.0, 0.0, 611.163748641461, 0.0]
['beep', 0.0, -1533.3743731229752, 0.0, 0.0, 0.0, 0.0, 612.8624812200643, 0.0]
['beep', 0.0, -1531.474474844274, 0.0, 0.0, 0.0, 0.0, 610.1579201409722, 0.0]
['beep', 0.0, -1532.8826347449583, 0.0, 0.0, 0.0, 0.0, 603.2512311042823, 0.0]
['beep', 0.0, -1536.3248033910756, 0.0, 0.0, 0.0, 0.0, 596.7021699788774, 0.0]
['beep', 0.0, -1535.4754371017739, 0.0, 0.0, 0.0, 0.0, 595.8304519451203, 0.0]
['beep', 0.0, -1531.5191783331845, 0.0, 0.0, 0.0, 0.0, 597.0821496346175, 0.0]
['beep', 0.0, -1527.6970300313271, 0.0, 0.0, 0.0, 0.0, 595.8081002006651, 0.0]
['beep', 0.0, -1530.021611454679, 0.0, 0.0, 0.0, 0.0, 588.2755623192265, 0.0]
['beep', 0.0, -1534.536663834651, 0.0, 0.0, 0.0, 0.0, 582.8887919054976, 0.0]
['beep', 0.0, -1533.1955591673327, 0.0, 0.0, 0.0, 0.0, 583.134661094506, 0.0]
['beep', 0.0, -1527.92054747588, 0.0, 0.0, 0.0, 0.0, 585.3474837955814, 0.0]
['beep', 0.0, -1526.8253119975702, 0.0, 0.0, 0.0, 0.0, 583.5369924947015, 0.0]
['beep', 0.0, -1530.2227771547768, 0.0, 0.0, 0.0, 0.0, 576.6303034580116, 0.0]
['beep', 0.0, -1532.5473585781288, 0.0, 0.0, 0.0, 0.0, 570.0141870992408, 0.0]
['beep', 0.0, -1530.5580533216064, 0.0, 0.0, 0.0, 0.0, 569.1201173210284, 0.0]
['beep', 0.0, -1527.4511608423188, 0.0, 0.0, 0.0, 0.0, 571.198829555372, 0.0]
['beep', 0.0, -1525.640669541439, 0.0, 0.0, 0.0, 0.0, 570.9976638552743, 0.0]
['beep', 0.0, -1528.6581550429053, 0.0, 0.0, 0.0, 0.0, 565.4097277414475, 0.0]
['beep', 0.0, -1532.502655089218, 0.0, 0.0, 0.0, 0.0, 559.6429776719782, 0.0]
['beep', 0.0, -1531.5191783331845, 0.0, 0.0, 0.0, 0.0, 560.2017712833609, 0.0]
['beep', 0.0, -1527.7864370091484, 0.0, 0.0, 0.0, 0.0, 563.77805039621, 0.0]
['beep', 0.0, -1526.1100561750004, 0.0, 0.0, 0.0, 0.0, 562.4369457288916, 0.0]
['beep', 0.0, -1529.1722451653775, 0.0, 0.0, 0.0, 0.0, 556.0666985591291, 0.0]
['beep', 0.0, -1533.7096492898047, 0.0, 0.0, 0.0, 0.0, 551.39518396797, 0.0]
['beep', 0.0, -1532.3238411335756, 0.0, 0.0, 0.0, 0.0, 552.3339572350928, 0.0]
['beep', 0.0, -1528.6805067873606, 0.0, 0.0, 0.0, 0.0, 556.5584369371459, 0.0]
['beep', 0.0, -1526.4229805973746, 0.0, 0.0, 0.0, 0.0, 556.2902160036822, 0.0]
['beep', 0.0, -1528.278175387165, 0.0, 0.0, 0.0, 0.0, 551.6857566458889, 0.0]
['beep', 0.0, -1532.502655089218, 0.0, 0.0, 0.0, 0.0, 548.2435879997716, 0.0]
['beep', 0.0, -1532.4132481113968, 0.0, 0.0, 0.0, 0.0, 548.9364920778861, 0.0]
['beep', 0.0, -1527.607623053506, 0.0, 0.0, 0.0, 0.0, 553.9656345803303, 0.0]
['beep', 0.0, -1525.931242219358, 0.0, 0.0, 0.0, 0.0, 554.5020764472577, 0.0]
['beep', 0.0, -1528.1664166648886, 0.0, 0.0, 0.0, 0.0, 548.48945718878, 0.0]
['beep', 0.0, -1531.340364377542, 0.0, 0.0, 0.0, 0.0, 544.6226053980118, 0.0]
['beep', 0.0, -1531.9215097333802, 0.0, 0.0, 0.0, 0.0, 545.6507856429561, 0.0]
['beep', 0.0, -1527.898195731425, 0.0, 0.0, 0.0, 0.0, 550.165838022928, 0.0]
['beep', 0.0, -1525.5959660525282, 0.0, 0.0, 0.0, 0.0, 550.0540793006516, 0.0]
['beep', 0.0, -1529.1722451653775, 0.0, 0.0, 0.0, 0.0, 546.3213379766153, 0.0]
['beep', 0.0, -1532.0332684556568, 0.0, 0.0, 0.0, 0.0, 543.2144454973276, 0.0]
['beep', 0.0, -1530.2451288992322, 0.0, 0.0, 0.0, 0.0, 544.9355298203861, 0.0]
['beep', 0.0, -1526.3335736195534, 0.0, 0.0, 0.0, 0.0, 548.712974633333, 0.0]
['beep', 0.0, -1523.4278468403634, 0.0, 0.0, 0.0, 0.0, 548.3776984665035, 0.0]
['beep', 0.0, -1527.6523265424164, 0.0, 0.0, 0.0, 0.0, 543.8402943420762, 0.0]
['beep', 0.0, -1532.055620200112, 0.0, 0.0, 0.0, 0.0, 540.331070462593, 0.0]
['beep', 0.0, -1531.4074196109082, 0.0, 0.0, 0.0, 0.0, 541.8956925744644, 0.0]
['beep', 0.0, -1527.3394021200422, 0.0, 0.0, 0.0, 0.0, 545.9637100653304, 0.0]
['beep', 0.0, -1524.2548613852098, 0.0, 0.0, 0.0, 0.0, 545.293157731671, 0.0]
['beep', 0.0, -1527.2946986311315, 0.0, 0.0, 0.0, 0.0, 540.5098844182354, 0.0]
['beep', 0.0, -1531.2509573997208, 0.0, 0.0, 0.0, 0.0, 536.7324396052885, 0.0]
['beep', 0.0, -1531.0721434440784, 0.0, 0.0, 0.0, 0.0, 536.9559570498416, 0.0]
['beep', 0.0, -1526.1100561750004, 0.0, 0.0, 0.0, 0.0, 540.4651809293248, 0.0]
['beep', 0.0, -1523.8525299850144, 0.0, 0.0, 0.0, 0.0, 541.8956925744644, 0.0]
['beep', 0.0, -1527.2723468866764, 0.0, 0.0, 0.0, 0.0, 538.8558553285427, 0.0]
['beep', 0.0, -1530.669812043883, 0.0, 0.0, 0.0, 0.0, 534.9666517933192, 0.0]
['beep', 0.0, -1531.474474844274, 0.0, 0.0, 0.0, 0.0, 535.6372041269784, 0.0]
['beep', 0.0, -1527.2723468866764, 0.0, 0.0, 0.0, 0.0, 541.6051198965455, 0.0]
['beep', 0.0, -1524.992468952235, 0.0, 0.0, 0.0, 0.0, 541.1133815185286, 0.0]
['beep', 0.0, -1527.2946986311315, 0.0, 0.0, 0.0, 0.0, 534.7207826043109, 0.0]
['beep', 0.0, -1532.0332684556568, 0.0, 0.0, 0.0, 0.0, 530.9209860469086, 0.0]
['beep', 0.0, -1532.0109167112014, 0.0, 0.0, 0.0, 0.0, 532.6420703699673, 0.0]
['beep', 0.0, -1527.9428992203354, 0.0, 0.0, 0.0, 0.0, 537.9841372947857, 0.0]
['beep', 0.0, -1525.4618555857965, 0.0, 0.0, 0.0, 0.0, 539.1911314953722, 0.0]
['beep', 0.0, -1528.546396320629, 0.0, 0.0, 0.0, 0.0, 532.262090714227, 0.0]
['beep', 0.0, -1532.346192878031, 0.0, 0.0, 0.0, 0.0, 528.1717214789059, 0.0]
['beep', 0.0, -1532.3685446224863, 0.0, 0.0, 0.0, 0.0, 531.2562622137383, 0.0]
['beep', 0.0, -1528.121713175978, 0.0, 0.0, 0.0, 0.0, 537.1124192610287, 0.0]
['beep', 0.0, -1525.8194834970814, 0.0, 0.0, 0.0, 0.0, 537.0006605387522, 0.0]
['beep', 0.0, -1526.668849786383, 0.0, 0.0, 0.0, 0.0, 531.8150558251209, 0.0]
['beep', 0.0, -1532.0779719445673, 0.0, 0.0, 0.0, 0.0, 528.5740528791014, 0.0]
['beep', 0.0, -1531.4074196109082, 0.0, 0.0, 0.0, 0.0, 530.2504337132494, 0.0]
['beep', 0.0, -1528.2334718982545, 0.0, 0.0, 0.0, 0.0, 535.3019279601489, 0.0]
['beep', 0.0, -1525.3724486079752, 0.0, 0.0, 0.0, 0.0, 535.2795762156935, 0.0]
['beep', 0.0, -1527.2723468866764, 0.0, 0.0, 0.0, 0.0, 531.748000591755, 0.0]
['beep', 0.0, -1531.5862335665506, 0.0, 0.0, 0.0, 0.0, 528.328183690093, 0.0]
['beep', 0.0, -1533.5308353341622, 0.0, 0.0, 0.0, 0.0, 530.6304133689897, 0.0]
['beep', 0.0, -1533.0390969561456, 0.0, 0.0, 0.0, 0.0, 536.7994948386544, 0.0]
['beep', 0.0, -1527.406457353408, 0.0, 0.0, 0.0, 0.0, 538.8111518396321, 0.0]
['beep', 0.0, -1521.2373758837434, 0.0, 0.0, 0.0, 0.0, 535.7042593603444, 0.0]
['beep', 0.0, -1522.8690532289809, 0.0, 0.0, 0.0, 0.0, 534.8325413265874, 0.0]
['beep', 0.0, -1520.9468032058244, 0.0, 0.0, 0.0, 0.0, 539.5264076622019, 0.0]
['beep', 0.0, -1516.3199921035757, 0.0, 0.0, 0.0, 0.0, 546.8577798435426, 0.0]
['beep', 0.0, -1514.1071694025004, 0.0, 0.0, 0.0, 0.0, 548.8470851000649, 0.0]
['beep', 0.0, -1514.5989077805173, 0.0, 0.0, 0.0, 0.0, 546.1425240209728, 0.0]
['beep', 0.0, -1520.052733427612, 0.0, 0.0, 0.0, 0.0, 541.0463262851628, 0.0]
['beep', 0.0, -1519.829215983059, 0.0, 0.0, 0.0, 0.0, 540.845160585065, 0.0]
['beep', 0.0, -1516.6552682704055, 0.0, 0.0, 0.0, 0.0, 546.813076354632, 0.0]
['beep', 0.0, -1515.090646158534, 0.0, 0.0, 0.0, 0.0, 547.2377594992828, 0.0]
['beep', 0.0, -1517.6610967708943, 0.0, 0.0, 0.0, 0.0, 540.48753267378, 0.0]
['beep', 0.0, -1519.7174572607826, 0.0, 0.0, 0.0, 0.0, 536.1736459939058, 0.0]
['beep', 0.0, -1520.119788660978, 0.0, 0.0, 0.0, 0.0, 538.9005588174533, 0.0]
['beep', 0.0, -1516.2752886146652, 0.0, 0.0, 0.0, 0.0, 542.9685763083191, 0.0]
['beep', 0.0, -1513.8165967245814, 0.0, 0.0, 0.0, 0.0, 543.39325945297, 0.0]
['beep', 0.0, -1516.5211578036735, 0.0, 0.0, 0.0, 0.0, 538.8111518396321, 0.0]
['beep', 0.0, -1519.829215983059, 0.0, 0.0, 0.0, 0.0, 535.7266111047996, 0.0]
['beep', 0.0, -1520.3880095944417, 0.0, 0.0, 0.0, 0.0, 538.3194134616153, 0.0]
['beep', 0.0, -1517.1023031595116, 0.0, 0.0, 0.0, 0.0, 543.4379629418806, 0.0]
['beep', 0.0, -1514.8447769695256, 0.0, 0.0, 0.0, 0.0, 543.5720734086125, 0.0]
['beep', 0.0, -1517.1023031595116, 0.0, 0.0, 0.0, 0.0, 539.5040559177465, 0.0]
['beep', 0.0, -1519.8068642386038, 0.0, 0.0, 0.0, 0.0, 536.8665500720203, 0.0]
['beep', 0.0, -1519.8515677275143, 0.0, 0.0, 0.0, 0.0, 537.6265093835008, 0.0]
['beep', 0.0, -1515.3365153475422, 0.0, 0.0, 0.0, 0.0, 542.2309687412941, 0.0]
['beep', 0.0, -1512.6990095018161, 0.0, 0.0, 0.0, 0.0, 541.9850995522856, 0.0]
['beep', 0.0, -1515.0459426696234, 0.0, 0.0, 0.0, 0.0, 537.6935646168668, 0.0]
['beep', 0.0, -1518.4210560823747, 0.0, 0.0, 0.0, 0.0, 535.3689831935147, 0.0]
['beep', 0.0, -1517.6163932819836, 0.0, 0.0, 0.0, 0.0, 537.7606198502326, 0.0]
['beep', 0.0, -1514.1518728914111, 0.0, 0.0, 0.0, 0.0, 544.2426257422717, 0.0]
['beep', 0.0, -1511.9390501903356, 0.0, 0.0, 0.0, 0.0, 545.069640287118, 0.0]
['beep', 0.0, -1515.2024048808105, 0.0, 0.0, 0.0, 0.0, 540.331070462593, 0.0]
['beep', 0.0, -1519.0692566715786, 0.0, 0.0, 0.0, 0.0, 535.9054250604421, 0.0]
['beep', 0.0, -1519.1586636493998, 0.0, 0.0, 0.0, 0.0, 538.0735442726069, 0.0]
['beep', 0.0, -1514.9341839473468, 0.0, 0.0, 0.0, 0.0, 543.102686775051, 0.0]
['beep', 0.0, -1512.6319542684503, 0.0, 0.0, 0.0, 0.0, 543.8402943420762, 0.0]
['beep', 0.0, -1514.5542042916065, 0.0, 0.0, 0.0, 0.0, 539.682869873389, 0.0]
['beep', 0.0, -1518.510463060196, 0.0, 0.0, 0.0, 0.0, 534.2290442262941, 0.0]
['beep', 0.0, -1519.6280502829613, 0.0, 0.0, 0.0, 0.0, 537.0230122832074, 0.0]
['beep', 0.0, -1516.6776200148608, 0.0, 0.0, 0.0, 0.0, 544.2649774867269, 0.0]
['beep', 0.0, -1512.5648990350842, 0.0, 0.0, 0.0, 0.0, 544.7120123758331, 0.0]
['beep', 0.0, -1515.381218836453, 0.0, 0.0, 0.0, 0.0, 539.2134832398276, 0.0]
['beep', 0.0, -1519.1586636493998, 0.0, 0.0, 0.0, 0.0, 535.1231140045064, 0.0]
['beep', 0.0, -1518.7116287602937, 0.0, 0.0, 0.0, 0.0, 537.9841372947857, 0.0]
['beep', 0.0, -1515.3365153475422, 0.0, 0.0, 0.0, 0.0, 542.521541419213, 0.0]
['beep', 0.0, -1512.5201955461737, 0.0, 0.0, 0.0, 0.0, 542.0298030411963, 0.0]
['beep', 0.0, -1516.476454314763, 0.0, 0.0, 0.0, 0.0, 537.782971594688, 0.0]
['beep', 0.0, -1520.3880095944417, 0.0, 0.0, 0.0, 0.0, 533.9608232928305, 0.0]
['beep', 0.0, -1519.9409747053355, 0.0, 0.0, 0.0, 0.0, 535.0560587711404, 0.0]
['beep', 0.0, -1514.5318525471512, 0.0, 0.0, 0.0, 0.0, 538.364116950526, 0.0]
['beep', 0.0, -1512.609602523995, 0.0, 0.0, 0.0, 0.0, 539.5711111511125, 0.0]
['beep', 0.0, -1515.4035705809083, 0.0, 0.0, 0.0, 0.0, 537.0900675165734, 0.0]
['beep', 0.0, -1519.4492363273189, 0.0, 0.0, 0.0, 0.0, 532.6644221144226, 0.0]
['beep', 0.0, -1520.052733427612, 0.0, 0.0, 0.0, 0.0, 534.5643203931237, 0.0]
['beep', 0.0, -1517.124654903967, 0.0, 0.0, 0.0, 0.0, 539.749925106755, 0.0]
['beep', 0.0, -1514.1518728914111, 0.0, 0.0, 0.0, 0.0, 538.9229105619086, 0.0]
['beep', 0.0, -1515.9400124478357, 0.0, 0.0, 0.0, 0.0, 536.330108205093, 0.0]
['beep', 0.0, -1520.3880095944417, 0.0, 0.0, 0.0, 0.0, 534.072582015107, 0.0]
['beep', 0.0, -1520.410361338897, 0.0, 0.0, 0.0, 0.0, 534.1619889929282, 0.0]
['beep', 0.0, -1516.342343848031, 0.0, 0.0, 0.0, 0.0, 540.0852012735845, 0.0]
['beep', 0.0, -1513.3919135799306, 0.0, 0.0, 0.0, 0.0, 540.2863669736823, 0.0]
['beep', 0.0, -1516.2752886146652, 0.0, 0.0, 0.0, 0.0, 536.1736459939058, 0.0]
['beep', 0.0, -1520.0974369165226, 0.0, 0.0, 0.0, 0.0, 531.9715180363081, 0.0]
['beep', 0.0, -1519.5609950495952, 0.0, 0.0, 0.0, 0.0, 531.3456691915595, 0.0]
['beep', 0.0, -1516.4317508258523, 0.0, 0.0, 0.0, 0.0, 537.5818058945902, 0.0]
['beep', 0.0, -1515.3588670919976, 0.0, 0.0, 0.0, 0.0, 541.0463262851628, 0.0]
['beep', 0.0, -1518.2422421267322, 0.0, 0.0, 0.0, 0.0, 537.1794744943946, 0.0]
['beep', 0.0, -1522.8467014845255, 0.0, 0.0, 0.0, 0.0, 532.5526633921461, 0.0]
['beep', 0.0, -1522.4220183398747, 0.0, 0.0, 0.0, 0.0, 533.491436659269, 0.0]
['beep', 0.0, -1517.5716897930731, 0.0, 0.0, 0.0, 0.0, 538.6770413729002, 0.0]
['beep', 0.0, -1514.733018247249, 0.0, 0.0, 0.0, 0.0, 538.5429309061684, 0.0]
['beep', 0.0, -1515.090646158534, 0.0, 0.0, 0.0, 0.0, 533.491436659269, 0.0]
['beep', 0.0, -1516.2529368702099, 0.0, 0.0, 0.0, 0.0, 532.4409046698695, 0.0]
['beep', 0.0, -1515.4706258142742, 0.0, 0.0, 0.0, 0.0, 534.1396372484729, 0.0]
['beep', 0.0, -1510.7320559897491, 0.0, 0.0, 0.0, 0.0, 538.6770413729002, 0.0]
['beep', 0.0, -1508.027494910657, 0.0, 0.0, 0.0, 0.0, 541.6721751299114, 0.0]
['beep', 0.0, -1511.827291468059, 0.0, 0.0, 0.0, 0.0, 537.6265093835008, 0.0]
['beep', 0.0, -1516.990544437235, 0.0, 0.0, 0.0, 0.0, 533.4690849148137, 0.0]
['beep', 0.0, -1518.2645938711876, 0.0, 0.0, 0.0, 0.0, 533.6255471260008, 0.0]
['beep', 0.0, -1515.828253725559, 0.0, 0.0, 0.0, 0.0, 538.0288407836963, 0.0]
['beep', 0.0, -1514.2859833581429, 0.0, 0.0, 0.0, 0.0, 541.716878618822, 0.0]
['beep', 0.0, -1516.2752886146652, 0.0, 0.0, 0.0, 0.0, 536.3524599495482, 0.0]
['beep', 0.0, -1519.829215983059, 0.0, 0.0, 0.0, 0.0, 531.0103930247299, 0.0]
['beep', 0.0, -1518.7563322492042, 0.0, 0.0, 0.0, 0.0, 533.1114570035287, 0.0]
