['beep', 0.0, -1528.3675823649862, 0.0, 0.0, 0.0, 0.0, 515.7217998172998, 0.0]
['beep', 0.0, -1532.7038207893158, 0.0, 0.0, 0.0, 0.0, 514.201881194339, 0.0]
['beep', 0.0, -1529.0828381875563, 0.0, 0.0, 0.0, 0.0, 517.7334568182775, 0.0]
['beep', 0.0, -1523.2043293958104, 0.0, 0.0, 0.0, 0.0, 521.4885498867691, 0.0]
['beep', 0.0, -1524.120750918478, 0.0, 0.0, 0.0, 0.0, 519.5215963747021, 0.0]
['beep', 0.0, -1529.35105912102, 0.0, 0.0, 0.0, 0.0, 513.5536806051351, 0.0]
['beep', 0.0, -1533.9108149899025, 0.0, 0.0, 0.0, 0.0, 512.8831282714758, 0.0]
['beep', 0.0, -1530.3345358770534, 0.0, 0.0, 0.0, 0.0, 516.6829248288781, 0.0]
['beep', 0.0, -1523.6513642849166, 0.0, 0.0, 0.0, 0.0, 523.0531719986406, 0.0]
['beep', 0.0, -1524.7465997632266, 0.0, 0.0, 0.0, 0.0, 520.1250934749953, 0.0]
['beep', 0.0, -1531.3627161219974, 0.0, 0.0, 0.0, 0.0, 514.7830265501769, 0.0]
['beep', 0.0, -1535.698954546327, 0.0, 0.0, 0.0, 0.0, 513.8889567719647, 0.0]
['beep', 0.0, -1531.0721434440784, 0.0, 0.0, 0.0, 0.0, 518.0240294961965, 0.0]
['beep', 0.0, -1523.2043293958104, 0.0, 0.0, 0.0, 0.0, 521.9355847758752, 0.0]
['beep', 0.0, -1522.4667218287852, 0.0, 0.0, 0.0, 0.0, 519.4992446302467, 0.0]
['beep', 0.0, -1529.6639835433941, 0.0, 0.0, 0.0, 0.0, 514.9394887613641, 0.0]
['beep', 0.0, -1533.4861318452517, 0.0, 0.0, 0.0, 0.0, 512.6596108269227, 0.0]
['beep', 0.0, -1528.993431209735, 0.0, 0.0, 0.0, 0.0, 516.4147038954144, 0.0]
['beep', 0.0, -1522.4443700843299, 0.0, 0.0, 0.0, 0.0, 521.4438463978585, 0.0]
['beep', 0.0, -1522.8243497400701, 0.0, 0.0, 0.0, 0.0, 519.9686312638082, 0.0]
['beep', 0.0, -1528.4569893428074, 0.0, 0.0, 0.0, 0.0, 513.039590482663, 0.0]
['beep', 0.0, -1532.793227767137, 0.0, 0.0, 0.0, 0.0, 511.0949887150513, 0.0]
['beep', 0.0, -1530.4462945993298, 0.0, 0.0, 0.0, 0.0, 515.9676690063083, 0.0]
['beep', 0.0, -1524.120750918478, 0.0, 0.0, 0.0, 0.0, 519.7674655637104, 0.0]
['beep', 0.0, -1524.500730574218, 0.0, 0.0, 0.0, 0.0, 517.91227077392, 0.0]
['beep', 0.0, -1531.2286056552657, 0.0, 0.0, 0.0, 0.0, 514.4701021278026, 0.0]
['beep', 0.0, -1535.184864423855, 0.0, 0.0, 0.0, 0.0, 512.8384247825652, 0.0]
['beep', 0.0, -1531.8097510111036, 0.0, 0.0, 0.0, 0.0, 515.3865236504703, 0.0]
['beep', 0.0, -1525.6183177969835, 0.0, 0.0, 0.0, 0.0, 519.8568725415316, 0.0]
['beep', 0.0, -1524.4113235963969, 0.0, 0.0, 0.0, 0.0, 517.8005120516434, 0.0]
['beep', 0.0, -1530.4686463437852, 0.0, 0.0, 0.0, 0.0, 512.5478521046463, 0.0]
['beep', 0.0, -1536.4589138578074, 0.0, 0.0, 0.0, 0.0, 511.81024453762114, 0.0]
['beep', 0.0, -1532.5920620670395, 0.0, 0.0, 0.0, 0.0, 514.6712678279005, 0.0]
['beep', 0.0, -1523.8525299850144, 0.0, 0.0, 0.0, 0.0, 519.1416167189618, 0.0]
['beep', 0.0, -1523.7854747516483, 0.0, 0.0, 0.0, 0.0, 517.7334568182775, 0.0]
['beep', 0.0, -1531.697992288827, 0.0, 0.0, 0.0, 0.0, 512.7043143158334, 0.0]
['beep', 0.0, -1536.056582457612, 0.0, 0.0, 0.0, 0.0, 512.167872448906, 0.0]
['beep', 0.0, -1531.7426957777377, 0.0, 0.0, 0.0, 0.0, 516.4370556398696, 0.0]
['beep', 0.0, -1524.5454340631288, 0.0, 0.0, 0.0, 0.0, 520.5050731307356, 0.0]
['beep', 0.0, -1524.6571927854054, 0.0, 0.0, 0.0, 0.0, 519.812169052621, 0.0]
['beep', 0.0, -1531.6756405443718, 0.0, 0.0, 0.0, 0.0, 515.2300614392831, 0.0]
['beep', 0.0, -1535.6542510574163, 0.0, 0.0, 0.0, 0.0, 512.8607765270206, 0.0]
['beep', 0.0, -1530.669812043883, 0.0, 0.0, 0.0, 0.0, 518.1804917073837, 0.0]
['beep', 0.0, -1523.1372741624446, 0.0, 0.0, 0.0, 0.0, 522.2708609427049, 0.0]
['beep', 0.0, -1523.6290125404612, 0.0, 0.0, 0.0, 0.0, 520.5497766196462, 0.0]
['beep', 0.0, -1530.1110184325003, 0.0, 0.0, 0.0, 0.0, 515.297116672649, 0.0]
['beep', 0.0, -1533.6425940564388, 0.0, 0.0, 0.0, 0.0, 513.91130851642, 0.0]
['beep', 0.0, -1530.2898323881427, 0.0, 0.0, 0.0, 0.0, 516.7946835511545, 0.0]
['beep', 0.0, -1525.3724486079752, 0.0, 0.0, 0.0, 0.0, 520.4156661529144, 0.0]
['beep', 0.0, -1523.9419369628356, 0.0, 0.0, 0.0, 0.0, 518.8510440410429, 0.0]
['beep', 0.0, -1529.574576565573, 0.0, 0.0, 0.0, 0.0, 514.0677707276071, 0.0]
['beep', 0.0, -1533.3073178896093, 0.0, 0.0, 0.0, 0.0, 512.3466864045484, 0.0]
['beep', 0.0, -1529.1722451653775, 0.0, 0.0, 0.0, 0.0, 516.8617387845205, 0.0]
['beep', 0.0, -1524.3666201074864, 0.0, 0.0, 0.0, 0.0, 520.1921487083613, 0.0]
['beep', 0.0, -1524.2101578962993, 0.0, 0.0, 0.0, 0.0, 518.0463812406518, 0.0]
['beep', 0.0, -1530.7368672772488, 0.0, 0.0, 0.0, 0.0, 512.8607765270206, 0.0]
['beep', 0.0, -1534.313146390098, 0.0, 0.0, 0.0, 0.0, 510.29032591466023, 0.0]
['beep', 0.0, -1529.9992597102237, 0.0, 0.0, 0.0, 0.0, 514.7159713168111, 0.0]
['beep', 0.0, -1523.6513642849166, 0.0, 0.0, 0.0, 0.0, 519.0969132300512, 0.0]
['beep', 0.0, -1523.4278468403634, 0.0, 0.0, 0.0, 0.0, 517.5993463515457, 0.0]
['beep', 0.0, -1530.1110184325003, 0.0, 0.0, 0.0, 0.0, 512.3913898934591, 0.0]
['beep', 0.0, -1534.8048847681148, 0.0, 0.0, 0.0, 0.0, 511.1620439484172, 0.0]
['beep', 0.0, -1531.0497916996233, 0.0, 0.0, 0.0, 0.0, 514.4030468944368, 0.0]
['beep', 0.0, -1524.0760474295673, 0.0, 0.0, 0.0, 0.0, 518.1357882184731, 0.0]
['beep', 0.0, -1523.8078264961036, 0.0, 0.0, 0.0, 0.0, 517.621698096001, 0.0]
['beep', 0.0, -1530.1110184325003, 0.0, 0.0, 0.0, 0.0, 512.5031486157357, 0.0]
['beep', 0.0, -1533.8661115009918, 0.0, 0.0, 0.0, 0.0, 510.64795382594514, 0.0]
['beep', 0.0, -1529.8875009879473, 0.0, 0.0, 0.0, 0.0, 514.7159713168111, 0.0]
['beep', 0.0, -1524.3889718519417, 0.0, 0.0, 0.0, 0.0, 518.3593056630261, 0.0]
['beep', 0.0, -1524.3219166185756, 0.0, 0.0, 0.0, 0.0, 517.8899190294646, 0.0]
['beep', 0.0, -1530.3568876215086, 0.0, 0.0, 0.0, 0.0, 511.7431893042552, 0.0]
['beep', 0.0, -1533.6425940564388, 0.0, 0.0, 0.0, 0.0, 511.0949887150513, 0.0]
['beep', 0.0, -1528.6358032984501, 0.0, 0.0, 0.0, 0.0, 516.0794277285847, 0.0]
['beep', 0.0, -1520.566823550084, 0.0, 0.0, 0.0, 0.0, 521.7120673313221, 0.0]
['beep', 0.0, -1518.7786839936596, 0.0, 0.0, 0.0, 0.0, 522.5390818761686, 0.0]
['beep', 0.0, -1523.6290125404612, 0.0, 0.0, 0.0, 0.0, 517.5099393737245, 0.0]
['beep', 0.0, -1526.8700154864807, 0.0, 0.0, 0.0, 0.0, 515.00654399473, 0.0]
['beep', 0.0, -1525.1042276745115, 0.0, 0.0, 0.0, 0.0, 520.3262591750931, 0.0]
['beep', 0.0, -1521.3938380949305, 0.0, 0.0, 0.0, 0.0, 524.7295528327886, 0.0]
['beep', 0.0, -1521.72911426176, 0.0, 0.0, 0.0, 0.0, 524.5283871326908, 0.0]
['beep', 0.0, -1528.4569893428074, 0.0, 0.0, 0.0, 0.0, 519.588651608068, 0.0]
['beep', 0.0, -1534.4696086012852, 0.0, 0.0, 0.0, 0.0, 517.3311254180819, 0.0]
['beep', 0.0, -1530.2898323881427, 0.0, 0.0, 0.0, 0.0, 522.8073028096322, 0.0]
['beep', 0.0, -1523.2713846291763, 0.0, 0.0, 0.0, 0.0, 526.5847476225791, 0.0]
['beep', 0.0, -1523.2937363736316, 0.0, 0.0, 0.0, 0.0, 524.7519045772439, 0.0]
['beep', 0.0, -1528.9487277208243, 0.0, 0.0, 0.0, 0.0, 519.5439481191573, 0.0]
['beep', 0.0, -1532.770876022682, 0.0, 0.0, 0.0, 0.0, 517.6887533293669, 0.0]
['beep', 0.0, -1529.5522248211175, 0.0, 0.0, 0.0, 0.0, 521.91323303142, 0.0]
['beep', 0.0, -1523.5172538181846, 0.0, 0.0, 0.0, 0.0, 526.0483057556518, 0.0]
['beep', 0.0, -1523.249032884721, 0.0, 0.0, 0.0, 0.0, 524.4389801548696, 0.0]
['beep', 0.0, -1529.507521332207, 0.0, 0.0, 0.0, 0.0, 518.8510440410429, 0.0]
['beep', 0.0, -1533.3296696340644, 0.0, 0.0, 0.0, 0.0, 518.3593056630261, 0.0]
['beep', 0.0, -1529.574576565573, 0.0, 0.0, 0.0, 0.0, 521.1309219754842, 0.0]
['beep', 0.0, -1523.4278468403634, 0.0, 0.0, 0.0, 0.0, 525.3777534219925, 0.0]
['beep', 0.0, -1522.6231840399723, 0.0, 0.0, 0.0, 0.0, 523.4107999099255, 0.0]
['beep', 0.0, -1528.9487277208243, 0.0, 0.0, 0.0, 0.0, 517.7558085627328, 0.0]
['beep', 0.0, -1533.8884632454472, 0.0, 0.0, 0.0, 0.0, 516.8393870400652, 0.0]
['beep', 0.0, -1531.027439955168, 0.0, 0.0, 0.0, 0.0, 520.5274248751908, 0.0]
['beep', 0.0, -1523.8525299850144, 0.0, 0.0, 0.0, 0.0, 525.0648289996182, 0.0]
['beep', 0.0, -1523.6290125404612, 0.0, 0.0, 0.0, 0.0, 523.0084685097299, 0.0]
['beep', 0.0, -1529.0157829541902, 0.0, 0.0, 0.0, 0.0, 518.0463812406518, 0.0]
['beep', 0.0, -1534.4249051123745, 0.0, 0.0, 0.0, 0.0, 516.5711661066015, 0.0]
['beep', 0.0, -1531.0721434440784, 0.0, 0.0, 0.0, 0.0, 520.1474452194507, 0.0]
['beep', 0.0, -1523.986640451746, 0.0, 0.0, 0.0, 0.0, 524.5283871326908, 0.0]
['beep', 0.0, -1523.5172538181846, 0.0, 0.0, 0.0, 0.0, 524.036648754674, 0.0]
['beep', 0.0, -1530.4462945993298, 0.0, 0.0, 0.0, 0.0, 518.9851545077747, 0.0]
['beep', 0.0, -1533.7096492898047, 0.0, 0.0, 0.0, 0.0, 516.6158695955121, 0.0]
['beep', 0.0, -1528.6581550429053, 0.0, 0.0, 0.0, 0.0, 521.5332533756797, 0.0]
['beep', 0.0, -1522.019686939679, 0.0, 0.0, 0.0, 0.0, 525.6906778443669, 0.0]
['beep', 0.0, -1522.734942762249, 0.0, 0.0, 0.0, 0.0, 524.0813522435847, 0.0]
['beep', 0.0, -1529.4404660988412, 0.0, 0.0, 0.0, 0.0, 518.8957475299535, 0.0]
['beep', 0.0, -1533.5084835897069, 0.0, 0.0, 0.0, 0.0, 517.9346225183752, 0.0]
['beep', 0.0, -1528.5016928317182, 0.0, 0.0, 0.0, 0.0, 520.683887086378, 0.0]
['beep', 0.0, -1522.3102596175981, 0.0, 0.0, 0.0, 0.0, 524.5730906216014, 0.0]
['beep', 0.0, -1522.8690532289809, 0.0, 0.0, 0.0, 0.0, 523.880186543487, 0.0]
['beep', 0.0, -1528.6134515539948, 0.0, 0.0, 0.0, 0.0, 518.3146021741155, 0.0]
['beep', 0.0, -1533.1285039339668, 0.0, 0.0, 0.0, 0.0, 516.7723318066993, 0.0]
['beep', 0.0, -1529.73103877676, 0.0, 0.0, 0.0, 0.0, 521.1309219754842, 0.0]
['beep', 0.0, -1524.187806151844, 0.0, 0.0, 0.0, 0.0, 524.394276665959, 0.0]
['beep', 0.0, -1522.8467014845255, 0.0, 0.0, 0.0, 0.0, 522.6061371095344, 0.0]
['beep', 0.0, -1529.7757422656707, 0.0, 0.0, 0.0, 0.0, 517.6887533293669, 0.0]
['beep', 0.0, -1534.7825330236594, 0.0, 0.0, 0.0, 0.0, 516.1911864508613, 0.0]
['beep', 0.0, -1529.9992597102237, 0.0, 0.0, 0.0, 0.0, 520.1921487083613, 0.0]
['beep', 0.0, -1522.6902392733384, 0.0, 0.0, 0.0, 0.0, 524.1931109658613, 0.0]
['beep', 0.0, -1523.181977651355, 0.0, 0.0, 0.0, 0.0, 522.5614336206238, 0.0]
['beep', 0.0, -1528.9040242319138, 0.0, 0.0, 0.0, 0.0, 518.1357882184731, 0.0]
['beep', 0.0, -1531.9215097333802, 0.0, 0.0, 0.0, 0.0, 514.4701021278026, 0.0]
['beep', 0.0, -1527.8758439869696, 0.0, 0.0, 0.0, 0.0, 519.4321893968809, 0.0]
['beep', 0.0, -1521.1926723948327, 0.0, 0.0, 0.0, 0.0, 525.0871807440735, 0.0]
['beep', 0.0, -1520.8126927390927, 0.0, 0.0, 0.0, 0.0, 523.9472417768528, 0.0]
['beep', 0.0, -1527.6970300313271, 0.0, 0.0, 0.0, 0.0, 518.9851545077747, 0.0]
['beep', 0.0, -1531.5638818220953, 0.0, 0.0, 0.0, 0.0, 517.1299597179842, 0.0]
['beep', 0.0, -1526.601794553017, 0.0, 0.0, 0.0, 0.0, 522.3155644316155, 0.0]
['beep', 0.0, -1520.8350444835478, 0.0, 0.0, 0.0, 0.0, 527.8811488009869, 0.0]
['beep', 0.0, -1521.6620590283942, 0.0, 0.0, 0.0, 0.0, 527.8587970565316, 0.0]
['beep', 0.0, -1527.764085264693, 0.0, 0.0, 0.0, 0.0, 523.231985954283, 0.0]
['beep', 0.0, -1531.3850678664528, 0.0, 0.0, 0.0, 0.0, 522.6955440873556, 0.0]
['beep', 0.0, -1527.5182160756847, 0.0, 0.0, 0.0, 0.0, 528.7528668347438, 0.0]
['beep', 0.0, -1521.5279485616625, 0.0, 0.0, 0.0, 0.0, 532.5750151366013, 0.0]
['beep', 0.0, -1521.9302799618579, 0.0, 0.0, 0.0, 0.0, 531.7927040806657, 0.0]
['beep', 0.0, -1528.2334718982545, 0.0, 0.0, 0.0, 0.0, 526.9200237894087, 0.0]
['beep', 0.0, -1533.1955591673327, 0.0, 0.0, 0.0, 0.0, 526.0036022667412, 0.0]
['beep', 0.0, -1531.2509573997208, 0.0, 0.0, 0.0, 0.0, 529.8257505685987, 0.0]
['beep', 0.0, -1523.2043293958104, 0.0, 0.0, 0.0, 0.0, 534.072582015107, 0.0]
['beep', 0.0, -1518.4881113157405, 0.0, 0.0, 0.0, 0.0, 535.681907615889, 0.0]
['beep', 0.0, -1522.9808119512572, 0.0, 0.0, 0.0, 0.0, 532.2173872253164, 0.0]
['beep', 0.0, -1531.3627161219974, 0.0, 0.0, 0.0, 0.0, 532.4409046698695, 0.0]
['beep', 0.0, -1531.0050882107125, 0.0, 0.0, 0.0, 0.0, 541.426305940903, 0.0]
['beep', 0.0, -1523.316088118087, 0.0, 0.0, 0.0, 0.0, 547.39422171047, 0.0]
['beep', 0.0, -1517.6610967708943, 0.0, 0.0, 0.0, 0.0, 547.4612769438359, 0.0]
['beep', 0.0, -1520.6338787834502, 0.0, 0.0, 0.0, 0.0, 544.7343641202884, 0.0]
['beep', 0.0, -1524.5677858075842, 0.0, 0.0, 0.0, 0.0, 544.8014193536543, 0.0]
['beep', 0.0, -1522.9808119512572, 0.0, 0.0, 0.0, 0.0, 553.9879863247855, 0.0]
['beep', 0.0, -1518.44340782683, 0.0, 0.0, 0.0, 0.0, 559.6653294164336, 0.0]
['beep', 0.0, -1515.3588670919976, 0.0, 0.0, 0.0, 0.0, 560.2017712833609, 0.0]
['beep', 0.0, -1520.8797479724585, 0.0, 0.0, 0.0, 0.0, 556.7819543816989, 0.0]
['beep', 0.0, -1527.5629195645952, 0.0, 0.0, 0.0, 0.0, 555.7761258812101, 0.0]
['beep', 0.0, -1524.8360067410479, 0.0, 0.0, 0.0, 0.0, 561.7216899063218, 0.0]
['beep', 0.0, -1518.666925271383, 0.0, 0.0, 0.0, 0.0, 568.1142888205396, 0.0]
['beep', 0.0, -1516.7223235037713, 0.0, 0.0, 0.0, 0.0, 568.6060271985564, 0.0]
['beep', 0.0, -1524.5230823186735, 0.0, 0.0, 0.0, 0.0, 563.5098294627463, 0.0]
['beep', 0.0, -1530.6474602994276, 0.0, 0.0, 0.0, 0.0, 563.6215881850229, 0.0]
['beep', 0.0, -1526.7135532752936, 0.0, 0.0, 0.0, 0.0, 567.9354748648972, 0.0]
['beep', 0.0, -1519.5833467940506, 0.0, 0.0, 0.0, 0.0, 572.1599545669502, 0.0]
['beep', 0.0, -1518.7116287602937, 0.0, 0.0, 0.0, 0.0, 570.6400359439893, 0.0]
['beep', 0.0, -1528.5910998095394, 0.0, 0.0, 0.0, 0.0, 563.6886434183888, 0.0]
['beep', 0.0, -1525.0818759300562, 0.0, 0.0, 0.0, 0.0, 566.8178876421318, 0.0]
['beep', 0.0, -1518.3987043379193, 0.0, 0.0, 0.0, 0.0, 571.3776435110144, 0.0]
['beep', 0.0, -1518.0634281710898, 0.0, 0.0, 0.0, 0.0, 570.9976638552743, 0.0]
['beep', 0.0, -1524.500730574218, 0.0, 0.0, 0.0, 0.0, 566.0132248417408, 0.0]
['beep', 0.0, -1529.2393003987434, 0.0, 0.0, 0.0, 0.0, 564.2474370297715, 0.0]
['beep', 0.0, -1526.2665183861875, 0.0, 0.0, 0.0, 0.0, 566.9072946199531, 0.0]
['beep', 0.0, -1519.0469049271233, 0.0, 0.0, 0.0, 0.0, 570.2824080327044, 0.0]
['beep', 0.0, -1517.4375793263412, 0.0, 0.0, 0.0, 0.0, 568.4942684762798, 0.0]
['beep', 0.0, -1523.4054950959082, 0.0, 0.0, 0.0, 0.0, 562.5934079400788, 0.0]
['beep', 0.0, -1527.7193817757825, 0.0, 0.0, 0.0, 0.0, 560.3135300056374, 0.0]
['beep', 0.0, -1524.63484104095, 0.0, 0.0, 0.0, 0.0, 563.6215881850229, 0.0]
['beep', 0.0, -1518.7563322492042, 0.0, 0.0, 0.0, 0.0, 567.6449021869781, 0.0]
['beep', 0.0, -1518.152835148911, 0.0, 0.0, 0.0, 0.0, 566.035576586196, 0.0]
['beep', 0.0, -1523.696067773827, 0.0, 0.0, 0.0, 0.0, 560.425288727914, 0.0]
['beep', 0.0, -1550.9204925203912, 0.0, 0.0, 0.0, 0.0, 505.4399973678586, 0.0]
['beep', 0.0, -1556.8437048010476, 0.0, 0.0, 0.0, 0.0, 499.9191164873978, 0.0]
['beep', 0.0, -1556.2849111896649, 0.0, 0.0, 0.0, 0.0, 499.29326764264914, 0.0]
['beep', 0.0, -1551.8369140430586, 0.0, 0.0, 0.0, 0.0, 501.3719798769927, 0.0]
['beep', 0.0, -1549.02059424169, 0.0, 0.0, 0.0, 0.0, 500.589668821057, 0.0]
['beep', 0.0, -1553.446239643841, 0.0, 0.0, 0.0, 0.0, 494.7335117737665, 0.0]
['beep', 0.0, -1559.5482658801398, 0.0, 0.0, 0.0, 0.0, 488.07269192608504, 0.0]
['beep', 0.0, -1558.6318443574721, 0.0, 0.0, 0.0, 0.0, 486.28455236966045, 0.0]
['beep', 0.0, -1552.440411143352, 0.0, 0.0, 0.0, 0.0, 488.40796809291464, 0.0]
['beep', 0.0, -1547.9030070189247, 0.0, 0.0, 0.0, 0.0, 488.2962093706381, 0.0]
['beep', 0.0, -1552.5968733545392, 0.0, 0.0, 0.0, 0.0, 483.71410175730017, 0.0]
['beep', 0.0, -1558.2295129572765, 0.0, 0.0, 0.0, 0.0, 479.82489822207674, 0.0]
['beep', 0.0, -1556.8213530565922, 0.0, 0.0, 0.0, 0.0, 478.461441810303, 0.0]
['beep', 0.0, -1550.473457631285, 0.0, 0.0, 0.0, 0.0, 480.24958136672757, 0.0]
['beep', 0.0, -1546.9418820073465, 0.0, 0.0, 0.0, 0.0, 480.3166366000935, 0.0]
['beep', 0.0, -1551.0769547315783, 0.0, 0.0, 0.0, 0.0, 475.19808711982813, 0.0]
['beep', 0.0, -1557.02251875669, 0.0, 0.0, 0.0, 0.0, 470.43716555084774, 0.0]
['beep', 0.0, -1557.5813123680728, 0.0, 0.0, 0.0, 0.0, 472.96291267429746, 0.0]
['beep', 0.0, -1551.2334169427654, 0.0, 0.0, 0.0, 0.0, 476.38272957595944, 0.0]
['beep', 0.0, -1547.567730852095, 0.0, 0.0, 0.0, 0.0, 476.9638749317974, 0.0]
['beep', 0.0, -1551.9710245097906, 0.0, 0.0, 0.0, 0.0, 472.202953362817, 0.0]
['beep', 0.0, -1558.5200856351955, 0.0, 0.0, 0.0, 0.0, 467.2185143492835, 0.0]
['beep', 0.0, -1557.2236844567879, 0.0, 0.0, 0.0, 0.0, 468.0455288941299, 0.0]
['beep', 0.0, -1549.221759941788, 0.0, 0.0, 0.0, 0.0, 471.6888632403449, 0.0]
['beep', 0.0, -1544.863169773003, 0.0, 0.0, 0.0, 0.0, 471.7782702181662, 0.0]
['beep', 0.0, -1548.1712279523883, 0.0, 0.0, 0.0, 0.0, 466.6150172489902, 0.0]
['beep', 0.0, -1554.2285506997766, 0.0, 0.0, 0.0, 0.0, 462.7481654582221, 0.0]
['beep', 0.0, -1555.122620477989, 0.0, 0.0, 0.0, 0.0, 465.5868370040461, 0.0]
['beep', 0.0, -1547.6571378299163, 0.0, 0.0, 0.0, 0.0, 469.5654475170908, 0.0]
['beep', 0.0, -1542.3597743940086, 0.0, 0.0, 0.0, 0.0, 469.52074402818016, 0.0]
['beep', 0.0, -1546.5619023516062, 0.0, 0.0, 0.0, 0.0, 464.9386364148422, 0.0]
['beep', 0.0, -1552.5745216100838, 0.0, 0.0, 0.0, 0.0, 461.9882061467417, 0.0]
['beep', 0.0, -1552.2839489321648, 0.0, 0.0, 0.0, 0.0, 462.97168290277517, 0.0]
['beep', 0.0, -1546.2713296736872, 0.0, 0.0, 0.0, 0.0, 465.8774096819651, 0.0]
['beep', 0.0, -1543.566768594595, 0.0, 0.0, 0.0, 0.0, 464.2904358256383, 0.0]
['beep', 0.0, -1549.244111686243, 0.0, 0.0, 0.0, 0.0, 460.53534275714674, 0.0]
['beep', 0.0, -1554.8543995445252, 0.0, 0.0, 0.0, 0.0, 458.05429912260763, 0.0]
['beep', 0.0, -1555.0108617557123, 0.0, 0.0, 0.0, 0.0, 459.3507003010154, 0.0]
['beep', 0.0, -1548.1935796968437, 0.0, 0.0, 0.0, 0.0, 462.9940346472305, 0.0]
['beep', 0.0, -1544.0361552281565, 0.0, 0.0, 0.0, 0.0, 462.97168290277517, 0.0]
['beep', 0.0, -1547.277158174176, 0.0, 0.0, 0.0, 0.0, 458.41192703389254, 0.0]
['beep', 0.0, -1554.5191233776957, 0.0, 0.0, 0.0, 0.0, 454.03098512065236, 0.0]
['beep', 0.0, -1554.1614954664108, 0.0, 0.0, 0.0, 0.0, 454.38861303193727, 0.0]
['beep', 0.0, -1547.634786085461, 0.0, 0.0, 0.0, 0.0, 460.4235840348702, 0.0]
['beep', 0.0, -1544.371431394986, 0.0, 0.0, 0.0, 0.0, 460.93767415734226, 0.0]
['beep', 0.0, -1548.9311872638689, 0.0, 0.0, 0.0, 0.0, 456.19910433281717, 0.0]
['beep', 0.0, -1556.5307803786732, 0.0, 0.0, 0.0, 0.0, 451.54994148611325, 0.0]
['beep', 0.0, -1556.5531321231285, 0.0, 0.0, 0.0, 0.0, 452.5334182421468, 0.0]
['beep', 0.0, -1552.2615971877096, 0.0, 0.0, 0.0, 0.0, 457.13787759994005, 0.0]
['beep', 0.0, -1548.081820974567, 0.0, 0.0, 0.0, 0.0, 458.3448718005266, 0.0]
['beep', 0.0, -1551.9710245097906, 0.0, 0.0, 0.0, 0.0, 453.5168949981803, 0.0]
['beep', 0.0, -1557.670719345894, 0.0, 0.0, 0.0, 0.0, 450.6335199634457, 0.0]
['beep', 0.0, -1555.5473036226397, 0.0, 0.0, 0.0, 0.0, 451.7958106751217, 0.0]
['beep', 0.0, -1548.1265244634778, 0.0, 0.0, 0.0, 0.0, 453.94157814283113, 0.0]
['beep', 0.0, -1544.4831901172627, 0.0, 0.0, 0.0, 0.0, 455.05916536559647, 0.0]
['beep', 0.0, -1547.411268640908, 0.0, 0.0, 0.0, 0.0, 450.4547060078032, 0.0]
['beep', 0.0, -1554.0497367441342, 0.0, 0.0, 0.0, 0.0, 444.48679023823627, 0.0]
['beep', 0.0, -1554.1614954664108, 0.0, 0.0, 0.0, 0.0, 444.978528616253, 0.0]
['beep', 0.0, -1545.6901843178493, 0.0, 0.0, 0.0, 0.0, 449.7618019296887, 0.0]
['beep', 0.0, -1540.2363586707543, 0.0, 0.0, 0.0, 0.0, 451.7734589306663, 0.0]
['beep', 0.0, -1543.6561755724163, 0.0, 0.0, 0.0, 0.0, 448.6442147069234, 0.0]
['beep', 0.0, -1548.506504119218, 0.0, 0.0, 0.0, 0.0, 445.3361565275379, 0.0]
['beep', 0.0, -1547.1653994518995, 0.0, 0.0, 0.0, 0.0, 447.39251701742614, 0.0]
['beep', 0.0, -1540.6833935598606, 0.0, 0.0, 0.0, 0.0, 451.6169967194792, 0.0]
['beep', 0.0, -1538.604681325517, 0.0, 0.0, 0.0, 0.0, 452.1534385864066, 0.0]
['beep', 0.0, -1544.572597095084, 0.0, 0.0, 0.0, 0.0, 447.72779318425575, 0.0]
['beep', 0.0, -1553.6250535994834, 0.0, 0.0, 0.0, 0.0, 444.2632727936832, 0.0]
['beep', 0.0, -1554.1167919775, 0.0, 0.0, 0.0, 0.0, 444.6432524494234, 0.0]
['beep', 0.0, -1548.3276901635754, 0.0, 0.0, 0.0, 0.0, 447.81720016207703, 0.0]
['beep', 0.0, -1545.310204662109, 0.0, 0.0, 0.0, 0.0, 449.4265257628591, 0.0]
['beep', 0.0, -1549.0652977306006, 0.0, 0.0, 0.0, 0.0, 443.4809617377474, 0.0]
['beep', 0.0, -1556.5978356120393, 0.0, 0.0, 0.0, 0.0, 438.83179889104355, 0.0]
['beep', 0.0, -1557.2683879456984, 0.0, 0.0, 0.0, 0.0, 440.32936576954916, 0.0]
['beep', 0.0, -1549.4005738974304, 0.0, 0.0, 0.0, 0.0, 444.2409210492279, 0.0]
['beep', 0.0, -1546.3830883959638, 0.0, 0.0, 0.0, 0.0, 446.36433677248203, 0.0]
['beep', 0.0, -1550.9204925203912, 0.0, 0.0, 0.0, 0.0, 443.1903890598284, 0.0]
['beep', 0.0, -1556.4190216563968, 0.0, 0.0, 0.0, 0.0, 438.11654306847373, 0.0]
['beep', 0.0, -1555.7037658338268, 0.0, 0.0, 0.0, 0.0, 440.03879309163017, 0.0]
['beep', 0.0, -1548.6182628414945, 0.0, 0.0, 0.0, 0.0, 444.5761972160575, 0.0]
['beep', 0.0, -1544.214969183799, 0.0, 0.0, 0.0, 0.0, 445.78319141664406, 0.0]
['beep', 0.0, -1547.1877511963548, 0.0, 0.0, 0.0, 0.0, 442.0728018370631, 0.0]
['beep', 0.0, -1554.3179576775979, 0.0, 0.0, 0.0, 0.0, 438.18359830183965, 0.0]
['beep', 0.0, -1556.3966699119414, 0.0, 0.0, 0.0, 0.0, 440.93286286984244, 0.0]
['beep', 0.0, -1551.0322512426676, 0.0, 0.0, 0.0, 0.0, 445.38086001644854, 0.0]
['beep', 0.0, -1547.277158174176, 0.0, 0.0, 0.0, 0.0, 447.2137030617837, 0.0]
['beep', 0.0, -1552.798039054637, 0.0, 0.0, 0.0, 0.0, 441.91633962587593, 0.0]
['beep', 0.0, -1558.1177542350001, 0.0, 0.0, 0.0, 0.0, 437.2895285236274, 0.0]
['beep', 0.0, -1557.8048298126257, 0.0, 0.0, 0.0, 0.0, 439.47999948024744, 0.0]
['beep', 0.0, -1552.7533355657263, 0.0, 0.0, 0.0, 0.0, 443.7044791823005, 0.0]
['beep', 0.0, -1549.534684364162, 0.0, 0.0, 0.0, 0.0, 445.2243978052614, 0.0]
['beep', 0.0, -1553.1109634770112, 0.0, 0.0, 0.0, 0.0, 440.91051112538713, 0.0]
['beep', 0.0, -1559.5259141356844, 0.0, 0.0, 0.0, 0.0, 435.1437610559179, 0.0]
['beep', 0.0, -1559.8388385580586, 0.0, 0.0, 0.0, 0.0, 436.9766041012531, 0.0]
['beep', 0.0, -1552.9097977769136, 0.0, 0.0, 0.0, 0.0, 441.35754601449327, 0.0]
['beep', 0.0, -1549.6464430864387, 0.0, 0.0, 0.0, 0.0, 443.01157510418597, 0.0]
['beep', 0.0, -1554.407364655419, 0.0, 0.0, 0.0, 0.0, 438.49652272421395, 0.0]
['beep', 0.0, -1560.7776118251816, 0.0, 0.0, 0.0, 0.0, 433.10975231048496, 0.0]
['beep', 0.0, -1560.2411699582542, 0.0, 0.0, 0.0, 0.0, 434.40615348889276, 0.0]
['beep', 0.0, -1552.1274867209777, 0.0, 0.0, 0.0, 0.0, 438.6306331909458, 0.0]
['beep', 0.0, -1546.83012328507, 0.0, 0.0, 0.0, 0.0, 441.24578729221673, 0.0]
['beep', 0.0, -1549.534684364162, 0.0, 0.0, 0.0, 0.0, 437.44599073481453, 0.0]
['beep', 0.0, -1556.3296146785754, 0.0, 0.0, 0.0, 0.0, 434.45085697780337, 0.0]
['beep', 0.0, -1557.380146667975, 0.0, 0.0, 0.0, 0.0, 436.7754384011553, 0.0]
['beep', 0.0, -1552.3286524210755, 0.0, 0.0, 0.0, 0.0, 440.8881593809318, 0.0]
['beep', 0.0, -1549.4676291307962, 0.0, 0.0, 0.0, 0.0, 442.8104094040882, 0.0]
['beep', 0.0, -1552.8203907990924, 0.0, 0.0, 0.0, 0.0, 437.80361864609944, 0.0]
['beep', 0.0, -1559.056527502123, 0.0, 0.0, 0.0, 0.0, 434.09322906651846, 0.0]
['beep', 0.0, -1559.7494315802373, 0.0, 0.0, 0.0, 0.0, 434.76378140017766, 0.0]
['beep', 0.0, -1552.9992047547348, 0.0, 0.0, 0.0, 0.0, 439.52470296915806, 0.0]
['beep', 0.0, -1548.6182628414945, 0.0, 0.0, 0.0, 0.0, 441.62576694795695, 0.0]
['beep', 0.0, -1553.4015361549302, 0.0, 0.0, 0.0, 0.0, 438.0047843461972, 0.0]
['beep', 0.0, -1559.3023966911312, 0.0, 0.0, 0.0, 0.0, 432.5733104435576, 0.0]
['beep', 0.0, -1560.1964664693435, 0.0, 0.0, 0.0, 0.0, 433.9814703442419, 0.0]
['beep', 0.0, -1553.7144605773046, 0.0, 0.0, 0.0, 0.0, 439.2564820356944, 0.0]
['beep', 0.0, -1549.892312275447, 0.0, 0.0, 0.0, 0.0, 439.99408960271955, 0.0]
['beep', 0.0, -1553.2674256881985, 0.0, 0.0, 0.0, 0.0, 436.0825343230408, 0.0]
['beep', 0.0, -1558.4530304018297, 0.0, 0.0, 0.0, 0.0, 431.58983368752405, 0.0]
['beep', 0.0, -1558.2742164461872, 0.0, 0.0, 0.0, 0.0, 431.5004267097028, 0.0]
['beep', 0.0, -1553.088611732556, 0.0, 0.0, 0.0, 0.0, 438.0941913240184, 0.0]
['beep', 0.0, -1548.797076797137, 0.0, 0.0, 0.0, 0.0, 440.26231053618324, 0.0]
['beep', 0.0, -1552.4180593988967, 0.0, 0.0, 0.0, 0.0, 436.0378308341302, 0.0]
['beep', 0.0, -1558.2965681906426, 0.0, 0.0, 0.0, 0.0, 432.9085866103872, 0.0]
['beep', 0.0, -1559.3918036689524, 0.0, 0.0, 0.0, 0.0, 432.8862348659319, 0.0]
['beep', 0.0, -1551.993376254246, 0.0, 0.0, 0.0, 0.0, 438.78709540213293, 0.0]
['beep', 0.0, -1547.8359517855588, 0.0, 0.0, 0.0, 0.0, 441.29049078112735, 0.0]
['beep', 0.0, -1552.798039054637, 0.0, 0.0, 0.0, 0.0, 437.53539771263576, 0.0]
['beep', 0.0, -1558.5200856351955, 0.0, 0.0, 0.0, 0.0, 433.2885662661274, 0.0]
['beep', 0.0, -1559.2353414577653, 0.0, 0.0, 0.0, 0.0, 433.02034533266374, 0.0]
['beep', 0.0, -1553.8485710440364, 0.0, 0.0, 0.0, 0.0, 439.9046826248983, 0.0]
['beep', 0.0, -1549.2888151751538, 0.0, 0.0, 0.0, 0.0, 442.29631928161615, 0.0]
['beep', 0.0, -1552.8650942880029, 0.0, 0.0, 0.0, 0.0, 438.0047843461972, 0.0]
['beep', 0.0, -1557.7601263237152, 0.0, 0.0, 0.0, 0.0, 433.8473598775101, 0.0]
['beep', 0.0, -1557.9389402793577, 0.0, 0.0, 0.0, 0.0, 435.590795945024, 0.0]
['beep', 0.0, -1552.5521698656287, 0.0, 0.0, 0.0, 0.0, 441.0893250810296, 0.0]
['beep', 0.0, -1548.3276901635754, 0.0, 0.0, 0.0, 0.0, 443.23509254873903, 0.0]
['beep', 0.0, -1550.2722919311873, 0.0, 0.0, 0.0, 0.0, 439.7035169248005, 0.0]
['beep', 0.0, -1556.2849111896649, 0.0, 0.0, 0.0, 0.0, 434.02617383315254, 0.0]
['beep', 0.0, -1557.6260158569833, 0.0, 0.0, 0.0, 0.0, 434.09322906651846, 0.0]
['beep', 0.0, -1551.2557686872208, 0.0, 0.0, 0.0, 0.0, 439.3458890135156, 0.0]
['beep', 0.0, -1547.8359517855588, 0.0, 0.0, 0.0, 0.0, 445.04558384961894, 0.0]
['beep', 0.0, -1551.4792861317737, 0.0, 0.0, 0.0, 0.0, 442.1845605593396, 0.0]
['beep', 0.0, -1556.4637251453073, 0.0, 0.0, 0.0, 0.0, 435.92607211185367, 0.0]
['beep', 0.0, -1556.7766495676817, 0.0, 0.0, 0.0, 0.0, 437.0213075901637, 0.0]
['beep', 0.0, -1551.6133965985057, 0.0, 0.0, 0.0, 0.0, 441.8045809035994, 0.0]
['beep', 0.0, -1547.411268640908, 0.0, 0.0, 0.0, 0.0, 443.7044791823005, 0.0]
['beep', 0.0, -1551.1440099649442, 0.0, 0.0, 0.0, 0.0, 441.1787320588508, 0.0]
['beep', 0.0, -1556.2625594452095, 0.0, 0.0, 0.0, 0.0, 436.3731070009598, 0.0]
['beep', 0.0, -1555.5920071115504, 0.0, 0.0, 0.0, 0.0, 438.0718395795631, 0.0]
['beep', 0.0, -1549.3335186640643, 0.0, 0.0, 0.0, 0.0, 441.4693047367698, 0.0]
['beep', 0.0, -1545.8913500179472, 0.0, 0.0, 0.0, 0.0, 442.31867102607146, 0.0]
['beep', 0.0, -1549.02059424169, 0.0, 0.0, 0.0, 0.0, 439.18942680232846, 0.0]
['beep', 0.0, -1555.122620477989, 0.0, 0.0, 0.0, 0.0, 435.09905756700726, 0.0]
['beep', 0.0, -1555.3908414114526, 0.0, 0.0, 0.0, 0.0, 436.9989558457084, 0.0]
['beep', 0.0, -1549.7805535531704, 0.0, 0.0, 0.0, 0.0, 441.67047043686756, 0.0]
['beep', 0.0, -1546.316033162598, 0.0, 0.0, 0.0, 0.0, 443.4139065043815, 0.0]
['beep', 0.0, -1549.0652977306006, 0.0, 0.0, 0.0, 0.0, 439.21177854678376, 0.0]
['beep', 0.0, -1555.2120274558101, 0.0, 0.0, 0.0, 0.0, 433.8920633664207, 0.0]
['beep', 0.0, -1554.988510011257, 0.0, 0.0, 0.0, 0.0, 433.2662145216721, 0.0]
['beep', 0.0, -1548.4841523747627, 0.0, 0.0, 0.0, 0.0, 438.9435576133201, 0.0]
['beep', 0.0, -1543.92439650588, 0.0, 0.0, 0.0, 0.0, 441.5363599701357, 0.0]
['beep', 0.0, -1547.3218616630868, 0.0, 0.0, 0.0, 0.0, 436.7754384011553, 0.0]
['beep', 0.0, -1552.2615971877096, 0.0, 0.0, 0.0, 0.0, 431.4557232207922, 0.0]
['beep', 0.0, -1552.5968733545392, 0.0, 0.0, 0.0, 0.0, 431.9251098543537, 0.0]
['beep', 0.0, -1545.8913500179472, 0.0, 0.0, 0.0, 0.0, 437.7365634127335, 0.0]
['beep', 0.0, -1542.762105794204, 0.0, 0.0, 0.0, 0.0, 440.8881593809318, 0.0]
['beep', 0.0, -1546.5395506071509, 0.0, 0.0, 0.0, 0.0, 437.3118802680827, 0.0]
['beep', 0.0, -1551.9039692764247, 0.0, 0.0, 0.0, 0.0, 432.238034276728, 0.0]
['beep', 0.0, -1552.3063006766201, 0.0, 0.0, 0.0, 0.0, 432.3050895100939, 0.0]
['beep', 0.0, -1546.8971785184358, 0.0, 0.0, 0.0, 0.0, 437.043659334619, 0.0]
['beep', 0.0, -1543.4326581278633, 0.0, 0.0, 0.0, 0.0, 439.0776680800519, 0.0]
['beep', 0.0, -1546.83012328507, 0.0, 0.0, 0.0, 0.0, 434.02617383315254, 0.0]
['beep', 0.0, -1552.7086320768158, 0.0, 0.0, 0.0, 0.0, 429.0640865640744, 0.0]
['beep', 0.0, -1553.1780187103773, 0.0, 0.0, 0.0, 0.0, 429.33230749753807, 0.0]
['beep', 0.0, -1547.4559721298185, 0.0, 0.0, 0.0, 0.0, 435.4790372227475, 0.0]
['beep', 0.0, -1544.0808587170673, 0.0, 0.0, 0.0, 0.0, 437.49069422372514, 0.0]
['beep', 0.0, -1547.0089372407124, 0.0, 0.0, 0.0, 0.0, 432.39449648791515, 0.0]
['beep', 0.0, -1552.1051349765223, 0.0, 0.0, 0.0, 0.0, 428.66175516387887, 0.0]
['beep', 0.0, -1552.4180593988967, 0.0, 0.0, 0.0, 0.0, 429.5111214531805, 0.0]
['beep', 0.0, -1547.0759924740782, 0.0, 0.0, 0.0, 0.0, 435.43433373383687, 0.0]
['beep', 0.0, -1543.119733705489, 0.0, 0.0, 0.0, 0.0, 437.4236389903592, 0.0]
['beep', 0.0, -1545.824294784581, 0.0, 0.0, 0.0, 0.0, 433.2885662661274, 0.0]
['beep', 0.0, -1550.5852163535615, 0.0, 0.0, 0.0, 0.0, 428.4382377193258, 0.0]
['beep', 0.0, -1552.149838465433, 0.0, 0.0, 0.0, 0.0, 427.92414759685374, 0.0]
['beep', 0.0, -1545.9360535068577, 0.0, 0.0, 0.0, 0.0, 431.29926100960506, 0.0]
['beep', 0.0, -1541.4210011268856, 0.0, 0.0, 0.0, 0.0, 433.44502847731457, 0.0]
['beep', 0.0, -1543.8796930169694, 0.0, 0.0, 0.0, 0.0, 429.3546592419934, 0.0]
['beep', 0.0, -1550.1381814644553, 0.0, 0.0, 0.0, 0.0, 425.688973151323, 0.0]
['beep', 0.0, -1551.5910448540503, 0.0, 0.0, 0.0, 0.0, 426.2254150182504, 0.0]
['beep', 0.0, -1546.2936814181426, 0.0, 0.0, 0.0, 0.0, 431.23220577623914, 0.0]
['beep', 0.0, -1542.091553460545, 0.0, 0.0, 0.0, 0.0, 433.69089766632294, 0.0]
['beep', 0.0, -1545.667832573394, 0.0, 0.0, 0.0, 0.0, 428.34883074150457, 0.0]
['beep', 0.0, -1552.149838465433, 0.0, 0.0, 0.0, 0.0, 423.4537987057923, 0.0]
['beep', 0.0, -1553.7591640662151, 0.0, 0.0, 0.0, 0.0, 424.54903418410237, 0.0]
['beep', 0.0, -1547.4336203853632, 0.0, 0.0, 0.0, 0.0, 429.108790052985, 0.0]
['beep', 0.0, -1543.3208994055867, 0.0, 0.0, 0.0, 0.0, 430.6957639093118, 0.0]
['beep', 0.0, -1546.4501436293297, 0.0, 0.0, 0.0, 0.0, 425.21958651776157, 0.0]
['beep', 0.0, -1552.9768530102795, 0.0, 0.0, 0.0, 0.0, 421.03981030461915, 0.0]
['beep', 0.0, -1553.446239643841, 0.0, 0.0, 0.0, 0.0, 422.8279498610437, 0.0]
['beep', 0.0, -1547.7241930632822, 0.0, 0.0, 0.0, 0.0, 428.34883074150457, 0.0]
['beep', 0.0, -1542.9632714943018, 0.0, 0.0, 0.0, 0.0, 430.0252115756526, 0.0]
['beep', 0.0, -1545.824294784581, 0.0, 0.0, 0.0, 0.0, 425.86778710696547, 0.0]
['beep', 0.0, -1553.1109634770112, 0.0, 0.0, 0.0, 0.0, 420.68218239333424, 0.0]
['beep', 0.0, -1553.02155649919, 0.0, 0.0, 0.0, 0.0, 421.9115283383761, 0.0]
['beep', 0.0, -1547.4559721298185, 0.0, 0.0, 0.0, 0.0, 427.83474061903246, 0.0]
['beep', 0.0, -1543.2761959166762, 0.0, 0.0, 0.0, 0.0, 429.91345285337604, 0.0]
['beep', 0.0, -1546.1595709514108, 0.0, 0.0, 0.0, 0.0, 425.82308361805485, 0.0]
['beep', 0.0, -1552.954501265824, 0.0, 0.0, 0.0, 0.0, 420.68218239333424, 0.0]
['beep', 0.0, -1553.8038675551259, 0.0, 0.0, 0.0, 0.0, 421.8444731050102, 0.0]
['beep', 0.0, -1547.791248296648, 0.0, 0.0, 0.0, 0.0, 428.1253132969515, 0.0]
['beep', 0.0, -1543.3879546389526, 0.0, 0.0, 0.0, 0.0, 429.0640865640744, 0.0]
['beep', 0.0, -1547.0759924740782, 0.0, 0.0, 0.0, 0.0, 424.0349440616303, 0.0]
['beep', 0.0, -1553.7591640662151, 0.0, 0.0, 0.0, 0.0, 419.22931900373925, 0.0]
['beep', 0.0, -1554.608530355517, 0.0, 0.0, 0.0, 0.0, 420.07868529304096, 0.0]
['beep', 0.0, -1548.7747250526818, 0.0, 0.0, 0.0, 0.0, 426.0466010626079, 0.0]
['beep', 0.0, -1544.4831901172627, 0.0, 0.0, 0.0, 0.0, 428.8405691195213, 0.0]
['beep', 0.0, -1548.215931441299, 0.0, 0.0, 0.0, 0.0, 425.3760487289487, 0.0]
['beep', 0.0, -1554.8767512889806, 0.0, 0.0, 0.0, 0.0, 421.03981030461915, 0.0]
['beep', 0.0, -1556.5531321231285, 0.0, 0.0, 0.0, 0.0, 422.850301605499, 0.0]
['beep', 0.0, -1550.6299198424722, 0.0, 0.0, 0.0, 0.0, 428.99703133070847, 0.0]
['beep', 0.0, -1545.667832573394, 0.0, 0.0, 0.0, 0.0, 429.22054877526153, 0.0]
['beep', 0.0, -1548.439448885852, 0.0, 0.0, 0.0, 0.0, 426.42658071834813, 0.0]
['beep', 0.0, -1553.9826815107683, 0.0, 0.0, 0.0, 0.0, 422.9173568388649, 0.0]
['beep', 0.0, -1555.7037658338268, 0.0, 0.0, 0.0, 0.0, 423.5655574280688, 0.0]
['beep', 0.0, -1550.696975075838, 0.0, 0.0, 0.0, 0.0, 429.7346388977336, 0.0]
['beep', 0.0, -1546.4501436293297, 0.0, 0.0, 0.0, 0.0, 432.3050895100939, 0.0]
['beep', 0.0, -1550.1158297200002, 0.0, 0.0, 0.0, 0.0, 428.3935342304152, 0.0]
['beep', 0.0, -1556.6872425898605, 0.0, 0.0, 0.0, 0.0, 424.54903418410237, 0.0]
['beep', 0.0, -1557.9836437682682, 0.0, 0.0, 0.0, 0.0, 426.44893246280344, 0.0]
['beep', 0.0, -1552.1945419543435, 0.0, 0.0, 0.0, 0.0, 431.9251098543537, 0.0]
['beep', 0.0, -1547.6794895743717, 0.0, 0.0, 0.0, 0.0, 433.06504882157435, 0.0]
['beep', 0.0, -1550.9204925203912, 0.0, 0.0, 0.0, 0.0, 427.2759470076498, 0.0]
['beep', 0.0, -1559.637672857961, 0.0, 0.0, 0.0, 0.0, 422.00093531619734, 0.0]
['beep', 0.0, -1561.761088581215, 0.0, 0.0, 0.0, 0.0, 425.9348423403314, 0.0]
['beep', 0.0, -1550.6746233313827, 0.0, 0.0, 0.0, 0.0, 433.37797324394865, 0.0]
['beep', 0.0, -1540.0798964595672, 0.0, 0.0, 0.0, 0.0, 432.77447614365536, 0.0]
['beep', 0.0, -1540.3257656485755, 0.0, 0.0, 0.0, 0.0, 425.08547605102973, 0.0]
['beep', 0.0, -1545.6007773400281, 0.0, 0.0, 0.0, 0.0, 418.22349050325045, 0.0]
['beep', 0.0, -1546.0925157180448, 0.0, 0.0, 0.0, 0.0, 419.0058015591862, 0.0]
['beep', 0.0, -1540.3257656485755, 0.0, 0.0, 0.0, 0.0, 425.15253128439565, 0.0]
['beep', 0.0, -1536.7941900246371, 0.0, 0.0, 0.0, 0.0, 425.3089934955828, 0.0]
['beep', 0.0, -1539.990489481746, 0.0, 0.0, 0.0, 0.0, 420.1904440153175, 0.0]
['beep', 0.0, -1545.9360535068577, 0.0, 0.0, 0.0, 0.0, 415.2507084906946, 0.0]
['beep', 0.0, -1546.5395506071509, 0.0, 0.0, 0.0, 0.0, 416.88238583593204, 0.0]
['beep', 0.0, -1541.0633732156007, 0.0, 0.0, 0.0, 0.0, 421.46449344927, 0.0]
['beep', 0.0, -1537.4647423582962, 0.0, 0.0, 0.0, 0.0, 423.9231853393537, 0.0]
['beep', 0.0, -1539.5211028481845, 0.0, 0.0, 0.0, 0.0, 418.8269876035437, 0.0]
['beep', 0.0, -1545.2207976842878, 0.0, 0.0, 0.0, 0.0, 413.9319555678315, 0.0]
['beep', 0.0, -1547.5006756187292, 0.0, 0.0, 0.0, 0.0, 416.21183350227284, 0.0]
['beep', 0.0, -1541.9797947382683, 0.0, 0.0, 0.0, 0.0, 421.75506612718897, 0.0]
['beep', 0.0, -1538.3588121365085, 0.0, 0.0, 0.0, 0.0, 424.79490337311074, 0.0]
['beep', 0.0, -1541.7562772937154, 0.0, 0.0, 0.0, 0.0, 419.22931900373925, 0.0]
['beep', 0.0, -1547.768896552193, 0.0, 0.0, 0.0, 0.0, 412.5908509005131, 0.0]
['beep', 0.0, -1548.081820974567, 0.0, 0.0, 0.0, 0.0, 414.3566387124823, 0.0]
['beep', 0.0, -1543.4773616167738, 0.0, 0.0, 0.0, 0.0, 420.7939411156108, 0.0]
['beep', 0.0, -1538.1129429475002, 0.0, 0.0, 0.0, 0.0, 424.3925719729152, 0.0]
['beep', 0.0, -1540.63869007095, 0.0, 0.0, 0.0, 0.0, 420.5704236710577, 0.0]
['beep', 0.0, -1547.5453791076397, 0.0, 0.0, 0.0, 0.0, 415.3401154685158, 0.0]
['beep', 0.0, -1549.668794830894, 0.0, 0.0, 0.0, 0.0, 416.3235922245494, 0.0]
['beep', 0.0, -1543.7679342946929, 0.0, 0.0, 0.0, 0.0, 420.74923762670016, 0.0]
['beep', 0.0, -1539.766972037193, 0.0, 0.0, 0.0, 0.0, 423.31968823906044, 0.0]
['beep', 0.0, -1541.7562772937154, 0.0, 0.0, 0.0, 0.0, 420.1680922708622, 0.0]
['beep', 0.0, -1547.6571378299163, 0.0, 0.0, 0.0, 0.0, 416.658868391379, 0.0]
['beep', 0.0, -1548.8864837749582, 0.0, 0.0, 0.0, 0.0, 416.52475792464713, 0.0]
['beep', 0.0, -1544.371431394986, 0.0, 0.0, 0.0, 0.0, 421.7774178716443, 0.0]
['beep', 0.0, -1540.5939865820394, 0.0, 0.0, 0.0, 0.0, 425.86778710696547, 0.0]
['beep', 0.0, -1543.186788938855, 0.0, 0.0, 0.0, 0.0, 422.1126940384739, 0.0]
['beep', 0.0, -1548.3500419080308, 0.0, 0.0, 0.0, 0.0, 416.5024061801918, 0.0]
['beep', 0.0, -1549.3558704085196, 0.0, 0.0, 0.0, 0.0, 417.55293816959124, 0.0]
['beep', 0.0, -1543.2314924277655, 0.0, 0.0, 0.0, 0.0, 424.2808132506387, 0.0]
['beep', 0.0, -1539.2528819147208, 0.0, 0.0, 0.0, 0.0, 427.83474061903246, 0.0]
['beep', 0.0, -1541.6892220603493, 0.0, 0.0, 0.0, 0.0, 423.34203998351575, 0.0]
['beep', 0.0, -1547.0089372407124, 0.0, 0.0, 0.0, 0.0, 417.97762131424207, 0.0]
['beep', 0.0, -1548.4841523747627, 0.0, 0.0, 0.0, 0.0, 417.3294207250382, 0.0]
['beep', 0.0, -1541.8680360159917, 0.0, 0.0, 0.0, 0.0, 422.1126940384739, 0.0]
['beep', 0.0, -1536.4812656022627, 0.0, 0.0, 0.0, 0.0, 424.79490337311074, 0.0]
['beep', 0.0, -1537.3976871249304, 0.0, 0.0, 0.0, 0.0, 421.1962725158063, 0.0]
['beep', 0.0, -1542.896216260936, 0.0, 0.0, 0.0, 0.0, 419.29637423710517, 0.0]
['beep', 0.0, -1543.3879546389526, 0.0, 0.0, 0.0, 0.0, 420.8162928600661, 0.0]
['beep', 0.0, -1535.8107132686036, 0.0, 0.0, 0.0, 0.0, 425.21958651776157, 0.0]
['beep', 0.0, -1531.5862335665506, 0.0, 0.0, 0.0, 0.0, 428.8405691195213, 0.0]
['beep', 0.0, -1535.0954574460338, 0.0, 0.0, 0.0, 0.0, 425.15253128439565, 0.0]
['beep', 0.0, -1543.6114720835058, 0.0, 0.0, 0.0, 0.0, 420.592775415513, 0.0]
['beep', 0.0, -1545.9807569957684, 0.0, 0.0, 0.0, 0.0, 421.173920771351, 0.0]
['beep', 0.0, -1541.577463338073, 0.0, 0.0, 0.0, 0.0, 424.48197895073645, 0.0]
['beep', 0.0, -1537.01770746919, 0.0, 0.0, 0.0, 0.0, 426.47128420725875, 0.0]
['beep', 0.0, -1540.2587104152096, 0.0, 0.0, 0.0, 0.0, 423.4761504502476, 0.0]
['beep', 0.0, -1546.7183645627933, 0.0, 0.0, 0.0, 0.0, 418.55876667008005, 0.0]
['beep', 0.0, -1547.92535876338, 0.0, 0.0, 0.0, 0.0, 419.3187259815605, 0.0]
['beep', 0.0, -1542.3150709050979, 0.0, 0.0, 0.0, 0.0, 425.3760487289487, 0.0]
['beep', 0.0, -1535.7213062907824, 0.0, 0.0, 0.0, 0.0, 427.07478130755203, 0.0]
['beep', 0.0, -1539.6105098260057, 0.0, 0.0, 0.0, 0.0, 422.35856322748225, 0.0]
['beep', 0.0, -1546.3383849070533, 0.0, 0.0, 0.0, 0.0, 416.7706271136555, 0.0]
['beep', 0.0, -1547.8359517855588, 0.0, 0.0, 0.0, 0.0, 416.5024061801918, 0.0]
['beep', 0.0, -1541.5327598491622, 0.0, 0.0, 0.0, 0.0, 421.9115283383761, 0.0]
['beep', 0.0, -1536.3024516466203, 0.0, 0.0, 0.0, 0.0, 425.6666214068677, 0.0]
['beep', 0.0, -1540.0351929706567, 0.0, 0.0, 0.0, 0.0, 422.40326671639286, 0.0]
['beep', 0.0, -1546.628957584972, 0.0, 0.0, 0.0, 0.0, 418.044676547608, 0.0]
['beep', 0.0, -1547.411268640908, 0.0, 0.0, 0.0, 0.0, 417.17295851385103, 0.0]
['beep', 0.0, -1541.73392554926, 0.0, 0.0, 0.0, 0.0, 423.431446961337, 0.0]
['beep', 0.0, -1536.8835970024584, 0.0, 0.0, 0.0, 0.0, 426.0466010626079, 0.0]
['beep', 0.0, -1540.4598761153075, 0.0, 0.0, 0.0, 0.0, 421.1515690268957, 0.0]
['beep', 0.0, -1547.8136000411034, 0.0, 0.0, 0.0, 0.0, 415.45187419079235, 0.0]
['beep', 0.0, -1549.2664634306984, 0.0, 0.0, 0.0, 0.0, 415.6977433798007, 0.0]
['beep', 0.0, -1542.896216260936, 0.0, 0.0, 0.0, 0.0, 422.02328706065265, 0.0]
['beep', 0.0, -1537.73296329176, 0.0, 0.0, 0.0, 0.0, 424.79490337311074, 0.0]
['beep', 0.0, -1541.4880563602517, 0.0, 0.0, 0.0, 0.0, 421.39743821590406, 0.0]
['beep', 0.0, -1548.5512076081286, 0.0, 0.0, 0.0, 0.0, 415.98831605771977, 0.0]
['beep', 0.0, -1550.5181611201956, 0.0, 0.0, 0.0, 0.0, 414.9377840683203, 0.0]
['beep', 0.0, -1543.2985476611314, 0.0, 0.0, 0.0, 0.0, 420.65983064887894, 0.0]
['beep', 0.0, -1539.0740679590783, 0.0, 0.0, 0.0, 0.0, 423.9902405727197, 0.0]
['beep', 0.0, -1542.0692017160895, 0.0, 0.0, 0.0, 0.0, 420.74923762670016, 0.0]
['beep', 0.0, -1547.92535876338, 0.0, 0.0, 0.0, 0.0, 415.6977433798007, 0.0]
['beep', 0.0, -1549.0652977306006, 0.0, 0.0, 0.0, 0.0, 416.61416490246836, 0.0]
['beep', 0.0, -1542.0468499716342, 0.0, 0.0, 0.0, 0.0, 421.8668248494655, 0.0]
['beep', 0.0, -1535.5201405906846, 0.0, 0.0, 0.0, 0.0, 424.2584615061834, 0.0]
['beep', 0.0, -1538.3364603920534, 0.0, 0.0, 0.0, 0.0, 420.72688588224486, 0.0]
['beep', 0.0, -1545.801943040126, 0.0, 0.0, 0.0, 0.0, 415.83185384653257, 0.0]
['beep', 0.0, -1547.2101029408102, 0.0, 0.0, 0.0, 0.0, 415.8542055909879, 0.0]
['beep', 0.0, -1540.124599948478, 0.0, 0.0, 0.0, 0.0, 421.06216204907446, 0.0]
['beep', 0.0, -1535.4977888462292, 0.0, 0.0, 0.0, 0.0, 422.62678416094593, 0.0]
['beep', 0.0, -1538.7611435367041, 0.0, 0.0, 0.0, 0.0, 419.56459517056885, 0.0]
['beep', 0.0, -1545.958405251313, 0.0, 0.0, 0.0, 0.0, 415.206005001784, 0.0]
['beep', 0.0, -1548.730021563771, 0.0, 0.0, 0.0, 0.0, 415.47422593524766, 0.0]
['beep', 0.0, -1543.0303267276677, 0.0, 0.0, 0.0, 0.0, 421.2856794936275, 0.0]
['beep', 0.0, -1537.1741696803774, 0.0, 0.0, 0.0, 0.0, 423.07381905005207, 0.0]
['beep', 0.0, -1539.0964197035337, 0.0, 0.0, 0.0, 0.0, 419.89987133739845, 0.0]
['beep', 0.0, -1546.4277918848745, 0.0, 0.0, 0.0, 0.0, 416.3235922245494, 0.0]
['beep', 0.0, -1547.9030070189247, 0.0, 0.0, 0.0, 0.0, 416.1447782689069, 0.0]
['beep', 0.0, -1541.5327598491622, 0.0, 0.0, 0.0, 0.0, 418.96109807027557, 0.0]
['beep', 0.0, -1537.151817935922, 0.0, 0.0, 0.0, 0.0, 423.65496440589004, 0.0]
['beep', 0.0, -1539.2752336591761, 0.0, 0.0, 0.0, 0.0, 420.8609963489767, 0.0]
['beep', 0.0, -1544.6173005839946, 0.0, 0.0, 0.0, 0.0, 415.11659802396275, 0.0]
['beep', 0.0, -1547.053640729623, 0.0, 0.0, 0.0, 0.0, 416.36829571346, 0.0]
['beep', 0.0, -1541.1080767045114, 0.0, 0.0, 0.0, 0.0, 421.1292172824404, 0.0]
['beep', 0.0, -1536.213044668799, 0.0, 0.0, 0.0, 0.0, 423.4761504502476, 0.0]
['beep', 0.0, -1538.0682394585897, 0.0, 0.0, 0.0, 0.0, 420.72688588224486, 0.0]
['beep', 0.0, -1543.343251150042, 0.0, 0.0, 0.0, 0.0, 417.1506067693957, 0.0]
['beep', 0.0, -1546.2936814181426, 0.0, 0.0, 0.0, 0.0, 418.22349050325045, 0.0]
['beep', 0.0, -1541.1304284489668, 0.0, 0.0, 0.0, 0.0, 422.5820806720353, 0.0]
['beep', 0.0, -1534.0672772010896, 0.0, 0.0, 0.0, 0.0, 424.10199929499623, 0.0]
['beep', 0.0, -1537.6435563139387, 0.0, 0.0, 0.0, 0.0, 420.72688588224486, 0.0]
['beep', 0.0, -1545.667832573394, 0.0, 0.0, 0.0, 0.0, 415.76479861316665, 0.0]
['beep', 0.0, -1547.120695962989, 0.0, 0.0, 0.0, 0.0, 416.7035718802896, 0.0]
['beep', 0.0, -1541.9127395049024, 0.0, 0.0, 0.0, 0.0, 421.2633277491722, 0.0]
['beep', 0.0, -1535.3860301239527, 0.0, 0.0, 0.0, 0.0, 422.8279498610437, 0.0]
['beep', 0.0, -1537.5541493361175, 0.0, 0.0, 0.0, 0.0, 420.883348093432, 0.0]
['beep', 0.0, -1544.1032104615224, 0.0, 0.0, 0.0, 0.0, 417.64234514741247, 0.0]
['beep', 0.0, -1543.4326581278633, 0.0, 0.0, 0.0, 0.0, 420.10103703749627, 0.0]
['beep', 0.0, -1539.6775650593718, 0.0, 0.0, 0.0, 0.0, 424.48197895073645, 0.0]
['beep', 0.0, -1541.3986493824304, 0.0, 0.0, 0.0, 0.0, 428.1029615524962, 0.0]
['beep', 0.0, -1547.0089372407124, 0.0, 0.0, 0.0, 0.0, 427.20889177428387, 0.0]
['beep', 0.0, -1554.764992566704, 0.0, 0.0, 0.0, 0.0, 422.67148764985654, 0.0]
['beep', 0.0, -1554.1391437219554, 0.0, 0.0, 0.0, 0.0, 424.4149237173705, 0.0]
['beep', 0.0, -1547.7241930632822, 0.0, 0.0, 0.0, 0.0, 427.81238887457715, 0.0]
['beep', 0.0, -1541.2868906601539, 0.0, 0.0, 0.0, 0.0, 431.58983368752405, 0.0]
['beep', 0.0, -1544.058506972612, 0.0, 0.0, 0.0, 0.0, 429.8016941310995, 0.0]
['beep', 0.0, -1552.8203907990924, 0.0, 0.0, 0.0, 0.0, 425.08547605102973, 0.0]
['beep', 0.0, -1553.960329766313, 0.0, 0.0, 0.0, 0.0, 425.398400473404, 0.0]
['beep', 0.0, -1548.215931441299, 0.0, 0.0, 0.0, 0.0, 429.8463976200101, 0.0]
['beep', 0.0, -1542.3597743940086, 0.0, 0.0, 0.0, 0.0, 432.5509586991023, 0.0]
['beep', 0.0, -1546.2713296736872, 0.0, 0.0, 0.0, 0.0, 430.6957639093118, 0.0]
['beep', 0.0, -1552.1945419543435, 0.0, 0.0, 0.0, 0.0, 424.6607929063789, 0.0]
['beep', 0.0, -1553.1333152214665, 0.0, 0.0, 0.0, 0.0, 424.3478684840046, 0.0]
['beep', 0.0, -1548.3276901635754, 0.0, 0.0, 0.0, 0.0, 429.1534935418956, 0.0]
['beep', 0.0, -1542.6950505608381, 0.0, 0.0, 0.0, 0.0, 431.0980953095073, 0.0]
['beep', 0.0, -1544.796114539637, 0.0, 0.0, 0.0, 0.0, 429.7793423866442, 0.0]
['beep', 0.0, -1551.7922105541481, 0.0, 0.0, 0.0, 0.0, 426.56069118508, 0.0]
['beep', 0.0, -1552.8203907990924, 0.0, 0.0, 0.0, 0.0, 426.3148219960716, 0.0]
['beep', 0.0, -1545.8913500179472, 0.0, 0.0, 0.0, 0.0, 430.91928135386485, 0.0]
['beep', 0.0, -1541.577463338073, 0.0, 0.0, 0.0, 0.0, 432.37214474345984, 0.0]
['beep', 0.0, -1545.2207976842878, 0.0, 0.0, 0.0, 0.0, 430.4722464647587, 0.0]
['beep', 0.0, -1552.8874460324582, 0.0, 0.0, 0.0, 0.0, 427.20889177428387, 0.0]
['beep', 0.0, -1554.9661582668018, 0.0, 0.0, 0.0, 0.0, 427.65592666339, 0.0]
['beep', 0.0, -1550.1605332089107, 0.0, 0.0, 0.0, 0.0, 432.46155172128107, 0.0]
['beep', 0.0, -1545.0866872175561, 0.0, 0.0, 0.0, 0.0, 434.2943947666162, 0.0]
['beep', 0.0, -1547.277158174176, 0.0, 0.0, 0.0, 0.0, 432.43919997682576, 0.0]
['beep', 0.0, -1554.2061989553213, 0.0, 0.0, 0.0, 0.0, 428.1923685303174, 0.0]
['beep', 0.0, -1556.0390420006565, 0.0, 0.0, 0.0, 0.0, 427.85709236348777, 0.0]
['beep', 0.0, -1552.3063006766201, 0.0, 0.0, 0.0, 0.0, 433.13210405494027, 0.0]
['beep', 0.0, -1546.9195302628912, 0.0, 0.0, 0.0, 0.0, 435.5684442005687, 0.0]
['beep', 0.0, -1549.6911465753492, 0.0, 0.0, 0.0, 0.0, 432.5956621880129, 0.0]
['beep', 0.0, -1556.0390420006565, 0.0, 0.0, 0.0, 0.0, 427.8794441079431, 0.0]
['beep', 0.0, -1556.5531321231285, 0.0, 0.0, 0.0, 0.0, 428.0582580635856, 0.0]
['beep', 0.0, -1550.1605332089107, 0.0, 0.0, 0.0, 0.0, 434.1379325554291, 0.0]
['beep', 0.0, -1545.2431494287432, 0.0, 0.0, 0.0, 0.0, 435.5013889672028, 0.0]
['beep', 0.0, -1546.5619023516062, 0.0, 0.0, 0.0, 0.0, 431.6792406653453, 0.0]
['beep', 0.0, -1553.7591640662151, 0.0, 0.0, 0.0, 0.0, 427.43240921883694, 0.0]
['beep', 0.0, -1556.5531321231285, 0.0, 0.0, 0.0, 0.0, 427.45476096329224, 0.0]
['beep', 0.0, -1552.2839489321648, 0.0, 0.0, 0.0, 0.0, 431.8133511320771, 0.0]
['beep', 0.0, -1545.8913500179472, 0.0, 0.0, 0.0, 0.0, 434.5402639556246, 0.0]
['beep', 0.0, -1547.6571378299163, 0.0, 0.0, 0.0, 0.0, 431.9027581098984, 0.0]
['beep', 0.0, -1555.7261175782821, 0.0, 0.0, 0.0, 0.0, 425.80073187359955, 0.0]
['beep', 0.0, -1558.8777135464804, 0.0, 0.0, 0.0, 0.0, 425.53251094013586, 0.0]
['beep', 0.0, -1551.635748342961, 0.0, 0.0, 0.0, 0.0, 429.7793423866442, 0.0]
['beep', 0.0, -1544.058506972612, 0.0, 0.0, 0.0, 0.0, 432.6180139324682, 0.0]
['beep', 0.0, -1547.8359517855588, 0.0, 0.0, 0.0, 0.0, 431.3439644985157, 0.0]
['beep', 0.0, -1555.0332135001677, 0.0, 0.0, 0.0, 0.0, 427.43240921883694, 0.0]
['beep', 0.0, -1557.6260158569833, 0.0, 0.0, 0.0, 0.0, 428.21472027477273, 0.0]
['beep', 0.0, -1552.7756873101816, 0.0, 0.0, 0.0, 0.0, 431.4557232207922, 0.0]
['beep', 0.0, -1546.9642337518019, 0.0, 0.0, 0.0, 0.0, 434.5626157000799, 0.0]
['beep', 0.0, -1549.0652977306006, 0.0, 0.0, 0.0, 0.0, 431.0533918205967, 0.0]
['beep', 0.0, -1555.2120274558101, 0.0, 0.0, 0.0, 0.0, 425.9348423403314, 0.0]
['beep', 0.0, -1557.4024984124303, 0.0, 0.0, 0.0, 0.0, 427.20889177428387, 0.0]
['beep', 0.0, -1551.859265787514, 0.0, 0.0, 0.0, 0.0, 433.2885662661274, 0.0]
['beep', 0.0, -1547.053640729623, 0.0, 0.0, 0.0, 0.0, 435.41198198938156, 0.0]
['beep', 0.0, -1549.4676291307962, 0.0, 0.0, 0.0, 0.0, 430.53930169812463, 0.0]
['beep', 0.0, -1555.279082689176, 0.0, 0.0, 0.0, 0.0, 426.2924702516163, 0.0]
['beep', 0.0, -1556.1060972340224, 0.0, 0.0, 0.0, 0.0, 426.9406708408202, 0.0]
['beep', 0.0, -1549.9146640199024, 0.0, 0.0, 0.0, 0.0, 431.075743565052, 0.0]
['beep', 0.0, -1544.5502453506288, 0.0, 0.0, 0.0, 0.0, 434.04852557760785, 0.0]
['beep', 0.0, -1547.6794895743717, 0.0, 0.0, 0.0, 0.0, 429.8463976200101, 0.0]
['beep', 0.0, -1555.3908414114526, 0.0, 0.0, 0.0, 0.0, 425.86778710696547, 0.0]
['beep', 0.0, -1556.6872425898605, 0.0, 0.0, 0.0, 0.0, 426.53833944062467, 0.0]
['beep', 0.0, -1551.9486727653352, 0.0, 0.0, 0.0, 0.0, 431.23220577623914, 0.0]
['beep', 0.0, -1546.0925157180448, 0.0, 0.0, 0.0, 0.0, 433.4897319662252, 0.0]
['beep', 0.0, -1548.1712279523883, 0.0, 0.0, 0.0, 0.0, 430.65106042040117, 0.0]
['beep', 0.0, -1554.764992566704, 0.0, 0.0, 0.0, 0.0, 426.13600804042915, 0.0]
['beep', 0.0, -1556.217855956299, 0.0, 0.0, 0.0, 0.0, 426.270118507161, 0.0]
['beep', 0.0, -1551.4792861317737, 0.0, 0.0, 0.0, 0.0, 430.0252115756526, 0.0]
['beep', 0.0, -1546.0478122291343, 0.0, 0.0, 0.0, 0.0, 432.1933307878174, 0.0]
['beep', 0.0, -1548.439448885852, 0.0, 0.0, 0.0, 0.0, 429.28760400862745, 0.0]
['beep', 0.0, -1555.0779169890782, 0.0, 0.0, 0.0, 0.0, 424.303164995094, 0.0]
['beep', 0.0, -1556.9331117788688, 0.0, 0.0, 0.0, 0.0, 425.2866417511275, 0.0]
['beep', 0.0, -1551.7698588096928, 0.0, 0.0, 0.0, 0.0, 430.87457786495423, 0.0]
['beep', 0.0, -1547.6794895743717, 0.0, 0.0, 0.0, 0.0, 433.4897319662252, 0.0]
['beep', 0.0, -1550.7863820536593, 0.0, 0.0, 0.0, 0.0, 430.1369702979291, 0.0]
['beep', 0.0, -1557.1789809678771, 0.0, 0.0, 0.0, 0.0, 424.9960690732085, 0.0]
['beep', 0.0, -1559.637672857961, 0.0, 0.0, 0.0, 0.0, 425.3313452400381, 0.0]
['beep', 0.0, -1554.2061989553213, 0.0, 0.0, 0.0, 0.0, 429.7793423866442, 0.0]
['beep', 0.0, -1548.864132030503, 0.0, 0.0, 0.0, 0.0, 433.04269707711904, 0.0]
['beep', 0.0, -1550.6746233313827, 0.0, 0.0, 0.0, 0.0, 431.52277845415813, 0.0]
['beep', 0.0, -1557.0448705011454, 0.0, 0.0, 0.0, 0.0, 427.20889177428387, 0.0]
['beep', 0.0, -1559.7270798357822, 0.0, 0.0, 0.0, 0.0, 425.2866417511275, 0.0]
['beep', 0.0, -1554.2732541886871, 0.0, 0.0, 0.0, 0.0, 427.3206504965604, 0.0]
['beep', 0.0, -1548.5288558636732, 0.0, 0.0, 0.0, 0.0, 430.8075226315883, 0.0]
['beep', 0.0, -1549.4899808752516, 0.0, 0.0, 0.0, 0.0, 428.92997609734255, 0.0]
['beep', 0.0, -1556.8437048010476, 0.0, 0.0, 0.0, 0.0, 424.6384411619236, 0.0]
['beep', 0.0, -1560.4646874028074, 0.0, 0.0, 0.0, 0.0, 423.8337783615325, 0.0]
['beep', 0.0, -1554.4967716332403, 0.0, 0.0, 0.0, 0.0, 429.0640865640744, 0.0]
['beep', 0.0, -1548.9982424972347, 0.0, 0.0, 0.0, 0.0, 433.2438627772168, 0.0]
['beep', 0.0, -1551.6804518318716, 0.0, 0.0, 0.0, 0.0, 431.075743565052, 0.0]
['beep', 0.0, -1558.5647891241063, 0.0, 0.0, 0.0, 0.0, 425.979545829242, 0.0]
['beep', 0.0, -1560.8893705474582, 0.0, 0.0, 0.0, 0.0, 426.15835978488445, 0.0]
['beep', 0.0, -1555.8155245561034, 0.0, 0.0, 0.0, 0.0, 430.6734121648565, 0.0]
['beep', 0.0, -1549.73585006426, 0.0, 0.0, 0.0, 0.0, 434.9202436113648, 0.0]
['beep', 0.0, -1551.859265787514, 0.0, 0.0, 0.0, 0.0, 431.8133511320771, 0.0]
['beep', 0.0, -1558.6094926130168, 0.0, 0.0, 0.0, 0.0, 426.7171533962671, 0.0]
['beep', 0.0, -1560.1070594915223, 0.0, 0.0, 0.0, 0.0, 426.44893246280344, 0.0]
['beep', 0.0, -1554.9438065223464, 0.0, 0.0, 0.0, 0.0, 429.89110110892074, 0.0]
['beep', 0.0, -1549.8476087865365, 0.0, 0.0, 0.0, 0.0, 431.8357028765324, 0.0]
['beep', 0.0, -1551.859265787514, 0.0, 0.0, 0.0, 0.0, 430.4051912313928, 0.0]
['beep', 0.0, -1558.4306786573743, 0.0, 0.0, 0.0, 0.0, 428.34883074150457, 0.0]
['beep', 0.0, -1559.8388385580586, 0.0, 0.0, 0.0, 0.0, 426.6500981629012, 0.0]
['beep', 0.0, -1555.9719867672904, 0.0, 0.0, 0.0, 0.0, 431.23220577623914, 0.0]
['beep', 0.0, -1550.9651960093017, 0.0, 0.0, 0.0, 0.0, 434.204987788795, 0.0]
['beep', 0.0, -1552.64157684345, 0.0, 0.0, 0.0, 0.0, 431.0980953095073, 0.0]
['beep', 0.0, -1558.4306786573743, 0.0, 0.0, 0.0, 0.0, 426.44893246280344, 0.0]
['beep', 0.0, -1559.4588589023185, 0.0, 0.0, 0.0, 0.0, 427.49946445220286, 0.0]
['beep', 0.0, -1554.5861786110615, 0.0, 0.0, 0.0, 0.0, 432.6403656769235, 0.0]
['beep', 0.0, -1548.282986674665, 0.0, 0.0, 0.0, 0.0, 435.4790372227475, 0.0]
['beep', 0.0, -1550.5181611201956, 0.0, 0.0, 0.0, 0.0, 432.10392380999616, 0.0]
['beep', 0.0, -1557.827181557081, 0.0, 0.0, 0.0, 0.0, 426.3371737405269, 0.0]
['beep', 0.0, -1559.347100180042, 0.0, 0.0, 0.0, 0.0, 426.5830429295353, 0.0]
['beep', 0.0, -1554.7202890777933, 0.0, 0.0, 0.0, 0.0, 431.7462958987112, 0.0]
['beep', 0.0, -1548.3276901635754, 0.0, 0.0, 0.0, 0.0, 434.8531883779989, 0.0]
['beep', 0.0, -1549.1547047084218, 0.0, 0.0, 0.0, 0.0, 431.075743565052, 0.0]
['beep', 0.0, -1555.2343792002655, 0.0, 0.0, 0.0, 0.0, 426.47128420725875, 0.0]
['beep', 0.0, -1557.2907396901537, 0.0, 0.0, 0.0, 0.0, 426.3148219960716, 0.0]
['beep', 0.0, -1552.1274867209777, 0.0, 0.0, 0.0, 0.0, 430.6734121648565, 0.0]
['beep', 0.0, -1545.7572395512152, 0.0, 0.0, 0.0, 0.0, 433.6014906885017, 0.0]
['beep', 0.0, -1547.5453791076397, 0.0, 0.0, 0.0, 0.0, 430.24872902020564, 0.0]
['beep', 0.0, -1556.0613937451117, 0.0, 0.0, 0.0, 0.0, 426.56069118508, 0.0]
['beep', 0.0, -1557.3354431790642, 0.0, 0.0, 0.0, 0.0, 425.6442696624124, 0.0]
['beep', 0.0, -1552.149838465433, 0.0, 0.0, 0.0, 0.0, 431.7015924098006, 0.0]
['beep', 0.0, -1546.9195302628912, 0.0, 0.0, 0.0, 0.0, 435.00965058918604, 0.0]
['beep', 0.0, -1548.3500419080308, 0.0, 0.0, 0.0, 0.0, 431.4333714763369, 0.0]
['beep', 0.0, -1555.7484693227375, 0.0, 0.0, 0.0, 0.0, 426.78420862963304, 0.0]
['beep', 0.0, -1557.5813123680728, 0.0, 0.0, 0.0, 0.0, 427.0300778186414, 0.0]
['beep', 0.0, -1553.1333152214665, 0.0, 0.0, 0.0, 0.0, 431.366316242971, 0.0]
['beep', 0.0, -1547.1430477074443, 0.0, 0.0, 0.0, 0.0, 434.09322906651846, 0.0]
['beep', 0.0, -1548.506504119218, 0.0, 0.0, 0.0, 0.0, 431.366316242971, 0.0]
['beep', 0.0, -1554.988510011257, 0.0, 0.0, 0.0, 0.0, 427.49946445220286, 0.0]
['beep', 0.0, -1557.4024984124303, 0.0, 0.0, 0.0, 0.0, 427.81238887457715, 0.0]
['beep', 0.0, -1552.9992047547348, 0.0, 0.0, 0.0, 0.0, 432.2827377656386, 0.0]
['beep', 0.0, -1546.5395506071509, 0.0, 0.0, 0.0, 0.0, 436.19429304531735, 0.0]
['beep', 0.0, -1548.282986674665, 0.0, 0.0, 0.0, 0.0, 432.9085866103872, 0.0]
['beep', 0.0, -1555.7484693227375, 0.0, 0.0, 0.0, 0.0, 427.5665196855688, 0.0]
['beep', 0.0, -1557.7824780681703, 0.0, 0.0, 0.0, 0.0, 427.45476096329224, 0.0]
['beep', 0.0, -1551.9710245097906, 0.0, 0.0, 0.0, 0.0, 432.1933307878174, 0.0]
['beep', 0.0, -1546.4948471182404, 0.0, 0.0, 0.0, 0.0, 435.8143133895771, 0.0]
['beep', 0.0, -1548.2382831857542, 0.0, 0.0, 0.0, 0.0, 433.04269707711904, 0.0]
['beep', 0.0, -1554.7202890777933, 0.0, 0.0, 0.0, 0.0, 427.0300778186414, 0.0]
['beep', 0.0, -1557.6483676014386, 0.0, 0.0, 0.0, 0.0, 425.55486268459117, 0.0]
['beep', 0.0, -1552.663928587905, 0.0, 0.0, 0.0, 0.0, 431.4333714763369, 0.0]
['beep', 0.0, -1546.2713296736872, 0.0, 0.0, 0.0, 0.0, 434.1826360443397, 0.0]
['beep', 0.0, -1549.1770564528772, 0.0, 0.0, 0.0, 0.0, 431.1875022873285, 0.0]
['beep', 0.0, -1556.9778152677793, 0.0, 0.0, 0.0, 0.0, 427.16418828537326, 0.0]
['beep', 0.0, -1558.9000652909358, 0.0, 0.0, 0.0, 0.0, 426.18071152933976, 0.0]
['beep', 0.0, -1554.2732541886871, 0.0, 0.0, 0.0, 0.0, 431.1427987984179, 0.0]
['beep', 0.0, -1549.3335186640643, 0.0, 0.0, 0.0, 0.0, 434.6073191889905, 0.0]
['beep', 0.0, -1550.540512864651, 0.0, 0.0, 0.0, 0.0, 431.52277845415813, 0.0]
['beep', 0.0, -1556.150800722933, 0.0, 0.0, 0.0, 0.0, 426.6948016518118, 0.0]
['beep', 0.0, -1560.5093908917179, 0.0, 0.0, 0.0, 0.0, 428.1029615524962, 0.0]
['beep', 0.0, -1557.1789809678771, 0.0, 0.0, 0.0, 0.0, 432.1933307878174, 0.0]
['beep', 0.0, -1550.2946436756426, 0.0, 0.0, 0.0, 0.0, 435.6131476894793, 0.0]
['beep', 0.0, -1550.9428442648464, 0.0, 0.0, 0.0, 0.0, 432.75212439920006, 0.0]
['beep', 0.0, -1556.083745489567, 0.0, 0.0, 0.0, 0.0, 428.1253132969515, 0.0]
['beep', 0.0, -1556.7542978232264, 0.0, 0.0, 0.0, 0.0, 428.4829412082364, 0.0]
['beep', 0.0, -1550.6746233313827, 0.0, 0.0, 0.0, 0.0, 433.914415110876, 0.0]
['beep', 0.0, -1543.7679342946929, 0.0, 0.0, 0.0, 0.0, 438.3400605130268, 0.0]
['beep', 0.0, -1544.5949488395393, 0.0, 0.0, 0.0, 0.0, 436.2837000231386, 0.0]
['beep', 0.0, -1551.6133965985057, 0.0, 0.0, 0.0, 0.0, 431.61218543197936, 0.0]
['beep', 0.0, -1554.5861786110615, 0.0, 0.0, 0.0, 0.0, 431.8357028765324, 0.0]
['beep', 0.0, -1550.4958093757402, 0.0, 0.0, 0.0, 0.0, 435.8143133895771, 0.0]
['beep', 0.0, -1546.8077715406146, 0.0, 0.0, 0.0, 0.0, 438.20595004629496, 0.0]
['beep', 0.0, -1549.1770564528772, 0.0, 0.0, 0.0, 0.0, 435.76960990066647, 0.0]
['beep', 0.0, -1556.1060972340224, 0.0, 0.0, 0.0, 0.0, 429.7569906421889, 0.0]
['beep', 0.0, -1558.4306786573743, 0.0, 0.0, 0.0, 0.0, 429.24290051971684, 0.0]
['beep', 0.0, -1553.2674256881985, 0.0, 0.0, 0.0, 0.0, 434.76378140017766, 0.0]
['beep', 0.0, -1547.5006756187292, 0.0, 0.0, 0.0, 0.0, 437.22247329026146, 0.0]
['beep', 0.0, -1550.0040709977236, 0.0, 0.0, 0.0, 0.0, 433.9814703442419, 0.0]
['beep', 0.0, -1557.7377745792598, 0.0, 0.0, 0.0, 0.0, 430.0922668090185, 0.0]
['beep', 0.0, -1560.5540943806286, 0.0, 0.0, 0.0, 0.0, 430.31578425357156, 0.0]
['beep', 0.0, -1555.0108617557123, 0.0, 0.0, 0.0, 0.0, 434.1379325554291, 0.0]
['beep', 0.0, -1548.4618006303074, 0.0, 0.0, 0.0, 0.0, 436.88719712343186, 0.0]
['beep', 0.0, -1549.8699605309916, 0.0, 0.0, 0.0, 0.0, 434.5849674445352, 0.0]
['beep', 0.0, -1556.7766495676817, 0.0, 0.0, 0.0, 0.0, 430.1816737868397, 0.0]
['beep', 0.0, -1559.5259141356844, 0.0, 0.0, 0.0, 0.0, 428.88527260843193, 0.0]
['beep', 0.0, -1554.5414751221508, 0.0, 0.0, 0.0, 0.0, 433.1768075438509, 0.0]
['beep', 0.0, -1548.506504119218, 0.0, 0.0, 0.0, 0.0, 436.14958955640674, 0.0]
['beep', 0.0, -1549.6911465753492, 0.0, 0.0, 0.0, 0.0, 434.3167465110715, 0.0]
['beep', 0.0, -1555.7484693227375, 0.0, 0.0, 0.0, 0.0, 429.4664179642699, 0.0]
['beep', 0.0, -1559.637672857961, 0.0, 0.0, 0.0, 0.0, 428.7958656306107, 0.0]
['beep', 0.0, -1554.608530355517, 0.0, 0.0, 0.0, 0.0, 433.73560115523355, 0.0]
['beep', 0.0, -1547.0089372407124, 0.0, 0.0, 0.0, 0.0, 436.3954587454151, 0.0]
['beep', 0.0, -1549.0652977306006, 0.0, 0.0, 0.0, 0.0, 436.0825343230408, 0.0]
['beep', 0.0, -1556.6648908454051, 0.0, 0.0, 0.0, 0.0, 430.7404673982224, 0.0]
['beep', 0.0, -1559.21298971331, 0.0, 0.0, 0.0, 0.0, 428.3935342304152, 0.0]
['beep', 0.0, -1554.407364655419, 0.0, 0.0, 0.0, 0.0, 434.1602842998844, 0.0]
['beep', 0.0, -1548.3723936524862, 0.0, 0.0, 0.0, 0.0, 438.6082814464905, 0.0]
['beep', 0.0, -1549.8252570420811, 0.0, 0.0, 0.0, 0.0, 435.7919616451218, 0.0]
['beep', 0.0, -1557.1566292234218, 0.0, 0.0, 0.0, 0.0, 431.6792406653453, 0.0]
['beep', 0.0, -1559.347100180042, 0.0, 0.0, 0.0, 0.0, 431.1875022873285, 0.0]
['beep', 0.0, -1555.055565244623, 0.0, 0.0, 0.0, 0.0, 434.65202267790113, 0.0]
['beep', 0.0, -1549.7805535531704, 0.0, 0.0, 0.0, 0.0, 436.9766041012531, 0.0]
['beep', 0.0, -1550.5852163535615, 0.0, 0.0, 0.0, 0.0, 435.6131476894793, 0.0]
['beep', 0.0, -1555.9719867672904, 0.0, 0.0, 0.0, 0.0, 430.20402553129503, 0.0]
['beep', 0.0, -1559.3023966911312, 0.0, 0.0, 0.0, 0.0, 431.27690926514975, 0.0]
['beep', 0.0, -1555.5026001337292, 0.0, 0.0, 0.0, 0.0, 436.0378308341302, 0.0]
['beep', 0.0, -1548.7747250526818, 0.0, 0.0, 0.0, 0.0, 437.9600808572866, 0.0]
['beep', 0.0, -1549.9593675088129, 0.0, 0.0, 0.0, 0.0, 436.17194130086204, 0.0]
['beep', 0.0, -1557.02251875669, 0.0, 0.0, 0.0, 0.0, 430.494598209214, 0.0]
['beep', 0.0, -1558.9447687798463, 0.0, 0.0, 0.0, 0.0, 428.90762435288724, 0.0]
['beep', 0.0, -1553.3791844104749, 0.0, 0.0, 0.0, 0.0, 434.45085697780337, 0.0]
['beep', 0.0, -1549.1770564528772, 0.0, 0.0, 0.0, 0.0, 437.9824326017419, 0.0]
['beep', 0.0, -1550.8757890314805, 0.0, 0.0, 0.0, 0.0, 435.2108162892838, 0.0]
['beep', 0.0, -1556.2849111896649, 0.0, 0.0, 0.0, 0.0, 431.0310400761414, 0.0]
['beep', 0.0, -1557.7154228348045, 0.0, 0.0, 0.0, 0.0, 430.1816737868397, 0.0]
['beep', 0.0, -1551.859265787514, 0.0, 0.0, 0.0, 0.0, 434.1826360443397, 0.0]
['beep', 0.0, -1546.4277918848745, 0.0, 0.0, 0.0, 0.0, 437.0883628235296, 0.0]
['beep', 0.0, -1548.1041727190225, 0.0, 0.0, 0.0, 0.0, 435.88136862294306, 0.0]
['beep', 0.0, -1553.3568326660197, 0.0, 0.0, 0.0, 0.0, 431.23220577623914, 0.0]
['beep', 0.0, -1555.9943385117458, 0.0, 0.0, 0.0, 0.0, 431.7686476431665, 0.0]
['beep', 0.0, -1550.5181611201956, 0.0, 0.0, 0.0, 0.0, 435.5460924561134, 0.0]
['beep', 0.0, -1545.1984459398325, 0.0, 0.0, 0.0, 0.0, 439.50235122470275, 0.0]
['beep', 0.0, -1546.316033162598, 0.0, 0.0, 0.0, 0.0, 437.91537736837597, 0.0]
['beep', 0.0, -1553.2897774326536, 0.0, 0.0, 0.0, 0.0, 433.10975231048496, 0.0]
['beep', 0.0, -1556.3296146785754, 0.0, 0.0, 0.0, 0.0, 432.2603860211833, 0.0]
['beep', 0.0, -1551.635748342961, 0.0, 0.0, 0.0, 0.0, 436.55192095660226, 0.0]
['beep', 0.0, -1545.9137017624023, 0.0, 0.0, 0.0, 0.0, 440.0611448360855, 0.0]
['beep', 0.0, -1548.3723936524862, 0.0, 0.0, 0.0, 0.0, 439.4129442468815, 0.0]
['beep', 0.0, -1554.921454777891, 0.0, 0.0, 0.0, 0.0, 434.2496912777056, 0.0]
['beep', 0.0, -1556.0390420006565, 0.0, 0.0, 0.0, 0.0, 433.623842432957, 0.0]
['beep', 0.0, -1551.1216582204888, 0.0, 0.0, 0.0, 0.0, 437.15541805689554, 0.0]
['beep', 0.0, -1546.5619023516062, 0.0, 0.0, 0.0, 0.0, 440.95521461429774, 0.0]
['beep', 0.0, -1548.3947453969415, 0.0, 0.0, 0.0, 0.0, 438.2506535352056, 0.0]
['beep', 0.0, -1555.055565244623, 0.0, 0.0, 0.0, 0.0, 434.09322906651846, 0.0]
['beep', 0.0, -1557.5142571347067, 0.0, 0.0, 0.0, 0.0, 433.35562149949334, 0.0]
['beep', 0.0, -1554.1391437219554, 0.0, 0.0, 0.0, 0.0, 437.0660110790743, 0.0]
['beep', 0.0, -1547.344213407542, 0.0, 0.0, 0.0, 0.0, 440.23995879172793, 0.0]
['beep', 0.0, -1548.797076797137, 0.0, 0.0, 0.0, 0.0, 439.6588134358899, 0.0]
['beep', 0.0, -1555.6143588560055, 0.0, 0.0, 0.0, 0.0, 435.12140931146257, 0.0]
['beep', 0.0, -1558.542437379651, 0.0, 0.0, 0.0, 0.0, 434.495560466714, 0.0]
['beep', 0.0, -1554.8767512889806, 0.0, 0.0, 0.0, 0.0, 439.43529599133683, 0.0]
['beep', 0.0, -1548.282986674665, 0.0, 0.0, 0.0, 0.0, 442.0951535815184, 0.0]
['beep', 0.0, -1547.5230273631844, 0.0, 0.0, 0.0, 0.0, 440.7540489142, 0.0]
['beep', 0.0, -1553.8709227884917, 0.0, 0.0, 0.0, 0.0, 435.88136862294306, 0.0]
['beep', 0.0, -1562.6551583594273, 0.0, 0.0, 0.0, 0.0, 435.65785117838993, 0.0]
['beep', 0.0, -1561.6493298589385, 0.0, 0.0, 0.0, 0.0, 440.28466228063854, 0.0]
['beep', 0.0, -1557.9612920238128, 0.0, 0.0, 0.0, 0.0, 441.84928439251, 0.0]
['beep', 0.0, -1556.888408289958, 0.0, 0.0, 0.0, 0.0, 440.5305314696469, 0.0]
['beep', 0.0, -1562.4316409148744, 0.0, 0.0, 0.0, 0.0, 436.55192095660226, 0.0]
['beep', 0.0, -1565.02444327169, 0.0, 0.0, 0.0, 0.0, 435.88136862294306, 0.0]
['beep', 0.0, -1561.1352397364665, 0.0, 0.0, 0.0, 0.0, 440.57523495855753, 0.0]
['beep', 0.0, -1555.793172811648, 0.0, 0.0, 0.0, 0.0, 442.430429748348, 0.0]
['beep', 0.0, -1556.1955042118436, 0.0, 0.0, 0.0, 0.0, 440.172903558362, 0.0]
['beep', 0.0, -1563.4821729042737, 0.0, 0.0, 0.0, 0.0, 437.0660110790743, 0.0]
['beep', 0.0, -1565.02444327169, 0.0, 0.0, 0.0, 0.0, 434.8084848890883, 0.0]
['beep', 0.0, -1560.2858734471647, 0.0, 0.0, 0.0, 0.0, 439.2564820356944, 0.0]
['beep', 0.0, -1554.608530355517, 0.0, 0.0, 0.0, 0.0, 444.08445883804075, 0.0]
['beep', 0.0, -1556.3966699119414, 0.0, 0.0, 0.0, 0.0, 442.36337451498207, 0.0]
['beep', 0.0, -1562.252826959232, 0.0, 0.0, 0.0, 0.0, 437.55774945709106, 0.0]
['beep', 0.0, -1563.9962630267457, 0.0, 0.0, 0.0, 0.0, 435.1437610559179, 0.0]
['beep', 0.0, -1559.3918036689524, 0.0, 0.0, 0.0, 0.0, 439.0329645911413, 0.0]
['beep', 0.0, -1553.4909431327515, 0.0, 0.0, 0.0, 0.0, 442.1175053259737, 0.0]
['beep', 0.0, -1553.9156262774022, 0.0, 0.0, 0.0, 0.0, 440.3964210029151, 0.0]
['beep', 0.0, -1559.3918036689524, 0.0, 0.0, 0.0, 0.0, 436.7083831677894, 0.0]
['beep', 0.0, -1561.314053692109, 0.0, 0.0, 0.0, 0.0, 435.88136862294306, 0.0]
['beep', 0.0, -1556.5978356120393, 0.0, 0.0, 0.0, 0.0, 439.92703436935363, 0.0]
['beep', 0.0, -1551.1216582204888, 0.0, 0.0, 0.0, 0.0, 442.2069123037949, 0.0]
['beep', 0.0, -1552.9768530102795, 0.0, 0.0, 0.0, 0.0, 439.6588134358899, 0.0]
['beep', 0.0, -1559.5259141356844, 0.0, 0.0, 0.0, 0.0, 436.82014189006594, 0.0]
['beep', 0.0, -1562.5210478926956, 0.0, 0.0, 0.0, 0.0, 435.76960990066647, 0.0]
['beep', 0.0, -1557.9389402793577, 0.0, 0.0, 0.0, 0.0, 440.23995879172793, 0.0]
['beep', 0.0, -1552.0827832320672, 0.0, 0.0, 0.0, 0.0, 443.5033134822027, 0.0]
['beep', 0.0, -1552.8874460324582, 0.0, 0.0, 0.0, 0.0, 440.0611448360855, 0.0]
['beep', 0.0, -1559.5929693690503, 0.0, 0.0, 0.0, 0.0, 434.8755401224542, 0.0]
['beep', 0.0, -1562.4539926593295, 0.0, 0.0, 0.0, 0.0, 434.2273395332503, 0.0]
['beep', 0.0, -1557.246036201243, 0.0, 0.0, 0.0, 0.0, 439.882330880443, 0.0]
['beep', 0.0, -1550.9204925203912, 0.0, 0.0, 0.0, 0.0, 443.9279966268536, 0.0]
['beep', 0.0, -1552.0827832320672, 0.0, 0.0, 0.0, 0.0, 441.29049078112735, 0.0]
['beep', 0.0, -1557.2013327123325, 0.0, 0.0, 0.0, 0.0, 435.65785117838993, 0.0]
['beep', 0.0, -1560.30822519162, 0.0, 0.0, 0.0, 0.0, 434.78613314463297, 0.0]
['beep', 0.0, -1556.575483867584, 0.0, 0.0, 0.0, 0.0, 439.50235122470275, 0.0]
['beep', 0.0, -1550.5852163535615, 0.0, 0.0, 0.0, 0.0, 442.0728018370631, 0.0]
['beep', 0.0, -1551.345175665042, 0.0, 0.0, 0.0, 0.0, 440.68699368083406, 0.0]
['beep', 0.0, -1557.5142571347067, 0.0, 0.0, 0.0, 0.0, 436.7754384011553, 0.0]
['beep', 0.0, -1561.5152193922067, 0.0, 0.0, 0.0, 0.0, 435.03200233364134, 0.0]
['beep', 0.0, -1558.408326912919, 0.0, 0.0, 0.0, 0.0, 438.9212058688648, 0.0]
['beep', 0.0, -1552.7756873101816, 0.0, 0.0, 0.0, 0.0, 443.34685127101557, 0.0]
['beep', 0.0, -1552.9097977769136, 0.0, 0.0, 0.0, 0.0, 441.0893250810296, 0.0]
['beep', 0.0, -1559.3918036689524, 0.0, 0.0, 0.0, 0.0, 436.3060517675939, 0.0]
['beep', 0.0, -1562.5881031260615, 0.0, 0.0, 0.0, 0.0, 435.2778715226497, 0.0]
['beep', 0.0, -1557.9389402793577, 0.0, 0.0, 0.0, 0.0, 438.20595004629496, 0.0]
['beep', 0.0, -1551.7475070652374, 0.0, 0.0, 0.0, 0.0, 441.8716361369653, 0.0]
['beep', 0.0, -1552.4627628878075, 0.0, 0.0, 0.0, 0.0, 441.24578729221673, 0.0]
['beep', 0.0, -1558.9224170353912, 0.0, 0.0, 0.0, 0.0, 435.70255466730055, 0.0]
['beep', 0.0, -1562.3645856815083, 0.0, 0.0, 0.0, 0.0, 434.69672616681174, 0.0]
['beep', 0.0, -1557.8495333015364, 0.0, 0.0, 0.0, 0.0, 439.77057215816643, 0.0]
['beep', 0.0, -1551.8145622986035, 0.0, 0.0, 0.0, 0.0, 442.7880576596329, 0.0]
['beep', 0.0, -1552.3510041655309, 0.0, 0.0, 0.0, 0.0, 440.95521461429774, 0.0]
['beep', 0.0, -1559.2353414577653, 0.0, 0.0, 0.0, 0.0, 435.5460924561134, 0.0]
['beep', 0.0, -1561.5152193922067, 0.0, 0.0, 0.0, 0.0, 434.1379325554291, 0.0]
['beep', 0.0, -1557.4919053902515, 0.0, 0.0, 0.0, 0.0, 438.9435576133201, 0.0]
['beep', 0.0, -1551.7475070652374, 0.0, 0.0, 0.0, 0.0, 442.25161579270554, 0.0]
['beep', 0.0, -1552.798039054637, 0.0, 0.0, 0.0, 0.0, 441.02226984766367, 0.0]
['beep', 0.0, -1557.9389402793577, 0.0, 0.0, 0.0, 0.0, 436.3507552565045, 0.0]
['beep', 0.0, -1561.0234810141899, 0.0, 0.0, 0.0, 0.0, 435.12140931146257, 0.0]
['beep', 0.0, -1556.1955042118436, 0.0, 0.0, 0.0, 0.0, 440.26231053618324, 0.0]
['beep', 0.0, -1550.3393471645531, 0.0, 0.0, 0.0, 0.0, 443.7938861601217, 0.0]
['beep', 0.0, -1550.406402397919, 0.0, 0.0, 0.0, 0.0, 439.8599791359877, 0.0]
['beep', 0.0, -1558.542437379651, 0.0, 0.0, 0.0, 0.0, 435.88136862294306, 0.0]
['beep', 0.0, -1561.761088581215, 0.0, 0.0, 0.0, 0.0, 436.5966244455129, 0.0]
['beep', 0.0, -1557.380146667975, 0.0, 0.0, 0.0, 0.0, 440.2176070472726, 0.0]
['beep', 0.0, -1552.0604314876118, 0.0, 0.0, 0.0, 0.0, 443.7044791823005, 0.0]
['beep', 0.0, -1551.3675274094974, 0.0, 0.0, 0.0, 0.0, 442.139857070429, 0.0]
['beep', 0.0, -1557.4024984124303, 0.0, 0.0, 0.0, 0.0, 437.6024529460017, 0.0]
['beep', 0.0, -1561.1799432253772, 0.0, 0.0, 0.0, 0.0, 435.70255466730055, 0.0]
['beep', 0.0, -1556.9331117788688, 0.0, 0.0, 0.0, 0.0, 439.6364616914346, 0.0]
['beep', 0.0, -1550.6746233313827, 0.0, 0.0, 0.0, 0.0, 444.03975534913013, 0.0]
['beep', 0.0, -1551.8369140430586, 0.0, 0.0, 0.0, 0.0, 441.91633962587593, 0.0]
['beep', 0.0, -1558.2742164461872, 0.0, 0.0, 0.0, 0.0, 438.0718395795631, 0.0]
['beep', 0.0, -1561.2917019476536, 0.0, 0.0, 0.0, 0.0, 435.92607211185367, 0.0]
['beep', 0.0, -1557.827181557081, 0.0, 0.0, 0.0, 0.0, 440.03879309163017, 0.0]
['beep', 0.0, -1551.859265787514, 0.0, 0.0, 0.0, 0.0, 443.63742394893455, 0.0]
['beep', 0.0, -1552.0827832320672, 0.0, 0.0, 0.0, 0.0, 440.57523495855753, 0.0]
['beep', 0.0, -1558.1177542350001, 0.0, 0.0, 0.0, 0.0, 437.4012872459039, 0.0]
['beep', 0.0, -1561.9846060257682, 0.0, 0.0, 0.0, 0.0, 438.83179889104355, 0.0]
['beep', 0.0, -1556.9107600344134, 0.0, 0.0, 0.0, 0.0, 443.30214778210495, 0.0]
['beep', 0.0, -1549.73585006426, 0.0, 0.0, 0.0, 0.0, 447.1913513173284, 0.0]
['beep', 0.0, -1551.2781204316761, 0.0, 0.0, 0.0, 0.0, 443.4809617377474, 0.0]
['beep', 0.0, -1556.731946078771, 0.0, 0.0, 0.0, 0.0, 438.7423919132223, 0.0]
['beep', 0.0, -1560.375280424986, 0.0, 0.0, 0.0, 0.0, 437.89302562392066, 0.0]
['beep', 0.0, -1555.793172811648, 0.0, 0.0, 0.0, 0.0, 442.4751332372586, 0.0]
['beep', 0.0, -1550.9651960093017, 0.0, 0.0, 0.0, 0.0, 446.38668851693734, 0.0]
['beep', 0.0, -1551.8145622986035, 0.0, 0.0, 0.0, 0.0, 444.978528616253, 0.0]
['beep', 0.0, -1557.670719345894, 0.0, 0.0, 0.0, 0.0, 439.6364616914346, 0.0]
['beep', 0.0, -1560.8893705474582, 0.0, 0.0, 0.0, 0.0, 438.6976884243117, 0.0]
['beep', 0.0, -1556.3296146785754, 0.0, 0.0, 0.0, 0.0, 442.5198367261692, 0.0]
['beep', 0.0, -1551.3228239205866, 0.0, 0.0, 0.0, 0.0, 445.85024665001, 0.0]
['beep', 0.0, -1552.0380797431565, 0.0, 0.0, 0.0, 0.0, 442.29631928161615, 0.0]
['beep', 0.0, -1558.1624577239106, 0.0, 0.0, 0.0, 0.0, 438.4071157463927, 0.0]
['beep', 0.0, -1561.5822746255726, 0.0, 0.0, 0.0, 0.0, 437.9377291128313, 0.0]
['beep', 0.0, -1557.4919053902515, 0.0, 0.0, 0.0, 0.0, 443.1009820820072, 0.0]
['beep', 0.0, -1551.6133965985057, 0.0, 0.0, 0.0, 0.0, 446.6325577059457, 0.0]
['beep', 0.0, -1552.216893698799, 0.0, 0.0, 0.0, 0.0, 444.9338251273424, 0.0]
['beep', 0.0, -1559.0788792465783, 0.0, 0.0, 0.0, 0.0, 441.0669733365743, 0.0]
['beep', 0.0, -1562.3198821925978, 0.0, 0.0, 0.0, 0.0, 438.4071157463927, 0.0]
['beep', 0.0, -1560.6435013584498, 0.0, 0.0, 0.0, 0.0, 442.27396753716084, 0.0]
['beep', 0.0, -1553.5356466216622, 0.0, 0.0, 0.0, 0.0, 446.5655024725798, 0.0]
['beep', 0.0, -1548.730021563771, 0.0, 0.0, 0.0, 0.0, 443.27979603764965, 0.0]
['beep', 0.0, -1551.5239896206845, 0.0, 0.0, 0.0, 0.0, 439.56940645806867, 0.0]
['beep', 0.0, -1555.5249518781843, 0.0, 0.0, 0.0, 0.0, 438.49652272421395, 0.0]
['beep', 0.0, -1553.02155649919, 0.0, 0.0, 0.0, 0.0, 443.32449952656026, 0.0]
['beep', 0.0, -1546.8748267739807, 0.0, 0.0, 0.0, 0.0, 445.71613618327814, 0.0]
['beep', 0.0, -1547.4559721298185, 0.0, 0.0, 0.0, 0.0, 443.30214778210495, 0.0]
['beep', 0.0, -1553.4909431327515, 0.0, 0.0, 0.0, 0.0, 439.47999948024744, 0.0]
['beep', 0.0, -1556.8437048010476, 0.0, 0.0, 0.0, 0.0, 437.3565837569933, 0.0]
['beep', 0.0, -1552.9321495213687, 0.0, 0.0, 0.0, 0.0, 440.30701402509385, 0.0]
['beep', 0.0, -1546.6513093294275, 0.0, 0.0, 0.0, 0.0, 443.27979603764965, 0.0]
['beep', 0.0, -1548.3723936524862, 0.0, 0.0, 0.0, 0.0, 442.0504500926078, 0.0]
['beep', 0.0, -1554.7202890777933, 0.0, 0.0, 0.0, 0.0, 437.78126690164413, 0.0]
['beep', 0.0, -1558.341271679553, 0.0, 0.0, 0.0, 0.0, 438.2730052796609, 0.0]
['beep', 0.0, -1553.826219299581, 0.0, 0.0, 0.0, 0.0, 442.0728018370631, 0.0]
['beep', 0.0, -1547.8136000411034, 0.0, 0.0, 0.0, 0.0, 445.5820257165463, 0.0]
['beep', 0.0, -1548.4618006303074, 0.0, 0.0, 0.0, 0.0, 442.96687161527535, 0.0]
['beep', 0.0, -1554.0497367441342, 0.0, 0.0, 0.0, 0.0, 438.6082814464905, 0.0]
['beep', 0.0, -1557.1119257345113, 0.0, 0.0, 0.0, 0.0, 436.90954886788717, 0.0]
['beep', 0.0, -1552.7533355657263, 0.0, 0.0, 0.0, 0.0, 440.91051112538713, 0.0]
['beep', 0.0, -1546.3830883959638, 0.0, 0.0, 0.0, 0.0, 445.71613618327814, 0.0]
['beep', 0.0, -1546.8971785184358, 0.0, 0.0, 0.0, 0.0, 443.8609413934877, 0.0]
['beep', 0.0, -1553.0439082436453, 0.0, 0.0, 0.0, 0.0, 437.87067387946536, 0.0]
['beep', 0.0, -1556.575483867584, 0.0, 0.0, 0.0, 0.0, 436.50721746769165, 0.0]
['beep', 0.0, -1552.015727998701, 0.0, 0.0, 0.0, 0.0, 440.91051112538713, 0.0]
['beep', 0.0, -1546.5395506071509, 0.0, 0.0, 0.0, 0.0, 445.2467495497167, 0.0]
['beep', 0.0, -1547.411268640908, 0.0, 0.0, 0.0, 0.0, 443.25744429319434, 0.0]
['beep', 0.0, -1553.9826815107683, 0.0, 0.0, 0.0, 0.0, 438.3400605130268, 0.0]
['beep', 0.0, -1556.6648908454051, 0.0, 0.0, 0.0, 0.0, 438.0047843461972, 0.0]
['beep', 0.0, -1553.02155649919, 0.0, 0.0, 0.0, 0.0, 441.58106345904633, 0.0]
['beep', 0.0, -1547.6794895743717, 0.0, 0.0, 0.0, 0.0, 445.9396536278312, 0.0]
['beep', 0.0, -1548.506504119218, 0.0, 0.0, 0.0, 0.0, 444.5538454716022, 0.0]
['beep', 0.0, -1555.1673239668994, 0.0, 0.0, 0.0, 0.0, 440.26231053618324, 0.0]
['beep', 0.0, -1558.4530304018297, 0.0, 0.0, 0.0, 0.0, 439.12237156896254, 0.0]
['beep', 0.0, -1555.2343792002655, 0.0, 0.0, 0.0, 0.0, 442.4751332372586, 0.0]
['beep', 0.0, -1549.4229256418855, 0.0, 0.0, 0.0, 0.0, 445.3138047830826, 0.0]
['beep', 0.0, -1550.1605332089107, 0.0, 0.0, 0.0, 0.0, 441.93869137033124, 0.0]
['beep', 0.0, -1555.9496350228353, 0.0, 0.0, 0.0, 0.0, 437.2895285236274, 0.0]
['beep', 0.0, -1559.347100180042, 0.0, 0.0, 0.0, 0.0, 437.9824326017419, 0.0]
['beep', 0.0, -1555.5249518781843, 0.0, 0.0, 0.0, 0.0, 441.35754601449327, 0.0]
['beep', 0.0, -1549.4229256418855, 0.0, 0.0, 0.0, 0.0, 444.8891216384318, 0.0]
['beep', 0.0, -1547.4336203853632, 0.0, 0.0, 0.0, 0.0, 443.883293137943, 0.0]
['beep', 0.0, -1551.702803576327, 0.0, 0.0, 0.0, 0.0, 439.0553163355966, 0.0]
['beep', 0.0, -1554.474419888785, 0.0, 0.0, 0.0, 0.0, 438.0494878351078, 0.0]
['beep', 0.0, -1549.8476087865365, 0.0, 0.0, 0.0, 0.0, 440.23995879172793, 0.0]
['beep', 0.0, -1546.763068051704, 0.0, 0.0, 0.0, 0.0, 446.0067088611971, 0.0]
['beep', 0.0, -1553.7144605773046, 0.0, 0.0, 0.0, 0.0, 439.6141099469793, 0.0]
['beep', 0.0, -1558.4530304018297, 0.0, 0.0, 0.0, 0.0, 437.2895285236274, 0.0]
['beep', 0.0, -1554.250902444232, 0.0, 0.0, 0.0, 0.0, 440.95521461429774, 0.0]
['beep', 0.0, -1548.573559352584, 0.0, 0.0, 0.0, 0.0, 444.2185693047726, 0.0]
['beep', 0.0, -1548.3947453969415, 0.0, 0.0, 0.0, 0.0, 442.8774646374541, 0.0]
['beep', 0.0, -1554.4297163998745, 0.0, 0.0, 0.0, 0.0, 439.23413029123907, 0.0]
['beep', 0.0, -1556.9778152677793, 0.0, 0.0, 0.0, 0.0, 437.4012872459039, 0.0]
['beep', 0.0, -1552.8650942880029, 0.0, 0.0, 0.0, 0.0, 442.92216812636474, 0.0]
['beep', 0.0, -1545.9360535068577, 0.0, 0.0, 0.0, 0.0, 445.3361565275379, 0.0]
['beep', 0.0, -1546.7183645627933, 0.0, 0.0, 0.0, 0.0, 442.31867102607146, 0.0]
['beep', 0.0, -1553.02155649919, 0.0, 0.0, 0.0, 0.0, 437.53539771263576, 0.0]
['beep', 0.0, -1556.5978356120393, 0.0, 0.0, 0.0, 0.0, 436.17194130086204, 0.0]
['beep', 0.0, -1551.7251553207823, 0.0, 0.0, 0.0, 0.0, 439.81527564707704, 0.0]
['beep', 0.0, -1546.1595709514108, 0.0, 0.0, 0.0, 0.0, 443.63742394893455, 0.0]
['beep', 0.0, -1547.634786085461, 0.0, 0.0, 0.0, 0.0, 585.8839256625088, 0.0]
['beep', 0.0, -1554.630882099972, 0.0, 0.0, 0.0, 0.0, 582.3076465496596, 0.0]
['beep', 0.0, -1559.5259141356844, 0.0, 0.0, 0.0, 0.0, 579.06664360364, 0.0]
['beep', 0.0, -1559.0341757576675, 0.0, 0.0, 0.0, 0.0, 581.7935564271876, 0.0]
['beep', 0.0, -1553.8709227884917, 0.0, 0.0, 0.0, 0.0, 584.9675041398411, 0.0]
['beep', 0.0, -1551.9710245097906, 0.0, 0.0, 0.0, 0.0, 586.5768297406232, 0.0]
['beep', 0.0, -1558.1624577239106, 0.0, 0.0, 0.0, 0.0, 583.4699372613355, 0.0]
['beep', 0.0, -1563.7503938377374, 0.0, 0.0, 0.0, 0.0, 579.3572162815591, 0.0]
['beep', 0.0, -1560.9340740363687, 0.0, 0.0, 0.0, 0.0, 580.519506993235, 0.0]
['beep', 0.0, -1553.9156262774022, 0.0, 0.0, 0.0, 0.0, 584.3416552950926, 0.0]
['beep', 0.0, -1550.3393471645531, 0.0, 0.0, 0.0, 0.0, 586.777995440721, 0.0]
['beep', 0.0, -1553.4238878993856, 0.0, 0.0, 0.0, 0.0, 584.1181378505395, 0.0]
['beep', 0.0, -1557.1119257345113, 0.0, 0.0, 0.0, 0.0, 579.9830651263077, 0.0]
['beep', 0.0, -1558.028347257179, 0.0, 0.0, 0.0, 0.0, 580.9441901378858, 0.0]
['beep', 0.0, -1551.8369140430586, 0.0, 0.0, 0.0, 0.0, 586.9568093963635, 0.0]
['beep', 0.0, -1548.9758907527794, 0.0, 0.0, 0.0, 0.0, 588.5884867416008, 0.0]
['beep', 0.0, -1552.507466376718, 0.0, 0.0, 0.0, 0.0, 583.5146407502461, 0.0]
['beep', 0.0, -1556.1284489784778, 0.0, 0.0, 0.0, 0.0, 580.9888936267964, 0.0]
['beep', 0.0, -1555.279082689176, 0.0, 0.0, 0.0, 0.0, 583.4699372613355, 0.0]
['beep', 0.0, -1550.2052366978214, 0.0, 0.0, 0.0, 0.0, 587.940286152397, 0.0]
['beep', 0.0, -1549.8476087865365, 0.0, 0.0, 0.0, 0.0, 587.4708995188355, 0.0]
['beep', 0.0, -1553.7591640662151, 0.0, 0.0, 0.0, 0.0, 584.6992832063775, 0.0]
['beep', 0.0, -1557.894236790447, 0.0, 0.0, 0.0, 0.0, 581.1900593268942, 0.0]
['beep', 0.0, -1558.5871408685614, 0.0, 0.0, 0.0, 0.0, 583.939323894897, 0.0]
['beep', 0.0, -1552.015727998701, 0.0, 0.0, 0.0, 0.0, 589.1696320974389, 0.0]
['beep', 0.0, -1546.3607366515084, 0.0, 0.0, 0.0, 0.0, 590.197812342383, 0.0]
['beep', 0.0, -1549.73585006426, 0.0, 0.0, 0.0, 0.0, 585.3698355400367, 0.0]
['beep', 0.0, -1556.5531321231285, 0.0, 0.0, 0.0, 0.0, 581.4359285159027, 0.0]
['beep', 0.0, -1559.503562391229, 0.0, 0.0, 0.0, 0.0, 584.1628413394501, 0.0]
['beep', 0.0, -1555.1673239668994, 0.0, 0.0, 0.0, 0.0, 588.0296931302182, 0.0]
['beep', 0.0, -1550.5181611201956, 0.0, 0.0, 0.0, 0.0, 589.0578733751623, 0.0]
['beep', 0.0, -1554.2956059331425, 0.0, 0.0, 0.0, 0.0, 585.5710012401345, 0.0]
['beep', 0.0, -1560.0400042581564, 0.0, 0.0, 0.0, 0.0, 582.1735360829277, 0.0]
['beep', 0.0, -1557.4024984124303, 0.0, 0.0, 0.0, 0.0, 584.4981175062796, 0.0]
['beep', 0.0, -1550.0934779755448, 0.0, 0.0, 0.0, 0.0, 589.8401844310981, 0.0]
['beep', 0.0, -1547.1877511963548, 0.0, 0.0, 0.0, 0.0, 591.0471786316847, 0.0]
['beep', 0.0, -1552.9321495213687, 0.0, 0.0, 0.0, 0.0, 586.9121059074529, 0.0]
['beep', 0.0, -1559.861190302514, 0.0, 0.0, 0.0, 0.0, 582.7546814387657, 0.0]
['beep', 0.0, -1559.9505972803352, 0.0, 0.0, 0.0, 0.0, 585.906277406964, 0.0]
['beep', 0.0, -1552.440411143352, 0.0, 0.0, 0.0, 0.0, 589.2143355863495, 0.0]
['beep', 0.0, -1548.573559352584, 0.0, 0.0, 0.0, 0.0, 591.1142338650506, 0.0]
['beep', 0.0, -1553.3791844104749, 0.0, 0.0, 0.0, 0.0, 587.4038442854696, 0.0]
['beep', 0.0, -1558.9000652909358, 0.0, 0.0, 0.0, 0.0, 586.3756640405255, 0.0]
['beep', 0.0, -1555.9049315339246, 0.0, 0.0, 0.0, 0.0, 588.7673006972433, 0.0]
['beep', 0.0, -1548.7076698193157, 0.0, 0.0, 0.0, 0.0, 592.16476585445, 0.0]
['beep', 0.0, -1546.5395506071509, 0.0, 0.0, 0.0, 0.0, 592.9470769103857, 0.0]
['beep', 0.0, -1552.0380797431565, 0.0, 0.0, 0.0, 0.0, 588.7896524416986, 0.0]
['beep', 0.0, -1559.1459344799441, 0.0, 0.0, 0.0, 0.0, 585.034559373207, 0.0]
['beep', 0.0, -1558.9447687798463, 0.0, 0.0, 0.0, 0.0, 587.3144373076484, 0.0]
['beep', 0.0, -1551.5910448540503, 0.0, 0.0, 0.0, 0.0, 592.5223937657349, 0.0]
['beep', 0.0, -1546.7183645627933, 0.0, 0.0, 0.0, 0.0, 593.7293879663215, 0.0]
['beep', 0.0, -1551.3675274094974, 0.0, 0.0, 0.0, 0.0, 589.5943152420897, 0.0]
['beep', 0.0, -1558.542437379651, 0.0, 0.0, 0.0, 0.0, 585.9286291514194, 0.0]
['beep', 0.0, -1557.7154228348045, 0.0, 0.0, 0.0, 0.0, 588.521431508235, 0.0]
['beep', 0.0, -1549.5793878530728, 0.0, 0.0, 0.0, 0.0, 595.4951757782908, 0.0]
['beep', 0.0, -1547.3218616630868, 0.0, 0.0, 0.0, 0.0, 595.4728240338354, 0.0]
['beep', 0.0, -1551.9710245097906, 0.0, 0.0, 0.0, 0.0, 591.1812890984165, 0.0]
['beep', 0.0, -1556.7766495676817, 0.0, 0.0, 0.0, 0.0, 589.326094308626, 0.0]
['beep', 0.0, -1558.3859751684638, 0.0, 0.0, 0.0, 0.0, 591.0024751427741, 0.0]
['beep', 0.0, -1554.6755855888828, 0.0, 0.0, 0.0, 0.0, 595.6739897339332, 0.0]
['beep', 0.0, -1551.2334169427654, 0.0, 0.0, 0.0, 0.0, 597.1715566124388, 0.0]
['beep', 0.0, -1553.088611732556, 0.0, 0.0, 0.0, 0.0, 594.0423123886958, 0.0]
['beep', 0.0, -1558.7212513352933, 0.0, 0.0, 0.0, 0.0, 589.326094308626, 0.0]
['beep', 0.0, -1560.0847077470671, 0.0, 0.0, 0.0, 0.0, 591.6730274764333, 0.0]
['beep', 0.0, -1556.374318167486, 0.0, 0.0, 0.0, 0.0, 596.4339490454137, 0.0]
['beep', 0.0, -1553.9156262774022, 0.0, 0.0, 0.0, 0.0, 596.5233560232349, 0.0]
['beep', 0.0, -1557.0001670122347, 0.0, 0.0, 0.0, 0.0, 593.4611670328578, 0.0]
['beep', 0.0, -1558.4977338907402, 0.0, 0.0, 0.0, 0.0, 590.5107367647573, 0.0]
['beep', 0.0, -1559.0118240132124, 0.0, 0.0, 0.0, 0.0, 591.7847861987098, 0.0]
['beep', 0.0, -1558.184809468366, 0.0, 0.0, 0.0, 0.0, 595.0704926336399, 0.0]
['beep', 0.0, -1556.6201873564944, 0.0, 0.0, 0.0, 0.0, 597.0597978901623, 0.0]
['beep', 0.0, -1558.542437379651, 0.0, 0.0, 0.0, 0.0, 595.0481408891847, 0.0]
['beep', 0.0, -1562.1857717258658, 0.0, 0.0, 0.0, 0.0, 591.0024751427741, 0.0]
['beep', 0.0, -1562.923379292891, 0.0, 0.0, 0.0, 0.0, 592.3435798100925, 0.0]
['beep', 0.0, -1557.4024984124303, 0.0, 0.0, 0.0, 0.0, 596.5680595121455, 0.0]
['beep', 0.0, -1554.474419888785, 0.0, 0.0, 0.0, 0.0, 597.4844810348131, 0.0]
['beep', 0.0, -1557.8048298126257, 0.0, 0.0, 0.0, 0.0, 593.9305536664193, 0.0]
['beep', 0.0, -1564.1080217490223, 0.0, 0.0, 0.0, 0.0, 589.9519431533746, 0.0]
['beep', 0.0, -1566.5443618946508, 0.0, 0.0, 0.0, 0.0, 592.2541728322713, 0.0]
['beep', 0.0, -1560.4199839138967, 0.0, 0.0, 0.0, 0.0, 597.3950740569919, 0.0]
['beep', 0.0, -1554.8320478000699, 0.0, 0.0, 0.0, 0.0, 598.0879781351064, 0.0]
['beep', 0.0, -1557.894236790447, 0.0, 0.0, 0.0, 0.0, 594.9810856558187, 0.0]
['beep', 0.0, -1566.9466932948462, 0.0, 0.0, 0.0, 0.0, 590.5554402536679, 0.0]
['beep', 0.0, -1568.31014970662, 0.0, 0.0, 0.0, 0.0, 591.7177309653439, 0.0]
['beep', 0.0, -1560.1294112359776, 0.0, 0.0, 0.0, 0.0, 596.5904112566008, 0.0]
['beep', 0.0, -1552.7533355657263, 0.0, 0.0, 0.0, 0.0, 598.0432746461958, 0.0]
['beep', 0.0, -1559.503562391229, 0.0, 0.0, 0.0, 0.0, 594.6458094889891, 0.0]
['beep', 0.0, -1568.7795363401815, 0.0, 0.0, 0.0, 0.0, 588.9461146528857, 0.0]
['beep', 0.0, -1569.3606816960196, 0.0, 0.0, 0.0, 0.0, 591.2036408428718, 0.0]
['beep', 0.0, -1561.090536247556, 0.0, 0.0, 0.0, 0.0, 597.3727223125366, 0.0]
['beep', 0.0, -1556.2402077007541, 0.0, 0.0, 0.0, 0.0, 596.2998385786818, 0.0]
['beep', 0.0, -1560.4646874028074, 0.0, 0.0, 0.0, 0.0, 592.5000420212796, 0.0]
['beep', 0.0, -1567.4831351617736, 0.0, 0.0, 0.0, 0.0, 589.5496117531791, 0.0]
['beep', 0.0, -1568.377204939986, 0.0, 0.0, 0.0, 0.0, 590.6224954870338, 0.0]
['beep', 0.0, -1561.6940333478492, 0.0, 0.0, 0.0, 0.0, 595.9645624118522, 0.0]
['beep', 0.0, -1559.1906379688548, 0.0, 0.0, 0.0, 0.0, 597.0597978901623, 0.0]
['beep', 0.0, -1564.1974287268436, 0.0, 0.0, 0.0, 0.0, 591.4942135207908, 0.0]
['beep', 0.0, -1570.0088822852233, 0.0, 0.0, 0.0, 0.0, 588.2755623192265, 0.0]
['beep', 0.0, -1568.5336671511732, 0.0, 0.0, 0.0, 0.0, 589.9295914089194, 0.0]
['beep', 0.0, -1563.4598211598184, 0.0, 0.0, 0.0, 0.0, 594.9140304224528, 0.0]
['beep', 0.0, -1559.9505972803352, 0.0, 0.0, 0.0, 0.0, 595.4504722893802, 0.0]
['beep', 0.0, -1562.3869374259637, 0.0, 0.0, 0.0, 0.0, 591.2483443317824, 0.0]
['beep', 0.0, -1569.6512543739384, 0.0, 0.0, 0.0, 0.0, 589.4825565198132, 0.0]
['beep', 0.0, -1571.3946904414524, 0.0, 0.0, 0.0, 0.0, 590.4436815313913, 0.0]
['beep', 0.0, -1563.6386351154608, 0.0, 0.0, 0.0, 0.0, 594.9587339113634, 0.0]
['beep', 0.0, -1559.0118240132124, 0.0, 0.0, 0.0, 0.0, 595.6292862450226, 0.0]
['beep', 0.0, -1561.8504955590363, 0.0, 0.0, 0.0, 0.0, 591.6730274764333, 0.0]
['beep', 0.0, -1569.4500886738408, 0.0, 0.0, 0.0, 0.0, 586.8003471851763, 0.0]
['beep', 0.0, -1569.1818677403771, 0.0, 0.0, 0.0, 0.0, 588.0073413857629, 0.0]
['beep', 0.0, -1561.9622542813129, 0.0, 0.0, 0.0, 0.0, 592.6118007435562, 0.0]
['beep', 0.0, -1557.8048298126257, 0.0, 0.0, 0.0, 0.0, 594.8022717001762, 0.0]
['beep', 0.0, -1564.219780471299, 0.0, 0.0, 0.0, 0.0, 589.4825565198132, 0.0]
['beep', 0.0, -1572.6910916198603, 0.0, 0.0, 0.0, 0.0, 585.1910215843942, 0.0]
['beep', 0.0, -1571.3052834636312, 0.0, 0.0, 0.0, 0.0, 587.1579750964612, 0.0]
['beep', 0.0, -1564.0633182601116, 0.0, 0.0, 0.0, 0.0, 592.2765245767265, 0.0]
['beep', 0.0, -1558.542437379651, 0.0, 0.0, 0.0, 0.0, 592.2541728322713, 0.0]
['beep', 0.0, -1563.2586554597206, 0.0, 0.0, 0.0, 0.0, 588.3649692970478, 0.0]
['beep', 0.0, -1570.2994549631424, 0.0, 0.0, 0.0, 0.0, 585.4815942623133, 0.0]
['beep', 0.0, -1569.539495651662, 0.0, 0.0, 0.0, 0.0, 586.9344576519081, 0.0]
['beep', 0.0, -1564.242132215754, 0.0, 0.0, 0.0, 0.0, 588.2532105747713, 0.0]
['beep', 0.0, -1563.7503938377374, 0.0, 0.0, 0.0, 0.0, 589.616666986545, 0.0]
['beep', 0.0, -1568.444260173352, 0.0, 0.0, 0.0, 0.0, 586.5768297406232, 0.0]
['beep', 0.0, -1570.9923590412568, 0.0, 0.0, 0.0, 0.0, 581.9500186383747, 0.0]
['beep', 0.0, -1568.1313357509775, 0.0, 0.0, 0.0, 0.0, 582.8217366721317, 0.0]
['beep', 0.0, -1562.3422339370532, 0.0, 0.0, 0.0, 0.0, 587.6944169633886, 0.0]
['beep', 0.0, -1561.3364054365643, 0.0, 0.0, 0.0, 0.0, 588.2532105747713, 0.0]
['beep', 0.0, -1564.6444636159497, 0.0, 0.0, 0.0, 0.0, 583.5593442391568, 0.0]
['beep', 0.0, -1570.6794346188826, 0.0, 0.0, 0.0, 0.0, 580.1618790819501, 0.0]
['beep', 0.0, -1571.8193735861032, 0.0, 0.0, 0.0, 0.0, 582.553515738668, 0.0]
['beep', 0.0, -1566.4326031723742, 0.0, 0.0, 0.0, 0.0, 586.2639053182489, 0.0]
['beep', 0.0, -1562.4316409148744, 0.0, 0.0, 0.0, 0.0, 586.7556436962657, 0.0]
['beep', 0.0, -1566.11967875, 0.0, 0.0, 0.0, 0.0, 584.1851930839053, 0.0]
['beep', 0.0, -1571.886428819469, 0.0, 0.0, 0.0, 0.0, 580.6089139710563, 0.0]
['beep', 0.0, -1572.31111196412, 0.0, 0.0, 0.0, 0.0, 580.9888936267964, 0.0]
['beep', 0.0, -1565.2703124606983, 0.0, 0.0, 0.0, 0.0, 584.6098762285562, 0.0]
['beep', 0.0, -1561.7387368367597, 0.0, 0.0, 0.0, 0.0, 585.7498151957769, 0.0]
['beep', 0.0, -1566.633768872472, 0.0, 0.0, 0.0, 0.0, 582.0170738717406, 0.0]
['beep', 0.0, -1572.4005189419413, 0.0, 0.0, 0.0, 0.0, 577.8596494030535, 0.0]
['beep', 0.0, -1573.1381265089665, 0.0, 0.0, 0.0, 0.0, 578.8654779035423, 0.0]
['beep', 0.0, -1567.661949117416, 0.0, 0.0, 0.0, 0.0, 583.2911233056931, 0.0]
['beep', 0.0, -1563.8174490711033, 0.0, 0.0, 0.0, 0.0, 583.9616756393523, 0.0]
['beep', 0.0, -1565.829106072081, 0.0, 0.0, 0.0, 0.0, 578.8878296479976, 0.0]
['beep', 0.0, -1570.4782689187848, 0.0, 0.0, 0.0, 0.0, 574.0822045901066, 0.0]
['beep', 0.0, -1571.506449163729, 0.0, 0.0, 0.0, 0.0, 576.3397307800926, 0.0]
['beep', 0.0, -1565.985568283268, 0.0, 0.0, 0.0, 0.0, 580.2736378042266, 0.0]
['beep', 0.0, -1561.470515903296, 0.0, 0.0, 0.0, 0.0, 580.1842308264054, 0.0]
['beep', 0.0, -1565.8067543276256, 0.0, 0.0, 0.0, 0.0, 576.004454613263, 0.0]
['beep', 0.0, -1571.439393930363, 0.0, 0.0, 0.0, 0.0, 572.584637711601, 0.0]
['beep', 0.0, -1571.1264695079888, 0.0, 0.0, 0.0, 0.0, 574.7527569237658, 0.0]
['beep', 0.0, -1565.0914985050558, 0.0, 0.0, 0.0, 0.0, 579.6924924483886, 0.0]
['beep', 0.0, -1561.246998458743, 0.0, 0.0, 0.0, 0.0, 580.9441901378858, 0.0]
['beep', 0.0, -1563.862152560014, 0.0, 0.0, 0.0, 0.0, 577.5914284695898, 0.0]
['beep', 0.0, -1569.606550885028, 0.0, 0.0, 0.0, 0.0, 573.7916319121877, 0.0]
['beep', 0.0, -1571.059414274623, 0.0, 0.0, 0.0, 0.0, 574.1492598234726, 0.0]
['beep', 0.0, -1565.2032572273324, 0.0, 0.0, 0.0, 0.0, 579.2007540703719, 0.0]
['beep', 0.0, -1560.7776118251816, 0.0, 0.0, 0.0, 0.0, 581.5476872381792, 0.0]
['beep', 0.0, -1564.7785740826816, 0.0, 0.0, 0.0, 0.0, 577.1890970693943, 0.0]
['beep', 0.0, -1570.5453241521507, 0.0, 0.0, 0.0, 0.0, 573.6575214454558, 0.0]
['beep', 0.0, -1570.7241381077931, 0.0, 0.0, 0.0, 0.0, 576.0491581021736, 0.0]
['beep', 0.0, -1565.0467950161453, 0.0, 0.0, 0.0, 0.0, 579.6030854705674, 0.0]
['beep', 0.0, -1560.5317426361732, 0.0, 0.0, 0.0, 0.0, 582.8887919054976, 0.0]
['beep', 0.0, -1564.1527252379328, 0.0, 0.0, 0.0, 0.0, 579.0442918591848, 0.0]
['beep', 0.0, -1570.5006206632402, 0.0, 0.0, 0.0, 0.0, 575.8703441465311, 0.0]
['beep', 0.0, -1570.9700072968017, 0.0, 0.0, 0.0, 0.0, 576.7197104358328, 0.0]
['beep', 0.0, -1564.1974287268436, 0.0, 0.0, 0.0, 0.0, 580.5865622266009, 0.0]
['beep', 0.0, -1559.280044946676, 0.0, 0.0, 0.0, 0.0, 583.1123093500506, 0.0]
['beep', 0.0, -1562.3198821925978, 0.0, 0.0, 0.0, 0.0, 579.5136784927462, 0.0]
['beep', 0.0, -1568.1760392398883, 0.0, 0.0, 0.0, 0.0, 575.0880330905954, 0.0]
['beep', 0.0, -1569.8524200740362, 0.0, 0.0, 0.0, 0.0, 575.4009575129697, 0.0]
['beep', 0.0, -1564.3315391935753, 0.0, 0.0, 0.0, 0.0, 580.8324314156093, 0.0]
['beep', 0.0, -1558.5647891241063, 0.0, 0.0, 0.0, 0.0, 584.9004489064752, 0.0]
['beep', 0.0, -1558.5200856351955, 0.0, 0.0, 0.0, 0.0, 580.6536174599669, 0.0]
['beep', 0.0, -1565.4491264163407, 0.0, 0.0, 0.0, 0.0, 575.6915301908887, 0.0]
['beep', 0.0, -1571.5288009081842, 0.0, 0.0, 0.0, 0.0, 576.6973586913775, 0.0]
['beep', 0.0, -1566.5667136391062, 0.0, 0.0, 0.0, 0.0, 582.5311639942126, 0.0]
['beep', 0.0, -1559.4141554134078, 0.0, 0.0, 0.0, 0.0, 585.2357250733048, 0.0]
['beep', 0.0, -1562.2975304481424, 0.0, 0.0, 0.0, 0.0, 580.7430244377881, 0.0]
['beep', 0.0, -1570.567675896606, 0.0, 0.0, 0.0, 0.0, 576.5408964801903, 0.0]
['beep', 0.0, -1568.1089840065222, 0.0, 0.0, 0.0, 0.0, 578.261980803249, 0.0]
['beep', 0.0, -1559.9729490247905, 0.0, 0.0, 0.0, 0.0, 582.7770331832211, 0.0]
['beep', 0.0, -1558.3859751684638, 0.0, 0.0, 0.0, 0.0, 584.9228006509305, 0.0]
['beep', 0.0, -1564.2644839602094, 0.0, 0.0, 0.0, 0.0, 580.3183412931372, 0.0]
['beep', 0.0, -1570.567675896606, 0.0, 0.0, 0.0, 0.0, 575.8926958909865, 0.0]
['beep', 0.0, -1569.4277369293854, 0.0, 0.0, 0.0, 0.0, 577.7255389363216, 0.0]
['beep', 0.0, -1561.4034606699302, 0.0, 0.0, 0.0, 0.0, 583.8946204059864, 0.0]
['beep', 0.0, -1557.5589606236174, 0.0, 0.0, 0.0, 0.0, 585.5710012401345, 0.0]
['beep', 0.0, -1561.3587571810197, 0.0, 0.0, 0.0, 0.0, 581.0112453712518, 0.0]
['beep', 0.0, -1567.9972252842458, 0.0, 0.0, 0.0, 0.0, 576.5185447357351, 0.0]
['beep', 0.0, -1567.9078183064246, 0.0, 0.0, 0.0, 0.0, 576.9655796248412, 0.0]
['beep', 0.0, -1563.1021932485335, 0.0, 0.0, 0.0, 0.0, 583.0005506277741, 0.0]
['beep', 0.0, -1559.21298971331, 0.0, 0.0, 0.0, 0.0, 584.7439866952881, 0.0]
['beep', 0.0, -1562.8563240595252, 0.0, 0.0, 0.0, 0.0, 582.262943060749, 0.0]
['beep', 0.0, -1570.4559171743294, 0.0, 0.0, 0.0, 0.0, 578.1949255698831, 0.0]
['beep', 0.0, -1569.2936264626535, 0.0, 0.0, 0.0, 0.0, 579.0442918591848, 0.0]
['beep', 0.0, -1562.5433996371507, 0.0, 0.0, 0.0, 0.0, 583.4699372613355, 0.0]
['beep', 0.0, -1556.5307803786732, 0.0, 0.0, 0.0, 0.0, 586.3756640405255, 0.0]
['beep', 0.0, -1557.4695536457962, 0.0, 0.0, 0.0, 0.0, 583.0005506277741, 0.0]
['beep', 0.0, -1563.7503938377374, 0.0, 0.0, 0.0, 0.0, 579.6030854705674, 0.0]
['beep', 0.0, -1563.3033589486313, 0.0, 0.0, 0.0, 0.0, 581.3241697936261, 0.0]
['beep', 0.0, -1557.2683879456984, 0.0, 0.0, 0.0, 0.0, 586.6438849739892, 0.0]
['beep', 0.0, -1554.921454777891, 0.0, 0.0, 0.0, 0.0, 588.6108384860562, 0.0]
['beep', 0.0, -1559.4588589023185, 0.0, 0.0, 0.0, 0.0, 584.1628413394501, 0.0]
['beep', 0.0, -1567.5725421395948, 0.0, 0.0, 0.0, 0.0, 579.7595476817546, 0.0]
['beep', 0.0, -1569.4277369293854, 0.0, 0.0, 0.0, 0.0, 580.2736378042266, 0.0]
['beep', 0.0, -1562.7892688261593, 0.0, 0.0, 0.0, 0.0, 585.2357250733048, 0.0]
['beep', 0.0, -1557.0001670122347, 0.0, 0.0, 0.0, 0.0, 587.2026785853718, 0.0]
['beep', 0.0, -1560.1741147248883, 0.0, 0.0, 0.0, 0.0, 582.8440884165869, 0.0]
['beep', 0.0, -1566.5667136391062, 0.0, 0.0, 0.0, 0.0, 578.261980803249, 0.0]
['beep', 0.0, -1566.7231758502933, 0.0, 0.0, 0.0, 0.0, 578.4854982478021, 0.0]
['beep', 0.0, -1561.4928676477514, 0.0, 0.0, 0.0, 0.0, 582.0170738717406, 0.0]
['beep', 0.0, -1556.8437048010476, 0.0, 0.0, 0.0, 0.0, 584.6545797174668, 0.0]
['beep', 0.0, -1560.4199839138967, 0.0, 0.0, 0.0, 0.0, 579.8713064040311, 0.0]
['beep', 0.0, -1567.952521795335, 0.0, 0.0, 0.0, 0.0, 574.7527569237658, 0.0]
['beep', 0.0, -1569.763013096215, 0.0, 0.0, 0.0, 0.0, 576.87617264702, 0.0]
['beep', 0.0, -1562.2081234703212, 0.0, 0.0, 0.0, 0.0, 580.9218383934306, 0.0]
['beep', 0.0, -1551.8369140430586, 0.0, 0.0, 0.0, 0.0, 580.6536174599669, 0.0]
['beep', 0.0, -1554.4297163998745, 0.0, 0.0, 0.0, 0.0, 575.1550883239613, 0.0]
['beep', 0.0, -1565.3373676940641, 0.0, 0.0, 0.0, 0.0, 569.0307103432071, 0.0]
['beep', 0.0, -1565.9185130499022, 0.0, 0.0, 0.0, 0.0, 570.5729807106234, 0.0]
['beep', 0.0, -1558.1624577239106, 0.0, 0.0, 0.0, 0.0, 574.6633499459446, 0.0]
['beep', 0.0, -1552.149838465433, 0.0, 0.0, 0.0, 0.0, 575.0880330905954, 0.0]
['beep', 0.0, -1554.3626611665084, 0.0, 0.0, 0.0, 0.0, 571.0200155997295, 0.0]
['beep', 0.0, -1559.9282455358798, 0.0, 0.0, 0.0, 0.0, 565.9461696083748, 0.0]
['beep', 0.0, -1561.2022949698323, 0.0, 0.0, 0.0, 0.0, 566.3261492641151, 0.0]
['beep', 0.0, -1556.5531321231285, 0.0, 0.0, 0.0, 0.0, 570.103594077062, 0.0]
['beep', 0.0, -1551.7251553207823, 0.0, 0.0, 0.0, 0.0, 571.1764778109167, 0.0]
['beep', 0.0, -1554.8767512889806, 0.0, 0.0, 0.0, 0.0, 568.2260475428161, 0.0]
['beep', 0.0, -1560.6882048473603, 0.0, 0.0, 0.0, 0.0, 562.5263527067128, 0.0]
['beep', 0.0, -1561.9846060257682, 0.0, 0.0, 0.0, 0.0, 563.4874777182911, 0.0]
['beep', 0.0, -1556.374318167486, 0.0, 0.0, 0.0, 0.0, 568.9860068542965, 0.0]
['beep', 0.0, -1551.8816175319694, 0.0, 0.0, 0.0, 0.0, 570.2600562882491, 0.0]
['beep', 0.0, -1554.1167919775, 0.0, 0.0, 0.0, 0.0, 566.3708527530257, 0.0]
['beep', 0.0, -1560.0847077470671, 0.0, 0.0, 0.0, 0.0, 563.1074980625508, 0.0]
['beep', 0.0, -1560.8893705474582, 0.0, 0.0, 0.0, 0.0, 563.1745532959168, 0.0]
['beep', 0.0, -1554.8320478000699, 0.0, 0.0, 0.0, 0.0, 566.8625911310424, 0.0]
['beep', 0.0, -1550.1381814644553, 0.0, 0.0, 0.0, 0.0, 568.9860068542965, 0.0]
['beep', 0.0, -1554.3626611665084, 0.0, 0.0, 0.0, 0.0, 565.6332451860005, 0.0]
['beep', 0.0, -1560.6882048473603, 0.0, 0.0, 0.0, 0.0, 561.2746550172157, 0.0]
['beep', 0.0, -1561.0681845031006, 0.0, 0.0, 0.0, 0.0, 561.1852480393944, 0.0]
['beep', 0.0, -1554.0944402330447, 0.0, 0.0, 0.0, 0.0, 565.3650242525368, 0.0]
['beep', 0.0, -1549.02059424169, 0.0, 0.0, 0.0, 0.0, 567.4660882313357, 0.0]
['beep', 0.0, -1552.8427425435475, 0.0, 0.0, 0.0, 0.0, 564.2921405186821, 0.0]
['beep', 0.0, -1558.8777135464804, 0.0, 0.0, 0.0, 0.0, 560.3135300056374, 0.0]
['beep', 0.0, -1559.503562391229, 0.0, 0.0, 0.0, 0.0, 561.8334486285984, 0.0]
['beep', 0.0, -1552.64157684345, 0.0, 0.0, 0.0, 0.0, 566.7061289198552, 0.0]
['beep', 0.0, -1547.4559721298185, 0.0, 0.0, 0.0, 0.0, 567.3319777646038, 0.0]
['beep', 0.0, -1551.1216582204888, 0.0, 0.0, 0.0, 0.0, 564.1580300519503, 0.0]
['beep', 0.0, -1557.5813123680728, 0.0, 0.0, 0.0, 0.0, 560.6711579169223, 0.0]
['beep', 0.0, -1556.888408289958, 0.0, 0.0, 0.0, 0.0, 561.297006761671, 0.0]
['beep', 0.0, -1551.2334169427654, 0.0, 0.0, 0.0, 0.0, 566.035576586196, 0.0]
['beep', 0.0, -1546.7407163072487, 0.0, 0.0, 0.0, 0.0, 569.1424690654837, 0.0]
['beep', 0.0, -1549.6240913419833, 0.0, 0.0, 0.0, 0.0, 564.9850445967966, 0.0]
['beep', 0.0, -1556.441373400852, 0.0, 0.0, 0.0, 0.0, 560.1570677944503, 0.0]
['beep', 0.0, -1557.089573990056, 0.0, 0.0, 0.0, 0.0, 562.0569660731514, 0.0]
['beep', 0.0, -1552.7086320768158, 0.0, 0.0, 0.0, 0.0, 565.6332451860005, 0.0]
['beep', 0.0, -1548.0147657412012, 0.0, 0.0, 0.0, 0.0, 566.6837771754, 0.0]
['beep', 0.0, -1550.5852163535615, 0.0, 0.0, 0.0, 0.0, 563.3980707404698, 0.0]
['beep', 0.0, -1555.8155245561034, 0.0, 0.0, 0.0, 0.0, 559.4418119718805, 0.0]
['beep', 0.0, -1557.3577949235196, 0.0, 0.0, 0.0, 0.0, 560.1123643055397, 0.0]
['beep', 0.0, -1551.702803576327, 0.0, 0.0, 0.0, 0.0, 564.8509341300647, 0.0]
['beep', 0.0, -1547.1653994518995, 0.0, 0.0, 0.0, 0.0, 567.2425707867826, 0.0]
['beep', 0.0, -1550.6075680980168, 0.0, 0.0, 0.0, 0.0, 562.8392771290871, 0.0]
['beep', 0.0, -1555.9943385117458, 0.0, 0.0, 0.0, 0.0, 558.8383148715872, 0.0]
['beep', 0.0, -1557.089573990056, 0.0, 0.0, 0.0, 0.0, 560.134716049995, 0.0]
['beep', 0.0, -1551.6804518318716, 0.0, 0.0, 0.0, 0.0, 566.0579283306514, 0.0]
['beep', 0.0, -1547.120695962989, 0.0, 0.0, 0.0, 0.0, 568.5613237096458, 0.0]
['beep', 0.0, -1550.1381814644553, 0.0, 0.0, 0.0, 0.0, 565.7450039082771, 0.0]
['beep', 0.0, -1556.7766495676817, 0.0, 0.0, 0.0, 0.0, 561.0287858282072, 0.0]
['beep', 0.0, -1560.151762980433, 0.0, 0.0, 0.0, 0.0, 560.939378850386, 0.0]
['beep', 0.0, -1555.413193155908, 0.0, 0.0, 0.0, 0.0, 567.2872742756932, 0.0]
['beep', 0.0, -1549.3111669196091, 0.0, 0.0, 0.0, 0.0, 569.2765795322156, 0.0]
['beep', 0.0, -1551.4122308984079, 0.0, 0.0, 0.0, 0.0, 565.812059141643, 0.0]
['beep', 0.0, -1558.4530304018297, 0.0, 0.0, 0.0, 0.0, 561.58757943959, 0.0]
['beep', 0.0, -1561.314053692109, 0.0, 0.0, 0.0, 0.0, 562.8169253846319, 0.0]
['beep', 0.0, -1554.764992566704, 0.0, 0.0, 0.0, 0.0, 568.2931027761821, 0.0]
['beep', 0.0, -1549.8029052976258, 0.0, 0.0, 0.0, 0.0, 571.3552917665592, 0.0]
['beep', 0.0, -1553.312129177109, 0.0, 0.0, 0.0, 0.0, 568.360158009548, 0.0]
['beep', 0.0, -1560.30822519162, 0.0, 0.0, 0.0, 0.0, 564.0015678407631, 0.0]
['beep', 0.0, -1562.3198821925978, 0.0, 0.0, 0.0, 0.0, 563.3980707404698, 0.0]
['beep', 0.0, -1555.793172811648, 0.0, 0.0, 0.0, 0.0, 569.4330417434028, 0.0]
['beep', 0.0, -1550.249940186732, 0.0, 0.0, 0.0, 0.0, 571.3776435110144, 0.0]
['beep', 0.0, -1553.602701855028, 0.0, 0.0, 0.0, 0.0, 568.4719167318245, 0.0]
['beep', 0.0, -1559.8388385580586, 0.0, 0.0, 0.0, 0.0, 564.4486027298692, 0.0]
['beep', 0.0, -1561.8504955590363, 0.0, 0.0, 0.0, 0.0, 564.8956376189753, 0.0]
['beep', 0.0, -1556.6201873564944, 0.0, 0.0, 0.0, 0.0, 569.0307103432071, 0.0]
['beep', 0.0, -1550.5852163535615, 0.0, 0.0, 0.0, 0.0, 571.3776435110144, 0.0]
['beep', 0.0, -1553.0662599881007, 0.0, 0.0, 0.0, 0.0, 568.8071928986541, 0.0]
['beep', 0.0, -1560.1294112359776, 0.0, 0.0, 0.0, 0.0, 564.8285823856095, 0.0]
['beep', 0.0, -1561.537571136662, 0.0, 0.0, 0.0, 0.0, 565.3650242525368, 0.0]
['beep', 0.0, -1556.0166902562012, 0.0, 0.0, 0.0, 0.0, 568.87424813202, 0.0]
['beep', 0.0, -1551.501637876229, 0.0, 0.0, 0.0, 0.0, 571.3329400221038, 0.0]
['beep', 0.0, -1553.7144605773046, 0.0, 0.0, 0.0, 0.0, 568.7177859208329, 0.0]
['beep', 0.0, -1560.1741147248883, 0.0, 0.0, 0.0, 0.0, 564.8062306411541, 0.0]
['beep', 0.0, -1560.8223153140923, 0.0, 0.0, 0.0, 0.0, 565.4767829748134, 0.0]
['beep', 0.0, -1555.122620477989, 0.0, 0.0, 0.0, 0.0, 569.5448004656793, 0.0]
['beep', 0.0, -1550.2275884422766, 0.0, 0.0, 0.0, 0.0, 571.198829555372, 0.0]
['beep', 0.0, -1552.4627628878075, 0.0, 0.0, 0.0, 0.0, 568.7177859208329, 0.0]
['beep', 0.0, -1559.794135069148, 0.0, 0.0, 0.0, 0.0, 565.297969019171, 0.0]
['beep', 0.0, -1559.9729490247905, 0.0, 0.0, 0.0, 0.0, 565.1191550635284, 0.0]
['beep', 0.0, -1554.7202890777933, 0.0, 0.0, 0.0, 0.0, 570.2824080327044, 0.0]
['beep', 0.0, -1550.026422742179, 0.0, 0.0, 0.0, 0.0, 572.3834720115033, 0.0]
['beep', 0.0, -1552.7309838212711, 0.0, 0.0, 0.0, 0.0, 568.2483992872715, 0.0]
['beep', 0.0, -1558.989472268757, 0.0, 0.0, 0.0, 0.0, 565.5885416970899, 0.0]
['beep', 0.0, -1560.6882048473603, 0.0, 0.0, 0.0, 0.0, 567.0190533422295, 0.0]
['beep', 0.0, -1555.1673239668994, 0.0, 0.0, 0.0, 0.0, 570.6847394329, 0.0]
['beep', 0.0, -1549.5570361086175, 0.0, 0.0, 0.0, 0.0, 573.9704458678301, 0.0]
['beep', 0.0, -1551.501637876229, 0.0, 0.0, 0.0, 0.0, 571.2882365331932, 0.0]
['beep', 0.0, -1557.4024984124303, 0.0, 0.0, 0.0, 0.0, 566.4826114753022, 0.0]
['beep', 0.0, -1558.2742164461872, 0.0, 0.0, 0.0, 0.0, 567.197867297872, 0.0]
['beep', 0.0, -1552.2615971877096, 0.0, 0.0, 0.0, 0.0, 571.3552917665592, 0.0]
['beep', 0.0, -1549.4452773863409, 0.0, 0.0, 0.0, 0.0, 572.9422656228859, 0.0]
['beep', 0.0, -1552.5968733545392, 0.0, 0.0, 0.0, 0.0, 569.8130213991429, 0.0]
['beep', 0.0, -1558.8106583131146, 0.0, 0.0, 0.0, 0.0, 566.5049632197575, 0.0]
['beep', 0.0, -1560.2858734471647, 0.0, 0.0, 0.0, 0.0, 566.6614254309446, 0.0]
['beep', 0.0, -1554.2956059331425, 0.0, 0.0, 0.0, 0.0, 570.9976638552743, 0.0]
['beep', 0.0, -1549.7805535531704, 0.0, 0.0, 0.0, 0.0, 572.0928993335842, 0.0]
['beep', 0.0, -1553.3568326660197, 0.0, 0.0, 0.0, 0.0, 568.5613237096458, 0.0]
['beep', 0.0, -1560.151762980433, 0.0, 0.0, 0.0, 0.0, 564.7838788966989, 0.0]
['beep', 0.0, -1557.9836437682682, 0.0, 0.0, 0.0, 0.0, 565.163858552439, 0.0]
['beep', 0.0, -1549.02059424169, 0.0, 0.0, 0.0, 0.0, 567.5107917202463, 0.0]
['beep', 0.0, -1544.058506972612, 0.0, 0.0, 0.0, 0.0, 566.9296463644083, 0.0]
['beep', 0.0, -1545.6454808289386, 0.0, 0.0, 0.0, 0.0, 563.0180910847296, 0.0]
['beep', 0.0, -1552.8427425435475, 0.0, 0.0, 0.0, 0.0, 558.2124660268386, 0.0]
['beep', 0.0, -1555.8378763005587, 0.0, 0.0, 0.0, 0.0, 555.5749601811124, 0.0]
['beep', 0.0, -1550.696975075838, 0.0, 0.0, 0.0, 0.0, 560.0229573277185, 0.0]
['beep', 0.0, -1543.8796930169694, 0.0, 0.0, 0.0, 0.0, 561.2075997838497, 0.0]
['beep', 0.0, -1546.6736610738828, 0.0, 0.0, 0.0, 0.0, 555.8208293701207, 0.0]
['beep', 0.0, -1553.5579983661173, 0.0, 0.0, 0.0, 0.0, 550.0317275561962, 0.0]
['beep', 0.0, -1555.1449722224443, 0.0, 0.0, 0.0, 0.0, 550.7916868676766, 0.0]
['beep', 0.0, -1549.892312275447, 0.0, 0.0, 0.0, 0.0, 555.619663670023, 0.0]
['beep', 0.0, -1544.214969183799, 0.0, 0.0, 0.0, 0.0, 556.5137334482353, 0.0]
['beep', 0.0, -1546.4948471182404, 0.0, 0.0, 0.0, 0.0, 552.6692334019224, 0.0]
['beep', 0.0, -1552.5298181211733, 0.0, 0.0, 0.0, 0.0, 548.2659397442269, 0.0]
['beep', 0.0, -1554.0050332552235, 0.0, 0.0, 0.0, 0.0, 548.5118089332353, 0.0]
['beep', 0.0, -1548.9535390083242, 0.0, 0.0, 0.0, 0.0, 553.1162682910285, 0.0]
['beep', 0.0, -1544.2820244171648, 0.0, 0.0, 0.0, 0.0, 555.2396840142827, 0.0]
['beep', 0.0, -1547.4559721298185, 0.0, 0.0, 0.0, 0.0, 551.39518396797, 0.0]
['beep', 0.0, -1553.2897774326536, 0.0, 0.0, 0.0, 0.0, 546.0754687876068, 0.0]
['beep', 0.0, -1554.921454777891, 0.0, 0.0, 0.0, 0.0, 547.4836286882912, 0.0]
['beep', 0.0, -1550.1605332089107, 0.0, 0.0, 0.0, 0.0, 552.1774950239056, 0.0]
['beep', 0.0, -1544.6620040729051, 0.0, 0.0, 0.0, 0.0, 555.3961462254699, 0.0]
['beep', 0.0, -1546.3830883959638, 0.0, 0.0, 0.0, 0.0, 552.132791534995, 0.0]
['beep', 0.0, -1552.798039054637, 0.0, 0.0, 0.0, 0.0, 548.2435879997716, 0.0]
['beep', 0.0, -1555.2343792002655, 0.0, 0.0, 0.0, 0.0, 548.8247333556096, 0.0]
['beep', 0.0, -1550.1158297200002, 0.0, 0.0, 0.0, 0.0, 553.4962479467688, 0.0]
['beep', 0.0, -1544.572597095084, 0.0, 0.0, 0.0, 0.0, 554.6808904029001, 0.0]
['beep', 0.0, -1546.5842540960616, 0.0, 0.0, 0.0, 0.0, 551.8645706015313, 0.0]
['beep', 0.0, -1552.5745216100838, 0.0, 0.0, 0.0, 0.0, 547.9306635773974, 0.0]
['beep', 0.0, -1553.5803501105727, 0.0, 0.0, 0.0, 0.0, 549.361175222537, 0.0]
['beep', 0.0, -1549.02059424169, 0.0, 0.0, 0.0, 0.0, 552.3786607240035, 0.0]
['beep', 0.0, -1543.7455825502375, 0.0, 0.0, 0.0, 0.0, 553.4515444578582, 0.0]
['beep', 0.0, -1545.4666668732962, 0.0, 0.0, 0.0, 0.0, 550.7022798898554, 0.0]
['beep', 0.0, -1552.149838465433, 0.0, 0.0, 0.0, 0.0, 545.4719716873136, 0.0]
['beep', 0.0, -1554.2285506997766, 0.0, 0.0, 0.0, 0.0, 545.7401926207773, 0.0]
['beep', 0.0, -1548.3276901635754, 0.0, 0.0, 0.0, 0.0, 550.4787624453023, 0.0]
['beep', 0.0, -1544.4831901172627, 0.0, 0.0, 0.0, 0.0, 553.9432828358749, 0.0]
['beep', 0.0, -1546.9642337518019, 0.0, 0.0, 0.0, 0.0, 550.5681694231235, 0.0]
['beep', 0.0, -1553.2003704548324, 0.0, 0.0, 0.0, 0.0, 545.360212965037, 0.0]
['beep', 0.0, -1554.8767512889806, 0.0, 0.0, 0.0, 0.0, 546.0531170431516, 0.0]
['beep', 0.0, -1548.573559352584, 0.0, 0.0, 0.0, 0.0, 551.2834252456934, 0.0]
['beep', 0.0, -1543.5220651056845, 0.0, 0.0, 0.0, 0.0, 552.9374543353861, 0.0]
['beep', 0.0, -1546.0478122291343, 0.0, 0.0, 0.0, 0.0, 550.4564107008471, 0.0]
['beep', 0.0, -1552.8650942880029, 0.0, 0.0, 0.0, 0.0, 546.7236693768108, 0.0]
['beep', 0.0, -1554.0944402330447, 0.0, 0.0, 0.0, 0.0, 546.2989862321599, 0.0]
['beep', 0.0, -1548.9088355194135, 0.0, 0.0, 0.0, 0.0, 550.9481490788638, 0.0]
['beep', 0.0, -1545.01963198419, 0.0, 0.0, 0.0, 0.0, 553.5633031801348, 0.0]
['beep', 0.0, -1548.1265244634778, 0.0, 0.0, 0.0, 0.0, 550.814038612132, 0.0]
['beep', 0.0, -1553.468591388296, 0.0, 0.0, 0.0, 0.0, 546.1201722765175, 0.0]
['beep', 0.0, -1554.764992566704, 0.0, 0.0, 0.0, 0.0, 546.3660414655259, 0.0]
['beep', 0.0, -1549.9146640199024, 0.0, 0.0, 0.0, 0.0, 551.5069426902464, 0.0]
['beep', 0.0, -1544.8855215174583, 0.0, 0.0, 0.0, 0.0, 553.2280270133051, 0.0]
['beep', 0.0, -1546.1372192069555, 0.0, 0.0, 0.0, 0.0, 550.0764310451068, 0.0]
['beep', 0.0, -1553.0439082436453, 0.0, 0.0, 0.0, 0.0, 546.4107449544365, 0.0]
['beep', 0.0, -1555.5026001337292, 0.0, 0.0, 0.0, 0.0, 546.2766344877047, 0.0]
['beep', 0.0, -1550.249940186732, 0.0, 0.0, 0.0, 0.0, 550.4787624453023, 0.0]
['beep', 0.0, -1545.5560738511174, 0.0, 0.0, 0.0, 0.0, 552.8927508464755, 0.0]
['beep', 0.0, -1547.5453791076397, 0.0, 0.0, 0.0, 0.0, 550.4787624453023, 0.0]
['beep', 0.0, -1553.7815158106705, 0.0, 0.0, 0.0, 0.0, 546.7013176323554, 0.0]
['beep', 0.0, -1554.5191233776957, 0.0, 0.0, 0.0, 0.0, 546.8354280990873, 0.0]
['beep', 0.0, -1548.282986674665, 0.0, 0.0, 0.0, 0.0, 551.7975153681655, 0.0]
['beep', 0.0, -1543.7455825502375, 0.0, 0.0, 0.0, 0.0, 554.166800280428, 0.0]
['beep', 0.0, -1545.7125360623047, 0.0, 0.0, 0.0, 0.0, 549.8752653450091, 0.0]
['beep', 0.0, -1551.568693109595, 0.0, 0.0, 0.0, 0.0, 545.8966548319644, 0.0]
['beep', 0.0, -1552.9097977769136, 0.0, 0.0, 0.0, 0.0, 546.2989862321599, 0.0]
['beep', 0.0, -1547.6124343410056, 0.0, 0.0, 0.0, 0.0, 551.551646179157, 0.0]
['beep', 0.0, -1541.3539458935197, 0.0, 0.0, 0.0, 0.0, 553.9209310914197, 0.0]
['beep', 0.0, -1544.4384866283522, 0.0, 0.0, 0.0, 0.0, 551.39518396797, 0.0]
['beep', 0.0, -1551.3004721761313, 0.0, 0.0, 0.0, 0.0, 546.6789658879002, 0.0]
['beep', 0.0, -1552.7533355657263, 0.0, 0.0, 0.0, 0.0, 546.0307652986962, 0.0]
['beep', 0.0, -1546.763068051704, 0.0, 0.0, 0.0, 0.0, 551.4845909457912, 0.0]
['beep', 0.0, -1542.2256639272766, 0.0, 0.0, 0.0, 0.0, 553.5633031801348, 0.0]
['beep', 0.0, -1543.54441685014, 0.0, 0.0, 0.0, 0.0, 549.8082101116431, 0.0]
['beep', 0.0, -1550.182884953366, 0.0, 0.0, 0.0, 0.0, 545.7848961096879, 0.0]
['beep', 0.0, -1551.8145622986035, 0.0, 0.0, 0.0, 0.0, 546.0531170431516, 0.0]
['beep', 0.0, -1547.6571378299163, 0.0, 0.0, 0.0, 0.0, 550.7693351232214, 0.0]
['beep', 0.0, -1542.1139052050003, 0.0, 0.0, 0.0, 0.0, 552.7586403797436, 0.0]
['beep', 0.0, -1544.1926174393436, 0.0, 0.0, 0.0, 0.0, 549.1823612668945, 0.0]
['beep', 0.0, -1551.5463413651398, 0.0, 0.0, 0.0, 0.0, 545.136695520484, 0.0]
['beep', 0.0, -1552.4851146322626, 0.0, 0.0, 0.0, 0.0, 545.360212965037, 0.0]
['beep', 0.0, -1547.411268640908, 0.0, 0.0, 0.0, 0.0, 549.5399891781794, 0.0]
['beep', 0.0, -1541.6668703158941, 0.0, 0.0, 0.0, 0.0, 552.132791534995, 0.0]
['beep', 0.0, -1543.410306383408, 0.0, 0.0, 0.0, 0.0, 549.294119989171, 0.0]
['beep', 0.0, -1550.4511058868297, 0.0, 0.0, 0.0, 0.0, 544.5108466757354, 0.0]
['beep', 0.0, -1552.4851146322626, 0.0, 0.0, 0.0, 0.0, 544.8461228425649, 0.0]
['beep', 0.0, -1547.4336203853632, 0.0, 0.0, 0.0, 0.0, 549.8305618560985, 0.0]
['beep', 0.0, -1542.4938848607403, 0.0, 0.0, 0.0, 0.0, 553.2280270133051, 0.0]
['beep', 0.0, -1544.371431394986, 0.0, 0.0, 0.0, 0.0, 550.4787624453023, 0.0]
['beep', 0.0, -1550.0711262310895, 0.0, 0.0, 0.0, 0.0, 545.6731373874113, 0.0]
['beep', 0.0, -1551.5910448540503, 0.0, 0.0, 0.0, 0.0, 545.3155094761264, 0.0]
['beep', 0.0, -1546.986585496257, 0.0, 0.0, 0.0, 0.0, 549.361175222537, 0.0]
['beep', 0.0, -1542.2703674161874, 0.0, 0.0, 0.0, 0.0, 552.5574746796459, 0.0]
['beep', 0.0, -1544.7514110507263, 0.0, 0.0, 0.0, 0.0, 548.9588438223415, 0.0]
['beep', 0.0, -1551.1216582204888, 0.0, 0.0, 0.0, 0.0, 544.1979222533611, 0.0]
['beep', 0.0, -1551.993376254246, 0.0, 0.0, 0.0, 0.0, 544.9131780759309, 0.0]
['beep', 0.0, -1544.6620040729051, 0.0, 0.0, 0.0, 0.0, 549.428230455903, 0.0]
['beep', 0.0, -1538.6493848144275, 0.0, 0.0, 0.0, 0.0, 552.2669020017269, 0.0]
['beep', 0.0, -1539.5211028481845, 0.0, 0.0, 0.0, 0.0, 551.6634049014336, 0.0]
['beep', 0.0, -1544.4161348838968, 0.0, 0.0, 0.0, 0.0, 547.4612769438359, 0.0]
['beep', 0.0, -1547.768896552193, 0.0, 0.0, 0.0, 0.0, 548.2212362553163, 0.0]
['beep', 0.0, -1543.2538441722209, 0.0, 0.0, 0.0, 0.0, 553.1609717799391, 0.0]
['beep', 0.0, -1539.8116755261035, 0.0, 0.0, 0.0, 0.0, 555.5079049477464, 0.0]
['beep', 0.0, -1543.5220651056845, 0.0, 0.0, 0.0, 0.0, 553.6974136468666, 0.0]
['beep', 0.0, -1550.764030309204, 0.0, 0.0, 0.0, 0.0, 549.9199688339197, 0.0]
['beep', 0.0, -1552.9321495213687, 0.0, 0.0, 0.0, 0.0, 550.3670037230258, 0.0]
['beep', 0.0, -1546.8971785184358, 0.0, 0.0, 0.0, 0.0, 554.3903177249811, 0.0]
['beep', 0.0, -1542.1139052050003, 0.0, 0.0, 0.0, 0.0, 557.8995416044643, 0.0]
['beep', 0.0, -1545.153742450922, 0.0, 0.0, 0.0, 0.0, 556.0219950702185, 0.0]
['beep', 0.0, -1551.3004721761313, 0.0, 0.0, 0.0, 0.0, 552.4010124684587, 0.0]
['beep', 0.0, -1551.7475070652374, 0.0, 0.0, 0.0, 0.0, 552.6692334019224, 0.0]
['beep', 0.0, -1546.5171988626957, 0.0, 0.0, 0.0, 0.0, 558.0336520711961, 0.0]
['beep', 0.0, -1541.957442993813, 0.0, 0.0, 0.0, 0.0, 561.58757943959, 0.0]
['beep', 0.0, -1543.8349895280587, 0.0, 0.0, 0.0, 0.0, 559.553570694157, 0.0]
['beep', 0.0, -1551.4345826428632, 0.0, 0.0, 0.0, 0.0, 554.457372958347, 0.0]
['beep', 0.0, -1553.602701855028, 0.0, 0.0, 0.0, 0.0, 555.8208293701207, 0.0]
['beep', 0.0, -1546.83012328507, 0.0, 0.0, 0.0, 0.0, 559.3300532496039, 0.0]
['beep', 0.0, -1542.5609400941064, 0.0, 0.0, 0.0, 0.0, 561.0511375726626, 0.0]
['beep', 0.0, -1544.63965232845, 0.0, 0.0, 0.0, 0.0, 559.4194602274251, 0.0]
['beep', 0.0, -1549.8029052976258, 0.0, 0.0, 0.0, 0.0, 555.4408497143805, 0.0]
['beep', 0.0, -1551.702803576327, 0.0, 0.0, 0.0, 0.0, 554.6361869139895, 0.0]
['beep', 0.0, -1546.7854197961594, 0.0, 0.0, 0.0, 0.0, 559.5982741830676, 0.0]
['beep', 0.0, -1542.2033121828215, 0.0, 0.0, 0.0, 0.0, 562.9957393402743, 0.0]
['beep', 0.0, -1544.0808587170673, 0.0, 0.0, 0.0, 0.0, 559.5088672052464, 0.0]
['beep', 0.0, -1548.9311872638689, 0.0, 0.0, 0.0, 0.0, 554.7255938918107, 0.0]
['beep', 0.0, -1551.9039692764247, 0.0, 0.0, 0.0, 0.0, 555.843181114576, 0.0]
['beep', 0.0, -1547.5006756187292, 0.0, 0.0, 0.0, 0.0, 560.2464747722715, 0.0]
['beep', 0.0, -1540.8398557710477, 0.0, 0.0, 0.0, 0.0, 563.4427742293805, 0.0]
['beep', 0.0, -1542.762105794204, 0.0, 0.0, 0.0, 0.0, 561.3417102505816, 0.0]
['beep', 0.0, -1549.4229256418855, 0.0, 0.0, 0.0, 0.0, 556.5807886816011, 0.0]
['beep', 0.0, -1552.0827832320672, 0.0, 0.0, 0.0, 0.0, 556.424326470414, 0.0]
['beep', 0.0, -1547.5006756187292, 0.0, 0.0, 0.0, 0.0, 561.1628962949391, 0.0]
['beep', 0.0, -1541.7562772937154, 0.0, 0.0, 0.0, 0.0, 563.0851463180956, 0.0]
['beep', 0.0, -1542.9409197498464, 0.0, 0.0, 0.0, 0.0, 560.8052683836542, 0.0]
['beep', 0.0, -1549.1770564528772, 0.0, 0.0, 0.0, 0.0, 556.7372508927883, 0.0]
['beep', 0.0, -1551.1216582204888, 0.0, 0.0, 0.0, 0.0, 557.0948788040732, 0.0]
['beep', 0.0, -1546.2936814181426, 0.0, 0.0, 0.0, 0.0, 561.7216899063218, 0.0]
['beep', 0.0, -1540.0798964595672, 0.0, 0.0, 0.0, 0.0, 565.2532655302604, 0.0]
['beep', 0.0, -1541.6221668269834, 0.0, 0.0, 0.0, 0.0, 562.8839806179977, 0.0]
['beep', 0.0, -1548.1265244634778, 0.0, 0.0, 0.0, 0.0, 558.6595009159447, 0.0]
['beep', 0.0, -1549.8476087865365, 0.0, 0.0, 0.0, 0.0, 558.7936113826765, 0.0]
['beep', 0.0, -1544.4161348838968, 0.0, 0.0, 0.0, 0.0, 562.101669562062, 0.0]
['beep', 0.0, -1538.1129429475002, 0.0, 0.0, 0.0, 0.0, 565.1415068079838, 0.0]
['beep', 0.0, -1541.1751319378773, 0.0, 0.0, 0.0, 0.0, 562.5040009622576, 0.0]
['beep', 0.0, -1547.8583035300142, 0.0, 0.0, 0.0, 0.0, 557.2289892708051, 0.0]
['beep', 0.0, -1549.4452773863409, 0.0, 0.0, 0.0, 0.0, 556.714899148333, 0.0]
['beep', 0.0, -1543.3879546389526, 0.0, 0.0, 0.0, 0.0, 560.9170271059307, 0.0]
['beep', 0.0, -1538.6270330699722, 0.0, 0.0, 0.0, 0.0, 564.068623074129, 0.0]
['beep', 0.0, -1540.437524370852, 0.0, 0.0, 0.0, 0.0, 561.8558003730536, 0.0]
['beep', 0.0, -1546.7407163072487, 0.0, 0.0, 0.0, 0.0, 557.5195619487241, 0.0]
['beep', 0.0, -1548.1265244634778, 0.0, 0.0, 0.0, 0.0, 557.9218933489196, 0.0]
['beep', 0.0, -1543.6561755724163, 0.0, 0.0, 0.0, 0.0, 562.2134282843385, 0.0]
['beep', 0.0, -1537.665908058394, 0.0, 0.0, 0.0, 0.0, 564.9850445967966, 0.0]
['beep', 0.0, -1537.956480736313, 0.0, 0.0, 0.0, 0.0, 562.392242239981, 0.0]
['beep', 0.0, -1544.796114539637, 0.0, 0.0, 0.0, 0.0, 557.2066375263497, 0.0]
['beep', 0.0, -1548.5512076081286, 0.0, 0.0, 0.0, 0.0, 557.4078032264475, 0.0]
['beep', 0.0, -1543.0079749832125, 0.0, 0.0, 0.0, 0.0, 563.1298498070062, 0.0]
['beep', 0.0, -1537.1965214248326, 0.0, 0.0, 0.0, 0.0, 565.297969019171, 0.0]
['beep', 0.0, -1538.671736558883, 0.0, 0.0, 0.0, 0.0, 562.3475387510704, 0.0]
['beep', 0.0, -1545.6007773400281, 0.0, 0.0, 0.0, 0.0, 558.3465764935704, 0.0]
['beep', 0.0, -1547.791248296648, 0.0, 0.0, 0.0, 0.0, 557.6983759043666, 0.0]
['beep', 0.0, -1542.8738645164806, 0.0, 0.0, 0.0, 0.0, 563.3980707404698, 0.0]
['beep', 0.0, -1537.8894255029472, 0.0, 0.0, 0.0, 0.0, 567.3096260201486, 0.0]
['beep', 0.0, -1538.7834952811595, 0.0, 0.0, 0.0, 0.0, 564.5156579632352, 0.0]
['beep', 0.0, -1544.8408180285476, 0.0, 0.0, 0.0, 0.0, 560.7605648947435, 0.0]
['beep', 0.0, -1548.5512076081286, 0.0, 0.0, 0.0, 0.0, 560.8276201281095, 0.0]
['beep', 0.0, -1542.5162366051957, 0.0, 0.0, 0.0, 0.0, 564.6944719188776, 0.0]
['beep', 0.0, -1537.665908058394, 0.0, 0.0, 0.0, 0.0, 567.6449021869781, 0.0]
['beep', 0.0, -1539.7893237816481, 0.0, 0.0, 0.0, 0.0, 565.5885416970899, 0.0]
['beep', 0.0, -1546.0701639735896, 0.0, 0.0, 0.0, 0.0, 560.2464747722715, 0.0]
['beep', 0.0, -1548.3053384191203, 0.0, 0.0, 0.0, 0.0, 560.2688265167268, 0.0]
['beep', 0.0, -1544.0361552281565, 0.0, 0.0, 0.0, 0.0, 566.2590940307491, 0.0]
['beep', 0.0, -1538.7387917922488, 0.0, 0.0, 0.0, 0.0, 568.3154545206373, 0.0]
['beep', 0.0, -1540.862207515503, 0.0, 0.0, 0.0, 0.0, 566.5273149642128, 0.0]
['beep', 0.0, -1547.344213407542, 0.0, 0.0, 0.0, 0.0, 562.8839806179977, 0.0]
['beep', 0.0, -1548.7747250526818, 0.0, 0.0, 0.0, 0.0, 563.1298498070062, 0.0]
['beep', 0.0, -1543.3208994055867, 0.0, 0.0, 0.0, 0.0, 567.4660882313357, 0.0]
['beep', 0.0, -1537.7553150362153, 0.0, 0.0, 0.0, 0.0, 570.5953324550787, 0.0]
['beep', 0.0, -1539.7893237816481, 0.0, 0.0, 0.0, 0.0, 568.3378062650927, 0.0]
['beep', 0.0, -1546.1148674625001, 0.0, 0.0, 0.0, 0.0, 564.2697887742268, 0.0]
['beep', 0.0, -1549.3111669196091, 0.0, 0.0, 0.0, 0.0, 564.6274166855117, 0.0]
['beep', 0.0, -1544.8184662840924, 0.0, 0.0, 0.0, 0.0, 569.8577248880536, 0.0]
['beep', 0.0, -1538.470570858785, 0.0, 0.0, 0.0, 0.0, 573.6575214454558, 0.0]
['beep', 0.0, -1539.2752336591761, 0.0, 0.0, 0.0, 0.0, 571.8023266556653, 0.0]
['beep', 0.0, -1545.153742450922, 0.0, 0.0, 0.0, 0.0, 566.6390736864894, 0.0]
['beep', 0.0, -1549.1100012195113, 0.0, 0.0, 0.0, 0.0, 564.4709544743246, 0.0]
['beep', 0.0, -1546.2042744403213, 0.0, 0.0, 0.0, 0.0, 568.4719167318245, 0.0]
['beep', 0.0, -1539.7222685482823, 0.0, 0.0, 0.0, 0.0, 572.1823063114055, 0.0]
['beep', 0.0, -1538.6493848144275, 0.0, 0.0, 0.0, 0.0, 571.1541260664613, 0.0]
['beep', 0.0, -1543.857341272514, 0.0, 0.0, 0.0, 0.0, 565.4767829748134, 0.0]
['beep', 0.0, -1546.7854197961594, 0.0, 0.0, 0.0, 0.0, 563.1522015514614, 0.0]
['beep', 0.0, -1542.091553460545, 0.0, 0.0, 0.0, 0.0, 568.5613237096458, 0.0]
['beep', 0.0, -1540.63869007095, 0.0, 0.0, 0.0, 0.0, 571.0870708330955, 0.0]
['beep', 0.0, -1542.538588349651, 0.0, 0.0, 0.0, 0.0, 566.1920387973832, 0.0]
['beep', 0.0, -1546.3830883959638, 0.0, 0.0, 0.0, 0.0, 561.1852480393944, 0.0]
['beep', 0.0, -1548.5288558636732, 0.0, 0.0, 0.0, 0.0, 560.6041026835564, 0.0]
['beep', 0.0, -1543.5891203390504, 0.0, 0.0, 0.0, 0.0, 565.4097277414475, 0.0]
['beep', 0.0, -1536.280099902165, 0.0, 0.0, 0.0, 0.0, 565.812059141643, 0.0]
['beep', 0.0, -1538.2247016697768, 0.0, 0.0, 0.0, 0.0, 563.0180910847296, 0.0]
['beep', 0.0, -1545.3325564065644, 0.0, 0.0, 0.0, 0.0, 557.8324863710984, 0.0]
['beep', 0.0, -1547.7241930632822, 0.0, 0.0, 0.0, 0.0, 555.7314223922995, 0.0]
['beep', 0.0, -1542.8738645164806, 0.0, 0.0, 0.0, 0.0, 559.039480571685, 0.0]
['beep', 0.0, -1537.8447220140365, 0.0, 0.0, 0.0, 0.0, 561.9452073508749, 0.0]
['beep', 0.0, -1539.5658063370952, 0.0, 0.0, 0.0, 0.0, 558.9500735938637, 0.0]
['beep', 0.0, -1544.7290593062712, 0.0, 0.0, 0.0, 0.0, 553.5185996912242, 0.0]
['beep', 0.0, -1547.1653994518995, 0.0, 0.0, 0.0, 0.0, 554.1891520248834, 0.0]
['beep', 0.0, -1543.4773616167738, 0.0, 0.0, 0.0, 0.0, 559.262998016238, 0.0]
['beep', 0.0, -1538.5823295810617, 0.0, 0.0, 0.0, 0.0, 561.3193585061263, 0.0]
['beep', 0.0, -1540.2363586707543, 0.0, 0.0, 0.0, 0.0, 558.1454107934727, 0.0]
['beep', 0.0, -1545.8689982734918, 0.0, 0.0, 0.0, 0.0, 552.9821578242967, 0.0]
['beep', 0.0, -1548.1041727190225, 0.0, 0.0, 0.0, 0.0, 553.9209310914197, 0.0]
['beep', 0.0, -1543.4773616167738, 0.0, 0.0, 0.0, 0.0, 558.1901142823833, 0.0]
['beep', 0.0, -1538.2470534142321, 0.0, 0.0, 0.0, 0.0, 561.006434083752, 0.0]
['beep', 0.0, -1539.0964197035337, 0.0, 0.0, 0.0, 0.0, 558.8159631271319, 0.0]
['beep', 0.0, -1546.2936814181426, 0.0, 0.0, 0.0, 0.0, 553.6080066690454, 0.0]
['beep', 0.0, -1548.3723936524862, 0.0, 0.0, 0.0, 0.0, 553.0268613132073, 0.0]
['beep', 0.0, -1542.9409197498464, 0.0, 0.0, 0.0, 0.0, 557.9218933489196, 0.0]
['beep', 0.0, -1537.5317975916623, 0.0, 0.0, 0.0, 0.0, 561.0958410615732, 0.0]
['beep', 0.0, -1539.2305301702656, 0.0, 0.0, 0.0, 0.0, 558.5700939381235, 0.0]
['beep', 0.0, -1546.3607366515084, 0.0, 0.0, 0.0, 0.0, 554.5467799361683, 0.0]
['beep', 0.0, -1550.048774486634, 0.0, 0.0, 0.0, 0.0, 554.6361869139895, 0.0]
['beep', 0.0, -1544.6843558173605, 0.0, 0.0, 0.0, 0.0, 558.1007073045621, 0.0]
['beep', 0.0, -1538.4482191143297, 0.0, 0.0, 0.0, 0.0, 561.7216899063218, 0.0]
['beep', 0.0, -1540.1022482040225, 0.0, 0.0, 0.0, 0.0, 559.4418119718805, 0.0]
['beep', 0.0, -1545.824294784581, 0.0, 0.0, 0.0, 0.0, 554.8820561029978, 0.0]
['beep', 0.0, -1548.0147657412012, 0.0, 0.0, 0.0, 0.0, 554.457372958347, 0.0]
['beep', 0.0, -1542.4938848607403, 0.0, 0.0, 0.0, 0.0, 559.2406462717827, 0.0]
['beep', 0.0, -1536.4142103688969, 0.0, 0.0, 0.0, 0.0, 562.3475387510704, 0.0]
['beep', 0.0, -1537.3529836360199, 0.0, 0.0, 0.0, 0.0, 559.9782538388079, 0.0]
['beep', 0.0, -1543.2985476611314, 0.0, 0.0, 0.0, 0.0, 557.1842857818945, 0.0]
['beep', 0.0, -1546.2042744403213, 0.0, 0.0, 0.0, 0.0, 556.6925474038777, 0.0]
['beep', 0.0, -1542.2927191606427, 0.0, 0.0, 0.0, 0.0, 560.4476404723692, 0.0]
['beep', 0.0, -1535.9448237353354, 0.0, 0.0, 0.0, 0.0, 564.4486027298692, 0.0]
['beep', 0.0, -1536.7271347912713, 0.0, 0.0, 0.0, 0.0, 563.0404428291849, 0.0]
['beep', 0.0, -1543.6338238279611, 0.0, 0.0, 0.0, 0.0, 558.8606666160425, 0.0]
['beep', 0.0, -1547.1653994518995, 0.0, 0.0, 0.0, 0.0, 558.2571695157492, 0.0]
['beep', 0.0, -1542.091553460545, 0.0, 0.0, 0.0, 0.0, 562.5263527067128, 0.0]
['beep', 0.0, -1536.4812656022627, 0.0, 0.0, 0.0, 0.0, 566.2143905418385, 0.0]
['beep', 0.0, -1538.2247016697768, 0.0, 0.0, 0.0, 0.0, 564.068623074129, 0.0]
['beep', 0.0, -1544.505541861718, 0.0, 0.0, 0.0, 0.0, 559.3077015051487, 0.0]
['beep', 0.0, -1547.634786085461, 0.0, 0.0, 0.0, 0.0, 559.1512392939615, 0.0]
['beep', 0.0, -1542.7844575386594, 0.0, 0.0, 0.0, 0.0, 563.9121608629418, 0.0]
['beep', 0.0, -1538.4035156254192, 0.0, 0.0, 0.0, 0.0, 567.1531638089614, 0.0]
['beep', 0.0, -1540.0128412262013, 0.0, 0.0, 0.0, 0.0, 564.359195752048, 0.0]
['beep', 0.0, -1545.9360535068577, 0.0, 0.0, 0.0, 0.0, 559.8217916276207, 0.0]
['beep', 0.0, -1548.9088355194135, 0.0, 0.0, 0.0, 0.0, 559.1959427828721, 0.0]
['beep', 0.0, -1543.6338238279611, 0.0, 0.0, 0.0, 0.0, 564.8732858745201, 0.0]
['beep', 0.0, -1537.1071144470113, 0.0, 0.0, 0.0, 0.0, 567.8237161426206, 0.0]
['beep', 0.0, -1540.0128412262013, 0.0, 0.0, 0.0, 0.0, 566.8849428754977, 0.0]
['beep', 0.0, -1545.5560738511174, 0.0, 0.0, 0.0, 0.0, 563.5768846961123, 0.0]
['beep', 0.0, -1546.8524750295253, 0.0, 0.0, 0.0, 0.0, 565.2532655302604, 0.0]
['beep', 0.0, -1542.2033121828215, 0.0, 0.0, 0.0, 0.0, 570.7517946662658, 0.0]
['beep', 0.0, -1535.766009779693, 0.0, 0.0, 0.0, 0.0, 573.8810388900089, 0.0]
['beep', 0.0, -1537.4870941027516, 0.0, 0.0, 0.0, 0.0, 574.4621842458469, 0.0]
['beep', 0.0, -1545.0866872175561, 0.0, 0.0, 0.0, 0.0, 571.8917336334865, 0.0]
['beep', 0.0, -1546.628957584972, 0.0, 0.0, 0.0, 0.0, 572.2046580558608, 0.0]
['beep', 0.0, -1540.571634837584, 0.0, 0.0, 0.0, 0.0, 577.7031871918664, 0.0]
['beep', 0.0, -1535.92247199088, 0.0, 0.0, 0.0, 0.0, 584.520469250735, 0.0]
['beep', 0.0, -1536.3024516466203, 0.0, 0.0, 0.0, 0.0, 581.6594459604557, 0.0]
['beep', 0.0, -1543.052678472123, 0.0, 0.0, 0.0, 0.0, 576.5855999691009, 0.0]
['beep', 0.0, -1550.026422742179, 0.0, 0.0, 0.0, 0.0, 577.3008557916709, 0.0]
['beep', 0.0, -1545.6454808289386, 0.0, 0.0, 0.0, 0.0, 582.2405913162937, 0.0]
['beep', 0.0, -1536.1906929243437, 0.0, 0.0, 0.0, 0.0, 585.9509808958746, 0.0]
['beep', 0.0, -1536.1683411798886, 0.0, 0.0, 0.0, 0.0, 584.7439866952881, 0.0]
['beep', 0.0, -1542.7844575386594, 0.0, 0.0, 0.0, 0.0, 579.3125127926485, 0.0]
['beep', 0.0, -1544.5502453506288, 0.0, 0.0, 0.0, 0.0, 580.519506993235, 0.0]
['beep', 0.0, -1540.63869007095, 0.0, 0.0, 0.0, 0.0, 586.2639053182489, 0.0]
['beep', 0.0, -1536.8835970024584, 0.0, 0.0, 0.0, 0.0, 588.7002454638774, 0.0]
['beep', 0.0, -1536.7271347912713, 0.0, 0.0, 0.0, 0.0, 586.3309605516149, 0.0]
['beep', 0.0, -1540.571634837584, 0.0, 0.0, 0.0, 0.0, 581.1453558379836, 0.0]
['beep', 0.0, -1546.628957584972, 0.0, 0.0, 0.0, 0.0, 581.6370942160004, 0.0]
['beep', 0.0, -1544.8184662840924, 0.0, 0.0, 0.0, 0.0, 586.3533122960702, 0.0]
['beep', 0.0, -1535.766009779693, 0.0, 0.0, 0.0, 0.0, 589.616666986545, 0.0]
['beep', 0.0, -1534.0002219677237, 0.0, 0.0, 0.0, 0.0, 587.6050099855673, 0.0]
['beep', 0.0, -1541.599815082528, 0.0, 0.0, 0.0, 0.0, 583.7828616837098, 0.0]
